Vernier Format 2
ecg6.txt 10/17/2025 10:53:2
Run 1
Time	Potential	EKG	
T	P	E	
s	mV	mV	

0.000	0.137	0.006	
0.005	-0.677	-0.010	
0.010	0.919	-0.030	
0.015	1.020	0.066	
0.020	-0.617	0.209	
0.025	0.107	0.236	
0.030	1.434	0.253	
0.035	-0.404	0.334	
0.040	-0.473	0.319	
0.045	1.358	0.253	
0.050	0.128	0.283	
0.055	-0.688	0.289	
0.060	0.905	0.222	
0.065	0.983	0.246	
0.070	-0.633	0.315	
0.075	0.096	0.283	
0.080	1.389	0.258	
0.085	-0.442	0.311	
0.090	-0.486	0.280	
0.095	1.255	0.206	
0.100	-0.037	0.223	
0.105	-0.759	0.210	
0.110	0.660	0.123	
0.115	0.581	0.111	
0.120	-0.837	0.129	
0.125	-0.197	0.055	
0.130	0.974	-0.003	
0.135	-0.634	0.020	
0.140	-0.663	-0.016	
0.145	0.887	-0.081	
0.150	-0.255	-0.058	
0.155	-0.921	-0.061	
0.160	0.352	-0.132	
0.165	0.445	-0.132	
0.170	-0.771	-0.086	
0.175	0.142	-0.091	
0.180	1.793	-0.017	
0.185	-0.111	0.189	
0.190	-0.156	0.321	
0.195	1.527	0.378	
0.200	-0.200	0.460	
0.205	-0.996	0.422	
0.210	-0.110	0.219	
0.215	-0.101	0.018	
0.220	-0.994	-0.144	
0.225	-0.366	-0.311	
0.230	0.703	-0.382	
0.235	-0.718	-0.332	
0.240	-0.694	-0.312	
0.245	0.849	-0.303	
0.250	-0.288	-0.209	
0.255	-0.893	-0.153	
0.260	0.521	-0.169	
0.265	0.530	-0.114	
0.270	-0.834	-0.032	
0.275	-0.110	-0.043	
0.280	1.139	-0.036	
0.285	-0.572	0.047	
0.290	-0.523	0.055	
0.295	1.262	0.032	
0.300	0.003	0.108	
0.305	-0.654	0.153	
0.310	1.078	0.137	
0.315	1.076	0.222	
0.320	-0.553	0.347	
0.325	0.437	0.363	
0.330	1.727	0.398	
0.335	-0.250	0.510	
0.340	-0.206	0.518	
0.345	1.823	0.480	
0.350	0.418	0.551	
0.355	-0.485	0.584	
0.360	1.345	0.529	
0.365	1.203	0.562	
0.370	-0.541	0.622	
0.375	0.358	0.559	
0.380	1.451	0.500	
0.385	-0.494	0.506	
0.390	-0.517	0.413	
0.395	1.084	0.271	
0.400	-0.236	0.216	
0.405	-0.875	0.137	
0.410	0.477	0.003	
0.415	0.329	-0.044	
0.420	-0.930	-0.050	
0.425	-0.227	-0.125	
0.430	0.808	-0.165	
0.435	-0.741	-0.125	
0.440	-0.691	-0.145	
0.445	0.825	-0.188	
0.450	-0.345	-0.146	
0.455	-0.945	-0.136	
0.460	0.386	-0.191	
0.465	0.265	-0.179	
0.470	-0.924	-0.140	
0.475	-0.220	-0.178	
0.480	0.794	-0.191	
0.485	-0.735	-0.132	
0.490	-0.660	-0.141	
0.495	0.855	-0.174	
0.500	-0.349	-0.126	
0.505	-0.924	-0.115	
0.510	0.472	-0.167	
0.515	0.332	-0.146	
0.520	-0.896	-0.098	
0.525	-0.183	-0.132	
0.530	0.887	-0.141	
0.535	-0.712	-0.079	
0.540	-0.625	-0.088	
0.545	0.969	-0.122	
0.550	-0.282	-0.068	
0.555	-0.828	-0.049	
0.560	0.735	-0.086	
0.565	0.584	-0.032	
0.570	-0.779	0.053	
0.575	0.044	0.042	
0.580	1.180	0.051	
0.585	-0.585	0.130	
0.590	-0.505	0.122	
0.595	1.160	0.076	
0.600	-0.239	0.111	
0.605	-0.829	0.102	
0.610	0.633	0.020	
0.615	0.401	0.014	
0.620	-0.895	0.034	
0.625	-0.159	-0.034	
0.630	0.884	-0.076	
0.635	-0.727	-0.042	
0.640	-0.630	-0.073	
0.645	0.966	-0.122	
0.650	-0.306	-0.077	
0.655	-0.858	-0.065	
0.660	0.645	-0.110	
0.665	0.418	-0.073	
0.670	-0.837	-0.011	
0.675	0.117	-0.032	
0.680	1.559	0.008	
0.685	-0.185	0.167	
0.690	0.131	0.276	
0.695	2.044	0.376	
0.700	0.116	0.556	
0.705	-0.800	0.610	
0.710	0.335	0.471	
0.715	-0.092	0.305	
0.720	-0.994	0.129	
0.725	-0.277	-0.091	
0.730	0.744	-0.219	
0.735	-0.741	-0.220	
0.740	-0.590	-0.241	
0.745	1.030	-0.248	
0.750	-0.288	-0.151	
0.755	-0.793	-0.091	
0.760	0.809	-0.094	
0.765	0.558	-0.014	
0.770	-0.767	0.081	
0.775	0.177	0.076	
0.780	1.248	0.098	
0.785	-0.534	0.190	
0.790	-0.358	0.191	
0.795	1.483	0.168	
0.800	-0.058	0.243	
0.805	-0.621	0.269	
0.810	1.186	0.227	
0.815	0.934	0.289	
0.820	-0.573	0.380	
0.825	0.630	0.374	
0.830	1.660	0.410	
0.835	-0.342	0.519	
0.840	-0.113	0.516	
0.845	1.913	0.482	
0.850	0.346	0.563	
0.855	-0.407	0.601	
0.860	1.570	0.559	
0.865	1.178	0.616	
0.870	-0.489	0.689	
0.875	0.697	0.639	
0.880	1.611	0.612	
0.885	-0.406	0.649	
0.890	-0.268	0.571	
0.895	1.459	0.451	
0.900	-0.162	0.424	
0.905	-0.694	0.353	
0.910	0.910	0.223	
0.915	0.465	0.192	
0.920	-0.834	0.187	
0.925	0.041	0.097	
0.930	0.948	0.044	
0.935	-0.698	0.067	
0.940	-0.526	0.021	
0.945	0.969	-0.042	
0.950	-0.374	-0.017	
0.955	-0.822	-0.029	
0.960	0.730	-0.089	
0.965	0.283	-0.060	
0.970	-0.881	-0.015	
0.975	-0.003	-0.059	
0.980	0.960	-0.066	
0.985	-0.688	-0.001	
0.990	-0.483	-0.010	
0.995	1.070	-0.039	
1.000	-0.380	0.012	
1.005	-0.822	0.012	
1.010	0.814	-0.046	
1.015	0.389	-0.011	
1.020	-0.828	0.043	
1.025	0.158	0.011	
1.030	1.066	0.019	
1.035	-0.654	0.094	
1.040	-0.415	0.084	
1.045	1.282	0.054	
1.050	-0.249	0.117	
1.055	-0.695	0.131	
1.060	1.062	0.086	
1.065	0.532	0.139	
1.070	-0.749	0.203	
1.075	0.329	0.168	
1.080	1.181	0.170	
1.085	-0.598	0.236	
1.090	-0.348	0.208	
1.095	1.346	0.159	
1.100	-0.249	0.202	
1.105	-0.721	0.192	
1.110	0.930	0.116	
1.115	0.434	0.130	
1.120	-0.797	0.159	
1.125	0.207	0.100	
1.130	1.030	0.083	
1.135	-0.668	0.132	
1.140	-0.430	0.099	
1.145	1.162	0.047	
1.150	-0.332	0.085	
1.155	-0.744	0.076	
1.160	0.904	0.016	
1.165	0.448	0.053	
1.170	-0.710	0.112	
1.175	0.718	0.108	
1.180	1.884	0.207	
1.185	-0.209	0.415	
1.190	0.107	0.513	
1.195	1.716	0.546	
1.200	-0.268	0.612	
1.205	-0.880	0.546	
1.210	0.364	0.336	
1.215	-0.157	0.156	
1.220	-0.994	-0.004	
1.225	-0.066	-0.185	
1.230	0.796	-0.254	
1.235	-0.759	-0.206	
1.240	-0.456	-0.199	
1.245	1.143	-0.183	
1.250	-0.332	-0.072	
1.255	-0.717	-0.015	
1.260	1.001	-0.020	
1.265	0.450	0.062	
1.270	-0.738	0.144	
1.275	0.416	0.130	
1.280	1.194	0.158	
1.285	-0.592	0.245	
1.290	-0.268	0.231	
1.295	1.428	0.195	
1.300	-0.230	0.250	
1.305	-0.607	0.248	
1.310	1.244	0.192	
1.315	0.649	0.245	
1.320	-0.639	0.314	
1.325	0.710	0.294	
1.330	1.523	0.336	
1.335	-0.422	0.449	
1.340	-0.047	0.450	
1.345	1.768	0.426	
1.350	-0.046	0.494	
1.355	-0.453	0.493	
1.360	1.506	0.427	
1.365	0.809	0.471	
1.370	-0.605	0.522	
1.375	0.651	0.462	
1.380	1.238	0.437	
1.385	-0.625	0.459	
1.390	-0.317	0.370	
1.395	1.252	0.258	
1.400	-0.370	0.239	
1.405	-0.755	0.174	
1.410	0.892	0.064	
1.415	0.168	0.054	
1.420	-0.887	0.054	
1.425	0.116	-0.024	
1.430	0.803	-0.052	
1.435	-0.765	-0.011	
1.440	-0.425	-0.043	
1.445	1.088	-0.075	
1.450	-0.422	-0.015	
1.455	-0.756	-0.007	
1.460	0.910	-0.049	
1.465	0.195	-0.002	
1.470	-0.851	0.042	
1.475	0.227	-0.003	
1.480	0.854	-0.004	
1.485	-0.749	0.051	
1.490	-0.407	0.021	
1.495	1.085	-0.020	
1.500	-0.450	0.024	
1.505	-0.794	0.013	
1.510	0.887	-0.048	
1.515	0.212	-0.014	
1.520	-0.814	0.028	
1.525	0.405	-0.003	
1.530	1.105	0.033	
1.535	-0.637	0.136	
1.540	-0.274	0.141	
1.545	1.312	0.123	
1.550	-0.323	0.185	
1.555	-0.607	0.184	
1.560	1.191	0.134	
1.565	0.448	0.187	
1.570	-0.715	0.242	
1.575	0.564	0.205	
1.580	1.184	0.223	
1.585	-0.595	0.298	
1.590	-0.201	0.271	
1.595	1.390	0.225	
1.600	-0.323	0.266	
1.605	-0.622	0.242	
1.610	1.188	0.168	
1.615	0.424	0.201	
1.620	-0.739	0.240	
1.625	0.556	0.192	
1.630	1.142	0.203	
1.635	-0.631	0.272	
1.640	-0.242	0.240	
1.645	1.352	0.190	
1.650	-0.319	0.230	
1.655	-0.573	0.213	
1.660	1.526	0.169	
1.665	1.064	0.279	
1.670	-0.291	0.437	
1.675	1.477	0.524	
1.680	1.733	0.673	
1.685	-0.541	0.825	
1.690	-0.343	0.762	
1.695	0.848	0.573	
1.700	-0.607	0.408	
1.705	-0.867	0.195	
1.710	0.739	-0.019	
1.715	-0.012	-0.094	
1.720	-0.881	-0.121	
1.725	0.317	-0.179	
1.730	0.841	-0.147	
1.735	-0.744	-0.046	
1.740	-0.310	-0.032	
1.745	1.184	-0.028	
1.750	-0.396	0.056	
1.755	-0.631	0.076	
1.760	1.212	0.051	
1.765	0.389	0.130	
1.770	-0.686	0.205	
1.775	0.727	0.192	
1.780	1.277	0.245	
1.785	-0.532	0.352	
1.790	-0.052	0.348	
1.795	1.614	0.326	
1.800	-0.210	0.392	
1.805	-0.441	0.387	
1.810	1.642	0.339	
1.815	0.780	0.419	
1.820	-0.492	0.507	
1.825	1.191	0.502	
1.830	1.729	0.573	
1.835	-0.332	0.702	
1.840	0.367	0.702	
1.845	1.977	0.682	
1.850	-0.052	0.743	
1.855	-0.363	0.706	
1.860	1.607	0.596	
1.865	0.573	0.589	
1.870	-0.648	0.575	
1.875	0.730	0.462	
1.880	1.055	0.407	
1.885	-0.698	0.404	
1.890	-0.277	0.299	
1.895	1.055	0.183	
1.900	-0.514	0.153	
1.905	-0.746	0.077	
1.910	0.765	-0.032	
1.915	-0.108	-0.048	
1.920	-0.935	-0.065	
1.925	0.197	-0.144	
1.930	0.594	-0.153	
1.935	-0.869	-0.106	
1.940	-0.406	-0.135	
1.945	0.927	-0.159	
1.950	-0.561	-0.100	
1.955	-0.773	-0.098	
1.960	0.793	-0.139	
1.965	-0.140	-0.103	
1.970	-0.957	-0.086	
1.975	0.216	-0.147	
1.980	0.565	-0.148	
1.985	-0.877	-0.100	
1.990	-0.404	-0.131	
1.995	0.890	-0.159	
2.000	-0.607	-0.107	
2.005	-0.784	-0.114	
2.010	0.828	-0.158	
2.015	-0.104	-0.115	
2.020	-0.903	-0.086	
2.025	0.351	-0.127	
2.030	0.742	-0.099	
2.035	-0.817	-0.020	
2.040	-0.322	-0.034	
2.045	1.064	-0.052	
2.050	-0.544	0.006	
2.055	-0.735	-0.001	
2.060	0.880	-0.057	
2.065	-0.116	-0.032	
2.070	-0.924	-0.026	
2.075	0.305	-0.095	
2.080	0.599	-0.099	
2.085	-0.890	-0.054	
2.090	-0.389	-0.094	
2.095	0.869	-0.134	
2.100	-0.639	-0.096	
2.105	-0.802	-0.115	
2.110	0.736	-0.173	
2.115	-0.192	-0.147	
2.120	-0.936	-0.135	
2.125	0.259	-0.187	
2.130	0.565	-0.171	
2.135	-0.825	-0.106	
2.140	-0.163	-0.112	
2.145	1.694	-0.069	
2.150	-0.047	0.111	
2.155	-0.209	0.244	
2.160	1.727	0.322	
2.165	0.259	0.463	
2.170	-0.887	0.509	
2.175	0.090	0.372	
2.180	0.287	0.217	
2.185	-0.977	0.086	
2.190	-0.428	-0.091	
2.195	0.840	-0.207	
2.200	-0.624	-0.197	
2.205	-0.721	-0.208	
2.210	0.959	-0.226	
2.215	-0.113	-0.143	
2.220	-0.884	-0.083	
2.225	0.456	-0.104	
2.230	0.724	-0.060	
2.235	-0.794	0.023	
2.240	-0.220	0.010	
2.245	1.210	0.001	
2.250	-0.477	0.076	
2.255	-0.585	0.083	
2.260	1.255	0.053	
2.265	0.148	0.124	
2.270	-0.733	0.174	
2.275	0.820	0.143	
2.280	1.119	0.195	
2.285	-0.587	0.299	
2.290	0.184	0.300	
2.295	1.771	0.318	
2.300	-0.183	0.431	
2.305	-0.270	0.459	
2.310	1.866	0.441	
2.315	0.715	0.544	
2.320	-0.450	0.625	
2.325	1.381	0.605	
2.330	1.538	0.661	
2.335	-0.444	0.752	
2.340	0.355	0.704	
2.345	1.730	0.643	
2.350	-0.297	0.656	
2.355	-0.460	0.573	
2.360	1.309	0.431	
2.365	0.023	0.382	
2.370	-0.794	0.313	
2.375	0.634	0.179	
2.380	0.735	0.135	
2.385	-0.808	0.149	
2.390	-0.246	0.076	
2.395	1.035	0.014	
2.400	-0.595	0.038	
2.405	-0.691	0.003	
2.410	0.998	-0.059	
2.415	-0.131	-0.025	
2.420	-0.863	-0.009	
2.425	0.549	-0.060	
2.430	0.716	-0.030	
2.435	-0.802	0.044	
2.440	-0.200	0.023	
2.445	1.154	0.006	
2.450	-0.537	0.069	
2.455	-0.624	0.062	
2.460	1.084	0.015	
2.465	-0.125	0.055	
2.470	-0.837	0.064	
2.475	0.602	0.001	
2.480	0.724	0.021	
2.485	-0.779	0.085	
2.490	-0.128	0.057	
2.495	1.259	0.043	
2.500	-0.500	0.115	
2.505	-0.546	0.116	
2.510	1.323	0.083	
2.515	0.073	0.151	
2.520	-0.715	0.192	
2.525	0.901	0.156	
2.530	1.008	0.206	
2.535	-0.653	0.297	
2.540	0.065	0.276	
2.545	1.431	0.257	
2.550	-0.436	0.315	
2.555	-0.489	0.289	
2.560	1.312	0.218	
2.565	-0.023	0.240	
2.570	-0.771	0.230	
2.575	0.747	0.144	
2.580	0.782	0.145	
2.585	-0.752	0.191	
2.590	-0.049	0.142	
2.595	1.274	0.112	
2.600	-0.509	0.168	
2.605	-0.561	0.151	
2.610	1.151	0.092	
2.615	-0.084	0.123	
2.620	-0.715	0.128	
2.625	1.230	0.093	
2.630	1.642	0.215	
2.635	-0.229	0.433	
2.640	0.980	0.561	
2.645	1.977	0.691	
2.650	-0.396	0.837	
2.655	-0.654	0.778	
2.660	0.657	0.558	
2.665	-0.392	0.359	
2.670	-0.988	0.143	
2.675	0.425	-0.079	
2.680	0.489	-0.157	
2.685	-0.889	-0.143	
2.690	-0.188	-0.178	
2.695	1.099	-0.170	
2.700	-0.572	-0.068	
2.705	-0.547	-0.033	
2.710	1.282	-0.027	
2.715	-0.031	0.072	
2.720	-0.718	0.131	
2.725	0.974	0.113	
2.730	0.985	0.185	
2.735	-0.640	0.293	
2.740	0.248	0.290	
2.745	1.558	0.300	
2.750	-0.398	0.386	
2.755	-0.384	0.375	
2.760	1.591	0.320	
2.765	0.265	0.375	
2.770	-0.529	0.406	
2.775	1.396	0.375	
2.780	1.374	0.458	
2.785	-0.422	0.586	
2.790	0.799	0.602	
2.795	2.090	0.649	
2.800	-0.104	0.778	
2.805	-0.053	0.782	
2.810	2.078	0.726	
2.815	0.643	0.783	
2.820	-0.421	0.803	
2.825	1.421	0.720	
2.830	1.224	0.715	
2.835	-0.581	0.732	
2.840	0.309	0.623	
2.845	1.483	0.524	
2.850	-0.454	0.509	
2.855	-0.435	0.414	
2.860	1.294	0.290	
2.865	-0.119	0.269	
2.870	-0.773	0.222	
2.875	0.790	0.118	
2.880	0.668	0.113	
2.885	-0.793	0.151	
2.890	-0.084	0.096	
2.895	1.072	0.056	
2.900	-0.628	0.092	
2.905	-0.553	0.059	
2.910	1.191	0.006	
2.915	-0.165	0.056	
2.920	-0.761	0.075	
2.925	0.826	0.031	
2.930	0.628	0.073	
2.935	-0.793	0.140	
2.940	0.014	0.104	
2.945	1.172	0.085	
2.950	-0.593	0.142	
2.955	-0.521	0.119	
2.960	1.219	0.066	
2.965	-0.169	0.109	
2.970	-0.771	0.115	
2.975	0.893	0.059	
2.980	0.750	0.102	
2.985	-0.706	0.182	
2.990	0.177	0.165	
2.995	1.319	0.171	
3.000	-0.488	0.250	
3.005	-0.378	0.241	
3.010	1.454	0.202	
3.015	-0.050	0.260	
3.020	-0.640	0.273	
3.025	1.148	0.221	
3.030	0.931	0.274	
3.035	-0.669	0.357	
3.040	0.248	0.325	
3.045	1.354	0.304	
3.050	-0.523	0.349	
3.055	-0.425	0.302	
3.060	1.332	0.221	
3.065	-0.157	0.236	
3.070	-0.721	0.214	
3.075	0.980	0.135	
3.080	0.753	0.163	
3.085	-0.701	0.229	
3.090	0.227	0.200	
3.095	1.277	0.196	
3.100	-0.546	0.261	
3.105	-0.416	0.234	
3.110	1.503	0.184	
3.115	0.204	0.254	
3.120	-0.326	0.315	
3.125	2.046	0.360	
3.130	1.704	0.568	
3.135	-0.462	0.796	
3.140	0.232	0.808	
3.145	0.838	0.703	
3.150	-0.863	0.570	
3.155	-0.733	0.325	
3.160	0.806	0.074	
3.165	-0.370	-0.040	
3.170	-0.860	-0.125	
3.175	0.703	-0.208	
3.180	0.451	-0.164	
3.185	-0.822	-0.076	
3.190	0.075	-0.071	
3.195	1.184	-0.031	
3.200	-0.584	0.080	
3.205	-0.436	0.100	
3.210	1.306	0.085	
3.215	-0.153	0.155	
3.220	-0.698	0.175	
3.225	1.050	0.129	
3.230	0.764	0.183	
3.235	-0.681	0.263	
3.240	0.405	0.245	
3.245	1.466	0.265	
3.250	-0.456	0.358	
3.255	-0.241	0.353	
3.260	1.768	0.323	
3.265	0.229	0.412	
3.270	-0.442	0.461	
3.275	1.616	0.445	
3.280	1.322	0.545	
3.285	-0.404	0.671	
3.290	0.992	0.679	
3.295	1.995	0.722	
3.300	-0.226	0.830	
3.305	-0.053	0.798	
3.310	1.840	0.705	
3.315	0.093	0.701	
3.320	-0.560	0.637	
3.325	1.227	0.497	
3.330	0.768	0.460	
3.335	-0.709	0.451	
3.340	0.232	0.344	
3.345	1.110	0.268	
3.350	-0.660	0.264	
3.355	-0.514	0.180	
3.360	1.056	0.076	
3.365	-0.348	0.069	
3.370	-0.828	0.031	
3.375	0.674	-0.055	
3.380	0.238	-0.052	
3.385	-0.896	-0.029	
3.390	-0.023	-0.085	
3.395	0.904	-0.099	
3.400	-0.717	-0.038	
3.405	-0.514	-0.049	
3.410	1.046	-0.078	
3.415	-0.357	-0.021	
3.420	-0.828	-0.012	
3.425	0.727	-0.065	
3.430	0.277	-0.037	
3.435	-0.886	0.002	
3.440	-0.031	-0.050	
3.445	0.941	-0.066	
3.450	-0.717	-0.010	
3.455	-0.508	-0.026	
3.460	1.053	-0.061	
3.465	-0.351	-0.009	
3.470	-0.810	-0.003	
3.475	0.784	-0.054	
3.480	0.373	-0.017	
3.485	-0.816	0.037	
3.490	0.160	0.006	
3.495	1.076	0.017	
3.500	-0.630	0.096	
3.505	-0.399	0.091	
3.510	1.259	0.064	
3.515	-0.259	0.124	
3.520	-0.717	0.132	
3.525	1.030	0.081	
3.530	0.598	0.131	
3.535	-0.723	0.200	
3.540	0.329	0.174	
3.545	1.082	0.175	
3.550	-0.663	0.228	
3.555	-0.419	0.182	
3.560	1.181	0.110	
3.565	-0.317	0.130	
3.570	-0.756	0.106	
3.575	0.883	0.031	
3.580	0.315	0.049	
3.585	-0.855	0.080	
3.590	0.117	0.021	
3.595	0.962	0.004	
3.600	-0.686	0.057	
3.605	-0.370	0.037	
3.610	1.535	0.025	
3.615	0.190	0.148	
3.620	-0.215	0.260	
3.625	2.075	0.351	
3.630	1.287	0.572	
3.635	-0.605	0.762	
3.640	0.171	0.726	
3.645	0.585	0.589	
3.650	-0.924	0.432	
3.655	-0.622	0.189	
3.660	0.870	-0.026	
3.665	-0.447	-0.096	
3.670	-0.829	-0.152	
3.675	0.710	-0.216	
3.680	0.216	-0.170	
3.685	-0.834	-0.102	
3.690	0.258	-0.105	
3.695	1.101	-0.051	
3.700	-0.630	0.070	
3.705	-0.332	0.093	
3.710	1.346	0.090	
3.715	-0.262	0.169	
3.720	-0.666	0.183	
3.725	1.136	0.136	
3.730	0.555	0.187	
3.735	-0.704	0.248	
3.740	0.544	0.219	
3.745	1.346	0.244	
3.750	-0.509	0.337	
3.755	-0.162	0.328	
3.760	1.695	0.303	
3.765	-0.015	0.383	
3.770	-0.415	0.409	
3.775	1.678	0.385	
3.780	1.096	0.489	
3.785	-0.444	0.607	
3.790	1.047	0.612	
3.795	1.793	0.660	
3.800	-0.364	0.759	
3.805	-0.011	0.716	
3.810	1.788	0.627	
3.815	-0.095	0.628	
3.820	-0.541	0.561	
3.825	1.244	0.428	
3.830	0.479	0.395	
3.835	-0.785	0.372	
3.840	0.221	0.251	
3.845	0.841	0.169	
3.850	-0.781	0.149	
3.855	-0.486	0.056	
3.860	0.925	-0.038	
3.865	-0.488	-0.037	
3.870	-0.843	-0.071	
3.875	0.689	-0.143	
3.880	0.014	-0.127	
3.885	-0.931	-0.105	
3.890	0.043	-0.159	
3.895	0.739	-0.161	
3.900	-0.805	-0.099	
3.905	-0.465	-0.112	
3.910	0.971	-0.133	
3.915	-0.494	-0.073	
3.920	-0.828	-0.070	
3.925	0.748	-0.119	
3.930	0.015	-0.090	
3.935	-0.931	-0.066	
3.940	0.090	-0.124	
3.945	0.722	-0.130	
3.950	-0.805	-0.076	
3.955	-0.471	-0.098	
3.960	0.918	-0.129	
3.965	-0.509	-0.081	
3.970	-0.823	-0.085	
3.975	0.812	-0.133	
3.980	0.152	-0.088	
3.985	-0.826	-0.037	
3.990	0.364	-0.057	
3.995	0.997	-0.015	
4.000	-0.694	0.085	
4.005	-0.299	0.087	
4.010	1.302	0.072	
4.015	-0.343	0.142	
4.020	-0.665	0.148	
4.025	1.090	0.097	
4.030	0.332	0.139	
4.035	-0.761	0.180	
4.040	0.418	0.131	
4.045	1.005	0.133	
4.050	-0.714	0.188	
4.055	-0.345	0.145	
4.060	1.172	0.087	
4.065	-0.413	0.115	
4.070	-0.724	0.090	
4.075	0.928	0.018	
4.080	0.152	0.039	
4.085	-0.837	0.060	
4.090	0.337	0.005	
4.095	0.928	0.012	
4.100	-0.714	0.082	
4.105	-0.317	0.063	
4.110	1.265	0.039	
4.115	-0.249	0.110	
4.120	-0.378	0.143	
4.125	1.963	0.177	
4.130	1.127	0.377	
4.135	-0.494	0.577	
4.140	0.722	0.609	
4.145	0.826	0.594	
4.150	-0.931	0.544	
4.155	-0.595	0.344	
4.160	0.662	0.114	
4.165	-0.621	-0.015	
4.170	-0.828	-0.140	
4.175	0.820	-0.243	
4.180	0.056	-0.209	
4.185	-0.845	-0.150	
4.190	0.398	-0.150	
4.195	0.942	-0.081	
4.200	-0.700	0.041	
4.205	-0.255	0.060	
4.210	1.300	0.063	
4.215	-0.380	0.143	
4.220	-0.613	0.153	
4.225	1.194	0.111	
4.230	0.372	0.168	
4.235	-0.683	0.224	
4.240	0.730	0.197	
4.245	1.250	0.241	
4.250	-0.549	0.342	
4.255	-0.032	0.334	
4.260	1.680	0.318	
4.265	-0.153	0.398	
4.270	-0.377	0.410	
4.275	1.723	0.377	
4.280	0.880	0.474	
4.285	-0.422	0.575	
4.290	1.300	0.581	
4.295	1.773	0.658	
4.300	-0.299	0.785	
4.305	0.390	0.774	
4.310	1.956	0.739	
4.315	-0.099	0.779	
4.320	-0.409	0.717	
4.325	1.494	0.581	
4.330	0.448	0.547	
4.335	-0.695	0.507	
4.340	0.642	0.380	
4.345	1.018	0.322	
4.350	-0.689	0.325	
4.355	-0.264	0.238	
4.360	1.134	0.148	
4.365	-0.474	0.147	
4.370	-0.707	0.095	
4.375	0.919	0.007	
4.380	-0.026	0.014	
4.385	-0.883	0.014	
4.390	0.299	-0.058	
4.395	0.665	-0.065	
4.400	-0.831	-0.019	
4.405	-0.326	-0.055	
4.410	1.047	-0.082	
4.415	-0.511	-0.022	
4.420	-0.700	-0.020	
4.425	0.976	-0.058	
4.430	0.018	-0.008	
4.435	-0.848	0.026	
4.440	0.354	-0.023	
4.445	0.738	-0.016	
4.450	-0.808	0.038	
4.455	-0.354	0.001	
4.460	0.997	-0.042	
4.465	-0.514	-0.003	
4.470	-0.681	-0.016	
4.475	1.062	-0.057	
4.480	0.075	0.003	
4.485	-0.773	0.052	
4.490	0.599	0.027	
4.495	0.969	0.074	
4.500	-0.685	0.169	
4.505	-0.171	0.158	
4.510	1.287	0.135	
4.515	-0.418	0.191	
4.520	-0.592	0.177	
4.525	1.113	0.114	
4.530	0.011	0.139	
4.535	-0.842	0.138	
4.540	0.402	0.054	
4.545	0.668	0.032	
4.550	-0.839	0.056	
4.555	-0.355	-0.005	
4.560	0.873	-0.065	
4.565	-0.633	-0.048	
4.570	-0.779	-0.085	
4.575	0.767	-0.153	
4.580	-0.175	-0.131	
4.585	-0.944	-0.121	
4.590	0.171	-0.181	
4.595	0.448	-0.184	
4.600	-0.880	-0.143	
4.605	-0.261	-0.169	
4.610	1.444	-0.149	
4.615	-0.209	0.000	
4.620	-0.339	0.105	
4.625	1.520	0.167	
4.630	0.096	0.295	
4.635	-0.930	0.340	
4.640	-0.037	0.216	
4.645	0.038	0.071	
4.650	-0.994	-0.058	
4.655	-0.528	-0.225	
4.660	0.628	-0.331	
4.665	-0.701	-0.321	
4.670	-0.813	-0.330	
4.675	0.730	-0.347	
4.680	-0.197	-0.271	
4.685	-0.913	-0.210	
4.690	0.349	-0.218	
4.695	0.601	-0.165	
4.700	-0.825	-0.074	
4.705	-0.252	-0.076	
4.710	1.130	-0.072	
4.715	-0.505	0.012	
4.720	-0.605	0.029	
4.725	1.143	0.006	
4.730	0.049	0.073	
4.735	-0.782	0.114	
4.740	0.666	0.074	
4.745	0.942	0.109	
4.750	-0.665	0.193	
4.755	-0.005	0.181	
4.760	1.556	0.182	
4.765	-0.284	0.280	
4.770	-0.369	0.304	
4.775	1.654	0.290	
4.780	0.511	0.388	
4.785	-0.561	0.462	
4.790	1.090	0.436	
4.795	1.248	0.474	
4.800	-0.552	0.546	
4.805	0.114	0.492	
4.810	1.465	0.428	
4.815	-0.410	0.439	
4.820	-0.544	0.368	
4.825	1.157	0.249	
4.830	-0.063	0.224	
4.835	-0.842	0.179	
4.840	0.451	0.064	
4.845	0.581	0.025	
4.850	-0.886	0.035	
4.855	-0.334	-0.037	
4.860	0.817	-0.099	
4.865	-0.694	-0.084	
4.870	-0.764	-0.122	
4.875	0.777	-0.185	
4.880	-0.246	-0.157	
4.885	-0.916	-0.143	
4.890	0.402	-0.187	
4.895	0.552	-0.154	
4.900	-0.839	-0.078	
4.905	-0.213	-0.089	
4.910	1.084	-0.086	
4.915	-0.557	-0.004	
4.920	-0.630	0.007	
4.925	1.035	-0.025	
4.930	-0.098	0.025	
4.935	-0.794	0.048	
4.940	0.710	0.005	
4.945	0.893	0.053	
4.950	-0.678	0.151	
4.955	-0.018	0.149	
4.960	1.305	0.148	
4.965	-0.432	0.219	
4.970	-0.497	0.212	
4.975	1.341	0.165	
4.980	0.163	0.220	
4.985	-0.665	0.253	
4.990	0.973	0.213	
4.995	1.073	0.263	
5.000	-0.614	0.354	
5.005	0.073	0.330	
5.010	1.422	0.301	
5.015	-0.386	0.348	
5.020	-0.456	0.316	
5.025	1.317	0.243	
5.030	0.049	0.265	
5.035	-0.744	0.258	
5.040	0.730	0.174	
5.045	0.759	0.169	
5.050	-0.753	0.204	
5.055	-0.108	0.144	
5.060	1.174	0.098	
5.065	-0.526	0.136	
5.070	-0.557	0.109	
5.075	1.145	0.053	
5.080	-0.081	0.092	
5.085	-0.692	0.108	
5.090	1.204	0.083	
5.095	1.626	0.210	
5.100	-0.220	0.429	
5.105	0.948	0.556	
5.110	1.925	0.682	
5.115	-0.416	0.821	
5.120	-0.636	0.758	
5.125	0.713	0.543	
5.130	-0.360	0.356	
5.135	-0.953	0.155	
5.140	0.410	-0.059	
5.145	0.454	-0.138	
5.150	-0.837	-0.129	
5.155	-0.149	-0.164	
5.160	1.122	-0.152	
5.165	-0.540	-0.046	
5.170	-0.547	-0.009	
5.175	1.188	-0.009	
5.180	-0.066	0.073	
5.185	-0.712	0.116	
5.190	0.870	0.087	
5.195	0.809	0.142	
5.200	-0.695	0.225	
5.205	0.110	0.203	
5.210	1.380	0.196	
5.215	-0.416	0.270	
5.220	-0.404	0.263	
5.225	1.451	0.221	
5.230	0.189	0.284	
5.235	-0.560	0.321	
5.240	1.264	0.295	
5.245	1.284	0.378	
5.250	-0.447	0.505	
5.255	0.683	0.524	
5.260	1.986	0.571	
5.265	-0.114	0.698	
5.270	-0.098	0.708	
5.275	1.976	0.659	
5.280	0.569	0.718	
5.285	-0.435	0.738	
5.290	1.402	0.662	
5.295	1.216	0.668	
5.300	-0.569	0.699	
5.305	0.253	0.600	
5.310	1.352	0.500	
5.315	-0.518	0.471	
5.320	-0.518	0.361	
5.325	1.114	0.220	
5.330	-0.201	0.179	
5.335	-0.845	0.120	
5.340	0.549	0.007	
5.345	0.416	-0.019	
5.350	-0.880	-0.005	
5.355	-0.182	-0.068	
5.360	0.933	-0.100	
5.365	-0.665	-0.051	
5.370	-0.631	-0.064	
5.375	0.941	-0.105	
5.380	-0.267	-0.060	
5.385	-0.855	-0.048	
5.390	0.604	-0.096	
5.395	0.474	-0.064	
5.400	-0.834	-0.003	
5.405	-0.107	-0.033	
5.410	0.976	-0.045	
5.415	-0.671	0.012	
5.420	-0.619	-0.008	
5.425	0.962	-0.060	
5.430	-0.270	-0.027	
5.435	-0.843	-0.025	
5.440	0.627	-0.081	
5.445	0.523	-0.050	
5.450	-0.825	0.013	
5.455	-0.047	-0.012	
5.460	1.142	-0.012	
5.465	-0.560	0.067	
5.470	-0.464	0.074	
5.475	1.287	0.054	
5.480	-0.151	0.125	
5.485	-0.723	0.149	
5.490	0.881	0.100	
5.495	0.672	0.136	
5.500	-0.747	0.197	
5.505	0.085	0.157	
5.510	1.216	0.138	
5.515	-0.579	0.192	
5.520	-0.511	0.163	
5.525	1.139	0.097	
5.530	-0.229	0.117	
5.535	-0.816	0.100	
5.540	0.677	0.018	
5.545	0.491	0.022	
5.550	-0.832	0.058	
5.555	-0.070	0.008	
5.560	1.011	-0.017	
5.565	-0.657	0.034	
5.570	-0.584	0.012	
5.575	0.998	-0.040	
5.580	-0.207	-0.002	
5.585	-0.598	0.016	
5.590	1.605	0.032	
5.595	1.677	0.231	
5.600	-0.255	0.504	
5.605	0.808	0.636	
5.610	1.412	0.711	
5.615	-0.680	0.754	
5.620	-0.714	0.605	
5.625	0.631	0.352	
5.630	-0.448	0.167	
5.635	-0.931	-0.010	
5.640	0.515	-0.178	
5.645	0.283	-0.210	
5.650	-0.904	-0.179	
5.655	-0.117	-0.206	
5.660	0.979	-0.189	
5.665	-0.639	-0.090	
5.670	-0.503	-0.062	
5.675	1.143	-0.060	
5.680	-0.215	0.025	
5.685	-0.736	0.061	
5.690	0.910	0.031	
5.695	0.657	0.091	
5.700	-0.721	0.173	
5.705	0.247	0.157	
5.710	1.282	0.168	
5.715	-0.505	0.249	
5.720	-0.329	0.241	
5.725	1.573	0.211	
5.730	0.101	0.292	
5.735	-0.485	0.337	
5.740	1.515	0.327	
5.745	1.294	0.439	
5.750	-0.381	0.585	
5.755	0.973	0.618	
5.760	2.014	0.685	
5.765	-0.175	0.814	
5.770	0.003	0.805	
5.775	1.948	0.733	
5.780	0.300	0.757	
5.785	-0.474	0.724	
5.790	1.331	0.606	
5.795	0.902	0.579	
5.800	-0.656	0.573	
5.805	0.271	0.458	
5.810	1.166	0.365	
5.815	-0.619	0.344	
5.820	-0.468	0.245	
5.825	1.136	0.132	
5.830	-0.306	0.121	
5.835	-0.817	0.080	
5.840	0.710	-0.012	
5.845	0.297	-0.013	
5.850	-0.880	0.008	
5.855	-0.050	-0.053	
5.860	0.931	-0.075	
5.865	-0.723	-0.022	
5.870	-0.546	-0.041	
5.875	1.003	-0.080	
5.880	-0.329	-0.032	
5.885	-0.813	-0.024	
5.890	0.753	-0.072	
5.895	0.367	-0.033	
5.900	-0.834	0.023	
5.905	0.087	-0.010	
5.910	1.029	-0.008	
5.915	-0.648	0.064	
5.920	-0.467	0.054	
5.925	1.101	0.017	
5.930	-0.302	0.061	
5.935	-0.765	0.060	
5.940	0.895	0.005	
5.945	0.436	0.044	
5.950	-0.814	0.099	
5.955	0.116	0.058	
5.960	1.001	0.047	
5.965	-0.659	0.100	
5.970	-0.439	0.073	
5.975	1.204	0.031	
5.980	-0.229	0.085	
5.985	-0.683	0.098	
5.990	1.055	0.062	
5.995	0.622	0.127	
6.000	-0.701	0.210	
6.005	0.425	0.195	
6.010	1.380	0.222	
6.015	-0.486	0.319	
6.020	-0.247	0.315	
6.025	1.479	0.278	
6.030	-0.120	0.328	
6.035	-0.593	0.322	
6.040	1.180	0.253	
6.045	0.639	0.284	
6.050	-0.698	0.328	
6.055	0.381	0.271	
6.060	1.230	0.253	
6.065	-0.584	0.302	
6.070	-0.354	0.257	
6.075	1.338	0.189	
6.080	-0.206	0.219	
6.085	-0.662	0.205	
6.090	1.026	0.137	
6.095	0.537	0.168	
6.100	-0.739	0.214	
6.105	0.415	0.173	
6.110	1.537	0.196	
6.115	-0.249	0.321	
6.120	0.472	0.393	
6.125	2.564	0.506	
6.130	0.630	0.756	
6.135	-0.444	0.895	
6.140	1.012	0.833	
6.145	0.119	0.727	
6.150	-0.988	0.553	
6.155	-0.102	0.275	
6.160	0.834	0.071	
6.165	-0.706	-0.003	
6.170	-0.419	-0.085	
6.175	1.178	-0.126	
6.180	-0.316	-0.048	
6.185	-0.721	-0.009	
6.190	1.008	-0.023	
6.195	0.535	0.059	
6.200	-0.721	0.151	
6.205	0.415	0.146	
6.210	1.230	0.178	
6.215	-0.552	0.268	
6.220	-0.262	0.257	
6.225	1.527	0.225	
6.230	-0.117	0.291	
6.235	-0.550	0.304	
6.240	1.325	0.259	
6.245	0.823	0.324	
6.250	-0.573	0.407	
6.255	0.780	0.394	
6.260	1.636	0.435	
6.265	-0.364	0.546	
6.270	0.046	0.543	
6.275	2.063	0.524	
6.280	0.389	0.629	
6.285	-0.235	0.684	
6.290	1.933	0.671	
6.295	1.303	0.768	
6.300	-0.361	0.867	
6.305	1.131	0.834	
6.310	1.819	0.836	
6.315	-0.313	0.888	
6.320	-0.017	0.804	
6.325	1.730	0.678	
6.330	-0.095	0.646	
6.335	-0.564	0.556	
6.340	1.191	0.407	
6.345	0.523	0.367	
6.350	-0.738	0.349	
6.355	0.357	0.248	
6.360	1.094	0.202	
6.365	-0.637	0.230	
6.370	-0.351	0.177	
6.375	1.233	0.113	
6.380	-0.316	0.144	
6.385	-0.710	0.128	
6.390	0.941	0.059	
6.395	0.334	0.084	
6.400	-0.785	0.119	
6.405	0.308	0.071	
6.410	1.050	0.075	
6.415	-0.665	0.144	
6.420	-0.357	0.122	
6.425	1.200	0.080	
6.430	-0.337	0.123	
6.435	-0.691	0.114	
6.440	1.035	0.057	
6.445	0.376	0.100	
6.450	-0.765	0.149	
6.455	0.373	0.110	
6.460	1.075	0.119	
6.465	-0.650	0.188	
6.470	-0.335	0.162	
6.475	1.203	0.113	
6.480	-0.348	0.148	
6.485	-0.701	0.129	
6.490	0.994	0.061	
6.495	0.326	0.090	
6.500	-0.802	0.127	
6.505	0.326	0.078	
6.510	1.032	0.080	
6.515	-0.665	0.146	
6.520	-0.332	0.122	
6.525	1.212	0.083	
6.530	-0.329	0.129	
6.535	-0.654	0.124	
6.540	1.113	0.074	
6.545	0.393	0.126	
6.550	-0.744	0.182	
6.555	0.518	0.149	
6.560	1.221	0.176	
6.565	-0.557	0.267	
6.570	-0.185	0.259	
6.575	1.489	0.233	
6.580	-0.223	0.296	
6.585	-0.582	0.294	
6.590	1.207	0.230	
6.595	0.469	0.263	
6.600	-0.729	0.295	
6.605	0.441	0.232	
6.610	1.037	0.213	
6.615	-0.685	0.248	
6.620	-0.323	0.190	
6.625	1.192	0.120	
6.630	-0.367	0.141	
6.635	-0.666	0.116	
6.640	1.030	0.051	
6.645	0.247	0.086	
6.650	-0.796	0.121	
6.655	0.341	0.069	
6.660	1.049	0.074	
6.665	-0.547	0.150	
6.670	0.123	0.164	
6.675	2.245	0.230	
6.680	0.415	0.452	
6.685	-0.273	0.607	
6.690	1.451	0.632	
6.695	0.178	0.657	
6.700	-0.982	0.587	
6.705	-0.107	0.356	
6.710	0.447	0.143	
6.715	-0.877	0.007	
6.720	-0.438	-0.141	
6.725	1.037	-0.221	
6.730	-0.425	-0.164	
6.735	-0.698	-0.129	
6.740	1.032	-0.125	
6.745	0.245	-0.025	
6.750	-0.784	0.063	
6.755	0.460	0.054	
6.760	1.015	0.094	
6.765	-0.656	0.180	
6.770	-0.235	0.165	
6.775	1.370	0.138	
6.780	-0.285	0.202	
6.785	-0.573	0.207	
6.790	1.259	0.163	
6.795	0.462	0.222	
6.800	-0.660	0.281	
6.805	0.750	0.253	
6.810	1.309	0.291	
6.815	-0.508	0.389	
6.820	-0.002	0.378	
6.825	1.745	0.360	
6.830	-0.107	0.441	
6.835	-0.380	0.452	
6.840	1.686	0.412	
6.845	0.870	0.495	
6.850	-0.502	0.579	
6.855	1.012	0.554	
6.860	1.497	0.579	
6.865	-0.479	0.647	
6.870	-0.043	0.584	
6.875	1.520	0.489	
6.880	-0.299	0.477	
6.885	-0.627	0.396	
6.890	0.986	0.258	
6.895	0.078	0.207	
6.900	-0.849	0.158	
6.905	0.265	0.042	
6.910	0.698	-0.005	
6.915	-0.817	0.011	
6.920	-0.393	-0.044	
6.925	0.989	-0.091	
6.930	-0.500	-0.048	
6.935	-0.746	-0.052	
6.940	0.797	-0.100	
6.945	-0.069	-0.069	
6.950	-0.904	-0.052	
6.955	0.251	-0.109	
6.960	0.741	-0.102	
6.965	-0.785	-0.035	
6.970	-0.334	-0.050	
6.975	1.052	-0.066	
6.980	-0.485	-0.003	
6.985	-0.697	0.000	
6.990	0.969	-0.040	
6.995	-0.005	0.005	
7.000	-0.866	0.030	
7.005	0.360	-0.026	
7.010	0.809	-0.019	
7.015	-0.720	0.046	
7.020	-0.227	0.030	
7.025	1.287	0.022	
7.030	-0.367	0.105	
7.035	-0.561	0.126	
7.040	1.247	0.102	
7.045	0.326	0.176	
7.050	-0.704	0.234	
7.055	0.706	0.203	
7.060	1.084	0.232	
7.065	-0.611	0.308	
7.070	-0.131	0.276	
7.075	1.396	0.234	
7.080	-0.348	0.276	
7.085	-0.549	0.253	
7.090	1.279	0.188	
7.095	0.341	0.229	
7.100	-0.686	0.266	
7.105	0.686	0.219	
7.110	1.078	0.237	
7.115	-0.624	0.304	
7.120	-0.146	0.267	
7.125	1.320	0.218	
7.130	-0.409	0.250	
7.135	-0.650	0.212	
7.140	0.994	0.122	
7.145	0.003	0.117	
7.150	-0.831	0.101	
7.155	0.387	0.015	
7.160	0.691	-0.000	
7.165	-0.825	0.036	
7.170	-0.346	-0.013	
7.175	0.948	-0.061	
7.180	-0.555	-0.028	
7.185	-0.743	-0.048	
7.190	0.773	-0.107	
7.195	-0.140	-0.086	
7.200	-0.884	-0.078	
7.205	0.515	-0.124	
7.210	1.183	-0.062	
7.215	-0.436	0.092	
7.220	0.358	0.182	
7.225	1.707	0.284	
7.230	-0.383	0.439	
7.235	-0.759	0.442	
7.240	0.442	0.295	
7.245	-0.407	0.155	
7.250	-0.994	-0.005	
7.255	-0.072	-0.197	
7.260	0.265	-0.295	
7.265	-0.938	-0.311	
7.270	-0.406	-0.355	
7.275	0.805	-0.354	
7.280	-0.610	-0.261	
7.285	-0.730	-0.220	
7.290	0.861	-0.215	
7.295	-0.110	-0.132	
7.300	-0.860	-0.077	
7.305	0.418	-0.101	
7.310	0.707	-0.063	
7.315	-0.762	0.017	
7.320	-0.200	0.006	
7.325	1.206	0.002	
7.330	-0.438	0.081	
7.335	-0.564	0.094	
7.340	1.230	0.068	
7.345	0.194	0.139	
7.350	-0.700	0.190	
7.355	0.835	0.164	
7.360	1.120	0.217	
7.365	-0.558	0.319	
7.370	0.186	0.319	
7.375	1.742	0.332	
7.380	-0.183	0.438	
7.385	-0.313	0.459	
7.390	1.678	0.424	
7.395	0.521	0.493	
7.400	-0.550	0.537	
7.405	1.024	0.479	
7.410	1.175	0.486	
7.415	-0.624	0.527	
7.420	-0.093	0.442	
7.425	1.258	0.339	
7.430	-0.494	0.315	
7.435	-0.633	0.228	
7.440	0.989	0.108	
7.445	-0.125	0.085	
7.450	-0.866	0.052	
7.455	0.401	-0.041	
7.460	0.556	-0.056	
7.465	-0.842	-0.022	
7.470	-0.262	-0.066	
7.475	0.980	-0.093	
7.480	-0.608	-0.039	
7.485	-0.712	-0.049	
7.490	0.877	-0.098	
7.495	-0.177	-0.064	
7.500	-0.886	-0.053	
7.505	0.441	-0.107	
7.510	0.627	-0.085	
7.515	-0.814	-0.018	
7.520	-0.220	-0.038	
7.525	1.066	-0.050	
7.530	-0.560	0.016	
7.535	-0.627	0.014	
7.540	1.012	-0.026	
7.545	-0.119	0.018	
7.550	-0.832	0.033	
7.555	0.535	-0.023	
7.560	0.681	-0.004	
7.565	-0.759	0.059	
7.570	-0.166	0.032	
7.575	1.082	0.013	
7.580	-0.549	0.068	
7.585	-0.610	0.054	
7.590	1.026	0.002	
7.595	-0.099	0.039	
7.600	-0.797	0.051	
7.605	0.662	-0.000	
7.610	0.805	0.036	
7.615	-0.715	0.119	
7.620	-0.075	0.106	
7.625	1.270	0.098	
7.630	-0.460	0.169	
7.635	-0.550	0.163	
7.640	1.197	0.113	
7.645	-0.006	0.153	
7.650	-0.746	0.164	
7.655	0.729	0.104	
7.660	0.785	0.124	
7.665	-0.747	0.183	
7.670	-0.124	0.140	
7.675	1.137	0.099	
7.680	-0.550	0.135	
7.685	-0.616	0.101	
7.690	1.024	0.030	
7.695	-0.139	0.050	
7.700	-0.805	0.048	
7.705	0.611	-0.015	
7.710	0.640	0.006	
7.715	-0.803	0.065	
7.720	-0.163	0.030	
7.725	1.108	0.007	
7.730	-0.506	0.065	
7.735	-0.403	0.068	
7.740	1.802	0.079	
7.745	0.809	0.255	
7.750	-0.363	0.436	
7.755	1.274	0.507	
7.760	0.948	0.593	
7.765	-0.819	0.634	
7.770	-0.328	0.491	
7.775	0.665	0.292	
7.780	-0.735	0.153	
7.785	-0.721	-0.014	
7.790	0.848	-0.155	
7.795	-0.242	-0.162	
7.800	-0.875	-0.159	
7.805	0.460	-0.199	
7.810	0.501	-0.157	
7.815	-0.823	-0.077	
7.820	-0.169	-0.085	
7.825	1.047	-0.078	
7.830	-0.570	0.002	
7.835	-0.563	0.011	
7.840	1.105	-0.014	
7.845	-0.092	0.048	
7.850	-0.732	0.079	
7.855	0.846	0.046	
7.860	0.864	0.106	
7.865	-0.669	0.204	
7.870	0.125	0.198	
7.875	1.450	0.206	
7.880	-0.364	0.295	
7.885	-0.334	0.302	
7.890	1.634	0.277	
7.895	0.361	0.366	
7.900	-0.477	0.429	
7.905	1.436	0.420	
7.910	1.434	0.514	
7.915	-0.378	0.647	
7.920	0.672	0.655	
7.925	1.864	0.669	
7.930	-0.233	0.744	
7.935	-0.268	0.696	
7.940	1.596	0.582	
7.945	0.123	0.559	
7.950	-0.668	0.499	
7.955	0.873	0.362	
7.960	0.694	0.309	
7.965	-0.778	0.295	
7.970	-0.117	0.188	
7.975	0.977	0.099	
7.980	-0.646	0.092	
7.985	-0.617	0.029	
7.990	0.941	-0.051	
7.995	-0.270	-0.035	
8.000	-0.874	-0.043	
8.005	0.506	-0.108	
8.010	0.434	-0.094	
8.015	-0.843	-0.045	
8.020	-0.146	-0.077	
8.025	0.950	-0.087	
8.030	-0.645	-0.025	
8.035	-0.604	-0.033	
8.040	0.979	-0.072	
8.045	-0.264	-0.027	
8.050	-0.858	-0.019	
8.055	0.578	-0.076	
8.060	0.447	-0.056	
8.065	-0.848	-0.007	
8.070	-0.127	-0.045	
8.075	0.974	-0.061	
8.080	-0.663	-0.005	
8.085	-0.611	-0.020	
8.090	0.957	-0.067	
8.095	-0.253	-0.029	
8.100	-0.834	-0.023	
8.105	0.585	-0.077	
8.110	0.465	-0.053	
8.115	-0.829	0.001	
8.120	-0.105	-0.033	
8.125	0.998	-0.046	
8.130	-0.614	0.016	
8.135	-0.528	0.008	
8.140	1.166	-0.021	
8.145	-0.172	0.045	
8.150	-0.755	0.071	
8.155	0.817	0.032	
8.160	0.636	0.076	
8.165	-0.764	0.145	
8.170	0.052	0.113	
8.175	1.227	0.103	
8.180	-0.528	0.170	
8.185	-0.439	0.160	
8.190	1.294	0.120	
8.195	-0.111	0.172	
8.200	-0.724	0.182	
8.205	0.849	0.121	
8.210	0.594	0.140	
8.215	-0.797	0.182	
8.220	-0.034	0.121	
8.225	1.026	0.076	
8.230	-0.642	0.103	
8.235	-0.579	0.059	
8.240	0.974	-0.012	
8.245	-0.305	0.005	
8.250	-0.848	-0.010	
8.255	0.668	-0.077	
8.260	0.454	-0.053	
8.265	-0.858	0.002	
8.270	-0.110	-0.034	
8.275	1.058	-0.047	
8.280	-0.485	0.026	
8.285	-0.168	0.053	
8.290	2.119	0.117	
8.295	0.691	0.346	
8.300	-0.404	0.538	
8.305	1.096	0.578	
8.310	0.383	0.591	
8.315	-0.994	0.529	
8.320	-0.363	0.310	
8.325	0.526	0.090	
8.330	-0.793	-0.040	
8.335	-0.634	-0.174	
8.340	0.901	-0.262	
8.345	-0.311	-0.217	
8.350	-0.823	-0.180	
8.355	0.692	-0.187	
8.360	0.441	-0.110	
8.365	-0.810	-0.016	
8.370	0.047	-0.020	
8.375	1.123	0.001	
8.380	-0.585	0.090	
8.385	-0.451	0.094	
8.390	1.270	0.069	
8.395	-0.143	0.133	
8.400	-0.681	0.154	
8.405	1.035	0.114	
8.410	0.788	0.174	
8.415	-0.646	0.262	
8.420	0.419	0.253	
8.425	1.512	0.280	
8.430	-0.381	0.383	
8.435	-0.174	0.390	
8.440	1.855	0.373	
8.445	0.437	0.479	
8.450	-0.346	0.553	
8.455	1.648	0.552	
8.460	1.369	0.648	
8.465	-0.383	0.761	
8.470	0.910	0.746	
8.475	1.855	0.752	
8.480	-0.282	0.817	
8.485	-0.162	0.750	
8.490	1.628	0.626	
8.495	-0.043	0.590	
8.500	-0.643	0.505	
8.505	0.988	0.354	
8.510	0.556	0.302	
8.515	-0.781	0.281	
8.520	0.075	0.176	
8.525	0.954	0.107	
8.530	-0.703	0.112	
8.535	-0.547	0.048	
8.540	0.933	-0.032	
8.545	-0.375	-0.022	
8.550	-0.852	-0.044	
8.555	0.643	-0.113	
8.560	0.256	-0.094	
8.565	-0.896	-0.056	
8.570	-0.098	-0.102	
8.575	0.808	-0.119	
8.580	-0.738	-0.069	
8.585	-0.573	-0.089	
8.590	0.924	-0.127	
8.595	-0.374	-0.081	
8.600	-0.831	-0.073	
8.605	0.672	-0.119	
8.610	0.323	-0.081	
8.615	-0.849	-0.025	
8.620	0.017	-0.056	
8.625	0.918	-0.056	
8.630	-0.709	0.007	
8.635	-0.514	-0.010	
8.640	1.058	-0.048	
8.645	-0.335	0.001	
8.650	-0.796	0.006	
8.655	0.808	-0.045	
8.660	0.360	-0.007	
8.665	-0.855	0.044	
8.670	0.065	0.002	
8.675	0.968	-0.008	
8.680	-0.654	0.051	
8.685	-0.425	0.035	
8.690	1.163	0.005	
8.695	-0.264	0.065	
8.700	-0.715	0.079	
8.705	0.994	0.039	
8.710	0.564	0.097	
8.715	-0.758	0.170	
8.720	0.233	0.142	
8.725	1.189	0.143	
8.730	-0.564	0.212	
8.735	-0.328	0.194	
8.740	1.357	0.156	
8.745	-0.221	0.208	
8.750	-0.710	0.205	
8.755	0.902	0.131	
8.760	0.410	0.140	
8.765	-0.802	0.161	
8.770	0.128	0.093	
8.775	0.910	0.059	
8.780	-0.721	0.088	
8.785	-0.528	0.037	
8.790	0.953	-0.033	
8.795	-0.396	-0.016	
8.800	-0.807	-0.034	
8.805	0.758	-0.095	
8.810	0.238	-0.063	
8.815	-0.875	-0.020	
8.820	0.149	-0.058	
8.825	1.270	-0.034	
8.830	-0.343	0.093	
8.835	0.242	0.176	
8.840	2.235	0.294	
8.845	0.326	0.530	
8.850	-0.578	0.655	
8.855	0.719	0.590	
8.860	-0.175	0.481	
8.865	-0.994	0.310	
8.870	-0.296	0.055	
8.875	0.451	-0.133	
8.880	-0.864	-0.213	
8.885	-0.573	-0.298	
8.890	0.880	-0.337	
8.895	-0.456	-0.261	
8.900	-0.860	-0.216	
8.905	0.678	-0.223	
8.910	0.181	-0.154	
8.915	-0.877	-0.084	
8.920	0.151	-0.100	
8.925	0.998	-0.070	
8.930	-0.668	0.026	
8.935	-0.398	0.035	
8.940	1.236	0.022	
8.945	-0.270	0.095	
8.950	-0.660	0.115	
8.955	1.093	0.081	
8.960	0.576	0.146	
8.965	-0.675	0.223	
8.970	0.520	0.209	
8.975	1.378	0.243	
8.980	-0.459	0.345	
8.985	-0.153	0.346	
8.990	1.779	0.329	
8.995	0.131	0.423	
9.000	-0.361	0.469	
9.005	1.709	0.457	
9.010	1.088	0.557	
9.015	-0.483	0.661	
9.020	0.910	0.638	
9.025	1.625	0.645	
9.030	-0.422	0.702	
9.035	-0.177	0.628	
9.040	1.476	0.509	
9.045	-0.276	0.471	
9.050	-0.707	0.376	
9.055	0.861	0.221	
9.060	0.158	0.158	
9.065	-0.892	0.112	
9.070	0.058	-0.004	
9.075	0.758	-0.061	
9.080	-0.793	-0.042	
9.085	-0.511	-0.087	
9.090	0.878	-0.136	
9.095	-0.526	-0.102	
9.100	-0.919	-0.117	
9.105	0.558	-0.186	
9.110	-0.035	-0.178	
9.115	-0.951	-0.163	
9.120	0.047	-0.212	
9.125	0.794	-0.201	
9.130	-0.756	-0.117	
9.135	-0.445	-0.108	
9.140	1.008	-0.113	
9.145	-0.432	-0.042	
9.150	-0.770	-0.029	
9.155	0.848	-0.068	
9.160	0.224	-0.022	
9.165	-0.837	0.026	
9.170	0.203	-0.013	
9.175	0.931	-0.007	
9.180	-0.674	0.062	
9.185	-0.334	0.050	
9.190	1.270	0.031	
9.195	-0.323	0.103	
9.200	-0.669	0.117	
9.205	1.046	0.074	
9.210	0.390	0.123	
9.215	-0.743	0.174	
9.220	0.479	0.139	
9.225	1.172	0.160	
9.230	-0.578	0.244	
9.235	-0.233	0.231	
9.240	1.459	0.201	
9.245	-0.204	0.263	
9.250	-0.540	0.269	
9.255	1.317	0.224	
9.260	0.651	0.287	
9.265	-0.607	0.358	
9.270	0.741	0.335	
9.275	1.343	0.364	
9.280	-0.500	0.446	
9.285	-0.113	0.415	
9.290	1.562	0.362	
9.295	-0.201	0.398	
9.300	-0.561	0.370	
9.305	1.203	0.283	
9.310	0.444	0.293	
9.315	-0.715	0.308	
9.320	0.501	0.235	
9.325	1.075	0.219	
9.330	-0.604	0.265	
9.335	-0.220	0.223	
9.340	1.338	0.174	
9.345	-0.313	0.217	
9.350	-0.634	0.202	
9.355	1.088	0.134	
9.360	0.454	0.169	
9.365	-0.576	0.220	
9.370	1.174	0.226	
9.375	2.110	0.367	
9.380	0.030	0.618	
9.385	0.634	0.757	
9.390	1.889	0.833	
9.395	-0.276	0.907	
9.400	-0.788	0.802	
9.405	0.534	0.541	
9.410	-0.166	0.318	
9.415	-0.953	0.115	
9.420	0.160	-0.094	
9.425	0.806	-0.172	
9.430	-0.723	-0.130	
9.435	-0.306	-0.129	
9.440	1.198	-0.111	
9.445	-0.374	-0.002	
9.450	-0.650	0.042	
9.455	1.075	0.029	
9.460	0.332	0.101	
9.465	-0.707	0.166	
9.470	0.596	0.145	
9.475	1.148	0.183	
9.480	-0.582	0.274	
9.485	-0.134	0.262	
9.490	1.518	0.238	
9.495	-0.210	0.307	
9.500	-0.496	0.312	
9.505	1.383	0.265	
9.510	0.613	0.326	
9.515	-0.546	0.391	
9.520	0.982	0.374	
9.525	1.537	0.433	
9.530	-0.360	0.553	
9.535	0.317	0.562	
9.540	2.043	0.569	
9.545	0.200	0.680	
9.550	-0.218	0.712	
9.555	1.835	0.670	
9.560	0.998	0.731	
9.565	-0.439	0.783	
9.570	1.015	0.716	
9.575	1.444	0.691	
9.580	-0.479	0.709	
9.585	-0.107	0.605	
9.590	1.366	0.473	
9.595	-0.342	0.426	
9.600	-0.656	0.326	
9.605	0.941	0.183	
9.610	0.056	0.139	
9.615	-0.837	0.101	
9.620	0.293	0.003	
9.625	0.765	-0.022	
9.630	-0.755	0.019	
9.635	-0.357	-0.015	
9.640	0.931	-0.054	
9.645	-0.502	-0.017	
9.650	-0.723	-0.032	
9.655	0.846	-0.084	
9.660	0.024	-0.049	
9.665	-0.816	-0.019	
9.670	0.410	-0.056	
9.675	0.835	-0.025	
9.680	-0.723	0.058	
9.685	-0.281	0.046	
9.690	1.078	0.023	
9.695	-0.457	0.072	
9.700	-0.678	0.060	
9.705	0.991	0.004	
9.710	0.062	0.039	
9.715	-0.788	0.064	
9.720	0.482	0.017	
9.725	0.834	0.037	
9.730	-0.723	0.106	
9.735	-0.255	0.080	
9.740	1.096	0.047	
9.745	-0.457	0.090	
9.750	-0.625	0.074	
9.755	1.113	0.025	
9.760	0.172	0.078	
9.765	-0.735	0.123	
9.770	0.611	0.091	
9.775	1.006	0.127	
9.780	-0.634	0.213	
9.785	-0.156	0.197	
9.790	1.358	0.172	
9.795	-0.306	0.232	
9.800	-0.483	0.230	
9.805	1.358	0.191	
9.810	0.387	0.258	
9.815	-0.642	0.311	
9.820	0.822	0.277	
9.825	1.184	0.310	
9.830	-0.570	0.390	
9.835	-0.076	0.355	
9.840	1.405	0.305	
9.845	-0.339	0.334	
9.850	-0.532	0.296	
9.855	1.273	0.216	
9.860	0.302	0.244	
9.865	-0.678	0.268	
9.870	0.701	0.214	
9.875	1.035	0.229	
9.880	-0.589	0.295	
9.885	0.133	0.272	
9.890	1.966	0.287	
9.895	0.264	0.441	
9.900	-0.027	0.549	
9.905	2.099	0.607	
9.910	0.780	0.752	
9.915	-0.665	0.823	
9.920	0.366	0.697	
9.925	0.437	0.530	
9.930	-0.930	0.365	
9.935	-0.413	0.131	
9.940	0.887	-0.048	
9.945	-0.550	-0.090	
9.950	-0.714	-0.137	
9.955	0.910	-0.184	
9.960	-0.023	-0.123	
9.965	-0.788	-0.067	
9.970	0.538	-0.076	
9.975	0.910	-0.011	
9.980	-0.663	0.101	
9.985	-0.104	0.114	
9.990	1.393	0.123	
9.995	-0.363	0.212	
10.000	-0.531	0.223	
10.005	1.242	0.179	
10.010	0.207	0.224	
10.015	-0.674	0.250	
10.020	0.852	0.203	
10.025	1.145	0.243	
10.030	-0.564	0.337	
10.035	0.087	0.326	
10.040	1.626	0.317	
10.045	-0.215	0.398	
10.050	-0.339	0.404	
10.055	1.710	0.371	
10.060	0.663	0.458	
10.065	-0.485	0.535	
10.070	1.198	0.515	
10.075	1.453	0.565	
10.080	-0.450	0.654	
10.085	0.236	0.614	
10.090	1.633	0.557	
10.095	-0.303	0.574	
10.100	-0.489	0.501	
10.105	1.194	0.369	
10.110	0.043	0.325	
10.115	-0.771	0.267	
10.120	0.483	0.142	
10.125	0.627	0.093	
10.130	-0.813	0.094	
10.135	-0.287	0.018	
10.140	0.951	-0.043	
10.145	-0.596	-0.018	
10.150	-0.717	-0.046	
10.155	0.819	-0.108	
10.160	-0.186	-0.084	
10.165	-0.906	-0.078	
10.170	0.308	-0.139	
10.175	0.489	-0.134	
10.180	-0.854	-0.087	
10.185	-0.270	-0.116	
10.190	0.960	-0.129	
10.195	-0.579	-0.062	
10.200	-0.678	-0.058	
10.205	0.939	-0.092	
10.210	-0.122	-0.041	
10.215	-0.848	-0.016	
10.220	0.471	-0.063	
10.225	0.651	-0.040	
10.230	-0.796	0.024	
10.235	-0.217	-0.003	
10.240	1.044	-0.024	
10.245	-0.549	0.031	
10.250	-0.611	0.022	
10.255	1.093	-0.018	
10.260	-0.023	0.037	
10.265	-0.761	0.071	
10.270	0.668	0.034	
10.275	0.820	0.074	
10.280	-0.694	0.154	
10.285	-0.061	0.136	
10.290	1.291	0.124	
10.295	-0.438	0.192	
10.300	-0.517	0.185	
10.305	1.268	0.138	
10.310	0.049	0.185	
10.315	-0.726	0.203	
10.320	0.730	0.144	
10.325	0.831	0.160	
10.330	-0.733	0.215	
10.335	-0.160	0.166	
10.340	1.056	0.111	
10.345	-0.549	0.128	
10.350	-0.608	0.083	
10.355	1.035	0.012	
10.360	-0.099	0.038	
10.365	-0.794	0.045	
10.370	0.610	-0.009	
10.375	0.675	0.017	
10.380	-0.758	0.082	
10.385	-0.104	0.055	
10.390	1.294	0.047	
10.395	-0.351	0.133	
10.400	-0.195	0.169	
10.405	2.191	0.222	
10.410	0.959	0.445	
10.415	-0.374	0.645	
10.420	1.059	0.682	
10.425	0.601	0.683	
10.430	-0.953	0.618	
10.435	-0.413	0.393	
10.440	0.559	0.153	
10.445	-0.755	0.005	
10.450	-0.720	-0.146	
10.455	0.908	-0.253	
10.460	-0.169	-0.216	
10.465	-0.808	-0.169	
10.470	0.585	-0.170	
10.475	0.527	-0.098	
10.480	-0.834	-0.007	
10.485	-0.177	-0.022	
10.490	1.159	-0.027	
10.495	-0.492	0.052	
10.500	-0.499	0.066	
10.505	1.276	0.051	
10.510	0.038	0.131	
10.515	-0.680	0.177	
10.520	0.927	0.148	
10.525	0.977	0.206	
10.530	-0.604	0.302	
10.535	0.198	0.292	
10.540	1.521	0.293	
10.545	-0.319	0.375	
10.550	-0.261	0.375	
10.555	1.817	0.350	
10.560	0.584	0.456	
10.565	-0.396	0.544	
10.570	1.502	0.546	
10.575	1.526	0.637	
10.580	-0.372	0.757	
10.585	0.585	0.739	
10.590	1.755	0.712	
10.595	-0.273	0.744	
10.600	-0.288	0.664	
10.605	1.579	0.536	
10.610	0.149	0.514	
10.615	-0.656	0.464	
10.620	0.858	0.340	
10.625	0.683	0.297	
10.630	-0.782	0.287	
10.635	-0.117	0.183	
10.640	1.029	0.099	
10.645	-0.624	0.100	
10.650	-0.621	0.043	
10.655	0.957	-0.034	
10.660	-0.235	-0.017	
10.665	-0.852	-0.023	
10.670	0.579	-0.084	
10.675	0.477	-0.062	
10.680	-0.855	-0.009	
10.685	-0.174	-0.046	
10.690	0.957	-0.067	
10.695	-0.648	-0.015	
10.700	-0.617	-0.030	
10.705	1.006	-0.073	
10.710	-0.204	-0.025	
10.715	-0.828	-0.008	
10.720	0.608	-0.056	
10.725	0.556	-0.025	
10.730	-0.810	0.036	
10.735	-0.120	0.005	
10.740	0.998	-0.013	
10.745	-0.642	0.037	
10.750	-0.575	0.015	
10.755	1.070	-0.032	
10.760	-0.204	0.014	
10.765	-0.816	0.027	
10.770	0.651	-0.027	
10.775	0.544	-0.000	
10.780	-0.785	0.057	
10.785	-0.041	0.025	
10.790	1.140	0.017	
10.795	-0.560	0.088	
10.800	-0.515	0.084	
10.805	1.145	0.045	
10.810	-0.172	0.092	
10.815	-0.784	0.099	
10.820	0.681	0.035	
10.825	0.468	0.046	
10.830	-0.889	0.076	
10.835	-0.174	0.008	
10.840	0.939	-0.040	
10.845	-0.657	-0.008	
10.850	-0.614	-0.037	
10.855	0.937	-0.088	
10.860	-0.296	-0.052	
10.865	-0.886	-0.050	
10.870	0.514	-0.111	
10.875	0.373	-0.097	
10.880	-0.892	-0.055	
10.885	-0.084	-0.093	
10.890	1.439	-0.077	
10.895	-0.213	0.064	
10.900	0.099	0.173	
10.905	2.105	0.291	
10.910	0.282	0.507	
10.915	-0.692	0.611	
10.920	0.509	0.522	
10.925	0.033	0.399	
10.930	-0.994	0.245	
10.935	-0.290	0.021	
10.940	0.735	-0.132	
10.945	-0.741	-0.163	
10.950	-0.617	-0.211	
10.955	1.003	-0.240	
10.960	-0.227	-0.157	
10.965	-0.735	-0.096	
10.970	0.883	-0.085	
10.975	0.691	0.015	
10.980	-0.701	0.133	
10.985	0.197	0.143	
10.990	1.297	0.167	
10.995	-0.456	0.256	
11.000	-0.303	0.256	
11.005	1.524	0.230	
11.010	0.068	0.305	
11.015	-0.547	0.337	
11.020	1.247	0.300	
11.025	1.024	0.364	
11.030	-0.532	0.456	
11.035	0.558	0.441	
11.040	1.669	0.456	
11.045	-0.265	0.547	
11.050	-0.104	0.538	
11.055	1.898	0.500	
11.060	0.415	0.579	
11.065	-0.367	0.620	
11.070	1.646	0.586	
11.075	1.431	0.663	
11.080	-0.357	0.770	
11.085	0.835	0.752	
11.090	1.794	0.748	
11.095	-0.302	0.798	
11.100	-0.226	0.720	
11.105	1.505	0.583	
11.110	-0.082	0.533	
11.115	-0.671	0.441	
11.120	0.843	0.287	
11.125	0.456	0.227	
11.130	-0.817	0.198	
11.135	-0.047	0.091	
11.140	0.880	0.020	
11.145	-0.698	0.028	
11.150	-0.567	-0.023	
11.155	0.872	-0.088	
11.160	-0.349	-0.066	
11.165	-0.831	-0.073	
11.170	0.634	-0.127	
11.175	0.305	-0.095	
11.180	-0.848	-0.044	
11.185	-0.070	-0.078	
11.190	0.892	-0.085	
11.195	-0.671	-0.024	
11.200	-0.502	-0.034	
11.205	1.064	-0.061	
11.210	-0.296	-0.001	
11.215	-0.791	0.014	
11.220	0.715	-0.035	
11.225	0.418	-0.004	
11.230	-0.805	0.046	
11.235	0.070	0.011	
11.240	1.069	0.010	
11.245	-0.599	0.082	
11.250	-0.413	0.077	
11.255	1.258	0.053	
11.260	-0.183	0.120	
11.265	-0.678	0.140	
11.270	0.988	0.099	
11.275	0.643	0.150	
11.280	-0.703	0.220	
11.285	0.277	0.191	
11.290	1.255	0.193	
11.295	-0.547	0.261	
11.300	-0.396	0.236	
11.305	1.236	0.175	
11.310	-0.209	0.199	
11.315	-0.727	0.178	
11.320	0.785	0.095	
11.325	0.399	0.093	
11.330	-0.810	0.111	
11.335	0.050	0.045	
11.340	0.980	0.017	
11.345	-0.650	0.063	
11.350	-0.468	0.038	
11.355	1.090	-0.005	
11.360	-0.311	0.040	
11.365	-0.810	0.039	
11.370	0.701	-0.026	
11.375	0.357	-0.009	
11.380	-0.721	0.033	
11.385	0.620	0.026	
11.390	1.915	0.130	
11.395	-0.026	0.361	
11.400	0.341	0.510	
11.405	1.942	0.609	
11.410	-0.127	0.734	
11.415	-0.839	0.700	
11.420	0.319	0.485	
11.425	-0.105	0.276	
11.430	-0.994	0.081	
11.435	-0.169	-0.134	
11.440	0.681	-0.245	
11.445	-0.776	-0.235	
11.450	-0.573	-0.254	
11.455	0.828	-0.266	
11.460	-0.428	-0.193	
11.465	-0.842	-0.162	
11.470	0.665	-0.183	
11.475	0.267	-0.125	
11.480	-0.836	-0.057	
11.485	0.011	-0.077	
11.490	0.899	-0.069	
11.495	-0.656	0.001	
11.500	-0.415	-0.003	
11.505	1.139	-0.020	
11.510	-0.296	0.047	
11.515	-0.698	0.065	
11.520	0.980	0.029	
11.525	0.553	0.089	
11.530	-0.683	0.167	
11.535	0.456	0.158	
11.540	1.328	0.197	
11.545	-0.454	0.302	
11.550	-0.186	0.308	
11.555	1.625	0.292	
11.560	-0.060	0.368	
11.565	-0.561	0.381	
11.570	1.183	0.318	
11.575	0.627	0.340	
11.580	-0.703	0.368	
11.585	0.337	0.294	
11.590	1.133	0.254	
11.595	-0.639	0.278	
11.600	-0.436	0.212	
11.605	1.027	0.118	
11.610	-0.406	0.106	
11.615	-0.855	0.051	
11.620	0.562	-0.057	
11.625	-0.018	-0.088	
11.630	-0.976	-0.108	
11.635	-0.149	-0.195	
11.640	0.569	-0.235	
11.645	-0.875	-0.206	
11.650	-0.631	-0.237	
11.655	0.747	-0.273	
11.660	-0.512	-0.224	
11.665	-0.924	-0.214	
11.670	0.454	-0.258	
11.675	-0.012	-0.233	
11.680	-0.944	-0.201	
11.685	-0.089	-0.240	
11.690	0.706	-0.234	
11.695	-0.788	-0.164	
11.700	-0.505	-0.162	
11.705	0.945	-0.171	
11.710	-0.439	-0.100	
11.715	-0.834	-0.082	
11.720	0.642	-0.126	
11.725	0.085	-0.099	
11.730	-0.887	-0.071	
11.735	0.126	-0.117	
11.740	0.904	-0.105	
11.745	-0.707	-0.023	
11.750	-0.390	-0.020	
11.755	1.227	-0.027	
11.760	-0.293	0.056	
11.765	-0.674	0.085	
11.770	1.026	0.056	
11.775	0.405	0.113	
11.780	-0.773	0.169	
11.785	0.352	0.130	
11.790	1.136	0.135	
11.795	-0.593	0.207	
11.800	-0.332	0.186	
11.805	1.316	0.144	
11.810	-0.284	0.190	
11.815	-0.688	0.180	
11.820	0.983	0.111	
11.825	0.355	0.132	
11.830	-0.805	0.159	
11.835	0.267	0.097	
11.840	1.001	0.083	
11.845	-0.695	0.133	
11.850	-0.403	0.096	
11.855	1.146	0.044	
11.860	-0.358	0.081	
11.865	-0.723	0.071	
11.870	0.875	0.010	
11.875	0.248	0.037	
11.880	-0.729	0.073	
11.885	0.814	0.059	
11.890	1.939	0.172	
11.895	-0.035	0.411	
11.900	0.622	0.567	
11.905	2.096	0.692	
11.910	-0.145	0.841	
11.915	-0.741	0.808	
11.920	0.604	0.596	
11.925	-0.076	0.399	
11.930	-0.951	0.206	
11.935	0.064	-0.015	
11.940	0.815	-0.122	
11.945	-0.741	-0.108	
11.950	-0.396	-0.130	
11.955	1.157	-0.134	
11.960	-0.367	-0.040	
11.965	-0.698	0.001	
11.970	1.053	-0.012	
11.975	0.401	0.067	
11.980	-0.732	0.146	
11.985	0.518	0.132	
11.990	1.215	0.171	
11.995	-0.561	0.269	
12.000	-0.212	0.262	
12.005	1.442	0.231	
12.010	-0.244	0.285	
12.015	-0.575	0.277	
12.020	1.345	0.219	
12.025	0.695	0.280	
12.030	-0.576	0.358	
12.035	0.884	0.350	
12.040	1.614	0.411	
12.045	-0.357	0.538	
12.050	0.184	0.552	
12.055	2.040	0.551	
12.060	0.183	0.654	
12.065	-0.296	0.682	
12.070	1.812	0.634	
12.075	1.050	0.696	
12.080	-0.447	0.758	
12.085	1.050	0.704	
12.090	1.555	0.696	
12.095	-0.488	0.733	
12.100	-0.166	0.635	
12.105	1.433	0.498	
12.110	-0.296	0.449	
12.115	-0.666	0.351	
12.120	0.974	0.207	
12.125	0.157	0.165	
12.130	-0.869	0.133	
12.135	0.219	0.030	
12.140	0.831	-0.008	
12.145	-0.756	0.027	
12.150	-0.406	-0.011	
12.155	1.008	-0.054	
12.160	-0.485	-0.013	
12.165	-0.788	-0.025	
12.170	0.808	-0.084	
12.175	0.090	-0.055	
12.180	-0.845	-0.024	
12.185	0.302	-0.065	
12.190	0.883	-0.043	
12.195	-0.710	0.038	
12.200	-0.322	0.032	
12.205	1.178	0.014	
12.210	-0.377	0.080	
12.215	-0.692	0.085	
12.220	0.950	0.034	
12.225	0.194	0.068	
12.230	-0.791	0.097	
12.235	0.361	0.046	
12.240	0.924	0.052	
12.245	-0.671	0.116	
12.250	-0.262	0.095	
12.255	1.294	0.072	
12.260	-0.325	0.139	
12.265	-0.608	0.148	
12.270	1.111	0.106	
12.275	0.369	0.157	
12.280	-0.668	0.207	
12.285	0.666	0.180	
12.290	1.209	0.220	
12.295	-0.563	0.315	
12.300	-0.168	0.300	
12.305	1.401	0.260	
12.310	-0.296	0.301	
12.315	-0.584	0.275	
12.320	1.104	0.196	
12.325	0.233	0.206	
12.330	-0.778	0.209	
12.335	0.448	0.132	
12.340	0.960	0.120	
12.345	-0.681	0.169	
12.350	-0.264	0.132	
12.355	1.200	0.088	
12.360	-0.419	0.130	
12.365	-0.672	0.112	
12.370	1.027	0.049	
12.375	0.209	0.082	
12.380	-0.753	0.115	
12.385	0.625	0.079	
12.390	1.404	0.134	
12.395	-0.303	0.281	
12.400	0.567	0.365	
12.405	2.178	0.477	
12.410	-0.008	0.671	
12.415	-0.517	0.719	
12.420	0.904	0.603	
12.425	-0.154	0.487	
12.430	-0.989	0.322	
12.435	0.062	0.086	
12.440	0.588	-0.059	
12.445	-0.816	-0.099	
12.450	-0.361	-0.166	
12.455	1.078	-0.189	
12.460	-0.441	-0.103	
12.465	-0.643	-0.063	
12.470	1.072	-0.061	
12.475	0.203	0.029	
12.480	-0.736	0.102	
12.485	0.497	0.084	
12.490	0.945	0.115	
12.495	-0.662	0.188	
12.500	-0.174	0.164	
12.505	1.360	0.138	
12.510	-0.335	0.202	
12.515	-0.557	0.202	
12.520	1.267	0.157	
12.525	0.408	0.215	
12.530	-0.627	0.272	
12.535	0.901	0.252	
12.540	1.338	0.312	
12.545	-0.482	0.426	
12.550	0.161	0.429	
12.555	1.848	0.429	
12.560	-0.061	0.525	
12.565	-0.311	0.540	
12.570	1.744	0.497	
12.575	0.790	0.567	
12.580	-0.500	0.627	
12.585	1.056	0.580	
12.590	1.357	0.587	
12.595	-0.529	0.631	
12.600	-0.090	0.546	
12.605	1.349	0.433	
12.610	-0.415	0.399	
12.615	-0.669	0.301	
12.620	0.966	0.162	
12.625	-0.012	0.121	
12.630	-0.890	0.081	
12.635	0.242	-0.025	
12.640	0.614	-0.063	
12.645	-0.823	-0.040	
12.650	-0.355	-0.086	
12.655	0.925	-0.120	
12.660	-0.581	-0.073	
12.665	-0.749	-0.082	
12.670	0.819	-0.129	
12.675	-0.108	-0.092	
12.680	-0.898	-0.071	
12.685	0.312	-0.121	
12.690	0.729	-0.102	
12.695	-0.779	-0.028	
12.700	-0.299	-0.039	
12.705	1.070	-0.051	
12.710	-0.499	0.014	
12.715	-0.678	0.016	
12.720	1.008	-0.025	
12.725	0.046	0.023	
12.730	-0.807	0.056	
12.735	0.514	0.013	
12.740	0.855	0.039	
12.745	-0.730	0.114	
12.750	-0.198	0.092	
12.755	1.235	0.070	
12.760	-0.422	0.131	
12.765	-0.570	0.129	
12.770	1.216	0.088	
12.775	0.181	0.146	
12.780	-0.723	0.187	
12.785	0.697	0.146	
12.790	0.980	0.176	
12.795	-0.665	0.250	
12.800	-0.128	0.218	
12.805	1.274	0.178	
12.810	-0.415	0.219	
12.815	-0.573	0.192	
12.820	1.087	0.122	
12.825	0.009	0.139	
12.830	-0.805	0.136	
12.835	0.515	0.059	
12.840	0.805	0.058	
12.845	-0.749	0.110	
12.850	-0.233	0.073	
12.855	1.110	0.036	
12.860	-0.515	0.079	
12.865	-0.656	0.059	
12.870	1.009	0.001	
12.875	-0.046	0.033	
12.880	-0.814	0.047	
12.885	0.651	-0.002	
12.890	1.174	0.051	
12.895	-0.398	0.188	
12.900	0.660	0.268	
12.905	2.111	0.398	
12.910	-0.119	0.608	
12.915	-0.474	0.664	
12.920	0.941	0.563	
12.925	-0.274	0.462	
12.930	-0.994	0.299	
12.935	0.052	0.062	
12.940	0.337	-0.092	
12.945	-0.893	-0.158	
12.950	-0.319	-0.243	
12.955	0.965	-0.266	
12.960	-0.547	-0.179	
12.965	-0.637	-0.139	
12.970	1.041	-0.129	
12.975	-0.055	-0.037	
12.980	-0.800	0.022	
12.985	0.608	-0.002	
12.990	0.793	0.043	
12.995	-0.717	0.125	
13.000	-0.133	0.106	
13.005	1.256	0.090	
13.010	-0.442	0.155	
13.015	-0.534	0.151	
13.020	1.235	0.108	
13.025	0.120	0.162	
13.030	-0.686	0.195	
13.035	0.919	0.160	
13.040	1.169	0.220	
13.045	-0.546	0.334	
13.050	0.232	0.343	
13.055	1.709	0.359	
13.060	-0.198	0.460	
13.065	-0.288	0.472	
13.070	1.747	0.435	
13.075	0.590	0.512	
13.080	-0.505	0.567	
13.085	1.159	0.524	
13.090	1.248	0.547	
13.095	-0.561	0.600	
13.100	0.040	0.523	
13.105	1.308	0.427	
13.110	-0.470	0.402	
13.115	-0.607	0.304	
13.120	0.976	0.167	
13.125	-0.137	0.125	
13.130	-0.860	0.074	
13.135	0.387	-0.033	
13.140	0.433	-0.063	
13.145	-0.896	-0.050	
13.150	-0.302	-0.111	
13.155	0.854	-0.150	
13.160	-0.656	-0.107	
13.165	-0.730	-0.121	
13.170	0.808	-0.166	
13.175	-0.220	-0.127	
13.180	-0.887	-0.108	
13.185	0.441	-0.150	
13.190	0.590	-0.117	
13.195	-0.828	-0.042	
13.200	-0.241	-0.058	
13.205	0.992	-0.070	
13.210	-0.589	-0.009	
13.215	-0.640	-0.016	
13.220	1.005	-0.056	
13.225	-0.131	-0.008	
13.230	-0.843	0.012	
13.235	0.518	-0.040	
13.240	0.646	-0.020	
13.245	-0.765	0.042	
13.250	-0.122	0.018	
13.255	1.191	0.012	
13.260	-0.529	0.086	
13.265	-0.575	0.086	
13.270	1.165	0.047	
13.275	-0.026	0.098	
13.280	-0.750	0.122	
13.285	0.732	0.075	
13.290	0.840	0.109	
13.295	-0.700	0.185	
13.300	-0.069	0.159	
13.305	1.224	0.135	
13.310	-0.500	0.185	
13.315	-0.573	0.159	
13.320	1.015	0.088	
13.325	-0.194	0.095	
13.330	-0.887	0.069	
13.335	0.366	-0.030	
13.340	0.412	-0.062	
13.345	-0.893	-0.052	
13.350	-0.305	-0.116	
13.355	0.820	-0.157	
13.360	-0.672	-0.118	
13.365	-0.717	-0.134	
13.370	0.727	-0.181	
13.375	-0.287	-0.150	
13.380	-0.832	-0.138	
13.385	0.877	-0.156	
13.390	1.279	-0.035	
13.395	-0.380	0.172	
13.400	0.623	0.295	
13.405	1.623	0.416	
13.410	-0.508	0.554	
13.415	-0.727	0.514	
13.420	0.497	0.332	
13.425	-0.439	0.173	
13.430	-0.994	-0.000	
13.435	0.251	-0.186	
13.440	0.325	-0.251	
13.445	-0.887	-0.236	
13.450	-0.220	-0.262	
13.455	0.915	-0.245	
13.460	-0.631	-0.147	
13.465	-0.616	-0.116	
13.470	1.015	-0.118	
13.475	-0.149	-0.039	
13.480	-0.764	0.005	
13.485	0.742	-0.018	
13.490	0.742	0.042	
13.495	-0.735	0.132	
13.500	-0.012	0.118	
13.505	1.276	0.113	
13.510	-0.462	0.186	
13.515	-0.448	0.183	
13.520	1.447	0.152	
13.525	0.204	0.231	
13.530	-0.573	0.286	
13.535	1.203	0.272	
13.540	1.236	0.357	
13.545	-0.467	0.481	
13.550	0.567	0.493	
13.555	1.826	0.523	
13.560	-0.166	0.628	
13.565	-0.113	0.628	
13.570	1.973	0.585	
13.575	0.610	0.660	
13.580	-0.436	0.703	
13.585	1.348	0.644	
13.590	1.197	0.656	
13.595	-0.544	0.688	
13.600	0.264	0.594	
13.605	1.370	0.501	
13.610	-0.483	0.479	
13.615	-0.489	0.376	
13.620	1.154	0.241	
13.625	-0.159	0.207	
13.630	-0.817	0.153	
13.635	0.578	0.042	
13.640	0.506	0.019	
13.645	-0.826	0.039	
13.650	-0.120	-0.017	
13.655	1.018	-0.043	
13.660	-0.607	0.012	
13.665	-0.563	0.002	
13.670	1.018	-0.036	
13.675	-0.242	0.009	
13.680	-0.822	0.016	
13.685	0.627	-0.042	
13.690	0.517	-0.019	
13.695	-0.816	0.035	
13.700	-0.082	-0.000	
13.705	1.061	-0.014	
13.710	-0.607	0.048	
13.715	-0.557	0.037	
13.720	1.088	-0.004	
13.725	-0.186	0.042	
13.730	-0.771	0.055	
13.735	0.764	0.006	
13.740	0.620	0.045	
13.745	-0.776	0.112	
13.750	-0.056	0.079	
13.755	1.035	0.055	
13.760	-0.589	0.099	
13.765	-0.512	0.072	
13.770	1.160	0.024	
13.775	-0.160	0.073	
13.780	-0.749	0.087	
13.785	0.788	0.038	
13.790	0.663	0.076	
13.795	-0.721	0.145	
13.800	0.119	0.121	
13.805	1.277	0.124	
13.810	-0.488	0.203	
13.815	-0.430	0.199	
13.820	1.312	0.158	
13.825	-0.078	0.207	
13.830	-0.700	0.214	
13.835	0.840	0.148	
13.840	0.605	0.162	
13.845	-0.779	0.197	
13.850	-0.038	0.133	
13.855	1.006	0.083	
13.860	-0.634	0.105	
13.865	-0.553	0.059	
13.870	1.055	-0.006	
13.875	-0.271	0.022	
13.880	-0.839	0.017	
13.885	0.614	-0.050	
13.890	0.415	-0.037	
13.895	-0.871	0.003	
13.900	-0.040	-0.041	
13.905	1.434	-0.033	
13.910	-0.236	0.097	
13.915	0.105	0.192	
13.920	2.169	0.302	
13.925	0.396	0.524	
13.930	-0.646	0.643	
13.935	0.573	0.568	
13.940	0.068	0.453	
13.945	-0.994	0.299	
13.950	-0.291	0.067	
13.955	0.695	-0.101	
13.960	-0.749	-0.148	
13.965	-0.617	-0.210	
13.970	0.918	-0.251	
13.975	-0.325	-0.183	
13.980	-0.860	-0.143	
13.985	0.605	-0.164	
13.990	0.422	-0.108	
13.995	-0.817	-0.031	
14.000	-0.003	-0.044	
14.005	1.066	-0.031	
14.010	-0.611	0.051	
14.015	-0.468	0.053	
14.020	1.239	0.030	
14.025	-0.163	0.099	
14.030	-0.697	0.124	
14.035	0.976	0.087	
14.040	0.771	0.146	
14.045	-0.627	0.235	
14.050	0.466	0.235	
14.055	1.547	0.277	
14.060	-0.366	0.394	
14.065	-0.171	0.409	
14.070	1.816	0.391	
14.075	0.373	0.488	
14.080	-0.374	0.546	
14.085	1.646	0.533	
14.090	1.357	0.625	
14.095	-0.401	0.738	
14.100	0.834	0.721	
14.105	1.777	0.720	
14.110	-0.316	0.775	
14.115	-0.198	0.702	
14.120	1.534	0.575	
14.125	-0.111	0.534	
14.130	-0.671	0.444	
14.135	0.924	0.294	
14.140	0.543	0.245	
14.145	-0.819	0.231	
14.150	-0.032	0.129	
14.155	0.936	0.058	
14.160	-0.672	0.066	
14.165	-0.532	0.014	
14.170	1.027	-0.046	
14.175	-0.328	-0.013	
14.180	-0.822	-0.014	
14.185	0.704	-0.071	
14.190	0.393	-0.041	
14.195	-0.816	0.013	
14.200	0.017	-0.019	
14.205	1.015	-0.021	
14.210	-0.633	0.047	
14.215	-0.468	0.039	
14.220	1.162	0.009	
14.225	-0.226	0.068	
14.230	-0.707	0.084	
14.235	0.895	0.042	
14.240	0.524	0.088	
14.245	-0.758	0.149	
14.250	0.151	0.113	
14.255	1.062	0.102	
14.260	-0.607	0.155	
14.265	-0.424	0.126	
14.270	1.201	0.077	
14.275	-0.230	0.119	
14.280	-0.703	0.120	
14.285	0.963	0.067	
14.290	0.582	0.112	
14.295	-0.701	0.179	
14.300	0.323	0.156	
14.305	1.273	0.172	
14.310	-0.532	0.256	
14.315	-0.326	0.245	
14.320	1.402	0.204	
14.325	-0.143	0.254	
14.330	-0.616	0.255	
14.335	1.168	0.199	
14.340	0.729	0.247	
14.345	-0.677	0.315	
14.350	0.373	0.279	
14.355	1.261	0.271	
14.360	-0.552	0.325	
14.365	-0.374	0.282	
14.370	1.247	0.206	
14.375	-0.239	0.218	
14.380	-0.706	0.186	
14.385	0.861	0.100	
14.390	0.422	0.105	
14.395	-0.790	0.131	
14.400	0.161	0.073	
14.405	1.055	0.059	
14.410	-0.630	0.116	
14.415	-0.432	0.094	
14.420	1.128	0.049	
14.425	-0.253	0.090	
14.430	-0.573	0.096	
14.435	1.613	0.091	
14.440	1.488	0.263	
14.445	-0.252	0.499	
14.450	1.090	0.619	
14.455	1.515	0.722	
14.460	-0.645	0.800	
14.465	-0.611	0.673	
14.470	0.596	0.428	
14.475	-0.521	0.231	
14.480	-0.890	0.030	
14.485	0.599	-0.153	
14.490	0.187	-0.192	
14.495	-0.855	-0.170	
14.500	0.113	-0.193	
14.505	0.969	-0.153	
14.510	-0.659	-0.041	
14.515	-0.413	-0.013	
14.520	1.200	-0.010	
14.525	-0.253	0.073	
14.530	-0.671	0.101	
14.535	1.014	0.070	
14.540	0.515	0.128	
14.545	-0.710	0.194	
14.550	0.410	0.168	
14.555	1.279	0.188	
14.560	-0.503	0.277	
14.565	-0.239	0.271	
14.570	1.521	0.243	
14.575	-0.070	0.311	
14.580	-0.523	0.326	
14.585	1.399	0.287	
14.590	0.980	0.364	
14.595	-0.486	0.468	
14.600	0.918	0.475	
14.605	1.781	0.536	
14.610	-0.252	0.661	
14.615	0.108	0.665	
14.620	1.954	0.633	
14.625	0.192	0.694	
14.630	-0.418	0.685	
14.635	1.483	0.593	
14.640	0.852	0.595	
14.645	-0.598	0.606	
14.650	0.544	0.508	
14.655	1.229	0.446	
14.660	-0.589	0.444	
14.665	-0.360	0.347	
14.670	1.125	0.227	
14.675	-0.370	0.196	
14.680	-0.794	0.126	
14.685	0.748	0.012	
14.690	0.180	-0.005	
14.695	-0.871	-0.002	
14.700	0.078	-0.068	
14.705	0.858	-0.082	
14.710	-0.721	-0.024	
14.715	-0.459	-0.039	
14.720	1.014	-0.068	
14.725	-0.395	-0.016	
14.730	-0.774	-0.012	
14.735	0.765	-0.063	
14.740	0.197	-0.032	
14.745	-0.840	0.004	
14.750	0.134	-0.042	
14.755	0.841	-0.044	
14.760	-0.723	0.014	
14.765	-0.448	-0.009	
14.770	1.001	-0.047	
14.775	-0.384	-0.003	
14.780	-0.755	-0.005	
14.785	0.791	-0.056	
14.790	0.177	-0.024	
14.795	-0.840	0.010	
14.800	0.165	-0.037	
14.805	0.875	-0.036	
14.810	-0.692	0.027	
14.815	-0.386	0.012	
14.820	1.142	-0.013	
14.825	-0.337	0.050	
14.830	-0.697	0.061	
14.835	0.969	0.020	
14.840	0.375	0.071	
14.845	-0.747	0.127	
14.850	0.407	0.099	
14.855	1.137	0.122	
14.860	-0.581	0.208	
14.865	-0.252	0.199	
14.870	1.386	0.172	
14.875	-0.256	0.231	
14.880	-0.614	0.230	
14.885	1.142	0.171	
14.890	0.483	0.209	
14.895	-0.721	0.254	
14.900	0.401	0.203	
14.905	1.041	0.192	
14.910	-0.654	0.236	
14.915	-0.331	0.186	
14.920	1.188	0.122	
14.925	-0.351	0.145	
14.930	-0.695	0.121	
14.935	0.934	0.049	
14.940	0.300	0.073	
14.945	-0.770	0.106	
14.950	0.364	0.063	
14.955	1.059	0.077	
14.960	-0.578	0.157	
14.965	-0.116	0.158	
14.970	1.910	0.180	
14.975	0.352	0.345	
14.980	-0.213	0.473	
14.985	1.723	0.525	
14.990	0.625	0.631	
14.995	-0.802	0.667	
15.000	0.001	0.517	
15.005	0.479	0.333	
15.010	-0.883	0.184	
15.015	-0.496	-0.005	
15.020	0.973	-0.139	
15.025	-0.427	-0.132	
15.030	-0.715	-0.131	
15.035	0.950	-0.149	
15.040	0.279	-0.063	
15.045	-0.764	0.026	
15.050	0.431	0.027	
15.055	1.113	0.078	
15.060	-0.593	0.184	
15.065	-0.220	0.189	
15.070	1.421	0.174	
15.075	-0.241	0.245	
15.080	-0.549	0.252	
15.085	1.290	0.207	
15.090	0.559	0.266	
15.095	-0.648	0.327	
15.100	0.689	0.295	
15.105	1.354	0.321	
15.110	-0.454	0.410	
15.115	-0.009	0.398	
15.120	1.742	0.378	
15.125	-0.024	0.457	
15.130	-0.363	0.473	
15.135	1.654	0.435	
15.140	0.922	0.515	
15.145	-0.442	0.600	
15.150	1.108	0.584	
15.155	1.652	0.626	
15.160	-0.363	0.719	
15.165	0.067	0.677	
15.170	1.683	0.599	
15.175	-0.172	0.600	
15.180	-0.492	0.529	
15.185	1.369	0.406	
15.190	0.601	0.402	
15.195	-0.619	0.416	
15.200	0.628	0.346	
15.205	1.142	0.329	
15.210	-0.572	0.368	
15.215	-0.207	0.310	
15.220	1.306	0.239	
15.225	-0.319	0.256	
15.230	-0.619	0.220	
15.235	1.059	0.138	
15.240	0.264	0.154	
15.245	-0.747	0.172	
15.250	0.433	0.112	
15.255	0.930	0.111	
15.260	-0.677	0.164	
15.265	-0.293	0.127	
15.270	1.142	0.080	
15.275	-0.406	0.115	
15.280	-0.692	0.094	
15.285	0.919	0.027	
15.290	0.117	0.047	
15.295	-0.796	0.064	
15.300	0.387	0.011	
15.305	0.901	0.023	
15.310	-0.701	0.094	
15.315	-0.303	0.074	
15.320	1.102	0.041	
15.325	-0.432	0.085	
15.330	-0.700	0.070	
15.335	0.886	0.006	
15.340	0.059	0.025	
15.345	-0.819	0.039	
15.350	0.386	-0.017	
15.355	0.886	-0.002	
15.360	-0.700	0.073	
15.365	-0.268	0.060	
15.370	1.186	0.040	
15.375	-0.407	0.101	
15.380	-0.640	0.100	
15.385	1.046	0.052	
15.390	0.206	0.095	
15.395	-0.746	0.131	
15.400	0.517	0.089	
15.405	0.968	0.110	
15.410	-0.669	0.183	
15.415	-0.281	0.154	
15.420	1.050	0.104	
15.425	-0.492	0.121	
15.430	-0.729	0.076	
15.435	0.846	-0.011	
15.440	-0.037	-0.009	
15.445	-0.875	-0.011	
15.450	0.251	-0.081	
15.455	0.692	-0.085	
15.460	-0.787	-0.033	
15.465	-0.349	-0.058	
15.470	0.992	-0.082	
15.475	-0.492	-0.026	
15.480	-0.681	-0.025	
15.485	1.120	-0.054	
15.490	0.552	0.040	
15.495	-0.409	0.162	
15.500	1.393	0.244	
15.505	1.724	0.429	
15.510	-0.491	0.641	
15.515	-0.253	0.650	
15.520	0.774	0.524	
15.525	-0.712	0.392	
15.530	-0.942	0.182	
15.535	0.437	-0.055	
15.540	-0.197	-0.173	
15.545	-0.933	-0.241	
15.550	0.206	-0.315	
15.555	0.642	-0.288	
15.560	-0.787	-0.189	
15.565	-0.326	-0.164	
15.570	1.023	-0.140	
15.575	-0.491	-0.046	
15.580	-0.685	-0.021	
15.585	0.924	-0.048	
15.590	0.055	0.004	
15.595	-0.785	0.040	
15.600	0.459	0.002	
15.605	0.861	0.028	
15.610	-0.692	0.105	
15.615	-0.201	0.090	
15.620	1.287	0.075	
15.625	-0.366	0.146	
15.630	-0.555	0.154	
15.635	1.265	0.120	
15.640	0.341	0.188	
15.645	-0.619	0.248	
15.650	0.884	0.231	
15.655	1.303	0.293	
15.660	-0.465	0.409	
15.665	0.157	0.415	
15.670	1.672	0.412	
15.675	-0.194	0.487	
15.680	-0.395	0.475	
15.685	1.474	0.404	
15.690	0.408	0.431	
15.695	-0.668	0.440	
15.700	0.643	0.350	
15.705	0.907	0.311	
15.710	-0.732	0.315	
15.715	-0.306	0.218	
15.720	0.919	0.111	
15.725	-0.582	0.082	
15.730	-0.787	0.004	
15.735	0.666	-0.103	
15.740	-0.215	-0.122	
15.745	-0.965	-0.142	
15.750	0.101	-0.220	
15.755	0.370	-0.236	
15.760	-0.927	-0.204	
15.765	-0.441	-0.240	
15.770	0.742	-0.262	
15.775	-0.646	-0.206	
15.780	-0.805	-0.203	
15.785	0.669	-0.238	
15.790	-0.200	-0.195	
15.795	-0.933	-0.169	
15.800	0.192	-0.211	
15.805	0.524	-0.194	
15.810	-0.845	-0.132	
15.815	-0.348	-0.147	
15.820	0.851	-0.159	
15.825	-0.610	-0.101	
15.830	-0.764	-0.106	
15.835	0.747	-0.153	
15.840	-0.180	-0.123	
15.845	-0.907	-0.109	
15.850	0.302	-0.160	
15.855	0.572	-0.144	
15.860	-0.834	-0.081	
15.865	-0.314	-0.100	
15.870	0.979	-0.113	
15.875	-0.538	-0.048	
15.880	-0.651	-0.042	
15.885	1.009	-0.069	
15.890	-0.012	-0.007	
15.895	-0.785	0.034	
15.900	0.573	0.001	
15.905	0.843	0.040	
15.910	-0.707	0.124	
15.915	-0.162	0.108	
15.920	1.242	0.090	
15.925	-0.435	0.152	
15.930	-0.587	0.144	
15.935	1.107	0.091	
15.940	-0.026	0.122	
15.945	-0.811	0.126	
15.950	0.521	0.052	
15.955	0.748	0.052	
15.960	-0.758	0.100	
15.965	-0.224	0.060	
15.970	1.062	0.022	
15.975	-0.512	0.064	
15.980	-0.605	0.046	
15.985	1.117	0.001	
15.990	0.009	0.054	
15.995	-0.778	0.087	
16.000	0.648	0.046	
16.005	1.024	0.088	
16.010	-0.456	0.196	
16.015	0.671	0.249	
16.020	2.334	0.378	
16.025	0.261	0.630	
16.030	-0.226	0.759	
16.035	1.393	0.738	
16.040	-0.029	0.708	
16.045	-0.867	0.584	
16.050	0.351	0.350	
16.055	0.628	0.192	
16.060	-0.735	0.119	
16.065	-0.122	0.017	
16.070	1.291	-0.022	
16.075	-0.401	0.058	
16.080	-0.511	0.085	
16.085	1.274	0.076	
16.090	0.192	0.161	
16.095	-0.648	0.219	
16.100	0.800	0.193	
16.105	0.960	0.233	
16.110	-0.621	0.307	
16.115	0.030	0.275	
16.120	1.450	0.249	
16.125	-0.317	0.311	
16.130	-0.399	0.304	
16.135	1.486	0.261	
16.140	0.383	0.328	
16.145	-0.573	0.378	
16.150	1.084	0.348	
16.155	1.338	0.404	
16.160	-0.410	0.511	
16.165	0.495	0.517	
16.170	1.928	0.540	
16.175	-0.035	0.651	
16.180	-0.140	0.664	
16.185	2.002	0.626	
16.190	0.922	0.713	
16.195	-0.302	0.787	
16.200	1.564	0.765	
16.205	1.622	0.819	
16.210	-0.360	0.899	
16.215	0.462	0.836	
16.220	1.732	0.756	
16.225	-0.247	0.747	
16.230	-0.393	0.644	
16.235	1.329	0.488	
16.240	0.065	0.429	
16.245	-0.729	0.354	
16.250	0.639	0.217	
16.255	0.729	0.169	
16.260	-0.756	0.176	
16.265	-0.178	0.102	
16.270	1.032	0.044	
16.275	-0.567	0.067	
16.280	-0.633	0.033	
16.285	0.945	-0.031	
16.290	-0.149	-0.006	
16.295	-0.836	-0.001	
16.300	0.476	-0.060	
16.305	0.585	-0.046	
16.310	-0.796	0.009	
16.315	-0.191	-0.021	
16.320	1.059	-0.038	
16.325	-0.537	0.026	
16.330	-0.614	0.023	
16.335	1.001	-0.018	
16.340	-0.117	0.024	
16.345	-0.791	0.039	
16.350	0.561	-0.013	
16.355	0.642	0.008	
16.360	-0.756	0.068	
16.365	-0.165	0.036	
16.370	0.994	0.010	
16.375	-0.567	0.053	
16.380	-0.599	0.031	
16.385	1.050	-0.019	
16.390	-0.084	0.025	
16.395	-0.747	0.049	
16.400	0.697	0.011	
16.405	0.709	0.052	
16.410	-0.736	0.127	
16.415	-0.070	0.102	
16.420	1.238	0.087	
16.425	-0.447	0.154	
16.430	-0.502	0.152	
16.435	1.238	0.112	
16.440	0.059	0.166	
16.445	-0.668	0.194	
16.450	0.881	0.153	
16.455	0.945	0.199	
16.460	-0.630	0.284	
16.465	0.020	0.259	
16.470	1.288	0.232	
16.475	-0.441	0.275	
16.480	-0.497	0.241	
16.485	1.165	0.168	
16.490	-0.073	0.182	
16.495	-0.755	0.167	
16.500	0.657	0.087	
16.505	0.623	0.085	
16.510	-0.765	0.122	
16.515	-0.114	0.070	
16.520	1.143	0.038	
16.525	-0.511	0.092	
16.530	-0.541	0.083	
16.535	1.098	0.040	
16.540	-0.110	0.082	
16.545	-0.717	0.096	
16.550	0.974	0.058	
16.555	1.341	0.148	
16.560	-0.247	0.322	
16.565	1.123	0.439	
16.570	2.249	0.612	
16.575	-0.186	0.834	
16.580	-0.451	0.856	
16.585	0.851	0.697	
16.590	-0.372	0.531	
16.595	-0.968	0.312	
16.600	0.306	0.054	
16.605	0.364	-0.082	
16.610	-0.837	-0.125	
16.615	-0.148	-0.190	
16.620	1.046	-0.191	
16.625	-0.541	-0.092	
16.630	-0.529	-0.052	
16.635	1.134	-0.044	
16.640	-0.085	0.044	
16.645	-0.718	0.091	
16.650	0.794	0.063	
16.655	0.817	0.116	
16.660	-0.656	0.202	
16.665	0.125	0.190	
16.670	1.369	0.194	
16.675	-0.401	0.273	
16.680	-0.407	0.269	
16.685	1.409	0.227	
16.690	0.165	0.283	
16.695	-0.575	0.312	
16.700	1.125	0.275	
16.705	1.163	0.337	
16.710	-0.488	0.442	
16.715	0.561	0.447	
16.720	1.898	0.483	
16.725	-0.114	0.608	
16.730	-0.082	0.630	
16.735	2.012	0.605	
16.740	0.671	0.693	
16.745	-0.348	0.748	
16.750	1.511	0.705	
16.755	1.399	0.742	
16.760	-0.436	0.802	
16.765	0.424	0.727	
16.770	1.532	0.646	
16.775	-0.377	0.630	
16.780	-0.396	0.524	
16.785	1.299	0.381	
16.790	-0.081	0.338	
16.795	-0.758	0.272	
16.800	0.657	0.146	
16.805	0.543	0.108	
16.810	-0.791	0.113	
16.815	-0.108	0.042	
16.820	0.974	-0.003	
16.825	-0.628	0.032	
16.830	-0.602	0.002	
16.835	0.913	-0.055	
16.840	-0.258	-0.029	
16.845	-0.846	-0.031	
16.850	0.514	-0.093	
16.855	0.448	-0.077	
16.860	-0.810	-0.027	
16.865	-0.124	-0.058	
16.870	0.966	-0.066	
16.875	-0.599	-0.002	
16.880	-0.552	-0.006	
16.885	1.035	-0.038	
16.890	-0.209	0.014	
16.895	-0.791	0.029	
16.900	0.636	-0.023	
16.905	0.506	0.002	
16.910	-0.799	0.053	
16.915	-0.090	0.013	
16.920	1.041	-0.005	
16.925	-0.593	0.051	
16.930	-0.558	0.037	
16.935	1.011	-0.009	
16.940	-0.212	0.028	
16.945	-0.803	0.031	
16.950	0.611	-0.029	
16.955	0.527	-0.010	
16.960	-0.761	0.044	
16.965	-0.021	0.015	
16.970	1.114	0.012	
16.975	-0.521	0.087	
16.980	-0.457	0.089	
16.985	1.236	0.065	
16.990	-0.076	0.130	
16.995	-0.663	0.158	
17.000	0.927	0.120	
17.005	0.762	0.170	
17.010	-0.665	0.245	
17.015	0.155	0.218	
17.020	1.189	0.203	
17.025	-0.549	0.250	
17.030	-0.505	0.207	
17.035	1.058	0.125	
17.040	-0.227	0.126	
17.045	-0.778	0.095	
17.050	0.692	0.012	
17.055	0.529	0.021	
17.060	-0.768	0.067	
17.065	-0.034	0.029	
17.070	1.058	0.016	
17.075	-0.611	0.074	
17.080	-0.541	0.056	
17.085	1.005	0.005	
17.090	-0.180	0.039	
17.095	-0.624	0.049	
17.100	1.380	0.043	
17.105	1.550	0.202	
17.110	-0.223	0.439	
17.115	0.910	0.568	
17.120	1.562	0.672	
17.125	-0.590	0.758	
17.130	-0.697	0.646	
17.135	0.552	0.406	
17.140	-0.432	0.212	
17.145	-0.925	0.020	
17.150	0.448	-0.163	
17.155	0.300	-0.210	
17.160	-0.849	-0.185	
17.165	-0.081	-0.207	
17.170	1.026	-0.179	
17.175	-0.575	-0.068	
17.180	-0.459	-0.027	
17.185	1.154	-0.018	
17.190	-0.172	0.067	
17.195	-0.707	0.101	
17.200	0.866	0.066	
17.205	0.701	0.116	
17.210	-0.678	0.193	
17.215	0.207	0.174	
17.220	1.274	0.179	
17.225	-0.459	0.255	
17.230	-0.319	0.247	
17.235	1.473	0.215	
17.240	0.061	0.283	
17.245	-0.537	0.313	
17.250	1.250	0.281	
17.255	1.104	0.355	
17.260	-0.436	0.465	
17.265	0.799	0.481	
17.270	1.898	0.541	
17.275	-0.149	0.676	
17.280	-0.008	0.691	
17.285	1.945	0.653	
17.290	0.445	0.713	
17.295	-0.389	0.724	
17.300	1.439	0.647	
17.305	1.041	0.653	
17.310	-0.585	0.670	
17.315	0.303	0.563	
17.320	1.197	0.463	
17.325	-0.560	0.427	
17.330	-0.494	0.311	
17.335	0.944	0.169	
17.340	-0.331	0.117	
17.345	-0.851	0.043	
17.350	0.508	-0.071	
17.355	0.209	-0.097	
17.360	-0.903	-0.091	
17.365	-0.157	-0.152	
17.370	0.732	-0.176	
17.375	-0.747	-0.130	
17.380	-0.617	-0.147	
17.385	0.793	-0.183	
17.390	-0.369	-0.139	
17.395	-0.839	-0.128	
17.400	0.570	-0.167	
17.405	0.271	-0.129	
17.410	-0.848	-0.074	
17.415	-0.096	-0.104	
17.420	0.828	-0.109	
17.425	-0.697	-0.052	
17.430	-0.547	-0.065	
17.435	0.963	-0.098	
17.440	-0.299	-0.046	
17.445	-0.784	-0.032	
17.450	0.686	-0.073	
17.455	0.331	-0.037	
17.460	-0.842	0.010	
17.465	-0.056	-0.033	
17.470	0.886	-0.052	
17.475	-0.672	-0.003	
17.480	-0.528	-0.024	
17.485	0.973	-0.065	
17.490	-0.322	-0.022	
17.495	-0.791	-0.019	
17.500	0.663	-0.071	
17.505	0.328	-0.043	
17.510	-0.823	0.001	
17.515	0.001	-0.038	
17.520	0.991	-0.043	
17.525	-0.598	0.027	
17.530	-0.415	0.028	
17.535	1.157	0.010	
17.540	-0.232	0.077	
17.545	-0.681	0.096	
17.550	0.968	0.059	
17.555	0.604	0.115	
17.560	-0.701	0.190	
17.565	0.271	0.167	
17.570	1.192	0.173	
17.575	-0.543	0.241	
17.580	-0.386	0.217	
17.585	1.191	0.160	
17.590	-0.259	0.182	
17.595	-0.767	0.155	
17.600	0.700	0.063	
17.605	0.372	0.052	
17.610	-0.796	0.067	
17.615	0.068	0.009	
17.620	0.983	-0.006	
17.625	-0.637	0.052	
17.630	-0.462	0.036	
17.635	1.076	-0.001	
17.640	-0.299	0.046	
17.645	-0.761	0.047	
17.650	0.800	-0.008	
17.655	0.614	0.033	
17.660	-0.538	0.116	
17.665	1.003	0.161	
17.670	2.165	0.320	
17.675	-0.089	0.582	
17.680	-0.104	0.690	
17.685	1.238	0.659	
17.690	-0.438	0.612	
17.695	-0.994	0.446	
17.700	0.213	0.181	
17.705	-0.055	-0.012	
17.710	-0.941	-0.143	
17.715	-0.110	-0.276	
17.720	0.762	-0.308	
17.725	-0.706	-0.235	
17.730	-0.486	-0.208	
17.735	1.053	-0.185	
17.740	-0.294	-0.078	
17.745	-0.723	-0.023	
17.750	0.878	-0.032	
17.755	0.459	0.039	
17.760	-0.756	0.114	
17.765	0.235	0.093	
17.770	1.174	0.106	
17.775	-0.535	0.187	
17.780	-0.332	0.182	
17.785	1.338	0.152	
17.790	-0.174	0.210	
17.795	-0.619	0.216	
17.800	1.137	0.167	
17.805	0.761	0.223	
17.810	-0.567	0.306	
17.815	0.678	0.305	
17.820	1.610	0.358	
17.825	-0.335	0.483	
17.830	-0.084	0.495	
17.835	1.831	0.470	
17.840	0.270	0.549	
17.845	-0.351	0.580	
17.850	1.593	0.541	
17.855	1.059	0.602	
17.860	-0.486	0.670	
17.865	0.678	0.615	
17.870	1.412	0.580	
17.875	-0.491	0.594	
17.880	-0.322	0.497	
17.885	1.210	0.361	
17.890	-0.279	0.311	
17.895	-0.733	0.226	
17.900	0.751	0.096	
17.905	0.229	0.061	
17.910	-0.857	0.048	
17.915	-0.014	-0.036	
17.920	0.719	-0.078	
17.925	-0.781	-0.055	
17.930	-0.566	-0.098	
17.935	0.774	-0.154	
17.940	-0.467	-0.129	
17.945	-0.857	-0.140	
17.950	0.564	-0.194	
17.955	0.064	-0.169	
17.960	-0.910	-0.136	
17.965	-0.063	-0.178	
17.970	0.741	-0.180	
17.975	-0.743	-0.116	
17.980	-0.506	-0.121	
17.985	0.890	-0.141	
17.990	-0.427	-0.086	
17.995	-0.826	-0.079	
18.000	0.623	-0.129	
18.005	0.169	-0.102	
18.010	-0.848	-0.065	
18.015	0.041	-0.103	
18.020	0.852	-0.099	
18.025	-0.694	-0.030	
18.030	-0.456	-0.036	
18.035	1.005	-0.060	
18.040	-0.364	-0.006	
18.045	-0.752	-0.001	
18.050	0.785	-0.047	
18.055	0.276	-0.011	
18.060	-0.802	0.033	
18.065	0.189	-0.004	
18.070	0.951	0.003	
18.075	-0.646	0.073	
18.080	-0.364	0.061	
18.085	1.200	0.036	
18.090	-0.281	0.098	
18.095	-0.665	0.109	
18.100	0.998	0.066	
18.105	0.485	0.117	
18.110	-0.721	0.178	
18.115	0.329	0.146	
18.120	1.146	0.153	
18.125	-0.555	0.224	
18.130	-0.270	0.207	
18.135	1.332	0.171	
18.140	-0.256	0.221	
18.145	-0.669	0.211	
18.150	0.933	0.137	
18.155	0.364	0.147	
18.160	-0.765	0.167	
18.165	0.250	0.103	
18.170	0.992	0.086	
18.175	-0.639	0.136	
18.180	-0.378	0.104	
18.185	1.072	0.055	
18.190	-0.346	0.086	
18.195	-0.720	0.069	
18.200	0.815	0.004	
18.205	0.296	0.027	
18.210	-0.704	0.065	
18.215	0.691	0.053	
18.220	1.759	0.149	
18.225	-0.146	0.357	
18.230	0.328	0.475	
18.235	1.857	0.555	
18.240	-0.171	0.671	
18.245	-0.767	0.638	
18.250	0.456	0.447	
18.255	-0.110	0.272	
18.260	-0.950	0.103	
18.265	-0.005	-0.092	
18.270	0.814	-0.178	
18.275	-0.686	-0.144	
18.280	-0.396	-0.145	
18.285	1.094	-0.136	
18.290	-0.323	-0.039	
18.295	-0.653	0.007	
18.300	1.009	-0.001	
18.305	0.376	0.076	
18.310	-0.718	0.148	
18.315	0.434	0.127	
18.320	1.160	0.154	
18.325	-0.541	0.241	
18.330	-0.235	0.232	
18.335	1.398	0.203	
18.340	-0.183	0.260	
18.345	-0.540	0.264	
18.350	1.303	0.218	
18.355	0.761	0.286	
18.360	-0.563	0.371	
18.365	0.741	0.362	
18.370	1.514	0.403	
18.375	-0.348	0.506	
18.380	0.126	0.507	
18.385	1.965	0.501	
18.390	0.248	0.603	
18.395	-0.267	0.644	
18.400	1.834	0.616	
18.405	1.197	0.701	
18.410	-0.374	0.791	
18.415	1.053	0.759	
18.420	1.657	0.759	
18.425	-0.381	0.803	
18.430	-0.107	0.713	
18.435	1.509	0.579	
18.440	-0.192	0.532	
18.445	-0.599	0.435	
18.450	0.995	0.289	
18.455	0.288	0.241	
18.460	-0.787	0.209	
18.465	0.238	0.107	
18.470	0.867	0.062	
18.475	-0.700	0.088	
18.480	-0.406	0.041	
18.485	0.980	-0.014	
18.490	-0.421	0.013	
18.495	-0.744	-0.003	
18.500	0.814	-0.061	
18.505	0.130	-0.032	
18.510	-0.826	-0.000	
18.515	0.212	-0.045	
18.520	0.811	-0.040	
18.525	-0.707	0.022	
18.530	-0.361	0.004	
18.535	1.128	-0.020	
18.540	-0.364	0.043	
18.545	-0.688	0.052	
18.550	0.951	0.011	
18.555	0.315	0.059	
18.560	-0.756	0.110	
18.565	0.367	0.077	
18.570	0.974	0.090	
18.575	-0.640	0.157	
18.580	-0.317	0.132	
18.585	1.149	0.090	
18.590	-0.334	0.129	
18.595	-0.683	0.115	
18.600	0.918	0.050	
18.605	0.251	0.074	
18.610	-0.761	0.103	
18.615	0.392	0.057	
18.620	1.008	0.072	
18.625	-0.627	0.148	
18.630	-0.268	0.134	
18.635	1.302	0.109	
18.640	-0.271	0.172	
18.645	-0.579	0.179	
18.650	1.195	0.139	
18.655	0.472	0.199	
18.660	-0.663	0.260	
18.665	0.559	0.228	
18.670	1.136	0.244	
18.675	-0.575	0.311	
18.680	-0.217	0.276	
18.685	1.334	0.223	
18.690	-0.296	0.255	
18.695	-0.630	0.229	
18.700	1.017	0.149	
18.705	0.261	0.159	
18.710	-0.776	0.170	
18.715	0.348	0.100	
18.720	0.941	0.087	
18.725	-0.683	0.136	
18.730	-0.331	0.100	
18.735	1.159	0.055	
18.740	-0.390	0.097	
18.745	-0.689	0.085	
18.750	0.951	0.026	
18.755	0.305	0.062	
18.760	-0.634	0.111	
18.765	0.979	0.115	
18.770	1.886	0.244	
18.775	-0.145	0.475	
18.780	0.384	0.592	
18.785	1.691	0.647	
18.790	-0.313	0.714	
18.795	-0.790	0.628	
18.800	0.479	0.405	
18.805	-0.172	0.220	
18.810	-0.942	0.051	
18.815	0.117	-0.131	
18.820	0.748	-0.194	
18.825	-0.724	-0.149	
18.830	-0.320	-0.146	
18.835	1.189	-0.126	
18.840	-0.343	-0.013	
18.845	-0.631	0.038	
18.850	1.084	0.033	
18.855	0.370	0.112	
18.860	-0.698	0.182	
18.865	0.570	0.162	
18.870	1.174	0.197	
18.875	-0.558	0.286	
18.880	-0.163	0.273	
18.885	1.451	0.242	
18.890	-0.244	0.297	
18.895	-0.517	0.290	
18.900	1.370	0.237	
18.905	0.687	0.302	
18.910	-0.538	0.380	
18.915	0.910	0.372	
18.920	1.479	0.427	
18.925	-0.386	0.536	
18.930	0.177	0.531	
18.935	1.915	0.518	
18.940	0.123	0.606	
18.945	-0.261	0.625	
18.950	1.791	0.584	
18.955	0.992	0.655	
18.960	-0.438	0.723	
18.965	0.968	0.673	
18.970	1.386	0.657	
18.975	-0.500	0.678	
18.980	-0.142	0.574	
18.985	1.329	0.442	
18.990	-0.340	0.396	
18.995	-0.640	0.301	
19.000	0.948	0.167	
19.005	0.073	0.132	
19.010	-0.849	0.102	
19.015	0.169	0.001	
19.020	0.646	-0.043	
19.025	-0.814	-0.026	
19.030	-0.445	-0.079	
19.035	0.832	-0.131	
19.040	-0.550	-0.101	
19.045	-0.791	-0.117	
19.050	0.695	-0.169	
19.055	-0.075	-0.140	
19.060	-0.887	-0.115	
19.065	0.140	-0.161	
19.070	0.628	-0.152	
19.075	-0.802	-0.093	
19.080	-0.395	-0.110	
19.085	0.953	-0.127	
19.090	-0.485	-0.065	
19.095	-0.727	-0.057	
19.100	0.864	-0.092	
19.105	-0.008	-0.046	
19.110	-0.860	-0.016	
19.115	0.227	-0.067	
19.120	0.710	-0.066	
19.125	-0.767	-0.013	
19.130	-0.354	-0.038	
19.135	1.011	-0.065	
19.140	-0.471	-0.011	
19.145	-0.704	-0.012	
19.150	0.908	-0.055	
19.155	0.096	-0.010	
19.160	-0.793	0.028	
19.165	0.369	-0.010	
19.170	0.848	0.009	
19.175	-0.697	0.080	
19.180	-0.273	0.063	
19.185	1.154	0.038	
19.190	-0.386	0.095	
19.195	-0.602	0.096	
19.200	1.069	0.054	
19.205	0.232	0.105	
19.210	-0.723	0.148	
19.215	0.604	0.114	
19.220	1.041	0.146	
19.225	-0.622	0.231	
19.230	-0.200	0.211	
19.235	1.270	0.174	
19.240	-0.357	0.215	
19.245	-0.611	0.193	
19.250	1.030	0.121	
19.255	0.142	0.137	
19.260	-0.773	0.144	
19.265	0.402	0.075	
19.270	0.823	0.067	
19.275	-0.710	0.112	
19.280	-0.273	0.073	
19.285	1.149	0.036	
19.290	-0.425	0.085	
19.295	-0.685	0.075	
19.300	0.908	0.016	
19.305	0.090	0.040	
19.310	-0.712	0.062	
19.315	0.861	0.039	
19.320	1.678	0.145	
19.325	-0.137	0.359	
19.330	0.750	0.497	
19.335	2.029	0.630	
19.340	-0.203	0.791	
19.345	-0.642	0.770	
19.350	0.646	0.579	
19.355	-0.213	0.398	
19.360	-0.953	0.202	
19.365	0.166	-0.022	
19.370	0.681	-0.125	
19.375	-0.752	-0.117	
19.380	-0.313	-0.144	
19.385	1.043	-0.146	
19.390	-0.438	-0.058	
19.395	-0.643	-0.026	
19.400	1.011	-0.039	
19.405	0.165	0.033	
19.410	-0.744	0.090	
19.415	0.534	0.065	
19.420	0.950	0.099	
19.425	-0.634	0.181	
19.430	-0.174	0.165	
19.435	1.348	0.143	
19.440	-0.310	0.208	
19.445	-0.509	0.212	
19.450	1.308	0.174	
19.455	0.444	0.241	
19.460	-0.582	0.303	
19.465	0.947	0.289	
19.470	1.412	0.354	
19.475	-0.441	0.474	
19.480	0.212	0.480	
19.485	1.819	0.477	
19.490	-0.032	0.564	
19.495	-0.238	0.573	
19.500	1.845	0.533	
19.505	0.889	0.615	
19.510	-0.415	0.690	
19.515	1.188	0.657	
19.520	1.486	0.679	
19.525	-0.441	0.736	
19.530	0.040	0.658	
19.535	1.425	0.547	
19.540	-0.348	0.509	
19.545	-0.590	0.403	
19.550	1.018	0.253	
19.555	0.033	0.201	
19.560	-0.832	0.150	
19.565	0.302	0.036	
19.570	0.639	-0.008	
19.575	-0.788	0.008	
19.580	-0.354	-0.045	
19.585	0.866	-0.092	
19.590	-0.575	-0.061	
19.595	-0.758	-0.082	
19.600	0.790	-0.138	
19.605	-0.090	-0.106	
19.610	-0.855	-0.082	
19.615	0.291	-0.125	
19.620	0.623	-0.107	
19.625	-0.807	-0.044	
19.630	-0.331	-0.066	
19.635	0.969	-0.088	
19.640	-0.523	-0.032	
19.645	-0.695	-0.035	
19.650	0.870	-0.077	
19.655	-0.029	-0.037	
19.660	-0.808	-0.010	
19.665	0.363	-0.055	
19.670	0.677	-0.039	
19.675	-0.762	0.020	
19.680	-0.296	-0.007	
19.685	0.998	-0.036	
19.690	-0.506	0.012	
19.695	-0.662	0.002	
19.700	0.968	-0.043	
19.705	0.012	0.002	
19.710	-0.807	0.032	
19.715	0.413	-0.013	
19.720	0.773	0.003	
19.725	-0.710	0.068	
19.730	-0.227	0.047	
19.735	1.107	0.026	
19.740	-0.438	0.082	
19.745	-0.582	0.078	
19.750	1.099	0.039	
19.755	0.119	0.092	
19.760	-0.724	0.130	
19.765	0.601	0.091	
19.770	0.880	0.117	
19.775	-0.666	0.187	
19.780	-0.153	0.159	
19.785	1.261	0.129	
19.790	-0.370	0.183	
19.795	-0.524	0.175	
19.800	1.215	0.130	
19.805	0.242	0.183	
19.810	-0.681	0.222	
19.815	0.648	0.178	
19.820	0.878	0.193	
19.825	-0.683	0.244	
19.830	-0.188	0.193	
19.835	1.146	0.136	
19.840	-0.460	0.159	
19.845	-0.621	0.123	
19.850	1.000	0.050	
19.855	0.017	0.069	
19.860	-0.788	0.077	
19.865	0.489	0.018	
19.870	0.764	0.029	
19.875	-0.756	0.087	
19.880	-0.241	0.054	
19.885	1.242	0.028	
19.890	-0.232	0.103	
19.895	-0.177	0.149	
19.900	2.221	0.219	
19.905	1.224	0.466	
19.910	-0.351	0.701	
19.915	0.934	0.755	
19.920	0.722	0.745	
19.925	-0.892	0.671	
19.930	-0.430	0.442	
19.935	0.747	0.202	
19.940	-0.602	0.068	
19.945	-0.707	-0.065	
19.950	0.852	-0.171	
19.955	-0.095	-0.151	
19.960	-0.817	-0.120	
19.965	0.413	-0.143	
19.970	0.700	-0.096	
19.975	-0.732	-0.005	
19.980	-0.200	-0.004	
19.985	1.127	-0.003	
19.990	-0.444	0.073	
19.995	-0.555	0.082	
20.000	1.134	0.052	
20.005	0.113	0.112	
20.010	-0.697	0.151	
20.015	0.751	0.118	
20.020	1.046	0.166	
20.025	-0.585	0.263	
20.030	0.018	0.257	
20.035	1.477	0.249	
20.040	-0.264	0.325	
20.045	-0.358	0.329	
20.050	1.640	0.301	
20.055	0.657	0.397	
20.060	-0.425	0.487	
20.065	1.348	0.495	
20.070	1.605	0.586	
20.075	-0.320	0.719	
20.080	0.462	0.717	
20.085	1.848	0.697	
20.090	-0.120	0.744	
20.095	-0.319	0.690	
20.100	1.471	0.569	
20.105	0.314	0.540	
20.110	-0.637	0.493	
20.115	0.716	0.368	
20.120	0.800	0.312	
20.125	-0.741	0.300	
20.130	-0.255	0.195	
20.135	0.948	0.094	
20.140	-0.582	0.075	
20.145	-0.732	0.009	
20.150	0.718	-0.087	
20.155	-0.218	-0.096	
20.160	-0.930	-0.112	
20.165	0.238	-0.184	
20.170	0.492	-0.184	
20.175	-0.834	-0.132	
20.180	-0.313	-0.151	
20.185	0.870	-0.159	
20.190	-0.587	-0.095	
20.195	-0.703	-0.093	
20.200	0.774	-0.130	
20.205	-0.178	-0.094	
20.210	-0.861	-0.079	
20.215	0.354	-0.129	
20.220	0.561	-0.111	
20.225	-0.800	-0.050	
20.230	-0.255	-0.071	
20.235	0.989	-0.083	
20.240	-0.538	-0.019	
20.245	-0.640	-0.017	
20.250	0.980	-0.052	
20.255	-0.087	-0.003	
20.260	-0.796	0.023	
20.265	0.515	-0.023	
20.270	0.719	0.003	
20.275	-0.752	0.071	
20.280	-0.230	0.044	
20.285	1.014	0.014	
20.290	-0.532	0.055	
20.295	-0.642	0.033	
20.300	0.931	-0.025	
20.305	-0.098	0.003	
20.310	-0.820	0.013	
20.315	0.476	-0.043	
20.320	0.706	-0.024	
20.325	-0.747	0.042	
20.330	-0.188	0.022	
20.335	1.091	0.007	
20.340	-0.500	0.067	
20.345	-0.604	0.060	
20.350	1.023	0.015	
20.355	-0.044	0.054	
20.360	-0.762	0.071	
20.365	0.605	0.022	
20.370	0.777	0.050	
20.375	-0.707	0.122	
20.380	-0.149	0.098	
20.385	1.162	0.076	
20.390	-0.477	0.129	
20.395	-0.573	0.114	
20.400	1.110	0.062	
20.405	0.021	0.102	
20.410	-0.723	0.123	
20.415	0.709	0.077	
20.420	0.892	0.114	
20.425	-0.634	0.196	
20.430	0.014	0.184	
20.435	1.399	0.181	
20.440	-0.381	0.258	
20.445	-0.479	0.255	
20.450	1.294	0.205	
20.455	0.128	0.246	
20.460	-0.698	0.260	
20.465	0.745	0.194	
20.470	0.849	0.202	
20.475	-0.697	0.249	
20.480	-0.128	0.195	
20.485	1.155	0.142	
20.490	-0.491	0.168	
20.495	-0.578	0.131	
20.500	1.059	0.061	
20.505	-0.031	0.086	
20.510	-0.762	0.093	
20.515	0.599	0.035	
20.520	0.649	0.050	
20.525	-0.761	0.101	
20.530	-0.101	0.062	
20.535	1.520	0.057	
20.540	-0.110	0.175	
20.545	0.000	0.261	
20.550	2.192	0.351	
20.555	0.782	0.569	
20.560	-0.582	0.717	
20.565	0.529	0.665	
20.570	0.293	0.552	
20.575	-0.954	0.402	
20.580	-0.367	0.162	
20.585	0.809	-0.026	
20.590	-0.614	-0.084	
20.595	-0.662	-0.147	
20.600	0.907	-0.199	
20.605	-0.146	-0.141	
20.610	-0.832	-0.097	
20.615	0.480	-0.118	
20.620	0.622	-0.073	
20.625	-0.750	0.008	
20.630	-0.153	-0.001	
20.635	1.113	-0.003	
20.640	-0.480	0.070	
20.645	-0.523	0.076	
20.650	1.227	0.051	
20.655	0.093	0.123	
20.660	-0.668	0.170	
20.665	0.872	0.144	
20.670	1.026	0.202	
20.675	-0.590	0.301	
20.680	0.123	0.293	
20.685	1.534	0.289	
20.690	-0.252	0.370	
20.695	-0.290	0.376	
20.700	1.688	0.348	
20.705	0.610	0.441	
20.710	-0.369	0.523	
20.715	1.502	0.530	
20.720	1.602	0.631	
20.725	-0.293	0.768	
20.730	0.671	0.771	
20.735	1.902	0.767	
20.740	-0.133	0.823	
20.745	-0.244	0.764	
20.750	1.579	0.638	
20.755	0.305	0.606	
20.760	-0.611	0.552	
20.765	0.863	0.421	
20.770	0.800	0.367	
20.775	-0.730	0.353	
20.780	-0.143	0.244	
20.785	0.991	0.144	
20.790	-0.579	0.126	
20.795	-0.643	0.057	
20.800	0.893	-0.033	
20.805	-0.188	-0.027	
20.810	-0.855	-0.034	
20.815	0.422	-0.100	
20.820	0.472	-0.092	
20.825	-0.843	-0.047	
20.830	-0.252	-0.084	
20.835	0.866	-0.109	
20.840	-0.625	-0.062	
20.845	-0.660	-0.075	
20.850	0.844	-0.119	
20.855	-0.206	-0.080	
20.860	-0.839	-0.065	
20.865	0.408	-0.114	
20.870	0.471	-0.096	
20.875	-0.808	-0.045	
20.880	-0.186	-0.072	
20.885	0.989	-0.082	
20.890	-0.560	-0.014	
20.895	-0.611	-0.013	
20.900	0.930	-0.049	
20.905	-0.169	-0.008	
20.910	-0.814	0.003	
20.915	0.515	-0.051	
20.920	0.564	-0.032	
20.925	-0.794	0.022	
20.930	-0.177	-0.011	
20.935	1.006	-0.031	
20.940	-0.582	0.022	
20.945	-0.602	0.009	
20.950	1.006	-0.035	
20.955	-0.137	0.009	
20.960	-0.807	0.025	
20.965	0.562	-0.026	
20.970	0.637	-0.003	
20.975	-0.761	0.059	
20.980	-0.178	0.030	
20.985	0.976	0.003	
20.990	-0.564	0.045	
20.995	-0.579	0.024	
21.000	1.062	-0.022	
21.005	-0.093	0.027	
21.010	-0.759	0.051	
21.015	0.639	0.009	
21.020	0.684	0.042	
21.025	-0.743	0.109	
21.030	-0.110	0.080	
21.035	1.088	0.056	
21.040	-0.524	0.106	
21.045	-0.543	0.087	
21.050	1.098	0.038	
21.055	-0.076	0.080	
21.060	-0.743	0.095	
21.065	0.716	0.046	
21.070	0.753	0.080	
21.075	-0.712	0.152	
21.080	-0.078	0.124	
21.085	1.143	0.101	
21.090	-0.499	0.149	
21.095	-0.520	0.128	
21.100	1.149	0.077	
21.105	-0.061	0.116	
21.110	-0.717	0.129	
21.115	0.747	0.076	
21.120	0.791	0.109	
21.125	-0.666	0.182	
21.130	0.033	0.160	
21.135	1.309	0.153	
21.140	-0.439	0.223	
21.145	-0.470	0.215	
21.150	1.276	0.166	
21.155	0.030	0.209	
21.160	-0.674	0.222	
21.165	0.843	0.166	
21.170	0.881	0.195	
21.175	-0.653	0.263	
21.180	0.017	0.229	
21.185	1.200	0.197	
21.190	-0.492	0.234	
21.195	-0.502	0.195	
21.200	1.157	0.125	
21.205	-0.067	0.148	
21.210	-0.738	0.145	
21.215	0.710	0.078	
21.220	0.739	0.097	
21.225	-0.720	0.156	
21.230	-0.066	0.121	
21.235	1.117	0.093	
21.240	-0.529	0.139	
21.245	-0.491	0.115	
21.250	1.445	0.079	
21.255	0.575	0.184	
21.260	-0.207	0.312	
21.265	1.883	0.412	
21.270	1.605	0.623	
21.275	-0.502	0.823	
21.280	-0.076	0.794	
21.285	0.722	0.637	
21.290	-0.782	0.469	
21.295	-0.779	0.225	
21.300	0.666	-0.014	
21.305	-0.282	-0.116	
21.310	-0.832	-0.179	
21.315	0.602	-0.239	
21.320	0.611	-0.179	
21.325	-0.753	-0.067	
21.330	-0.069	-0.044	
21.335	1.120	-0.014	
21.340	-0.523	0.079	
21.345	-0.508	0.091	
21.350	1.148	0.062	
21.355	-0.066	0.115	
21.360	-0.681	0.136	
21.365	0.875	0.095	
21.370	0.880	0.148	
21.375	-0.639	0.238	
21.380	0.161	0.228	
21.385	1.413	0.231	
21.390	-0.361	0.312	
21.395	-0.337	0.310	
21.400	1.531	0.275	
21.405	0.300	0.346	
21.410	-0.483	0.393	
21.415	1.340	0.375	
21.420	1.351	0.461	
21.425	-0.387	0.586	
21.430	0.668	0.597	
21.435	1.869	0.622	
21.440	-0.157	0.716	
21.445	-0.159	0.694	
21.450	1.774	0.615	
21.455	0.433	0.639	
21.460	-0.499	0.632	
21.465	1.136	0.538	
21.470	0.956	0.519	
21.475	-0.643	0.524	
21.480	0.044	0.417	
21.485	1.117	0.313	
21.490	-0.558	0.284	
21.495	-0.566	0.191	
21.500	0.937	0.075	
21.505	-0.259	0.053	
21.510	-0.864	0.012	
21.515	0.402	-0.084	
21.520	0.311	-0.104	
21.525	-0.889	-0.088	
21.530	-0.241	-0.143	
21.535	0.802	-0.170	
21.540	-0.665	-0.120	
21.545	-0.651	-0.127	
21.550	0.811	-0.161	
21.555	-0.290	-0.116	
21.560	-0.874	-0.102	
21.565	0.416	-0.152	
21.570	0.363	-0.133	
21.575	-0.848	-0.086	
21.580	-0.171	-0.116	
21.585	0.927	-0.122	
21.590	-0.619	-0.053	
21.595	-0.570	-0.050	
21.600	1.027	-0.073	
21.605	-0.186	-0.011	
21.610	-0.781	0.016	
21.615	0.627	-0.026	
21.620	0.521	0.004	
21.625	-0.784	0.059	
21.630	-0.099	0.023	
21.635	0.992	0.001	
21.640	-0.613	0.049	
21.645	-0.575	0.026	
21.650	1.027	-0.024	
21.655	-0.194	0.015	
21.660	-0.791	0.025	
21.665	0.614	-0.029	
21.670	0.552	-0.004	
21.675	-0.756	0.053	
21.680	-0.082	0.023	
21.685	1.026	0.009	
21.690	-0.570	0.065	
21.695	-0.541	0.050	
21.700	1.059	0.006	
21.705	-0.160	0.049	
21.710	-0.735	0.061	
21.715	0.735	0.014	
21.720	0.569	0.049	
21.725	-0.764	0.108	
21.730	-0.046	0.071	
21.735	1.061	0.049	
21.740	-0.572	0.098	
21.745	-0.534	0.076	
21.750	1.075	0.025	
21.755	-0.165	0.062	
21.760	-0.747	0.069	
21.765	0.768	0.019	
21.770	0.684	0.058	
21.775	-0.712	0.133	
21.780	0.035	0.112	
21.785	1.172	0.106	
21.790	-0.496	0.170	
21.795	-0.439	0.159	
21.800	1.223	0.117	
21.805	-0.082	0.163	
21.810	-0.665	0.174	
21.815	0.912	0.124	
21.820	0.765	0.166	
21.825	-0.669	0.237	
21.830	0.140	0.209	
21.835	1.233	0.195	
21.840	-0.512	0.249	
21.845	-0.489	0.217	
21.850	1.081	0.142	
21.855	-0.186	0.147	
21.860	-0.770	0.120	
21.865	0.677	0.036	
21.870	0.505	0.038	
21.875	-0.791	0.074	
21.880	-0.093	0.023	
21.885	0.974	-0.006	
21.890	-0.598	0.039	
21.895	-0.537	0.019	
21.900	1.069	-0.022	
21.905	-0.114	0.030	
21.910	-0.578	0.062	
21.915	1.434	0.074	
21.920	1.579	0.245	
21.925	-0.281	0.483	
21.930	0.719	0.591	
21.935	1.457	0.655	
21.940	-0.598	0.706	
21.945	-0.710	0.580	
21.950	0.562	0.344	
21.955	-0.409	0.165	
21.960	-0.913	-0.008	
21.965	0.460	-0.173	
21.970	0.380	-0.205	
21.975	-0.807	-0.163	
21.980	-0.079	-0.173	
21.985	1.038	-0.143	
21.990	-0.560	-0.035	
21.995	-0.476	-0.002	
22.000	1.184	0.000	
22.005	-0.114	0.083	
22.010	-0.665	0.122	
22.015	0.925	0.095	
22.020	0.797	0.155	
22.025	-0.613	0.244	
22.030	0.334	0.239	
22.035	1.401	0.259	
22.040	-0.377	0.349	
22.045	-0.285	0.345	
22.050	1.550	0.307	
22.055	0.209	0.372	
22.060	-0.470	0.404	
22.065	1.390	0.376	
22.070	1.252	0.457	
22.075	-0.389	0.574	
22.080	0.822	0.586	
22.085	1.953	0.631	
22.090	-0.081	0.751	
22.095	0.094	0.759	
22.100	2.127	0.726	
22.105	0.721	0.809	
22.110	-0.273	0.853	
22.115	1.616	0.800	
22.120	1.325	0.824	
22.125	-0.459	0.859	
22.130	0.477	0.759	
22.135	1.448	0.659	
22.140	-0.424	0.624	
22.145	-0.412	0.501	
22.150	1.163	0.344	
22.155	-0.178	0.283	
22.160	-0.738	0.204	
22.165	0.678	0.083	
22.170	0.465	0.058	
22.175	-0.790	0.072	
22.180	-0.067	0.012	
22.185	0.915	-0.021	
22.190	-0.630	0.020	
22.195	-0.537	-0.005	
22.200	0.977	-0.050	
22.205	-0.250	-0.009	
22.210	-0.776	-0.001	
22.215	0.657	-0.049	
22.220	0.454	-0.019	
22.225	-0.785	0.036	
22.230	-0.047	0.003	
22.235	0.998	-0.009	
22.240	-0.584	0.050	
22.245	-0.492	0.039	
22.250	1.090	0.005	
22.255	-0.168	0.057	
22.260	-0.735	0.073	
22.265	0.727	0.025	
22.270	0.538	0.055	
22.275	-0.770	0.107	
22.280	-0.024	0.066	
22.285	1.053	0.044	
22.290	-0.550	0.096	
22.295	-0.460	0.080	
22.300	1.137	0.042	
22.305	-0.162	0.092	
22.310	-0.714	0.104	
22.315	0.747	0.052	
22.320	0.556	0.079	
22.325	-0.724	0.129	
22.330	0.068	0.093	
22.335	1.075	0.080	
22.340	-0.566	0.135	
22.345	-0.462	0.113	
22.350	1.169	0.067	
22.355	-0.163	0.111	
22.360	-0.703	0.118	
22.365	0.790	0.064	
22.370	0.523	0.090	
22.375	-0.730	0.138	
22.380	0.065	0.095	
22.385	1.038	0.077	
22.390	-0.575	0.126	
22.395	-0.447	0.101	
22.400	1.219	0.059	
22.405	-0.107	0.114	
22.410	-0.651	0.137	
22.415	0.947	0.101	
22.420	0.748	0.157	
22.425	-0.639	0.239	
22.430	0.287	0.224	
22.435	1.323	0.233	
22.440	-0.456	0.309	
22.445	-0.358	0.292	
22.450	1.320	0.236	
22.455	-0.108	0.266	
22.460	-0.680	0.251	
22.465	0.832	0.168	
22.470	0.547	0.167	
22.475	-0.758	0.189	
22.480	-0.031	0.119	
22.485	0.971	0.070	
22.490	-0.604	0.093	
22.495	-0.494	0.054	
22.500	1.056	-0.000	
22.505	-0.223	0.038	
22.510	-0.733	0.044	
22.515	0.694	-0.007	
22.520	0.465	0.020	
22.525	-0.744	0.071	
22.530	0.250	0.047	
22.535	1.620	0.090	
22.540	-0.081	0.252	
22.545	0.322	0.367	
22.550	2.169	0.482	
22.555	0.367	0.682	
22.560	-0.604	0.760	
22.565	0.570	0.646	
22.570	0.062	0.498	
22.575	-0.956	0.322	
22.580	-0.185	0.082	
22.585	0.823	-0.075	
22.590	-0.665	-0.101	
22.595	-0.540	-0.144	
22.600	1.015	-0.172	
22.605	-0.229	-0.096	
22.610	-0.727	-0.048	
22.615	0.790	-0.057	
22.620	0.537	0.013	
22.625	-0.747	0.096	
22.630	0.052	0.078	
22.635	1.102	0.076	
22.640	-0.541	0.140	
22.645	-0.406	0.128	
22.650	1.201	0.091	
22.655	-0.154	0.141	
22.660	-0.653	0.151	
22.665	0.974	0.106	
22.670	0.724	0.157	
22.675	-0.614	0.237	
22.680	0.413	0.228	
22.685	1.448	0.258	
22.690	-0.374	0.361	
22.695	-0.213	0.367	
22.700	1.694	0.344	
22.705	0.332	0.431	
22.710	-0.378	0.485	
22.715	1.531	0.474	
22.720	1.305	0.564	
22.725	-0.355	0.680	
22.730	0.844	0.677	
22.735	1.739	0.693	
22.740	-0.268	0.760	
22.745	-0.169	0.700	
22.750	1.491	0.582	
22.755	-0.072	0.543	
22.760	-0.646	0.456	
22.765	0.844	0.305	
22.770	0.433	0.243	
22.775	-0.819	0.208	
22.780	-0.117	0.092	
22.785	0.739	0.003	
22.790	-0.735	-0.012	
22.795	-0.625	-0.080	
22.800	0.684	-0.159	
22.805	-0.409	-0.152	
22.810	-0.875	-0.168	
22.815	0.421	-0.225	
22.820	0.113	-0.207	
22.825	-0.910	-0.173	
22.830	-0.191	-0.212	
22.835	0.657	-0.221	
22.840	-0.759	-0.168	
22.845	-0.613	-0.179	
22.850	0.796	-0.206	
22.855	-0.378	-0.154	
22.860	-0.848	-0.137	
22.865	0.498	-0.176	
22.870	0.203	-0.147	
22.875	-0.892	-0.104	
22.880	-0.145	-0.144	
22.885	0.782	-0.155	
22.890	-0.710	-0.100	
22.895	-0.560	-0.109	
22.900	0.905	-0.136	
22.905	-0.331	-0.082	
22.910	-0.822	-0.067	
22.915	0.588	-0.111	
22.920	0.308	-0.082	
22.925	-0.829	-0.035	
22.930	-0.055	-0.070	
22.935	0.849	-0.079	
22.940	-0.669	-0.024	
22.945	-0.512	-0.038	
22.950	1.009	-0.070	
22.955	-0.270	-0.016	
22.960	-0.755	0.001	
22.965	0.719	-0.040	
22.970	0.407	-0.003	
22.975	-0.796	0.050	
22.980	0.017	0.013	
22.985	0.950	0.001	
22.990	-0.625	0.055	
22.995	-0.485	0.035	
23.000	1.011	-0.009	
23.005	-0.285	0.029	
23.010	-0.755	0.028	
23.015	0.790	-0.024	
23.020	0.505	0.016	
23.025	-0.741	0.082	
23.030	0.142	0.060	
23.035	1.093	0.068	
23.040	-0.550	0.141	
23.045	-0.377	0.133	
23.050	1.287	0.104	
23.055	-0.143	0.165	
23.060	-0.642	0.181	
23.065	0.956	0.134	
23.070	0.590	0.172	
23.075	-0.739	0.223	
23.080	0.096	0.171	
23.085	0.960	0.132	
23.090	-0.656	0.152	
23.095	-0.508	0.094	
23.100	0.982	0.016	
23.105	-0.319	0.027	
23.110	-0.790	0.007	
23.115	0.646	-0.062	
23.120	0.319	-0.046	
23.125	-0.799	-0.008	
23.130	0.043	-0.045	
23.135	0.898	-0.046	
23.140	-0.659	0.016	
23.145	-0.462	0.003	
23.150	1.209	-0.021	
23.155	0.050	0.063	
23.160	-0.296	0.140	
23.165	1.931	0.216	
23.170	1.503	0.447	
23.175	-0.441	0.686	
23.180	0.276	0.718	
23.185	0.713	0.640	
23.190	-0.854	0.522	
23.195	-0.710	0.289	
23.200	0.611	0.045	
23.205	-0.448	-0.081	
23.210	-0.861	-0.181	
23.215	0.575	-0.270	
23.220	0.283	-0.238	
23.225	-0.799	-0.162	
23.230	0.084	-0.152	
23.235	0.957	-0.104	
23.240	-0.625	0.002	
23.245	-0.444	0.020	
23.250	1.093	0.006	
23.255	-0.239	0.067	
23.260	-0.685	0.082	
23.265	0.925	0.042	
23.270	0.541	0.094	
23.275	-0.704	0.162	
23.280	0.276	0.138	
23.285	1.194	0.149	
23.290	-0.494	0.227	
23.295	-0.285	0.220	
23.300	1.450	0.193	
23.305	-0.006	0.265	
23.310	-0.502	0.295	
23.315	1.334	0.270	
23.320	1.059	0.356	
23.325	-0.424	0.473	
23.330	0.907	0.495	
23.335	1.861	0.564	
23.340	-0.166	0.700	
23.345	0.126	0.714	
23.350	1.966	0.684	
23.355	0.358	0.747	
23.360	-0.395	0.745	
23.365	1.409	0.652	
23.370	0.899	0.639	
23.375	-0.601	0.635	
23.380	0.381	0.520	
23.385	1.139	0.427	
23.390	-0.589	0.398	
23.395	-0.454	0.288	
23.400	0.939	0.154	
23.405	-0.369	0.109	
23.410	-0.810	0.039	
23.415	0.605	-0.067	
23.420	0.172	-0.080	
23.425	-0.866	-0.068	
23.430	-0.075	-0.125	
23.435	0.758	-0.142	
23.440	-0.721	-0.091	
23.445	-0.523	-0.105	
23.450	0.898	-0.132	
23.455	-0.367	-0.080	
23.460	-0.796	-0.068	
23.465	0.646	-0.111	
23.470	0.255	-0.076	
23.475	-0.820	-0.030	
23.480	0.012	-0.065	
23.485	0.867	-0.067	
23.490	-0.653	-0.005	
23.495	-0.442	-0.014	
23.500	1.055	-0.038	
23.505	-0.303	0.020	
23.510	-0.723	0.032	
23.515	0.809	-0.011	
23.520	0.373	0.028	
23.525	-0.773	0.078	
23.530	0.107	0.040	
23.535	0.960	0.032	
23.540	-0.619	0.087	
23.545	-0.416	0.066	
23.550	1.087	0.027	
23.555	-0.279	0.071	
23.560	-0.709	0.071	
23.565	0.852	0.019	
23.570	0.421	0.055	
23.575	-0.738	0.107	
23.580	0.236	0.075	
23.585	1.105	0.084	
23.590	-0.584	0.159	
23.595	-0.377	0.146	
23.600	1.204	0.107	
23.605	-0.239	0.150	
23.610	-0.671	0.147	
23.615	0.950	0.089	
23.620	0.492	0.123	
23.625	-0.717	0.173	
23.630	0.277	0.136	
23.635	1.079	0.134	
23.640	-0.566	0.195	
23.645	-0.310	0.172	
23.650	1.317	0.136	
23.655	-0.185	0.191	
23.660	-0.596	0.199	
23.665	1.122	0.155	
23.670	0.645	0.210	
23.675	-0.643	0.280	
23.680	0.413	0.252	
23.685	1.239	0.258	
23.690	-0.496	0.323	
23.695	-0.277	0.295	
23.700	1.369	0.241	
23.705	-0.175	0.275	
23.710	-0.624	0.260	
23.715	1.014	0.185	
23.720	0.521	0.203	
23.725	-0.706	0.237	
23.730	0.276	0.181	
23.735	1.050	0.162	
23.740	-0.607	0.204	
23.745	-0.377	0.162	
23.750	1.206	0.105	
23.755	-0.259	0.139	
23.760	-0.689	0.130	
23.765	0.880	0.067	
23.770	0.395	0.091	
23.775	-0.755	0.128	
23.780	0.271	0.084	
23.785	1.316	0.098	
23.790	-0.285	0.207	
23.795	0.419	0.276	
23.800	2.393	0.395	
23.805	0.562	0.647	
23.810	-0.433	0.794	
23.815	0.974	0.750	
23.820	0.072	0.664	
23.825	-0.993	0.504	
23.830	-0.188	0.236	
23.835	0.596	0.025	
23.840	-0.762	-0.072	
23.845	-0.502	-0.173	
23.850	0.982	-0.227	
23.855	-0.337	-0.159	
23.860	-0.738	-0.117	
23.865	0.829	-0.120	
23.870	0.389	-0.038	
23.875	-0.755	0.048	
23.880	0.194	0.039	
23.885	1.023	0.057	
23.890	-0.605	0.131	
23.895	-0.355	0.118	
23.900	1.258	0.087	
23.905	-0.201	0.147	
23.910	-0.601	0.160	
23.915	1.093	0.123	
23.920	0.617	0.184	
23.925	-0.619	0.259	
23.930	0.534	0.244	
23.935	1.345	0.274	
23.940	-0.419	0.368	
23.945	-0.102	0.365	
23.950	1.758	0.348	
23.955	0.197	0.442	
23.960	-0.319	0.491	
23.965	1.724	0.484	
23.970	1.250	0.593	
23.975	-0.348	0.716	
23.980	1.053	0.719	
23.985	1.745	0.749	
23.990	-0.288	0.822	
23.995	-0.020	0.759	
24.000	1.681	0.651	
24.005	-0.038	0.630	
24.010	-0.528	0.553	
24.015	1.091	0.413	
24.020	0.448	0.365	
24.025	-0.773	0.330	
24.030	0.081	0.205	
24.035	0.815	0.115	
24.040	-0.710	0.096	
24.045	-0.473	0.019	
24.050	0.907	-0.057	
24.055	-0.415	-0.041	
24.060	-0.813	-0.059	
24.065	0.581	-0.125	
24.070	0.027	-0.117	
24.075	-0.900	-0.103	
24.080	-0.023	-0.160	
24.085	0.724	-0.169	
24.090	-0.750	-0.111	
24.095	-0.465	-0.119	
24.100	0.985	-0.133	
24.105	-0.367	-0.063	
24.110	-0.746	-0.040	
24.115	0.785	-0.071	
24.120	0.287	-0.021	
24.125	-0.778	0.033	
24.130	0.213	0.006	
24.135	0.986	0.020	
24.140	-0.643	0.095	
24.145	-0.403	0.082	
24.150	1.073	0.043	
24.155	-0.319	0.081	
24.160	-0.697	0.073	
24.165	0.877	0.017	
24.170	0.387	0.053	
24.175	-0.750	0.103	
24.180	0.244	0.068	
24.185	0.994	0.072	
24.190	-0.631	0.135	
24.195	-0.383	0.110	
24.200	1.120	0.065	
24.205	-0.300	0.103	
24.210	-0.669	0.096	
24.215	0.928	0.042	
24.220	0.372	0.079	
24.225	-0.746	0.126	
24.230	0.285	0.087	
24.235	1.023	0.091	
24.240	-0.608	0.156	
24.245	-0.334	0.134	
24.250	1.188	0.095	
24.255	-0.305	0.138	
24.260	-0.669	0.130	
24.265	0.977	0.071	
24.270	0.430	0.108	
24.275	-0.729	0.157	
24.280	0.285	0.118	
24.285	1.038	0.118	
24.290	-0.611	0.177	
24.295	-0.355	0.148	
24.300	1.181	0.100	
24.305	-0.274	0.138	
24.310	-0.625	0.132	
24.315	1.037	0.082	
24.320	0.498	0.132	
24.325	-0.686	0.194	
24.330	0.439	0.169	
24.335	1.210	0.190	
24.340	-0.528	0.273	
24.345	-0.252	0.259	
24.350	1.369	0.220	
24.355	-0.224	0.264	
24.360	-0.619	0.251	
24.365	1.043	0.179	
24.370	0.505	0.202	
24.375	-0.692	0.238	
24.380	0.332	0.187	
24.385	0.991	0.172	
24.390	-0.646	0.209	
24.395	-0.383	0.158	
24.400	1.113	0.089	
24.405	-0.316	0.110	
24.410	-0.672	0.091	
24.415	0.921	0.030	
24.420	0.323	0.064	
24.425	-0.759	0.106	
24.430	0.204	0.061	
24.435	0.893	0.053	
24.440	-0.639	0.102	
24.445	-0.265	0.077	
24.450	1.655	0.073	
24.455	0.376	0.215	
24.460	-0.136	0.350	
24.465	1.841	0.442	
24.470	0.823	0.607	
24.475	-0.768	0.702	
24.480	-0.130	0.580	
24.485	0.261	0.378	
24.490	-0.971	0.182	
24.495	-0.639	-0.055	
24.500	0.700	-0.233	
24.505	-0.476	-0.264	
24.510	-0.796	-0.279	
24.515	0.692	-0.299	
24.520	0.165	-0.218	
24.525	-0.820	-0.129	
24.530	0.158	-0.122	
24.535	0.872	-0.079	
24.540	-0.665	0.013	
24.545	-0.367	0.019	
24.550	1.110	0.004	
24.555	-0.326	0.067	
24.560	-0.657	0.076	
24.565	0.985	0.036	
24.570	0.402	0.089	
24.575	-0.697	0.149	
24.580	0.415	0.124	
24.585	1.101	0.146	
24.590	-0.553	0.225	
24.595	-0.232	0.211	
24.600	1.402	0.183	
24.605	-0.165	0.247	
24.610	-0.509	0.259	
24.615	1.372	0.225	
24.620	0.829	0.309	
24.625	-0.486	0.410	
24.630	0.901	0.419	
24.635	1.584	0.480	
24.640	-0.320	0.594	
24.645	0.049	0.587	
24.650	1.700	0.543	
24.655	-0.040	0.578	
24.660	-0.464	0.542	
24.665	1.259	0.438	
24.670	0.491	0.423	
24.675	-0.717	0.408	
24.680	0.302	0.296	
24.685	0.869	0.221	
24.690	-0.704	0.205	
24.695	-0.425	0.115	
24.700	0.889	0.018	
24.705	-0.467	0.008	
24.710	-0.799	-0.037	
24.715	0.639	-0.118	
24.720	-0.002	-0.114	
24.725	-0.918	-0.104	
24.730	-0.047	-0.167	
24.735	0.587	-0.187	
24.740	-0.787	-0.146	
24.745	-0.456	-0.166	
24.750	0.913	-0.181	
24.755	-0.445	-0.113	
24.760	-0.778	-0.093	
24.765	0.710	-0.126	
24.770	0.096	-0.084	
24.775	-0.836	-0.045	
24.780	0.157	-0.083	
24.785	0.808	-0.073	
24.790	-0.721	-0.006	
24.795	-0.415	-0.021	
24.800	0.994	-0.050	
24.805	-0.410	-0.001	
24.810	-0.735	-0.003	
24.815	0.799	-0.053	
24.820	0.149	-0.021	
24.825	-0.802	0.012	
24.830	0.232	-0.030	
24.835	0.861	-0.022	
24.840	-0.688	0.045	
24.845	-0.374	0.029	
24.850	1.038	-0.003	
24.855	-0.383	0.043	
24.860	-0.710	0.037	
24.865	0.843	-0.017	
24.870	0.192	0.014	
24.875	-0.779	0.047	
24.880	0.294	0.005	
24.885	0.893	0.016	
24.890	-0.691	0.082	
24.895	-0.383	0.060	
24.900	1.014	0.017	
24.905	-0.413	0.050	
24.910	-0.735	0.032	
24.915	0.780	-0.034	
24.920	0.113	-0.017	
24.925	-0.834	0.003	
24.930	0.168	-0.052	
24.935	0.762	-0.057	
24.940	-0.755	-0.006	
24.945	-0.424	-0.034	
24.950	1.018	-0.068	
24.955	-0.395	-0.016	
24.960	-0.727	-0.011	
24.965	0.864	-0.052	
24.970	0.212	-0.006	
24.975	-0.768	0.041	
24.980	0.315	0.010	
24.985	0.904	0.029	
24.990	-0.665	0.100	
24.995	-0.352	0.080	
25.000	1.088	0.043	
25.005	-0.361	0.084	
25.010	-0.695	0.074	
25.015	0.834	0.013	
25.020	0.107	0.030	
25.025	-0.826	0.043	
25.030	0.227	-0.019	
25.035	0.858	-0.024	
25.040	-0.691	0.036	
25.045	-0.380	0.017	
25.050	1.015	-0.015	
25.055	-0.392	0.030	
25.060	-0.700	0.025	
25.065	0.880	-0.024	
25.070	0.247	0.016	
25.075	-0.692	0.065	
25.080	0.835	0.063	
25.085	1.864	0.181	
25.090	-0.076	0.413	
25.095	0.518	0.554	
25.100	1.820	0.649	
25.105	-0.244	0.757	
25.110	-0.758	0.697	
25.115	0.506	0.481	
25.120	-0.157	0.290	
25.125	-0.953	0.108	
25.130	0.032	-0.095	
25.135	0.698	-0.187	
25.140	-0.735	-0.165	
25.145	-0.363	-0.176	
25.150	1.117	-0.165	
25.155	-0.335	-0.058	
25.160	-0.614	-0.003	
25.165	1.058	0.002	
25.170	0.361	0.090	
25.175	-0.671	0.167	
25.180	0.575	0.156	
25.185	1.152	0.197	
25.190	-0.543	0.288	
25.195	-0.172	0.275	
25.200	1.419	0.243	
25.205	-0.210	0.295	
25.210	-0.505	0.289	
25.215	1.291	0.236	
25.220	0.625	0.291	
25.225	-0.553	0.356	
25.230	0.848	0.339	
25.235	1.451	0.388	
25.240	-0.386	0.496	
25.245	0.134	0.495	
25.250	1.873	0.484	
25.255	0.165	0.576	
25.260	-0.230	0.606	
25.265	1.884	0.582	
25.270	1.165	0.680	
25.275	-0.348	0.781	
25.280	1.192	0.763	
25.285	1.657	0.784	
25.290	-0.355	0.841	
25.295	0.001	0.758	
25.300	1.517	0.631	
25.305	-0.226	0.581	
25.310	-0.585	0.472	
25.315	0.982	0.312	
25.320	0.168	0.247	
25.325	-0.814	0.193	
25.330	0.229	0.074	
25.335	0.767	0.020	
25.340	-0.741	0.037	
25.345	-0.406	-0.013	
25.350	0.918	-0.064	
25.355	-0.473	-0.034	
25.360	-0.776	-0.049	
25.365	0.703	-0.109	
25.370	-0.006	-0.090	
25.375	-0.857	-0.071	
25.380	0.161	-0.121	
25.385	0.727	-0.114	
25.390	-0.718	-0.048	
25.395	-0.367	-0.057	
25.400	1.035	-0.070	
25.405	-0.422	-0.004	
25.410	-0.700	0.005	
25.415	0.905	-0.033	
25.420	0.219	0.015	
25.425	-0.749	0.064	
25.430	0.392	0.035	
25.435	0.922	0.059	
25.440	-0.671	0.132	
25.445	-0.300	0.110	
25.450	1.146	0.073	
25.455	-0.355	0.117	
25.460	-0.630	0.108	
25.465	1.030	0.057	
25.470	0.290	0.101	
25.475	-0.706	0.145	
25.480	0.508	0.112	
25.485	1.027	0.137	
25.490	-0.622	0.213	
25.495	-0.242	0.190	
25.500	1.242	0.150	
25.505	-0.328	0.191	
25.510	-0.617	0.174	
25.515	1.038	0.110	
25.520	0.287	0.138	
25.525	-0.721	0.168	
25.530	0.459	0.119	
25.535	1.006	0.129	
25.540	-0.607	0.196	
25.545	-0.227	0.173	
25.550	1.297	0.140	
25.555	-0.270	0.195	
25.560	-0.538	0.196	
25.565	1.241	0.156	
25.570	0.497	0.220	
25.575	-0.630	0.285	
25.580	0.651	0.259	
25.585	1.195	0.285	
25.590	-0.523	0.361	
25.595	-0.162	0.331	
25.600	1.404	0.281	
25.605	-0.232	0.316	
25.610	-0.523	0.294	
25.615	1.189	0.225	
25.620	0.369	0.252	
25.625	-0.703	0.275	
25.630	0.469	0.210	
25.635	0.948	0.193	
25.640	-0.660	0.228	
25.645	-0.282	0.173	
25.650	1.207	0.113	
25.655	-0.337	0.146	
25.660	-0.608	0.131	
25.665	1.026	0.076	
25.670	0.248	0.112	
25.675	-0.749	0.145	
25.680	0.422	0.097	
25.685	1.069	0.109	
25.690	-0.427	0.193	
25.695	0.425	0.228	
25.700	2.351	0.331	
25.705	0.573	0.584	
25.710	-0.210	0.752	
25.715	1.413	0.768	
25.720	0.219	0.765	
25.725	-0.900	0.666	
25.730	-0.005	0.422	
25.735	0.544	0.207	
25.740	-0.807	0.076	
25.745	-0.410	-0.071	
25.750	1.001	-0.159	
25.755	-0.419	-0.119	
25.760	-0.665	-0.100	
25.765	0.927	-0.110	
25.770	0.198	-0.031	
25.775	-0.744	0.040	
25.780	0.407	0.027	
25.785	0.928	0.062	
25.790	-0.634	0.143	
25.795	-0.227	0.130	
25.800	1.247	0.107	
25.805	-0.326	0.165	
25.810	-0.564	0.165	
25.815	1.195	0.122	
25.820	0.456	0.184	
25.825	-0.622	0.249	
25.830	0.715	0.232	
25.835	1.227	0.274	
25.840	-0.496	0.368	
25.845	-0.005	0.357	
25.850	1.674	0.339	
25.855	-0.035	0.421	
25.860	-0.300	0.443	
25.865	1.767	0.425	
25.870	1.072	0.536	
25.875	-0.328	0.657	
25.880	1.239	0.672	
25.885	1.719	0.733	
25.890	-0.291	0.831	
25.895	0.241	0.789	
25.900	1.724	0.711	
25.905	-0.136	0.706	
25.910	-0.476	0.618	
25.915	1.198	0.466	
25.920	0.323	0.408	
25.925	-0.723	0.357	
25.930	0.386	0.231	
25.935	0.779	0.165	
25.940	-0.761	0.157	
25.945	-0.395	0.071	
25.950	0.875	-0.015	
25.955	-0.526	-0.017	
25.960	-0.791	-0.059	
25.965	0.642	-0.137	
25.970	-0.089	-0.131	
25.975	-0.895	-0.124	
25.980	0.116	-0.179	
25.985	0.562	-0.177	
25.990	-0.822	-0.125	
25.995	-0.430	-0.146	
26.000	0.822	-0.169	
26.005	-0.524	-0.117	
26.010	-0.764	-0.116	
26.015	0.718	-0.155	
26.020	-0.046	-0.117	
26.025	-0.855	-0.087	
26.030	0.230	-0.127	
26.035	0.713	-0.108	
26.040	-0.741	-0.037	
26.045	-0.329	-0.046	
26.050	1.078	-0.056	
26.055	-0.412	0.014	
26.060	-0.675	0.027	
26.065	0.901	-0.012	
26.070	0.084	0.027	
26.075	-0.797	0.054	
26.080	0.352	0.004	
26.085	0.828	0.012	
26.090	-0.726	0.073	
26.095	-0.334	0.046	
26.100	1.059	0.008	
26.105	-0.421	0.051	
26.110	-0.677	0.042	
26.115	0.916	-0.010	
26.120	0.102	0.024	
26.125	-0.782	0.052	
26.130	0.387	0.007	
26.135	0.887	0.024	
26.140	-0.675	0.096	
26.145	-0.288	0.079	
26.150	1.139	0.051	
26.155	-0.378	0.102	
26.160	-0.619	0.098	
26.165	1.018	0.050	
26.170	0.184	0.091	
26.175	-0.750	0.124	
26.180	0.437	0.077	
26.185	0.872	0.085	
26.190	-0.669	0.143	
26.195	-0.242	0.113	
26.200	1.239	0.081	
26.205	-0.325	0.139	
26.210	-0.573	0.142	
26.215	1.128	0.102	
26.220	0.300	0.155	
26.225	-0.681	0.200	
26.230	0.649	0.167	
26.235	1.127	0.200	
26.240	-0.593	0.286	
26.245	-0.192	0.264	
26.250	1.268	0.218	
26.255	-0.337	0.247	
26.260	-0.614	0.215	
26.265	0.966	0.132	
26.270	0.102	0.133	
26.275	-0.814	0.125	
26.280	0.305	0.041	
26.285	0.767	0.019	
26.290	-0.733	0.055	
26.295	-0.335	0.015	
26.300	1.008	-0.026	
26.305	-0.467	0.015	
26.310	-0.715	0.003	
26.315	0.837	-0.053	
26.320	0.058	-0.023	
26.325	-0.771	0.004	
26.330	0.655	-0.022	
26.335	1.498	0.064	
26.340	-0.195	0.253	
26.345	0.765	0.386	
26.350	2.119	0.540	
26.355	-0.146	0.740	
26.360	-0.624	0.757	
26.365	0.607	0.590	
26.370	-0.259	0.414	
26.375	-0.994	0.209	
26.380	0.001	-0.034	
26.385	0.518	-0.169	
26.390	-0.825	-0.194	
26.395	-0.398	-0.241	
26.400	0.944	-0.251	
26.405	-0.479	-0.163	
26.410	-0.692	-0.122	
26.415	0.908	-0.124	
26.420	0.093	-0.045	
26.425	-0.781	0.016	
26.430	0.398	-0.006	
26.435	0.867	0.025	
26.440	-0.662	0.103	
26.445	-0.224	0.091	
26.450	1.216	0.074	
26.455	-0.377	0.136	
26.460	-0.592	0.135	
26.465	1.119	0.090	
26.470	0.328	0.142	
26.475	-0.660	0.193	
26.480	0.695	0.168	
26.485	1.203	0.215	
26.490	-0.489	0.318	
26.495	0.059	0.323	
26.500	1.698	0.328	
26.505	-0.070	0.425	
26.510	-0.291	0.453	
26.515	1.788	0.436	
26.520	1.017	0.545	
26.525	-0.328	0.660	
26.530	1.320	0.672	
26.535	1.678	0.738	
26.540	-0.357	0.833	
26.545	0.155	0.778	
26.550	1.634	0.681	
26.555	-0.224	0.655	
26.560	-0.520	0.552	
26.565	1.114	0.393	
26.570	0.154	0.328	
26.575	-0.790	0.265	
26.580	0.277	0.132	
26.585	0.662	0.062	
26.590	-0.781	0.054	
26.595	-0.384	-0.019	
26.600	0.841	-0.084	
26.605	-0.547	-0.066	
26.610	-0.752	-0.091	
26.615	0.739	-0.147	
26.620	-0.101	-0.119	
26.625	-0.883	-0.099	
26.630	0.192	-0.148	
26.635	0.636	-0.138	
26.640	-0.784	-0.077	
26.645	-0.369	-0.092	
26.650	0.901	-0.112	
26.655	-0.508	-0.058	
26.660	-0.710	-0.059	
26.665	0.851	-0.098	
26.670	0.011	-0.053	
26.675	-0.803	-0.018	
26.680	0.357	-0.055	
26.685	0.762	-0.032	
26.690	-0.732	0.039	
26.695	-0.271	0.021	
26.700	1.117	0.001	
26.705	-0.447	0.061	
26.710	-0.674	0.059	
26.715	0.933	0.007	
26.720	0.037	0.037	
26.725	-0.814	0.054	
26.730	0.302	-0.008	
26.735	0.680	-0.015	
26.740	-0.787	0.025	
26.745	-0.355	-0.018	
26.750	0.951	-0.061	
26.755	-0.502	-0.022	
26.760	-0.724	-0.035	
26.765	0.800	-0.088	
26.770	-0.053	-0.060	
26.775	-0.852	-0.042	
26.780	0.274	-0.094	
26.785	0.698	-0.084	
26.790	-0.753	-0.021	
26.795	-0.310	-0.038	
26.800	1.038	-0.055	
26.805	-0.491	0.006	
26.810	-0.706	0.005	
26.815	0.837	-0.046	
26.820	-0.023	-0.019	
26.825	-0.819	-0.003	
26.830	0.389	-0.054	
26.835	0.771	-0.035	
26.840	-0.735	0.036	
26.845	-0.293	0.018	
26.850	1.072	-0.005	
26.855	-0.425	0.050	
26.860	-0.631	0.049	
26.865	0.986	0.007	
26.870	0.052	0.049	
26.875	-0.796	0.075	
26.880	0.412	0.021	
26.885	0.814	0.030	
26.890	-0.704	0.090	
26.895	-0.247	0.064	
26.900	1.155	0.038	
26.905	-0.404	0.094	
26.910	-0.593	0.093	
26.915	1.111	0.054	
26.920	0.247	0.111	
26.925	-0.688	0.161	
26.930	0.639	0.133	
26.935	1.027	0.169	
26.940	-0.605	0.252	
26.945	-0.105	0.233	
26.950	1.381	0.207	
26.955	-0.310	0.264	
26.960	-0.518	0.255	
26.965	1.256	0.199	
26.970	0.276	0.239	
26.975	-0.712	0.266	
26.980	0.547	0.202	
26.985	0.902	0.193	
26.990	-0.685	0.229	
26.995	-0.233	0.173	
27.000	1.168	0.114	
27.005	-0.418	0.142	
27.010	-0.634	0.115	
27.015	1.005	0.049	
27.020	0.090	0.076	
27.025	-0.781	0.093	
27.030	0.451	0.037	
27.035	0.854	0.048	
27.040	-0.656	0.114	
27.045	-0.003	0.104	
27.050	1.901	0.137	
27.055	0.315	0.318	
27.060	0.053	0.467	
27.065	2.069	0.570	
27.070	0.703	0.740	
27.075	-0.703	0.816	
27.080	0.183	0.678	
27.085	0.331	0.485	
27.090	-0.909	0.298	
27.095	-0.415	0.063	
27.100	0.863	-0.105	
27.105	-0.523	-0.131	
27.110	-0.666	-0.159	
27.115	1.023	-0.182	
27.120	0.125	-0.090	
27.125	-0.749	-0.004	
27.130	0.523	-0.000	
27.135	0.883	0.056	
27.140	-0.660	0.148	
27.145	-0.166	0.139	
27.150	1.326	0.124	
27.155	-0.317	0.194	
27.160	-0.518	0.200	
27.165	1.281	0.163	
27.170	0.384	0.227	
27.175	-0.621	0.282	
27.180	0.841	0.257	
27.185	1.219	0.302	
27.190	-0.509	0.396	
27.195	0.075	0.382	
27.200	1.639	0.364	
27.205	-0.145	0.436	
27.210	-0.314	0.438	
27.215	1.784	0.405	
27.220	0.957	0.509	
27.225	-0.310	0.622	
27.230	1.459	0.646	
27.235	1.835	0.743	
27.240	-0.200	0.882	
27.245	0.637	0.882	
27.250	2.102	0.867	
27.255	0.096	0.927	
27.260	-0.244	0.880	
27.265	1.680	0.754	
27.270	0.620	0.725	
27.275	-0.573	0.685	
27.280	0.802	0.552	
27.285	1.050	0.481	
27.290	-0.621	0.462	
27.295	-0.174	0.351	
27.300	1.149	0.240	
27.305	-0.460	0.218	
27.310	-0.668	0.146	
27.315	0.910	0.043	
27.320	-0.027	0.037	
27.325	-0.832	0.028	
27.330	0.358	-0.043	
27.335	0.719	-0.043	
27.340	-0.752	0.014	
27.345	-0.294	-0.011	
27.350	0.980	-0.037	
27.355	-0.494	0.011	
27.360	-0.697	-0.000	
27.365	0.831	-0.054	
27.370	-0.049	-0.029	
27.375	-0.834	-0.015	
27.380	0.322	-0.070	
27.385	0.694	-0.061	
27.390	-0.761	-0.002	
27.395	-0.293	-0.024	
27.400	1.018	-0.045	
27.405	-0.486	0.010	
27.410	-0.650	0.008	
27.415	0.982	-0.032	
27.420	0.000	0.015	
27.425	-0.796	0.044	
27.430	0.447	-0.003	
27.435	0.812	0.017	
27.440	-0.691	0.087	
27.445	-0.212	0.069	
27.450	1.122	0.048	
27.455	-0.456	0.102	
27.460	-0.616	0.091	
27.465	1.052	0.039	
27.470	0.035	0.077	
27.475	-0.773	0.097	
27.480	0.515	0.043	
27.485	0.844	0.060	
27.490	-0.698	0.126	
27.495	-0.233	0.099	
27.500	1.137	0.067	
27.505	-0.422	0.113	
27.510	-0.604	0.100	
27.515	1.034	0.048	
27.520	0.097	0.086	
27.525	-0.752	0.110	
27.530	0.535	0.062	
27.535	0.851	0.081	
27.540	-0.691	0.146	
27.545	-0.224	0.117	
27.550	1.162	0.082	
27.555	-0.392	0.128	
27.560	-0.557	0.119	
27.565	1.142	0.076	
27.570	0.194	0.129	
27.575	-0.707	0.170	
27.580	0.630	0.131	
27.585	0.976	0.158	
27.590	-0.605	0.233	
27.595	-0.104	0.212	
27.600	1.320	0.185	
27.605	-0.335	0.240	
27.610	-0.506	0.229	
27.615	1.242	0.176	
27.620	0.302	0.223	
27.625	-0.643	0.261	
27.630	0.753	0.220	
27.635	1.078	0.249	
27.640	-0.569	0.325	
27.645	-0.026	0.299	
27.650	1.459	0.269	
27.655	-0.285	0.325	
27.660	-0.468	0.312	
27.665	1.351	0.254	
27.670	0.402	0.300	
27.675	-0.624	0.338	
27.680	0.805	0.293	
27.685	1.107	0.313	
27.690	-0.575	0.378	
27.695	-0.107	0.333	
27.700	1.277	0.272	
27.705	-0.386	0.287	
27.710	-0.578	0.238	
27.715	1.052	0.148	
27.720	0.105	0.151	
27.725	-0.730	0.149	
27.730	0.555	0.084	
27.735	0.840	0.093	
27.740	-0.678	0.152	
27.745	-0.185	0.120	
27.750	1.168	0.088	
27.755	-0.404	0.137	
27.760	-0.508	0.129	
27.765	1.534	0.106	
27.770	0.944	0.237	
27.775	-0.200	0.406	
27.780	1.683	0.517	
27.785	1.747	0.703	
27.790	-0.467	0.882	
27.795	-0.209	0.835	
27.800	0.785	0.653	
27.805	-0.666	0.476	
27.810	-0.825	0.237	
27.815	0.668	-0.000	
27.820	-0.117	-0.099	
27.825	-0.819	-0.147	
27.830	0.419	-0.205	
27.835	0.764	-0.159	
27.840	-0.707	-0.051	
27.845	-0.218	-0.028	
27.850	1.114	-0.013	
27.855	-0.425	0.070	
27.860	-0.582	0.083	
27.865	1.075	0.050	
27.870	0.097	0.102	
27.875	-0.729	0.133	
27.880	0.581	0.088	
27.885	0.925	0.112	
27.890	-0.639	0.186	
27.895	-0.151	0.165	
27.900	1.300	0.141	
27.905	-0.349	0.200	
27.910	-0.511	0.196	
27.915	1.262	0.153	
27.920	0.340	0.212	
27.925	-0.605	0.264	
27.930	0.858	0.240	
27.935	1.261	0.293	
27.940	-0.450	0.401	
27.945	0.230	0.407	
27.950	1.715	0.414	
27.955	-0.120	0.505	
27.960	-0.303	0.510	
27.965	1.630	0.460	
27.970	0.636	0.517	
27.975	-0.523	0.559	
27.980	0.918	0.500	
27.985	1.102	0.490	
27.990	-0.627	0.510	
27.995	-0.192	0.410	
28.000	1.032	0.286	
28.005	-0.531	0.234	
28.010	-0.736	0.130	
28.015	0.674	-0.006	
28.020	-0.201	-0.053	
28.025	-0.938	-0.097	
28.030	0.073	-0.194	
28.035	0.380	-0.224	
28.040	-0.895	-0.201	
28.045	-0.425	-0.237	
28.050	0.704	-0.259	
28.055	-0.633	-0.206	
28.060	-0.785	-0.204	
28.065	0.645	-0.237	
28.070	-0.230	-0.197	
28.075	-0.931	-0.176	
28.080	0.155	-0.222	
28.085	0.469	-0.211	
28.090	-0.831	-0.154	
28.095	-0.348	-0.169	
28.100	0.831	-0.177	
28.105	-0.585	-0.115	
28.110	-0.718	-0.112	
28.115	0.844	-0.144	
28.120	-0.067	-0.092	
28.125	-0.826	-0.054	
28.130	0.354	-0.089	
28.135	0.655	-0.065	
28.140	-0.749	0.001	
28.145	-0.241	-0.016	
28.150	1.034	-0.031	
28.155	-0.483	0.029	
28.160	-0.631	0.028	
28.165	0.988	-0.013	
28.170	0.029	0.032	
28.175	-0.762	0.062	
28.180	0.492	0.019	
28.185	0.779	0.040	
28.190	-0.709	0.105	
28.195	-0.238	0.077	
28.200	1.037	0.043	
28.205	-0.474	0.080	
28.210	-0.608	0.060	
28.215	0.986	0.007	
28.220	0.001	0.042	
28.225	-0.746	0.063	
28.230	0.541	0.018	
28.235	0.835	0.046	
28.240	-0.686	0.122	
28.245	-0.188	0.104	
28.250	1.145	0.079	
28.255	-0.418	0.130	
28.260	-0.549	0.120	
28.265	1.145	0.076	
28.270	0.131	0.127	
28.275	-0.720	0.160	
28.280	0.602	0.114	
28.285	0.896	0.134	
28.290	-0.643	0.200	
28.295	-0.108	0.173	
28.300	1.281	0.147	
28.305	-0.375	0.203	
28.310	-0.506	0.194	
28.315	1.244	0.147	
28.320	0.262	0.201	
28.325	-0.643	0.242	
28.330	0.779	0.206	
28.335	1.090	0.243	
28.340	-0.567	0.327	
28.345	-0.024	0.304	
28.350	1.384	0.273	
28.355	-0.316	0.319	
28.360	-0.468	0.296	
28.365	1.279	0.231	
28.370	0.241	0.264	
28.375	-0.681	0.282	
28.380	0.672	0.217	
28.385	0.896	0.218	
28.390	-0.654	0.261	
28.395	-0.146	0.209	
28.400	1.171	0.155	
28.405	-0.421	0.181	
28.410	-0.557	0.151	
28.415	1.131	0.089	
28.420	0.097	0.126	
28.425	-0.768	0.146	
28.430	0.512	0.086	
28.435	0.873	0.093	
28.440	-0.550	0.158	
28.445	0.405	0.169	
28.450	2.220	0.258	
28.455	0.430	0.497	
28.460	-0.050	0.663	
28.465	1.626	0.712	
28.470	0.158	0.760	
28.475	-0.874	0.693	
28.480	0.081	0.462	
28.485	0.366	0.248	
28.490	-0.854	0.094	
28.495	-0.319	-0.075	
28.500	0.877	-0.173	
28.505	-0.531	-0.147	
28.510	-0.634	-0.145	
28.515	0.979	-0.155	
28.520	-0.011	-0.071	
28.525	-0.756	-0.007	
28.530	0.540	-0.020	
28.535	0.806	0.030	
28.540	-0.675	0.117	
28.545	-0.139	0.106	
28.550	1.216	0.094	
28.555	-0.396	0.158	
28.560	-0.517	0.156	
28.565	1.201	0.116	
28.570	0.206	0.171	
28.575	-0.654	0.211	
28.580	0.796	0.177	
28.585	1.096	0.222	
28.590	-0.532	0.316	
28.595	0.105	0.311	
28.600	1.584	0.309	
28.605	-0.174	0.394	
28.610	-0.281	0.407	
28.615	1.745	0.385	
28.620	0.814	0.489	
28.625	-0.320	0.591	
28.630	1.468	0.607	
28.635	1.631	0.699	
28.640	-0.300	0.820	
28.645	0.501	0.799	
28.650	1.857	0.759	
28.655	-0.105	0.789	
28.660	-0.313	0.720	
28.665	1.450	0.586	
28.670	0.312	0.546	
28.675	-0.657	0.491	
28.680	0.623	0.356	
28.685	0.782	0.287	
28.690	-0.730	0.267	
28.695	-0.253	0.165	
28.700	0.924	0.070	
28.705	-0.557	0.058	
28.710	-0.703	0.001	
28.715	0.767	-0.083	
28.720	-0.163	-0.078	
28.725	-0.855	-0.080	
28.730	0.331	-0.138	
28.735	0.529	-0.125	
28.740	-0.811	-0.069	
28.745	-0.314	-0.094	
28.750	0.883	-0.114	
28.755	-0.553	-0.062	
28.760	-0.659	-0.065	
28.765	0.912	-0.099	
28.770	-0.096	-0.048	
28.775	-0.825	-0.019	
28.780	0.383	-0.064	
28.785	0.640	-0.048	
28.790	-0.747	0.011	
28.795	-0.217	-0.011	
28.800	1.073	-0.025	
28.805	-0.479	0.040	
28.810	-0.610	0.041	
28.815	1.015	0.003	
28.820	-0.014	0.049	
28.825	-0.771	0.072	
28.830	0.506	0.022	
28.835	0.732	0.038	
28.840	-0.723	0.096	
28.845	-0.207	0.065	
28.850	1.020	0.032	
28.855	-0.506	0.071	
28.860	-0.602	0.050	
28.865	1.017	-0.002	
28.870	-0.021	0.038	
28.875	-0.778	0.060	
28.880	0.445	0.007	
28.885	0.683	0.017	
28.890	-0.720	0.069	
28.895	-0.188	0.038	
28.900	1.090	0.016	
28.905	-0.471	0.072	
28.910	-0.595	0.066	
28.915	0.980	0.019	
28.920	-0.029	0.054	
28.925	-0.758	0.069	
28.930	0.544	0.018	
28.935	0.727	0.038	
28.940	-0.724	0.100	
28.945	-0.210	0.069	
28.950	1.027	0.035	
28.955	-0.503	0.074	
28.960	-0.622	0.052	
28.965	0.973	-0.004	
28.970	-0.031	0.028	
28.975	-0.764	0.046	
28.980	0.558	0.000	
28.985	0.774	0.029	
28.990	-0.697	0.103	
28.995	-0.145	0.086	
29.000	1.177	0.070	
29.005	-0.432	0.131	
29.010	-0.553	0.126	
29.015	1.107	0.080	
29.020	0.091	0.124	
29.025	-0.706	0.149	
29.030	0.627	0.102	
29.035	0.768	0.121	
29.040	-0.730	0.174	
29.045	-0.242	0.125	
29.050	0.930	0.064	
29.055	-0.550	0.072	
29.060	-0.657	0.024	
29.065	0.887	-0.049	
29.070	-0.122	-0.030	
29.075	-0.836	-0.024	
29.080	0.369	-0.082	
29.085	0.561	-0.074	
29.090	-0.799	-0.025	
29.095	-0.293	-0.057	
29.100	0.893	-0.085	
29.105	-0.543	-0.039	
29.110	-0.572	-0.045	
29.115	1.418	-0.052	
29.120	0.742	0.093	
29.125	-0.252	0.270	
29.130	1.579	0.390	
29.135	1.409	0.577	
29.140	-0.642	0.735	
29.145	-0.355	0.667	
29.150	0.424	0.467	
29.155	-0.794	0.269	
29.160	-0.843	0.029	
29.165	0.596	-0.181	
29.170	-0.235	-0.246	
29.175	-0.895	-0.268	
29.180	0.312	-0.308	
29.185	0.569	-0.257	
29.190	-0.790	-0.154	
29.195	-0.241	-0.133	
29.200	0.983	-0.111	
29.205	-0.520	-0.024	
29.210	-0.608	-0.008	
29.215	1.014	-0.032	
29.220	-0.012	0.027	
29.225	-0.747	0.063	
29.230	0.601	0.027	
29.235	0.817	0.063	
29.240	-0.680	0.140	
29.245	-0.139	0.121	
29.250	1.230	0.102	
29.255	-0.399	0.163	
29.260	-0.489	0.160	
29.265	1.306	0.125	
29.270	0.296	0.197	
29.275	-0.575	0.257	
29.280	1.026	0.247	
29.285	1.285	0.324	
29.290	-0.407	0.449	
29.295	0.483	0.472	
29.300	1.901	0.509	
29.305	-0.014	0.631	
29.310	-0.153	0.654	
29.315	1.835	0.614	
