Time	Potential	EKG	Unnamed: 3
0.0	-0.489	-0.02811227369339314	
0.005	-0.303	-0.0888740827233751	
0.01	0.135	-0.1434912452778328	
0.015	-0.382	-0.17370684878919285	
0.02	-0.469	-0.20352846196533775	
0.025	0.159	-0.22471069612961458	
0.03	-0.152	-0.2182514154495092	
0.035	-0.543	-0.20953651573808837	
0.04	-0.091	-0.21454890713193492	
0.045	0.046	-0.21392995750634794	
0.05	-0.478	-0.20629771555435944	
0.055	-0.268	-0.2076290061078348	
0.06	0.249	-0.2015610763289722	
0.065	-0.321	-0.1801073223546774	
0.07	-0.422	-0.16853918904746348	
0.075	0.286	-0.15979691667802587	
0.08	-0.077	-0.1364542259548835	
0.085	-0.460	-0.1192399472100863	
0.09	0.043	-0.1153441327884093	
0.095	0.170	-0.10903536765070096	
0.1	-0.451	-0.1009760041245146	
0.105	-0.253	-0.10949225275653943	
0.11	0.274	-0.1210736023488262	
0.115	-0.333	-0.12312576542410249	
0.12	-0.486	-0.13533635676213293	
0.125	0.065	-0.16037724213334575	
0.13	-0.201	-0.18457243760948977	
0.135	-0.573	-0.20750139559660194	
0.14	-0.126	-0.23044680826492323	
0.145	-0.028	-0.24637522704989584	
0.15	-0.539	-0.2562254264844512	
0.155	-0.337	-0.26333584890272177	
0.16	0.104	-0.26595426009552936	
0.165	-0.401	-0.26196655064663743	
0.17	-0.507	-0.25889641156301885	
0.175	0.155	-0.2531916022367258	
0.18	0.049	-0.2277256580174618	
0.185	-0.211	-0.17552531952407394	
0.19	0.631	-0.08461444611201754	
0.195	0.672	0.04617271881219068	
0.2	-0.329	0.16261645971230054	
0.205	-0.314	-0.2531916022367258	
0.21	-0.115	0.12896868160430952	
0.215	-0.626	-0.0026445873230331565	
0.22	-0.715	-0.15339356168320037	
0.225	-0.140	-0.28422083199163484	
0.23	-0.248	-0.37278786999493024	
0.235	-0.565	-0.40737979826416465	
0.24	-0.079	-0.3940277075435892	
0.245	0.098	-0.3533783444322326	
0.25	-0.451	-0.30020683671968285	
0.255	-0.224	-0.24610596476374358	
0.26	0.327	-0.19517485480925634	
0.265	-0.303	-0.15229271280896392	
0.27	-0.384	-0.12384827657968012	
0.275	0.353	-0.10233613640260236	
0.28	-0.025	-0.07994290411915464	
0.285	-0.396	-0.06325248909805753	
0.29	0.182	-0.04842648015388942	
0.295	0.397	-0.025912532848375584	
0.3	-0.330	0.0019239901762594254	
0.305	-0.082	0.020945166737774346	
0.31	0.664	0.038630734908615266	
0.315	-0.082	0.07021394907771775	
0.32	-0.147	0.09870497240420484	
0.325	0.849	0.13540333433531687	
0.33	0.509	0.20108027366774658	
0.335	-0.143	0.271083375662395	
0.34	0.654	0.32090140749852	
0.345	0.867	0.3694608849596865	
0.35	-0.097	0.41243260152408556	
0.355	0.190	0.41886416453155695	
0.36	0.881	0.40402664849943914	
0.365	-0.034	0.385066938560066	
0.37	-0.237	0.341458578532934	
0.375	0.497	0.2755591982347137	
0.38	0.017	0.20614669903196733	
0.385	-0.448	0.13197830869744795	
0.39	-0.019	0.05589480535340595	
0.395	0.123	-0.019489607512697196	
0.4	-0.465	-0.0825097825605185	
0.405	-0.271	-0.12611909990615022	
0.41	0.211	-0.15602308322725625	
0.415	-0.372	-0.17689484650467485	
0.42	-0.468	-0.19045641381419232	
0.425	0.164	-0.1954856087524369	
0.43	-0.158	-0.19789940789727034	
0.435	-0.532	-0.19995366273582266	
0.44	-0.063	-0.1970861717645398	
0.445	0.049	-0.19855978592526724	
0.45	-0.506	-0.20252420447100744	
0.455	-0.294	-0.2030757725189929	
0.46	0.214	-0.20203279523571555	
0.465	-0.364	-0.19994565164649364	
0.47	-0.463	-0.19644317594930255	
0.475	0.162	-0.1914387542762625	
0.48	-0.143	-0.1889411119233836	
0.485	-0.501	-0.18699723999789075	
0.49	0.001	-0.17900987778008204	
0.495	0.175	-0.1675365525982822	
0.5	-0.456	-0.15461862896124207	
0.505	-0.237	-0.14205334116701337	
0.51	0.335	-0.1329491619779985	
0.515	-0.282	-0.12202191260458721	
0.52	-0.367	-0.11048567684781727	
0.525	0.312	-0.09833207408644656	
0.53	-0.106	-0.08996491712897692	
0.535	-0.501	-0.09210636150908198	
0.54	-0.053	-0.10494511623391037	
0.545	0.060	-0.12748986064873885	
0.55	-0.504	-0.15472056137321738	
0.555	-0.321	-0.17502744397935294	
0.56	0.153	-0.19384764460110657	
0.565	-0.375	-0.21111308347047703	
0.57	-0.486	-0.2195323810553848	
0.575	0.109	-0.2211864813015457	
0.58	-0.160	-0.22399958255290967	
0.585	-0.526	-0.22223524874660527	
0.59	-0.070	-0.21378693027469095	
0.595	0.033	-0.2104273371236555	
0.6	-0.486	-0.21195457179159116	
0.605	-0.147	-0.2009440537967328	
0.61	0.846	-0.1495795087975065	
0.615	0.246	-0.0412794102858666	
0.62	0.049	0.09533245381305941	
0.625	0.822	0.21803467739930418	
0.63	-0.024	0.2919177819240721	
0.635	-0.648	0.27546520689710896	
0.64	-0.337	0.1663092599574248	
0.645	-0.250	-0.0012944929565715376	
0.65	-0.675	-0.17309787859669967	
0.655	-0.419	-0.2959180471422412	
0.66	0.085	-0.3614412980273092	
0.665	-0.390	-0.3834116593743652	
0.67	-0.475	-0.36672161018025096	
0.675	0.159	-0.3247343825042749	
0.68	-0.117	-0.28107611191156656	
0.685	-0.459	-0.23766593466734504	
0.69	0.083	-0.18844948192604025	
0.695	0.248	-0.14418243211835519	
0.7	-0.404	-0.1064544184694767	
0.705	-0.179	-0.07892156503621162	
0.71	0.448	-0.060151899132812395	
0.715	-0.210	-0.04366654762146243	
0.72	-0.292	-0.027929701942951017	
0.725	0.545	-0.006366570848937303	
0.73	0.141	0.02492114950279389	
0.735	-0.321	0.05296716071141649	
0.74	0.387	0.07975907972115365	
0.745	0.645	0.11706767141428899	
0.75	-0.169	0.16323469015517555	
0.755	0.179	0.20202455890407353	
0.76	1.006	0.24517125175389004	
0.765	0.228	0.30424320817462314	
0.77	0.001	0.35683286007554504	
0.775	0.971	0.39278078567112884	
0.78	0.523	0.4270316509420627	
0.785	-0.161	0.4458064762254387	
0.79	0.571	0.4356870379494992	
0.795	0.638	0.4131662088214519	
0.8	-0.291	0.3772780914967756	
0.805	-0.124	0.3108965675036909	
0.81	0.481	0.22408422957408247	
0.815	-0.248	0.1394180609811751	
0.82	-0.385	0.06490354932283085	
0.825	0.284	0.0035611640751036	
0.83	-0.112	-0.048908613483662725	
0.835	-0.514	-0.09193152334287108	
0.84	-0.039	-0.12247779725735716	
0.845	0.114	-0.14898576864440127	
0.85	-0.482	-0.16843150133320514	
0.855	-0.292	-0.17505927968359974	
0.86	0.222	-0.1801820066495742	
0.865	-0.388	-0.18748317710630388	
0.87	-0.489	-0.19292441149410233	
0.875	0.146	-0.19663374980701948	
0.88	-0.169	-0.20297546678227976	
0.885	-0.561	-0.20873880589933472	
0.89	-0.088	-0.20952416462051182	
0.895	0.053	-0.2141412954024445	
0.9	-0.497	-0.2193306635338412	
0.905	-0.282	-0.21397396291364015	
0.91	0.280	-0.20229631831569062	
0.915	-0.314	-0.18750171887798078	
0.92	-0.419	-0.1698192702462619	
0.925	0.237	-0.1526585309860456	
0.93	-0.074	-0.14006339334350473	
0.935	-0.445	-0.1296913256879555	
0.94	0.123	-0.11245350369787138	
0.945	0.295	-0.09019856768891212	
0.95	-0.407	-0.06837946762174964	
0.955	-0.204	-0.05492170349147556	
0.96	0.396	-0.05229868803562316	
0.965	-0.250	-0.052564162912301766	
0.97	-0.376	-0.053784833338037345	
0.975	0.236	-0.05961925130329856	
0.98	-0.141	-0.0781343110591462	
0.985	-0.533	-0.10370219200804895	
0.99	-0.054	-0.1293785800367555	
0.995	0.056	-0.15624158827356113	
1.0	-0.524	-0.1824384609187038	
1.005	-0.312	-0.19781305891907752	
1.01	0.220	-0.20625768257952	
1.015	-0.372	-0.21069685210985878	
1.02	-0.471	-0.20875538622983753	
1.025	0.153	-0.20246877256656892	
1.03	-0.176	-0.20223596213826342	
1.035	-0.530	-0.20281058365734564	
1.04	0.150	-0.18918490795594733	
1.045	0.703	-0.13717411349408926	
1.05	0.092	-0.03060203229309412	
1.055	0.620	0.12127699724966103	
1.06	1.128	0.2918765345159991	
1.065	-0.132	-0.20223596213826342	
1.07	-0.472	-0.20223596213826342	
1.075	-0.152	0.32763827752647723	
1.08	-0.431	0.1337515390959703	
1.085	-0.735	-0.07289502671181845	
1.09	-0.221	-0.2310749424649257	
1.095	-0.065	-0.3351290736660397	
1.1	-0.556	-0.3867399212008049	
1.105	-0.288	-0.38369072846609126	
1.11	0.277	-0.34596841215936114	
1.115	-0.301	-0.2929764681292868	
1.12	-0.384	-0.23289819701381564	
1.125	0.370	-0.17309814881010532	
1.13	-0.008	-0.12030693229803861	
1.135	-0.411	-0.07916669472732028	
1.14	0.207	-0.045935184019265524	
1.145	0.394	-0.015012013272804112	
1.15	-0.346	0.012954895970242068	
1.155	-0.143	0.028274947246953258	
1.16	0.567	0.033284411584134366	
1.165	-0.138	0.040885103112084445	
1.17	-0.214	0.051945251818726064	
1.175	0.738	0.07714145913288707	
1.18	0.379	0.12574300596335225	
1.185	-0.169	0.18262677346814055	
1.19	0.706	0.23913838455320738	
1.195	0.982	0.31314179511899415	
1.2	-0.010	0.3938509847547468	
1.205	0.410	0.4491786808826754	
1.21	1.134	0.48836586105819263	
1.215	0.242	0.5239581604534091	
1.22	0.039	0.5338370530435107	
1.225	0.992	0.5209966383133864	
1.23	0.471	0.5088839813322383	
1.235	-0.239	0.48175395743120336	
1.24	0.379	0.4248351145172138	
1.245	0.436	0.35006825804029007	
1.25	-0.382	0.26925462643998943	
1.255	-0.218	0.17805731448851325	
1.26	0.284	0.08197673146442695	
1.265	-0.344	-0.00865116677274061	
1.27	-0.456	-0.07889806415455924	
1.275	0.135	-0.13051817117077466	
1.28	-0.193	-0.17306896032043	
1.285	-0.561	-0.20471312406803052	
1.29	-0.103	-0.2214606680409274	
1.295	0.002	-0.23524446590362846	
1.3	-0.549	-0.24826810113935047	
1.305	-0.356	-0.2519015119959302	
1.31	0.083	-0.2564790070706249	
1.315	-0.425	-0.2664465327940363	
1.32	-0.536	-0.27162654430497335	
1.325	0.030	-0.271874102666648	
1.33	-0.224	-0.27712931099999527	
1.335	-0.585	-0.2803810834319229	
1.34	-0.146	-0.2745961795547114	
1.345	-0.056	-0.27546721299014615	
1.35	-0.576	-0.283052230775197	
1.355	-0.372	-0.2838291193329875	
1.36	0.089	-0.2836824804172592	
1.365	-0.399	-0.28540693194405187	
1.37	-0.463	-0.2754806062849502	
1.375	0.220	-0.25194410362667446	
1.38	-0.144	-0.22520385214745772	
1.385	-0.523	-0.20232319662135279	
1.39	-0.039	-0.18356605744220117	
1.395	0.106	-0.17551597709861053	
1.4	-0.480	-0.17207964053518005	
1.405	-0.265	-0.16677893934998733	
1.41	0.252	-0.16365982097453974	
1.415	-0.340	-0.16348389774552263	
1.42	-0.454	-0.16148895568135838	
1.425	0.159	-0.16186490365246342	
1.43	-0.181	-0.1702617468483646	
1.435	-0.564	-0.18339181727692858	
1.44	-0.115	-0.19443956382914485	
1.445	-0.018	-0.213502464274382	
1.45	-0.578	-0.2362425612953746	
1.455	-0.376	-0.2516876075113865	
1.46	0.094	-0.26551243155757764	
1.465	-0.431	-0.27767834421789866	
1.47	-0.527	-0.28153039555724635	
1.475	0.059	-0.2775966267345662	
1.48	-0.230	-0.27737095185860683	
1.485	-0.605	-0.2776274419888558	
1.49	-0.144	-0.27216211112099387	
1.495	0.129	-0.26739884704799166	
1.5	-0.288	-0.24258960036307736	
1.505	0.370	-0.2642181220380445	
1.51	1.285	-0.012119531967313302	
1.515	0.262	0.18598298552913425	
1.52	-0.236	-0.26739884704799166	
1.525	0.118	-0.26739884704799166	
1.53	-0.404	0.2645308887893993	
1.535	-0.831	0.09303742599163864	
1.54	-0.382	-0.09388470207351349	
1.545	-0.219	-0.2642181220380445	
1.55	-0.639	-0.3869208547825141	
1.555	-0.385	-0.4374518580388137	
1.56	0.149	-0.43486481228087004	
1.565	-0.370	-0.40329353908773	
1.57	-0.440	-0.3478054459291332	
1.575	0.300	-0.27976500992024034	
1.58	-0.080	-0.21660725819681886	
1.585	-0.437	-0.16436897905046993	
1.59	0.190	-0.11446526436960697	
1.595	0.376	-0.06706140368377905	
1.6	-0.344	-0.024549808885356864	
1.605	-0.103	0.007636154019464343	
1.61	0.609	0.029634049443745165	
1.615	-0.150	0.050264409371087226	
1.62	-0.214	0.0689248141384863	
1.625	0.727	0.09282839325135463	
1.63	0.358	0.13533249952297655	
1.635	-0.173	0.18512463457396713	
1.64	0.745	0.23890581329857333	
1.645	0.936	0.31221940633705564	
1.65	0.024	0.39096532722992416	
1.655	0.538	0.4546517854297362	
1.66	1.318	0.5180621147554199	
1.665	0.461	0.5920432662871102	
1.67	0.268	0.6476612473116847	
1.675	1.273	0.6820894906582953	
1.68	0.719	0.7093890438042529	
1.685	-0.077	0.7088681466678589	
1.69	0.690	0.6648873774585136	
1.695	0.742	0.6023561431828439	
1.7	-0.237	0.5279615524366865	
1.705	-0.063	0.4295293839628637	
1.71	0.533	0.3150214034434976	
1.715	-0.228	0.2072091716286714	
1.72	-0.358	0.11571921897115775	
1.725	0.370	0.04390041525136966	
1.73	-0.073	-0.011541512333076216	
1.735	-0.488	-0.05387767928203935	
1.74	0.001	-0.08325670282644732	
1.745	0.126	-0.11279794406351512	
1.75	-0.478	-0.1377801533981375	
1.755	-0.254	-0.148410423488062	
1.76	0.289	-0.1532200321096987	
1.765	-0.321	-0.15672511630999103	
1.77	-0.402	-0.15111575277298617	
1.775	0.263	-0.13925467123138585	
1.78	-0.141	-0.1346396507310297	
1.785	-0.512	-0.13673614644285265	
1.79	0.004	-0.13724491782645315	
1.795	0.153	-0.14091823931045136	
1.8	-0.469	-0.14575915207118378	
1.805	-0.248	-0.1423262225340966	
1.81	0.327	-0.13926099950479462	
1.815	-0.300	-0.13579982895702541	
1.82	-0.385	-0.12706259651355628	
1.825	0.364	-0.11018258681280023	
1.83	-0.041	-0.09371535802321451	
1.835	-0.425	-0.0797857748004914	
1.84	0.162	-0.06312938120237391	
1.845	0.310	-0.04591129024647553	
1.85	-0.387	-0.032900411409980235	
1.855	-0.120	-0.02027222470947644	
1.86	0.616	-0.006133641372496687	
1.865	-0.163	0.0160845326625841	
1.87	-0.253	0.03986485582436244	
1.875	0.634	0.0629626492721505	
1.88	0.179	0.09127796585619469	
1.885	-0.332	0.11408130979522735	
1.89	0.260	0.12392803603389303	
1.895	0.342	0.11614547286893723	
1.9	-0.411	0.09500316875869391	
1.905	-0.205	0.061726042352775304	
1.91	0.373	0.017926453159211285	
1.915	-0.280	-0.02396467085380283	
1.92	-0.355	-0.05213096767923018	
1.925	0.390	-0.06296213632022254	
1.93	-0.085	-0.06677484872760853	
1.935	-0.456	-0.07296407659664685	
1.94	0.130	-0.07195933460947854	
1.945	0.271	-0.06883316334897302	
1.95	-0.434	-0.06510990552490001	
1.955	-0.204	-0.06121968590925975	
1.96	0.512	-0.0579624781788993	
1.965	-0.056	-0.04106956383057396	
1.97	0.136	0.013837034851119567	
1.975	1.435	0.1362448083671	
1.98	0.976	0.32724804764820675	
1.985	-0.059	0.509824327923937	
1.99	0.312	0.5889634758847739	
1.995	-0.037	0.5301681983236539	
2.0	-0.701	0.36081524499251993	
2.005	-0.495	0.14877639897702283	
2.01	-0.042	-0.0588933247731379	
2.015	-0.430	-0.22606046669599028	
2.02	-0.466	-0.31616266647945057	
2.025	0.303	-0.32974621848164504	
2.03	-0.065	-0.2988115532989718	
2.035	-0.425	-0.24514071640396157	
2.04	0.204	-0.17579374177078766	
2.045	0.402	-0.10574749466984489	
2.05	-0.323	-0.04135579714580985	
2.055	-0.059	0.01082617252880691	
2.06	0.660	0.04925147608397909	
2.065	-0.143	0.08071652475904323	
2.07	-0.239	0.10167946227517832	
2.075	0.655	0.1164498371833285	
2.08	0.231	0.13516307776103864	
2.085	-0.279	0.15265630046224743	
2.09	0.463	0.1703304256121873	
2.095	0.678	0.19436915625790177	
2.1	-0.184	0.22448799808312933	
2.105	0.255	0.25082799761749425	
2.11	1.044	0.28640388855845633	
2.115	0.222	0.33867732054605615	
2.12	0.129	0.390598289792485	
2.125	1.227	0.4445048270031231	
2.13	0.770	0.5162243791056931	
2.135	-0.028	0.5776155607758322	
2.14	0.860	0.6042091283994228	
2.145	0.964	0.6143847799261333	
2.15	-0.097	0.6086453994137244	
2.155	0.185	0.5646869360744282	
2.16	0.843	0.4951812089999025	
2.165	-0.123	0.4199535293554043	
2.17	-0.283	0.3337150905116475	
2.175	0.489	0.2420683455226561	
2.18	-0.031	0.15633006340737465	
2.185	-0.459	0.07909180814551152	
2.19	0.046	0.013863098328859094	
2.195	0.103	-0.04588338155171909	
2.2	-0.495	-0.09878129492328325	
2.205	-0.263	-0.13430999635291724	
2.21	0.268	-0.156339838400634	
2.215	-0.352	-0.17170595429722546	
2.22	-0.445	-0.17395493528530545	
2.225	0.191	-0.17143970434121386	
2.23	-0.181	-0.17569639507108298	
2.235	-0.535	-0.18243956722112437	
2.24	-0.068	-0.18439647825441718	
2.245	0.046	-0.19317529050783444	
2.25	-0.495	-0.20339458994993578	
2.255	-0.280	-0.2022749230317808	
2.26	0.196	-0.1997159211436777	
2.265	-0.388	-0.2025524041490877	
2.27	-0.457	-0.2017240402624005	
2.275	0.208	-0.1936892351859966	
2.28	-0.160	-0.18875254070089165	
2.285	-0.529	-0.1862049808093098	
2.29	-0.056	-0.1804729253056241	
2.295	0.111	-0.18232446290949011	
2.3	-0.471	-0.18326268935933016	
2.305	-0.231	-0.17422017457849653	
2.31	0.338	-0.15983344405592698	
2.315	-0.297	-0.1455398041883585	
2.32	-0.352	-0.12564300829720723	
2.325	0.443	-0.0987200037394854	
2.33	-0.002	-0.06879799569290228	
2.335	-0.396	-0.04317829099907364	
2.34	0.175	-0.023447361633699888	
2.345	0.260	-0.012353533182880634	
2.35	-0.424	-0.012298029072791008	
2.355	-0.219	-0.021208896064274063	
2.36	0.291	-0.0438208755479391	
2.365	-0.350	-0.07457373135190433	
2.37	-0.436	-0.10164621554467321	
2.375	0.227	-0.12267475615082932	
2.38	-0.138	-0.1408208717470138	
2.385	-0.504	-0.15421215676533961	
2.39	-0.022	-0.15737003597699284	
2.395	0.107	-0.16433986192721683	
2.4	-0.494	-0.17039712232271698	
2.405	-0.253	-0.16913623476940437	
2.41	0.275	-0.1667102269745856	
2.415	-0.347	-0.1647217077200488	
2.42	-0.396	-0.15768634140858817	
2.425	0.509	-0.13446178704775158	
2.43	0.352	-0.07886576499664907	
2.435	-0.025	0.013633640986100613	
2.44	0.947	0.14282313730362295	
2.445	0.858	0.29173844343701816	
2.45	-0.317	0.399312343141128	
2.455	-0.311	0.40077955759253026	
2.46	-0.123	0.28241066720546426	
2.465	-0.623	0.08918573352630652	
2.47	-0.686	-0.10373645784109434	
2.475	-0.111	-0.25630359443130774	
2.48	-0.262	-0.36389291370787324	
2.485	-0.538	-0.40848056301719776	
2.49	0.002	-0.3870234608836284	
2.495	0.213	-0.3342085317835914	
2.5	-0.413	-0.2658421296240129	
2.505	-0.167	-0.19299813982625114	
2.51	0.494	-0.12933120475940119	
2.515	-0.230	-0.07613355421793098	
2.52	-0.288	-0.03385157039765597	
2.525	0.558	0.0030541241361835246	
2.53	0.103	0.035925835892013876	
2.535	-0.341	0.061141219609916427	
2.54	0.358	0.08129052242699836	
2.545	0.527	0.10393183337300811	
2.55	-0.263	0.1277437759070792	
2.555	0.054	0.14610275569015177	
2.56	0.806	0.1620157863053776	
2.565	-0.007	0.1865910777171457	
2.57	-0.030	0.21400968832071318	
2.575	1.032	0.2534149544629482	
2.58	0.597	0.31988227960477666	
2.585	-0.050	0.3898720439096793	
2.59	0.870	0.4454632964485989	
2.595	0.986	0.500041593630715	
2.6	-0.021	0.5435446045983197	
2.605	0.373	0.553087310962703	
2.61	0.997	0.539111637341037	
2.615	0.074	0.5155580261136994	
2.62	-0.108	0.47096005901109483	
2.625	0.724	0.41035915335352735	
2.63	0.143	0.3459050623517226	
2.635	-0.378	0.2749726119152152	
2.64	0.240	0.20236560341711402	
2.645	0.307	0.13397085557183133	
2.65	-0.402	0.07576153604821936	
2.655	-0.182	0.028098962509033112	
2.66	0.356	-0.014096823442254944	
2.665	-0.309	-0.052294844521133144	
2.67	-0.382	-0.0768669081319803	
2.675	0.347	-0.08784804780199856	
2.68	-0.060	-0.09212125701116146	
2.685	-0.431	-0.09080030851910384	
2.69	0.114	-0.08072473256051155	
2.695	0.254	-0.0731927944624114	
2.7	-0.408	-0.06708988554845897	
2.705	-0.150	-0.05684623978222553	
2.71	0.431	-0.050258981274587874	
2.715	-0.268	-0.04727679122594693	
2.72	-0.333	-0.042755245146107956	
2.725	0.436	-0.03492496992134815	
2.73	-0.016	-0.028192265992296572	
2.735	-0.411	-0.02371871545070761	
2.74	0.175	-0.017703372460143692	
2.745	0.292	-0.016272873732304217	
2.75	-0.367	-0.014080618417815327	
2.755	-0.083	-0.007772657443607848	
2.76	0.536	0.0007134917700355741	
2.765	-0.208	0.010667097327637466	
2.77	-0.269	0.021294387479724394	
2.775	0.628	0.03811392676595753	
2.78	0.204	0.06675591693498202	
2.785	-0.315	0.0982808916463546	
2.79	0.339	0.1203348685826183	
2.795	0.413	0.130682238572279	
2.8	-0.338	0.12989939165932687	
2.805	-0.071	0.11626481679478891	
2.81	0.562	0.09667874156233988	
2.815	-0.218	0.07765667779478183	
2.82	-0.324	0.059353941372161614	
2.825	0.368	0.03705975283615953	
2.83	-0.082	0.007689919776908185	
2.835	-0.443	-0.023623836581066565	
2.84	0.129	-0.04362595506550436	
2.845	0.205	-0.0584043655482924	
2.85	-0.448	-0.07207258673204381	
2.855	-0.196	-0.07864663132290575	
2.86	0.362	-0.0863733632106201	
2.865	-0.300	-0.09240758522159087	
2.87	-0.352	-0.09156694346729974	
2.875	0.475	-0.07787921042572112	
2.88	0.262	-0.044376540657132514	
2.885	-0.024	0.021382918611887222	
2.89	1.131	0.14150607084012226	
2.895	1.173	0.31760640260972867	
2.9	-0.076	0.48178763250908485	
2.905	-0.044	0.5452484597700156	
2.91	0.187	0.48159370060543794	
2.915	-0.514	0.3225939074203896	
2.92	-0.608	0.1334264633512467	
2.925	-0.054	-0.04690195676484018	
2.93	-0.254	-0.19833716330738552	
2.935	-0.521	-0.28956333737441853	
2.94	0.092	-0.3075366139098019	
2.945	0.249	-0.27843865863611345	
2.95	-0.385	-0.22312207453523777	
2.955	-0.117	-0.15758069143507392	
2.96	0.490	-0.09835806473961299	
2.965	-0.239	-0.05150910255439616	
2.97	-0.274	-0.01656134925949638	
2.975	0.608	0.01620501469186944	
2.98	0.127	0.05054997161117166	
2.985	-0.294	0.081281446663431	
2.99	0.472	0.1115538345394613	
2.995	0.594	0.14860337350808167	
3.0	-0.236	0.1847360606320187	
3.005	0.100	0.2054192098966102	
3.01	0.834	0.2187590477820392	
3.015	0.039	0.23847082926003713	
3.02	-0.022	0.25937543177344924	
3.025	1.032	0.29024266951026045	
3.03	0.638	0.3476232509832526	
3.035	0.028	0.4162753327578731	
3.04	0.979	0.4794525911628324	
3.045	1.101	0.5506208393907319	
3.05	0.089	0.6138804465710557	
3.055	0.533	0.6422986303744722	
3.06	1.118	0.646582032389704	
3.065	0.172	0.635707330149616	
3.07	-0.025	0.5934180904154094	
3.075	0.815	0.5268464953121754	
3.08	0.194	0.4527625731407634	
3.085	-0.324	0.37063746239460615	
3.09	0.233	0.28004544734311065	
3.095	0.230	0.18644963689302788	
3.1	-0.439	0.09846360702863136	
3.105	-0.214	0.023189538246279798	
3.11	0.336	-0.038909301875617634	
3.115	-0.341	-0.08482350291304991	
3.12	-0.434	-0.11429378338922305	
3.125	0.208	-0.1347524063479298	
3.13	-0.175	-0.15415054334979167	
3.135	-0.526	-0.16980722727282882	
3.14	-0.053	-0.17734763294276007	
3.145	0.054	-0.1888522681917194	
3.15	-0.492	-0.19798891969293086	
3.155	-0.256	-0.19584625135878153	
3.16	0.217	-0.1914196585156767	
3.165	-0.376	-0.19052462643083312	
3.17	-0.439	-0.18601316652729832	
3.175	0.188	-0.18019697686790842	
3.18	-0.193	-0.18016316833127474	
3.185	-0.549	-0.1854084444546168	
3.19	-0.082	-0.18957310494355195	
3.195	0.001	-0.20309140913496218	
3.2	-0.512	-0.21765752352436443	
3.205	-0.271	-0.2198172945764298	
3.21	0.265	-0.21371900625062273	
3.215	-0.318	-0.20037051212593848	
3.22	-0.366	-0.17782510705046856	
3.225	0.344	-0.14842832003728731	
3.23	-0.099	-0.12019528314226419	
3.235	-0.437	-0.10119356792599263	
3.24	0.159	-0.08367008642260883	
3.245	0.243	-0.06721309584765443	
3.25	-0.427	-0.05549939896355974	
3.255	-0.236	-0.05383919097391563	
3.26	0.236	-0.06989485855523947	
3.265	-0.361	-0.0972665782732822	
3.27	-0.433	-0.12273528937664745	
3.275	0.193	-0.1415806143534703	
3.28	-0.199	-0.1601798581741157	
3.285	-0.567	-0.1790534233720663	
3.29	-0.126	-0.19575894239761188	
3.295	-0.063	-0.2222964640569724	
3.3	-0.547	-0.24938292176471943	
3.305	-0.321	-0.25978886635209175	
3.31	0.111	-0.26396200328843644	
3.315	-0.437	-0.2682793197278355	
3.32	-0.539	-0.2676895997698231	
3.325	0.016	-0.2695660791639807	
3.33	-0.196	-0.27724472214408724	
3.335	-0.375	-0.2680555973101554	
3.34	0.690	-0.19858012325488164	
3.345	1.038	-0.04722437520052147	
3.35	-0.019	-0.25978886635209175	
3.355	0.088	-0.26396200328843644	
3.36	0.295	-0.2676895997698231	
3.365	-0.533	-0.2676895997698231	
3.37	-0.712	0.13323733493369228	
3.375	-0.210	-0.03849046848100379	
3.38	-0.390	-0.21121373065981822	
3.385	-0.684	-0.3370789542322819	
3.39	-0.172	-0.399578442042291	
3.395	-0.071	-0.42028862925298915	
3.4	-0.546	-0.41156510738264424	
3.405	-0.263	-0.3716553846067243	
3.41	0.262	-0.31781735730784966	
3.415	-0.350	-0.26352858815085534	
3.42	-0.391	-0.213709320869677	
3.425	0.317	-0.16828006079418517	
3.43	-0.111	-0.1344065611877786	
3.435	-0.451	-0.11230474344987151	
3.44	0.146	-0.09334537810386964	
3.445	0.300	-0.07424134623285944	
3.45	-0.372	-0.052881564164718536	
3.455	-0.105	-0.032565784714023355	
3.46	0.553	-0.014572380854621175	
3.465	-0.167	0.008239443486988872	
3.47	-0.184	0.033198700175563985	
3.475	0.786	0.07002720603373395	
3.48	0.391	0.13154892950760888	
3.485	-0.135	0.200470626188769	
3.49	0.797	0.2678257006220039	
3.495	0.915	0.34686344219748433	
3.5	-0.051	0.4219217626842155	
3.505	0.391	0.4614058564253779	
3.51	0.991	0.4785363913144376	
3.515	0.059	0.48322013678722436	
3.52	-0.086	0.4581097681972328	
3.525	0.805	0.4109634009127302	
3.53	0.214	0.3676355899860958	
3.535	-0.308	0.31755602863456717	
3.54	0.298	0.2566237747052641	
3.545	0.237	0.18981663907610385	
3.55	-0.472	0.11722273548681866	
3.555	-0.277	0.04031947632295202	
3.56	0.149	-0.04373898612892857	
3.565	-0.419	-0.12147951338644837	
3.57	-0.488	-0.17769699014615897	
3.575	0.046	-0.21740615494914653	
3.58	-0.263	-0.2513350319746624	
3.585	-0.573	-0.27307858070850133	
3.59	-0.089	-0.27656620566944734	
3.595	-0.044	-0.27740101736042844	
3.6	-0.584	-0.27948665350864754	
3.605	-0.355	-0.2766253272384389	
3.61	0.071	-0.2780147882454451	
3.615	-0.445	-0.28340695205443467	
3.62	-0.494	-0.2815201518813476	
3.625	0.124	-0.27055753234932356	
3.63	-0.216	-0.2614192894366119	
3.635	-0.588	-0.2529400488697819	
3.64	-0.147	-0.24657947051335538	
3.645	-0.060	-0.25552974448120636	
3.65	-0.552	-0.2674402114746033	
3.655	-0.303	-0.2675125564125027	
3.66	0.152	-0.26207085646598116	
3.665	-0.404	-0.2555037845731468	
3.67	-0.428	-0.24143274701133025	
3.675	0.278	-0.2174720729348923	
3.68	-0.166	-0.1925527805192641	
3.685	-0.504	-0.17198716021095406	
3.69	0.071	-0.15540269367556897	
3.695	0.167	-0.14155139629471802	
3.7	-0.457	-0.12861777939071944	
3.705	-0.181	-0.11640884425343441	
3.71	0.419	-0.10495509338300002	
3.715	-0.288	-0.08967489927929204	
3.72	-0.362	-0.07545692508997	
3.725	0.323	-0.06831240639255214	
3.73	-0.144	-0.07064907789092202	
3.735	-0.509	-0.08309050360833116	
3.74	-0.013	-0.10224312409892745	
3.745	0.051	-0.128558558145449	
3.75	-0.515	-0.1557764099952419	
3.755	-0.269	-0.1722826522212463	
3.76	0.080	-0.19186362618614888	
3.765	-0.446	-0.21788873436914144	
3.77	-0.462	-0.2354209742226647	
3.775	0.230	-0.2350533539182162	
3.78	-0.190	-0.22580517183428028	
3.785	-0.565	-0.21527303768780734	
3.79	-0.086	-0.2079577659394686	
3.795	0.065	-0.2115281270199807	
3.8	-0.384	-0.2081081272596077	
3.805	0.252	-0.16307286699946294	
3.81	1.287	-0.0435102917482008	
3.815	0.461	0.14781545317837544	
3.82	0.199	0.34039942014888774	
3.825	0.709	0.46220210135524037	
3.83	-0.224	0.476021466671011	
3.835	-0.758	0.36941196120032005	
3.84	-0.382	0.17827225208879138	
3.845	-0.303	-0.047407469579922604	
3.85	-0.683	-0.24534897660710625	
3.855	-0.346	-0.3639770281628265	
3.86	0.193	-0.4073385358262108	
3.865	-0.379	-0.39742765536501856	
3.87	-0.401	-0.34858539881117284	
3.875	0.312	-0.281401558233615	
3.88	-0.153	-0.22006173746546048	
3.885	-0.446	-0.17180914049222415	
3.89	0.240	-0.1253667541652223	
3.895	0.350	-0.077315417108029	
3.9	-0.362	-0.030841989319452628	
3.905	-0.059	0.004076044363608637	
3.91	0.571	0.027000807998619966	
3.915	-0.201	0.045224464818584234	
3.92	-0.224	0.059220396815139166	
3.925	0.730	0.07803874929587024	
3.93	0.286	0.1159025133512099	
3.935	-0.221	0.16082989160438543	
3.94	0.645	0.2038788504156418	
3.945	0.742	0.25587170361355277	
3.95	-0.080	0.30984155666556734	
3.955	0.532	0.3580989080792622	
3.96	1.293	0.4222920659925918	
3.965	0.397	0.5101029320303562	
3.97	0.332	0.5860410144725787	
3.975	1.302	0.6431566019556543	
3.98	0.684	0.6929628043660165	
3.985	-0.054	0.7077008901208317	
3.99	0.823	0.6777769010198554	
3.995	0.742	0.6299599995138983	
4.0	-0.234	0.5669622130297962	
4.005	0.007	0.4709070676766569	
4.01	0.519	0.3531264519904622	
4.015	-0.279	0.2374044768081807	
4.02	-0.358	0.13312248832577744	
4.025	0.275	0.04379228762068771	
4.03	-0.187	-0.035881571034563874	
4.035	-0.532	-0.0989079984197233	
4.04	-0.051	-0.14352719538799324	
4.045	-0.004	-0.1842265860622013	
4.05	-0.535	-0.2155922884985905	
4.055	-0.289	-0.2280931427957788	
4.06	0.136	-0.23424522615352986	
4.065	-0.445	-0.24339794810117168	
4.07	-0.495	-0.24566840956535743	
4.075	0.065	-0.2465045130874896	
4.08	-0.233	-0.25493355412277297	
4.085	-0.543	-0.25765103556018565	
4.09	-0.066	-0.24760744578415136	
4.095	-0.057	-0.24641297608510346	
4.1	-0.585	-0.2534845638543154	
4.105	-0.317	-0.2550006094991286	
4.11	0.056	-0.2603592945466092	
4.115	-0.480	-0.2744630759139787	
4.12	-0.504	-0.28055860188213066	
4.125	0.141	-0.27543042876440715	
4.13	-0.221	-0.26906294378456574	
4.135	-0.536	-0.2567107860086681	
4.14	0.017	-0.2344202948204959	
4.145	0.124	-0.2124129797526073	
4.15	-0.451	-0.1897041129127286	
4.155	-0.164	-0.1598730840392501	
4.16	0.432	-0.13016548867171235	
4.165	-0.279	-0.09971675106561778	
4.17	-0.337	-0.07263358460568457	
4.175	0.536	-0.046125331665892895	
4.18	0.132	-0.011169122819361573	
4.185	-0.297	0.02904195193831194	
4.19	0.402	0.06883156106508273	
4.195	0.451	0.10466601633098856	
4.2	-0.317	0.12898058771641518	
4.205	-0.021	0.13621276130642734	
4.21	0.497	0.1220490443651841	
4.215	-0.323	0.0940440019388724	
4.22	-0.384	0.05430223931474226	
4.225	0.375	0.011139101927573362	
4.23	-0.095	-0.028280458876636043	
4.235	-0.433	-0.05513661335712343	
4.24	0.194	-0.0649181339932243	
4.245	0.193	-0.06629086839098425	
4.25	-0.440	-0.06828440378249766	
4.255	-0.155	-0.06663901550938092	
4.26	0.419	-0.06773645199871683	
4.265	-0.239	-0.06421422873391429	
4.27	-0.126	-0.04272350917564132	
4.275	1.249	0.029503054065740227	
4.28	0.921	0.18364920764381323	
4.285	0.136	0.3726033295733313	
4.29	0.741	0.5152052294188223	
4.295	0.280	0.5616925365520473	
4.3	-0.643	0.49145027515463896	
4.305	-0.527	0.32440427276770323	
4.31	-0.213	0.0953675953247505	
4.315	-0.594	-0.13532382199995002	
4.32	-0.535	-0.29664420926397683	
4.325	0.173	-0.37037408370364666	
4.33	-0.170	-0.3835576774540478	
4.335	-0.466	-0.3504164716650902	
4.34	0.150	-0.28342782182428866	
4.345	0.231	-0.212312223640664	
4.35	-0.398	-0.14780057328536209	
4.355	-0.108	-0.09030289602996151	
4.36	0.475	-0.0504279823557237	
4.365	-0.266	-0.024795307785973872	
4.37	-0.248	-0.004714498129567138	
4.375	0.675	0.022050024991117325	
4.38	0.204	0.061182502438919435	
4.385	-0.253	0.10623787022464246	
4.39	0.559	0.15100328092304605	
4.395	0.611	0.1957638857568942	
4.4	-0.218	0.23472447366201774	
4.405	0.307	0.261908477815627	
4.41	0.986	0.2929294687272328	
4.415	0.117	0.33283085820905495	
4.42	0.153	0.37318262444226125	
4.425	1.189	0.41744639523155314	
4.43	0.675	0.48104958380171076	
4.435	0.040	0.5409605605905733	
4.44	0.945	0.5802434059786434	
4.445	0.892	0.6048313667975207	
4.45	-0.121	0.605477765877402	
4.455	0.375	0.5719607355071308	
4.46	0.953	0.5240488463313996	
4.465	-0.068	0.4747280066256728	
4.47	-0.193	0.4091526887469963	
4.475	0.585	0.32746563695188674	
4.48	-0.025	0.24102501581905877	
4.485	-0.396	0.15902561735602005	
4.49	0.240	0.09325633554220207	
4.495	0.246	0.04178101345454971	
4.5	-0.419	0.002582792508342047	
4.505	-0.149	-0.020980832624177846	
4.51	0.365	-0.04307443839289911	
4.515	-0.332	-0.06625742122952788	
4.52	-0.330	-0.07570299594804066	
4.525	0.481	-0.0705636279473704	
4.53	-0.031	-0.05707409799154585	
4.535	-0.370	-0.03891869794087908	
4.54	0.300	-0.01368019928963439	
4.545	0.300	0.007685916651482752	
4.55	-0.395	0.02051397700074505	
4.555	-0.059	0.028116956392011238	
4.56	0.552	0.028952790052365632	
4.565	-0.231	0.03062117656833588	
4.57	-0.253	0.03631622052193286	
4.575	0.527	0.04253918426878692	
4.58	-0.039	0.042824412042762536	
4.585	-0.366	0.03800775334772061	
4.59	0.379	0.041473938743222666	
4.595	0.451	0.05570039275759162	
4.6	-0.285	0.07936917837283973	
4.605	0.124	0.10720372044124325	
4.61	0.721	0.13305945331291513	
4.615	-0.135	0.1564626574790769	
4.62	-0.158	0.17128143040587523	
4.625	0.794	0.18170815413880764	
4.63	0.231	0.19977894044062608	
4.635	-0.218	0.21889103600602994	
4.64	0.645	0.23957136926752723	
4.645	0.599	0.26373082819278937	
4.65	-0.266	0.28025134115956557	
4.655	0.117	0.27520682345893255	
4.66	0.709	0.25411966801797803	
4.665	-0.181	0.22844075222268598	
4.67	-0.222	0.19726401241378144	
4.675	0.588	0.16371030316673332	
4.68	0.010	0.130784734437317	
4.685	-0.356	0.10191329801518467	
4.69	0.387	0.08455365480538768	
4.695	0.385	0.07972193921883662	
4.7	-0.384	0.07830982770080486	
4.705	-0.117	0.0702008012876506	
4.71	0.487	0.049059763383368774	
4.715	-0.274	0.024487515388146586	
4.72	-0.283	0.01131981666177044	
4.725	0.620	0.011660225771913394	
4.73	0.275	0.035786752401774584	
4.735	0.042	0.09700840731426356	
4.74	1.379	0.21957473109935355	
4.745	1.382	0.4147072803947217	
4.75	0.060	0.6073201030476517	
4.755	0.066	0.6930504747411528	
4.76	0.129	0.6228732850881499	
4.765	-0.590	0.43057967607862446	
4.77	-0.630	0.19739844414957278	
4.775	-0.077	-0.023497371214805975	
4.78	-0.305	-0.20817495488064838	
4.785	-0.510	-0.3167910518361168	
4.79	0.164	-0.3345297778476153	
4.795	0.228	-0.29745166865595707	
4.8	-0.408	-0.23449851239310565	
4.805	-0.079	-0.16071166423444475	
4.81	0.538	-0.09514538290766901	
4.815	-0.259	-0.04251327895741787	
4.82	-0.256	-0.0005262034624765172	
4.825	0.619	0.03256276195328632	
4.83	0.066	0.0606521149457971	
4.835	-0.332	0.08209526245999757	
4.84	0.461	0.10157721673847699	
4.845	0.529	0.12652669706024056	
4.85	-0.256	0.1533739807714969	
4.855	0.230	0.18037225957065012	
4.86	0.880	0.21094120966779822	
4.865	-0.015	0.24739034569242496	
4.87	-0.027	0.27646246894419835	
4.875	0.997	0.3016453514410412	
4.88	0.541	0.3436442110207941	
4.885	0.037	0.398085573532222	
4.89	1.072	0.4595854187935852	
4.895	1.044	0.5355123343483652	
4.9	0.053	0.6034088769719246	
4.905	0.597	0.6363174221899875	
4.91	1.136	0.6448285881130038	
4.915	0.088	0.636519036667922	
4.92	0.005	0.5935050957808206	
4.925	0.947	0.5303877590215855	
4.93	0.275	0.47174342247115053	
4.935	-0.292	0.4113407188915297	
4.94	0.358	0.3372487678192154	
4.945	0.265	0.2533767571139741	
4.95	-0.434	0.16690081649359828	
4.955	-0.137	0.08922332514810585	
4.96	0.353	0.018400060382920802	
4.965	-0.376	-0.04006584210760253	
4.97	-0.408	-0.08122304676699225	
4.975	0.300	-0.10914881777290228	
4.98	-0.152	-0.13020589937138918	
4.985	-0.463	-0.13814262237185118	
4.99	0.127	-0.1310590746256824	
4.995	0.149	-0.12391833972857696	
5.0	-0.449	-0.11764095342627257	
5.005	-0.146	-0.10476533183646011	
5.01	0.318	-0.09804832513580139	
5.015	-0.361	-0.09985843439669811	
5.02	-0.373	-0.10095412028642656	
5.025	0.335	-0.10049731264923298	
5.03	-0.152	-0.1032731275757939	
5.035	-0.460	-0.10581345169712966	
5.04	0.098	-0.10419012850593147	
5.045	0.053	-0.11115153236942651	
5.05	-0.486	-0.12441335621203062	
5.055	-0.156	-0.12967627062701131	
5.06	0.379	-0.12727019061627595	
5.065	-0.311	-0.11780037376102911	
5.07	-0.323	-0.09978290623508829	
5.075	0.452	-0.07862962997608614	
5.08	-0.086	-0.059355101155641535	
5.085	-0.404	-0.04366618010255442	
5.09	0.315	-0.027194117800923262	
5.095	0.326	-0.005260333602647487	
5.1	-0.393	0.014659207032862945	
5.105	-0.097	0.024355198427656162	
5.11	0.379	0.015598985462494578	
5.115	-0.340	-0.005783554508495071	
5.12	-0.323	-0.025675198076833074	
5.125	0.393	-0.040704268647038	
5.13	-0.147	-0.054409761608536666	
5.135	-0.472	-0.06855965018673837	
5.14	0.155	-0.0771970083366037	
5.145	0.161	-0.08536079110154488	
5.15	-0.445	-0.08928575958864837	
5.155	-0.164	-0.0875533882874972	
5.16	0.284	-0.09346981898557417	
5.165	-0.362	-0.10584069973170857	
5.17	-0.356	-0.11057977405930183	
5.175	0.327	-0.10967346938335155	
5.18	-0.175	-0.1125331039489774	
5.185	-0.416	-0.11254738964294905	
5.19	0.556	-0.08402765216793855	
5.195	0.930	0.0026279986367393686	
5.2	0.231	0.1496249233423366	
5.205	0.819	0.3245518792356332	
5.21	1.066	0.48555051301691965	
5.215	-0.219	-0.10584069973170857	
5.22	-0.440	-0.10967346938335155	
5.225	-0.134	0.38036916383035974	
5.23	-0.465	0.15044019539038575	
5.235	-0.672	-0.06953977841311322	
5.24	-0.051	-0.22294660357993734	
5.245	0.051	-0.30840810283508413	
5.25	-0.456	-0.32944523902260847	
5.255	-0.126	-0.29533856614564424	
5.26	0.416	-0.2383600743811428	
5.265	-0.298	-0.17612288508986018	
5.27	-0.282	-0.11655533231417978	
5.275	0.559	-0.06140071233040466	
5.28	-0.012	-0.014724108821612465	
5.285	-0.344	0.020257379641113224	
5.29	0.429	0.05024055418448964	
5.295	0.405	0.07958620892807933	
5.3	-0.335	0.10425662482350789	
5.305	0.033	0.11474231218886514	
5.31	0.637	0.1158329282450574	
5.315	-0.156	0.11868444764255731	
5.32	-0.109	0.12638991120521526	
5.325	0.913	0.14983776646115582	
5.33	0.355	0.19923793578863253	
5.335	-0.100	0.25810541002372045	
5.34	0.957	0.3193618878726592	
5.345	0.997	0.40166356122795016	
5.35	0.075	0.49015865750158827	
5.355	0.733	0.5597193400756239	
5.36	1.246	0.6188780897199837	
5.365	0.202	0.6617025351294848	
5.37	0.156	0.663304100808009	
5.375	1.134	0.6357146400306715	
5.38	0.426	0.6063653789259285	
5.385	-0.208	0.5632070423863529	
5.39	0.553	0.4920673623650028	
5.395	0.417	0.4096362158559046	
5.4	-0.379	0.3215353580917202	
5.405	-0.118	0.22753877829492164	
5.41	0.353	0.12654971994866593	
5.415	-0.364	0.03514544186947187	
5.42	-0.407	-0.03449794381909523	
5.425	0.201	-0.08980559367003155	
5.43	-0.250	-0.1405277478495398	
5.435	-0.526	-0.17729052899331268	
5.44	0.049	-0.19225287262721974	
5.445	-0.010	-0.2026351594211726	
5.45	-0.550	-0.21100622338446237	
5.455	-0.257	-0.2104425547533768	
5.46	0.150	-0.21487076273297892	
5.465	-0.443	-0.22366972246540662	
5.47	-0.440	-0.22224331199083996	
5.475	0.191	-0.21710659156817977	
5.48	-0.231	-0.21561070968055432	
5.485	-0.497	-0.2100070658354963	
5.49	0.120	-0.19132441495109204	
5.495	0.056	-0.1748520459988534	
5.5	-0.517	-0.1638645723804151	
5.505	-0.214	-0.15532881861921993	
5.51	0.228	-0.15604322684801386	
5.515	-0.433	-0.1637078683446898	
5.52	-0.442	-0.17008572243425862	
5.525	0.204	-0.17613462220362586	
5.53	-0.218	-0.18674823905229831	
5.535	-0.469	-0.1879268507727695	
5.54	0.187	-0.17220553408972583	
5.545	0.172	-0.14696764412663021	
5.55	-0.408	-0.1179303713539238	
5.555	-0.033	-0.08516327067544585	
5.56	0.542	-0.05103525938845607	
5.565	-0.276	-0.01688116205902431	
5.57	-0.282	0.007984487782202091	
5.575	0.541	0.020989940001916403	
5.58	-0.059	0.030102934054828508	
5.585	-0.384	0.03201978019030401	
5.59	0.292	0.028936942154627762	
5.595	0.205	0.02297083886839197	
5.6	-0.465	0.010965251264785418	
5.605	-0.158	-0.010054729468803342	
5.61	0.254	-0.044036271998688425	
5.615	-0.419	-0.08299373371904586	
5.62	-0.407	-0.11391065171311043	
5.625	0.283	-0.13592903230970754	
5.63	-0.195	-0.15203904023409776	
5.635	-0.482	-0.15695675724007566	
5.64	0.121	-0.1508971177730731	
5.645	-0.001	-0.1501483779710037	
5.65	-0.550	-0.15716039524309994	
5.655	-0.219	-0.1648415827860479	
5.66	0.240	-0.17399289726516629	
5.665	-0.259	-0.17423587935550128	
5.67	0.043	-0.13378145189933474	
5.675	1.354	-0.018635515642980275	
5.68	0.794	0.17578099851646087	
5.685	0.017	0.3778553799582531	
5.69	0.548	-0.1508971177730731	
5.695	-0.057	-0.1501483779710037	
5.7	-0.747	0.37260335920660614	
5.705	-0.488	0.17829782818250042	
5.71	-0.182	-0.03989114665242686	
5.715	-0.558	-0.23339724843538398	
5.72	-0.448	-0.3467124043385942	
5.725	0.283	-0.3754983657664944	
5.73	-0.169	-0.3524239192040831	
5.735	-0.424	-0.29616120379548727	
5.74	0.277	-0.21935994747930365	
5.745	0.249	-0.14323511624373247	
5.75	-0.375	-0.07767929003587884	
5.755	0.030	-0.022463639412408386	
5.76	0.561	0.017310298599020384	
5.765	-0.234	0.04816247185525193	
5.77	-0.227	0.06819185702626213	
5.775	0.661	0.07987648884367016	
5.78	0.140	0.09836572140703073	
5.785	-0.234	0.12355766712657269	
5.79	0.622	0.15601108398730823	
5.795	0.619	0.19781859113977174	
5.8	-0.163	0.24394980178415684	
5.805	0.429	0.2847336616984042	
5.81	1.029	0.330557292090312	
5.815	0.194	0.3858555217549859	
5.82	0.370	0.44518119954929564	
5.825	1.391	0.5161854812575779	
5.83	0.776	0.6062078681950889	
5.835	0.228	0.6873654234345278	
5.84	1.221	0.7422015791573374	
5.845	1.076	0.7848241603042314	
5.85	0.060	0.8027802456880984	
5.855	0.611	0.7777710433744487	
5.86	1.009	0.7255828292889219	
5.865	-0.066	0.6548104256561175	
5.87	-0.097	0.5551797422872398	
5.875	0.730	0.4421082766495099	
5.88	-0.022	0.3362432141711379	
5.885	-0.350	0.24052316497153764	
5.89	0.391	0.16208824391441815	
5.895	0.219	0.10375885546730701	
5.9	-0.427	0.058044325420231774	
5.905	-0.066	0.022740797842850283	
5.91	0.417	-0.0076408050689332424	
5.915	-0.333	-0.02995978084998642	
5.92	-0.298	-0.04067400460098264	
5.925	0.457	-0.04418656286525781	
5.93	-0.129	-0.04472456443696493	
5.935	-0.399	-0.04422190112306096	
5.94	0.257	-0.03811913617252065	
5.945	0.147	-0.036393292032423974	
5.95	-0.453	-0.03969830021423497	
5.955	-0.105	-0.04428410244214504	
5.96	0.349	-0.05487895537720049	
5.965	-0.344	-0.06681450880451764	
5.97	-0.300	-0.07054562808102952	
5.975	0.455	-0.0653863431743669	
5.98	-0.140	-0.05872630481728187	
5.985	-0.424	-0.054052066377679515	
5.99	0.260	-0.047217182733680654	
5.995	0.259	-0.038478288411416775	
6.0	-0.378	-0.02454877803754389	
6.005	0.011	-0.005282177406859076	
6.01	0.489	0.007988796132701455	
6.015	-0.297	0.017248475654226388	
6.02	-0.243	0.022522327623460237	
6.025	0.584	0.027505391806108892	
6.03	-0.031	0.03627212587278934	
6.035	-0.318	0.046059185368164175	
6.04	0.449	0.059724796821851396	
6.045	0.318	0.0774471238758489	
6.05	-0.378	0.08853994978242666	
6.055	-0.027	0.08570603337964348	
6.06	0.431	0.06588165508403963	
6.065	-0.332	0.03933048063813939	
6.07	-0.318	0.013590529965128896	
6.075	0.367	-0.013624397316969154	
6.08	-0.193	-0.04372831569917612	
6.085	-0.465	-0.06980880685256673	
6.09	0.127	-0.08834213115890881	
6.095	0.019	-0.10965078688012064	
6.1	-0.492	-0.1303450522048347	
6.105	-0.170	-0.13921918337321262	
6.11	0.233	-0.149223077034724	
6.115	-0.430	-0.15969949606532025	
6.12	-0.388	-0.1622953841627514	
6.125	0.394	-0.1556085743399885	
6.13	-0.002	-0.13483283922076642	
6.135	-0.106	-0.08375823024292288	
6.14	1.206	0.02983363642573223	
6.145	1.134	0.21933709582510438	
6.15	-0.065	0.4135069754423385	
6.155	0.150	0.515707958761249	
6.16	0.173	0.48672921251281737	
6.165	-0.637	0.34826099674026684	
6.17	-0.665	0.1546991586375343	
6.175	-0.158	-0.05162972347546447	
6.18	-0.413	-0.23779690403720707	
6.185	-0.594	-0.35467729600278664	
6.19	0.034	-0.3922207826982371	
6.195	0.028	-0.3807665432777486	
6.2	-0.483	-0.3383818814502144	
6.205	-0.124	-0.2740584321843108	
6.21	0.399	-0.21126278221784778	
6.215	-0.303	-0.15086473593189845	
6.22	-0.251	-0.0951750586951115	
6.225	0.550	-0.0465182624460964	
6.23	-0.056	-0.007054782713835925	
6.235	-0.335	0.021214416495798808	
6.24	0.431	0.045994010710417844	
6.245	0.379	0.07114207787755117	
6.25	-0.295	0.0964028781411604	
6.255	0.181	0.119135006354414	
6.26	0.609	0.13682673342089235	
6.265	-0.205	0.1468850097991258	
6.27	-0.045	0.15288401663343343	
6.275	0.947	0.17271744754360022	
6.28	0.346	0.22181280131098735	
6.285	-0.073	0.28011058193813476	
6.29	0.967	0.3391698038911921	
6.295	0.848	0.4101400213627986	
6.3	-0.079	0.47326658889609774	
6.305	0.539	0.5031602700181459	
6.31	0.997	0.5138644117472038	
6.315	-0.010	0.5128865090303288	
6.32	0.030	0.48485279431043166	
6.325	0.877	0.4396005428101874	
6.33	0.091	0.3928777427789902	
6.335	-0.291	0.3362356101834386	
6.34	0.455	0.27195988421856915	
6.345	0.262	0.21009346512867488	
6.35	-0.422	0.1525896683010563	
6.355	-0.117	0.093051802402005	
6.36	0.272	0.02558118417223697	
6.365	-0.402	-0.03879018306783421	
6.37	-0.353	-0.0839752209907146	
6.375	0.298	-0.11278447958221922	
6.38	-0.228	-0.13505247010720156	
6.385	-0.462	-0.14639984892742441	
6.39	0.202	-0.1412801363663322	
6.395	0.101	-0.13110862068247242	
6.4	-0.445	-0.11808167037657813	
6.405	-0.094	-0.10193622147385745	
6.41	0.301	-0.09371797241907381	
6.415	-0.376	-0.09265812469685641	
6.42	-0.349	-0.0928097386143395	
6.425	0.265	-0.09801737079762683	
6.43	-0.231	-0.11410253123273448	
6.435	-0.468	-0.12818421572888367	
6.44	0.175	-0.13034434827158958	
6.445	0.049	-0.13026867738924933	
6.45	-0.446	-0.1289590077847313	
6.455	-0.085	-0.1178422321252826	
6.46	0.284	-0.10984791955836502	
6.465	-0.372	-0.10769554692631347	
6.47	-0.306	-0.10067944691461223	
6.475	0.461	-0.08899974838708796	
6.48	-0.111	-0.07321846874653543	
6.485	-0.388	-0.054166074063665096	
6.49	0.321	-0.03423629753005096	
6.495	0.162	-0.019347513417595278	
6.5	-0.427	-0.013060415539431077	
6.505	-0.045	-0.011721987471847054	
6.51	0.370	-0.01981069063713705	
6.515	-0.399	-0.032849945894683846	
6.52	-0.366	-0.04963747129360093	
6.525	0.307	-0.07287723050280659	
6.53	-0.219	-0.09835299556398505	
6.535	-0.472	-0.11620830975319471	
6.54	0.135	-0.12504669856688308	
6.545	0.017	-0.13541365849683923	
6.55	-0.497	-0.1442185266571725	
6.555	-0.140	-0.14452429180688764	
6.56	0.240	-0.1467422577704106	
6.565	-0.420	-0.15111296881144815	
6.57	-0.347	-0.14853810655822222	
6.575	0.420	-0.1376173231133423	
6.58	-0.022	-0.11460031522638878	
6.585	-0.100	-0.06532015921652197	
6.59	1.156	0.04135879458937327	
6.595	1.038	0.21457854512395305	
6.6	-0.063	-0.12969948838604972	
6.605	0.245	-0.11460031522638878	
6.61	0.291	-0.10313324056872303	
6.615	-0.549	0.36759593802522944	
6.62	-0.536	0.20543179398938616	
6.625	0.027	0.028628150877695102	
6.63	-0.288	-0.12969948838604972	
6.635	-0.454	-0.22542820059962182	
6.64	0.283	-0.24544860033822488	
6.645	0.191	-0.21747132862715157	
6.65	-0.378	-0.1647670309884354	
6.655	0.021	-0.10313324056872303	
6.66	0.512	-0.050429121522332095	
6.665	-0.250	-0.005715039451198414	
6.67	-0.131	0.03349459596800952	
6.675	0.770	0.0729599107067569	
6.68	0.071	0.11600266319899477	
6.685	-0.236	0.15229986698033332	
6.69	0.635	0.17988905671612118	
6.695	0.526	0.2105158099189919	
6.7	-0.210	0.24088169954569733	
6.705	0.399	0.2650774810933615	
6.71	0.851	0.2897801810226076	
6.715	-0.030	0.31598447178372946	
6.72	0.199	0.3384881213129213	
6.725	1.165	0.37223802535605166	
6.73	0.529	0.4298799921861894	
6.735	0.138	0.4921597514977308	
6.74	1.208	0.5540679338922505	
6.745	1.107	0.6285390869420362	
6.75	0.190	0.7007477826175941	
6.755	0.857	0.7470925815892935	
6.76	1.217	0.7708091272964619	
6.765	0.161	0.7709650782375044	
6.77	0.207	0.7314505196222174	
6.775	1.000	0.6641454651313252	
6.78	0.210	0.5889349603903871	
6.785	-0.190	0.5052638578692297	
6.79	0.642	0.419901752532382	
6.795	0.347	0.3455040152917734	
6.8	-0.373	0.27500494527468133	
6.805	0.007	0.20199320832405127	
6.81	0.382	0.12560015608956593	
6.815	-0.332	0.05726959585968076	
6.82	-0.256	0.009578580770097413	
6.825	0.439	-0.019184004876198278	
6.83	-0.163	-0.03996272741279369	
6.835	-0.396	-0.0504445804587311	
6.84	0.342	-0.04735533992944198	
6.845	0.227	-0.035623307506880475	
6.85	-0.370	-0.01667422718441642	
6.855	0.059	0.00493551529399173	
6.86	0.448	0.01833046253231887	
6.865	-0.332	0.023450563537797835	
6.87	-0.251	0.021683549222758995	
6.875	0.481	0.014551742345552387	
6.88	-0.118	0.005074509513890273	
6.885	-0.384	-0.0022242952280366888	
6.89	0.323	-0.0035283781224656097	
6.895	0.187	-0.00474734156834226	
6.9	-0.388	-0.004448280209202309	
6.905	0.086	0.003930919989759748	
6.91	0.535	0.017142258882487674	
6.915	-0.253	0.03458236173524671	
6.92	-0.190	0.051792823181672554	
6.925	0.559	0.06036222428224634	
6.93	-0.071	0.06307040338768582	
6.935	-0.297	0.06295021265734851	
6.94	0.510	0.07137984384943447	
6.945	0.307	0.08815328246151552	
6.95	-0.356	0.1026967044738893	
6.955	0.040	0.10290597181696001	
6.96	0.428	0.08697367279665266	
6.965	-0.324	0.06269435209423271	
6.97	-0.279	0.03689498655711457	
6.975	0.378	0.008193216961808334	
6.98	-0.187	-0.02392140464363341	
6.985	-0.424	-0.049876234289675025	
6.99	0.260	-0.06272277772993021	
6.995	0.098	-0.06995920532329837	
7.0	-0.442	-0.0731372143380668	
7.005	-0.071	-0.07104900078989228	
7.01	0.277	-0.07618218450158973	
7.015	-0.401	-0.08727371535209144	
7.02	-0.337	-0.09497659988764995	
7.025	0.346	-0.1018782377675132	
7.03	-0.144	-0.10600429681636328	
7.035	-0.236	-0.09176629729379013	
7.04	1.008	-0.023630809939333104	
7.045	1.037	0.1230037717573666	
7.05	0.037	0.3028495341216761	
7.055	0.484	0.4389130792026886	
7.06	0.507	0.48870388515325375	
7.065	-0.480	0.4447195238428183	
7.07	-0.526	0.3170257099278337	
7.075	-0.071	0.1339995519752156	
7.08	-0.399	-0.05894588412702417	
7.085	-0.543	-0.20259345565813303	
7.09	0.114	-0.27276694306050175	
7.095	-0.007	-0.2941497748723872	
7.1	-0.472	-0.27994546418280886	
7.105	-0.065	-0.23893407842299025	
7.11	0.320	-0.19341598765015103	
7.115	-0.388	-0.15225888950050692	
7.12	-0.266	-0.11576503071150392	
7.125	0.509	-0.0830198123076959	
7.13	-0.115	-0.05213929620228524	
7.135	-0.332	-0.023572623668121864	
7.14	0.486	0.007318426489548685	
7.145	0.333	0.0437192629955298	
7.15	-0.315	0.07998969642424542	
7.155	0.202	0.10818391451898954	
7.16	0.603	0.12855276234837898	
7.165	-0.216	0.14365008156307335	
7.17	-0.047	0.15232520081899234	
7.175	0.913	0.169013359769331	
7.18	0.286	0.21179764951841656	
7.185	-0.008	0.26748767335144374	
7.19	1.095	0.33432924818254095	
7.195	0.916	0.42665922620332686	
7.2	0.017	0.5170730685100653	
7.205	0.704	0.5711384751212725	
7.21	1.079	0.6024013278281068	
7.215	0.049	0.6158325736187816	
7.22	0.162	0.5913624445153307	
7.225	0.935	0.5436598157307484	
7.23	0.049	0.48594333412955304	
7.235	-0.294	0.4087870710056109	
7.24	0.404	0.3138838247087928	
7.245	0.091	0.2155525288968269	
7.25	-0.472	0.12167080673031516	
7.255	-0.134	0.03493192336561089	
7.26	0.143	-0.047070454139572476	
7.265	-0.469	-0.1175981289546271	
7.27	-0.379	-0.16441396929044286	
7.275	0.196	-0.19299129270945373	
7.28	-0.309	-0.2128550750470306	
7.285	-0.532	-0.22164877616222903	
7.29	0.024	-0.22360942637179415	
7.295	-0.146	-0.23270462136646666	
7.3	-0.584	-0.24472568254084007	
7.305	-0.211	-0.24817281002780808	
7.31	0.063	-0.2535785017541546	
7.315	-0.489	-0.25923289523541937	
7.32	-0.399	-0.2551729164435641	
7.325	0.138	-0.24748016094340705	
7.33	-0.355	-0.2478276062146916	
7.335	-0.556	-0.24823996756057323	
7.34	-0.021	-0.2478614574539989	
7.345	-0.147	-0.2569371697309648	
7.35	-0.553	-0.264376735238481	
7.355	-0.213	-0.26013770512593865	
7.36	-0.002	-0.261906959407208	
7.365	-0.491	-0.2691193551290414	
7.37	-0.373	-0.265936811688253	
7.375	0.216	-0.251667984712709	
7.38	-0.269	-0.2349439625933633	
7.385	-0.469	-0.2140218328810325	
7.39	0.147	-0.18983664428679786	
7.395	-0.033	-0.17314475177045513	
7.4	-0.471	-0.16133264714552792	
7.405	-0.042	-0.14596550977390427	
7.41	0.289	-0.1300090136931057	
7.415	-0.408	-0.11524107565488409	
7.42	-0.285	-0.10379883125458288	
7.425	0.400	-0.09563173597125565	
7.43	-0.190	-0.08510693799109872	
7.435	-0.388	-0.07497446977975766	
7.44	0.271	-0.06570300916386936	
7.445	-0.025	-0.06326958359568233	
7.45	-0.535	-0.07540457673533271	
7.455	-0.179	-0.09882494652225732	
7.46	0.069	-0.13704483997741312	
7.465	-0.475	-0.17736381935272738	
7.47	-0.358	-0.20066049167049108	
7.475	0.223	-0.20954988542843583	
7.48	-0.338	-0.21429329646633632	
7.485	-0.517	-0.21496192932482802	
7.49	0.123	-0.21049761354510768	
7.495	-0.062	-0.20538118778983677	
7.5	-0.514	-0.1985482165508479	
7.505	-0.126	-0.18759320369041182	
7.51	0.327	-0.1749938335726817	
7.515	-0.175	-0.14262041857526297	
7.52	0.373	-0.06351884098444098	
7.525	1.429	0.08973072337711752	
7.53	0.527	0.29448272111726537	
7.535	-0.195	0.45283072348412257	
7.54	0.179	-0.18759320369041182	
7.545	-0.315	0.38351962670109085	
7.55	-0.813	0.1942859340390967	
7.555	-0.408	-0.01542572206923074	
7.56	-0.129	-0.20391951508380324	
7.565	-0.546	-0.33775821450326154	
7.57	-0.399	-0.39444843705827115	
7.575	0.190	-0.39320890135323694	
7.58	-0.272	-0.3606855592195145	
7.585	-0.408	-0.30704357802102744	
7.59	0.289	-0.2370242957590146	
7.595	0.042	-0.17059302179542132	
7.6	-0.413	-0.11893417091150917	
7.605	0.071	-0.0761645677385325	
7.61	0.408	-0.04186777979332671	
7.615	-0.332	-0.015168191900436657	
7.62	-0.187	0.001594100001582379	
7.625	0.599	0.015096042939569048	
7.63	-0.088	0.033057849371454784	
7.635	-0.263	0.050770099541184686	
7.64	0.678	0.07732159136066777	
7.645	0.501	0.12642529562952826	
7.65	-0.199	0.18577509132398884	
7.655	0.556	0.23998889504600782	
7.66	0.986	0.3023150302514523	
7.665	0.048	0.3716322271257961	
7.67	0.333	0.4255461921478891	
7.675	1.202	0.4712499495296825	
7.68	0.541	0.5300389540899509	
7.685	0.211	0.5836929770716094	
7.69	1.180	0.6252978358626435	
7.695	0.840	0.6654380079678472	
7.7	-0.066	0.6808275553096457	
7.705	0.568	0.6498667021833617	
7.71	0.780	0.5931997736315767	
7.715	-0.236	0.5188563254655179	
7.72	-0.150	0.41654777387076836	
7.725	0.529	0.29892266494077485	
7.73	-0.199	0.1902474613729601	
7.735	-0.433	0.0949919134400694	
7.74	0.127	0.010890118035309957	
7.745	-0.112	-0.06762941067155655	
7.75	-0.541	-0.1326213149050918	
7.755	-0.178	-0.17629951882877826	
7.76	0.013	-0.21321296243618576	
7.765	-0.510	-0.24569859385988024	
7.77	-0.359	-0.2572408902003581	
7.775	0.161	-0.25557573080900964	
7.78	-0.335	-0.25268027678296556	
7.785	-0.495	-0.24260979620976442	
7.79	0.051	-0.229397477204285	
7.795	-0.158	-0.22785259081822617	
7.8	-0.556	-0.23128524327248148	
7.805	-0.166	-0.23029639243322841	
7.81	0.017	-0.23451734490893214	
7.815	-0.518	-0.24557348940302753	
7.82	-0.408	-0.2500587026281764	
7.825	0.091	-0.2547785982806987	
7.83	-0.353	-0.26375990772761204	
7.835	-0.510	-0.26340042820560217	
7.84	0.082	-0.2523917531396025	
7.845	-0.124	-0.2440312017132007	
7.85	-0.527	-0.23522668093083857	
7.855	-0.121	-0.22113931081535523	
7.86	0.088	-0.21262925810656383	
7.865	-0.478	-0.21070272298912585	
7.87	-0.338	-0.2048876285832885	
7.875	0.248	-0.19770444352236052	
7.88	-0.272	-0.18998214817638454	
7.885	-0.420	-0.17637693359937862	
7.89	0.271	-0.1531572701764332	
7.895	-0.030	-0.13218151207508408	
7.9	-0.434	-0.11541103318736168	
7.905	0.056	-0.09787998654147019	
7.91	0.375	-0.07756463499095914	
7.915	-0.297	-0.050997394702762856	
7.92	-0.124	-0.022782116535284915	
7.925	0.564	0.004533843120713463	
7.93	-0.179	0.027760335751248942	
7.935	-0.361	0.03550555346376838	
7.94	0.371	0.030132106119242958	
7.945	0.037	0.01975200077257743	
7.95	-0.463	0.0013529600961292715	
7.955	-0.050	-0.023687643649290616	
7.96	0.204	-0.05647620657614441	
7.965	-0.442	-0.0892409097968993	
7.97	-0.312	-0.11170765172592348	
7.975	0.318	-0.12826214037424338	
7.98	-0.231	-0.13642231615094147	
7.985	-0.366	-0.12954163585958814	
7.99	0.378	-0.10659970169505259	
7.995	0.053	-0.07834737601125957	
8.0	-0.468	-0.057872611785400235	
8.005	-0.039	-0.05145307962289899	
8.01	0.274	-0.060396120345484486	
8.015	-0.283	-0.06553905929737819	
8.02	0.248	-0.035569801122891306	
8.025	1.447	0.0710667142377827	
8.03	0.770	0.2623708804076594	
8.035	0.223	0.4652755608272566	
8.04	0.727	0.5915515084537142	
8.045	-0.083	0.5945144070539454	
8.05	-0.694	0.4719088843963458	
8.055	-0.381	0.2677157428770851	
8.06	-0.219	0.031669298399892284	
8.065	-0.630	-0.1806933794531158	
8.07	-0.382	-0.3134581256437172	
8.075	0.298	-0.36283928383924763	
8.08	-0.242	-0.3508517976350761	
8.085	-0.381	-0.29666599053825743	
8.09	0.375	-0.22108395722391494	
8.095	0.100	-0.14554858278642488	
8.1	-0.373	-0.0802769678909015	
8.105	0.159	-0.026995302609134658	
8.11	0.428	0.011736586146619214	
8.115	-0.308	0.03789499000327937	
8.12	-0.137	0.05357559880015983	
8.125	0.651	0.06242456875506287	
8.13	-0.077	0.07586001441897933	
8.135	-0.218	0.09119062769925416	
8.14	0.713	0.11527168672595504	
8.145	0.440	0.15739880143854473	
8.15	-0.198	0.20444459686401434	
8.155	0.553	0.24723346736263582	
8.16	0.886	0.2958768471668326	
8.165	-0.025	0.3476369121633728	
8.17	0.347	0.3876060097019546	
8.175	1.186	0.43062222765921665	
8.18	0.414	0.48674863150344577	
8.185	0.115	0.5320920471545068	
8.19	1.137	0.5623439479436139	
8.195	0.796	0.5964106459805536	
8.2	-0.041	0.6184226480954504	
8.205	0.631	0.606164422464126	
8.21	0.783	0.571823934090201	
8.215	-0.155	0.5197766763705607	
8.22	-0.004	0.4445866490391386	
8.225	0.674	0.3573898390662076	
8.23	-0.137	0.274912918784114	
8.235	-0.329	0.19630972057003013	
8.24	0.361	0.12503297495168406	
8.245	-0.012	0.06036737465159841	
8.25	-0.465	0.002830124066054491	
8.255	-0.044	-0.0419823992165561	
8.26	0.159	-0.0844648383003506	
8.265	-0.448	-0.11985793238371784	
8.27	-0.297	-0.13929144219539438	
8.275	0.283	-0.1500052396375585	
8.28	-0.289	-0.1579743891347204	
8.285	-0.405	-0.15438042694592147	
8.29	0.298	-0.13923460659588854	
8.295	-0.012	-0.12077146360668056	
8.3	-0.446	-0.10586947310521427	
8.305	0.010	-0.09103911797683945	
8.31	0.202	-0.08772058742025068	
8.315	-0.440	-0.09369534528040624	
8.32	-0.301	-0.10017581079387418	
8.325	0.254	-0.11422739403262851	
8.33	-0.306	-0.13297622982811064	
8.335	-0.436	-0.14418926868206655	
8.34	0.181	-0.1473262774974367	
8.345	-0.071	-0.15190459762998215	
8.35	-0.446	-0.15172561406777044	
8.355	-0.028	-0.14195639033013288	
8.36	0.149	-0.13687523921553604	
8.365	-0.465	-0.14072254422446384	
8.37	-0.298	-0.14200944380680613	
8.375	0.297	-0.1452478489449952	
8.38	-0.279	-0.14713885728102583	
8.385	-0.395	-0.14110009055261624	
8.39	0.286	-0.12618267736397956	
8.395	-0.057	-0.11407241740890091	
8.4	-0.428	-0.1058182426647198	
8.405	0.155	-0.08872793876279542	
8.41	0.385	-0.0618688646722693	
8.415	-0.355	-0.03395460180792927	
8.42	-0.175	-0.011901861832079714	
8.425	0.530	-7.93566110263293e-05	
8.43	-0.185	0.009649013749061934	
8.435	-0.329	0.014832557226070863	
8.44	0.474	0.02005323765823418	
8.445	0.172	0.03086863357875804	
8.45	-0.344	0.04500301139812571	
8.455	0.205	0.05842220025791119	
8.46	0.402	0.06518026388209747	
8.465	-0.355	0.06385602713516028	
8.47	-0.196	0.05317062385109972	
8.475	0.419	0.03005314491921631	
8.48	-0.256	0.0014864023977301717	
8.485	-0.385	-0.024183736853049347	
8.49	0.284	-0.04375818522721379	
8.495	-0.033	-0.06324327238971536	
8.5	-0.443	-0.07912971215227366	
8.505	0.072	-0.08135467445234643	
8.51	0.295	-0.07878966238003843	
8.515	-0.399	-0.07338906200056608	
8.52	-0.224	-0.06569675545820235	
8.525	0.359	-0.0657488585560023	
8.53	-0.227	-0.0697791391203321	
8.535	-0.240	-0.06423183602102102	
8.54	0.939	-0.015392193311990862	
8.545	0.843	0.10069553457372059	
8.55	0.065	0.25560331574804274	
8.555	0.701	0.3918207348990191	
8.56	0.564	0.46924717485125406	
8.565	-0.453	0.4612941147406735	
8.57	-0.443	0.3613270941332385	
8.575	-0.149	0.1844136400669523	
8.58	-0.524	-0.02493996534988698	
8.585	-0.553	-0.19322623021365606	
8.59	0.207	-0.28217105646193186	
8.595	-0.025	-0.30745610424626135	
8.6	-0.425	-0.28254233921239447	
8.605	0.167	-0.22084325307985508	
8.61	0.425	-0.1456627231819381	
8.615	-0.303	-0.07200558891852363	
8.62	-0.068	-0.008468860152670211	
8.625	0.661	0.041735326137791066	
8.63	-0.117	0.08068418368422436	
8.635	-0.224	0.1065708026253714	
8.64	0.683	0.12820486362188166	
8.645	0.307	0.15542966005698383	
8.65	-0.262	0.18108177969309036	
8.655	0.501	0.20443356035696603	
8.66	0.729	0.23351975169442316	
8.665	-0.173	0.26363696909186785	
8.67	0.152	0.2815673880668404	
8.675	0.971	0.29604777201305993	
8.68	0.211	0.3235124036294522	
8.685	0.059	0.35642745758478944	
8.69	1.180	0.4004444396127992	
8.695	0.841	0.47144459598806654	
8.7	0.077	0.5479059860589841	
8.705	0.947	0.6054811296915099	
8.71	1.131	0.6525798253373905	
8.715	0.062	0.68258546243736	
8.72	0.362	0.6725256127725797	
8.725	1.066	0.637005568233147	
8.73	0.135	0.5915740495428014	
8.735	-0.131	0.527464139355044	
8.74	0.736	0.45025202599566183	
8.745	0.254	0.37646615939096373	
8.75	-0.332	0.30615827479813623	
8.755	0.210	0.23631099963855876	
8.76	0.329	0.165400486438343	
8.765	-0.396	0.0989379465358932	
8.77	-0.251	0.04057451391093044	
8.775	0.315	-0.01535872225099044	
8.78	-0.308	-0.06723204311172162	
8.785	-0.420	-0.10122950222202393	
8.79	0.332	-0.11406730953263895	
8.795	-0.033	-0.11563272271218743	
8.8	-0.446	-0.11047890468929002	
8.805	0.054	-0.09779243983919583	
8.81	0.252	-0.08887982804295819	
8.815	-0.399	-0.08382533793384715	
8.82	-0.201	-0.0743080199212264	
8.825	0.431	-0.06663744912567512	
8.83	-0.251	-0.061197852251481256	
8.835	-0.367	-0.056024325208857376	
8.84	0.368	-0.04823566655575311	
8.845	0.013	-0.04474680794044239	
8.85	-0.424	-0.04228139049601117	
8.855	0.120	-0.035796051906472795	
8.86	0.298	-0.03305101326914303	
8.865	-0.416	-0.03473916414900054	
8.87	-0.216	-0.03720610804595324	
8.875	0.394	-0.046769579550252884	
8.88	-0.276	-0.05822782623587829	
8.885	-0.395	-0.06688618163216034	
8.89	0.353	-0.06926360572034632	
8.895	-0.004	-0.06885487933751144	
8.9	-0.422	-0.06620119302804398	
8.905	0.190	-0.05372218045714168	
8.91	0.411	-0.03214445348486513	
8.915	-0.338	-0.0067514434610898835	
8.92	-0.129	0.014886166600875397	
8.925	0.577	0.027187293244515798	
8.93	-0.137	0.04071001875822113	
8.935	-0.262	0.05319174531331278	
8.94	0.539	0.06673949676305849	
8.945	0.080	0.07605459573103893	
8.95	-0.393	0.07483751112017009	
8.955	0.194	0.06631475580557294	
8.96	0.356	0.053767073930118495	
8.965	-0.391	0.039264077787677217	
8.97	-0.224	0.02096896458764201	
8.975	0.342	-0.008887568911498018	
8.98	-0.292	-0.043335553281922165	
8.985	-0.408	-0.07069712333337955	
8.99	0.288	-0.08625866795271742	
8.995	-0.065	-0.10004603047177975	
9.0	-0.453	-0.10709475083026443	
9.005	0.071	-0.10358499581160284	
9.01	0.298	-0.09533464468577592	
9.015	-0.401	-0.08279095407402781	
9.02	-0.230	-0.06988727381913659	
9.025	0.344	-0.0678936854295511	
9.03	-0.230	-0.0744992572151615	
9.035	-0.160	-0.06359985542085433	
9.04	1.180	0.004936728478645552	
9.045	1.015	0.15987362869779076	
9.05	0.222	0.35883184768181875	
9.055	0.751	0.5224702205984879	
9.06	0.483	-0.0678936854295511	
9.065	-0.504	-0.0678936854295511	
9.07	-0.439	0.41519232919095306	
9.075	-0.076	0.20808388867761518	
9.08	-0.475	-0.01156493339257646	
9.085	-0.492	-0.17444777768559774	
9.09	0.268	-0.25504869845601286	
9.095	-0.057	-0.27534133788127263	
9.1	-0.446	-0.2530881090928164	
9.105	0.169	-0.2022523386690745	
9.11	0.333	-0.14253154321918468	
9.115	-0.362	-0.0860342911764848	
9.12	-0.118	-0.04055730926435632	
9.125	0.571	-0.005840955171847685	
9.13	-0.190	0.021137186225275478	
9.135	-0.263	0.039535488547661576	
9.14	0.620	0.059133859921682665	
9.145	0.222	0.08648932024743106	
9.15	-0.280	0.11477995297536558	
9.155	0.497	0.14494472348671256	
9.16	0.686	0.18447252787122267	
9.165	-0.189	0.22480224971269586	
9.17	0.155	0.25152926864251207	
9.175	0.959	0.27424482865617544	
9.18	0.185	0.30805227889386955	
9.185	0.086	0.34654951291719144	
9.19	1.232	0.3971817653743276	
9.195	0.869	0.4794741787528186	
9.2	0.133	0.5688161839551034	
9.205	0.985	0.635874593112195	
9.21	1.115	0.6873774352331576	
9.215	0.074	0.714959702047764	
9.22	0.429	0.7015110786216112	
9.225	1.025	0.660978558511538	
9.23	0.056	0.6062275474555692	
9.235	-0.160	0.5257293072019178	
9.24	0.631	0.4277750206430462	
9.245	0.103	0.3294781903265298	
9.25	-0.391	0.23628821548438889	
9.255	0.117	0.1495975272133087	
9.26	0.173	0.06707174061944567	
9.265	-0.465	-0.0064900960739262105	
9.27	-0.248	-0.062428054997780445	
9.275	0.240	-0.10656557767392326	
9.28	-0.367	-0.14346331159893733	
9.285	-0.457	-0.1658615995621472	
9.29	0.191	-0.17672596744103955	
9.295	-0.146	-0.18461469689663224	
9.3	-0.509	-0.18718304519176074	
9.305	-0.025	-0.18061831424163233	
9.31	0.089	-0.17830800256803092	
9.315	-0.486	-0.18009417866960573	
9.32	-0.268	-0.1753198836539237	
9.325	0.252	-0.17200496357247358	
9.33	-0.355	-0.1713343779057088	
9.335	-0.454	-0.1695498311216748	
9.34	0.187	-0.16602938817840573	
9.345	-0.164	-0.17074590154983943	
9.35	-0.524	-0.17584989122919925	
9.355	-0.022	-0.1756804697421178	
9.36	0.085	-0.1785712183325563	
9.365	-0.497	-0.18290019771430072	
9.37	-0.268	-0.18018210116310773	
9.375	0.225	-0.17924655275710727	
9.38	-0.379	-0.1813410470353734	
9.385	-0.448	-0.18233151071311726	
9.39	0.202	-0.17912048874311068	
9.395	-0.143	-0.17789245741413479	
9.4	-0.472	-0.17369682799832983	
9.405	0.068	-0.15960892400236842	
9.41	0.214	-0.14173279124098032	
9.415	-0.434	-0.12289308204743327	
9.42	-0.218	-0.10704594167194542	
9.425	0.342	-0.09932736090960806	
9.43	-0.285	-0.09643693834936704	
9.435	-0.323	-0.08920253756637736	
9.44	0.484	-0.07107654259776738	
9.445	-0.002	-0.044027465961613374	
9.45	-0.419	-0.023679554596708296	
9.455	0.152	-0.013520141866137281	
9.46	0.249	-0.012823042347692198	
9.465	-0.440	-0.019934011810143742	
9.47	-0.242	-0.03494264541691615	
9.475	0.260	-0.06235735055748891	
9.48	-0.362	-0.09652026381062884	
9.485	-0.430	-0.12311969616284568	
9.49	0.207	-0.1410444152466342	
9.495	-0.189	-0.1581407109586334	
9.5	-0.521	-0.1736451623731034	
9.505	0.031	-0.17638440478174228	
9.51	0.130	-0.17389685655441753	
9.515	-0.486	-0.1690336185664557	
9.52	-0.266	-0.16080012366005442	
9.525	0.222	-0.16030382970071996	
9.53	-0.346	-0.1657077784585516	
9.535	-0.243	-0.15707928524172643	
9.54	1.067	-0.09379736541897496	
9.545	0.899	0.0578195505026052	
9.55	0.205	0.26021989279332136	
9.555	0.820	0.4376776167173943	
9.56	0.385	0.5330378428518072	
9.565	-0.607	0.5077747033581081	
9.57	-0.544	0.3642012637510068	
9.575	-0.222	0.14073663945001133	
9.58	-0.584	-0.0947275948976204	
9.585	-0.576	-0.269998942855716	
9.59	0.008	-0.3667921992816864	
9.595	-0.225	-0.40933519765716286	
9.6	-0.515	-0.40172504358942906	
9.605	0.042	-0.3520773259366874	
9.61	0.187	-0.28798308522732674	
9.615	-0.427	-0.22331992382895371	
9.62	-0.164	-0.16254215525487825	
9.625	0.443	-0.11416193962724971	
9.63	-0.250	-0.0750772389495981	
9.635	-0.318	-0.045027235878874104	
9.64	0.486	-0.021524372011705716	
9.645	0.040	0.00044049505675456345	
9.65	-0.344	0.018050877980510967	
9.655	0.336	0.03722845228077997	
9.66	0.500	0.06304064577935051	
9.665	-0.271	0.09437316404360625	
9.67	0.140	0.12363065124380948	
9.675	0.922	0.16104917248530862	
9.68	0.133	0.21867736145930386	
9.685	0.086	0.27995765709481524	
9.69	1.163	0.34571016103804086	
9.695	0.724	0.43233522730512	
9.7	0.103	0.5179448655261776	
9.705	1.081	0.5853446395678084	
9.71	1.136	0.6530030701812259	
9.715	0.089	0.7043254506883332	
9.72	0.521	0.7116506582034123	
9.725	1.073	0.6879252359328201	
9.73	0.030	0.6457223899349833	
9.735	-0.137	0.5660644556306522	
9.74	0.672	0.4614556194338282	
9.745	0.083	0.35834589741700806	
9.75	-0.387	0.2592986368482485	
9.755	0.146	0.16510344324577428	
9.76	0.120	0.07575498519262096	
9.765	-0.507	-0.00718703409542174	
9.77	-0.289	-0.07530910895890998	
9.775	0.165	-0.13455982818867918	
9.78	-0.433	-0.18396347137846683	
9.785	-0.494	-0.21555572440090792	
9.79	0.114	-0.23302706739048476	
9.795	-0.242	-0.24773241139510685	
9.8	-0.558	-0.254193226164515	
9.805	-0.063	-0.24910518040969243	
9.81	-0.054	-0.24961097830731782	
9.815	-0.565	-0.25481250015421636	
9.82	-0.312	-0.2541917363395281	
9.825	0.106	-0.25497494140774773	
9.83	-0.443	-0.25986989481002265	
9.835	-0.480	-0.25825109773345234	
9.84	0.138	-0.2502745354936168	
9.845	-0.227	-0.24588545449409954	
9.85	-0.565	-0.23991150334930772	
9.855	-0.092	-0.23411861842134726	
9.86	-0.065	-0.23986439991021502	
9.865	-0.550	-0.25168712142397764	
9.87	-0.276	-0.25201117717060706	
9.875	0.184	-0.24615274789073893	
9.88	-0.410	-0.2389557810168805	
9.885	-0.466	-0.22805448632066572	
9.89	0.143	-0.21828132042468898	
9.895	-0.230	-0.21708390926242066	
9.9	-0.550	-0.21882889441377554	
9.905	-0.047	-0.21594535976768028	
9.91	-0.013	-0.22001368374931354	
9.915	-0.541	-0.22680182268320376	
9.92	-0.268	-0.22580308275403127	
9.925	0.292	-0.21812901524494666	
9.93	-0.320	-0.20118458639108705	
9.935	-0.350	-0.17294706668944096	
9.94	0.397	-0.13807603283926537	
9.945	-0.068	-0.10430423264946208	
9.95	-0.399	-0.07592951138842575	
9.955	0.248	-0.049661472975176424	
9.96	0.266	-0.026069378653409633	
9.965	-0.390	-0.009066523242903819	
9.97	-0.082	-0.0006130718066409823	
9.975	0.455	1.1579805073214967e-06	
9.98	-0.309	-0.001471225752846452	
9.985	-0.346	-0.010928801713790378	
9.99	0.384	-0.023826001732591216	
9.995	-0.143	-0.039473228571426905	
10.0	-0.472	-0.058062908729608786	
10.005	0.118	-0.07441385300502815	
10.01	0.140	-0.08908353590207783	
10.015	-0.480	-0.10028212846537987	
10.02	-0.211	-0.10945090204819392	
10.025	0.291	-0.11987852037343233	
10.03	-0.350	-0.12969946862177448	
10.035	-0.350	-0.12988891059949992	
10.04	0.332	-0.12159330489367616	
10.045	-0.156	-0.11465174393351221	
10.05	-0.483	-0.11220459125516749	
10.055	0.086	-0.11114629588757106	
10.06	0.313	-0.10609522659244133	
10.065	-0.164	-0.07552859089427481	
10.07	0.704	0.01179242494217185	
10.075	1.464	0.17836404579716367	
10.08	0.356	0.3839884817346883	
10.085	-0.095	0.5259477763731851	
10.09	0.355	0.540567748727026	
10.095	-0.358	0.4332215479745476	
10.1	-0.759	0.24763711273277406	
10.105	-0.285	0.03802828975826597	
10.11	-0.205	-0.15804652169647213	
10.115	-0.599	-0.30366115128453597	
10.12	-0.262	-0.3681344595967141	
10.125	0.265	-0.3705895775153355	
10.13	-0.359	-0.33613992724747455	
10.135	-0.367	-0.2778966710029479	
10.14	0.387	-0.21314628226660226	
10.145	-0.080	-0.15492534679683528	
10.15	-0.391	-0.10549756267347876	
10.155	0.329	-0.05869206092352754	
10.16	0.344	-0.013079478026135459	
10.165	-0.367	0.023960579236953012	
10.17	-0.034	0.045974494847259656	
10.175	0.570	0.05461514876703018	
10.18	-0.240	0.060565018815548675	
10.185	-0.237	0.0630443854319656	
10.19	0.690	0.06917159292879704	
10.195	0.228	0.09397443862445141	
10.2	-0.208	0.13230606074580445	
10.205	0.692	0.17853478239614975	
10.21	0.736	0.23897192136522705	
10.215	-0.086	0.3027522405543067	
10.22	0.571	0.3590717851309984	
10.225	1.220	0.4257509207094844	
10.23	0.301	0.5044404429731366	
10.235	0.251	0.5629990696537917	
10.24	1.208	0.5982141822416512	
10.245	0.593	0.62795432901835	
10.25	-0.091	0.6322972571022469	
10.255	0.776	0.600441949383566	
10.26	0.660	0.5549368520216871	
10.265	-0.260	0.49693348495665945	
10.27	0.019	0.41197678581839325	
10.275	0.489	0.3074891419442404	
10.28	-0.306	0.20271090337848185	
10.285	-0.359	0.1082006964780321	
10.29	0.303	0.02582223768653756	
10.295	-0.201	-0.04499708098272135	
10.3	-0.509	-0.09923875304791632	
10.305	0.024	-0.1358115376613842	
10.31	-0.005	-0.16635585610622952	
10.315	-0.523	-0.1916133900551667	
10.32	-0.271	-0.20294180951924073	
10.325	0.094	-0.2149585882114706	
10.33	-0.442	-0.23312515242847823	
10.335	-0.430	-0.23847966992894065	
10.34	0.233	-0.2294899169087359	
10.345	-0.205	-0.21812970116642444	
10.35	-0.504	-0.20291885077148064	
10.355	-0.012	-0.1878766811944031	
10.36	-0.022	-0.1886306050760651	
10.365	-0.503	-0.19545335254026786	
10.37	-0.208	-0.19377390817062717	
10.375	0.225	-0.18916093494543365	
10.38	-0.401	-0.1861917972281993	
10.385	-0.390	-0.17827817720751665	
10.39	0.281	-0.1665194761501353	
10.395	-0.219	-0.1593237443400301	
10.4	-0.512	-0.15682350942042478	
10.405	0.049	-0.1547212352914985	
10.41	0.013	-0.16078179127843684	
10.415	-0.532	-0.1715443473645441	
10.42	-0.231	-0.17658129876011056	
10.425	0.236	-0.18215840129535493	
10.43	-0.372	-0.18439473669539547	
10.435	-0.376	-0.17516759552711683	
10.44	0.304	-0.159347996252782	
10.445	-0.169	-0.1475383825947137	
10.45	-0.446	-0.13489113806545944	
10.455	0.205	-0.1164313142801854	
10.46	0.179	-0.0968583438386427	
10.465	-0.420	-0.07881448406485847	
10.47	-0.071	-0.062347563133166965	
10.475	0.448	-0.048012016887090204	
10.48	-0.291	-0.03473666973162655	
10.485	-0.233	-0.021133664393638465	
10.49	0.632	-1.5572213457681373e-05	
10.495	0.053	0.03225196010769449	
10.5	-0.291	0.0639056025598416	
10.505	0.504	0.09387919957498568	
10.51	0.434	0.12715465195213682	
10.515	-0.341	0.14987873141838726	
10.52	-0.041	0.14978349243774286	
10.525	0.454	0.12215420547531067	
10.53	-0.303	0.08403143746539675	
10.535	-0.309	0.04685871970972076	
10.54	0.446	0.014198632316647293	
10.545	-0.100	-0.00988211162630544	
10.55	-0.417	-0.027198351791535683	
10.555	0.237	-0.03490692336896673	
10.56	0.213	-0.03787958266028191	
10.565	-0.399	-0.03729792240704109	
10.57	-0.051	-0.030018588548065574	
10.575	0.452	-0.024743766499590626	
10.58	-0.309	-0.02022432653618205	
10.585	-0.297	-0.017094015491531514	
10.59	0.533	-0.01257268750352549	
10.595	0.130	0.003931640063031221	
10.6	-0.051	0.047708390726732004	
10.605	1.220	0.14540969427023837	
10.61	1.200	0.31412597528400305	
10.615	0.021	0.48942022579402805	
10.62	0.228	0.5830025732136215	
10.625	0.292	0.5552884937703056	
10.63	-0.535	0.4236033421278115	
10.635	-0.576	0.236923219987237	
10.64	-0.047	0.03853470067525902	
10.645	-0.305	-0.14013257391036685	
10.65	-0.495	-0.25427786864952207	
10.655	0.214	-0.2844934572911074	
10.66	0.199	-0.2599745049033494	
10.665	-0.422	-0.20762056433111314	
10.67	-0.045	-0.1457250875062082	
10.675	0.553	-0.08860730911063519	
10.68	-0.222	-0.0336023867394453	
10.685	-0.204	0.013996748190777276	
10.69	0.663	0.053731111325923155	
10.695	0.069	0.08862994428641012	
10.7	-0.286	0.11454537080991002	
10.705	0.509	0.13571738287955443	
10.71	0.443	0.15497936653496727	
10.715	-0.276	0.17116021636933904	
10.72	0.222	0.18244063492980603	
10.725	0.756	0.195503617316614	
10.73	-0.114	0.21118622273797094	
10.735	-0.022	0.22402852896407496	
10.74	1.002	0.24392093990325509	
10.745	0.477	0.2915360931403309	
10.75	-0.037	0.3524823972457595	
10.755	0.992	0.4098297122234739	
10.76	0.945	0.47695253787257047	
10.765	-0.004	0.5371178879392761	
10.77	0.613	0.5694622351058891	
10.775	1.116	0.5864325300747886	
10.78	0.121	0.5942336225428079	
10.785	0.123	0.5770928388007297	
10.79	0.956	0.538711574015636	
10.795	0.176	0.49354240667584054	
10.8	-0.260	0.4297187089948804	
10.805	0.492	0.35461220639381946	
10.81	0.301	0.27980393876889387	
10.815	-0.401	0.20750428759094217	
10.82	-0.088	0.1354081321706099	
10.825	0.291	0.06005687073189382	
10.83	-0.407	-0.012438691966914064	
10.835	-0.382	-0.06765950550506648	
10.84	0.286	-0.1077254300450424	
10.845	-0.214	-0.13740617348369205	
10.85	-0.465	-0.1528353619182279	
10.855	0.155	-0.1496574849276006	
10.86	0.039	-0.14545919601455817	
10.865	-0.486	-0.1441050232872712	
10.87	-0.152	-0.13756551979839854	
10.875	0.265	-0.13630881039017054	
10.88	-0.372	-0.1372733279287282	
10.885	-0.344	-0.13043751141429244	
10.89	0.344	-0.122005181127479	
10.895	-0.161	-0.11447517003674985	
10.9	-0.425	-0.10657287674522802	
10.905	0.207	-0.09274487624813932	
10.91	0.107	-0.08365581343118371	
10.915	-0.439	-0.07993567435259236	
10.92	-0.100	-0.07447505135977148	
10.925	0.327	-0.07550408489062109	
10.93	-0.366	-0.08026743782708246	
10.935	-0.340	-0.08226998652379747	
10.94	0.335	-0.08609019958853173	
10.945	-0.179	-0.09359559533000163	
10.95	-0.433	-0.09844108342985994	
10.955	0.201	-0.09467895021698935	
10.96	0.109	-0.09080501007667173	
10.965	-0.437	-0.08793422927689451	
10.97	-0.065	-0.08031835723182118	
10.975	0.376	-0.0735669184780057	
10.98	-0.320	-0.06639742152809543	
10.985	-0.260	-0.05513971168230471	
10.99	0.541	-0.03900730663555005	
10.995	-0.059	-0.016760656759526555	
11.0	-0.332	0.004556871571891301	
11.005	0.457	0.028480673987689404	
11.01	0.335	0.05811381850373889	
11.015	-0.321	0.08395584983407053	
11.02	0.121	0.10180303792243958	
11.025	0.567	0.11044941518702396	
11.03	-0.234	0.11547723605694184	
11.035	-0.213	0.11090645852500855	
11.04	0.526	0.09604660358031211	
11.045	-0.105	0.07614684378545736	
11.05	-0.381	0.05257134739909079	
11.055	0.300	0.03255480429401246	
11.06	0.185	0.015044138267604559	
11.065	-0.414	0.000941733322809099	
11.07	-0.030	-0.008095688487048907	
11.075	0.419	-0.017588598422193145	
11.08	-0.349	-0.02359268630788431	
11.085	-0.324	-0.03099685753892785	
11.09	0.428	-0.03992877184929544	
11.095	-0.146	-0.048959166597237286	
11.1	-0.385	-0.05237827185670453	
11.105	0.432	-0.0393461214874216	
11.11	0.649	0.005972130400793838	
11.115	0.127	0.09895374674531282	
11.12	0.979	0.24204945497950217	
11.125	1.325	0.42136221810952057	
11.13	0.021	0.573265951738989	
11.135	-0.210	0.6159723346110548	
11.14	0.170	0.526989691754392	
11.145	-0.431	0.34298160789972854	
11.15	-0.671	0.12971810937457876	
11.155	-0.083	-0.057345582218054914	
11.16	-0.062	-0.20110766999860452	
11.165	-0.500	-0.2809613777517866	
11.17	-0.129	-0.29490385495383764	
11.175	0.336	-0.26974947440475483	
11.18	-0.324	-0.22466427138332914	
11.185	-0.251	-0.1667736121994676	
11.19	0.539	-0.10697949888673222	
11.195	-0.092	-0.05216287899604123	
11.2	-0.355	-0.012236496702499664	
11.205	0.365	0.015729954746706798	
11.21	0.223	0.03472580940746438	
11.215	-0.382	0.04293820097178042	
11.22	0.069	0.046209023861702905	
11.225	0.570	0.05122989317056842	
11.23	-0.230	0.06222547999005965	
11.235	-0.147	0.07429666872042551	
11.24	0.735	0.09107467825863047	
11.245	0.127	0.119770293344027	
11.25	-0.163	0.15379654586117072	
11.255	0.858	0.1997913039766667	
11.26	0.809	0.2737033628522081	
11.265	-0.068	0.3569621739657826	
11.27	0.620	0.4201852695031745	
11.275	1.144	0.47715070660193	
11.28	0.182	0.5333353604346728	
11.285	0.254	0.5633066547940038	
11.29	1.093	0.5708348505970007	
11.295	0.350	0.5688846081364966	
11.3	-0.143	0.5430063108128189	
11.305	0.693	0.4914300604104776	
11.31	0.443	0.4336117263819662	
11.315	-0.341	0.36844115004795736	
11.32	-0.007	0.28498326050516687	
11.325	0.294	0.18471054619781543	
11.33	-0.414	0.08384125258694065	
11.335	-0.384	-0.004471267144595825	
11.34	0.207	-0.07878584269152776	
11.345	-0.286	-0.13992967441209497	
11.35	-0.541	-0.1824023759361409	
11.355	-0.022	-0.20905055522198185	
11.36	-0.124	-0.23468029620210873	
11.365	-0.578	-0.2569037265041788	
11.37	-0.233	-0.26306582424693525	
11.375	0.033	-0.267851250591161	
11.38	-0.492	-0.27579784223652526	
11.385	-0.419	-0.2731626910535151	
11.39	0.153	-0.2632965408442447	
11.395	-0.298	-0.25494756378832517	
11.4	-0.515	-0.24395765057092217	
11.405	0.057	-0.2282921524839222	
11.41	-0.088	-0.21995427147062005	
11.415	-0.544	-0.21855913632510676	
11.42	-0.207	-0.21402670430780743	
11.425	0.048	-0.21918683901668679	
11.43	-0.478	-0.23166691145307183	
11.435	-0.379	-0.2359396067943236	
11.44	0.230	-0.22851285471852456	
11.445	-0.272	-0.218026814198722	
11.45	-0.517	-0.20673948171854667	
11.455	0.046	-0.19733434831509533	
11.46	-0.068	-0.1981251152429826	
11.465	-0.546	-0.20344763479935335	
11.47	-0.208	-0.2049209630795136	
11.475	0.060	-0.21432423680747928	
11.48	-0.500	-0.2297104250511123	
11.485	-0.443	-0.23979924128589275	
11.49	0.114	-0.24753227167508438	
11.495	-0.266	-0.2541692444832323	
11.5	-0.428	-0.24464510157686561	
11.505	0.225	-0.21317617742040457	
11.51	0.031	-0.17527130620208714	
11.515	-0.468	-0.14356318154973166	
11.52	-0.070	-0.12071922645800964	
11.525	0.375	-0.10229913089303425	
11.53	-0.359	-0.08293175907181145	
11.535	-0.308	-0.06971342554399336	
11.54	0.362	-0.06637175063245866	
11.545	-0.184	-0.06836540967648266	
11.55	-0.407	-0.07071081637551457	
11.555	0.260	-0.06896852539183566	
11.56	0.045	-0.06834853989239162	
11.565	-0.501	-0.07371730201159679	
11.57	-0.153	-0.08754236323602532	
11.575	0.143	-0.11326919630005718	
11.58	-0.469	-0.14514368011928008	
11.585	-0.373	-0.16759329276490348	
11.59	0.277	-0.17918508613223635	
11.595	-0.260	-0.18358156614633547	
11.6	-0.477	-0.17877016245249933	
11.605	0.176	-0.16769775087531977	
11.61	-0.050	-0.15944930229106674	
11.615	-0.547	-0.15995215937290647	
11.62	-0.175	-0.1632889851600468	
11.625	0.239	-0.171153532217308	
11.63	-0.308	-0.16746152178830948	
11.635	0.051	-0.12948746032930242	
11.64	1.327	-0.15995215937290647	
11.645	0.762	0.1652197278902073	
11.65	0.107	0.3690346509084321	
11.655	0.623	0.49948270833618474	
11.66	-0.039	-0.15995215937290647	
11.665	-0.689	0.40480454068346927	
11.67	-0.417	0.2208917058208702	
11.675	-0.185	0.004901630685383421	
11.68	-0.568	-0.1886453815069225	
11.685	-0.407	-0.3083382629185749	
11.69	0.240	-0.35173037693781123	
11.695	-0.295	-0.34606754377150817	
11.7	-0.439	-0.30989774644264967	
11.705	0.318	-0.25009898337426983	
11.71	0.107	-0.181672876550186	
11.715	-0.410	-0.1204170370403953	
11.72	0.069	-0.06878662680866236	
11.725	0.497	-0.02700668298330597	
11.73	-0.266	0.010926122957819091	
11.735	-0.184	0.038684002447869834	
11.74	0.609	0.055549712436448004	
11.745	-0.070	0.0696647977222337	
11.75	-0.294	0.07794257429474108	
11.755	0.570	0.0882231597675099	
11.76	0.402	0.11328750767986775	
11.765	-0.251	0.14433342061365045	
11.77	0.428	0.17742125705853004	
11.775	0.901	0.2241167864490057	
11.78	0.051	0.28570276437600306	
11.785	0.317	0.34572725770508306	
11.79	1.203	0.4107189598308567	
11.795	0.507	0.4865584432583231	
11.8	0.162	0.5498767078792302	
11.805	1.188	0.5982889797349326	
11.81	0.950	0.6502741836034619	
11.815	0.033	0.6883223640165282	
11.82	0.626	0.6853582333890699	
11.825	0.849	0.6490205613745635	
11.83	-0.141	0.5868232518359062	
11.835	-0.062	0.49374063995910267	
11.84	0.678	0.3864803118969995	
11.845	-0.109	0.28870072058174456	
11.85	-0.370	0.19813014370949208	
11.855	0.249	0.1139770996704439	
11.86	-0.066	0.032179198261725966	
11.865	-0.538	-0.044235146037293595	
11.87	-0.184	-0.10673919144471311	
11.875	0.031	-0.16431833311995167	
11.88	-0.518	-0.21581631614450503	
11.885	-0.439	-0.2470682977359772	
11.89	0.077	-0.2669402877507927	
11.895	-0.355	-0.28424696740457556	
11.9	-0.526	-0.2875109308513588	
11.905	0.043	-0.27524666842386913	
11.91	-0.152	-0.2670247925210674	
11.915	-0.601	-0.26396000859247737	
11.92	-0.196	-0.2577134477496076	
11.925	0.138	-0.25256715932378493	
11.93	-0.466	-0.24573300395909994	
11.935	-0.388	-0.2299112872972929	
11.94	0.187	-0.21809275705645081	
11.945	-0.312	-0.21433865398172058	
11.95	-0.503	-0.21036164831300824	
11.955	0.092	-0.20223037374185515	
11.96	-0.114	-0.20217481766090933	
11.965	-0.536	-0.20592408172613114	
11.97	-0.144	-0.2035683502120068	
11.975	0.146	-0.20265616923538957	
11.98	-0.457	-0.2028635456600355	
11.985	-0.352	-0.19576072847533926	
11.99	0.236	-0.1890054628059672	
11.995	-0.295	-0.18654552677975395	
12.0	-0.468	-0.18135589977680633	
12.005	0.231	-0.16799053029239708	
12.01	-0.051	-0.15529882932923234	
12.015	-0.517	-0.14812542652217214	
12.02	-0.112	-0.14433173547229602	
12.025	0.262	-0.14457859273205492	
12.03	-0.393	-0.14216091586548962	
12.035	-0.274	-0.128660434926006	
12.04	0.423	-0.11173870024477263	
12.045	-0.208	-0.09480874566082274	
12.05	-0.376	-0.0784836327890598	
12.055	0.408	-0.057641645129480654	
12.06	0.205	-0.02936974265150365	
12.065	-0.367	0.000571791833119856	
12.07	0.141	0.025928934754580295	
12.075	0.478	0.04456125360515238	
12.08	-0.277	0.058476707216648494	
12.085	-0.138	0.06740184899864779	
12.09	0.658	0.07456980010985695	
12.095	-0.070	0.08694868061170412	
12.1	-0.277	0.09536860687920076	
12.105	0.507	0.10066615625956091	
12.11	0.228	0.10656794839339358	
12.115	-0.364	0.10731308451101419	
12.12	0.121	0.09913992456060311	
12.125	0.400	0.0826690490936779	
12.13	-0.353	0.06021434462812415	
12.135	-0.254	0.03546589860629612	
12.14	0.422	0.006773251992823233	
12.145	-0.214	-0.020244009634608335	
12.15	-0.396	-0.04069338440547407	
12.155	0.397	-0.04707949283829048	
12.16	0.150	-0.03950652790312927	
12.165	-0.395	-0.024875982885013397	
12.17	0.034	-0.010655661164557031	
12.175	0.329	-0.010272164129073329	
12.18	-0.344	-0.017040743304104464	
12.185	-0.085	-0.013417675825456858	
12.19	1.101	0.028025023184039252	
12.195	0.730	0.14459154097302293	
12.2	0.573	0.32726647988751106	
12.205	1.459	0.5361363240418308	
12.21	0.675	-0.010655661164557031	
12.215	-0.446	-0.010655661164557031	
12.22	-0.285	0.6534539180586	
12.225	-0.222	0.4147234674682938	
12.23	-0.631	0.13281411783627517	
12.235	-0.407	-0.093223454628518	
12.24	0.283	-0.2308693128397267	
12.245	-0.245	-0.2906704304147957	
12.25	-0.385	-0.28470133950876597	
12.255	0.404	-0.23258254876026474	
12.26	0.159	-0.16080470992748896	
12.265	-0.372	-0.09022006065696186	
12.27	0.216	-0.025142100817100735	
12.275	0.585	0.03277262682258717	
12.28	-0.227	0.08241113255884362	
12.285	-0.080	0.11984448826117908	
12.29	0.735	0.14133882214193966	
12.295	0.022	0.16000643916867016	
12.3	-0.153	0.1781934925016072	
12.305	0.860	0.20574505856148112	
12.31	0.609	0.25709813025174516	
12.315	-0.149	0.313550878921409	
12.32	0.596	0.3570818856459058	
12.325	0.974	0.39582778448455275	
12.33	0.101	0.43819884793902614	
12.335	0.458	0.47896402519535547	
12.34	1.318	0.5284616116015175	
12.345	0.631	0.5958568377346898	
12.35	0.405	0.6662191644446304	
12.355	1.433	0.7358156313961364	
12.36	1.151	0.8129792378218615	
12.365	0.339	0.8795900752950613	
12.37	1.063	0.9141378748314438	
12.375	1.221	0.9236683515709034	
12.38	0.138	0.9002379966431255	
12.385	0.347	0.8330531223365388	
12.39	1.063	0.7432489625332228	
12.395	0.127	0.6508947552596014	
12.4	-0.193	0.5464433101957921	
12.405	0.599	0.4355664661664428	
12.41	0.173	0.3298907025770383	
12.415	-0.398	0.23298685942778058	
12.42	0.068	0.14702045150772064	
12.425	0.333	0.07136588138508992	
12.43	-0.384	0.012651184834068057	
12.435	-0.260	-0.025792084567729665	
12.44	0.365	-0.05622928173173522	
12.445	-0.228	-0.07895721600914637	
12.45	-0.390	-0.08913016767525747	
12.455	0.254	-0.08780046256105611	
12.46	-0.028	-0.09132661278329501	
12.465	-0.445	-0.09655825766936188	
12.47	0.049	-0.09202893959117371	
12.475	0.257	-0.08604245454468973	
12.48	-0.391	-0.08310978490317991	
12.485	-0.242	-0.07757441878643412	
12.49	0.359	-0.07557962051736046	
12.495	-0.250	-0.0799839582476658	
12.5	-0.376	-0.08181983089886827	
12.505	0.367	-0.07293941983825505	
12.51	0.059	-0.060513788844872254	
12.515	-0.419	-0.04833550150524778	
12.52	0.002	-0.03999926779211391	
12.525	0.274	-0.045279724870622436	
12.53	-0.398	-0.05501994276301171	
12.535	-0.219	-0.06039565662041491	
12.54	0.489	-0.058738439250076976	
12.545	-0.201	-0.05105233455534314	
12.55	-0.355	-0.04063266300357535	
12.555	0.367	-0.029988114721014043	
12.56	0.054	-0.0226834493101347	
12.565	-0.416	-0.021202244061070935	
12.57	0.072	-0.01990103246898409	
12.575	0.317	-0.02244878530748679	
12.58	-0.373	-0.028015687703332293	
12.585	-0.202	-0.03024142135580052	
12.59	0.466	-0.031835405482755916	
12.595	-0.224	-0.033155397959096666	
12.6	-0.361	-0.0334886138988969	
12.605	0.353	-0.030961585264614268	
12.61	0.045	-0.03083058954701611	
12.615	-0.384	-0.03014778876644423	
12.62	0.199	-0.019771425253223087	
12.625	0.429	-0.0005450130170787122	
12.63	-0.326	0.019913399148609654	
12.635	-0.132	0.03487299279609546	
12.64	0.613	0.04416193356952804	
12.645	-0.105	0.056741041423523896	
12.65	-0.257	0.06957423150769697	
12.655	0.559	0.08309567286196862	
12.66	0.196	0.09907939314085895	
12.665	-0.338	0.1088537450118929	
12.67	0.225	0.11128209158651968	
12.675	0.428	0.10638288103888623	
12.68	-0.358	0.09490667813299417	
12.685	-0.193	0.0739500361675928	
12.69	0.437	0.043098574315635046	
12.695	-0.240	0.01170019115474899	
12.7	-0.376	-0.015320543472227511	
12.705	0.303	-0.034924815235667296	
12.71	-0.033	-0.05301564654174289	
12.715	-0.449	-0.07005725319080147	
12.72	0.011	-0.07865244273413988	
12.725	0.205	-0.08872793766041476	
12.73	-0.417	-0.10009488561273241	
12.735	-0.230	-0.10191898388392699	
12.74	0.388	-0.09993175567867464	
12.745	-0.253	-0.09541265619991354	
12.75	-0.341	-0.08624926686799908	
12.755	0.672	-0.055820364628819674	
12.76	0.698	0.02393011802531032	
12.765	0.152	0.15394244428282097	
12.77	0.872	0.3044330378654691	
12.775	0.802	0.43618503516649676	
12.78	-0.343	0.49677246983655454	
12.785	-0.391	0.4460725198336236	
12.79	-0.156	0.2869983226622637	
12.795	-0.607	0.06654094687469964	
12.8	-0.671	-0.13710724732104704	
12.805	-0.053	-0.28279332320861084	
12.81	-0.173	-0.370220997178672	
12.815	-0.492	-0.3929962212419016	
12.82	0.013	-0.3553816012208912	
12.825	0.249	-0.29289431551723843	
12.83	-0.404	-0.22529477840356246	
12.835	-0.228	-0.16164605816880806	
12.84	0.477	-0.11089499031347713	
12.845	-0.172	-0.0697530625181316	
12.85	-0.274	-0.03210205486232119	
12.855	0.571	0.008443935056657616	
12.86	0.147	0.04854329978724527	
12.865	-0.358	0.07577066960366918	
12.87	0.277	0.09088680600188681	
12.875	0.510	0.10313609433404143	
12.88	-0.271	0.11441974082024922	
12.885	-0.021	0.12249705408037832	
12.89	0.742	0.13031006761556138	
12.895	-0.013	0.14701901193539035	
12.9	-0.092	0.16885736184024902	
12.905	0.973	0.2066886704219585	
12.91	0.667	0.2774815109629652	
12.915	-0.021	0.3606460378151071	
12.92	0.826	0.43100828558036136	
12.925	1.023	0.49713666168626347	
12.93	0.048	0.5503303180544377	
12.935	0.350	0.5675233304066836	
12.94	1.028	0.5602679281611044	
12.945	0.179	0.5430196633969657	
12.95	-0.102	0.5049270288043104	
12.955	0.725	0.44752198983080954	
12.96	0.278	0.3874323370316195	
12.965	-0.327	0.3228951953552214	
12.97	0.225	0.25389361059083104	
12.975	0.341	0.18391546111399878	
12.98	-0.404	0.11564721881432766	
12.985	-0.251	0.053624966834597554	
12.99	0.277	-0.010104084830847113	
12.995	-0.320	-0.0688316566084178	
13.0	-0.442	-0.1107238678995225	
13.005	0.127	-0.13878351069904302	
13.01	-0.161	-0.16772890323167328	
13.015	-0.507	-0.18971044682011506	
13.02	-0.007	-0.19113222688986442	
13.025	0.216	-0.1824154688163419	
13.03	-0.396	-0.16515498001729673	
13.035	-0.216	-0.1371647820885311	
13.04	0.329	-0.11538908210598037	
13.045	-0.314	-0.10591532184646477	
13.05	-0.390	-0.10145949640037832	
13.055	0.346	-0.09383976975419143	
13.06	-0.036	-0.08594218025460096	
13.065	-0.433	-0.07857156677918124	
13.07	0.046	-0.07202547109309307	
13.075	0.167	-0.07462703374977708	
13.08	-0.453	-0.08718363159849632	
13.085	-0.230	-0.09695970084441471	
13.09	0.407	-0.10144218197963925	
13.095	-0.242	-0.0970554139139864	
13.1	-0.362	-0.08632028502823132	
13.105	0.317	-0.0737755738389318	
13.11	-0.060	-0.06912638606280458	
13.115	-0.445	-0.07155272020740125	
13.12	0.097	-0.06984466612491176	
13.125	0.301	-0.06571716657772805	
13.13	-0.378	-0.05830115791576958	
13.135	-0.175	-0.04780419138206493	
13.14	0.422	-0.04242045822850575	
13.145	-0.297	-0.043252437977058175	
13.15	-0.408	-0.05025562754270104	
13.155	0.342	-0.0586113016232361	
13.16	0.039	-0.06326879841455729	
13.165	-0.366	-0.05661293840969256	
13.17	0.263	-0.03363891509705176	
13.175	0.454	-0.0007666791997430528	
13.18	-0.292	0.03551372044490237	
13.185	-0.031	0.06434568839486818	
13.19	0.658	0.08666862537345714	
13.195	-0.117	0.10654934645688366	
13.2	-0.240	0.11778067381030623	
13.205	0.559	0.12054778517957984	
13.21	0.095	0.118579191100357	
13.215	-0.369	0.10830630516651721	
13.22	0.193	0.0915204188271774	
13.225	0.346	0.07017879474669234	
13.23	-0.362	0.0504005012726156	
13.235	-0.175	0.03148961704534465	
13.24	0.431	0.007684666580533984	
13.245	-0.236	-0.01260155225896642	
13.25	-0.320	-0.02410511594283784	
13.255	0.442	-0.02433789779369859	
13.26	0.017	-0.019597892332498194	
13.265	-0.413	-0.01569133467817426	
13.27	0.156	-0.011284934905102482	
13.275	0.277	-0.011942124315444473	
13.28	-0.417	-0.017740207544421814	
13.285	-0.181	-0.025307736434293814	
13.29	0.529	-0.03128125860449964	
13.295	-0.056	-0.019807556334585134	
13.3	0.106	0.02701873826063149	
13.305	1.383	0.13687229201795567	
13.31	0.933	0.31525908663780483	
13.315	-0.027	0.48820981144282555	
13.32	0.457	0.574762123498535	
13.325	0.143	0.5449156241793772	
13.33	-0.602	0.41518944641788225	
13.335	-0.453	0.2318104144301037	
13.34	-0.037	0.031654845800492014	
13.345	-0.402	-0.14486221627110232	
13.35	-0.404	-0.2488063522770015	
13.355	0.384	-0.27115491022522864	
13.36	0.014	-0.24093479000427268	
13.365	-0.385	-0.1846293535048925	
13.37	0.198	-0.119976090356127	
13.375	0.356	-0.06219777553699615	
13.38	-0.340	-0.01690265616213397	
13.385	-0.070	0.017032516332741603	
13.39	0.585	0.03965332754984102	
13.395	-0.184	0.05686173290236851	
13.4	-0.240	0.06722563033943457	
13.405	0.643	0.0799790929526224	
13.41	0.202	0.10188836950378047	
13.415	-0.282	0.1253183255611832	
13.42	0.478	0.1482120206881714	
13.425	0.642	0.17875144925923075	
13.43	-0.185	0.21298943284342706	
13.435	0.158	0.2371542234710603	
13.44	0.898	0.2566596755863665	
13.445	0.111	0.2847764104451827	
13.45	0.071	0.31531687243495266	
13.455	1.139	0.35698077537972267	
13.46	0.719	0.42581226400221395	
13.465	0.033	0.4984273684577905	
13.47	0.948	0.5501673668402829	
13.475	1.057	0.5985905315777003	
13.48	-0.012	0.6321759761020216	
13.485	0.323	0.6211715670876568	
13.49	0.890	0.5753211597572911	
13.495	-0.051	0.5119643562511955	
13.5	-0.210	0.42757834751380275	
13.505	0.571	0.3315163430930883	
13.51	-0.013	0.23977895494866708	
13.515	-0.419	0.15199618788700503	
13.52	0.043	0.07186215144616717	
13.525	0.034	-0.007821274936911666	
13.53	-0.489	-0.08320326679731752	
13.535	-0.265	-0.13469721994028272	
13.54	0.153	-0.17130213468777467	
13.545	-0.393	-0.20174400243672097	
13.55	-0.451	-0.21594774324989202	
13.555	0.188	-0.21500141822905458	
13.56	-0.155	-0.211358901864024	
13.565	-0.491	-0.20145198884169963	
13.57	0.027	-0.18332196910604717	
13.575	0.080	-0.17122293759624882	
13.58	-0.498	-0.16583556177683695	
13.585	-0.247	-0.16157207590020067	
13.59	0.265	-0.16073044392182445	
13.595	-0.352	-0.15963222105967356	
13.6	-0.393	-0.15463001805941728	
13.605	0.274	-0.14529701346515828	
13.61	-0.147	-0.13849891485520638	
13.615	-0.472	-0.1351099081938316	
13.62	0.042	-0.13039473228211346	
13.625	0.075	-0.13250312039323214	
13.63	-0.489	-0.14060640844711153	
13.635	-0.271	-0.1474370797005225	
13.64	0.136	-0.16302388236742676	
13.645	-0.411	-0.1856094688901273	
13.65	-0.443	-0.20037092626491543	
13.655	0.214	-0.20343589766261433	
13.66	-0.163	-0.20065237721870488	
13.665	-0.488	-0.19189931216220507	
13.67	0.013	-0.177345699299299	
13.675	0.060	-0.1707197770976842	
13.68	-0.475	-0.16855850023501973	
13.685	-0.208	-0.16324764688485638	
13.69	0.280	-0.15613773739097958	
13.695	-0.333	-0.1487326138191412	
13.7	-0.375	-0.13921037665709698	
13.705	0.333	-0.12540110776259827	
13.71	-0.080	-0.11083703527245453	
13.715	-0.398	-0.09585209465351688	
13.72	0.240	-0.07318189550908347	
13.725	0.268	-0.04683155340675724	
13.73	-0.384	-0.024659145628303746	
13.735	-0.112	-0.012107266650334842	
13.74	0.478	-0.008132351748546356	
13.745	-0.263	-0.0038705860023536876	
13.75	-0.343	-0.0051433570266796996	
13.755	0.304	-0.016331489168850723	
13.76	-0.147	-0.03896522866774987	
13.765	-0.509	-0.06784904988917845	
13.77	-0.007	-0.09706652508533438	
13.775	0.068	-0.12892124099131244	
13.78	-0.462	-0.15370795542948462	
13.785	-0.205	-0.1609361356817852	
13.79	0.260	-0.1611519410132457	
13.795	-0.369	-0.1610463118180423	
13.8	-0.388	-0.15601641299497848	
13.805	0.281	-0.14718250301198882	
13.81	-0.184	-0.14217000599598278	
13.815	-0.480	-0.14090091231249915	
13.82	0.167	-0.13280619646967373	
13.825	0.515	-0.10197368036746826	
13.83	-0.062	-0.03290637539156065	
13.835	0.620	0.07927597404246688	
13.84	1.192	0.23097635987259557	
13.845	0.022	0.3756697694514696	
13.85	-0.254	0.43789647891434935	
13.855	0.129	0.3889373357336543	
13.86	-0.388	0.2487121959448954	
13.865	-0.697	0.0710312503295859	
13.87	-0.210	-0.09465061588448995	
13.875	-0.114	-0.23099519287446665	
13.88	-0.546	-0.31801962968122155	
13.885	-0.253	-0.3426097710938121	
13.89	0.230	-0.32897625926283375	
13.895	-0.358	-0.2954563618566008	
13.9	-0.352	-0.24694034907121593	
13.905	0.414	-0.19080032778288525	
13.91	-0.053	-0.1344709608077563	
13.915	-0.370	-0.0861156937333562	
13.92	0.297	-0.04138702459802982	
13.925	0.339	-0.0020429755808663956	
13.93	-0.347	0.028635073905510695	
13.935	-0.034	0.04752985770486962	
13.94	0.545	0.055216422593175524	
13.945	-0.224	0.05925329042687452	
13.95	-0.221	0.06101992374332898	
13.955	0.635	0.06650136935664808	
13.96	0.211	0.08840821843228834	
13.965	-0.199	0.12170179981101241	
13.97	0.707	0.16686274454453265	
13.975	0.797	0.23500840527655992	
13.98	-0.092	0.30940910706749614	
13.985	0.478	0.36661269885951897	
13.99	1.142	0.4203506805630021	
13.995	0.271	0.4811384566678357	
14.0	0.268	0.5289838783329822	
14.005	1.218	0.565545335105853	
14.01	0.602	0.6043932875677913	
14.015	-0.073	0.6196976808743938	
14.02	0.739	0.5957516582038644	
14.025	0.625	0.5509512541944059	
14.03	-0.266	0.489604780799486	
14.035	-0.021	0.39954869093888534	
14.04	0.471	0.2890834475252448	
14.045	-0.294	0.18338943717593242	
14.05	-0.353	0.09219950588645752	
14.055	0.248	0.01214941227418348	
14.06	-0.222	-0.059596596971451296	
14.065	-0.524	-0.11681762970263074	
14.07	-0.050	-0.15846250150786972	
14.075	-0.036	-0.19538397181477413	
14.08	-0.510	-0.22395069910553483	
14.085	-0.260	-0.2312984871947683	
14.09	0.094	-0.23438818678317253	
14.095	-0.407	-0.24151650580518963	
14.1	-0.393	-0.2354210606330309	
14.105	0.268	-0.21612267578700553	
14.11	-0.198	-0.19481210516082348	
14.115	-0.489	-0.1774948842444279	
14.12	0.060	-0.1614506499011531	
14.125	0.048	-0.15469432646769016	
14.13	-0.486	-0.15383713000543853	
14.135	-0.202	-0.15109809670690166	
14.14	0.210	-0.15359628291249183	
14.145	-0.405	-0.16060495151170168	
14.15	-0.390	-0.16419731883223831	
14.155	0.315	-0.1601570699473179	
14.16	-0.172	-0.15100274107510245	
14.165	-0.453	-0.1413603824707767	
14.17	0.112	-0.1283275223659634	
14.175	0.088	-0.12188056020671593	
14.18	-0.469	-0.11986444259903618	
14.185	-0.182	-0.11890476297835387	
14.19	0.240	-0.12366796213946296	
14.195	-0.375	-0.132760553831559	
14.2	-0.367	-0.13704465435104018	
14.205	0.312	-0.13507830383043845	
14.21	-0.163	-0.13020326188758063	
14.215	-0.451	-0.12533945893731638	
14.22	0.185	-0.11412601802842538	
14.225	0.184	-0.09999564421651465	
14.23	-0.427	-0.0839995983575012	
14.235	-0.143	-0.07171437105864911	
14.24	0.332	-0.07064506521760423	
14.245	-0.341	-0.07497474515463651	
14.25	-0.346	-0.07894655374669642	
14.255	0.378	-0.07992112066515941	
14.26	-0.111	-0.07940158350025546	
14.265	-0.375	-0.0733763510363454	
14.27	0.341	-0.054884870300084064	
14.275	0.310	-0.024091088326521477	
14.28	-0.341	0.008812714431798995	
14.285	0.014	0.03348907589788837	
14.29	0.510	0.047419136548716614	
14.295	-0.240	0.05578503543540455	
14.3	-0.233	0.058127495587144494	
14.305	0.552	0.056256850454817486	
14.31	-0.022	0.05741574699751028	
14.315	-0.352	0.05556170785534204	
14.32	0.309	0.05130277527881232	
14.325	0.236	0.04582118714471364	
14.33	-0.424	0.0356853333042496	
14.335	-0.141	0.015657120261790357	
14.34	0.246	-0.018577758840183575	
14.345	-0.385	-0.060384363741311335	
14.35	-0.353	-0.09274294682390553	
14.355	0.312	-0.11162562362320293	
14.36	-0.182	-0.12377796610872667	
14.365	-0.451	-0.1284343767449963	
14.37	0.150	-0.12448018271569153	
14.375	0.091	-0.11929994617107133	
14.38	-0.460	-0.11647506479298983	
14.385	-0.184	-0.11311101391967048	
14.39	0.214	-0.12052334815433692	
14.395	-0.288	-0.12966166812170377	
14.4	-0.030	-0.11062255621794136	
14.405	1.305	-0.11162562362320293	
14.41	0.898	0.15905260410174066	
14.415	0.208	0.3734104906947387	
14.42	0.767	-0.11311101391967048	
14.425	0.213	-0.11311101391967048	
14.43	-0.604	-0.11093697203174534	
14.435	-0.439	0.3460424276613049	
14.44	-0.156	0.122527245832381	
14.445	-0.530	-0.09582553463989885	
14.45	-0.436	-0.243474174956478	
14.455	0.191	-0.3122239070369957	
14.46	-0.224	-0.3282392519355663	
14.465	-0.434	-0.30552579429152094	
14.47	0.269	-0.24890162561054877	
14.475	0.223	-0.17953667327695955	
14.48	-0.367	-0.11093697203174534	
14.485	0.025	-0.0505940817356096	
14.49	0.486	-0.006369089370172955	
14.495	-0.248	0.02369249750704776	
14.5	-0.179	0.04456449767952419	
14.505	0.695	0.06613056467942963	
14.51	0.121	0.09744673287795495	
14.515	-0.227	0.13025325968638474	
14.52	0.605	0.16149158322906787	
14.525	0.519	0.19742244791444324	
14.53	-0.213	0.22971028784344777	
14.535	0.387	0.25366050155908265	
14.54	0.957	0.2868357907387736	
14.545	0.124	0.334387897350543	
14.55	0.281	0.3835831453116966	
14.555	1.289	0.4443855946852526	
14.56	0.764	0.530306138764679	
14.565	0.315	0.6211456403939126	
14.57	1.292	0.7026398854623006	
14.575	1.194	0.7823959092836805	
14.58	0.190	0.8406254145996501	
14.585	0.774	0.851672894372342	
14.59	1.208	0.832774064649755	
14.595	0.165	0.7974199381083553	
14.6	0.126	0.7296268790033521	
14.605	0.922	0.6381865342933108	
14.61	0.173	0.5453406501108886	
14.615	-0.288	0.44739393517903003	
14.62	0.320	0.3394064166290208	
14.625	0.167	0.22823676939380988	
14.63	-0.424	0.127064410836597	
14.635	-0.109	0.04667758545700813	
14.64	0.262	-0.02264134121829545	
14.645	-0.405	-0.0782833588772197	
14.65	-0.356	-0.11404348178916388	
14.655	0.249	-0.1362490348937861	
14.66	-0.248	-0.15472726166332532	
14.665	-0.492	-0.16612986467164204	
14.67	0.059	-0.16976497356348927	
14.675	-0.039	-0.17812047879662163	
14.68	-0.504	-0.18760290162397947	
14.685	-0.141	-0.18417830900288562	
14.69	0.243	-0.17703274672284963	
14.695	-0.387	-0.16923193882505194	
14.7	-0.337	-0.15473153317161376	
14.705	0.275	-0.14046992787929868	
14.71	-0.213	-0.1359229664409084	
14.715	-0.436	-0.1328474249025375	
14.72	0.159	-0.12271769825394951	
14.725	0.019	-0.11940079542166211	
14.73	-0.494	-0.12353351121796936	
14.735	-0.131	-0.12496188234626784	
14.74	0.371	-0.12419423822491112	
14.745	-0.279	-0.11135511351716473	
14.75	-0.187	-0.081500290269822	
14.755	0.629	-0.03943522791638882	
14.76	-0.036	0.00784659740094721	
14.765	-0.330	0.04422457051861464	
14.77	0.407	0.0664432318042163	
14.775	0.288	0.08042630620025046	
14.78	-0.347	0.0884159951795655	
14.785	0.036	0.08723119291288217	
14.79	0.446	0.07470477073048029	
14.795	-0.294	0.0574901079332214	
14.8	-0.204	0.04268252155819959	
14.805	0.519	0.03258642485732298	
14.81	-0.097	0.02764739112601568	
14.815	-0.337	0.023351918128745798	
14.82	0.382	0.024592949463307288	
14.825	0.240	0.03222724256153765	
14.83	-0.367	0.03840004770290992	
14.835	0.062	0.04344400414040414	
14.84	0.480	0.04460377917215641	
14.845	-0.280	0.045353708487310185	
14.85	-0.233	0.042854807321699405	
14.855	0.501	0.035594085776066625	
14.86	-0.077	0.02946886397895747	
14.865	-0.317	0.026462929942898145	
14.87	0.402	0.03170281584864406	
14.875	0.223	0.041045559165522535	
14.88	-0.359	0.04740087639585419	
14.885	0.037	0.04962068385890196	
14.89	0.423	0.042485274653415055	
14.895	-0.268	0.03424554033448716	
14.9	-0.176	0.031052985636247275	
14.905	0.629	0.03760660551062422	
14.91	-0.016	0.05427926438185908	
14.915	-0.280	0.07156026551392732	
14.92	0.498	0.08881621286971962	
14.925	0.326	0.10887528070583335	
14.93	-0.321	0.12339727678965391	
14.935	0.164	0.12978295774101883	
14.94	0.594	0.1313844398293579	
14.945	-0.236	0.13416570932168245	
14.95	-0.163	0.13019223568554172	
14.955	0.585	0.11754775797875328	
14.96	-0.085	0.10316007747258131	
14.965	-0.340	0.08671121395685194	
14.97	0.384	0.06982962821121583	
14.975	0.152	0.05470083602607152	
14.98	-0.417	0.03751451094078208	
14.985	-0.074	0.014894543671914106	
14.99	0.243	-0.01882799087119577	
14.995	-0.382	-0.05582217775703917	
15.0	-0.297	-0.08056816110288414	
15.005	0.365	-0.09357296959307054	
15.01	-0.204	-0.10099764478415478	
15.015	-0.404	-0.10107061967954482	
15.02	0.266	-0.09111857362158124	
15.025	0.118	-0.07953734135861334	
15.03	-0.314	-0.062408818670742335	
15.035	0.535	-0.012862806834977872	
15.04	1.305	0.10309088170716943	
15.045	0.555	0.2871044557105193	
15.05	0.552	0.4825558110571398	
15.055	0.930	0.6203064439571107	
15.06	-0.207	0.6477755346312	
15.065	-0.636	0.5409798115381971	
15.07	-0.274	0.3328803503607386	
15.075	-0.317	0.07933856628575786	
15.08	-0.625	-0.14326623577899678	
15.085	-0.204	-0.2787348637294813	
15.09	0.121	-0.3421136613319507	
15.095	-0.428	-0.3529496817257901	
15.1	-0.314	-0.3201840586894481	
15.105	0.419	-0.2626315837590989	
15.11	-0.131	-0.19633698266990773	
15.115	-0.333	-0.1298467685069873	
15.12	0.408	-0.06592207547808528	
15.125	0.216	-0.011878677835101228	
15.13	-0.359	0.027552607220205697	
15.135	0.141	0.054435593232076605	
15.14	0.497	0.06985370340022526	
15.145	-0.260	0.08080601086650488	
15.15	-0.152	0.0849211807375954	
15.155	0.669	0.08650724005765195	
15.16	0.036	0.0994741979264934	
15.165	-0.182	0.12015583636195533	
15.17	0.693	0.14927595658650536	
15.175	0.538	0.19502024446794194	
15.18	-0.129	0.24547374381951817	
15.185	0.625	0.2956028648400799	
15.19	1.073	0.36083116290553524	
15.195	0.213	0.4387154473677163	
15.2	0.472	0.5090182374953318	
15.205	1.328	0.5754777219314458	
15.21	0.577	0.6444018448256965	
15.215	0.147	0.6872338782326669	
15.22	1.090	0.6961738761473318	
15.225	0.767	0.6939350226665766	
15.23	-0.129	0.667673024430397	
15.235	0.419	0.6034863266421768	
15.24	0.640	0.5155669567576	
15.245	-0.243	0.4210256365648431	
15.25	-0.184	0.3161297535351686	
15.255	0.475	0.21102320648345618	
15.26	-0.199	0.11859334269079895	
15.265	-0.433	0.04169665180633903	
15.27	0.133	-0.023266426438911397	
15.275	-0.109	-0.08525963455030079	
15.28	-0.524	-0.13769472776728964	
15.285	-0.138	-0.17061300375372895	
15.29	0.092	-0.1949568130483618	
15.295	-0.478	-0.21354442243435784	
15.3	-0.369	-0.2195845748705963	
15.305	0.194	-0.2195435872225279	
15.31	-0.282	-0.21736955532190017	
15.315	-0.453	-0.20780482969591432	
15.32	0.127	-0.19058680438435627	
15.325	-0.111	-0.18255865186429815	
15.33	-0.507	-0.1822606168900896	
15.335	-0.134	-0.17960295658078168	
15.34	0.132	-0.18137709410919958	
15.345	-0.427	-0.1853369100746459	
15.35	-0.306	-0.17931757748435026	
15.355	0.269	-0.1698739931667828	
15.36	-0.262	-0.16144424045001177	
15.365	-0.451	-0.15247864701659036	
15.37	0.167	-0.14469605864818147	
15.375	-0.083	-0.14379978894202095	
15.38	-0.501	-0.1490334103613802	
15.385	-0.103	-0.15249570114685052	
15.39	0.181	-0.15764041756536362	
15.395	-0.427	-0.1612981320307857	
15.4	-0.320	-0.15709018143266557	
15.405	0.301	-0.15303328629791335	
15.41	-0.260	-0.14858135972990338	
15.415	-0.442	-0.1412480141407872	
15.42	0.198	-0.13367759508394617	
15.425	-0.054	-0.13103613435750405	
15.43	-0.482	-0.13192537388707956	
15.435	-0.091	-0.13331490631757326	
15.44	0.143	-0.14085388768611362	
15.445	-0.439	-0.1513775937564722	
15.45	-0.294	-0.15482902181993624	
15.455	0.323	-0.15208346750153917	
15.46	-0.257	-0.1448138823982172	
15.465	-0.407	-0.13406940851620197	
15.47	0.278	-0.11953487587824793	
15.475	-0.054	-0.10628918343306973	
15.48	-0.482	-0.10393735928976051	
15.485	-0.079	-0.10706822303847242	
15.49	0.178	-0.11797891295806318	
15.495	-0.405	-0.12954862549114587	
15.5	-0.240	-0.12960537165431169	
15.505	0.400	-0.12003020547748362	
15.51	-0.222	-0.10406299757170503	
15.515	-0.369	-0.0879900138969486	
15.52	0.303	-0.07233808360790037	
15.525	-0.005	-0.06248298345839463	
15.53	-0.440	-0.06102618231791366	
15.535	0.028	-0.06181577654923638	
15.54	0.292	-0.06402148089882906	
15.545	-0.375	-0.06377489755461133	
15.55	-0.250	-0.06244537701634249	
15.555	0.341	-0.06692160221546797	
15.56	-0.234	-0.07430606341251984	
15.565	-0.356	-0.07794977600917533	
15.57	0.373	-0.07009331310297545	
15.575	0.048	-0.0556501720124009	
15.58	-0.414	-0.04316663924513692	
15.585	0.049	-0.03556436996727473	
15.59	0.252	-0.038043190135156016	
15.595	-0.382	-0.04503269670277346	
15.6	-0.208	-0.05126794341515796	
15.605	0.468	-0.05274852223170404	
15.61	-0.179	-0.045570318092107154	
15.615	-0.350	-0.03496396248495801	
15.62	0.327	-0.027841696571585875	
15.625	0.010	-0.026816271005324247	
15.63	-0.416	-0.032323248993303993	
15.635	0.065	-0.036287190124341534	
15.64	0.280	-0.042042710976790396	
15.645	-0.384	-0.047306183587407624	
15.65	-0.218	-0.050097274611055294	
15.655	0.429	-0.053582863357437345	
15.66	-0.239	-0.053858489569467864	
15.665	-0.372	-0.05395918530358543	
15.67	0.327	-0.05254348987496499	
15.675	0.021	-0.05099289450862367	
15.68	-0.391	-0.04950934916056248	
15.685	0.140	-0.04098547320329529	
15.69	0.341	-0.028028866559938012	
15.695	-0.332	-0.01561862169413768	
15.7	-0.155	-0.0059319347189115326	
15.705	0.556	0.0036274241585006937	
15.71	-0.131	0.017857528490756034	
15.715	-0.292	0.0320021930899001	
15.72	0.529	0.04575445808210856	
15.725	0.193	0.06487268921028859	
15.73	-0.333	0.08128465831882936	
15.735	0.268	0.09424925571294393	
15.74	0.477	0.1030080058457168	
15.745	-0.312	0.10913624305902817	
15.75	-0.175	0.10117521882643976	
15.755	0.440	0.07475596131514246	
15.76	-0.227	0.041650894836157006	
15.765	-0.404	0.009024142658307826	
15.77	0.306	-0.020052721810414623	
15.775	0.048	-0.04328223751507407	
15.78	-0.395	-0.05278255405441109	
15.785	0.133	-0.04750798779853398	
15.79	0.365	-0.036070815442794155	
15.795	-0.337	-0.021061958568999558	
15.8	-0.153	-0.006589015885321172	
15.805	0.545	0.003838451303546508	
15.81	-0.077	0.01936465100422982	
15.815	-0.028	0.05114133886206294	
15.82	1.243	0.13023252470044933	
15.825	0.982	0.2795229239474225	
15.83	0.140	0.44909701826413273	
15.835	0.664	0.5666457159892273	
15.84	0.394	0.5947617551919036	
15.845	-0.518	0.5207634026477598	
15.85	-0.443	0.36257031347348745	
15.855	-0.053	0.1567981278133949	
15.86	-0.433	-0.046753181767783404	
15.865	-0.465	-0.19064507332075492	
15.87	0.252	-0.25574631131122916	
15.875	-0.019	-0.2647348908745149	
15.88	-0.393	-0.23475918201435372	
15.885	0.147	-0.1780569095414811	
15.89	0.381	-0.11638359758153674	
15.895	-0.300	-0.05732268520026206	
15.9	-0.079	-0.0071242541860947195	
15.905	0.547	0.029788878339205915	
15.91	-0.158	0.05290880600616809	
15.915	-0.236	0.06543617340893282	
15.92	0.623	0.08143543209257262	
15.925	0.234	0.10600888834385368	
15.93	-0.277	0.13015501534514695	
15.935	0.411	0.15119934823120373	
15.94	0.584	0.1735375394991559	
15.945	-0.196	0.19549215527820973	
15.95	0.129	0.21006374690050075	
15.955	0.844	0.22585821394370656	
15.96	0.031	0.247732767995724	
15.965	-0.030	0.26650236809007877	
15.97	1.017	0.2925373861815329	
15.975	0.710	0.35191279925853414	
15.98	0.078	0.42619296103712995	
15.985	0.970	0.498244714993454	
15.99	1.092	0.5724255884602684	
15.995	0.089	0.6315596887837762	
16.0	0.429	0.6480899898410605	
16.005	1.075	0.6356440504306777	
16.01	0.255	0.6138537862863321	
16.015	-0.005	0.5756895437098843	
16.02	0.805	0.519189514091347	
16.025	0.304	0.45886114265458344	
16.03	-0.309	0.3906118081619224	
16.035	0.153	0.3049961092458457	
16.04	0.219	0.20507825421122164	
16.045	-0.408	0.10608348725979856	
16.05	-0.207	0.025233636523927166	
16.055	0.315	-0.037921385386835704	
16.06	-0.320	-0.08391121162486319	
16.065	-0.433	-0.11482592707812617	
16.07	0.150	-0.13629815945743196	
16.075	-0.196	-0.16132904054327285	
16.08	-0.536	-0.18478806177660512	
16.085	-0.083	-0.1971272639327495	
16.09	0.048	-0.2093961485518107	
16.095	-0.483	-0.2175281703065849	
16.1	-0.283	-0.213549419358142	
16.105	0.242	-0.20442593370661938	
16.11	-0.309	-0.19385619677570298	
16.115	-0.388	-0.17640014264993875	
16.12	0.298	-0.15258353215611725	
16.125	-0.073	-0.1295654071535885	
16.13	-0.425	-0.1124023886152342	
16.135	0.060	-0.09513683403009618	
16.14	0.150	-0.08976635538054678	
16.145	-0.449	-0.09233456649737051	
16.15	-0.268	-0.1003337440372377	
16.155	0.233	-0.11574548631090138	
16.16	-0.349	-0.135892272503003	
16.165	-0.401	-0.14807813016357618	
16.17	0.254	-0.1497161636297673	
16.175	-0.135	-0.1477907037696674	
16.18	-0.456	-0.14515069710135903	
16.185	0.017	-0.13804777313274857	
16.19	0.091	-0.13704402286625628	
16.195	-0.449	-0.1412708727665432	
16.2	-0.242	-0.1420930568155333	
16.205	0.213	-0.14591606945649724	
16.21	-0.340	-0.15403792010285966	
16.215	-0.375	-0.1558493874895857	
16.22	0.309	-0.14568322965282715	
16.225	-0.109	-0.13202453219671734	
16.23	-0.460	-0.12107932440560133	
16.235	0.051	-0.11186142931543785	
16.24	0.147	-0.11020532710303818	
16.245	-0.442	-0.11137637633974362	
16.25	-0.242	-0.11187953236009396	
16.255	0.275	-0.11892218196873741	
16.26	-0.291	-0.12525200172607023	
16.265	-0.352	-0.12271971098397558	
16.27	0.368	-0.10953086736007098	
16.275	-0.063	-0.09225051317270776	
16.28	-0.396	-0.07710867947267339	
16.285	0.170	-0.06060008913462968	
16.29	0.213	-0.047320514595445014	
16.295	-0.417	-0.04258826974493166	
16.3	-0.176	-0.04365032582385317	
16.305	0.368	-0.0518387276945412	
16.31	-0.253	-0.05953177298576655	
16.315	-0.294	-0.05764440111984427	
16.32	0.458	-0.046289882166304544	
16.325	0.030	-0.02646272385363499	
16.33	-0.349	-0.007224698821744777	
16.335	0.310	0.013683300040599195	
16.34	0.442	0.040638162964358696	
16.345	-0.286	0.07017301351940722	
16.35	-0.007	0.09053670884314799	
16.355	0.594	0.10026724411845495	
16.36	-0.185	0.10521264416845105	
16.365	-0.233	0.10239560308348705	
16.37	0.573	0.09589898166211695	
16.375	0.053	0.09437192958607331	
16.38	-0.358	0.0887125460015423	
16.385	0.272	0.07886502306050577	
16.39	0.297	0.06655506318079851	
16.395	-0.407	0.05205848784555476	
16.4	-0.178	0.028696827706416347	
16.405	0.335	-0.005741424384137736	
16.41	-0.297	-0.03992897751780807	
16.415	-0.327	-0.061462414387495466	
16.42	0.428	-0.06702387563822669	
16.425	-0.048	-0.06081220003203313	
16.43	-0.408	-0.05223822614866007	
16.435	0.098	-0.04697415661428471	
16.44	0.120	-0.054612688656110395	
16.445	-0.359	-0.06701624811809023	
16.45	0.207	-0.05303982244671156	
16.455	1.203	0.023297205814252795	
16.46	0.623	0.17891402608809068	
16.465	0.484	0.3726426150950802	
16.47	1.086	0.5399956730413644	
16.475	0.097	0.6239163584768017	
16.48	-0.507	0.5837231186086004	
16.485	-0.218	0.43113942190584603	
16.49	-0.211	0.20825791606963015	
16.495	-0.604	-0.015024412055838805	
16.5	-0.285	-0.17483468296496596	
16.505	0.223	-0.2628036130484799	
16.51	-0.317	-0.29227567012755035	
16.515	-0.315	-0.27114751664878206	
16.52	0.460	-0.21482746233960337	
16.525	-0.019	-0.14723939095767846	
16.53	-0.373	-0.0862114090978811	
16.535	0.202	-0.03857550777811902	
16.54	0.227	-0.011874358290107174	
16.545	-0.370	-0.0012853604757093805	
16.55	-0.062	0.0043352270841104275	
16.555	0.556	0.010265019088272136	
16.56	-0.208	0.02343008955766973	
16.565	-0.247	0.03588105565910075	
16.57	0.602	0.04839667115236089	
16.575	0.104	0.06758597542839559	
16.58	-0.285	0.08869410157689799	
16.585	0.481	0.10967695499173061	
16.59	0.606	0.14409890314178211	
16.595	-0.153	0.1875435831430015	
16.6	0.368	0.2314817720827444	
16.605	1.057	0.28731897608901447	
16.61	0.272	0.3612915574406075	
16.615	0.306	0.4349470522438521	
16.62	1.304	0.5094441507367093	
16.625	0.799	0.5964950979866497	
16.63	0.204	0.671749129505969	
16.635	1.070	0.7166495810464388	
16.64	1.017	0.7459645973604687	
16.645	-0.004	0.7486752879331076	
16.65	0.414	0.7034708508678782	
16.655	0.873	0.6310427027653139	
16.66	-0.100	0.5474765781870883	
16.665	-0.201	0.4421405759406716	
16.67	0.477	0.32503290133267587	
16.675	-0.106	0.21153510428881747	
16.68	-0.442	0.10724565360518765	
16.685	-0.015	0.016331202033165043	
16.69	-0.048	-0.07033606367846992	
16.695	-0.539	-0.14672966877386362	
16.7	-0.292	-0.1974864149708585	
16.705	0.065	-0.2335143407594586	
16.71	-0.431	-0.26219776271661865	
16.715	-0.449	-0.2694623744098251	
16.72	0.121	-0.26345948881886266	
16.725	-0.240	-0.25755907492487884	
16.73	-0.521	-0.24826986855235314	
16.735	-0.012	-0.23185306703383304	
16.74	-0.037	-0.22368392976959126	
16.745	-0.510	-0.22141224915979335	
16.75	-0.228	-0.21337077321181702	
16.755	0.182	-0.2068703902858653	
16.76	-0.391	-0.2021383596964772	
16.765	-0.408	-0.19319912999431016	
16.77	0.228	-0.18365741790003642	
16.775	-0.193	-0.17570231733082065	
16.78	-0.494	-0.17002717999182954	
16.785	0.021	-0.16485063315837378	
16.79	0.001	-0.16791067865905285	
16.795	-0.507	-0.17630145680626788	
16.8	-0.231	-0.18021345361945107	
16.805	0.130	-0.18805525790441951	
16.81	-0.408	-0.19920228975565143	
16.815	-0.393	-0.20198630022887026	
16.82	0.216	-0.1966829383938452	
16.825	-0.187	-0.18889092260220425	
16.83	-0.463	-0.17891255142227233	
16.835	0.091	-0.16370585251658748	
16.84	0.103	-0.1490807462373012	
16.845	-0.448	-0.1373660210811225	
16.85	-0.178	-0.12501359248467314	
16.855	0.248	-0.12209370666817518	
16.86	-0.349	-0.12539849937136033	
16.865	-0.324	-0.12284834394665216	
16.87	0.371	-0.11254660185230464	
16.875	-0.121	-0.09910957545467158	
16.88	-0.424	-0.08694381353673794	
16.885	0.175	-0.07646588568499632	
16.89	0.150	-0.06918862536135971	
16.895	-0.413	-0.06555970557435971	
16.9	-0.140	-0.06378908341341069	
16.905	0.295	-0.07002073258070848	
16.91	-0.321	-0.07967305767034796	
16.915	-0.301	-0.08275896327161386	
16.92	0.443	-0.07631186999503597	
16.925	-0.073	-0.061336675744042196	
16.93	-0.358	-0.04404219032666441	
16.935	0.332	-0.023165242183586843	
16.94	0.344	0.004744130915477935	
16.945	-0.314	0.0341865251032063	
16.95	0.046	0.058428565957301906	
16.955	0.532	0.07309414339487	
16.96	-0.231	0.08103776386430211	
16.965	-0.192	0.08128743106946423	
16.97	0.631	0.08292047642930397	
16.975	0.092	0.09548037484821292	
16.98	-0.262	0.1108595213762278	
16.985	0.452	0.1240561007430314	
16.99	0.355	0.13668004259564726	
16.995	-0.327	0.1410125336940319	
17.0	-0.008	0.12958363423711025	
17.005	0.414	0.10213786093633098	
17.01	-0.317	0.06686927353257678	
17.015	-0.309	0.03037172919517433	
17.02	0.414	-0.0019770760003356494	
17.025	-0.129	-0.02667389181607404	
17.03	-0.434	-0.04512988735186517	
17.035	0.205	-0.05678806993947636	
17.04	0.161	-0.062421931937390464	
17.045	-0.416	-0.06405738670650823	
17.05	-0.109	-0.06224048032596605	
17.055	0.294	-0.06688325149724808	
17.06	-0.346	-0.07729530093677639	
17.065	-0.250	-0.07949922730306604	
17.07	0.837	-0.05184830476012489	
17.075	0.707	0.04320320231796589	
17.08	0.471	0.20892740970662496	
17.085	1.412	0.4193693766997885	
17.09	0.992	0.6253983482667644	
17.095	-0.274	0.7397641672360546	
17.1	-0.245	0.6967982130548208	
17.105	-0.164	0.5020030436717751	
17.11	-0.628	0.2326394952792984	
17.115	-0.544	-0.01628455353508245	
17.12	0.051	-0.1968622618530838	
17.125	-0.271	-0.31000845068186167	
17.13	-0.454	-0.34993728624502574	
17.135	0.213	-0.32346466806260943	
17.14	0.158	-0.26276999917845417	
17.145	-0.408	-0.19418258542666622	
17.15	-0.050	-0.12982103221912084	
17.155	0.445	-0.0790149938942743	
17.16	-0.295	-0.04065694303661484	
17.165	-0.247	-0.01417170680789603	
17.17	0.568	0.006269957399680786	
17.175	-0.025	0.02769930668899542	
17.18	-0.317	0.04498484370547972	
17.185	0.448	0.06076592738343603	
17.19	0.349	0.08212064020705812	
17.195	-0.297	0.10165857577990578	
17.2	0.149	0.11638058031756432	
17.205	0.652	0.129019304973953	
17.21	-0.128	0.14716593403634098	
17.215	-0.018	0.16493331052413163	
17.22	0.931	0.19337498784295115	
17.225	0.434	0.24857379412396155	
17.23	0.042	0.31802269827376906	
17.235	1.081	0.39285184271369533	
17.24	1.060	0.4890217228984098	
