Vernier Format 2
ecg1.txt 10/17/2025 10:13:33
Run 1
Time	Potential	EKG	
T	P	E	
s	mV	mV	

0.000	0.311	0.014	
0.005	-0.540	0.023	
0.010	-0.357	-0.030	
0.015	0.341	-0.092	
0.020	-0.367	-0.107	
0.025	-0.630	-0.142	
0.030	0.070	-0.205	
0.035	-0.136	-0.227	
0.040	-0.675	-0.236	
0.045	-0.151	-0.273	
0.050	0.120	-0.280	
0.055	-0.605	-0.256	
0.060	-0.433	-0.267	
0.065	0.198	-0.282	
0.070	-0.428	-0.259	
0.075	-0.656	-0.260	
0.080	0.029	-0.292	
0.085	-0.194	-0.290	
0.090	-0.752	-0.287	
0.095	-0.213	-0.321	
0.100	0.024	-0.331	
0.105	-0.683	-0.314	
0.110	-0.521	-0.334	
0.115	0.030	-0.360	
0.120	-0.528	-0.352	
0.125	-0.770	-0.366	
0.130	-0.104	-0.406	
0.135	-0.277	-0.408	
0.140	-0.811	-0.402	
0.145	-0.282	-0.425	
0.150	-0.035	-0.423	
0.155	-0.712	-0.393	
0.160	-0.538	-0.398	
0.165	0.032	-0.408	
0.170	-0.535	-0.384	
0.175	-0.723	-0.383	
0.180	0.091	-0.399	
0.185	0.026	-0.357	
0.190	-0.428	-0.283	
0.195	0.392	-0.215	
0.200	0.776	-0.090	
0.205	-0.424	0.058	
0.210	-0.404	0.099	
0.215	-0.011	0.043	
0.220	-0.654	-0.042	
0.225	-0.887	-0.178	
0.230	-0.177	-0.332	
0.235	-0.303	-0.418	
0.240	-0.814	-0.457	
0.245	-0.253	-0.492	
0.250	0.067	-0.477	
0.255	-0.633	-0.416	
0.260	-0.457	-0.386	
0.265	0.232	-0.360	
0.270	-0.412	-0.300	
0.275	-0.637	-0.272	
0.280	0.093	-0.281	
0.285	-0.133	-0.261	
0.290	-0.672	-0.242	
0.295	-0.117	-0.261	
0.300	0.251	-0.253	
0.305	-0.547	-0.210	
0.310	-0.355	-0.205	
0.315	0.433	-0.203	
0.320	-0.303	-0.155	
0.325	-0.531	-0.135	
0.330	0.326	-0.148	
0.335	0.027	-0.121	
0.340	-0.552	-0.093	
0.345	0.021	-0.110	
0.350	0.537	-0.098	
0.355	-0.403	-0.041	
0.360	-0.203	-0.028	
0.365	0.747	-0.019	
0.370	-0.153	0.042	
0.375	-0.415	0.065	
0.380	0.541	0.044	
0.385	0.198	0.066	
0.390	-0.491	0.085	
0.395	0.068	0.045	
0.400	0.505	0.025	
0.405	-0.465	0.038	
0.410	-0.326	0.003	
0.415	0.344	-0.050	
0.420	-0.392	-0.069	
0.425	-0.637	-0.115	
0.430	0.044	-0.191	
0.435	-0.183	-0.227	
0.440	-0.750	-0.252	
0.445	-0.227	-0.306	
0.450	0.052	-0.330	
0.455	-0.668	-0.317	
0.460	-0.508	-0.335	
0.465	0.131	-0.353	
0.470	-0.470	-0.330	
0.475	-0.698	-0.327	
0.480	-0.011	-0.352	
0.485	-0.185	-0.341	
0.490	-0.721	-0.324	
0.495	-0.195	-0.339	
0.500	0.105	-0.331	
0.505	-0.639	-0.294	
0.510	-0.460	-0.297	
0.515	0.232	-0.305	
0.520	-0.418	-0.272	
0.525	-0.654	-0.264	
0.530	0.049	-0.288	
0.535	-0.143	-0.279	
0.540	-0.701	-0.267	
0.545	-0.194	-0.292	
0.550	0.149	-0.293	
0.555	-0.608	-0.263	
0.560	-0.441	-0.270	
0.565	0.270	-0.279	
0.570	-0.406	-0.246	
0.575	-0.651	-0.240	
0.580	0.094	-0.267	
0.585	-0.128	-0.258	
0.590	-0.680	-0.245	
0.595	-0.157	-0.269	
0.600	0.213	-0.268	
0.605	-0.582	-0.232	
0.610	-0.413	-0.234	
0.615	0.357	-0.241	
0.620	-0.349	-0.202	
0.625	-0.595	-0.189	
0.630	0.213	-0.209	
0.635	-0.050	-0.190	
0.640	-0.624	-0.169	
0.645	-0.069	-0.191	
0.650	0.373	-0.184	
0.655	-0.508	-0.139	
0.660	-0.335	-0.136	
0.665	0.498	-0.141	
0.670	-0.303	-0.101	
0.675	-0.552	-0.093	
0.680	0.312	-0.123	
0.685	0.020	-0.110	
0.690	-0.575	-0.094	
0.695	-0.023	-0.122	
0.700	0.447	-0.121	
0.705	-0.482	-0.081	
0.710	-0.326	-0.085	
0.715	0.524	-0.099	
0.720	-0.281	-0.068	
0.725	-0.544	-0.066	
0.730	0.317	-0.102	
0.735	0.033	-0.095	
0.740	-0.570	-0.083	
0.745	0.017	-0.112	
0.750	0.552	-0.105	
0.755	-0.433	-0.050	
0.760	-0.276	-0.041	
0.765	0.642	-0.045	
0.770	-0.221	-0.002	
0.775	-0.454	0.007	
0.780	0.552	-0.016	
0.785	0.244	0.017	
0.790	-0.499	0.055	
0.795	0.143	0.035	
0.800	0.646	0.039	
0.805	-0.419	0.081	
0.810	-0.274	0.065	
0.815	0.617	0.029	
0.820	-0.247	0.039	
0.825	-0.517	0.018	
0.830	0.405	-0.036	
0.835	0.062	-0.039	
0.840	-0.563	-0.035	
0.845	0.033	-0.074	
0.850	0.530	-0.078	
0.855	-0.471	-0.037	
0.860	-0.306	-0.043	
0.865	0.608	-0.060	
0.870	-0.235	-0.026	
0.875	-0.441	-0.019	
0.880	0.844	-0.024	
0.885	0.832	0.074	
0.890	-0.098	0.219	
0.895	0.915	0.322	
0.900	1.250	0.451	
0.905	-0.277	0.576	
0.910	-0.305	0.549	
0.915	0.305	0.407	
0.920	-0.448	0.256	
0.925	-0.686	0.075	
0.930	0.163	-0.104	
0.935	-0.031	-0.191	
0.940	-0.613	-0.222	
0.945	-0.005	-0.254	
0.950	0.555	-0.227	
0.955	-0.454	-0.141	
0.960	-0.293	-0.103	
0.965	0.680	-0.082	
0.970	-0.220	-0.017	
0.975	-0.479	0.007	
0.980	0.532	-0.012	
0.985	0.244	0.019	
0.990	-0.499	0.055	
0.995	0.186	0.036	
1.000	0.730	0.048	
1.005	-0.378	0.104	
1.010	-0.198	0.101	
1.015	0.851	0.085	
1.020	-0.134	0.125	
1.025	-0.403	0.129	
1.030	0.733	0.098	
1.035	0.453	0.135	
1.040	-0.389	0.186	
1.045	0.375	0.179	
1.050	0.941	0.202	
1.055	-0.247	0.269	
1.060	-0.037	0.271	
1.065	1.130	0.260	
1.070	0.062	0.311	
1.075	-0.273	0.325	
1.080	0.948	0.293	
1.085	0.581	0.325	
1.090	-0.367	0.361	
1.095	0.380	0.322	
1.100	0.831	0.300	
1.105	-0.366	0.311	
1.110	-0.209	0.254	
1.115	0.785	0.179	
1.120	-0.242	0.161	
1.125	-0.541	0.111	
1.130	0.357	0.021	
1.135	0.014	-0.018	
1.140	-0.637	-0.046	
1.145	-0.078	-0.113	
1.150	0.383	-0.144	
1.155	-0.566	-0.127	
1.160	-0.403	-0.148	
1.165	0.407	-0.176	
1.170	-0.377	-0.155	
1.175	-0.637	-0.162	
1.180	0.212	-0.202	
1.185	-0.047	-0.196	
1.190	-0.643	-0.181	
1.195	-0.104	-0.207	
1.200	0.343	-0.205	
1.205	-0.587	-0.166	
1.210	-0.406	-0.174	
1.215	0.448	-0.189	
1.220	-0.364	-0.156	
1.225	-0.639	-0.153	
1.230	0.189	-0.191	
1.235	-0.101	-0.191	
1.240	-0.715	-0.189	
1.245	-0.159	-0.231	
1.250	0.259	-0.245	
1.255	-0.613	-0.218	
1.260	-0.428	-0.229	
1.265	0.418	-0.241	
1.270	-0.389	-0.201	
1.275	-0.660	-0.192	
1.280	0.183	-0.222	
1.285	-0.085	-0.214	
1.290	-0.703	-0.202	
1.295	-0.136	-0.234	
1.300	0.360	-0.235	
1.305	-0.563	-0.191	
1.310	-0.387	-0.187	
1.315	0.518	-0.189	
1.320	-0.334	-0.140	
1.325	-0.578	-0.124	
1.330	0.412	-0.143	
1.335	0.123	-0.109	
1.340	-0.566	-0.068	
1.345	0.094	-0.077	
1.350	0.665	-0.054	
1.355	-0.418	0.013	
1.360	-0.232	0.026	
1.365	0.815	0.024	
1.370	-0.175	0.075	
1.375	-0.428	0.088	
1.380	0.703	0.063	
1.385	0.393	0.102	
1.390	-0.442	0.151	
1.395	0.337	0.140	
1.400	0.873	0.160	
1.405	-0.319	0.221	
1.410	-0.131	0.216	
1.415	0.992	0.192	
1.420	-0.073	0.227	
1.425	-0.375	0.224	
1.430	0.773	0.179	
1.435	0.422	0.197	
1.440	-0.433	0.224	
1.445	0.357	0.192	
1.450	0.889	0.195	
1.455	-0.326	0.244	
1.460	-0.137	0.227	
1.465	0.973	0.194	
1.470	-0.113	0.221	
1.475	-0.403	0.209	
1.480	0.756	0.157	
1.485	0.401	0.172	
1.490	-0.447	0.199	
1.495	0.314	0.167	
1.500	0.863	0.169	
1.505	-0.331	0.218	
1.510	-0.140	0.204	
1.515	0.956	0.176	
1.520	-0.093	0.207	
1.525	-0.381	0.202	
1.530	0.796	0.159	
1.535	0.447	0.185	
1.540	-0.448	0.221	
1.545	0.267	0.190	
1.550	0.764	0.178	
1.555	-0.398	0.204	
1.560	-0.227	0.167	
1.565	0.794	0.116	
1.570	-0.215	0.122	
1.575	-0.505	0.096	
1.580	0.550	0.034	
1.585	0.195	0.034	
1.590	-0.558	0.045	
1.595	0.084	0.004	
1.600	0.611	-0.007	
1.605	-0.465	0.028	
1.610	-0.291	0.012	
1.615	0.727	-0.013	
1.620	-0.175	0.022	
1.625	-0.357	0.037	
1.630	1.099	0.047	
1.635	0.936	0.171	
1.640	-0.182	0.329	
1.645	0.724	0.406	
1.650	0.969	0.472	
1.655	-0.467	0.519	
1.660	-0.436	0.428	
1.665	0.251	0.254	
1.670	-0.474	0.103	
1.675	-0.697	-0.055	
1.680	0.207	-0.199	
1.685	-0.032	-0.248	
1.690	-0.637	-0.249	
1.695	-0.005	-0.264	
1.700	0.515	-0.229	
1.705	-0.511	-0.145	
1.710	-0.326	-0.116	
1.715	0.649	-0.104	
1.720	-0.285	-0.047	
1.725	-0.555	-0.032	
1.730	0.447	-0.063	
1.735	0.072	-0.047	
1.740	-0.595	-0.031	
1.745	0.058	-0.066	
1.750	0.584	-0.067	
1.755	-0.485	-0.020	
1.760	-0.291	-0.025	
1.765	0.730	-0.038	
1.770	-0.242	0.005	
1.775	-0.508	0.013	
1.780	0.599	-0.016	
1.785	0.238	0.016	
1.790	-0.520	0.054	
1.795	0.264	0.038	
1.800	0.814	0.061	
1.805	-0.384	0.131	
1.810	-0.182	0.134	
1.815	0.954	0.121	
1.820	-0.113	0.167	
1.825	-0.403	0.173	
1.830	0.748	0.137	
1.835	0.326	0.159	
1.840	-0.508	0.182	
1.845	0.184	0.136	
1.850	0.631	0.111	
1.855	-0.470	0.124	
1.860	-0.310	0.078	
1.865	0.628	0.020	
1.870	-0.323	0.017	
1.875	-0.595	-0.016	
1.880	0.315	-0.085	
1.885	-0.055	-0.104	
1.890	-0.700	-0.117	
1.895	-0.116	-0.174	
1.900	0.348	-0.197	
1.905	-0.584	-0.172	
1.910	-0.387	-0.184	
1.915	0.515	-0.195	
1.920	-0.360	-0.151	
1.925	-0.614	-0.139	
1.930	0.334	-0.166	
1.935	-0.014	-0.146	
1.940	-0.645	-0.126	
1.945	0.001	-0.152	
1.950	0.512	-0.143	
1.955	-0.515	-0.089	
1.960	-0.303	-0.084	
1.965	0.662	-0.087	
1.970	-0.273	-0.038	
1.975	-0.526	-0.026	
1.980	0.509	-0.053	
1.985	0.154	-0.026	
1.990	-0.567	0.003	
1.995	0.133	-0.022	
2.000	0.649	-0.015	
2.005	-0.441	0.038	
2.010	-0.246	0.034	
2.015	0.770	0.019	
2.020	-0.238	0.057	
2.025	-0.486	0.056	
2.030	0.617	0.018	
2.035	0.204	0.040	
2.040	-0.561	0.065	
2.045	0.160	0.030	
2.050	0.662	0.027	
2.055	-0.459	0.068	
2.060	-0.267	0.051	
2.065	0.710	0.020	
2.070	-0.276	0.042	
2.075	-0.531	0.028	
2.080	0.518	-0.022	
2.085	0.126	-0.013	
2.090	-0.582	0.002	
2.095	0.090	-0.034	
2.100	0.527	-0.040	
2.105	-0.502	-0.006	
2.110	-0.271	-0.023	
2.115	0.715	-0.042	
2.120	-0.265	-0.002	
2.125	-0.512	0.002	
2.130	0.564	-0.029	
2.135	0.178	-0.003	
2.140	-0.538	0.028	
2.145	0.230	0.008	
2.150	0.721	0.026	
2.155	-0.413	0.088	
2.160	-0.186	0.089	
2.165	0.887	0.078	
2.170	-0.182	0.123	
2.175	-0.427	0.127	
2.180	0.729	0.091	
2.185	0.302	0.118	
2.190	-0.473	0.149	
2.195	0.328	0.123	
2.200	0.785	0.131	
2.205	-0.395	0.181	
2.210	-0.192	0.163	
2.215	0.838	0.126	
2.220	-0.220	0.144	
2.225	-0.471	0.122	
2.230	0.593	0.063	
2.235	0.134	0.061	
2.240	-0.558	0.063	
2.245	0.175	0.015	
2.250	0.642	0.009	
2.255	-0.445	0.051	
2.260	-0.230	0.040	
2.265	0.770	0.021	
2.270	-0.233	0.057	
2.275	-0.454	0.058	
2.280	0.658	0.025	
2.285	0.363	0.061	
2.290	-0.322	0.116	
2.295	0.901	0.151	
2.300	1.393	0.272	
2.305	-0.089	0.448	
2.310	0.120	0.513	
2.315	0.954	0.502	
2.320	-0.323	0.482	
2.325	-0.648	0.368	
2.330	0.161	0.177	
2.335	-0.139	0.028	
2.340	-0.680	-0.086	
2.345	0.004	-0.196	
2.350	0.482	-0.222	
2.355	-0.512	-0.173	
2.360	-0.288	-0.156	
2.365	0.619	-0.140	
2.370	-0.316	-0.077	
2.375	-0.538	-0.057	
2.380	0.418	-0.082	
2.385	-0.029	-0.067	
2.390	-0.650	-0.060	
2.395	-0.052	-0.110	
2.400	0.329	-0.133	
2.405	-0.585	-0.119	
2.410	-0.364	-0.146	
2.415	0.442	-0.173	
2.420	-0.416	-0.149	
2.425	-0.634	-0.157	
2.430	0.226	-0.199	
2.435	-0.162	-0.199	
2.440	-0.729	-0.201	
2.445	-0.153	-0.246	
2.450	0.177	-0.262	
2.455	-0.657	-0.243	
2.460	-0.421	-0.261	
2.465	0.367	-0.273	
2.470	-0.403	-0.233	
2.475	-0.602	-0.218	
2.480	0.271	-0.233	
2.485	-0.122	-0.205	
2.490	-0.680	-0.184	
2.495	-0.089	-0.212	
2.500	0.200	-0.217	
2.505	-0.656	-0.195	
2.510	-0.460	-0.221	
2.515	0.168	-0.258	
2.520	-0.537	-0.259	
2.525	-0.741	-0.288	
2.530	-0.072	-0.345	
2.535	-0.339	-0.366	
2.540	-0.861	-0.383	
2.545	-0.319	-0.431	
2.550	-0.119	-0.449	
2.555	-0.793	-0.438	
2.560	-0.564	-0.456	
2.565	0.055	-0.467	
2.570	-0.575	-0.434	
2.575	-0.761	-0.423	
2.580	-0.047	-0.438	
2.585	-0.302	-0.419	
2.590	-0.808	-0.399	
2.595	-0.226	-0.414	
2.600	0.044	-0.402	
2.605	-0.680	-0.359	
2.610	-0.428	-0.352	
2.615	0.341	-0.339	
2.620	-0.438	-0.278	
2.625	-0.624	-0.251	
2.630	0.261	-0.256	
2.635	-0.096	-0.221	
2.640	-0.622	-0.188	
2.645	0.056	-0.197	
2.650	0.422	-0.169	
2.655	-0.518	-0.106	
2.660	-0.253	-0.096	
2.665	0.698	-0.088	
2.670	-0.252	-0.027	
2.675	-0.438	-0.003	
2.680	0.655	-0.012	
2.685	0.183	0.034	
2.690	-0.471	0.076	
2.695	0.370	0.064	
2.700	0.733	0.093	
2.705	-0.351	0.159	
2.710	-0.061	0.160	
2.715	0.966	0.154	
2.720	-0.117	0.204	
2.725	-0.319	0.210	
2.730	0.881	0.180	
2.735	0.437	0.218	
2.740	-0.360	0.262	
2.745	0.538	0.246	
2.750	0.887	0.267	
2.755	-0.274	0.322	
2.760	0.068	0.309	
2.765	1.088	0.289	
2.770	-0.056	0.327	
2.775	-0.256	0.318	
2.780	0.962	0.274	
2.785	0.488	0.300	
2.790	-0.345	0.332	
2.795	0.639	0.306	
2.800	0.983	0.325	
2.805	-0.274	0.382	
2.810	0.041	0.362	
2.815	1.056	0.325	
2.820	-0.134	0.340	
2.825	-0.348	0.305	
2.830	0.776	0.229	
2.835	0.245	0.216	
2.840	-0.497	0.206	
2.845	0.258	0.140	
2.850	0.578	0.109	
2.855	-0.482	0.117	
2.860	-0.267	0.069	
2.865	0.552	0.011	
2.870	-0.352	0.003	
2.875	-0.538	-0.033	
2.880	0.338	-0.095	
2.885	-0.119	-0.107	
2.890	-0.683	-0.120	
2.895	-0.093	-0.177	
2.900	0.180	-0.204	
2.905	-0.607	-0.196	
2.910	-0.264	-0.215	
2.915	0.892	-0.196	
2.920	-0.027	-0.082	
2.925	-0.232	0.017	
2.930	0.877	0.081	
2.935	0.126	0.173	
2.940	-0.671	0.208	
2.945	-0.239	0.119	
2.950	-0.145	-0.006	
2.955	-0.816	-0.128	
2.960	-0.557	-0.273	
2.965	0.101	-0.378	
2.970	-0.521	-0.400	
2.975	-0.643	-0.410	
2.980	0.250	-0.412	
2.985	-0.139	-0.349	
2.990	-0.650	-0.285	
2.995	0.018	-0.267	
3.000	0.410	-0.218	
3.005	-0.506	-0.138	
3.010	-0.212	-0.111	
3.015	0.751	-0.086	
3.020	-0.261	-0.010	
3.025	-0.398	0.022	
3.030	0.729	0.018	
3.035	0.250	0.073	
3.040	-0.441	0.123	
3.045	0.471	0.118	
3.050	0.840	0.155	
3.055	-0.305	0.230	
3.060	0.056	0.238	
3.065	1.087	0.239	
3.070	-0.043	0.296	
3.075	-0.213	0.306	
3.080	1.094	0.283	
3.085	0.637	0.340	
3.090	-0.235	0.404	
3.095	0.875	0.409	
3.100	1.198	0.461	
3.105	-0.119	0.547	
3.110	0.386	0.550	
3.115	1.422	0.546	
3.120	0.194	0.601	
3.125	-0.113	0.596	
3.130	1.207	0.537	
3.135	0.665	0.546	
3.140	-0.265	0.555	
3.145	0.733	0.496	
3.150	1.029	0.479	
3.155	-0.232	0.500	
3.160	0.111	0.449	
3.165	1.102	0.392	
3.170	-0.064	0.395	
3.175	-0.233	0.358	
3.180	0.974	0.294	
3.185	0.468	0.309	
3.190	-0.322	0.333	
3.195	0.738	0.309	
3.200	1.076	0.343	
3.205	-0.206	0.420	
3.210	0.245	0.423	
3.215	1.270	0.418	
3.220	0.073	0.470	
3.225	-0.134	0.468	
3.230	1.206	0.427	
3.235	0.646	0.463	
3.240	-0.233	0.500	
3.245	0.855	0.474	
3.250	1.159	0.495	
3.255	-0.145	0.554	
3.260	0.351	0.537	
3.265	1.360	0.518	
3.270	0.171	0.562	
3.275	-0.107	0.554	
3.280	1.206	0.501	
3.285	0.684	0.521	
3.290	-0.204	0.544	
3.295	0.869	0.507	
3.300	1.125	0.519	
3.305	-0.153	0.565	
3.310	0.344	0.538	
3.315	1.291	0.509	
3.320	0.072	0.539	
3.325	-0.154	0.514	
3.330	1.125	0.448	
3.335	0.559	0.455	
3.340	-0.288	0.465	
3.345	0.724	0.416	
3.350	0.969	0.414	
3.355	-0.261	0.447	
3.360	0.113	0.407	
3.365	1.098	0.361	
3.370	-0.090	0.374	
3.375	-0.267	0.342	
3.380	0.953	0.278	
3.385	0.407	0.289	
3.390	-0.348	0.307	
3.395	0.613	0.274	
3.400	0.849	0.287	
3.405	-0.339	0.331	
3.410	0.017	0.301	
3.415	1.012	0.263	
3.420	-0.124	0.284	
3.425	-0.282	0.264	
3.430	0.873	0.215	
3.435	0.287	0.231	
3.440	-0.422	0.244	
3.445	0.421	0.199	
3.450	0.634	0.189	
3.455	-0.432	0.207	
3.460	-0.156	0.160	
3.465	0.721	0.106	
3.470	-0.299	0.106	
3.475	-0.433	0.072	
3.480	0.617	0.017	
3.485	0.055	0.026	
3.490	-0.541	0.034	
3.495	0.247	-0.004	
3.500	0.512	-0.001	
3.505	-0.471	0.038	
3.510	-0.183	0.022	
3.515	0.709	0.004	
3.520	-0.217	0.041	
3.525	-0.226	0.054	
3.530	1.312	0.081	
3.535	0.908	0.231	
3.540	-0.076	0.403	
3.545	0.973	0.493	
3.550	0.905	0.575	
3.555	-0.462	0.616	
3.560	-0.310	0.507	
3.565	0.352	0.326	
3.570	-0.454	0.175	
3.575	-0.569	0.016	
3.580	0.384	-0.121	
3.585	-0.098	-0.161	
3.590	-0.601	-0.170	
3.595	0.149	-0.196	
3.600	0.384	-0.169	
3.605	-0.537	-0.107	
3.610	-0.218	-0.099	
3.615	0.642	-0.091	
3.620	-0.346	-0.038	
3.625	-0.485	-0.029	
3.630	0.508	-0.057	
3.635	-0.064	-0.039	
3.640	-0.593	-0.032	
3.645	0.148	-0.074	
3.650	0.373	-0.077	
3.655	-0.544	-0.049	
3.660	-0.210	-0.068	
3.665	0.639	-0.080	
3.670	-0.343	-0.038	
3.675	-0.477	-0.034	
3.680	0.482	-0.064	
3.685	-0.060	-0.047	
3.690	-0.563	-0.039	
3.695	0.178	-0.075	
3.700	0.425	-0.068	
3.705	-0.492	-0.028	
3.710	-0.156	-0.036	
3.715	0.732	-0.036	
3.720	-0.316	0.016	
3.725	-0.453	0.022	
3.730	0.500	-0.012	
3.735	-0.113	-0.007	
3.740	-0.651	-0.020	
3.745	-0.003	-0.088	
3.750	0.134	-0.130	
3.755	-0.697	-0.146	
3.760	-0.424	-0.205	
3.765	0.133	-0.261	
3.770	-0.639	-0.277	
3.775	-0.776	-0.323	
3.780	-0.093	-0.391	
3.785	-0.433	-0.417	
3.790	-0.928	-0.440	
3.795	-0.305	-0.489	
3.800	-0.182	-0.503	
3.805	-0.858	-0.487	
3.810	-0.538	-0.502	
3.815	-0.002	-0.506	
3.820	-0.662	-0.470	
3.825	-0.744	-0.461	
3.830	0.015	-0.470	
3.835	-0.342	-0.436	
3.840	-0.810	-0.408	
3.845	-0.159	-0.416	
3.850	0.011	-0.395	
3.855	-0.703	-0.350	
3.860	-0.358	-0.345	
3.865	0.337	-0.328	
3.870	-0.505	-0.268	
3.875	-0.585	-0.247	
3.880	0.335	-0.253	
3.885	-0.180	-0.214	
3.890	-0.642	-0.186	
3.895	0.125	-0.199	
3.900	0.309	-0.173	
3.905	-0.564	-0.120	
3.910	-0.194	-0.118	
3.915	0.665	-0.109	
3.920	-0.352	-0.048	
3.925	-0.427	-0.031	
3.930	0.640	-0.043	
3.935	0.000	-0.001	
3.940	-0.541	0.024	
3.945	0.302	-0.004	
3.950	0.520	0.010	
3.955	-0.448	0.056	
3.960	-0.067	0.048	
3.965	0.844	0.047	
3.970	-0.239	0.102	
3.975	-0.313	0.112	
3.980	0.843	0.096	
3.985	0.181	0.142	
3.990	-0.427	0.174	
3.995	0.532	0.151	
4.000	0.707	0.174	
4.005	-0.372	0.226	
4.010	0.058	0.211	
4.015	0.950	0.196	
4.020	-0.197	0.234	
4.025	-0.271	0.223	
4.030	0.898	0.183	
4.035	0.262	0.213	
4.040	-0.372	0.236	
4.045	0.646	0.212	
4.050	0.790	0.240	
4.055	-0.328	0.297	
4.060	0.137	0.282	
4.065	1.029	0.268	
4.070	-0.157	0.306	
4.075	-0.236	0.290	
4.080	0.957	0.244	
4.085	0.239	0.265	
4.090	-0.395	0.274	
4.095	0.587	0.230	
4.100	0.680	0.233	
4.105	-0.399	0.263	
4.110	-0.040	0.222	
4.115	0.762	0.174	
4.120	-0.326	0.171	
4.125	-0.399	0.125	
4.130	0.623	0.056	
4.135	-0.058	0.048	
4.140	-0.549	0.034	
4.145	0.255	-0.021	
4.150	0.369	-0.029	
4.155	-0.529	-0.006	
4.160	-0.171	-0.034	
4.165	0.588	-0.054	
4.170	-0.386	-0.025	
4.175	-0.412	-0.034	
4.180	0.802	-0.051	
4.185	0.404	0.024	
4.190	-0.137	0.124	
4.195	1.194	0.212	
4.200	1.143	0.372	
4.205	-0.322	0.528	
4.210	-0.146	0.524	
4.215	0.328	0.412	
4.220	-0.584	0.277	
4.225	-0.625	0.092	
4.230	0.239	-0.089	
4.235	-0.223	-0.179	
4.240	-0.625	-0.229	
4.245	0.169	-0.271	
4.250	0.306	-0.241	
4.255	-0.543	-0.171	
4.260	-0.162	-0.148	
4.265	0.642	-0.120	
4.270	-0.337	-0.048	
4.275	-0.370	-0.022	
4.280	0.669	-0.024	
4.285	0.001	0.024	
4.290	-0.485	0.052	
4.295	0.431	0.031	
4.300	0.550	0.058	
4.305	-0.425	0.112	
4.310	0.032	0.105	
4.315	0.886	0.107	
4.320	-0.255	0.159	
4.325	-0.282	0.160	
4.330	0.896	0.134	
4.335	0.218	0.177	
4.340	-0.367	0.209	
4.345	0.700	0.195	
4.350	0.802	0.237	
4.355	-0.288	0.307	
4.360	0.329	0.310	
4.365	1.207	0.327	
4.370	-0.037	0.400	
4.375	-0.102	0.410	
4.380	1.163	0.381	
4.385	0.410	0.419	
4.390	-0.293	0.438	
4.395	0.765	0.393	
4.400	0.742	0.390	
4.405	-0.360	0.404	
4.410	0.068	0.340	
4.415	0.823	0.274	
4.420	-0.326	0.255	
4.425	-0.415	0.187	
4.430	0.520	0.090	
4.435	-0.182	0.046	
4.440	-0.640	-0.006	
4.445	0.059	-0.096	
4.450	0.090	-0.142	
4.455	-0.654	-0.158	
4.460	-0.274	-0.205	
4.465	0.354	-0.230	
4.470	-0.517	-0.203	
4.475	-0.549	-0.210	
4.480	0.290	-0.235	
4.485	-0.282	-0.216	
4.490	-0.689	-0.211	
4.495	0.012	-0.246	
4.500	0.072	-0.245	
4.505	-0.645	-0.222	
4.510	-0.247	-0.237	
4.515	0.416	-0.234	
4.520	-0.485	-0.185	
4.525	-0.505	-0.175	
4.530	0.392	-0.189	
4.535	-0.212	-0.158	
4.540	-0.621	-0.144	
4.545	0.218	-0.167	
4.550	0.276	-0.143	
4.555	-0.587	-0.097	
4.560	-0.182	-0.106	
4.565	0.526	-0.111	
4.570	-0.439	-0.072	
4.575	-0.456	-0.078	
4.580	0.512	-0.105	
4.585	-0.178	-0.080	
4.590	-0.595	-0.074	
4.595	0.258	-0.108	
4.600	0.291	-0.096	
4.605	-0.553	-0.058	
4.610	-0.122	-0.073	
4.615	0.663	-0.072	
4.620	-0.393	-0.022	
4.625	-0.393	-0.016	
4.630	0.619	-0.037	
4.635	-0.125	-0.007	
4.640	-0.538	0.001	
4.645	0.381	-0.033	
4.650	0.399	-0.015	
4.655	-0.505	0.028	
4.660	-0.073	0.012	
4.665	0.732	0.006	
4.670	-0.337	0.050	
4.675	-0.332	0.050	
4.680	0.748	0.029	
4.685	-0.046	0.065	
4.690	-0.494	0.078	
4.695	0.457	0.044	
4.700	0.498	0.061	
4.705	-0.457	0.104	
4.710	0.055	0.090	
4.715	0.866	0.090	
4.720	-0.303	0.142	
4.725	-0.313	0.139	
4.730	0.770	0.104	
4.735	-0.031	0.123	
4.740	-0.470	0.121	
4.745	0.553	0.078	
4.750	0.572	0.099	
4.755	-0.419	0.149	
4.760	0.116	0.140	
4.765	0.937	0.144	
4.770	-0.244	0.200	
4.775	-0.235	0.200	
4.780	0.936	0.174	
4.785	0.123	0.210	
4.790	-0.387	0.226	
4.795	0.701	0.194	
4.800	0.703	0.222	
4.805	-0.363	0.275	
4.810	0.233	0.260	
4.815	1.003	0.256	
4.820	-0.230	0.299	
4.825	-0.227	0.280	
4.830	0.877	0.228	
4.835	0.024	0.231	
4.840	-0.451	0.212	
4.845	0.555	0.149	
4.850	0.530	0.145	
4.855	-0.435	0.171	
4.860	0.119	0.142	
4.865	0.881	0.133	
4.870	-0.284	0.178	
4.875	-0.259	0.170	
4.880	0.881	0.138	
4.885	-0.008	0.166	
4.890	-0.450	0.168	
4.895	0.675	0.128	
4.900	0.837	0.164	
4.905	-0.134	0.254	
4.910	0.991	0.323	
4.915	1.820	0.467	
4.920	0.354	0.681	
4.925	0.123	0.783	
4.930	1.030	0.764	
4.935	-0.131	0.708	
4.940	-0.617	0.557	
4.945	0.242	0.328	
4.950	0.268	0.161	
4.955	-0.518	0.061	
4.960	0.018	-0.034	
4.965	0.826	-0.058	
4.970	-0.293	0.004	
4.975	-0.239	0.034	
4.980	0.925	0.049	
4.985	0.056	0.125	
4.990	-0.407	0.168	
4.995	0.681	0.155	
5.000	0.631	0.193	
5.005	-0.374	0.248	
5.010	0.259	0.237	
5.015	0.997	0.240	
5.020	-0.236	0.290	
5.025	-0.198	0.276	
5.030	0.960	0.234	
5.035	0.059	0.252	
5.040	-0.401	0.246	
5.045	0.665	0.194	
5.050	0.538	0.200	
5.055	-0.416	0.227	
5.060	0.209	0.195	
5.065	0.916	0.185	
5.070	-0.282	0.227	
5.075	-0.213	0.213	
5.080	0.941	0.177	
5.085	0.044	0.206	
5.090	-0.399	0.211	
5.095	0.657	0.170	
5.100	0.521	0.185	
5.105	-0.465	0.215	
5.110	0.030	0.173	
5.115	0.654	0.131	
5.120	-0.448	0.128	
5.125	-0.444	0.071	
5.130	0.407	-0.013	
5.135	-0.328	-0.050	
5.140	-0.733	-0.104	
5.145	-0.060	-0.197	
5.150	-0.157	-0.253	
5.155	-0.814	-0.289	
5.160	-0.375	-0.353	
5.165	0.014	-0.391	
5.170	-0.727	-0.387	
5.175	-0.675	-0.411	
5.180	0.011	-0.443	
5.185	-0.505	-0.430	
5.190	-0.855	-0.430	
5.195	-0.168	-0.460	
5.200	-0.227	-0.456	
5.205	-0.836	-0.437	
5.210	-0.366	-0.451	
5.215	0.104	-0.443	
5.220	-0.686	-0.396	
5.225	-0.622	-0.387	
5.230	0.140	-0.394	
5.235	-0.444	-0.361	
5.240	-0.785	-0.348	
5.245	-0.040	-0.373	
5.250	-0.117	-0.361	
5.255	-0.770	-0.337	
5.260	-0.296	-0.353	
5.265	0.198	-0.350	
5.270	-0.643	-0.308	
5.275	-0.546	-0.307	
5.280	0.288	-0.316	
5.285	-0.377	-0.278	
5.290	-0.718	-0.263	
5.295	0.087	-0.286	
5.300	-0.041	-0.272	
5.305	-0.698	-0.247	
5.310	-0.186	-0.264	
5.315	0.427	-0.253	
5.320	-0.534	-0.195	
5.325	-0.445	-0.181	
5.330	0.526	-0.182	
5.335	-0.265	-0.133	
5.340	-0.599	-0.112	
5.345	0.332	-0.134	
5.350	0.227	-0.106	
5.355	-0.557	-0.062	
5.360	0.032	-0.069	
5.365	0.727	-0.048	
5.370	-0.381	0.022	
5.375	-0.271	0.038	
5.380	0.877	0.037	
5.385	-0.049	0.095	
5.390	-0.419	0.123	
5.395	0.718	0.106	
5.400	0.543	0.150	
5.405	-0.430	0.208	
5.410	0.300	0.197	
5.415	0.974	0.208	
5.420	-0.265	0.266	
5.425	-0.137	0.260	
5.430	1.087	0.234	
5.435	0.114	0.278	
5.440	-0.323	0.293	
5.445	0.936	0.266	
5.450	0.774	0.310	
5.455	-0.311	0.375	
5.460	0.547	0.370	
5.465	1.201	0.391	
5.470	-0.145	0.458	
5.475	0.027	0.450	
5.480	1.276	0.418	
5.485	0.245	0.455	
5.490	-0.265	0.459	
5.495	1.008	0.409	
5.500	0.799	0.427	
5.505	-0.302	0.463	
5.510	0.518	0.428	
5.515	1.134	0.418	
5.520	-0.200	0.456	
5.525	-0.076	0.420	
5.530	1.085	0.359	
5.535	0.000	0.359	
5.540	-0.418	0.324	
5.545	0.645	0.238	
5.550	0.364	0.209	
5.555	-0.508	0.196	
5.560	0.076	0.127	
5.565	0.691	0.085	
5.570	-0.422	0.096	
5.575	-0.300	0.063	
5.580	0.733	0.022	
5.585	-0.200	0.042	
5.590	-0.529	0.035	
5.595	0.448	-0.012	
5.600	0.116	-0.011	
5.605	-0.630	-0.006	
5.610	-0.078	-0.059	
5.615	0.523	-0.086	
5.620	-0.514	-0.063	
5.625	-0.383	-0.080	
5.630	0.601	-0.106	
5.635	-0.268	-0.073	
5.640	-0.592	-0.068	
5.645	0.343	-0.104	
5.650	0.047	-0.096	
5.655	-0.648	-0.084	
5.660	-0.041	-0.122	
5.665	0.750	-0.118	
5.670	-0.256	-0.038	
5.675	0.131	0.025	
5.680	1.492	0.121	
5.685	0.352	0.305	
5.690	-0.316	0.427	
5.695	0.637	0.424	
5.700	0.021	0.390	
5.705	-0.758	0.297	
5.710	-0.238	0.117	
5.715	0.279	-0.037	
5.720	-0.592	-0.119	
5.725	-0.398	-0.197	
5.730	0.645	-0.233	
5.735	-0.221	-0.177	
5.740	-0.508	-0.131	
5.745	0.565	-0.115	
5.750	0.312	-0.043	
5.755	-0.511	0.032	
5.760	0.201	0.039	
5.765	0.819	0.069	
5.770	-0.349	0.139	
5.775	-0.174	0.145	
5.780	0.998	0.136	
5.785	-0.029	0.189	
5.790	-0.355	0.207	
5.795	0.854	0.183	
5.800	0.553	0.225	
5.805	-0.396	0.277	
5.810	0.442	0.260	
5.815	1.030	0.274	
5.820	-0.236	0.335	
5.825	-0.035	0.327	
5.830	1.175	0.303	
5.835	0.116	0.347	
5.840	-0.271	0.358	
5.845	1.026	0.324	
5.850	0.764	0.365	
5.855	-0.256	0.424	
5.860	0.718	0.419	
5.865	1.259	0.452	
5.870	-0.148	0.527	
5.875	0.102	0.516	
5.880	1.328	0.479	
5.885	0.198	0.509	
5.890	-0.247	0.498	
5.895	1.044	0.435	
5.900	0.691	0.441	
5.905	-0.340	0.458	
5.910	0.468	0.404	
5.915	0.948	0.375	
5.920	-0.305	0.386	
5.925	-0.148	0.329	
5.930	0.877	0.253	
5.935	-0.153	0.236	
5.940	-0.433	0.190	
5.945	0.643	0.116	
5.950	0.290	0.110	
5.955	-0.505	0.120	
5.960	0.207	0.079	
5.965	0.712	0.073	
5.970	-0.412	0.113	
5.975	-0.233	0.096	
5.980	0.799	0.066	
5.985	-0.200	0.093	
5.990	-0.470	0.086	
5.995	0.602	0.042	
6.000	0.242	0.057	
6.005	-0.528	0.080	
6.010	0.198	0.048	
6.015	0.726	0.051	
6.020	-0.403	0.101	
6.025	-0.220	0.093	
6.030	0.814	0.070	
6.035	-0.201	0.102	
6.040	-0.457	0.097	
6.045	0.611	0.053	
6.050	0.242	0.068	
6.055	-0.521	0.090	
6.060	0.158	0.054	
6.065	0.671	0.048	
6.070	-0.425	0.086	
6.075	-0.241	0.069	
6.080	0.726	0.040	
6.085	-0.244	0.063	
6.090	-0.489	0.051	
6.095	0.552	0.004	
6.100	0.165	0.017	
6.105	-0.549	0.035	
6.110	0.142	0.001	
6.115	0.596	-0.001	
6.120	-0.462	0.039	
6.125	-0.258	0.024	
6.130	0.738	0.001	
6.135	-0.239	0.035	
6.140	-0.483	0.035	
6.145	0.549	-0.002	
6.150	0.154	0.016	
6.155	-0.543	0.036	
6.160	0.181	0.005	
6.165	0.660	0.011	
6.170	-0.441	0.060	
6.175	-0.220	0.053	
6.180	0.791	0.036	
6.185	-0.226	0.073	
6.190	-0.470	0.072	
6.195	0.576	0.031	
6.200	0.175	0.045	
6.205	-0.535	0.061	
6.210	0.192	0.026	
6.215	0.646	0.026	
6.220	-0.430	0.070	
6.225	-0.191	0.060	
6.230	0.788	0.043	
6.235	-0.226	0.080	
6.240	-0.445	0.079	
6.245	0.691	0.044	
6.250	0.273	0.074	
6.255	-0.497	0.110	
6.260	0.296	0.087	
6.265	0.744	0.099	
6.270	-0.398	0.150	
6.275	-0.175	0.137	
6.280	0.837	0.110	
6.285	-0.221	0.135	
6.290	-0.485	0.118	
6.295	0.538	0.058	
6.300	0.101	0.050	
6.305	-0.564	0.044	
6.310	0.130	-0.008	
6.315	0.535	-0.021	
6.320	-0.499	0.008	
6.325	-0.265	-0.012	
6.330	0.648	-0.038	
6.335	-0.319	-0.010	
6.340	-0.531	-0.019	
6.345	0.430	-0.064	
6.350	-0.043	-0.061	
6.355	-0.639	-0.062	
6.360	0.110	-0.106	
6.365	0.735	-0.094	
6.370	-0.273	-0.011	
6.375	0.136	0.047	
6.380	1.125	0.119	
6.385	-0.169	0.235	
6.390	-0.520	0.260	
6.395	0.133	0.175	
6.400	-0.345	0.074	
6.405	-0.915	-0.058	
6.410	-0.316	-0.227	
6.415	-0.040	-0.341	
6.420	-0.720	-0.386	
6.425	-0.438	-0.425	
6.430	0.349	-0.423	
6.435	-0.448	-0.353	
6.440	-0.619	-0.307	
6.445	0.314	-0.291	
6.450	-0.098	-0.234	
6.455	-0.657	-0.187	
6.460	-0.012	-0.195	
6.465	0.372	-0.178	
6.470	-0.576	-0.129	
6.475	-0.299	-0.131	
6.480	0.655	-0.132	
6.485	-0.316	-0.076	
6.490	-0.491	-0.056	
6.495	0.587	-0.068	
6.500	0.116	-0.025	
6.505	-0.544	0.013	
6.510	0.238	-0.004	
6.515	0.610	0.013	
6.520	-0.442	0.066	
6.525	-0.139	0.061	
6.530	0.925	0.056	
6.535	-0.183	0.114	
6.540	-0.358	0.131	
6.545	0.881	0.114	
6.550	0.402	0.168	
6.555	-0.396	0.223	
6.560	0.561	0.217	
6.565	0.905	0.249	
6.570	-0.325	0.313	
6.575	-0.017	0.298	
6.580	1.005	0.265	
6.585	-0.163	0.285	
6.590	-0.357	0.257	
6.595	0.759	0.190	
6.600	0.169	0.183	
6.605	-0.563	0.171	
6.610	0.189	0.098	
6.615	0.491	0.058	
6.620	-0.528	0.057	
6.625	-0.268	0.008	
6.630	0.578	-0.040	
6.635	-0.380	-0.033	
6.640	-0.541	-0.057	
6.645	0.437	-0.105	
6.650	-0.079	-0.098	
6.655	-0.643	-0.093	
6.660	0.056	-0.134	
6.665	0.390	-0.136	
6.670	-0.553	-0.099	
6.675	-0.252	-0.107	
6.680	0.640	-0.110	
6.685	-0.343	-0.060	
6.690	-0.482	-0.049	
6.695	0.590	-0.067	
6.700	0.017	-0.031	
6.705	-0.550	-0.004	
6.710	0.287	-0.027	
6.715	0.594	-0.005	
6.720	-0.450	0.054	
6.725	-0.131	0.053	
6.730	0.851	0.049	
6.735	-0.241	0.100	
6.740	-0.393	0.105	
6.745	0.756	0.075	
6.750	0.184	0.107	
6.755	-0.488	0.132	
6.760	0.421	0.103	
6.765	0.701	0.119	
6.770	-0.410	0.169	
6.775	-0.081	0.154	
6.780	0.890	0.133	
6.785	-0.236	0.165	
6.790	-0.381	0.152	
6.795	0.774	0.108	
6.800	0.183	0.128	
6.805	-0.479	0.145	
6.810	0.466	0.112	
6.815	0.753	0.131	
6.820	-0.380	0.190	
6.825	0.014	0.184	
6.830	1.056	0.180	
6.835	-0.134	0.236	
6.840	-0.267	0.244	
6.845	0.991	0.218	
6.850	0.367	0.261	
6.855	-0.363	0.297	
6.860	0.681	0.275	
6.865	0.919	0.302	
6.870	-0.291	0.362	
6.875	0.163	0.348	
6.880	1.168	0.332	
6.885	-0.095	0.374	
6.890	-0.249	0.359	
6.895	1.012	0.305	
6.900	0.367	0.321	
6.905	-0.380	0.333	
6.910	0.611	0.287	
6.915	0.837	0.289	
6.920	-0.343	0.326	
6.925	0.041	0.293	
6.930	1.050	0.259	
6.935	-0.142	0.287	
6.940	-0.267	0.271	
6.945	0.960	0.226	
6.950	0.276	0.251	
6.955	-0.435	0.267	
6.960	0.501	0.221	
6.965	0.706	0.217	
6.970	-0.419	0.243	
6.975	-0.072	0.202	
6.980	0.863	0.158	
6.985	-0.276	0.171	
6.990	-0.401	0.142	
6.995	0.674	0.082	
7.000	0.020	0.083	
7.005	-0.557	0.075	
7.010	0.259	0.019	
7.015	0.456	0.007	
7.020	-0.534	0.029	
7.025	-0.206	-0.003	
7.030	0.706	-0.029	
7.035	-0.252	0.007	
7.040	-0.209	0.024	
7.045	1.337	0.058	
7.050	0.718	0.211	
7.055	-0.241	0.364	
7.060	0.671	0.414	
7.065	0.469	0.435	
7.070	-0.692	0.407	
7.075	-0.465	0.255	
7.080	0.108	0.063	
7.085	-0.630	-0.084	
7.090	-0.669	-0.224	
7.095	0.259	-0.331	
7.100	-0.217	-0.339	
7.105	-0.680	-0.320	
7.110	0.087	-0.320	
7.115	0.273	-0.272	
7.120	-0.599	-0.197	
7.125	-0.249	-0.177	
7.130	0.572	-0.159	
7.135	-0.419	-0.099	
7.140	-0.505	-0.087	
7.145	0.501	-0.108	
7.150	-0.130	-0.081	
7.155	-0.611	-0.070	
7.160	0.268	-0.102	
7.165	0.428	-0.082	
7.170	-0.528	-0.030	
7.175	-0.130	-0.034	
7.180	0.800	-0.029	
7.185	-0.294	0.033	
7.190	-0.372	0.050	
7.195	0.777	0.037	
7.200	0.114	0.084	
7.205	-0.450	0.117	
7.210	0.610	0.104	
7.215	0.771	0.149	
7.220	-0.366	0.226	
7.225	0.130	0.230	
7.230	1.111	0.236	
7.235	-0.133	0.298	
7.240	-0.236	0.301	
7.245	1.009	0.266	
7.250	0.279	0.295	
7.255	-0.416	0.307	
7.260	0.620	0.260	
7.265	0.703	0.259	
7.270	-0.428	0.285	
7.275	-0.072	0.234	
7.280	0.759	0.175	
7.285	-0.348	0.164	
7.290	-0.436	0.111	
7.295	0.587	0.036	
7.300	-0.122	0.020	
7.305	-0.610	-0.003	
7.310	0.216	-0.066	
7.315	0.338	-0.078	
7.320	-0.572	-0.054	
7.325	-0.194	-0.078	
7.330	0.608	-0.092	
7.335	-0.418	-0.054	
7.340	-0.474	-0.058	
7.345	0.527	-0.088	
7.350	-0.140	-0.066	
7.355	-0.598	-0.059	
7.360	0.274	-0.094	
7.365	0.419	-0.077	
7.370	-0.505	-0.026	
7.375	-0.072	-0.027	
7.380	0.812	-0.015	
7.385	-0.277	0.053	
7.390	-0.299	0.074	
7.395	0.971	0.076	
7.400	0.216	0.148	
7.405	-0.375	0.204	
7.410	0.805	0.206	
7.415	0.954	0.270	
7.420	-0.239	0.366	
7.425	0.415	0.387	
7.430	1.314	0.413	
7.435	-0.023	0.489	
7.440	-0.069	0.492	
7.445	1.291	0.454	
7.450	0.541	0.493	
7.455	-0.212	0.521	
7.460	1.069	0.493	
7.465	1.178	0.532	
7.470	-0.110	0.605	
7.475	0.700	0.607	
7.480	1.596	0.628	
7.485	0.223	0.713	
7.490	0.158	0.724	
7.495	1.547	0.693	
7.500	0.748	0.734	
7.505	-0.124	0.753	
7.510	1.162	0.701	
7.515	1.197	0.702	
7.520	-0.127	0.731	
7.525	0.616	0.683	
7.530	1.450	0.651	
7.535	0.064	0.680	
7.540	-0.014	0.641	
7.545	1.291	0.565	
7.550	0.415	0.561	
7.555	-0.305	0.539	
7.560	0.852	0.459	
7.565	0.851	0.439	
7.570	-0.325	0.451	
7.575	0.172	0.391	
7.580	0.947	0.334	
7.585	-0.274	0.327	
7.590	-0.317	0.267	
7.595	0.788	0.182	
7.600	-0.064	0.162	
7.605	-0.579	0.126	
7.610	0.209	0.038	
7.615	0.154	-0.012	
7.620	-0.677	-0.042	
7.625	-0.299	-0.118	
7.630	0.258	-0.181	
7.635	-0.602	-0.196	
7.640	-0.628	-0.240	
7.645	0.125	-0.297	
7.650	-0.401	-0.307	
7.655	-0.819	-0.324	
7.660	-0.148	-0.373	
7.665	-0.160	-0.387	
7.670	-0.831	-0.383	
7.675	-0.454	-0.415	
7.680	-0.050	-0.437	
7.685	-0.764	-0.428	
7.690	-0.787	-0.453	
7.695	-0.134	-0.496	
7.700	-0.564	-0.501	
7.705	-0.959	-0.513	
7.710	-0.311	-0.553	
7.715	-0.316	-0.558	
7.720	-0.953	-0.545	
7.725	-0.534	-0.565	
7.730	-0.096	-0.569	
7.735	-0.768	-0.534	
7.740	-0.753	-0.529	
7.745	-0.064	-0.536	
7.750	-0.496	-0.505	
7.755	-0.861	-0.484	
7.760	-0.192	-0.496	
7.765	-0.194	-0.477	
7.770	-0.819	-0.444	
7.775	-0.367	-0.447	
7.780	0.215	-0.428	
7.785	-0.617	-0.365	
7.790	-0.608	-0.342	
7.795	0.253	-0.340	
7.800	-0.322	-0.296	
7.805	-0.704	-0.271	
7.810	0.130	-0.282	
7.815	0.157	-0.249	
7.820	-0.613	-0.194	
7.825	-0.136	-0.187	
7.830	0.622	-0.161	
7.835	-0.419	-0.087	
7.840	-0.390	-0.062	
7.845	0.681	-0.063	
7.850	-0.114	-0.012	
7.855	-0.506	0.013	
7.860	0.535	-0.004	
7.865	0.486	0.036	
7.870	-0.468	0.097	
7.875	0.110	0.094	
7.880	0.889	0.104	
7.885	-0.305	0.163	
7.890	-0.261	0.163	
7.895	0.915	0.137	
7.900	0.026	0.172	
7.905	-0.428	0.183	
7.910	0.683	0.147	
7.915	0.631	0.175	
7.920	-0.410	0.227	
7.925	0.253	0.214	
7.930	1.037	0.220	
7.935	-0.233	0.279	
7.940	-0.180	0.275	
7.945	1.053	0.243	
7.950	0.157	0.279	
7.955	-0.360	0.291	
7.960	0.825	0.256	
7.965	0.742	0.285	
7.970	-0.354	0.337	
7.975	0.343	0.318	
7.980	1.119	0.317	
7.985	-0.204	0.367	
7.990	-0.180	0.349	
7.995	0.959	0.294	
8.000	0.011	0.293	
8.005	-0.430	0.264	
8.010	0.668	0.193	
8.015	0.579	0.190	
8.020	-0.415	0.219	
8.025	0.227	0.192	
8.030	0.933	0.188	
8.035	-0.279	0.235	
8.040	-0.226	0.222	
8.045	0.902	0.182	
8.050	-0.026	0.201	
8.055	-0.435	0.192	
8.060	0.645	0.141	
8.065	0.585	0.156	
8.070	-0.322	0.204	
8.075	0.698	0.219	
8.080	1.613	0.310	
8.085	0.157	0.486	
8.090	0.090	0.576	
8.095	1.009	0.576	
8.100	-0.180	0.559	
8.105	-0.704	0.444	
8.110	-0.079	0.229	
8.115	-0.169	0.034	
8.120	-0.782	-0.124	
8.125	-0.279	-0.272	
8.130	0.277	-0.343	
8.135	-0.593	-0.330	
8.140	-0.520	-0.328	
8.145	0.334	-0.327	
8.150	-0.352	-0.275	
8.155	-0.691	-0.248	
8.160	0.155	-0.262	
8.165	0.041	-0.236	
8.170	-0.668	-0.199	
8.175	-0.188	-0.213	
8.180	0.389	-0.211	
8.185	-0.549	-0.169	
8.190	-0.451	-0.170	
8.195	0.463	-0.185	
8.200	-0.300	-0.151	
8.205	-0.628	-0.141	
8.210	0.270	-0.170	
8.215	0.143	-0.150	
8.220	-0.607	-0.115	
8.225	-0.079	-0.129	
8.230	0.601	-0.120	
8.235	-0.438	-0.062	
8.240	-0.322	-0.050	
8.245	0.811	-0.047	
8.250	-0.105	0.018	
8.255	-0.462	0.053	
8.260	0.652	0.043	
8.265	0.511	0.093	
8.270	-0.416	0.158	
8.275	0.305	0.160	
8.280	0.936	0.184	
8.285	-0.297	0.248	
8.290	-0.194	0.241	
8.295	0.951	0.205	
8.300	-0.061	0.226	
8.305	-0.450	0.212	
8.310	0.569	0.148	
8.315	0.329	0.136	
8.320	-0.543	0.136	
8.325	-0.023	0.076	
8.330	0.550	0.030	
8.335	-0.483	0.029	
8.340	-0.378	-0.013	
8.345	0.534	-0.064	
8.350	-0.285	-0.059	
8.355	-0.604	-0.075	
8.360	0.274	-0.125	
8.365	0.041	-0.127	
8.370	-0.631	-0.118	
8.375	-0.104	-0.152	
8.380	0.466	-0.158	
8.385	-0.508	-0.117	
8.390	-0.372	-0.118	
8.395	0.585	-0.127	
8.400	-0.265	-0.084	
8.405	-0.569	-0.071	
8.410	0.392	-0.098	
8.415	0.178	-0.075	
8.420	-0.567	-0.042	
8.425	0.068	-0.058	
8.430	0.718	-0.043	
8.435	-0.399	0.024	
8.440	-0.247	0.037	
8.445	0.819	0.033	
8.450	-0.148	0.083	
8.455	-0.453	0.095	
8.460	0.669	0.066	
8.465	0.410	0.099	
8.470	-0.464	0.144	
8.475	0.259	0.128	
8.480	0.887	0.140	
8.485	-0.332	0.198	
8.490	-0.197	0.192	
8.495	0.934	0.163	
8.500	-0.072	0.192	
8.505	-0.399	0.189	
8.510	0.764	0.148	
8.515	0.491	0.175	
8.520	-0.421	0.217	
8.525	0.343	0.197	
8.530	0.927	0.206	
8.535	-0.313	0.259	
8.540	-0.163	0.244	
8.545	0.968	0.207	
8.550	-0.072	0.229	
8.555	-0.389	0.217	
8.560	0.764	0.168	
8.565	0.474	0.187	
8.570	-0.430	0.221	
8.575	0.328	0.194	
8.580	0.881	0.196	
8.585	-0.317	0.243	
8.590	-0.157	0.225	
8.595	0.974	0.191	
8.600	-0.085	0.217	
8.605	-0.396	0.209	
8.610	0.776	0.162	
8.615	0.476	0.184	
8.620	-0.421	0.221	
8.625	0.367	0.199	
8.630	0.910	0.207	
8.635	-0.325	0.259	
8.640	-0.143	0.242	
8.645	0.995	0.207	
8.650	-0.072	0.233	
8.655	-0.401	0.224	
8.660	0.785	0.174	
8.665	0.489	0.194	
8.670	-0.424	0.230	
8.675	0.363	0.205	
8.680	0.880	0.210	
8.685	-0.332	0.256	
8.690	-0.134	0.235	
8.695	1.006	0.200	
8.700	-0.085	0.229	
8.705	-0.383	0.221	
8.710	0.788	0.174	
8.715	0.421	0.193	
8.720	-0.435	0.222	
8.725	0.398	0.193	
8.730	0.931	0.203	
8.735	-0.303	0.260	
8.740	-0.107	0.251	
8.745	1.011	0.222	
8.750	-0.090	0.252	
8.755	-0.369	0.241	
8.760	0.829	0.191	
8.765	0.479	0.213	
8.770	-0.407	0.248	
8.775	0.393	0.222	
8.780	0.857	0.226	
8.785	-0.326	0.268	
8.790	-0.098	0.244	
8.795	1.037	0.211	
8.800	-0.079	0.243	
8.805	-0.354	0.238	
8.810	0.812	0.193	
8.815	0.421	0.213	
8.820	-0.432	0.240	
8.825	0.408	0.208	
8.830	0.905	0.213	
8.835	-0.316	0.264	
8.840	-0.104	0.248	
8.845	0.992	0.216	
8.850	-0.105	0.243	
8.855	-0.367	0.230	
8.860	0.782	0.179	
8.865	0.366	0.192	
8.870	-0.444	0.213	
8.875	0.418	0.179	
8.880	0.904	0.189	
8.885	-0.313	0.247	
8.890	-0.076	0.240	
8.895	1.038	0.218	
8.900	-0.089	0.255	
8.905	-0.361	0.250	
8.910	0.782	0.199	
8.915	0.369	0.210	
8.920	-0.454	0.226	
8.925	0.328	0.182	
8.930	0.756	0.171	
8.935	-0.401	0.201	
8.940	-0.168	0.168	
8.945	0.867	0.127	
8.950	-0.221	0.146	
8.955	-0.462	0.126	
8.960	0.607	0.068	
8.965	0.186	0.071	
8.970	-0.547	0.079	
8.975	0.139	0.032	
8.980	0.553	0.017	
8.985	-0.447	0.043	
8.990	-0.104	0.027	
8.995	1.226	0.041	
9.000	0.297	0.162	
9.005	-0.046	0.274	
9.010	1.290	0.347	
9.015	0.585	0.463	
9.020	-0.499	0.525	
9.025	-0.060	0.437	
9.030	0.079	0.288	
9.035	-0.721	0.133	
9.040	-0.457	-0.052	
9.045	0.363	-0.192	
9.050	-0.403	-0.231	
9.055	-0.573	-0.255	
9.060	0.395	-0.273	
9.065	-0.021	-0.222	
9.070	-0.611	-0.168	
9.075	0.073	-0.165	
9.080	0.472	-0.132	
9.085	-0.509	-0.068	
9.090	-0.247	-0.061	
9.095	0.689	-0.061	
9.100	-0.284	-0.010	
9.105	-0.486	-0.000	
9.110	0.549	-0.028	
9.115	0.113	-0.003	
9.120	-0.534	0.021	
9.125	0.236	-0.004	
9.130	0.637	0.011	
9.135	-0.435	0.066	
9.140	-0.185	0.061	
9.145	0.829	0.049	
9.150	-0.200	0.093	
9.155	-0.386	0.099	
9.160	0.745	0.074	
9.165	0.296	0.112	
9.170	-0.439	0.152	
9.175	0.468	0.138	
9.180	0.870	0.169	
9.185	-0.305	0.241	
9.190	0.008	0.244	
9.195	1.050	0.236	
9.200	-0.096	0.281	
9.205	-0.310	0.277	
9.210	0.857	0.230	
9.215	0.323	0.244	
9.220	-0.447	0.255	
9.225	0.332	0.202	
9.230	0.599	0.177	
9.235	-0.471	0.180	
9.240	-0.226	0.123	
9.245	0.620	0.058	
9.250	-0.377	0.045	
9.255	-0.579	-0.003	
9.260	0.320	-0.082	
9.265	-0.146	-0.110	
9.270	-0.700	-0.134	
9.275	-0.099	-0.197	
9.280	0.203	-0.224	
9.285	-0.636	-0.211	
9.290	-0.375	-0.232	
9.295	0.380	-0.246	
9.300	-0.448	-0.211	
9.305	-0.595	-0.206	
9.310	0.294	-0.227	
9.315	-0.165	-0.204	
9.320	-0.685	-0.188	
9.325	-0.041	-0.218	
9.330	0.285	-0.215	
9.335	-0.604	-0.177	
9.340	-0.322	-0.183	
9.345	0.486	-0.188	
9.350	-0.410	-0.144	
9.355	-0.558	-0.137	
9.360	0.401	-0.160	
9.365	-0.098	-0.135	
9.370	-0.628	-0.118	
9.375	0.075	-0.146	
9.380	0.389	-0.138	
9.385	-0.538	-0.093	
9.390	-0.226	-0.097	
9.395	0.675	-0.095	
9.400	-0.316	-0.039	
9.405	-0.470	-0.024	
9.410	0.538	-0.045	
9.415	-0.014	-0.020	
9.420	-0.570	-0.007	
9.425	0.212	-0.042	
9.430	0.524	-0.035	
9.435	-0.483	0.011	
9.440	-0.175	0.003	
9.445	0.739	-0.005	
9.450	-0.306	0.037	
9.455	-0.453	0.036	
9.460	0.604	0.001	
9.465	0.056	0.021	
9.470	-0.529	0.035	
9.475	0.309	0.004	
9.480	0.587	0.019	
9.485	-0.454	0.070	
9.490	-0.120	0.062	
9.495	0.832	0.053	
9.500	-0.255	0.098	
9.505	-0.395	0.099	
9.510	0.718	0.066	
9.515	0.140	0.092	
9.520	-0.499	0.111	
9.525	0.372	0.077	
9.530	0.633	0.087	
9.535	-0.428	0.132	
9.540	-0.108	0.114	
9.545	0.846	0.093	
9.550	-0.246	0.128	
9.555	-0.380	0.120	
9.560	0.738	0.082	
9.565	0.133	0.104	
9.570	-0.492	0.120	
9.575	0.398	0.084	
9.580	0.640	0.095	
9.585	-0.432	0.140	
9.590	-0.073	0.123	
9.595	0.875	0.105	
9.600	-0.242	0.143	
9.605	-0.361	0.137	
9.610	0.771	0.100	
9.615	0.154	0.125	
9.620	-0.476	0.142	
9.625	0.415	0.106	
9.630	0.639	0.115	
9.635	-0.432	0.156	
9.640	-0.067	0.134	
9.645	0.892	0.114	
9.650	-0.232	0.151	
9.655	-0.334	0.146	
9.660	0.841	0.114	
9.665	0.192	0.148	
9.670	-0.435	0.174	
9.675	0.555	0.149	
9.680	0.794	0.177	
9.685	-0.326	0.242	
9.690	0.178	0.244	
9.695	1.175	0.256	
9.700	-0.085	0.327	
9.705	-0.206	0.338	
9.710	1.049	0.307	
9.715	0.375	0.340	
9.720	-0.351	0.360	
9.725	0.687	0.320	
9.730	0.835	0.327	
9.735	-0.320	0.364	
9.740	0.184	0.333	
9.745	1.134	0.310	
9.750	-0.128	0.349	
9.755	-0.235	0.334	
9.760	0.992	0.283	
9.765	0.293	0.300	
9.770	-0.398	0.307	
9.775	0.581	0.258	
9.780	0.724	0.254	
9.785	-0.377	0.282	
9.790	0.187	0.251	
9.795	1.335	0.251	
9.800	0.276	0.349	
9.805	0.287	0.433	
9.810	1.573	0.506	
9.815	0.594	0.635	
9.820	-0.409	0.689	
9.825	0.213	0.589	
9.830	0.001	0.431	
9.835	-0.810	0.247	
9.840	-0.479	0.014	
9.845	0.094	-0.180	
9.850	-0.604	-0.284	
9.855	-0.619	-0.362	
9.860	0.261	-0.407	
9.865	-0.259	-0.370	
9.870	-0.710	-0.329	
9.875	0.012	-0.324	
9.880	0.165	-0.287	
9.885	-0.639	-0.229	
9.890	-0.256	-0.221	
9.895	0.527	-0.206	
9.900	-0.441	-0.143	
9.905	-0.492	-0.125	
9.910	0.480	-0.137	
9.915	-0.145	-0.103	
9.920	-0.598	-0.085	
9.925	0.247	-0.112	
9.930	0.369	-0.092	
9.935	-0.550	-0.045	
9.940	-0.151	-0.054	
9.945	0.671	-0.057	
9.950	-0.370	-0.010	
9.955	-0.407	-0.007	
9.960	0.698	-0.027	
9.965	-0.029	0.013	
9.970	-0.506	0.036	
9.975	0.498	0.016	
9.980	0.636	0.055	
9.985	-0.398	0.127	
9.990	0.120	0.138	
9.995	1.017	0.157	
10.000	-0.188	0.228	
10.005	-0.235	0.240	
10.010	0.974	0.216	
10.015	0.198	0.253	
10.020	-0.409	0.268	
10.025	0.599	0.226	
10.030	0.594	0.227	
10.035	-0.465	0.247	
10.040	-0.061	0.193	
10.045	0.742	0.138	
10.050	-0.370	0.134	
10.055	-0.427	0.088	
10.060	0.544	0.017	
10.065	-0.174	0.002	
10.070	-0.613	-0.025	
10.075	0.206	-0.089	
10.080	0.239	-0.102	
10.085	-0.598	-0.086	
10.090	-0.185	-0.115	
10.095	0.558	-0.126	
10.100	-0.448	-0.087	
10.105	-0.464	-0.088	
10.110	0.500	-0.113	
10.115	-0.198	-0.089	
10.120	-0.617	-0.084	
10.125	0.215	-0.123	
10.130	0.241	-0.116	
10.135	-0.582	-0.087	
10.140	-0.157	-0.106	
10.145	0.569	-0.111	
10.150	-0.451	-0.069	
10.155	-0.467	-0.072	
10.160	0.501	-0.101	
10.165	-0.186	-0.081	
10.170	-0.614	-0.078	
10.175	0.244	-0.116	
10.180	0.255	-0.108	
10.185	-0.592	-0.076	
10.190	-0.175	-0.098	
10.195	0.537	-0.109	
10.200	-0.450	-0.074	
10.205	-0.424	-0.079	
10.210	0.645	-0.097	
10.215	-0.073	-0.052	
10.220	-0.468	-0.018	
10.225	0.604	-0.017	
10.230	0.663	0.051	
10.235	-0.377	0.147	
10.240	0.274	0.175	
10.245	1.111	0.216	
10.250	-0.154	0.305	
10.255	-0.139	0.322	
10.260	1.113	0.303	
10.265	0.270	0.346	
10.270	-0.328	0.365	
10.275	0.825	0.327	
10.280	0.770	0.344	
10.285	-0.328	0.383	
10.290	0.319	0.352	
10.295	1.064	0.335	
10.300	-0.224	0.367	
10.305	-0.212	0.334	
10.310	0.991	0.272	
10.315	0.111	0.278	
10.320	-0.409	0.267	
10.325	0.630	0.208	
10.330	0.581	0.207	
10.335	-0.410	0.232	
10.340	0.189	0.199	
10.345	0.980	0.190	
10.350	-0.258	0.238	
10.355	-0.236	0.228	
10.360	0.915	0.189	
10.365	0.035	0.211	
10.370	-0.438	0.207	
10.375	0.572	0.155	
10.380	0.483	0.156	
10.385	-0.485	0.176	
10.390	0.004	0.131	
10.395	0.750	0.097	
10.400	-0.357	0.116	
10.405	-0.335	0.090	
10.410	0.687	0.045	
10.415	-0.134	0.056	
10.420	-0.543	0.046	
10.425	0.364	-0.007	
10.430	0.239	-0.013	
10.435	-0.581	-0.001	
10.440	-0.116	-0.043	
10.445	0.633	-0.064	
10.450	-0.357	-0.026	
10.455	-0.185	-0.015	
10.460	1.235	0.017	
10.465	0.390	0.153	
10.470	-0.284	0.271	
10.475	0.686	0.303	
10.480	0.233	0.324	
10.485	-0.752	0.293	
10.490	-0.410	0.146	
10.495	-0.027	-0.027	
10.500	-0.723	-0.162	
10.505	-0.642	-0.296	
10.510	0.137	-0.393	
10.515	-0.409	-0.405	
10.520	-0.764	-0.402	
10.525	-0.040	-0.418	
10.530	-0.110	-0.392	
10.535	-0.764	-0.355	
10.540	-0.306	-0.360	
10.545	0.224	-0.350	
10.550	-0.611	-0.302	
10.555	-0.564	-0.295	
10.560	0.261	-0.305	
10.565	-0.361	-0.272	
10.570	-0.700	-0.260	
10.575	0.122	-0.281	
10.580	0.049	-0.259	
10.585	-0.656	-0.220	
10.590	-0.174	-0.227	
10.595	0.477	-0.212	
10.600	-0.491	-0.153	
10.605	-0.404	-0.137	
10.610	0.619	-0.136	
10.615	-0.178	-0.080	
10.620	-0.518	-0.049	
10.625	0.511	-0.058	
10.630	0.402	-0.009	
10.635	-0.491	0.054	
10.640	0.192	0.057	
10.645	0.951	0.087	
10.650	-0.259	0.171	
10.655	-0.149	0.193	
10.660	1.061	0.192	
10.665	0.091	0.251	
10.670	-0.374	0.274	
10.675	0.742	0.239	
10.680	0.572	0.255	
10.685	-0.435	0.283	
10.690	0.168	0.238	
10.695	0.796	0.205	
10.700	-0.377	0.214	
10.705	-0.302	0.167	
10.710	0.729	0.102	
10.715	-0.194	0.095	
10.720	-0.549	0.065	
10.725	0.431	-0.002	
10.730	0.303	-0.006	
10.735	-0.544	0.016	
10.740	0.029	-0.011	
10.745	0.727	-0.011	
10.750	-0.387	0.041	
10.755	-0.284	0.044	
10.760	0.828	0.032	
10.765	-0.110	0.078	
10.770	-0.464	0.093	
10.775	0.605	0.063	
10.780	0.439	0.092	
10.785	-0.465	0.136	
10.790	0.175	0.118	
10.795	0.849	0.121	
10.800	-0.326	0.172	
10.805	-0.201	0.165	
10.810	0.947	0.141	
10.815	-0.041	0.179	
10.820	-0.409	0.186	
10.825	0.706	0.148	
10.830	0.535	0.173	
10.835	-0.409	0.216	
10.840	0.335	0.200	
10.845	0.962	0.212	
10.850	-0.282	0.270	
10.855	-0.154	0.260	
10.860	1.020	0.227	
10.865	-0.020	0.255	
10.870	-0.378	0.249	
10.875	0.799	0.202	
10.880	0.569	0.223	
10.885	-0.407	0.263	
10.890	0.306	0.237	
10.895	0.915	0.232	
10.900	-0.320	0.271	
10.905	-0.185	0.244	
10.910	0.985	0.199	
10.915	-0.020	0.222	
10.920	-0.389	0.218	
10.925	0.729	0.172	
10.930	0.482	0.190	
10.935	-0.432	0.221	
10.940	0.280	0.191	
10.945	0.901	0.189	
10.950	-0.306	0.235	
10.955	-0.160	0.220	
10.960	0.989	0.189	
10.965	-0.055	0.220	
10.970	-0.387	0.217	
10.975	0.762	0.173	
10.980	0.497	0.195	
10.985	-0.427	0.231	
10.990	0.338	0.205	
10.995	0.921	0.208	
11.000	-0.306	0.258	
11.005	-0.180	0.241	
11.010	0.937	0.200	
11.015	-0.107	0.217	
11.020	-0.451	0.197	
11.025	0.593	0.132	
11.030	0.311	0.124	
11.035	-0.528	0.129	
11.040	0.130	0.079	
11.045	0.701	0.060	
11.050	-0.421	0.091	
11.055	-0.268	0.070	
11.060	0.770	0.039	
11.065	-0.195	0.066	
11.070	-0.512	0.061	
11.075	0.485	0.013	
11.080	0.186	0.017	
11.085	-0.531	0.031	
11.090	0.270	0.004	
11.095	1.140	0.043	
11.100	0.014	0.173	
11.105	0.466	0.280	
11.110	1.570	0.397	
11.115	0.245	0.559	
11.120	-0.395	0.613	
11.125	0.384	0.518	
11.130	-0.137	0.387	
11.135	-0.770	0.221	
11.140	-0.207	0.011	
11.145	0.294	-0.135	
11.150	-0.575	-0.191	
11.155	-0.406	-0.241	
11.160	0.448	-0.265	
11.165	-0.351	-0.221	
11.170	-0.617	-0.199	
11.175	0.290	-0.211	
11.180	-0.029	-0.181	
11.185	-0.671	-0.153	
11.190	-0.117	-0.180	
11.195	0.367	-0.185	
11.200	-0.572	-0.151	
11.205	-0.399	-0.161	
11.210	0.500	-0.176	
11.215	-0.357	-0.140	
11.220	-0.625	-0.135	
11.225	0.293	-0.168	
11.230	-0.008	-0.156	
11.235	-0.630	-0.137	
11.240	-0.018	-0.162	
11.245	0.489	-0.152	
11.250	-0.492	-0.098	
11.255	-0.284	-0.089	
11.260	0.727	-0.084	
11.265	-0.233	-0.022	
11.270	-0.486	0.002	
11.275	0.642	-0.013	
11.280	0.338	0.035	
11.285	-0.460	0.091	
11.290	0.354	0.092	
11.295	0.861	0.126	
11.300	-0.352	0.199	
11.305	-0.148	0.199	
11.310	0.933	0.175	
11.315	-0.140	0.204	
11.320	-0.428	0.191	
11.325	0.610	0.131	
11.330	0.177	0.122	
11.335	-0.575	0.113	
11.340	0.047	0.045	
11.345	0.498	0.004	
11.350	-0.550	0.006	
11.355	-0.372	-0.039	
11.360	0.503	-0.091	
11.365	-0.367	-0.087	
11.370	-0.598	-0.107	
11.375	0.319	-0.155	
11.380	-0.046	-0.150	
11.385	-0.663	-0.140	
11.390	-0.053	-0.175	
11.395	0.421	-0.176	
11.400	-0.532	-0.132	
11.405	-0.319	-0.131	
11.410	0.610	-0.132	
11.415	-0.306	-0.080	
11.420	-0.534	-0.065	
11.425	0.503	-0.086	
11.430	0.101	-0.054	
11.435	-0.575	-0.022	
11.440	0.175	-0.043	
11.445	0.651	-0.025	
11.450	-0.450	0.035	
11.455	-0.220	0.037	
11.460	0.823	0.028	
11.465	-0.207	0.075	
11.470	-0.436	0.083	
11.475	0.666	0.052	
11.480	0.251	0.080	
11.485	-0.503	0.110	
11.490	0.287	0.083	
11.495	0.747	0.092	
11.500	-0.399	0.143	
11.505	-0.145	0.133	
11.510	0.927	0.114	
11.515	-0.174	0.155	
11.520	-0.404	0.154	
11.525	0.745	0.115	
11.530	0.294	0.138	
11.535	-0.477	0.163	
11.540	0.375	0.132	
11.545	0.802	0.142	
11.550	-0.387	0.194	
11.555	-0.140	0.179	
11.560	0.939	0.151	
11.565	-0.172	0.181	
11.570	-0.416	0.171	
11.575	0.756	0.123	
11.580	0.337	0.143	
11.585	-0.451	0.171	
11.590	0.401	0.146	
11.595	0.820	0.161	
11.600	-0.375	0.215	
11.605	-0.114	0.200	
11.610	0.966	0.173	
11.615	-0.142	0.204	
11.620	-0.351	0.198	
11.625	0.866	0.159	
11.630	0.404	0.193	
11.635	-0.425	0.232	
11.640	0.488	0.210	
11.645	0.919	0.228	
11.650	-0.316	0.288	
11.655	-0.041	0.275	
11.660	1.050	0.249	
11.665	-0.102	0.280	
11.670	-0.345	0.267	
11.675	0.840	0.213	
11.680	0.343	0.225	
11.685	-0.460	0.238	
11.690	0.354	0.191	
11.695	0.692	0.175	
11.700	-0.438	0.195	
11.705	-0.180	0.152	
11.710	0.802	0.103	
11.715	-0.259	0.114	
11.720	-0.457	0.090	
11.725	0.623	0.036	
11.730	0.116	0.045	
11.735	-0.560	0.054	
11.740	0.203	0.012	
11.745	0.538	0.007	
11.750	-0.515	0.038	
11.755	-0.215	0.014	
11.760	0.895	-0.003	
11.765	-0.089	0.058	
11.770	-0.124	0.105	
11.775	1.503	0.162	
11.780	0.948	0.337	
11.785	-0.246	0.507	
11.790	0.540	0.542	
11.795	0.521	0.522	
11.800	-0.646	0.459	
11.805	-0.425	0.288	
11.810	0.384	0.100	
11.815	-0.419	-0.015	
11.820	-0.549	-0.115	
11.825	0.480	-0.191	
11.830	0.003	-0.174	
11.835	-0.567	-0.137	
11.840	0.253	-0.134	
11.845	0.604	-0.083	
11.850	-0.460	0.004	
11.855	-0.163	0.023	
11.860	0.857	0.032	
11.865	-0.221	0.092	
11.870	-0.395	0.105	
11.875	0.751	0.080	
11.880	0.230	0.115	
11.885	-0.473	0.145	
11.890	0.462	0.121	
11.895	0.799	0.145	
11.900	-0.387	0.207	
11.905	-0.063	0.197	
11.910	0.950	0.177	
11.915	-0.183	0.210	
11.920	-0.355	0.198	
11.925	0.841	0.153	
11.930	0.323	0.179	
11.935	-0.415	0.208	
11.940	0.593	0.188	
11.945	0.937	0.222	
11.950	-0.291	0.299	
11.955	0.120	0.303	
11.960	1.186	0.302	
11.965	-0.050	0.358	
11.970	-0.253	0.358	
11.975	1.009	0.313	
11.980	0.395	0.332	
11.985	-0.412	0.345	
11.990	0.517	0.291	
11.995	0.727	0.273	
12.000	-0.445	0.285	
12.005	-0.160	0.223	
12.010	0.758	0.151	
12.015	-0.332	0.135	
12.020	-0.509	0.083	
12.025	0.474	0.001	
12.030	-0.108	-0.024	
12.035	-0.669	-0.050	
12.040	0.044	-0.119	
12.045	0.317	-0.143	
12.050	-0.610	-0.125	
12.055	-0.300	-0.149	
12.060	0.530	-0.164	
12.065	-0.413	-0.126	
12.070	-0.558	-0.123	
12.075	0.415	-0.150	
12.080	-0.105	-0.128	
12.085	-0.643	-0.114	
12.090	0.091	-0.146	
12.095	0.387	-0.138	
12.100	-0.572	-0.095	
12.105	-0.256	-0.103	
12.110	0.645	-0.108	
12.115	-0.363	-0.060	
12.120	-0.505	-0.052	
12.125	0.491	-0.079	
12.130	-0.098	-0.061	
12.135	-0.625	-0.055	
12.140	0.166	-0.097	
12.145	0.431	-0.093	
12.150	-0.538	-0.052	
12.155	-0.210	-0.061	
12.160	0.691	-0.067	
12.165	-0.346	-0.019	
12.170	-0.483	-0.015	
12.175	0.587	-0.043	
12.180	-0.003	-0.018	
12.185	-0.570	-0.001	
12.190	0.264	-0.034	
12.195	0.530	-0.021	
12.200	-0.505	0.027	
12.205	-0.160	0.016	
12.210	0.785	0.006	
12.215	-0.294	0.051	
12.220	-0.403	0.055	
12.225	0.701	0.028	
12.230	0.038	0.057	
12.235	-0.534	0.073	
12.240	0.354	0.035	
12.245	0.598	0.046	
12.250	-0.462	0.093	
12.255	-0.116	0.079	
12.260	0.840	0.064	
12.265	-0.279	0.104	
12.270	-0.398	0.099	
12.275	0.738	0.063	
12.280	0.107	0.088	
12.285	-0.509	0.105	
12.290	0.427	0.071	
12.295	0.654	0.088	
12.300	-0.428	0.140	
12.305	-0.046	0.128	
12.310	0.931	0.118	
12.315	-0.239	0.164	
12.320	-0.357	0.160	
12.325	0.815	0.123	
12.330	0.165	0.148	
12.335	-0.491	0.163	
12.340	0.456	0.124	
12.345	0.660	0.132	
12.350	-0.436	0.173	
12.355	-0.056	0.149	
12.360	0.904	0.126	
12.365	-0.247	0.161	
12.370	-0.354	0.151	
12.375	0.799	0.111	
12.380	0.105	0.133	
12.385	-0.496	0.143	
12.390	0.457	0.102	
12.395	0.636	0.111	
12.400	-0.453	0.154	
12.405	-0.069	0.131	
12.410	0.867	0.109	
12.415	-0.296	0.141	
12.420	-0.389	0.125	
12.425	0.729	0.079	
12.430	0.032	0.092	
12.435	-0.529	0.094	
12.440	0.389	0.048	
12.445	0.575	0.054	
12.450	-0.468	0.097	
12.455	-0.078	0.080	
12.460	0.861	0.068	
12.465	-0.271	0.112	
12.470	-0.357	0.112	
12.475	0.829	0.084	
12.480	0.117	0.120	
12.485	-0.476	0.143	
12.490	0.498	0.112	
12.495	0.652	0.131	
12.500	-0.430	0.179	
12.505	-0.006	0.160	
12.510	0.939	0.144	
12.515	-0.259	0.184	
12.520	-0.343	0.173	
12.525	0.808	0.130	
12.530	0.041	0.145	
12.535	-0.540	0.142	
12.540	0.361	0.083	
12.545	0.511	0.071	
12.550	-0.514	0.092	
12.555	-0.122	0.056	
12.560	0.790	0.029	
12.565	-0.340	0.062	
12.570	-0.441	0.052	
12.575	0.593	0.008	
12.580	-0.104	0.015	
12.585	-0.590	0.006	
12.590	0.380	-0.041	
12.595	0.715	-0.016	
12.600	-0.277	0.070	
12.605	0.581	0.133	
12.610	1.566	0.253	
12.615	0.087	0.441	
12.620	-0.210	0.522	
12.625	0.713	0.483	
12.630	-0.244	0.420	
12.635	-0.794	0.285	
12.640	-0.093	0.077	
12.645	0.072	-0.081	
12.650	-0.653	-0.172	
12.655	-0.233	-0.252	
12.660	0.622	-0.268	
12.665	-0.393	-0.198	
12.670	-0.427	-0.154	
12.675	0.680	-0.131	
12.680	-0.050	-0.054	
12.685	-0.538	-0.005	
12.690	0.424	-0.012	
12.695	0.558	0.027	
12.700	-0.468	0.090	
12.705	-0.034	0.086	
12.710	0.863	0.083	
12.715	-0.310	0.130	
12.720	-0.349	0.124	
12.725	0.812	0.089	
12.730	0.056	0.117	
12.735	-0.483	0.130	
12.740	0.532	0.094	
12.745	0.655	0.117	
12.750	-0.412	0.172	
12.755	0.108	0.165	
12.760	1.050	0.170	
12.765	-0.186	0.235	
12.770	-0.215	0.245	
12.775	1.079	0.226	
12.780	0.328	0.279	
12.785	-0.323	0.319	
12.790	0.886	0.306	
12.795	0.971	0.355	
12.800	-0.264	0.432	
12.805	0.367	0.427	
12.810	1.219	0.424	
12.815	-0.111	0.469	
12.820	-0.175	0.442	
12.825	1.067	0.375	
12.830	0.224	0.374	
12.835	-0.418	0.355	
12.840	0.573	0.278	
12.845	0.559	0.249	
12.850	-0.505	0.243	
12.855	-0.102	0.170	
12.860	0.675	0.101	
12.865	-0.430	0.086	
12.870	-0.479	0.032	
12.875	0.460	-0.043	
12.880	-0.217	-0.061	
12.885	-0.683	-0.090	
12.890	0.091	-0.156	
12.895	0.151	-0.176	
12.900	-0.653	-0.165	
12.905	-0.241	-0.194	
12.910	0.463	-0.203	
12.915	-0.514	-0.162	
12.920	-0.526	-0.162	
12.925	0.437	-0.185	
12.930	-0.227	-0.156	
12.935	-0.659	-0.144	
12.940	0.190	-0.174	
12.945	0.233	-0.159	
12.950	-0.610	-0.120	
12.955	-0.177	-0.132	
12.960	0.584	-0.131	
12.965	-0.435	-0.081	
12.970	-0.442	-0.075	
12.975	0.598	-0.091	
12.980	-0.153	-0.055	
12.985	-0.598	-0.041	
12.990	0.309	-0.074	
12.995	0.364	-0.059	
13.000	-0.553	-0.019	
13.005	-0.098	-0.034	
13.010	0.695	-0.038	
13.015	-0.396	0.009	
13.020	-0.403	0.007	
13.025	0.684	-0.019	
13.030	-0.111	0.011	
13.035	-0.567	0.019	
13.040	0.372	-0.021	
13.045	0.407	-0.010	
13.050	-0.537	0.027	
13.055	-0.076	0.006	
13.060	0.713	-0.004	
13.065	-0.395	0.036	
13.070	-0.387	0.027	
13.075	0.675	-0.005	
13.080	-0.133	0.019	
13.085	-0.567	0.020	
13.090	0.357	-0.026	
13.095	0.360	-0.020	
13.100	-0.553	0.011	
13.105	-0.089	-0.015	
13.110	0.707	-0.026	
13.115	-0.399	0.017	
13.120	-0.393	0.012	
13.125	0.665	-0.017	
13.130	-0.130	0.009	
13.135	-0.547	0.014	
13.140	0.425	-0.023	
13.145	0.404	-0.005	
13.150	-0.541	0.037	
13.155	-0.070	0.017	
13.160	0.739	0.006	
13.165	-0.374	0.047	
13.170	-0.378	0.041	
13.175	0.658	0.009	
13.180	-0.127	0.029	
13.185	-0.546	0.027	
13.190	0.433	-0.015	
13.195	0.415	0.001	
13.200	-0.528	0.042	
13.205	-0.029	0.024	
13.210	0.774	0.019	
13.215	-0.369	0.067	
13.220	-0.343	0.063	
13.225	0.756	0.036	
13.230	-0.067	0.067	
13.235	-0.499	0.076	
13.240	0.509	0.040	
13.245	0.480	0.061	
13.250	-0.486	0.106	
13.255	0.029	0.087	
13.260	0.828	0.080	
13.265	-0.337	0.124	
13.270	-0.311	0.115	
13.275	0.815	0.083	
13.280	-0.067	0.110	
13.285	-0.499	0.111	
13.290	0.544	0.067	
13.295	0.518	0.084	
13.300	-0.459	0.129	
13.305	0.105	0.114	
13.310	0.883	0.114	
13.315	-0.303	0.166	
13.320	-0.252	0.162	
13.325	0.941	0.136	
13.330	0.033	0.175	
13.335	-0.444	0.188	
13.340	0.643	0.150	
13.345	0.567	0.169	
13.350	-0.459	0.207	
13.355	0.107	0.177	
13.360	0.866	0.158	
13.365	-0.329	0.189	
13.370	-0.308	0.165	
13.375	0.762	0.114	
13.380	-0.119	0.119	
13.385	-0.532	0.099	
13.390	0.424	0.036	
13.395	0.352	0.029	
13.400	-0.541	0.047	
13.405	-0.041	0.012	
13.410	0.672	-0.005	
13.415	-0.422	0.028	
13.420	-0.372	0.014	
13.425	0.724	-0.016	
13.430	-0.063	0.019	
13.435	-0.386	0.043	
13.440	1.047	0.056	
13.445	1.155	0.185	
13.450	-0.146	0.362	
13.455	0.569	0.448	
13.460	1.020	0.501	
13.465	-0.413	0.535	
13.470	-0.515	0.439	
13.475	0.235	0.255	
13.480	-0.377	0.097	
13.485	-0.709	-0.054	
13.490	0.197	-0.193	
13.495	0.190	-0.231	
13.500	-0.587	-0.208	
13.505	-0.078	-0.207	
13.510	0.652	-0.172	
13.515	-0.422	-0.087	
13.520	-0.345	-0.053	
13.525	0.765	-0.043	
13.530	-0.114	0.020	
13.535	-0.518	0.047	
13.540	0.509	0.023	
13.545	0.428	0.049	
13.550	-0.489	0.094	
13.555	0.125	0.079	
13.560	0.878	0.086	
13.565	-0.310	0.146	
13.570	-0.242	0.150	
13.575	0.927	0.130	
13.580	-0.023	0.169	
13.585	-0.444	0.178	
13.590	0.665	0.138	
13.595	0.561	0.159	
13.600	-0.424	0.203	
13.605	0.258	0.186	
13.610	1.015	0.194	
13.615	-0.241	0.257	
13.620	-0.153	0.258	
13.625	1.113	0.237	
13.630	0.175	0.287	
13.635	-0.340	0.310	
13.640	0.870	0.281	
13.645	0.736	0.314	
13.650	-0.363	0.363	
13.655	0.337	0.336	
13.660	1.030	0.323	
13.665	-0.274	0.355	
13.670	-0.232	0.317	
13.675	0.889	0.246	
13.680	-0.087	0.234	
13.685	-0.499	0.194	
13.690	0.482	0.111	
13.695	0.270	0.084	
13.700	-0.584	0.075	
13.705	-0.072	0.012	
13.710	0.608	-0.027	
13.715	-0.470	-0.010	
13.720	-0.410	-0.034	
13.725	0.570	-0.072	
13.730	-0.236	-0.055	
13.735	-0.595	-0.060	
13.740	0.315	-0.102	
13.745	0.171	-0.095	
13.750	-0.608	-0.071	
13.755	-0.084	-0.099	
13.760	0.541	-0.105	
13.765	-0.477	-0.064	
13.770	-0.363	-0.069	
13.775	0.704	-0.081	
13.780	-0.197	-0.033	
13.785	-0.557	-0.015	
13.790	0.447	-0.043	
13.795	0.308	-0.019	
13.800	-0.531	0.021	
13.805	0.070	0.005	
13.810	0.747	0.013	
13.815	-0.398	0.068	
13.820	-0.294	0.067	
13.825	0.835	0.047	
13.830	-0.114	0.087	
13.835	-0.483	0.096	
13.840	0.578	0.060	
13.845	0.376	0.079	
13.850	-0.508	0.112	
13.855	0.143	0.085	
13.860	0.851	0.085	
13.865	-0.346	0.138	
13.870	-0.252	0.135	
13.875	0.881	0.110	
13.880	-0.105	0.142	
13.885	-0.474	0.141	
13.890	0.614	0.094	
13.895	0.412	0.107	
13.900	-0.508	0.137	
13.905	0.131	0.104	
13.910	0.805	0.095	
13.915	-0.361	0.136	
13.920	-0.259	0.124	
13.925	0.844	0.093	
13.930	-0.127	0.121	
13.935	-0.489	0.117	
13.940	0.550	0.068	
13.945	0.348	0.075	
13.950	-0.524	0.098	
13.955	0.090	0.063	
13.960	0.753	0.053	
13.965	-0.390	0.094	
13.970	-0.276	0.083	
13.975	0.803	0.056	
13.980	-0.157	0.086	
13.985	-0.500	0.085	
13.990	0.537	0.040	
13.995	0.329	0.052	
14.000	-0.532	0.079	
14.005	0.088	0.048	
14.010	0.739	0.041	
14.015	-0.398	0.085	
14.020	-0.259	0.076	
14.025	0.834	0.053	
14.030	-0.136	0.091	
14.035	-0.471	0.097	
14.040	0.636	0.062	
14.045	0.419	0.089	
14.050	-0.480	0.132	
14.055	0.218	0.114	
14.060	0.851	0.121	
14.065	-0.346	0.175	
14.070	-0.229	0.166	
14.075	0.855	0.133	
14.080	-0.157	0.154	
14.085	-0.517	0.136	
14.090	0.497	0.071	
14.095	0.236	0.058	
14.100	-0.566	0.060	
14.105	0.047	0.011	
14.110	0.654	-0.007	
14.115	-0.453	0.027	
14.120	-0.322	0.012	
14.125	0.710	-0.015	
14.130	-0.224	0.015	
14.135	-0.547	0.013	
14.140	0.462	-0.029	
14.145	0.216	-0.017	
14.150	-0.540	0.008	
14.155	0.302	-0.007	
14.160	1.207	0.046	
14.165	0.000	0.188	
14.170	0.276	0.292	
14.175	1.421	0.380	
14.180	0.082	0.501	
14.185	-0.512	0.518	
14.190	0.183	0.395	
14.195	-0.171	0.247	
14.200	-0.803	0.085	
14.205	-0.229	-0.104	
14.210	0.343	-0.219	
14.215	-0.567	-0.241	
14.220	-0.409	-0.262	
14.225	0.562	-0.263	
14.230	-0.294	-0.195	
14.235	-0.604	-0.154	
14.240	0.378	-0.158	
14.245	0.184	-0.115	
14.250	-0.598	-0.066	
14.255	0.015	-0.075	
14.260	0.627	-0.063	
14.265	-0.464	-0.009	
14.270	-0.308	-0.008	
14.275	0.768	-0.021	
14.280	-0.186	0.025	
14.285	-0.496	0.038	
14.290	0.598	0.011	
14.295	0.360	0.044	
14.300	-0.505	0.090	
14.305	0.215	0.076	
14.310	0.863	0.091	
14.315	-0.339	0.156	
14.320	-0.169	0.160	
14.325	1.023	0.148	
14.330	-0.018	0.201	
14.335	-0.345	0.219	
14.340	0.928	0.198	
14.345	0.642	0.250	
14.350	-0.355	0.316	
14.355	0.532	0.311	
14.360	1.140	0.336	
14.365	-0.210	0.407	
14.370	-0.031	0.398	
14.375	1.165	0.362	
14.380	0.035	0.385	
14.385	-0.358	0.365	
14.390	0.803	0.294	
14.395	0.444	0.283	
14.400	-0.500	0.280	
14.405	0.136	0.208	
14.410	0.648	0.153	
14.415	-0.477	0.142	
14.420	-0.345	0.080	
14.425	0.581	0.008	
14.430	-0.325	-0.006	
14.435	-0.613	-0.044	
14.440	0.326	-0.110	
14.445	-0.008	-0.121	
14.450	-0.681	-0.122	
14.455	-0.111	-0.168	
14.460	0.436	-0.181	
14.465	-0.555	-0.145	
14.470	-0.387	-0.149	
14.475	0.546	-0.160	
14.480	-0.332	-0.119	
14.485	-0.604	-0.110	
14.490	0.358	-0.140	
14.495	0.076	-0.120	
14.500	-0.614	-0.093	
14.505	-0.026	-0.117	
14.510	0.501	-0.115	
14.515	-0.508	-0.071	
14.520	-0.323	-0.075	
14.525	0.672	-0.085	
14.530	-0.264	-0.040	
14.535	-0.535	-0.028	
14.540	0.486	-0.056	
14.545	0.163	-0.032	
14.550	-0.569	-0.003	
14.555	0.110	-0.028	
14.560	0.652	-0.021	
14.565	-0.430	0.031	
14.570	-0.249	0.031	
14.575	0.809	0.019	
14.580	-0.198	0.064	
14.585	-0.486	0.071	
14.590	0.607	0.035	
14.595	0.293	0.058	
14.600	-0.517	0.090	
14.605	0.194	0.064	
14.610	0.738	0.067	
14.615	-0.407	0.115	
14.620	-0.226	0.103	
14.625	0.829	0.077	
14.630	-0.209	0.106	
14.635	-0.474	0.098	
14.640	0.630	0.052	
14.645	0.280	0.069	
14.650	-0.526	0.095	
14.655	0.203	0.064	
14.660	0.735	0.065	
14.665	-0.419	0.112	
14.670	-0.230	0.099	
14.675	0.825	0.071	
14.680	-0.200	0.101	
14.685	-0.470	0.095	
14.690	0.630	0.051	
14.695	0.270	0.069	
14.700	-0.538	0.094	
14.705	0.212	0.062	
14.710	0.735	0.063	
14.715	-0.416	0.110	
14.720	-0.218	0.099	
14.725	0.860	0.075	
14.730	-0.180	0.111	
14.735	-0.460	0.109	
14.740	0.643	0.068	
14.745	0.325	0.088	
14.750	-0.496	0.118	
14.755	0.280	0.093	
14.760	0.806	0.104	
14.765	-0.389	0.160	
14.770	-0.198	0.150	
14.775	0.913	0.123	
14.780	-0.133	0.156	
14.785	-0.395	0.155	
14.790	0.832	0.122	
14.795	0.466	0.163	
14.800	-0.438	0.215	
14.805	0.386	0.199	
14.810	0.889	0.211	
14.815	-0.326	0.263	
14.820	-0.098	0.246	
14.825	1.055	0.217	
14.830	-0.081	0.252	
14.835	-0.370	0.247	
14.840	0.835	0.199	
14.845	0.405	0.218	
14.850	-0.492	0.240	
14.855	0.282	0.193	
14.860	0.774	0.173	
14.865	-0.415	0.197	
14.870	-0.210	0.160	
14.875	0.819	0.111	
14.880	-0.230	0.122	
14.885	-0.480	0.099	
14.890	0.599	0.042	
14.895	0.174	0.048	
14.900	-0.555	0.060	
14.905	0.181	0.020	
14.910	0.655	0.018	
14.915	-0.464	0.061	
14.920	-0.255	0.047	
14.925	0.870	0.026	
14.930	-0.049	0.078	
14.935	-0.186	0.116	
14.940	1.430	0.160	
14.945	1.062	0.324	
14.950	-0.177	0.501	
14.955	0.662	0.559	
14.960	0.773	0.573	
14.965	-0.572	0.549	
14.970	-0.464	0.398	
14.975	0.322	0.196	
14.980	-0.428	0.049	
14.985	-0.616	-0.086	
14.990	0.387	-0.195	
14.995	0.012	-0.205	
15.000	-0.630	-0.182	
15.005	0.058	-0.192	
15.010	0.526	-0.161	
15.015	-0.514	-0.088	
15.020	-0.293	-0.073	
15.025	0.712	-0.070	
15.030	-0.267	-0.016	
15.035	-0.496	-0.001	
15.040	0.598	-0.024	
15.045	0.171	0.010	
15.050	-0.547	0.042	
15.055	0.235	0.019	
15.060	0.712	0.033	
15.065	-0.427	0.091	
15.070	-0.198	0.087	
15.075	0.867	0.071	
15.080	-0.201	0.111	
15.085	-0.422	0.113	
15.090	0.770	0.080	
15.095	0.346	0.117	
15.100	-0.470	0.159	
15.105	0.427	0.143	
15.110	0.918	0.168	
15.115	-0.311	0.240	
15.120	-0.015	0.244	
15.125	1.157	0.238	
15.130	-0.026	0.297	
15.135	-0.300	0.308	
15.140	1.001	0.273	
15.145	0.517	0.309	
15.150	-0.398	0.345	
15.155	0.503	0.309	
15.160	0.861	0.302	
15.165	-0.392	0.328	
15.170	-0.157	0.276	
15.175	0.861	0.207	
15.180	-0.255	0.195	
15.185	-0.505	0.146	
15.190	0.489	0.060	
15.195	-0.037	0.026	
15.200	-0.685	-0.008	
15.205	-0.038	-0.089	
15.210	0.375	-0.131	
15.215	-0.589	-0.121	
15.220	-0.360	-0.148	
15.225	0.480	-0.172	
15.230	-0.415	-0.143	
15.235	-0.625	-0.148	
15.240	0.335	-0.184	
15.245	-0.082	-0.170	
15.250	-0.677	-0.155	
15.255	-0.008	-0.185	
15.260	0.376	-0.181	
15.265	-0.584	-0.138	
15.270	-0.325	-0.143	
15.275	0.617	-0.147	
15.280	-0.337	-0.096	
15.285	-0.541	-0.080	
15.290	0.480	-0.101	
15.295	0.015	-0.073	
15.300	-0.599	-0.050	
15.305	0.168	-0.076	
15.310	0.569	-0.061	
15.315	-0.497	-0.005	
15.320	-0.229	-0.007	
15.325	0.785	-0.014	
15.330	-0.258	0.035	
15.335	-0.464	0.043	
15.340	0.665	0.016	
15.345	0.184	0.048	
15.350	-0.517	0.078	
15.355	0.283	0.053	
15.360	0.681	0.064	
15.365	-0.456	0.113	
15.370	-0.194	0.097	
15.375	0.863	0.072	
15.380	-0.230	0.106	
15.385	-0.447	0.101	
15.390	0.695	0.061	
15.395	0.204	0.082	
15.400	-0.526	0.104	
15.405	0.306	0.071	
15.410	0.686	0.077	
15.415	-0.451	0.123	
15.420	-0.188	0.104	
15.425	0.828	0.075	
15.430	-0.250	0.104	
15.435	-0.451	0.093	
15.440	0.663	0.048	
15.445	0.158	0.064	
15.450	-0.541	0.081	
15.455	0.291	0.045	
15.460	0.662	0.051	
15.465	-0.456	0.098	
15.470	-0.198	0.083	
15.475	0.803	0.058	
15.480	-0.262	0.087	
15.485	-0.456	0.078	
15.490	0.669	0.035	
15.495	0.157	0.056	
15.500	-0.541	0.076	
15.505	0.258	0.041	
15.510	0.655	0.045	
15.515	-0.445	0.091	
15.520	-0.166	0.078	
15.525	0.851	0.061	
15.530	-0.242	0.101	
15.535	-0.432	0.099	
15.540	0.713	0.061	
15.545	0.203	0.087	
15.550	-0.512	0.111	
15.555	0.373	0.082	
15.560	0.736	0.098	
15.565	-0.432	0.152	
15.570	-0.137	0.139	
15.575	0.941	0.118	
15.580	-0.198	0.157	
15.585	-0.387	0.154	
15.590	0.854	0.119	
15.595	0.329	0.156	
15.600	-0.480	0.193	
15.605	0.433	0.166	
15.610	0.819	0.178	
15.615	-0.372	0.229	
15.620	-0.066	0.213	
15.625	1.009	0.189	
15.630	-0.174	0.224	
15.635	-0.389	0.213	
15.640	0.785	0.160	
15.645	0.248	0.171	
15.650	-0.499	0.181	
15.655	0.383	0.135	
15.660	0.704	0.133	
15.665	-0.465	0.168	
15.670	-0.178	0.136	
15.675	0.776	0.093	
15.680	-0.306	0.104	
15.685	-0.494	0.075	
15.690	0.594	0.014	
15.695	0.023	0.015	
15.700	-0.607	0.014	
15.705	0.187	-0.035	
15.710	0.518	-0.040	
15.715	-0.534	-0.003	
15.720	-0.236	-0.020	
15.725	0.767	-0.036	
15.730	-0.235	0.012	
15.735	-0.297	0.033	
15.740	1.322	0.060	
15.745	0.969	0.215	
15.750	-0.142	0.396	
15.755	0.942	0.487	
15.760	0.948	0.566	
15.765	-0.489	0.608	
15.770	-0.372	0.499	
15.775	0.322	0.311	
15.780	-0.489	0.151	
15.785	-0.616	-0.014	
15.790	0.433	-0.152	
15.795	-0.050	-0.183	
15.800	-0.622	-0.178	
15.805	0.189	-0.193	
15.810	0.530	-0.152	
15.815	-0.514	-0.070	
15.820	-0.207	-0.049	
15.825	0.809	-0.035	
15.830	-0.284	0.030	
15.835	-0.442	0.047	
15.840	0.727	0.027	
15.845	0.134	0.065	
15.850	-0.526	0.093	
15.855	0.373	0.065	
15.860	0.691	0.081	
15.865	-0.438	0.135	
15.870	-0.110	0.123	
15.875	0.953	0.108	
15.880	-0.185	0.155	
15.885	-0.349	0.160	
15.890	0.910	0.135	
15.895	0.332	0.180	
15.900	-0.430	0.222	
15.905	0.598	0.205	
15.910	0.937	0.237	
15.915	-0.313	0.309	
15.920	0.107	0.307	
15.925	1.221	0.301	
15.930	-0.058	0.357	
15.935	-0.242	0.359	
15.940	1.113	0.320	
15.945	0.546	0.358	
15.950	-0.334	0.397	
15.955	0.715	0.370	
15.960	0.963	0.384	
15.965	-0.331	0.426	
15.970	-0.012	0.382	
15.975	0.992	0.319	
15.980	-0.218	0.310	
15.985	-0.422	0.255	
15.990	0.649	0.161	
15.995	0.011	0.127	
16.000	-0.614	0.089	
16.005	0.157	0.005	
16.010	0.415	-0.032	
16.015	-0.585	-0.026	
16.020	-0.291	-0.066	
16.025	0.587	-0.101	
16.030	-0.415	-0.078	
16.035	-0.557	-0.089	
16.040	0.468	-0.127	
16.045	-0.119	-0.110	
16.050	-0.657	-0.101	
16.055	0.123	-0.139	
16.060	0.398	-0.132	
16.065	-0.581	-0.089	
16.070	-0.256	-0.098	
16.075	0.662	-0.105	
16.080	-0.361	-0.056	
16.085	-0.491	-0.047	
16.090	0.590	-0.069	
16.095	-0.047	-0.037	
16.100	-0.608	-0.020	
16.105	0.227	-0.056	
16.110	0.517	-0.046	
16.115	-0.514	0.001	
16.120	-0.185	-0.008	
16.125	0.770	-0.016	
16.130	-0.314	0.031	
16.135	-0.456	0.034	
16.140	0.689	0.004	
16.145	0.056	0.034	
16.150	-0.558	0.054	
16.155	0.332	0.020	
16.160	0.607	0.032	
16.165	-0.479	0.082	
16.170	-0.142	0.068	
16.175	0.846	0.053	
16.180	-0.285	0.094	
16.185	-0.432	0.090	
16.190	0.736	0.052	
16.195	0.090	0.076	
16.200	-0.540	0.091	
16.205	0.386	0.054	
16.210	0.654	0.067	
16.215	-0.464	0.117	
16.220	-0.114	0.103	
16.225	0.887	0.085	
16.230	-0.270	0.125	
16.235	-0.406	0.119	
16.240	0.776	0.080	
16.245	0.130	0.105	
16.250	-0.515	0.122	
16.255	0.425	0.086	
16.260	0.665	0.098	
16.265	-0.454	0.146	
16.270	-0.095	0.127	
16.275	0.918	0.107	
16.280	-0.250	0.146	
16.285	-0.386	0.140	
16.290	0.800	0.101	
16.295	0.105	0.124	
16.300	-0.537	0.134	
16.305	0.404	0.088	
16.310	0.657	0.092	
16.315	-0.453	0.136	
16.320	-0.078	0.117	
16.325	0.936	0.101	
16.330	-0.259	0.146	
16.335	-0.389	0.142	
16.340	0.799	0.103	
16.345	0.154	0.128	
16.350	-0.506	0.144	
16.355	0.436	0.106	
16.360	0.649	0.114	
16.365	-0.451	0.157	
16.370	-0.098	0.132	
16.375	0.878	0.107	
16.380	-0.293	0.137	
16.385	-0.418	0.121	
16.390	0.761	0.074	
16.395	0.114	0.093	
16.400	-0.502	0.108	
16.405	0.453	0.075	
16.410	0.645	0.094	
16.415	-0.462	0.144	
16.420	-0.081	0.126	
16.425	0.944	0.109	
16.430	-0.242	0.152	
16.435	-0.374	0.149	
16.440	0.823	0.113	
16.445	0.151	0.140	
16.450	-0.518	0.155	
16.455	0.407	0.112	
16.460	0.627	0.113	
16.465	-0.460	0.147	
16.470	-0.120	0.118	
16.475	0.808	0.087	
16.480	-0.322	0.110	
16.485	-0.447	0.088	
16.490	0.645	0.034	
16.495	-0.018	0.040	
16.500	-0.585	0.036	
16.505	0.273	-0.015	
16.510	0.485	-0.016	
16.515	-0.521	0.019	
16.520	-0.168	-0.001	
16.525	0.729	-0.016	
16.530	-0.357	0.022	
16.535	-0.435	0.018	
16.540	0.852	-0.005	
16.545	0.433	0.063	
16.550	-0.210	0.155	
16.555	1.192	0.227	
16.560	1.319	0.381	
16.565	-0.241	0.553	
16.570	-0.002	0.573	
16.575	0.614	0.495	
16.580	-0.540	0.397	
16.585	-0.677	0.222	
16.590	0.227	0.019	
16.595	-0.232	-0.106	
16.600	-0.688	-0.190	
16.605	0.143	-0.264	
16.610	0.372	-0.253	
16.615	-0.572	-0.186	
16.620	-0.186	-0.163	
16.625	0.706	-0.133	
16.630	-0.374	-0.054	
16.635	-0.477	-0.029	
16.640	0.623	-0.044	
16.645	-0.024	-0.009	
16.650	-0.553	0.011	
16.655	0.386	-0.016	
16.660	0.564	0.010	
16.665	-0.496	0.068	
16.670	-0.105	0.059	
16.675	0.851	0.051	
16.680	-0.302	0.097	
16.685	-0.399	0.095	
16.690	0.756	0.060	
16.695	0.058	0.086	
16.700	-0.508	0.100	
16.705	0.501	0.067	
16.710	0.703	0.094	
16.715	-0.415	0.159	
16.720	0.026	0.156	
16.725	0.997	0.156	
16.730	-0.203	0.211	
16.735	-0.276	0.213	
16.740	1.020	0.187	
16.745	0.308	0.236	
16.750	-0.396	0.273	
16.755	0.660	0.249	
16.760	0.832	0.272	
16.765	-0.370	0.324	
16.770	0.062	0.296	
16.775	0.998	0.263	
16.780	-0.247	0.282	
16.785	-0.363	0.245	
16.790	0.741	0.171	
16.795	-0.009	0.155	
16.800	-0.573	0.125	
16.805	0.239	0.045	
16.810	0.370	0.010	
16.815	-0.589	0.009	
16.820	-0.229	-0.041	
16.825	0.572	-0.080	
16.830	-0.454	-0.063	
16.835	-0.535	-0.083	
16.840	0.486	-0.126	
16.845	-0.154	-0.110	
16.850	-0.662	-0.105	
16.855	0.148	-0.144	
16.860	0.293	-0.140	
16.865	-0.601	-0.106	
16.870	-0.209	-0.122	
16.875	0.622	-0.125	
16.880	-0.421	-0.075	
16.885	-0.489	-0.070	
16.890	0.564	-0.093	
16.895	-0.117	-0.063	
16.900	-0.607	-0.049	
16.905	0.273	-0.082	
16.910	0.421	-0.067	
16.915	-0.550	-0.021	
16.920	-0.153	-0.033	
16.925	0.732	-0.038	
16.930	-0.351	0.010	
16.935	-0.422	0.014	
16.940	0.691	-0.010	
16.945	-0.035	0.023	
16.950	-0.561	0.037	
16.955	0.355	0.001	
16.960	0.474	0.011	
16.965	-0.517	0.051	
16.970	-0.119	0.029	
16.975	0.776	0.014	
16.980	-0.342	0.055	
16.985	-0.406	0.050	
16.990	0.719	0.019	
16.995	-0.003	0.047	
17.000	-0.543	0.060	
17.005	0.405	0.024	
17.010	0.570	0.041	
17.015	-0.480	0.090	
17.020	-0.066	0.077	
17.025	0.864	0.068	
17.030	-0.303	0.114	
17.035	-0.367	0.110	
17.040	0.796	0.077	
17.045	0.058	0.105	
17.050	-0.511	0.119	
17.055	0.454	0.080	
17.060	0.585	0.091	
17.065	-0.467	0.133	
17.070	-0.035	0.112	
17.075	0.895	0.097	
17.080	-0.281	0.140	
17.085	-0.360	0.134	
17.090	0.819	0.098	
17.095	0.075	0.125	
17.100	-0.485	0.137	
17.105	0.527	0.101	
17.110	0.645	0.120	
17.115	-0.428	0.172	
17.120	0.040	0.158	
17.125	0.962	0.150	
17.130	-0.255	0.197	
17.135	-0.320	0.190	
17.140	0.887	0.151	
17.145	0.128	0.177	
17.150	-0.465	0.189	
17.155	0.552	0.148	
17.160	0.613	0.158	
17.165	-0.450	0.195	
17.170	-0.034	0.163	
17.175	0.814	0.130	
17.180	-0.340	0.148	
17.185	-0.403	0.117	
17.190	0.694	0.060	
17.195	-0.055	0.063	
17.200	-0.561	0.054	
17.205	0.380	0.003	
17.210	0.491	0.009	
17.215	-0.514	0.049	
17.220	-0.128	0.030	
17.225	0.745	0.013	
17.230	-0.352	0.049	
17.235	-0.358	0.043	
17.240	0.986	0.029	
17.245	0.479	0.113	
17.250	-0.163	0.215	
17.255	1.204	0.289	
17.260	1.160	0.429	
17.265	-0.311	0.566	
17.270	-0.047	0.552	
17.275	0.486	0.447	
17.280	-0.585	0.329	
17.285	-0.639	0.149	
17.290	0.251	-0.042	
17.295	-0.246	-0.145	
17.300	-0.666	-0.211	
17.305	0.194	-0.268	
17.310	0.341	-0.244	
17.315	-0.567	-0.173	
17.320	-0.154	-0.150	
17.325	0.687	-0.119	
17.330	-0.383	-0.044	
17.335	-0.422	-0.022	
17.340	0.662	-0.033	
17.345	-0.078	0.006	
17.350	-0.555	0.021	
17.355	0.408	-0.011	
17.360	0.503	0.011	
17.365	-0.494	0.062	
17.370	-0.060	0.050	
17.375	0.848	0.046	
17.380	-0.306	0.097	
17.385	-0.357	0.098	
17.390	0.788	0.070	
17.395	0.017	0.100	
17.400	-0.480	0.113	
17.405	0.543	0.079	
17.410	0.620	0.105	
17.415	-0.418	0.161	
17.420	0.123	0.155	
17.425	1.040	0.163	
17.430	-0.207	0.229	
17.435	-0.238	0.237	
17.440	1.035	0.214	
17.445	0.247	0.259	
17.450	-0.406	0.285	
17.455	0.665	0.250	
17.460	0.727	0.263	
17.465	-0.401	0.300	
17.470	0.113	0.264	
17.475	0.931	0.233	
17.480	-0.300	0.252	
17.485	-0.360	0.213	
17.490	0.707	0.141	
17.495	-0.131	0.122	
17.500	-0.611	0.082	
17.505	0.207	-0.005	
17.510	0.235	-0.046	
17.515	-0.633	-0.055	
17.520	-0.235	-0.108	
17.525	0.497	-0.142	
17.530	-0.492	-0.120	
17.535	-0.512	-0.133	
17.540	0.454	-0.164	
17.545	-0.232	-0.142	
17.550	-0.668	-0.136	
17.555	0.169	-0.172	
17.560	0.238	-0.163	
17.565	-0.616	-0.127	
17.570	-0.183	-0.140	
17.575	0.590	-0.139	
17.580	-0.442	-0.087	
17.585	-0.448	-0.080	
17.590	0.607	-0.095	
17.595	-0.140	-0.056	
17.600	-0.590	-0.039	
17.605	0.322	-0.069	
17.610	0.348	-0.053	
17.615	-0.564	-0.014	
17.620	-0.111	-0.034	
17.625	0.738	-0.039	
17.630	-0.387	0.010	
17.635	-0.403	0.012	
17.640	0.704	-0.011	
17.645	-0.069	0.022	
17.650	-0.538	0.036	
17.655	0.408	0.002	
17.660	0.436	0.018	
17.665	-0.523	0.058	
17.670	-0.063	0.035	
17.675	0.770	0.023	
17.680	-0.364	0.065	
17.685	-0.375	0.058	
17.690	0.732	0.026	
17.695	-0.066	0.053	
17.700	-0.529	0.059	
17.705	0.460	0.021	
17.710	0.489	0.039	
17.715	-0.514	0.083	
17.720	-0.067	0.062	
17.725	0.773	0.046	
17.730	-0.358	0.081	
17.735	-0.360	0.069	
17.740	0.744	0.035	
17.745	-0.072	0.061	
17.750	-0.535	0.065	
17.755	0.465	0.024	
17.760	0.497	0.041	
17.765	-0.494	0.086	
17.770	-0.003	0.069	
17.775	0.860	0.065	
17.780	-0.319	0.115	
17.785	-0.326	0.114	
17.790	0.857	0.087	
17.795	0.030	0.123	
17.800	-0.470	0.139	
17.805	0.604	0.107	
17.810	0.614	0.134	
17.815	-0.444	0.186	
17.820	0.101	0.170	
17.825	0.931	0.162	
17.830	-0.285	0.206	
17.835	-0.281	0.193	
17.840	0.915	0.154	
17.845	0.046	0.180	
17.850	-0.479	0.184	
17.855	0.529	0.134	
17.860	0.520	0.136	
17.865	-0.494	0.161	
17.870	-0.018	0.121	
17.875	0.811	0.092	
17.880	-0.349	0.119	
17.885	-0.355	0.099	
17.890	0.756	0.057	
17.895	-0.072	0.076	
17.900	-0.526	0.075	
17.905	0.460	0.030	
17.910	0.439	0.041	
17.915	-0.520	0.077	
17.920	-0.009	0.052	
17.925	0.951	0.049	
17.930	-0.139	0.120	
17.935	0.094	0.168	
17.940	1.625	0.238	
17.945	0.722	0.416	
17.950	-0.232	0.558	
17.955	0.706	0.569	
17.960	0.311	0.538	
17.965	-0.707	0.453	
17.970	-0.300	0.262	
17.975	0.401	0.078	
17.980	-0.505	-0.027	
17.985	-0.465	-0.123	
17.990	0.588	-0.187	
17.995	-0.148	-0.158	
18.000	-0.582	-0.128	
18.005	0.332	-0.134	
18.010	0.332	-0.094	
18.015	-0.552	-0.036	
18.020	-0.052	-0.039	
18.025	0.747	-0.029	
18.030	-0.375	0.030	
18.035	-0.355	0.038	
18.040	0.764	0.019	
18.045	-0.070	0.058	
18.050	-0.503	0.071	
18.055	0.541	0.040	
18.060	0.526	0.068	
18.065	-0.479	0.121	
18.070	0.043	0.107	
18.075	0.886	0.103	
18.080	-0.299	0.152	
18.085	-0.267	0.149	
18.090	0.959	0.126	
18.095	0.108	0.172	
18.100	-0.413	0.199	
18.105	0.736	0.176	
18.110	0.744	0.215	
18.115	-0.367	0.281	
18.120	0.314	0.276	
18.125	1.146	0.287	
18.130	-0.178	0.352	
18.135	-0.134	0.349	
18.140	1.151	0.316	
18.145	0.227	0.352	
18.150	-0.370	0.361	
18.155	0.761	0.311	
18.160	0.658	0.312	
18.165	-0.433	0.331	
18.170	0.096	0.274	
18.175	0.838	0.223	
18.180	-0.369	0.222	
18.185	-0.387	0.167	
18.190	0.630	0.085	
18.195	-0.195	0.061	
18.200	-0.624	0.020	
18.205	0.264	-0.059	
18.210	0.187	-0.082	
18.215	-0.643	-0.079	
18.220	-0.192	-0.122	
18.225	0.537	-0.144	
18.230	-0.489	-0.110	
18.235	-0.479	-0.115	
18.240	0.508	-0.140	
18.245	-0.241	-0.113	
18.250	-0.645	-0.107	
18.255	0.227	-0.145	
18.260	0.224	-0.135	
18.265	-0.607	-0.102	
18.270	-0.125	-0.119	
18.275	0.622	-0.116	
18.280	-0.448	-0.062	
18.285	-0.422	-0.056	
18.290	0.630	-0.074	
18.295	-0.171	-0.038	
18.300	-0.573	-0.027	
18.305	0.413	-0.058	
18.310	0.363	-0.034	
18.315	-0.544	0.011	
18.320	-0.049	-0.004	
18.325	0.722	-0.007	
18.330	-0.403	0.038	
18.335	-0.366	0.033	
18.340	0.739	0.006	
18.345	-0.110	0.038	
18.350	-0.524	0.046	
18.355	0.488	0.011	
18.360	0.416	0.032	
18.365	-0.521	0.073	
18.370	0.011	0.051	
18.375	0.802	0.045	
18.380	-0.358	0.092	
18.385	-0.317	0.087	
18.390	0.815	0.060	
18.395	-0.098	0.092	
18.400	-0.531	0.095	
18.405	0.474	0.047	
18.410	0.434	0.054	
18.415	-0.518	0.086	
18.420	0.015	0.058	
18.425	0.779	0.048	
18.430	-0.372	0.089	
18.435	-0.329	0.079	
18.440	0.770	0.048	
18.445	-0.108	0.074	
18.450	-0.517	0.075	
18.455	0.515	0.033	
18.460	0.445	0.050	
18.465	-0.508	0.091	
18.470	0.035	0.069	
18.475	0.784	0.062	
18.480	-0.378	0.103	
18.485	-0.316	0.091	
18.490	0.779	0.058	
18.495	-0.134	0.082	
18.500	-0.535	0.077	
18.505	0.497	0.028	
18.510	0.421	0.040	
18.515	-0.517	0.076	
18.520	0.021	0.052	
18.525	0.780	0.045	
18.530	-0.349	0.090	
18.535	-0.291	0.086	
18.540	0.863	0.065	
18.545	-0.047	0.107	
18.550	-0.467	0.121	
18.555	0.625	0.090	
18.560	0.530	0.118	
18.565	-0.464	0.167	
18.570	0.154	0.149	
18.575	0.927	0.148	
18.580	-0.308	0.199	
18.585	-0.258	0.189	
18.590	0.907	0.154	
18.595	-0.041	0.178	
18.600	-0.509	0.171	
18.605	0.485	0.110	
18.610	0.395	0.099	
18.615	-0.529	0.110	
18.620	0.021	0.065	
18.625	0.770	0.044	
18.630	-0.386	0.080	
18.635	-0.337	0.067	
18.640	0.745	0.034	
18.645	-0.136	0.058	
18.650	-0.528	0.057	
18.655	0.466	0.013	
18.660	0.335	0.022	
18.665	-0.532	0.051	
18.670	0.178	0.030	
18.675	1.178	0.061	
18.680	0.001	0.182	
18.685	0.280	0.275	
18.690	1.596	0.370	
18.695	0.419	0.528	
18.700	-0.406	0.601	
18.705	0.369	0.526	
18.710	-0.044	0.405	
18.715	-0.779	0.248	
18.720	-0.273	0.038	
18.725	0.389	-0.115	
18.730	-0.535	-0.171	
18.735	-0.442	-0.218	
18.740	0.573	-0.241	
18.745	-0.224	-0.185	
18.750	-0.593	-0.145	
18.755	0.404	-0.145	
18.760	0.297	-0.095	
18.765	-0.570	-0.033	
18.770	-0.044	-0.037	
18.775	0.707	-0.030	
18.780	-0.407	0.023	
18.785	-0.326	0.025	
18.790	0.782	0.009	
18.795	-0.133	0.050	
18.800	-0.520	0.061	
18.805	0.505	0.024	
18.810	0.402	0.043	
18.815	-0.503	0.081	
18.820	0.119	0.063	
18.825	0.851	0.069	
18.830	-0.348	0.127	
18.835	-0.265	0.127	
18.840	0.927	0.106	
18.845	0.015	0.150	
18.850	-0.425	0.169	
18.855	0.765	0.143	
18.860	0.680	0.187	
18.865	-0.366	0.255	
18.870	0.404	0.257	
18.875	1.143	0.284	
18.880	-0.195	0.360	
18.885	-0.124	0.360	
18.890	1.142	0.326	
18.895	0.126	0.354	
18.900	-0.372	0.350	
18.905	0.777	0.291	
18.910	0.575	0.289	
18.915	-0.462	0.302	
18.920	0.101	0.242	
18.925	0.784	0.191	
18.930	-0.409	0.189	
18.935	-0.367	0.135	
18.940	0.607	0.058	
18.945	-0.258	0.037	
18.950	-0.633	-0.005	
18.955	0.253	-0.084	
18.960	0.093	-0.108	
18.965	-0.672	-0.111	
18.970	-0.168	-0.158	
18.975	0.448	-0.177	
18.980	-0.538	-0.145	
18.985	-0.445	-0.152	
18.990	0.541	-0.169	
18.995	-0.274	-0.129	
19.000	-0.630	-0.115	
19.005	0.300	-0.144	
19.010	0.163	-0.125	
19.015	-0.624	-0.093	
19.020	-0.087	-0.114	
19.025	0.619	-0.111	
19.030	-0.460	-0.058	
19.035	-0.367	-0.052	
19.040	0.681	-0.063	
19.045	-0.191	-0.020	
19.050	-0.546	-0.006	
19.055	0.468	-0.036	
19.060	0.331	-0.011	
19.065	-0.547	0.031	
19.070	0.044	0.012	
19.075	0.748	0.014	
19.080	-0.398	0.065	
19.085	-0.305	0.062	
19.090	0.761	0.038	
19.095	-0.133	0.069	
19.100	-0.508	0.071	
19.105	0.584	0.033	
19.110	0.427	0.058	
19.115	-0.499	0.103	
19.120	0.134	0.086	
19.125	0.815	0.089	
19.130	-0.375	0.138	
19.135	-0.274	0.127	
19.140	0.860	0.095	
19.145	-0.102	0.124	
19.150	-0.488	0.123	
19.155	0.605	0.078	
19.160	0.404	0.093	
19.165	-0.508	0.125	
19.170	0.160	0.097	
19.175	0.848	0.096	
19.180	-0.366	0.146	
19.185	-0.261	0.137	
19.190	0.857	0.106	
19.195	-0.108	0.133	
19.200	-0.489	0.129	
19.205	0.565	0.079	
19.210	0.404	0.088	
19.215	-0.503	0.116	
19.220	0.120	0.087	
19.225	0.820	0.082	
19.230	-0.370	0.128	
19.235	-0.279	0.118	
19.240	0.831	0.087	
19.245	-0.124	0.114	
19.250	-0.492	0.110	
19.255	0.604	0.065	
19.260	0.407	0.082	
19.265	-0.509	0.117	
19.270	0.105	0.090	
19.275	0.793	0.082	
19.280	-0.378	0.124	
19.285	-0.279	0.111	
19.290	0.834	0.079	
19.295	-0.120	0.107	
19.300	-0.492	0.106	
19.305	0.604	0.063	
19.310	0.444	0.083	
19.315	-0.480	0.125	
19.320	0.190	0.107	
19.325	0.878	0.114	
19.330	-0.335	0.171	
19.335	-0.212	0.167	
19.340	0.928	0.142	
19.345	-0.063	0.177	
19.350	-0.445	0.178	
19.355	0.660	0.132	
19.360	0.437	0.145	
19.365	-0.483	0.174	
19.370	0.187	0.140	
19.375	0.883	0.133	
19.380	-0.339	0.180	
19.385	-0.224	0.169	
19.390	0.944	0.139	
19.395	-0.040	0.174	
19.400	-0.406	0.180	
19.405	0.794	0.147	
19.410	0.602	0.186	
19.415	-0.404	0.245	
19.420	0.361	0.235	
19.425	1.035	0.250	
19.430	-0.258	0.311	
19.435	-0.131	0.302	
19.440	1.050	0.266	
19.445	0.029	0.291	
19.450	-0.374	0.284	
19.455	0.822	0.233	
19.460	0.582	0.250	
19.465	-0.425	0.284	
19.470	0.322	0.251	
19.475	0.969	0.243	
19.480	-0.311	0.284	
19.485	-0.191	0.259	
19.490	0.998	0.213	
19.495	-0.049	0.232	
19.500	-0.422	0.221	
19.505	0.732	0.167	
19.510	0.450	0.179	
19.515	-0.492	0.204	
19.520	0.169	0.162	
19.525	0.837	0.143	
19.530	-0.374	0.175	
19.535	-0.267	0.150	
19.540	0.841	0.107	
19.545	-0.146	0.125	
19.550	-0.492	0.113	
19.555	0.576	0.061	
19.560	0.343	0.070	
19.565	-0.535	0.095	
19.570	0.082	0.060	
19.575	0.715	0.048	
19.580	-0.432	0.083	
19.585	-0.311	0.063	
19.590	0.741	0.028	
19.595	-0.197	0.050	
19.600	-0.524	0.044	
19.605	0.535	-0.000	
19.610	0.270	0.016	
19.615	-0.563	0.044	
19.620	0.085	0.015	
19.625	0.732	0.013	
19.630	-0.430	0.061	
19.635	-0.284	0.055	
19.640	0.848	0.035	
19.645	-0.142	0.077	
19.650	-0.479	0.087	
19.655	0.631	0.055	
19.660	0.360	0.081	
19.665	-0.540	0.117	
19.670	0.055	0.082	
19.675	0.662	0.061	
19.680	-0.491	0.080	
19.685	-0.401	0.041	
19.690	0.562	-0.019	
19.695	-0.305	-0.026	
19.700	-0.637	-0.056	
19.705	0.290	-0.120	
19.710	0.024	-0.131	
19.715	-0.698	-0.129	
19.720	-0.160	-0.175	
19.725	0.325	-0.197	
19.730	-0.672	-0.180	
19.735	-0.564	-0.212	
19.740	0.251	-0.260	
19.745	-0.387	-0.256	
19.750	-0.592	-0.258	
19.755	0.700	-0.252	
19.760	0.578	-0.139	
19.765	-0.470	0.007	
19.770	0.043	0.062	
19.775	0.334	0.076	
19.780	-0.778	0.065	
19.785	-0.794	-0.045	
19.790	-0.224	-0.210	
19.795	-0.730	-0.344	
19.800	-0.993	-0.470	
19.805	-0.239	-0.581	
19.810	-0.352	-0.613	
19.815	-0.956	-0.603	
19.820	-0.403	-0.610	
19.825	-0.009	-0.582	
19.830	-0.773	-0.517	
19.835	-0.613	-0.489	
19.840	0.215	-0.467	
19.845	-0.462	-0.400	
19.850	-0.736	-0.360	
19.855	0.201	-0.354	
19.860	0.014	-0.300	
19.865	-0.659	-0.238	
19.870	-0.035	-0.226	
19.875	0.655	-0.181	
19.880	-0.448	-0.088	
19.885	-0.264	-0.049	
19.890	0.930	-0.023	
19.895	-0.087	0.064	
19.900	-0.406	0.111	
19.905	0.875	0.112	
19.910	0.660	0.185	
19.915	-0.317	0.273	
19.920	0.719	0.300	
19.925	1.524	0.381	
19.930	0.175	0.532	
19.935	0.579	0.621	
19.940	1.941	0.701	
19.945	0.941	0.861	
19.950	0.369	0.974	
19.955	1.893	1.014	
19.960	1.645	1.115	
19.965	0.326	1.212	
19.970	1.456	1.210	
19.975	2.027	1.228	
19.980	0.437	1.285	
19.985	0.677	1.241	
19.990	1.878	1.160	
19.995	0.681	1.142	
20.000	-0.043	1.069	
20.005	1.369	0.927	
20.010	0.982	0.856	
20.015	-0.256	0.805	
20.020	0.601	0.680	
20.025	1.122	0.589	
20.030	-0.267	0.554	
20.035	-0.143	0.456	
20.040	1.006	0.344	
20.045	-0.128	0.306	
20.050	-0.491	0.242	
20.055	0.569	0.142	
20.060	0.232	0.106	
20.065	-0.590	0.090	
20.070	0.011	0.022	
20.075	0.572	-0.016	
20.080	-0.521	-0.002	
20.085	-0.404	-0.035	
20.090	0.544	-0.081	
20.095	-0.340	-0.073	
20.100	-0.660	-0.092	
20.105	0.242	-0.150	
20.110	-0.061	-0.162	
20.115	-0.736	-0.166	
20.120	-0.194	-0.217	
20.125	0.230	-0.244	
20.130	-0.706	-0.232	
20.135	-0.604	-0.266	
20.140	0.043	-0.320	
20.145	-0.625	-0.340	
20.150	-0.933	-0.386	
20.155	-0.223	-0.462	
20.160	-0.390	-0.496	
20.165	-0.996	-0.514	
20.170	-0.477	-0.559	
20.175	-0.163	-0.576	
20.180	-0.884	-0.556	
20.185	-0.714	-0.565	
20.190	-0.044	-0.574	
20.195	-0.616	-0.538	
20.200	-0.886	-0.521	
20.205	-0.113	-0.532	
20.210	-0.258	-0.502	
20.215	-0.839	-0.462	
20.220	-0.229	-0.457	
20.225	0.265	-0.418	
20.230	-0.633	-0.337	
20.235	-0.444	-0.301	
20.240	0.517	-0.275	
20.245	-0.352	-0.200	
20.250	-0.636	-0.164	
20.255	0.372	-0.174	
20.260	0.070	-0.139	
20.265	-0.654	-0.102	
20.270	-0.055	-0.125	
20.275	0.541	-0.123	
20.280	-0.509	-0.076	
20.285	-0.328	-0.076	
20.290	0.751	-0.081	
20.295	-0.200	-0.023	
20.300	-0.460	0.004	
20.305	0.761	0.000	
20.310	0.476	0.069	
20.315	-0.422	0.150	
20.320	0.489	0.167	
20.325	1.110	0.222	
20.330	-0.242	0.322	
20.335	-0.018	0.339	
20.340	1.252	0.330	
20.345	0.140	0.386	
20.350	-0.267	0.400	
20.355	1.154	0.369	
20.360	0.936	0.422	
20.365	-0.149	0.504	
20.370	1.114	0.531	
20.375	1.851	0.628	
20.380	0.474	0.804	
20.385	0.924	0.914	
20.390	2.261	1.011	
20.395	1.200	1.178	
20.400	0.628	1.287	
20.405	2.166	1.317	
20.410	1.857	1.402	
20.415	0.565	1.483	
20.420	1.730	1.467	
20.425	2.277	1.479	
20.430	0.755	1.537	
20.435	1.091	1.507	
20.440	2.290	1.455	
20.445	1.090	1.473	
20.450	0.405	1.435	
20.455	1.848	1.324	
20.460	1.431	1.281	
20.465	0.065	1.243	
20.470	1.143	1.120	
20.475	1.633	1.037	
20.480	0.038	1.010	
20.485	0.274	0.901	
20.490	1.357	0.772	
20.495	0.030	0.705	
20.500	-0.413	0.588	
20.505	0.559	0.411	
20.510	0.067	0.284	
20.515	-0.686	0.169	
20.520	-0.139	0.015	
20.525	0.279	-0.095	
20.530	-0.659	-0.143	
20.535	-0.500	-0.211	
20.540	0.297	-0.268	
20.545	-0.476	-0.265	
20.550	-0.735	-0.278	
20.555	0.229	-0.313	
20.560	0.126	-0.279	
20.565	-0.492	-0.211	
20.570	0.387	-0.161	
20.575	0.877	-0.053	
20.580	-0.467	0.087	
20.585	-0.448	0.117	
20.590	0.029	0.048	
20.595	-0.707	-0.045	
20.600	-0.994	-0.192	
20.605	-0.253	-0.365	
20.610	-0.390	-0.470	
20.615	-0.935	-0.526	
20.620	-0.345	-0.576	
20.625	0.000	-0.570	
20.630	-0.781	-0.513	
20.635	-0.601	-0.490	
20.640	0.142	-0.474	
20.645	-0.538	-0.417	
20.650	-0.787	-0.392	
20.655	0.021	-0.404	
20.660	-0.209	-0.379	
20.665	-0.817	-0.353	
20.670	-0.238	-0.371	
20.675	0.195	-0.362	
20.680	-0.675	-0.315	
20.685	-0.474	-0.309	
20.690	0.405	-0.305	
20.695	-0.425	-0.251	
20.700	-0.689	-0.230	
20.705	0.261	-0.249	
20.710	-0.043	-0.222	
20.715	-0.685	-0.191	
20.720	-0.055	-0.208	
20.725	0.517	-0.191	
20.730	-0.524	-0.127	
20.735	-0.305	-0.110	
20.740	0.761	-0.099	
20.745	-0.224	-0.029	
20.750	-0.467	0.003	
20.755	0.726	-0.001	
20.760	0.392	0.060	
20.765	-0.476	0.127	
20.770	0.352	0.127	
20.775	0.898	0.155	
20.780	-0.369	0.223	
20.785	-0.172	0.214	
20.790	0.962	0.182	
20.795	-0.169	0.205	
20.800	-0.467	0.186	
20.805	0.642	0.121	
20.810	0.256	0.116	
20.815	-0.541	0.121	
20.820	0.209	0.072	
20.825	0.747	0.064	
20.830	-0.428	0.107	
20.835	-0.218	0.093	
20.840	0.912	0.071	
20.845	-0.162	0.114	
20.850	-0.432	0.121	
20.855	0.755	0.090	
20.860	0.408	0.126	
20.865	-0.453	0.173	
20.870	0.431	0.161	
20.875	0.969	0.189	
20.880	-0.308	0.263	
20.885	-0.079	0.263	
20.890	1.072	0.243	
20.895	-0.084	0.279	
20.900	-0.370	0.270	
20.905	0.851	0.217	
20.910	0.448	0.233	
20.915	-0.445	0.258	
20.920	0.427	0.222	
20.925	0.939	0.225	
20.930	-0.323	0.277	
20.935	-0.093	0.260	
20.940	1.072	0.230	
20.945	-0.090	0.263	
20.950	-0.363	0.255	
20.955	0.904	0.208	
20.960	0.501	0.237	
20.965	-0.430	0.275	
20.970	0.483	0.249	
20.975	0.989	0.260	
20.980	-0.313	0.317	
20.985	-0.067	0.300	
20.990	1.123	0.268	
20.995	-0.050	0.301	
21.000	-0.340	0.293	
21.005	0.916	0.243	
21.010	0.482	0.265	
21.015	-0.432	0.294	
21.020	0.463	0.258	
21.025	0.963	0.259	
21.030	-0.331	0.307	
21.035	-0.113	0.283	
21.040	1.029	0.241	
21.045	-0.110	0.260	
21.050	-0.369	0.242	
21.055	0.820	0.187	
21.060	0.352	0.200	
21.065	-0.505	0.217	
21.070	0.267	0.167	
21.075	0.719	0.146	
21.080	-0.441	0.167	
21.085	-0.229	0.129	
21.090	0.822	0.083	
21.095	-0.249	0.098	
21.100	-0.506	0.080	
21.105	0.562	0.023	
21.110	0.117	0.025	
21.115	-0.599	0.031	
21.120	0.125	-0.016	
21.125	0.599	-0.025	
21.130	-0.506	0.013	
21.135	-0.296	-0.003	
21.140	0.671	-0.031	
21.145	-0.311	-0.004	
21.150	-0.589	-0.016	
21.155	0.372	-0.070	
21.160	-0.076	-0.080	
21.165	-0.741	-0.094	
21.170	-0.165	-0.163	
21.175	0.215	-0.207	
21.180	-0.704	-0.210	
21.185	-0.496	-0.251	
21.190	0.296	-0.289	
21.195	-0.500	-0.273	
21.200	-0.736	-0.282	
21.205	0.123	-0.319	
21.210	-0.201	-0.310	
21.215	-0.811	-0.299	
21.220	-0.223	-0.333	
21.225	0.107	-0.341	
21.230	-0.724	-0.316	
21.235	-0.500	-0.330	
21.240	0.288	-0.343	
21.245	-0.486	-0.304	
21.250	-0.695	-0.293	
21.255	0.224	-0.310	
21.260	-0.114	-0.277	
21.265	-0.727	-0.244	
21.270	-0.060	-0.258	
21.275	0.425	-0.236	
21.280	-0.570	-0.172	
21.285	-0.291	-0.155	
21.290	0.870	-0.131	
21.295	-0.067	-0.031	
21.300	-0.160	0.050	
21.305	1.532	0.134	
21.310	1.122	0.336	
21.315	-0.182	0.539	
21.320	0.684	0.606	
21.325	0.825	0.620	
21.330	-0.532	0.596	
21.335	-0.346	0.447	
21.340	0.660	0.265	
21.345	-0.267	0.159	
21.350	-0.448	0.063	
21.355	0.768	-0.014	
21.360	0.349	0.017	
21.365	-0.453	0.076	
21.370	0.495	0.088	
21.375	1.000	0.149	
21.380	-0.285	0.253	
21.385	0.021	0.278	
21.390	1.221	0.285	
21.395	0.000	0.349	
21.400	-0.265	0.360	
21.405	1.123	0.327	
21.410	0.686	0.373	
21.415	-0.305	0.428	
21.420	0.799	0.416	
21.425	1.284	0.453	
21.430	-0.148	0.535	
21.435	0.296	0.537	
21.440	1.480	0.527	
21.445	0.200	0.584	
21.450	-0.171	0.584	
21.455	1.261	0.527	
21.460	0.784	0.547	
21.465	-0.264	0.574	
21.470	0.791	0.529	
21.475	1.201	0.526	
21.480	-0.188	0.566	
21.485	0.218	0.530	
21.490	1.393	0.490	
21.495	0.114	0.523	
21.500	-0.250	0.507	
21.505	1.049	0.436	
21.510	0.495	0.428	
21.515	-0.432	0.420	
21.520	0.410	0.340	
21.525	0.751	0.291	
21.530	-0.465	0.280	
21.535	-0.258	0.202	
21.540	0.625	0.111	
21.545	-0.401	0.072	
21.550	-0.659	0.002	
21.555	0.190	-0.104	
21.560	-0.215	-0.159	
21.565	-0.839	-0.207	
21.570	-0.235	-0.290	
21.575	0.024	-0.337	
21.580	-0.784	-0.342	
21.585	-0.550	-0.379	
21.590	0.160	-0.406	
21.595	-0.582	-0.382	
21.600	-0.771	-0.382	
21.605	0.032	-0.408	
21.610	-0.284	-0.391	
21.615	-0.848	-0.374	
21.620	-0.220	-0.399	
21.625	0.070	-0.393	
21.630	-0.749	-0.356	
21.635	-0.494	-0.361	
21.640	0.299	-0.363	
21.645	-0.508	-0.316	
21.650	-0.707	-0.300	
21.655	0.213	-0.316	
21.660	-0.191	-0.287	
21.665	-0.770	-0.263	
21.670	-0.107	-0.288	
21.675	0.305	-0.278	
21.680	-0.636	-0.228	
21.685	-0.377	-0.223	
21.690	0.540	-0.219	
21.695	-0.395	-0.162	
21.700	-0.590	-0.143	
21.705	0.439	-0.160	
21.710	-0.049	-0.127	
21.715	-0.657	-0.103	
21.720	0.085	-0.130	
21.725	0.508	-0.119	
21.730	-0.544	-0.066	
21.735	-0.262	-0.066	
21.740	0.747	-0.069	
21.745	-0.313	-0.016	
21.750	-0.514	-0.004	
21.755	0.605	-0.032	
21.760	0.097	-0.003	
21.765	-0.567	0.023	
21.770	0.244	-0.006	
21.775	0.645	0.008	
21.780	-0.479	0.061	
21.785	-0.213	0.052	
21.790	0.828	0.034	
21.795	-0.274	0.073	
21.800	-0.465	0.070	
21.805	0.692	0.032	
21.810	0.180	0.058	
21.815	-0.538	0.084	
21.820	0.315	0.054	
21.825	0.703	0.066	
21.830	-0.451	0.119	
21.835	-0.162	0.106	
21.840	0.905	0.086	
21.845	-0.229	0.126	
21.850	-0.430	0.123	
21.855	0.755	0.084	
21.860	0.198	0.108	
21.865	-0.528	0.128	
21.870	0.343	0.091	
21.875	0.741	0.098	
21.880	-0.427	0.147	
21.885	-0.128	0.133	
21.890	0.963	0.115	
21.895	-0.204	0.158	
21.900	-0.410	0.157	
21.905	0.814	0.118	
21.910	0.288	0.146	
21.915	-0.488	0.175	
21.920	0.416	0.144	
21.925	0.777	0.154	
21.930	-0.422	0.202	
21.935	-0.131	0.179	
21.940	0.957	0.147	
21.945	-0.209	0.177	
21.950	-0.416	0.165	
21.955	0.800	0.117	
21.960	0.250	0.138	
21.965	-0.505	0.160	
21.970	0.405	0.125	
21.975	0.776	0.134	
21.980	-0.421	0.185	
21.985	-0.114	0.168	
21.990	0.948	0.142	
21.995	-0.239	0.174	
22.000	-0.419	0.160	
22.005	0.797	0.111	
22.010	0.216	0.130	
22.015	-0.520	0.149	
22.020	0.393	0.110	
22.025	0.748	0.118	
22.030	-0.442	0.167	
22.035	-0.157	0.146	
22.040	0.921	0.117	
22.045	-0.232	0.148	
22.050	-0.415	0.138	
22.055	0.844	0.097	
22.060	0.280	0.131	
22.065	-0.479	0.166	
22.070	0.494	0.145	
22.075	0.832	0.169	
22.080	-0.386	0.232	
22.085	-0.040	0.221	
22.090	1.064	0.202	
22.095	-0.149	0.245	
22.100	-0.331	0.241	
22.105	0.974	0.202	
22.110	0.390	0.238	
22.115	-0.439	0.273	
22.120	0.547	0.242	
22.125	0.852	0.252	
22.130	-0.407	0.295	
22.135	-0.102	0.259	
22.140	0.959	0.210	
22.145	-0.229	0.220	
22.150	-0.427	0.188	
22.155	0.784	0.123	
22.160	0.216	0.132	
22.165	-0.508	0.144	
22.170	0.415	0.106	
22.175	0.733	0.116	
22.180	-0.453	0.166	
22.185	-0.162	0.144	
22.190	0.851	0.110	
22.195	-0.250	0.133	
22.200	-0.354	0.119	
22.205	1.189	0.101	
22.210	0.864	0.207	
22.215	-0.122	0.350	
22.220	1.094	0.435	
22.225	1.181	0.546	
22.230	-0.401	0.641	
22.235	-0.277	0.574	
22.240	0.357	0.408	
22.245	-0.561	0.245	
22.250	-0.697	0.052	
22.255	0.280	-0.130	
22.260	-0.163	-0.209	
22.265	-0.704	-0.244	
22.270	0.056	-0.286	
22.275	0.399	-0.263	
22.280	-0.593	-0.191	
22.285	-0.274	-0.169	
22.290	0.666	-0.149	
22.295	-0.358	-0.080	
22.300	-0.514	-0.057	
22.305	0.569	-0.073	
22.310	0.000	-0.038	
22.315	-0.601	-0.016	
22.320	0.258	-0.046	
22.325	0.582	-0.029	
22.330	-0.496	0.028	
22.335	-0.156	0.024	
22.340	0.866	0.021	
22.345	-0.273	0.075	
22.350	-0.436	0.083	
22.355	0.767	0.054	
22.360	0.197	0.089	
22.365	-0.502	0.121	
22.370	0.451	0.097	
22.375	0.784	0.123	
22.380	-0.387	0.188	
22.385	-0.003	0.185	
22.390	1.127	0.184	
22.395	-0.125	0.247	
22.400	-0.294	0.260	
22.405	1.058	0.234	
22.410	0.434	0.282	
22.415	-0.399	0.324	
22.420	0.636	0.297	
22.425	0.933	0.313	
22.430	-0.355	0.362	
22.435	-0.024	0.328	
22.440	0.997	0.278	
22.445	-0.235	0.283	
22.450	-0.428	0.237	
22.455	0.668	0.151	
22.460	-0.018	0.122	
22.465	-0.643	0.085	
22.470	0.088	-0.005	
22.475	0.300	-0.056	
22.480	-0.671	-0.070	
22.485	-0.374	-0.129	
22.490	0.408	-0.181	
22.495	-0.506	-0.176	
22.500	-0.657	-0.199	
22.505	0.265	-0.246	
22.510	-0.224	-0.239	
22.515	-0.758	-0.235	
22.520	-0.058	-0.273	
22.525	0.207	-0.272	
22.530	-0.666	-0.235	
22.535	-0.328	-0.241	
22.540	0.543	-0.235	
22.545	-0.435	-0.174	
22.550	-0.564	-0.153	
22.555	0.514	-0.163	
22.560	-0.064	-0.119	
22.565	-0.621	-0.087	
22.570	0.270	-0.102	
22.575	0.585	-0.068	
22.580	-0.508	0.005	
22.585	-0.149	0.013	
22.590	0.873	0.017	
22.595	-0.290	0.077	
22.600	-0.425	0.086	
22.605	0.788	0.058	
22.610	0.192	0.096	
22.615	-0.497	0.128	
22.620	0.476	0.105	
22.625	0.773	0.131	
22.630	-0.415	0.194	
22.635	-0.008	0.186	
22.640	1.091	0.178	
22.645	-0.175	0.234	
22.650	-0.313	0.238	
22.655	1.005	0.205	
22.660	0.369	0.247	
22.665	-0.433	0.282	
22.670	0.634	0.254	
22.675	0.898	0.273	
22.680	-0.346	0.328	
22.685	0.081	0.308	
22.690	1.130	0.285	
22.695	-0.156	0.322	
22.700	-0.297	0.304	
22.705	0.974	0.250	
22.710	0.326	0.268	
22.715	-0.424	0.283	
22.720	0.671	0.245	
22.725	0.922	0.266	
22.730	-0.343	0.328	
22.735	0.128	0.314	
22.740	1.197	0.301	
22.745	-0.128	0.349	
22.750	-0.274	0.339	
22.755	1.043	0.289	
22.760	0.383	0.312	
22.765	-0.399	0.330	
22.770	0.687	0.291	
22.775	0.934	0.306	
22.780	-0.328	0.360	
22.785	0.113	0.338	
22.790	1.113	0.311	
22.795	-0.162	0.341	
22.800	-0.296	0.316	
22.805	0.976	0.255	
22.810	0.309	0.269	
22.815	-0.435	0.280	
22.820	0.572	0.234	
22.825	0.793	0.237	
22.830	-0.403	0.276	
22.835	-0.040	0.242	
22.840	0.962	0.203	
22.845	-0.239	0.222	
22.850	-0.374	0.195	
22.855	0.822	0.139	
22.860	0.131	0.150	
22.865	-0.528	0.153	
22.870	0.410	0.103	
22.875	0.607	0.101	
22.880	-0.485	0.134	
22.885	-0.136	0.102	
22.890	0.819	0.071	
22.895	-0.319	0.097	
22.900	-0.438	0.080	
22.905	0.652	0.032	
22.910	-0.024	0.041	
22.915	-0.593	0.039	
22.920	0.279	-0.013	
22.925	0.482	-0.015	
22.930	-0.552	0.018	
22.935	-0.207	-0.007	
22.940	0.697	-0.030	
22.945	-0.386	0.001	
22.950	-0.506	-0.011	
22.955	0.553	-0.054	
22.960	-0.099	-0.042	
22.965	-0.651	-0.042	
22.970	0.175	-0.091	
22.975	0.401	-0.093	
22.980	-0.601	-0.060	
22.985	-0.259	-0.082	
22.990	0.599	-0.101	
22.995	-0.436	-0.069	
23.000	-0.566	-0.079	
23.005	0.431	-0.122	
23.010	-0.177	-0.115	
23.015	-0.706	-0.119	
23.020	0.021	-0.172	
23.025	0.184	-0.188	
23.030	-0.703	-0.176	
23.035	-0.360	-0.210	
23.040	0.386	-0.236	
23.045	-0.538	-0.211	
23.050	-0.650	-0.222	
23.055	0.250	-0.259	
23.060	-0.268	-0.249	
23.065	-0.756	-0.246	
23.070	-0.050	-0.284	
23.075	0.160	-0.282	
23.080	-0.689	-0.249	
23.085	-0.323	-0.257	
23.090	0.509	-0.252	
23.095	-0.471	-0.193	
23.100	-0.567	-0.174	
23.105	0.471	-0.185	
23.110	-0.145	-0.146	
23.115	-0.640	-0.121	
23.120	0.268	-0.140	
23.125	0.523	-0.104	
23.130	-0.488	-0.029	
23.135	-0.044	-0.010	
23.140	0.995	0.021	
23.145	-0.233	0.111	
23.150	-0.314	0.145	
23.155	1.009	0.142	
23.160	0.312	0.207	
23.165	-0.399	0.258	
23.170	0.726	0.246	
23.175	0.919	0.286	
23.180	-0.331	0.356	
23.185	0.183	0.345	
23.190	1.128	0.329	
23.195	-0.185	0.365	
23.200	-0.281	0.337	
23.205	1.006	0.273	
23.210	0.264	0.284	
23.215	-0.442	0.287	
23.220	0.619	0.235	
23.225	0.794	0.240	
23.230	-0.393	0.281	
23.235	0.073	0.254	
23.240	1.049	0.230	
23.245	-0.223	0.266	
23.250	-0.320	0.248	
23.255	0.974	0.198	
23.260	0.341	0.228	
23.265	-0.258	0.265	
23.270	1.316	0.287	
23.275	1.686	0.432	
23.280	0.180	0.648	
23.285	0.748	0.764	
23.290	1.392	0.821	
23.295	-0.229	0.850	
23.300	-0.476	0.729	
23.305	0.474	0.502	
23.310	-0.159	0.312	
23.315	-0.636	0.139	
23.320	0.251	-0.026	
23.325	0.480	-0.086	
23.330	-0.518	-0.068	
23.335	-0.099	-0.077	
23.340	0.819	-0.062	
23.345	-0.335	0.012	
23.350	-0.404	0.034	
23.355	0.782	0.022	
23.360	0.035	0.067	
23.365	-0.532	0.092	
23.370	0.450	0.060	
23.375	0.610	0.079	
23.380	-0.480	0.128	
23.385	-0.060	0.110	
23.390	0.892	0.094	
23.395	-0.302	0.135	
23.400	-0.369	0.126	
23.405	0.829	0.089	
23.410	0.073	0.117	
23.415	-0.508	0.131	
23.420	0.529	0.094	
23.425	0.669	0.115	
23.430	-0.473	0.169	
23.435	-0.037	0.149	
23.440	0.942	0.131	
23.445	-0.261	0.170	
23.450	-0.325	0.163	
23.455	0.937	0.131	
23.460	0.192	0.171	
23.465	-0.441	0.200	
23.470	0.649	0.175	
23.475	0.762	0.206	
23.480	-0.416	0.264	
23.485	0.068	0.244	
23.490	1.037	0.224	
23.495	-0.267	0.259	
23.500	-0.357	0.235	
23.505	0.794	0.172	
23.510	-0.002	0.165	
23.515	-0.561	0.142	
23.520	0.319	0.068	
23.525	0.360	0.039	
23.530	-0.621	0.036	
23.535	-0.238	-0.023	
23.540	0.534	-0.074	
23.545	-0.499	-0.070	
23.550	-0.569	-0.103	
23.555	0.380	-0.158	
23.560	-0.250	-0.159	
23.565	-0.730	-0.169	
23.570	0.027	-0.221	
23.575	0.110	-0.231	
23.580	-0.735	-0.216	
23.585	-0.329	-0.247	
23.590	0.398	-0.263	
23.595	-0.547	-0.225	
23.600	-0.585	-0.225	
23.605	0.384	-0.244	
23.610	-0.238	-0.212	
23.615	-0.732	-0.194	
23.620	0.067	-0.225	
23.625	0.197	-0.218	
23.630	-0.666	-0.183	
23.635	-0.259	-0.197	
23.640	0.534	-0.197	
23.645	-0.488	-0.146	
23.650	-0.544	-0.140	
23.655	0.486	-0.161	
23.660	-0.191	-0.131	
23.665	-0.665	-0.118	
23.670	0.236	-0.149	
23.675	0.323	-0.131	
23.680	-0.627	-0.086	
23.685	-0.206	-0.100	
23.690	0.645	-0.107	
23.695	-0.438	-0.061	
23.700	-0.483	-0.060	
23.705	0.561	-0.087	
23.710	-0.163	-0.063	
23.715	-0.645	-0.058	
23.720	0.253	-0.100	
23.725	0.367	-0.092	
23.730	-0.592	-0.053	
23.735	-0.169	-0.069	
23.740	0.691	-0.076	
23.745	-0.416	-0.028	
23.750	-0.464	-0.027	
23.755	0.604	-0.056	
23.760	-0.134	-0.032	
23.765	-0.613	-0.027	
23.770	0.325	-0.067	
23.775	0.422	-0.053	
23.780	-0.570	-0.009	
23.785	-0.146	-0.026	
23.790	0.741	-0.035	
23.795	-0.380	0.011	
23.800	-0.415	0.012	
23.805	0.721	-0.012	
23.810	-0.055	0.023	
23.815	-0.547	0.039	
23.820	0.460	0.008	
23.825	0.515	0.032	
23.830	-0.506	0.083	
23.835	-0.024	0.069	
23.840	0.880	0.065	
23.845	-0.339	0.115	
23.850	-0.383	0.110	
23.855	0.809	0.074	
23.860	0.003	0.099	
23.865	-0.503	0.108	
23.870	0.521	0.070	
23.875	0.537	0.088	
23.880	-0.489	0.132	
23.885	0.032	0.110	
23.890	0.934	0.102	
23.895	-0.306	0.153	
23.900	-0.329	0.150	
23.905	0.905	0.118	
23.910	0.084	0.152	
23.915	-0.468	0.169	
23.920	0.631	0.136	
23.925	0.700	0.164	
23.930	-0.418	0.221	
23.935	0.160	0.210	
23.940	1.066	0.210	
23.945	-0.235	0.267	
23.950	-0.259	0.260	
23.955	1.006	0.221	
23.960	0.133	0.248	
23.965	-0.465	0.253	
23.970	0.588	0.199	
23.975	0.594	0.196	
23.980	-0.488	0.218	
23.985	-0.006	0.170	
23.990	0.863	0.132	
23.995	-0.354	0.152	
24.000	-0.363	0.124	
24.005	0.829	0.076	
24.010	-0.014	0.098	
24.015	-0.517	0.103	
24.020	0.506	0.062	
24.025	0.508	0.076	
24.030	-0.511	0.116	
24.035	0.038	0.092	
24.040	1.084	0.093	
24.045	-0.076	0.175	
24.050	0.165	0.233	
24.055	1.692	0.309	
24.060	0.748	0.487	
24.065	-0.247	0.621	
24.070	0.747	0.618	
24.075	0.381	0.578	
24.080	-0.710	0.488	
24.085	-0.303	0.292	
24.090	0.439	0.101	
24.095	-0.494	-0.008	
24.100	-0.470	-0.107	
24.105	0.636	-0.173	
24.110	-0.139	-0.143	
24.115	-0.569	-0.111	
24.120	0.466	-0.113	
24.125	0.489	-0.053	
24.130	-0.511	0.029	
24.135	0.020	0.040	
24.140	0.890	0.058	
24.145	-0.332	0.123	
24.150	-0.329	0.128	
24.155	0.846	0.100	
24.160	-0.014	0.130	
24.165	-0.506	0.135	
24.170	0.559	0.091	
24.175	0.584	0.108	
24.180	-0.451	0.155	
24.185	0.130	0.141	
24.190	0.982	0.144	
24.195	-0.267	0.204	
24.200	-0.258	0.204	
24.205	1.008	0.177	
24.210	0.131	0.218	
24.215	-0.419	0.237	
24.220	0.753	0.205	
24.225	0.759	0.237	
24.230	-0.366	0.296	
24.235	0.315	0.287	
24.240	1.201	0.297	
24.245	-0.171	0.364	
24.250	-0.149	0.363	
24.255	1.181	0.328	
24.260	0.262	0.365	
24.265	-0.355	0.378	
24.270	0.809	0.331	
24.275	0.776	0.341	
24.280	-0.403	0.373	
24.285	0.172	0.327	
24.290	0.960	0.285	
24.295	-0.322	0.294	
24.300	-0.346	0.243	
24.305	0.742	0.160	
24.310	-0.142	0.136	
24.315	-0.595	0.093	
24.320	0.329	0.008	
24.325	0.247	-0.021	
24.330	-0.634	-0.022	
24.335	-0.177	-0.074	
24.340	0.538	-0.107	
24.345	-0.502	-0.085	
24.350	-0.465	-0.101	
24.355	0.537	-0.132	
24.360	-0.242	-0.106	
24.365	-0.646	-0.101	
24.370	0.288	-0.137	
24.375	0.268	-0.121	
24.380	-0.605	-0.080	
24.385	-0.136	-0.095	
24.390	0.642	-0.096	
24.395	-0.447	-0.046	
24.400	-0.416	-0.044	
24.405	0.683	-0.062	
24.410	-0.162	-0.024	
24.415	-0.582	-0.010	
24.420	0.416	-0.044	
24.425	0.366	-0.024	
24.430	-0.578	0.017	
24.435	-0.072	-0.006	
24.440	0.759	-0.015	
24.445	-0.404	0.032	
24.450	-0.367	0.030	
24.455	0.773	0.006	
24.460	-0.117	0.043	
24.465	-0.552	0.052	
24.470	0.471	0.012	
24.475	0.425	0.028	
24.480	-0.521	0.068	
24.485	0.020	0.047	
24.490	0.823	0.044	
24.495	-0.367	0.094	
24.500	-0.332	0.090	
24.505	0.812	0.062	
24.510	-0.085	0.092	
24.515	-0.523	0.095	
24.520	0.543	0.052	
24.525	0.494	0.070	
24.530	-0.521	0.112	
24.535	-0.017	0.086	
24.540	0.802	0.069	
24.545	-0.381	0.103	
24.550	-0.329	0.088	
24.555	0.819	0.054	
24.560	-0.093	0.083	
24.565	-0.515	0.088	
24.570	0.530	0.046	
24.575	0.434	0.063	
24.580	-0.521	0.100	
24.585	0.050	0.074	
24.590	0.861	0.068	
24.595	-0.358	0.117	
24.600	-0.313	0.113	
24.605	0.867	0.084	
24.610	-0.061	0.117	
24.615	-0.496	0.123	
24.620	0.607	0.083	
24.625	0.527	0.106	
24.630	-0.491	0.151	
24.635	0.137	0.131	
24.640	0.937	0.130	
24.645	-0.322	0.184	
24.650	-0.262	0.178	
24.655	0.947	0.146	
24.660	0.011	0.180	
24.665	-0.460	0.186	
24.670	0.668	0.144	
24.675	0.550	0.162	
24.680	-0.465	0.202	
24.685	0.189	0.175	
24.690	0.971	0.170	
24.695	-0.300	0.221	
24.700	-0.235	0.211	
24.705	0.989	0.178	
24.710	0.018	0.210	
24.715	-0.444	0.214	
24.720	0.700	0.168	
24.725	0.604	0.187	
24.730	-0.441	0.229	
24.735	0.195	0.204	
24.740	0.944	0.195	
24.745	-0.322	0.236	
24.750	-0.300	0.212	
24.755	0.829	0.157	
24.760	-0.128	0.158	
24.765	-0.564	0.130	
24.770	0.419	0.053	
24.775	0.282	0.031	
24.780	-0.604	0.032	
24.785	-0.101	-0.020	
24.790	0.627	-0.051	
24.795	-0.476	-0.025	
24.800	-0.422	-0.042	
24.805	0.598	-0.076	
24.810	-0.249	-0.055	
24.815	-0.648	-0.059	
24.820	0.276	-0.109	
24.825	0.242	-0.107	
24.830	-0.515	-0.075	
24.835	0.372	-0.064	
24.840	1.407	0.028	
24.845	0.024	0.217	
24.850	0.068	0.340	
24.855	1.168	0.399	
24.860	-0.101	0.460	
24.865	-0.657	0.420	
24.870	0.012	0.258	
24.875	-0.133	0.095	
24.880	-0.773	-0.050	
24.885	-0.212	-0.199	
24.890	0.462	-0.270	
24.895	-0.534	-0.246	
24.900	-0.441	-0.238	
24.905	0.604	-0.227	
24.910	-0.233	-0.155	
24.915	-0.607	-0.113	
24.920	0.392	-0.120	
24.925	0.264	-0.081	
24.930	-0.582	-0.031	
24.935	0.001	-0.043	
24.940	0.771	-0.032	
24.945	-0.403	0.032	
24.950	-0.320	0.042	
24.955	0.829	0.029	
24.960	-0.117	0.073	
24.965	-0.503	0.086	
24.970	0.613	0.053	
24.975	0.459	0.081	
24.980	-0.496	0.128	
24.985	0.178	0.111	
24.990	0.950	0.120	
24.995	-0.308	0.183	
25.000	-0.207	0.187	
25.005	1.018	0.168	
25.010	0.009	0.212	
25.015	-0.403	0.224	
25.020	0.831	0.190	
25.025	0.700	0.229	
25.030	-0.367	0.291	
25.035	0.474	0.289	
25.040	1.218	0.317	
25.045	-0.192	0.398	
25.050	-0.096	0.398	
25.055	1.189	0.362	
25.060	0.133	0.389	
25.065	-0.369	0.380	
25.070	0.840	0.317	
25.075	0.605	0.315	
25.080	-0.460	0.330	
25.085	0.181	0.270	
25.090	0.829	0.224	
25.095	-0.419	0.226	
25.100	-0.349	0.169	
25.105	0.700	0.090	
25.110	-0.232	0.072	
25.115	-0.596	0.034	
25.120	0.360	-0.040	
25.125	0.151	-0.057	
25.130	-0.633	-0.053	
25.135	-0.102	-0.098	
25.140	0.565	-0.114	
25.145	-0.515	-0.077	
25.150	-0.401	-0.085	
25.155	0.660	-0.103	
25.160	-0.235	-0.062	
25.165	-0.605	-0.049	
25.170	0.398	-0.082	
25.175	0.206	-0.065	
25.180	-0.602	-0.035	
25.185	0.004	-0.060	
25.190	0.700	-0.056	
25.195	-0.454	0.000	
25.200	-0.339	0.002	
25.205	0.756	-0.014	
25.210	-0.200	0.025	
25.215	-0.550	0.031	
25.220	0.535	-0.007	
25.225	0.305	0.013	
25.230	-0.563	0.048	
25.235	0.079	0.022	
25.240	0.750	0.021	
25.245	-0.430	0.070	
25.250	-0.317	0.061	
25.255	0.794	0.033	
25.260	-0.191	0.063	
25.265	-0.546	0.060	
25.270	0.553	0.014	
25.275	0.344	0.030	
25.280	-0.553	0.065	
25.285	0.113	0.040	
25.290	0.803	0.042	
25.295	-0.401	0.096	
25.300	-0.288	0.092	
25.305	0.851	0.067	
25.310	-0.153	0.100	
25.315	-0.489	0.101	
25.320	0.636	0.060	
25.325	0.361	0.081	
25.330	-0.541	0.114	
25.335	0.142	0.083	
25.340	0.793	0.077	
25.345	-0.407	0.120	
25.350	-0.274	0.106	
25.355	0.846	0.074	
25.360	-0.149	0.104	
25.365	-0.492	0.101	
25.370	0.637	0.059	
25.375	0.387	0.081	
25.380	-0.524	0.118	
25.385	0.169	0.091	
25.390	0.829	0.091	
25.395	-0.396	0.140	
25.400	-0.271	0.128	
25.405	0.866	0.095	
25.410	-0.139	0.122	
25.415	-0.480	0.118	
25.420	0.620	0.072	
25.425	0.395	0.089	
25.430	-0.514	0.123	
25.435	0.197	0.096	
25.440	0.825	0.098	
25.445	-0.410	0.147	
25.450	-0.265	0.132	
25.455	0.870	0.097	
25.460	-0.168	0.122	
25.465	-0.505	0.113	
25.470	0.634	0.063	
25.475	0.361	0.079	
25.480	-0.543	0.109	
25.485	0.137	0.077	
25.490	0.761	0.070	
25.495	-0.422	0.110	
25.500	-0.270	0.094	
25.505	0.852	0.063	
25.510	-0.180	0.094	
25.515	-0.529	0.090	
25.520	0.593	0.042	
25.525	0.328	0.056	
25.530	-0.546	0.085	
25.535	0.155	0.055	
25.540	0.776	0.056	
25.545	-0.422	0.105	
25.550	-0.262	0.094	
25.555	0.849	0.067	
25.560	-0.186	0.099	
25.565	-0.512	0.095	
25.570	0.604	0.047	
25.575	0.300	0.061	
25.580	-0.543	0.087	
25.585	0.186	0.056	
25.590	0.770	0.058	
25.595	-0.421	0.109	
25.600	-0.253	0.098	
25.605	0.869	0.073	
25.610	-0.172	0.107	
25.615	-0.491	0.106	
25.620	0.671	0.063	
25.625	0.358	0.086	
25.630	-0.529	0.122	
25.635	0.187	0.093	
25.640	0.806	0.091	
25.645	-0.407	0.138	
25.650	-0.242	0.124	
25.655	0.887	0.094	
25.660	-0.171	0.125	
25.665	-0.494	0.119	
25.670	0.663	0.072	
25.675	0.344	0.089	
25.680	-0.520	0.120	
25.685	0.251	0.092	
25.690	0.843	0.100	
25.695	-0.410	0.156	
25.700	-0.236	0.144	
25.705	0.875	0.112	
25.710	-0.159	0.138	
25.715	-0.462	0.130	
25.720	0.697	0.084	
25.725	0.357	0.105	
25.730	-0.514	0.138	
25.735	0.247	0.109	
25.740	0.817	0.111	
25.745	-0.418	0.159	
25.750	-0.233	0.142	
25.755	0.901	0.108	
25.760	-0.172	0.136	
25.765	-0.468	0.128	
25.770	0.715	0.083	
25.775	0.363	0.106	
25.780	-0.518	0.141	
25.785	0.233	0.111	
25.790	0.791	0.111	
25.795	-0.421	0.154	
25.800	-0.221	0.134	
25.805	0.931	0.103	
25.810	-0.168	0.137	
25.815	-0.459	0.134	
25.820	0.738	0.092	
25.825	0.366	0.118	
25.830	-0.497	0.154	
25.835	0.334	0.130	
25.840	0.908	0.144	
25.845	-0.370	0.206	
25.850	-0.166	0.199	
25.855	1.009	0.173	
25.860	-0.111	0.208	
25.865	-0.416	0.204	
25.870	0.855	0.161	
25.875	0.462	0.191	
25.880	-0.471	0.230	
25.885	0.352	0.202	
25.890	0.870	0.201	
25.895	-0.383	0.243	
25.900	-0.200	0.214	
25.905	0.913	0.166	
25.910	-0.183	0.179	
25.915	-0.465	0.156	
25.920	0.735	0.098	
25.925	0.340	0.114	
25.930	-0.514	0.142	
25.935	0.253	0.110	
25.940	0.782	0.109	
25.945	-0.421	0.153	
25.950	-0.223	0.134	
25.955	0.905	0.101	
25.960	-0.120	0.134	
25.965	-0.296	0.143	
25.970	1.360	0.150	
25.975	1.169	0.292	
25.980	-0.085	0.475	
25.985	0.950	0.567	
25.990	1.111	0.642	
25.995	-0.450	0.687	
26.000	-0.416	0.572	
26.005	0.326	0.366	
26.010	-0.477	0.186	
26.015	-0.698	0.002	
26.020	0.241	-0.164	
26.025	-0.081	-0.229	
26.030	-0.706	-0.248	
26.035	-0.056	-0.283	
26.040	0.419	-0.266	
26.045	-0.584	-0.200	
26.050	-0.361	-0.182	
26.055	0.599	-0.172	
26.060	-0.363	-0.113	
26.065	-0.616	-0.098	
26.070	0.408	-0.127	
26.075	-0.005	-0.109	
26.080	-0.666	-0.092	
26.085	0.008	-0.128	
26.090	0.488	-0.130	
26.095	-0.564	-0.087	
26.100	-0.352	-0.096	
26.105	0.628	-0.112	
26.110	-0.337	-0.073	
26.115	-0.581	-0.070	
26.120	0.489	-0.101	
26.125	0.044	-0.078	
26.130	-0.617	-0.054	
26.135	0.166	-0.079	
26.140	0.680	-0.059	
26.145	-0.479	0.010	
26.150	-0.232	0.019	
26.155	0.863	0.016	
26.160	-0.224	0.070	
26.165	-0.456	0.082	
26.170	0.729	0.054	
26.175	0.270	0.089	
26.180	-0.512	0.124	
26.185	0.389	0.102	
26.190	0.848	0.124	
26.195	-0.395	0.189	
26.200	-0.142	0.183	
26.205	1.001	0.161	
26.210	-0.185	0.198	
26.215	-0.454	0.187	
26.220	0.681	0.129	
26.225	0.154	0.125	
26.230	-0.607	0.118	
26.235	0.056	0.046	
26.240	0.456	0.001	
26.245	-0.592	-0.004	
26.250	-0.370	-0.057	
26.255	0.488	-0.111	
26.260	-0.432	-0.109	
26.265	-0.666	-0.136	
26.270	0.285	-0.193	
26.275	-0.134	-0.195	
26.280	-0.752	-0.195	
26.285	-0.098	-0.238	
26.290	0.349	-0.244	
26.295	-0.621	-0.202	
26.300	-0.377	-0.203	
26.305	0.518	-0.205	
26.310	-0.410	-0.157	
26.315	-0.624	-0.147	
26.320	0.410	-0.173	
26.325	-0.024	-0.145	
26.330	-0.648	-0.118	
26.335	0.116	-0.139	
26.340	0.570	-0.116	
26.345	-0.524	-0.050	
26.350	-0.268	-0.043	
26.355	0.758	-0.045	
26.360	-0.290	0.006	
26.365	-0.497	0.015	
26.370	0.677	-0.011	
26.375	0.203	0.027	
26.380	-0.560	0.065	
26.385	0.311	0.044	
26.390	0.712	0.061	
26.395	-0.454	0.117	
26.400	-0.165	0.106	
26.405	0.959	0.090	
26.410	-0.207	0.136	
26.415	-0.412	0.140	
26.420	0.844	0.107	
26.425	0.311	0.145	
26.430	-0.496	0.181	
26.435	0.419	0.154	
26.440	0.809	0.165	
26.445	-0.407	0.215	
26.450	-0.114	0.195	
26.455	1.026	0.167	
26.460	-0.171	0.204	
26.465	-0.390	0.198	
26.470	0.867	0.155	
26.475	0.341	0.183	
26.480	-0.488	0.212	
26.485	0.431	0.177	
26.490	0.828	0.183	
26.495	-0.413	0.230	
26.500	-0.105	0.205	
26.505	1.023	0.174	
26.510	-0.191	0.207	
26.515	-0.396	0.196	
26.520	0.892	0.151	
26.525	0.322	0.179	
26.530	-0.486	0.209	
26.535	0.463	0.176	
26.540	0.860	0.187	
26.545	-0.401	0.241	
26.550	-0.099	0.220	
26.555	1.023	0.189	
26.560	-0.201	0.220	
26.565	-0.401	0.204	
26.570	0.831	0.151	
26.575	0.293	0.169	
26.580	-0.496	0.189	
26.585	0.454	0.152	
26.590	0.829	0.164	
26.595	-0.404	0.218	
26.600	-0.073	0.202	
26.605	1.034	0.179	
26.610	-0.188	0.218	
26.615	-0.390	0.209	
26.620	0.877	0.162	
26.625	0.247	0.183	
26.630	-0.514	0.199	
26.635	0.437	0.155	
26.640	0.796	0.158	
26.645	-0.419	0.204	
26.650	-0.096	0.183	
26.655	0.983	0.156	
26.660	-0.224	0.190	
26.665	-0.416	0.177	
26.670	0.814	0.127	
26.675	0.223	0.145	
26.680	-0.528	0.161	
26.685	0.408	0.119	
26.690	0.776	0.126	
26.695	-0.413	0.178	
26.700	-0.087	0.164	
26.705	0.982	0.145	
26.710	-0.227	0.185	
26.715	-0.392	0.177	
26.720	0.880	0.134	
26.725	0.268	0.164	
26.730	-0.491	0.191	
26.735	0.479	0.158	
26.740	0.811	0.172	
26.745	-0.399	0.225	
26.750	-0.073	0.207	
26.755	1.026	0.182	
26.760	-0.182	0.219	
26.765	-0.360	0.211	
26.770	0.896	0.168	
26.775	0.276	0.194	
26.780	-0.476	0.216	
26.785	0.494	0.179	
26.790	0.787	0.187	
26.795	-0.416	0.233	
26.800	-0.084	0.207	
26.805	1.011	0.175	
26.810	-0.210	0.207	
26.815	-0.378	0.194	
26.820	0.858	0.147	
26.825	0.255	0.170	
26.830	-0.470	0.192	
26.835	0.523	0.159	
26.840	0.832	0.179	
26.845	-0.375	0.239	
26.850	0.008	0.229	
26.855	1.102	0.216	
26.860	-0.178	0.263	
26.865	-0.345	0.257	
26.870	0.959	0.210	
26.875	0.340	0.237	
26.880	-0.438	0.262	
26.885	0.594	0.228	
26.890	0.860	0.244	
26.895	-0.406	0.295	
26.900	-0.076	0.264	
26.905	0.963	0.219	
26.910	-0.261	0.230	
26.915	-0.435	0.193	
26.920	0.709	0.120	
26.925	0.037	0.109	
26.930	-0.589	0.092	
26.935	0.250	0.026	
26.940	0.466	0.006	
26.945	-0.561	0.024	
26.950	-0.224	-0.012	
26.955	0.700	-0.042	
26.960	-0.389	-0.013	
26.965	-0.538	-0.024	
26.970	0.527	-0.069	
26.975	-0.041	-0.056	
26.980	-0.546	-0.044	
26.985	0.658	-0.052	
26.990	1.143	0.042	
26.995	-0.226	0.206	
27.000	0.180	0.289	
27.005	0.962	0.327	
27.010	-0.422	0.363	
27.015	-0.704	0.286	
27.020	-0.052	0.109	
27.025	-0.436	-0.056	
27.030	-0.913	-0.211	
27.035	-0.177	-0.361	
27.040	0.061	-0.424	
27.045	-0.726	-0.413	
27.050	-0.372	-0.412	
27.055	0.433	-0.384	
27.060	-0.509	-0.300	
27.065	-0.631	-0.259	
27.070	0.373	-0.256	
27.075	-0.182	-0.210	
27.080	-0.701	-0.181	
27.085	0.079	-0.202	
27.090	0.309	-0.186	
27.095	-0.631	-0.141	
27.100	-0.270	-0.149	
27.105	0.636	-0.150	
27.110	-0.425	-0.097	
27.115	-0.535	-0.087	
27.120	0.590	-0.108	
27.125	-0.064	-0.072	
27.130	-0.624	-0.048	
27.135	0.238	-0.077	
27.140	0.477	-0.062	
27.145	-0.531	-0.013	
27.150	-0.137	-0.019	
27.155	0.855	-0.017	
27.160	-0.313	0.046	
27.165	-0.406	0.060	
27.170	0.828	0.042	
27.175	0.143	0.090	
27.180	-0.502	0.125	
27.185	0.564	0.106	
27.190	0.828	0.144	
27.195	-0.378	0.221	
27.200	0.078	0.225	
27.205	1.047	0.223	
27.210	-0.213	0.272	
27.215	-0.328	0.259	
27.220	0.934	0.208	
27.225	0.201	0.225	
27.230	-0.521	0.229	
27.235	0.408	0.169	
27.240	0.567	0.148	
27.245	-0.537	0.157	
27.250	-0.188	0.100	
27.255	0.692	0.044	
27.260	-0.413	0.044	
27.265	-0.520	0.006	
27.270	0.514	-0.057	
27.275	-0.175	-0.063	
27.280	-0.694	-0.078	
27.285	0.113	-0.138	
27.290	0.294	-0.150	
27.295	-0.636	-0.125	
27.300	-0.247	-0.147	
27.305	0.627	-0.153	
27.310	-0.430	-0.102	
27.315	-0.500	-0.091	
27.320	0.588	-0.108	
27.325	-0.108	-0.070	
27.330	-0.637	-0.051	
27.335	0.242	-0.085	
27.340	0.422	-0.073	
27.345	-0.555	-0.030	
27.350	-0.140	-0.041	
27.355	0.814	-0.040	
27.360	-0.352	0.020	
27.365	-0.419	0.032	
27.370	0.762	0.012	
27.375	0.018	0.052	
27.380	-0.557	0.073	
27.385	0.434	0.039	
27.390	0.587	0.057	
27.395	-0.502	0.106	
27.400	-0.063	0.089	
27.405	0.941	0.078	
27.410	-0.284	0.129	
27.415	-0.361	0.131	
27.420	0.892	0.103	
27.425	0.101	0.140	
27.430	-0.517	0.159	
27.435	0.567	0.122	
27.440	0.732	0.144	
27.445	-0.435	0.201	
27.450	0.041	0.188	
27.455	1.008	0.177	
27.460	-0.253	0.222	
27.465	-0.329	0.211	
27.470	0.934	0.168	
27.475	0.151	0.194	
27.480	-0.486	0.205	
27.485	0.593	0.162	
27.490	0.700	0.176	
27.495	-0.447	0.221	
27.500	0.024	0.195	
27.505	0.989	0.173	
27.510	-0.279	0.210	
27.515	-0.339	0.194	
27.520	0.913	0.148	
27.525	0.087	0.171	
27.530	-0.503	0.177	
27.535	0.549	0.131	
27.540	0.642	0.141	
27.545	-0.473	0.182	
27.550	-0.032	0.154	
27.555	0.908	0.128	
27.560	-0.305	0.161	
27.565	-0.355	0.144	
27.570	0.849	0.102	
27.575	0.044	0.126	
27.580	-0.518	0.134	
27.585	0.521	0.092	
27.590	0.604	0.106	
27.595	-0.486	0.151	
27.600	0.001	0.128	
27.605	0.979	0.116	
27.610	-0.276	0.166	
27.615	-0.334	0.165	
27.620	0.895	0.131	
27.625	0.073	0.161	
27.630	-0.496	0.171	
27.635	0.573	0.129	
27.640	0.666	0.145	
27.645	-0.451	0.193	
27.650	0.044	0.172	
27.655	0.974	0.158	
27.660	-0.294	0.201	
27.665	-0.342	0.187	
27.670	0.867	0.140	
27.675	-0.018	0.155	
27.680	-0.553	0.146	
27.685	0.450	0.084	
27.690	0.512	0.077	
27.695	-0.521	0.104	
27.700	-0.079	0.069	
27.705	0.800	0.045	
27.710	-0.372	0.078	
27.715	-0.395	0.064	
27.720	0.727	0.025	
27.725	-0.102	0.046	
27.730	-0.589	0.044	
27.735	0.419	-0.004	
27.740	0.570	0.010	
27.745	-0.403	0.069	
27.750	0.485	0.097	
27.755	1.652	0.195	
27.760	0.253	0.394	
27.765	0.097	0.523	
27.770	1.242	0.568	
27.775	0.017	0.605	
27.780	-0.672	0.540	
27.785	-0.006	0.346	
27.790	0.000	0.156	
27.795	-0.723	-0.000	
27.800	-0.241	-0.155	
27.805	0.559	-0.232	
27.810	-0.477	-0.209	
27.815	-0.468	-0.199	
27.820	0.636	-0.193	
27.825	-0.145	-0.124	
27.830	-0.621	-0.080	
27.835	0.341	-0.092	
27.840	0.419	-0.058	
27.845	-0.550	-0.002	
27.850	-0.063	-0.008	
27.855	0.802	-0.004	
27.860	-0.383	0.052	
27.865	-0.372	0.055	
27.870	0.796	0.031	
27.875	-0.070	0.066	
27.880	-0.541	0.077	
27.885	0.518	0.038	
27.890	0.538	0.060	
27.895	-0.497	0.110	
27.900	0.062	0.097	
27.905	0.951	0.099	
27.910	-0.303	0.158	
27.915	-0.288	0.161	
27.920	0.986	0.137	
27.925	0.126	0.184	
27.930	-0.428	0.210	
27.935	0.774	0.187	
27.940	0.777	0.228	
27.945	-0.372	0.297	
27.950	0.312	0.292	
27.955	1.226	0.303	
27.960	-0.177	0.373	
27.965	-0.182	0.370	
27.970	1.155	0.328	
27.975	0.239	0.357	
27.980	-0.386	0.363	
27.985	0.797	0.311	
27.990	0.706	0.316	
27.995	-0.454	0.341	
28.000	0.068	0.285	
28.005	0.852	0.229	
28.010	-0.386	0.223	
28.015	-0.412	0.164	
28.020	0.646	0.079	
28.025	-0.195	0.054	
28.030	-0.645	0.014	
28.035	0.221	-0.067	
28.040	0.143	-0.097	
28.045	-0.678	-0.102	
28.050	-0.212	-0.151	
28.055	0.509	-0.175	
28.060	-0.524	-0.141	
28.065	-0.488	-0.146	
28.070	0.553	-0.165	
28.075	-0.236	-0.126	
28.080	-0.653	-0.110	
28.085	0.300	-0.139	
28.090	0.268	-0.118	
28.095	-0.614	-0.075	
28.100	-0.127	-0.091	
28.105	0.655	-0.091	
28.110	-0.447	-0.041	
28.115	-0.389	-0.037	
28.120	0.759	-0.050	
28.125	-0.120	-0.001	
28.130	-0.532	0.023	
28.135	0.602	0.004	
28.140	0.572	0.051	
28.145	-0.462	0.124	
28.150	0.181	0.129	
28.155	1.046	0.151	
28.160	-0.255	0.228	
28.165	-0.194	0.239	
28.170	1.127	0.223	
28.175	0.172	0.277	
28.180	-0.398	0.302	
28.185	0.846	0.268	
28.190	0.768	0.298	
28.195	-0.393	0.349	
28.200	0.312	0.323	
28.205	1.128	0.314	
28.210	-0.220	0.360	
28.215	-0.182	0.339	
28.220	1.107	0.291	
28.225	0.107	0.312	
28.230	-0.415	0.306	
28.235	0.742	0.248	
28.240	0.601	0.251	
28.245	-0.465	0.274	
28.250	0.154	0.227	
28.255	0.918	0.197	
28.260	-0.349	0.221	
28.265	-0.306	0.189	
28.270	0.844	0.132	
28.275	-0.133	0.138	
28.280	-0.550	0.116	
28.285	0.457	0.049	
28.290	0.340	0.039	
28.295	-0.589	0.052	
28.300	-0.067	0.007	
28.305	0.686	-0.018	
28.310	-0.471	0.012	
28.315	-0.401	-0.006	
28.320	0.694	-0.041	
28.325	-0.195	-0.014	
28.330	-0.590	-0.011	
28.335	0.428	-0.051	
28.340	0.322	-0.035	
28.345	-0.587	0.002	
28.350	-0.026	-0.020	
28.355	0.724	-0.024	
28.360	-0.438	0.024	
28.365	-0.369	0.019	
28.370	0.768	-0.005	
28.375	-0.162	0.030	
28.380	-0.560	0.036	
28.385	0.503	-0.003	
28.390	0.363	0.016	
28.395	-0.550	0.053	
28.400	0.035	0.029	
28.405	0.735	0.024	
28.410	-0.445	0.066	
28.415	-0.366	0.050	
28.420	0.712	0.012	
28.425	-0.215	0.030	
28.430	-0.602	0.018	
28.435	0.408	-0.038	
28.440	0.264	-0.036	
28.445	-0.613	-0.014	
28.450	-0.101	-0.049	
28.455	0.573	-0.069	
28.460	-0.520	-0.041	
28.465	-0.447	-0.062	
28.470	0.556	-0.101	
28.475	-0.294	-0.084	
28.480	-0.677	-0.093	
28.485	0.248	-0.145	
28.490	0.117	-0.146	
28.495	-0.674	-0.129	
28.500	-0.134	-0.160	
28.505	0.521	-0.165	
28.510	-0.546	-0.120	
28.515	-0.441	-0.123	
28.520	0.569	-0.141	
28.525	-0.310	-0.106	
28.530	-0.663	-0.102	
28.535	0.315	-0.142	
28.540	0.140	-0.131	
28.545	-0.654	-0.104	
28.550	-0.095	-0.130	
28.555	0.607	-0.129	
28.560	-0.502	-0.077	
28.565	-0.403	-0.074	
28.570	0.645	-0.089	
28.575	-0.249	-0.051	
28.580	-0.608	-0.044	
28.585	0.416	-0.081	
28.590	0.235	-0.063	
28.595	-0.607	-0.030	
28.600	-0.026	-0.054	
28.605	0.672	-0.056	
28.610	-0.470	-0.007	
28.615	-0.340	-0.010	
28.620	0.803	-0.025	
28.625	-0.175	0.022	
28.630	-0.546	0.037	
28.635	0.564	0.005	
28.640	0.383	0.033	
28.645	-0.540	0.077	
28.650	0.139	0.059	
28.655	0.861	0.066	
28.660	-0.384	0.126	
28.665	-0.249	0.125	
28.670	0.966	0.105	
28.675	-0.095	0.150	
28.680	-0.473	0.158	
28.685	0.709	0.117	
28.690	0.495	0.142	
28.695	-0.460	0.185	
28.700	0.297	0.167	
28.705	0.979	0.178	
28.710	-0.328	0.239	
28.715	-0.191	0.232	
28.720	1.061	0.201	
28.725	-0.027	0.237	
28.730	-0.427	0.238	
28.735	0.797	0.190	
28.740	0.564	0.212	
28.745	-0.450	0.251	
28.750	0.331	0.224	
28.755	0.988	0.225	
28.760	-0.319	0.275	
28.765	-0.159	0.258	
28.770	1.119	0.224	
28.775	-0.011	0.262	
28.780	-0.392	0.264	
28.785	0.886	0.221	
28.790	0.613	0.251	
28.795	-0.418	0.297	
28.800	0.447	0.276	
28.805	1.082	0.286	
28.810	-0.300	0.345	
28.815	-0.151	0.325	
28.820	1.076	0.278	
28.825	-0.044	0.293	
28.830	-0.422	0.273	
28.835	0.791	0.208	
28.840	0.460	0.212	
28.845	-0.494	0.232	
28.850	0.291	0.187	
28.855	0.957	0.179	
28.860	-0.343	0.228	
28.865	-0.212	0.213	
28.870	0.988	0.176	
28.875	-0.087	0.203	
28.880	-0.428	0.197	
28.885	0.761	0.149	
28.890	0.495	0.171	
28.895	-0.409	0.212	
28.900	0.695	0.211	
28.905	1.604	0.290	
28.910	0.319	0.471	
28.915	0.697	0.608	
28.920	1.881	0.729	
28.925	0.436	0.880	
28.930	-0.337	0.903	
28.935	0.637	0.766	
28.940	0.101	0.606	
28.945	-0.666	0.423	
28.950	-0.014	0.197	
28.955	0.680	0.049	
28.960	-0.454	0.009	
28.965	-0.290	-0.037	
28.970	0.812	-0.063	
28.975	-0.212	-0.012	
28.980	-0.515	0.009	
28.985	0.602	-0.012	
28.990	0.279	0.025	
28.995	-0.569	0.066	
29.000	0.116	0.039	
29.005	0.716	0.037	
29.010	-0.457	0.079	
29.015	-0.291	0.062	
29.020	0.788	0.031	
29.025	-0.238	0.058	
29.030	-0.553	0.050	
29.035	0.517	-0.002	
29.040	0.166	0.003	
29.045	-0.617	0.015	
29.050	0.030	-0.029	
29.055	0.627	-0.043	
29.060	-0.505	-0.005	
29.065	-0.334	-0.019	
29.070	0.706	-0.044	
29.075	-0.281	-0.011	
29.080	-0.549	-0.012	
29.085	0.593	-0.046	
29.090	0.294	-0.011	
29.095	-0.526	0.038	
29.100	0.238	0.031	
29.105	0.829	0.058	
29.110	-0.386	0.130	
29.115	-0.174	0.136	
29.120	1.027	0.128	
29.125	-0.111	0.182	
29.130	-0.425	0.192	
29.135	0.790	0.154	
29.140	0.381	0.177	
29.145	-0.509	0.204	
29.150	0.247	0.162	
29.155	0.750	0.145	
29.160	-0.470	0.169	
29.165	-0.297	0.127	
29.170	0.695	0.066	
29.175	-0.325	0.059	
29.180	-0.619	0.018	
29.185	0.351	-0.061	
29.190	-0.049	-0.087	
29.195	-0.724	-0.106	
29.200	-0.111	-0.170	
29.205	0.358	-0.197	
29.210	-0.627	-0.175	
29.215	-0.430	-0.193	
