Time	Potential	EKG	Unnamed: 3
0.0	0.311	0.017910323022787118	
0.005	-0.540	0.013614994895343003	
0.01	-0.357	-0.02844580827155716	
0.015	0.341	-0.08319563277101955	
0.02	-0.367	-0.11393329353447525	
0.025	-0.630	-0.14690507182376902	
0.03	0.070	-0.19485460677043956	
0.035	-0.136	-0.22810830348362415	
0.04	-0.675	-0.24577011361457332	
0.045	-0.151	-0.2658759606464778	
0.05	0.120	-0.274287052088943	
0.055	-0.605	-0.26680960586794156	
0.06	-0.433	-0.26624621855775965	
0.065	0.198	-0.2713728272602833	
0.07	-0.428	-0.26629091529069127	
0.075	-0.656	-0.2664142127167788	
0.08	0.029	-0.28060867022157515	
0.085	-0.194	-0.2904457580797338	
0.09	-0.752	-0.2983668526375727	
0.095	-0.213	-0.3135533495917982	
0.1	0.024	-0.32397720684691633	
0.105	-0.683	-0.3259117412497434	
0.11	-0.521	-0.3338264803472246	
0.115	0.030	-0.34797800702737713	
0.12	-0.528	-0.359588104892551	
0.125	-0.770	-0.37356278093170825	
0.13	-0.104	-0.39361896770160837	
0.135	-0.277	-0.4079407742007169	
0.14	-0.811	-0.4146153159903539	
0.145	-0.282	-0.41726395795451643	
0.15	-0.035	-0.414946850566388	
0.155	-0.712	-0.4058265636658383	
0.16	-0.538	-0.39825797194670065	
0.165	0.032	-0.3948193975205212	
0.17	-0.535	-0.3918864746160199	
0.175	-0.723	-0.39150969595195234	
0.18	0.091	-0.3857304843909386	
0.185	0.026	-0.3565333262245308	
0.19	-0.428	-0.2966974882196409	
0.195	0.392	-0.20695972448544095	
0.2	0.776	-0.08103266895418978	
0.205	-0.424	-0.3857304843909386	
0.21	-0.404	-0.3857304843909386	
0.215	-0.011	-0.3565333262245308	
0.22	-0.654	-0.05008303714789956	
0.225	-0.887	-0.18730432813349215	
0.23	-0.177	-0.3180746095924505	
0.235	-0.303	-0.41716109952156777	
0.24	-0.814	-0.4715097883934681	
0.245	-0.253	-0.48381036325759175	
0.25	0.067	-0.46736782857724335	
0.255	-0.633	-0.4301984995835435	
0.26	-0.457	-0.38693100402453195	
0.265	0.232	-0.34509342469492427	
0.27	-0.412	-0.3082915563127122	
0.275	-0.637	-0.28193041484104076	
0.28	0.093	-0.2665060605975229	
0.285	-0.133	-0.2599599139394465	
0.29	-0.672	-0.25727561569826557	
0.295	-0.117	-0.2525952546440902	
0.3	0.251	-0.24277719296643693	
0.305	-0.547	-0.22479410555895443	
0.31	-0.355	-0.20615523021783128	
0.315	0.433	-0.18736432074424575	
0.32	-0.303	-0.16350537701075446	
0.325	-0.531	-0.14550400811815617	
0.33	0.326	-0.13294028022260124	
0.335	0.027	-0.1197329920972141	
0.34	-0.552	-0.10895530205583331	
0.345	0.021	-0.10141432107859488	
0.35	0.537	-0.08723556042759659	
0.355	-0.403	-0.056275056093604364	
0.36	-0.203	-0.02938101512322105	
0.365	0.747	-0.002791323886502956	
0.37	-0.153	0.03337591534797193	
0.375	-0.415	0.05403682692969156	
0.38	0.541	0.059403218750691954	
0.385	0.198	0.06748291437272201	
0.39	-0.491	0.06863579867836306	
0.395	0.068	0.053591762683634483	
0.4	0.505	0.036081497756041095	
0.405	-0.465	0.02256465600630162	
0.41	-0.326	0.0014255063708558486	
0.415	0.344	-0.033601428793053376	
0.42	-0.392	-0.07756550748013283	
0.425	-0.637	-0.12612767425677573	
0.43	0.044	-0.17555671039735335	
0.435	-0.183	-0.22540089896640908	
0.44	-0.750	-0.26843687150581313	
0.445	-0.227	-0.29742628503696755	
0.45	0.052	-0.3188235454376782	
0.455	-0.668	-0.33248265475599603	
0.46	-0.508	-0.33661295075647163	
0.465	0.131	-0.3364850291349702	
0.47	-0.470	-0.3385948619252017	
0.475	-0.698	-0.3382356703104845	
0.48	-0.011	-0.3364358650223425	
0.485	-0.185	-0.3393658685626787	
0.49	-0.721	-0.3406164849204512	
0.495	-0.195	-0.3303459748313714	
0.5	0.105	-0.319676284020022	
0.505	-0.639	-0.3096940151028773	
0.51	-0.460	-0.2986542347109373	
0.515	0.232	-0.28822274160659234	
0.52	-0.418	-0.2807254023597717	
0.525	-0.654	-0.2754474954362715	
0.53	0.049	-0.27215934952911636	
0.535	-0.143	-0.27731910908049273	
0.54	-0.701	-0.28395441040942093	
0.545	-0.194	-0.28318359000440807	
0.55	0.149	-0.2814170437946434	
0.555	-0.608	-0.2790319052686578	
0.56	-0.441	-0.2717098739619276	
0.565	0.270	-0.2618198588039664	
0.57	-0.406	-0.2549223996240374	
0.575	-0.651	-0.2517554533042485	
0.58	0.094	-0.2507550201201416	
0.585	-0.128	-0.25624463121275165	
0.59	-0.680	-0.26242744961636566	
0.595	-0.157	-0.2599634016462488	
0.6	0.213	-0.2560551710904691	
0.605	-0.582	-0.24848834145264148	
0.61	-0.413	-0.23580015510215532	
0.615	0.357	-0.22328788052141865	
0.62	-0.349	-0.21116526786514206	
0.625	-0.595	-0.20115034191624637	
0.63	0.213	-0.19224887114139744	
0.635	-0.050	-0.18815608786586066	
0.64	-0.624	-0.18700941139253346	
0.645	-0.069	-0.181692921537	
0.65	0.373	-0.17162668784272767	
0.655	-0.508	-0.15602749056194753	
0.66	-0.335	-0.1379023290580706	
0.665	0.498	-0.12268343810454566	
0.67	-0.303	-0.11044159481426494	
0.675	-0.552	-0.1055961316062804	
0.68	0.312	-0.1057013927295742	
0.685	0.020	-0.10804409926790852	
0.69	-0.575	-0.11262256798424017	
0.695	-0.023	-0.11242816412646191	
0.7	0.447	-0.10817812456013495	
0.705	-0.482	-0.0985676195844077	
0.71	-0.326	-0.08701886358972363	
0.715	0.524	-0.08007504549380087	
0.72	-0.281	-0.07770246535136245	
0.725	-0.544	-0.07903986055153847	
0.73	0.317	-0.08416014854360876	
0.735	0.033	-0.09293756013500588	
0.74	-0.570	-0.10223408861107683	
0.745	0.017	-0.10214479685822608	
0.75	0.552	-0.09172769678815294	
0.755	-0.433	-0.0681253356342574	
0.76	-0.276	-0.04312001136081019	
0.765	0.642	-0.0254577195453374	
0.77	-0.221	-0.011991210650105952	
0.775	-0.454	-0.006476811729616209	
0.78	0.552	0.0024048784844631138	
0.785	0.244	0.019165740750132897	
0.79	-0.499	0.03515079076034833	
0.795	0.143	0.04510367358968247	
0.8	0.646	0.05269441917589155	
0.805	-0.419	0.06236682377271386	
0.81	-0.274	0.0627652330653788	
0.815	0.617	0.04908484301382862	
0.82	-0.247	0.028790861402197155	
0.825	-0.517	0.004142007387587799	
0.83	0.405	-0.017156046502024125	
0.835	0.062	-0.03674478802997837	
0.84	-0.563	-0.05532701295086386	
0.845	0.033	-0.0636668916779049	
0.85	0.530	-0.0639565437192491	
0.855	-0.471	-0.05606732764805515	
0.86	-0.306	-0.045300986742187487	
0.865	0.608	-0.03942093777498616	
0.87	-0.235	-0.03644086484115034	
0.875	-0.441	-0.033211812347909986	
0.88	0.844	-0.004676961748098823	
0.885	0.832	0.07639613935757769	
0.89	-0.098	0.1981880006579632	
0.895	0.915	0.3324894173652306	
0.9	1.250	0.4653865492754491	
0.905	-0.277	0.5565290615733544	
0.91	-0.305	0.5464616811376297	
0.915	0.305	0.42789617498276755	
0.92	-0.448	0.24552066767234007	
0.925	-0.686	0.06055190783713851	
0.93	0.163	-0.08449925502979423	
0.935	-0.031	-0.18851557844778832	
0.94	-0.613	-0.24301348848262766	
0.945	-0.005	-0.24340809253562168	
0.95	0.555	-0.2124238002259956	
0.955	-0.454	-0.1606210849924773	
0.96	-0.293	-0.10547042919477717	
0.965	0.680	-0.060801884096550005	
0.97	-0.220	-0.02766983038255265	
0.975	-0.479	-0.007675967276012838	
0.98	0.532	0.007781959333239472	
0.985	0.244	0.021472648300222972	
0.99	-0.499	0.03362451724471443	
0.995	0.186	0.0467520851000782	
1.0	0.730	0.06279032667391683	
1.005	-0.378	0.08406783818904653	
1.01	-0.198	0.09849908806211034	
1.015	0.851	0.10652041582328785	
1.02	-0.134	0.11418379467379276	
1.025	-0.403	0.11411745349191435	
1.03	0.733	0.11804821385986972	
1.035	0.453	0.13753353705439453	
1.04	-0.389	0.16436818600231123	
1.045	0.375	0.18983371099800142	
1.05	0.941	0.21696140009716927	
1.055	-0.247	0.24891271142992774	
1.06	-0.037	0.2684312089131554	
1.065	1.130	0.2816694243191491	
1.07	0.062	0.30018227119104396	
1.075	-0.273	0.3100137472105089	
1.08	0.948	0.3130567564127573	
1.085	0.581	0.32759662618537455	
1.09	-0.367	0.3393709105904845	
1.095	0.380	0.3327323950463892	
1.1	0.831	0.31493730409306087	
1.105	-0.366	0.29106445131295455	
1.11	-0.209	0.2513860292592145	
1.115	0.785	0.20047260886770624	
1.12	-0.242	0.1503521563009538	
1.125	-0.541	0.09616748496731654	
1.13	0.357	0.04076071362483315	
1.135	0.014	-0.01541337448751149	
1.14	-0.637	-0.06728322428995713	
1.145	-0.078	-0.10242254509285913	
1.15	0.383	-0.12929102926193403	
1.155	-0.566	-0.14661325134333675	
1.16	-0.403	-0.15054393548900435	
1.165	0.407	-0.15486066939577503	
1.17	-0.377	-0.1655295509336682	
1.175	-0.637	-0.17659351608199786	
1.18	0.212	-0.182468032461307	
1.185	-0.047	-0.1935009045260907	
1.19	-0.643	-0.202048014629236	
1.195	-0.104	-0.19647154305838932	
1.2	0.343	-0.19046847899605482	
1.205	-0.587	-0.18550893234489427	
1.21	-0.406	-0.17646270024275817	
1.215	0.448	-0.1679702314356461	
1.22	-0.364	-0.16654935140521077	
1.225	-0.639	-0.16751635438248635	
1.23	0.189	-0.17147478089248666	
1.235	-0.101	-0.18856832785238162	
1.24	-0.715	-0.21005480576390795	
1.245	-0.159	-0.2203957749064578	
1.25	0.259	-0.23046870148779447	
1.255	-0.613	-0.23761264792936104	
1.26	-0.428	-0.23140399312833704	
1.265	0.418	-0.21984318531170086	
1.27	-0.389	-0.2116933735594253	
1.275	-0.660	-0.20659739763967516	
1.28	0.183	-0.20224277277155567	
1.285	-0.085	-0.21160787900838046	
1.29	-0.703	-0.22331125951615	
1.295	-0.136	-0.22318615012645787	
1.3	0.360	-0.22029422199288898	
1.305	-0.563	-0.21096201216994276	
1.31	-0.387	-0.18938210393222926	
1.315	0.518	-0.1674670308538992	
1.32	-0.334	-0.1509660860895894	
1.325	-0.578	-0.13884420610730003	
1.33	0.412	-0.12277491569087481	
1.335	0.123	-0.10661576499392483	
1.34	-0.566	-0.08980328479908639	
1.345	0.094	-0.0658757914760898	
1.35	0.665	-0.03897011521962476	
1.355	-0.418	-0.007491913450147996	
1.36	-0.232	0.02359331510634862	
1.365	0.815	0.04607894628031383	
1.37	-0.175	0.06371891654686715	
1.375	-0.428	0.07279310202839645	
1.38	0.703	0.08376369136571711	
1.385	0.393	0.10442707870598196	
1.39	-0.442	0.12864392946116693	
1.395	0.337	0.15140912580210808	
1.4	0.873	0.1753870592911785	
1.405	-0.319	0.20001254433634783	
1.41	-0.131	0.2135355970071258	
1.415	0.992	0.21457537978978306	
1.42	-0.073	0.21548453161568948	
1.425	-0.375	0.20847333080162717	
1.43	0.773	0.20016411645728843	
1.435	0.422	0.1994793775253269	
1.44	-0.433	0.20124680162421285	
1.445	0.357	0.2035980396297318	
1.45	0.889	0.21064079250006545	
1.455	-0.326	0.22270070177672147	
1.46	-0.137	0.22449318049900643	
1.465	0.973	0.21687706389200237	
1.47	-0.113	0.20935150589664223	
1.475	-0.403	0.19328629245085827	
1.48	0.756	0.17838311051978034	
1.485	0.401	0.17452457499815666	
1.49	-0.447	0.17604559217382632	
1.495	0.314	0.17866510448686868	
1.5	0.863	0.18476502026116332	
1.505	-0.331	0.1965897276548656	
1.51	-0.140	0.20145622833358084	
1.515	0.956	0.19897572841838157	
1.52	-0.093	0.19533661907049255	
1.525	-0.381	0.18622892923657258	
1.53	0.796	0.18041140549601853	
1.535	0.447	0.18755510370286016	
1.54	-0.448	0.19803011517062197	
1.545	0.267	0.20162387170086987	
1.55	0.764	0.1937542787225628	
1.555	-0.398	0.18264356903421827	
1.56	-0.227	0.16444911400711754	
1.565	0.794	0.1389016752338119	
1.57	-0.215	0.11038736820199241	
1.575	-0.505	0.08029781191557162	
1.58	0.550	0.05531172338011645	
1.585	0.195	0.03652631516654615	
1.59	-0.558	0.022156754738136733	
1.595	0.084	0.015600218729189375	
1.6	0.611	0.008658167081012984	
1.605	-0.465	0.006735515107178959	
1.61	-0.291	0.009505881961996927	
1.615	0.727	0.009791174728246279	
1.62	-0.175	0.010395686464552042	
1.625	-0.357	0.021411759942446828	
1.63	1.099	0.06828817800786513	
1.635	0.936	0.17350830398067804	
1.64	-0.182	0.3062421177340298	
1.645	0.724	0.41752097690573026	
1.65	0.969	0.4875232085031211	
1.655	-0.467	0.49782999377931825	
1.66	-0.436	0.42546866262000027	
1.665	0.251	0.2765485687108838	
1.67	-0.474	0.09153384241852791	
1.675	-0.697	-0.07036213552108844	
1.68	0.207	-0.17797595811324848	
1.685	-0.032	-0.2456011340346597	
1.69	-0.637	-0.271415023977284	
1.695	-0.005	-0.25246624548667146	
1.7	0.515	-0.21370460587614537	
1.705	-0.511	-0.16597933531621106	
1.71	-0.326	-0.11830548324616202	
1.715	0.649	-0.08162020513520231	
1.72	-0.285	-0.05857009646298254	
1.725	-0.555	-0.04722676226507691	
1.73	0.447	-0.04201922423760367	
1.735	0.072	-0.04477394890794365	
1.74	-0.595	-0.053363184748276754	
1.745	0.058	-0.05437877254150164	
1.75	0.584	-0.05181587583141034	
1.755	-0.485	-0.04101092497178112	
1.76	-0.291	-0.027175771837421613	
1.765	0.730	-0.01564127296292963	
1.77	-0.242	-0.0066715692349181115	
1.775	-0.508	-0.0021422715879186216	
1.78	0.599	0.005048348111502588	
1.785	0.238	0.018125998515853073	
1.79	-0.520	0.031638804066702914	
1.795	0.264	0.04971216220215446	
1.8	0.814	0.07612803024948872	
1.805	-0.384	0.10994500543091126	
1.81	-0.182	0.13188624734010285	
1.815	0.954	0.14332706934622438	
1.82	-0.113	0.15530254463577944	
1.825	-0.403	0.1579257155298639	
1.83	0.748	0.15799128787880812	
1.835	0.326	0.16108025282739066	
1.84	-0.508	0.15975751643183478	
1.845	0.184	0.14764937594150862	
1.85	0.631	0.12598369780914634	
1.855	-0.470	0.1031129621144363	
1.86	-0.310	0.0759541484545134	
1.865	0.628	0.04209450307734841	
1.87	-0.323	0.005376648613318781	
1.875	-0.595	-0.030857038691935245	
1.88	0.315	-0.06421274261358273	
1.885	-0.055	-0.10203099708094973	
1.89	-0.700	-0.13896580055303903	
1.895	-0.116	-0.16236559480580687	
1.9	0.348	-0.18224912438250324	
1.905	-0.584	-0.19273402809026235	
1.91	-0.387	-0.18588337350436135	
1.915	0.515	-0.17310238173081233	
1.92	-0.360	-0.1626765119481059	
1.925	-0.614	-0.15366460563616247	
1.93	0.334	-0.14524977571253767	
1.935	-0.014	-0.14419259362541953	
1.94	-0.645	-0.1478772504861644	
1.945	0.001	-0.1402529577536769	
1.95	0.512	-0.12837171831942493	
1.955	-0.515	-0.10980206073570256	
1.96	-0.303	-0.08575137246385678	
1.965	0.662	-0.06509990104953925	
1.97	-0.273	-0.0498204283953821	
1.975	-0.526	-0.04060752155320295	
1.98	0.509	-0.032124899736329204	
1.985	0.154	-0.024305758181295517	
1.99	-0.567	-0.018946120137240133	
1.995	0.133	-0.010106327790295085	
2.0	0.649	-0.0003904631705717855	
2.005	-0.441	0.017056753954146832	
2.01	-0.246	0.03234659409386617	
2.015	0.770	0.04097456442718546	
2.02	-0.238	0.045034239212122996	
2.025	-0.486	0.041411606452607934	
2.03	0.617	0.03900714923753223	
2.035	0.204	0.04159847535315826	
2.04	-0.561	0.042993756850902815	
2.045	0.160	0.04201605542965856	
2.05	0.662	0.04157715218204895	
2.055	-0.459	0.04696702769475343	
2.06	-0.267	0.049438647462450705	
2.065	0.710	0.041985547183236716	
2.07	-0.276	0.029937465532075897	
2.075	-0.531	0.013480964977474042	
2.08	0.518	-0.0009464586481105453	
2.085	0.126	-0.011511726559142609	
2.09	-0.582	-0.01996766259171526	
2.095	0.090	-0.0218816241164927	
2.1	0.527	-0.025532769844420152	
2.105	-0.502	-0.027077678815249993	
2.11	-0.271	-0.024411877299581337	
2.115	0.715	-0.020037280103627174	
2.12	-0.265	-0.01418916830833166	
2.125	-0.512	-0.012424391158868914	
2.13	0.564	-0.007875685632633998	
2.135	0.178	-0.0016456316948177622	
2.14	-0.538	0.00603470897663064	
2.145	0.230	0.020248814168760596	
2.15	0.721	0.040402007476279686	
2.155	-0.413	0.06684249848378321	
2.16	-0.186	0.08768469724497044	
2.165	0.887	0.09995826776257792	
2.17	-0.182	0.11071724778131976	
2.175	-0.427	0.11264159506105363	
2.18	0.729	0.11215712885429893	
2.185	0.302	0.11926764977402335	
2.19	-0.473	0.127081571142917	
2.195	0.328	0.13528920390880467	
2.2	0.785	0.14529788207332167	
2.205	-0.395	0.15988786890247714	
2.21	-0.192	0.16176537033625552	
2.215	0.838	0.14781589050371524	
2.22	-0.220	0.13172713983424922	
2.225	-0.471	0.10781601517135808	
2.23	0.593	0.08401715842572947	
2.235	0.134	0.06215574193063436	
2.24	-0.558	0.04131944716102691	
2.245	0.175	0.027261680243074567	
2.25	0.642	0.023064475551235437	
2.255	-0.445	0.030088595360430525	
2.26	-0.230	0.03890477028330147	
2.265	0.770	0.04252719798808372	
2.27	-0.233	0.044773313766375986	
2.275	-0.454	0.04409040376681071	
2.28	0.658	0.04579812343993538	
2.285	0.363	0.06202627823226804	
2.29	-0.322	0.09465816248712487	
2.295	0.901	0.16321932955719323	
2.3	1.393	0.28580546085054553	
2.305	-0.089	0.4273440809493868	
2.31	0.120	0.511920431539128	
2.315	0.954	0.5230860028850742	
2.32	-0.323	0.4699696772310642	
2.325	-0.648	0.3543733155340271	
2.33	0.161	0.1972872908563216	
2.335	-0.139	0.029011414153653284	
2.34	-0.680	-0.10673093044071948	
2.345	0.004	-0.184123264237648	
2.35	0.482	-0.20863794147305662	
2.355	-0.512	-0.19299123257541428	
2.36	-0.288	-0.15691524287878889	
2.365	0.619	-0.11956213206483327	
2.37	-0.316	-0.08871778212032512	
2.375	-0.538	-0.07009946602328976	
2.38	0.418	-0.0622854096197168	
2.385	-0.029	-0.06616494777753808	
2.39	-0.650	-0.0801257771387294	
2.395	-0.052	-0.09841708351182757	
2.4	0.329	-0.12014703282598782	
2.405	-0.585	-0.138443155723548	
2.41	-0.364	-0.14676052215236304	
2.415	0.442	-0.15319210051537382	
2.42	-0.416	-0.1604795426304172	
2.425	-0.634	-0.16961068443520128	
2.43	0.226	-0.1797973739697603	
2.435	-0.162	-0.1983280802915416	
2.44	-0.729	-0.2205244791478922	
2.445	-0.153	-0.23459943350576465	
2.45	0.177	-0.2496068935011524	
2.455	-0.657	-0.2620040633732269	
2.46	-0.421	-0.26158014311145494	
2.465	0.367	-0.2536998928506964	
2.47	-0.403	-0.24434831232202817	
2.475	-0.602	-0.23020875528401696	
2.48	0.271	-0.21414114103169374	
2.485	-0.122	-0.20450062370018898	
2.49	-0.680	-0.20311820690089924	
2.495	-0.089	-0.20068178850677737	
2.5	0.200	-0.2049399673279064	
2.505	-0.656	-0.21375126731208907	
2.51	-0.460	-0.22143511032818428	
2.515	0.168	-0.23903458685184859	
2.52	-0.537	-0.2703203022122592	
2.525	-0.741	-0.29992838246188414	
2.53	-0.072	-0.32630557496538204	
2.535	-0.339	-0.36567211848823156	
2.54	-0.861	-0.40188953093206764	
2.545	-0.319	-0.41959978633337724	
2.55	-0.119	-0.4371571104085092	
2.555	-0.793	-0.4567561117278107	
2.56	-0.564	-0.4562114271270307	
2.565	0.055	-0.44805578281216163	
2.57	-0.575	-0.4455424334521346	
2.575	-0.761	-0.43483533493387583	
2.58	-0.047	-0.4190663391590457	
2.585	-0.302	-0.4188862162702315	
2.59	-0.808	-0.4180934562811953	
2.595	-0.226	-0.4022374850719602	
2.6	0.044	-0.3901069304547521	
2.605	-0.680	-0.3782242537698609	
2.61	-0.428	-0.35200222188572144	
2.615	0.341	-0.31963474398863834	
2.62	-0.438	-0.2900385020416175	
2.625	-0.624	-0.2630219267775997	
2.63	0.261	-0.23640755907428826	
2.635	-0.096	-0.22108110721049085	
2.64	-0.622	-0.20769446269697334	
2.645	0.056	-0.18466422825936185	
2.65	0.422	-0.1568065985456265	
2.655	-0.518	-0.12600849688157065	
2.66	-0.253	-0.09585585708175834	
2.665	0.698	-0.0679268226972436	
2.67	-0.252	-0.03962135218711565	
2.675	-0.438	-0.015387924467628347	
2.68	0.655	0.00841189443268977	
2.685	0.183	0.03380148994758318	
2.69	-0.471	0.05555772566386195	
2.695	0.370	0.07689229724460861	
2.7	0.733	0.10559337838434772	
2.705	-0.351	0.13820926549598	
2.71	-0.061	0.16021280741068208	
2.715	0.966	0.17477676669169784	
2.72	-0.117	0.19089334446816908	
2.725	-0.319	0.19722491076894905	
2.73	0.881	0.201095959106912	
2.735	0.437	0.21777586565227605	
2.74	-0.360	0.24095400997375632	
2.745	0.538	0.25926788605865947	
2.75	0.887	0.27991102013537494	
2.755	-0.274	0.30067577340421703	
2.76	0.068	0.3092410557487525	
2.765	1.088	0.31023738536435325	
2.77	-0.056	0.31359747072717137	
2.775	-0.256	0.30499134826468355	
2.78	0.962	0.2954898536025017	
2.785	0.488	0.2997523052011778	
2.79	-0.345	0.3106330126600481	
2.795	0.639	0.3194714302159245	
2.8	0.983	0.33807229188573196	
2.805	-0.274	0.3604329925833844	
2.81	0.041	0.36223267784772606	
2.815	1.056	0.346400288487342	
2.82	-0.134	0.3265204224880157	
2.825	-0.348	0.29192637593509474	
2.83	0.776	0.25054312821684227	
2.835	0.245	0.2157521113789762	
2.84	-0.497	0.18464082372904617	
2.845	0.258	0.15345040990981734	
2.85	0.578	0.12201772848201836	
2.855	-0.482	0.09552438734145008	
2.86	-0.267	0.06928084934159623	
2.865	0.552	0.03226055164088097	
2.87	-0.352	-0.01044752911079777	
2.875	-0.538	-0.04590610567635091	
2.88	0.338	-0.07355954470148116	
2.885	-0.119	-0.10738196268478437	
2.89	-0.683	-0.14120242562077562	
2.895	-0.093	-0.16347297492567592	
2.9	0.180	-0.19116773024110115	
2.905	-0.607	-0.21749082216914312	
2.91	-0.264	-0.2144935007483576	
2.915	0.892	-0.17472866142400484	
2.92	-0.027	-0.09562700658937824	
2.925	-0.232	0.004175510874964572	
2.93	0.877	0.10259005459140713	
2.935	0.126	0.17242276511193305	
2.94	-0.671	0.18665293243195213	
2.945	-0.239	0.1326936949916375	
2.95	-0.145	0.0067844371678659286	
2.955	-0.816	-0.14969634235535897	
2.96	-0.557	-0.2723112088431915	
2.965	0.101	-0.3565930129996058	
2.97	-0.521	-0.41393167951878906	
2.975	-0.643	-0.422786302755226	
2.98	0.250	-0.38999625110883207	
2.985	-0.139	-0.34979061043317716	
2.99	-0.650	-0.30663983005630036	
2.995	0.018	-0.25275657797314555	
3.0	0.410	-0.20506901010001705	
3.005	-0.506	-0.16037661468646816	
3.01	-0.212	-0.11011470391236189	
3.015	0.751	-0.06401702475426779	
3.02	-0.261	-0.024562455551441483	
3.025	-0.398	0.008896658244571832	
3.03	0.729	0.04080621395864274	
3.035	0.250	0.07202923374659984	
3.04	-0.441	0.10062990700294068	
3.045	0.471	0.1328743396927065	
3.05	0.840	0.16830057508027496	
3.055	-0.305	0.20676401828685095	
3.06	0.056	0.23902715121250734	
3.065	1.087	0.26174426017263275	
3.07	-0.043	0.2808320235235765	
3.075	-0.213	0.29251503880226903	
3.08	1.094	0.3066415330734271	
3.085	0.637	0.3389180056067501	
3.09	-0.235	0.3809082524118739	
3.095	0.875	0.42442127869514923	
3.1	1.198	0.47465713545956	
3.105	-0.119	0.5230237915664291	
3.11	0.386	0.5511183163008505	
3.115	1.422	0.5693741673547084	
3.12	0.194	0.5853815617093652	
3.125	-0.113	0.5821897534144925	
3.13	1.207	0.5612049008066851	
3.135	0.665	0.5448583936277736	
3.14	-0.265	0.5314391740903799	
3.145	0.733	0.5117375521578302	
3.15	1.029	0.4928659061025291	
3.155	-0.232	0.4756359280986912	
3.16	0.111	0.45019162346650754	
3.165	1.102	0.4156611314975512	
3.17	-0.064	0.37913654025716015	
3.175	-0.233	0.34412803278168325	
3.18	0.974	0.31850482018945503	
3.185	0.468	0.30773481850376794	
3.19	-0.322	0.30925510112462307	
3.195	0.738	0.3249992649915948	
3.2	1.076	0.3568985813896601	
3.205	-0.206	0.39537865067724803	
3.21	0.245	0.4243159616469348	
3.215	1.270	0.4418180994806982	
3.22	0.073	0.4539223716030828	
3.225	-0.134	0.454100135261913	
3.23	1.206	0.4516893454255578	
3.235	0.646	0.4616415563566001	
3.24	-0.233	0.47615512114340885	
3.245	0.855	0.4901124834344317	
3.25	1.159	0.5088795057150871	
3.255	-0.145	0.529307525615237	
3.26	0.351	0.5383866426646855	
3.265	1.360	0.541807790097067	
3.27	0.171	0.5458893567136562	
3.275	-0.107	0.5401690293942376	
3.28	1.206	0.5256289157973066	
3.285	0.684	0.5195892415624984	
3.29	-0.204	0.5202999626449044	
3.295	0.869	0.5230669517869737	
3.3	1.125	0.5327252506461722	
3.305	-0.153	0.5404831055588105	
3.31	0.344	0.5394460265122547	
3.315	1.291	0.5325536960632984	
3.32	0.072	0.5229980603352584	
3.325	-0.154	0.5003809461399281	
3.33	1.125	0.47235638673376834	
3.335	0.559	0.4535452816010382	
3.34	-0.288	0.44163773767976544	
3.345	0.724	0.43188019701055147	
3.35	0.969	0.4274772088554343	
3.355	-0.261	0.4228597148498877	
3.36	0.113	0.4084652480169786	
3.365	1.098	0.3841219001330675	
3.37	-0.090	0.3582606070694448	
3.375	-0.267	0.32869203311041656	
3.38	0.953	0.30188867148264653	
3.385	0.407	0.2875182418646086	
3.39	-0.348	0.2841566560835754	
3.395	0.613	0.28958807632009065	
3.4	0.849	0.3001203073050076	
3.405	-0.339	0.3073853569458107	
3.41	0.017	0.30249918350568417	
3.415	1.012	0.285551376126403	
3.42	-0.124	0.26858711743613684	
3.425	-0.282	0.2510838324330403	
3.43	0.873	0.23830759367579482	
3.435	0.287	0.22946878967762438	
3.44	-0.422	0.22176649600163728	
3.445	0.421	0.21424211987797304	
3.45	0.634	0.20170075994642134	
3.455	-0.432	0.1839932824480115	
3.46	-0.156	0.16155846822085104	
3.465	0.721	0.12790820790863397	
3.47	-0.299	0.09091473077619489	
3.475	-0.433	0.05953001569561253	
3.48	0.617	0.0397270593883578	
3.485	0.055	0.024381917131411895	
3.49	-0.541	0.012387547608073616	
3.495	0.247	0.01096793752247663	
3.5	0.512	0.011277644415939926	
3.505	-0.471	0.015521166244927526	
3.51	-0.183	0.02366482887177507	
3.515	0.709	0.025347243215255937	
3.52	-0.217	0.026145729079510877	
3.525	-0.226	0.041940155935939444	
3.53	1.312	0.10331144238068354	
3.535	0.908	0.2293300053980562	
3.54	-0.076	0.38187909402711373	
3.545	0.973	0.5076559399200553	
3.55	0.905	0.5868736650836132	
3.555	-0.462	0.5940006595874004	
3.56	-0.310	0.5086354579295361	
3.565	0.352	0.3467180531025699	
3.57	-0.454	0.16054798203973514	
3.575	-0.569	0.00439792150975581	
3.58	0.384	-0.09939215144196764	
3.585	-0.098	-0.16275439200987574	
3.59	-0.601	-0.19034073963017806	
3.595	0.149	-0.18163882126709935	
3.6	0.384	-0.15761760402721126	
3.605	-0.537	-0.12830900636311116	
3.61	-0.218	-0.09715635901699543	
3.615	0.642	-0.07094814949459215	
3.62	-0.346	-0.05223530368261382	
3.625	-0.485	-0.04016312911959916	
3.63	0.508	-0.035950977242587695	
3.635	-0.064	-0.040915022496981465	
3.64	-0.593	-0.05176897325844836	
3.645	0.148	-0.059875563623293875	
3.65	0.373	-0.06605014811900058	
3.655	-0.544	-0.06981896593780648	
3.66	-0.210	-0.06602417825338577	
3.665	0.639	-0.06049234711280215	
3.67	-0.343	-0.05202151653198535	
3.675	-0.477	-0.044751968313075444	
3.68	0.482	-0.04340498666314754	
3.685	-0.060	-0.04904190085184299	
3.69	-0.563	-0.05824417836437281	
3.695	0.178	-0.061061651158712864	
3.7	0.425	-0.05744540875416731	
3.705	-0.492	-0.04839346991317357	
3.71	-0.156	-0.033895061107519255	
3.715	0.732	-0.016991334626769872	
3.72	-0.316	0.002155573814624218	
3.725	-0.453	0.01162352664969063	
3.73	0.500	0.008172375871578354	
3.735	-0.113	-0.009162823646810274	
3.74	-0.651	-0.038758355552381094	
3.745	-0.003	-0.07426334459758302	
3.75	0.134	-0.1198303716097948	
3.755	-0.697	-0.16596744598468083	
3.76	-0.424	-0.202765512948415	
3.765	0.133	-0.24249221636014517	
3.77	-0.639	-0.2906927890004074	
3.775	-0.776	-0.3329680036401207	
3.78	-0.093	-0.37116711703850047	
3.785	-0.433	-0.4193498680932845	
3.79	-0.928	-0.4583293423539243	
3.795	-0.305	-0.4752630776743952	
3.8	-0.182	-0.4931965384563839	
3.805	-0.858	-0.5068083797419365	
3.81	-0.538	-0.49948921525983925	
3.815	-0.002	-0.48772527941431426	
3.82	-0.662	-0.48386671483229177	
3.825	-0.744	-0.47068670120754547	
3.83	0.015	-0.450078176100735	
3.835	-0.342	-0.438671062468422	
3.84	-0.810	-0.4263212639612131	
3.845	-0.159	-0.401924647501398	
3.85	0.011	-0.38536068305423155	
3.855	-0.703	-0.3701293618772989	
3.86	-0.358	-0.3421538758507876	
3.865	0.337	-0.3095323056788649	
3.87	-0.505	-0.28234836082445597	
3.875	-0.585	-0.2566501311737416	
3.88	0.335	-0.23257783445140617	
3.885	-0.180	-0.2170021155725593	
3.89	-0.642	-0.20467910715369184	
3.895	0.125	-0.18436038971862861	
3.9	0.309	-0.16330058895693594	
3.905	-0.564	-0.14075859945421235	
3.91	-0.194	-0.11485409330220132	
3.915	0.665	-0.09006401294267105	
3.92	-0.352	-0.06293655301352662	
3.925	-0.427	-0.040773624561312505	
3.93	0.640	-0.021903597701031143	
3.935	0.000	-0.004282178359336102	
3.94	-0.541	0.0048093571099637415	
3.945	0.302	0.01121527980123686	
3.95	0.520	0.01985340790594788	
3.955	-0.448	0.034589134993379414	
3.96	-0.067	0.0513946173994899	
3.965	0.844	0.06641756289305997	
3.97	-0.239	0.08652813353799874	
3.975	-0.313	0.10209098835530199	
3.98	0.843	0.11770171606226312	
3.985	0.181	0.1384855606661502	
3.99	-0.427	0.15437684770402132	
3.995	0.532	0.1667029647210775	
4.0	0.707	0.18396712273961557	
4.005	-0.372	0.20405504151274054	
4.01	0.058	0.214598361376655	
4.015	0.950	0.21577600645102712	
4.02	-0.197	0.2181158971522808	
4.025	-0.271	0.21301088829148548	
4.03	0.898	0.20512345911693725	
4.035	0.262	0.20930452004846112	
4.04	-0.372	0.21612555796535496	
4.045	0.646	0.22803383906558922	
4.05	0.790	0.24998831312366873	
4.055	-0.328	0.27475098870266795	
4.06	0.137	0.28576688711686365	
4.065	1.029	0.28792706157771286	
4.07	-0.157	0.2898779022855092	
4.075	-0.236	0.2800345004923798	
4.08	0.957	0.2662948828774324	
4.085	0.239	0.2611696010694382	
4.09	-0.395	0.2540803403796468	
4.095	0.587	0.24615724697531166	
4.1	0.680	0.24291728562231404	
4.105	-0.399	0.24071745395688263	
4.11	-0.040	0.22586248963074232	
4.115	0.762	0.19384536245557787	
4.12	-0.326	0.15484162250412933	
4.125	-0.399	0.11517871981507764	
4.13	0.623	0.07823024802071518	
4.135	-0.058	0.04405079372592782	
4.14	-0.549	0.01424040478839557	
4.145	0.255	-0.0048037420923209145	
4.15	0.369	-0.019271652001015032	
4.155	-0.529	-0.028205288485646136	
4.16	-0.171	-0.02996289072171032	
4.165	0.588	-0.034301965935913996	
4.17	-0.386	-0.04124605277115377	
4.175	-0.412	-0.043626863275702185	
4.18	0.802	-0.028764745435577263	
4.185	0.404	0.01990171734389513	
4.19	-0.137	0.10436680092640782	
4.195	1.194	0.22831560600682765	
4.2	1.143	0.38157120397883204	
4.205	-0.322	0.5057405296231413	
4.21	-0.146	0.5280528337757668	
4.215	0.328	0.43151816862238507	
4.22	-0.584	0.26075486608344617	
4.225	-0.625	0.08256704296307874	
4.23	0.239	-0.06688307639984695	
4.235	-0.223	-0.1832249880034393	
4.24	-0.625	-0.2484101773124944	
4.245	0.169	-0.2546570356488384	
4.25	0.306	-0.2316653681246943	
4.255	-0.543	-0.1931180149502874	
4.26	-0.162	-0.14361582214281252	
4.265	0.642	-0.10058537628984827	
4.27	-0.337	-0.06444478768433493	
4.275	-0.370	-0.03124212732978839	
4.28	0.669	-0.0018034744791473939	
4.285	0.001	0.019471872069519888	
4.29	-0.485	0.03256646880180199	
4.295	0.431	0.04759040984221922	
4.3	0.550	0.06718392931569123	
4.305	-0.425	0.08969335138245871	
4.31	0.032	0.10963111613796152	
4.315	0.886	0.12646166516392504	
4.32	-0.255	0.1422918371796627	
4.325	-0.282	0.1508654630195819	
4.33	0.896	0.15638378865717095	
4.335	0.218	0.172278077980028	
4.34	-0.367	0.18953708947085263	
4.345	0.700	0.21178946535172968	
4.35	0.802	0.24608300160526786	
4.355	-0.288	0.284593139036721	
4.36	0.329	0.31478299575298974	
4.365	1.207	0.3464327723729152	
4.37	-0.037	0.3831999612259478	
4.375	-0.102	0.40096532317998845	
4.38	1.163	0.4033336876352954	
4.385	0.410	0.4142067750685157	
4.39	-0.293	0.4186894617174979	
4.395	0.765	0.4096976269112811	
4.4	0.742	0.3989140121793612	
4.405	-0.360	0.3818478066678438	
4.41	0.068	0.3447859521429475	
4.415	0.823	0.29307388822821334	
4.42	-0.326	0.23843943536825768	
4.425	-0.415	0.1782473314637575	
4.43	0.520	0.11188306132586173	
4.435	-0.182	0.04117373160227975	
4.44	-0.640	-0.024789645549467863	
4.445	0.059	-0.07955885781295752	
4.45	0.090	-0.13345587833787312	
4.455	-0.654	-0.17965142519185562	
4.46	-0.274	-0.2000803770244267	
4.465	0.354	-0.21144283196610458	
4.47	-0.517	-0.21939105658075128	
4.475	-0.549	-0.2183470677707301	
4.48	0.290	-0.21347214429192407	
4.485	-0.282	-0.22101999033044079	
4.49	-0.689	-0.22938653433076797	
4.495	0.012	-0.22958419093315277	
4.5	0.072	-0.23680937614534928	
4.505	-0.645	-0.24348434031040014	
4.51	-0.247	-0.2318459713553769	
4.515	0.416	-0.21569456490371192	
4.52	-0.485	-0.20151294667317096	
4.525	-0.505	-0.183073417563781	
4.53	0.392	-0.16746455080221956	
4.535	-0.212	-0.16329566767260376	
4.54	-0.621	-0.16228717651911528	
4.545	0.218	-0.1503342998018793	
4.55	0.276	-0.13500832174793106	
4.555	-0.587	-0.11865704403095918	
4.56	-0.182	-0.10057202040647652	
4.565	0.526	-0.09267258901224439	
4.57	-0.439	-0.08882769920305608	
4.575	-0.456	-0.08592639755954536	
4.58	0.512	-0.08320737980308957	
4.585	-0.178	-0.08559031194647637	
4.59	-0.595	-0.09238862779940517	
4.595	0.258	-0.09097088121652928	
4.6	0.291	-0.08811739080585618	
4.605	-0.553	-0.07997013867772143	
4.61	-0.122	-0.067263665879359	
4.615	0.663	-0.053515672654575935	
4.62	-0.393	-0.03923057191715551	
4.625	-0.393	-0.02384806820558512	
4.63	0.619	-0.014844438558201764	
4.635	-0.125	-0.012896601715385043	
4.64	-0.538	-0.017580662363268926	
4.645	0.381	-0.01553867031412515	
4.65	0.399	-0.007178869899955565	
4.655	-0.505	0.00562733427170448	
4.66	-0.073	0.01803637141732193	
4.665	0.732	0.02469871711642257	
4.67	-0.337	0.03233090317860843	
4.675	-0.332	0.04221025594816156	
4.68	0.748	0.051571469141994716	
4.685	-0.046	0.058795608300904044	
4.69	-0.494	0.059190850375148825	
4.695	0.457	0.061904602134205726	
4.7	0.498	0.06877096695829649	
4.705	-0.457	0.08121618393548519	
4.71	0.055	0.09634778427543217	
4.715	0.866	0.10892222751179594	
4.72	-0.303	0.12388197050027022	
4.725	-0.313	0.1312552300131925	
4.73	0.770	0.12696850411622893	
4.735	-0.031	0.11649339977751627	
4.74	-0.470	0.10199578411180601	
4.745	0.553	0.09633781390523359	
4.75	0.572	0.10670402104744728	
4.755	-0.419	0.12584340564717114	
4.76	0.116	0.14664463566056762	
4.765	0.937	0.16309213890812038	
4.77	-0.244	0.18148759137320603	
4.775	-0.235	0.19234124200308295	
4.78	0.936	0.19730006175455797	
4.785	0.123	0.20321474968490635	
4.79	-0.387	0.20686005459804999	
4.795	0.701	0.21267741365552603	
4.8	0.703	0.22960413610216923	
4.805	-0.363	0.2515844098022889	
4.81	0.233	0.26689822969751265	
4.815	1.003	0.27515667162581553	
4.82	-0.230	0.28020513809735215	
4.825	-0.227	0.2724641562433979	
4.83	0.877	0.25146483308282086	
4.835	0.024	0.223975821818958	
4.84	-0.451	0.19287011939007914	
4.845	0.555	0.1679014094171046	
4.85	0.530	0.15243876545634333	
4.855	-0.435	0.14748789551438304	
4.86	0.119	0.14914680590006743	
4.865	0.881	0.15209958177627392	
4.87	-0.284	0.1590049509991588	
4.875	-0.259	0.16266866734024085	
4.88	0.881	0.16154517206139973	
4.885	-0.008	0.15872480889610346	
4.89	-0.450	0.14895095878671255	
4.895	0.675	0.14709547697861494	
4.9	0.837	0.1712527834838717	
4.905	-0.134	0.23046521245359494	
4.91	0.991	0.3303955926544626	
4.915	1.820	0.486027257252554	
4.92	0.354	0.6618729794201892	
4.925	0.123	0.7757470844465941	
4.93	1.030	0.7874070418054206	
4.935	-0.131	0.7005981958336776	
4.94	-0.617	0.5381162915329502	
4.945	0.242	0.3470176320467095	
4.95	0.268	0.16809612345019345	
4.955	-0.518	0.03771643814522692	
4.96	0.018	-0.026572858553433675	
4.965	0.826	-0.039279294512990115	
4.97	-0.293	-0.01494357902774035	
4.975	-0.239	0.027068144565195004	
4.98	0.925	0.07219857717490756	
4.985	0.056	0.11755511204397014	
4.99	-0.407	0.14944621688850757	
4.995	0.681	0.1738903156695233	
5.0	0.631	0.19982203800927006	
5.005	-0.374	0.2249448172553032	
5.01	0.259	0.2444462989686535	
5.015	0.997	0.2583723029602829	
5.02	-0.236	0.27121185123897146	
5.025	-0.198	0.2692900480294873	
5.03	0.960	0.25685035670279316	
5.035	0.059	0.2445541975613108	
5.04	-0.401	0.2278423854628512	
5.045	0.665	0.21263796056538126	
5.05	0.538	0.20657383924563272	
5.055	-0.416	0.204392525074275	
5.06	0.209	0.20242244755403657	
5.065	0.916	0.2029186020056309	
5.07	-0.282	0.20855206225421224	
5.075	-0.213	0.20655928057418854	
5.08	0.941	0.19931729600837078	
5.085	0.044	0.19862875507366198	
5.09	-0.399	0.19336466550362869	
5.095	0.657	0.18820909330772076	
5.1	0.521	0.1912969908518039	
5.105	-0.465	0.19302781665313176	
5.11	0.030	0.18027871169978268	
5.115	0.654	0.14829847524738554	
5.12	-0.448	0.11008394288694023	
5.125	-0.444	0.06487807360646314	
5.13	0.407	0.008550803167258677	
5.135	-0.328	-0.05724727325713757	
5.14	-0.733	-0.1209195750751445	
5.145	-0.060	-0.1793397953568078	
5.15	-0.157	-0.24711680886083154	
5.155	-0.814	-0.3101856580724683	
5.16	-0.375	-0.3457090231672096	
5.165	0.014	-0.37441506325617285	
5.17	-0.727	-0.40452396139247	
5.175	-0.675	-0.4166487097860445	
5.18	0.011	-0.4220266159179921	
5.185	-0.505	-0.4373723794809836	
5.19	-0.855	-0.44634570713901783	
5.195	-0.168	-0.44249524863795964	
5.2	-0.227	-0.4505428930664533	
5.205	-0.836	-0.4578744224961108	
5.21	-0.366	-0.44347666965499694	
5.215	0.104	-0.426781392903765	
5.22	-0.686	-0.41359999194454006	
5.225	-0.622	-0.3922989622265767	
5.23	0.140	-0.3730876672104308	
5.235	-0.444	-0.3687016879181667	
5.24	-0.785	-0.3641739937958377	
5.245	-0.040	-0.35522278102262306	
5.25	-0.117	-0.3558410441290032	
5.255	-0.770	-0.358043805789381	
5.26	-0.296	-0.34507433678447397	
5.265	0.198	-0.33379833634466477	
5.27	-0.643	-0.3260442384233653	
5.275	-0.546	-0.31204321906819676	
5.28	0.288	-0.2947253601006403	
5.285	-0.377	-0.2861778237140029	
5.29	-0.718	-0.27930482447162963	
5.295	0.087	-0.2676277371769399	
5.3	-0.041	-0.26704123975673166	
5.305	-0.698	-0.26857903498298813	
5.31	-0.186	-0.2555437421031428	
5.315	0.427	-0.23652100893374367	
5.32	-0.534	-0.21376737444585048	
5.325	-0.445	-0.18590979734281413	
5.33	0.526	-0.1600415182967876	
5.335	-0.265	-0.14173480264057137	
5.34	-0.599	-0.1286934300363643	
5.345	0.332	-0.11480919709026588	
5.35	0.227	-0.10112335705727016	
5.355	-0.557	-0.08436721268402442	
5.36	0.032	-0.05998290705407137	
5.365	0.727	-0.031063886455485468	
5.37	-0.381	0.002379114509238096	
5.375	-0.271	0.033143743464559235	
5.38	0.877	0.05978276804717963	
5.385	-0.049	0.08571152705728408	
5.39	-0.419	0.10582573358721536	
5.395	0.718	0.12603650298768299	
5.4	0.543	0.1548433928943368	
5.405	-0.430	0.1848222337622336	
5.41	0.300	0.20652291295249087	
5.415	0.974	0.2253964318998019	
5.42	-0.265	0.2456070350236217	
5.425	-0.137	0.2551655087078857	
5.43	1.087	0.257498167896008	
5.435	0.114	0.2682644565577543	
5.44	-0.323	0.2754366535148808	
5.445	0.936	0.2866936463757351	
5.45	0.774	0.31481333892985525	
5.455	-0.311	0.35124941225524875	
5.46	0.547	0.37990211761442255	
5.465	1.201	0.40868310794165474	
5.47	-0.145	0.4370921700993822	
5.475	0.027	0.44521318955858674	
5.48	1.276	0.4419071960992415	
5.485	0.245	0.4449751787781832	
5.49	-0.265	0.44126449485429237	
5.495	1.008	0.4300224318825113	
5.5	0.799	0.4317356038919094	
5.505	-0.302	0.43904254049089086	
5.51	0.518	0.4380990467256685	
5.515	1.134	0.43569457095820696	
5.52	-0.200	0.4349407622909943	
5.525	-0.076	0.4153403384460531	
5.53	1.085	0.38290303377838686	
5.535	0.000	0.3488438887070563	
5.54	-0.418	0.30641217590115793	
5.545	0.645	0.25902210867006953	
5.55	0.364	0.2135432789170027	
5.555	-0.508	0.17220907900890547	
5.56	0.076	0.13720465384974967	
5.565	0.691	0.1024344363645173	
5.57	-0.422	0.0750206087602292	
5.575	-0.300	0.058606619348868114	
5.58	0.733	0.04568034851683237	
5.585	-0.200	0.03170860026326801	
5.59	-0.529	0.0177263618300757	
5.595	0.448	0.008992145286641369	
5.6	0.116	-0.006758552323647321	
5.605	-0.630	-0.029618200462094114	
5.61	-0.078	-0.04860050531266966	
5.615	0.523	-0.06883219072068386	
5.62	-0.514	-0.08403323876179555	
5.625	-0.383	-0.08410726487983132	
5.63	0.601	-0.08240615489764908	
5.635	-0.268	-0.08353387533253004	
5.64	-0.592	-0.0850732947952969	
5.645	0.343	-0.08286114743399339	
5.65	0.047	-0.09203855482758977	
5.655	-0.648	-0.1076361479880029	
5.66	-0.041	-0.1112880380834517	
5.665	0.750	-0.10094460336429081	
5.67	-0.256	-0.05927233613334415	
5.675	0.131	0.0211781142967427	
5.68	1.492	0.1447506245582839	
5.685	0.352	0.29413383646061164	
5.69	-0.316	-0.08286114743399339	
5.695	0.637	-0.08286114743399339	
5.7	0.021	-0.05927233613334415	
5.705	-0.758	0.27322985238610076	
5.71	-0.238	0.12798806664339318	
5.715	0.279	-0.02001863896276635	
5.72	-0.592	-0.1404989942153596	
5.725	-0.398	-0.20057536067517165	
5.73	0.645	-0.20915156231739512	
5.735	-0.221	-0.18817848232276815	
5.74	-0.508	-0.14794216789275935	
5.745	0.565	-0.09325298720233709	
5.75	0.312	-0.039509553560871644	
5.755	-0.511	0.008011339418223507	
5.76	0.201	0.05038055938999308	
5.765	0.819	0.08598858870991588	
5.77	-0.349	0.11703106090866414	
5.775	-0.174	0.14158827647012617	
5.78	0.998	0.16014353214617777	
5.785	-0.029	0.17743056332823673	
5.79	-0.355	0.18996447166639058	
5.795	0.854	0.20517575578165875	
5.8	0.553	0.22833282743272842	
5.805	-0.396	0.2527045484001705	
5.81	0.442	0.2717218932948584	
5.815	1.030	0.29107748353732	
5.82	-0.236	0.3126655051808184	
5.825	-0.035	0.32372971333149825	
5.83	1.175	0.3273855817033546	
5.835	0.116	0.33515598236219923	
5.84	-0.271	0.3409300145147185	
5.845	1.026	0.34643961903173687	
5.85	0.764	0.3681912067612158	
5.855	-0.256	0.39959006983900175	
5.86	0.718	0.430939124990239	
5.865	1.259	0.46901796214904423	
5.87	-0.148	0.5045178748980599	
5.875	0.102	0.512880338802119	
5.88	1.328	0.5033594769465147	
5.885	0.198	0.49703346082459104	
5.89	-0.247	0.4810853940813341	
5.895	1.044	0.4573976899586559	
5.9	0.691	0.4440223222374688	
5.905	-0.340	0.43380365293597145	
5.91	0.468	0.41594767658578974	
5.915	0.948	0.39171498468923777	
5.92	-0.305	0.3637423589836333	
5.925	-0.148	0.32610240608374297	
5.93	0.877	0.276955880831922	
5.935	-0.153	0.2240518591704943	
5.94	-0.433	0.17352945064054487	
5.945	0.643	0.13812120090208863	
5.95	0.290	0.11274392673389019	
5.955	-0.505	0.09626676094204567	
5.96	0.207	0.09096572191104306	
5.965	0.712	0.08926286096923408	
5.97	-0.412	0.09100957719831138	
5.975	-0.233	0.09339786963825626	
5.98	0.799	0.0895276192136818	
5.985	-0.200	0.08101893651197234	
5.99	-0.470	0.0699563872850268	
5.995	0.602	0.06388517968002255	
6.0	0.242	0.05945451709481938	
6.005	-0.528	0.0566581392535123	
6.01	0.198	0.060008512126002916	
6.015	0.726	0.06685425927086776	
6.02	-0.403	0.07921522119824756	
6.025	-0.220	0.09067514015990051	
6.03	0.814	0.09315363012424914	
6.035	-0.201	0.08996725970864325	
6.04	-0.457	0.08135517057121455	
6.045	0.611	0.07469066193342752	
6.05	0.242	0.07017458437398422	
6.055	-0.521	0.0670239749912708	
6.06	0.158	0.06606081876227414	
6.065	0.671	0.06344556036689969	
6.07	-0.425	0.06440755147913113	
6.075	-0.241	0.06697398629624776	
6.08	0.726	0.06278421737353376	
6.085	-0.244	0.050887856563214165	
6.09	-0.489	0.03577186599409409	
6.095	0.552	0.025527735919524355	
6.1	0.165	0.018860343567871845	
6.105	-0.549	0.012369356431684474	
6.11	0.142	0.013171211031492488	
6.115	0.596	0.014048386134725211	
6.12	-0.462	0.017530354830356705	
6.125	-0.258	0.022285873149612376	
6.13	0.738	0.02348828210601405	
6.135	-0.239	0.022767841835134514	
6.14	-0.483	0.02013267971728285	
6.145	0.549	0.019426909439715687	
6.15	0.154	0.01756060569447398	
6.155	-0.543	0.0136395758508197	
6.16	0.181	0.017306187140586224	
6.165	0.660	0.025712200984086032	
6.17	-0.441	0.03860148126370306	
6.175	-0.220	0.051568814588249676	
6.18	0.791	0.05824648928334695	
6.185	-0.226	0.060632099520783855	
6.19	-0.470	0.05744455197060107	
6.195	0.576	0.05236734082354183	
6.2	0.175	0.04628994877776422	
6.205	-0.535	0.038863505551785665	
6.21	0.192	0.038436820620157866	
6.215	0.646	0.04040867902753601	
6.22	-0.430	0.04865592071144368	
6.225	-0.191	0.05884216701655674	
6.23	0.788	0.06503118420648239	
6.235	-0.226	0.06749026725076665	
6.24	-0.445	0.06474413178054385	
6.245	0.691	0.0653341016923616	
6.25	0.273	0.07502873015100839	
6.255	-0.497	0.08806684998297153	
6.26	0.296	0.09956000257667794	
6.265	0.744	0.11311560610130142	
6.27	-0.398	0.1287213590252555	
6.275	-0.175	0.13608503221927185	
6.28	0.837	0.1317823336769206	
6.285	-0.221	0.12240502227733899	
6.29	-0.485	0.10406267425702528	
6.295	0.538	0.07918964410732982	
6.3	0.101	0.05076705155303489	
6.305	-0.564	0.022387901817841584	
6.31	0.130	0.004639496225065351	
6.315	0.535	-0.007254942798666224	
6.32	-0.499	-0.013121689610614105	
6.325	-0.265	-0.012619615901508004	
6.33	0.648	-0.016538120127043046	
6.335	-0.319	-0.0226943031314328	
6.34	-0.531	-0.032555314455495116	
6.345	0.430	-0.0429260690619459	
6.35	-0.043	-0.06054319353362072	
6.355	-0.639	-0.08333236237704619	
6.36	0.110	-0.0932179730256654	
6.365	0.735	-0.08058244537839118	
6.37	-0.273	-0.03202721729979498	
6.375	0.136	0.04668679559811216	
6.38	1.125	0.1402158987158784	
6.385	-0.169	0.22214285435451286	
6.39	-0.520	0.24670617743384587	
6.395	0.133	0.19594711031036596	
6.4	-0.345	0.07417422333248747	
6.405	-0.915	-0.07906717838935604	
6.41	-0.316	-0.2140870546430377	
6.415	-0.040	-0.3279165968745056	
6.42	-0.720	-0.406969734458528	
6.425	-0.438	-0.4249884070434261	
6.43	0.349	-0.40195461004483307	
6.435	-0.448	-0.3660504556593326	
6.44	-0.619	-0.31996672937928916	
6.445	0.314	-0.2698748484950728	
6.45	-0.098	-0.23413615918004305	
6.455	-0.657	-0.2081068575596309	
6.46	-0.012	-0.18176460110325957	
6.465	0.372	-0.16505937350048416	
6.47	-0.576	-0.1503167589022244	
6.475	-0.299	-0.13073678140134312	
6.48	0.655	-0.11077245768185716	
6.485	-0.316	-0.08945044903149668	
6.49	-0.491	-0.06894395625260195	
6.495	0.587	-0.0464621007157541	
6.5	0.116	-0.025390413081567444	
6.505	-0.544	-0.008374748356767475	
6.51	0.238	0.009663847327961453	
6.515	0.610	0.025965457056646848	
6.52	-0.442	0.04423757427324988	
6.525	-0.139	0.06150304629800476	
6.53	0.925	0.07752425427329117	
6.535	-0.183	0.10013375466218338	
6.54	-0.358	0.11801732314346788	
6.545	0.881	0.13596514384196606	
6.55	0.402	0.16739802916108945	
6.555	-0.396	0.20136677114469748	
6.56	0.561	0.23102034660899	
6.565	0.905	0.2619737121243991	
6.57	-0.325	0.2909060427567441	
6.575	-0.017	0.2986862207179719	
6.58	1.005	0.28665876465784884	
6.585	-0.163	0.2708659278152168	
6.59	-0.357	0.24408812600521146	
6.595	0.759	0.2121383830583309	
6.6	0.169	0.18218391395229305	
6.605	-0.563	0.14936589317167098	
6.61	0.189	0.11222448811168302	
6.615	0.491	0.07080403392759141	
6.62	-0.528	0.034841077186462135	
6.625	-0.268	0.008959343907236456	
6.63	0.578	-0.018431345469898008	
6.635	-0.380	-0.04735408405362506	
6.64	-0.541	-0.06965804945105421	
6.645	0.437	-0.0827618705425309	
6.65	-0.079	-0.09914135302184182	
6.655	-0.643	-0.11455581589611073	
6.66	0.056	-0.11945761892801213	
6.665	0.390	-0.12343485929568777	
6.67	-0.553	-0.12136683972814503	
6.675	-0.252	-0.10567605158859883	
6.68	0.640	-0.08839874215776039	
6.685	-0.343	-0.07475943478115347	
6.69	-0.482	-0.06148542755393474	
6.695	0.590	-0.04443584800763617	
6.7	0.017	-0.032506514785248714	
6.705	-0.550	-0.025704064652112515	
6.71	0.287	-0.011997596904618293	
6.715	0.594	0.007466616950021856	
6.72	-0.450	0.031211833080600722	
6.725	-0.131	0.05464657585024861	
6.73	0.851	0.0708298233421319	
6.735	-0.241	0.08477903686429047	
6.74	-0.393	0.0925514605037672	
6.745	0.756	0.09799663115288418	
6.75	0.184	0.10520196164146076	
6.755	-0.488	0.11005236056192239	
6.76	0.421	0.1184353563575042	
6.765	0.701	0.13143445875520324	
6.77	-0.410	0.14580444270290246	
6.775	-0.081	0.15592438651946344	
6.78	0.890	0.15504926418950138	
6.785	-0.236	0.14936795246252757	
6.79	-0.381	0.13959416636322514	
6.795	0.774	0.13137939321816006	
6.8	0.183	0.12592652928246006	
6.805	-0.479	0.12284987382121693	
6.81	0.466	0.1278407015419062	
6.815	0.753	0.14339293369951295	
6.82	-0.380	0.16643824009091338	
6.825	0.014	0.18619631684920665	
6.83	1.056	0.20224654963677352	
6.835	-0.134	0.2199923077245635	
6.84	-0.267	0.23163669505194967	
6.845	0.991	0.24170516637130243	
6.85	0.367	0.25868550897581216	
6.855	-0.363	0.27469668418833393	
6.86	0.681	0.29114890881526756	
6.865	0.919	0.3143268494072273	
6.87	-0.291	0.33819433111265096	
6.875	0.163	0.3504019444107536	
6.88	1.168	0.3543190573691471	
6.885	-0.095	0.3577609932780832	
6.89	-0.249	0.3467225551292389	
6.895	1.012	0.32883086244166604	
6.9	0.367	0.3185209995121884	
6.905	-0.380	0.3107253624523568	
6.91	0.611	0.3032715316312372	
6.915	0.837	0.3011865215545551	
6.92	-0.343	0.3022043689127846	
6.925	0.041	0.29555091067615424	
6.93	1.050	0.28117266760190207	
6.935	-0.142	0.2707244360171904	
6.94	-0.267	0.25894451330621304	
6.945	0.960	0.24971517612195773	
6.95	0.276	0.24835872373968548	
6.955	-0.435	0.24496908023658484	
6.96	0.501	0.23726455954551676	
6.965	0.706	0.2289112501497809	
6.97	-0.419	0.21940156281919776	
6.975	-0.072	0.20471586131501598	
6.98	0.863	0.17984458645730864	
6.985	-0.276	0.15476209999186868	
6.99	-0.401	0.13026963987920867	
6.995	0.674	0.10546103791911211	
7.0	0.020	0.08016792293752911	
7.005	-0.557	0.05335189408255388	
7.01	0.259	0.03524047439242678	
7.015	0.456	0.018547414277695396	
7.02	-0.534	0.005648105620790926	
7.025	-0.206	-5.123884995078033e-05	
7.03	0.706	-0.0075190922590355905	
7.035	-0.252	-0.00924931233422567	
7.04	-0.209	0.01265841922628927	
7.045	1.337	0.08132218460378311	
7.05	0.718	0.2079647602724538	
7.055	-0.241	0.34263601561003826	
7.06	0.671	0.4301775231194306	
7.065	0.469	0.44616551501116025	
7.07	-0.692	0.38384170961699093	
7.075	-0.465	0.25810883652545324	
7.08	0.108	0.08409039288239584	
7.085	-0.630	-0.1001827217713223	
7.09	-0.669	-0.2349371351156549	
7.095	0.259	-0.3079636142210038	
7.1	-0.217	-0.34230106225425144	
7.105	-0.680	-0.34091712504514604	
7.11	0.087	-0.3036752161339919	
7.115	0.273	-0.26119943487349456	
7.12	-0.599	-0.22003480545470328	
7.125	-0.249	-0.1735075357643016	
7.13	0.572	-0.1381255257758599	
7.135	-0.419	-0.11547847529848256	
7.14	-0.505	-0.09767683712223721	
7.145	0.501	-0.08487335298628858	
7.15	-0.130	-0.08468732221743919	
7.155	-0.611	-0.09088950199988238	
7.16	0.268	-0.08531880222939153	
7.165	0.428	-0.07140469172550343	
7.17	-0.528	-0.053290145196567745	
7.175	-0.130	-0.030157561221098677	
7.18	0.800	-0.008037840505977294	
7.185	-0.294	0.01613466432014978	
7.19	-0.372	0.03945839572261539	
7.195	0.777	0.06044774834742951	
7.2	0.114	0.08000440997557492	
7.205	-0.450	0.09597387834968724	
7.21	0.610	0.12106617806043429	
7.215	0.771	0.1595072837243826	
7.22	-0.366	0.20238629221639232	
7.225	0.130	0.23410224527649492	
7.23	1.111	0.25709621982378117	
7.235	-0.133	0.2808055476210214	
7.24	-0.236	0.2905250697423378	
7.245	1.009	0.2896883680662629	
7.25	0.279	0.2907950387416186	
7.255	-0.416	0.2859023967713986	
7.26	0.620	0.2772750244725862	
7.265	0.703	0.2693973576590513	
7.27	-0.428	0.2612802268998451	
7.275	-0.072	0.23828316993535936	
7.28	0.759	0.1960298935248561	
7.285	-0.348	0.146665397183317	
7.29	-0.436	0.10073006255858218	
7.295	0.587	0.05971183405944953	
7.3	-0.122	0.015560061397184634	
7.305	-0.610	-0.023960532703074244	
7.31	0.216	-0.04853426066210698	
7.315	0.338	-0.06784603884367928	
7.32	-0.572	-0.07777077590042097	
7.325	-0.194	-0.07339454184368893	
7.33	0.608	-0.07105269553562124	
7.335	-0.418	-0.07162677770337628	
7.34	-0.474	-0.06803340820984097	
7.345	0.527	-0.06410370644900151	
7.35	-0.140	-0.07080333238953096	
7.355	-0.598	-0.07997726813788278	
7.36	0.274	-0.07613586199146699	
7.365	0.419	-0.0670447482437604	
7.37	-0.505	-0.05009348949699491	
7.375	-0.072	-0.022004191058391236	
7.38	0.812	0.006074960528832704	
7.385	-0.277	0.034887712653532625	
7.39	-0.299	0.06410835059649402	
7.395	0.971	0.10033215771629037	
7.4	0.216	0.14281885048169202	
7.405	-0.375	0.18280173295661015	
7.41	0.805	0.22436206716956347	
7.415	0.954	0.2798833146222393	
7.42	-0.239	0.34146449862194816	
7.425	0.415	0.39230247942454866	
7.43	1.314	0.4342860093628972	
7.435	-0.023	0.4704691244984355	
7.44	-0.069	0.48213973670352056	
7.445	1.291	0.478645314059555	
7.45	0.541	0.4876010738124855	
7.455	-0.212	0.49970069017486196	
7.46	1.069	0.5116027439075663	
7.465	1.178	0.5417888739578421	
7.47	-0.110	0.5803597044475631	
7.475	0.700	0.6124736112677469	
7.48	1.596	0.6492242396028678	
7.485	0.223	0.694406756454523	
7.49	0.158	0.7142978916240114	
7.495	1.547	0.717514629015267	
7.5	0.748	0.7285163927589551	
7.505	-0.124	0.7319622542938108	
7.51	1.162	0.7194432072160697	
7.515	1.197	0.71154318497673	
7.52	-0.127	0.7067570046946237	
7.525	0.616	0.688472517040186	
7.53	1.450	0.6717202815873952	
7.535	0.064	0.6617721943742318	
7.54	-0.014	0.6316494208193874	
7.545	1.291	0.5888461183359269	
7.55	0.415	0.5555723036317084	
7.555	-0.305	0.5186968578293464	
7.56	0.852	0.4768972423102106	
7.565	0.851	0.4481016293608732	
7.57	-0.325	0.4276719897053869	
7.575	0.172	0.396354783639815	
7.58	0.947	0.35377581088367627	
7.585	-0.274	0.3094995445457315	
7.59	-0.317	0.2582141798983655	
7.595	0.788	0.20472863705815042	
7.6	-0.064	0.15668343095649978	
7.605	-0.579	0.10679988350925865	
7.61	0.209	0.055088151847742	
7.615	0.154	-0.003557363220576495	
7.62	-0.677	-0.06410723370774085	
7.625	-0.299	-0.11270483621470287	
7.63	0.258	-0.16238967407454377	
7.635	-0.602	-0.21272410610358095	
7.64	-0.628	-0.24808254690337794	
7.645	0.125	-0.27543511598337866	
7.65	-0.401	-0.3123203152017514	
7.655	-0.819	-0.34207975089375897	
7.66	-0.148	-0.35653272732143765	
7.665	-0.160	-0.3792488187088183	
7.67	-0.831	-0.40414070797555873	
7.675	-0.454	-0.409599882242785	
7.68	-0.050	-0.41933471206947404	
7.685	-0.764	-0.4443225402508718	
7.69	-0.787	-0.46046216290922887	
7.695	-0.134	-0.47512826937271824	
7.7	-0.564	-0.5065186460206972	
7.705	-0.959	-0.5303721858620072	
7.71	-0.311	-0.5367026091989882	
7.715	-0.316	-0.5507806317574606	
7.72	-0.953	-0.5657504901922028	
7.725	-0.534	-0.5593080365189653	
7.73	-0.096	-0.5517872338990064	
7.735	-0.768	-0.5503873323990103	
7.74	-0.753	-0.5360277566267501	
7.745	-0.064	-0.5152213386374946	
7.75	-0.496	-0.5108916092962138	
7.755	-0.861	-0.5011583597714832	
7.76	-0.192	-0.47940729963380396	
7.765	-0.194	-0.4701185410738075	
7.77	-0.819	-0.4649455025751513	
7.775	-0.367	-0.4408544357883146	
7.78	0.215	-0.41076428398076914	
7.785	-0.617	-0.38190511821488127	
7.79	-0.608	-0.3488021625076573	
7.795	0.253	-0.31877059524333023	
7.8	-0.322	-0.3023936691645779	
7.805	-0.704	-0.2883839995749994	
7.81	0.130	-0.26473015369003416	
7.815	0.157	-0.24224945007667295	
7.82	-0.613	-0.21558751426060993	
7.825	-0.136	-0.18034307339098204	
7.83	0.622	-0.14339891304766067	
7.835	-0.419	-0.10466602765182764	
7.84	-0.390	-0.06872722704098005	
7.845	0.681	-0.04102977082272252	
7.85	-0.114	-0.018921904739444648	
7.855	-0.506	-0.004822145589630709	
7.86	0.535	0.014071051508608295	
7.865	0.486	0.04271159835730447	
7.87	-0.468	0.07463789816011232	
7.875	0.110	0.10115014602105542	
7.88	0.889	0.12204766260718573	
7.885	-0.305	0.1445751094525903	
7.89	-0.261	0.15629653576013003	
7.895	0.915	0.15968715456478227	
7.9	0.026	0.1646257147520236	
7.905	-0.428	0.1647760158207245	
7.91	0.683	0.16574485836169525	
7.915	0.631	0.18167862240347823	
7.92	-0.410	0.2040322294449073	
7.925	0.253	0.22155823146822642	
7.93	1.037	0.23836196268007206	
7.935	-0.233	0.2600096082220803	
7.94	-0.180	0.268356845681479	
7.945	1.053	0.26615909085690365	
7.95	0.157	0.27128227560687296	
7.955	-0.360	0.2725775124163733	
7.96	0.825	0.27517270091821083	
7.965	0.742	0.291575942889391	
7.97	-0.354	0.3137263707764403	
7.975	0.343	0.3258429206584492	
7.98	1.119	0.3354249510890075	
7.985	-0.204	0.3477235495641289	
7.99	-0.180	0.34250420380124214	
7.995	0.959	0.3172760028990641	
8.0	0.011	0.285040352520681	
8.005	-0.430	0.2456610563396268	
8.01	0.668	0.21233781524638	
8.015	0.579	0.19636459072206036	
8.02	-0.415	0.19575416663564918	
8.025	0.227	0.20006161784985305	
8.03	0.933	0.20622791744179214	
8.035	-0.279	0.21564713594447454	
8.04	-0.226	0.2157833945265353	
8.045	0.902	0.2051637024965633	
8.05	-0.026	0.19283727122498578	
8.055	-0.435	0.1739310544804171	
8.06	0.645	0.16035306211140082	
8.065	0.585	0.1620630235888988	
8.07	-0.322	0.18095695860538652	
8.075	0.698	0.22726420897894253	
8.08	1.613	0.3279500691797676	
8.085	0.157	0.4667192662792992	
8.09	0.090	0.5699976369166451	
8.095	1.009	0.5987876102922649	
8.1	-0.180	0.550754564540143	
8.105	-0.704	0.42631189723972124	
8.11	-0.079	0.2480594319902746	
8.115	-0.169	0.03976659715906725	
8.12	-0.782	-0.14650842685882662	
8.125	-0.279	-0.26370249665313833	
8.13	0.277	-0.3256165182500813	
8.135	-0.593	-0.34898070002557646	
8.14	-0.520	-0.3335241992436624	
8.145	0.334	-0.30461696465759724	
8.15	-0.352	-0.2833732053065764	
8.155	-0.691	-0.265161640250445	
8.16	0.155	-0.2429947610516183	
8.165	0.041	-0.23065139169621662	
8.17	-0.668	-0.22131338281076274	
8.175	-0.188	-0.20449772528914956	
8.18	0.389	-0.19397056115236583	
8.185	-0.549	-0.1880790381203813	
8.19	-0.451	-0.17518501441082152	
8.195	0.463	-0.16268830725717276	
8.2	-0.300	-0.15967792945663048	
8.205	-0.628	-0.1579515126961634	
8.21	0.270	-0.15077652332053476	
8.215	0.143	-0.1449606270641371	
8.22	-0.607	-0.1373830877366155	
8.225	-0.079	-0.12013492011576127	
8.23	0.601	-0.10307391474405087	
8.235	-0.438	-0.0813967257732259	
8.24	-0.322	-0.054902751569972603	
8.245	0.811	-0.024506468952898396	
8.25	-0.105	0.008939717655401767	
8.255	-0.462	0.03608080965299098	
8.26	0.652	0.06258370000243742	
8.265	0.511	0.0978008644579595	
8.27	-0.416	0.13541059437616837	
8.275	0.305	0.169208518423647	
8.28	0.936	0.20089969996835674	
8.285	-0.297	0.22828544265064324	
8.29	-0.194	0.23629134842973848	
8.295	0.951	0.227622923288649	
8.3	-0.061	0.21666687554394998	
8.305	-0.450	0.1951526990803613	
8.31	0.569	0.1677718670634371	
8.315	0.329	0.14058195271983304	
8.32	-0.543	0.11339259696194959	
8.325	-0.023	0.08543759398768191	
8.33	0.550	0.04673696156805938	
8.335	-0.483	0.009173425749136745	
8.34	-0.378	-0.017415512578897202	
8.345	0.534	-0.0414161600550728	
8.35	-0.285	-0.06861473575001653	
8.355	-0.604	-0.09162464784944484	
8.36	0.274	-0.1050338832249314	
8.365	0.041	-0.12276066826323807	
8.37	-0.631	-0.14063397423823415	
8.375	-0.104	-0.1421640558113223	
8.38	0.466	-0.14141637097607665	
8.385	-0.508	-0.1371654788815609	
8.39	-0.372	-0.12207978967571366	
8.395	0.585	-0.10423046399533613	
8.4	-0.265	-0.09407594042255815	
8.405	-0.569	-0.08758942940197414	
8.41	0.392	-0.07757005007695826	
8.415	0.178	-0.07105244136284258	
8.42	-0.567	-0.06496514693232792	
8.425	0.068	-0.0476730876692248	
8.43	0.718	-0.026346275285515627	
8.435	-0.399	0.003282668822345198	
8.44	-0.247	0.03316043375235807	
8.445	0.819	0.056183816727136585	
8.45	-0.148	0.07242325471035815	
8.455	-0.453	0.07828338881708949	
8.46	0.669	0.08701474270006793	
8.465	0.410	0.10273483131678596	
8.47	-0.464	0.12058544889582136	
8.475	0.259	0.13879816427045374	
8.48	0.887	0.1567967596241953	
8.485	-0.332	0.17672619012700225	
8.49	-0.197	0.18834924955422017	
8.495	0.934	0.18659825844970718	
8.5	-0.072	0.18098759539666798	
8.505	-0.399	0.1721642117593745	
8.51	0.764	0.16951899497679981	
8.515	0.491	0.17853770673905262	
8.52	-0.421	0.19322696341672613	
8.525	0.343	0.20821825796656887	
8.53	0.927	0.222874060242786	
8.535	-0.313	0.23726776458505947	
8.54	-0.163	0.24056378022595357	
8.545	0.968	0.23090212749307373	
8.55	-0.072	0.21758860328688945	
8.555	-0.389	0.2001267360895701	
8.56	0.764	0.18992499535058366	
8.565	0.474	0.19031459455569993	
8.57	-0.430	0.19698052897634583	
8.575	0.328	0.2055917050479597	
8.58	0.881	0.2128720951887533	
8.585	-0.317	0.22090904012651227	
8.59	-0.157	0.22180163065034844	
8.595	0.974	0.2151056968864689	
8.6	-0.085	0.20523077554294689	
8.605	-0.396	0.1921560387416649	
8.61	0.776	0.18425190971778482	
8.615	0.476	0.18707638335365	
8.62	-0.421	0.19681672207823403	
8.625	0.367	0.2109319998316278	
8.63	0.910	0.22381470883332208	
8.635	-0.325	0.23661185252568048	
8.64	-0.143	0.23904409947533634	
8.645	0.995	0.23123470514043565	
8.65	-0.072	0.220910725542862	
8.655	-0.401	0.2072403760294999	
8.66	0.785	0.1965062395046065	
8.665	0.489	0.1968234818138752	
8.67	-0.424	0.20573941686519012	
8.675	0.363	0.2172331188358933	
8.68	0.880	0.22668222757574133	
8.685	-0.332	0.23340081815518354	
8.69	-0.134	0.2323221292865513	
8.695	1.006	0.2242620341966143	
8.7	-0.085	0.21661989318991448	
8.705	-0.383	0.20440994427723064	
8.71	0.788	0.1966795918787078	
8.715	0.421	0.19553489201603527	
8.72	-0.435	0.19775197992867946	
8.725	0.398	0.20550932890998655	
8.73	0.931	0.2195031105752587	
8.735	-0.303	0.23726305576240028	
8.74	-0.107	0.2485874417374098	
8.745	1.011	0.24620989464956375	
8.75	-0.090	0.23938504200385918	
8.755	-0.369	0.22461466601783583	
8.76	0.829	0.2137730642972267	
8.765	0.479	0.21527540818986668	
8.77	-0.407	0.22384636344821343	
8.775	0.393	0.23470027791235665	
8.78	0.857	0.2422573453656933	
8.785	-0.326	0.24522452381876886	
8.79	-0.098	0.241864251307481	
8.795	1.037	0.23507446064402068	
8.8	-0.079	0.23021318384139497	
8.805	-0.354	0.22187322036901552	
8.81	0.812	0.21576687557049956	
8.815	0.421	0.21500920716539565	
8.82	-0.432	0.2160216905913383	
8.825	0.408	0.22085087929206118	
8.83	0.905	0.22899312449771855	
8.835	-0.316	0.24126505846562968	
8.84	-0.104	0.24610469210499938	
8.845	0.992	0.23985556577440378	
8.85	-0.105	0.23010356431547332	
8.855	-0.367	0.21417142135705738	
8.86	0.782	0.20168000909680833	
8.865	0.366	0.19375961577464285	
8.87	-0.444	0.18927944382749223	
8.875	0.418	0.1919417841925704	
8.88	0.904	0.20467707353099052	
8.885	-0.313	0.22438962660353265	
8.89	-0.076	0.238347379649919	
8.895	1.038	0.24156509610940108	
8.9	-0.089	0.24204971312417342	
8.905	-0.361	0.2345053664825764	
8.91	0.782	0.22150017175177963	
8.915	0.369	0.21152256161041683	
8.92	-0.454	0.20262772949956653	
8.925	0.328	0.19495224989143414	
8.93	0.756	0.18628242703723963	
8.935	-0.401	0.17862545632782256	
8.94	-0.168	0.16661336176324465	
8.945	0.867	0.15015501990902713	
8.95	-0.221	0.13304204642511142	
8.955	-0.462	0.11094035273587757	
8.96	0.607	0.09023649250701518	
8.965	0.186	0.07224815916379762	
8.97	-0.547	0.05607185623457364	
8.975	0.139	0.04495275811996449	
8.98	0.553	0.03183407139741061	
8.985	-0.447	0.020906844130724855	
8.99	-0.104	0.025910129786195037	
8.995	1.226	0.0637496812952627	
9.0	0.297	0.14907794468820537	
9.005	-0.046	0.2593747700121117	
9.01	1.290	0.3689228719682342	
9.015	0.585	0.46397035755835125	
9.02	-0.499	0.5024956667236333	
9.025	-0.060	0.44981655784273283	
9.03	0.079	0.30231049759753525	
9.035	-0.721	0.11130883993735716	
9.04	-0.457	-0.052766146388024994	
9.045	0.363	-0.16983403653264273	
9.05	-0.403	-0.2439105510745742	
9.055	-0.573	-0.2690223836030391	
9.06	0.395	-0.25136596493783436	
9.065	-0.021	-0.22140295267889237	
9.07	-0.611	-0.18995834703203507	
9.075	0.073	-0.15197735518980549	
9.08	0.472	-0.11815459674918258	
9.085	-0.509	-0.08959535094887275	
9.09	-0.247	-0.061439386981404706	
9.095	0.689	-0.03916580463475701	
9.1	-0.284	-0.023112186515502453	
9.105	-0.486	-0.013686935793373635	
9.11	0.549	-0.0064197637937820975	
9.115	0.113	-0.002713790562393567	
9.12	-0.534	-0.000737868027556515	
9.125	0.236	0.009200968234647609	
9.13	0.637	0.02454691817943706	
9.135	-0.435	0.044417116414206294	
9.14	-0.185	0.06084105947396844	
9.145	0.829	0.07065140585534156	
9.15	-0.200	0.07972978480194759	
9.155	-0.386	0.08559817242529551	
9.16	0.745	0.09556808992309103	
9.165	0.296	0.11202589339495521	
9.17	-0.439	0.13044812779183493	
9.175	0.468	0.15133282382851848	
9.18	0.870	0.18227218866505784	
9.185	-0.305	0.21947850654883458	
9.19	0.008	0.24406957196691026	
9.195	1.050	0.2574094786465329	
9.2	-0.096	0.26766282039425227	
9.205	-0.310	0.26389345055887614	
9.21	0.857	0.25139678619568157	
9.215	0.323	0.24382142805904541	
9.22	-0.447	0.23379075185743128	
9.225	0.332	0.21529173907535937	
9.23	0.599	0.18988818530227175	
9.235	-0.471	0.15877586110306596	
9.24	-0.226	0.12329260235563905	
9.245	0.620	0.07894806576570945	
9.25	-0.377	0.03173143472271816	
9.255	-0.579	-0.01564885565327582	
9.26	0.320	-0.060946821954153255	
9.265	-0.146	-0.1104414253030446	
9.27	-0.700	-0.15469997372749747	
9.275	-0.099	-0.1837150164631978	
9.28	0.203	-0.21158564454293166	
9.285	-0.636	-0.23193662493019726	
9.29	-0.375	-0.23137601442364927	
9.295	0.380	-0.2254769265776879	
9.3	-0.448	-0.22436301883844298	
9.305	-0.595	-0.21820152172850943	
9.31	0.294	-0.2060685908095804	
9.315	-0.165	-0.20480846648085185	
9.32	-0.685	-0.20843406053316138	
9.325	-0.041	-0.20450041822809745	
9.33	0.285	-0.20293748810562662	
9.335	-0.604	-0.19799315286138588	
9.34	-0.322	-0.18202064032752419	
9.345	0.486	-0.16759164680178268	
9.35	-0.410	-0.15766906904214334	
9.355	-0.558	-0.14894511674089694	
9.36	0.401	-0.13888673761764037	
9.365	-0.098	-0.1361628116955701	
9.37	-0.628	-0.13843782001401012	
9.375	0.075	-0.13212863774841543	
9.38	0.389	-0.12612798818783	
9.385	-0.538	-0.11427673396685267	
9.39	-0.226	-0.09566944191355382	
9.395	0.675	-0.07448851445540419	
9.4	-0.316	-0.05308347972086536	
9.405	-0.470	-0.03581855379259484	
9.41	0.538	-0.02354212562843555	
9.415	-0.014	-0.021499394289219338	
9.42	-0.570	-0.027599741241044348	
9.425	0.212	-0.027690907405525017	
9.43	0.524	-0.023215311321154536	
9.435	-0.483	-0.010665444408175871	
9.44	-0.175	0.004645149430453222	
9.445	0.739	0.015706297254636167	
9.45	-0.306	0.022472283360705086	
9.455	-0.453	0.024249869641851163	
9.46	0.604	0.02287173496674727	
9.465	0.056	0.01919097406942984	
9.47	-0.529	0.014181048718992478	
9.475	0.309	0.018762429418848033	
9.48	0.587	0.030731940963308075	
9.485	-0.454	0.04790678977887003	
9.49	-0.120	0.06395167237572749	
9.495	0.832	0.07394590336904072	
9.5	-0.255	0.0830234183381434	
9.505	-0.395	0.08728791381102277	
9.51	0.718	0.08829478098186869	
9.515	0.140	0.0898954945893077	
9.52	-0.499	0.08994584212264216	
9.525	0.372	0.09219114398949609	
9.53	0.633	0.09868653438911432	
9.535	-0.428	0.1095135767793091	
9.54	-0.108	0.11624339815865987	
9.545	0.846	0.1141398694482877	
9.55	-0.246	0.11261327496092423	
9.555	-0.380	0.10836774860808061	
9.56	0.738	0.10465091712799048	
9.565	0.133	0.10158772736535066	
9.57	-0.492	0.09879507714353578	
9.575	0.398	0.09959558416001485	
9.58	0.640	0.10657648746084245	
9.585	-0.432	0.11718486071569317	
9.59	-0.073	0.12556505239619126	
9.595	0.875	0.12626098991618462	
9.6	-0.242	0.12721755791147527	
9.605	-0.361	0.12550006090424976	
9.61	0.771	0.12295702611136032	
9.615	0.154	0.12226075290647051	
9.62	-0.476	0.12070216907095464	
9.625	0.415	0.12197677324807639	
9.63	0.639	0.12641907408752454	
9.635	-0.432	0.13290500453033313	
9.64	-0.067	0.136901297394388	
9.645	0.892	0.13532536591688463	
9.65	-0.232	0.13484513351370042	
9.655	-0.334	0.13467798128301622	
9.66	0.841	0.13721860310183595	
9.665	0.192	0.14492279646135792	
9.67	-0.435	0.15266026688194737	
9.675	0.555	0.16533944774395076	
9.68	0.794	0.18823876784829843	
9.685	-0.326	0.2186751853070354	
9.69	0.178	0.2472268780606458	
9.695	1.175	0.27734421360381556	
9.7	-0.085	0.31052733478868677	
9.705	-0.206	0.32684726427255717	
9.71	1.049	0.33037017195278534	
9.715	0.375	0.33665623434491093	
9.72	-0.351	0.3387130135745693	
9.725	0.687	0.33653270350671116	
9.73	0.835	0.33802336187639703	
9.735	-0.320	0.34065415785682884	
9.74	0.184	0.3364503431786808	
9.745	1.134	0.33117238095807505	
9.75	-0.128	0.332442178741308	
9.755	-0.235	0.32311709305936276	
9.76	0.992	0.30624942521519705	
9.765	0.293	0.29646068545386783	
9.77	-0.398	0.2860112075195034	
9.775	0.581	0.2745237992078176	
9.78	0.724	0.2646943941638083	
9.785	-0.377	0.2589110083043251	
9.79	0.187	0.2546412573936125	
9.795	1.335	0.27178168498163396	
9.8	0.276	0.3325711353524366	
9.805	0.287	0.42253024585279847	
9.81	1.573	0.5288623872095207	
9.815	0.594	0.6312619070229207	
9.82	-0.409	0.6684773261333761	
9.825	0.213	0.6052498845700856	
9.83	0.001	0.44119414714881855	
9.835	-0.810	0.22444778707897453	
9.84	-0.479	0.017837023475517414	
9.845	0.094	-0.15987824087896874	
9.85	-0.604	-0.3002256106272715	
9.855	-0.619	-0.3718938219726377	
9.86	0.261	-0.38459980294646157	
9.865	-0.259	-0.37397989149028876	
9.87	-0.710	-0.3488634220320864	
9.875	0.012	-0.3076943136029772	
9.88	0.165	-0.2772863246303501	
9.885	-0.639	-0.2513237146026058	
9.89	-0.256	-0.2168465299038192	
9.895	0.527	-0.18626350947478992	
9.9	-0.441	-0.15941208324721173	
9.905	-0.492	-0.13454863583071866	
9.91	0.480	-0.11466585759124437	
9.915	-0.145	-0.10733623110123915	
9.92	-0.598	-0.10465875418580922	
9.925	0.247	-0.09544470183180609	
9.93	0.369	-0.08259935265849486	
9.935	-0.550	-0.06740225825382531	
9.94	-0.151	-0.04949512015013059	
9.945	0.671	-0.03738010211953695	
9.95	-0.370	-0.026702114942512314	
9.955	-0.407	-0.016263855496633867	
9.96	0.698	-0.004522387784750312	
9.965	-0.029	0.008310799371933525	
9.97	-0.506	0.016406897546627747	
9.975	0.498	0.03286790453290842	
9.98	0.636	0.06416528267194158	
9.985	-0.398	0.10444635821993345	
9.99	0.120	0.14282018209758582	
9.995	1.017	0.17656765458201762	
10.0	-0.188	0.21103377862308678	
10.005	-0.235	0.23093995476282667	
10.01	0.974	0.23856448229047933	
10.015	0.198	0.248056439965584	
10.02	-0.409	0.2485104326636227	
10.025	0.599	0.24301274768816966	
10.03	0.594	0.23591840957307889	
10.035	-0.465	0.2244731141503209	
10.04	-0.061	0.19803709249922358	
10.045	0.742	0.15734759560809053	
10.05	-0.370	0.11697057601373606	
10.055	-0.427	0.07925407552832482	
10.06	0.544	0.03942550824618115	
10.065	-0.174	-0.003189323722200664	
10.07	-0.613	-0.04416843432062151	
10.075	0.206	-0.07190569062327404	
10.08	0.239	-0.09344843194379353	
10.085	-0.598	-0.10837372300409104	
10.09	-0.185	-0.1096427202234557	
10.095	0.558	-0.10695572641728862	
10.1	-0.448	-0.10417560756376171	
10.105	-0.464	-0.09637178046844128	
10.11	0.500	-0.09062951443223116	
10.115	-0.198	-0.09453283605369958	
10.12	-0.617	-0.10294862222758575	
10.125	0.215	-0.1056916845568377	
10.13	0.241	-0.10778341286672072	
10.135	-0.582	-0.10942212175567737	
10.14	-0.157	-0.10028982119023158	
10.145	0.569	-0.09209321451003867	
10.15	-0.451	-0.08646659317471848	
10.155	-0.467	-0.08008672781348311	
10.16	0.501	-0.07848544404052876	
10.165	-0.186	-0.08690268908741342	
10.17	-0.614	-0.09689650884365517	
10.175	0.244	-0.09832997377629522	
10.18	0.255	-0.10003385830018258	
10.185	-0.592	-0.0986650812391957	
10.19	-0.175	-0.09189320410420022	
10.195	0.537	-0.09006885990962149	
10.2	-0.450	-0.09190496828885883	
10.205	-0.424	-0.0868502188753549	
10.21	0.645	-0.07413698241184716	
10.215	-0.073	-0.05833568904039914	
10.22	-0.468	-0.03700008708182138	
10.225	0.604	0.001197404378957575	
10.23	0.663	0.05879058463100099	
10.235	-0.377	0.1239081922752282	
10.24	0.274	0.18151959910975574	
10.245	1.111	0.23510676730686378	
10.25	-0.154	0.28658829121773954	
10.255	-0.139	0.31424793314183036	
10.26	1.113	0.3262366740353163	
10.265	0.270	0.33934102899932217	
10.27	-0.328	0.3458559825174389	
10.275	0.825	0.3455360438063617	
10.28	0.770	0.3516692205494196	
10.285	-0.328	0.3596982421799854	
10.29	0.319	0.3587682111055652	
10.295	1.064	0.35410279152156465	
10.3	-0.224	0.34838206992586757	
10.305	-0.212	0.3264248069193608	
10.31	0.991	0.29528799144615636	
10.315	0.111	0.2711412840992078	
10.32	-0.409	0.24799374663607437	
10.325	0.630	0.22663054121297746	
10.33	0.581	0.21444705899045427	
10.335	-0.410	0.20879569535896386	
10.34	0.189	0.20594582962496882	
10.345	0.980	0.20886842073537631	
10.35	-0.258	0.21938933101275052	
10.355	-0.236	0.22069050594938608	
10.36	0.915	0.21207603259282715	
10.365	0.035	0.2039948883177357	
10.37	-0.438	0.1883219323300273	
10.375	0.572	0.17354566517441605	
10.38	0.483	0.16314817907483303	
10.385	-0.485	0.15309156494268472	
10.39	0.004	0.1380440970248362	
10.395	0.750	0.11546186769364139	
10.4	-0.357	0.09755408545920559	
10.405	-0.335	0.08303145008522964	
10.41	0.687	0.06769742400106765	
10.415	-0.134	0.048880127067429134	
10.42	-0.543	0.027785739919515558	
10.425	0.364	0.011383045579275027	
10.43	0.239	-0.006227897632028707	
10.435	-0.581	-0.02352207222882221	
10.44	-0.116	-0.03579614897645636	
10.445	0.633	-0.045999189449468	
10.45	-0.357	-0.04432206225007359	
10.455	-0.185	-0.021566052768187505	
10.46	1.235	0.03939564132356368	
10.465	0.390	0.14574519120055715	
10.47	-0.284	0.25318839366699797	
10.475	0.686	0.3211886133090649	
10.48	0.233	0.330381166408004	
10.485	-0.752	0.2708359523513288	
10.49	-0.410	0.15327464334310945	
10.495	-0.027	-0.009501249356078018	
10.5	-0.723	-0.18009682421484316	
10.505	-0.642	-0.3021525919733662	
10.51	0.137	-0.3710525953580378	
10.515	-0.409	-0.41242294351642095	
10.52	-0.764	-0.41925988312327456	
10.525	-0.040	-0.399838971927858	
10.53	-0.110	-0.38602752151498865	
10.535	-0.764	-0.3768737560356042	
10.54	-0.306	-0.3523767602703939	
10.545	0.224	-0.33284291194393023	
10.55	-0.611	-0.32030221084941374	
10.555	-0.564	-0.3008057554202869	
10.56	0.261	-0.28305390467367925	
10.565	-0.361	-0.27984300208444735	
10.57	-0.700	-0.2771327892663348	
10.575	0.122	-0.2624655945991735	
10.58	0.049	-0.25333401873540595	
10.585	-0.656	-0.2421286445695653	
10.59	-0.174	-0.21891016814894337	
10.595	0.477	-0.19480119016045627	
10.6	-0.491	-0.1718295749983709	
10.605	-0.404	-0.1425584289040478	
10.61	0.619	-0.11361573100685682	
10.615	-0.178	-0.08835072393245003	
10.62	-0.518	-0.06630710461874073	
10.625	0.511	-0.03883078050032459	
10.63	0.402	-0.0035164397544477487	
10.635	-0.491	0.03132537974043308	
10.64	0.192	0.06558459630774291	
10.645	0.951	0.10445469377563997	
10.65	-0.259	0.15153704973241447	
10.655	-0.149	0.18755436475307138	
10.66	1.061	0.21490917646012903	
10.665	0.091	0.24222878138132586	
10.67	-0.374	0.2564455031390958	
10.675	0.742	0.2586818841321369	
10.68	0.572	0.260381579762358	
10.685	-0.435	0.2599211672734457	
10.69	0.168	0.2469174315193928	
10.695	0.796	0.2225784570765036	
10.7	-0.377	0.19413741089956493	
10.705	-0.302	0.1617132731998443	
10.71	0.729	0.12518519460524913	
10.715	-0.194	0.08589261002200185	
10.72	-0.549	0.04741964626377772	
10.725	0.431	0.018060145087805436	
10.73	0.303	-0.0008185779099930748	
10.735	-0.544	-0.007307332584350979	
10.74	0.029	-0.0017011041204822073	
10.745	0.727	0.0065972570890609344	
10.75	-0.387	0.02075000999278917	
10.755	-0.284	0.038945776489884655	
10.76	0.828	0.055443941029011796	
10.765	-0.110	0.06849102240406253	
10.77	-0.464	0.07539386451122304	
10.775	0.605	0.08347397859239086	
10.78	0.439	0.096941366474549	
10.785	-0.465	0.1124089510482594	
10.79	0.175	0.12769797435899333	
10.795	0.849	0.1386211887637514	
10.8	-0.326	0.15133050542196202	
10.805	-0.201	0.16017492025766583	
10.81	0.947	0.16470907167743348	
10.815	-0.041	0.16910239344489644	
10.82	-0.409	0.1683839492972874	
10.825	0.706	0.16886039817567744	
10.83	0.535	0.17770658446563956	
10.835	-0.409	0.1921891036061284	
10.84	0.335	0.21007490299355402	
10.845	0.962	0.22959933147895786	
10.85	-0.282	0.24897971102224523	
10.855	-0.154	0.2554076699624451	
10.86	1.020	0.2508806275124733	
10.865	-0.020	0.24476787316528617	
10.87	-0.378	0.2314404056134593	
10.875	0.799	0.22314083063303305	
10.88	0.569	0.22747711522185368	
10.885	-0.407	0.2390833244362094	
10.89	0.306	0.2473499319114697	
10.895	0.915	0.24949517738232238	
10.9	-0.320	0.24978989014717928	
10.905	-0.185	0.2396476675082462	
10.91	0.985	0.22289741013522293	
10.915	-0.020	0.2115322032396451	
10.92	-0.389	0.20061052687907682	
10.925	0.729	0.19325172918125494	
10.93	0.482	0.194209739525678	
10.935	-0.432	0.1971598605123237	
10.94	0.280	0.20157506329866726	
10.945	0.901	0.20626478386182115	
10.95	-0.306	0.21373313903057917	
10.955	-0.160	0.21593235553718848	
10.96	0.989	0.2127563431576191	
10.965	-0.055	0.20933097039340148	
10.97	-0.387	0.19988384160819572	
10.975	0.762	0.19426483072715955	
10.98	0.497	0.19892840332695713	
10.985	-0.427	0.2073456855690891	
10.99	0.338	0.21572993644350308	
10.995	0.921	0.224964719825383	
11.0	-0.306	0.23678624849916108	
11.005	-0.180	0.23719831777906064	
11.01	0.937	0.2234961684860709	
11.015	-0.107	0.2062268657157444	
11.02	-0.451	0.180232538548861	
11.025	0.593	0.15312392534127228	
11.03	0.311	0.127639859954533	
11.035	-0.528	0.105688867587167	
11.04	0.130	0.08981556077715996	
11.045	0.701	0.07655258914316146	
11.05	-0.421	0.06996961639838192	
11.055	-0.268	0.06652851847607735	
11.06	0.770	0.06212080842132653	
11.065	-0.195	0.055131098342554974	
11.07	-0.512	0.04467361275940182	
11.075	0.485	0.03395280971897157	
11.08	0.186	0.0202968515197525	
11.085	-0.531	0.00806075757196688	
11.09	0.270	0.014947556557265141	
11.095	1.140	0.05915666347844153	
11.1	0.014	0.15215095599371717	
11.105	0.466	0.2768580720258821	
11.11	1.570	0.4197558456817665	
11.115	0.245	0.5480231669570598	
11.12	-0.395	0.5970079080365798	
11.125	0.384	0.5386508502060886	
11.13	-0.137	0.3899995314667855	
11.135	-0.770	0.19852023745822875	
11.14	-0.207	0.02194892298119729	
11.145	0.294	-0.11932404756485804	
11.15	-0.575	-0.21153662424327976	
11.155	-0.406	-0.24381781790483686	
11.16	0.448	-0.24272511976000835	
11.165	-0.351	-0.23197796405666066	
11.17	-0.617	-0.2144100928002901	
11.175	0.290	-0.19048910710822461	
11.18	-0.029	-0.17834425624576625	
11.185	-0.671	-0.17513885799790185	
11.19	-0.117	-0.16892984423937416	
11.195	0.367	-0.16975287127271985	
11.2	-0.572	-0.1715176862026882	
11.205	-0.399	-0.163500639040851	
11.21	0.500	-0.1539333300546945	
11.215	-0.357	-0.15119936663372335	
11.22	-0.625	-0.15012383747832844	
11.225	0.293	-0.14741307265519465	
11.23	-0.008	-0.1536531141373937	
11.235	-0.630	-0.159060055897383	
11.24	-0.018	-0.15063901554397635	
11.245	0.489	-0.13695114586712082	
11.25	-0.492	-0.11871348948571572	
11.255	-0.284	-0.09120212396323309	
11.26	0.727	-0.06187698596957708	
11.265	-0.233	-0.03353396639318272	
11.27	-0.486	-0.013011909237932037	
11.275	0.642	0.00786976805792448	
11.28	0.338	0.03709638587137356	
11.285	-0.460	0.0688066441925011	
11.29	0.354	0.10367069578264465	
11.295	0.861	0.1409881076440614	
11.3	-0.352	0.17801826692354888	
11.305	-0.148	0.19698528409568805	
11.31	0.933	0.1972166192426309	
11.315	-0.140	0.1922244687041429	
11.32	-0.428	0.1760683373741989	
11.325	0.610	0.15202392899078276	
11.33	0.177	0.12388779761525848	
11.335	-0.575	0.09079958753825229	
11.34	0.047	0.05687455748851535	
11.345	0.498	0.018834885200143293	
11.35	-0.550	-0.015073170917009748	
11.355	-0.372	-0.04075344533843299	
11.36	0.503	-0.0688305645674846	
11.365	-0.367	-0.09901198214604767	
11.37	-0.598	-0.12171780729175564	
11.375	0.319	-0.1338219823731261	
11.38	-0.046	-0.14841609716500503	
11.385	-0.663	-0.16219257768631962	
11.39	-0.053	-0.16278875730798253	
11.395	0.421	-0.16133892734390104	
11.4	-0.532	-0.1533376871332699	
11.405	-0.319	-0.13242097675760883	
11.41	0.610	-0.10971750998254333	
11.415	-0.306	-0.09243326229520393	
11.42	-0.534	-0.07962702755299755	
11.425	0.503	-0.064437930851288	
11.43	0.101	-0.052728385659261384	
11.435	-0.575	-0.044426539972419354	
11.44	0.175	-0.030337822107533895	
11.445	0.651	-0.010352038697832504	
11.45	-0.450	0.01320324875246426	
11.455	-0.220	0.03583851356438187	
11.46	0.823	0.050580655725631786	
11.465	-0.207	0.06213004821449721	
11.47	-0.436	0.06833482815419215	
11.475	0.666	0.07401897384130623	
11.48	0.251	0.0810374830413702	
11.485	-0.503	0.08726759708263346	
11.49	0.287	0.09607807831291565	
11.495	0.747	0.10668713834900632	
11.5	-0.399	0.12076499963823976	
11.505	-0.145	0.13207260869694212	
11.51	0.927	0.13686847701015936	
11.515	-0.174	0.14172331620218886	
11.52	-0.404	0.13930677190312651	
11.525	0.745	0.13743306923295545	
11.53	0.294	0.13880947886953923	
11.535	-0.477	0.1400099151954422	
11.54	0.375	0.14546064594593283	
11.545	0.802	0.1567036290105757	
11.55	-0.387	0.1713893813747726	
11.555	-0.140	0.17828135198045503	
11.56	0.939	0.1740877493959993	
11.565	-0.172	0.16738632966481926	
11.57	-0.416	0.15631188348709196	
11.575	0.756	0.1457528253824708	
11.58	0.337	0.1436072363990892	
11.585	-0.451	0.14784557090418493	
11.59	0.401	0.15976661594623726	
11.595	0.820	0.17565858073160184	
11.6	-0.375	0.1921185904035941	
11.605	-0.114	0.1995007709505282	
11.61	0.966	0.1962062887181133	
11.615	-0.142	0.19009615833565738	
11.62	-0.351	0.18339129984338223	
11.625	0.866	0.18199178754724282	
11.63	0.404	0.19338034112911923	
11.635	-0.425	0.20875984452045426	
11.64	0.488	0.22403014494189114	
11.645	0.919	0.24256007757743087	
11.65	-0.316	0.2649396293886077	
11.655	-0.041	0.2747188972720328	
11.66	1.050	0.27221587396766334	
11.665	-0.102	0.2658767939174691	
11.67	-0.345	0.2525390336160973	
11.675	0.840	0.23607974335663257	
11.68	0.343	0.2251511520318688	
11.685	-0.460	0.21484440077327868	
11.69	0.354	0.2052020369950805	
11.695	0.692	0.18933036395827854	
11.7	-0.438	0.17191549708774717	
11.705	-0.180	0.15198881005422088	
11.71	0.802	0.126072591072201	
11.715	-0.259	0.0996962481883513	
11.72	-0.457	0.07581625754691429	
11.725	0.623	0.05910657735407396	
11.73	0.116	0.04485076242759191	
11.735	-0.560	0.030993529589753488	
11.74	0.203	0.026427869492392096	
11.745	0.538	0.021062650418279566	
11.75	-0.515	0.01484446706594222	
11.755	-0.215	0.014300830179369114	
11.76	0.895	0.019990106288848973	
11.765	-0.089	0.04346073756258158	
11.77	-0.124	0.09105865746305421	
11.775	1.503	0.18525755302454383	
11.78	0.948	0.3366136225337444	
11.785	-0.246	0.48400560415549404	
11.79	0.540	0.5565110607306044	
11.795	0.521	0.5358113649267762	
11.8	-0.646	0.4358360216210153	
11.805	-0.425	0.2884963737321553	
11.81	0.384	0.12278942275261567	
11.815	-0.419	-0.02960063911648053	
11.82	-0.549	-0.12862495263363138	
11.825	0.480	-0.16786845450979804	
11.83	0.003	-0.17467721114122434	
11.835	-0.567	-0.15967482255888232	
11.84	0.253	-0.11922624841916821	
11.845	0.604	-0.06946417022905788	
11.85	-0.460	-0.019172896877166917	
11.855	-0.163	0.023817883997432225	
11.86	0.857	0.05465523492104939	
11.865	-0.221	0.07711637553891854	
11.87	-0.395	0.0915586414500676	
11.875	0.751	0.10321856671852511	
11.88	0.230	0.1140448304801592	
11.885	-0.473	0.12236600645839281	
11.89	0.462	0.1359934367744899	
11.895	0.799	0.15835922104240158	
11.9	-0.387	0.18373103148398232	
11.905	-0.063	0.19804555022194975	
11.91	0.950	0.19959570083833655	
11.915	-0.183	0.19494025703991757	
11.92	-0.355	0.1847389311863981	
11.925	0.841	0.17627263640632418	
11.93	0.323	0.17784788678848534	
11.935	-0.415	0.18546830487160645	
11.94	0.593	0.20312127545977776	
11.945	0.937	0.23517026586534293	
11.95	-0.291	0.2757518824269709	
11.955	0.120	0.3042250117801426	
11.96	1.186	0.3244377606416299	
11.965	-0.050	0.3428834342452206	
11.97	-0.253	0.34494521007825096	
11.975	1.009	0.33613930439024575	
11.98	0.395	0.33070734008505465	
11.985	-0.412	0.32272736728072715	
11.99	0.517	0.30605230870894856	
11.995	0.727	0.2858823457190461	
12.0	-0.445	0.2620264744374269	
12.005	-0.160	0.22435410817111542	
12.01	0.758	0.1730282083406312	
12.015	-0.332	0.1200184139076442	
12.02	-0.509	0.0703340448710758	
12.025	0.474	0.023767123542988402	
12.03	-0.108	-0.025474987428112637	
12.035	-0.669	-0.07176905584366325	
12.04	0.044	-0.10403732145772002	
12.045	0.317	-0.13054937504066927	
12.05	-0.610	-0.14761283694141958	
12.055	-0.300	-0.14739037410807407	
12.06	0.530	-0.1424309420470407	
12.065	-0.413	-0.14097154569869708	
12.07	-0.558	-0.13524570628627466	
12.075	0.415	-0.12746520964508612	
12.08	-0.105	-0.12975055546596898	
12.085	-0.643	-0.13542642961794654	
12.09	0.091	-0.13096116198178914	
12.095	0.387	-0.12590571846787024	
12.1	-0.572	-0.11752180768124697	
12.105	-0.256	-0.10111720010289733	
12.11	0.645	-0.08665206595478336	
12.115	-0.363	-0.07512687236269085	
12.12	-0.505	-0.0639657537969597	
12.125	0.491	-0.05645534475830296	
12.13	-0.098	-0.06303628636437195	
12.135	-0.625	-0.07630429991688152	
12.14	0.166	-0.08173643119690466	
12.145	0.431	-0.08113352355804893	
12.15	-0.538	-0.07462973726319239	
12.155	-0.210	-0.05882936148232641	
12.16	0.691	-0.045689569134966634	
12.165	-0.346	-0.03440401632043842	
12.17	-0.483	-0.026783540024274258	
12.175	0.587	-0.020264838622926003	
12.18	-0.003	-0.020316517567737474	
12.185	-0.570	-0.022337746891070716	
12.19	0.264	-0.018430417327849075	
12.195	0.530	-0.00927611587984564	
12.2	-0.505	0.004134110970950243	
12.205	-0.160	0.0184450619567534	
12.21	0.785	0.027383083255335047	
12.215	-0.294	0.035274153001211735	
12.22	-0.403	0.04334086375026526	
12.225	0.701	0.05099281491281709	
12.23	0.038	0.054401279993141816	
12.235	-0.534	0.05156646555249063	
12.24	0.354	0.050907448404144094	
12.245	0.598	0.057616050737779013	
12.25	-0.462	0.06986496900005963	
12.255	-0.116	0.08171610663550562	
12.26	0.840	0.08548058783306692	
12.265	-0.279	0.08794162671883676	
12.27	-0.398	0.08744746979614858	
12.275	0.738	0.08625482431156924	
12.28	0.107	0.08513762004226183	
12.285	-0.509	0.08348290935447034	
12.29	0.427	0.0872270097702256	
12.295	0.654	0.09949711669066225	
12.3	-0.428	0.11662253097573046	
12.305	-0.046	0.1309850852136773	
12.31	0.931	0.13954995289618416	
12.315	-0.239	0.1476367935120744	
12.32	-0.357	0.14856874468277265	
12.325	0.815	0.14646651725058574	
12.33	0.165	0.14488618978791593	
12.335	-0.491	0.14144164288563998	
12.34	0.456	0.14048892391171147	
12.345	0.660	0.14335906319569816	
12.35	-0.436	0.1494579752094075	
12.355	-0.056	0.1522264306396865	
12.36	0.904	0.14754797284521276	
12.365	-0.247	0.14440398941283122	
12.37	-0.354	0.13973536603531966	
12.375	0.799	0.13459183154484697	
12.38	0.105	0.12963443215056725	
12.385	-0.496	0.12148173659469697	
12.39	0.457	0.11871742505190336	
12.395	0.636	0.12217376850081743	
12.4	-0.453	0.13035400262523295	
12.405	-0.069	0.13447838170056606	
12.41	0.867	0.13048411943346583	
12.415	-0.296	0.12419076028749916	
12.42	-0.389	0.11393292717281975	
12.425	0.729	0.10267338762256299	
12.43	0.032	0.08838383203982499	
12.435	-0.529	0.07256103027305431	
12.44	0.389	0.06492082983681421	
12.445	0.575	0.06497028566046714	
12.45	-0.468	0.0732827621777614	
12.455	-0.078	0.08373497331648157	
12.46	0.861	0.08940378777386757	
12.465	-0.271	0.09498529510472624	
12.47	-0.357	0.10114446771317435	
12.475	0.829	0.1077566167644757	
12.48	0.117	0.11612345798704181	
12.485	-0.476	0.12163819300285221	
12.49	0.498	0.12912722518682718	
12.495	0.652	0.14175389317476908	
12.5	-0.430	0.15520508844541864	
12.505	-0.006	0.16399020690900518	
12.51	0.939	0.1653109613056921	
12.515	-0.259	0.16679270791885842	
12.52	-0.343	0.16235724401010954	
12.525	0.808	0.15379474630766307	
12.53	0.041	0.14087888538092175	
12.535	-0.540	0.12075837267361167	
12.54	0.361	0.10028440304679383	
12.545	0.511	0.08152524872954549	
12.55	-0.514	0.06820483587223096	
12.555	-0.122	0.06023630773206555	
12.56	0.790	0.05016244515603066	
12.565	-0.340	0.044643855764856175	
12.57	-0.441	0.04161332447293911	
12.575	0.593	0.031788557391918805	
12.58	-0.104	0.010605182239466354	
12.585	-0.590	-0.01507004242390673	
12.59	0.380	-0.023508354158967616	
12.595	0.715	-0.005733503387523434	
12.6	-0.277	0.046186751380690214	
12.605	0.581	0.1375618262667249	
12.61	1.566	0.27405810439159706	
12.615	0.087	0.423413724144714	
12.62	-0.210	0.5117623758486776	
12.625	0.713	0.50675323265802	
12.63	-0.244	0.41537483807264636	
12.635	-0.794	0.26405630002083413	
12.64	-0.093	0.09456018277289013	
12.645	0.072	-0.0709457777158628	
12.65	-0.653	-0.19571229815562663	
12.655	-0.233	-0.24724394535273178	
12.66	0.622	-0.24714892684719256	
12.665	-0.393	-0.21564098892899283	
12.67	-0.427	-0.1638945725463164	
12.675	0.680	-0.10720291501315281	
12.68	-0.050	-0.05887039075153057	
12.685	-0.538	-0.02581907939670709	
12.69	0.424	0.005774781709801838	
12.695	0.558	0.036824041568072424	
12.7	-0.468	0.06611783021127332	
12.705	-0.034	0.09095929065795127	
12.71	0.863	0.1038161672886003	
12.715	-0.310	0.11212031847693861	
12.72	-0.349	0.11424231393455167	
12.725	0.812	0.11294037955605879	
12.73	0.056	0.11192228625612137	
12.735	-0.483	0.10918755753583746	
12.74	0.532	0.11198864155946574	
12.745	0.655	0.12669636477388563	
12.75	-0.412	0.14800511333064362	
12.755	0.108	0.17016579736376375	
12.76	1.050	0.19080241705476497	
12.765	-0.186	0.2169482629295126	
12.77	-0.215	0.23537388590810435	
12.775	1.079	0.25000460051896134	
12.78	0.328	0.27376240930948004	
12.785	-0.323	0.29826115591935254	
12.79	0.886	0.32407695840643236	
12.795	0.971	0.3645420909699172	
12.8	-0.264	0.4080520816780671	
12.805	0.367	0.4322682405714112	
12.81	1.219	0.44461276553834633	
12.815	-0.111	0.45098321066508323	
12.82	-0.175	0.43255907224326795	
12.825	1.067	0.39876793689238965	
12.83	0.224	0.36871524569946623	
12.835	-0.418	0.33459250356199455	
12.84	0.573	0.29586640660022445	
12.845	0.559	0.2582782600732657	
12.85	-0.505	0.2194805805557303	
12.855	-0.102	0.17528791106297492	
12.86	0.675	0.1211295803941258	
12.865	-0.430	0.06829247933849726	
12.87	-0.479	0.022923067539662792	
12.875	0.460	-0.019752307030701008	
12.88	-0.217	-0.06634784047222514	
12.885	-0.683	-0.10983971123690472	
12.89	0.091	-0.13838016538809678	
12.895	0.151	-0.1671268001802639	
12.9	-0.653	-0.1880445623157521	
12.905	-0.241	-0.18855520253881622	
12.91	0.463	-0.18337282545270045	
12.915	-0.514	-0.1795883800891595	
12.92	-0.526	-0.17068849341352138	
12.925	0.437	-0.16206237422457986	
12.93	-0.227	-0.16154700879612857	
12.935	-0.659	-0.163470916414432	
12.94	0.190	-0.15638774147682313	
12.945	0.233	-0.15045779051001995	
12.95	-0.610	-0.14288793051668158	
12.955	-0.177	-0.1263442841918229	
12.96	0.584	-0.11162604476638323	
12.965	-0.435	-0.09866690027136331	
12.97	-0.442	-0.08341654643542903	
12.975	0.598	-0.06811502309060247	
12.98	-0.153	-0.06078143044557486	
12.985	-0.598	-0.06031714440812297	
12.99	0.309	-0.05624023599213437	
12.995	0.364	-0.05067641001190191	
13.0	-0.553	-0.04192328857817865	
13.005	-0.098	-0.02811413521764749	
13.01	0.695	-0.018712337959791294	
13.015	-0.396	-0.008852898443553513	
13.02	-0.403	-0.001232860204850935	
13.025	0.684	0.003968285704554826	
13.03	-0.111	0.004988646270047206	
13.035	-0.567	-0.00026680568356029843	
13.04	0.372	-0.0030376517290960693	
13.045	0.407	-0.001845027120441272	
13.05	-0.537	0.003975484465353704	
13.055	-0.076	0.012114465518110287	
13.06	0.713	0.015247475386216177	
13.065	-0.395	0.017941224485841057	
13.07	-0.387	0.018934171146902063	
13.075	0.675	0.01807402533500133	
13.08	-0.133	0.012756122569615499	
13.085	-0.567	0.0007677781462264385	
13.09	0.357	-0.007824421639862147	
13.095	0.360	-0.012007445109422652	
13.1	-0.553	-0.01214067727005283	
13.105	-0.089	-0.008652642292733652	
13.11	0.707	-0.006770812276402929	
13.115	-0.399	-0.0012729031696928897	
13.12	-0.393	0.004083607150707035	
13.125	0.665	0.006194779944037375	
13.13	-0.130	0.0025313637584385117	
13.135	-0.547	-0.005214043110805536	
13.14	0.425	-0.004601508296353907	
13.145	0.404	0.0028455325608217614	
13.15	-0.541	0.013721446622215758	
13.155	-0.070	0.023570847988138962	
13.16	0.739	0.02522386885765636	
13.165	-0.374	0.028499195313748595	
13.17	-0.378	0.03323073635610942	
13.175	0.658	0.03233769290894314	
13.18	-0.127	0.022284812461667712	
13.185	-0.546	0.00778694216300193	
13.19	0.433	0.003658697753298514	
13.195	0.415	0.008689305069907186	
13.2	-0.528	0.018548045664466727	
13.205	-0.029	0.03084317368333296	
13.21	0.774	0.038244676472365804	
13.215	-0.369	0.048206237799041735	
13.22	-0.343	0.055381000274459205	
13.225	0.756	0.059546854528900545	
13.23	-0.067	0.06001603028769998	
13.235	-0.499	0.05674224797302783	
13.24	0.509	0.058947322879751116	
13.245	0.480	0.06855137116714655	
13.25	-0.486	0.08234613749605524	
13.255	0.029	0.09410181655271714	
13.26	0.828	0.09927664936886244	
13.265	-0.337	0.10492833467240059	
13.27	-0.311	0.10752451058834982	
13.275	0.815	0.10673029336818457	
13.28	-0.067	0.10275847873359012	
13.285	-0.499	0.09172153627692516	
13.29	0.544	0.08621014655242748	
13.295	0.518	0.09141083346684771	
13.3	-0.459	0.10518788874925454	
13.305	0.105	0.12134432095793855	
13.31	0.883	0.1332801207785147	
13.315	-0.303	0.14669256349801812	
13.32	-0.252	0.15466812173167183	
13.325	0.941	0.1598644711273835	
13.33	0.033	0.16754295178805956	
13.335	-0.444	0.16873895166113123	
13.34	0.643	0.16939328224942624	
13.345	0.567	0.17625935739308557	
13.35	-0.459	0.18310953380583422	
13.355	0.107	0.1845290708519926	
13.36	0.866	0.17721412495089095	
13.365	-0.329	0.1695639804746438	
13.37	-0.308	0.15782754757450224	
13.375	0.762	0.13786601568982465	
13.38	-0.119	0.1113678989033203	
13.385	-0.532	0.07986143517622385	
13.39	0.424	0.05549911464323064	
13.395	0.352	0.036066993869456686	
13.4	-0.541	0.02313036393456125	
13.405	-0.041	0.019734609006972464	
13.41	0.672	0.014084794045545253	
13.415	-0.422	0.008428784646221236	
13.42	-0.372	0.007043134467057011	
13.425	0.724	0.007903063236354053	
13.43	-0.063	0.011142768002402464	
13.435	-0.386	0.023962542446339875	
13.44	1.047	0.07571803206761527	
13.445	1.155	0.1919327870640204	
13.45	-0.146	0.338047048997137	
13.455	0.569	0.45585320345518476	
13.46	1.020	0.5199811948994911	
13.465	-0.413	0.5153046420901249	
13.47	-0.515	0.43211163691614896	
13.475	0.235	0.278820638640557	
13.48	-0.377	0.08907551933369631	
13.485	-0.709	-0.07284867006499328	
13.49	0.197	-0.1733018250266485	
13.495	0.190	-0.22427907571571049	
13.5	-0.587	-0.23180383504589167	
13.505	-0.078	-0.1989108600809307	
13.51	0.652	-0.15316905737315406	
13.515	-0.422	-0.10677620834388454	
13.52	-0.345	-0.059590060156679045	
13.525	0.765	-0.019117867500532834	
13.53	-0.114	0.011769210883542828	
13.535	-0.518	0.028169486841908446	
13.54	0.509	0.04291165662868476	
13.545	0.428	0.055513467256760644	
13.55	-0.489	0.07002262428640756	
13.555	0.125	0.08734559324179404	
13.56	0.878	0.10484244184083913	
13.565	-0.310	0.12596144029636153	
13.57	-0.242	0.14355246309006076	
13.575	0.927	0.1540542371457485	
13.58	-0.023	0.1605302586730754	
13.585	-0.444	0.15915825037883174	
13.59	0.665	0.15816007570158308	
13.595	0.561	0.1653772232230601	
13.6	-0.424	0.17887893112669612	
13.605	0.258	0.1945701668041188	
13.61	1.015	0.212832571158092	
13.615	-0.241	0.23675870799836365	
13.62	-0.153	0.2516936752498716	
13.625	1.113	0.2611430270730895	
13.63	0.175	0.2783540206804379	
13.635	-0.340	0.2912211095740517	
13.64	0.870	0.30126661476938993	
13.645	0.736	0.32022269313144425	
13.65	-0.363	0.33890644994415836	
13.655	0.337	0.3446825135563717	
13.66	1.030	0.3416651048598308	
13.665	-0.274	0.3347718373064549	
13.67	-0.232	0.31087197577719505	
13.675	0.889	0.26994936709525463	
13.68	-0.087	0.22527785694001273	
13.685	-0.499	0.175508148742772	
13.69	0.482	0.13114958355481476	
13.695	0.270	0.08998130475113678	
13.7	-0.584	0.051204413185945735	
13.705	-0.072	0.020767405342117125	
13.71	0.608	-0.008679900495051334	
13.715	-0.470	-0.03007875158914569	
13.72	-0.410	-0.03983229871839129	
13.725	0.570	-0.04834409502645119	
13.73	-0.236	-0.06384231304818153	
13.735	-0.595	-0.0781413814007483	
13.74	0.315	-0.0819160754365616	
13.745	0.171	-0.08932075985362546	
13.75	-0.608	-0.0945875235181303	
13.755	-0.084	-0.090045363881913	
13.76	0.541	-0.08696767119568663	
13.765	-0.477	-0.08413572868593508	
13.77	-0.363	-0.0745395316073165	
13.775	0.704	-0.05741340651915462	
13.78	-0.197	-0.04208307609606707	
13.785	-0.557	-0.03297445325533079	
13.79	0.447	-0.022774862009559797	
13.795	0.308	-0.013549354400541669	
13.8	-0.531	-0.0026113929116434245	
13.805	0.070	0.014185048323035819	
13.81	0.747	0.0309389057867074	
13.815	-0.398	0.04768815840550747	
13.82	-0.294	0.06163218027755471	
13.825	0.835	0.07064793835415828	
13.83	-0.114	0.07770898059326581	
13.835	-0.483	0.0780872496605495	
13.84	0.578	0.08039640642645426	
13.845	0.376	0.08429139098313226	
13.85	-0.508	0.08831349554893286	
13.855	0.143	0.0943794574805622	
13.86	0.851	0.10289645939844247	
13.865	-0.346	0.11753685677838074	
13.87	-0.252	0.12977007383130051	
13.875	0.881	0.13369944990355048	
13.88	-0.105	0.1325369438552384	
13.885	-0.474	0.1231469999487069	
13.89	0.614	0.11452347194604008	
13.895	0.412	0.11215392846536826	
13.9	-0.508	0.11329033169444946	
13.905	0.131	0.11352708592619776	
13.91	0.805	0.11280616001816939	
13.915	-0.361	0.11545055771715014	
13.92	-0.259	0.11892690516364574	
13.925	0.844	0.11668136893639319	
13.93	-0.127	0.11139301975717668	
13.935	-0.489	0.09926838428623197	
13.94	0.550	0.08858721310784379	
13.945	0.348	0.07998057118871496	
13.95	-0.524	0.07433854729021508	
13.955	0.090	0.07267987214883967	
13.96	0.753	0.07066270030185548	
13.965	-0.390	0.0733850748260692	
13.97	-0.276	0.078116962009292	
13.975	0.803	0.07963312176337137	
13.98	-0.157	0.07622860720631111	
13.985	-0.500	0.0674172698801658	
13.99	0.537	0.06066596327855834	
13.995	0.329	0.05678347651922523	
14.0	-0.532	0.05537666424621217	
14.005	0.088	0.05785572605693544	
14.01	0.739	0.05851729552392686	
14.015	-0.398	0.0642932986421734	
14.02	-0.259	0.07131981848359473	
14.025	0.834	0.07660518877021072	
14.03	-0.136	0.08104497105862409	
14.035	-0.471	0.079560818670865	
14.04	0.636	0.082763210039319	
14.045	0.419	0.09358563390994779	
14.05	-0.480	0.10840925805360717	
14.055	0.218	0.12402759259958074	
14.06	0.851	0.13837045580666707	
14.065	-0.346	0.1542174288526993	
14.07	-0.229	0.16150204620665737	
14.075	0.855	0.1565369729860019	
14.08	-0.157	0.14389865906004648	
14.085	-0.517	0.11872438730018715	
14.09	0.497	0.09178545538830232	
14.095	0.236	0.06238836361466627	
14.1	-0.566	0.03651749291691422	
14.105	0.047	0.021171350647414905	
14.11	0.654	0.010180854652454191	
14.115	-0.453	0.0061990151406102305	
14.12	-0.322	0.007720826502298887	
14.125	0.710	0.00844553887785428	
14.13	-0.224	0.004742630890850976	
14.135	-0.547	-0.0040919378728539535	
14.14	0.462	-0.008151397641258959	
14.145	0.216	-0.012820846679830647	
14.15	-0.540	-0.01543667434501301	
14.155	0.302	0.0033609717022998727	
14.16	1.207	0.06308892411406064	
14.165	0.000	0.16713337699975722	
14.17	0.276	0.28786157216617636	
14.175	1.421	0.40340652378072717	
14.18	0.082	0.4906074264191625	
14.185	-0.512	0.5009373611230838	
14.19	0.183	0.4157775752930587	
14.195	-0.171	0.25105642661497873	
14.2	-0.803	0.06170187187081073	
14.205	-0.229	-0.09357763595626953	
14.21	0.343	-0.2020898300491851	
14.215	-0.567	-0.26181197881611307	
14.22	-0.409	-0.2659415890929561	
14.225	0.562	-0.2396909885207491	
14.23	-0.294	-0.20548517279316203	
14.235	-0.604	-0.1708306756652747	
14.24	0.378	-0.1370829017316036	
14.245	0.184	-0.1111225218874273	
14.25	-0.598	-0.08934802296239525	
14.255	0.015	-0.06441339520999523	
14.26	0.627	-0.04618600704784889	
14.265	-0.464	-0.030030078733061776	
14.27	-0.308	-0.011802162459677966	
14.275	0.768	0.0024209125816257154	
14.28	-0.186	0.014279196016372113	
14.285	-0.496	0.021180112617355595	
14.29	0.598	0.032171349552516874	
14.295	0.360	0.04773360046991132	
14.3	-0.505	0.06648312532079587	
14.305	0.215	0.08683820207117475	
14.31	0.863	0.10784026620312023	
14.315	-0.339	0.13471157263472694	
14.32	-0.169	0.15632816421511775	
14.325	1.023	0.1715821667377217	
14.33	-0.018	0.19005612698578922	
14.335	-0.345	0.20217631866110786	
14.34	0.928	0.21938147388995136	
14.345	0.642	0.25361026778742535	
14.35	-0.355	0.29238974800671363	
14.355	0.532	0.3219958089854117	
14.36	1.140	0.3527907890673719	
14.365	-0.210	0.38562270900704376	
14.37	-0.031	0.3944288500908337	
14.375	1.165	0.38552085977221784	
14.38	0.035	0.37400467861803915	
14.385	-0.358	0.34831991171997834	
14.39	0.803	0.3152681354518996	
14.395	0.444	0.28648832159150084	
14.4	-0.500	0.2566413744051424	
14.405	0.136	0.21894937609338289	
14.41	0.648	0.16949717689640614	
14.415	-0.477	0.1208817032426322	
14.42	-0.345	0.07662673284504685	
14.425	0.581	0.031139867108396238	
14.43	-0.325	-0.016961676631586084	
14.435	-0.613	-0.060282775207200184	
14.44	0.326	-0.08897091158732696	
14.445	-0.008	-0.117765335744059	
14.45	-0.681	-0.14498474788242954	
14.455	-0.111	-0.15698672214099907	
14.46	0.436	-0.1648559303196112	
14.465	-0.555	-0.16598252342252795	
14.47	-0.387	-0.15211500412756046	
14.475	0.546	-0.1371010229333971	
14.48	-0.332	-0.1300839276562884	
14.485	-0.604	-0.12602880537923172	
14.49	0.358	-0.11898625408688919	
14.495	0.076	-0.11699485083131107	
14.5	-0.614	-0.11587986876373174	
14.505	-0.026	-0.10582058931259869	
14.51	0.501	-0.09903418732012702	
14.515	-0.508	-0.09208535288705628	
14.52	-0.323	-0.07790150255355616	
14.525	0.672	-0.062087130679886894	
14.53	-0.264	-0.05130807367042796	
14.535	-0.535	-0.043940025193083265	
14.54	0.486	-0.03479191206021223	
14.545	0.163	-0.029184711475003365	
14.55	-0.569	-0.025993426312592938	
14.555	0.110	-0.016561202185487678	
14.56	0.652	-0.005045548790582838	
14.565	-0.430	0.009651956867412673	
14.57	-0.249	0.028251162456588666	
14.575	0.809	0.04209463149133148	
14.58	-0.198	0.052425274877691636	
14.585	-0.486	0.05502304052500482	
14.59	0.607	0.05650166420429971	
14.595	0.293	0.06068439440961623	
14.6	-0.517	0.06679514588230534	
14.605	0.194	0.075697317447105	
14.61	0.738	0.08300057481173602	
14.615	-0.407	0.09336058947132274	
14.62	-0.226	0.10038229335875004	
14.625	0.829	0.10029429151032151	
14.63	-0.209	0.09416586227394438	
14.635	-0.474	0.08199173835019713	
14.64	0.630	0.07378620453640196	
14.645	0.280	0.07154316921921747	
14.65	-0.526	0.07160187846882757	
14.655	0.203	0.07595763687508833	
14.66	0.735	0.08103481694577525	
14.665	-0.419	0.09008528401114213	
14.67	-0.230	0.09651733383701318	
14.675	0.825	0.094481481268581	
14.68	-0.200	0.08891938657946111	
14.685	-0.470	0.07896416246233338	
14.69	0.630	0.07304678280294866	
14.695	0.270	0.07140433477550936	
14.7	-0.538	0.07042848025906151	
14.705	0.212	0.0742037031735876	
14.71	0.735	0.07905435299266299	
14.715	-0.416	0.08782928022675676	
14.72	-0.218	0.0966593745287686	
14.725	0.860	0.09865233052582838	
14.73	-0.180	0.09867416865091237	
14.735	-0.460	0.09294408351504656	
14.74	0.643	0.0903003928077695	
14.745	0.325	0.0902660735050834	
14.75	-0.496	0.09426442190759757	
14.755	0.280	0.10544983345512068	
14.76	0.806	0.12006865572122036	
14.765	-0.389	0.13757241253859814	
14.77	-0.198	0.1477956674876239	
14.775	0.913	0.14681207223958898	
14.78	-0.133	0.14343898591839066	
14.785	-0.395	0.1389421151988115	
14.79	0.832	0.14454493328550788	
14.795	0.466	0.16513009671895362	
14.8	-0.438	0.19112034822532853	
14.805	0.386	0.21165395351719593	
14.81	0.889	0.22705098163280443	
14.815	-0.326	0.2403878149831152	
14.82	-0.098	0.2439370014928812	
14.825	1.055	0.24088952225828095	
14.83	-0.081	0.23926284197884626	
14.835	-0.370	0.23099188401956275	
14.84	0.835	0.22164774147042993	
14.845	0.405	0.21999002052715982	
14.85	-0.492	0.2161302742483402	
14.855	0.282	0.20577523724974578	
14.86	0.774	0.18893686426821568	
14.865	-0.415	0.17436837553593748	
14.87	-0.210	0.15808821139316193	
14.875	0.819	0.1347885043484871	
14.88	-0.230	0.10916912248812172	
14.885	-0.480	0.08317927282086685	
14.89	0.599	0.06463011433617047	
14.895	0.174	0.049801412711350176	
14.9	-0.555	0.03627151995418037	
14.905	0.181	0.03290375402472523	
14.91	0.655	0.03373923925609651	
14.915	-0.464	0.038359605043067395	
14.92	-0.255	0.04528720295252589	
14.925	0.870	0.0496930659791282	
14.93	-0.049	0.065047522760419	
14.935	-0.186	0.10037044947895371	
14.94	1.430	0.18269477848594423	
14.945	1.062	0.32566630051453205	
14.95	-0.177	0.4773286061913828	
14.955	0.662	0.571888309144227	
14.96	0.773	0.5885180185055956	
14.965	-0.572	0.5264242391363281	
14.97	-0.464	0.39638278350550127	
14.975	0.322	0.21944577540164992	
14.98	-0.428	0.036092667631681716	
14.985	-0.616	-0.10133157743709521	
14.99	0.387	-0.17251785646375678	
14.995	0.012	-0.2035457412886935	
15.0	-0.630	-0.2053174274144084	
15.005	0.058	-0.1789747354043656	
15.01	0.526	-0.1457472737725613	
15.015	-0.514	-0.11046808609084793	
15.02	-0.293	-0.07433037880823709	
15.025	0.712	-0.046720715317914385	
15.03	-0.267	-0.029112380023180333	
15.035	-0.496	-0.016162925458386282	
15.04	0.598	-0.0014861231639687706	
15.045	0.171	0.01121425804070251	
15.05	-0.547	0.018719262814320688	
15.055	0.235	0.032212195389410024	
15.06	0.712	0.048117049251681435	
15.065	-0.427	0.06842063689025232	
15.07	-0.198	0.08585913665348226	
15.075	0.867	0.09428534867578037	
15.08	-0.201	0.09770222419609066	
15.085	-0.422	0.09793965827676243	
15.09	0.770	0.10264222807207968	
15.095	0.346	0.11805375106054153	
15.1	-0.470	0.13570563126530072	
15.105	0.427	0.15637441369664487	
15.11	0.918	0.18302405247821274	
15.115	-0.311	0.2173338814969292	
15.12	-0.015	0.24300527105576786	
15.125	1.157	0.26125748782779	
15.13	-0.026	0.28359523437075557	
15.135	-0.300	0.2930543506290968	
15.14	1.001	0.2956222186217645	
15.145	0.517	0.30993441052493675	
15.15	-0.398	0.32185228054007153	
15.155	0.503	0.3223650757506046	
15.16	0.861	0.31680883925917447	
15.165	-0.392	0.3055089321326351	
15.17	-0.157	0.275117720677137	
15.175	0.861	0.2299357191156705	
15.18	-0.255	0.18169200731776627	
15.185	-0.505	0.1313764039989374	
15.19	0.489	0.08230122520017219	
15.195	-0.037	0.026774975538727926	
15.2	-0.685	-0.03070838155786243	
15.205	-0.038	-0.07571701315193395	
15.21	0.375	-0.11656040819098892	
15.215	-0.589	-0.14315919697276247	
15.22	-0.360	-0.1486615513301714	
15.225	0.480	-0.14947075422076073	
15.23	-0.415	-0.156297041977756	
15.235	-0.625	-0.16225732532332457	
15.24	0.335	-0.16188798339896432	
15.245	-0.082	-0.16945917377301212	
15.25	-0.677	-0.17742833084457055	
15.255	-0.008	-0.17163495466451933	
15.26	0.376	-0.166851303592207	
15.265	-0.584	-0.16012820595645527	
15.27	-0.325	-0.14342883458775008	
15.275	0.617	-0.12459136033998715	
15.28	-0.337	-0.10946344982498944	
15.285	-0.541	-0.09408156894515193	
15.29	0.480	-0.07879776981403111	
15.295	0.015	-0.07267754055859904	
15.3	-0.599	-0.07243831827453938	
15.305	0.168	-0.06240569181225297	
15.31	0.569	-0.0469380858927529	
15.315	-0.497	-0.027325333396154762	
15.32	-0.229	-0.007250530966766516	
15.325	0.785	0.008512817130007403	
15.33	-0.258	0.02129209265283121	
15.335	-0.464	0.02893892570095143	
15.34	0.665	0.038444122218834455	
15.345	0.184	0.04818045858553785	
15.35	-0.517	0.055403965856229934	
15.355	0.283	0.06681840543995397	
15.36	0.681	0.07808096187538094	
15.365	-0.456	0.09043469414504851	
15.37	-0.194	0.09686357892788205	
15.375	0.863	0.09467585071407678	
15.38	-0.230	0.09208407733253067	
15.385	-0.447	0.08690999403443761	
15.39	0.695	0.08366739601200494	
15.395	0.204	0.08207153976955739	
15.4	-0.526	0.08125666449914773	
15.405	0.306	0.08502115861683979	
15.41	0.686	0.09109902421934632	
15.415	-0.451	0.10022759829062969	
15.42	-0.188	0.10398007140730042	
15.425	0.828	0.09780179521041131	
15.43	-0.250	0.08988547122130394	
15.435	-0.451	0.0789141928179343	
15.44	0.663	0.0708618347477544	
15.445	0.158	0.06394172056299412	
15.45	-0.541	0.0581476993231227	
15.455	0.291	0.059222968739321605	
15.46	0.662	0.06508245533115585	
15.465	-0.456	0.0750400577261381	
15.47	-0.198	0.08311882799924603	
15.475	0.803	0.08090325124450178	
15.48	-0.262	0.07267644847338203	
15.485	-0.456	0.0639406371433898	
15.49	0.669	0.058063618885683614	
15.495	0.157	0.05579105968089834	
15.5	-0.541	0.05303285123533128	
15.505	0.258	0.05544551531038076	
15.51	0.655	0.05905689223283888	
15.515	-0.445	0.06782646542081175	
15.52	-0.166	0.07828557540668167	
15.525	0.851	0.08402856525667102	
15.53	-0.242	0.0864311229743357	
15.535	-0.432	0.08496032545099	
15.54	0.713	0.08429596120016529	
15.545	0.203	0.08662691877172717	
15.55	-0.512	0.08789950273319999	
15.555	0.373	0.09669503207220823	
15.56	0.736	0.11204602177288475	
15.565	-0.432	0.12858351152525174	
15.57	-0.137	0.13942685803151703	
15.575	0.941	0.14117372514491777	
15.58	-0.198	0.14221299891056782	
15.585	-0.387	0.13995393691305197	
15.59	0.854	0.14251040729494208	
15.595	0.329	0.15551737193714668	
15.6	-0.480	0.16977108909126534	
15.605	0.433	0.1808573734967735	
15.61	0.819	0.19204698342551108	
15.615	-0.372	0.2054416095090672	
15.62	-0.066	0.21352373306328398	
15.625	1.009	0.21222994045404142	
15.63	-0.174	0.20908589528079016	
15.635	-0.389	0.1989931624724724	
15.64	0.785	0.18357996822564426	
15.645	0.248	0.17040711498886082	
15.65	-0.499	0.15779339419998575	
15.655	0.383	0.1499656117692864	
15.66	0.704	0.14694646527721866	
15.665	-0.465	0.1444061672794704	
15.67	-0.178	0.13665221298229763	
15.675	0.776	0.11616673815161921	
15.68	-0.306	0.08899099949492598	
15.685	-0.494	0.06113095081189	
15.69	0.594	0.03760245934525656	
15.695	0.023	0.014254824899335562	
15.7	-0.607	-0.009142494724921067	
15.705	0.187	-0.01991196471752884	
15.71	0.518	-0.026177231557936626	
15.715	-0.534	-0.0266471051249292	
15.72	-0.236	-0.019179543067689746	
15.725	0.767	-0.012841170007352657	
15.73	-0.235	-0.003164622202651931	
15.735	-0.297	0.019231963448114602	
15.74	1.322	0.08376353330608112	
15.745	0.969	0.21416817169272273	
15.75	-0.142	0.3728067298641861	
15.755	0.942	0.5021364186536245	
15.76	0.948	0.5797194889312118	
15.765	-0.489	0.5842843608833493	
15.77	-0.372	0.4998351697771589	
15.775	0.322	0.3340346007439936	
15.78	-0.489	0.13585239623923898	
15.785	-0.616	-0.027570831608467523	
15.79	0.433	-0.12835341369529357	
15.795	-0.050	-0.1840120389913988	
15.8	-0.622	-0.20096311946436274	
15.805	0.189	-0.1777026031921478	
15.81	0.530	-0.13847346406560762	
15.815	-0.514	-0.0936848360066105	
15.82	-0.207	-0.04786141040720412	
15.825	0.809	-0.012010328735632358	
15.83	-0.284	0.014592844302399042	
15.835	-0.442	0.03352544711238657	
15.84	0.727	0.050773450357967986	
15.845	0.134	0.06374982511806639	
15.85	-0.526	0.06996358948972556	
15.855	0.373	0.0805281161179802	
15.86	0.691	0.09445522636544303	
15.865	-0.438	0.11111936679795134	
15.87	-0.110	0.12431610024646866	
15.875	0.953	0.13108588359072404	
15.88	-0.185	0.13937761612788374	
15.885	-0.349	0.14656995530749362	
15.89	0.910	0.1589650837697421	
15.895	0.332	0.1786082313080109	
15.9	-0.430	0.19887921258673794	
15.905	0.598	0.2207115230347502	
15.91	0.937	0.2504191379684774	
15.915	-0.313	0.28498124483825227	
15.92	0.107	0.30843155278247814	
15.925	1.221	0.3241190515764629	
15.93	-0.058	0.34125817300379124	
15.935	-0.242	0.3456210144598769	
15.94	1.113	0.3439958441983287	
15.945	0.546	0.35653625534123734	
15.95	-0.334	0.37395805243244906	
15.955	0.715	0.38570452136105593	
15.96	0.963	0.3972801658588109	
15.965	-0.331	0.40210972940108175	
15.97	-0.012	0.3834905344352061	
15.975	0.992	0.34186800427365627	
15.98	-0.218	0.29435861363377597	
15.985	-0.422	0.24187161448800742	
15.99	0.649	0.18470762054859247	
15.995	0.011	0.12541669541529998	
16.0	-0.614	0.06634668700927324	
16.005	0.157	0.020608069405281634	
16.01	0.415	-0.01905120701519428	
16.015	-0.585	-0.049564933328846865	
16.02	-0.291	-0.06431541064665942	
16.025	0.587	-0.07852435151291305	
16.03	-0.415	-0.09359921505086562	
16.035	-0.557	-0.10176622750161637	
16.04	0.468	-0.1035101608274683	
16.045	-0.119	-0.11180723897722128	
16.05	-0.657	-0.1233487929164173	
16.055	0.123	-0.12334087555023232	
16.06	0.398	-0.11935410808694061	
16.065	-0.581	-0.11247669769903412	
16.07	-0.256	-0.09609121036371548	
16.075	0.662	-0.08271033627087161	
16.08	-0.361	-0.07172421885663077	
16.085	-0.491	-0.05954623451023277	
16.09	0.590	-0.04549593738589622	
16.095	-0.047	-0.03902398441478949	
16.1	-0.608	-0.042274600270934715	
16.105	0.227	-0.040173805997360465	
16.11	0.517	-0.033501708372721414	
16.115	-0.514	-0.022570769220223462	
16.12	-0.185	-0.005904493064381181	
16.125	0.770	0.006290769076181137	
16.13	-0.314	0.015085924323986255	
16.135	-0.456	0.021542163714351536	
16.14	0.689	0.02764878393582337	
16.145	0.056	0.031817834258843464	
16.15	-0.558	0.031671079080791406	
16.155	0.332	0.036018240509505285	
16.16	0.607	0.04444426027046855	
16.165	-0.479	0.0582631947634613	
16.17	-0.142	0.07024064846318732	
16.175	0.846	0.07536539830837133	
16.18	-0.285	0.07789582699143019	
16.185	-0.432	0.07758474692446266	
16.19	0.736	0.07581026833736729	
16.195	0.090	0.07367600270416363	
16.2	-0.540	0.06860257983895643	
16.205	0.386	0.0702049915662899	
16.21	0.654	0.07939955430110174	
16.215	-0.464	0.09310834759912019	
16.22	-0.114	0.10537833227667275	
16.225	0.887	0.10742916382746606	
16.23	-0.270	0.1087207184140484	
16.235	-0.406	0.10663373584421257	
16.24	0.776	0.10395192441946706	
16.245	0.130	0.10253969122102735	
16.25	-0.515	0.09955362964427888	
16.255	0.425	0.10236954415913468	
16.26	0.665	0.11033679976841364	
16.265	-0.454	0.12198426718095008	
16.27	-0.095	0.129520037564697	
16.275	0.918	0.1294590647625637	
16.28	-0.250	0.12956580357933956	
16.285	-0.386	0.12770873928024942	
16.29	0.800	0.12505306072286398	
16.295	0.105	0.12139636078835224	
16.3	-0.537	0.11154284615071146	
16.305	0.404	0.10450994842227315	
16.31	0.657	0.12344353000131691	
16.315	-0.453	0.11191066153549431	
16.32	-0.078	0.11965453956608033	
16.325	0.936	0.12344353000131691	
16.33	-0.259	0.12944965490040528	
16.335	-0.389	0.12980066145979063	
16.34	0.799	0.12709330200122107	
16.345	0.154	0.12528052978344179	
16.35	-0.506	0.1215984808173035	
16.355	0.436	0.12258767023037781	
16.36	0.649	0.12613422363698057	
16.365	-0.451	0.13291213480360908	
16.37	-0.098	0.13477301394053068	
16.375	0.878	0.12934873114817336	
16.38	-0.293	0.12038750027614657	
16.385	-0.418	0.10894385960327704	
16.39	0.761	0.09806721747129427	
16.395	0.114	0.09015564424090067	
16.4	-0.502	0.12613422363698057	
16.405	0.453	0.1286601069902524	
16.41	0.645	0.10598603877017346	
16.415	-0.462	0.11994184951890341	
16.42	-0.081	0.12889521881395286	
16.425	0.944	0.13124390299992156	
16.43	-0.242	0.1353439251028643	
16.435	-0.374	0.13707788279981692	
16.44	0.823	0.13701583896528025	
16.445	0.151	0.13705121823432903	
16.45	-0.518	0.13282681643796423	
16.455	0.407	0.1286601069902524	
16.46	0.627	0.1248480578194991	
16.465	-0.460	0.12303025751538882	
16.47	-0.120	0.12099078932410973	
16.475	0.808	0.10908496871660756	
16.48	-0.322	0.09333418769903187	
16.485	-0.447	0.07624869870971807	
16.49	0.645	0.05792583802543586	
16.495	-0.018	0.03692594010868311	
16.5	-0.585	0.013992013699442677	
16.505	0.273	0.0017070654028147536	
16.51	0.485	-0.004329589340370032	
16.515	-0.521	-0.004915413739319824	
16.52	-0.168	0.002143961267995338	
16.525	0.729	0.005964351918161347	
16.53	-0.357	0.005249098819490654	
16.535	-0.435	0.00640586778681105	
16.54	0.852	0.018948282292617705	
16.545	0.433	0.05980832939913758	
16.55	-0.210	0.1330823546321684	
16.555	1.192	0.24381556443295646	
16.56	1.319	0.39256229018214267	
16.565	-0.241	0.5290374512244455	
16.57	-0.002	0.5761358557182595	
16.575	0.614	0.5168007316642849	
16.58	-0.540	0.3802656184161969	
16.585	-0.677	0.21055228030996176	
16.59	0.227	0.042787992961040175	
16.595	-0.232	-0.10926479611791387	
16.6	-0.688	-0.21166013869181577	
16.605	0.143	-0.24722621694647437	
16.61	0.372	-0.2416706480733028	
16.615	-0.572	-0.20974696329376422	
16.62	-0.186	-0.15959597125790603	
16.625	0.706	-0.11136063121062922	
16.63	-0.374	-0.07082589016570855	
16.635	-0.477	-0.040233866389859374	
16.64	0.623	-0.02022493478195865	
16.645	-0.024	-0.012513201933380168	
16.65	-0.553	-0.010617613914040053	
16.655	0.386	0.0009213283841805097	
16.66	0.564	0.021165902061855982	
16.665	-0.496	0.04415562974536397	
16.67	-0.105	0.06258768393039305	
16.675	0.851	0.07262413307100399	
16.68	-0.302	0.0800090177547502	
16.685	-0.399	0.08388681545240685	
16.69	0.756	0.08387862757178677	
16.695	0.058	0.08232082724371012	
16.7	-0.508	0.07838801790080249	
16.705	0.501	0.08407840350374164	
16.71	0.703	0.10506979294941635	
16.715	-0.415	0.13507849091090865	
16.72	0.026	0.1597302872912975	
16.725	0.997	0.17759953884846613	
16.73	-0.203	0.19389466039131298	
16.735	-0.276	0.2019867063550458	
16.74	1.020	0.21091179678363306	
16.745	0.308	0.23222628843587012	
16.75	-0.396	0.2514492249041821	
16.755	0.660	0.26608733962430253	
16.76	0.832	0.28295594888568076	
16.765	-0.370	0.30016839203733303	
16.77	0.062	0.29977594659321594	
16.775	0.998	0.2844199041247107	
16.78	-0.247	0.2649799280502948	
16.785	-0.363	0.23414666662176054	
16.79	0.741	0.19466921189078934	
16.795	-0.009	0.15118129104299374	
16.8	-0.573	0.10375610827994836	
16.805	0.239	0.06194531481330474	
16.81	0.370	0.02071541385240719	
16.815	-0.589	-0.014517926150610446	
16.82	-0.229	-0.037130783127667	
16.825	0.572	-0.058922347452756076	
16.83	-0.454	-0.07990052321242958	
16.835	-0.535	-0.09357111055435896	
16.84	0.486	-0.10257970347789469	
16.845	-0.154	-0.11394240894449915	
16.85	-0.662	-0.1259468097860418	
16.855	0.148	-0.12708846736394025	
16.86	0.293	-0.12953689407037908	
16.865	-0.601	-0.12937098742897016	
16.87	-0.209	-0.11797666508492113	
16.875	0.622	-0.10412166984336002	
16.88	-0.421	-0.0919511730747336	
16.885	-0.489	-0.08038228983810712	
16.89	0.564	-0.0696236883182045	
16.895	-0.117	-0.06710030455617555	
16.9	-0.607	-0.06985121121336116	
16.905	0.273	-0.06498314639943154	
16.91	0.421	-0.056661917346700785	
16.915	-0.550	-0.04442010343843321	
16.92	-0.153	-0.028844451279741813	
16.925	0.732	-0.01713944246074373	
16.93	-0.351	-0.007078662438274005	
16.935	-0.422	0.0036984484952521427	
16.94	0.691	0.013472395811521994	
16.945	-0.035	0.018768602653174107	
16.95	-0.561	0.01611423878305521	
16.955	0.355	0.018167863238836214	
16.96	0.474	0.02128892775973712	
16.965	-0.517	0.027446293894584015	
16.97	-0.119	0.03327795078356165	
16.975	0.776	0.03492883840827104	
16.98	-0.342	0.03775823807765631	
16.985	-0.406	0.03972342151888021	
16.99	0.719	0.04262480419847973	
16.995	-0.003	0.042657911041745974	
17.0	-0.543	0.03902959105516536	
17.005	0.405	0.04133406825243159	
17.01	0.570	0.05128267952454295	
17.015	-0.480	0.06628964145209057	
17.02	-0.066	0.08137656381416104	
17.025	0.864	0.08902118218074517	
17.03	-0.303	0.09660181460329237	
17.035	-0.367	0.09972234520668594	
17.04	0.796	0.1007746768375862	
17.045	0.058	0.10056833226113228	
17.05	-0.511	0.09794251756319297	
17.055	0.454	0.0974712054735657	
17.06	0.585	0.10127186073677288	
17.065	-0.467	0.1091622166419527	
17.07	-0.035	0.11647150556975094	
17.075	0.895	0.1180830454364417	
17.08	-0.281	0.12247312424383515	
17.085	-0.360	0.12375279994251341	
17.09	0.819	0.12187655884890072	
17.095	0.075	0.12046795321727892	
17.1	-0.485	0.115916580902287	
17.105	0.527	0.11859126156050388	
17.11	0.645	0.13022136533065362	
17.115	-0.428	0.1480874806885475	
17.12	0.040	0.16256779668948274	
17.125	0.962	0.17108071468115765	
17.13	-0.255	0.17938326269097804	
17.135	-0.320	0.1798142680822183	
17.14	0.887	0.17490670528106295	
17.145	0.128	0.17239056748815645	
17.15	-0.465	0.16795716451828285	
17.155	0.552	0.16562595666522306	
17.16	0.613	0.168134343353319	
17.165	-0.450	0.17112074813295303	
17.17	-0.034	0.16763200091846497	
17.175	0.814	0.15097608256785172	
17.18	-0.340	0.13038461271690982	
17.185	-0.403	0.10693968855141625	
17.19	0.694	0.0838254213028098	
17.195	-0.055	0.058306673504501916	
17.2	-0.561	0.03309642480836977	
17.205	0.380	0.020638884596500297	
17.21	0.491	0.019000773963481852	
17.215	-0.514	0.02519640852297583	
17.22	-0.128	0.034731525148907344	
17.225	0.745	0.03385438773113139	
17.23	-0.352	0.0313554401536136	
17.235	-0.358	0.03308122310411051	
17.24	0.986	0.052804575962030316	
17.245	0.479	0.10823258688511073	
17.25	-0.163	0.1942144726471428	
17.255	1.204	0.3066645968121088	
17.26	1.160	0.4388660104478844	
17.265	-0.311	0.5422248773406726	
17.27	-0.047	0.5567128174796001	
17.275	0.486	0.46764021261445377	
17.28	-0.585	0.3114245445092396	
17.285	-0.639	0.13925928091716	
17.29	0.251	-0.018404688307808628	
17.295	-0.246	-0.14984030765870054	
17.3	-0.666	-0.23148933660844243	
17.305	0.194	-0.250382808026965	
17.31	0.341	-0.23437591209079225	
17.315	-0.567	-0.19654058692479065	
17.32	-0.154	-0.14502209731258844	
17.325	0.687	-0.09854976540956914	
17.33	-0.383	-0.061667322070859745	
17.335	-0.422	-0.031516766099661545	
