Time	Potential	EKG	Unnamed: 3
0.0	-0.996	-0.057236979569192575	
0.005	0.420	-0.11176699108556507	
0.01	-0.523	-0.18328608181695552	
0.015	-0.996	-0.268442074862997	
0.02	0.054	-0.3324640398247329	
0.025	0.367	-0.3434558161499932	
0.03	-0.996	-0.32842443185989567	
0.035	-0.594	-0.3257413762021824	
0.04	1.200	-0.2967736991568624	
0.045	-0.826	-0.22907340620704675	
0.05	-0.994	-0.20491024850283918	
0.055	1.240	-0.18868907483136987	
0.06	0.034	-0.11598580162639295	
0.065	-0.993	-0.059716335887261204	
0.07	0.660	-0.02977103047059656	
0.075	1.305	0.050230028520391545	
0.08	-0.990	0.14328633323437123	
0.085	-0.735	0.13846745408316846	
0.09	3.036	0.15684139506872477	
0.095	0.112	0.3342786338918233	
0.1	-0.996	0.47764489382504904	
0.105	2.622	0.5401186142219347	
0.11	2.643	0.7482703782742433	
0.115	-0.996	1.0092676125154019	
0.12	0.675	1.067461976089756	
0.125	3.033	1.0443558439650396	
0.13	-0.926	1.060695710132162	
0.135	-0.848	0.9285884793113541	
0.14	3.033	0.734169883097405	
0.145	0.904	0.7329132285136729	
0.15	-0.994	0.7828222281847392	
0.155	3.028	0.7995821004572047	
0.16	3.034	0.9969932414759123	
0.165	-0.994	1.2606917091118293	
0.17	0.814	1.2923520128725183	
0.175	3.033	1.2317775222821625	
0.18	-0.527	1.2252992362931265	
0.185	3.008	1.2582814640251891	
0.19	2.988	1.4542529449481205	
0.195	2.988	1.7911892961850593	
0.2	2.988	2.1843851702230035	
0.205	2.988	2.562735853441616	
0.21	2.988	2.8003240427295415	
0.215	2.988	2.9329784541331043	
0.22	2.990	3.0453921364029837	
0.225	2.990	3.086404562316428	
0.23	2.990	3.055779339864589	
0.235	2.991	3.052055608919592	
0.24	2.991	3.056305703349481	
0.245	2.990	3.0137916875725472	
0.25	2.990	2.9913379139202476	
0.255	2.988	3.0090256365012227	
0.26	2.990	2.993640614399758	
0.265	2.990	2.9699169581200167	
0.27	2.991	2.991146655984396	
0.275	2.991	2.9982524997048214	
0.28	2.991	2.975822365125838	
0.285	2.993	2.9845472519741287	
0.29	2.991	3.004262255051697	
0.295	2.990	2.9867928156868038	
0.3	2.990	2.979857503241819	
0.305	2.990	3.0016303206684185	
0.31	2.990	2.9953787917074703	
0.315	2.991	2.9782087359476384	
0.32	2.991	2.994367108527336	
0.325	2.991	3.001309522276139	
0.33	2.993	2.9816569181972827	
0.335	2.993	2.9865836836379165	
0.34	2.991	3.003637652763076	
0.345	3.028	2.991393040665521	
0.35	-0.994	2.8040850460691162	
0.355	-0.996	2.2157258254065324	
0.36	-0.996	1.3233868916633171	
0.365	-0.996	0.44505469053634217	
0.37	-0.997	-0.23586862378744086	
0.375	-0.997	-0.7104859493332608	
0.38	-0.997	-1.0139231020818973	
0.385	-0.997	-1.1497045239622556	
0.39	-0.997	-1.1789802819244601	
0.395	-0.997	-1.174872639936423	
0.4	-0.997	-1.140466757601341	
0.405	-0.997	-1.082638528433298	
0.41	-0.997	-1.0467281153999082	
0.415	-0.997	-1.0291332699406404	
0.42	-0.997	-1.0001833061869148	
0.425	-0.997	-0.9852876678104266	
0.43	-0.997	-0.9938825573079669	
0.435	-0.997	-0.9908784173692867	
0.44	-0.997	-0.9825386409004168	
0.445	-0.997	-0.9938049149447494	
0.45	-0.997	-1.0001298059451074	
0.455	-0.997	-0.9894610465060947	
0.46	-0.997	-0.9944529153911564	
0.465	-0.996	-1.0039788248542743	
0.47	-0.997	-0.99516379276541	
0.475	-0.997	-0.9913068236727318	
0.48	-0.997	-1.002338102208118	
0.485	-0.997	-0.9992739308098286	
0.49	-0.997	-0.9903285028776598	
0.495	-0.997	-0.9989166959761362	
0.5	-0.997	-1.002397057435981	
0.505	-0.997	-0.9917291128850877	
0.51	-0.997	-0.9949426168970812	
0.515	-0.997	-1.0035290657664955	
0.52	-0.997	-0.9949557398879884	
0.525	-0.997	-0.9917655126481961	
0.53	-0.997	-1.0023338279997795	
0.535	-0.997	-0.9988918314961205	
0.54	-0.997	-0.9904519916719168	
0.545	-0.997	-0.9992223068073819	
0.55	-0.997	-1.0022012890157237	
0.555	-0.997	-0.9914713645484124	
0.56	-0.997	-0.9952270701025469	
0.565	-0.997	-1.0037287904738814	
0.57	-0.997	-0.9945445102558987	
0.575	-0.997	-0.9917035175193002	
0.58	-0.997	-1.0028602798064594	
0.585	-0.997	-0.9986974824013717	
0.59	-0.997	-0.9899241225581549	
0.595	-0.997	-0.9997498304051438	
0.6	-0.997	-1.0025222567403294	
0.605	-0.997	-0.9906628821628307	
0.61	-0.997	-0.9953366420696877	
0.615	-0.997	-1.0045978443182793	
0.62	-0.997	-0.9938871267127077	
0.625	-0.996	-0.9911159802363011	
0.63	-0.997	-1.0039711032411995	
0.635	-0.997	-0.9986694309639323	
0.64	-0.997	-0.9886924121303661	
0.645	-0.996	-1.0005538790362807	
0.65	-0.997	-1.0033905278720585	
0.655	-0.997	-0.989221913772918	
0.66	-0.997	-0.9952844532723926	
0.665	-0.997	-1.0062226451612637	
0.67	-0.997	-0.9929159395572983	
0.675	-0.996	-0.9899459024516655	
0.68	-0.996	-1.005778209705447	
0.685	-0.997	-0.9988025098064476	
0.69	-0.996	-0.9866343731661336	
0.695	-0.997	-1.0007158787207184	
0.7	-0.997	-1.0038911393812657	
0.705	-0.996	-0.9870076340035857	
0.71	-0.994	-0.994064550194852	
0.715	-0.997	-1.007757991953126	
0.72	-0.996	-0.9905428293179795	
0.725	-0.128	-0.9470425538065474	
0.73	-0.996	-0.8743613159943954	
0.735	-0.996	-0.8041993052090536	
0.74	1.026	-0.7016926364972057	
0.745	-0.993	-0.543007340546108	
0.75	-0.997	-0.45011446773169556	
0.755	1.159	-0.3835385128176131	
0.76	0.938	-0.19418851520762578	
0.765	-0.996	0.016589162111151967	
0.77	0.449	0.11588060884861302	
0.775	3.037	0.27498064014202955	
0.78	-0.895	0.5385322500380803	
0.785	-0.395	0.6254884555163058	
0.79	3.023	0.6282560348873646	
0.795	1.522	0.8190182646544039	
0.8	-0.623	1.0153022693090743	
0.805	3.023	1.1000659964754256	
0.81	3.020	1.3116154267545332	
0.815	-0.150	1.5735671859605338	
0.82	3.028	1.6988651963929795	
0.825	2.999	1.856113396181621	
0.83	1.714	2.0672622137582115	
0.835	2.599	2.21882704054285	
0.84	2.996	2.350521046501724	
0.845	3.025	2.5003961833378185	
0.85	1.339	2.5931593478063677	
0.855	3.004	2.575858459431374	
0.86	3.002	2.56047828660313	
0.865	1.432	2.5559471539091585	
0.87	2.431	2.475125713942032	
0.875	2.994	2.405975976107433	
0.88	2.988	2.4474644300335573	
0.885	2.988	2.571636605217192	
0.89	2.987	2.712974138084447	
0.895	2.988	2.8290561739605007	
0.9	2.990	2.9163877271854535	
0.905	2.990	2.9724336030883634	
0.91	2.990	3.004000579211894	
0.915	2.993	3.018953401522402	
0.92	2.988	3.0168225969768985	
0.925	2.988	3.0113146075289823	
0.93	2.988	3.010690025596552	
0.935	2.988	3.0013350279841626	
0.94	2.988	2.98804071767419	
0.945	2.990	2.9933122893604853	
0.95	2.991	2.995025717325827	
0.955	2.990	2.981070892785268	
0.96	2.990	2.985296421961673	
0.965	2.991	2.999116129911531	
0.97	2.990	2.985484531501367	
0.975	2.988	2.980483770706839	
0.98	2.990	3.0003502823598827	
0.985	2.990	2.9941347936714173	
0.99	2.990	2.975474018336401	
0.995	2.991	2.9948159303053057	
1.0	2.991	3.0032383973956924	
1.005	2.991	2.975966076705567	
1.01	2.993	2.985341539471043	
1.015	2.991	3.0102956012502324	
1.02	2.991	2.9857541542531587	
1.025	3.002	2.9747179476896393	
1.03	2.993	3.011071565674867	
1.035	2.993	3.0013136693031113	
1.04	3.016	2.9714574625360353	
1.045	2.996	3.0058379035986893	
1.05	2.991	3.0207473528119504	
1.055	3.011	2.977439233969266	
1.06	3.016	2.9918623346838977	
1.065	2.991	3.034398944160735	
1.07	2.999	2.9943607289828944	
1.075	0.544	2.8621347000642547	
1.08	2.994	2.654392032790837	
1.085	2.991	2.463426028001347	
1.09	0.216	2.3014635703670177	
1.095	3.007	2.158044156202704	
1.1	2.993	2.1140252653912786	
1.105	1.589	2.122109381662205	
1.11	0.211	2.073165742959407	
1.115	2.996	1.9412898001421337	
1.12	3.022	1.8699129878371727	
1.125	-0.994	1.8612977809038636	
1.13	3.005	1.776827281287964	
1.135	2.997	1.7287371345272828	
1.14	-0.994	1.7046825971077717	
1.145	2.515	1.6244473915427686	
1.15	2.993	1.608783646072074	
1.155	-0.958	1.5663534268777801	
1.16	-0.994	1.3143600485554507	
1.165	2.999	1.005886069200929	
1.17	1.661	0.8849719772547182	
1.175	-0.996	0.907655998895215	
1.18	3.011	0.9682380184002926	
1.185	3.007	1.132189126184238	
1.19	-0.996	1.3147716396472893	
1.195	-0.022	1.303640676545828	
1.2	2.997	1.1489921573318136	
1.205	-0.993	0.9916403246836093	
1.21	-0.996	0.7938423174003895	
1.215	3.002	0.61278730304	
1.22	0.390	0.5585436630961838	
1.225	-0.996	0.5570527477438816	
1.23	3.005	0.6213416513535163	
1.235	3.013	0.8449664305161175	
1.24	-0.996	1.1050740152933547	
1.245	-0.578	1.1538177650813952	
1.25	2.996	1.0043550310408569	
1.255	-0.994	0.843575116495549	
1.26	-0.996	0.6748245826804216	
1.265	3.005	0.5340794471213034	
1.27	-0.373	0.47333257652607624	
1.275	-0.997	0.41489999839827985	
1.28	2.907	0.44170914442557446	
1.285	3.017	0.6674003494169031	
1.29	-0.996	0.9558937315893302	
1.295	-0.437	1.0568200755814714	
1.3	2.994	0.9624815248174218	
1.305	-0.065	0.8831115563685401	
1.31	-0.994	0.8359862747548521	
1.315	2.996	0.7680281628673917	
1.32	-0.153	0.7063277442173408	
1.325	-0.996	0.626932280067992	
1.33	3.008	0.6196029871624237	
1.335	3.004	0.8024575540091344	
1.34	-0.997	1.0498664550313945	
1.345	2.962	1.270115656213564	
1.35	2.993	1.505743191090483	
1.355	-0.970	1.6053400273965617	
1.36	-0.933	1.432733574294991	
1.365	2.994	1.1547252541440967	
1.37	2.537	1.0473086934558449	
1.375	-0.996	1.1299714371512164	
1.38	3.004	1.2315111808325399	
1.385	2.997	1.3555928956502137	
1.39	-0.996	1.472816271346589	
1.395	2.900	1.5457519909336817	
1.4	2.994	1.6516218716866393	
1.405	-0.996	1.6603390707777073	
1.41	-0.996	1.4259380859095612	
1.415	2.996	1.107577525229825	
1.42	0.426	0.8939868321634364	
1.425	-0.997	0.7599250764929483	
1.43	3.010	0.7187209701034756	
1.435	3.005	0.8715221069284388	
1.44	-0.996	1.0989492049236411	
1.445	1.731	1.2329710164725836	
1.45	2.994	1.3189960766443694	
1.455	-0.993	1.3348434977952872	
1.46	-0.996	1.1570975650807367	
1.465	2.999	0.9118183277401197	
1.47	-0.469	0.7404526515590948	
1.475	-0.996	0.570535908819575	
1.48	3.011	0.49592516914653395	
1.485	3.016	0.6824085231691921	
1.49	-0.996	0.968125185203468	
1.495	0.220	1.0713335708917031	
1.5	2.996	1.0373317279887897	
1.505	-0.996	0.9885433633826294	
1.51	-0.996	0.831498024096299	
1.515	2.999	0.6496508776959697	
1.52	-0.895	0.5537757808806107	
1.525	-0.996	0.4146196978976048	
1.53	3.011	0.3467024983249362	
1.535	3.016	0.5787054261477741	
1.54	-0.994	0.9141763464223367	
1.545	-0.996	0.9760030652582259	
1.55	-0.996	0.6454971265775605	
1.555	-0.997	0.11843027300921903	
1.56	-0.997	-0.31278693810865665	
1.565	-0.996	-0.6140101575284354	
1.57	-0.971	-0.8842107406212769	
1.575	-0.459	-1.0144367018458624	
1.58	-0.483	-0.9501661083593439	
1.585	-0.254	-0.8469147802450613	
1.59	-0.224	-0.7272442776057957	
1.595	-0.768	-0.5595439119695795	
1.6	-0.971	-0.4959046798144728	
1.605	-0.675	-0.5704837252391799	
1.61	-0.839	-0.6274955146700747	
1.615	-0.994	-0.6677617294263125	
1.62	-0.456	-0.7499632921819239	
1.625	-0.214	-0.7543126210004107	
1.63	-0.597	-0.6522268158667464	
1.635	-0.291	-0.5748631844522532	
1.64	0.242	-0.49591633267086976	
1.645	-0.147	-0.337272328793605	
1.65	-0.233	-0.2049211809266624	
1.655	0.536	-0.13263135355051764	
1.66	0.234	-0.012947241549555018	
1.665	-0.196	0.10428474819737517	
1.67	0.306	0.13028726048340933	
1.675	0.465	0.15365253356195088	
1.68	-0.202	0.20503681644198782	
1.685	0.016	0.18991459885434248	
1.69	0.512	0.14768210608379845	
1.695	-0.156	0.15486233102052965	
1.7	-0.279	0.13205862632513843	
1.705	0.277	0.060056749371672234	
1.71	-0.054	0.026932522220055384	
1.715	-0.454	0.0058732137642394065	
1.72	0.033	-0.05920898470508138	
1.725	0.106	-0.09919276463079413	
1.73	-0.430	-0.09675568045379011	
1.735	-0.172	-0.12164665251935904	
1.74	0.193	-0.14887765823297028	
1.745	-0.318	-0.13229207933331494	
1.75	-0.393	-0.1323420319983753	
1.755	0.069	-0.16588086742872482	
1.76	-0.295	-0.17673762764884687	
1.765	-0.677	-0.19674463637281286	
1.77	-0.236	-0.2603468664756061	
1.775	-0.332	-0.3183863748974316	
1.78	-0.930	-0.36620601365260547	
1.785	-0.718	-0.4538456205304488	
1.79	-0.501	-0.552955542052074	
1.795	-0.993	-0.6228705358063613	
1.8	-0.994	-0.6966803780610233	
1.805	-0.564	-0.772984279345622	
1.81	-0.922	-0.8116305888499266	
1.815	-0.994	-0.8320746043722771	
1.82	-0.832	-0.8610062723026479	
1.825	-0.752	-0.8794211796627671	
1.83	-0.996	-0.8766181325290082	
1.835	-0.994	-0.8818141604731554	
1.84	-0.735	-0.8990913389186609	
1.845	-0.994	-0.9020720024115858	
1.85	-0.996	-0.9032869605549732	
1.855	-0.706	-0.9088596629972396	
1.86	-0.991	-0.905835834693109	
1.865	-0.994	-0.9026254958402996	
1.87	-0.897	-0.9108330422434786	
1.875	-0.803	-0.9180811388639989	
1.88	-0.994	-0.912595039407949	
1.885	-0.994	-0.9114844189501139	
1.89	-0.770	-0.9187630815954777	
1.895	-0.996	-0.9192463405542536	
1.9	-0.996	-0.9184415806287151	
1.905	-0.843	-0.9239990958388395	
1.91	-0.994	-0.9322776604721106	
1.915	-0.996	-0.9377855340476943	
1.92	-0.994	-0.9466359053150941	
1.925	-0.886	-0.9600991508162203	
1.93	-0.996	-0.9644092729280722	
1.935	-0.996	-0.9609012036585274	
1.94	-0.723	-0.9556888547142267	
1.945	-0.996	-0.9405218313283539	
1.95	-0.994	-0.9253154438952532	
1.955	-0.752	-0.9161728159414887	
1.96	-0.994	-0.9119540065789232	
1.965	-0.996	-0.9118089334812426	
1.97	-0.984	-0.9203102543869187	
1.975	-0.906	-0.9383123763009621	
1.98	-0.996	-0.9522360364818658	
1.985	-0.996	-0.9551441583182558	
1.99	-0.886	-0.9607203958117604	
1.995	-0.994	-0.9669209678340254	
2.0	-0.996	-0.9640181105354387	
2.005	-0.994	-0.9642973674637864	
2.01	-0.994	-0.9788320637592244	
2.015	-0.996	-0.9877833199153252	
2.02	-0.994	-0.9847455185286014	
2.025	-0.996	-0.9916658054665546	
2.03	-0.994	-1.0002841870029244	
2.035	-0.996	-0.9941204899710907	
2.04	-0.984	-0.9916161781706611	
2.045	-0.996	-0.9997012983728254	
2.05	-0.996	-0.9956825820185614	
2.055	-0.610	-0.9699852335738331	
2.06	-0.854	-0.9299305510519983	
2.065	-0.994	-0.8921120322538412	
2.07	-0.842	-0.866837377710106	
2.075	-0.884	-0.866885133132172	
2.08	-0.996	-0.8797369908654055	
2.085	-0.996	-0.8910282404845133	
2.09	-0.901	-0.9111850056293918	
2.095	-0.996	-0.9406970901569028	
2.1	-0.996	-0.9525191297919959	
2.105	-0.643	-0.9424280531167548	
2.11	-0.927	-0.9250640262472212	
2.115	-0.996	-0.9066368802980932	
2.12	-0.691	-0.8827055169480322	
2.125	-0.547	-0.8519736175104953	
2.13	-0.996	-0.816442789667487	
2.135	-0.976	-0.7969160174641576	
2.14	-0.416	-0.7935436298865062	
2.145	-0.996	-0.7908194308309727	
2.15	-0.997	-0.7914852771069569	
2.155	-0.440	-0.793757793989996	
2.16	-0.807	-0.7881480102518337	
2.165	-0.996	-0.7812167760469467	
2.17	-0.619	-0.7746557074047618	
2.175	-0.509	-0.7640885525798999	
2.18	-0.996	-0.7510141427239583	
2.185	-0.906	-0.7457988954699799	
2.19	-0.341	-0.7500688898302745	
2.195	-0.994	-0.7508387421948277	
2.2	-0.996	-0.7562980402707357	
2.205	-0.378	-0.761261592700074	
2.21	-0.724	-0.7562713291590718	
2.215	-0.996	-0.7455938244628778	
2.22	-0.515	-0.7326832436108064	
2.225	-0.381	-0.7123414357704307	
2.23	-0.994	-0.6894191525251006	
2.235	-0.770	-0.6756645626202968	
2.24	-0.204	-0.6697851219096135	
2.245	-0.947	-0.661755417264696	
2.25	-0.994	-0.6669934420205577	
2.255	-0.254	-0.6789651142493904	
2.26	-0.659	-0.6803903028648374	
2.265	-0.996	-0.6757643033099088	
2.27	-0.495	-0.6718618103639838	
2.275	-0.410	-0.6677307550245841	
2.28	-0.994	-0.6645855253035886	
2.285	-0.851	-0.6685344456473659	
2.29	-0.324	-0.6847477324256108	
2.295	-0.994	-0.7045288691841435	
2.3	-0.996	-0.724505609213057	
2.305	-0.430	-0.7418727049016601	
2.31	-0.817	-0.7595813684926094	
2.315	-0.996	-0.7717364599791057	
2.32	-0.617	-0.7690395253224902	
2.325	-0.504	-0.7642556413115902	
2.33	-0.996	-0.7587179644708875	
2.335	-0.887	-0.7482935181409247	
2.34	-0.335	-0.7467289161203642	
2.345	-0.994	-0.7504205287336473	
2.35	-0.996	-0.7539952707653672	
2.355	-0.311	-0.7506405848919475	
2.36	-0.707	-0.7428410916957637	
2.365	-0.994	-0.7298400051249838	
2.37	-0.460	-0.7070911483776583	
2.375	-0.338	-0.6847232441028932	
2.38	-0.996	-0.6630225843368416	
2.385	-0.720	-0.6450315186268782	
2.39	-0.135	-0.633567740724281	
2.395	-0.887	-0.6254016410365939	
2.4	-0.958	-0.6225668674323306	
2.405	-0.095	-0.6223125868479467	
2.41	-0.509	-0.6100862485104294	
2.415	-0.994	-0.591005467947636	
2.42	-0.253	-0.571134649110389	
2.425	-0.156	-0.5471660548296639	
2.43	-0.988	-0.526306320447502	
2.435	-0.573	-0.51579573151153	
2.44	0.089	-0.5074578222155208	
2.445	-0.782	-0.4932945628148345	
2.45	-0.892	-0.48909691258929566	
2.455	-0.042	-0.4961469310437233	
2.46	-0.517	-0.5063073272812693	
2.465	-0.996	-0.5160053222117111	
2.47	-0.327	-0.525310857719524	
2.475	-0.263	-0.5377092852570774	
2.48	-0.994	-0.5513889860365992	
2.485	-0.675	-0.5605527114829112	
2.49	-0.103	-0.5725372017111844	
2.495	-0.872	-0.585122845141782	
2.5	-0.961	-0.5954850055094886	
2.505	-0.117	-0.6040446332404469	
2.51	-0.539	-0.6075963926378893	
2.515	-0.996	-0.599926111958608	
2.52	-0.266	-0.58241998053082	
2.525	-0.156	-0.562327285317265	
2.53	-0.866	-0.536528533712	
2.535	-0.262	-0.4922012093948507	
2.54	0.878	-0.4015372463578657	
2.545	-0.446	-0.562327285317265	
2.55	-0.665	-0.562327285317265	
2.555	0.118	-0.5389493375037862	
2.56	-0.608	-0.536528533712	
2.565	-0.996	-0.2667949290661962	
2.57	-0.486	-0.36763927284788295	
2.575	-0.349	-0.47499063541851516	
2.58	-0.994	-0.56446322450233	
2.585	-0.620	-0.6069007311117315	
2.59	0.031	-0.6148224319265156	
2.595	-0.782	-0.6028141453155976	
2.6	-0.837	-0.575119897275084	
2.605	0.138	-0.5389493375037862	
2.61	-0.410	-0.5012752208225746	
2.615	-0.930	-0.4666162793652104	
2.62	-0.082	-0.4357139158102572	
2.625	0.031	-0.40971469970188207	
2.63	-0.865	-0.3856172607849735	
2.635	-0.404	-0.36454091015125456	
2.64	0.391	-0.3439377151312062	
2.645	-0.646	-0.31974895394817476	
2.65	-0.713	-0.30245163944729636	
2.655	0.375	-0.2918417033875409	
2.66	-0.308	-0.2816374980257164	
2.665	-0.837	-0.2764827185503559	
2.67	0.118	-0.2708190661067096	
2.675	0.275	-0.2543949152064664	
2.68	-0.750	-0.22866456193360163	
2.685	-0.276	-0.20520940195598686	
2.69	0.657	-0.18413231002315109	
2.695	-0.515	-0.15355656589185374	
2.7	-0.555	-0.1317263220390107	
2.705	0.762	-0.11089772354250797	
2.71	-0.080	-0.07693440635284166	
2.715	-0.628	-0.04918589956771007	
2.72	0.480	-0.027129855398871618	
2.725	0.558	0.007839872378755927	
2.73	-0.617	0.04255832548636978	
2.735	-0.135	0.05300469973842552	
2.74	0.823	0.04740829419010867	
2.745	-0.486	0.04293401607533894	
2.75	-0.561	0.023091539212845937	
2.755	0.606	-0.011376305437287747	
2.76	-0.254	-0.04710366155135966	
2.765	-0.807	-0.08952649635130323	
2.77	0.075	-0.13678238051493102	
2.775	0.135	-0.18210016419064018	
2.78	-0.814	-0.21876524755121404	
2.785	-0.387	-0.24278386979676028	
2.79	0.317	-0.26740693905508195	
2.795	-0.718	-0.2923925045281025	
2.8	-0.742	-0.31285077305423736	
2.805	0.320	-0.3260502203433603	
2.81	-0.372	-0.3343563485167377	
2.815	-0.901	-0.3386913663747301	
2.82	-0.048	-0.3404029396991952	
2.825	0.040	-0.3461708684027959	
2.83	-0.854	-0.3491354430793893	
2.835	-0.393	-0.34148148928781163	
2.84	0.341	-0.3331995196518794	
2.845	-0.674	-0.3258409804607029	
2.85	-0.706	-0.3177977453875714	
2.855	0.367	-0.3076194809843844	
2.86	-0.344	-0.30169109993917687	
2.865	-0.852	-0.2979498693521814	
2.87	0.048	-0.2918929945601767	
2.875	0.109	-0.2902094167479805	
2.88	-0.796	-0.2856490455048629	
2.885	-0.306	-0.27312943910861326	
2.89	0.538	-0.25487372620649695	
2.895	-0.593	-0.23339730295508052	
2.9	-0.622	-0.2127959874923731	
2.905	0.570	-0.1950551874249875	
2.91	-0.236	-0.1800408366301883	
2.915	-0.756	-0.16931154594009787	
2.92	0.239	-0.16031878113402767	
2.925	0.274	-0.15219629369996962	
2.93	-0.747	-0.14523730276928878	
2.935	-0.280	-0.14179751910822772	
2.94	0.527	-0.149516575792804	
2.945	-0.633	-0.1619679463430855	
2.95	-0.669	-0.17679725084321846	
2.955	0.440	-0.1954795579637958	
2.96	-0.341	-0.21740509587665593	
2.965	-0.848	-0.23865732559894537	
2.97	0.063	-0.2527158715615326	
2.975	0.083	-0.2692222977816151	
2.98	-0.832	-0.2818389095019912	
2.985	-0.344	-0.28236757187601014	
2.99	0.397	-0.2821381922589672	
2.995	-0.689	-0.2846492234274049	
3.0	-0.674	-0.2817628974064363	
3.005	0.667	-0.2647618270218587	
3.01	0.007	-0.22083740553432438	
3.015	-0.425	-0.14708763665331703	
3.02	1.096	-0.026949665173754654	
3.025	0.941	-0.2647618270218587	
3.03	-0.575	-0.2372407666415347	
3.035	-0.251	-0.22083740553432438	
3.04	0.239	-0.21410730563152827	
3.045	-0.811	0.08372491561057056	
3.05	-0.794	-0.07880823961504116	
3.055	0.298	-0.21410730563152827	
3.06	-0.352	-0.3121736123144301	
3.065	-0.805	-0.35749324542227845	
3.07	0.286	-0.3463457523673157	
3.075	0.347	-0.3001612648694565	
3.08	-0.700	-0.2372407666415347	
3.085	-0.155	-0.17158464205337337	
3.09	0.815	-0.11723002670532526	
3.095	-0.506	-0.07000232107835949	
3.1	-0.500	-0.03685930866344687	
3.105	0.835	-0.016394382088376243	
3.11	-0.135	-0.002639035609280324	
3.115	-0.637	0.001986928364285409	
3.12	0.593	0.013360537507582263	
3.125	0.614	0.039887338690248034	
3.13	-0.568	0.07502836188994003	
3.135	0.089	0.10580710692192126	
3.14	1.064	0.13124413361220022	
3.145	-0.385	0.15734571191536578	
3.15	-0.379	0.16808378905994154	
3.155	1.084	0.16725734164661069	
3.16	0.043	0.17303673106862533	
3.165	-0.526	0.17458986411867694	
3.17	0.883	0.18489979555363567	
3.175	0.902	0.22393784094601799	
3.18	-0.442	0.2765301516128314	
3.185	0.393	0.3190506643035777	
3.19	1.339	0.35752299659977094	
3.195	-0.240	0.39297947385065357	
3.2	-0.190	0.4000505461746674	
3.205	1.401	0.39355121077632843	
3.21	0.335	0.40592179393288663	
3.215	-0.419	0.4144619106033208	
3.22	0.941	0.409993129692923	
3.225	0.770	0.4039028807959619	
3.23	-0.539	0.3875191469481823	
3.235	0.054	0.34506725058894216	
3.24	0.924	0.28140648985013084	
3.245	-0.500	0.21508319344477492	
3.25	-0.509	0.14720060326998394	
3.255	0.730	0.07831184242747387	
3.26	-0.260	0.013885622869151027	
3.265	-0.776	-0.045219423520518755	
3.27	0.272	-0.09013808031666501	
3.275	0.191	-0.12733792826520274	
3.28	-0.793	-0.1571656263113972	
3.285	-0.271	-0.17081943672224587	
3.29	0.538	-0.18593517894662187	
3.295	-0.631	-0.1968256946407539	
3.3	-0.610	-0.19650774602698667	
3.305	0.547	-0.19292042585144203	
3.31	-0.330	-0.19628314801163493	
3.315	-0.796	-0.20193500391801	
3.32	0.239	-0.1981231544875734	
3.325	0.179	-0.1976207108066722	
3.33	-0.767	-0.19506613319447078	
3.335	-0.219	-0.18360027992848693	
3.34	0.574	-0.1751295618178806	
3.345	-0.637	-0.1719672625159484	
3.35	-0.611	-0.16727002986483785	
3.355	0.614	-0.16488997588640703	
3.36	-0.265	-0.16453337045998517	
3.365	-0.739	-0.16184172755148313	
3.37	0.385	-0.1469010332912108	
3.375	0.344	-0.12682019343472978	
3.38	-0.716	-0.10419378984877281	
3.385	-0.163	-0.08333638850628539	
3.39	0.733	-0.07415640614896887	
3.395	-0.553	-0.06823105560017487	
3.4	-0.515	-0.062084367829719524	
3.405	0.780	-0.057721870542495925	
3.41	-0.222	-0.054830189000478556	
3.415	-0.715	-0.057847482600751225	
3.42	0.426	-0.05860596406991562	
3.425	0.291	-0.061007001629993826	
3.43	-0.764	-0.06538952966188812	
3.435	-0.216	-0.07502752444899453	
3.44	0.588	-0.09614726338112792	
3.445	-0.625	-0.12055239160248603	
3.45	-0.588	-0.1358861166939902	
3.455	0.576	-0.14749878863799737	
3.46	-0.318	-0.16417404327217894	
3.465	-0.771	-0.1768694359190675	
3.47	0.277	-0.17620682758315995	
3.475	0.107	-0.18121841608111794	
3.48	-0.808	-0.19170840179639212	
3.485	-0.195	-0.19059544059914857	
3.49	0.924	-0.17100018136357797	
3.495	-0.276	-0.11404186198163141	
3.5	-0.012	-0.014703877255567096	
3.505	1.665	-0.16417404327217894	
3.51	0.297	-0.17100018136357797	
3.515	-0.593	-0.17100018136357797	
3.52	0.240	-0.1432784476179254	
3.525	-0.117	-0.11404186198163141	
3.53	-0.921	0.09790087184878676	
3.535	-0.301	-0.061189443117804866	
3.54	0.536	-0.17882258234688989	
3.545	-0.617	-0.2435392585998644	
3.55	-0.521	-0.25355763254238317	
3.555	0.770	-0.22561409757149795	
3.56	-0.233	-0.18502468210817474	
3.565	-0.678	-0.1432784476179254	
3.57	0.538	-0.097093987307595	
3.575	0.465	-0.05046731995083051	
3.58	-0.619	-0.006689413265887706	
3.585	0.049	0.034240465095812786	
3.59	0.906	0.061440380216052644	
3.595	-0.483	0.07775843031035398	
3.6	-0.388	0.08650097176676114	
3.605	1.038	0.09100370562051255	
3.61	-0.083	0.09852284925731483	
3.615	-0.570	0.10337464438754013	
3.62	0.796	0.11557614007793152	
3.625	0.648	0.14148723592718146	
3.63	-0.538	0.17268892854023737	
3.635	0.248	0.20066451487253076	
3.64	1.169	0.22379910975733913	
3.645	-0.327	0.24914891905889802	
3.65	-0.228	0.2645296759454182	
3.655	1.330	0.27556069497810387	
3.66	0.219	0.29916752790947965	
3.665	-0.381	0.3260858250424421	
3.67	1.212	0.3590823175942612	
3.675	1.087	0.41744664297690326	
3.68	-0.335	0.4822686526933089	
3.685	0.693	0.5299439158210459	
3.69	1.531	0.5689687261364	
3.695	-0.181	0.5978002931763349	
3.7	-0.115	0.5875744984541633	
3.705	1.417	0.547752003291218	
3.71	0.219	0.5089956377400249	
3.715	-0.448	0.46708176815203106	
3.72	0.933	0.42118139141702376	
3.725	0.690	0.3813096355655401	
3.73	-0.573	0.34532824272906876	
3.735	0.092	0.30006179405150035	
3.74	0.848	0.2377560640083698	
3.745	-0.535	0.17084243680627842	
3.75	-0.446	0.11287381951061229	
3.755	0.835	0.06256374911074374	
3.76	-0.214	0.019803328004095927	
3.765	-0.642	-0.009578302229108318	
3.77	0.565	-0.015781441090507737	
3.775	0.326	-0.01504916085748845	
3.78	-0.692	-0.014520081876259184	
3.785	-0.002	-0.006647685105424282	
3.79	0.863	-0.0015150716739413764	
3.795	-0.497	0.009712120377394235	
3.8	-0.396	0.026201581515521353	
3.805	0.921	0.038505241638593625	
3.81	-0.173	0.042484435159711176	
3.815	-0.614	0.04161936437315998	
3.82	0.704	0.05041335476051238	
3.825	0.518	0.06864967853083788	
3.83	-0.601	0.09145905636230876	
3.835	0.152	0.11466205469401454	
3.84	1.014	0.13131644828620853	
3.845	-0.410	0.14748864851113752	
3.85	-0.303	0.16049204515740298	
3.855	1.116	0.16855312855183818	
3.86	-0.065	0.17317307755179134	
3.865	-0.492	0.17376430155513883	
3.87	0.957	0.18663521252396495	
3.875	0.733	0.22038446012997304	
3.88	-0.495	0.2594165098193153	
3.885	0.384	0.2909321020193534	
3.89	1.192	0.31217136132783285	
3.895	-0.355	0.32732183884190424	
3.9	-0.259	0.32272144273152414	
3.905	1.144	0.2985234384511205	
3.91	-0.100	0.2669654399939998	
3.915	-0.568	0.22794933395208852	
3.92	0.727	0.19168833625395243	
3.925	0.475	0.16312918567423002	
3.93	-0.593	0.14355265335181297	
3.935	0.179	0.13713589226846246	
3.94	0.964	0.1339153860598703	
3.945	-0.431	0.13629839083378326	
3.95	-0.308	0.14103033483871452	
3.955	1.028	0.14138031830736286	
3.96	-0.134	0.1357447720132354	
3.965	-0.558	0.1262259107612052	
3.97	0.796	0.12575473932228215	
3.975	0.796	0.14783481633457238	
3.98	-0.224	0.20670014788310914	
3.985	1.221	0.32441080251907417	
3.99	1.960	0.5056990392033051	
3.995	-0.005	0.14138031830736286	
4.0	-0.161	0.14783481633457238	
4.005	0.751	0.15371740392925257	
4.01	-0.402	0.5466134751521732	
4.015	-0.729	0.33451181449288464	
4.02	0.507	0.15371740392925257	
4.025	0.390	0.02963200228479399	
4.03	-0.533	-0.026061660353462336	
4.035	0.294	-0.01353485385181815	
4.04	1.015	0.03537540511064947	
4.045	-0.340	0.09732929983352277	
4.05	-0.173	0.15552712153838216	
4.055	1.205	0.2030198757029461	
4.06	0.049	0.24148722875504877	
4.065	-0.393	0.2667363742213559	
4.07	0.997	0.28965329633778003	
4.075	0.753	0.31737385893554226	
4.08	-0.378	0.34705744688146545	
4.085	0.582	0.3775384304694895	
4.09	1.238	0.40614773938309356	
4.095	-0.250	0.42838574368133436	
4.1	-0.088	0.42869587689986216	
4.105	1.295	0.4128244849670337	
4.11	0.158	0.39846631693599244	
4.115	-0.312	0.3879949003305562	
4.12	1.189	0.39051564123758903	
4.125	0.947	0.4212197008276596	
4.13	-0.260	0.46534987812507345	
4.135	0.837	0.5115027321415724	
4.14	1.533	0.566848177109637	
4.145	-0.065	0.6196606036243757	
4.15	0.243	0.6458352298645444	
4.155	1.693	0.6594015223516583	
4.16	0.536	0.6846294390847537	
4.165	-0.120	0.7023659802530045	
4.17	1.449	0.7080146464535407	
4.175	1.121	0.7220961156686773	
4.18	-0.221	0.7329940033464732	
4.185	0.815	0.72417532539229	
4.19	1.403	0.7062949723627542	
4.195	-0.189	0.6803887257294614	
4.2	-0.060	0.623980814397876	
4.205	1.202	0.5434740082889727	
4.21	-0.080	0.4580394321979383	
4.215	-0.497	0.36611730886835125	
4.22	0.750	0.28211560877592834	
4.225	0.552	0.22489711807021917	
4.23	-0.483	0.19613001825886786	
4.235	0.072	0.17971736507142355	
4.24	0.425	0.133374085727374	
4.245	-0.765	0.04937384500871183	
4.25	-0.720	-0.0486761743842149	
4.255	-0.037	-0.17069689997537726	
4.26	-0.706	-0.31662932188229903	
4.265	-0.996	-0.43391484608141323	
4.27	-0.413	-0.5126845531518585	
4.275	-0.631	-0.6046020400876586	
4.28	-0.994	-0.6819369511690431	
4.285	-0.822	-0.7052514173426516	
4.29	-0.524	-0.741384290349922	
4.295	-0.996	-0.7973246624097698	
4.3	-0.996	-0.8030984537445007	
4.305	-0.399	-0.7950411570305104	
4.31	-0.938	-0.818063188156031	
4.315	-0.996	-0.8195579995147115	
4.32	-0.379	-0.779262288192679	
4.325	-0.462	-0.7540959596648282	
4.33	-0.996	-0.7283539874759918	
4.335	-0.405	-0.664483546140549	
4.34	0.060	-0.6011849405366592	
4.345	-0.839	-0.5543789422124397	
4.35	-0.660	-0.4958215381556695	
4.355	0.364	-0.4389744194236503	
4.36	-0.460	-0.3979911500772351	
4.365	-0.781	-0.35524472900179294	
4.37	0.341	-0.3018533169668419	
4.375	-0.030	-0.2652041225095533	
4.38	-0.822	-0.24284823624602137	
4.385	-0.155	-0.21950140730095272	
4.39	0.472	-0.21021631801514384	
4.395	-0.709	-0.2080145211259175	
4.4	-0.530	-0.19682428498897905	
4.405	0.680	-0.18424765931581272	
4.41	-0.274	-0.17204725226612588	
4.415	-0.469	-0.13735930719836328	
4.42	1.604	-0.030975143284339715	
4.425	1.762	0.19398256498729893	
4.43	0.562	0.5093119975698281	
4.435	2.051	0.8534889004685302	
4.44	2.755	1.195002570980209	
4.445	0.945	1.4872156900999784	
4.45	1.200	1.6678844500157952	
4.455	2.547	1.743446056153415	
4.46	1.171	1.746120673818239	
4.465	0.564	1.6904363885205775	
4.47	2.654	1.6283847497043333	
4.475	2.592	1.6442308317408105	
4.48	0.924	1.7299088545846757	
4.485	2.477	1.8300603633657613	
4.49	2.999	1.9379332541839627	
4.495	0.179	1.9821823808126497	
4.5	0.027	1.838548182083318	
4.505	1.729	1.5423894012058663	
4.51	0.426	1.2339930162476418	
4.515	-0.213	0.9769774714689644	
4.52	1.420	0.7857742512071597	
4.525	1.021	0.6713067578720431	
4.53	-0.266	0.6156402315162988	
4.535	1.014	0.6021934793070655	
4.54	1.716	0.6320042200456599	
4.545	-0.057	0.6822142709906674	
4.55	0.300	0.7128110532405671	
4.555	1.745	0.7243148095540374	
4.56	0.326	0.7277825736581682	
4.565	-0.236	0.709125933742891	
4.57	1.484	0.6797046703574432	
4.575	1.075	0.672095751669016	
4.58	-0.292	0.6758627704705877	
4.585	0.848	0.6721615698749963	
4.59	1.420	0.6636515279249837	
4.595	-0.253	0.6454884685793335	
4.6	0.016	0.6050196403855578	
4.605	1.496	0.5538449982250382	
4.61	0.144	0.5149141461407956	
4.615	-0.337	0.48062512529119106	
4.62	1.238	0.4572406645227682	
4.625	0.837	0.45485584930819306	
4.63	-0.373	0.4645364214080258	
4.635	0.754	0.4799883166906848	
4.64	1.446	0.5040617043190186	
4.645	-0.190	0.535093446793369	
4.65	0.135	0.5492687446097292	
4.655	1.606	0.554026807974286	
4.66	0.284	0.5661772922975941	
4.665	-0.257	0.5693140759012403	
4.67	1.325	0.5634731041541081	
4.675	0.852	0.5635888580383936	
4.68	-0.395	0.5605155930658798	
4.685	0.619	0.5426084269874251	
4.69	1.119	0.51021791609641	
4.695	-0.428	0.4660134524977947	
4.7	-0.236	0.40156858767811077	
4.705	1.000	0.31985465020824255	
4.71	-0.254	0.23659085898878918	
4.715	-0.617	0.16029465295878265	
4.72	0.596	0.09646888359612668	
4.725	0.111	0.03821316921984739	
4.73	-0.741	-0.0142243230341432	
4.735	-0.053	-0.04974476959213946	
4.74	0.494	-0.08779497221994641	
4.745	-0.678	-0.12200467795576384	
4.75	-0.460	-0.13797518388116028	
4.755	0.596	-0.14732780646454952	
4.76	-0.437	-0.16315471257850553	
4.765	-0.726	-0.17373690254338042	
4.77	0.452	-0.16933463471758128	
4.775	-0.025	-0.1692389536156203	
4.78	-0.790	-0.17423080313098027	
4.785	-0.073	-0.17091092197755653	
4.79	0.468	-0.17262399455515437	
4.795	-0.691	-0.17637936893759848	
4.8	-0.456	-0.16858224543219458	
4.805	0.628	-0.1611379915883871	
4.81	-0.427	-0.16105438484943158	
4.815	-0.729	-0.1620569762865085	
4.82	0.411	-0.1578285545270842	
4.825	-0.062	-0.16559493379606854	
4.83	-0.816	-0.1795809866680323	
4.835	-0.105	-0.18694711444023926	
4.84	0.487	-0.1941925334232812	
4.845	-0.683	-0.19502078073626847	
4.85	-0.453	-0.18125151826481736	
4.855	0.675	-0.16664644942489837	
4.86	-0.388	-0.15407776431740905	
4.865	-0.677	-0.1425726249383435	
4.87	0.562	-0.12306575590988332	
4.875	0.069	-0.10690405114628881	
4.88	-0.710	-0.09618861755494083	
4.885	0.098	-0.08087888705057467	
4.89	0.637	-0.0675975452779928	
4.895	-0.659	-0.05587267174159044	
4.9	-0.466	-0.05398857705273803	
4.905	0.577	-0.07296943618019947	
4.91	-0.466	-0.10816390955753598	
4.915	-0.771	-0.14321816850039049	
4.92	0.329	-0.17117491765750148	
4.925	-0.132	-0.20418624028299182	
4.93	-0.865	-0.23492842970379427	
4.935	-0.150	-0.2507240817140947	
4.94	0.355	-0.2639180466333375	
4.945	-0.755	-0.2708575885492771	
4.95	-0.523	-0.2626506567318495	
4.955	0.428	-0.2571066542418734	
4.96	-0.568	-0.2674363895792321	
4.965	-0.796	-0.2779689825775958	
4.97	0.617	-0.26298435019422833	
4.975	0.550	-0.20045333170899637	
4.98	-0.352	-0.08591653207554298	
4.985	0.858	0.06858757529893657	
4.99	1.083	0.22991066706462396	
4.995	-0.665	-0.2626506567318495	
5.0	-0.646	-0.2571066542418734	
5.005	-0.015	0.1829040381087354	
5.01	-0.730	-0.0346749442366361	
5.015	-0.933	-0.23079120932219052	
5.02	0.141	-0.35776463346855497	
5.025	-0.185	-0.43275223716857386	
5.03	-0.865	-0.4560000162495027	
5.035	-0.106	-0.4270306508342793	
5.04	0.449	-0.37817578609128627	
5.045	-0.703	-0.3204627314464944	
5.05	-0.417	-0.2560604132499571	
5.055	0.744	-0.19778720947199024	
5.06	-0.411	-0.1532445299740306	
5.065	-0.674	-0.12186740287841838	
5.07	0.637	-0.09522340866911433	
5.075	0.112	-0.07207936195207622	
5.08	-0.709	-0.0564621703671839	
5.085	0.169	-0.03949509398919922	
5.09	0.684	-0.026055941448812053	
5.095	-0.607	-0.012092881802391802	
5.1	-0.309	-0.00081564529973101	
5.105	0.918	0.006703136865573448	
5.11	-0.298	0.014234400092739706	
5.115	-0.558	0.020977998481461195	
5.12	0.867	0.03640926358048771	
5.125	0.378	0.06671747513995367	
5.13	-0.549	0.10405804512645431	
5.135	0.597	0.1490075405046224	
5.14	1.160	0.2101302483065147	
5.145	-0.378	0.2773265023540024	
5.15	-0.028	0.31932521779083833	
5.155	1.408	0.34012303897621743	
5.16	-0.024	0.3638575348429225	
5.165	-0.327	0.37282487979347123	
5.17	1.330	0.3798010471220021	
5.175	0.706	0.41061780975402284	
5.18	-0.466	0.4398127652999493	
5.185	0.660	0.44517767946629144	
5.19	1.092	0.43813673202933767	
5.195	-0.468	0.42221380108520534	
5.2	-0.208	0.37642167749159894	
5.205	1.046	0.30706777612419356	
5.21	-0.295	0.23781682681073385	
5.215	-0.602	0.17000838240728233	
5.22	0.675	0.10868062543705001	
5.225	0.069	0.05345036225459382	
5.23	-0.715	0.006103175964629004	
5.235	0.144	-0.022774059953681036	
5.24	0.582	-0.04317370784931278	
5.245	-0.662	-0.05560928635422145	
5.25	-0.367	-0.06031657420911944	
5.255	0.762	-0.06622871748611667	
5.26	-0.431	-0.07527029939181218	
5.265	-0.678	-0.08366322600639975	
5.27	0.599	-0.08741960093299324	
5.275	-0.001	-0.09181486072136774	
5.28	-0.758	-0.09767340039942597	
5.285	0.098	-0.09766053610483079	
5.29	0.564	-0.09645947309123257	
5.295	-0.649	-0.0925694652349876	
5.3	-0.353	-0.08006560357377414	
5.305	0.750	-0.0744031126529335	
5.31	-0.420	-0.07542976937602047	
5.315	-0.669	-0.07841591851366386	
5.32	0.577	-0.08039309398188078	
5.325	-0.022	-0.08807994130947877	
5.33	-0.753	-0.09857002222464994	
5.335	0.132	-0.09944093082189293	
5.34	0.547	-0.09666750775399646	
5.345	-0.680	-0.09269102917461874	
5.35	-0.355	-0.08379879755661272	
5.355	0.794	-0.0784112788788843	
5.36	-0.373	-0.0726870250883746	
5.365	-0.607	-0.06426493511793105	
5.37	0.738	-0.047199979973241386	
5.375	0.092	-0.029326012732289082	
5.38	-0.692	-0.01763814806116746	
5.385	0.315	-0.00216628119585416	
5.39	0.748	0.019253735634077916	
5.395	-0.614	0.04108039399374549	
5.4	-0.286	0.05238543081963425	
5.405	0.907	0.048685526962725115	
5.41	-0.369	0.03907164883689969	
5.415	-0.652	0.024772634356172073	
5.42	0.568	0.001986851470364839	
5.425	-0.066	-0.034500405720705014	
5.43	-0.781	-0.07471587634343724	
5.435	0.071	-0.10092268928047937	
5.44	0.494	-0.1208104946135194	
5.445	-0.707	-0.13213108031822637	
5.45	-0.381	-0.12938277512859078	
5.455	0.700	-0.1271905595973844	
5.46	-0.466	-0.12925355155733476	
5.465	-0.706	-0.1301722889166677	
5.47	0.524	-0.12866764278511947	
5.475	-0.051	-0.13574824889238313	
5.48	-0.688	-0.13894699002565092	
5.485	0.631	-0.09847943375910191	
5.49	1.495	0.014284217439966823	
5.495	-0.103	0.18944231474624793	
5.5	0.402	-0.1271905595973844	
5.505	1.406	-0.1271905595973844	
5.51	-0.358	-0.10499147097343427	
5.515	-0.787	-0.09847943375910191	
5.52	0.167	0.3246427690278162	
5.525	-0.277	0.10714729691215574	
5.53	-0.863	-0.08912812813536962	
5.535	0.037	-0.20720224998222153	
5.54	0.530	-0.2597295631072878	
5.545	-0.665	-0.2578596630362392	
5.55	-0.321	-0.21497760585053746	
5.555	0.906	-0.16066607511586023	
5.56	-0.340	-0.10499147097343427	
5.565	-0.546	-0.052262813734179736	
5.57	0.881	-0.0008577476675029959	
5.575	0.210	0.043844345137200716	
5.58	-0.636	0.07646151144894175	
5.585	0.443	0.10323298768073311	
5.59	0.890	0.12932059003624813	
5.595	-0.524	0.1555844330450549	
5.6	-0.155	0.17223994139440343	
5.605	1.151	0.174713105277509	
5.61	-0.240	0.17755706574840513	
5.615	-0.446	0.17865296007466874	
5.62	1.060	0.1836420300551865	
5.625	0.373	0.19963504356575143	
5.63	-0.538	0.21713889595815336	
5.635	0.661	0.23764986382518508	
5.64	1.073	0.2683743711198011	
5.645	-0.411	0.3031671591440712	
5.65	0.054	0.32545052871973934	
5.655	1.441	0.34096882296733044	
5.66	-0.062	0.36422042416433975	
5.665	-0.279	0.3776308098370702	
5.67	1.432	0.3929339161596254	
5.675	0.719	0.4334895356204781	
5.68	-0.375	0.4770151211176857	
5.685	0.964	0.5078122255875297	
5.69	1.316	0.5393174521454496	
5.695	-0.332	0.5651052963777626	
5.7	0.117	0.5565353648829519	
5.705	1.379	0.5198453985512326	
5.71	-0.178	0.4762260544052151	
5.715	-0.445	0.41581792884566515	
5.72	0.933	0.3437153152512023	
5.725	0.158	0.2703706295992079	
5.73	-0.659	0.200380503238758	
5.735	0.330	0.14472822944446853	
5.74	0.637	0.09797846078686433	
5.745	-0.683	0.059448338631845996	
5.75	-0.353	0.02673254599424397	
5.755	0.727	-0.01460005849451572	
5.76	-0.449	-0.05569276330079614	
5.765	-0.639	-0.08074227828272187	
5.77	0.655	-0.08756675836410925	
5.775	-0.083	-0.09489091365777379	
5.78	-0.761	-0.1042233991525432	
5.785	0.181	-0.1012413756501831	
5.79	0.521	-0.09841548095646944	
5.795	-0.689	-0.09339102009236447	
5.8	-0.318	-0.08098061669636043	
5.805	0.777	-0.07488127211080021	
5.81	-0.451	-0.07483312931463874	
5.815	-0.637	-0.07443977937516943	
5.82	0.655	-0.06959638311703442	
5.825	-0.070	-0.0741716426167453	
5.83	-0.749	-0.08307288733164767	
5.835	0.243	-0.080038372765375	
5.84	0.609	-0.0706448982196839	
5.845	-0.654	-0.054479293036617776	
5.85	-0.277	-0.034714750318281126	
5.855	0.849	-0.024925647677281615	
5.86	-0.410	-0.022084898232404324	
5.865	-0.559	-0.018267998685447512	
5.87	0.877	-0.003413159397067788	
5.875	0.159	0.018578269505738446	
5.88	-0.628	0.042885007458909025	
5.885	0.484	0.07223377512849777	
5.89	0.831	0.10423418454775765	
5.895	-0.532	0.13530231458573877	
5.9	-0.121	0.1575177535085481	
5.905	1.154	0.16614871104285114	
5.91	-0.272	0.17464754394830012	
5.915	-0.486	0.17581830075497334	
5.92	0.918	0.16776338254744108	
5.925	0.118	0.1533492952674836	
5.93	-0.672	0.12985047566814376	
5.935	0.361	0.10847862525090293	
5.94	0.629	0.08509865376974679	
5.945	-0.637	0.06515050007482041	
5.95	-0.242	0.049777396064087515	
5.955	0.849	0.03015211678667475	
5.96	-0.410	0.009378749668023921	
5.965	-0.567	-0.004004939612948387	
5.97	0.788	-0.005029312830856258	
5.975	-0.012	-0.006936561552359236	
5.98	-0.712	-0.013202869507245711	
5.985	0.339	-0.010185726990516255	
5.99	0.700	-0.0010162673595695887	
5.995	-0.543	0.019876218893125186	
6.0	0.140	0.0640715582693082	
6.005	1.768	0.1523411510216716	
6.01	0.303	0.29706920137253656	
6.015	-0.123	0.44099150611289223	
6.02	1.310	0.5331619808651218	
6.025	0.049	0.5488196206503471	
6.03	-0.858	0.471656724285621	
6.035	-0.160	0.3170005671968805	
6.04	0.066	0.10587737275028894	
6.045	-0.829	-0.09522976447260582	
6.05	-0.364	-0.21864545994423784	
6.055	0.776	-0.26567335424251287	
6.06	-0.434	-0.26023596219062006	
6.065	-0.564	-0.21377520463852695	
6.07	0.843	-0.14651421238747414	
6.075	0.077	-0.08048564050976456	
6.08	-0.648	-0.025419253931417005	
6.085	0.532	0.029500491044933998	
6.09	0.866	0.08478367433739356	
6.095	-0.517	0.1372704141900919	
6.1	-0.070	0.17759565716358855	
6.105	1.163	0.19554738902614255	
6.11	-0.265	0.20528461991713515	
6.115	-0.408	0.20822875204394942	
6.12	1.122	0.21293570563947145	
6.125	0.298	0.22324257594842997	
6.13	-0.524	0.2353268022461318	
6.135	0.733	0.25193820307889425	
6.14	0.986	0.2757621207061768	
6.145	-0.460	0.3018632712871696	
6.15	0.075	0.31588001746519423	
6.155	1.363	0.32077287919470376	
6.16	-0.170	0.329891905701427	
6.165	-0.300	0.3332714168858139	
6.17	1.380	0.34127251035962064	
6.175	0.570	0.3710071885011922	
6.18	-0.398	0.4071947858322798	
6.185	1.047	0.4432236320430681	
6.19	1.310	0.4916784306202271	
6.195	-0.303	0.5406893745927461	
6.2	0.349	0.564061882567229	
6.205	1.523	0.5677414051373982	
6.21	-0.106	0.5607472738890572	
6.215	-0.285	0.5284150364923174	
6.22	1.314	0.48322584506681476	
6.225	0.414	0.44786738665591974	
6.23	-0.500	0.4164025534527341	
6.235	0.712	0.38519748503524326	
6.24	0.814	0.3524197985114592	
6.245	-0.585	0.31291990458038155	
6.25	-0.170	0.26220357841893127	
6.255	0.931	0.19638881479579795	
6.26	-0.428	0.1318543906384506	
6.265	-0.550	0.07978229691602859	
6.27	0.825	0.04592802738689349	
6.275	-0.005	0.020678395192217324	
6.28	-0.672	0.0038171828052571614	
6.285	0.425	0.007163376485898739	
6.29	0.611	0.016056621499322882	
6.295	-0.636	0.02716913696393457	
6.3	-0.182	0.038424027604313654	
6.305	0.942	0.04104333119449871	
6.31	-0.391	0.04083136118882878	
6.315	-0.494	0.045102351442355686	
6.32	0.901	0.05376038452662982	
6.325	0.017	0.05945057527879719	
6.33	-0.642	0.05807374202614091	
6.335	0.506	0.06622356916388081	
6.34	0.719	0.08078484057612538	
6.345	-0.588	0.09826424417926981	
6.35	-0.135	0.11162090189214108	
6.355	1.000	0.11083601396345981	
6.36	-0.382	0.10375438316554414	
6.365	-0.504	0.09633582391399723	
6.37	0.930	0.09069902373844378	
6.375	0.062	0.08626697991288587	
6.38	-0.613	0.08224828435725687	
6.385	0.591	0.09331189763274315	
6.39	0.803	0.1165722787914641	
6.395	-0.530	0.14730585149087455	
6.4	-0.066	0.1698027129465961	
6.405	1.118	0.17668150268801586	
6.41	-0.306	0.17966883019339216	
6.415	-0.420	0.179543827387724	
6.42	1.003	0.17564628492973747	
6.425	0.118	0.17008042256685008	
6.43	-0.584	0.16041733537867753	
6.435	0.565	0.15738440332633713	
6.44	0.672	0.15533109168476922	
6.445	-0.622	0.14836613267934207	
6.45	-0.172	0.1340093212384795	
6.455	0.890	0.1034970576848547	
6.46	-0.448	0.06957160357892893	
6.465	-0.550	0.042798235951261324	
6.47	0.805	0.02361675786986145	
6.475	-0.079	0.0038492045074228765	
6.48	-0.713	-0.014424887877207531	
6.485	0.344	-0.02046012612549622	
6.49	0.494	-0.025905355973988672	
6.495	-0.652	-0.029664446544258146	
6.5	-0.073	-0.015702170016355724	
6.505	1.359	0.024448013684367945	
6.51	0.019	0.10937528567967031	
6.515	-0.005	0.2229899558130694	
6.52	1.691	0.35271806078742624	
6.525	0.416	0.47559093222849824	
6.53	-0.659	0.5295388803085272	
6.535	0.069	0.47361703844006287	
6.54	0.025	0.3068827459002804	
6.545	-0.890	0.09733213660464374	
6.55	-0.376	-0.07142750184447534	
6.555	0.660	-0.18166505006065067	
6.56	-0.506	-0.23682626595736153	
6.565	-0.547	-0.23174424863516613	
6.57	0.828	-0.1871697143436272	
6.575	-0.054	-0.1327248439917282	
6.58	-0.649	-0.08234492189519606	
6.585	0.550	-0.025919824939773625	
6.59	0.703	0.03071425423313668	
6.595	-0.568	0.08097914206879024	
6.6	-0.053	0.11985159882500883	
6.605	1.093	0.1404329744215388	
6.61	-0.352	0.15272673904075343	
6.615	-0.428	0.15831564588189684	
6.62	1.101	0.16218519589245994	
6.625	0.205	0.17399886434923167	
6.63	-0.524	0.18948730842399147	
6.635	0.794	0.2144638650251589	
6.64	0.913	0.247648558505348	
6.645	-0.468	0.28265736855614815	
6.65	0.176	0.30612325556073605	
6.655	1.314	0.32057811583654083	
6.66	-0.243	0.33238744063367753	
6.665	-0.305	0.33038860130227365	
6.67	1.345	0.32744445995600513	
6.675	0.449	0.34378458677026386	
6.68	-0.390	0.3704134281915263	
6.685	1.110	0.40569560369668944	
6.69	1.264	0.460559807640544	
6.695	-0.309	0.5205455736852245	
6.7	0.437	0.5562654594762754	
6.705	1.540	0.5715134041738432	
6.71	-0.134	0.5753117425347949	
6.715	-0.225	0.5495280441102844	
6.72	1.346	0.5063340807330436	
6.725	0.315	0.46768449699033554	
6.73	-0.492	0.4276464948806869	
6.735	0.735	0.3865957528056109	
6.74	0.762	0.3443109869647718	
6.745	-0.568	0.3028480688463422	
6.75	-0.091	0.25736553747747337	
6.755	0.916	0.1981189470999885	
6.76	-0.463	0.13747902863692446	
6.765	-0.529	0.08790128085794063	
6.77	0.788	0.04797870574076569	
6.775	-0.128	0.010513947598734646	
6.78	-0.700	-0.019893886031038064	
6.785	0.426	-0.02946389333188943	
6.79	0.521	-0.027079372227712013	
6.795	-0.649	-0.01787135920481328	
6.8	-0.141	-0.0014013170192083224	
6.805	0.884	0.007739172998195663	
6.81	-0.456	0.011456535332443554	
6.815	-0.495	0.018255450777067916	
6.82	0.846	0.02380026957910173	
6.825	-0.114	0.0212586198754108	
6.83	-0.674	0.011385649101242826	
6.835	0.521	0.013617695295969913	
6.84	0.609	0.026615340682424025	
6.845	-0.619	0.04621026192807791	
6.85	-0.083	0.06583583014938214	
6.855	0.988	0.07452932630841538	
6.86	-0.410	0.08134468494270164	
6.865	-0.436	0.08751856934249362	
6.87	1.040	0.09676411801211166	
6.875	0.086	0.11204348033079485	
6.88	-0.559	0.12756394740343924	
6.885	0.738	0.14971482455298063	
6.89	0.814	0.1823690665557128	
6.895	-0.506	0.21726784206277971	
6.9	0.136	0.24303501177650214	
6.905	1.206	0.25733032327877303	
6.91	-0.308	0.26727877044461823	
6.915	-0.359	0.264753185096809	
6.92	1.105	0.2516386212902427	
6.925	0.066	0.23587298787285801	
6.93	-0.584	0.21281144048912204	
6.935	0.608	0.19270842930751747	
6.94	0.571	0.17109712915673797	
6.945	-0.659	0.14645121682913897	
6.95	-0.141	0.11819967281427027	
6.955	0.834	0.07803779517413509	
6.96	-0.491	0.04030469490998282	
6.965	-0.504	0.015068637727441889	
6.97	0.782	-0.0005401463685388947	
6.975	-0.179	-0.019332889936071507	
6.98	-0.721	-0.03889875223701511	
6.985	0.391	-0.04623236540803993	
6.99	0.408	-0.05120453565726182	
6.995	-0.700	-0.053446778106231004	
7.0	-0.121	-0.044541067261402834	
7.005	1.163	-0.02115106507983108	
7.01	-0.121	0.03919697775941689	
7.015	0.088	0.13935041471054344	
7.02	1.832	0.28146229296100594	
7.025	0.500	0.44442949029013007	
7.03	-0.570	0.5471692689929261	
7.035	0.217	0.5277383341468085	
7.04	-0.041	0.3815091797449951	
7.045	-0.909	0.17167705510908624	
7.05	-0.349	-0.013289050631330845	
7.055	0.552	-0.1513807996918778	
7.06	-0.567	-0.23288922361445774	
7.065	-0.544	-0.251337437681481	
7.07	0.790	-0.2216148120461422	
7.075	-0.149	-0.1768529487745576	
7.08	-0.683	-0.13054193134731998	
7.085	0.506	-0.07892054224503778	
7.09	0.519	-0.03174050900736318	
7.095	-0.639	0.007521183693802829	
7.1	-0.086	0.037985499516674424	
7.105	0.930	0.05054315042297229	
7.11	-0.449	0.05777081718612847	
7.115	-0.440	0.06383072898752662	
7.12	1.005	0.07157262298598252	
7.125	-0.012	0.08184345082367739	
7.13	-0.591	0.09044516740770887	
7.135	0.672	0.1054010400637073	
7.14	0.680	0.12709047920790717	
7.145	-0.536	0.1513170725769227	
7.15	0.155	0.17729788795024692	
7.155	1.195	0.2005767145525647	
7.16	-0.320	0.22645482248594218	
7.165	-0.289	0.2419809569914784	
7.17	1.310	0.2557720591065627	
7.175	0.251	0.28158968315262306	
7.18	-0.417	0.30843213983186746	
7.185	1.119	0.3406385875447464	
7.19	1.118	0.39595900581402876	
7.195	-0.340	0.4582193484752887	
7.2	0.516	0.5004546139174199	
7.205	1.462	0.5274897146415867	
7.21	-0.204	0.5413795658203171	
7.215	-0.199	0.5201172751855465	
7.22	1.356	0.47965184426947444	
7.225	0.188	0.44352700686018415	
7.23	-0.514	0.4016636050731618	
7.235	0.738	0.3534815612983484	
7.24	0.599	0.3037453276847749	
7.245	-0.643	0.2515645387210046	
7.25	-0.123	0.19447156592836545	
7.255	0.774	0.12308915884446836	
7.26	-0.543	0.055654906582221046	
7.265	-0.547	0.005451297958263483	
7.27	0.666	-0.034789567045946296	
7.275	-0.268	-0.0755582590209972	
7.28	-0.776	-0.10983652356828749	
7.285	0.263	-0.1276798030643458	
7.29	0.239	-0.14664163469369595	
7.295	-0.768	-0.1600741869100007	
7.3	-0.231	-0.15631566683177134	
7.305	0.645	-0.1543308084804239	
7.31	-0.558	-0.1523497390592586	
7.315	-0.514	-0.13516432741141202	
7.32	0.776	-0.10995709578351864	
7.325	-0.198	-0.0898513917458995	
7.33	-0.684	-0.07456773462324279	
7.335	0.544	-0.05152654160770565	
7.34	0.460	-0.022963215472847208	
7.345	-0.666	0.0019145827719731711	
7.35	-0.086	0.020971608967763372	
7.355	0.790	0.02251498451004068	
7.36	-0.533	0.012426751880293137	
7.365	-0.475	0.004083593748465239	
7.37	0.918	0.0031334925961387884	
7.375	-0.102	0.007872697165868525	
7.38	-0.605	0.01650389282405688	
7.385	0.669	0.0387158586457189	
7.39	0.559	0.06783848323834088	
7.395	-0.614	0.09477966135038088	
7.4	0.049	0.11324119359158215	
7.405	1.018	0.12251030316325676	
7.41	-0.416	0.13118017628070766	
7.415	-0.388	0.1362259320875861	
7.42	0.994	0.1332661718275094	
7.425	-0.108	0.1236311875004516	
7.43	-0.611	0.10750713060132963	
7.435	0.664	0.09894212212085805	
7.44	0.494	0.09769519275969266	
7.445	-0.668	0.0956515589843272	
7.45	-0.085	0.08646239018534779	
7.455	0.796	0.06048938330493643	
7.46	-0.535	0.031965180678714775	
7.465	-0.500	0.010395294457694083	
7.47	0.774	-0.00859697861560851	
7.475	-0.228	-0.030619763289605226	
7.48	-0.715	-0.050476797248126086	
7.485	0.466	-0.05579091354329916	
7.49	0.324	-0.05748103999219926	
7.495	-0.745	-0.059535392989665196	
7.5	-0.170	-0.059226205079185856	
7.505	0.793	-0.06446904725509386	
7.51	-0.385	-0.05837534714193979	
7.515	-0.118	-0.014411715880524582	
7.52	1.864	0.09675141340604816	
7.525	0.735	0.28010171255909966	
7.53	-0.318	-0.05579091354329916	
7.535	0.811	-0.05748103999219926	
7.54	0.167	-0.05748103999219926	
7.545	-0.913	0.4072134916582807	
7.55	-0.333	0.23005264513174709	
7.555	0.471	0.04558721119382435	
7.56	-0.626	-0.10564263430823101	
7.565	-0.546	-0.18523402421265378	
7.57	0.771	-0.20609998718677286	
7.575	-0.190	-0.194253468888761	
7.58	-0.659	-0.16058221522004357	
7.585	0.588	-0.10605577605379593	
7.59	0.471	-0.049822315790512786	
7.595	-0.633	-0.00010424336427305794	
7.6	0.071	0.04446511577101727	
7.605	1.011	0.0776914855161019	
7.61	-0.428	0.10578881502556539	
7.615	-0.353	0.12687081219460591	
7.62	1.118	0.14132554461069485	
7.625	-0.019	0.15432881516281902	
7.63	-0.541	0.16220082723313145	
7.635	0.887	0.17747629102138696	
7.64	0.773	0.20808786021778733	
7.645	-0.497	0.24545204872621543	
7.65	0.323	0.2778266376811782	
7.655	1.232	0.30089590883283285	
7.66	-0.300	0.32031892454379524	
7.665	-0.201	0.32696078850284993	
7.67	1.443	0.33371612077410356	
7.675	0.298	0.35703351962287655	
7.68	-0.358	0.38604709829027656	
7.685	1.305	0.42183549546443905	
7.69	1.177	0.48200284783259356	
7.695	-0.292	0.550205339408707	
7.7	0.783	0.6000420652457805	
7.705	1.693	0.6459433046253661	
7.71	-0.091	0.6851315282564345	
7.715	-0.015	0.6850330226834098	
7.72	1.609	0.6557148411844526	
7.725	0.349	0.6289493282494367	
7.73	-0.367	0.5951831415167588	
7.735	1.087	0.5517420644490862	
7.74	0.786	0.5118340114309032	
7.745	-0.543	0.46648188145899105	
7.75	0.155	0.4070388567323156	
7.755	0.944	0.3285709102073789	
7.76	-0.510	0.24940684656662213	
7.765	-0.442	0.17835095518212335	
7.77	0.854	0.1132638797149835	
7.775	-0.224	0.05390097006404042	
7.78	-0.681	0.007709725249754938	
7.785	0.555	-0.013476927926231012	
7.79	0.342	-0.022541963977316407	
7.795	-0.700	-0.026072233095862953	
7.8	-0.056	-0.01981887507542754	
7.805	0.780	-0.02091377112993493	
7.81	-0.561	-0.02446319557502314	
7.815	-0.446	-0.02026922720865252	
7.82	0.848	-0.01606666850674516	
7.825	-0.219	-0.017294267051759578	
7.83	-0.659	-0.019903323454902137	
7.835	0.616	-0.009513033645375316	
7.84	0.420	0.0051069549239525	
7.845	-0.660	0.022134135008081965	
7.85	0.030	0.03939657914141215	
7.855	0.866	0.04677396250234904	
7.86	-0.518	0.049488957036371364	
7.865	-0.410	0.052046369658235246	
7.87	0.933	0.05180717429206032	
7.875	-0.187	0.046468322244744564	
7.88	-0.613	0.04034685647973847	
7.885	0.716	0.046584450085950996	
7.89	0.533	0.06581813577001114	
7.895	-0.601	0.09220847730302796	
7.9	0.181	0.11863981512351215	
7.905	1.038	0.1395643727826314	
7.91	-0.422	0.1593775345642196	
7.915	-0.311	0.17231303370133072	
7.92	1.142	0.17774437924433528	
7.925	-0.050	0.18224625523380816	
7.93	-0.530	0.18155195860074075	
7.935	0.817	0.18365680019103364	
7.94	0.576	0.19054609308251513	
7.945	-0.564	0.19730809693919152	
7.95	0.217	0.20284639681994632	
7.955	0.947	0.1983214545566644	
7.96	-0.506	0.18431611911575077	
7.965	-0.384	0.16058876193188928	
7.97	0.887	0.1276279402344263	
7.975	-0.237	0.08703939823790979	
7.98	-0.655	0.047797121257008544	
7.985	0.597	0.024734209060392382	
7.99	0.320	0.010275232097728746	
7.995	-0.678	0.0013887214275064448	
8.0	-0.004	0.003077759346820833	
8.005	0.761	-0.0018668539647953184	
8.01	-0.578	-0.008805191619137221	
8.015	-0.456	-0.012148022107334665	
8.02	0.921	-0.012361145973077716	
8.025	-0.022	-0.0012064739068496397	
8.03	-0.260	0.04095001602489322	
8.035	1.780	0.16099245214300564	
8.04	1.527	0.37311845440395086	
8.045	-0.282	0.5942534935979724	
8.05	0.298	0.7051161311529587	
8.055	0.599	0.6639644820305413	
8.06	-0.785	0.5051150367161279	
8.065	-0.669	0.2960148311247334	
8.07	0.458	0.08757461023533711	
8.075	-0.369	-0.0912877808247272	
8.08	-0.720	-0.19984563709822684	
8.085	0.529	-0.22604987945406202	
8.09	0.309	-0.20714998047716116	
8.095	-0.672	-0.16155606646806106	
8.1	0.049	-0.10152018137664204	
8.105	0.869	-0.04815720163012084	
8.11	-0.504	-0.0020484814137152587	
8.115	-0.364	0.03627044045805368	
8.12	0.977	0.0616143550209991	
8.125	-0.170	0.07335039448113777	
8.13	-0.568	0.0781794775108825	
8.135	0.809	0.09220878732931355	
8.14	0.490	0.11361995895578492	
8.145	-0.593	0.1342690771353935	
8.15	0.260	0.1537922433962976	
8.155	1.032	0.1698441218003881	
8.16	-0.408	0.18665075114654614	
8.165	-0.228	0.19945045274431883	
8.17	1.258	0.2108209893693214	
8.175	-0.007	0.2280824415924286	
8.18	-0.453	0.24114934552139491	
8.185	1.099	0.26047056620047	
8.19	0.817	0.29950176484123653	
8.195	-0.427	0.3461265162155023	
8.2	0.642	0.38798162925257124	
8.205	1.479	0.43484334821523146	
8.21	-0.199	0.4855111664898069	
8.215	0.033	0.5125282982131492	
8.22	1.614	0.5238189159157491	
8.225	0.289	0.5410252726945897	
8.23	-0.329	0.5462465462391564	
8.235	1.244	0.5363748650475537	
8.24	0.869	0.5323977634572223	
8.245	-0.466	0.5243601671969372	
8.25	0.370	0.4929065620450001	
8.255	1.038	0.4365259385236432	
8.26	-0.465	0.37180797303292695	
8.265	-0.343	0.29973917060891186	
8.27	0.901	0.2213481779805293	
8.275	-0.283	0.14208335058835736	
8.28	-0.692	0.07075413139688899	
8.285	0.503	0.01604406891931488	
8.29	0.153	-0.03192029806654814	
8.295	-0.750	-0.06909656468764347	
8.3	-0.070	-0.08703374476739217	
8.305	0.596	-0.10299246074013405	
8.31	-0.662	-0.1179423909824738	
8.315	-0.463	-0.11888551414627964	
8.32	0.767	-0.11306493792057339	
8.325	-0.306	-0.10704216276987558	
8.33	-0.701	-0.09881085562245936	
8.335	0.553	-0.08407958740774368	
8.34	0.254	-0.06926760379364374	
8.345	-0.700	-0.05582007890549895	
8.35	0.027	-0.03687455212623486	
8.355	0.747	-0.026344272183909393	
8.36	-0.576	-0.01992032152253536	
8.365	-0.401	-0.0105793701259232	
8.37	0.841	-0.006258845900457231	
8.375	-0.269	-0.010249808741384368	
8.38	-0.637	-0.014523708278683635	
8.385	0.635	-0.009016464847715884	
8.39	0.281	-0.002574166053541254	
8.395	-0.659	0.004267879815649626	
8.4	0.152	0.01938884959682073	
8.405	0.895	0.03645390619446203	
8.41	-0.507	0.05893217910520652	
8.415	-0.315	0.07869361035560639	
8.42	1.072	0.09173773134070254	
8.425	-0.178	0.104487334547178	
8.43	-0.550	0.11062734146944433	
8.435	0.851	0.12014328867924247	
8.44	0.469	0.13718451249317148	
8.445	-0.564	0.15526911797572257	
8.45	0.388	0.1766164485199656	
8.455	1.076	0.20230125669135812	
8.46	-0.433	0.22881376709665652	
8.465	-0.266	0.2368988060329022	
8.47	1.092	0.22467825457308693	
8.475	-0.179	0.20432099668935408	
8.48	-0.579	0.17480796960928144	
8.485	0.709	0.14516831934849467	
8.49	0.265	0.11497098868991407	
8.495	-0.692	0.08239368918150058	
8.5	0.027	0.054746410690946906	
8.505	0.706	0.021072466108837673	
8.51	-0.594	-0.00516575101635028	
8.515	-0.408	-0.01883332223509821	
8.52	0.854	-0.026455022475245442	
8.525	-0.306	-0.032856947044283207	
8.53	-0.688	-0.03795136827667962	
8.535	0.523	-0.04177714589289758	
8.54	0.222	-0.04930645863954786	
8.545	-0.567	-0.04650508059910471	
8.55	0.768	0.010044295191845812	
8.555	1.806	-0.015455227874732805	
8.56	0.001	0.3497039656654335	
8.565	0.109	0.5122868728526464	
8.57	1.101	0.5784115525335078	
8.575	-0.436	0.5379483165989547	
8.58	-0.910	0.39917630681670224	
8.585	0.066	0.20221166102320262	
8.59	-0.156	-0.015455227874732805	
8.595	-0.829	-0.19031783841829672	
8.6	-0.053	-0.27386216609914593	
8.605	0.654	-0.2903275399309968	
8.61	-0.602	-0.25926471469973444	
8.615	-0.401	-0.19936303572828057	
8.62	0.825	-0.14063298803879826	
8.625	-0.308	-0.09524741741930554	
8.63	-0.630	-0.0615759107548661	
8.635	0.698	-0.028603506359146155	
8.64	0.303	0.0012290072242350438	
8.645	-0.639	0.02656641891073183	
8.65	0.243	0.053391993779013894	
8.655	0.901	0.07854742561180168	
8.66	-0.506	0.10247059882217799	
8.665	-0.283	0.11786242921623363	
8.67	1.067	0.12348872924614333	
8.675	-0.173	0.12747496420946344	
8.68	-0.523	0.12848657700094512	
8.685	0.886	0.13463920574915486	
8.69	0.458	0.1500339880583941	
8.695	-0.568	0.1684673885270637	
8.7	0.391	0.18564082998630022	
8.705	1.086	0.2064813623283011	
8.71	-0.355	0.23529388394403933	
8.715	-0.077	0.2620595288800265	
8.72	1.437	0.28853010358054076	
8.725	0.060	0.32627669933439574	
8.73	-0.340	0.3545946711028729	
8.735	1.308	0.3797213920819558	
8.74	0.851	0.4248664287625604	
8.745	-0.382	0.47055398246146435	
8.75	0.722	0.4967109005395975	
8.755	1.292	0.5132617524064838	
8.76	-0.366	0.5173945552391801	
8.765	-0.156	0.48419675969568815	
8.77	1.177	0.4202021091889466	
8.775	-0.182	0.3513393785280776	
8.78	-0.558	0.27797101890794973	
8.785	0.721	0.20837575142861714	
8.79	0.194	0.14465238203919314	
8.795	-0.716	0.08609749680215693	
8.8	0.002	0.036623242362688185	
8.805	0.524	-0.01724808519648529	
8.81	-0.691	-0.06716951513764122	
8.815	-0.460	-0.09947108159245235	
8.82	0.664	-0.12236456776423606	
8.825	-0.422	-0.14263928470982595	
8.83	-0.736	-0.1544847803372754	
8.835	0.434	-0.15593997011963842	
8.84	-0.016	-0.16369950944238426	
8.845	-0.770	-0.17143210267769377	
8.85	-0.002	-0.16429041775923484	
8.855	0.574	-0.15371049774014547	
8.86	-0.665	-0.1410137680435385	
8.865	-0.413	-0.12114546846820844	
8.87	0.729	-0.10769087235907594	
8.875	-0.391	-0.10179327093541098	
8.88	-0.681	-0.10012364900263832	
8.885	0.547	-0.09398273763651463	
8.89	0.068	-0.09201229070757347	
8.895	-0.729	-0.09324082640075904	
8.9	0.049	-0.08710175981705828	
8.905	0.571	-0.08599629912478357	
8.91	-0.660	-0.08706190630000751	
8.915	-0.402	-0.08284837280679669	
8.92	0.756	-0.08178357530554028	
8.925	-0.382	-0.08403228105411488	
8.93	-0.678	-0.08691133375326104	
8.935	0.587	-0.08284462741217621	
8.94	0.109	-0.07828755257288472	
8.945	-0.710	-0.07423867641664217	
8.95	0.170	-0.05981889774386716	
8.955	0.750	-0.03912917178186489	
8.96	-0.587	-0.014267272420445426	
8.965	-0.327	0.007385494795613346	
8.97	0.950	0.020281861375598564	
8.975	-0.283	0.02969686396257654	
8.98	-0.565	0.03617573637013585	
8.985	0.828	0.04837223044015553	
8.99	0.286	0.06650703418115812	
8.995	-0.649	0.08166902456222229	
9.0	0.251	0.09141427657025614	
9.005	0.768	0.0917904455149251	
9.01	-0.578	0.08854199112152719	
9.015	-0.344	0.07858250243667925	
9.02	0.808	0.05433878190356138	
9.025	-0.350	0.023455890865711194	
9.03	-0.631	-0.0047208900149637535	
9.035	0.629	-0.020434233709050793	
9.04	0.065	-0.03472304416828881	
9.045	-0.723	-0.0503950660544847	
9.05	0.112	-0.05428539403541336	
9.055	0.600	-0.058292585544562715	
9.06	-0.645	-0.06072105314713912	
9.065	-0.367	-0.057169767840092235	
9.07	0.846	-0.053494127679876	
9.075	-0.285	-0.04588111718685306	
9.08	-0.437	-0.024699646521409387	
9.085	1.467	0.04695742701640181	
9.09	1.151	0.19915565627240858	
9.095	-0.257	0.3833594846594817	
9.1	0.753	0.5198869318617069	
9.105	0.849	0.570668297603019	
9.11	-0.742	0.527018837083856	
9.115	-0.616	0.39390889723482303	
9.12	0.223	0.190551399237675	
9.125	-0.602	-0.03302124993888122	
9.13	-0.793	-0.20154824536791255	
9.135	0.440	-0.2859395467171578	
9.14	-0.022	-0.31412121757269296	
9.145	-0.758	-0.30259790796529507	
9.15	0.097	-0.25471080143476404	
9.155	0.642	-0.198424631513544	
9.16	-0.619	-0.14023617768423133	
9.165	-0.327	-0.0857263927255544	
9.17	0.921	-0.043257307421305055	
9.175	-0.312	-0.012510205421199856	
9.18	-0.576	0.009415877164475823	
9.185	0.809	0.031467581978976214	
9.19	0.289	0.05358963395112952	
9.195	-0.611	0.07508935063228409	
9.2	0.367	0.09872824911992742	
9.205	0.890	0.12161141983101739	
9.21	-0.517	0.14329422749877874	
9.215	-0.211	0.15451636263135826	
9.22	1.115	0.15506246448222974	
9.225	-0.210	0.15706971686892943	
9.23	-0.486	0.1563764006309469	
9.235	1.002	0.16191010816097234	
9.24	0.489	0.1823689129061718	
9.245	-0.480	0.2128228210144802	
9.25	0.721	0.2541201708632448	
9.255	1.270	0.3126375742259919	
9.26	-0.323	0.37592852682998956	
9.265	0.082	0.4157048429691252	
9.27	1.528	0.43624799050906166	
9.275	0.045	0.45878805148969976	
9.28	-0.305	0.4643939175165614	
9.285	1.308	0.4580960788244927	
9.29	0.661	0.4632066048067784	
9.295	-0.453	0.46580327598806964	
9.3	0.646	0.45322968043910783	
9.305	1.025	0.43147360952634883	
9.31	-0.472	0.40096561722771523	
9.315	-0.182	0.35188582921201134	
9.32	1.034	0.28702891160844923	
9.325	-0.312	0.22075419890867065	
9.33	-0.591	0.15771338503855176	
9.335	0.693	0.10292801452822858	
9.34	0.049	0.050965563817053444	
9.345	-0.738	0.0041510295632076555	
9.35	0.135	-0.025699352908202088	
9.355	0.611	-0.047888765771591034	
9.36	-0.639	-0.0588595796088221	
9.365	-0.341	-0.05481329324634415	
9.37	0.765	-0.05428423826867598	
9.375	-0.381	-0.06037685058873959	
9.38	-0.607	-0.06092130998140442	
9.385	0.736	-0.048120716502479	
9.39	0.097	-0.03335772057249371	
9.395	-0.674	-0.021658568766502198	
9.4	0.294	-0.0024961730875388646	
9.405	0.738	0.017821590959863073	
9.41	-0.594	0.03706803587709104	
9.415	-0.263	0.052475230595304984	
9.42	0.906	0.05362639420620588	
9.425	-0.366	0.045382902359967586	
9.43	-0.572	0.03427988502558635	
9.435	0.808	0.03200098302372839	
9.44	0.165	0.03438437316553057	
9.445	-0.645	0.03936835532409456	
9.45	0.355	0.052748022799214415	
9.455	0.771	0.06766051493267503	
9.46	-0.578	0.08291315717913156	
9.465	-0.234	0.09172217064145724	
9.47	1.031	0.09164653494090093	
9.475	-0.280	0.0921401989281736	
9.48	-0.517	0.09341012901856896	
9.485	0.864	0.09715702203770758	
9.49	0.231	0.10214879742926616	
9.495	-0.601	0.1063532116960587	
9.5	0.469	0.11899472981083	
9.505	0.896	0.1405307948586001	
9.51	-0.500	0.16475704943450473	
9.515	-0.144	0.1809446533220796	
9.52	1.160	0.18565361893661483	
9.525	-0.228	0.18891548592720556	
9.53	-0.468	0.18854121733967796	
9.535	0.935	0.18328102917230152	
9.54	0.182	0.17392977391807973	
9.545	-0.675	0.15336312762709547	
9.55	0.303	0.12918204031208724	
9.555	0.681	0.10037491139233418	
9.56	-0.613	0.07567312073868132	
9.565	-0.243	0.059183751454268206	
9.57	0.947	0.04561107879620496	
9.575	-0.350	0.03670869512581856	
9.58	-0.573	0.031720297892839235	
9.585	0.761	0.029394135852620067	
9.59	0.082	0.024685603582821878	
9.595	-0.671	0.017400318850684722	
9.6	0.332	0.021432284204301467	
9.605	0.884	0.03822090146597569	
9.61	-0.366	0.07953486283297534	
9.615	0.384	0.15645954452561867	
9.62	1.858	0.2806577202007207	
9.625	0.167	0.43345732748413174	
9.63	-0.362	0.5347536118733887	
9.635	0.759	0.5354304328511075	
9.64	-0.199	0.4344686900977291	
9.645	-0.932	0.26643041418629926	
9.65	-0.156	0.08658532005767439	
9.655	0.249	-0.08592285285776764	
9.66	-0.727	-0.21248464674332196	
9.665	-0.318	-0.2593126453696103	
9.67	0.835	-0.24743314239172204	
9.675	-0.385	-0.20573776613654998	
9.68	-0.556	-0.14696946901162053	
9.685	0.823	-0.0823208164923765	
9.69	0.104	-0.026796928189764938	
9.695	-0.645	0.011356028816846922	
9.7	0.440	0.047925210799780016	
9.705	0.846	0.08497628653238522	
9.71	-0.515	0.12113828030491404	
9.715	-0.156	0.14886158578640002	
9.72	1.119	0.1597394186840294	
9.725	-0.247	0.16492949479604654	
9.73	-0.434	0.16902981384841093	
9.735	1.087	0.1790141793209622	
9.74	0.375	0.20103239555469962	
9.745	-0.520	0.22416272374582644	
9.75	0.678	0.24921820358975014	
9.755	1.052	0.2799808907952261	
9.76	-0.427	0.3118600720446153	
9.765	-0.012	0.32602561096458305	
9.77	1.359	0.3258868413905305	
9.775	-0.088	0.3317032059264774	
9.78	-0.276	0.33806094626619076	
9.785	1.401	0.35518800549705903	
9.79	0.701	0.3979003078491659	
9.795	-0.367	0.44813767740189064	
9.8	0.948	0.48633005104390203	
9.805	1.278	0.5218622181219681	
9.81	-0.324	0.5498645256169814	
9.815	0.147	0.54514941552927	
9.82	1.400	0.5167105645943757	
9.825	-0.156	0.4816935641843214	
9.83	-0.396	0.43028448264214036	
9.835	1.043	0.3699634884881612	
9.84	0.263	0.31475774993633654	
9.845	-0.594	0.26351863166283124	
9.85	0.420	0.22124622198149096	
9.855	0.715	0.18050126888771156	
9.86	-0.596	0.14522389326702884	
9.865	-0.240	0.11535510786705228	
9.87	0.857	0.07923570050680721	
9.875	-0.393	0.04378664830111049	
9.88	-0.564	0.017743969942503508	
9.885	0.727	0.004634770765482405	
9.89	-0.037	-0.010509042957547373	
9.895	-0.704	-0.028028452871828806	
9.9	0.310	-0.030745115394736067	
9.905	0.635	-0.023916593858498647	
9.91	-0.633	-0.011551606913442513	
9.915	-0.257	0.003614802223366868	
9.92	0.861	0.005876140126191122	
9.925	-0.390	0.0027311516895854645	
9.93	-0.539	0.0030991332622737826	
9.935	0.823	0.0114902108090721	
9.94	0.069	0.020238656856309545	
9.945	-0.649	0.026243746762603486	
9.95	0.385	0.038335948724418145	
9.955	0.661	0.04976359349069496	
9.96	-0.605	0.05852958353446689	
9.965	-0.182	0.0658733801540614	
9.97	0.970	0.06566622205764529	
9.975	-0.364	0.06560604536555414	
9.98	-0.530	0.06336361266337834	
9.985	0.838	0.06144882544541988	
9.99	0.086	0.05900268644114762	
9.995	-0.617	0.056425416908462554	
10.0	0.472	0.06647087796046736	
10.005	0.724	0.08352020306625078	
10.01	-0.558	0.10154564171794878	
10.015	-0.129	0.1150965713194659	
10.02	1.066	0.12051499979140147	
10.025	-0.312	0.12648110656637226	
10.03	-0.462	0.128584872028773	
10.035	0.935	0.13043316493792423	
10.04	0.155	0.13179790286859064	
10.045	-0.596	0.1295633866659588	
10.05	0.489	0.13157114382841745	
10.055	0.703	0.1343102420766531	
10.06	-0.608	0.13257453183112697	
10.065	-0.221	0.12127709015777748	
10.07	0.828	0.09035553014626777	
10.075	-0.427	0.053388248618414166	
10.08	-0.564	0.021812244682943124	
10.085	0.744	0.002413943198788321	
10.09	-0.033	-0.013407976444011878	
10.095	-0.692	-0.028299765420980467	
10.1	0.292	-0.029288728218910865	
10.105	0.556	-0.02789003933455007	
10.11	-0.639	-0.02445571854473563	
10.115	-0.234	-0.014488119455625663	
10.12	0.909	-0.008701725331170054	
10.125	-0.260	0.004196824098594894	
10.13	-0.230	0.0419857713161028	
10.135	1.682	0.1345850147573958	
10.14	0.864	0.2914244806610573	
10.145	-0.364	0.44863815595959494	
10.15	0.648	0.530773038953966	
10.155	0.500	0.5149420867830956	
10.16	-0.817	0.413476250264007	
10.165	-0.465	0.26065211877147526	
10.17	0.423	0.08421258870986213	
10.175	-0.555	-0.07886873231981756	
10.18	-0.655	-0.1808054593041094	
10.185	0.613	-0.21846408058487332	
10.19	-0.080	-0.2228214471926608	
10.195	-0.684	-0.2011598475372691	
10.2	0.375	-0.15091646021316252	
10.205	0.625	-0.09123362920749463	
10.21	-0.597	-0.034653874213959324	
10.215	-0.163	0.013957659888689241	
10.22	0.959	0.04322299780163522	
10.225	-0.347	0.06275565176368017	
10.23	-0.454	0.07727976147755447	
10.235	0.983	0.09479287604975332	
10.24	0.144	0.11389410843545299	
10.245	-0.596	0.12669487112920377	
10.25	0.581	0.14041533998735195	
10.255	0.832	0.1597065558567359	
10.26	-0.507	0.1830658677288266	
10.265	-0.018	0.20119475653134217	
10.27	1.185	0.20836039969105613	
10.275	-0.257	0.217458072731933	
10.28	-0.364	0.22233959529292016	
10.285	1.157	0.22803173975711863	
10.29	0.362	0.2466944818065843	
10.295	-0.449	0.26962704919307057	
10.3	0.910	0.30165978998894344	
10.305	1.171	0.35261361945085046	
10.31	-0.340	0.4099186347839611	
10.315	0.306	0.4483680210836935	
10.32	1.502	0.47334022173567963	
10.325	-0.091	0.4933199694482701	
10.33	-0.247	0.4884548964658558	
10.335	1.318	0.46600410049156593	
10.34	0.399	0.4485803302713296	
10.345	-0.460	0.42778816493021554	
10.35	0.793	0.40361615018166036	
10.355	0.877	0.3834055586341103	
10.36	-0.549	0.3581416249041632	
10.365	-0.128	0.31244194865097874	
10.37	0.877	0.24199298772963312	
10.375	-0.451	0.16447963952157146	
10.38	-0.565	0.09478729952167161	
10.385	0.680	0.03766042987330416	
10.39	-0.134	-0.015546047887282626	
10.395	-0.732	-0.05976776230382336	
10.4	0.269	-0.07948848558533801	
10.405	0.460	-0.08894949690252088	
10.41	-0.681	-0.08853807268216271	
10.415	-0.245	-0.0773564512713394	
10.42	0.773	-0.07037897453867632	
10.425	-0.459	-0.066506343415121	
10.43	-0.550	-0.05788844493058666	
10.435	0.742	-0.045526466500581675	
10.44	-0.086	-0.039763611736974847	
10.445	-0.694	-0.04151426106227682	
10.45	0.335	-0.03543628227277779	
10.455	0.539	-0.028220269115554267	
10.46	-0.649	-0.01946622151273434	
10.465	-0.201	-0.008151901223288738	
10.47	0.858	-0.004548380555156441	
10.475	-0.446	-0.003616825146126949	
10.48	-0.549	-0.002680341342241475	
10.485	0.779	-0.0025290945466689327	
10.49	-0.056	-0.005960739165939721	
10.495	-0.660	-0.011404168616050352	
10.5	0.451	-0.0032881625555384528	
10.505	0.635	0.014605985548778283	
10.51	-0.587	0.038483885639180815	
10.515	-0.106	0.06204491956590152	
10.52	0.994	0.07539005355680671	
10.525	-0.358	0.087219222394507	
10.53	-0.440	0.09647283264574237	
10.535	0.968	0.10554802395767914	
10.54	0.123	0.11684768965792557	
10.545	-0.568	0.12563512760637519	
10.55	0.655	0.14186979342091643	
10.555	0.779	0.16646284608568743	
10.56	-0.553	0.18941119360252356	
10.565	-0.057	0.19721006576890088	
10.57	1.025	0.18533187015439367	
10.575	-0.381	0.1680936269716755	
10.58	-0.515	0.14461467151753235	
10.585	0.794	0.1125593080552495	
10.59	-0.082	0.07267918190583064	
10.595	-0.683	0.032741089697475786	
10.6	0.388	0.00998895107151405	
10.605	0.524	-0.0027165086732625007	
10.61	-0.642	-0.0055891216315622685	
10.615	-0.169	-0.0005684813850563052	
10.62	0.880	0.002235521196866292	
10.625	-0.417	0.005928389011452217	
10.63	-0.521	0.011812916248565146	
10.635	0.799	0.01663574519805682	
10.64	0.027	0.017440012646191508	
10.645	-0.471	0.02880026461682853	
10.65	1.226	0.09425394779650711	
10.655	1.626	0.2481950287366682	
10.66	-0.131	0.44427833296664915	
10.665	0.428	0.590503590960243	
10.67	1.093	0.6411321169624123	
10.675	-0.535	0.5917957412666294	
10.68	-0.741	0.45388556989405426	
10.685	0.320	0.2575821378683465	
10.69	-0.271	0.047387949058758795	
10.695	-0.771	-0.11400319532314981	
10.7	0.255	-0.19277740012439779	
10.705	0.410	-0.21805685908004474	
10.71	-0.674	-0.2045708031377665	
10.715	-0.181	-0.16320514509975387	
10.72	0.848	-0.11799613719770101	
10.725	-0.448	-0.07630565689751743	
10.73	-0.503	-0.03882245183699481	
10.735	0.877	-0.005354374926585023	
10.74	-0.036	0.018062103052424276	
10.745	-0.646	0.03099157342309437	
10.75	0.524	0.045441356218219923	
10.755	0.631	0.06275574247074145	
10.76	-0.584	0.08225585198202473	
10.765	-0.066	0.0980368680467471	
10.77	0.997	0.10401848591391022	
10.775	-0.375	0.10744426148762232	
10.78	-0.437	0.10931708369764412	
10.785	0.968	0.11081853951226253	
10.79	0.077	0.11483272223933595	
10.795	-0.549	0.11897973778500727	
10.8	0.745	0.1376953654520846	
10.805	0.892	0.1766339825666758	
10.81	-0.433	0.22710172551662797	
10.815	0.234	0.2712482985072874	
10.82	1.368	0.3110302171521867	
10.825	-0.160	0.3512495325343187	
10.83	-0.196	0.3744185969800383	
10.835	1.459	0.3918980621083626	
10.84	0.483	0.4267104192766097	
10.845	-0.396	0.4560292081356152	
10.85	0.959	0.4676974327960942	
10.855	0.977	0.4724892824008852	
10.86	-0.449	0.4692321318998737	
10.865	0.114	0.43929421042934214	
10.87	1.067	0.38476010409845274	
10.875	-0.384	0.3213883297741227	
10.88	-0.451	0.2536775302031051	
10.885	0.835	0.18555652021134766	
10.89	-0.140	0.11862140312393282	
10.895	-0.713	0.05347443463054988	
10.9	0.307	0.004554265496351922	
10.905	0.335	-0.03885635632937871	
10.91	-0.747	-0.07438727564709363	
10.915	-0.265	-0.09453595296492667	
10.92	0.599	-0.11666483266741856	
10.925	-0.555	-0.13852055257603862	
10.93	-0.561	-0.14395259739323654	
10.935	0.678	-0.13469737296402687	
10.94	-0.213	-0.12658545602730836	
10.945	-0.758	-0.12421053573570748	
10.95	0.274	-0.11742728045672647	
10.955	0.375	-0.11415966086266509	
10.96	-0.688	-0.10827356122800376	
10.965	-0.181	-0.0903144643983877	
10.97	0.776	-0.07586626475364046	
10.975	-0.474	-0.063645162263487	
10.98	-0.539	-0.04872626241463893	
10.985	0.727	-0.03970273569860125	
10.99	-0.132	-0.039824605434925	
10.995	-0.678	-0.04409187433032648	
11.0	0.440	-0.037222128409676654	
11.005	0.458	-0.025371668929148737	
11.01	-0.657	-0.014387708530798012	
11.015	-0.128	-0.002049696506101763	
11.02	0.837	0.00110504729136587	
11.025	-0.480	0.002090999030699377	
11.03	-0.501	0.0034472845313867516	
11.035	0.825	0.004482861603596839	
11.04	-0.111	0.0029025724821065348	
11.045	-0.649	-0.0021283222301333588	
11.05	0.509	0.005078727062876149	
11.055	0.539	0.01849897823303998	
11.06	-0.604	0.036382212200272296	
11.065	-0.016	0.05621971816105041	
11.07	1.011	0.07419278404265245	
11.075	-0.393	0.09277235030581138	
11.08	-0.401	0.10753781185241347	
11.085	1.058	0.11974437611808814	
11.09	0.066	0.13666851356606563	
11.095	-0.543	0.14875572817798136	
11.1	0.730	0.1643616851099238	
11.105	0.722	0.18643486844664267	
11.11	-0.549	0.20715098293675668	
11.115	0.016	0.2123959802927951	
11.12	1.005	0.19826451634233222	
11.125	-0.413	0.17955684068203648	
11.13	-0.462	0.15461676940616131	
11.135	0.825	0.12188011973882473	
11.14	-0.140	0.0804813554396488	
11.145	-0.675	0.03975548530587472	
11.15	0.469	0.015571574764692744	
11.155	0.465	0.003308156601638154	
11.16	-0.666	-0.0009720264564048757	
11.165	-0.149	0.0006355857032642328	
11.17	0.829	-0.004728248782300345	
11.175	-0.488	-0.009693564230334684	
11.18	-0.523	-0.010231500298326202	
11.185	0.806	-0.010926007589809765	
11.19	0.008	-0.008780440069652898	
11.195	-0.393	0.013729852752142386	
11.2	1.470	0.003308156601638154	
11.205	1.667	0.2932535477401421	
11.21	-0.143	0.5157636099872854	
11.215	0.439	0.6647235290229337	
11.22	0.941	0.6922505217660915	
11.225	-0.643	0.6050863749169163	
11.23	-0.741	0.43181695560642414	
11.235	0.321	0.21514137341675335	
11.24	-0.329	-0.0018638771839203493	
11.245	-0.781	-0.15917748152068523	
11.25	0.315	-0.22901720658578548	
11.255	0.347	-0.2439534869328387	
11.26	-0.689	-0.2231834175217947	
11.265	-0.128	-0.17293471372490882	
11.27	0.875	-0.12076090796172047	
11.275	-0.457	-0.07011482133532776	
11.28	-0.442	-0.02195459888920881	
11.285	0.956	0.019323612280255247	
11.29	-0.079	0.048770202922498486	
11.295	-0.596	0.06369961898897648	
11.3	0.692	0.0843138952693656	
11.305	0.690	0.113919870439708	
11.31	-0.546	0.1474994789871224	
11.315	0.066	0.17332775055372343	
11.32	1.067	0.1823720809324268	
11.325	-0.353	0.18753817387990374	
11.33	-0.330	0.19012701710180496	
11.335	1.115	0.1916256535210505	
11.34	0.123	0.19852675590522886	
11.345	-0.475	0.2065824447087522	
11.35	0.947	0.22964083180237463	
11.355	0.967	0.2758415933612104	
11.36	-0.378	0.3322490744149141	
11.365	0.495	0.3825647054649705	
11.37	1.542	0.43547403425742204	
11.375	-0.070	0.49128213532428566	
11.38	-0.044	0.5241705942882859	
11.385	1.595	0.540770190129491	
11.39	0.519	0.5664123110989643	
11.395	-0.309	0.5825634650851712	
11.4	1.188	0.5846685400629147	
11.405	1.112	0.5917636590165335	
11.41	-0.385	0.5943382228103689	
11.415	0.329	0.5695568616210024	
11.42	1.200	0.5182547054099502	
11.425	-0.338	0.45644791983340505	
11.43	-0.367	0.3823639364985914	
11.435	0.938	0.2994303931261586	
11.44	-0.115	0.21640237770287965	
11.445	-0.633	0.13998556193905418	
11.45	0.509	0.08745737689717262	
11.455	0.378	0.047469614948190075	
11.46	-0.713	0.014756885554142542	
11.465	-0.173	-0.009355048899930383	
11.47	0.706	-0.03717159259054615	
11.475	-0.524	-0.061363892509056814	
11.48	-0.517	-0.06930217736595798	
11.485	0.689	-0.06990543229104158	
11.49	-0.221	-0.07973301030097327	
11.495	-0.709	-0.08865574322890088	
11.5	0.431	-0.08261138681328904	
11.505	0.425	-0.07082658652961567	
11.51	-0.649	-0.052043695628432085	
11.515	-0.086	-0.02617846286310437	
11.52	0.867	-0.009438611308831318	
11.525	-0.454	0.0065787453611784305	
11.53	-0.425	0.0239584179037674	
11.535	0.872	0.0380183260797594	
11.54	-0.118	0.04204186792709656	
11.545	-0.607	0.039519891412794945	
11.55	0.609	0.04752148725147751	
11.555	0.529	0.061929846873535525	
11.56	-0.608	0.07794049186556917	
11.565	-0.027	0.08905954839025326	
11.57	0.919	0.08744049819219832	
11.575	-0.445	0.08440470429708725	
11.58	-0.405	0.08317861855714037	
11.585	0.935	0.08107473038158994	
11.59	-0.109	0.0767966850490269	
11.595	-0.608	0.06761001699222458	
11.6	0.617	0.06771396333198308	
11.605	0.529	0.07572457826182925	
11.61	-0.604	0.08587180053947308	
11.615	0.037	0.09631301735566275	
11.62	0.959	0.10137009682830156	
11.625	-0.439	0.10519797873571528	
11.63	-0.387	0.10736142771723013	
11.635	1.029	0.1091685690614647	
11.64	-0.050	0.11257250026207008	
11.645	-0.552	0.1146558721880951	
11.65	0.773	0.12690415849761316	
11.655	0.681	0.15257424488976057	
11.66	-0.541	0.18178523299756605	
11.665	0.162	0.203497684963362	
11.67	1.105	0.2143242244766851	
11.675	-0.333	0.22405371216150344	
11.68	-0.263	0.23050055246044235	
11.685	1.191	0.2342068527210609	
11.69	0.062	0.24241454535644924	
11.695	-0.494	0.24272911515422974	
11.7	0.858	0.24498518730808994	
11.705	0.635	0.251424726803538	
11.71	-0.561	0.25280960292756677	
11.715	0.091	0.24061820454523025	
11.72	0.942	0.21219521805958852	
11.725	-0.456	0.18002631714332995	
11.73	-0.410	0.1476608995029896	
11.735	0.881	0.11411787130744752	
11.74	-0.166	0.08030688451350808	
11.745	-0.636	0.04790464682043872	
11.75	0.577	0.03300333236873259	
11.755	0.446	0.03025403507642864	
11.76	-0.649	0.03290949647578956	
11.765	-0.054	0.03774744402442863	
11.77	0.823	0.03203743783116128	
11.775	-0.451	0.026991862340459163	
11.78	-0.231	0.03985187523547205	
11.785	1.699	0.10312072875231393	
11.79	0.910	0.2512526722463466	
11.795	0.022	0.44502603086742376	
11.8	1.520	0.6219254140397299	
11.805	0.846	0.7400310872636098	
11.81	-0.720	0.7479866416499068	
11.815	-0.346	0.6227260356033973	
11.82	0.176	0.3847511740682357	
11.825	-0.759	0.11315490598620055	
11.83	-0.637	-0.09784493080549296	
11.835	0.577	-0.2231818740792	
11.84	-0.266	-0.283918972807216	
11.845	-0.695	-0.28657174487545883	
11.85	0.468	-0.24102323179400403	
11.855	0.323	-0.183264756021054	
11.86	-0.681	-0.1277844789869969	
11.865	-0.056	-0.07590668513972146	
11.87	0.814	-0.040476037313260486	
11.875	-0.492	-0.014083724134466062	
11.88	-0.413	0.00938928311609262	
11.885	0.916	0.027819839274687026	
11.89	-0.140	0.03873007575645433	
11.895	-0.591	0.044512636037055804	
11.9	0.727	0.06023822181735859	
11.905	0.561	0.08750450526863185	
11.91	-0.575	0.11608905273066783	
11.915	0.188	0.1423994493787794	
11.92	1.067	0.1644888081628341	
11.925	-0.382	0.18565106119828867	
11.93	-0.285	0.19757075975081684	
11.935	1.192	0.20496060016856507	
11.94	0.051	0.21849505563674246	
11.945	-0.430	0.22953884826765555	
11.95	1.086	0.25443272795277283	
11.955	0.976	0.30937999073688316	
11.96	-0.335	0.3770339467899303	
11.965	0.655	0.4375334765788603	
11.97	1.501	0.4954169970523968	
11.975	-0.147	0.5456048713934355	
11.98	-0.025	0.5596499931980199	
11.985	1.548	0.551850502273387	
11.99	0.332	0.5515118501399447	
11.995	-0.344	0.541707201135043	
12.0	1.115	0.5192027846509537	
12.005	0.841	0.503270022708707	
12.01	-0.477	0.4834036651708544	
12.015	0.223	0.4403824310771892	
12.02	0.967	0.3760223848373446	
12.025	-0.472	0.3050536847987889	
12.03	-0.442	0.22886636353636267	
12.035	0.713	0.1462301690630834	
12.04	-0.277	0.05965277589926081	
12.045	-0.716	-0.013690539635091306	
12.05	0.361	-0.06225633555520831	
12.055	0.161	-0.1020522794409968	
12.06	-0.765	-0.13193466738067544	
12.065	-0.179	-0.14363212779641296	
12.07	0.559	-0.15456101691619195	
12.075	-0.611	-0.16259219287700044	
12.08	-0.520	-0.15676593391710927	
12.085	0.663	-0.14527312720746888	
12.09	-0.277	-0.13841320095494977	
12.095	-0.701	-0.13122092360285076	
12.1	0.445	-0.11346545749686987	
12.105	0.249	-0.09837966789328989	
12.11	-0.704	-0.08659605792972266	
12.115	-0.071	-0.07153409469677849	
12.12	0.709	-0.06392556827466447	
12.125	-0.561	-0.05750124347836191	
12.13	-0.449	-0.049498098943195075	
12.135	0.759	-0.043504115577747436	
12.14	-0.256	-0.04554417243495282	
12.145	-0.668	-0.05094878889184595	
12.15	0.474	-0.04948649424611633	
12.155	0.234	-0.05162087022917395	
12.16	-0.695	-0.055457113160453944	
12.165	-0.054	-0.05337258082538837	
12.17	0.713	-0.053124645785183014	
12.175	-0.553	-0.051554253758132315	
12.18	-0.442	-0.04428239564507839	
12.185	0.779	-0.03954981618080353	
12.19	-0.276	-0.04073176176425332	
12.195	-0.671	-0.04681953131370897	
12.2	0.532	-0.04635991488724357	
12.205	0.252	-0.04280318676645309	
12.21	-0.698	-0.041493078956285026	
12.215	-0.030	-0.0371769148985361	
12.22	0.776	-0.03418784862330207	
12.225	-0.527	-0.026714176897706166	
12.23	-0.416	-0.014133901717164466	
12.235	0.825	-0.006470376239029298	
12.24	-0.242	-0.005929260152384384	
12.245	-0.651	-0.011794474339125522	
12.25	0.574	-0.011171354729500694	
12.255	0.330	-0.00593136093313623	
12.26	-0.665	-0.0006120239052406044	
12.265	-0.021	0.0060217100286560675	
12.27	0.739	0.001809386839488243	
12.275	-0.541	-0.003935094317726033	
12.28	-0.408	-0.0050025263854159225	
12.285	0.881	-0.002299966632071192	
12.29	-0.213	0.0008472111704376543	
12.295	-0.617	0.0031634729858786652	
12.3	0.642	0.012089655783256712	
12.305	0.442	0.02896110105343524	
12.31	-0.594	0.05118659459531882	
12.315	0.169	0.07726241945253234	
12.32	0.957	0.09988096691377643	
12.325	-0.451	0.12177742442903824	
12.33	-0.329	0.13408097110965322	
12.335	1.063	0.13691194332267698	
12.34	-0.085	0.14063034133945124	
12.345	-0.523	0.14209744256980986	
12.35	0.799	0.1473372475197588	
12.355	0.524	0.1598608387492593	
12.36	-0.588	0.1710085032137338	
12.365	0.129	0.1714530445015727	
12.37	0.825	0.15489712003679101	
12.375	-0.533	0.1295747224044391	
12.38	-0.405	0.10021173297016131	
12.385	0.864	0.0680321465502216	
12.39	-0.213	0.04042696387673986	
12.395	-0.625	0.018124899334976997	
12.4	0.635	0.012539752843837003	
12.405	0.371	0.01771277228907366	
12.41	-0.649	0.026903575045884354	
12.415	0.034	0.03668290185870278	
12.42	0.774	0.03487642888789455	
12.425	-0.514	0.03135936583398212	
12.43	-0.321	0.03437775230312035	
12.435	1.279	0.05818679895218951	
12.44	0.423	0.13022742791291053	
12.445	-0.024	0.24716195555050505	
12.45	1.772	0.40475702026588145	
12.455	1.136	0.5855466124141707	
12.46	-0.533	0.7047285674769689	
12.465	-0.147	0.6807300666644301	
12.47	0.188	0.5057366399108965	
12.475	-0.820	0.2533101549329669	
12.48	-0.619	0.023617008339043788	
12.485	0.555	-0.13986402639871184	
12.49	-0.329	-0.23895736072314555	
12.495	-0.671	-0.2696350938428057	
12.5	0.596	-0.23914744538987698	
12.505	0.327	-0.17770426260018057	
12.51	-0.663	-0.11115349649758395	
12.515	0.021	-0.050864507676383314	
12.52	0.780	-0.0143688903898001	
12.525	-0.510	0.010030986677197852	
12.53	-0.335	0.03182403411672223	
12.535	1.002	0.05021578640403471	
12.54	-0.170	0.06767441856520937	
12.545	-0.546	0.07838120085679687	
12.55	0.825	0.09513640478362456	
12.555	0.497	0.12207778258014215	
12.56	-0.576	0.14668506074722837	
12.565	0.292	0.16745423735723697	
12.57	1.026	0.1846246092082593	
12.575	-0.414	0.20175147609656593	
12.58	-0.243	0.20898902207574907	
12.585	1.171	0.20936102173447438	
12.59	-0.063	0.2124434600870486	
12.595	-0.459	0.21140268142937732	
12.6	0.996	0.2183261625268673	
12.605	0.698	0.24695006001546996	
12.61	-0.425	0.2826292533855815	
12.615	0.616	0.3226093717097287	
12.62	1.372	0.37257266300412706	
12.625	-0.234	0.42668186773587247	
12.63	-0.057	0.4520659338690926	
12.635	1.491	0.45629365184534604	
12.64	0.204	0.4664378558379468	
12.645	-0.329	0.4675319746873905	
12.65	1.195	0.46216524666327	
12.655	0.770	0.4658694563454864	
12.66	-0.474	0.4649072011951489	
12.665	0.324	0.43646039649172375	
12.67	0.921	0.3822456237047921	
12.675	-0.512	0.3170610692738262	
12.68	-0.372	0.24123510182432656	
12.685	0.786	0.15977063811929648	
12.69	-0.317	0.08058462234403863	
12.695	-0.718	0.01003366328586894	
12.7	0.381	-0.04527438086792803	
12.705	0.034	-0.09738600497747499	
12.71	-0.787	-0.14247536582805662	
12.715	-0.138	-0.1645854468627444	
12.72	0.484	-0.18227198152613622	
12.725	-0.669	-0.19357105028869548	
12.73	-0.509	-0.1894576398845223	
12.735	0.600	-0.18172204379028	
12.74	-0.372	-0.17943900036559854	
12.745	-0.715	-0.1745233109764296	
12.75	0.448	-0.1584875553302214	
12.755	0.118	-0.14567631086978788	
12.76	-0.732	-0.13415770731100937	
12.765	-0.071	-0.11950849111788447	
12.77	0.591	-0.11361217413776427	
12.775	-0.620	-0.11049087478462555	
12.78	-0.445	-0.10220042359934767	
12.785	0.713	-0.09492126834567721	
12.79	-0.337	-0.09458507598896765	
12.795	-0.686	-0.09627844217708584	
12.8	0.495	-0.09146848420109882	
12.805	0.138	-0.08991712647386825	
12.81	-0.726	-0.09006709899462645	
12.815	-0.027	-0.0853144074058404	
12.82	0.626	-0.08578272270224585	
12.825	-0.601	-0.083599462684792	
12.83	-0.417	-0.07597599511982112	
12.835	0.748	-0.06991795111670472	
12.84	-0.321	-0.0688178531329397	
12.845	-0.660	-0.070164474695544	
12.85	0.561	-0.06428156366155956	
12.855	0.173	-0.058130723224071125	
12.86	-0.716	-0.05615116814273419	
12.865	-0.024	-0.05305185790819441	
12.87	0.637	-0.0588434381581633	
12.875	-0.601	-0.06484609835750518	
12.88	-0.417	-0.06277365092409154	
12.885	0.773	-0.06076422446578915	
12.89	-0.311	-0.06111613854268014	
12.895	-0.637	-0.061156083652841656	
12.9	0.597	-0.051963799303589756	
12.905	0.217	-0.0403196772309221	
12.91	-0.695	-0.03137885715592539	
12.915	0.054	-0.022717831947206363	
12.92	0.729	-0.01879538758358356	
12.925	-0.561	-0.013222079123365878	
12.93	-0.376	-0.0046057488816695835	
12.935	0.866	-0.0004820845022831552	
12.94	-0.262	0.0005374146497800073	
12.945	-0.602	0.0007616072146731758	
12.95	0.713	0.01044382094280385	
12.955	0.349	0.028523850573159454	
12.96	-0.597	0.04930911116673269	
12.965	0.266	0.0756413445969375	
12.97	0.927	0.10231154899318784	
12.975	-0.472	0.12834588171883277	
12.98	-0.269	0.14352840081400936	
12.985	1.055	0.14685286462223907	
12.99	-0.184	0.14520082785251512	
12.995	-0.523	0.13763000254940203	
13.0	0.867	0.13684545419821695	
13.005	0.410	0.14541258219990388	
13.01	-0.620	0.15298481995148278	
13.015	0.187	0.1499200367363791	
13.02	0.776	0.13342620154987833	
13.025	-0.543	0.111004039256271	
13.03	-0.340	0.0896453690876085	
13.035	0.898	0.06713100875549187	
13.04	-0.266	0.046926399492558404	
13.045	-0.614	0.028536545955768995	
13.05	0.660	0.02118054497674698	
13.055	0.260	0.017292282211006572	
13.06	-0.665	0.01672212356453107	
13.065	0.207	0.02623372958664396	
13.07	0.925	0.04354394629460388	
13.075	-0.382	0.07664014028574025	
13.08	0.140	0.13377620657251196	
13.085	1.966	0.24249576078398302	
13.09	0.701	0.4186871678318828	
13.095	-0.121	0.5903401213297172	
13.1	1.235	0.6893806809461929	
13.105	0.301	0.6921737578623302	
13.11	-0.819	0.5924898827903309	
13.115	-0.242	0.4153582655487885	
13.12	0.259	0.18955642565387806	
13.125	-0.742	-0.022466301171286528	
13.13	-0.466	-0.16005360613737885	
13.135	0.703	-0.22348116678241345	
13.14	-0.335	-0.23855215629421872	
13.145	-0.623	-0.2154962607666298	
13.15	0.690	-0.16128232662033473	
13.155	0.304	-0.09700767426234883	
13.16	-0.616	-0.035640675499639146	
13.165	0.268	0.024748831336341665	
13.17	0.899	0.07355792673400471	
13.175	-0.486	0.11206934487348043	
13.18	-0.250	0.13706679741850852	
13.185	1.128	0.14980081002617224	
13.19	-0.138	0.16107821544777937	
13.195	-0.466	0.16837916657699076	
13.2	0.948	0.18112539597733107	
13.205	0.545	0.20286656694130784	
13.21	-0.494	0.22804596601056007	
13.215	0.519	0.25607157498926725	
13.22	1.087	0.28367796955843816	
13.225	-0.402	0.3046947748581562	
13.23	-0.152	0.30817265099552404	
13.235	1.327	0.3000874597609893	
13.24	0.007	0.30282424319179124	
13.245	-0.358	0.30728460543399405	
13.25	1.279	0.3254185727784583	
13.255	0.899	0.3737995701013015	
13.26	-0.318	0.43686250608142996	
13.265	0.915	0.49622683667525797	
13.27	1.539	0.5607163393664631	
13.275	-0.169	0.6185757325325942	
13.28	0.198	0.6412078722412572	
13.285	1.632	0.6380757857370035	
13.29	0.170	0.6318042438286375	
13.295	-0.323	0.6033474248657273	
13.3	1.185	0.5562748671395896	
13.305	0.649	0.5117492127568724	
13.31	-0.500	0.46810917487615755	
13.315	0.465	0.420101428749315	
13.32	1.012	0.3704681320459029	
13.325	-0.471	0.3259242883982766	
13.33	-0.266	0.2773238649369175	
13.335	0.944	0.21762199612358296	
13.34	-0.295	0.15596715503810665	
13.345	-0.617	0.0987781818696696	
13.35	0.642	0.056886601974096764	
13.355	0.126	0.019550797471558155	
13.36	-0.715	-0.012374161982061246	
13.365	0.056	-0.0299860467778316	
13.37	0.660	-0.04497533301259768	
13.375	-0.602	-0.052730451886460444	
13.38	-0.388	-0.04843077473045189	
13.385	0.791	-0.04582482152677891	
13.39	-0.329	-0.049017591385232796	
13.395	-0.631	-0.049825269936974656	
13.4	0.664	-0.04034581166909757	
13.405	0.228	-0.02669085151116006	
13.41	-0.651	-0.012037337041761124	
13.415	0.214	0.011049047072383017	
13.42	0.808	0.03269010140422794	
13.425	-0.533	0.053402908329327224	
13.43	-0.289	0.06978478068997654	
13.435	0.960	0.0759206567482158	
13.44	-0.279	0.07491889471105395	
13.445	-0.581	0.06743985476538775	
13.45	0.753	0.06255038521592737	
13.455	0.245	0.061114297263200494	
13.46	-0.645	0.05917605890633329	
13.465	0.208	0.06110440006453905	
13.47	0.716	0.05844442633841971	
13.475	-0.572	0.05249275782507322	
13.48	-0.330	0.04697402672784199	
13.485	0.875	0.035732578194200684	
13.49	-0.306	0.022854281898131105	
13.495	-0.605	0.011667346795330156	
13.5	0.669	0.008493250541265613	
13.505	0.173	0.004925966375265223	
13.51	-0.683	0.0003255926305072086	
13.515	0.146	0.002209031475188885	
13.52	0.686	0.0012552096183402394	
13.525	-0.591	0.0004903922277060587	
13.53	-0.344	0.002159373881134243	
13.535	0.898	0.002650242618207147	
13.54	-0.283	0.0037198452047093374	
13.545	-0.576	0.007813084475679286	
13.55	0.790	0.021556194129220007	
13.555	0.329	0.04376282633289047	
13.56	-0.610	0.06835409642590004	
13.565	0.307	0.09334834489736006	
13.57	0.906	0.11514483064008416	
13.575	-0.494	0.13641547216856875	
13.58	-0.240	0.14930174233170923	
13.585	1.012	0.14661355282657934	
13.59	-0.259	0.13558113223083001	
13.595	-0.594	0.11692852520430957	
13.6	0.672	0.09260192344320192	
13.605	0.164	0.06358570422267965	
13.61	-0.706	0.03441650557614157	
13.615	0.088	0.01250990862759388	
13.62	0.611	-0.012018712236625933	
13.625	-0.617	-0.032654961554629144	
13.63	-0.361	-0.04045350142949435	
13.635	0.776	-0.04641714999083742	
13.64	-0.355	-0.05465197003096572	
13.645	-0.648	-0.058901662302324735	
13.65	0.611	-0.056218168297227235	
13.655	0.170	-0.0526804905423319	
13.66	-0.626	-0.041628819291541656	
13.665	0.478	-0.004152647641709082	
13.67	1.282	0.07290837813008635	
13.675	-0.117	0.19009167298275778	
13.68	0.513	0.3267813973233763	
13.685	1.763	0.4737059336908659	
13.69	-0.063	0.5890166545905384	
13.695	-0.613	0.6010221502932775	
13.7	0.278	0.49191092627108424	
13.705	-0.266	0.28917573900168125	
13.71	-0.936	0.0653255872740396	
13.715	-0.184	-0.11096620103983675	
13.72	0.400	-0.23513901643446414	
13.725	-0.663	-0.2980271967078032	
13.73	-0.366	-0.29003873374893374	
13.735	0.791	-0.2452124756266323	
13.74	-0.340	-0.1901737245385306	
13.745	-0.594	-0.13282714083759223	
13.75	0.736	-0.07473233186200258	
13.755	0.210	-0.025041291746922732	
13.76	-0.634	0.012045286540336304	
13.765	0.350	0.04835880536596045	
13.77	0.890	0.08490013487305116	
13.775	-0.509	0.11850009756975632	
13.78	-0.230	0.14107187750532602	
13.785	1.098	0.14712546497024068	
13.79	-0.199	0.15149219896983307	
13.795	-0.475	0.15303555370687022	
13.8	0.953	0.15968723594980788	
13.805	0.428	0.17486241356568166	
13.81	-0.523	0.19372254116923207	
13.815	0.550	0.21866146205232612	
13.82	1.069	0.2480280274139811	
13.825	-0.375	0.28013700157261423	
13.83	-0.002	0.3041829972616563	
13.835	1.447	0.3244162735024777	
13.84	0.049	0.35623010276806866	
13.845	-0.262	0.38292906182077624	
13.85	1.447	0.41398042280021347	
13.855	0.918	0.47180109846917595	
13.86	-0.291	0.5355311869527735	
13.865	0.974	0.5827882735350566	
13.87	1.476	0.6250580356346701	
13.875	-0.230	0.6580429433767495	
13.88	0.153	0.6511979594851098	
13.885	1.491	0.6153584241829002	
13.89	-0.039	0.5732534852107725	
13.895	-0.384	0.5120395782703917	
13.9	1.031	0.4407851833991706	
13.905	0.353	0.37374360137052215	
13.91	-0.591	0.3088448340475186	
13.915	0.304	0.2496605489546423	
13.92	0.744	0.1917814446856106	
13.925	-0.587	0.14140979809870838	
13.93	-0.330	0.09933447451959465	
13.935	0.762	0.05292145213533212	
13.94	-0.408	0.0033909133125307475	
13.945	-0.668	-0.03756712859763383	
13.95	0.577	-0.06154021410990473	
13.955	0.002	-0.08344529301629364	
13.96	-0.736	-0.10174626166122896	
13.965	0.155	-0.09836949060343624	
13.97	0.657	-0.08655651988141477	
13.975	-0.614	-0.06738773958909754	
13.98	-0.318	-0.04247831679259633	
13.985	0.843	-0.026354012256356876	
13.99	-0.344	-0.019644339063694706	
13.995	-0.593	-0.014327945231109977	
14.0	0.719	-0.005637953438164195	
14.005	0.155	0.0023854030177372252	
14.01	-0.654	0.008411050132464652	
14.015	0.254	0.021692958317728682	
14.02	0.719	0.032253550911488016	
14.025	-0.552	0.04262940203328287	
14.03	-0.237	0.05468847633261724	
14.035	0.968	0.06256038539331504	
14.04	-0.314	0.06624315227002728	
14.045	-0.572	0.06280091752480607	
14.05	0.759	0.059400321107987986	
14.055	0.164	0.05424249794090726	
14.06	-0.634	0.047444655816882814	
14.065	0.292	0.05181913872928092	
14.07	0.748	0.057167639487520766	
14.075	-0.568	0.06454976062767213	
14.08	-0.256	0.0708072415932012	
14.085	0.942	0.06857569469206576	
14.09	-0.300	0.06311536599761773	
14.095	-0.518	0.058861119508352724	
14.1	0.927	0.06952469738843466	
14.105	0.329	0.09414113159306355	
14.11	-0.573	0.12137699339156051	
14.115	0.422	0.14694153002481647	
14.12	0.899	0.16815202012217034	
14.125	-0.474	0.18643442817478023	
14.13	-0.152	0.19588070515296313	
14.135	1.139	0.1956352020505519	
14.14	-0.204	0.1950178311417194	
14.145	-0.463	0.18986324425881568	
14.15	0.947	0.18458399819161403	
14.155	0.291	0.1840793741614784	
14.16	-0.625	0.17636429255685596	
14.165	0.321	0.16399748446637025	
14.17	0.791	0.14611340130505515	
14.175	-0.555	0.13142714751175372	
14.18	-0.262	0.11694511014662776	
14.185	0.904	0.0945904197135033	
14.19	-0.340	0.06897706334506408	
14.195	-0.588	0.04495012002861465	
14.2	0.725	0.03058357867149082	
14.205	0.141	0.018991531755410927	
14.21	-0.663	0.012425052020495738	
14.215	0.249	0.01608214654817376	
14.22	0.693	0.021021206364263485	
14.225	-0.533	0.028379536186959826	
14.23	-0.065	0.052079273070892496	
14.235	1.638	0.1126425784521598	
14.24	0.490	0.23891648174716917	
14.245	0.075	0.3999957583185219	
14.25	1.624	0.5515876542496807	
14.255	0.494	0.6558460085286172	
14.26	-0.715	0.659377062731285	
14.265	-0.124	0.5440515666954205	
14.27	0.210	0.33289379970462024	
14.275	-0.770	0.1044759625150359	
14.28	-0.419	-0.06274112853002903	
14.285	0.693	-0.16252167271937568	
14.29	-0.401	-0.208206852170004	
14.295	-0.601	-0.20575855951995703	
14.3	0.750	-0.16433610546675595	
14.305	0.140	-0.1113496829515987	
14.31	-0.645	-0.05948042433346645	
14.315	0.324	-0.00862707849094675	
14.32	0.768	0.03474115980696352	
14.325	-0.532	0.06921786595330737	
14.33	-0.198	0.09543693454189249	
14.335	1.031	0.10953282017001387	
14.34	-0.259	0.1164870914479653	
14.345	-0.471	0.12027775321196336	
14.35	0.985	0.13090906875354796	
14.355	0.371	0.15347081259526518	
14.36	-0.541	0.1773900625586853	
14.365	0.559	0.20262877366328233	
14.37	0.996	0.23072738418098848	
14.375	-0.445	0.25799575540943814	
14.38	-0.082	0.26957635538715286	
14.385	1.253	0.26864362169654765	
14.39	-0.135	0.2713088546815041	
14.395	-0.335	0.27230622233771445	
14.4	1.290	0.2860414389086692	
14.405	0.698	0.3303804603177426	
14.41	-0.362	0.3853813871808892	
14.415	0.980	0.43869647763229647	
14.42	1.429	0.503655601624887	
14.425	-0.227	0.5680389244336077	
14.43	0.298	0.5996112346013045	
14.435	1.592	0.607474077312616	
14.44	0.062	0.6094053272606534	
14.445	-0.276	0.5844497556335659	
14.45	1.272	0.5407185692581384	
14.455	0.542	0.5043778772029269	
14.46	-0.512	0.4657900315894103	
14.465	0.466	0.4123916878078981	
14.47	0.773	0.3453213524484834	
14.475	-0.576	0.2746095545292595	
14.48	-0.283	0.2036712868292072	
14.485	0.779	0.12683749892288432	
14.49	-0.427	0.052753992251798346	
14.495	-0.655	-0.00803534363221808	
14.5	0.487	-0.05390036625897985	
14.505	-0.131	-0.10178098932519489	
14.51	-0.803	-0.14550340323396885	
14.515	-0.013	-0.16981595564786423	
14.52	0.359	-0.1911993808272395	
14.525	-0.733	-0.20689087515130056	
14.53	-0.401	-0.20210046808988824	
14.535	0.632	-0.19272280760535804	
14.54	-0.454	-0.18415623206940965	
14.545	-0.668	-0.1695972710293353	
14.55	0.509	-0.15222126164956806	
14.555	-0.114	-0.14802062451138764	
14.56	-0.764	-0.15212040366822505	
14.565	0.109	-0.1468054917320473	
14.57	0.535	-0.13653755422323535	
14.575	-0.655	-0.120737604474102	
14.58	-0.324	-0.09789192395868673	
14.585	0.722	-0.08397817550255816	
14.59	-0.436	-0.08123881257287997	
14.595	-0.626	-0.08033952056354542	
14.6	0.658	-0.07425941809848033	
14.605	-0.027	-0.07022204213077607	
14.61	-0.723	-0.07299076732249514	
14.615	0.193	-0.0686849124467468	
14.62	0.559	-0.063715648370584	
14.625	-0.636	-0.05677780881886247	
14.63	-0.288	-0.04470986191989348	
14.635	0.786	-0.03901266760665487	
14.64	-0.411	-0.03939385425462773	
14.645	-0.596	-0.041237588171932044	
14.65	0.707	-0.03815000474426668	
14.655	0.016	-0.0343713698550996	
14.66	-0.678	-0.035030268044586324	
14.665	0.300	-0.025507120724745536	
14.67	0.680	-0.008751190651979556	
14.675	-0.588	0.012058887978542153	
14.68	-0.236	0.0303994925362567	
14.685	0.965	0.04009208632551733	
14.69	-0.309	0.05044823520119299	
14.695	-0.503	0.05974768193317309	
14.7	0.907	0.07301200809337102	
14.705	0.216	0.0915569161641128	
14.71	-0.599	0.10785886218446636	
14.715	0.425	0.12061051836200737	
14.72	0.762	0.1312599416188049	
14.725	-0.568	0.13693275220354278	
14.73	-0.245	0.13045773255715276	
14.735	0.843	0.10415006768194235	
14.74	-0.407	0.06834093102894491	
14.745	-0.607	0.032766505900094806	
14.75	0.663	0.0031088658272739322	
14.755	-0.042	-0.02553207092666464	
14.76	-0.718	-0.052180130102410766	
14.765	0.198	-0.06324481473640843	
14.77	0.562	-0.0667613544701097	
14.775	-0.645	-0.06319846692432737	
14.78	-0.297	-0.05241670005107041	
14.785	0.782	-0.04774721557752894	
14.79	-0.372	-0.04684975329002122	
14.795	-0.437	-0.03523123008674864	
14.8	1.411	0.02337467170528434	
14.805	1.083	0.16243689945783252	
14.81	-0.082	0.35165801162877125	
14.815	1.232	0.5308466418081665	
14.82	1.079	0.6592230237126822	
14.825	-0.645	0.6885887449888288	
14.83	-0.510	0.5885302041047352	
14.835	0.198	0.37327070851136074	
14.84	-0.652	0.11114021685479993	
14.845	-0.773	-0.10313930609670437	
14.85	0.431	-0.23261599967931215	
14.855	-0.131	-0.3007065878900671	
14.86	-0.768	-0.31628844337509543	
14.865	0.158	-0.28393816228161617	
14.87	0.548	-0.2328169492318807	
14.875	-0.637	-0.17449755148167906	
14.88	-0.268	-0.1141791532757099	
14.885	0.860	-0.06758407370182143	
14.89	-0.366	-0.03422148441204649	
14.895	-0.539	-0.008198923520861583	
14.9	0.825	0.015687455451980727	
14.905	0.147	0.037072870763496996	
14.91	-0.620	0.05342785420648975	
14.915	0.417	0.07240086070509641	
14.92	0.773	0.09224490404747634	
14.925	-0.544	0.11110147609417106	
14.93	-0.170	0.12399207756920862	
14.935	1.093	0.12772459003193276	
14.94	-0.248	0.1344400616634448	
14.945	-0.411	0.14371984085134565	
14.95	1.137	0.16408993416463416	
14.955	0.463	0.20493716882240307	
14.96	-0.456	0.25114447831361064	
14.965	0.825	0.29769908892611663	
14.97	1.218	0.35433139273174397	
14.975	-0.309	0.41378988351799834	
14.98	0.291	0.45509054420575556	
14.985	1.589	0.4869193222798409	
14.99	0.063	0.5232523179012606	
14.995	-0.187	0.5366554570462714	
15.0	1.517	0.5392070230382441	
15.005	0.729	0.5599123178695671	
15.01	-0.358	0.5771286218744176	
15.015	0.893	0.5736569885889162	
15.02	1.079	0.5592638019736087	
15.025	-0.436	0.5309393598745077	
15.03	-0.089	0.47106761318080603	
15.035	1.026	0.38365642540453976	
15.04	-0.352	0.2914566363785681	
15.045	-0.584	0.20289802764648357	
15.05	0.634	0.11982784257112503	
15.055	-0.089	0.03785523321699462	
15.06	-0.768	-0.0334053018555429	
15.065	0.074	-0.08250349265075312	
15.07	0.355	-0.12508238052648407	
15.075	-0.747	-0.1596710727055831	
15.08	-0.372	-0.17174311565475503	
15.085	0.645	-0.17475248994201714	
15.09	-0.501	-0.17649242892493272	
15.095	-0.659	-0.16976154370940658	
15.1	0.552	-0.15538044149041758	
15.105	-0.123	-0.15035352883065814	
15.11	-0.752	-0.15015671900374816	
15.115	0.165	-0.13844800921968448	
15.12	0.518	-0.12531817117602728	
15.125	-0.640	-0.1066332758099611	
15.13	-0.263	-0.08057014981917106	
15.135	0.808	-0.05886591049863747	
15.14	-0.419	-0.04662722440170633	
15.145	-0.575	-0.03662138814321612	
15.15	0.767	-0.025303378987452312	
15.155	0.045	-0.013515980413658264	
15.16	-0.665	-0.006164390772143112	
15.165	0.342	0.00671759098435381	
15.17	0.661	0.020607314650752544	
15.175	-0.622	0.03422382914348022	
15.18	-0.257	0.04156153885624971	
15.185	0.844	0.033194251625607074	
15.19	-0.396	0.019203771196649604	
15.195	-0.570	0.007425101107865157	
15.2	0.738	0.001853074494228043	
15.205	0.013	-0.0056596875776925605	
15.21	-0.675	-0.013243501317134974	
15.215	0.353	-0.008068814166153314	
15.22	0.686	0.005578874421445818	
15.225	-0.552	0.028022541613046598	
15.23	-0.155	0.05372788906924098	
15.235	0.997	0.07232594328030087	
15.24	-0.312	0.08594904095116102	
15.245	-0.451	0.09642642776842399	
15.25	1.009	0.1121181412859634	
15.255	0.259	0.13719662000170446	
15.26	-0.543	0.16057560862256864	
15.265	0.579	0.18316266956198532	
15.27	0.849	0.20459828703596106	
15.275	-0.497	0.22176915290925167	
15.28	-0.089	0.2248371625666257	
15.285	1.073	0.21248354903619232	
15.29	-0.315	0.19475376854776502	
15.295	-0.509	0.1713992533070106	
15.3	0.831	0.14229665862788	
15.305	0.068	0.11108900236144517	
15.31	-0.631	0.08248299335798145	
15.315	0.420	0.06935321762828221	
15.32	0.707	0.06858759765646646	
15.325	-0.573	0.07660623331605486	
15.33	-0.176	0.08497448511689676	
15.335	0.999	0.08557353445567928	
15.34	-0.338	0.08556160665314497	
15.345	-0.504	0.0854380305361786	
15.35	0.886	0.08648032378972535	
15.355	0.277	0.09494566485044761	
15.36	-0.373	0.12140776746994063	
15.365	1.417	0.20960733402948445	
15.37	2.018	0.3966381640598271	
15.375	0.173	0.6364346711539367	
15.38	0.529	0.8179415770083553	
15.385	1.176	0.8765201252068943	
15.39	-0.491	0.8004497515606157	
15.395	-0.785	0.6124268067968437	
15.4	0.249	0.36144293770564606	
15.405	-0.230	0.09995545656547913	
15.41	-0.771	-0.10144672929101745	
15.415	0.210	-0.2004328016894405	
15.42	0.562	-0.226537238127981	
15.425	-0.619	-0.20245619131978976	
15.43	-0.196	-0.14581241298337946	
15.435	0.938	-0.08648601718332935	
15.44	-0.364	-0.03362371002059396	
15.445	-0.509	0.009597310294515445	
15.45	0.860	0.04254947239084928	
15.455	0.111	0.06371844320046449	
15.46	-0.611	0.07643700621979063	
15.465	0.495	0.09273903431633168	
15.47	0.771	0.1123821471154442	
15.475	-0.549	0.1323306425085471	
15.48	-0.124	0.14433975656119163	
15.485	1.054	0.14361696857239137	
15.49	-0.280	0.1421658498567716	
15.495	-0.414	0.1436457166457164	
15.5	1.052	0.15275961190560483	
15.505	0.266	0.17156951846402935	
15.51	-0.527	0.18933857370379426	
15.515	0.663	0.21094338193020223	
15.52	0.967	0.2393491971965116	
15.525	-0.401	0.2721663541532354	
15.53	0.187	0.30248405845522564	
15.535	1.476	0.3366975334305563	
15.54	-0.053	0.38100747202713536	
15.545	-0.216	0.4096549409882265	
15.55	1.508	0.4338435965545575	
15.555	0.709	0.479528341327402	
15.56	-0.332	0.5243479370457085	
15.565	1.054	0.5539099998694338	
15.57	1.263	0.5812886566013404	
15.575	-0.344	0.5993000940206816	
15.58	0.126	0.5774218359042982	
15.585	1.252	0.5214391040198538	
15.59	-0.263	0.45423731210379004	
15.595	-0.457	0.37485338946960595	
15.6	0.869	0.2894167372008224	
15.605	-0.001	0.2055382003559409	
15.61	-0.695	0.12684239608794445	
15.615	0.213	0.06162514471120239	
15.62	0.417	0.0009470175241061314	
15.625	-0.710	-0.050159783136614185	
15.63	-0.330	-0.08047039764127101	
15.635	0.594	-0.10909959821546732	
15.64	-0.523	-0.13953959010492403	
15.645	-0.654	-0.15473151740494187	
15.65	0.524	-0.1579884140683966	
15.655	-0.160	-0.16663104233338633	
15.66	-0.745	-0.1717170897388047	
15.665	0.228	-0.15743478202731492	
15.67	0.457	-0.13740262862929586	
15.675	-0.675	-0.11796194465286805	
15.68	-0.256	-0.09228178925399286	
15.685	0.828	-0.07135700903437667	
15.69	-0.414	-0.05459498052071983	
15.695	-0.550	-0.036505629481207474	
15.7	0.722	-0.022051316438874997	
15.705	-0.065	-0.018815734259566036	
15.71	-0.675	-0.02460211037908417	
15.715	0.367	-0.020324906366398807	
15.72	0.600	-0.008550200868150871	
15.725	-0.630	0.0059989008757122386	
15.73	-0.213	0.01886788010324353	
15.735	0.866	0.019604183065948785	
15.74	-0.405	0.016270149189199938	
15.745	-0.530	0.015601889946094337	
15.75	0.825	0.018044736099576422	
15.755	0.013	0.021041220899617415	
15.76	-0.642	0.02138408287255612	
15.765	0.413	0.029828908833966158	
15.77	0.587	0.03836842461872378	
15.775	-0.610	0.044871903316931167	
15.78	-0.178	0.050025883517395175	
15.785	0.924	0.04765860971334303	
15.79	-0.355	0.047080089119849	
15.795	-0.456	0.051657455828108406	
15.8	0.962	0.06722197454971146	
15.805	0.156	0.08889378763840762	
15.81	-0.556	0.11028661467689481	
15.815	0.625	0.13703338381554464	
15.82	0.851	0.17035616293840306	
15.825	-0.477	0.20468100622885357	
15.83	0.019	0.22813877770444274	
15.835	1.183	0.23776242298605604	
15.84	-0.263	0.24490499631004667	
15.845	-0.408	0.24064693506235857	
15.85	1.018	0.2263531474924565	
15.855	0.103	0.21080417494580722	
15.86	-0.634	0.18422710890031627	
15.865	0.417	0.15513249640180726	
15.87	0.628	0.12432063385756251	
15.875	-0.608	0.09963290928729937	
15.88	-0.181	0.08123872845460331	
15.885	0.916	0.06074879366358868	
15.89	-0.388	0.04682781573143559	
15.895	-0.500	0.0397468344779357	
15.9	0.872	0.041393901020034936	
15.905	0.019	0.0446828119255932	
15.91	-0.643	0.044265230890228616	
15.915	0.474	0.051251305266594695	
15.92	0.800	0.07023260218184536	
15.925	-0.372	0.10958391820727177	
15.93	0.611	0.1873974468342882	
15.935	2.080	0.33180475438650114	
15.94	0.443	0.5307439864566293	
15.945	-0.097	0.6886852916875768	
15.95	1.076	0.7362770369525735	
15.955	-0.178	0.6626176945978981	
15.96	-0.915	0.48932890954793795	
15.965	-0.137	0.266166288984528	
15.97	0.107	0.0321529281399493	
15.975	-0.762	-0.15620540910611458	
15.98	-0.286	-0.25054952654196905	
15.985	0.741	-0.2724386186776043	
15.99	-0.445	-0.25020606754518576	
15.995	-0.543	-0.19801765508121538	
16.0	0.780	-0.13571246982858393	
16.005	-0.036	-0.08250242141623253	
16.01	-0.665	-0.04454089541153246	
16.015	0.391	-0.011696913190341988	
16.02	0.635	0.015989056100498937	
16.025	-0.570	0.04163883202716466	
16.03	-0.112	0.06555090914192499	
16.035	0.988	0.08055742345026606	
16.04	-0.352	0.09061225487372558	
16.045	-0.437	0.09803848788408365	
16.05	1.003	0.10943644426787234	
16.055	0.159	0.1253774543593753	
16.06	-0.559	0.14040018124774964	
16.065	0.632	0.158471680706656	
16.07	0.817	0.18196131166178253	
16.075	-0.495	0.20549550891898496	
16.08	0.024	0.22165366896635855	
16.085	1.229	0.22962912813375205	
16.09	-0.196	0.2444913052011399	
16.095	-0.279	0.2600608887911446	
16.1	1.359	0.282526630817844	
16.105	0.571	0.3313210035216456	
16.11	-0.343	0.38940439800889354	
16.115	1.089	0.4425007959940113	
16.12	1.295	0.5048929074916266	
16.125	-0.266	0.56455893468147	
16.13	0.390	0.5906705044043925	
16.135	1.435	0.5904402987347787	
16.14	-0.167	0.5725886886287728	
16.145	-0.294	0.5212059085591354	
16.15	1.160	0.4542179272687333	
16.155	0.175	0.39032440097684595	
16.16	-0.584	0.32477996258572506	
16.165	0.463	0.2592253989473504	
16.17	0.567	0.1946340357210277	
16.175	-0.654	0.13606437945687525	
16.18	-0.257	0.08367550142038951	
16.185	0.686	0.024932415141260007	
16.19	-0.517	-0.03106248779105835	
16.195	-0.613	-0.07141858594871517	
16.2	0.530	-0.09930936584630747	
16.205	-0.221	-0.1317450947942682	
16.21	-0.773	-0.15967239928522903	
16.215	0.188	-0.16698472694541422	
16.22	0.304	-0.16974713075874528	
16.225	-0.730	-0.1705479379881874	
16.23	-0.294	-0.1591822489855576	
16.235	0.652	-0.15047412397384105	
16.24	-0.501	-0.144989531503498	
16.245	-0.590	-0.13212021167054774	
16.25	0.643	-0.11652351438560725	
16.255	-0.158	-0.1089055274553372	
16.26	-0.718	-0.10743268754731358	
16.265	0.327	-0.09596747929484002	
16.27	0.506	-0.0779565134883663	
16.275	-0.642	-0.05647113207002447	
16.28	-0.202	-0.034045602782061875	
16.285	0.788	-0.023614314854730895	
16.29	-0.459	-0.022062402283210485	
16.295	-0.547	-0.021971046661277215	
16.3	0.730	-0.02252406463105616	
16.305	-0.103	-0.028042308675129038	
16.31	-0.695	-0.037368883123440985	
16.315	0.375	-0.037862575797093755	
16.32	0.524	-0.030066800451895456	
16.325	-0.634	-0.018524203715104496	
16.33	-0.193	-0.00490739491957333	
16.335	0.823	-0.0026241540816107868	
16.34	-0.428	-0.0031951841928600207	
16.345	-0.509	-0.0008844031948730716	
16.35	0.832	0.004577350151995211	
16.355	0.001	0.012819355385114532	
16.36	-0.597	0.0216095775498942	
16.365	0.503	0.039297879793986	
16.37	0.664	0.06385878135401593	
16.375	-0.561	0.08934502171656337	
16.38	-0.053	0.10924017556329976	
16.385	1.011	0.11841915226497346	
16.39	-0.359	0.12563036747638018	
16.395	-0.443	0.12616936511177052	
16.4	0.895	0.11969728686443883	
16.405	-0.074	0.10567564505327245	
16.41	-0.665	0.07956659628968044	
16.415	0.399	0.055449321731879546	
16.42	0.518	0.03580317548740304	
16.425	-0.660	0.023244384387696396	
16.43	-0.204	0.013370783515894852	
16.435	0.799	-0.002558246509786502	
16.44	-0.446	-0.016507393958772626	
16.445	-0.520	-0.02074641087561383	
16.45	0.771	-0.01918831430759829	
16.455	-0.095	-0.019471581289278485	
16.46	-0.692	-0.025460033633920527	
16.465	0.391	-0.0233684458646347	
16.47	0.616	-0.013269240151262598	
16.475	-0.517	0.012101046898206975	
16.48	0.313	0.06556658083898131	
16.485	1.765	0.16956259558100475	
16.49	0.240	0.32831543287176734	
16.495	-0.077	0.4722219428427026	
16.5	1.237	0.550861091381337	
16.505	-0.097	0.5453950214481313	
16.51	-0.848	0.448486113279318	
16.515	-0.131	0.27865585226431383	
16.52	-0.059	0.06264629779760783	
16.525	-0.860	-0.13884023392825776	
16.53	-0.352	-0.2632876510323881	
16.535	0.582	-0.3175620127603374	
16.54	-0.524	-0.32278437457886766	
16.545	-0.549	-0.2845310436726737	
16.55	0.771	-0.21999826260298105	
16.555	-0.095	-0.1537960907478609	
16.56	-0.665	-0.10048077207765277	
16.565	0.439	-0.0510426524781691	
16.57	0.567	-0.008456867321514966	
16.575	-0.622	0.02384067822822103	
16.58	-0.129	0.0468512912739755	
16.585	0.927	0.05457290532355595	
16.59	-0.388	0.05991061953494025	
16.595	-0.443	0.06644418331511878	
16.6	0.941	0.07429419760819515	
16.605	0.024	0.08305169104648519	
16.61	-0.579	0.08832950867044781	
16.615	0.622	0.10124690718268388	
16.62	0.741	0.12558289725805644	
16.625	-0.521	0.15455072775022188	
16.63	0.043	0.17699702185804694	
16.635	1.144	0.19077144584843414	
16.64	-0.274	0.20665695929177427	
16.645	-0.301	0.21840477167592373	
16.65	1.258	0.23455293303071098	
16.655	0.390	0.26995970211180453	
16.66	-0.388	0.31117775903632644	
16.665	1.014	0.353403116986018	
16.67	1.130	0.4086038560842797	
16.675	-0.341	0.4624228824210038	
16.68	0.385	0.49103499339988477	
16.685	1.426	0.5027959926426264	
16.69	-0.181	0.5056277243099052	
16.695	-0.279	0.47940885912294606	
16.7	1.180	0.4304623003929227	
16.705	0.135	0.3809758423837371	
16.71	-0.576	0.32331816743470204	
16.715	0.548	0.2642494976664545	
16.72	0.548	0.20750086487965835	
16.725	-0.654	0.15470824455704993	
16.73	-0.214	0.10300305189212332	
16.735	0.689	0.043502827649694875	
16.74	-0.510	-0.014129035874774242	
16.745	-0.573	-0.053362240093944135	
16.75	0.617	-0.07786433085405567	
16.755	-0.205	-0.10305244257283695	
16.76	-0.739	-0.12334541210428981	
16.765	0.275	-0.12587953248429107	
16.77	0.321	-0.12572826384875024	
16.775	-0.721	-0.1260734882834828	
16.78	-0.224	-0.11689799979031802	
16.785	0.729	-0.10870815003463483	
16.79	-0.509	-0.10012428619207361	
16.795	-0.556	-0.08921820775211667	
16.8	0.727	-0.07593725751175688	
16.805	-0.141	-0.06914628926802638	
16.81	-0.700	-0.06627085460348184	
16.815	0.371	-0.05783722558952059	
16.82	0.481	-0.04680210728264324	
16.825	-0.637	-0.03309037923176976	
16.83	-0.156	-0.015827791750023735	
16.835	0.803	-0.008723446615621838	
16.84	-0.448	-0.007207812351758978	
16.845	-0.492	-0.003169096545902443	
16.85	0.840	0.004145071324516867	
16.855	-0.065	0.009760214883527773	
16.86	-0.657	0.011682001544948556	
16.865	0.457	0.017296203889115323	
16.87	0.587	0.027176676506211993	
16.875	-0.597	0.042774238273902004	
16.88	-0.120	0.05727536250927211	
16.885	0.954	0.06135788564806063	
16.89	-0.381	0.06763708862657872	
16.895	-0.434	0.07485031387649327	
16.9	0.989	0.08529133597917357	
16.905	0.086	0.10164942576102003	
16.91	-0.541	0.11661892602282592	
16.915	0.669	0.1384530690456029	
16.92	0.722	0.16413182812063923	
16.925	-0.546	0.1866383020386957	
16.93	0.002	0.1953889183162588	
16.935	1.050	0.18940183897681384	
16.94	-0.366	0.18150005388235785	
16.945	-0.462	0.1658896543083313	
16.95	0.817	0.13836514966963218	
16.955	-0.089	0.1005354449540867	
16.96	-0.648	0.06062471893914241	
16.965	0.451	0.037579315635449036	
16.97	0.519	0.02505471772591921	
16.975	-0.648	0.021574850379024908	
16.98	-0.164	0.021536890396319702	
16.985	0.835	0.012390737002854715	
16.99	-0.439	0.005348926620102246	
16.995	-0.492	0.0050111828840323875	
17.0	0.808	0.007487646111760308	
17.005	-0.089	0.0063423860742657205	
17.01	-0.584	0.004601694512561404	
17.015	0.898	0.03682111059757726	
17.02	1.322	0.021574850379024908	
17.025	-0.105	0.28243580390476636	
17.03	0.776	0.4406732485063917	
17.035	1.495	0.5743999191723821	
17.04	-0.352	0.6411311579652776	
17.045	-0.601	0.5939581737029394	
17.05	0.317	0.43650601492861213	
17.055	-0.378	0.21330208312569204	
17.06	-0.857	0.002669640472264599	
17.065	0.129	-0.1421404561278564	
17.07	0.274	-0.23109513435886672	
17.075	-0.707	-0.2655467892518747	
17.08	-0.175	-0.24516179381602515	
17.085	0.817	-0.19960670459630764	
17.09	-0.453	-0.14394538487486008	
17.095	-0.488	-0.08683746253854609	
17.1	0.841	-0.038316618532037945	
17.105	-0.065	-0.0039369484702619275	
17.11	-0.617	0.015541796470452502	
17.115	0.556	0.03909906027561878	
17.12	0.614	0.06482931289573807	
17.125	-0.568	0.0891509022028626	
17.13	-0.015	0.11000259024951649	
17.135	1.029	0.12155964116826642	
17.14	-0.353	0.13076871036164175	
17.145	-0.384	0.13915794800554776	
17.15	1.029	0.1459902374524515	
17.155	0.092	0.1529074380894586	
17.16	-0.503	0.16034507535425294	
17.165	0.809	0.18039111608927597	
17.17	0.851	0.21686854831526722	
17.175	-0.448	0.25784793672506257	
17.18	0.280	0.29214191987196814	
17.185	1.374	0.32477554604695236	
17.19	-0.155	0.36152349529517863	
17.195	-0.173	0.3850856083841946	
17.2	1.505	0.40423668329172774	
17.205	0.574	0.44586658862523837	
17.21	-0.301	0.4911877199135214	
17.215	1.197	0.5284586127425454	
17.22	1.179	0.568913222645082	
17.225	-0.341	0.5998068344890515	
17.23	0.356	0.5950908104460525	
17.235	1.316	0.5607152350018825	
17.24	-0.272	0.5146264136764938	
17.245	-0.343	0.44814029274717393	
17.25	1.006	0.36600862858304345	
17.255	-0.039	0.2838998299051163	
17.26	-0.626	0.20346189190041764	
17.265	0.469	0.13926556716372251	
17.27	0.445	0.08674010639676273	
17.275	-0.672	0.04416853742449841	
17.28	-0.185	0.015115971667181078	
17.285	0.716	-0.015626464910571472	
17.29	-0.518	-0.045168608573808555	
17.295	-0.533	-0.060604753987208854	
17.3	0.686	-0.06629157252572461	
17.305	-0.208	-0.07816995881419506	
17.31	-0.718	-0.09124692150581751	
17.315	0.404	-0.08682257030628734	
17.32	0.452	-0.07446211574493686	
17.325	-0.665	-0.05667230086420798	
17.33	-0.146	-0.03480326771098948	
17.335	0.841	-0.021797509187863162	
17.34	-0.463	-0.012172083583192663	
17.345	-0.501	-0.0024820239810805817	
17.35	0.820	0.004651251627718757	
17.355	-0.086	0.00674668009131945	
17.36	-0.634	0.005832418313126961	
17.365	0.521	0.01621730355878512	
17.37	0.523	0.030441743406949724	
