Time	Potential	EKG	Unnamed: 3
0.0	-0.994	-0.0719791334245037	
0.005	-0.996	-0.21760738032532218	
0.01	3.037	-0.1919627356547177	
0.015	0.311	0.03501063371158255	
0.02	-0.997	0.2514254751242461	
0.025	3.023	0.4542303393650997	
0.03	3.043	0.8028990284881433	
0.035	-0.996	1.1415667712512603	
0.04	-0.168	1.2184513168540787	
0.045	3.026	1.1197746347067001	
0.05	-0.996	0.9998662123974513	
0.055	-0.996	0.8063289803419342	
0.06	3.031	0.6265256943109652	
0.065	-0.628	0.5378639779035367	
0.07	-0.997	0.42273855543210215	
0.075	3.043	0.40682539899668	
0.08	3.046	0.6435346269648277	
0.085	-0.996	0.9497389727225484	
0.09	-0.171	1.0648622619088612	
0.095	3.024	1.0083371460794135	
0.1	-0.994	0.9148220014093531	
0.105	-0.997	0.7630039377627686	
0.11	3.032	0.6178096058035379	
0.115	-0.328	0.5461450850134779	
0.12	-0.996	0.46926459317387065	
0.125	3.043	0.48955799205953404	
0.13	3.044	0.7175369474106249	
0.135	-0.996	1.0018445344052611	
0.14	-0.151	1.1100932319330816	
0.145	3.026	1.0408050892217393	
0.15	-0.994	0.9261178333564768	
0.155	-0.997	0.7703074699435212	
0.16	3.032	0.6265349463738595	
0.165	-0.108	0.5523336853845647	
0.17	-0.996	0.49768915099873273	
0.175	3.041	0.5403388385527499	
0.18	3.043	0.7628910830501663	
0.185	-0.996	1.0331866363773812	
0.19	-0.294	1.1306319345922229	
0.195	3.029	1.0355264836478204	
0.2	-0.994	0.8970857957667884	
0.205	-0.996	0.7423427243535907	
0.21	3.035	0.6052496221595508	
0.215	-0.223	0.5269455466615909	
0.22	-0.997	0.4667641110633612	
0.225	3.038	0.5117742560735274	
0.23	3.047	0.7354802701433456	
0.235	-0.997	1.0102877328003	
0.24	-0.369	1.1168823705055335	
0.245	3.026	1.0187226809300511	
0.25	-0.994	0.8752192991898148	
0.255	-0.996	0.7261484018653264	
0.26	3.034	0.5943714989310416	
0.265	0.218	0.5367757537892885	
0.27	-0.996	0.5293241846879151	
0.275	3.043	0.6111206514202623	
0.28	3.047	0.8301471711002142	
0.285	-0.996	1.0869492607442273	
0.29	0.075	1.195203979981358	
0.295	3.029	1.1203897139347774	
0.3	-0.996	0.9891397161797112	
0.305	-0.996	0.8299582493967119	
0.31	3.029	0.6711059778085783	
0.315	-0.977	0.5273464131814933	
0.32	-0.997	0.37322677759658957	
0.325	3.044	0.35694399987146697	
0.33	3.052	0.5701391180228692	
0.335	-0.997	0.8766869564266995	
0.34	1.268	1.1034237112755365	
0.345	3.029	1.2101824839812585	
0.35	-0.994	1.2078173569364157	
0.355	-0.996	1.0748437552915242	
0.36	3.032	0.8818832522360438	
0.365	-0.977	0.6817297099708535	
0.37	-0.996	0.4746472037371503	
0.375	3.043	0.4114196978971699	
0.38	3.014	0.588414684005129	
0.385	-0.996	0.8725871575156305	
0.39	1.558	1.1014722618230557	
0.395	3.027	1.2334828859483862	
0.4	-0.996	1.25510088952965	
0.405	-0.996	1.1253451969424035	
0.41	3.029	0.920346935903601	
0.415	-0.968	0.7103529797564163	
0.42	-0.997	0.49562434532527294	
0.425	3.040	0.4202728067233385	
0.43	3.055	0.5931260214963872	
0.435	-0.997	0.8818646809502992	
0.44	1.912	1.1242009906321717	
0.445	3.027	1.2901793901168703	
0.45	-0.996	1.3401115305351547	
0.455	-0.996	1.2053807613815763	
0.46	3.029	0.9803099303875619	
0.465	-0.985	0.7533988713240278	
0.47	-0.996	0.5212657680953015	
0.475	3.043	0.4262348382632615	
0.48	2.630	0.5733226047556654	
0.485	-0.996	0.8167496545736854	
0.49	0.997	0.98034869311956	
0.495	3.027	1.0521455468376755	
0.5	-0.996	1.0632661686635891	
0.505	-0.996	0.9550350669012814	
0.51	3.031	0.7854195764230434	
0.515	-0.991	0.6309220197628309	
0.52	-0.996	0.4538772202876523	
0.525	3.043	0.3901102862863739	
0.53	2.495	0.5597533443498359	
0.535	-0.996	0.809616008220367	
0.54	1.146	0.9671234698733078	
0.545	3.027	1.0539670960801426	
0.55	-0.996	1.090471027897412	
0.555	-0.996	0.9794520795774955	
0.56	3.031	0.7994615000202017	
0.565	-0.986	0.6510115987943895	
0.57	-0.996	0.46969055816770855	
0.575	3.043	0.38858600571423707	
0.58	2.954	0.5844988101020605	
0.585	-0.996	0.888915186725702	
0.59	1.774	1.0930497030962605	
0.595	3.027	1.2433380437318176	
0.6	-0.996	1.3185115666903053	
0.605	-0.996	1.169549922466079	
0.61	3.029	0.9306414519263968	
0.615	-0.319	0.7783083783329638	
0.62	-0.996	0.6272585737768293	
0.625	2.869	0.5385936336365715	
0.63	3.029	0.7074178590329121	
0.635	-0.994	0.9817044722293994	
0.64	-0.996	1.0065168338382158	
0.645	0.154	0.7030912544713094	
0.65	1.636	0.4045464664739874	
0.655	-0.063	0.3739763544913305	
0.66	-0.079	0.3937456360926367	
0.665	0.761	0.299786892953002	
0.67	0.973	0.30739392832230095	
0.675	0.297	0.44645225482552725	
0.68	0.617	0.5040720228820565	
0.685	1.009	0.5240113874709387	
0.69	0.328	0.6196141072038399	
0.695	0.238	0.6432496745999114	
0.7	0.838	0.5676295289674304	
0.705	0.439	0.557555983797543	
0.71	0.064	0.5592121955520094	
0.715	0.474	0.4676387451620221	
0.72	0.447	0.39937648731517783	
0.725	-0.049	0.3900267077503483	
0.73	0.079	0.31503971738417524	
0.735	0.274	0.21469983203019916	
0.74	-0.125	0.17932275685461363	
0.745	-0.200	0.12460305391567501	
0.75	0.128	0.025743730291144195	
0.755	-0.072	-0.013871124977662574	
0.76	-0.317	-0.025967288876340238	
0.765	-0.021	-0.08645716825570106	
0.77	-0.020	-0.12106358043158275	
0.775	-0.377	-0.11104452516445192	
0.78	-0.239	-0.14311198035654799	
0.785	-0.047	-0.19129602996395634	
0.79	-0.369	-0.19224104015849242	
0.795	-0.328	-0.20405227684905336	
0.8	0.148	-0.23402198023644943	
0.805	0.154	-0.19101408067455625	
0.81	0.040	-0.09795551515319074	
0.815	0.505	-0.016198635695317546	
0.82	0.264	0.08382084204449834	
0.825	-0.364	0.16542434448018806	
0.83	-0.445	0.12722396731146815	
0.835	-0.406	-0.00417995963738854	
0.84	-0.739	-0.14717188848459842	
0.845	-0.721	-0.30631556076863825	
0.85	-0.331	-0.4582382540467319	
0.855	-0.456	-0.5285940097302246	
0.86	-0.628	-0.5413275629061401	
0.865	-0.294	-0.5505526420208513	
0.87	-0.268	-0.5264329509603274	
0.875	-0.587	-0.47066702048805875	
0.88	-0.386	-0.4439553750468129	
0.885	-0.186	-0.4294724803020173	
0.89	-0.486	-0.39158637532885066	
0.895	-0.491	-0.3735578113048219	
0.9	-0.174	-0.381652365593663	
0.905	-0.363	-0.3675365995421188	
0.91	-0.561	-0.35243217047464764	
0.915	-0.246	-0.36739157580167814	
0.92	-0.221	-0.3686535038228399	
0.925	-0.521	-0.3477875290335126	
0.93	-0.313	-0.3489346648865844	
0.935	-0.095	-0.3489358656222099	
0.94	-0.375	-0.3185072113468918	
0.945	-0.355	-0.29794789735348326	
0.95	-0.017	-0.29100373954232306	
0.955	-0.191	-0.2586239186436874	
0.96	-0.367	-0.22444671198986912	
0.965	-0.006	-0.21471283458959423	
0.97	0.029	-0.1886020176965261	
0.975	-0.302	-0.14597534758988456	
0.98	-0.116	-0.13181028074991358	
0.985	0.058	-0.12841466448497788	
0.99	-0.274	-0.10993014877436236	
0.995	-0.310	-0.11568879528653851	
1.0	-0.034	-0.1462857333724112	
1.005	-0.273	-0.1617916314645695	
1.01	-0.515	-0.18550643747543474	
1.015	-0.241	-0.2395678393423166	
1.02	-0.291	-0.28317707325961017	
1.025	-0.645	-0.31224195789236703	
1.03	-0.492	-0.369622034917121	
1.035	-0.339	-0.42381632148903686	
1.04	-0.671	-0.4507918777167188	
1.045	-0.688	-0.48981926701587414	
1.05	-0.406	-0.5394774633255408	
1.055	-0.602	-0.5559551478659309	
1.06	-0.797	-0.5686170891351618	
1.065	-0.464	-0.601003972148292	
1.07	-0.451	-0.6043112812502055	
1.075	-0.746	-0.5845353103431532	
1.08	-0.543	-0.5884862847110781	
1.085	-0.361	-0.5861906846482918	
1.09	-0.672	-0.5569995242289356	
1.095	-0.659	-0.5514084481295436	
1.1	-0.345	-0.5637218454534523	
1.105	-0.523	-0.5430265451540619	
1.11	-0.701	-0.5257336684770673	
1.115	-0.381	-0.5382048601179393	
1.12	-0.374	-0.5260118309198829	
1.125	-0.674	-0.4957071277150514	
1.13	-0.462	-0.5015027994972322	
1.135	-0.276	-0.5016339482826733	
1.14	-0.590	-0.4683603982444727	
1.145	-0.589	-0.46641787057632	
1.15	-0.285	-0.48620864351917265	
1.155	-0.482	-0.46690421010060995	
1.16	-0.656	-0.45567543812316486	
1.165	-0.332	-0.48235032111228143	
1.17	-0.325	-0.47431968835137717	
1.175	-0.625	-0.4414822543006389	
1.18	-0.427	-0.45576772975900914	
1.185	-0.241	-0.46138404403043476	
1.19	-0.540	-0.42262048934792745	
1.195	-0.524	-0.42275220995819207	
1.2	-0.215	-0.44528030235177984	
1.205	-0.406	-0.4124682644740188	
1.21	-0.575	-0.39114055820594384	
1.215	-0.238	-0.4197754589449787	
1.22	-0.238	-0.4003691296201143	
1.225	-0.538	-0.35343272217122035	
1.23	-0.320	-0.3714278103869545	
1.235	-0.122	-0.3748100812167883	
1.24	-0.424	-0.3183780793165297	
1.245	-0.398	-0.31328103778964583	
1.25	-0.075	-0.33847217218067027	
1.255	-0.262	-0.2885271334104762	
1.26	-0.451	-0.2556803222993651	
1.265	-0.140	-0.294979436447106	
1.27	-0.169	-0.27833771372099925	
1.275	-0.494	-0.232917180421668	
1.28	-0.329	-0.2806918757046677	
1.285	-0.192	-0.31848108818928256	
1.29	-0.524	-0.28508629566836885	
1.295	-0.499	-0.3237416741157858	
1.3	-0.198	-0.39950632052134216	
1.305	-0.390	-0.36789911666144015	
1.31	-0.561	-0.3516357384418789	
1.315	-0.246	-0.4205330296047649	
1.32	-0.259	-0.4025164264831924	
1.325	-0.560	-0.3371186794638702	
1.33	-0.994	-0.4177787089894346	
1.335	-0.997	-0.5481954598278718	
1.34	3.041	-0.43589571284673845	
1.345	3.027	0.032903429068319535	
1.35	-0.996	0.5787014326877429	
1.355	-0.154	0.8581002010515099	
1.36	3.023	0.9237557907910089	
1.365	-0.986	0.926051450540823	
1.37	-0.996	0.8045655839242137	
1.375	3.029	0.6600796355460915	
1.38	2.021	0.7076191769993313	
1.385	-0.997	0.8708391486838473	
1.39	3.035	1.028347834075993	
1.395	3.032	1.2393704636193361	
1.4	-0.996	1.419896030141067	
1.405	-0.643	1.359577710782819	
1.41	3.024	1.1246493783558262	
1.415	-0.994	0.9007500719821941	
1.42	-0.997	0.6793137581955536	
1.425	3.031	0.5222834133477303	
1.43	1.729	0.5599476596749565	
1.435	-0.997	0.7156330028480922	
1.44	3.038	0.9000072836970446	
1.445	3.032	1.1416219628702966	
1.45	-0.996	1.3450088424575113	
1.455	-0.698	1.320411676472287	
1.46	3.026	1.1074951879685662	
1.465	-0.994	0.8807603910110398	
1.47	-0.996	0.6689809257912185	
1.475	3.035	0.5269978788103667	
1.48	1.113	0.531884345044771	
1.485	-0.997	0.6189384412210844	
1.49	3.031	0.7705295778565233	
1.495	3.034	1.0132650983972757	
1.5	-0.996	1.2331895737343892	
1.505	-0.820	1.2414936241248231	
1.51	3.024	1.0492652237772344	
1.515	-0.994	0.8278138396004271	
1.52	-0.996	0.6339489615569203	
1.525	3.034	0.512944801759103	
1.53	0.680	0.501699728463055	
1.535	-0.997	0.5469819052128262	
1.54	3.024	0.6790937933743786	
1.545	3.035	0.922840110112977	
1.55	-0.996	1.1559025417417335	
1.555	-0.913	1.1886473387991168	
1.56	3.024	1.008561838375188	
1.565	-0.994	0.7896923712389692	
1.57	-0.997	0.6087950734049876	
1.575	3.034	0.50158965539569	
1.58	0.169	0.46948236364167006	
1.585	-0.997	0.46425556435077925	
1.59	3.009	0.5679410775305891	
1.595	3.038	0.8137190358608174	
1.6	-0.996	1.0637179936559855	
1.605	-0.906	1.127770703954845	
1.61	3.024	0.9748641008675176	
1.615	-0.994	0.7702214388346281	
1.62	-0.997	0.6041323082728263	
1.625	3.034	0.5073094229553028	
1.63	0.267	0.47943696902986827	
1.635	-0.996	0.4833478326555253	
1.64	3.027	0.5980957190653924	
1.645	3.035	0.8411673614665217	
1.65	-0.996	1.0844057311262396	
1.655	-0.691	1.1557976885218588	
1.66	3.024	1.0194265349310876	
1.665	-0.994	0.8212758805138503	
1.67	-0.997	0.6518378508425248	
1.675	3.032	0.5463147448836851	
1.68	0.658	0.5204923787704485	
1.685	-0.996	0.5550925630803666	
1.69	3.040	0.6937735560981197	
1.695	3.035	0.929229487597739	
1.7	-0.996	1.151746645504927	
1.705	-0.456	1.2138360307232952	
1.71	3.023	1.0833649552878195	
1.715	-0.994	0.8846661872567412	
1.72	-0.997	0.7059615470297826	
1.725	3.034	0.5867698523693983	
1.73	0.550	0.5384243466234558	
1.735	-0.997	0.550381547716783	
1.74	3.041	0.6752738908070102	
1.745	3.035	0.9049589285068679	
1.75	-0.996	1.1284855018883804	
1.755	-0.448	1.1999254009723221	
1.76	3.026	1.0748758070144184	
1.765	-0.994	0.8802684787058295	
1.77	-0.996	0.7063811957434925	
1.775	3.034	0.5888566236653991	
1.78	0.207	0.5242750586587617	
1.785	-0.996	0.5000342991807876	
1.79	3.037	0.6016333408134577	
1.795	3.040	0.8314684447287192	
1.8	-0.996	1.0695053531697882	
1.805	-0.650	1.1510192592632458	
1.81	3.026	1.020094894474621	
1.815	-0.994	0.8220606865124886	
1.82	-0.996	0.6599844487055954	
1.825	3.035	0.5566580900789495	
1.83	-0.264	0.4801152183360115	
1.835	-0.997	0.41794604682704045	
1.84	3.027	0.49384615881484034	
1.845	3.041	0.7278397064015234	
1.85	-0.996	0.9877511008545903	
1.855	-0.729	1.0931047480225133	
1.86	3.026	0.9751247232158837	
1.865	-0.994	0.7879776526646576	
1.87	-0.997	0.6396526202806092	
1.875	3.034	0.5452884710850501	
1.88	-0.194	0.4780470415859759	
1.885	-0.996	0.428020714728167	
1.89	3.043	0.5128536367384611	
1.895	3.038	0.7470943845437239	
1.9	-0.996	1.0042251567483993	
1.905	-0.436	1.1202088888599744	
1.91	3.026	1.0279649192308042	
1.915	-0.994	0.856974200991672	
1.92	-0.997	0.7054115965441197	
1.925	3.032	0.5967752341488866	
1.93	-0.198	0.510992486454805	
1.935	-0.996	0.4472154698268218	
1.94	3.043	0.5217728506051246	
1.945	3.040	0.7473241743807416	
1.95	-0.996	1.0018140158464468	
1.955	-0.192	1.1292481658015352	
1.96	3.026	1.061739371424267	
1.965	-0.994	0.9080887329393851	
1.97	-0.996	0.7571518723823649	
1.975	3.029	0.6381577077438305	
1.98	0.081	0.5510471736801603	
1.985	-0.997	0.5064706010660552	
1.99	3.043	0.5925380255455702	
1.995	3.040	0.8085409355607133	
2.0	-0.996	1.0485354089145877	
2.005	0.003	1.1702353353993413	
2.01	3.024	1.1084094516290248	
2.015	-0.994	0.9573008497235727	
2.02	-0.997	0.8009672368685476	
2.025	3.032	0.6694213574187451	
2.03	-0.072	0.5630543164974416	
2.035	-0.996	0.4948252214500278	
2.04	3.043	0.5643150717718566	
2.045	3.040	0.7757208142007344	
2.05	-0.996	1.0202924711643164	
2.055	-0.017	1.1492065794998703	
2.06	3.024	1.0920360190672105	
2.065	-0.994	0.945566910635611	
2.07	-0.996	0.7948047151168987	
2.075	3.032	0.6666243858512343	
2.08	-0.313	0.550072326620763	
2.085	-0.996	0.4592129449385834	
2.09	3.043	0.5120543934439015	
2.095	3.043	0.7239106074823926	
2.1	-0.996	0.9800863371623308	
2.105	-0.255	1.1121202233375374	
2.11	3.023	1.0386349095875373	
2.115	-0.994	0.883912638058731	
2.12	-0.997	0.7416589614408462	
2.125	3.032	0.6257538788948045	
2.13	-0.639	0.507097105897992	
2.135	-0.996	0.39466439112807306	
2.14	3.043	0.4337600833373056	
2.145	3.047	0.6520551116567611	
2.15	-0.996	0.9259387904436819	
2.155	-0.250	1.0780611807954288	
2.16	3.024	1.0191854551761221	
2.165	-0.994	0.8762534838172433	
2.17	-0.996	0.742514550637672	
2.175	3.031	0.6298665474068103	
2.18	-0.613	0.5121681792203316	
2.185	-0.996	0.4031385043501129	
2.19	3.043	0.44339220508520155	
2.195	3.046	0.6591743471352713	
2.2	-0.996	0.9308555117366304	
2.205	-0.081	1.0900127219454654	
2.21	3.024	1.046691181863433	
2.215	-0.994	0.9136019130092371	
2.22	-0.996	0.7803923222470899	
2.225	3.032	0.6589597606502893	
2.23	-0.651	0.5292309977019524	
2.235	-0.996	0.4096273076560581	
2.24	3.044	0.4420297160181582	
2.245	3.047	0.6512953688234041	
2.25	-0.996	0.9247699792070866	
2.255	-0.015	1.088956260028687	
2.26	3.024	1.0521937152606637	
2.265	-0.994	0.9249595645531936	
2.27	-0.996	0.7942873564901911	
2.275	3.032	0.6700423221408496	
2.28	-0.744	0.5322694473078907	
2.285	-0.996	0.40113615641538475	
2.29	3.044	0.4236836413598323	
2.295	3.049	0.6313890498218031	
2.3	-0.997	0.9086885580710131	
2.305	0.026	1.0799205879087967	
2.31	3.026	1.0506741742469692	
2.315	-0.996	0.9303151944245779	
2.32	-0.996	0.8022057566772305	
2.325	3.029	0.6771073201468634	
2.33	-0.837	0.5323004229112127	
2.335	-0.996	0.39066927561560716	
2.34	3.044	0.4053237375051895	
2.345	3.049	0.611468736034737	
2.35	-0.996	0.892631931795894	
2.355	0.018	1.0688765190234122	
2.36	3.024	1.0421300792383241	
2.365	-0.994	0.924697638138998	
2.37	-0.997	0.8001391222328904	
2.375	3.032	0.6761404560486343	
2.38	-0.892	0.5293363727089688	
2.385	-0.997	0.38423583970536457	
2.39	3.044	0.39493899435370394	
2.395	3.049	0.5995171450791515	
2.4	-0.996	0.8826140715654576	
2.405	0.178	1.0708573990536139	
2.41	3.024	1.0625508607400949	
2.415	-0.996	0.9570670883094132	
2.42	-0.994	0.8350879157965525	
2.425	3.032	0.704170406581389	
2.43	-0.535	0.5643837280727606	
2.435	-0.997	0.4508421927539602	
2.44	3.043	0.4815236548809018	
2.445	3.050	0.6774708438730674	
2.45	-0.996	0.9446427300007907	
2.455	0.158	1.1129385611484395	
2.46	3.027	1.0828378736490523	
2.465	-0.994	0.9633840819159298	
2.47	-0.994	0.8352868061061085	
2.475	3.031	0.6991396469934684	
2.48	-0.858	0.5421209182989386	
2.485	-0.997	0.39764110989760815	
2.49	3.043	0.40635317082036143	
2.495	3.050	0.6031609168051911	
2.5	-0.997	0.8866305018316893	
2.505	0.761	1.1023333852880635	
2.51	3.024	1.1500392628178524	
2.515	-0.996	1.0854419413192613	
2.52	-0.996	0.9625774329985473	
2.525	3.029	0.804233030779653	
2.53	-0.846	0.6157821111333787	
2.535	-0.996	0.44538047846115203	
2.54	3.043	0.4332289578112737	
2.545	3.050	0.6128978184280962	
2.55	-0.996	0.888552140575819	
2.555	1.014	1.1116541223275973	
2.56	3.024	1.1823335256546685	
2.565	-0.994	1.1355689996528047	
2.57	-0.996	1.0157739776622692	
2.575	3.027	0.8453357263932139	
2.58	-0.726	0.6495499647773584	
2.585	-0.997	0.4820573503423942	
2.59	3.043	0.46902493644214466	
2.595	3.049	0.6397166050003934	
2.6	-0.997	0.9074930440817355	
2.605	1.527	1.1478990695886977	
2.61	3.026	1.2656797871459298	
2.615	-0.996	1.2507345369460814	
2.62	-0.996	1.1268466457450632	
2.625	3.027	0.9324549739245962	
2.63	-0.797	0.7044498392411065	
2.635	-0.996	0.5066076137964541	
2.64	3.044	0.47074812789451	
2.645	3.049	0.628779310667693	
2.65	-0.996	0.8933858322008639	
2.655	1.297	1.1248430960973859	
2.66	3.024	1.2191872995618755	
2.665	-0.994	1.1921413331261408	
2.67	-0.996	1.0737187364391465	
2.675	3.027	0.8915072472885488	
2.68	-0.887	0.6715602039838123	
2.685	-0.996	0.47709185398673853	
2.69	3.043	0.44331735462375943	
2.695	3.052	0.6059649684117345	
2.7	-0.997	0.8793354407027969	
2.705	1.450	1.1246730211884874	
2.71	3.024	1.2387388132074477	
2.715	-0.996	1.224605334999033	
2.72	-0.996	1.1084559054059318	
2.725	3.031	0.9185596458839218	
2.73	-0.922	0.6888182807721943	
2.735	-0.997	0.48549584420672987	
2.74	3.041	0.442782984457673	
2.745	3.053	0.6002963153122708	
2.75	-0.996	0.8723065487324456	
2.755	1.352	1.1163331624131072	
2.76	3.024	1.2193467283614363	
2.765	-0.996	1.2002086903653162	
2.77	-0.996	1.0861023156577279	
2.775	3.027	0.9015530915794254	
2.78	-0.965	0.6741795637646226	
2.785	-0.996	0.47189465624411153	
2.79	3.043	0.4301674980623676	
2.795	3.055	0.5896666971630389	
2.8	-0.997	0.8663192073070185	
2.805	1.227	1.1069414353961708	
2.81	3.027	1.1989376574680835	
2.815	-0.996	1.1718594703491498	
2.82	-0.996	1.060753207186054	
2.825	3.032	0.8815046626214291	
2.83	-0.973	0.659545215161337	
2.835	-0.996	0.46334193954905084	
2.84	3.043	0.4255338870847608	
2.845	3.055	0.5869753642281909	
2.85	-0.996	0.866377248337424	
2.855	1.436	1.118624666951646	
2.86	3.026	1.2314704694311893	
2.865	-0.996	1.2194503687653357	
2.87	-0.996	1.107451066030565	
2.875	3.027	0.9174638219329965	
2.88	-0.921	0.6858721783353614	
2.885	-0.996	0.48581580997767565	
2.89	3.041	0.4439161971727789	
2.895	3.052	0.5982490764912938	
2.9	-0.996	0.8734483156013488	
2.905	1.502	1.1253269305813673	
2.91	3.026	1.2409621366735393	
2.915	-0.996	1.2320547220529794	
2.92	-0.996	1.121213658164606	
2.925	3.027	0.9273812108140551	
2.93	-0.927	0.6921435853597535	
2.935	-0.996	0.48936257027219293	
2.94	3.043	0.4453179578683919	
2.945	3.052	0.5974352952701982	
2.95	-0.996	0.8725525244988034	
2.955	1.718	1.135107926709931	
2.96	3.026	1.2723868676919552	
2.965	-0.996	1.2796173093009033	
2.97	-0.996	1.1680383170679196	
2.975	3.026	0.964286014877644	
2.98	-0.692	0.7273862377736132	
2.985	-0.996	0.5409685799414539	
2.99	3.040	0.504701154631811	
2.995	3.050	0.648534452989937	
3.0	-0.996	0.9117177346304987	
3.005	1.331	1.1429275818261018	
3.01	3.027	1.2266466128505846	
3.015	-0.996	1.1982311980583447	
3.02	-0.996	1.0861486310651975	
3.025	3.029	0.8950287244170236	
3.03	-0.977	0.6653323422293977	
3.035	-0.997	0.4688830395174667	
3.04	3.040	0.4262530972305646	
3.045	3.055	0.5802405176202506	
3.05	-0.996	0.8639724929964875	
3.055	1.730	1.1321511553419892	
3.06	3.026	1.27163607984724	
3.065	-0.994	1.2815809668403473	
3.07	-0.994	1.174543519805093	
3.075	3.027	0.967775458088052	
3.08	-0.983	0.715056022333261	
3.085	-0.996	0.5019612780272307	
3.09	3.041	0.44288414686843125	
3.095	2.991	0.5807300464383496	
3.1	-0.996	0.8532856462549432	
3.105	1.820	1.1195229386068166	
3.11	3.027	1.265461973746292	
3.115	-0.996	1.28591780322811	
3.12	-0.996	1.1851632742711784	
3.125	3.029	0.9764199557648526	
3.13	-0.985	0.7216104679635746	
3.135	-0.997	0.5082493313907637	
3.14	3.038	0.4465561254866597	
3.145	2.828	0.5729620870303693	
3.15	-0.996	0.8276977162591647	
3.155	2.624	1.121129286697327	
3.16	3.026	1.3501460240744598	
3.165	-0.996	1.4351132551371855	
3.17	-0.996	1.3398549068237726	
3.175	3.029	1.1030976450267613	
3.18	-0.991	0.8101554131602513	
3.185	-0.996	0.5634808643442959	
3.19	3.040	0.47421171575026183	
3.195	2.494	0.5643466256579743	
3.2	-0.997	0.7760475507362069	
3.205	2.259	1.0244790664166765	
3.21	3.029	1.212979406813864	
3.215	-0.996	1.288560846254027	
3.22	-0.996	1.217397294135493	
3.225	3.029	1.012703953997074	
3.23	-0.991	0.7518664068810651	
3.235	-0.996	0.5346631858741777	
3.24	3.041	0.46374875659828263	
3.245	2.450	0.5608177097206015	
3.25	-0.997	0.7754482661908146	
3.255	2.463	1.032766134293647	
3.26	3.031	1.24080514739472	
3.265	-0.996	1.331002224737369	
3.27	-0.994	1.2618815948055098	
3.275	3.027	1.0463218261938012	
3.28	-0.991	0.7746300389453453	
3.285	-0.996	0.5508170276469969	
3.29	3.040	0.47126194145964057	
3.295	2.253	0.5523382486321795	
3.3	-0.997	0.7448421473222542	
3.305	2.651	0.9970125151857562	
3.31	3.029	1.2236928276593604	
3.315	-0.996	1.3364685333133248	
3.32	-0.996	1.278276053870763	
3.325	3.029	1.062968269137178	
3.33	-0.993	0.7884819012873521	
3.335	-0.996	0.5628728345856273	
3.34	3.040	0.4787304855448597	
3.345	1.988	0.5430003384052609	
3.35	-0.997	0.706183676455344	
3.355	2.598	0.9361124647269075	
3.36	3.032	1.155721514218953	
3.365	-0.996	1.277017211408726	
3.37	-0.996	1.2365012340746313	
3.375	3.029	1.0346588817690714	
3.38	-0.993	0.771473753390131	
3.385	-0.997	0.5567840291822626	
3.39	3.038	0.4781545735486915	
3.395	1.886	0.5378402008341885	
3.4	-0.997	0.6934611468133905	
3.405	2.732	0.923088821327111	
3.41	3.029	1.1558883928606007	
3.415	-0.996	1.2905725388926237	
3.42	-0.996	1.2545559693234583	
3.425	3.026	1.050443742401967	
3.43	-0.993	0.7825855804584008	
3.435	-0.997	0.5655261165877365	
3.44	3.038	0.4825643302932467	
3.445	2.143	0.550890278282516	
3.45	-0.997	0.7326711796160286	
3.455	2.901	0.9888911591963984	
3.46	3.031	1.2361669604149856	
3.465	-0.996	1.3712059933241303	
3.47	-0.996	1.322472927022172	
3.475	3.026	1.0972247407214377	
3.48	-0.993	0.8108196442570277	
3.485	-0.997	0.5812303852145984	
3.49	3.038	0.4878885488940298	
3.495	2.076	0.5459880695402226	
3.5	-0.996	0.718913285876272	
3.505	2.927	0.9716440643349211	
3.51	3.031	1.2214685191291268	
3.515	-0.996	1.3628998908796452	
3.52	-0.994	1.3193545711681443	
3.525	3.026	1.0959726464079418	
3.53	-0.993	0.8110999282117191	
3.535	-0.996	0.5829327648638216	
3.54	3.037	0.4891622852338766	
3.545	2.526	0.5671346660730718	
3.55	-0.997	0.7892348581723956	
3.555	2.988	1.0753009054487461	
3.56	3.032	1.3266379967400286	
3.565	-0.996	1.4537236560153035	
3.57	-0.996	1.387346079491427	
3.575	3.027	1.1385015788003034	
3.58	-0.993	0.8333603742103551	
3.585	-0.997	0.5929352070653445	
3.59	3.038	0.4902998575838462	
3.595	1.617	0.51993767341902	
3.6	-0.997	0.6457652427285511	
3.605	2.944	0.8672216206757483	
3.61	3.032	1.1186576681800566	
3.615	-0.996	1.2844809420530294	
3.62	-0.996	1.2684644548196014	
3.625	3.024	1.0640436197895058	
3.63	-0.993	0.7945339186883795	
3.635	-0.996	0.5808759463015878	
3.64	3.035	0.49151380304889875	
3.645	1.652	0.5288710345476524	
3.65	-0.996	0.6612122203112022	
3.655	2.988	0.8869946059584218	
3.66	3.032	1.138732526957802	
3.665	-0.996	1.3042867260858202	
3.67	-0.983	1.286499148536283	
3.675	3.026	1.077591623369182	
3.68	-0.993	0.8037865587263895	
3.685	-0.997	0.5887922566563175	
3.69	3.037	0.4956890305153559	
3.695	1.927	0.5418581754254608	
3.7	-0.996	0.7037043919528148	
3.705	3.021	0.9497100451117844	
3.71	3.032	1.2017350086552234	
3.715	-0.997	1.3591632222922723	
3.72	-0.855	1.3326144250766128	
3.725	3.026	1.1210212456381017	
3.73	-0.993	0.8449970449045705	
3.735	-0.997	0.6218728001479529	
3.74	3.034	0.5168087516807494	
3.745	1.659	0.5406590104060041	
3.75	-0.996	0.669320384095444	
3.755	3.012	0.891554084154917	
3.76	3.034	1.1396143980873017	
3.765	-0.996	1.3080388532595482	
3.77	-0.953	1.2938285667553413	
3.775	3.026	1.083364194581479	
3.78	-0.991	0.8111733546588563	
3.785	-0.996	0.5990809985634913	
3.79	3.035	0.5018891257287478	
3.795	1.137	0.5073318773783888	
3.8	-0.996	0.5870144160707762	
3.805	3.000	0.7754785346373637	
3.81	3.034	1.025413658299282	
3.815	-0.996	1.216896649566642	
3.82	-0.964	1.231110089946116	
3.825	3.026	1.0427038466538965	
3.83	-0.993	0.7893030557913746	
3.835	-0.997	0.5912704137233766	
3.84	3.035	0.5010070479001918	
3.845	0.957	0.5010581426106433	
3.85	-0.997	0.5646661246685072	
3.855	3.008	0.7403417732250738	
3.86	3.035	0.9902593424729469	
3.865	-0.996	1.1897718541781894	
3.87	-0.922	1.2163279235239637	
3.875	3.026	1.0380736573842366	
3.88	-0.994	0.7924873699242271	
3.885	-0.997	0.6003905807150635	
3.89	3.034	0.5091136219565477	
3.895	0.905	0.5038768391924693	
3.9	-0.997	0.5612873191827212	
3.905	3.015	0.7331321787532669	
3.91	3.034	0.9801609873438432	
3.915	-0.996	1.1826702521462353	
3.92	-0.874	1.2144863564348825	
3.925	3.027	1.0414612568084582	
3.93	-0.994	0.8017117073045092	
3.935	-0.997	0.6114750122316418	
3.94	3.035	0.5182082718308811	
3.945	0.817	0.5047302330540887	
3.95	-0.996	0.5538982296494036	
3.955	3.023	0.7169000339678006	
3.96	3.034	0.9620850564660118	
3.965	-0.996	1.169582629515483	
3.97	-0.787	1.2106220530172767	
3.975	3.027	1.0488453537655074	
3.98	-0.994	0.8169568902560023	
3.985	-0.997	0.630550230173085	
3.99	3.035	0.533283739028513	
3.995	0.665	0.5075971723704652	
4.0	-0.997	0.5375138815381282	
4.005	3.023	0.6876537500066202	
4.01	3.035	0.9290266257029026	
4.015	-0.996	1.1425015226980517	
4.02	-0.837	1.1907256229317578	
4.025	3.024	1.029234275474869	
4.03	-0.993	0.799231387942684	
4.035	-0.997	0.6186197954594732	
4.04	3.037	0.5243481068068232	
4.045	0.367	0.4884630898517057	
4.05	-0.996	0.49112013469490945	
4.055	3.017	0.6214171931830458	
4.06	3.038	0.8639949058970062	
4.065	-0.996	1.0914044860479648	
4.07	-0.761	1.1598052632978626	
4.075	3.027	1.0196688022819362	
4.08	-0.994	0.8055134010093741	
4.085	-0.997	0.633599966340973	
4.09	3.034	0.5394380497379082	
4.095	0.479	0.5044468840595405	
4.1	-0.997	0.5166700538003506	
4.105	3.011	0.6510791945337763	
4.11	3.038	0.889022048436767	
4.115	-0.996	1.109341519245141	
4.12	-0.895	1.1658139436466866	
4.125	3.026	1.0040909862812082	
4.13	-0.994	0.7768602176836737	
4.135	-0.997	0.6056207045444109	
4.14	3.034	0.5144756253599245	
4.145	0.146	0.4703604856464529	
4.15	-0.996	0.4562762563375601	
4.155	3.026	0.5728128657784284	
4.16	3.037	0.8159990333741616	
4.165	-0.997	1.0552630670485694	
4.17	-0.704	1.139893624781198	
4.175	3.024	1.0125119792812702	
4.18	-0.994	0.8101360768862224	
4.185	-0.996	0.6456083101288381	
4.19	3.034	0.5505600784131818	
4.195	0.223	0.49933569578543496	
4.2	-0.997	0.4858359774384274	
4.205	3.035	0.6004796154729354	
4.21	3.038	0.8370219184928839	
4.215	-0.996	1.071205321903448	
4.22	-0.535	1.1599160300771683	
4.225	3.024	1.0439536811710775	
4.23	-0.994	0.8494593782893154	
4.235	-0.996	0.683559707045509	
4.24	3.032	0.5786334770477144	
4.245	0.344	0.523353328372296	
4.25	-0.997	0.5153886961318068	
4.255	3.038	0.6331165343885449	
4.26	3.038	0.8640550111426607	
4.265	-0.997	1.0921624879048966	
4.27	-0.450	1.1779256992695086	
4.275	3.024	1.0633759540073826	
4.28	-0.994	0.8708005455680142	
4.285	-0.996	0.7025460951765287	
4.29	3.034	0.5926774953089834	
4.295	0.015	0.5153152058019819	
4.3	-0.996	0.470956080753725	
4.305	3.034	0.5628123785231802	
4.31	3.040	0.7911121765468713	
4.315	-0.996	1.0340807806715797	
4.32	-0.617	1.1298977628422011	
4.325	3.027	1.0128339800255555	
4.33	-0.996	0.821172683841044	
4.335	-0.996	0.6644982020985088	
4.34	3.035	0.5647170038542313	
4.345	-0.174	0.4893160982056633	
4.35	-0.997	0.43451815918497055	
4.355	3.032	0.5184664905691083	
4.36	3.043	0.7501641724278678	
4.365	-0.996	1.0030300959369278	
4.37	-0.555	1.1138769934194266	
4.375	3.026	1.010277009474212	
4.38	-0.996	0.8295387635580105	
4.385	-0.996	0.6774359067753482	
4.39	3.034	0.5767566799649331	
4.395	-0.180	0.4973538723598087	
4.4	-0.997	0.4400778543761492	
4.405	3.037	0.5220803816286488	
4.41	3.043	0.7502228537077306	
4.415	-0.996	1.0030025395093376	
4.42	-0.444	1.1198460079255148	
4.425	3.026	1.0267143802751595	
4.43	-0.996	0.8529127844705597	
4.435	-0.996	0.7023717439779422	
4.44	3.032	0.5957959454963506	
4.445	-0.249	0.5063884896097388	
4.45	-0.996	0.43762988464341873	
4.455	3.038	0.5107087222827	
4.46	3.041	0.7362951613059437	
4.465	-0.996	0.9909550661188222	
4.47	-0.389	1.1138048443119875	
4.475	3.024	1.0281746313488593	
4.48	-0.994	0.8612888576847644	
4.485	-0.996	0.7132869073341195	
4.49	3.032	0.6048456704473035	
4.495	-0.291	0.5104419886100784	
4.5	-0.996	0.4361630521790632	
4.505	3.041	0.5053250538071754	
4.51	3.041	0.7273865980523391	
4.515	-0.996	0.9849061642529358	
4.52	-0.342	1.1127495674499719	
4.525	3.024	1.0316401398516433	
4.53	-0.994	0.8696697997083382	
4.535	-0.997	0.7242043685979226	
4.54	3.032	0.6128924964209161	
4.545	-0.447	0.5074773665030191	
4.55	-0.996	0.41670202923035443	
4.555	3.040	0.47296587698099074	
4.56	3.044	0.6934690741986304	
4.565	-0.997	0.9578465411765131	
4.57	-0.349	1.0947076545067578	
4.575	3.024	1.0180993153529712	
4.58	-0.996	0.8610410043523993	
4.585	-0.996	0.7211421878336346	
4.59	3.032	0.6119397505020989	
4.595	-0.508	0.5044928899308943	
4.6	-0.996	0.40926195070994675	
4.605	3.041	0.4606132083480942	
4.61	3.041	0.6805057927600913	
4.615	-0.996	0.9477992056553415	
4.62	0.128	1.1107346869223578	
4.625	3.026	1.0865611947779277	
4.63	-0.994	0.9653401403173157	
4.635	-0.997	0.8250255881380415	
4.64	3.034	0.6950472556795504	
4.645	-0.645	0.5555730812467146	
4.65	-0.997	0.42370485951374254	
4.655	3.043	0.448229883741833	
4.66	3.046	0.6557470851586065	
4.665	-0.996	0.9236915614507134	
4.67	-0.110	1.0805031075375027	
4.675	3.026	1.0361745439184133	
4.68	-0.994	0.9028530276017457	
4.685	-0.996	0.7707285973851677	
4.69	3.029	0.6531002220093625	
4.695	-0.468	0.5348588509872378	
4.7	-0.997	0.4351120857856749	
4.705	3.043	0.48067865500419593	
4.71	3.044	0.6910231249282508	
4.715	-0.996	0.9546743864138665	
4.72	0.033	1.1112588102396097	
4.725	3.024	1.0727344028763612	
4.73	-0.994	0.9423553059801091	
4.735	-0.996	0.8054679854206757	
4.74	3.032	0.6781372614422623	
4.745	-0.454	0.5500897605042121	
4.75	-0.996	0.44655915940997354	
4.755	3.043	0.4881844550868059	
4.76	3.043	0.6942519212848625	
4.765	-0.996	0.9566414843469012	
4.77	0.305	1.124081775140978	
4.775	3.026	1.1122855824665274	
4.78	-0.994	1.0017982439897546	
4.785	-0.996	0.8642231359908583	
4.79	3.029	0.7242033008440081	
4.795	-0.444	0.5823015947330403	
4.8	-0.996	0.4669876180479553	
4.805	3.043	0.499701231202405	
4.81	3.046	0.6985101140496238	
4.815	-0.996	0.957596034430446	
4.82	0.126	1.1158413110209935	
4.825	3.026	1.0828355561895204	
4.83	-0.994	0.9593218368653874	
4.835	-0.996	0.8250109534795637	
4.84	3.032	0.692205177868598	
4.845	-0.764	0.5444726252699343	
4.85	-0.997	0.40647190808131867	
4.855	3.041	0.42324754302574497	
4.86	3.050	0.6267210893021679	
4.865	-0.997	0.9025596786624976	
4.87	0.046	1.0766494376878843	
4.875	3.027	1.0503533540350392	
4.88	-0.994	0.9318062425349861	
4.885	-0.997	0.8068261540851801	
4.89	3.032	0.6812183630292761	
4.895	-0.793	0.5366301531028559	
4.9	-0.996	0.3999779184797947	
4.905	3.044	0.4177894621441162	
4.91	3.050	0.6208703066477473	
4.915	-0.997	0.9005385193435068	
4.92	0.227	1.084539203210974	
4.925	3.026	1.0768384089087353	
4.93	-0.996	0.9722188450728356	
4.935	-0.996	0.8466852029801888	
4.94	3.027	0.712261048935992	
4.945	-0.803	0.5567394601305539	
4.95	-0.996	0.4114927216827305	
4.955	3.043	0.42136609640959943	
4.96	3.049	0.6189956372761494	
4.965	-0.997	0.8965093243834824	
4.97	0.376	1.0884500979889684	
4.975	3.024	1.0953162787821582	
4.98	-0.994	1.0016247345627751	
4.985	-0.996	0.8775565389725776	
4.99	3.029	0.7373041751853773	
4.995	-0.845	0.5718393355708188	
5.0	-0.997	0.4160037225318227	
5.005	3.044	0.41795117841897195	
5.01	3.049	0.6111327955839044	
5.015	-0.996	0.8894654040415627	
5.02	0.527	1.0903473037715932	
5.025	3.026	1.1138221544615678	
5.03	-0.996	1.0330350306600424	
5.035	-0.996	0.9103862665678457	
5.04	3.031	0.7633623623684964	
5.045	-0.814	0.5899854196592236	
5.05	-0.997	0.43348153667875017	
5.055	3.043	0.4315028796783515	
5.06	3.050	0.618308328623074	
5.065	-0.996	0.8944297292266803	
5.07	0.582	1.0962043706464262	
5.075	3.024	1.122327111433166	
5.08	-0.996	1.0434798298086294	
5.085	-0.996	0.9222277885870506	
5.09	3.029	0.7713925779071651	
5.095	-0.913	0.5901100364131131	
5.1	-0.997	0.4209887358494476	
5.105	3.044	0.411073482066251	
5.11	3.050	0.5964577386501227	
5.115	-0.996	0.8773940623906177	
5.12	0.657	1.089085822537915	
5.125	3.027	1.125820241573381	
5.13	-0.996	1.0569071854010947	
5.135	-0.996	0.9390820162660646	
5.14	3.031	0.7854260949611047	
5.145	-0.761	0.6072356354861695	
5.15	-0.997	0.4525231647071903	
5.155	3.041	0.44962091633477047	
5.16	3.049	0.6305406160325859	
5.165	-0.996	0.9034039904063127	
5.17	0.672	1.107028553865328	
5.175	3.027	1.1372154535291061	
5.18	-0.996	1.063318593191532	
5.185	-0.996	0.9430820628946115	
5.19	3.029	0.7864028249019555	
5.195	-0.945	0.5972080995656928	
5.2	-0.996	0.42417757235896325	
5.205	3.044	0.4082712160711593	
5.21	3.052	0.5894878081236518	
5.215	-0.996	0.8714151632403301	
5.22	0.988	1.1021125126216669	
5.225	3.026	1.172557287470671	
5.23	-0.996	1.127621848435441	
5.235	-0.996	1.011125796697669	
5.24	3.031	0.8424253607248464	
5.245	-0.936	0.6361524596849586	
5.25	-0.997	0.450814510879636	
5.255	3.043	0.4239325697696898	
5.26	3.055	0.5944430793969375	
5.265	-0.996	0.8724080453073798	
5.27	1.284	1.1151848320546418	
5.275	3.024	1.2139331538372735	
5.28	-0.994	1.189933231087927	
5.285	-0.996	1.0741267724025176	
5.29	3.029	0.8924667550247452	
5.295	-0.927	0.6701423060290781	
5.3	-0.996	0.4734008760820135	
5.305	3.041	0.43656935550774845	
5.31	3.052	0.5974742932416554	
5.315	-0.996	0.8723826785019937	
5.32	1.662	1.1311824457984598	
5.325	3.026	1.2683874680679181	
5.33	-0.996	1.2702823434616883	
5.335	-0.996	1.1539946611292105	
5.34	3.027	0.9555406533521288	
5.345	-0.944	0.7132725271450909	
5.35	-0.996	0.49785699863543825	
5.355	3.043	0.4461212288583386	
5.36	3.055	0.5977211092959364	
5.365	-0.997	0.8693258116950363	
5.37	1.332	1.1109121665321302	
5.375	3.027	1.2129607831977307	
5.38	-0.996	1.1928588779887315	
5.385	-0.996	1.081724410562874	
5.39	3.031	0.8975206126696527	
5.395	-0.977	0.6715559874577939	
5.4	-0.997	0.4693218287272796	
5.405	3.043	0.4275411372955478	
5.41	3.056	0.5869890598722896	
5.415	-0.996	0.8653640324182602	
5.42	1.325	1.1116184886102012	
5.425	3.027	1.213471615046963	
5.43	-0.996	1.1934544879113491	
5.435	-0.996	1.0834749704428182	
5.44	3.029	0.8984548798670061	
5.445	-0.977	0.6708347858176922	
5.45	-0.996	0.4698457636164955	
5.455	3.041	0.4279456391763111	
5.46	3.058	0.5861973659276352	
5.465	-0.996	0.865451267628935	
5.47	1.526	1.1223852358792503	
5.475	3.026	1.243920456413898	
5.48	-0.994	1.2380152168548433	
5.485	-0.996	1.1272789977892061	
5.49	3.027	0.9333790059170312	
5.495	-0.974	0.6940740331815449	
5.5	-0.997	0.4854026632964441	
5.505	3.043	0.4353638031741728	
5.51	3.050	0.5873751128859376	
5.515	-0.996	0.8635503841051311	
5.52	1.652	1.1251633026579357	
5.525	3.027	1.2583461454392384	
5.53	-0.996	1.2625914615885239	
5.535	-0.996	1.1531050522476596	
5.54	3.027	0.9532729853651675	
5.545	-0.980	0.7073118580557751	
5.55	-0.997	0.49399345782849846	
5.555	3.041	0.4387567196987105	
5.56	3.014	0.5845301787736771	
5.565	-0.996	0.85669037626032	
5.57	1.809	1.1229383074092578	
5.575	3.026	1.2717363349970578	
5.58	-0.994	1.2891989510623587	
5.585	-0.996	1.1829410617337672	
5.59	3.029	0.9771221305265907	
5.595	-0.985	0.7235723094253075	
5.6	-0.997	0.5046157284508439	
5.605	3.043	0.44410221559794366	
5.61	2.913	0.5806846565589872	
5.615	-0.997	0.8408727983998837	
5.62	1.550	1.0876607453181912	
5.625	3.027	1.2080821132406943	
5.63	-0.996	1.2128973539786618	
5.635	-0.996	1.1148396375688554	
5.64	3.029	0.9238793372332933	
5.645	-0.986	0.6877953736930732	
5.65	-0.996	0.4853560844660508	
5.655	3.043	0.4364350904638052	
5.66	2.784	0.5716894115250983	
5.665	-0.997	0.824135178020251	
5.67	1.889	1.0795459864897636	
5.675	3.027	1.2353126127658638	
5.68	-0.996	1.2684728520490656	
5.685	-0.994	1.1758305957118123	
5.69	3.027	0.9746638757500865	
5.695	-0.980	0.7239376008007825	
5.7	-0.996	0.5101082040200351	
5.705	3.041	0.4498260438096934	
5.71	2.433	0.5606807626697794	
5.715	-0.996	0.771335900228051	
5.72	1.454	0.9804133685905353	
5.725	3.027	1.0895917611082053	
5.73	-0.996	1.1080848772940923	
5.735	-0.994	1.038854744528944	
5.74	3.029	0.8724637037047928	
5.745	-0.991	0.6580074830506261	
5.75	-0.996	0.47486541391840104	
5.755	3.043	0.4343084896785436	
5.76	2.587	0.5636022029405854	
5.765	-0.996	0.7995074183631775	
5.77	1.986	1.0474425293999043	
5.775	3.029	1.2108105719759492	
5.78	-0.994	1.2584846299597658	
5.785	-0.996	1.1779395763529292	
5.79	3.027	0.9783627015903871	
5.795	-0.989	0.7279855364144416	
5.8	-0.997	0.5156081148653372	
5.805	3.040	0.4528821997346474	
5.81	2.703	0.5705191098500033	
5.815	-0.996	0.8116279492020058	
5.82	2.363	1.0834837606216698	
5.825	3.027	1.284068258578046	
5.83	-0.996	1.3548869609384546	
5.835	-0.996	1.2689961364360705	
5.84	3.027	1.0482708882739777	
5.845	-0.986	0.7740013455903179	
5.85	-0.996	0.5443205072626375	
5.855	3.038	0.4664152732376621	
5.86	2.881	0.5814948088113107	
5.865	-0.996	0.836771464215404	
5.87	2.698	1.1354328918035317	
5.875	3.029	1.3683331745519562	
5.88	-0.996	1.4563901575957061	
5.885	-0.996	1.360993706580608	
5.89	3.029	1.118100453781767	
5.895	-0.988	0.8191310787576087	
5.9	-0.997	0.5700536553554003	
5.905	3.038	0.4778080650536314	
5.91	2.654	0.5715173829881498	
5.915	-0.996	0.7989928149037672	
5.92	2.406	1.0662456087850305	
5.925	3.029	1.2686041035930549	
5.93	-0.994	1.3470781446263964	
5.935	-0.996	1.2689588556988283	
5.94	3.029	1.0498192825054447	
5.945	-0.989	0.7743334664602202	
5.95	-0.997	0.54783328949243	
5.955	3.038	0.46811468465672645	
5.96	2.593	0.5665199119809201	
5.965	-0.996	0.794299599824632	
5.97	2.532	1.0650704724652353	
5.975	3.027	1.278789843518746	
5.98	-0.996	1.368756887917852	
5.985	-0.996	1.291967087164081	
5.99	3.029	1.0674933537815077	
5.995	-0.989	0.7865227701346063	
6.0	-0.996	0.5566819694914424	
6.005	3.040	0.4733952098765714	
6.01	2.538	0.565478589898732	
6.015	-0.997	0.7866742905677271	
6.02	2.512	1.0518900735935055	
6.025	3.026	1.2618944705795092	
6.03	-0.997	1.3524984953769126	
6.035	-0.996	1.2810465083431655	
6.04	3.027	1.0580715304911668	
6.045	-0.991	0.780686912475145	
6.05	-0.997	0.5546446108126795	
6.055	3.040	0.4716372910744515	
6.06	2.259	0.5503211318343177	
6.065	-0.996	0.744130017346057	
6.07	2.444	0.9877865378458143	
6.075	3.029	1.190901654727437	
6.08	-0.996	1.2902346412008692	
6.085	-0.996	1.2352266432560655	
6.09	3.027	1.0276016019423413	
6.095	-0.993	0.7627783968751556	
6.1	-0.997	0.5486848854063808	
6.105	3.040	0.47090562145412346	
6.11	2.172	0.5470829554120474	
6.115	-0.996	0.73461836398514	
6.12	2.595	0.979752829227671	
6.125	3.032	1.1968300876318978	
6.13	-0.996	1.3109251489701577	
6.135	-0.996	1.2604827240144192	
6.14	3.027	1.0481158967460305	
6.145	-0.991	0.7778117561261244	
6.15	-0.997	0.5597844192950975	
6.155	3.041	0.4771947723093239	
6.16	1.823	0.5327712335186078	
6.165	-0.997	0.68311009056659	
6.17	2.550	0.9007737850199267	
6.175	3.029	1.1127539844442815	
6.18	-0.996	1.2385977534201396	
6.185	-0.994	1.208761068948257	
6.19	3.026	1.0136556302066484	
6.195	-0.993	0.757815868124661	
6.2	-0.996	0.5538497923787307	
6.205	3.040	0.4765284032626167	
6.21	2.096	0.5465036634869449	
6.215	-0.996	0.7285876923757526	
6.22	2.892	0.9817719908088293	
6.225	3.031	1.2256366724237044	
6.23	-0.996	1.364256030873668	
6.235	-0.996	1.318063302438511	
6.24	3.027	1.0931531247996304	
6.245	-0.993	0.8078197998576189	
6.25	-0.996	0.5820049072991005	
6.255	3.041	0.4878124242368719	
6.26	1.462	0.5171287522889052	
6.265	-0.997	0.6281067754623741	
6.27	2.832	0.8328379158095143	
6.275	3.032	1.072556573828309	
6.28	-0.996	1.2359238227179574	
6.285	-0.996	1.2273235690669073	
6.29	3.026	1.0347044795038793	
6.295	-0.994	0.776860646055118	
6.3	-0.997	0.5720124154506541	
6.305	3.037	0.48811787421724684	
6.31	1.276	0.5119424606339469	
6.315	-0.997	0.6065068351285812	
6.32	2.912	0.801753732503335	
6.325	3.032	1.0476508899595616	
6.33	-0.994	1.224598747339476	
6.335	-0.996	1.2253765601776714	
6.34	3.027	1.0363742190632494	
6.345	-0.994	0.7800505795835752	
6.35	-0.997	0.57681414798254	
6.355	3.038	0.4914066867114238	
6.36	1.419	0.5200074564269522	
6.365	-0.997	0.6308143535397049	
6.37	2.982	0.8384671132819286	
6.375	3.029	1.0888994935853784	
6.38	-0.996	1.2643578806939892	
6.385	-0.985	1.258249779999014	
6.39	3.026	1.0580631380412169	
6.395	-0.993	0.7943942124654846	
6.4	-0.997	0.5855329913159499	
6.405	3.037	0.4956011657219073	
6.41	1.477	0.5221835498528302	
6.415	-0.997	0.6381504696931166	
6.42	2.992	0.8500707080964515	
6.425	3.031	1.1011784965652984	
6.43	-0.996	1.2752097307224675	
6.435	-0.994	1.267059785793264	
6.44	3.027	1.062697012022223	
6.445	-0.994	0.7948166256432145	
6.45	-0.997	0.5852672574057567	
6.455	3.037	0.49371791252646263	
6.46	1.000	0.4983518735290157	
6.465	-0.996	0.5645017760847991	
6.47	2.963	0.7426796710630085	
6.475	3.034	0.9925365553178529	
6.48	-0.996	1.1860506525413954	
6.485	-0.996	1.2047618029113933	
6.49	3.027	1.023423971907559	
6.495	-0.993	0.7743160233172011	
6.5	-0.997	0.5798118761898139	
6.505	3.038	0.4958536998474258	
6.51	0.945	0.49975195821967705	
6.515	-0.997	0.5627210639876751	
6.52	2.971	0.7361104919874343	
6.525	3.034	0.985085711915192	
6.53	-0.996	1.180919876497779	
6.535	-0.994	1.2022560164692504	
6.54	3.026	1.0212525487196533	
6.545	-0.993	0.7729594568083025	
6.55	-0.996	0.5801804211425265	
6.555	3.037	0.4959654748611054	
6.56	1.110	0.5073527329104099	
6.565	-0.996	0.587872588582323	
6.57	2.965	0.7733895999386159	
6.575	3.034	1.0197461452702954	
6.58	-0.996	1.2078471747331898	
6.585	-0.996	1.2206327229337082	
6.59	3.026	1.0320950445970352	
6.595	-0.994	0.7776888753580684	
6.6	-0.996	0.5805026101946618	
6.605	3.037	0.4940366248734342	
6.61	1.328	0.5150069356094931	
6.615	-0.996	0.6190421386130953	
6.62	2.976	0.8206254167228424	
6.625	3.032	1.067390658766834	
6.63	-0.996	1.2468138366815957	
6.635	-0.996	1.249024367022029	
6.64	3.026	1.0488802047100325	
6.645	-0.994	0.7864178390237277	
6.65	-0.997	0.5839073021630454	
6.655	3.038	0.4940667380332987	
6.66	1.375	0.5145650261477759	
6.665	-0.996	0.6243012050168708	
6.67	2.962	0.8289283278907825	
6.675	3.034	1.072910362819239	
6.68	-0.996	1.2517957604766203	
6.685	-0.994	1.2525550520803321	
6.69	3.026	1.049557094227037	
6.695	-0.993	0.786053909153139	
6.7	-0.997	0.585494046086022	
6.705	3.037	0.49408127284125275	
6.71	1.136	0.5029084307589111	
6.715	-0.996	0.5876802993188921	
6.72	2.968	0.7763917252743168	
6.725	3.032	1.0212529754885546	
6.73	-0.996	1.210744264469711	
6.735	-0.957	1.2262726046867276	
6.74	3.027	1.0381599343273427	
6.745	-0.993	0.7865580739450821	
6.75	-0.997	0.5922061036219632	
6.755	3.034	0.5011355622017442	
6.76	1.314	0.5171448207523698	
6.765	-0.996	0.6201291524338606	
6.77	2.983	0.8198981187642396	
6.775	3.037	1.0634320000500606	
6.78	-0.996	1.2467252914000757	
6.785	-0.957	1.2531520827845801	
6.79	3.027	1.0546145684446822	
6.795	-0.994	0.7939776149099917	
6.8	-0.997	0.5961614518420975	
6.805	3.035	0.5011438511620065	
6.81	0.750	0.48810157542766736	
6.815	-0.996	0.53271949882014	
6.82	3.015	0.6946253439497497	
6.825	3.035	0.9434623266811024	
6.83	-0.996	1.1546329916267823	
6.835	-0.846	1.1981830062948866	
6.84	3.027	1.0350703687115619	
6.845	-0.994	0.8022767092131038	
6.85	-0.996	0.6171104346684619	
6.855	3.035	0.5242342455275133	
6.86	0.727	0.5060970554402295	
6.865	-0.997	0.5442477089473134	
6.87	3.026	0.7002952003849067	
6.875	3.035	0.9435275185834475	
6.88	-0.996	1.1545510114233042	
6.885	-0.614	1.2091769366258664	
6.89	3.026	1.0695625335860786	
6.895	-0.994	0.852601110726474	
6.9	-0.997	0.6669896316927535	
6.905	3.032	0.5633406170625463	
6.91	0.800	0.5341775513340705	
6.915	-0.997	0.5707183562167581	
6.92	3.035	0.7239101147877699	
6.925	3.034	0.9616808397218639	
6.93	-0.996	1.1674644523010231	
6.935	-0.576	1.2190700229680718	
6.94	3.026	1.0781026870508748	
6.945	-0.994	0.8610025675553539	
6.95	-0.997	0.6758120521234898	
6.955	3.034	0.5684232696921172	
6.96	0.540	0.5252983350479397	
6.965	-0.997	0.5341523722382555	
6.97	3.024	0.6675138741116653	
6.975	3.037	0.9039250645753314	
6.98	-0.996	1.1203593548752426	
6.985	-0.759	1.1788581114063206	
6.99	3.027	1.0296988661375406	
6.995	-0.994	0.8104826937430488	
7.0	-0.996	0.6345558474204553	
7.005	3.035	0.5384837771992328	
7.01	0.337	0.4965035167580009	
7.015	-0.996	0.49356034116272524	
7.02	3.020	0.6190525103780335	
7.025	3.037	0.8592159017866974	
7.03	-0.996	1.0872780683787233	
7.035	-0.733	1.158602245182105	
7.04	3.026	1.0203188431140782	
7.045	-0.994	0.8099849280718466	
7.05	-0.997	0.6392282788554273	
7.055	3.034	0.5435498492612949	
7.06	0.311	0.49879920796460486	
7.065	-0.997	0.49392999487622297	
7.07	3.023	0.6165167075323058	
7.075	3.038	0.8545658021223251	
7.08	-0.996	1.0832266003338074	
7.085	-0.697	1.1582801775057603	
7.09	3.026	1.023951924260143	
7.095	-0.994	0.8165398880453282	
7.1	-0.996	0.6478632149724384	
7.105	3.035	0.550594391291744	
7.11	0.238	0.5001366263305768	
7.115	-0.996	0.48628812106816804	
7.12	3.024	0.6029547854143202	
7.125	3.038	0.838952349214855	
7.13	-0.997	1.0711775053435533	
7.135	-0.723	1.1489165111583586	
7.14	3.024	1.0146036801242297	
7.145	-0.994	0.807122528609778	
7.15	-0.996	0.6414714010532482	
7.155	3.034	0.5456353438172026	
7.16	0.399	0.5045091676078903	
7.165	-0.997	0.5096553274983219	
7.17	3.017	0.6373556978082159	
7.175	3.038	0.87229863025473	
7.18	-0.996	1.0981671775920705	
7.185	-0.695	1.168600303253893	
7.19	3.026	1.0291852607021539	
7.195	-0.994	0.8186829091405621	
7.2	-0.997	0.6491820442322112	
7.205	3.034	0.5496380606654491	
7.21	0.366	0.5037733444621826	
7.215	-0.996	0.5051186300910475	
7.22	3.029	0.6308243467385392	
7.225	3.038	0.8655288160333983	
7.23	-0.996	1.0941737943687937	
7.235	-0.616	1.1713948625718493	
7.24	3.026	1.0406830569369117	
7.245	-0.994	0.835176772979177	
7.25	-0.997	0.6680070863431538	
7.255	3.034	0.5646350424311057	
7.26	0.355	0.5119218947305093	
7.265	-0.996	0.5106567338500233	
7.27	3.024	0.6313690614531924	
7.275	3.040	0.8626302442730522	
7.28	-0.996	1.091177327436169	
7.285	-0.585	1.1713305860031955	
7.29	3.026	1.0420918525743634	
7.295	-0.994	0.8405754811199584	
7.3	-0.997	0.6749995656367805	
7.305	3.035	0.5696297784123479	
7.31	-0.040	0.4968715071831093	
7.315	-0.997	0.45328094416098097	
7.32	3.035	0.5460658973060377	
7.325	3.040	0.77761998015369	
7.33	-0.994	1.0251334674605945	
7.335	-0.101	1.149395253449334	
7.34	3.026	1.0885243055509382	
7.345	-0.994	0.9348579686406292	
7.35	-0.996	0.776909903965902	
7.355	3.035	0.6557276268113956	
7.36	-0.296	0.5469306068369008	
7.365	-0.997	0.45372665411787416	
7.37	3.029	0.5106917105711052	
7.375	3.044	0.728885955355375	
7.38	-0.996	0.9800148296885671	
7.385	-0.360	1.103122062980151	
7.39	3.026	1.0251816274587484	
7.395	-0.996	0.8634036761489396	
7.4	-0.996	0.7155278743254003	
7.405	3.034	0.6087917303299402	
7.41	-0.383	0.511307103658684	
7.415	-0.997	0.4240279021089638	
7.42	3.040	0.48509176427201905	
7.425	3.044	0.7103745132262445	
7.43	-0.996	0.9689496881460297	
7.435	-0.310	1.1016308392030152	
7.44	3.023	1.0319432851467583	
7.445	-0.994	0.8740735583732375	
7.45	-0.996	0.7279278677178249	
7.455	3.029	0.6188568640163329	
7.46	-0.242	0.5239148503539788	
7.465	-0.996	0.4492088321533663	
7.47	3.041	0.5183421351079651	
7.475	3.043	0.7410442790154007	
7.48	-0.996	0.9929005455679664	
7.485	-0.095	1.1279780942329998	
7.49	3.026	1.07381581529299	
7.495	-0.996	0.9268252941670025	
7.5	-0.996	0.7761468479598153	
7.505	3.032	0.6559463072526154	
7.51	0.117	0.5657044126517472	
7.515	-0.997	0.5182805407022019	
7.52	3.040	0.6044753597709429	
7.525	3.041	0.8198575038277836	
7.53	-0.996	1.0538672278515704	
7.535	-0.360	1.1551671807091588	
7.54	3.024	1.055705853221831	
7.545	-0.994	0.8777144052441272	
7.55	-0.996	0.7203863469448484	
7.555	3.034	0.6069366926439377	
7.56	-0.154	0.5164364429837214	
7.565	-0.996	0.4544347706377399	
7.57	3.035	0.5326667275742705	
7.575	3.043	0.7556086873697535	
7.58	-0.997	1.005842031439859	
7.585	-0.451	1.1204297677995483	
7.59	3.024	1.0245506531938642	
7.595	-0.994	0.8495380644588494	
7.6	-0.996	0.6996682650760624	
7.605	3.034	0.5939460288686182	
7.61	-0.363	0.4991196038923574	
7.615	-0.997	0.4195954620598634	
7.62	3.035	0.48489590789638604	
7.625	3.043	0.710336215883217	
7.63	-0.996	0.9707937801516984	
7.635	-0.467	1.0967260590404129	
7.64	3.026	1.0084130743993047	
7.645	-0.996	0.8393265023463194	
7.65	-0.996	0.695933065757885	
7.655	3.035	0.5919912459859371	
7.66	-0.253	0.5048291291747415	
7.665	-0.997	0.43874374050851295	
7.67	3.032	0.5110947421903609	
7.675	3.046	0.7350357191818236	
7.68	-0.996	0.990772411860982	
7.685	-0.419	1.1130604495602996	
7.69	3.026	1.0232242833199219	
7.695	-0.994	0.8540969803971901	
7.7	-0.997	0.7072761815760855	
7.705	3.034	0.6000076872602316	
7.71	-0.419	0.5014529003853153	
7.715	-0.996	0.4149502843609845	
7.72	3.037	0.47535473996853805	
7.725	3.046	0.6996909745108404	
7.73	-0.996	0.9627397350118184	
7.735	-0.474	1.0914190333930087	
7.74	3.026	1.0030251391848202	
7.745	-0.996	0.8358639696906607	
7.75	-0.996	0.6946277167173573	
7.755	3.034	0.5910215274762226	
7.76	-0.322	0.500089297303832	
7.765	-0.997	0.42817805135422954	
7.77	3.026	0.49658181781676053	
7.775	3.046	0.7182867182954179	
7.78	-0.996	0.977752150602163	
7.785	-0.520	1.0998428133907203	
7.79	3.026	1.0017343915939116	
7.795	-0.994	0.8285973835979087	
7.8	-0.997	0.6851215371800725	
7.805	3.034	0.5829964815194352	
7.81	-0.416	0.48857038422273524	
7.815	-0.997	0.40952556554154323	
7.82	3.037	0.47391641743414453	
7.825	3.044	0.697720426913993	
7.83	-0.996	0.9627630718491665	
7.835	-0.399	1.0964359356561921	
7.84	3.027	1.015361293361437	
7.845	-0.994	0.8532092780896623	
7.85	-0.996	0.7127314569302021	
7.855	3.035	0.6050048429880959	
7.86	-0.259	0.5119420682918614	
7.865	-0.996	0.4449322968880457	
7.87	3.032	0.5143110396912927	
7.875	3.046	0.7330187670539091	
7.88	-0.997	0.9897859445639702	
7.885	-0.459	1.1121652625735199	
7.89	3.027	1.0148640176084953	
7.895	-0.994	0.8427535663712886	
7.9	-0.997	0.7005705312111563	
7.905	3.034	0.5929628136273266	
7.91	-0.319	0.49806576445039025	
7.915	-0.996	0.42953238977198455	
7.92	3.034	0.4978686467550183	
7.925	3.046	0.7180290478230975	
7.93	-0.996	0.9798245870149696	
7.935	-0.335	1.112200075601836	
7.94	3.026	1.0301771871849046	
7.945	-0.996	0.8690907386338984	
7.95	-0.997	0.7286957883460268	
7.955	3.034	0.6149346207651851	
7.96	-0.560	0.5018897655430762	
7.965	-0.996	0.402280789969261	
7.97	3.038	0.44962693336022996	
7.975	3.049	0.6668158464695587	
7.98	-0.997	0.9388274742991147	
7.985	-0.023	1.0994622805491998	
7.99	3.026	1.0594136599576078	
7.995	-0.994	0.9292716299143147	
8.0	-0.997	0.7949310769103948	
8.005	3.031	0.6699632722228184	
8.01	-0.653	0.5356192928760056	
8.015	-0.997	0.4130365058351852	
8.02	3.035	0.44244002971258817	
8.025	3.052	0.6485675334493801	
8.03	-0.997	0.9218007542406285	
8.035	-0.137	1.0807361621028049	
8.04	3.026	1.0306307127642091	
8.045	-0.994	0.8964729778417311	
8.05	-0.996	0.7682490200592335	
8.055	3.032	0.6489560048618064	
8.06	-0.877	0.5102583453687575	
8.065	-0.996	0.37287506267388726	
8.07	3.041	0.39130953195403356	
8.075	3.052	0.6001956548274123	
8.08	-0.997	0.8857901818030884	
8.085	-0.067	1.062141194578497	
8.09	3.027	1.0277632131369705	
8.095	-0.996	0.9055814258177107	
8.1	-0.996	0.7836765863372129	
8.105	3.032	0.6629598130843934	
8.11	-0.837	0.5218008369952235	
8.115	-0.997	0.3877906198515021	
8.12	3.044	0.40522348196794367	
8.125	3.052	0.6096766279053834	
8.13	-0.996	0.8938084572291376	
8.135	0.617	1.1007257241049906	
8.14	3.026	1.133827419797396	
8.145	-0.994	1.0585444902137753	
8.15	-0.996	0.9331565221826055	
8.155	3.027	0.7810252050911686	
8.16	-0.884	0.5992983990381624	
8.165	-0.997	0.4286578316446669	
8.17	3.044	0.41817688663587627	
8.175	3.052	0.6042547354686416	
8.18	-0.996	0.8817645975683294	
8.185	0.809	1.0981696982608358	
8.19	3.026	1.1510047395328131	
8.195	-0.996	1.0916303574811934	
8.2	-0.996	0.9704961115837007	
8.205	3.032	0.8110815369059866	
8.21	-0.944	0.6169511677578392	
8.215	-0.997	0.4354272233718117	
8.22	3.046	0.4140236129603415	
8.225	3.055	0.5939905727663888	
8.23	-0.996	0.8727232344243034	
8.235	0.520	1.0784234734163372	
8.24	3.027	1.1012339812865068	
8.245	-0.996	1.0238738567649555	
8.25	-0.997	0.9077861755649395	
8.255	3.029	0.7600517584740978	
8.26	-0.968	0.5796588134516797	
8.265	-0.996	0.4112675039607666	
8.27	3.043	0.39880675657278764	
8.275	3.056	0.5836353467419175	
8.28	-0.997	0.8697769914227409	
8.285	0.628	1.0847797000523938	
8.29	3.027	1.118329228103786	
8.295	-0.996	1.0490525710508383	
8.3	-0.996	0.9352167005992942	
8.305	3.031	0.7809791287939205	
8.31	-0.973	0.5922361684494537	
8.315	-0.997	0.42024444715605935	
8.32	3.044	0.40265317698431713	
8.325	3.052	0.5820945986849507	
8.33	-0.996	0.8678833467217406	
8.335	0.985	1.1003223299125422	
8.34	3.027	1.1692850105282662	
8.345	-0.994	1.1261219814979881	
8.35	-0.996	1.0128152306648426	
8.355	3.027	0.8418912421133038	
8.36	-0.985	0.632668629360756	
8.365	-0.997	0.4443256553748518	
8.37	3.043	0.41256722409687085	
8.375	2.866	0.5724178795467407	
8.38	-0.996	0.8359986080229674	
8.385	1.229	1.0659716859756938	
8.39	3.027	1.1601940297895301	
8.395	-0.996	1.143151157558965	
8.4	-0.996	1.0414747079613877	
8.405	3.029	0.8688106797744266	
8.41	-0.988	0.653060929006511	
8.415	-0.996	0.4604039016521434	
8.42	3.044	0.4225018658918898	
8.425	2.797	0.5727572049858404	
8.43	-0.996	0.8270916642868705	
8.435	1.466	1.0635916636601856	
8.44	3.027	1.1791341454242819	
8.445	-0.996	1.1811907700913666	
8.45	-0.996	1.085087827156101	
8.455	3.027	0.9037514972935383	
8.46	-0.986	0.6774953676716212	
8.465	-0.996	0.47743184449393083	
8.47	3.041	0.4324250164898238	
8.475	2.855	0.576166166589383	
8.48	-0.997	0.835166843077888	
8.485	1.814	1.0911568243659875	
8.49	3.026	1.241118974882668	
8.495	-0.996	1.265247477305321	
8.5	-0.996	1.166628150553476	
8.505	3.026	0.9667074723888421	
8.51	-0.985	0.718002093610983	
8.515	-0.997	0.5034061627649244	
8.52	3.043	0.4443039674273747	
8.525	2.892	0.5796630681641747	
8.53	-0.996	0.8392406587468234	
8.535	2.050	1.1086211444539908	
8.54	3.027	1.2801543670320885	
8.545	-0.996	1.3203871088985302	
8.55	-0.996	1.2220871643925104	
8.555	3.029	1.0096321290371035	
8.56	-0.985	0.7466052401632741	
8.565	-0.997	0.5223575493934239	
8.57	3.040	0.454097308354719	
8.575	2.884	0.5802237367890118	
8.58	-0.997	0.8363569907589741	
8.585	2.337	1.1180006510845302	
8.59	3.024	1.3182108274884858	
8.595	-0.996	1.3786025083592448	
8.6	-0.996	1.2814635900611906	
8.605	3.029	1.0565270264774436	
8.61	-0.988	0.7773205522340461	
8.615	-0.996	0.5422636323903238	
8.62	3.041	0.46379845160008326	
8.625	2.773	0.5758946008228243	
8.63	-0.996	0.8194890154118132	
8.635	2.268	1.0892304693479151	
8.64	3.026	1.2803234503963963	
8.645	-0.996	1.3419522817973317	
8.65	-0.994	1.2537596689991846	
8.655	3.026	1.035363920170599	
8.66	-0.988	0.7641303246487159	
8.665	-0.997	0.5371721103866125	
8.67	3.038	0.4624134493285642	
8.675	2.852	0.577595602531432	
8.68	-0.996	0.8316988163476237	
8.685	2.861	1.136434885183705	
8.69	3.026	1.38740589513849	
8.695	-0.996	1.4883102203522793	
8.7	-0.996	1.3929783861666278	
8.705	3.027	1.1441816161250822	
8.71	-0.991	0.8370667096035369	
8.715	-0.997	0.5810296168861002	
8.72	3.041	0.4829072992409248	
8.725	2.393	0.5604435253346494	
8.73	-0.997	0.7589098728372954	
8.735	2.354	1.0043970665358062	
8.74	3.027	1.2026255632147564	
8.745	-0.996	1.2889210228273253	
8.75	-0.996	1.2250450489373985	
8.755	3.027	1.019933292459948	
8.76	-0.989	0.7581655974595118	
8.765	-0.996	0.5408144632351781	
8.77	3.040	0.46729845541693876	
8.775	2.512	0.5654143460276342	
8.78	-0.996	0.7851601087745347	
8.785	2.558	1.0522686291444576	
8.79	3.029	1.2688312984995842	
8.795	-0.996	1.3625296751771856	
8.8	-0.996	1.290052502329086	
8.805	3.026	1.067679430661321	
8.81	-0.991	0.7873234431734666	
8.815	-0.996	0.557601146339151	
8.82	3.038	0.4736512645089675	
8.825	2.433	0.5604082724600821	
8.83	-0.996	0.7704347708152564	
8.835	2.677	1.0361132937332407	
8.84	3.027	1.2650553969999874	
8.845	-0.996	1.3711788607701014	
8.85	-0.996	1.3050232795291499	
8.855	3.027	1.0804090471307872	
8.86	-0.989	0.7975316112439995	
8.865	-0.996	0.5663668719530849	
8.87	3.038	0.4789541866948044	
8.875	2.468	0.5634573182099722	
8.88	-0.996	0.7767398417829122	
8.885	2.717	1.04687445036443	
8.89	3.027	1.277265250788499	
8.895	-0.996	1.3859126586327002	
8.9	-0.996	1.3179834219500624	
8.905	3.027	1.0890619190667978	
8.91	-0.991	0.801783507318889	
8.915	-0.997	0.5691980833989903	
8.92	3.040	0.4801832574093031	
8.925	2.123	0.5464522482099797	
8.93	-0.996	0.7241069988412066	
8.935	2.625	0.9656564766354946	
8.94	3.032	1.1874537982524815	
8.945	-0.996	1.3056685271427295	
8.95	-0.996	1.2579503701643362	
8.955	3.029	1.0487076363234578	
8.96	-0.991	0.779038819661358	
8.965	-0.997	0.5610037410488037	
8.97	3.040	0.4794170796483671	
8.975	2.067	0.5454943314819962	
8.98	-0.996	0.7204583795142403	
8.985	2.739	0.9634007650101498	
8.99	3.029	1.1956616146253622	
8.995	-0.994	1.3234194771741912	
9.0	-0.996	1.277873656411453	
9.005	3.027	1.06437270593878	
9.01	-0.993	0.7903335142406536	
9.015	-0.996	0.5687754091234583	
9.02	3.040	0.4826345139682925	
9.025	2.024	0.5445934470882996	
9.03	-0.996	0.7138037113248327	
9.035	2.785	0.9560815820727554	
9.04	3.029	1.190905254428297	
9.045	-0.996	1.3242210964554189	
9.05	-0.996	1.2827412546979449	
9.055	3.026	1.0680217190935022	
9.06	-0.993	0.7926903560934806	
9.065	-0.997	0.57152870857779	
9.07	3.038	0.48380291672931985	
9.075	1.852	0.5357263383493798	
9.08	-0.997	0.6871601221389678	
9.085	2.779	0.9167263669770646	
9.09	3.031	1.1511772456952407	
9.095	-0.996	1.2930498627039606	
9.1	-0.996	1.2615648385743081	
9.105	3.026	1.054676192057356	
9.11	-0.993	0.7850904540489221	
9.115	-0.996	0.5702407934065805	
9.12	3.038	0.4849504195062369	
9.125	1.739	0.531920504831727	
9.13	-0.997	0.6725003068398517	
9.135	2.791	0.8953160356640039	
9.14	3.032	1.1294953052945451	
9.145	-0.996	1.2768961365865292	
9.15	-0.996	1.2523293854795248	
9.155	3.026	1.0483551058407465	
9.16	-0.993	0.782532472490011	
9.165	-0.996	0.570901191338331	
9.17	3.038	0.48609261295536255	
9.175	1.651	0.5281712379740862	
9.18	-0.997	0.6608131117038472	
9.185	2.814	0.8778687838361169	
9.19	3.031	1.1138597026929067	
9.195	-0.996	1.2667485134895387	
9.2	-0.996	1.24704392366912	
9.205	3.026	1.0460569641556965	
9.21	-0.993	0.7820115485845017	
9.215	-0.996	0.5715147808065946	
9.22	3.037	0.4872259111200991	
9.225	1.716	0.5314867549620872	
9.23	-0.996	0.6711115710308543	
9.235	2.904	0.8973652400375227	
9.24	3.031	1.1422567211899548	
9.245	-0.996	1.2986231091300027	
9.25	-0.994	1.2757054874338392	
9.255	3.027	1.066763550802246	
9.26	-0.993	0.7945402005532429	
9.265	-0.997	0.5801030276679696	
9.27	3.038	0.49032927260267456	
9.275	1.474	0.519825810562665	
9.28	-0.996	0.6343965581029541	
9.285	2.872	0.8408470118552411	
9.29	3.034	1.0827127786275907	
9.295	-0.996	1.2485072005305546	
9.3	-0.994	1.2403103169063328	
9.305	3.027	1.0435028084088553	
9.31	-0.993	0.7821078548469038	
9.315	-0.997	0.5766198241892974	
9.32	3.038	0.490427472574477	
9.325	1.302	0.5132459973072944	
9.33	-0.996	0.610636950272186	
9.335	2.903	0.8072691826256193	
9.34	3.034	1.0522537753298944	
9.345	-0.996	1.2263896173471083	
9.35	-0.980	1.2278111177056652	
9.355	3.026	1.0383144534542028	
9.36	-0.993	0.7827473666370691	
9.365	-0.997	0.5800043737835794	
9.37	3.037	0.4935322913644012	
9.375	0.974	0.5008103020584174	
9.38	-0.997	0.5627581965344515	
9.385	2.845	0.733598160135088	
9.39	3.032	0.9720104507605173	
9.395	-0.996	1.1562565672073317	
9.4	-0.996	1.175086424010425	
9.405	3.026	1.0022930601390618	
9.41	-0.993	0.7605287740108123	
9.415	-0.996	0.5691094062051572	
9.42	3.035	0.49066326333537424	
9.425	1.285	0.5156904574614587	
9.43	-0.996	0.613717178497353	
9.435	2.950	0.8107034026492559	
9.44	3.032	1.0589776325004188	
9.445	-0.996	1.2361583021089784	
9.45	-0.994	1.2371368193297252	
9.455	3.026	1.0433590388760339	
9.46	-0.994	0.7844684299881752	
9.465	-0.999	0.5790704445006327	
9.47	3.038	0.4927392563165995	
9.475	1.486	0.5227257710846613	
9.48	-0.996	0.6396461693385729	
9.485	2.951	0.8516885067950896	
9.49	3.034	1.0990359399646716	
9.495	-0.996	1.2691327294765786	
9.5	-0.996	1.2600881145738996	
9.505	3.026	1.0574122028644233	
9.51	-0.993	0.7914931966629819	
9.515	-0.997	0.5820066790548448	
9.52	3.037	0.49275087476214635	
9.525	1.995	0.5448094091024926	
9.53	-0.997	0.7156511421398424	
9.535	2.971	0.9636023484705127	
9.54	3.029	1.2099750412357988	
9.545	-0.996	1.3602141543752833	
9.55	-0.994	1.3231522682230907	
9.555	3.027	1.0962693836562543	
9.56	-0.993	0.8104809225768888	
9.565	-0.999	0.5882206564245767	
9.57	3.037	0.4916516935391769	
9.575	1.579	0.5205824828409693	
9.58	-0.996	0.6468686615561693	
9.585	2.800	0.8587330482074013	
9.59	3.035	1.0906920109867961	
9.595	-0.996	1.2482834034185033	
9.6	-0.997	1.237444801382443	
9.605	3.027	1.0370209924053113	
9.61	-0.993	0.7763063155385725	
9.615	-0.997	0.5725883482494184	
9.62	3.040	0.48760646649640765	
9.625	1.334	0.5121908498067054	
9.63	-0.997	0.615123477993007	
9.635	2.806	0.8109931344927707	
9.64	3.035	1.0433047831788858	
9.645	-0.997	1.2112686422499388	
9.65	-0.994	1.2118460766919694	
9.655	3.026	1.021789624285924	
9.66	-0.994	0.7680375484241571	
9.665	-0.997	0.5709823743548887	
9.67	3.038	0.48763540864994437	
9.675	1.281	0.5107668242053742	
9.68	-0.996	0.6093464583682339	
9.685	2.861	0.8032913499141832	
9.69	3.035	1.0409092929449917	
9.695	-0.996	1.215213264854818	
9.7	-0.996	1.2182703471563372	
9.705	3.027	1.027578060474808	
9.71	-0.994	0.7727419893024136	
9.715	-0.994	0.5753793984464659	
9.72	3.037	0.4906859735906047	
9.725	1.146	0.5063281675509868	
9.73	-0.996	0.5895521057088351	
9.735	2.906	0.7756082650417204	
9.74	3.035	1.018539382057598	
9.745	-0.994	1.2011364755075724	
9.75	-0.996	1.2116671181725054	
9.755	3.026	1.0254091766701192	
9.76	-0.996	0.7734621351349028	
9.765	-0.997	0.5767056375537603	
9.77	3.038	0.4917544151797057	
9.775	1.091	0.503974194774959	
9.78	-0.997	0.582695043748605	
9.785	2.855	0.7618562752824706	
9.79	3.034	0.9982560111612274	
9.795	-0.996	1.180077321044151	
9.8	-0.996	1.193981546970834	
9.805	3.024	1.0112777391869046	
9.81	-0.994	0.7642379228335676	
9.815	-0.999	0.5719687942248806	
9.82	3.038	0.4898100717406599	
9.825	1.139	0.5056842371781434	
9.83	-0.997	0.5898215806006146	
9.835	2.883	0.7750635721038082	
9.84	3.037	1.014000675313709	
9.845	-0.997	1.1950230710806005	
9.85	-0.996	1.2072630911562983	
9.855	3.027	1.0201595629380191	
9.86	-0.993	0.7700307972360727	
9.865	-0.997	0.5762139591469875	
9.87	3.038	0.491868634898791	
9.875	1.140	0.5064031688570076	
9.88	-0.996	0.590936345727057	
9.885	2.932	0.7772786169478568	
9.89	3.037	1.0207568586576259	
9.895	-0.997	1.2069595497661307	
9.9	-0.989	1.2185406895082815	
9.905	3.027	1.030042438086509	
9.91	-0.993	0.7768277845012095	
9.915	-0.999	0.5804607368764327	
9.92	3.035	0.49391407863485387	
9.925	1.166	0.507129332811529	
9.93	-0.996	0.5940703266684555	
9.935	2.959	0.7834712019604595	
9.94	3.034	1.029497170491989	
9.945	-0.996	1.215927379698738	
9.95	-0.991	1.2258200134179345	
9.955	3.026	1.0348954052259836	
9.96	-0.994	0.779640671396428	
9.965	-0.996	0.5827306682450406	
9.97	3.037	0.4949311784318176	
9.975	0.997	0.4998366532325846	
9.98	-0.997	0.56822006603092	
9.985	2.913	0.7436695367851248	
9.99	3.035	0.9852483770532289	
9.995	-0.996	1.175901955256982	
10.0	-0.994	1.19608166382405	
10.005	3.026	1.0147616046292867	
10.01	-0.994	0.7674660508878788	
10.015	-0.996	0.5769617680425086	
10.02	3.037	0.4929579285753583	
10.025	1.236	0.5116058937139829	
10.03	-0.996	0.6073610778853906	
10.035	3.009	0.8038111853210405	
10.04	3.035	1.052983523692272	
10.045	-0.996	1.2409054177915566	
10.05	-0.994	1.2473476515575523	
10.055	3.027	1.0485747007911497	
10.06	-0.994	0.7883102967160567	
10.065	-0.996	0.5872748429854058	
10.07	3.038	0.4959193695050195	
10.075	0.751	0.4872762434072768	
10.08	-0.997	0.5305680616538986	
10.085	2.823	0.6840150716843146	
10.09	3.037	0.9167045245962463	
10.095	-0.996	1.1129246339399503	
10.1	-0.994	1.1476243159919322	
10.105	3.027	0.9813960600964069	
10.11	-0.994	0.7491510610860559	
10.115	-0.997	0.5695247602466605	
10.12	3.040	0.4919087957018222	
10.125	0.983	0.5010518045822678	
10.13	-0.996	0.5727318797680365	
10.135	2.803	0.742122987728684	
10.14	3.037	0.9704347400890192	
10.145	-0.996	1.1529613717147085	
10.15	-0.994	1.1748867505083305	
10.155	3.026	0.9962026507388815	
10.16	-0.994	0.7549943783332467	
10.165	-0.996	0.5698285951003316	
10.17	3.038	0.48989647618914295	
10.175	1.200	0.5077510271534451	
10.18	-0.997	0.602953721089291	
10.185	2.939	0.7943152245038657	
10.19	3.035	1.035054942126675	
10.195	-0.996	1.2189682068983423	
10.2	-0.924	1.2322824013387494	
10.205	3.027	1.0449438424021575	
10.21	-0.993	0.7937319135060905	
10.215	-0.996	0.5982706096758328	
10.22	3.037	0.5058955224729149	
10.225	1.241	0.517283947881388	
10.23	-0.996	0.6112643028624127	
10.235	2.953	0.8036215065361229	
10.24	3.037	1.0435226052757223	
10.245	-0.996	1.2279797698934214	
10.25	-0.986	1.2358419473493298	
10.255	3.026	1.0385614732008335	
10.26	-0.994	0.7813789043603036	
10.265	-0.996	0.5859238562350308	
10.27	3.038	0.4948590250234774	
10.275	0.623	0.47957260276842534	
10.28	-0.996	0.5126883063517775	
10.285	2.834	0.6581022541920731	
10.29	3.040	0.8898662319172445	
10.295	-0.996	1.0949520243120734	
10.3	-0.994	1.137530518706022	
10.305	3.026	0.9741624573559482	
10.31	-0.994	0.7449290661896224	
10.315	-0.997	0.5705876300284882	
10.32	3.038	0.49188666163579214	
10.325	0.584	0.48188137329182673	
10.33	-0.996	0.514077496961715	
10.335	2.781	0.6545465205134146	
10.34	3.040	0.8781996181872903	
10.345	-0.996	1.079922400459377	
10.35	-0.996	1.124227931407187	
10.355	3.027	0.9627656039148418	
10.36	-0.993	0.7364680187539078	
10.365	-0.997	0.5672747778346962	
10.37	3.040	0.49093125578134705	
10.375	0.547	0.47914881785485874	
10.38	-0.997	0.5094774374314337	
10.385	2.899	0.6530554728753589	
10.39	3.040	0.8884970804786531	
10.395	-0.996	1.100837581920537	
10.4	-0.957	1.1489767129699613	
10.405	3.026	0.9853810764867785	
10.41	-0.994	0.7579496287880265	
10.415	-0.997	0.5839832349087899	
10.42	3.037	0.5010088263817355	
10.425	0.346	0.47437532534982535	
10.43	-0.996	0.48086449667938597	
10.435	2.962	0.61160012299735	
10.44	3.040	0.85281163891651	
10.445	-0.996	1.0777369118159053	
10.45	-0.944	1.1387056471141543	
10.455	3.027	0.9830248194694287	
10.46	-0.994	0.7604510817510177	
10.465	-0.996	0.5906361331340824	
10.47	3.037	0.5070916683832651	
10.475	0.413	0.4816819887997791	
10.48	-0.996	0.4952203348818152	
10.485	2.947	0.628064889286699	
10.49	3.041	0.8661545599283881	
10.495	-0.996	1.0866790709109289	
10.5	-0.907	1.1454064017874206	
10.505	3.026	0.9906499708473154	
10.51	-0.994	0.7679811995525215	
10.515	-0.996	0.5983028183528434	
10.52	3.038	0.5121461632263682	
10.525	0.367	0.48197493950421644	
10.53	-0.997	0.49060319810749464	
10.535	2.976	0.620541329865014	
10.54	3.040	0.8594806664736213	
10.545	-0.996	1.0846241085966024	
10.55	-0.867	1.1481190556045475	
10.555	3.024	0.9972596946810451	
10.56	-0.994	0.7775053777464513	
10.565	-0.996	0.6079891459181339	
10.57	3.037	0.5191917861472922	
10.575	0.500	0.4922597143506846	
10.58	-0.996	0.5140246878695889	
10.585	2.986	0.6530025719490137	
10.59	3.038	0.8897355853956123	
10.595	-0.996	1.1096113685603437	
10.6	-0.807	1.169902829673478	
10.605	3.026	1.0167829568443751	
10.61	-0.993	0.795993675098821	
10.615	-0.997	0.6238028932514283	
10.62	3.037	0.530206177086215	
10.625	0.375	0.4924010300770709	
10.63	-0.996	0.49853886632887995	
10.635	2.977	0.6255690787536337	
10.64	3.041	0.8598695599001231	
10.645	-0.996	1.0855861589527431	
10.65	-0.857	1.1508072534193396	
10.655	3.027	0.997230086492767	
10.66	-0.994	0.7794117856351175	
10.665	-0.996	0.6127503250045501	
10.67	3.038	0.5222060824770343	
10.675	0.181	0.47740423172375723	
10.68	-0.996	0.4681514161733501	
10.685	2.992	0.5842168169315767	
10.69	3.041	0.8198546455033469	
10.695	-0.997	1.0565756346707231	
10.7	-0.473	1.1508736483724515	
10.705	3.024	1.044607035551517	
10.71	-0.993	0.8587083893961567	
10.715	-0.996	0.6957559906016162	
10.72	3.035	0.589251868138747	
10.725	-0.095	0.5113610443391623	
10.73	-0.996	0.45472475562672593	
10.735	2.945	0.5348969037028786	
10.74	3.046	0.756922585162309	
10.745	-0.996	0.997514906699156	
10.75	-0.761	1.0918075855291438	
10.755	3.027	0.969062621544241	
10.76	-0.994	0.7771377959927778	
10.765	-0.996	0.625686062771062	
10.77	3.035	0.537251795222073	
10.775	-0.046	0.4794276978331012	
10.78	-0.996	0.44531242595972476	
10.785	3.015	0.5434660574432622	
10.79	3.043	0.7769600391523837	
10.795	-0.996	1.0245341409656463	
10.8	-0.596	1.1247690584886842	
10.805	3.027	1.0124469196142691	
10.81	-0.994	0.8255499159944352	
10.815	-0.996	0.6696560393970905	
10.82	3.035	0.5692212266467567	
10.825	-0.014	0.5004741749818373	
10.83	-0.997	0.4619538821836851	
10.835	3.021	0.555025511180335	
10.84	3.043	0.7839553884885808	
10.845	-0.996	1.0296069602617741	
10.85	-0.515	1.1327496131420511	
10.855	3.027	1.0257583398884007	
10.86	-0.994	0.8429884083076201	
10.865	-0.996	0.6877019623844152	
10.87	3.035	0.5821226420368624	
10.875	0.139	0.5164806306097498	
10.88	-0.997	0.4917065949080234	
10.885	3.038	0.5925609067018858	
10.89	3.041	0.8188157419409237	
10.895	-0.996	1.0587739602940687	
10.9	-0.297	1.1638345180779022	
10.905	3.026	1.069915889852135	
10.91	-0.994	0.8964045335052595	
10.915	-0.996	0.7379135165772455	
10.92	3.035	0.6189338154462027	
10.925	-0.128	0.5273474749530134	
10.93	-0.997	0.46459661234565225	
10.935	3.035	0.5401581427431189	
10.94	3.043	0.7605793987953173	
10.945	-0.996	1.0109796391727972	
10.95	-0.404	1.125947808787158	
10.955	3.026	1.0309850371953648	
10.96	-0.994	0.8608676433053255	
10.965	-0.997	0.712216943534301	
10.97	3.034	0.6006535739200485	
10.975	-0.183	0.5121809685516394	
10.98	-0.996	0.4526209688646028	
10.985	3.034	0.5267048100184666	
10.99	3.043	0.7481791754000382	
10.995	-0.994	1.0033126223913007	
11.0	-0.448	1.1201783969736665	
11.005	3.026	1.0208467405748425	
11.01	-0.996	0.8503208026800348	
11.015	-0.996	0.7037542812462112	
11.02	3.034	0.5932401123963469	
11.025	-0.034	0.5128517431315067	
11.03	-0.996	0.47392068271436655	
11.035	3.026	0.5592606436924908	
11.04	3.046	0.7774322248512231	
11.045	-0.996	1.028832246812543	
11.05	-0.407	1.140694036691518	
11.055	3.024	1.036336138179529	
11.06	-0.994	0.8636840324377233	
11.065	-0.996	0.7157529764730233	
11.07	3.032	0.5986371181024992	
11.075	-0.656	0.4860991309393861	
11.08	-0.997	0.3816009509883739	
11.085	3.040	0.4210332047790875	
11.09	3.050	0.6412975209474793	
11.095	-0.996	0.9244498774960209	
11.1	0.750	1.124541957207452	
11.105	3.024	1.1686472206903562	
11.11	-0.993	1.100872941876954	
11.115	-0.997	0.96375719639446	
11.12	3.027	0.8010469021316143	
11.125	-0.817	0.6215207273577619	
11.13	-0.997	0.447190801446456	
11.135	3.043	0.43154089386062483	
11.14	3.049	0.6204740251304756	
11.145	-0.996	0.895191877736274	
11.15	0.934	1.1048373585909013	
11.155	3.023	1.1710954592787308	
11.16	-0.997	1.1246535969266847	
11.165	-0.996	0.9943778701751989	
11.17	3.029	0.8261471493544594	
11.175	-0.837	0.6395551260550023	
11.18	-0.997	0.4597299040602709	
11.185	3.044	0.4344274398637931	
11.19	3.050	0.6180390904980995	
11.195	-0.999	0.8943102025372943	
11.2	1.078	1.1084949384184792	
11.205	3.021	1.1885277736078597	
11.21	-0.996	1.1540970887418704	
11.215	-0.996	1.0246272911824073	
11.22	3.029	0.84879440539458	
11.225	-0.811	0.6572455691325606	
11.23	-0.997	0.4753466350946264	
11.235	3.043	0.44459403970552364	
11.24	3.052	0.6239509675373539	
11.245	-0.997	0.8999544591100423	
11.25	1.174	1.1154784486129958	
11.255	3.024	1.2028229970593778	
11.26	-0.994	1.1773142708469015	
11.265	-0.997	1.0465586148099133	
11.27	3.029	0.86384354980686	
11.275	-0.918	0.6646169136785239	
11.28	-0.997	0.4671512485794074	
11.285	3.043	0.4219436810150295	
11.29	3.052	0.6011928177699933	
11.295	-0.996	0.8832562407152011	
11.3	0.907	1.0886849160491683	
11.305	3.027	1.1518688651579425	
11.31	-0.996	1.11650325891965	
11.315	-0.996	0.9882131628533124	
11.32	3.029	0.8160758388799498	
11.325	-0.944	0.6337617245827194	
11.33	-0.996	0.4483464462551826	
11.335	3.041	0.40625772923447917	
11.34	3.052	0.5936190851864307	
11.345	-0.997	0.8835057913542468	
11.35	1.466	1.1121792746304897	
11.355	3.026	1.2354513077310307	
11.36	-0.996	1.244707707609735	
11.365	-0.996	1.1105783123502728	
11.37	3.029	0.9093475955173702	
11.375	-0.979	0.7018650624249383	
11.38	-0.996	0.4859508506217358	
11.385	3.043	0.4132648921952148	
11.39	3.056	0.5924960053057119	
11.395	-0.996	0.8808970122922273	
11.4	0.985	1.0793825792492286	
11.405	3.024	1.1515226308930675	
11.41	-0.994	1.1376425497995415	
11.415	-0.997	1.0035777316097492	
11.42	3.027	0.8191003838882359	
11.425	-0.964	0.6472557606371111	
11.43	-0.996	0.4563675752866475	
11.435	3.041	0.39443514545171426	
11.44	3.056	0.5905869437119653	
11.445	-0.996	0.8910501502181721	
11.45	1.152	1.089333890996639	
11.455	3.026	1.179576915645145	
11.46	-0.996	1.1864936290974477	
11.465	-0.996	1.0433531039733783	
11.47	3.029	0.8429217239745086	
11.475	-0.960	0.6731161247195969	
11.48	-0.996	0.4749052359463947	
11.485	3.043	0.39333412090948167	
11.49	3.053	0.592951972743597	
11.495	-0.996	0.8994621159890391	
11.5	1.346	1.0905572438196751	
11.505	3.027	1.201333836016281	
11.51	-0.996	1.2380222281210513	
11.515	-0.997	1.0827965959672343	
11.52	3.032	0.8660925683189242	
11.525	1.096	0.7981233320916458	
11.53	-0.996	0.8081500873540365	
11.535	1.662	0.7838078166372607	
11.54	3.049	0.830090868092823	
11.545	-0.994	0.9584298526094175	
11.55	-0.994	0.9211292936809641	
11.555	2.781	0.7311679865790226	
11.56	-0.194	0.6318472602885445	
11.565	-0.994	0.5660850836457562	
11.57	-0.230	0.3650077382812398	
11.575	0.046	0.07461898173392786	
11.58	-0.871	-0.13829070744818595	
11.585	-0.916	-0.2767237965909015	
11.59	-0.422	-0.4654200155416137	
11.595	-0.515	-0.6171038946344457	
11.6	-0.994	-0.6433793717717273	
11.605	-0.994	-0.6891839342340103	
11.61	-0.506	-0.7943496311279146	
11.615	-0.651	-0.8032244883716373	
11.62	-0.994	-0.7538152082339278	
11.625	-0.546	-0.7752422779927175	
11.63	-0.390	-0.7670469482065544	
11.635	-0.924	-0.6847792269338604	
11.64	-0.712	-0.668747761595992	
11.645	-0.261	-0.6850859741020442	
11.65	-0.712	-0.627944463577329	
11.655	-0.842	-0.5920255654795934	
11.66	-0.255	-0.6176587592681091	
11.665	-0.448	-0.5905667824452459	
11.67	-0.863	-0.538282725373462	
11.675	-0.364	-0.5510197704124404	
11.68	-0.227	-0.5494912218407071	
11.685	-0.770	-0.4954136135613988	
11.69	-0.543	-0.48986453697228904	
11.695	-0.095	-0.5049671506017077	
11.7	-0.576	-0.4658894281493947	
11.705	-0.712	-0.44049238506923694	
11.71	-0.148	-0.4649437381228739	
11.715	-0.349	-0.4519264092809168	
11.72	-0.773	-0.42124701198379977	
11.725	-0.267	-0.43730994151226926	
11.73	-0.117	-0.439966875509623	
11.735	-0.689	-0.4013416498784926	
11.74	-0.477	-0.3980912452437944	
11.745	-0.067	-0.41399833944832304	
11.75	-0.590	-0.3974017655099116	
11.755	-0.736	-0.39720416460742675	
11.76	-0.142	-0.4336822380002919	
11.765	-0.355	-0.4400540105252444	
11.77	-0.797	-0.4283769062058487	
11.775	-0.302	-0.44697500205995444	
11.78	-0.160	-0.45594445233489495	
11.785	-0.721	-0.4330253948018429	
11.79	-0.489	-0.4316479663592896	
11.795	-0.053	-0.43957872543983234	
11.8	-0.555	-0.4195971341806146	
11.805	-0.645	-0.4056351107570738	
11.81	-0.017	-0.4114676108437527	
11.815	-0.247	-0.38975610391928617	
11.82	-0.678	-0.35619660143818527	
11.825	-0.137	-0.3478975460922652	
11.83	-0.006	-0.33399700095815343	
11.835	-0.608	-0.30182806546888324	
11.84	-0.375	-0.29274892646178596	
11.845	0.046	-0.2992854425306994	
11.85	-0.508	-0.29355800823913414	
11.855	-0.669	-0.30117273108560005	
11.86	-0.096	-0.33604922468710585	
11.865	-0.354	-0.3598446858121748	
11.87	-0.797	-0.37502923422466006	
11.875	-0.296	-0.4060321836155137	
11.88	-0.197	-0.42984735389619927	
11.885	-0.820	-0.4379465933027807	
11.89	-0.585	-0.45848063439759107	
11.895	-0.151	-0.4848290078468166	
11.9	-0.668	-0.4943480361199598	
11.905	-0.782	-0.5009896621149195	
11.91	-0.174	-0.5151701425918698	
11.915	-0.425	-0.5152614510015456	
11.92	-0.881	-0.5061641928484121	
11.925	-0.395	-0.512283511067479	
11.93	-0.277	-0.5212955615320145	
11.935	-0.811	-0.5206175756357472	
11.94	-0.428	-0.5139055729434364	
11.945	0.309	-0.4799271255276486	
11.95	-0.159	-0.39005088116962655	
11.955	-0.168	-0.2703183973454205	
11.96	0.741	-0.13966939952833332	
11.965	-0.009	-0.5045578299393778	
11.97	-0.685	-0.5045578299393778	
11.975	-0.349	-0.5045578299393778	
11.98	-0.366	-0.09314286607467577	
11.985	-0.977	-0.2398729627210973	
11.99	-0.678	-0.38724584586396443	
11.995	-0.201	-0.5045578299393778	
12.0	-0.720	-0.5715404305863188	
12.005	-0.823	-0.6012998723602374	
12.01	-0.178	-0.609622967767061	
12.015	-0.436	-0.5956050850484972	
12.02	-0.869	-0.5679455049731799	
12.025	-0.326	-0.5442192436515869	
12.03	-0.209	-0.5243188018658855	
12.035	-0.799	-0.5018122045757227	
12.04	-0.517	-0.48546258517601526	
12.045	-0.067	-0.4745821718167853	
12.05	-0.602	-0.46001493242841	
12.055	-0.689	-0.4469957039642839	
12.06	-0.050	-0.4377694287779443	
12.065	-0.328	-0.4244980049980991	
12.07	-0.747	-0.4088485461672629	
12.075	-0.166	-0.3947552546620292	
12.08	-0.061	-0.37972893640181493	
12.085	-0.651	-0.36062418262965296	
12.09	-0.320	-0.34051976939891954	
12.095	0.229	-0.3157448828789165	
12.1	-0.395	-0.279465055671065	
12.105	-0.460	-0.24552637995251048	
12.11	0.348	-0.21200957680267543	
12.115	-0.058	-0.17044425845778227	
12.12	-0.477	-0.1326136474468611	
12.125	0.210	-0.1023601792335961	
12.13	0.413	-0.06523318045520911	
12.135	-0.401	-0.021277552724783454	
12.14	-0.130	0.002373987174498893	
12.145	0.492	0.008873967960404613	
12.15	-0.317	0.010254363086804615	
12.155	-0.468	-0.005938381969360778	
12.16	0.190	-0.045559904539989454	
12.165	-0.209	-0.09336726267778421	
12.17	-0.674	-0.14304302486351655	
12.175	-0.137	-0.19516394280430902	
12.18	-0.085	-0.24499036620678744	
12.185	-0.735	-0.2895969372983065	
12.19	-0.468	-0.32760392086503165	
12.195	-0.050	-0.3628176978540588	
12.2	-0.624	-0.39295137546480086	
12.205	-0.717	-0.4160623038443226	
12.21	-0.093	-0.43223123030826643	
12.215	-0.374	-0.4424341193583903	
12.22	-0.778	-0.44331536293069	
12.225	-0.188	-0.4349027329843634	
12.23	-0.105	-0.4208730541451771	
12.235	-0.701	-0.4049457755778459	
12.24	-0.390	-0.3855090340395191	
12.245	0.058	-0.36852484453021617	
12.25	-0.508	-0.35324561787329545	
12.255	-0.567	-0.33819035486172466	
12.26	0.101	-0.32185555573196883	
12.265	-0.236	-0.3065478632518872	
12.27	-0.653	-0.2916461020114476	
12.275	-0.052	-0.27859641967033655	
12.28	0.072	-0.26573630580770785	
12.285	-0.566	-0.2503437240444879	
12.29	-0.265	-0.23239618091843522	
12.295	0.312	-0.215191352188207	
12.3	-0.404	-0.19456400777710758	
12.305	-0.483	-0.18032698979294032	
12.31	0.253	-0.17346901133850898	
12.315	-0.168	-0.16966533404991804	
12.32	-0.593	-0.16995054854282082	
12.325	0.001	-0.17529389489659383	
12.33	0.097	-0.18163717852375022	
12.335	-0.564	-0.18669907099189587	
12.34	-0.244	-0.18826490245204192	
12.345	0.285	-0.18692802622177201	
12.35	-0.433	-0.18385562785855641	
12.355	-0.492	-0.1833966850634905	
12.36	0.235	-0.18613507743114388	
12.365	-0.171	-0.18779888342061024	
12.37	-0.589	-0.18818553857090897	
12.375	0.009	-0.18800816157019862	
12.38	0.059	-0.19158580025766606	
12.385	-0.593	-0.19802315125022735	
12.39	-0.279	-0.2031179216276339	
12.395	0.232	-0.20869868681925896	
12.4	-0.456	-0.21214843295134522	
12.405	-0.521	-0.21643945005447193	
12.41	0.152	-0.22180924176816053	
12.415	-0.233	-0.2309660526178216	
12.42	-0.630	-0.23741546793130258	
12.425	-0.014	-0.23968415638091034	
12.43	0.059	-0.23854217875293923	
12.435	-0.575	-0.2343739234779782	
12.44	-0.230	-0.22293425292441005	
12.445	0.340	-0.2064451199391343	
12.45	-0.419	-0.18649128836591738	
12.455	-0.479	-0.17249284949415927	
12.46	0.285	-0.16543823783816575	
12.465	-0.163	-0.16114283778321134	
12.47	-0.576	-0.1606820306226108	
12.475	0.079	-0.1593539363392877	
12.48	0.148	-0.15748373407498104	
12.485	-0.553	-0.15373653668059095	
12.49	-0.209	-0.1507799285419316	
12.495	0.372	-0.14719603134153936	
12.5	-0.430	-0.14179532870973105	
12.505	-0.508	-0.1435473025446227	
12.51	0.146	-0.15911971500967748	
12.515	-0.259	-0.186303630286774	
12.52	-0.669	-0.21489251981498245	
12.525	-0.070	-0.23804945339586647	
12.53	-0.032	-0.2604668792557845	
12.535	-0.672	-0.2790548406511417	
12.54	-0.343	-0.2885787191409963	
12.545	0.134	-0.294988017343165	
12.55	-0.538	-0.3001410396418544	
12.555	-0.584	-0.3025347286259023	
12.56	0.085	-0.3027352743851878	
12.565	-0.306	-0.3085421171067344	
12.57	-0.717	-0.3131530442336692	
12.575	-0.024	-0.3106343839378367	
12.58	0.325	-0.288424388834824	
12.585	-0.252	-0.2264609407990399	
12.59	0.503	-0.11029623939566628	
12.595	1.303	-0.294988017343165	
12.6	-0.114	0.24539808237783364	
12.605	-0.406	-0.3025347286259023	
12.61	-0.003	-0.3027352743851878	
12.615	-0.515	0.15027363717305886	
12.62	-0.933	-0.04138604727706196	
12.625	-0.294	-0.2213116834442493	
12.63	-0.192	-0.3653840154997938	
12.635	-0.743	-0.4537550321368415	
12.64	-0.361	-0.4781376389609654	
12.645	0.110	-0.46351041796365366	
12.65	-0.534	-0.4318586846990349	
12.655	-0.553	-0.3885549308776838	
12.66	0.187	-0.34400011489409077	
12.665	-0.230	-0.3059872468075899	
12.67	-0.624	-0.2736208783362773	
12.675	0.011	-0.2449094204369741	
12.68	0.078	-0.22744969608308416	
12.685	-0.584	-0.2152493186444747	
12.69	-0.227	-0.20086057819827582	
12.695	0.334	-0.1882191137967722	
12.7	-0.416	-0.17636117948756974	
12.705	-0.407	-0.16155989692754397	
12.71	0.511	-0.13846201423308116	
12.715	-0.064	-0.10628999497028924	
12.72	-0.467	-0.07597822255301517	
12.725	0.360	-0.045379951942645394	
12.73	0.453	-0.0073869167427555605	
12.735	-0.372	0.03420582858570508	
12.74	0.078	0.06839268245218845	
12.745	0.924	0.10715463414439876	
12.75	-0.127	0.15719920946491778	
12.755	-0.110	0.19734243450659003	
12.76	1.110	0.2359674631675694	
12.765	0.413	0.2965620899169805	
12.77	-0.182	0.3517542258736846	
12.775	0.873	0.388857485333761	
12.78	0.855	0.4276648351916986	
12.785	-0.227	0.4570126336964057	
12.79	0.255	0.44842070546408436	
12.795	0.928	0.41717867687392873	
12.8	-0.217	0.3811900292993588	
12.805	-0.305	0.32138277539810056	
12.81	0.538	0.23881742743477913	
12.815	-0.136	0.15255771393320539	
12.82	-0.570	0.06701070168657249	
12.825	0.059	-0.012293235944754167	
12.83	0.037	-0.0865469298979926	
12.835	-0.637	-0.14962822665439227	
12.84	-0.268	-0.19248747387270507	
12.845	0.226	-0.2212062073854962	
12.85	-0.509	-0.24064112989123737	
12.855	-0.520	-0.2472815708901628	
12.86	0.183	-0.24850170920871992	
12.865	-0.291	-0.2545804735052388	
12.87	-0.662	-0.2596161923698429	
12.875	0.003	-0.25836689751197606	
12.88	0.014	-0.25785997091109775	
12.885	-0.630	-0.25741131599247924	
12.89	-0.252	-0.24733035480897897	
12.895	0.267	-0.23750271361074368	
12.9	-0.476	-0.22765199114409493	
12.905	-0.467	-0.21501539047575635	
12.91	0.311	-0.20162900020847163	
12.915	-0.239	-0.19176502463999195	
12.92	-0.628	-0.18841246181515076	
12.925	0.017	-0.18931197648485143	
12.93	-0.006	-0.2020970065662823	
12.935	-0.642	-0.21835220384249462	
12.94	-0.229	-0.22612931149565282	
12.945	0.332	-0.2236492179459233	
12.95	-0.482	-0.21375889484377805	
12.955	-0.500	-0.20281864013538453	
12.96	0.265	-0.19764007407715478	
12.965	-0.250	-0.19895885875432373	
12.97	-0.616	-0.20128966088806144	
12.975	0.061	-0.2011705794265013	
12.98	0.049	-0.20428641203514847	
12.985	-0.619	-0.20638470710172335	
12.99	-0.226	-0.20492300470154454	
12.995	0.283	-0.20274879318064612	
13.0	-0.502	-0.20193001423521117	
13.005	-0.496	-0.2016207267250808	
13.01	0.239	-0.20356860912986538	
13.015	-0.299	-0.2122023309274314	
13.02	-0.657	-0.22323073158297083	
13.025	0.023	-0.20638470710172335	
13.03	-0.012	-0.207658357632918	
13.035	-0.646	-0.24850911413863347	
13.04	-0.230	-0.2466623058315711	
13.045	0.282	-0.23975428683275488	
13.05	-0.499	-0.22919107193328964	
13.055	-0.476	-0.2174669488383567	
13.06	0.296	-0.20638091985905033	
13.065	-0.279	-0.20146708759728887	
13.07	-0.653	-0.20328123206454543	
13.075	0.021	-0.207658357632918	
13.08	0.011	-0.21959039210597964	
13.085	-0.621	-0.22974398394935022	
13.09	-0.200	-0.22638935222442014	
13.095	0.293	-0.2186651072312262	
13.1	-0.514	-0.2105377418214357	
13.105	-0.480	-0.20336257699528787	
13.11	0.308	-0.19807598093816653	
13.115	-0.273	-0.19775666196914016	
13.12	-0.604	-0.19742419079829077	
13.125	0.201	-0.1892484091208485	
13.13	0.165	-0.17266061738302954	
13.135	-0.549	-0.15212342346506993	
13.14	-0.127	-0.130108654836947	
13.145	0.498	-0.11146066120651749	
13.15	-0.407	-0.09094554112637582	
13.155	-0.389	-0.07632264196732841	
13.16	0.506	-0.06769975810352122	
13.165	-0.165	-0.06202821007268342	
13.17	-0.529	-0.06263254168244553	
13.175	0.291	-0.06286683888156888	
13.18	0.186	-0.06170445121804832	
13.185	-0.569	-0.0634770818675802	
13.19	-0.171	-0.07185890740584716	
13.195	0.378	-0.08928272953651453	
13.2	-0.489	-0.1083020030635404	
13.205	-0.465	-0.1252654991082363	
13.21	0.320	-0.14337391910465602	
13.215	-0.258	-0.16228484044685548	
13.22	-0.617	-0.17678604447247123	
13.225	0.091	-0.18449614604887254	
13.23	0.027	-0.19478633200965118	
13.235	-0.627	-0.20481083154863863	
13.24	-0.213	-0.20453693889515254	
13.245	0.299	-0.20410956790975343	
13.25	-0.521	-0.2047531633879249	
13.255	-0.422	-0.1981692995488591	
13.26	0.735	-0.16992092776796955	
13.265	0.227	-0.09959690124503488	
13.27	-0.085	0.006991605774289231	
13.275	1.323	0.15400436745708224	
13.28	1.029	0.3411974894795405	
13.285	-0.355	0.4906840361928087	
13.29	-0.151	0.5165646383901608	
13.295	-0.006	0.4000447876789598	
13.3	-0.768	0.1929524319376551	
13.305	-0.698	-0.024128064578137452	
13.31	0.037	-0.20667269170124086	
13.315	-0.390	-0.33977671442211915	
13.32	-0.689	-0.4050755781594335	
13.325	0.117	-0.4067398551298422	
13.33	0.056	-0.3739132372571952	
13.335	-0.614	-0.32446014936988393	
13.34	-0.153	-0.2670106929139805	
13.345	0.476	-0.21280456178625767	
13.35	-0.430	-0.16346689890658225	
13.355	-0.363	-0.11903758720470839	
13.36	0.567	-0.08434562786505784	
13.365	-0.174	-0.05916948917629726	
13.37	-0.517	-0.046300938929219056	
13.375	0.372	-0.036302615423516496	
13.38	0.238	-0.02800468581907123	
13.385	-0.524	-0.021872993337952028	
13.39	-0.002	-0.016679345911113794	
13.395	0.694	-0.007584102881896197	
13.4	-0.342	0.013094630570824023	
13.405	-0.262	0.03402719396245084	
13.41	0.809	0.054050033719247895	
13.415	-0.023	0.0785450095224552	
13.42	-0.378	0.09851193494195548	
13.425	0.716	0.1210894877046657	
13.43	0.640	0.16295284880390687	
13.435	-0.276	0.21482120810552263	
13.44	0.488	0.2635448407033775	
13.445	1.162	0.320539553056017	
13.45	-0.119	0.3798255059423198	
13.455	-0.035	0.4050460618049653	
13.46	1.142	0.4051898910052135	
13.465	0.140	0.4034482862708927	
13.47	-0.332	0.3834942188011596	
13.475	0.681	0.34309395691799127	
13.48	0.465	0.3038923027520942	
13.485	-0.453	0.26393489844835005	
13.49	0.000	0.21151239939422362	
13.495	0.497	0.14432743063529696	
13.5	-0.489	0.07502594045149621	
13.505	-0.442	0.009235645399483504	
13.51	0.340	-0.05513119560341308	
13.515	-0.328	-0.11654780831794308	
13.52	-0.656	-0.16511416267606316	
13.525	0.070	-0.19809039016573468	
13.53	-0.075	-0.2303950574572933	
13.535	-0.700	-0.2567175656063936	
13.54	-0.223	-0.26535388334781684	
13.545	0.253	-0.2660374843469753	
13.55	-0.544	-0.26190223296943815	
13.555	-0.467	-0.24745389135340418	
13.56	0.293	-0.2313481795794987	
13.565	-0.337	-0.22675008088260842	
13.57	-0.624	-0.22384556188511326	
13.575	0.189	-0.213033442269139	
13.58	0.047	-0.20266888384831025	
13.585	-0.598	-0.19165955090707232	
13.59	-0.128	-0.17413502091942404	
13.595	0.369	-0.16120440970596867	
13.6	-0.520	-0.15306040987644226	
13.605	-0.436	-0.1462321558009858	
13.61	0.367	-0.14729991009861515	
13.615	-0.288	-0.15500100993183996	
13.62	-0.578	-0.1617634837625988	
13.625	0.245	-0.1578058010819613	
13.63	0.078	-0.152874316483082	
13.635	-0.575	-0.14679229615676104	
13.64	-0.073	-0.13384231217938342	
13.645	0.460	-0.12021733550173751	
13.65	-0.450	-0.10535543563563682	
13.655	-0.334	-0.0890459271959769	
13.66	0.596	-0.07108325356153654	
13.665	-0.204	-0.05630981237714309	
13.67	-0.499	-0.04682293122558178	
13.675	0.444	-0.035468431390175165	
13.68	0.238	-0.021006208530691024	
13.685	-0.521	-0.008057747388112522	
13.69	-0.011	-0.0015739209502757339	
13.695	0.590	-0.0011267262262317519	
13.7	-0.406	0.0003266219111616262	
13.705	-0.300	0.00405868101748614	
13.71	0.651	0.005161565657153058	
13.715	-0.197	0.005435483690155425	
13.72	-0.512	-0.0009034884523506423	
13.725	0.425	-0.008172434183534243	
13.73	0.230	-0.010114828888184976	
13.735	-0.505	-0.008267404773199361	
13.74	0.040	-0.003319241674232209	
13.745	0.582	0.000925533337570533	
13.75	-0.419	0.006043008688530478	
13.755	-0.297	0.008179431192849638	
13.76	0.645	0.007357745788980904	
13.765	-0.177	0.006198315379540449	
13.77	-0.470	0.003061955027673402	
13.775	0.486	0.005087623427213137	
13.78	0.226	0.010757961230543154	
13.785	-0.523	0.014547363357850096	
13.79	0.033	0.014906522658289633	
13.795	0.648	0.014966770583520656	
13.8	-0.383	0.021810629287447	
13.805	-0.268	0.03129223802116324	
13.81	0.751	0.03851271673616699	
13.815	-0.111	0.04899453858186574	
13.82	-0.424	0.05704499249303537	
13.825	0.581	0.066288355163041	
13.83	0.357	0.08164130405039471	
13.835	-0.451	0.09644042651122398	
13.84	0.160	0.10608877827137764	
13.845	0.730	0.11193412622684124	
13.85	-0.337	0.1196522210625575	
13.855	-0.218	0.12142581899242452	
13.86	0.747	0.11555590206703001	
13.865	-0.171	0.10382330264318643	
13.87	-0.489	0.0831172801670404	
13.875	0.412	0.0563908629805261	
13.88	0.154	0.027481986393498456	
13.885	-0.552	-0.0005470193279164999	
13.89	-0.040	-0.021739763511170327	
13.895	0.472	-0.0431846919430224	
13.9	-0.483	-0.05944339479634277	
13.905	-0.345	-0.067373312521852	
13.91	0.537	-0.07144639903018232	
13.915	-0.250	-0.07637355035987924	
13.92	-0.535	-0.08075593500415162	
13.925	0.338	-0.07945967752456498	
13.93	0.096	-0.08172798460822958	
13.935	-0.566	-0.0845959871062388	
13.94	0.046	-0.078492798115445	
13.945	0.861	-0.051239346442815574	
13.95	-0.079	0.016385529495835868	
13.955	0.431	0.12783773012084376	
13.96	1.602	0.28466669793247673	
13.965	0.335	0.4543807120385823	
13.97	-0.374	0.5491822538562092	
13.975	0.192	0.51758530917356	
13.98	-0.246	0.3671049984248601	
13.985	-0.877	0.15640834202483983	
13.99	-0.348	-0.047327747715911035	
13.995	0.072	-0.2153406712638354	
14.0	-0.601	-0.32867978054393954	
14.005	-0.404	-0.3659740715494881	
14.01	0.463	-0.34536002959548523	
14.015	-0.285	-0.29778200504427554	
14.02	-0.540	-0.24159759921832763	
14.025	0.402	-0.18014547458777924	
14.03	0.172	-0.12607161932117494	
14.035	-0.528	-0.0807228745501766	
14.04	0.043	-0.04410143753481561	
14.045	0.579	-0.020386918616120728	
14.05	-0.441	-0.002994657461356409	
14.055	-0.274	0.009127963912818261	
14.06	0.713	0.01581131138089959	
14.065	-0.183	0.02196603303174023	
14.07	-0.450	0.025366381915352634	
14.075	0.602	0.0331349069911092	
14.08	0.328	0.05181277102943216	
14.085	-0.453	0.07309507397346648	
14.09	0.207	0.09213526112319216	
14.095	0.780	0.1096519071891616	
14.1	-0.297	0.1327748509785161	
14.105	-0.099	0.1532472517576876	
14.11	1.064	0.1759527279120227	
14.115	0.079	0.21278538587789206	
14.12	-0.236	0.24637190845260395	
14.125	1.012	0.2792727945940189	
14.13	0.736	0.3307081067362274	
14.135	-0.244	0.383078239647955	
14.14	0.623	0.4172178537352305	
14.145	1.098	0.44554393408360543	
14.15	-0.212	0.4637973042069669	
14.155	-0.075	0.44432158027968227	
14.16	0.962	0.39574251868668586	
14.165	-0.116	0.3398306557907058	
14.17	-0.445	0.27162005786162025	
14.175	0.468	0.19599802058311724	
14.18	0.073	0.11956958859535585	
14.185	-0.605	0.045508530338844985	
14.19	-0.081	-0.016879317714593205	
14.195	0.357	-0.07284233335588039	
14.2	-0.566	-0.11581064598204929	
14.205	-0.433	-0.14244207813051024	
14.21	0.290	-0.16774921617866795	
14.215	-0.404	-0.19910805428496975	
14.22	-0.657	-0.22291640460566822	
14.225	0.142	-0.23428938497369303	
14.23	-0.105	-0.2477057294208105	
14.235	-0.700	-0.2580830004332521	
14.24	-0.159	-0.25483466670143967	
14.245	0.232	-0.2512442551241317	
14.25	-0.598	-0.248673705770453	
14.255	-0.428	-0.23715863247738878	
14.26	0.357	-0.22400173845781565	
14.265	-0.361	-0.217245441291682	
14.27	-0.608	-0.20963937700250285	
14.275	0.229	-0.19729705338704653	
14.28	-0.050	-0.19396248235837182	
14.285	-0.639	-0.19297909178357026	
14.29	-0.104	-0.1856437856184224	
14.295	0.325	-0.18142577861745598	
14.3	-0.537	-0.17678828294600785	
14.305	-0.339	-0.16292477062800304	
14.31	0.562	-0.14297803046219787	
14.315	-0.294	-0.12149175577374893	
14.32	-0.544	-0.10455113785347037	
14.325	0.364	-0.0930954867765332	
14.33	0.003	-0.09116709241437743	
14.335	-0.605	-0.09708560812608602	
14.34	-0.002	-0.10037718633216017	
14.345	0.468	-0.09945579566676056	
14.35	-0.494	-0.09303412086101463	
14.355	-0.322	-0.08075847228609934	
14.36	0.552	-0.07384044691596475	
14.365	-0.285	-0.07175626884706734	
14.37	-0.524	-0.07253384407957181	
14.375	0.436	-0.06881627474072305	
14.38	0.090	-0.06433249616729869	
14.385	-0.563	-0.06126655689023983	
14.39	0.059	-0.05509862013419364	
14.395	0.541	-0.047439270443542805	
14.4	-0.468	-0.036335950985596735	
14.405	-0.300	-0.025601025031112754	
14.41	0.564	-0.025634771216171862	
14.415	-0.291	-0.03505029954926696	
14.42	-0.509	-0.046566675758693436	
14.425	0.471	-0.0504869238838386	
14.43	0.126	-0.047490675345079635	
14.435	-0.541	-0.04250234792527462	
14.44	0.108	-0.03178925763332041	
14.445	0.567	-0.021387079718820708	
14.45	-0.435	-0.006687847510703953	
14.455	-0.204	0.009564827477049925	
14.46	0.835	0.027641630930849568	
14.465	-0.159	0.05363963105193933	
14.47	-0.389	0.07334757880095671	
14.475	0.712	0.09084926678520865	
14.48	0.309	0.11438050242938216	
14.485	-0.457	0.13125216963428138	
14.49	0.280	0.14046002887387762	
14.495	0.739	0.14567393115495614	
14.5	-0.383	0.15305259873973182	
14.505	-0.210	0.14865666303204794	
14.51	0.751	0.12977712667877928	
14.515	-0.226	0.10645563087830721	
14.52	-0.496	0.0773582902169475	
14.525	0.448	0.0460037467787372	
14.53	0.026	0.010246085207728076	
14.535	-0.599	-0.02679423433555522	
14.54	0.003	-0.05434683840528542	
14.545	0.427	-0.07739501108245306	
14.55	-0.523	-0.0910896189210335	
14.555	-0.317	-0.09214894940169296	
14.56	0.575	-0.09015967775376588	
14.565	-0.300	-0.08777726217212707	
14.57	-0.553	-0.08557002977244035	
14.575	0.328	-0.08578693997302081	
14.58	0.000	-0.09695997375765017	
14.585	-0.523	-0.10690444519999762	
14.59	0.526	-0.0760207496991245	
14.595	1.340	0.02764164204945852	
14.6	0.161	0.19665173944160005	
14.605	0.530	0.37596631299248784	
14.61	1.316	-0.08557002977244035	
14.615	-0.168	-0.08557002977244035	
14.62	-0.613	-0.0760207496991245	
14.625	-0.018	0.397352823080453	
14.63	-0.265	0.1719897839080465	
14.635	-0.741	-0.04195731534862095	
14.64	-0.089	-0.18389502179297723	
14.645	0.407	-0.2563971421435337	
14.65	-0.517	-0.2674638791586641	
14.655	-0.279	-0.23287704828371428	
14.66	0.729	-0.175917733931111	
14.665	-0.224	-0.11218215609010032	
14.67	-0.441	-0.05458187709650196	
14.675	0.634	-0.005390191266328035	
14.68	0.180	0.03281863709529732	
14.685	-0.529	0.0558215089085929	
14.69	0.187	0.0642795949354282	
14.695	0.630	0.06659652025236687	
14.7	-0.401	0.07027846988435746	
14.705	-0.166	0.07722670469085882	
14.71	0.852	0.08323487911233288	
14.715	-0.175	0.09361659698078428	
14.72	-0.390	0.09940651870466272	
14.725	0.755	0.10682170793707821	
14.73	0.323	0.12472304439714257	
14.735	-0.409	0.14371893589956303	
14.74	0.479	0.16645522182556566	
14.745	0.921	0.20160055495517115	
14.75	-0.277	0.24313718872561707	
14.755	0.043	0.2712890171073699	
14.76	1.215	0.29428167718483234	
14.765	0.111	0.3295639632861175	
14.77	-0.172	0.35743304761195854	
14.775	1.131	0.379789325532043	
14.78	0.683	0.41470330121384674	
14.785	-0.273	0.44683352764765605	
14.79	0.658	0.4563424544742831	
14.795	1.003	0.4584483086794225	
14.8	-0.299	0.4523925424684613	
14.805	-0.108	0.4122921085720831	
14.81	0.844	0.3428915438300424	
14.815	-0.261	0.26678859824844764	
14.82	-0.528	0.18376462373081798	
14.825	0.343	0.09530583442180136	
14.83	-0.120	0.003608635046955918	
14.835	-0.712	-0.08155420583932178	
14.84	-0.136	-0.14687806607925702	
14.845	0.155	-0.20302756290750062	
14.85	-0.663	-0.24606041937894374	
14.855	-0.454	-0.26547489603020014	
14.86	0.216	-0.2777198207373753	
14.865	-0.515	-0.2950804541727703	
14.87	-0.700	-0.3067243900553046	
14.875	0.123	-0.3080729345687102	
14.88	-0.201	-0.31364825241418637	
14.885	-0.743	-0.316086794298388	
14.89	-0.159	-0.3059015361879275	
14.895	0.152	-0.299445962534854	
14.9	-0.650	-0.2948556193464758	
14.905	-0.412	-0.2772226113418733	
14.91	0.343	-0.2600220414076564	
14.915	-0.454	-0.2501702352450552	
14.92	-0.637	-0.2414288373373215	
14.925	0.233	-0.23112743934015767	
14.93	-0.140	-0.22990046559343746	
14.935	-0.686	-0.2309442982530077	
14.94	-0.072	-0.22372486414489404	
14.945	0.293	-0.21664791536398825	
14.95	-0.590	-0.20694352433123528	
14.955	-0.337	-0.18898609824454604	
14.96	0.479	-0.17103664996930187	
14.965	-0.393	-0.1584068227455912	
14.97	-0.569	-0.15030499132677547	
14.975	0.398	-0.13993948549570204	
14.98	-0.061	-0.13411825082168216	
14.985	-0.630	-0.13303208588769894	
14.99	0.014	-0.12945986445790747	
14.995	0.348	-0.12970259428688274	
15.0	-0.575	-0.12919567508981117	
15.005	-0.323	-0.12479559129574533	
15.01	0.515	-0.12188085308918434	
15.015	-0.369	-0.12169148682859007	
15.02	-0.557	-0.12029823280593997	
15.025	0.434	-0.11563798707327519	
15.03	-0.044	-0.11330111863973369	
15.035	-0.628	-0.11324009133604686	
15.04	0.072	-0.11013900368719391	
15.045	0.450	-0.10466956974442414	
15.05	-0.526	-0.09254220283074138	
15.055	-0.273	-0.0766168402042039	
15.06	0.601	-0.0666368232782889	
15.065	-0.340	-0.061034130944722376	
15.07	-0.528	-0.061345089927186895	
15.075	0.471	-0.061262818723760305	
15.08	-0.015	-0.06548840410233372	
15.085	-0.595	-0.0725089399447042	
15.09	0.102	-0.07377776457995933	
15.095	0.465	-0.0716134733679642	
15.1	-0.523	-0.06494975097194282	
15.105	-0.264	-0.054427522322328906	
15.11	0.665	-0.04733016826493591	
15.115	-0.296	-0.040407276279999065	
15.12	-0.476	-0.03242308101741824	
15.125	0.576	-0.022826829665388952	
15.13	0.073	-0.013673853417137016	
15.135	-0.550	-0.007840356384001148	
15.14	0.232	-0.0003885999898224446	
15.145	0.544	0.009478466635735476	
15.15	-0.488	0.019594440179065892	
15.155	-0.229	0.025750150173121898	
15.16	0.730	0.02300808220445257	
15.165	-0.258	0.02220644061777614	
15.17	-0.412	0.023484661816386695	
15.175	0.741	0.035624782419122265	
15.18	0.204	0.059157864491498374	
15.185	-0.476	0.0808261974375297	
15.19	0.436	0.1039728631133258	
15.195	0.780	0.13358748991207364	
15.2	-0.366	0.16819168001346652	
15.205	-0.076	0.18787749652868557	
15.21	0.962	0.19329154102041912	
15.215	-0.166	0.1959154381019779	
15.22	-0.342	0.19038976883005077	
15.225	0.826	0.18392097788254252	
15.23	0.242	0.18205389138581082	
15.235	-0.492	0.175629752500209	
15.24	0.323	0.16317267485712833	
15.245	0.601	0.14461084423740872	
15.25	-0.459	0.12699741691899774	
15.255	-0.177	0.10800442569327486	
15.26	0.768	0.08540197800919232	
15.265	-0.270	0.0677354193877503	
15.27	-0.436	0.05342374981699058	
15.275	0.652	0.045081517802818466	
15.28	0.119	0.04191216980277257	
15.285	-0.535	0.04057481028302938	
15.29	0.226	0.040366000550456416	
15.295	0.550	0.037541289648568066	
15.3	-0.428	0.038849638996687606	
15.305	0.065	0.05819765909494953	
15.31	1.483	0.12049526353548375	
15.315	0.593	0.2535882413867674	
15.32	0.367	0.4295074486587587	
15.325	1.550	0.6011529845832561	
15.33	0.514	0.721676252930326	
15.335	-0.553	0.7325084558397363	
15.34	-0.140	0.6104296693920117	
15.345	-0.032	0.38136280921323984	
15.35	-0.709	0.12386583482303733	
15.355	-0.370	-0.07253444520233782	
15.36	0.517	-0.18962871319591915	
15.365	-0.351	-0.24062847922653313	
15.37	-0.468	-0.23323469953457424	
15.375	0.594	-0.1876961695603226	
15.38	0.052	-0.13157243580036493	
15.385	-0.532	-0.08037821713755972	
15.39	0.317	-0.03116517224735587	
15.395	0.590	0.014212568686333757	
15.4	-0.459	0.049546293083226854	
15.405	-0.131	0.07467203773938111	
15.41	0.844	0.08644355020785052	
15.415	-0.232	0.09501369584990352	
15.42	-0.375	0.10081098683485473	
15.425	0.761	0.10557593424069142	
15.43	0.194	0.11320701916716766	
15.435	-0.456	0.1194972085772	
15.44	0.431	0.1301378336924322	
15.445	0.732	0.14515943427451197	
15.45	-0.367	0.1653022077161408	
15.455	0.024	0.1828959797122729	
15.46	1.093	0.2015551640135221	
15.465	-0.082	0.22974577304453617	
15.47	-0.223	0.2518797231480173	
15.475	1.152	0.2757760992177115	
15.48	0.622	0.3240389421934191	
15.485	-0.229	0.3804657521512059	
15.49	0.945	0.4312910953229811	
15.495	1.203	0.49004574447210647	
15.5	-0.148	0.5462742588755068	
15.505	0.405	0.5710031535802771	
15.51	1.361	0.5783936174755508	
15.515	0.009	0.5777561221066738	
15.52	-0.232	0.5430666961284532	
15.525	0.948	0.4785089679361537	
15.53	0.233	0.4089533991608718	
15.535	-0.479	0.3348645466687308	
15.54	0.291	0.2580939414100628	
15.545	0.425	0.17869519390996322	
15.55	-0.563	0.10375871509004216	
15.555	-0.281	0.03912889871612864	
15.56	0.460	-0.023176414305983866	
15.565	-0.476	-0.08299656094359839	
15.57	-0.622	-0.13043505051556298	
15.575	0.223	-0.1689767705349966	
15.58	-0.239	-0.2122459915735989	
15.585	-0.723	-0.24654301535735498	
15.59	-0.063	-0.25800911796351667	
15.595	0.142	-0.26678740444384863	
15.6	-0.656	-0.2708962781435874	
15.605	-0.340	-0.2565994118248442	
15.61	0.381	-0.23961789386558782	
15.615	-0.477	-0.2300429297763363	
15.62	-0.573	-0.21703500004749188	
15.625	0.346	-0.2011201622870048	
15.63	-0.160	-0.19454808884617253	
15.635	-0.643	-0.18930137083184279	
15.64	0.108	-0.17384839636805216	
15.645	0.320	-0.15808230353014446	
15.65	-0.573	-0.141932579472072	
15.655	-0.244	-0.12031599786895233	
15.66	0.601	-0.10271435694033912	
15.665	-0.364	-0.08828083309295526	
15.67	-0.485	-0.0738267961092417	
15.675	0.530	-0.061983021167708735	
15.68	-0.055	-0.05683466480438004	
15.685	-0.553	-0.05629672393687933	
15.69	0.279	-0.04555312049674581	
15.695	0.468	-0.029239320667294583	
15.7	-0.514	-0.012150230518453157	
15.705	-0.156	0.001955034736355582	
15.71	0.709	0.009348905514962754	
15.715	-0.346	0.012406602728745924	
15.72	-0.448	0.012283369773936827	
15.725	0.634	0.009268339072302748	
15.73	-0.012	0.006918865480733965	
15.735	-0.555	0.0006004845564928987	
15.74	0.309	0.0017459841326697319	
15.745	0.515	0.00768355408633027	
15.75	-0.506	0.01960707278945898	
15.755	-0.151	0.030182951540001286	
15.76	0.745	0.03144731756389217	
15.765	-0.345	0.03111837250779328	
15.77	-0.441	0.0283698055245283	
15.775	0.630	0.022502480895296884	
15.78	-0.024	0.013678149247095888	
15.785	-0.544	0.003516917965091456	
15.79	0.319	0.0030506295809703404	
15.795	0.500	0.00857763676850328	
15.8	-0.499	0.019360203677036263	
15.805	-0.148	0.029447782332252984	
15.81	0.770	0.03253713050610984	
15.815	-0.310	0.0367955459431679	
15.82	-0.413	0.04048399764675023	
15.825	0.701	0.043763505755708705	
15.83	0.018	0.045401203781706305	
15.835	-0.526	0.04242120027023082	
15.84	0.381	0.044381904514453785	
15.845	0.540	0.052464949919288274	
15.85	-0.471	0.06309855376931421	
15.855	-0.119	0.071719337976415	
15.86	0.761	0.06962377758791286	
15.865	-0.310	0.06446488630879235	
15.87	-0.393	0.0596011361200678	
15.875	0.704	0.05702787212045725	
15.88	-0.011	0.05212298491419477	
15.885	-0.518	0.04332327189719411	
15.89	0.401	0.04372670145193614	
15.895	0.556	0.052362767907567796	
15.9	-0.454	0.06781541918394975	
15.905	-0.034	0.08399766049311673	
15.91	0.927	0.09975547040472903	
15.915	-0.235	0.1201219200111188	
15.92	-0.329	0.13567075582178612	
15.925	0.846	0.14430603580309243	
15.93	0.184	0.15388556663773403	
15.935	-0.412	0.16321204942653228	
15.94	0.610	0.1790239979239101	
15.945	0.774	0.20427493890487777	
15.95	-0.349	0.23358770670666315	
15.955	0.105	0.2532175447595822	
15.96	0.963	0.25779961822967523	
15.965	-0.236	0.25386075583386114	
15.97	-0.303	0.23579476432576738	
15.975	0.861	0.2124706627647087	
15.98	0.101	0.191660987751618	
15.985	-0.477	0.17020974227501043	
15.99	0.457	0.15123111054473604	
15.995	0.573	0.13912655387664113	
16.0	-0.462	0.1314965943928296	
16.005	-0.073	0.12343733689499257	
16.01	0.800	0.10974925586564441	
16.015	-0.311	0.09669726282060492	
16.02	-0.413	0.08397791854349577	
16.025	0.573	0.06451230076483228	
16.03	-0.102	0.031421105214273326	
16.035	-0.560	-0.001688559363279345	
16.04	0.448	-0.011552018168083957	
16.045	0.861	0.017944848861491232	
16.05	-0.089	0.09744844226910157	
16.055	0.919	0.23273744330759338	
16.06	1.802	0.4227163049003553	
16.065	0.210	0.6144401295402491	
16.07	-0.207	0.7120198964953455	
16.075	0.549	0.6714982742845607	
16.08	-0.300	0.5152356263020323	
16.085	-0.791	0.3013910830642458	
16.09	-0.098	0.09153313087046683	
16.095	0.088	-0.09321578259662537	
16.1	-0.621	-0.21950761775825034	
16.105	-0.186	-0.26308993612358533	
16.11	0.686	-0.24642130812707486	
16.115	-0.337	-0.19662606132792934	
16.12	-0.367	-0.1286493966114179	
16.125	0.771	-0.057362839392865426	
16.13	0.046	0.003990399230120957	
16.135	-0.471	0.04840958955587607	
16.14	0.509	0.08576587093806282	
16.145	0.617	0.11860574467040486	
16.15	-0.424	0.14624866477579435	
16.155	0.021	0.16408388209471148	
16.16	0.948	0.1706159570043439	
16.165	-0.217	0.17913010672230556	
16.17	-0.261	0.1854397801062761	
16.175	0.969	0.19281460885630924	
16.18	0.239	0.2078155476578625	
16.185	-0.372	0.22438738824526	
16.19	0.726	0.24396512623457037	
16.195	0.834	0.272502487380943	
16.2	-0.308	0.30514972607035196	
16.205	0.293	0.3292609887118916	
16.21	1.221	0.35158218622633763	
16.215	-0.043	0.379999649623699	
16.22	-0.066	0.3965694956628695	
16.225	1.332	0.4128132942676823	
16.23	0.593	0.4507047954230443	
16.235	-0.197	0.49152519963980934	
16.24	1.032	0.5199318009724605	
16.245	1.081	0.5493166308547379	
16.25	-0.200	0.5733589160202806	
16.255	0.445	0.5723055929512005	
16.26	1.223	0.5562367197106669	
16.265	-0.149	0.5301893541623948	
16.27	-0.238	0.47583250291079193	
16.275	0.864	0.39834783485217684	
16.28	-0.049	0.31267387563812044	
16.285	-0.544	0.2220681105126906	
16.29	0.320	0.13962203297208708	
16.295	0.335	0.06995453629553935	
16.3	-0.570	0.014967593300017408	
16.305	-0.185	-0.019648185548559464	
16.31	0.503	-0.05238665483518504	
16.315	-0.465	-0.08244971480956759	
16.32	-0.497	-0.10171428434948403	
16.325	0.442	-0.11322753999098788	
16.33	-0.204	-0.12941413110660066	
16.335	-0.627	-0.141327184007343	
16.34	0.189	-0.1396307681172236	
16.345	0.232	-0.13848252093432442	
16.35	-0.599	-0.1345821826657085	
16.355	-0.172	-0.12050265241432613	
16.36	0.558	-0.1088821231407743	
16.365	-0.418	-0.09832571162374482	
16.37	-0.428	-0.08433642826886525	
16.375	0.553	-0.06954817591594831	
16.38	-0.157	-0.0646017629506594	
16.385	-0.572	-0.0669510744681579	
16.39	0.340	-0.059662139010771484	
16.395	0.360	-0.04780127617830711	
16.4	-0.526	-0.03338472289537435	
16.405	-0.099	-0.017328559992512038	
16.41	0.674	-0.0081637205581411	
16.415	-0.374	-0.0013360846650469374	
16.42	-0.383	0.005924644510489264	
16.425	0.636	0.008315028132700032	
16.43	-0.114	0.0052300304598433215	
16.435	-0.547	-0.003725213582799523	
16.44	0.357	-0.007630042721676543	
16.445	0.366	-0.008042952384984087	
16.45	-0.535	-0.005279470996476509	
16.455	-0.085	-0.00014764896892583378	
16.46	0.669	0.0006331478430089833	
16.465	-0.390	0.0016038867810805554	
16.47	-0.381	0.0031614785746530262	
16.475	0.675	0.005243572096069975	
16.48	-0.089	0.007047495945500165	
16.485	-0.521	0.005455940636815757	
16.49	0.413	0.009442862361437362	
16.495	0.436	0.01973877920411581	
16.5	-0.492	0.03378193138764784	
16.505	-0.034	0.04702587299819577	
16.51	0.758	0.05346117400803234	
16.515	-0.331	0.06053796891293842	
16.52	-0.340	0.06637336518770814	
16.525	0.729	0.06716906884595653	
16.53	-0.067	0.06487275802579566	
16.535	-0.488	0.05764083012956133	
16.54	0.474	0.05550445259736639	
16.545	0.471	0.06251306611129398	
16.55	-0.464	0.07486712738810436	
16.555	0.021	0.08620292799867593	
16.56	0.787	0.09225945065733267	
16.565	-0.322	0.09848831989614995	
16.57	-0.322	0.09960794872052521	
16.575	0.748	0.09506093634164206	
16.58	-0.060	0.08770596231204861	
16.585	-0.464	0.07686563092132559	
16.59	0.567	0.07553046094428595	
16.595	0.547	0.09327971205352216	
16.6	-0.407	0.1190091341429799	
16.605	0.130	0.14233994774996478	
16.61	0.869	0.1600137653484637	
16.615	-0.277	0.17451804149934358	
16.62	-0.279	0.17583009553328913	
16.625	0.806	0.1648564126836236	
16.63	-0.040	0.15061705964021366	
16.635	-0.508	0.12714526186049874	
16.64	0.311	0.09539787531701767	
16.645	0.212	0.053021797157062546	
16.65	-0.602	0.0052975952113284925	
16.655	-0.198	-0.035564536665424966	
16.66	0.437	-0.07632920501145685	
16.665	-0.488	-0.11035388226869447	
16.67	-0.488	-0.12986517746845888	
16.675	0.389	-0.14341437155697212	
16.68	-0.268	-0.16052631010740592	
16.685	-0.639	-0.1735066305959962	
16.69	0.126	-0.17661690228148347	
16.695	0.093	-0.18428608337205782	
16.7	-0.619	-0.1895359774796067	
16.705	-0.104	-0.17633394942097277	
16.71	0.893	-0.13655860033927408	
16.715	-0.070	-0.054418494675410316	
16.72	0.251	0.06743104938686675	
16.725	1.573	0.22854417747438946	
16.73	0.424	0.4042371639312389	
16.735	-0.448	0.5085770973381887	
16.74	0.049	0.4833290992948936	
16.745	-0.233	0.3304434749184288	
16.75	-0.895	0.11161160559837802	
16.755	-0.445	-0.09214910105095812	
16.76	0.061	-0.2568121677016575	
16.765	-0.628	-0.37142836537017987	
16.77	-0.544	-0.4142696179218612	
16.775	0.349	-0.4005857572560566	
16.78	-0.290	-0.3649764418620559	
16.785	-0.653	-0.318096339147544	
16.79	0.166	-0.2654002970760286	
16.795	0.101	-0.2258127439637882	
16.8	-0.627	-0.19749235985786978	
16.805	-0.149	-0.16886480370336532	
16.81	0.556	-0.14388721453449527	
16.815	-0.438	-0.11677439678637694	
16.82	-0.383	-0.08911778859179448	
16.825	0.575	-0.06739042373099563	
16.83	-0.220	-0.057303634382725496	
16.835	-0.579	-0.05914972176670932	
16.84	0.370	-0.05903101184326516	
16.845	0.323	-0.05194364599444391	
16.85	-0.524	-0.03676202896080662	
16.855	-0.005	-0.017561011504840313	
16.86	0.724	0.0012017648084988108	
16.865	-0.369	0.022866995199747622	
16.87	-0.299	0.041008360929424274	
16.875	0.849	0.05689040993214146	
16.88	0.017	0.08142631142708597	
16.885	-0.372	0.1047721460935326	
16.89	0.814	0.13828490858470954	
16.895	0.761	0.19594871488150886	
16.9	-0.299	0.2610265070918099	
16.905	0.405	0.310640782358961	
16.91	1.059	0.34622057998259104	
16.915	-0.220	0.3696711526475147	
16.92	-0.183	0.3590944073636304	
16.925	0.927	0.3239283404721526	
16.93	-0.056	0.2823085739778075	
16.935	-0.503	0.22785341651115593	
16.94	0.392	0.1652759832080172	
16.945	0.171	0.09779744638621224	
16.95	-0.622	0.03117009838402411	
16.955	-0.171	-0.02526294310966727	
16.96	0.415	-0.07798282181901645	
16.965	-0.540	-0.12025027436494502	
16.97	-0.494	-0.14566843342081998	
16.975	0.366	-0.1652439694149786	
16.98	-0.317	-0.18682231242644604	
16.985	-0.662	-0.20188812600457268	
16.99	0.151	-0.2036921620643853	
16.995	0.032	-0.2094611998598021	
17.0	-0.656	-0.21375107045346814	
17.005	-0.168	-0.20403620118910787	
17.01	0.477	-0.18915343042298494	
17.015	-0.489	-0.17041815801092142	
17.02	-0.419	-0.14543570386027033	
17.025	0.537	-0.12218254168275722	
17.03	-0.239	-0.10910797242372483	
17.035	-0.576	-0.10183692604943956	
17.04	0.367	-0.09042508408037088	
17.045	0.259	-0.0756445520929915	
17.05	-0.563	-0.05993329590254057	
17.055	-0.058	-0.04376276396346741	
17.06	0.630	-0.03513765749156882	
17.065	-0.419	-0.024720901908746856	
17.07	-0.355	-0.01327660537850191	
17.075	0.648	-0.007967702959007198	
17.08	-0.171	-0.008403534829704611	
17.085	-0.492	-0.010869108641554125	
17.09	0.546	-0.001086098044108094	
17.095	0.390	0.022193336412554235	
17.1	-0.488	0.04782438911619351	
17.105	0.093	0.06954456352645386	
17.11	0.742	0.08191203206323898	
17.115	-0.381	0.09193529367227643	
17.12	-0.306	0.09187150773933167	
17.125	0.756	0.08427198107000479	
17.13	-0.125	0.07431227482943494	
17.135	-0.488	0.06207703676503357	
17.14	0.527	0.05520908384633268	
17.145	0.337	0.055047805439203915	
17.15	-0.518	0.056631113537688786	
17.155	0.081	0.058815656384764145	
17.16	0.777	0.06294148997960695	
17.165	-0.364	0.07467417254315155	
17.17	-0.276	0.08502169349322897	
17.175	0.784	0.08742743297478436	
17.18	-0.140	0.08506110394155895	
17.185	-0.499	0.07408127676854034	
17.19	0.508	0.06343992116225641	
17.195	0.297	0.05488663382941558	
17.2	-0.532	0.047511767494450664	
17.205	0.052	0.04305411848955234	
17.21	0.722	0.040903771478057904	
17.215	-0.387	0.04546360265826379	
17.22	-0.284	0.05319950211649791	
17.225	0.826	0.060532950057615637	
17.23	-0.090	0.07083217928535013	
17.235	-0.436	0.07913295440279336	
17.24	0.660	0.09163762561512535	
17.245	0.508	0.11572015303348766	
17.25	-0.421	0.14543863563708248	
17.255	0.288	0.17125645567261208	
17.26	0.945	0.19782534222862883	
17.265	-0.282	0.22431895429405718	
17.27	-0.186	0.2343538112082574	
17.275	0.908	0.22651863206787298	
17.28	-0.075	0.2116757989952015	
17.285	-0.453	0.1862688574490588	
17.29	0.517	0.1546684842359764	
17.295	0.242	0.1195219747514614	
17.3	-0.572	0.08054900125892077	
17.305	-0.046	0.04439104929979579	
17.31	0.543	0.005610779589267996	
17.315	-0.480	-0.02466622872227712	
17.32	-0.378	-0.042387887635045786	
17.325	0.558	-0.05661844090952031	
17.33	-0.271	-0.07249764602909063	
17.335	-0.590	-0.0864803563989626	
17.34	0.326	-0.09227312377154107	
17.345	0.088	-0.10175552816192404	
17.35	-0.628	-0.11036505488532185	
17.355	-0.041	-0.11036227729618206	
17.36	0.790	-0.09257797730767932	
17.365	-0.172	-0.04077798569222408	
17.37	0.332	0.05791346954797335	
17.375	1.668	0.21340757413608252	
17.38	0.424	0.3982490959265074	
17.385	-0.392	0.520560226253726	
17.39	0.203	0.514715149703298	
17.395	-0.274	0.373986818733903	
17.4	-0.938	0.15971716379625445	
17.405	-0.428	-0.054160943615600116	
17.41	-0.027	-0.24077284110823158	
17.415	-0.695	-0.37883569681791773	
17.42	-0.535	-0.4368112591410761	
17.425	0.311	-0.43367150115076986	
17.43	-0.349	-0.40600610890156386	
17.435	-0.619	-0.3561400951456146	
17.44	0.370	-0.284914649520816	
17.445	0.184	-0.21427843533094884	
17.45	-0.572	-0.14947219222232638	
17.455	0.030	-0.0917933832941094	
17.46	0.655	-0.047806890052543315	
17.465	-0.442	-0.012314479534878221	
17.47	-0.285	0.01435574704006482	
17.475	0.834	0.034638419792266645	
17.48	-0.136	0.053592186459115405	
17.485	-0.454	0.06674518026252076	
17.49	0.649	0.07853062660697924	
17.495	0.413	0.09756625351037866	
17.5	-0.438	0.11920402917644103	
17.505	0.335	0.14357524427460128	
17.51	0.960	0.1763049725290855	
17.515	-0.252	0.21529257902333626	
17.52	-0.044	0.24549407800087647	
17.525	1.242	0.27391570019111167	
17.53	0.230	0.31832002306843454	
17.535	-0.226	0.35768256961989564	
17.54	1.197	0.3937919672464618	
17.545	1.005	0.45346462326666315	
17.55	-0.157	0.5220933358156271	
17.555	0.843	0.5727018892911224	
17.56	1.370	0.6172273993776611	
17.565	-0.096	0.649257712898768	
17.57	0.073	0.6345873541272797	
17.575	1.181	0.5837252993406339	
17.58	0.012	0.5223222501416278	
17.585	-0.399	0.44195278793177073	
17.59	0.617	0.3495323383662549	
17.595	0.186	0.2552733225294804	
17.6	-0.601	0.1625457928051377	
17.605	-0.056	0.0796367356345673	
17.61	0.399	-0.00021703388849107904	
17.615	-0.592	-0.06733524835422314	
17.62	-0.448	-0.11410399032945355	
17.625	0.402	-0.14980724032632248	
17.63	-0.389	-0.18264058843096945	
17.635	-0.665	-0.20350950393722927	
17.64	0.200	-0.2107715430640185	
17.645	-0.087	-0.2230671841366077	
17.65	-0.714	-0.23599439498761057	
17.655	-0.157	-0.23428530805993902	
17.66	0.306	-0.2336806075401649	
17.665	-0.596	-0.2311899548753672	
17.67	-0.424	-0.2167693915026634	
17.675	0.450	-0.2001079200268111	
17.68	-0.352	-0.18981682141210338	
17.685	-0.625	-0.18117475116083215	
