Vernier Format 2
ecg3.txt 10/17/2025 10:22:41
Run 1
Time	Potential	EKG	
T	P	E	
s	mV	mV	

0.000	-0.994	-0.046	
0.005	-0.996	-0.198	
0.010	3.037	-0.233	
0.015	0.311	0.041	
0.020	-0.997	0.291	
0.025	3.023	0.422	
0.030	3.043	0.782	
0.035	-0.996	1.189	
0.040	-0.168	1.210	
0.045	3.026	1.076	
0.050	-0.996	1.037	
0.055	-0.996	0.828	
0.060	3.031	0.574	
0.065	-0.628	0.549	
0.070	-0.997	0.470	
0.075	3.043	0.365	
0.080	3.046	0.621	
0.085	-0.996	1.007	
0.090	-0.171	1.052	
0.095	3.024	0.958	
0.100	-0.994	0.960	
0.105	-0.997	0.786	
0.110	3.032	0.557	
0.115	-0.328	0.561	
0.120	-0.996	0.522	
0.125	3.043	0.441	
0.130	3.044	0.694	
0.135	-0.996	1.066	
0.140	-0.151	1.094	
0.145	3.026	0.986	
0.150	-0.994	0.977	
0.155	-0.997	0.794	
0.160	3.032	0.560	
0.165	-0.108	0.570	
0.170	-0.996	0.554	
0.175	3.041	0.487	
0.180	3.043	0.739	
0.185	-0.996	1.102	
0.190	-0.294	1.112	
0.195	3.029	0.978	
0.200	-0.994	0.952	
0.205	-0.996	0.766	
0.210	3.035	0.535	
0.215	-0.223	0.547	
0.220	-0.997	0.525	
0.225	3.038	0.455	
0.230	3.047	0.712	
0.235	-0.997	1.082	
0.240	-0.369	1.096	
0.245	3.026	0.960	
0.250	-0.994	0.933	
0.255	-0.996	0.749	
0.260	3.034	0.522	
0.265	0.218	0.559	
0.270	-0.996	0.588	
0.275	3.043	0.552	
0.280	3.047	0.808	
0.285	-0.996	1.160	
0.290	0.075	1.172	
0.295	3.029	1.062	
0.300	-0.996	1.049	
0.305	-0.996	0.851	
0.310	3.029	0.598	
0.315	-0.977	0.552	
0.320	-0.997	0.431	
0.325	3.044	0.296	
0.330	3.052	0.550	
0.335	-0.997	0.950	
0.340	1.268	1.078	
0.345	3.029	1.153	
0.350	-0.994	1.269	
0.355	-0.996	1.094	
0.360	3.032	0.809	
0.365	-0.977	0.708	
0.370	-0.996	0.531	
0.375	3.043	0.350	
0.380	3.014	0.570	
0.385	-0.996	0.945	
0.390	1.558	1.075	
0.395	3.027	1.178	
0.400	-0.996	1.316	
0.405	-0.996	1.143	
0.410	3.029	0.849	
0.415	-0.968	0.737	
0.420	-0.997	0.550	
0.425	3.040	0.360	
0.430	3.055	0.576	
0.435	-0.997	0.952	
0.440	1.912	1.098	
0.445	3.027	1.237	
0.450	-0.996	1.399	
0.455	-0.996	1.222	
0.460	3.029	0.912	
0.465	-0.985	0.779	
0.470	-0.996	0.573	
0.475	3.043	0.369	
0.480	2.630	0.557	
0.485	-0.996	0.883	
0.490	0.997	0.956	
0.495	3.027	1.002	
0.500	-0.996	1.118	
0.505	-0.996	0.971	
0.510	3.031	0.722	
0.515	-0.991	0.654	
0.520	-0.996	0.502	
0.525	3.043	0.338	
0.530	2.495	0.544	
0.535	-0.996	0.870	
0.540	1.146	0.946	
0.545	3.027	1.008	
0.550	-0.996	1.139	
0.555	-0.996	0.995	
0.560	3.031	0.743	
0.565	-0.986	0.670	
0.570	-0.996	0.513	
0.575	3.043	0.344	
0.580	2.954	0.569	
0.585	-0.996	0.941	
0.590	1.774	1.077	
0.595	3.027	1.203	
0.600	-0.996	1.358	
0.605	-0.996	1.185	
0.610	3.029	0.884	
0.615	-0.319	0.791	
0.620	-0.996	0.664	
0.625	2.869	0.505	
0.630	3.029	0.692	
0.635	-0.994	1.022	
0.640	-0.996	0.998	
0.645	0.154	0.671	
0.650	1.636	0.431	
0.655	-0.063	0.388	
0.660	-0.079	0.361	
0.665	0.761	0.306	
0.670	0.973	0.334	
0.675	0.297	0.425	
0.680	0.617	0.492	
0.685	1.009	0.551	
0.690	0.328	0.615	
0.695	0.238	0.621	
0.700	0.838	0.585	
0.705	0.439	0.568	
0.710	0.064	0.537	
0.715	0.474	0.471	
0.720	0.447	0.418	
0.725	-0.049	0.376	
0.730	0.079	0.306	
0.735	0.274	0.233	
0.740	-0.125	0.177	
0.745	-0.200	0.109	
0.750	0.128	0.037	
0.755	-0.072	-0.006	
0.760	-0.317	-0.041	
0.765	-0.021	-0.085	
0.770	-0.020	-0.108	
0.775	-0.377	-0.120	
0.780	-0.239	-0.150	
0.785	-0.047	-0.179	
0.790	-0.369	-0.193	
0.795	-0.328	-0.215	
0.800	0.148	-0.227	
0.805	0.154	-0.185	
0.810	0.040	-0.108	
0.815	0.505	-0.016	
0.820	0.264	0.093	
0.825	-0.364	0.160	
0.830	-0.445	0.122	
0.835	-0.406	0.004	
0.840	-0.739	-0.147	
0.845	-0.721	-0.314	
0.850	-0.331	-0.454	
0.855	-0.456	-0.524	
0.860	-0.628	-0.548	
0.865	-0.294	-0.551	
0.870	-0.268	-0.520	
0.875	-0.587	-0.474	
0.880	-0.386	-0.448	
0.885	-0.186	-0.424	
0.890	-0.486	-0.391	
0.895	-0.491	-0.379	
0.900	-0.174	-0.379	
0.905	-0.363	-0.364	
0.910	-0.561	-0.357	
0.915	-0.246	-0.368	
0.920	-0.221	-0.364	
0.925	-0.521	-0.350	
0.930	-0.313	-0.352	
0.935	-0.095	-0.345	
0.940	-0.375	-0.318	
0.945	-0.355	-0.302	
0.950	-0.017	-0.289	
0.955	-0.191	-0.256	
0.960	-0.367	-0.228	
0.965	-0.006	-0.215	
0.970	0.029	-0.185	
0.975	-0.302	-0.148	
0.980	-0.116	-0.134	
0.985	0.058	-0.125	
0.990	-0.274	-0.110	
0.995	-0.310	-0.119	
1.000	-0.034	-0.144	
1.005	-0.273	-0.160	
1.010	-0.515	-0.189	
1.015	-0.241	-0.239	
1.020	-0.291	-0.280	
1.025	-0.645	-0.315	
1.030	-0.492	-0.371	
1.035	-0.339	-0.420	
1.040	-0.671	-0.452	
1.045	-0.688	-0.493	
1.050	-0.406	-0.536	
1.055	-0.602	-0.555	
1.060	-0.797	-0.573	
1.065	-0.464	-0.599	
1.070	-0.451	-0.601	
1.075	-0.746	-0.589	
1.080	-0.543	-0.589	
1.085	-0.361	-0.581	
1.090	-0.672	-0.560	
1.095	-0.659	-0.555	
1.100	-0.345	-0.558	
1.105	-0.523	-0.543	
1.110	-0.701	-0.532	
1.115	-0.381	-0.534	
1.120	-0.374	-0.522	
1.125	-0.674	-0.503	
1.130	-0.462	-0.501	
1.135	-0.276	-0.494	
1.140	-0.590	-0.474	
1.145	-0.589	-0.471	
1.150	-0.285	-0.477	
1.155	-0.482	-0.468	
1.160	-0.656	-0.465	
1.165	-0.332	-0.475	
1.170	-0.325	-0.469	
1.175	-0.625	-0.453	
1.180	-0.427	-0.454	
1.185	-0.241	-0.450	
1.190	-0.540	-0.432	
1.195	-0.524	-0.429	
1.200	-0.215	-0.431	
1.205	-0.406	-0.415	
1.210	-0.575	-0.405	
1.215	-0.238	-0.408	
1.220	-0.238	-0.393	
1.225	-0.538	-0.371	
1.230	-0.320	-0.368	
1.235	-0.122	-0.358	
1.240	-0.424	-0.333	
1.245	-0.398	-0.322	
1.250	-0.075	-0.317	
1.255	-0.262	-0.293	
1.260	-0.451	-0.276	
1.265	-0.140	-0.277	
1.270	-0.169	-0.268	
1.275	-0.494	-0.259	
1.280	-0.329	-0.275	
1.285	-0.192	-0.294	
1.290	-0.524	-0.307	
1.295	-0.499	-0.336	
1.300	-0.198	-0.368	
1.305	-0.390	-0.375	
1.310	-0.561	-0.381	
1.315	-0.246	-0.394	
1.320	-0.259	-0.388	
1.325	-0.560	-0.375	
1.330	-0.994	-0.409	
1.335	-0.997	-0.513	
1.340	3.041	-0.468	
1.345	3.027	0.015	
1.350	-0.996	0.624	
1.355	-0.154	0.849	
1.360	3.023	0.882	
1.365	-0.986	0.962	
1.370	-0.996	0.826	
1.375	3.029	0.609	
1.380	2.021	0.717	
1.385	-0.997	0.918	
1.390	3.035	0.989	
1.395	3.032	1.215	
1.400	-0.996	1.476	
1.405	-0.643	1.350	
1.410	3.024	1.073	
1.415	-0.994	0.943	
1.420	-0.997	0.706	
1.425	3.031	0.462	
1.430	1.729	0.570	
1.435	-0.997	0.771	
1.440	3.038	0.855	
1.445	3.032	1.113	
1.450	-0.996	1.409	
1.455	-0.698	1.310	
1.460	3.026	1.049	
1.465	-0.994	0.928	
1.470	-0.996	0.699	
1.475	3.035	0.460	
1.480	1.113	0.543	
1.485	-0.997	0.680	
1.490	3.031	0.721	
1.495	3.034	0.982	
1.500	-0.996	1.303	
1.505	-0.820	1.230	
1.510	3.024	0.986	
1.515	-0.994	0.879	
1.520	-0.996	0.666	
1.525	3.034	0.441	
1.530	0.680	0.514	
1.535	-0.997	0.612	
1.540	3.024	0.626	
1.545	3.035	0.890	
1.550	-0.996	1.230	
1.555	-0.913	1.176	
1.560	3.024	0.942	
1.565	-0.994	0.844	
1.570	-0.997	0.642	
1.575	3.034	0.426	
1.580	0.169	0.483	
1.585	-0.997	0.532	
1.590	3.009	0.512	
1.595	3.038	0.780	
1.600	-0.996	1.141	
1.605	-0.906	1.114	
1.610	3.024	0.906	
1.615	-0.994	0.827	
1.620	-0.997	0.638	
1.625	3.034	0.429	
1.630	0.267	0.494	
1.635	-0.996	0.553	
1.640	3.027	0.540	
1.645	3.035	0.807	
1.650	-0.996	1.164	
1.655	-0.691	1.141	
1.660	3.024	0.949	
1.665	-0.994	0.880	
1.670	-0.997	0.686	
1.675	3.032	0.466	
1.680	0.658	0.536	
1.685	-0.996	0.626	
1.690	3.040	0.634	
1.695	3.035	0.895	
1.700	-0.996	1.233	
1.705	-0.456	1.198	
1.710	3.023	1.012	
1.715	-0.994	0.945	
1.720	-0.997	0.740	
1.725	3.034	0.505	
1.730	0.550	0.555	
1.735	-0.997	0.622	
1.740	3.041	0.614	
1.745	3.035	0.871	
1.750	-0.996	1.211	
1.755	-0.448	1.183	
1.760	3.026	1.003	
1.765	-0.994	0.942	
1.770	-0.996	0.740	
1.775	3.034	0.506	
1.780	0.207	0.542	
1.785	-0.996	0.572	
1.790	3.037	0.539	
1.795	3.040	0.798	
1.800	-0.996	1.153	
1.805	-0.650	1.133	
1.810	3.026	0.948	
1.815	-0.994	0.885	
1.820	-0.996	0.693	
1.825	3.035	0.473	
1.830	-0.264	0.499	
1.835	-0.997	0.490	
1.840	3.027	0.430	
1.845	3.041	0.695	
1.850	-0.996	1.072	
1.855	-0.729	1.074	
1.860	3.026	0.903	
1.865	-0.994	0.852	
1.870	-0.997	0.672	
1.875	3.034	0.461	
1.880	-0.194	0.498	
1.885	-0.996	0.500	
1.890	3.043	0.448	
1.895	3.038	0.715	
1.900	-0.996	1.089	
1.905	-0.436	1.100	
1.910	3.026	0.956	
1.915	-0.994	0.922	
1.920	-0.997	0.737	
1.925	3.032	0.512	
1.930	-0.198	0.532	
1.935	-0.996	0.519	
1.940	3.043	0.456	
1.945	3.040	0.716	
1.950	-0.996	1.087	
1.955	-0.192	1.108	
1.960	3.026	0.990	
1.965	-0.994	0.974	
1.970	-0.996	0.788	
1.975	3.029	0.553	
1.980	0.081	0.573	
1.985	-0.997	0.578	
1.990	3.043	0.526	
1.995	3.040	0.778	
2.000	-0.996	1.134	
2.005	0.003	1.148	
2.010	3.024	1.037	
2.015	-0.994	1.024	
2.020	-0.997	0.831	
2.025	3.032	0.584	
2.030	-0.072	0.586	
2.035	-0.996	0.566	
2.040	3.043	0.497	
2.045	3.040	0.746	
2.050	-0.996	1.106	
2.055	-0.017	1.126	
2.060	3.024	1.021	
2.065	-0.994	1.013	
2.070	-0.996	0.824	
2.075	3.032	0.581	
2.080	-0.313	0.574	
2.085	-0.996	0.530	
2.090	3.043	0.444	
2.095	3.043	0.695	
2.100	-0.996	1.066	
2.105	-0.255	1.088	
2.110	3.023	0.968	
2.115	-0.994	0.952	
2.120	-0.997	0.770	
2.125	3.032	0.540	
2.130	-0.639	0.532	
2.135	-0.996	0.465	
2.140	3.043	0.365	
2.145	3.047	0.624	
2.150	-0.996	1.012	
2.155	-0.250	1.053	
2.160	3.024	0.949	
2.165	-0.994	0.945	
2.170	-0.996	0.770	
2.175	3.031	0.544	
2.180	-0.613	0.538	
2.185	-0.996	0.473	
2.190	3.043	0.374	
2.195	3.046	0.632	
2.200	-0.996	1.017	
2.205	-0.081	1.064	
2.210	3.024	0.977	
2.215	-0.994	0.983	
2.220	-0.996	0.807	
2.225	3.032	0.573	
2.230	-0.651	0.556	
2.235	-0.996	0.479	
2.240	3.044	0.372	
2.245	3.047	0.625	
2.250	-0.996	1.011	
2.255	-0.015	1.062	
2.260	3.024	0.983	
2.265	-0.994	0.995	
2.270	-0.996	0.820	
2.275	3.032	0.584	
2.280	-0.744	0.560	
2.285	-0.996	0.470	
2.290	3.044	0.353	
2.295	3.049	0.606	
2.300	-0.997	0.995	
2.305	0.026	1.052	
2.310	3.026	0.982	
2.315	-0.996	1.001	
2.320	-0.996	0.827	
2.325	3.029	0.591	
2.330	-0.837	0.561	
2.335	-0.996	0.459	
2.340	3.044	0.334	
2.345	3.049	0.587	
2.350	-0.996	0.979	
2.355	0.018	1.040	
2.360	3.024	0.974	
2.365	-0.994	0.996	
2.370	-0.997	0.824	
2.375	3.032	0.590	
2.380	-0.892	0.559	
2.385	-0.997	0.452	
2.390	3.044	0.323	
2.395	3.049	0.576	
2.400	-0.996	0.969	
2.405	0.178	1.041	
2.410	3.024	0.995	
2.415	-0.996	1.029	
2.420	-0.994	0.858	
2.425	3.032	0.618	
2.430	-0.535	0.595	
2.435	-0.997	0.518	
2.440	3.043	0.409	
2.445	3.050	0.655	
2.450	-0.996	1.031	
2.455	0.158	1.082	
2.460	3.027	1.016	
2.465	-0.994	1.036	
2.470	-0.994	0.857	
2.475	3.031	0.613	
2.480	-0.858	0.574	
2.485	-0.997	0.464	
2.490	3.043	0.333	
2.495	3.050	0.582	
2.500	-0.997	0.973	
2.505	0.761	1.070	
2.510	3.024	1.084	
2.515	-0.996	1.159	
2.520	-0.996	0.983	
2.525	3.029	0.718	
2.530	-0.846	0.649	
2.535	-0.996	0.511	
2.540	3.043	0.359	
2.545	3.050	0.593	
2.550	-0.996	0.975	
2.555	1.014	1.078	
2.560	3.024	1.117	
2.565	-0.994	1.210	
2.570	-0.996	1.035	
2.575	3.027	0.759	
2.580	-0.726	0.684	
2.585	-0.997	0.547	
2.590	3.043	0.394	
2.595	3.049	0.621	
2.600	-0.997	0.994	
2.605	1.527	1.113	
2.610	3.026	1.201	
2.615	-0.996	1.326	
2.620	-0.996	1.145	
2.625	3.027	0.846	
2.630	-0.797	0.740	
2.635	-0.996	0.571	
2.640	3.044	0.395	
2.645	3.049	0.611	
2.650	-0.996	0.980	
2.655	1.297	1.089	
2.660	3.024	1.155	
2.665	-0.994	1.268	
2.670	-0.996	1.091	
2.675	3.027	0.805	
2.680	-0.887	0.708	
2.685	-0.996	0.541	
2.690	3.043	0.367	
2.695	3.052	0.589	
2.700	-0.997	0.966	
2.705	1.450	1.088	
2.710	3.024	1.175	
2.715	-0.996	1.301	
2.720	-0.996	1.125	
2.725	3.031	0.832	
2.730	-0.922	0.726	
2.735	-0.997	0.549	
2.740	3.041	0.366	
2.745	3.053	0.584	
2.750	-0.996	0.959	
2.755	1.352	1.079	
2.760	3.024	1.156	
2.765	-0.996	1.277	
2.770	-0.996	1.102	
2.775	3.027	0.815	
2.780	-0.965	0.712	
2.785	-0.996	0.535	
2.790	3.043	0.353	
2.795	3.055	0.574	
2.800	-0.997	0.953	
2.805	1.227	1.069	
2.810	3.027	1.136	
2.815	-0.996	1.249	
2.820	-0.996	1.076	
2.825	3.032	0.795	
2.830	-0.973	0.698	
2.835	-0.996	0.526	
2.840	3.043	0.348	
2.845	3.055	0.572	
2.850	-0.996	0.953	
2.855	1.436	1.080	
2.860	3.026	1.169	
2.865	-0.996	1.297	
2.870	-0.996	1.122	
2.875	3.027	0.831	
2.880	-0.921	0.725	
2.885	-0.996	0.548	
2.890	3.041	0.366	
2.895	3.052	0.584	
2.900	-0.996	0.960	
2.905	1.502	1.086	
2.910	3.026	1.179	
2.915	-0.996	1.310	
2.920	-0.996	1.135	
2.925	3.027	0.841	
2.930	-0.927	0.732	
2.935	-0.996	0.551	
2.940	3.043	0.367	
2.945	3.052	0.584	
2.950	-0.996	0.959	
2.955	1.718	1.095	
2.960	3.026	1.211	
2.965	-0.996	1.358	
2.970	-0.996	1.181	
2.975	3.026	0.878	
2.980	-0.692	0.768	
2.985	-0.996	0.602	
2.990	3.040	0.426	
2.995	3.050	0.636	
3.000	-0.996	0.998	
3.005	1.331	1.102	
3.010	3.027	1.166	
3.015	-0.996	1.277	
3.020	-0.996	1.098	
3.025	3.029	0.809	
3.030	-0.977	0.707	
3.035	-0.997	0.529	
3.040	3.040	0.347	
3.045	3.055	0.569	
3.050	-0.996	0.950	
3.055	1.730	1.090	
3.060	3.026	1.212	
3.065	-0.994	1.361	
3.070	-0.994	1.185	
3.075	3.027	0.882	
3.080	-0.983	0.758	
3.085	-0.996	0.561	
3.090	3.041	0.363	
3.095	2.991	0.571	
3.100	-0.996	0.939	
3.105	1.820	1.076	
3.110	3.027	1.207	
3.115	-0.996	1.366	
3.120	-0.996	1.194	
3.125	3.029	0.891	
3.130	-0.985	0.766	
3.135	-0.997	0.566	
3.140	3.038	0.366	
3.145	2.828	0.565	
3.150	-0.996	0.913	
3.155	2.624	1.076	
3.160	3.026	1.293	
3.165	-0.996	1.516	
3.170	-0.996	1.347	
3.175	3.029	1.018	
3.180	-0.991	0.856	
3.185	-0.996	0.620	
3.190	3.040	0.393	
3.195	2.494	0.558	
3.200	-0.997	0.861	
3.205	2.259	0.978	
3.210	3.029	1.157	
3.215	-0.996	1.370	
3.220	-0.996	1.223	
3.225	3.029	0.928	
3.230	-0.991	0.799	
3.235	-0.996	0.590	
3.240	3.041	0.382	
3.245	2.450	0.556	
3.250	-0.997	0.860	
3.255	2.463	0.985	
3.260	3.031	1.186	
3.265	-0.996	1.413	
3.270	-0.994	1.266	
3.275	3.027	0.962	
3.280	-0.991	0.823	
3.285	-0.996	0.605	
3.290	3.040	0.389	
3.295	2.253	0.549	
3.300	-0.997	0.829	
3.305	2.651	0.948	
3.310	3.029	1.170	
3.315	-0.996	1.419	
3.320	-0.996	1.281	
3.325	3.029	0.979	
3.330	-0.993	0.838	
3.335	-0.996	0.616	
3.340	3.040	0.396	
3.345	1.988	0.541	
3.350	-0.997	0.790	
3.355	2.598	0.886	
3.360	3.032	1.103	
3.365	-0.996	1.360	
3.370	-0.996	1.238	
3.375	3.029	0.951	
3.380	-0.993	0.822	
3.385	-0.997	0.609	
3.390	3.038	0.395	
3.395	1.886	0.537	
3.400	-0.997	0.777	
3.405	2.732	0.872	
3.410	3.029	1.104	
3.415	-0.996	1.374	
3.420	-0.996	1.255	
3.425	3.026	0.967	
3.430	-0.993	0.834	
3.435	-0.997	0.617	
3.440	3.038	0.399	
3.445	2.143	0.551	
3.450	-0.997	0.816	
3.455	2.901	0.937	
3.460	3.031	1.185	
3.465	-0.996	1.455	
3.470	-0.996	1.322	
3.475	3.026	1.014	
3.480	-0.993	0.863	
3.485	-0.997	0.632	
3.490	3.038	0.404	
3.495	2.076	0.547	
3.500	-0.996	0.802	
3.505	2.927	0.919	
3.510	3.031	1.171	
3.515	-0.996	1.447	
3.520	-0.994	1.318	
3.525	3.026	1.013	
3.530	-0.993	0.864	
3.535	-0.996	0.633	
3.540	3.037	0.405	
3.545	2.526	0.569	
3.550	-0.997	0.872	
3.555	2.988	1.022	
3.560	3.032	1.277	
3.565	-0.996	1.538	
3.570	-0.996	1.385	
3.575	3.027	1.056	
3.580	-0.993	0.887	
3.585	-0.997	0.642	
3.590	3.038	0.406	
3.595	1.617	0.523	
3.600	-0.997	0.728	
3.605	2.944	0.813	
3.610	3.032	1.070	
3.615	-0.996	1.369	
3.620	-0.996	1.265	
3.625	3.024	0.982	
3.630	-0.993	0.849	
3.635	-0.996	0.629	
3.640	3.035	0.407	
3.645	1.652	0.533	
3.650	-0.996	0.743	
3.655	2.988	0.832	
3.660	3.032	1.091	
3.665	-0.996	1.389	
3.670	-0.983	1.282	
3.675	3.026	0.996	
3.680	-0.993	0.859	
3.685	-0.997	0.636	
3.690	3.037	0.411	
3.695	1.927	0.547	
3.700	-0.996	0.785	
3.705	3.021	0.894	
3.710	3.032	1.155	
3.715	-0.997	1.444	
3.720	-0.855	1.327	
3.725	3.026	1.040	
3.730	-0.993	0.901	
3.735	-0.997	0.668	
3.740	3.034	0.432	
3.745	1.659	0.547	
3.750	-0.996	0.750	
3.755	3.012	0.835	
3.760	3.034	1.094	
3.765	-0.996	1.393	
3.770	-0.953	1.287	
3.775	3.026	1.003	
3.780	-0.991	0.868	
3.785	-0.996	0.644	
3.790	3.035	0.417	
3.795	1.137	0.515	
3.800	-0.996	0.667	
3.805	3.000	0.718	
3.810	3.034	0.981	
3.815	-0.996	1.302	
3.820	-0.964	1.223	
3.825	3.026	0.963	
3.830	-0.993	0.847	
3.835	-0.997	0.635	
3.840	3.035	0.416	
3.845	0.957	0.510	
3.850	-0.997	0.644	
3.855	3.008	0.682	
3.860	3.035	0.947	
3.865	-0.996	1.275	
3.870	-0.922	1.207	
3.875	3.026	0.959	
3.880	-0.994	0.851	
3.885	-0.997	0.643	
3.890	3.034	0.424	
3.895	0.905	0.514	
3.900	-0.997	0.640	
3.905	3.015	0.674	
3.910	3.034	0.938	
3.915	-0.996	1.268	
3.920	-0.874	1.204	
3.925	3.027	0.963	
3.930	-0.994	0.861	
3.935	-0.997	0.653	
3.940	3.035	0.433	
3.945	0.817	0.516	
3.950	-0.996	0.632	
3.955	3.023	0.657	
3.960	3.034	0.921	
3.965	-0.996	1.255	
3.970	-0.787	1.199	
3.975	3.027	0.971	
3.980	-0.994	0.877	
3.985	-0.997	0.671	
3.990	3.035	0.448	
3.995	0.665	0.520	
4.000	-0.997	0.615	
4.005	3.023	0.627	
4.010	3.035	0.889	
4.015	-0.996	1.228	
4.020	-0.837	1.178	
4.025	3.024	0.952	
4.030	-0.993	0.860	
4.035	-0.997	0.658	
4.040	3.037	0.439	
4.045	0.367	0.502	
4.050	-0.996	0.568	
4.055	3.017	0.560	
4.060	3.038	0.825	
4.065	-0.996	1.177	
4.070	-0.761	1.146	
4.075	3.027	0.943	
4.080	-0.994	0.867	
4.085	-0.997	0.672	
4.090	3.034	0.454	
4.095	0.479	0.519	
4.100	-0.997	0.593	
4.105	3.011	0.589	
4.110	3.038	0.851	
4.115	-0.996	1.195	
4.120	-0.895	1.151	
4.125	3.026	0.928	
4.130	-0.994	0.839	
4.135	-0.997	0.643	
4.140	3.034	0.429	
4.145	0.146	0.486	
4.150	-0.996	0.532	
4.155	3.026	0.510	
4.160	3.037	0.779	
4.165	-0.997	1.141	
4.170	-0.704	1.124	
4.175	3.024	0.937	
4.180	-0.994	0.873	
4.185	-0.996	0.682	
4.190	3.034	0.465	
4.195	0.223	0.516	
4.200	-0.997	0.561	
4.205	3.035	0.537	
4.210	3.038	0.801	
4.215	-0.996	1.157	
4.220	-0.535	1.143	
4.225	3.024	0.969	
4.230	-0.994	0.913	
4.235	-0.996	0.719	
4.240	3.032	0.493	
4.245	0.344	0.541	
4.250	-0.997	0.590	
4.255	3.038	0.569	
4.260	3.038	0.829	
4.265	-0.997	1.178	
4.270	-0.450	1.160	
4.275	3.024	0.989	
4.280	-0.994	0.935	
4.285	-0.996	0.737	
4.290	3.034	0.507	
4.295	0.015	0.534	
4.300	-0.996	0.545	
4.305	3.034	0.498	
4.310	3.040	0.757	
4.315	-0.996	1.120	
4.320	-0.617	1.111	
4.325	3.027	0.939	
4.330	-0.996	0.886	
4.335	-0.996	0.698	
4.340	3.035	0.479	
4.345	-0.174	0.509	
4.350	-0.997	0.508	
4.355	3.032	0.453	
4.360	3.043	0.717	
4.365	-0.996	1.089	
4.370	-0.555	1.094	
4.375	3.026	0.937	
4.380	-0.996	0.895	
4.385	-0.996	0.710	
4.390	3.034	0.491	
4.395	-0.180	0.518	
4.400	-0.997	0.513	
4.405	3.037	0.456	
4.410	3.043	0.718	
4.415	-0.996	1.089	
4.420	-0.444	1.099	
4.425	3.026	0.954	
4.430	-0.996	0.919	
4.435	-0.996	0.734	
4.440	3.032	0.510	
4.445	-0.249	0.528	
4.450	-0.996	0.510	
4.455	3.038	0.444	
4.460	3.041	0.705	
4.465	-0.996	1.077	
4.470	-0.389	1.092	
4.475	3.024	0.956	
4.480	-0.994	0.928	
4.485	-0.996	0.744	
4.490	3.032	0.519	
4.495	-0.291	0.533	
4.500	-0.996	0.508	
4.505	3.041	0.438	
4.510	3.041	0.697	
4.515	-0.996	1.071	
4.520	-0.342	1.090	
4.525	3.024	0.960	
4.530	-0.994	0.937	
4.535	-0.997	0.754	
4.540	3.032	0.527	
4.545	-0.447	0.531	
4.550	-0.996	0.488	
4.555	3.040	0.405	
4.560	3.044	0.664	
4.565	-0.997	1.044	
4.570	-0.349	1.071	
4.575	3.024	0.947	
4.580	-0.996	0.929	
4.585	-0.996	0.750	
4.590	3.032	0.526	
4.595	-0.508	0.529	
4.600	-0.996	0.480	
4.605	3.041	0.392	
4.610	3.041	0.652	
4.615	-0.996	1.034	
4.620	0.128	1.086	
4.625	3.026	1.016	
4.630	-0.994	1.034	
4.635	-0.997	0.853	
4.640	3.034	0.609	
4.645	-0.645	0.581	
4.650	-0.997	0.494	
4.655	3.043	0.379	
4.660	3.046	0.628	
4.665	-0.996	1.010	
4.670	-0.110	1.055	
4.675	3.026	0.966	
4.680	-0.994	0.972	
4.685	-0.996	0.798	
4.690	3.029	0.567	
4.695	-0.468	0.561	
4.700	-0.997	0.505	
4.705	3.043	0.411	
4.710	3.044	0.664	
4.715	-0.996	1.041	
4.720	0.033	1.085	
4.725	3.024	1.003	
4.730	-0.994	1.012	
4.735	-0.996	0.832	
4.740	3.032	0.592	
4.745	-0.454	0.577	
4.750	-0.996	0.516	
4.755	3.043	0.418	
4.760	3.043	0.668	
4.765	-0.996	1.043	
4.770	0.305	1.097	
4.775	3.026	1.043	
4.780	-0.994	1.072	
4.785	-0.996	0.890	
4.790	3.029	0.638	
4.795	-0.444	0.610	
4.800	-0.996	0.536	
4.805	3.043	0.429	
4.810	3.046	0.673	
4.815	-0.996	1.044	
4.820	0.126	1.088	
4.825	3.026	1.014	
4.830	-0.994	1.030	
4.835	-0.996	0.850	
4.840	3.032	0.606	
4.845	-0.764	0.573	
4.850	-0.997	0.475	
4.855	3.041	0.352	
4.860	3.050	0.602	
4.865	-0.997	0.989	
4.870	0.046	1.048	
4.875	3.027	0.982	
4.880	-0.994	1.003	
4.885	-0.997	0.831	
4.890	3.032	0.595	
4.895	-0.793	0.566	
4.900	-0.996	0.468	
4.905	3.044	0.346	
4.910	3.050	0.597	
4.915	-0.997	0.987	
4.920	0.227	1.055	
4.925	3.026	1.009	
4.930	-0.996	1.044	
4.935	-0.996	0.870	
4.940	3.027	0.626	
4.945	-0.803	0.587	
4.950	-0.996	0.479	
4.955	3.043	0.349	
4.960	3.049	0.596	
4.965	-0.997	0.983	
4.970	0.376	1.058	
4.975	3.024	1.028	
4.980	-0.994	1.074	
4.985	-0.996	0.900	
4.990	3.029	0.651	
4.995	-0.845	0.603	
5.000	-0.997	0.483	
5.005	3.044	0.345	
5.010	3.049	0.589	
5.015	-0.996	0.976	
5.020	0.527	1.059	
5.025	3.026	1.047	
5.030	-0.996	1.106	
5.035	-0.996	0.932	
5.040	3.031	0.677	
5.045	-0.814	0.622	
5.050	-0.997	0.500	
5.055	3.043	0.358	
5.060	3.050	0.597	
5.065	-0.996	0.981	
5.070	0.582	1.064	
5.075	3.024	1.056	
5.080	-0.996	1.117	
5.085	-0.996	0.943	
5.090	3.029	0.685	
5.095	-0.913	0.623	
5.100	-0.997	0.487	
5.105	3.044	0.337	
5.110	3.050	0.576	
5.115	-0.996	0.964	
5.120	0.657	1.056	
5.125	3.027	1.060	
5.130	-0.996	1.131	
5.135	-0.996	0.959	
5.140	3.031	0.699	
5.145	-0.761	0.641	
5.150	-0.997	0.518	
5.155	3.041	0.375	
5.160	3.049	0.611	
5.165	-0.996	0.990	
5.170	0.672	1.073	
5.175	3.027	1.072	
5.180	-0.996	1.138	
5.185	-0.996	0.962	
5.190	3.029	0.700	
5.195	-0.945	0.632	
5.200	-0.996	0.489	
5.205	3.044	0.333	
5.210	3.052	0.571	
5.215	-0.996	0.958	
5.220	0.988	1.067	
5.225	3.026	1.108	
5.230	-0.996	1.203	
5.235	-0.996	1.029	
5.240	3.031	0.756	
5.245	-0.936	0.672	
5.250	-0.997	0.515	
5.255	3.043	0.348	
5.260	3.055	0.577	
5.265	-0.996	0.959	
5.270	1.284	1.079	
5.275	3.024	1.150	
5.280	-0.994	1.266	
5.285	-0.996	1.091	
5.290	3.029	0.806	
5.295	-0.927	0.707	
5.300	-0.996	0.537	
5.305	3.041	0.360	
5.310	3.052	0.581	
5.315	-0.996	0.959	
5.320	1.662	1.094	
5.325	3.026	1.205	
5.330	-0.996	1.347	
5.335	-0.996	1.170	
5.340	3.027	0.869	
5.345	-0.944	0.751	
5.350	-0.996	0.561	
5.355	3.043	0.369	
5.360	3.055	0.582	
5.365	-0.997	0.956	
5.370	1.332	1.073	
5.375	3.027	1.150	
5.380	-0.996	1.270	
5.385	-0.996	1.097	
5.390	3.031	0.811	
5.395	-0.977	0.710	
5.400	-0.997	0.532	
5.405	3.043	0.350	
5.410	3.056	0.572	
5.415	-0.996	0.952	
5.420	1.325	1.073	
5.425	3.027	1.151	
5.430	-0.996	1.271	
5.435	-0.996	1.098	
5.440	3.029	0.812	
5.445	-0.977	0.710	
5.450	-0.996	0.532	
5.455	3.041	0.350	
5.460	3.058	0.572	
5.465	-0.996	0.952	
5.470	1.526	1.083	
5.475	3.026	1.182	
5.480	-0.994	1.316	
5.485	-0.996	1.141	
5.490	3.027	0.847	
5.495	-0.974	0.734	
5.500	-0.997	0.547	
5.505	3.043	0.357	
5.510	3.050	0.574	
5.515	-0.996	0.950	
5.520	1.652	1.085	
5.525	3.027	1.197	
5.530	-0.996	1.341	
5.535	-0.996	1.166	
5.540	3.027	0.867	
5.545	-0.980	0.748	
5.550	-0.997	0.555	
5.555	3.041	0.360	
5.560	3.014	0.572	
5.565	-0.996	0.943	
5.570	1.809	1.082	
5.575	3.026	1.211	
5.580	-0.994	1.368	
5.585	-0.996	1.195	
5.590	3.029	0.891	
5.595	-0.985	0.765	
5.600	-0.997	0.565	
5.605	3.043	0.365	
5.610	2.913	0.569	
5.615	-0.997	0.927	
5.620	1.550	1.046	
5.625	3.027	1.148	
5.630	-0.996	1.292	
5.635	-0.996	1.126	
5.640	3.029	0.838	
5.645	-0.986	0.730	
5.650	-0.996	0.545	
5.655	3.043	0.357	
5.660	2.784	0.561	
5.665	-0.997	0.910	
5.670	1.889	1.037	
5.675	3.027	1.176	
5.680	-0.996	1.348	
5.685	-0.994	1.186	
5.690	3.027	0.889	
5.695	-0.980	0.767	
5.700	-0.996	0.569	
5.705	3.041	0.370	
5.710	2.433	0.551	
5.715	-0.996	0.857	
5.720	1.454	0.937	
5.725	3.027	1.031	
5.730	-0.996	1.188	
5.735	-0.994	1.048	
5.740	3.029	0.787	
5.745	-0.991	0.702	
5.750	-0.996	0.533	
5.755	3.043	0.354	
5.760	2.587	0.555	
5.765	-0.996	0.885	
5.770	1.986	1.003	
5.775	3.029	1.153	
5.780	-0.994	1.339	
5.785	-0.996	1.186	
5.790	3.027	0.893	
5.795	-0.989	0.773	
5.800	-0.997	0.573	
5.805	3.040	0.372	
5.810	2.703	0.563	
5.815	-0.996	0.897	
5.820	2.363	1.038	
5.825	3.027	1.227	
5.830	-0.996	1.436	
5.835	-0.996	1.276	
5.840	3.027	0.963	
5.845	-0.986	0.820	
5.850	-0.996	0.601	
5.855	3.038	0.385	
5.860	2.881	0.575	
5.865	-0.996	0.922	
5.870	2.698	1.089	
5.875	3.029	1.312	
5.880	-0.996	1.538	
5.885	-0.996	1.367	
5.890	3.029	1.033	
5.895	-0.988	0.866	
5.900	-0.997	0.626	
5.905	3.038	0.396	
5.910	2.654	0.566	
5.915	-0.996	0.884	
5.920	2.406	1.019	
5.925	3.029	1.213	
5.930	-0.994	1.429	
5.935	-0.996	1.274	
5.940	3.029	0.965	
5.945	-0.989	0.822	
5.950	-0.997	0.603	
5.955	3.038	0.386	
5.960	2.593	0.562	
5.965	-0.996	0.879	
5.970	2.532	1.017	
5.975	3.027	1.224	
5.980	-0.996	1.451	
5.985	-0.996	1.296	
5.990	3.029	0.983	
5.995	-0.989	0.835	
6.000	-0.996	0.611	
6.005	3.040	0.391	
6.010	2.538	0.562	
6.015	-0.997	0.871	
6.020	2.512	1.003	
6.025	3.026	1.208	
6.030	-0.997	1.435	
6.035	-0.996	1.284	
6.040	3.027	0.974	
6.045	-0.991	0.830	
6.050	-0.997	0.608	
6.055	3.040	0.389	
6.060	2.259	0.548	
6.065	-0.996	0.828	
6.070	2.444	0.938	
6.075	3.029	1.138	
6.080	-0.996	1.373	
6.085	-0.996	1.237	
6.090	3.027	0.944	
6.095	-0.993	0.813	
6.100	-0.997	0.601	
6.105	3.040	0.388	
6.110	2.172	0.546	
6.115	-0.996	0.818	
6.120	2.595	0.929	
6.125	3.032	1.145	
6.130	-0.996	1.394	
6.135	-0.996	1.261	
6.140	3.027	0.965	
6.145	-0.991	0.829	
6.150	-0.997	0.611	
6.155	3.041	0.394	
6.160	1.823	0.533	
6.165	-0.997	0.766	
6.170	2.550	0.849	
6.175	3.029	1.062	
6.180	-0.996	1.322	
6.185	-0.994	1.208	
6.190	3.026	0.931	
6.195	-0.993	0.810	
6.200	-0.996	0.604	
6.205	3.040	0.393	
6.210	2.096	0.548	
6.215	-0.996	0.811	
6.220	2.892	0.929	
6.225	3.031	1.176	
6.230	-0.996	1.448	
6.235	-0.996	1.316	
6.240	3.027	1.011	
6.245	-0.993	0.861	
6.250	-0.996	0.631	
6.255	3.041	0.404	
6.260	1.462	0.520	
6.265	-0.997	0.710	
6.270	2.832	0.779	
6.275	3.032	1.024	
6.280	-0.996	1.320	
6.285	-0.996	1.224	
6.290	3.026	0.953	
6.295	-0.994	0.831	
6.300	-0.997	0.620	
6.305	3.037	0.404	
6.310	1.276	0.516	
6.315	-0.997	0.688	
6.320	2.912	0.747	
6.325	3.032	1.000	
6.330	-0.994	1.309	
6.335	-0.996	1.221	
6.340	3.027	0.955	
6.345	-0.994	0.835	
6.350	-0.997	0.624	
6.355	3.038	0.407	
6.360	1.419	0.525	
6.365	-0.997	0.712	
6.370	2.982	0.783	
6.375	3.029	1.042	
6.380	-0.996	1.349	
6.385	-0.985	1.253	
6.390	3.026	0.977	
6.395	-0.993	0.850	
6.400	-0.997	0.632	
6.405	3.037	0.411	
6.410	1.477	0.528	
6.415	-0.997	0.719	
6.420	2.992	0.794	
6.425	3.031	1.055	
6.430	-0.996	1.360	
6.435	-0.994	1.261	
6.440	3.027	0.982	
6.445	-0.994	0.851	
6.450	-0.997	0.631	
6.455	3.037	0.409	
6.460	1.000	0.505	
6.465	-0.996	0.645	
6.470	2.963	0.686	
6.475	3.034	0.947	
6.480	-0.996	1.271	
6.485	-0.996	1.198	
6.490	3.027	0.943	
6.495	-0.993	0.831	
6.500	-0.997	0.625	
6.505	3.038	0.411	
6.510	0.945	0.507	
6.515	-0.997	0.643	
6.520	2.971	0.679	
6.525	3.034	0.940	
6.530	-0.996	1.266	
6.535	-0.994	1.195	
6.540	3.026	0.941	
6.545	-0.993	0.830	
6.550	-0.996	0.625	
6.555	3.037	0.411	
6.560	1.110	0.515	
6.565	-0.996	0.668	
6.570	2.965	0.716	
6.575	3.034	0.975	
6.580	-0.996	1.293	
6.585	-0.996	1.213	
6.590	3.026	0.952	
6.595	-0.994	0.835	
6.600	-0.996	0.625	
6.605	3.037	0.409	
6.610	1.328	0.523	
6.615	-0.996	0.699	
6.620	2.976	0.763	
6.625	3.032	1.023	
6.630	-0.996	1.332	
6.635	-0.996	1.241	
6.640	3.026	0.969	
6.645	-0.994	0.844	
6.650	-0.997	0.628	
6.655	3.038	0.409	
6.660	1.375	0.523	
6.665	-0.996	0.704	
6.670	2.962	0.771	
6.675	3.034	1.029	
6.680	-0.996	1.337	
6.685	-0.994	1.244	
6.690	3.026	0.970	
6.695	-0.993	0.844	
6.700	-0.997	0.629	
6.705	3.037	0.409	
6.710	1.136	0.512	
6.715	-0.996	0.667	
6.720	2.968	0.718	
6.725	3.032	0.978	
6.730	-0.996	1.296	
6.735	-0.957	1.217	
6.740	3.027	0.959	
6.745	-0.993	0.845	
6.750	-0.997	0.635	
6.755	3.034	0.416	
6.760	1.314	0.527	
6.765	-0.996	0.699	
6.770	2.983	0.761	
6.775	3.037	1.021	
6.780	-0.996	1.332	
6.785	-0.957	1.243	
6.790	3.027	0.976	
6.795	-0.994	0.853	
6.800	-0.997	0.638	
6.805	3.035	0.416	
6.810	0.750	0.499	
6.815	-0.996	0.611	
6.820	3.015	0.635	
6.825	3.035	0.902	
6.830	-0.996	1.240	
6.835	-0.846	1.187	
6.840	3.027	0.957	
6.845	-0.994	0.862	
6.850	-0.996	0.658	
6.855	3.035	0.439	
6.860	0.727	0.518	
6.865	-0.997	0.622	
6.870	3.026	0.640	
6.875	3.035	0.903	
6.880	-0.996	1.240	
6.885	-0.614	1.197	
6.890	3.026	0.992	
6.895	-0.994	0.913	
6.900	-0.997	0.707	
6.905	3.032	0.478	
6.910	0.800	0.547	
6.915	-0.997	0.648	
6.920	3.035	0.663	
6.925	3.034	0.922	
6.930	-0.996	1.253	
6.935	-0.576	1.206	
6.940	3.026	1.001	
6.945	-0.994	0.922	
6.950	-0.997	0.715	
6.955	3.034	0.483	
6.960	0.540	0.539	
6.965	-0.997	0.611	
6.970	3.024	0.606	
6.975	3.037	0.865	
6.980	-0.996	1.206	
6.985	-0.759	1.165	
6.990	3.027	0.953	
6.995	-0.994	0.872	
7.000	-0.996	0.673	
7.005	3.035	0.453	
7.010	0.337	0.511	
7.015	-0.996	0.570	
7.020	3.020	0.557	
7.025	3.037	0.821	
7.030	-0.996	1.173	
7.035	-0.733	1.144	
7.040	3.026	0.944	
7.045	-0.994	0.872	
7.050	-0.997	0.677	
7.055	3.034	0.458	
7.060	0.311	0.514	
7.065	-0.997	0.570	
7.070	3.023	0.554	
7.075	3.038	0.817	
7.080	-0.996	1.169	
7.085	-0.697	1.143	
7.090	3.026	0.948	
7.095	-0.994	0.879	
7.100	-0.996	0.685	
7.105	3.035	0.465	
7.110	0.238	0.516	
7.115	-0.996	0.562	
7.120	3.024	0.540	
7.125	3.038	0.802	
7.130	-0.997	1.157	
7.135	-0.723	1.133	
7.140	3.024	0.939	
7.145	-0.994	0.870	
7.150	-0.996	0.678	
7.155	3.034	0.460	
7.160	0.399	0.521	
7.165	-0.997	0.585	
7.170	3.017	0.574	
7.175	3.038	0.836	
7.180	-0.996	1.184	
7.185	-0.695	1.152	
7.190	3.026	0.954	
7.195	-0.994	0.882	
7.200	-0.997	0.685	
7.205	3.034	0.464	
7.210	0.366	0.521	
7.215	-0.996	0.580	
7.220	3.029	0.567	
7.225	3.038	0.830	
7.230	-0.996	1.180	
7.235	-0.616	1.154	
7.240	3.026	0.966	
7.245	-0.994	0.899	
7.250	-0.997	0.703	
7.255	3.034	0.479	
7.260	0.355	0.530	
7.265	-0.996	0.585	
7.270	3.024	0.567	
7.275	3.040	0.828	
7.280	-0.996	1.177	
7.285	-0.585	1.153	
7.290	3.026	0.968	
7.295	-0.994	0.905	
7.300	-0.997	0.709	
7.305	3.035	0.484	
7.310	-0.040	0.516	
7.315	-0.997	0.527	
7.320	3.035	0.481	
7.325	3.040	0.744	
7.330	-0.994	1.111	
7.335	-0.101	1.130	
7.340	3.026	1.015	
7.345	-0.994	1.000	
7.350	-0.996	0.810	
7.355	3.035	0.570	
7.360	-0.296	0.567	
7.365	-0.997	0.527	
7.370	3.029	0.445	
7.375	3.044	0.696	
7.380	-0.996	1.066	
7.385	-0.360	1.083	
7.390	3.026	0.952	
7.395	-0.996	0.929	
7.400	-0.996	0.748	
7.405	3.034	0.523	
7.410	-0.383	0.532	
7.415	-0.997	0.497	
7.420	3.040	0.419	
7.425	3.044	0.678	
7.430	-0.996	1.055	
7.435	-0.310	1.081	
7.440	3.023	0.959	
7.445	-0.994	0.940	
7.450	-0.996	0.760	
7.455	3.029	0.533	
7.460	-0.242	0.545	
7.465	-0.996	0.522	
7.470	3.041	0.452	
7.475	3.043	0.709	
7.480	-0.996	1.079	
7.485	-0.095	1.107	
7.490	3.026	1.001	
7.495	-0.996	0.993	
7.500	-0.996	0.808	
7.505	3.032	0.570	
7.510	0.117	0.587	
7.515	-0.997	0.591	
7.520	3.040	0.538	
7.525	3.041	0.788	
7.530	-0.996	1.140	
7.535	-0.360	1.134	
7.540	3.024	0.983	
7.545	-0.994	0.944	
7.550	-0.996	0.752	
7.555	3.034	0.521	
7.560	-0.154	0.538	
7.565	-0.996	0.527	
7.570	3.035	0.466	
7.575	3.043	0.724	
7.580	-0.997	1.092	
7.585	-0.451	1.099	
7.590	3.024	0.952	
7.595	-0.994	0.916	
7.600	-0.996	0.731	
7.605	3.034	0.508	
7.610	-0.363	0.521	
7.615	-0.997	0.492	
7.620	3.035	0.418	
7.625	3.043	0.679	
7.630	-0.996	1.057	
7.635	-0.467	1.075	
7.640	3.026	0.936	
7.645	-0.996	0.906	
7.650	-0.996	0.727	
7.655	3.035	0.506	
7.660	-0.253	0.527	
7.665	-0.997	0.511	
7.670	3.032	0.444	
7.675	3.046	0.704	
7.680	-0.996	1.077	
7.685	-0.419	1.091	
7.690	3.026	0.951	
7.695	-0.994	0.921	
7.700	-0.997	0.738	
7.705	3.034	0.514	
7.710	-0.419	0.524	
7.715	-0.996	0.487	
7.720	3.037	0.408	
7.725	3.046	0.669	
7.730	-0.996	1.049	
7.735	-0.474	1.069	
7.740	3.026	0.931	
7.745	-0.996	0.903	
7.750	-0.996	0.725	
7.755	3.034	0.505	
7.760	-0.322	0.523	
7.765	-0.997	0.500	
7.770	3.026	0.429	
7.775	3.046	0.688	
7.780	-0.996	1.064	
7.785	-0.520	1.077	
7.790	3.026	0.930	
7.795	-0.994	0.896	
7.800	-0.997	0.715	
7.805	3.034	0.497	
7.810	-0.416	0.512	
7.815	-0.997	0.481	
7.820	3.037	0.406	
7.825	3.044	0.668	
7.830	-0.996	1.049	
7.835	-0.399	1.073	
7.840	3.027	0.944	
7.845	-0.994	0.921	
7.850	-0.996	0.742	
7.855	3.035	0.519	
7.860	-0.259	0.536	
7.865	-0.996	0.516	
7.870	3.032	0.446	
7.875	3.046	0.704	
7.880	-0.997	1.076	
7.885	-0.459	1.088	
7.890	3.027	0.944	
7.895	-0.994	0.911	
7.900	-0.997	0.729	
7.905	3.034	0.507	
7.910	-0.319	0.523	
7.915	-0.996	0.500	
7.920	3.034	0.429	
7.925	3.046	0.690	
7.930	-0.996	1.066	
7.935	-0.335	1.087	
7.940	3.026	0.960	
7.945	-0.996	0.938	
7.950	-0.997	0.756	
7.955	3.034	0.529	
7.960	-0.560	0.528	
7.965	-0.996	0.472	
7.970	3.038	0.380	
7.975	3.049	0.640	
7.980	-0.997	1.025	
7.985	-0.023	1.073	
7.990	3.026	0.990	
7.995	-0.994	0.999	
8.000	-0.997	0.821	
8.005	3.031	0.584	
8.010	-0.653	0.563	
8.015	-0.997	0.482	
8.020	3.035	0.372	
8.025	3.052	0.623	
8.030	-0.997	1.008	
8.035	-0.137	1.053	
8.040	3.026	0.962	
8.045	-0.994	0.967	
8.050	-0.996	0.793	
8.055	3.032	0.563	
8.060	-0.877	0.539	
8.065	-0.996	0.441	
8.070	3.041	0.320	
8.075	3.052	0.576	
8.080	-0.997	0.972	
8.085	-0.067	1.033	
8.090	3.027	0.960	
8.095	-0.996	0.977	
8.100	-0.996	0.807	
8.105	3.032	0.577	
8.110	-0.837	0.552	
8.115	-0.997	0.455	
8.120	3.044	0.333	
8.125	3.052	0.587	
8.130	-0.996	0.980	
8.135	0.617	1.070	
8.140	3.026	1.067	
8.145	-0.994	1.131	
8.150	-0.996	0.955	
8.155	3.027	0.695	
8.160	-0.884	0.631	
8.165	-0.997	0.495	
8.170	3.044	0.345	
8.175	3.052	0.583	
8.180	-0.996	0.968	
8.185	0.809	1.066	
8.190	3.026	1.085	
8.195	-0.996	1.165	
8.200	-0.996	0.991	
8.205	3.032	0.725	
8.210	-0.944	0.650	
8.215	-0.997	0.501	
8.220	3.046	0.340	
8.225	3.055	0.574	
8.230	-0.996	0.959	
8.235	0.520	1.045	
8.240	3.027	1.036	
8.245	-0.996	1.098	
8.250	-0.997	0.927	
8.255	3.029	0.674	
8.260	-0.968	0.614	
8.265	-0.996	0.476	
8.270	3.043	0.324	
8.275	3.056	0.565	
8.280	-0.997	0.956	
8.285	0.628	1.050	
8.290	3.027	1.054	
8.295	-0.996	1.124	
8.300	-0.996	0.953	
8.305	3.031	0.695	
8.310	-0.973	0.628	
8.315	-0.997	0.484	
8.320	3.044	0.327	
8.325	3.052	0.565	
8.330	-0.996	0.954	
8.335	0.985	1.064	
8.340	3.027	1.106	
8.345	-0.994	1.202	
8.350	-0.996	1.029	
8.355	3.027	0.756	
8.360	-0.985	0.670	
8.365	-0.997	0.507	
8.370	3.043	0.336	
8.375	2.866	0.557	
8.380	-0.996	0.922	
8.385	1.229	1.028	
8.390	3.027	1.098	
8.395	-0.996	1.220	
8.400	-0.996	1.056	
8.405	3.029	0.783	
8.410	-0.988	0.692	
8.415	-0.996	0.522	
8.420	3.044	0.345	
8.425	2.797	0.559	
8.430	-0.996	0.913	
8.435	1.466	1.024	
8.440	3.027	1.118	
8.445	-0.996	1.259	
8.450	-0.996	1.098	
8.455	3.027	0.818	
8.460	-0.986	0.718	
8.465	-0.996	0.538	
8.470	3.041	0.354	
8.475	2.855	0.564	
8.480	-0.997	0.921	
8.485	1.814	1.050	
8.490	3.026	1.181	
8.495	-0.996	1.344	
8.500	-0.996	1.178	
8.505	3.026	0.881	
8.510	-0.985	0.760	
8.515	-0.997	0.563	
8.520	3.043	0.365	
8.525	2.892	0.569	
8.530	-0.996	0.925	
8.535	2.050	1.066	
8.540	3.027	1.221	
8.545	-0.996	1.400	
8.550	-0.996	1.232	
8.555	3.029	0.924	
8.560	-0.985	0.790	
8.565	-0.997	0.581	
8.570	3.040	0.374	
8.575	2.884	0.571	
8.580	-0.997	0.922	
8.585	2.337	1.074	
8.590	3.024	1.260	
8.595	-0.996	1.459	
8.600	-0.996	1.290	
8.605	3.029	0.971	
8.610	-0.988	0.822	
8.615	-0.996	0.600	
8.620	3.041	0.383	
8.625	2.773	0.568	
8.630	-0.996	0.905	
8.635	2.268	1.044	
8.640	3.026	1.223	
8.645	-0.996	1.423	
8.650	-0.994	1.261	
8.655	3.026	0.950	
8.660	-0.988	0.810	
8.665	-0.997	0.594	
8.670	3.038	0.381	
8.675	2.852	0.571	
8.680	-0.996	0.917	
8.685	2.861	1.090	
8.690	3.026	1.331	
8.695	-0.996	1.570	
8.700	-0.996	1.399	
8.705	3.027	1.059	
8.710	-0.991	0.884	
8.715	-0.997	0.637	
8.720	3.041	0.401	
8.725	2.393	0.555	
8.730	-0.997	0.844	
8.735	2.354	0.957	
8.740	3.027	1.147	
8.745	-0.996	1.371	
8.750	-0.996	1.230	
8.755	3.027	0.935	
8.760	-0.989	0.806	
8.765	-0.996	0.596	
8.770	3.040	0.385	
8.775	2.512	0.561	
8.780	-0.996	0.870	
8.785	2.558	1.004	
8.790	3.029	1.214	
8.795	-0.996	1.445	
8.800	-0.996	1.294	
8.805	3.026	0.983	
8.810	-0.991	0.836	
8.815	-0.996	0.612	
8.820	3.038	0.391	
8.825	2.433	0.557	
8.830	-0.996	0.855	
8.835	2.677	0.987	
8.840	3.027	1.211	
8.845	-0.996	1.454	
8.850	-0.996	1.308	
8.855	3.027	0.996	
8.860	-0.989	0.847	
8.865	-0.996	0.620	
8.870	3.038	0.396	
8.875	2.468	0.561	
8.880	-0.996	0.861	
8.885	2.717	0.997	
8.890	3.027	1.224	
8.895	-0.996	1.469	
8.900	-0.996	1.320	
8.905	3.027	1.005	
8.910	-0.991	0.852	
8.915	-0.997	0.622	
8.920	3.040	0.397	
8.925	2.123	0.545	
8.930	-0.996	0.808	
8.935	2.625	0.915	
8.940	3.032	1.135	
8.945	-0.996	1.389	
8.950	-0.996	1.259	
8.955	3.029	0.965	
8.960	-0.991	0.830	
8.965	-0.997	0.613	
8.970	3.040	0.396	
8.975	2.067	0.545	
8.980	-0.996	0.804	
8.985	2.739	0.912	
8.990	3.029	1.144	
8.995	-0.994	1.407	
9.000	-0.996	1.278	
9.005	3.027	0.981	
9.010	-0.993	0.842	
9.015	-0.996	0.620	
9.020	3.040	0.399	
9.025	2.024	0.545	
9.030	-0.996	0.797	
9.035	2.785	0.904	
9.040	3.029	1.140	
9.045	-0.996	1.408	
9.050	-0.996	1.282	
9.055	3.026	0.985	
9.060	-0.993	0.845	
9.065	-0.997	0.622	
9.070	3.038	0.400	
9.075	1.852	0.537	
9.080	-0.997	0.770	
9.085	2.779	0.864	
9.090	3.031	1.101	
9.095	-0.996	1.377	
9.100	-0.996	1.260	
9.105	3.026	0.972	
9.110	-0.993	0.838	
9.115	-0.996	0.620	
9.120	3.038	0.401	
9.125	1.739	0.534	
9.130	-0.997	0.755	
9.135	2.791	0.842	
9.140	3.032	1.080	
9.145	-0.996	1.361	
9.150	-0.996	1.250	
9.155	3.026	0.966	
9.160	-0.993	0.836	
9.165	-0.996	0.620	
9.170	3.038	0.402	
9.175	1.651	0.531	
9.180	-0.997	0.743	
9.185	2.814	0.824	
9.190	3.031	1.065	
9.195	-0.996	1.351	
9.200	-0.996	1.244	
9.205	3.026	0.964	
9.210	-0.993	0.836	
9.215	-0.996	0.620	
9.220	3.037	0.403	
9.225	1.716	0.535	
9.230	-0.996	0.753	
9.235	2.904	0.843	
9.240	3.031	1.094	
9.245	-0.996	1.383	
9.250	-0.994	1.272	
9.255	3.027	0.985	
9.260	-0.993	0.849	
9.265	-0.997	0.628	
9.270	3.038	0.406	
9.275	1.474	0.524	
9.280	-0.996	0.716	
9.285	2.872	0.786	
9.290	3.034	1.035	
9.295	-0.996	1.333	
9.300	-0.994	1.236	
9.305	3.027	0.962	
9.310	-0.993	0.837	
9.315	-0.997	0.624	
9.320	3.038	0.406	
9.325	1.302	0.518	
9.330	-0.996	0.692	
9.335	2.903	0.752	
9.340	3.034	1.005	
9.345	-0.996	1.311	
9.350	-0.980	1.223	
9.355	3.026	0.957	
9.360	-0.993	0.838	
9.365	-0.997	0.627	
9.370	3.037	0.409	
9.375	0.974	0.506	
9.380	-0.997	0.644	
9.385	2.845	0.678	
9.390	3.032	0.925	
9.395	-0.996	1.241	
9.400	-0.996	1.170	
9.405	3.026	0.921	
9.410	-0.993	0.816	
9.415	-0.996	0.616	
9.420	3.035	0.406	
9.425	1.285	0.521	
9.430	-0.996	0.695	
9.435	2.950	0.755	
9.440	3.032	1.012	
9.445	-0.996	1.321	
9.450	-0.994	1.232	
9.455	3.026	0.962	
9.460	-0.994	0.840	
9.465	-0.999	0.626	
9.470	3.038	0.408	
9.475	1.486	0.528	
9.480	-0.996	0.721	
9.485	2.951	0.796	
9.490	3.034	1.052	
9.495	-0.996	1.354	
9.500	-0.996	1.255	
9.505	3.026	0.976	
9.510	-0.993	0.847	
9.515	-0.997	0.629	
9.520	3.037	0.408	
9.525	1.995	0.550	
9.530	-0.997	0.797	
9.535	2.971	0.908	
9.540	3.029	1.163	
9.545	-0.996	1.445	
9.550	-0.994	1.318	
9.555	3.027	1.015	
9.560	-0.993	0.866	
9.565	-0.999	0.635	
9.570	3.037	0.407	
9.575	1.579	0.526	
9.580	-0.996	0.728	
9.585	2.800	0.803	
9.590	3.035	1.044	
9.595	-0.996	1.333	
9.600	-0.997	1.232	
9.605	3.027	0.956	
9.610	-0.993	0.832	
9.615	-0.997	0.619	
9.620	3.040	0.403	
9.625	1.334	0.518	
9.630	-0.997	0.696	
9.635	2.806	0.755	
9.640	3.035	0.997	
9.645	-0.997	1.296	
9.650	-0.994	1.206	
9.655	3.026	0.941	
9.660	-0.994	0.824	
9.665	-0.997	0.617	
9.670	3.038	0.403	
9.675	1.281	0.517	
9.680	-0.996	0.690	
9.685	2.861	0.747	
9.690	3.035	0.995	
9.695	-0.996	1.300	
9.700	-0.996	1.212	
9.705	3.027	0.947	
9.710	-0.994	0.829	
9.715	-0.994	0.621	
9.720	3.037	0.406	
9.725	1.146	0.513	
9.730	-0.996	0.670	
9.735	2.906	0.719	
9.740	3.035	0.973	
9.745	-0.994	1.286	
9.750	-0.996	1.205	
9.755	3.026	0.945	
9.760	-0.996	0.830	
9.765	-0.997	0.622	
9.770	3.038	0.407	
9.775	1.091	0.511	
9.780	-0.997	0.663	
9.785	2.855	0.705	
9.790	3.034	0.953	
9.795	-0.996	1.265	
9.800	-0.996	1.187	
9.805	3.024	0.931	
9.810	-0.994	0.821	
9.815	-0.999	0.617	
9.820	3.038	0.405	
9.825	1.139	0.513	
9.830	-0.997	0.670	
9.835	2.883	0.718	
9.840	3.037	0.969	
9.845	-0.997	1.280	
9.850	-0.996	1.200	
9.855	3.027	0.940	
9.860	-0.993	0.827	
9.865	-0.997	0.621	
9.870	3.038	0.407	
9.875	1.140	0.514	
9.880	-0.996	0.671	
9.885	2.932	0.720	
9.890	3.037	0.976	
9.895	-0.997	1.292	
9.900	-0.989	1.211	
9.905	3.027	0.950	
9.910	-0.993	0.834	
9.915	-0.999	0.625	
9.920	3.035	0.409	
9.925	1.166	0.515	
9.930	-0.996	0.674	
9.935	2.959	0.726	
9.940	3.034	0.985	
9.945	-0.996	1.301	
9.950	-0.991	1.218	
9.955	3.026	0.955	
9.960	-0.994	0.837	
9.965	-0.996	0.627	
9.970	3.037	0.410	
9.975	0.997	0.508	
9.980	-0.997	0.648	
9.985	2.913	0.686	
9.990	3.035	0.941	
9.995	-0.996	1.261	
10.000	-0.994	1.188	
10.005	3.026	0.935	
10.010	-0.994	0.825	
10.015	-0.996	0.621	
10.020	3.037	0.408	
10.025	1.236	0.520	
10.030	-0.996	0.687	
10.035	3.009	0.746	
10.040	3.035	1.009	
10.045	-0.996	1.326	
10.050	-0.994	1.239	
10.055	3.027	0.969	
10.060	-0.994	0.846	
10.065	-0.996	0.631	
10.070	3.038	0.411	
10.075	0.751	0.496	
10.080	-0.997	0.610	
10.085	2.823	0.626	
10.090	3.037	0.873	
10.095	-0.996	1.198	
10.100	-0.994	1.139	
10.105	3.027	0.902	
10.110	-0.994	0.807	
10.115	-0.997	0.613	
10.120	3.040	0.407	
10.125	0.983	0.510	
10.130	-0.996	0.652	
10.135	2.803	0.684	
10.140	3.037	0.927	
10.145	-0.996	1.238	
10.150	-0.994	1.166	
10.155	3.026	0.917	
10.160	-0.994	0.813	
10.165	-0.996	0.613	
10.170	3.038	0.405	
10.175	1.200	0.517	
10.180	-0.997	0.682	
10.185	2.939	0.736	
10.190	3.035	0.992	
10.195	-0.996	1.304	
10.200	-0.924	1.223	
10.205	3.027	0.966	
10.210	-0.993	0.852	
10.215	-0.996	0.641	
10.220	3.037	0.421	
10.225	1.241	0.527	
10.230	-0.996	0.690	
10.235	2.953	0.745	
10.240	3.037	1.001	
10.245	-0.996	1.313	
10.250	-0.986	1.226	
10.255	3.026	0.960	
10.260	-0.994	0.840	
10.265	-0.996	0.628	
10.270	3.038	0.410	
10.275	0.623	0.490	
10.280	-0.996	0.591	
10.285	2.834	0.599	
10.290	3.040	0.848	
10.295	-0.996	1.180	
10.300	-0.994	1.127	
10.305	3.026	0.896	
10.310	-0.994	0.804	
10.315	-0.997	0.612	
10.320	3.038	0.407	
10.325	0.584	0.493	
10.330	-0.996	0.592	
10.335	2.781	0.595	
10.340	3.040	0.837	
10.345	-0.996	1.165	
10.350	-0.996	1.113	
10.355	3.027	0.885	
10.360	-0.993	0.796	
10.365	-0.997	0.608	
10.370	3.040	0.406	
10.375	0.547	0.491	
10.380	-0.997	0.587	
10.385	2.899	0.593	
10.390	3.040	0.848	
10.395	-0.996	1.186	
10.400	-0.957	1.137	
10.405	3.026	0.908	
10.410	-0.994	0.818	
10.415	-0.997	0.624	
10.420	3.037	0.416	
10.425	0.346	0.487	
10.430	-0.996	0.558	
10.435	2.962	0.551	
10.440	3.040	0.813	
10.445	-0.996	1.163	
10.450	-0.944	1.126	
10.455	3.027	0.906	
10.460	-0.994	0.821	
10.465	-0.996	0.630	
10.470	3.037	0.422	
10.475	0.413	0.495	
10.480	-0.996	0.572	
10.485	2.947	0.567	
10.490	3.041	0.827	
10.495	-0.996	1.172	
10.500	-0.907	1.132	
10.505	3.026	0.914	
10.510	-0.994	0.829	
10.515	-0.996	0.637	
10.520	3.038	0.427	
10.525	0.367	0.496	
10.530	-0.997	0.567	
10.535	2.976	0.559	
10.540	3.040	0.821	
10.545	-0.996	1.170	
10.550	-0.867	1.134	
10.555	3.024	0.921	
10.560	-0.994	0.839	
10.565	-0.996	0.646	
10.570	3.037	0.434	
10.575	0.500	0.507	
10.580	-0.996	0.590	
10.585	2.986	0.591	
10.590	3.038	0.852	
10.595	-0.996	1.195	
10.600	-0.807	1.155	
10.605	3.026	0.941	
10.610	-0.993	0.858	
10.615	-0.997	0.661	
10.620	3.037	0.445	
10.625	0.375	0.508	
10.630	-0.996	0.574	
10.635	2.977	0.563	
10.640	3.041	0.823	
10.645	-0.996	1.171	
10.650	-0.857	1.135	
10.655	3.027	0.922	
10.660	-0.994	0.842	
10.665	-0.996	0.649	
10.670	3.038	0.437	
10.675	0.181	0.494	
10.680	-0.996	0.543	
10.685	2.992	0.521	
10.690	3.041	0.784	
10.695	-0.997	1.142	
10.700	-0.473	1.134	
10.705	3.024	0.970	
10.710	-0.993	0.922	
10.715	-0.996	0.731	
10.720	3.035	0.504	
10.725	-0.095	0.529	
10.730	-0.996	0.529	
10.735	2.945	0.471	
10.740	3.046	0.722	
10.745	-0.996	1.083	
10.750	-0.761	1.074	
10.755	3.027	0.895	
10.760	-0.994	0.841	
10.765	-0.996	0.660	
10.770	3.035	0.452	
10.775	-0.046	0.498	
10.780	-0.996	0.519	
10.785	3.015	0.479	
10.790	3.043	0.743	
10.795	-0.996	1.110	
10.800	-0.596	1.106	
10.805	3.027	0.939	
10.810	-0.994	0.890	
10.815	-0.996	0.703	
10.820	3.035	0.484	
10.825	-0.014	0.520	
10.830	-0.997	0.535	
10.835	3.021	0.490	
10.840	3.043	0.751	
10.845	-0.996	1.115	
10.850	-0.515	1.113	
10.855	3.027	0.953	
10.860	-0.994	0.908	
10.865	-0.996	0.720	
10.870	3.035	0.497	
10.875	0.139	0.537	
10.880	-0.997	0.564	
10.885	3.038	0.527	
10.890	3.041	0.787	
10.895	-0.996	1.144	
10.900	-0.297	1.143	
10.905	3.026	0.998	
10.910	-0.994	0.962	
10.915	-0.996	0.769	
10.920	3.035	0.534	
10.925	-0.128	0.549	
10.930	-0.997	0.536	
10.935	3.035	0.474	
10.940	3.043	0.730	
10.945	-0.996	1.096	
10.950	-0.404	1.104	
10.955	3.026	0.960	
10.960	-0.994	0.927	
10.965	-0.997	0.742	
10.970	3.034	0.516	
10.975	-0.183	0.535	
10.980	-0.996	0.523	
10.985	3.034	0.460	
10.990	3.043	0.719	
10.995	-0.994	1.088	
11.000	-0.448	1.097	
11.005	3.026	0.951	
11.010	-0.996	0.917	
11.015	-0.996	0.732	
11.020	3.034	0.509	
11.025	-0.034	0.537	
11.030	-0.996	0.543	
11.035	3.026	0.492	
11.040	3.046	0.750	
11.045	-0.996	1.113	
11.050	-0.407	1.116	
11.055	3.024	0.968	
11.060	-0.994	0.931	
11.065	-0.996	0.742	
11.070	3.032	0.515	
11.075	-0.656	0.512	
11.080	-0.997	0.449	
11.085	3.040	0.353	
11.090	3.050	0.616	
11.095	-0.996	1.008	
11.100	0.750	1.098	
11.105	3.024	1.102	
11.110	-0.993	1.169	
11.115	-0.997	0.988	
11.120	3.027	0.718	
11.125	-0.817	0.649	
11.130	-0.997	0.513	
11.135	3.043	0.363	
11.140	3.049	0.597	
11.145	-0.996	0.978	
11.150	0.934	1.077	
11.155	3.023	1.106	
11.160	-0.997	1.193	
11.165	-0.996	1.017	
11.170	3.029	0.744	
11.175	-0.837	0.668	
11.180	-0.997	0.524	
11.185	3.044	0.366	
11.190	3.050	0.596	
11.195	-0.999	0.976	
11.200	1.078	1.080	
11.205	3.021	1.125	
11.210	-0.996	1.222	
11.215	-0.996	1.046	
11.220	3.029	0.768	
11.225	-0.811	0.686	
11.230	-0.997	0.538	
11.235	3.043	0.377	
11.240	3.052	0.603	
11.245	-0.997	0.980	
11.250	1.174	1.087	
11.255	3.024	1.141	
11.260	-0.994	1.244	
11.265	-0.997	1.067	
11.270	3.029	0.785	
11.275	-0.918	0.693	
11.280	-0.997	0.528	
11.285	3.043	0.356	
11.290	3.052	0.581	
11.295	-0.996	0.961	
11.300	0.907	1.061	
11.305	3.027	1.092	
11.310	-0.996	1.181	
11.315	-0.996	1.008	
11.320	3.029	0.740	
11.325	-0.944	0.661	
11.330	-0.996	0.507	
11.335	3.041	0.343	
11.340	3.052	0.574	
11.345	-0.997	0.958	
11.350	1.466	1.086	
11.355	3.026	1.178	
11.360	-0.996	1.306	
11.365	-0.996	1.130	
11.370	3.029	0.837	
11.375	-0.979	0.727	
11.380	-0.996	0.542	
11.385	3.043	0.354	
11.390	3.056	0.573	
11.395	-0.996	0.951	
11.400	0.985	1.056	
11.405	3.024	1.097	
11.410	-0.994	1.194	
11.415	-0.997	1.023	
11.420	3.027	0.752	
11.425	-0.964	0.669	
11.430	-0.996	0.509	
11.435	3.041	0.341	
11.440	3.056	0.571	
11.445	-0.996	0.955	
11.450	1.152	1.070	
11.455	3.026	1.129	
11.460	-0.996	1.236	
11.465	-0.996	1.063	
11.470	3.029	0.783	
11.475	-0.960	0.690	
11.480	-0.996	0.523	
11.485	3.043	0.348	
11.490	3.053	0.573	
11.495	-0.996	0.955	
11.500	1.346	1.077	
11.505	3.027	1.156	
11.510	-0.996	1.278	
11.515	-0.997	1.103	
11.520	3.032	0.816	
11.525	1.096	0.808	
11.530	-0.996	0.850	
11.535	1.662	0.750	
11.540	3.049	0.810	
11.545	-0.994	1.002	
11.550	-0.994	0.915	
11.555	2.781	0.694	
11.560	-0.194	0.659	
11.565	-0.994	0.585	
11.570	-0.230	0.329	
11.575	0.046	0.078	
11.580	-0.871	-0.107	
11.585	-0.916	-0.298	
11.590	-0.422	-0.482	
11.595	-0.515	-0.588	
11.600	-0.994	-0.645	
11.605	-0.994	-0.715	
11.610	-0.506	-0.778	
11.615	-0.651	-0.789	
11.620	-0.994	-0.777	
11.625	-0.546	-0.775	
11.630	-0.390	-0.746	
11.635	-0.924	-0.697	
11.640	-0.712	-0.681	
11.645	-0.261	-0.667	
11.650	-0.712	-0.627	
11.655	-0.842	-0.609	
11.660	-0.255	-0.609	
11.665	-0.448	-0.580	
11.670	-0.863	-0.552	
11.675	-0.364	-0.553	
11.680	-0.227	-0.536	
11.685	-0.770	-0.501	
11.690	-0.543	-0.499	
11.695	-0.095	-0.495	
11.700	-0.576	-0.463	
11.705	-0.712	-0.451	
11.710	-0.148	-0.462	
11.715	-0.349	-0.444	
11.720	-0.773	-0.428	
11.725	-0.267	-0.441	
11.730	-0.117	-0.432	
11.735	-0.689	-0.402	
11.740	-0.477	-0.405	
11.745	-0.067	-0.410	
11.750	-0.590	-0.393	
11.755	-0.736	-0.403	
11.760	-0.142	-0.435	
11.765	-0.355	-0.434	
11.770	-0.797	-0.430	
11.775	-0.302	-0.452	
11.780	-0.160	-0.452	
11.785	-0.721	-0.430	
11.790	-0.489	-0.437	
11.795	-0.053	-0.440	
11.800	-0.555	-0.414	
11.805	-0.645	-0.408	
11.810	-0.017	-0.416	
11.815	-0.247	-0.385	
11.820	-0.678	-0.354	
11.825	-0.137	-0.354	
11.830	-0.006	-0.333	
11.835	-0.608	-0.296	
11.840	-0.375	-0.297	
11.845	0.046	-0.303	
11.850	-0.508	-0.287	
11.855	-0.669	-0.301	
11.860	-0.096	-0.343	
11.865	-0.354	-0.356	
11.870	-0.797	-0.370	
11.875	-0.296	-0.413	
11.880	-0.197	-0.431	
11.885	-0.820	-0.430	
11.890	-0.585	-0.462	
11.895	-0.151	-0.491	
11.900	-0.668	-0.487	
11.905	-0.782	-0.499	
11.910	-0.174	-0.524	
11.915	-0.425	-0.512	
11.920	-0.881	-0.499	
11.925	-0.395	-0.520	
11.930	-0.277	-0.524	
11.935	-0.811	-0.511	
11.940	-0.428	-0.517	
11.945	0.309	-0.488	
11.950	-0.159	-0.382	
11.955	-0.168	-0.267	
11.960	0.741	-0.150	
11.965	-0.009	-0.005	
11.970	-0.685	0.069	
11.975	-0.349	0.013	
11.980	-0.366	-0.097	
11.985	-0.977	-0.229	
11.990	-0.678	-0.390	
11.995	-0.201	-0.514	
12.000	-0.720	-0.563	
12.005	-0.823	-0.597	
12.010	-0.178	-0.621	
12.015	-0.436	-0.593	
12.020	-0.869	-0.558	
12.025	-0.326	-0.553	
12.030	-0.209	-0.529	
12.035	-0.799	-0.490	
12.040	-0.517	-0.488	
12.045	-0.067	-0.485	
12.050	-0.602	-0.451	
12.055	-0.689	-0.442	
12.060	-0.050	-0.450	
12.065	-0.328	-0.422	
12.070	-0.747	-0.398	
12.075	-0.166	-0.404	
12.080	-0.061	-0.385	
12.085	-0.651	-0.348	
12.090	-0.320	-0.343	
12.095	0.229	-0.327	
12.100	-0.395	-0.270	
12.105	-0.460	-0.240	
12.110	0.348	-0.225	
12.115	-0.058	-0.168	
12.120	-0.477	-0.121	
12.125	0.210	-0.112	
12.130	0.413	-0.071	
12.135	-0.401	-0.008	
12.140	-0.130	0.000	
12.145	0.492	-0.003	
12.150	-0.317	0.020	
12.155	-0.468	0.000	
12.160	0.190	-0.059	
12.165	-0.209	-0.091	
12.170	-0.674	-0.131	
12.175	-0.137	-0.205	
12.180	-0.085	-0.251	
12.185	-0.735	-0.276	
12.190	-0.468	-0.330	
12.195	-0.050	-0.375	
12.200	-0.624	-0.383	
12.205	-0.717	-0.410	
12.210	-0.093	-0.446	
12.215	-0.374	-0.440	
12.220	-0.778	-0.431	
12.225	-0.188	-0.445	
12.230	-0.105	-0.427	
12.235	-0.701	-0.391	
12.240	-0.390	-0.388	
12.245	0.058	-0.381	
12.250	-0.508	-0.343	
12.255	-0.567	-0.332	
12.260	0.101	-0.336	
12.265	-0.236	-0.304	
12.270	-0.653	-0.279	
12.275	-0.052	-0.289	
12.280	0.072	-0.272	
12.285	-0.566	-0.236	
12.290	-0.265	-0.235	
12.295	0.312	-0.228	
12.300	-0.404	-0.184	
12.305	-0.483	-0.174	
12.310	0.253	-0.188	
12.315	-0.168	-0.167	
12.320	-0.593	-0.157	
12.325	0.001	-0.186	
12.330	0.097	-0.188	
12.335	-0.564	-0.172	
12.340	-0.244	-0.191	
12.345	0.285	-0.200	
12.350	-0.433	-0.173	
12.355	-0.492	-0.177	
12.360	0.235	-0.201	
12.365	-0.171	-0.185	
12.370	-0.589	-0.175	
12.375	0.009	-0.199	
12.380	0.059	-0.198	
12.385	-0.593	-0.183	
12.390	-0.279	-0.206	
12.395	0.232	-0.222	
12.400	-0.456	-0.201	
12.405	-0.521	-0.210	
12.410	0.152	-0.237	
12.415	-0.233	-0.228	
12.420	-0.630	-0.224	
12.425	-0.014	-0.251	
12.430	0.059	-0.245	
12.435	-0.575	-0.219	
12.440	-0.230	-0.226	
12.445	0.340	-0.220	
12.450	-0.419	-0.175	
12.455	-0.479	-0.166	
12.460	0.285	-0.181	
12.465	-0.163	-0.158	
12.470	-0.576	-0.147	
12.475	0.079	-0.171	
12.480	0.148	-0.164	
12.485	-0.553	-0.138	
12.490	-0.209	-0.154	
12.495	0.372	-0.161	
12.500	-0.430	-0.130	
12.505	-0.508	-0.137	
12.510	0.146	-0.175	
12.515	-0.259	-0.183	
12.520	-0.669	-0.201	
12.525	-0.070	-0.250	
12.530	-0.032	-0.267	
12.535	-0.672	-0.263	
12.540	-0.343	-0.292	
12.545	0.134	-0.309	
12.550	-0.538	-0.288	
12.555	-0.584	-0.296	
12.560	0.085	-0.319	
12.565	-0.306	-0.305	
12.570	-0.717	-0.299	
12.575	-0.024	-0.323	
12.580	0.325	-0.295	
12.585	-0.252	-0.210	
12.590	0.503	-0.114	
12.595	1.303	0.049	
12.600	-0.114	0.258	
12.605	-0.406	0.344	
12.610	-0.003	0.280	
12.615	-0.515	0.154	
12.620	-0.933	-0.027	
12.625	-0.294	-0.234	
12.630	-0.192	-0.372	
12.635	-0.743	-0.437	
12.640	-0.361	-0.482	
12.645	0.110	-0.478	
12.650	-0.534	-0.419	
12.655	-0.553	-0.382	
12.660	0.187	-0.361	
12.665	-0.230	-0.302	
12.670	-0.624	-0.259	
12.675	0.011	-0.258	
12.680	0.078	-0.234	
12.685	-0.584	-0.198	
12.690	-0.227	-0.205	
12.695	0.334	-0.203	
12.700	-0.416	-0.163	
12.705	-0.407	-0.155	
12.710	0.511	-0.156	
12.715	-0.064	-0.102	
12.720	-0.467	-0.061	
12.725	0.360	-0.059	
12.730	0.453	-0.014	
12.735	-0.372	0.052	
12.740	0.078	0.064	
12.745	0.924	0.092	
12.750	-0.127	0.171	
12.755	-0.110	0.204	
12.760	1.110	0.218	
12.765	0.413	0.301	
12.770	-0.182	0.367	
12.775	0.873	0.375	
12.780	0.855	0.421	
12.785	-0.227	0.475	
12.790	0.255	0.444	
12.795	0.928	0.402	
12.800	-0.217	0.395	
12.805	-0.305	0.328	
12.810	0.538	0.221	
12.815	-0.136	0.157	
12.820	-0.570	0.082	
12.825	0.059	-0.026	
12.830	0.037	-0.093	
12.835	-0.637	-0.132	
12.840	-0.268	-0.197	
12.845	0.226	-0.236	
12.850	-0.509	-0.227	
12.855	-0.520	-0.241	
12.860	0.183	-0.266	
12.865	-0.291	-0.250	
12.870	-0.662	-0.245	
12.875	0.003	-0.272	
12.880	0.014	-0.264	
12.885	-0.630	-0.240	
12.890	-0.252	-0.252	
12.895	0.267	-0.252	
12.900	-0.476	-0.214	
12.905	-0.467	-0.209	
12.910	0.311	-0.219	
12.915	-0.239	-0.187	
12.920	-0.628	-0.174	
12.925	0.017	-0.203	
12.930	-0.006	-0.208	
12.935	-0.642	-0.201	
12.940	-0.229	-0.231	
12.945	0.332	-0.238	
12.950	-0.482	-0.200	
12.955	-0.500	-0.197	
12.960	0.265	-0.215	
12.965	-0.250	-0.194	
12.970	-0.616	-0.187	
12.975	0.061	-0.215	
12.980	0.049	-0.210	
12.985	-0.619	-0.189	
12.990	-0.226	-0.210	
12.995	0.283	-0.217	
13.000	-0.502	-0.188	
13.005	-0.496	-0.196	
13.010	0.239	-0.221	
13.015	-0.299	-0.207	
13.020	-0.657	-0.209	
13.025	0.023	-0.245	
13.030	-0.012	-0.246	
13.035	-0.646	-0.231	
13.040	-0.230	-0.252	
13.045	0.282	-0.254	
13.050	-0.499	-0.215	
13.055	-0.476	-0.212	
13.060	0.296	-0.224	
13.065	-0.279	-0.196	
13.070	-0.653	-0.189	
13.075	0.021	-0.222	
13.080	0.011	-0.225	
13.085	-0.621	-0.212	
13.090	-0.200	-0.232	
13.095	0.293	-0.233	
13.100	-0.514	-0.196	
13.105	-0.480	-0.198	
13.110	0.308	-0.216	
13.115	-0.273	-0.192	
13.120	-0.604	-0.183	
13.125	0.201	-0.204	
13.130	0.165	-0.178	
13.135	-0.549	-0.134	
13.140	-0.127	-0.136	
13.145	0.498	-0.126	
13.150	-0.407	-0.076	
13.155	-0.389	-0.071	
13.160	0.506	-0.086	
13.165	-0.165	-0.056	
13.170	-0.529	-0.048	
13.175	0.291	-0.078	
13.180	0.186	-0.067	
13.185	-0.569	-0.045	
13.190	-0.171	-0.078	
13.195	0.378	-0.104	
13.200	-0.489	-0.093	
13.205	-0.465	-0.120	
13.210	0.320	-0.162	
13.215	-0.258	-0.156	
13.220	-0.617	-0.162	
13.225	0.091	-0.200	
13.230	0.027	-0.200	
13.235	-0.627	-0.186	
13.240	-0.213	-0.211	
13.245	0.299	-0.219	
13.250	-0.521	-0.189	
13.255	-0.422	-0.193	
13.260	0.735	-0.189	
13.265	0.227	-0.093	
13.270	-0.085	0.022	
13.275	1.323	0.138	
13.280	1.029	0.336	
13.285	-0.355	0.510	
13.290	-0.151	0.510	
13.295	-0.006	0.385	
13.300	-0.768	0.209	
13.305	-0.698	-0.019	
13.310	0.037	-0.226	
13.315	-0.390	-0.333	
13.320	-0.689	-0.390	
13.325	0.117	-0.423	
13.330	0.056	-0.379	
13.335	-0.614	-0.305	
13.340	-0.153	-0.274	
13.345	0.476	-0.228	
13.350	-0.430	-0.147	
13.355	-0.363	-0.114	
13.360	0.567	-0.104	
13.365	-0.174	-0.052	
13.370	-0.517	-0.031	
13.375	0.372	-0.053	
13.380	0.238	-0.033	
13.385	-0.524	-0.002	
13.390	-0.002	-0.024	
13.395	0.694	-0.023	
13.400	-0.342	0.030	
13.405	-0.262	0.039	
13.410	0.809	0.034	
13.415	-0.023	0.086	
13.420	-0.378	0.114	
13.425	0.716	0.104	
13.430	0.640	0.158	
13.435	-0.276	0.235	
13.440	0.488	0.256	
13.445	1.162	0.305	
13.450	-0.119	0.397	
13.455	-0.035	0.410	
13.460	1.142	0.385	
13.465	0.140	0.411	
13.470	-0.332	0.399	
13.475	0.681	0.326	
13.480	0.465	0.299	
13.485	-0.453	0.284	
13.490	0.000	0.204	
13.495	0.497	0.129	
13.500	-0.489	0.092	
13.505	-0.442	0.014	
13.510	0.340	-0.075	
13.515	-0.328	-0.109	
13.520	-0.656	-0.150	
13.525	0.070	-0.215	
13.530	-0.075	-0.235	
13.535	-0.700	-0.237	
13.540	-0.223	-0.273	
13.545	0.253	-0.281	
13.550	-0.544	-0.245	
13.555	-0.467	-0.243	
13.560	0.293	-0.251	
13.565	-0.337	-0.219	
13.570	-0.624	-0.209	
13.575	0.189	-0.230	
13.580	0.047	-0.207	
13.585	-0.598	-0.172	
13.590	-0.128	-0.182	
13.595	0.369	-0.176	
13.600	-0.520	-0.136	
13.605	-0.436	-0.142	
13.610	0.367	-0.167	
13.615	-0.288	-0.147	
13.620	-0.578	-0.147	
13.625	0.245	-0.175	
13.630	0.078	-0.157	
13.635	-0.575	-0.127	
13.640	-0.073	-0.142	
13.645	0.460	-0.135	
13.650	-0.450	-0.088	
13.655	-0.334	-0.085	
13.660	0.596	-0.091	
13.665	-0.204	-0.048	
13.670	-0.499	-0.032	
13.675	0.444	-0.053	
13.680	0.238	-0.025	
13.685	-0.521	0.012	
13.690	-0.011	-0.010	
13.695	0.590	-0.016	
13.700	-0.406	0.018	
13.705	-0.300	0.008	
13.710	0.651	-0.015	
13.715	-0.197	0.014	
13.720	-0.512	0.014	
13.725	0.425	-0.026	
13.730	0.230	-0.014	
13.735	-0.505	0.012	
13.740	0.040	-0.012	
13.745	0.582	-0.014	
13.750	-0.419	0.024	
13.755	-0.297	0.012	
13.760	0.645	-0.013	
13.765	-0.177	0.015	
13.770	-0.470	0.018	
13.775	0.486	-0.013	
13.780	0.226	0.007	
13.785	-0.523	0.035	
13.790	0.033	0.006	
13.795	0.648	-0.000	
13.800	-0.383	0.040	
13.805	-0.268	0.035	
13.810	0.751	0.018	
13.815	-0.111	0.058	
13.820	-0.424	0.072	
13.825	0.581	0.048	
13.830	0.357	0.078	
13.835	-0.451	0.117	
13.840	0.160	0.097	
13.845	0.730	0.097	
13.850	-0.337	0.138	
13.855	-0.218	0.125	
13.860	0.747	0.095	
13.865	-0.171	0.113	
13.870	-0.489	0.098	
13.875	0.412	0.038	
13.880	0.154	0.024	
13.885	-0.552	0.020	
13.890	-0.040	-0.031	
13.895	0.472	-0.058	
13.900	-0.483	-0.041	
13.905	-0.345	-0.064	
13.910	0.537	-0.092	
13.915	-0.250	-0.067	
13.920	-0.535	-0.066	
13.925	0.338	-0.098	
13.930	0.096	-0.085	
13.935	-0.566	-0.064	
13.940	0.046	-0.088	
13.945	0.861	-0.066	
13.950	-0.079	0.035	
13.955	0.431	0.131	
13.960	1.602	0.264	
13.965	0.335	0.464	
13.970	-0.374	0.564	
13.975	0.192	0.499	
13.980	-0.246	0.364	
13.985	-0.877	0.177	
13.990	-0.348	-0.057	
13.995	0.072	-0.230	
14.000	-0.601	-0.310	
14.005	-0.404	-0.363	
14.010	0.463	-0.366	
14.015	-0.285	-0.288	
14.020	-0.540	-0.227	
14.025	0.402	-0.199	
14.030	0.172	-0.129	
14.035	-0.528	-0.060	
14.040	0.043	-0.054	
14.045	0.579	-0.035	
14.050	-0.441	0.016	
14.055	-0.274	0.012	
14.060	0.713	-0.005	
14.065	-0.183	0.032	
14.070	-0.450	0.040	
14.075	0.602	0.014	
14.080	0.328	0.049	
14.085	-0.453	0.094	
14.090	0.207	0.082	
14.095	0.780	0.095	
14.100	-0.297	0.152	
14.105	-0.099	0.156	
14.110	1.064	0.155	
14.115	0.079	0.223	
14.120	-0.236	0.261	
14.125	1.012	0.260	
14.130	0.736	0.328	
14.135	-0.244	0.404	
14.140	0.623	0.407	
14.145	1.098	0.431	
14.150	-0.212	0.483	
14.155	-0.075	0.447	
14.160	0.962	0.375	
14.165	-0.116	0.350	
14.170	-0.445	0.286	
14.175	0.468	0.177	
14.180	0.073	0.117	
14.185	-0.605	0.066	
14.190	-0.081	-0.027	
14.195	0.357	-0.087	
14.200	-0.566	-0.097	
14.205	-0.433	-0.140	
14.210	0.290	-0.188	
14.215	-0.404	-0.189	
14.220	-0.657	-0.209	
14.225	0.142	-0.253	
14.230	-0.105	-0.250	
14.235	-0.700	-0.238	
14.240	-0.159	-0.265	
14.245	0.232	-0.265	
14.250	-0.598	-0.230	
14.255	-0.428	-0.235	
14.260	0.357	-0.244	
14.265	-0.361	-0.207	
14.270	-0.608	-0.196	
14.275	0.229	-0.216	
14.280	-0.050	-0.196	
14.285	-0.639	-0.173	
14.290	-0.104	-0.196	
14.295	0.325	-0.195	
14.300	-0.537	-0.158	
14.305	-0.339	-0.161	
14.310	0.562	-0.163	
14.315	-0.294	-0.111	
14.320	-0.544	-0.091	
14.325	0.364	-0.112	
14.330	0.003	-0.093	
14.335	-0.605	-0.077	
14.340	-0.002	-0.111	
14.345	0.468	-0.113	
14.350	-0.494	-0.074	
14.355	-0.322	-0.079	
14.360	0.552	-0.094	
14.365	-0.285	-0.061	
14.370	-0.524	-0.059	
14.375	0.436	-0.088	
14.380	0.090	-0.066	
14.385	-0.563	-0.041	
14.390	0.059	-0.066	
14.395	0.541	-0.061	
14.400	-0.468	-0.017	
14.405	-0.300	-0.024	
14.410	0.564	-0.046	
14.415	-0.291	-0.024	
14.420	-0.509	-0.033	
14.425	0.471	-0.070	
14.430	0.126	-0.049	
14.435	-0.541	-0.022	
14.440	0.108	-0.043	
14.445	0.567	-0.035	
14.450	-0.435	0.013	
14.455	-0.204	0.011	
14.460	0.835	0.007	
14.465	-0.159	0.065	
14.470	-0.389	0.087	
14.475	0.712	0.071	
14.480	0.309	0.113	
14.485	-0.457	0.152	
14.490	0.280	0.129	
14.495	0.739	0.132	
14.500	-0.383	0.173	
14.505	-0.210	0.150	
14.510	0.751	0.109	
14.515	-0.226	0.118	
14.520	-0.496	0.091	
14.525	0.448	0.026	
14.530	0.026	0.009	
14.535	-0.599	-0.006	
14.540	0.003	-0.066	
14.545	0.427	-0.091	
14.550	-0.523	-0.071	
14.555	-0.317	-0.091	
14.560	0.575	-0.111	
14.565	-0.300	-0.076	
14.570	-0.553	-0.072	
14.575	0.328	-0.106	
14.580	0.000	-0.098	
14.585	-0.523	-0.086	
14.590	0.526	-0.088	
14.595	1.340	0.014	
14.600	0.161	0.217	
14.605	0.530	0.377	
14.610	1.316	0.504	
14.615	-0.168	0.611	
14.620	-0.613	0.568	
14.625	-0.018	0.377	
14.630	-0.265	0.171	
14.635	-0.741	-0.021	
14.640	-0.089	-0.196	
14.645	0.407	-0.270	
14.650	-0.517	-0.247	
14.655	-0.279	-0.232	
14.660	0.729	-0.197	
14.665	-0.224	-0.100	
14.670	-0.441	-0.041	
14.675	0.634	-0.026	
14.680	0.180	0.032	
14.685	-0.529	0.077	
14.690	0.187	0.052	
14.695	0.630	0.053	
14.700	-0.401	0.091	
14.705	-0.166	0.078	
14.710	0.852	0.062	
14.715	-0.175	0.106	
14.720	-0.390	0.113	
14.725	0.755	0.086	
14.730	0.323	0.124	
14.735	-0.409	0.165	
14.740	0.479	0.154	
14.745	0.921	0.188	
14.750	-0.277	0.264	
14.755	0.043	0.272	
14.760	1.215	0.273	
14.765	0.111	0.342	
14.770	-0.172	0.371	
14.775	1.131	0.359	
14.780	0.683	0.414	
14.785	-0.273	0.468	
14.790	0.658	0.444	
14.795	1.003	0.445	
14.800	-0.299	0.473	
14.805	-0.108	0.413	
14.810	0.844	0.322	
14.815	-0.261	0.279	
14.820	-0.528	0.197	
14.825	0.343	0.075	
14.830	-0.120	0.003	
14.835	-0.712	-0.061	
14.840	-0.136	-0.159	
14.845	0.155	-0.216	
14.850	-0.663	-0.226	
14.855	-0.454	-0.265	
14.860	0.216	-0.298	
14.865	-0.515	-0.283	
14.870	-0.700	-0.294	
14.875	0.123	-0.328	
14.880	-0.201	-0.314	
14.885	-0.743	-0.296	
14.890	-0.159	-0.318	
14.895	0.152	-0.312	
14.900	-0.650	-0.275	
14.905	-0.412	-0.277	
14.910	0.343	-0.280	
14.915	-0.454	-0.238	
14.920	-0.637	-0.229	
14.925	0.233	-0.251	
14.930	-0.140	-0.230	
14.935	-0.686	-0.211	
14.940	-0.072	-0.236	
14.945	0.293	-0.229	
14.950	-0.590	-0.187	
14.955	-0.337	-0.189	
14.960	0.479	-0.191	
14.965	-0.393	-0.146	
14.970	-0.569	-0.138	
14.975	0.398	-0.160	
14.980	-0.061	-0.134	
14.985	-0.630	-0.113	
14.990	0.014	-0.142	
14.995	0.348	-0.142	
15.000	-0.575	-0.109	
15.005	-0.323	-0.125	
15.010	0.515	-0.142	
15.015	-0.369	-0.109	
15.020	-0.557	-0.108	
15.025	0.434	-0.136	
15.030	-0.044	-0.113	
15.035	-0.628	-0.093	
15.040	0.072	-0.123	
15.045	0.450	-0.117	
15.050	-0.526	-0.072	
15.055	-0.273	-0.077	
15.060	0.601	-0.087	
15.065	-0.340	-0.048	
15.070	-0.528	-0.049	
15.075	0.471	-0.082	
15.080	-0.015	-0.065	
15.085	-0.595	-0.052	
15.090	0.102	-0.087	
15.095	0.465	-0.084	
15.100	-0.523	-0.044	
15.105	-0.264	-0.055	
15.110	0.665	-0.068	
15.115	-0.296	-0.027	
15.120	-0.476	-0.020	
15.125	0.576	-0.044	
15.130	0.073	-0.013	
15.135	-0.550	0.013	
15.140	0.232	-0.014	
15.145	0.544	-0.003	
15.150	-0.488	0.041	
15.155	-0.229	0.025	
15.160	0.730	0.002	
15.165	-0.258	0.036	
15.170	-0.412	0.036	
15.175	0.741	0.014	
15.180	0.204	0.060	
15.185	-0.476	0.102	
15.190	0.436	0.090	
15.195	0.780	0.121	
15.200	-0.366	0.190	
15.205	-0.076	0.187	
15.210	0.962	0.172	
15.215	-0.166	0.210	
15.220	-0.342	0.203	
15.225	0.826	0.162	
15.230	0.242	0.183	
15.235	-0.492	0.197	
15.240	0.323	0.149	
15.245	0.601	0.132	
15.250	-0.459	0.149	
15.255	-0.177	0.107	
15.260	0.768	0.064	
15.265	-0.270	0.082	
15.270	-0.436	0.066	
15.275	0.652	0.023	
15.280	0.119	0.043	
15.285	-0.535	0.062	
15.290	0.226	0.026	
15.295	0.550	0.025	
15.300	-0.428	0.061	
15.305	0.065	0.057	
15.310	1.483	0.099	
15.315	0.593	0.268	
15.320	0.367	0.442	
15.325	1.550	0.579	
15.330	0.514	0.723	
15.335	-0.553	0.754	
15.340	-0.140	0.596	
15.345	-0.032	0.369	
15.350	-0.709	0.146	
15.355	-0.370	-0.074	
15.360	0.517	-0.211	
15.365	-0.351	-0.226	
15.370	-0.468	-0.221	
15.375	0.594	-0.210	
15.380	0.052	-0.130	
15.385	-0.532	-0.059	
15.390	0.317	-0.046	
15.395	0.590	0.002	
15.400	-0.459	0.072	
15.405	-0.131	0.073	
15.410	0.844	0.065	
15.415	-0.232	0.110	
15.420	-0.375	0.113	
15.425	0.761	0.083	
15.430	0.194	0.115	
15.435	-0.456	0.141	
15.440	0.431	0.115	
15.445	0.732	0.133	
15.450	-0.367	0.188	
15.455	0.024	0.181	
15.460	1.093	0.180	
15.465	-0.082	0.245	
15.470	-0.223	0.264	
15.475	1.152	0.253	
15.480	0.622	0.326	
15.485	-0.229	0.402	
15.490	0.945	0.416	
15.495	1.203	0.478	
15.500	-0.148	0.569	
15.505	0.405	0.569	
15.510	1.361	0.557	
15.515	0.009	0.593	
15.520	-0.232	0.555	
15.525	0.948	0.456	
15.530	0.233	0.411	
15.535	-0.479	0.356	
15.540	0.291	0.243	
15.545	0.425	0.167	
15.550	-0.563	0.126	
15.555	-0.281	0.037	
15.560	0.460	-0.044	
15.565	-0.476	-0.068	
15.570	-0.622	-0.119	
15.575	0.223	-0.191	
15.580	-0.239	-0.210	
15.585	-0.723	-0.226	
15.590	-0.063	-0.273	
15.595	0.142	-0.278	
15.600	-0.656	-0.249	
15.605	-0.340	-0.259	
15.610	0.381	-0.260	
15.615	-0.477	-0.215	
15.620	-0.573	-0.206	
15.625	0.346	-0.223	
15.630	-0.160	-0.192	
15.635	-0.643	-0.169	
15.640	0.108	-0.189	
15.645	0.320	-0.169	
15.650	-0.573	-0.120	
15.655	-0.244	-0.123	
15.660	0.601	-0.123	
15.665	-0.364	-0.073	
15.670	-0.485	-0.063	
15.675	0.530	-0.084	
15.680	-0.055	-0.054	
15.685	-0.553	-0.036	
15.690	0.279	-0.061	
15.695	0.468	-0.040	
15.700	-0.514	0.010	
15.705	-0.156	-0.001	
15.710	0.709	-0.011	
15.715	-0.346	0.028	
15.720	-0.448	0.023	
15.725	0.634	-0.013	
15.730	-0.012	0.010	
15.735	-0.555	0.021	
15.740	0.309	-0.014	
15.745	0.515	-0.003	
15.750	-0.506	0.042	
15.755	-0.151	0.027	
15.760	0.745	0.011	
15.765	-0.345	0.047	
15.770	-0.441	0.039	
15.775	0.630	-0.000	
15.780	-0.024	0.017	
15.785	-0.544	0.024	
15.790	0.319	-0.013	
15.795	0.500	-0.002	
15.800	-0.499	0.042	
15.805	-0.148	0.026	
15.810	0.770	0.012	
15.815	-0.310	0.053	
15.820	-0.413	0.051	
15.825	0.701	0.021	
15.830	0.018	0.049	
15.835	-0.526	0.063	
15.840	0.381	0.028	
15.845	0.540	0.042	
15.850	-0.471	0.086	
15.855	-0.119	0.068	
15.860	0.761	0.049	
15.865	-0.310	0.081	
15.870	-0.393	0.070	
15.875	0.704	0.034	
15.880	-0.011	0.056	
15.885	-0.518	0.064	
15.890	0.401	0.027	
15.895	0.556	0.042	
15.900	-0.454	0.091	
15.905	-0.034	0.080	
15.910	0.927	0.079	
15.915	-0.235	0.137	
15.920	-0.329	0.146	
15.925	0.846	0.121	
15.930	0.184	0.158	
15.935	-0.412	0.184	
15.940	0.610	0.162	
15.945	0.774	0.194	
15.950	-0.349	0.257	
15.955	0.105	0.249	
15.960	0.963	0.237	
15.965	-0.236	0.271	
15.970	-0.303	0.246	
15.975	0.861	0.189	
15.980	0.101	0.196	
15.985	-0.477	0.191	
15.990	0.457	0.134	
15.995	0.573	0.129	
16.000	-0.462	0.155	
16.005	-0.073	0.119	
16.010	0.800	0.089	
16.015	-0.311	0.114	
16.020	-0.413	0.094	
16.025	0.573	0.041	
16.030	-0.102	0.036	
16.035	-0.560	0.019	
16.040	0.448	-0.029	
16.045	0.861	0.008	
16.050	-0.089	0.121	
16.055	0.919	0.228	
16.060	1.802	0.402	
16.065	0.210	0.632	
16.070	-0.207	0.722	
16.075	0.549	0.648	
16.080	-0.300	0.520	
16.085	-0.791	0.322	
16.090	-0.098	0.074	
16.095	0.088	-0.103	
16.100	-0.621	-0.196	
16.105	-0.186	-0.268	
16.110	0.686	-0.267	
16.115	-0.337	-0.179	
16.120	-0.367	-0.119	
16.125	0.771	-0.081	
16.130	0.046	0.009	
16.135	-0.471	0.069	
16.140	0.509	0.068	
16.145	0.617	0.109	
16.150	-0.424	0.170	
16.155	0.021	0.159	
16.160	0.948	0.150	
16.165	-0.217	0.197	
16.170	-0.261	0.195	
16.175	0.969	0.169	
16.180	0.239	0.213	
16.185	-0.372	0.245	
16.190	0.726	0.226	
16.195	0.834	0.263	
16.200	-0.308	0.329	
16.205	0.293	0.324	
16.210	1.221	0.331	
16.215	-0.043	0.398	
16.220	-0.066	0.406	
16.225	1.332	0.389	
16.230	0.593	0.456	
16.235	-0.197	0.512	
16.240	1.032	0.502	
16.245	1.081	0.540	
16.250	-0.200	0.597	
16.255	0.445	0.567	
16.260	1.223	0.536	
16.265	-0.149	0.548	
16.270	-0.238	0.485	
16.275	0.864	0.375	
16.280	-0.049	0.318	
16.285	-0.544	0.242	
16.290	0.320	0.122	
16.295	0.335	0.061	
16.300	-0.570	0.038	
16.305	-0.185	-0.025	
16.310	0.503	-0.072	
16.315	-0.465	-0.065	
16.320	-0.497	-0.093	
16.325	0.442	-0.136	
16.330	-0.204	-0.124	
16.335	-0.627	-0.122	
16.340	0.189	-0.157	
16.345	0.232	-0.147	
16.350	-0.599	-0.112	
16.355	-0.172	-0.126	
16.360	0.558	-0.128	
16.365	-0.418	-0.081	
16.370	-0.428	-0.076	
16.375	0.553	-0.092	
16.380	-0.157	-0.059	
16.385	-0.572	-0.048	
16.390	0.340	-0.077	
16.395	0.360	-0.056	
16.400	-0.526	-0.011	
16.405	-0.099	-0.023	
16.410	0.674	-0.027	
16.415	-0.374	0.016	
16.420	-0.383	0.014	
16.425	0.636	-0.014	
16.430	-0.114	0.011	
16.435	-0.547	0.015	
16.440	0.357	-0.025	
16.445	0.366	-0.016	
16.450	-0.535	0.017	
16.455	-0.085	-0.006	
16.460	0.669	-0.018	
16.465	-0.390	0.019	
16.470	-0.381	0.011	
16.475	0.675	-0.017	
16.480	-0.089	0.013	
16.485	-0.521	0.024	
16.490	0.413	-0.008	
16.495	0.436	0.012	
16.500	-0.492	0.056	
16.505	-0.034	0.041	
16.510	0.758	0.035	
16.515	-0.331	0.078	
16.520	-0.340	0.074	
16.525	0.729	0.045	
16.530	-0.067	0.071	
16.535	-0.488	0.076	
16.540	0.474	0.038	
16.545	0.471	0.055	
16.550	-0.464	0.097	
16.555	0.021	0.080	
16.560	0.787	0.074	
16.565	-0.322	0.116	
16.570	-0.322	0.107	
16.575	0.748	0.073	
16.580	-0.060	0.094	
16.585	-0.464	0.095	
16.590	0.567	0.058	
16.595	0.547	0.086	
16.600	-0.407	0.141	
16.605	0.130	0.136	
16.610	0.869	0.142	
16.615	-0.277	0.192	
16.620	-0.279	0.183	
16.625	0.806	0.143	
16.630	-0.040	0.157	
16.635	-0.508	0.145	
16.640	0.311	0.078	
16.645	0.212	0.046	
16.650	-0.602	0.027	
16.655	-0.198	-0.042	
16.660	0.437	-0.094	
16.665	-0.488	-0.093	
16.670	-0.488	-0.123	
16.675	0.389	-0.165	
16.680	-0.268	-0.154	
16.685	-0.639	-0.156	
16.690	0.126	-0.194	
16.695	0.093	-0.191	
16.700	-0.619	-0.168	
16.705	-0.104	-0.183	
16.710	0.893	-0.154	
16.715	-0.070	-0.037	
16.720	0.251	0.074	
16.725	1.573	0.207	
16.730	0.424	0.411	
16.735	-0.448	0.526	
16.740	0.049	0.466	
16.745	-0.233	0.324	
16.750	-0.895	0.133	
16.755	-0.445	-0.099	
16.760	0.061	-0.274	
16.765	-0.628	-0.354	
16.770	-0.544	-0.408	
16.775	0.349	-0.422	
16.780	-0.290	-0.358	
16.785	-0.653	-0.301	
16.790	0.166	-0.283	
16.795	0.101	-0.232	
16.800	-0.627	-0.176	
16.805	-0.149	-0.176	
16.810	0.556	-0.161	
16.815	-0.438	-0.099	
16.820	-0.383	-0.083	
16.825	0.575	-0.089	
16.830	-0.220	-0.050	
16.835	-0.579	-0.042	
16.840	0.370	-0.077	
16.845	0.323	-0.058	
16.850	-0.524	-0.015	
16.855	-0.005	-0.025	
16.860	0.724	-0.016	
16.865	-0.369	0.041	
16.870	-0.299	0.047	
16.875	0.849	0.035	
16.880	0.017	0.089	
16.885	-0.372	0.122	
16.890	0.814	0.120	
16.895	0.761	0.190	
16.900	-0.299	0.283	
16.905	0.405	0.303	
16.910	1.059	0.329	
16.915	-0.220	0.388	
16.920	-0.183	0.365	
16.925	0.927	0.302	
16.930	-0.056	0.290	
16.935	-0.503	0.245	
16.940	0.392	0.147	
16.945	0.171	0.092	
16.950	-0.622	0.053	
16.955	-0.171	-0.033	
16.960	0.415	-0.095	
16.965	-0.540	-0.102	
16.970	-0.494	-0.140	
16.975	0.366	-0.187	
16.980	-0.317	-0.179	
16.985	-0.662	-0.185	
16.990	0.151	-0.222	
16.995	0.032	-0.215	
17.000	-0.656	-0.192	
17.005	-0.168	-0.212	
17.010	0.477	-0.206	
17.015	-0.489	-0.152	
17.020	-0.419	-0.140	
17.025	0.537	-0.144	
17.030	-0.239	-0.101	
17.035	-0.576	-0.085	
17.040	0.367	-0.109	
17.045	0.259	-0.081	
17.050	-0.563	-0.038	
17.055	-0.058	-0.052	
17.060	0.630	-0.052	
17.065	-0.419	-0.006	
17.070	-0.355	-0.008	
17.075	0.648	-0.030	
17.080	-0.171	0.000	
17.085	-0.492	0.006	
17.090	0.546	-0.020	
17.095	0.390	0.017	
17.100	-0.488	0.070	
17.105	0.093	0.061	
17.110	0.742	0.065	
17.115	-0.381	0.111	
17.120	-0.306	0.097	
17.125	0.756	0.062	
17.130	-0.125	0.083	
17.135	-0.488	0.079	
17.140	0.527	0.036	
17.145	0.337	0.050	
17.150	-0.518	0.079	
17.155	0.081	0.050	
17.160	0.777	0.046	
17.165	-0.364	0.094	
17.170	-0.276	0.090	
17.175	0.784	0.065	
17.180	-0.140	0.094	
17.185	-0.499	0.091	
17.190	0.508	0.044	
17.195	0.297	0.050	
17.200	-0.532	0.070	
17.205	0.052	0.034	
17.210	0.722	0.024	
17.215	-0.387	0.065	
17.220	-0.284	0.058	
17.225	0.826	0.038	
17.230	-0.090	0.080	
17.235	-0.436	0.096	
17.240	0.660	0.072	
17.245	0.508	0.111	
17.250	-0.421	0.168	
17.255	0.288	0.162	
17.260	0.945	0.181	
17.265	-0.282	0.244	
17.270	-0.186	0.239	
17.275	0.908	0.204	
17.280	-0.075	0.221	
17.285	-0.453	0.203	
17.290	0.517	0.135	
17.295	0.242	0.115	
17.300	-0.572	0.103	
17.305	-0.046	0.035	
17.310	0.543	-0.011	
17.315	-0.480	-0.005	
17.320	-0.378	-0.038	
17.325	0.558	-0.079	
17.330	-0.271	-0.063	
17.335	-0.590	-0.070	
17.340	0.326	-0.112	
17.345	0.088	-0.106	
17.350	-0.628	-0.088	
17.355	-0.041	-0.120	
17.360	0.790	-0.109	
17.365	-0.172	-0.021	
17.370	0.332	0.062	
17.375	1.668	0.191	
17.380	0.424	0.408	
17.385	-0.392	0.537	
17.390	0.203	0.495	
17.395	-0.274	0.370	
17.400	-0.938	0.182	
17.405	-0.428	-0.064	
17.410	-0.027	-0.257	
17.415	-0.695	-0.359	
17.420	-0.535	-0.433	
17.425	0.311	-0.456	
17.430	-0.349	-0.396	
17.435	-0.619	-0.340	
17.440	0.370	-0.305	
17.445	0.184	-0.218	
17.450	-0.572	-0.127	
17.455	0.030	-0.102	
17.460	0.655	-0.064	
17.465	-0.442	0.008	
17.470	-0.285	0.018	
17.475	0.834	0.012	
17.480	-0.136	0.064	
17.485	-0.454	0.083	
17.490	0.649	0.058	
17.495	0.413	0.094	
17.500	-0.438	0.142	
17.505	0.335	0.133	
17.510	0.960	0.160	
17.515	-0.252	0.236	
17.520	-0.044	0.249	
17.525	1.242	0.251	
17.530	0.230	0.329	
17.535	-0.226	0.374	
17.540	1.197	0.373	
17.545	1.005	0.450	
17.550	-0.157	0.545	
17.555	0.843	0.562	
17.560	1.370	0.601	
17.565	-0.096	0.670	
17.570	0.073	0.638	
17.575	1.181	0.561	
17.580	0.012	0.533	
17.585	-0.399	0.458	
17.590	0.617	0.329	
17.595	0.186	0.252	
17.600	-0.601	0.185	
17.605	-0.056	0.069	
17.610	0.399	-0.016	
17.615	-0.592	-0.047	
17.620	-0.448	-0.111	
17.625	0.402	-0.172	
17.630	-0.389	-0.172	
17.635	-0.665	-0.188	
17.640	0.200	-0.231	
17.645	-0.087	-0.226	
17.650	-0.714	-0.214	
17.655	-0.157	-0.245	
17.660	0.306	-0.249	
17.665	-0.596	-0.211	
17.670	-0.424	-0.214	
17.675	0.450	-0.222	
17.680	-0.352	-0.179	
17.685	-0.625	-0.166	
17.690	0.242	-0.191	
17.695	-0.058	-0.178	
17.700	-0.660	-0.163	
17.705	-0.067	-0.192	
17.710	0.445	-0.187	
17.715	-0.531	-0.137	
17.720	-0.349	-0.131	
17.725	0.623	-0.132	
17.730	-0.277	-0.080	
17.735	-0.547	-0.061	
17.740	0.463	-0.083	
17.745	0.105	-0.056	
17.750	-0.587	-0.028	
17.755	0.081	-0.055	
17.760	0.608	-0.050	
17.765	-0.451	0.001	
17.770	-0.277	-0.000	
17.775	0.736	-0.014	
17.780	-0.239	0.027	
17.785	-0.518	0.029	
17.790	0.530	-0.009	
17.795	0.190	0.007	
17.800	-0.552	0.031	
17.805	0.107	-0.001	
17.810	0.578	-0.005	
17.815	-0.479	0.030	
17.820	-0.300	0.010	
17.825	0.692	-0.019	
17.830	-0.229	0.009	
17.835	-0.489	0.010	
17.840	0.544	-0.022	
17.845	0.190	0.002	
17.850	-0.543	0.032	
17.855	0.161	0.006	
17.860	0.640	0.012	
17.865	-0.444	0.059	
17.870	-0.241	0.048	
17.875	0.838	0.030	
17.880	-0.174	0.074	
17.885	-0.425	0.085	
17.890	0.736	0.061	
17.895	0.384	0.104	
17.900	-0.447	0.155	
17.905	0.370	0.145	
17.910	0.877	0.167	
17.915	-0.334	0.230	
17.920	-0.134	0.222	
17.925	0.968	0.194	
17.930	-0.137	0.221	
17.935	-0.393	0.207	
17.940	0.745	0.154	
17.945	0.253	0.162	
17.950	-0.544	0.168	
17.955	0.184	0.111	
17.960	0.611	0.082	
17.965	-0.503	0.094	
17.970	-0.293	0.051	
17.975	0.669	0.001	
17.980	-0.311	0.010	
17.985	-0.537	-0.010	
17.990	0.500	-0.059	
17.995	0.021	-0.049	
18.000	-0.646	-0.041	
18.005	-0.021	-0.088	
18.010	0.451	-0.107	
18.015	-0.442	-0.076	
18.020	0.041	-0.065	
18.025	1.534	0.007	
18.030	0.468	0.206	
18.035	-0.122	0.374	
18.040	0.883	0.439	
18.045	-0.069	0.462	
18.050	-0.883	0.382	
18.055	-0.395	0.169	
18.060	-0.151	-0.051	
18.065	-0.793	-0.218	
18.070	-0.499	-0.363	
18.075	0.375	-0.433	
18.080	-0.416	-0.395	
18.085	-0.590	-0.352	
18.090	0.441	-0.319	
18.095	0.029	-0.229	
18.100	-0.599	-0.147	
18.105	0.125	-0.128	
18.110	0.562	-0.085	
18.115	-0.494	-0.013	
18.120	-0.241	-0.006	
18.125	0.777	-0.011	
18.130	-0.249	0.038	
18.135	-0.456	0.047	
18.140	0.665	0.020	
18.145	0.184	0.052	
18.150	-0.499	0.082	
18.155	0.387	0.063	
18.160	0.797	0.091	
18.165	-0.357	0.163	
18.170	-0.050	0.170	
18.175	1.082	0.171	
18.180	-0.043	0.235	
18.185	-0.246	0.258	
18.190	1.169	0.251	
18.195	0.753	0.333	
18.200	-0.213	0.425	
18.205	0.910	0.449	
18.210	1.303	0.512	
18.215	-0.137	0.605	
18.220	0.300	0.600	
18.225	1.332	0.570	
18.230	0.027	0.588	
18.235	-0.258	0.540	
18.240	0.980	0.440	
18.245	0.390	0.406	
18.250	-0.457	0.374	
18.255	0.331	0.281	
18.260	0.613	0.221	
18.265	-0.515	0.198	
18.270	-0.281	0.119	
18.275	0.607	0.036	
18.280	-0.355	0.015	
18.285	-0.532	-0.027	
18.290	0.485	-0.086	
18.295	-0.034	-0.081	
18.300	-0.613	-0.072	
18.305	0.105	-0.108	
18.310	0.451	-0.103	
18.315	-0.531	-0.060	
18.320	-0.255	-0.067	
18.325	0.625	-0.078	
18.330	-0.335	-0.038	
18.335	-0.489	-0.036	
18.340	0.573	-0.063	
18.345	0.059	-0.031	
18.350	-0.535	-0.003	
18.355	0.277	-0.022	
18.360	0.552	-0.001	
18.365	-0.483	0.051	
18.370	-0.178	0.040	
18.375	0.788	0.024	
18.380	-0.235	0.066	
18.385	-0.358	0.072	
18.390	0.878	0.059	
18.395	0.334	0.121	
18.400	-0.419	0.181	
18.405	0.503	0.178	
18.410	0.791	0.206	
18.415	-0.363	0.262	
18.420	-0.043	0.242	
18.425	1.005	0.213	
18.430	-0.166	0.243	
18.435	-0.340	0.228	
18.440	0.877	0.180	
18.445	0.319	0.203	
18.450	-0.427	0.227	
18.455	0.488	0.195	
18.460	0.747	0.203	
18.465	-0.374	0.243	
18.470	-0.034	0.217	
18.475	0.957	0.188	
18.480	-0.169	0.218	
18.485	-0.320	0.206	
18.490	0.916	0.167	
18.495	0.390	0.205	
18.500	-0.393	0.246	
18.505	0.575	0.229	
18.510	0.838	0.252	
18.515	-0.355	0.304	
18.520	-0.046	0.277	
18.525	0.965	0.237	
18.530	-0.172	0.252	
18.535	-0.314	0.228	
18.540	0.934	0.179	
18.545	0.343	0.210	
18.550	-0.427	0.242	
18.555	0.520	0.213	
18.560	0.846	0.227	
18.565	-0.317	0.279	
18.570	0.131	0.269	
18.575	1.188	0.267	
18.580	-0.055	0.330	
18.585	-0.223	0.339	
18.590	1.041	0.306	
18.595	0.421	0.339	
18.600	-0.361	0.362	
18.605	0.620	0.322	
18.610	0.817	0.321	
18.615	-0.372	0.348	
18.620	-0.021	0.299	
18.625	0.982	0.246	
18.630	-0.197	0.255	
18.635	-0.329	0.225	
18.640	0.893	0.170	
18.645	0.273	0.191	
18.650	-0.419	0.214	
18.655	0.529	0.183	
18.660	0.694	0.196	
18.665	-0.399	0.236	
18.670	0.126	0.213	
18.675	1.407	0.221	
18.680	0.441	0.340	
18.685	0.491	0.464	
18.690	1.948	0.595	
18.695	1.017	0.799	
18.700	-0.288	0.922	
18.705	0.325	0.848	
18.710	0.189	0.680	
18.715	-0.718	0.472	
18.720	-0.358	0.208	
18.725	0.477	-0.004	
18.730	-0.392	-0.099	
18.735	-0.453	-0.162	
18.740	0.684	-0.191	
18.745	0.068	-0.125	
18.750	-0.491	-0.054	
18.755	0.410	-0.033	
18.760	0.614	0.028	
18.765	-0.435	0.108	
18.770	-0.031	0.114	
18.775	0.944	0.117	
18.780	-0.212	0.172	
18.785	-0.314	0.177	
18.790	0.864	0.148	
18.795	0.232	0.183	
18.800	-0.412	0.208	
18.805	0.553	0.180	
18.810	0.733	0.199	
18.815	-0.364	0.248	
18.820	0.096	0.231	
18.825	1.049	0.220	
18.830	-0.143	0.269	
18.835	-0.210	0.269	
18.840	1.137	0.246	
18.845	0.463	0.305	
18.850	-0.288	0.360	
18.855	0.884	0.356	
18.860	1.055	0.406	
18.865	-0.204	0.484	
18.870	0.378	0.480	
18.875	1.291	0.475	
18.880	-0.078	0.517	
18.885	-0.249	0.484	
18.890	0.902	0.393	
18.895	0.128	0.354	
18.900	-0.494	0.300	
18.905	0.332	0.193	
18.910	0.373	0.131	
18.915	-0.595	0.098	
18.920	-0.271	0.014	
18.925	0.398	-0.064	
18.930	-0.523	-0.091	
18.935	-0.617	-0.146	
18.940	0.204	-0.217	
18.945	-0.293	-0.236	
18.950	-0.782	-0.255	
18.955	-0.119	-0.308	
18.960	-0.029	-0.326	
18.965	-0.730	-0.317	
18.970	-0.366	-0.339	
18.975	0.262	-0.343	
18.980	-0.573	-0.301	
18.985	-0.633	-0.294	
18.990	0.239	-0.311	
18.995	-0.274	-0.281	
19.000	-0.726	-0.263	
19.005	-0.021	-0.286	
19.010	0.091	-0.275	
19.015	-0.675	-0.243	
19.020	-0.300	-0.255	
19.025	0.418	-0.253	
19.030	-0.486	-0.203	
19.035	-0.549	-0.192	
19.040	0.454	-0.203	
19.045	-0.139	-0.161	
19.050	-0.601	-0.130	
19.055	0.209	-0.143	
19.060	0.317	-0.117	
19.065	-0.584	-0.071	
19.070	-0.183	-0.082	
19.075	0.657	-0.087	
19.080	-0.380	-0.038	
19.085	-0.454	-0.033	
19.090	0.549	-0.058	
19.095	-0.114	-0.036	
19.100	-0.581	-0.030	
19.105	0.265	-0.068	
19.110	0.376	-0.060	
19.115	-0.541	-0.022	
19.120	-0.154	-0.039	
19.125	0.625	-0.051	
19.130	-0.389	-0.015	
19.135	-0.442	-0.021	
19.140	0.590	-0.052	
19.145	-0.127	-0.030	
19.150	-0.584	-0.025	
19.155	0.335	-0.062	
19.160	0.436	-0.044	
19.165	-0.535	0.003	
19.170	-0.148	-0.010	
19.175	0.677	-0.022	
19.180	-0.363	0.015	
19.185	-0.389	0.011	
19.190	0.697	-0.014	
19.195	-0.035	0.021	
19.200	-0.515	0.039	
19.205	0.402	0.011	
19.210	0.393	0.026	
19.215	-0.570	0.057	
19.220	-0.186	0.019	
19.225	0.550	-0.021	
19.230	-0.460	-0.016	
19.235	-0.503	-0.051	
19.240	0.415	-0.107	
19.245	-0.217	-0.110	
19.250	-0.643	-0.122	
19.255	0.151	-0.167	
19.260	0.200	-0.165	
19.265	-0.610	-0.137	
19.270	-0.194	-0.153	
19.275	0.544	-0.154	
19.280	-0.457	-0.106	
19.285	-0.480	-0.102	
19.290	0.722	-0.113	
19.295	0.320	-0.039	
19.300	-0.124	0.062	
19.305	1.338	0.166	
19.310	1.235	0.361	
19.315	-0.284	0.553	
19.320	-0.099	0.571	
19.325	0.245	0.464	
19.330	-0.709	0.311	
19.335	-0.735	0.090	
19.340	0.040	-0.133	
19.345	-0.357	-0.266	
19.350	-0.715	-0.346	
19.355	0.117	-0.398	
19.360	0.187	-0.364	
19.365	-0.604	-0.285	
19.370	-0.156	-0.248	
19.375	0.627	-0.197	
19.380	-0.409	-0.104	
19.385	-0.419	-0.067	
19.390	0.640	-0.065	
19.395	-0.120	-0.017	
19.400	-0.555	0.002	
19.405	0.363	-0.029	
19.410	0.369	-0.014	
19.415	-0.540	0.022	
19.420	-0.099	-0.002	
19.425	0.686	-0.016	
19.430	-0.395	0.021	
19.435	-0.380	0.013	
19.440	0.751	-0.012	
19.445	-0.050	0.027	
19.450	-0.499	0.049	
19.455	0.555	0.027	
19.460	0.655	0.070	
19.465	-0.364	0.148	
19.470	0.300	0.169	
19.475	1.160	0.213	
19.480	-0.131	0.310	
19.485	-0.117	0.336	
19.490	1.198	0.326	
19.495	0.320	0.380	
19.500	-0.335	0.406	
19.505	0.771	0.363	
19.510	0.648	0.361	
19.515	-0.453	0.368	
19.520	-0.023	0.290	
19.525	0.669	0.206	
19.530	-0.435	0.168	
19.535	-0.459	0.087	
19.540	0.453	-0.010	
19.545	-0.273	-0.048	
19.550	-0.697	-0.094	
19.555	0.064	-0.173	
19.560	0.035	-0.205	
19.565	-0.709	-0.209	
19.570	-0.294	-0.250	
19.575	0.312	-0.270	
19.580	-0.570	-0.240	
19.585	-0.550	-0.245	
19.590	0.334	-0.264	
19.595	-0.322	-0.234	
19.600	-0.698	-0.223	
19.605	0.090	-0.251	
19.610	0.049	-0.240	
19.615	-0.671	-0.213	
19.620	-0.209	-0.230	
19.625	0.472	-0.224	
19.630	-0.489	-0.168	
19.635	-0.465	-0.155	
19.640	0.518	-0.161	
19.645	-0.218	-0.118	
19.650	-0.619	-0.100	
19.655	0.297	-0.126	
19.660	0.294	-0.103	
19.665	-0.560	-0.058	
19.670	-0.089	-0.067	
19.675	0.627	-0.064	
19.680	-0.445	-0.018	
19.685	-0.399	-0.022	
19.690	0.658	-0.047	
19.695	-0.156	-0.016	
19.700	-0.560	-0.007	
19.705	0.384	-0.043	
19.710	0.308	-0.028	
19.715	-0.558	0.004	
19.720	-0.056	-0.020	
19.725	0.692	-0.028	
19.730	-0.398	0.017	
19.735	-0.346	0.015	
19.740	0.733	-0.006	
19.745	-0.131	0.031	
19.750	-0.526	0.041	
19.755	0.501	0.007	
19.760	0.410	0.030	
19.765	-0.508	0.073	
19.770	0.059	0.056	
19.775	0.805	0.056	
19.780	-0.345	0.107	
19.785	-0.273	0.105	
19.790	0.913	0.086	
19.795	-0.005	0.132	
19.800	-0.436	0.152	
19.805	0.707	0.126	
19.810	0.658	0.165	
19.815	-0.395	0.229	
19.820	0.262	0.225	
19.825	0.982	0.232	
19.830	-0.268	0.283	
19.835	-0.229	0.266	
19.840	0.910	0.217	
19.845	-0.085	0.222	
19.850	-0.517	0.194	
19.855	0.462	0.114	
19.860	0.343	0.088	
19.865	-0.532	0.088	
19.870	-0.020	0.037	
19.875	0.662	0.009	
19.880	-0.435	0.034	
19.885	-0.370	0.013	
19.890	0.665	-0.023	
19.895	-0.191	-0.001	
19.900	-0.558	-0.003	
19.905	0.386	-0.046	
19.910	0.283	-0.035	
19.915	-0.451	-0.001	
19.920	0.558	0.014	
19.925	1.636	0.124	
19.930	0.389	0.350	
19.935	0.419	0.528	
19.940	1.334	0.635	
19.945	-0.069	0.711	
19.950	-0.668	0.641	
19.955	-0.076	0.420	
19.960	-0.192	0.187	
19.965	-0.781	-0.019	
19.970	-0.230	-0.209	
19.975	0.418	-0.301	
19.980	-0.511	-0.287	
19.985	-0.412	-0.274	
19.990	0.620	-0.250	
19.995	-0.203	-0.163	
20.000	-0.558	-0.106	
20.005	0.425	-0.100	
20.010	0.297	-0.051	
20.015	-0.537	0.005	
20.020	0.027	-0.003	
20.025	0.722	0.004	
20.030	-0.395	0.057	
20.035	-0.325	0.054	
20.040	0.738	0.029	
20.045	-0.119	0.059	
20.050	-0.451	0.065	
20.055	0.654	0.039	
20.060	0.492	0.081	
20.065	-0.427	0.143	
20.070	0.271	0.143	
20.075	0.962	0.166	
20.080	-0.253	0.236	
20.085	-0.079	0.245	
20.090	1.287	0.244	
20.095	0.376	0.331	
20.100	-0.204	0.397	
20.105	1.148	0.408	
20.110	0.974	0.480	
20.115	-0.210	0.559	
20.120	0.643	0.551	
20.125	1.226	0.551	
20.130	-0.182	0.584	
20.135	-0.134	0.526	
20.140	0.998	0.426	
20.145	-0.093	0.379	
20.150	-0.496	0.301	
20.155	0.466	0.179	
20.160	0.204	0.115	
20.165	-0.604	0.075	
20.170	-0.128	-0.011	
20.175	0.399	-0.072	
20.180	-0.560	-0.084	
20.185	-0.460	-0.129	
20.190	0.453	-0.174	
20.195	-0.323	-0.159	
20.200	-0.645	-0.161	
20.205	0.232	-0.196	
20.210	0.011	-0.185	
20.215	-0.660	-0.164	
20.220	-0.136	-0.190	
20.225	0.448	-0.190	
20.230	-0.526	-0.144	
20.235	-0.399	-0.142	
20.240	0.559	-0.149	
20.245	-0.271	-0.105	
20.250	-0.573	-0.089	
20.255	0.421	-0.111	
20.260	0.230	-0.079	
20.265	-0.561	-0.033	
20.270	0.024	-0.045	
20.275	0.652	-0.036	
20.280	-0.422	0.017	
20.285	-0.290	0.018	
20.290	0.782	0.005	
20.295	-0.149	0.049	
20.300	-0.477	0.062	
20.305	0.590	0.034	
20.310	0.367	0.063	
20.315	-0.492	0.104	
20.320	0.160	0.084	
20.325	0.777	0.086	
20.330	-0.377	0.133	
20.335	-0.259	0.121	
20.340	0.809	0.089	
20.345	-0.125	0.113	
20.350	-0.432	0.111	
20.355	0.658	0.073	
20.360	0.372	0.100	
20.365	-0.503	0.136	
20.370	0.134	0.105	
20.375	0.718	0.093	
20.380	-0.409	0.124	
20.385	-0.276	0.098	
20.390	0.777	0.059	
20.395	-0.178	0.080	
20.400	-0.496	0.072	
20.405	0.543	0.026	
20.410	0.293	0.039	
20.415	-0.520	0.066	
20.420	0.123	0.039	
20.425	0.707	0.038	
20.430	-0.407	0.083	
20.435	-0.273	0.072	
20.440	0.774	0.045	
20.445	-0.172	0.075	
20.450	-0.497	0.072	
20.455	0.570	0.030	
20.460	0.319	0.048	
20.465	-0.521	0.080	
20.470	0.114	0.053	
20.475	0.675	0.047	
20.480	-0.457	0.082	
20.485	-0.345	0.057	
20.490	0.651	0.012	
20.495	-0.252	0.020	
20.500	-0.526	0.002	
20.505	0.509	-0.043	
20.510	0.213	-0.025	
20.515	-0.578	0.005	
20.520	0.033	-0.023	
20.525	0.599	-0.029	
20.530	-0.451	0.010	
20.535	-0.284	0.000	
20.540	0.782	-0.016	
20.545	-0.145	0.032	
20.550	-0.424	0.052	
20.555	0.716	0.040	
20.560	0.427	0.093	
20.565	-0.468	0.153	
20.570	0.268	0.143	
20.575	0.835	0.153	
20.580	-0.349	0.203	
20.585	-0.175	0.189	
20.590	0.939	0.158	
20.595	-0.122	0.186	
20.600	-0.439	0.178	
20.605	0.677	0.126	
20.610	0.325	0.134	
20.615	-0.535	0.150	
20.620	0.059	0.099	
20.625	0.610	0.064	
20.630	-0.441	0.074	
20.635	-0.264	0.040	
20.640	0.780	0.008	
20.645	-0.204	0.041	
20.650	-0.508	0.043	
20.655	0.498	0.003	
20.660	0.145	0.012	
20.665	-0.578	0.024	
20.670	0.111	-0.016	
20.675	0.805	-0.012	
20.680	-0.215	0.062	
20.685	0.361	0.120	
20.690	1.831	0.235	
20.695	0.733	0.467	
20.700	-0.089	0.643	
20.705	0.852	0.676	
20.710	0.047	0.644	
20.715	-0.788	0.517	
20.720	-0.310	0.274	
20.725	0.053	0.042	
20.730	-0.669	-0.121	
20.735	-0.451	-0.258	
20.740	0.466	-0.329	
20.745	-0.348	-0.297	
20.750	-0.590	-0.264	
20.755	0.424	-0.250	
20.760	0.081	-0.182	
20.765	-0.595	-0.115	
20.770	0.032	-0.110	
20.775	0.527	-0.088	
20.780	-0.506	-0.034	
20.785	-0.323	-0.038	
20.790	0.684	-0.055	
20.795	-0.249	-0.016	
20.800	-0.511	-0.009	
20.805	0.570	-0.036	
20.810	0.264	-0.002	
20.815	-0.499	0.043	
20.820	0.276	0.036	
20.825	0.790	0.065	
20.830	-0.366	0.136	
20.835	-0.136	0.142	
20.840	1.030	0.137	
20.845	-0.020	0.197	
20.850	-0.296	0.222	
20.855	1.049	0.214	
20.860	0.733	0.287	
20.865	-0.279	0.373	
20.870	0.738	0.389	
20.875	1.252	0.438	
20.880	-0.130	0.525	
20.885	0.181	0.525	
20.890	1.288	0.498	
20.895	0.102	0.525	
20.900	-0.306	0.496	
20.905	0.811	0.404	
20.910	0.360	0.362	
20.915	-0.485	0.322	
20.920	0.223	0.226	
20.925	0.596	0.162	
20.930	-0.502	0.143	
20.935	-0.339	0.073	
20.940	0.530	-0.005	
20.945	-0.345	-0.025	
20.950	-0.585	-0.064	
20.955	0.381	-0.124	
20.960	-0.020	-0.124	
20.965	-0.645	-0.114	
20.970	-0.029	-0.151	
20.975	0.415	-0.154	
20.980	-0.538	-0.115	
20.985	-0.325	-0.120	
20.990	0.602	-0.128	
20.995	-0.305	-0.081	
21.000	-0.528	-0.068	
21.005	0.485	-0.089	
21.010	0.108	-0.058	
21.015	-0.561	-0.025	
21.020	0.108	-0.047	
21.025	0.532	-0.040	
21.030	-0.497	0.002	
21.035	-0.288	-0.012	
21.040	0.666	-0.036	
21.045	-0.271	-0.005	
21.050	-0.488	-0.006	
21.055	0.565	-0.037	
21.060	0.113	-0.010	
21.065	-0.582	0.014	
21.070	0.128	-0.019	
21.075	0.587	-0.020	
21.080	-0.459	0.022	
21.085	-0.247	0.012	
21.090	0.713	-0.006	
21.095	-0.267	0.028	
21.100	-0.489	0.026	
21.105	0.584	-0.011	
21.110	0.134	0.011	
21.115	-0.557	0.033	
21.120	0.148	-0.001	
21.125	0.564	-0.003	
21.130	-0.494	0.032	
21.135	-0.259	0.012	
21.140	0.736	-0.013	
21.145	-0.253	0.022	
21.150	-0.462	0.024	
21.155	0.601	-0.006	
21.160	0.151	0.021	
21.165	-0.524	0.048	
21.170	0.245	0.023	
21.175	0.654	0.034	
21.180	-0.436	0.085	
21.185	-0.194	0.076	
21.190	0.831	0.057	
21.195	-0.218	0.095	
21.200	-0.435	0.095	
21.205	0.703	0.059	
21.210	0.288	0.089	
21.215	-0.451	0.125	
21.220	0.387	0.109	
21.225	0.794	0.133	
21.230	-0.367	0.194	
21.235	-0.125	0.186	
21.240	0.928	0.161	
21.245	-0.148	0.193	
21.250	-0.358	0.185	
21.255	0.860	0.147	
21.260	0.393	0.182	
21.265	-0.421	0.222	
21.270	0.448	0.201	
21.275	0.817	0.213	
21.280	-0.351	0.260	
21.285	-0.063	0.237	
21.290	1.009	0.207	
21.295	-0.130	0.238	
21.300	-0.349	0.228	
21.305	0.867	0.183	
21.310	0.390	0.209	
21.315	-0.422	0.239	
21.320	0.477	0.211	
21.325	0.860	0.223	
21.330	-0.334	0.273	
21.335	-0.064	0.254	
21.340	0.951	0.220	
21.345	-0.160	0.240	
21.350	-0.386	0.217	
21.355	0.747	0.157	
21.360	0.299	0.163	
21.365	-0.445	0.178	
21.370	0.401	0.143	
21.375	0.735	0.150	
21.380	-0.401	0.194	
21.385	-0.125	0.171	
21.390	0.925	0.140	
21.395	-0.160	0.172	
21.400	-0.355	0.167	
21.405	0.812	0.131	
21.410	0.300	0.162	
21.415	-0.453	0.191	
21.420	0.430	0.162	
21.425	0.802	0.174	
21.430	-0.335	0.226	
21.435	-0.040	0.214	
21.440	1.050	0.198	
21.445	-0.093	0.244	
21.450	-0.276	0.249	
21.455	1.020	0.223	
21.460	0.520	0.274	
21.465	-0.311	0.329	
21.470	0.698	0.323	
21.475	1.052	0.359	
21.480	-0.218	0.430	
21.485	0.160	0.421	
21.490	1.191	0.399	
21.495	-0.038	0.429	
21.500	-0.277	0.404	
21.505	0.910	0.332	
21.510	0.349	0.322	
21.515	-0.424	0.313	
21.520	0.436	0.247	
21.525	0.744	0.225	
21.530	-0.372	0.244	
21.535	-0.089	0.204	
21.540	0.893	0.163	
21.545	-0.207	0.181	
21.550	-0.407	0.160	
21.555	0.677	0.104	
21.560	0.190	0.110	
21.565	-0.392	0.123	
21.570	0.898	0.121	
21.575	1.588	0.236	
21.580	0.348	0.453	
21.585	0.832	0.619	
21.590	1.526	0.750	
21.595	-0.108	0.851	
21.600	-0.514	0.780	
21.605	0.134	0.555	
21.610	-0.285	0.317	
21.615	-0.759	0.087	
21.620	-0.098	-0.130	
21.625	0.248	-0.246	
21.630	-0.564	-0.265	
21.635	-0.247	-0.277	
21.640	0.648	-0.251	
21.645	-0.314	-0.158	
21.650	-0.464	-0.104	
21.655	0.598	-0.087	
21.660	0.055	-0.027	
21.665	-0.520	0.016	
21.670	0.323	0.004	
21.675	0.642	0.033	
21.680	-0.419	0.096	
21.685	-0.131	0.094	
21.690	0.838	0.083	
21.695	-0.217	0.123	
21.700	-0.363	0.123	
21.705	0.779	0.092	
21.710	0.248	0.127	
21.715	-0.413	0.160	
21.720	0.538	0.145	
21.725	0.837	0.180	
21.730	-0.343	0.250	
21.735	-0.024	0.245	
21.740	1.044	0.227	
21.745	-0.075	0.268	
21.750	-0.215	0.270	
21.755	1.111	0.249	
21.760	0.547	0.311	
21.765	-0.293	0.372	
21.770	0.738	0.366	
21.775	0.974	0.395	
21.780	-0.277	0.447	
21.785	0.055	0.412	
21.790	0.936	0.355	
21.795	-0.232	0.339	
21.800	-0.419	0.271	
21.805	0.538	0.163	
21.810	-0.102	0.106	
21.815	-0.642	0.044	
21.820	-0.012	-0.060	
21.825	0.181	-0.122	
21.830	-0.656	-0.144	
21.835	-0.387	-0.198	
21.840	0.280	-0.241	
21.845	-0.526	-0.234	
21.850	-0.651	-0.253	
21.855	0.180	-0.292	
21.860	-0.252	-0.282	
21.865	-0.721	-0.273	
21.870	-0.078	-0.300	
21.875	0.125	-0.293	
21.880	-0.663	-0.258	
21.885	-0.358	-0.265	
21.890	0.376	-0.266	
21.895	-0.459	-0.220	
21.900	-0.569	-0.208	
21.905	0.344	-0.222	
21.910	-0.157	-0.189	
21.915	-0.646	-0.167	
21.920	0.068	-0.189	
21.925	0.312	-0.174	
21.930	-0.576	-0.129	
21.935	-0.270	-0.134	
21.940	0.543	-0.139	
21.945	-0.375	-0.095	
21.950	-0.491	-0.088	
21.955	0.491	-0.108	
21.960	-0.082	-0.080	
21.965	-0.579	-0.062	
21.970	0.194	-0.091	
21.975	0.402	-0.078	
21.980	-0.535	-0.036	
21.985	-0.215	-0.050	
21.990	0.623	-0.063	
21.995	-0.346	-0.026	
22.000	-0.457	-0.028	
22.005	0.569	-0.055	
22.010	-0.041	-0.029	
22.015	-0.564	-0.014	
22.020	0.227	-0.048	
22.025	0.447	-0.040	
22.030	-0.491	0.000	
22.035	-0.151	-0.012	
22.040	0.712	-0.019	
22.045	-0.331	0.024	
22.050	-0.450	0.023	
22.055	0.611	-0.011	
22.060	0.001	0.010	
22.065	-0.531	0.023	
22.070	0.268	-0.012	
22.075	0.460	-0.005	
22.080	-0.494	0.031	
22.085	-0.169	0.011	
22.090	0.694	-0.007	
22.095	-0.300	0.027	
22.100	-0.389	0.026	
22.105	0.704	0.003	
22.110	0.061	0.041	
22.115	-0.502	0.067	
22.120	0.357	0.041	
22.125	0.515	0.054	
22.130	-0.492	0.091	
22.135	-0.159	0.064	
22.140	0.726	0.035	
22.145	-0.310	0.060	
22.150	-0.413	0.046	
22.155	0.634	0.008	
22.160	0.015	0.028	
22.165	-0.515	0.040	
22.170	0.341	0.007	
22.175	0.559	0.023	
22.180	-0.448	0.073	
22.185	-0.089	0.065	
22.190	0.834	0.058	
22.195	-0.271	0.105	
22.200	-0.343	0.106	
22.205	0.817	0.080	
22.210	0.136	0.119	
22.215	-0.460	0.145	
22.220	0.492	0.117	
22.225	0.694	0.138	
22.230	-0.383	0.192	
22.235	0.052	0.182	
22.240	0.974	0.176	
22.245	-0.188	0.224	
22.250	-0.282	0.221	
22.255	0.873	0.184	
22.260	0.152	0.207	
22.265	-0.468	0.212	
22.270	0.428	0.160	
22.275	0.555	0.148	
22.280	-0.468	0.164	
22.285	-0.108	0.119	
22.290	0.744	0.078	
22.295	-0.313	0.092	
22.300	-0.395	0.070	
22.305	0.687	0.027	
22.310	0.026	0.047	
22.315	-0.517	0.058	
22.320	0.373	0.024	
22.325	0.645	0.043	
22.330	-0.268	0.109	
22.335	0.634	0.155	
22.340	1.843	0.281	
22.345	0.581	0.517	
22.350	0.166	0.684	
22.355	1.084	0.732	
22.360	-0.090	0.724	
22.365	-0.743	0.594	
22.370	-0.191	0.339	
22.375	-0.095	0.095	
22.380	-0.720	-0.094	
22.385	-0.316	-0.254	
22.390	0.437	-0.328	
22.395	-0.410	-0.297	
22.400	-0.427	-0.265	
22.405	0.698	-0.226	
22.410	0.084	-0.116	
22.415	-0.451	-0.022	
22.420	0.518	0.015	
22.425	0.700	0.089	
22.430	-0.378	0.180	
22.435	0.056	0.192	
22.440	0.936	0.193	
22.445	-0.209	0.237	
22.450	-0.273	0.227	
22.455	0.957	0.189	
22.460	0.351	0.227	
22.465	-0.288	0.268	
22.470	0.851	0.267	
22.475	1.017	0.329	
22.480	-0.174	0.424	
22.485	0.448	0.444	
22.490	1.354	0.468	
22.495	0.148	0.546	
22.500	0.059	0.562	
22.505	1.416	0.544	
22.510	0.788	0.604	
22.515	-0.031	0.659	
22.520	1.256	0.656	
22.525	1.343	0.710	
22.530	0.008	0.788	
22.535	0.710	0.776	
22.540	1.494	0.762	
22.545	0.128	0.791	
22.550	-0.053	0.737	
22.555	1.149	0.629	
22.560	0.367	0.580	
22.565	-0.335	0.521	
22.570	0.579	0.408	
22.575	0.601	0.343	
22.580	-0.436	0.310	
22.585	-0.111	0.219	
22.590	0.584	0.130	
22.595	-0.412	0.092	
22.600	-0.505	0.022	
22.605	0.285	-0.069	
22.610	-0.261	-0.110	
22.615	-0.680	-0.152	
22.620	-0.029	-0.221	
22.625	0.058	-0.245	
22.630	-0.668	-0.239	
22.635	-0.326	-0.266	
22.640	0.236	-0.280	
22.645	-0.558	-0.254	
22.650	-0.604	-0.263	
22.655	0.221	-0.290	
22.660	-0.299	-0.271	
22.665	-0.720	-0.262	
22.670	-0.056	-0.292	
22.675	0.046	-0.290	
22.680	-0.656	-0.263	
22.685	-0.290	-0.274	
22.690	0.364	-0.268	
22.695	-0.496	-0.219	
22.700	-0.515	-0.207	
22.705	0.408	-0.214	
22.710	-0.203	-0.174	
22.715	-0.614	-0.150	
22.720	0.169	-0.169	
22.725	0.239	-0.149	
22.730	-0.569	-0.108	
22.735	-0.180	-0.117	
22.740	0.555	-0.118	
22.745	-0.418	-0.073	
22.750	-0.453	-0.071	
22.755	0.535	-0.093	
22.760	-0.127	-0.064	
22.765	-0.563	-0.051	
22.770	0.244	-0.082	
22.775	0.303	-0.071	
22.780	-0.532	-0.038	
22.785	-0.134	-0.056	
22.790	0.599	-0.064	
22.795	-0.393	-0.025	
22.800	-0.421	-0.029	
22.805	0.544	-0.058	
22.810	-0.149	-0.037	
22.815	-0.549	-0.034	
22.820	0.296	-0.070	
22.825	0.328	-0.058	
22.830	-0.534	-0.022	
22.835	-0.140	-0.041	
22.840	0.622	-0.051	
22.845	-0.374	-0.013	
22.850	-0.399	-0.017	
22.855	0.607	-0.041	
22.860	-0.127	-0.014	
22.865	-0.547	-0.007	
22.870	0.328	-0.043	
22.875	0.378	-0.031	
22.880	-0.499	0.008	
22.885	-0.090	-0.007	
22.890	0.662	-0.014	
22.895	-0.360	0.025	
22.900	-0.363	0.021	
22.905	0.694	-0.003	
22.910	-0.040	0.031	
22.915	-0.476	0.048	
22.920	0.472	0.024	
22.925	0.506	0.053	
22.930	-0.454	0.105	
22.935	-0.026	0.091	
22.940	0.739	0.078	
22.945	-0.332	0.109	
22.950	-0.352	0.092	
22.955	0.636	0.047	
22.960	-0.119	0.054	
22.965	-0.550	0.040	
22.970	0.268	-0.018	
22.975	0.250	-0.032	
22.980	-0.558	-0.024	
22.985	-0.149	-0.062	
22.990	0.549	-0.084	
22.995	-0.407	-0.054	
23.000	-0.416	-0.061	
23.005	0.544	-0.085	
23.010	-0.182	-0.059	
23.015	-0.589	-0.054	
23.020	0.317	-0.089	
23.025	0.601	-0.061	
23.030	-0.203	0.025	
23.035	0.869	0.112	
23.040	1.774	0.287	
23.045	0.300	0.537	
23.050	-0.079	0.667	
23.055	0.706	0.647	
23.060	-0.310	0.565	
23.065	-0.800	0.387	
23.070	-0.133	0.134	
23.075	-0.063	-0.067	
23.080	-0.669	-0.196	
23.085	-0.215	-0.298	
23.090	0.494	-0.321	
23.095	-0.427	-0.257	
23.100	-0.396	-0.213	
23.105	0.616	-0.180	
23.110	-0.133	-0.098	
23.115	-0.534	-0.048	
23.120	0.373	-0.053	
23.125	0.373	-0.018	
23.130	-0.499	0.031	
23.135	-0.052	0.018	
23.140	0.695	0.013	
23.145	-0.349	0.053	
23.150	-0.337	0.048	
23.155	0.735	0.023	
23.160	-0.043	0.057	
23.165	-0.450	0.072	
23.170	0.598	0.050	
23.175	0.619	0.093	
23.180	-0.381	0.164	
23.185	0.145	0.169	
23.190	0.974	0.181	
23.195	-0.157	0.243	
23.200	-0.093	0.254	
23.205	1.215	0.253	
23.210	0.445	0.334	
23.215	-0.178	0.402	
23.220	1.084	0.414	
23.225	1.030	0.484	
23.230	-0.195	0.565	
23.235	0.491	0.552	
23.240	1.172	0.535	
23.245	-0.149	0.551	
23.250	-0.178	0.490	
23.255	0.884	0.387	
23.260	-0.060	0.335	
23.265	-0.506	0.260	
23.270	0.367	0.142	
23.275	0.229	0.079	
23.280	-0.611	0.044	
23.285	-0.217	-0.038	
23.290	0.384	-0.101	
23.295	-0.520	-0.112	
23.300	-0.505	-0.151	
23.305	0.337	-0.197	
23.310	-0.303	-0.189	
23.315	-0.669	-0.194	
23.320	0.088	-0.232	
23.325	0.009	-0.230	
23.330	-0.665	-0.213	
23.335	-0.223	-0.236	
23.340	0.386	-0.237	
23.345	-0.521	-0.193	
23.350	-0.497	-0.189	
23.355	0.380	-0.204	
23.360	-0.302	-0.176	
23.365	-0.685	-0.172	
23.370	0.052	-0.212	
23.375	-0.027	-0.221	
23.380	-0.691	-0.217	
23.385	-0.232	-0.250	
23.390	0.360	-0.257	
23.395	-0.550	-0.216	
23.400	-0.529	-0.215	
23.405	0.325	-0.233	
23.410	-0.313	-0.209	
23.415	-0.653	-0.202	
23.420	0.187	-0.227	
23.425	0.143	-0.204	
23.430	-0.602	-0.161	
23.435	-0.131	-0.165	
23.440	0.555	-0.151	
23.445	-0.448	-0.092	
23.450	-0.377	-0.079	
23.455	0.668	-0.082	
23.460	-0.130	-0.031	
23.465	-0.494	-0.004	
23.470	0.520	-0.017	
23.475	0.436	0.025	
23.480	-0.477	0.083	
23.485	0.050	0.074	
23.490	0.794	0.076	
23.495	-0.331	0.123	
23.500	-0.277	0.117	
23.505	0.834	0.090	
23.510	-0.053	0.122	
23.515	-0.467	0.127	
23.520	0.514	0.084	
23.525	0.390	0.092	
23.530	-0.480	0.116	
23.535	0.062	0.083	
23.540	0.753	0.070	
23.545	-0.367	0.106	
23.550	-0.314	0.090	
23.555	0.761	0.055	
23.560	-0.111	0.078	
23.565	-0.489	0.077	
23.570	0.555	0.038	
23.575	0.424	0.060	
23.580	-0.474	0.102	
23.585	0.111	0.085	
23.590	0.812	0.087	
23.595	-0.332	0.137	
23.600	-0.268	0.130	
23.605	0.829	0.101	
23.610	-0.053	0.130	
23.615	-0.445	0.133	
23.620	0.608	0.094	
23.625	0.506	0.117	
23.630	-0.441	0.161	
23.635	0.140	0.142	
23.640	0.793	0.136	
23.645	-0.361	0.170	
23.650	-0.328	0.144	
23.655	0.663	0.088	
23.660	-0.224	0.080	
23.665	-0.611	0.043	
23.670	0.245	-0.038	
23.675	0.101	-0.072	
23.680	-0.642	-0.085	
23.685	-0.182	-0.138	
23.690	0.428	-0.166	
23.695	-0.528	-0.142	
23.700	-0.468	-0.154	
23.705	0.408	-0.181	
23.710	-0.316	-0.159	
23.715	-0.640	-0.159	
23.720	0.323	-0.188	
23.725	0.439	-0.147	
23.730	-0.293	-0.058	
23.735	0.817	0.027	
23.740	1.611	0.201	
23.745	0.008	0.435	
23.750	-0.215	0.536	
23.755	0.454	0.488	
23.760	-0.496	0.383	
23.765	-0.916	0.194	
23.770	-0.215	-0.052	
23.775	-0.209	-0.235	
23.780	-0.765	-0.346	
23.785	-0.244	-0.429	
23.790	0.354	-0.432	
23.795	-0.537	-0.357	
23.800	-0.447	-0.308	
23.805	0.520	-0.269	
23.810	-0.242	-0.184	
23.815	-0.570	-0.133	
23.820	0.352	-0.131	
23.825	0.209	-0.090	
23.830	-0.569	-0.044	
23.835	-0.038	-0.058	
23.840	0.683	-0.052	
23.845	-0.381	0.004	
23.850	-0.290	0.014	
23.855	0.831	0.010	
23.860	-0.079	0.066	
23.865	-0.436	0.092	
23.870	0.683	0.076	
23.875	0.565	0.123	
23.880	-0.366	0.190	
23.885	0.424	0.200	
23.890	1.165	0.244	
23.895	-0.133	0.341	
23.900	0.033	0.369	
23.905	1.351	0.374	
23.910	0.488	0.456	
23.915	-0.099	0.515	
23.920	1.316	0.523	
23.925	1.133	0.599	
23.930	-0.110	0.687	
23.935	0.811	0.682	
23.940	1.384	0.688	
23.945	-0.107	0.724	
23.950	-0.020	0.661	
23.955	1.127	0.553	
23.960	0.073	0.505	
23.965	-0.403	0.428	
23.970	0.636	0.307	
23.975	0.389	0.248	
23.980	-0.524	0.215	
23.985	-0.047	0.126	
23.990	0.482	0.053	
23.995	-0.497	0.026	
24.000	-0.398	-0.033	
24.005	0.564	-0.090	
24.010	-0.242	-0.079	
24.015	-0.585	-0.082	
24.020	0.319	-0.119	
24.025	0.130	-0.107	
24.030	-0.596	-0.082	
24.035	-0.079	-0.107	
24.040	0.534	-0.110	
24.045	-0.464	-0.067	
24.050	-0.357	-0.068	
24.055	0.636	-0.081	
24.060	-0.227	-0.041	
24.065	-0.558	-0.031	
24.070	0.425	-0.063	
24.075	0.253	-0.041	
24.080	-0.534	-0.005	
24.085	0.032	-0.022	
24.090	0.634	-0.019	
24.095	-0.432	0.026	
24.100	-0.328	0.018	
24.105	0.677	-0.009	
24.110	-0.178	0.019	
24.115	-0.488	0.022	
24.120	0.553	-0.009	
24.125	0.329	0.021	
24.130	-0.518	0.064	
24.135	0.072	0.044	
24.140	0.701	0.041	
24.145	-0.399	0.082	
24.150	-0.287	0.069	
24.155	0.756	0.040	
24.160	-0.156	0.068	
24.165	-0.479	0.067	
24.170	0.559	0.029	
24.175	0.320	0.049	
24.180	-0.521	0.081	
24.185	0.062	0.052	
24.190	0.678	0.041	
24.195	-0.425	0.073	
24.200	-0.297	0.054	
24.205	0.745	0.022	
24.210	-0.174	0.049	
24.215	-0.502	0.049	
24.220	0.512	0.009	
24.225	0.277	0.024	
24.230	-0.534	0.052	
24.235	0.075	0.023	
24.240	0.675	0.018	
24.245	-0.427	0.058	
24.250	-0.306	0.045	
24.255	0.719	0.015	
24.260	-0.201	0.041	
24.265	-0.518	0.037	
24.270	0.514	-0.006	
24.275	0.288	0.011	
24.280	-0.538	0.043	
24.285	0.061	0.017	
24.290	0.654	0.012	
24.295	-0.438	0.050	
24.300	-0.311	0.035	
24.305	0.755	0.007	
24.310	-0.153	0.040	
24.315	-0.467	0.049	
24.320	0.588	0.021	
24.325	0.354	0.052	
24.330	-0.483	0.095	
24.335	0.207	0.080	
24.340	0.794	0.092	
24.345	-0.369	0.146	
24.350	-0.224	0.138	
24.355	0.877	0.112	
24.360	-0.125	0.143	
24.365	-0.464	0.139	
24.370	0.585	0.090	
24.375	0.312	0.096	
24.380	-0.535	0.113	
24.385	0.030	0.067	
24.390	0.613	0.038	
24.395	-0.447	0.054	
24.400	-0.320	0.024	
24.405	0.658	-0.014	
24.410	-0.232	0.004	
24.415	-0.538	-0.003	
24.420	0.492	-0.044	
24.425	0.255	-0.023	
24.430	-0.546	0.012	
24.435	0.044	-0.009	
24.440	0.657	-0.009	
24.445	-0.367	0.039	
24.450	-0.014	0.051	
24.455	1.608	0.103	
24.460	0.886	0.299	
24.465	0.309	0.510	
24.470	1.480	0.657	
24.475	0.738	0.793	
24.480	-0.532	0.826	
24.485	-0.207	0.665	
24.490	0.117	0.425	
24.495	-0.642	0.200	
24.500	-0.454	-0.022	
24.505	0.498	-0.176	
24.510	-0.246	-0.205	
24.515	-0.479	-0.204	
24.520	0.619	-0.192	
24.525	0.344	-0.100	
24.530	-0.473	0.002	
24.535	0.264	0.036	
24.540	0.831	0.087	
24.545	-0.337	0.170	
24.550	-0.162	0.179	
24.555	0.963	0.164	
24.560	-0.056	0.205	
24.565	-0.375	0.210	
24.570	0.790	0.172	
24.575	0.518	0.202	
24.580	-0.380	0.246	
24.585	0.469	0.232	
24.590	1.012	0.256	
24.595	-0.238	0.324	
24.600	0.004	0.323	
24.605	1.244	0.309	
24.610	0.221	0.371	
24.615	-0.188	0.402	
24.620	1.219	0.392	
24.625	0.998	0.465	
24.630	-0.113	0.558	
24.635	0.985	0.582	
24.640	1.541	0.643	
24.645	0.136	0.748	
24.650	0.462	0.767	
24.655	1.646	0.759	
24.660	0.501	0.812	
24.665	-0.107	0.805	
24.670	1.198	0.722	
24.675	0.797	0.690	
24.680	-0.305	0.662	
24.685	0.462	0.556	
24.690	0.869	0.470	
24.695	-0.366	0.425	
24.700	-0.242	0.320	
24.705	0.691	0.202	
24.710	-0.264	0.147	
24.715	-0.544	0.075	
24.720	0.399	-0.018	
24.725	0.046	-0.047	
24.730	-0.604	-0.057	
24.735	-0.002	-0.106	
24.740	0.515	-0.114	
24.745	-0.496	-0.073	
24.750	-0.331	-0.076	
24.755	0.590	-0.090	
24.760	-0.276	-0.054	
24.765	-0.532	-0.049	
24.770	0.431	-0.079	
24.775	0.062	-0.062	
24.780	-0.608	-0.044	
24.785	-0.002	-0.080	
24.790	0.526	-0.087	
24.795	-0.485	-0.049	
24.800	-0.281	-0.054	
24.805	0.726	-0.062	
24.810	-0.226	-0.010	
24.815	-0.488	0.007	
24.820	0.530	-0.017	
24.825	0.194	0.010	
24.830	-0.531	0.039	
24.835	0.130	0.012	
24.840	0.604	0.012	
24.845	-0.450	0.051	
24.850	-0.277	0.034	
24.855	0.665	0.004	
24.860	-0.242	0.025	
24.865	-0.480	0.018	
24.870	0.556	-0.019	
24.875	0.169	0.003	
24.880	-0.540	0.030	
24.885	0.131	0.002	
24.890	0.564	0.001	
24.895	-0.470	0.036	
24.900	-0.296	0.016	
24.905	0.602	-0.018	
24.910	-0.265	-0.002	
24.915	-0.508	-0.013	
24.920	0.482	-0.054	
24.925	0.110	-0.037	
24.930	-0.570	-0.017	
24.935	0.082	-0.047	
24.940	0.547	-0.047	
24.945	-0.473	-0.006	
24.950	-0.290	-0.016	
24.955	0.645	-0.037	
24.960	-0.279	-0.007	
24.965	-0.520	-0.011	
24.970	0.485	-0.050	
24.975	0.143	-0.032	
24.980	-0.532	-0.006	
24.985	0.157	-0.028	
24.990	0.572	-0.017	
24.995	-0.456	0.030	
25.000	-0.236	0.022	
25.005	0.735	0.004	
25.010	-0.230	0.041	
25.015	-0.474	0.043	
25.020	0.549	0.006	
25.025	0.155	0.023	
25.030	-0.534	0.042	
25.035	0.160	0.009	
25.040	0.605	0.009	
25.045	-0.439	0.051	
25.050	-0.235	0.038	
25.055	0.780	0.019	
25.060	-0.195	0.058	
25.065	-0.422	0.065	
25.070	0.698	0.041	
25.075	0.306	0.081	
25.080	-0.457	0.124	
25.085	0.328	0.110	
25.090	0.774	0.128	
25.095	-0.380	0.182	
25.100	-0.192	0.167	
25.105	0.815	0.131	
25.110	-0.209	0.146	
25.115	-0.482	0.122	
25.120	0.523	0.058	
25.125	0.097	0.047	
25.130	-0.573	0.039	
25.135	0.032	-0.019	
25.140	0.456	-0.046	
25.145	-0.517	-0.032	
25.150	-0.316	-0.060	
25.155	0.594	-0.088	
25.160	-0.300	-0.059	
25.165	-0.526	-0.059	
25.170	0.463	-0.089	
25.175	0.067	-0.065	
25.180	-0.515	-0.038	
25.185	0.444	-0.042	
25.190	1.233	0.038	
25.195	0.189	0.214	
25.200	0.729	0.368	
25.205	1.681	0.530	
25.210	0.151	0.707	
25.215	-0.432	0.736	
25.220	0.206	0.590	
25.225	-0.265	0.397	
25.230	-0.788	0.177	
25.235	-0.163	-0.056	
25.240	0.311	-0.198	
25.245	-0.534	-0.234	
25.250	-0.268	-0.256	
25.255	0.721	-0.236	
25.260	-0.233	-0.139	
25.265	-0.430	-0.074	
25.270	0.675	-0.047	
25.275	0.280	0.030	
25.280	-0.447	0.099	
25.285	0.383	0.104	
25.290	0.770	0.137	
25.295	-0.377	0.200	
25.300	-0.131	0.188	
25.305	0.931	0.161	
25.310	-0.127	0.192	
25.315	-0.339	0.188	
25.320	0.837	0.153	
25.325	0.376	0.186	
25.330	-0.401	0.223	
25.335	0.508	0.204	
25.340	0.947	0.229	
25.345	-0.267	0.297	
25.350	0.068	0.298	
25.355	1.201	0.293	
25.360	0.093	0.355	
25.365	-0.159	0.376	
25.370	1.248	0.365	
25.375	0.858	0.439	
25.380	-0.162	0.524	
25.385	0.939	0.537	
25.390	1.300	0.584	
25.395	-0.125	0.656	
25.400	0.235	0.630	
25.405	1.261	0.575	
25.410	0.009	0.569	
25.415	-0.294	0.507	
25.420	0.785	0.392	
25.425	0.221	0.332	
25.430	-0.517	0.274	
25.435	0.160	0.165	
25.440	0.482	0.094	
25.445	-0.529	0.069	
25.450	-0.305	0.004	
25.455	0.506	-0.059	
25.460	-0.398	-0.064	
25.465	-0.607	-0.096	
25.470	0.280	-0.156	
25.475	-0.125	-0.164	
25.480	-0.669	-0.168	
25.485	-0.063	-0.209	
25.490	0.296	-0.213	
25.495	-0.578	-0.179	
25.500	-0.319	-0.183	
25.505	0.535	-0.183	
25.510	-0.361	-0.131	
25.515	-0.555	-0.115	
25.520	0.416	-0.135	
25.525	-0.035	-0.109	
25.530	-0.592	-0.087	
25.535	0.139	-0.110	
25.540	0.479	-0.094	
25.545	-0.512	-0.041	
25.550	-0.271	-0.046	
25.555	0.613	-0.060	
25.560	-0.322	-0.026	
25.565	-0.512	-0.030	
25.570	0.523	-0.065	
25.575	0.052	-0.043	
25.580	-0.578	-0.022	
25.585	0.149	-0.051	
25.590	0.479	-0.047	
25.595	-0.509	-0.009	
25.600	-0.253	-0.025	
25.605	0.652	-0.045	
25.610	-0.305	-0.012	
25.615	-0.496	-0.015	
25.620	0.537	-0.048	
25.625	0.067	-0.026	
25.630	-0.543	-0.004	
25.635	0.209	-0.030	
25.640	0.535	-0.019	
25.645	-0.497	0.027	
25.650	-0.244	0.012	
25.655	0.651	-0.013	
25.660	-0.319	0.011	
25.665	-0.502	-0.002	
25.670	0.505	-0.045	
25.675	-0.027	-0.036	
25.680	-0.605	-0.032	
25.685	0.113	-0.076	
25.690	0.431	-0.081	
25.695	-0.543	-0.049	
25.700	-0.274	-0.067	
25.705	0.588	-0.087	
25.710	-0.351	-0.055	
25.715	-0.509	-0.058	
25.720	0.518	-0.088	
25.725	0.027	-0.061	
25.730	-0.567	-0.036	
25.735	0.209	-0.059	
25.740	0.526	-0.042	
25.745	-0.506	0.009	
25.750	-0.223	-0.000	
25.755	0.748	-0.014	
25.760	-0.258	0.029	
25.765	-0.438	0.035	
25.770	0.601	0.007	
25.775	0.012	0.028	
25.780	-0.570	0.035	
25.785	0.131	-0.013	
25.790	0.402	-0.031	
25.795	-0.576	-0.017	
25.800	-0.332	-0.057	
25.805	0.494	-0.101	
25.810	-0.392	-0.091	
25.815	-0.553	-0.109	
25.820	0.433	-0.147	
25.825	-0.089	-0.128	
25.830	-0.630	-0.112	
25.835	0.072	-0.143	
25.840	0.376	-0.136	
25.845	-0.566	-0.096	
25.850	-0.230	-0.104	
25.855	0.899	-0.095	
25.860	0.000	-0.000	
25.865	0.064	0.091	
25.870	1.630	0.200	
25.875	0.930	0.413	
25.880	-0.335	0.587	
25.885	0.161	0.584	
25.890	0.021	0.475	
25.895	-0.829	0.305	
25.900	-0.576	0.063	
25.905	0.068	-0.156	
25.910	-0.560	-0.281	
25.915	-0.663	-0.370	
25.920	0.235	-0.421	
25.925	-0.169	-0.386	
25.930	-0.671	-0.333	
25.935	0.015	-0.314	
25.940	0.323	-0.262	
25.945	-0.587	-0.184	
25.950	-0.296	-0.165	
25.955	0.579	-0.153	
25.960	-0.375	-0.096	
25.965	-0.524	-0.083	
25.970	0.523	-0.102	
25.975	0.004	-0.069	
25.980	-0.557	-0.041	
25.985	0.224	-0.060	
25.990	0.521	-0.040	
25.995	-0.489	0.014	
26.000	-0.197	0.007	
26.005	0.780	-0.002	
26.010	-0.249	0.045	
26.015	-0.396	0.055	
26.020	0.765	0.037	
26.025	0.300	0.087	
26.030	-0.387	0.141	
26.035	0.655	0.150	
26.040	1.015	0.216	
26.045	-0.207	0.323	
26.050	0.325	0.359	
26.055	1.392	0.395	
26.060	0.186	0.491	
26.065	-0.090	0.526	
26.070	1.191	0.501	
26.075	0.572	0.528	
26.080	-0.319	0.537	
26.085	0.602	0.467	
26.090	0.767	0.423	
26.095	-0.410	0.402	
26.100	-0.175	0.308	
26.105	0.628	0.198	
26.110	-0.367	0.141	
26.115	-0.537	0.057	
26.120	0.349	-0.045	
26.125	-0.180	-0.088	
26.130	-0.694	-0.125	
26.135	-0.052	-0.195	
26.140	0.175	-0.222	
26.145	-0.642	-0.210	
26.150	-0.366	-0.234	
26.155	0.331	-0.250	
26.160	-0.476	-0.220	
26.165	-0.599	-0.221	
26.170	0.302	-0.244	
26.175	-0.175	-0.218	
26.180	-0.685	-0.199	
26.185	-0.005	-0.224	
26.190	0.283	-0.214	
26.195	-0.581	-0.171	
26.200	-0.297	-0.172	
26.205	0.483	-0.173	
26.210	-0.389	-0.128	
26.215	-0.511	-0.120	
26.220	0.482	-0.137	
26.225	-0.041	-0.101	
26.230	-0.572	-0.072	
26.235	0.187	-0.091	
26.240	0.456	-0.071	
26.245	-0.503	-0.021	
26.250	-0.215	-0.028	
26.255	0.642	-0.039	
26.260	-0.319	-0.003	
26.265	-0.448	-0.005	
26.270	0.613	-0.033	
26.275	0.040	-0.003	
26.280	-0.546	0.019	
26.285	0.250	-0.011	
26.290	0.540	-0.000	
26.295	-0.467	0.044	
26.300	-0.163	0.033	
26.305	0.691	0.016	
26.310	-0.299	0.047	
26.315	-0.433	0.038	
26.320	0.605	0.001	
26.325	0.017	0.019	
26.330	-0.534	0.029	
26.335	0.248	-0.008	
26.340	0.468	-0.005	
26.345	-0.489	0.029	
26.350	-0.177	0.009	
26.355	0.709	-0.009	
26.360	-0.326	0.026	
26.365	-0.450	0.021	
26.370	0.590	-0.015	
26.375	0.009	0.004	
26.380	-0.526	0.016	
26.385	0.314	-0.014	
26.390	0.572	0.005	
26.395	-0.422	0.061	
26.400	-0.064	0.061	
26.405	0.890	0.066	
26.410	-0.207	0.126	
26.415	-0.325	0.139	
26.420	0.872	0.120	
26.425	0.280	0.168	
26.430	-0.424	0.206	
26.435	0.471	0.183	
26.440	0.642	0.191	
26.445	-0.413	0.222	
26.450	-0.108	0.182	
26.455	0.730	0.134	
26.460	-0.322	0.133	
26.465	-0.457	0.091	
26.470	0.537	0.021	
26.475	-0.029	0.010	
26.480	-0.538	-0.000	
26.485	0.242	-0.045	
26.490	0.437	-0.041	
26.495	-0.508	-0.003	
26.500	-0.194	-0.020	
26.505	0.630	-0.036	
26.510	-0.348	-0.005	
26.515	-0.442	-0.012	
26.520	0.660	-0.039	
26.525	0.277	0.008	
26.530	-0.201	0.076	
26.535	1.340	0.152	
26.540	1.691	0.353	
26.545	0.143	0.612	
26.550	0.335	0.732	
26.555	0.744	0.729	
26.560	-0.511	0.653	
26.565	-0.698	0.450	
26.570	0.084	0.183	
26.575	-0.232	-0.017	
26.580	-0.625	-0.159	
26.585	0.160	-0.260	
26.590	0.381	-0.258	
26.595	-0.502	-0.191	
26.600	-0.146	-0.157	
26.605	0.756	-0.114	
26.610	-0.279	-0.021	
26.615	-0.375	0.020	
26.620	0.732	0.023	
26.625	0.157	0.078	
26.630	-0.438	0.118	
26.635	0.500	0.106	
26.640	0.698	0.139	
26.645	-0.370	0.200	
26.650	0.000	0.191	
26.655	0.925	0.177	
26.660	-0.177	0.214	
26.665	-0.258	0.208	
26.670	0.988	0.180	
26.675	0.398	0.231	
26.680	-0.305	0.281	
26.685	0.791	0.281	
26.690	0.998	0.334	
26.695	-0.198	0.418	
26.700	0.422	0.429	
26.705	1.398	0.450	
26.710	0.238	0.537	
26.715	0.090	0.571	
26.720	1.413	0.567	
26.725	0.748	0.629	
26.730	-0.119	0.672	
26.735	1.053	0.642	
26.740	1.152	0.653	
26.745	-0.172	0.685	
26.750	0.285	0.625	
26.755	1.034	0.546	
26.760	-0.180	0.507	
26.765	-0.313	0.410	
26.770	0.678	0.282	
26.775	-0.076	0.211	
26.780	-0.563	0.135	
26.785	0.201	0.027	
26.790	0.323	-0.024	
26.795	-0.564	-0.031	
26.800	-0.241	-0.077	
26.805	0.482	-0.112	
26.810	-0.432	-0.095	
26.815	-0.499	-0.109	
26.820	0.453	-0.142	
26.825	-0.134	-0.119	
26.830	-0.596	-0.104	
26.835	0.163	-0.132	
26.840	0.315	-0.119	
26.845	-0.575	-0.081	
26.850	-0.229	-0.096	
26.855	0.575	-0.107	
26.860	-0.372	-0.067	
26.865	-0.462	-0.064	
26.870	0.535	-0.086	
26.875	-0.078	-0.057	
26.880	-0.561	-0.040	
26.885	0.230	-0.069	
26.890	0.373	-0.058	
26.895	-0.520	-0.021	
26.900	-0.182	-0.038	
26.905	0.613	-0.052	
26.910	-0.370	-0.018	
26.915	-0.445	-0.024	
26.920	0.564	-0.055	
26.925	-0.050	-0.031	
26.930	-0.532	-0.017	
26.935	0.248	-0.046	
26.940	0.351	-0.038	
26.945	-0.520	-0.007	
26.950	-0.159	-0.030	
26.955	0.616	-0.045	
26.960	-0.361	-0.012	
26.965	-0.430	-0.018	
26.970	0.552	-0.049	
26.975	-0.082	-0.027	
26.980	-0.557	-0.020	
26.985	0.227	-0.057	
26.990	0.331	-0.054	
26.995	-0.526	-0.026	
27.000	-0.159	-0.048	
27.005	0.639	-0.059	
27.010	-0.363	-0.019	
27.015	-0.435	-0.020	
27.020	0.552	-0.048	
27.025	-0.055	-0.025	
27.030	-0.532	-0.013	
27.035	0.296	-0.043	
27.040	0.422	-0.027	
27.045	-0.497	0.015	
27.050	-0.120	0.001	
27.055	0.658	-0.010	
27.060	-0.348	0.026	
27.065	-0.416	0.018	
27.070	0.604	-0.016	
27.075	-0.044	0.005	
27.080	-0.491	0.015	
27.085	0.448	-0.009	
27.090	0.578	0.026	
27.095	-0.425	0.093	
27.100	-0.073	0.092	
27.105	0.776	0.085	
27.110	-0.255	0.122	
27.115	-0.302	0.116	
27.120	0.806	0.089	
27.125	0.125	0.126	
27.130	-0.421	0.150	
27.135	0.500	0.124	
27.140	0.541	0.140	
27.145	-0.454	0.174	
27.150	-0.125	0.136	
27.155	0.631	0.089	
27.160	-0.372	0.085	
27.165	-0.428	0.042	
27.170	0.538	-0.019	
27.175	-0.110	-0.020	
27.180	-0.550	-0.028	
27.185	0.247	-0.071	
27.190	0.309	-0.067	
27.195	-0.541	-0.038	
27.200	-0.171	-0.060	
27.205	0.567	-0.075	
27.210	-0.398	-0.042	
27.215	-0.419	-0.048	
27.220	0.774	-0.063	
27.225	0.436	0.013	
27.230	-0.038	0.122	
27.235	1.506	0.240	
27.240	1.508	0.460	
27.245	-0.143	0.685	
27.250	-0.005	0.726	
27.255	0.306	0.619	
27.260	-0.650	0.450	
27.265	-0.665	0.208	
27.270	0.183	-0.033	
27.275	-0.267	-0.171	
27.280	-0.648	-0.254	
27.285	0.169	-0.312	
27.290	0.267	-0.285	
27.295	-0.541	-0.211	
27.300	-0.130	-0.180	
27.305	0.645	-0.139	
27.310	-0.378	-0.057	
27.315	-0.395	-0.029	
27.320	0.651	-0.034	
27.325	-0.076	0.008	
27.330	-0.496	0.027	
27.335	0.441	0.003	
27.340	0.492	0.031	
27.345	-0.451	0.084	
27.350	-0.005	0.075	
27.355	0.826	0.074	
27.360	-0.258	0.124	
27.365	-0.293	0.126	
27.370	0.857	0.105	
27.375	0.152	0.148	
27.380	-0.370	0.178	
27.385	0.697	0.165	
27.390	0.809	0.213	
27.395	-0.268	0.291	
27.400	0.401	0.307	
27.405	1.273	0.342	
27.410	0.032	0.433	
27.415	0.037	0.461	
27.420	1.354	0.458	
27.425	0.602	0.526	
27.430	-0.180	0.572	
27.435	0.994	0.546	
27.440	0.973	0.561	
27.445	-0.270	0.588	
27.450	0.227	0.523	
27.455	0.947	0.447	
27.460	-0.274	0.412	
27.465	-0.334	0.322	
27.470	0.649	0.205	
27.475	-0.140	0.147	
27.480	-0.587	0.082	
27.485	0.187	-0.018	
27.490	0.189	-0.064	
27.495	-0.604	-0.077	
27.500	-0.226	-0.127	
27.505	0.381	-0.159	
27.510	-0.500	-0.143	
27.515	-0.497	-0.161	
27.520	0.427	-0.189	
27.525	-0.226	-0.162	
27.530	-0.613	-0.148	
27.535	0.186	-0.172	
27.540	0.180	-0.155	
27.545	-0.598	-0.121	
27.550	-0.175	-0.136	
27.555	0.550	-0.137	
27.560	-0.424	-0.089	
27.565	-0.428	-0.083	
27.570	0.524	-0.099	
27.575	-0.163	-0.068	
27.580	-0.557	-0.056	
27.585	0.297	-0.086	
27.590	0.245	-0.071	
27.595	-0.553	-0.040	
27.600	-0.099	-0.062	
27.605	0.643	-0.066	
27.610	-0.392	-0.019	
27.615	-0.393	-0.017	
27.620	0.579	-0.041	
27.625	-0.137	-0.016	
27.630	-0.549	-0.012	
27.635	0.322	-0.050	
27.640	0.338	-0.039	
27.645	-0.538	-0.006	
27.650	-0.125	-0.028	
27.655	0.581	-0.043	
27.660	-0.427	-0.015	
27.665	-0.412	-0.030	
27.670	0.604	-0.061	
27.675	-0.140	-0.035	
27.680	-0.534	-0.026	
27.685	0.370	-0.055	
27.690	0.335	-0.034	
27.695	-0.537	0.006	
27.700	-0.101	-0.014	
27.705	0.640	-0.026	
27.710	-0.383	0.010	
27.715	-0.378	0.002	
27.720	0.608	-0.026	
27.725	-0.137	-0.003	
27.730	-0.535	-0.000	
27.735	0.378	-0.037	
27.740	0.343	-0.023	
27.745	-0.531	0.013	
27.750	-0.090	-0.009	
27.755	0.637	-0.021	
27.760	-0.393	0.013	
27.765	-0.381	0.003	
27.770	0.608	-0.028	
27.775	-0.140	-0.006	
27.780	-0.555	-0.004	
27.785	0.361	-0.044	
27.790	0.360	-0.031	
27.795	-0.515	0.007	
27.800	-0.031	-0.008	
27.805	0.779	-0.004	
27.810	-0.316	0.054	
27.815	-0.325	0.065	
27.820	0.741	0.048	
27.825	-0.034	0.082	
27.830	-0.456	0.094	
27.835	0.552	0.064	
27.840	0.501	0.091	
27.845	-0.459	0.138	
27.850	0.041	0.118	
27.855	0.780	0.105	
27.860	-0.326	0.138	
27.865	-0.331	0.120	
27.870	0.686	0.075	
27.875	-0.134	0.080	
27.880	-0.553	0.062	
27.885	0.320	-0.001	
27.890	0.271	-0.015	
27.895	-0.572	-0.006	
27.900	-0.134	-0.047	
27.905	0.575	-0.070	
27.910	-0.436	-0.042	
27.915	-0.415	-0.054	
27.920	0.506	-0.084	
27.925	-0.195	-0.065	
27.930	-0.558	-0.064	
27.935	0.462	-0.091	
27.940	0.655	-0.040	
27.945	-0.191	0.065	
27.950	0.904	0.159	
27.955	1.730	0.331	
27.960	0.177	0.563	
27.965	-0.162	0.663	
27.970	0.558	0.608	
27.975	-0.404	0.494	
27.980	-0.845	0.297	
27.985	-0.168	0.041	
27.990	-0.108	-0.152	
27.995	-0.686	-0.269	
28.000	-0.201	-0.354	
28.005	0.477	-0.359	
28.010	-0.462	-0.281	
28.015	-0.409	-0.231	
28.020	0.619	-0.194	
28.025	-0.148	-0.109	
28.030	-0.528	-0.056	
28.035	0.442	-0.055	
28.040	0.413	-0.009	
28.045	-0.471	0.052	
28.050	0.073	0.052	
28.055	0.779	0.063	
28.060	-0.334	0.116	
28.065	-0.293	0.113	
28.070	0.828	0.086	
28.075	-0.017	0.119	
28.080	-0.425	0.130	
28.085	0.671	0.103	
28.090	0.627	0.141	
28.095	-0.364	0.206	
28.100	0.344	0.211	
28.105	1.137	0.242	
28.110	-0.156	0.326	
28.115	-0.084	0.342	
28.120	1.273	0.330	
28.125	0.465	0.398	
28.130	-0.154	0.453	
28.135	1.175	0.458	
28.140	1.111	0.528	
28.145	-0.127	0.616	
28.150	0.700	0.618	
28.155	1.352	0.626	
28.160	-0.072	0.668	
28.165	-0.073	0.618	
28.170	1.062	0.518	
28.175	0.105	0.473	
28.180	-0.392	0.404	
28.185	0.639	0.294	
28.190	0.434	0.246	
28.195	-0.515	0.223	
28.200	-0.066	0.140	
28.205	0.576	0.070	
28.210	-0.436	0.053	
28.215	-0.399	0.002	
28.220	0.579	-0.053	
28.225	-0.191	-0.044	
28.230	-0.573	-0.049	
28.235	0.283	-0.091	
28.240	0.210	-0.085	
28.245	-0.567	-0.061	
28.250	-0.087	-0.084	
28.255	0.588	-0.087	
28.260	-0.427	-0.042	
28.265	-0.383	-0.042	
28.270	0.622	-0.060	
28.275	-0.166	-0.026	
28.280	-0.521	-0.015	
28.285	0.428	-0.043	
28.290	0.334	-0.018	
28.295	-0.517	0.024	
28.300	0.001	0.008	
28.305	0.687	0.007	
28.310	-0.381	0.051	
28.315	-0.320	0.045	
28.320	0.719	0.020	
28.325	-0.116	0.050	
28.330	-0.483	0.056	
28.335	0.526	0.023	
28.340	0.430	0.048	
28.345	-0.479	0.094	
28.350	0.070	0.078	
28.355	0.751	0.075	
28.360	-0.357	0.115	
28.365	-0.313	0.101	
28.370	0.744	0.065	
28.375	-0.101	0.085	
28.380	-0.459	0.082	
28.385	0.575	0.046	
28.390	0.434	0.071	
28.395	-0.471	0.115	
28.400	0.084	0.096	
28.405	0.785	0.091	
28.410	-0.339	0.133	
28.415	-0.284	0.120	
28.420	0.815	0.088	
28.425	-0.067	0.115	
28.430	-0.445	0.118	
28.435	0.587	0.080	
28.440	0.437	0.101	
28.445	-0.471	0.138	
28.450	0.076	0.111	
28.455	0.768	0.098	
28.460	-0.326	0.133	
28.465	-0.270	0.118	
28.470	0.831	0.088	
28.475	-0.017	0.120	
28.480	-0.410	0.131	
28.485	0.681	0.106	
28.490	0.587	0.145	
28.495	-0.386	0.205	
28.500	0.244	0.199	
28.505	0.902	0.206	
28.510	-0.271	0.253	
28.515	-0.195	0.238	
28.520	0.968	0.200	
28.525	0.032	0.226	
28.530	-0.404	0.227	
28.535	0.645	0.179	
28.540	0.451	0.184	
28.545	-0.467	0.202	
28.550	0.087	0.156	
28.555	0.745	0.125	
28.560	-0.361	0.143	
28.565	-0.293	0.113	
28.570	0.747	0.068	
28.575	-0.124	0.083	
28.580	-0.468	0.077	
28.585	0.569	0.037	
28.590	0.390	0.059	
28.595	-0.488	0.099	
28.600	0.047	0.075	
28.605	0.794	0.068	
28.610	-0.168	0.120	
28.615	0.261	0.157	
28.620	1.884	0.249	
28.625	1.050	0.483	
28.630	0.166	0.700	
28.635	1.125	0.793	
28.640	0.441	0.825	
28.645	-0.665	0.750	
28.650	-0.303	0.520	
28.655	0.146	0.259	
28.660	-0.596	0.054	
28.665	-0.457	-0.125	
28.670	0.541	-0.235	
28.675	-0.194	-0.226	
28.680	-0.520	-0.197	
28.685	0.486	-0.180	
28.690	0.402	-0.100	
28.695	-0.462	-0.003	
28.700	0.157	0.028	
28.705	0.828	0.069	
28.710	-0.299	0.147	
28.715	-0.203	0.159	
28.720	0.934	0.146	
28.725	-0.005	0.190	
28.730	-0.386	0.201	
28.735	0.759	0.169	
28.740	0.594	0.201	
28.745	-0.370	0.253	
28.750	0.335	0.240	
28.755	1.003	0.250	
28.760	-0.224	0.306	
28.765	-0.099	0.298	
28.770	1.133	0.272	
28.775	0.241	0.320	
28.780	-0.238	0.348	
28.785	1.107	0.338	
28.790	0.971	0.406	
28.795	-0.160	0.498	
28.800	0.784	0.518	
28.805	1.442	0.563	
28.810	0.035	0.652	
28.815	0.210	0.655	
28.820	1.418	0.622	
28.825	0.407	0.651	
28.830	-0.215	0.637	
28.835	0.956	0.556	
28.840	0.671	0.523	
28.845	-0.378	0.499	
28.850	0.161	0.398	
28.855	0.715	0.306	
28.860	-0.419	0.258	
28.865	-0.360	0.164	
28.870	0.558	0.061	
28.875	-0.273	0.022	
28.880	-0.614	-0.030	
28.885	0.223	-0.108	
28.890	0.053	-0.133	
28.895	-0.624	-0.134	
28.900	-0.131	-0.170	
28.905	0.422	-0.179	
28.910	-0.520	-0.141	
28.915	-0.427	-0.144	
28.920	0.462	-0.162	
28.925	-0.294	-0.131	
28.930	-0.619	-0.126	
28.935	0.280	-0.158	
28.940	0.148	-0.141	
28.945	-0.590	-0.107	
28.950	-0.093	-0.122	
28.955	0.491	-0.121	
28.960	-0.480	-0.079	
28.965	-0.384	-0.083	
28.970	0.529	-0.103	
28.975	-0.250	-0.074	
28.980	-0.553	-0.071	
28.985	0.396	-0.100	
28.990	0.207	-0.076	
28.995	-0.553	-0.038	
29.000	-0.023	-0.055	
29.005	0.569	-0.054	
29.010	-0.444	-0.013	
29.015	-0.343	-0.021	
29.020	0.648	-0.043	
29.025	-0.197	-0.011	
29.030	-0.528	-0.006	
29.035	0.434	-0.040	
29.040	0.245	-0.022	
29.045	-0.537	0.008	
29.050	-0.029	-0.018	
29.055	0.547	-0.029	
29.060	-0.451	-0.001	
29.065	-0.328	-0.019	
29.070	0.651	-0.045	
29.075	-0.209	-0.014	
29.080	-0.518	-0.010	
29.085	0.437	-0.043	
29.090	0.195	-0.026	
29.095	-0.557	-0.000	
29.100	-0.011	-0.030	
29.105	0.596	-0.039	
29.110	-0.415	-0.000	
29.115	-0.296	-0.006	
29.120	0.742	-0.020	
29.125	-0.142	0.025	
29.130	-0.453	0.043	
29.135	0.620	0.024	
29.140	0.430	0.067	
29.145	-0.456	0.122	
29.150	0.219	0.115	
29.155	0.838	0.128	
29.160	-0.323	0.184	
29.165	-0.223	0.175	
29.170	0.870	0.144	
29.175	-0.093	0.167	
29.180	-0.436	0.160	
29.185	0.535	0.106	
29.190	0.274	0.103	
29.195	-0.524	0.108	
29.200	0.037	0.056	
29.205	0.627	0.029	
29.210	-0.406	0.050	
29.215	-0.276	0.031	
29.220	0.732	0.005	
29.225	-0.180	0.038	
29.230	-0.491	0.041	
