Time	Potential	EKG	Unnamed: 3
0.0	0.209	0.012735389165780686	
0.005	-0.203	0.01811523253069681	
0.01	-0.185	0.007051461207979774	
0.015	0.238	-0.011912940396533242	
0.02	-0.117	-0.02113023386745078	
0.025	-0.261	-0.030415480476452282	
0.03	0.168	-0.042654961470247776	
0.035	0.125	-0.03968002677909896	
0.04	-0.249	-0.026738231281014144	
0.045	-0.044	-0.023835874284447993	
0.05	0.215	-0.026999327165477666	
0.055	-0.194	-0.023724610737485274	
0.06	-0.151	-0.023622709247223227	
0.065	0.271	-0.025705756615530755	
0.07	-0.066	-0.018219503768079688	
0.075	-0.233	-0.013504820230844018	
0.08	0.137	-0.01592345952663555	
0.085	0.102	-0.017111017576214835	
0.09	-0.232	-0.013785343752085908	
0.095	-0.023	-0.015731652860104695	
0.1	0.247	-0.01705816812649493	
0.105	-0.185	-0.013394422226580206	
0.11	-0.172	-0.012113775086291353	
0.115	0.267	-0.01677443555376141	
0.12	-0.050	-0.014323271009941702	
0.125	-0.218	-0.010322425896051953	
0.13	0.218	-0.007313610007093482	
0.135	0.163	0.003302313317042368	
0.14	-0.226	0.016382129074599128	
0.145	0.026	0.022377116129553974	
0.15	0.302	0.023658811109409806	
0.155	-0.162	0.029062806336922827	
0.16	-0.124	0.03053888133744188	
0.165	0.355	0.0289516975884507	
0.17	0.001	0.03556569777566355	
0.175	-0.171	0.04406262671014839	
0.18	0.294	0.050161118122285214	
0.185	0.212	0.0625876978360473	
0.19	-0.177	0.07576412800314339	
0.195	0.097	0.0804833782636313	
0.2	0.344	0.08317028286938294	
0.205	-0.127	0.08565565634889821	
0.21	-0.090	0.08130172379781178	
0.215	0.387	0.0754677245518343	
0.22	0.023	0.0754824764239598	
0.225	-0.169	0.07663280701157468	
0.23	0.297	0.07648723746312551	
0.235	0.221	0.08079483633328444	
0.24	-0.191	0.08534267547247691	
0.245	0.093	0.08553883575758153	
0.25	0.372	0.08353089898597835	
0.255	-0.128	0.08539936072202553	
0.26	-0.113	0.08212200827657036	
0.265	0.361	0.07380300406369217	
0.27	0.001	0.06744310325828956	
0.275	-0.183	0.0633512047709316	
0.28	0.290	0.060695483328416566	
0.285	0.235	0.06593149646172217	
0.29	-0.194	0.0740772989957605	
0.295	0.096	0.07857489920799902	
0.3	0.366	0.08074517708022144	
0.305	-0.099	0.08523887738321648	
0.31	-0.058	0.08903197402231991	
0.315	0.444	0.09200705047675846	
0.32	0.068	0.10240756812584918	
0.325	-0.145	0.11019101276023191	
0.33	0.351	0.11480715710726415	
0.335	0.294	0.12399771577890636	
0.34	-0.143	0.13394976706026068	
0.345	0.148	0.13758680746923457	
0.35	0.381	0.13683128016739454	
0.355	-0.119	0.13218264927869405	
0.36	-0.110	0.11898712592857252	
0.365	0.305	0.09704861724254496	
0.37	-0.099	0.07041103716507797	
0.375	-0.246	0.04016662470830618	
0.38	0.140	0.011813574711141365	
0.385	0.067	-0.010988000606904117	
0.39	-0.273	-0.02804465113646947	
0.395	-0.064	-0.03941499869369931	
0.4	0.178	-0.05117127215147246	
0.405	-0.198	-0.057802403633600376	
0.41	-0.154	-0.055990069540486215	
0.415	0.285	-0.046951976052094654	
0.42	-0.095	-0.03560322787954244	
0.425	-0.264	-0.028828803412574967	
0.43	0.101	-0.029184066181552535	
0.435	0.079	-0.0350132436777265	
0.44	-0.178	-0.03504108554991857	
0.445	0.386	-0.007355789196515123	
0.45	0.942	0.07587469252529651	
0.455	0.672	0.22321106183960085	
0.46	0.761	0.4070064539289879	
0.465	0.991	0.5769970387979662	
0.47	0.161	0.6713145762386232	
0.475	-0.325	0.6420927768729296	
0.48	-0.186	0.4927515619273206	
0.485	-0.252	0.27300090062832477	
0.49	-0.474	0.05302809011339066	
0.495	-0.233	-0.11436847216958364	
0.5	-0.017	-0.22218036526696702	
0.505	-0.277	-0.27476655893657387	
0.51	-0.224	-0.2749413573371722	
0.515	0.154	-0.24297191939713975	
0.52	-0.151	-0.20163020393833986	
0.525	-0.291	-0.16180243062432806	
0.53	0.131	-0.12515955458495934	
0.535	0.046	-0.09504329854393337	
0.54	-0.262	-0.07207892011804398	
0.545	-0.053	-0.056355250105317764	
0.55	0.177	-0.04916833716772343	
0.555	-0.215	-0.046889469266039985	
0.56	-0.148	-0.044965582902732434	
0.565	0.395	-0.03286260325881342	
0.57	-0.015	-0.008660529798249716	
0.575	-0.235	0.013110308785548714	
0.58	0.171	0.021900851131674396	
0.585	0.101	0.019993682918835673	
0.59	-0.256	0.012853652177038545	
0.595	-0.044	0.002656404277087706	
0.6	0.194	-0.012114176719751627	
0.605	-0.206	-0.02592005155665361	
0.61	-0.153	-0.03398222995038172	
0.615	0.290	-0.0328308881650395	
0.62	-0.056	-0.02667933279587023	
0.625	-0.212	-0.017900814468587413	
0.63	0.226	-0.006044327197546128	
0.635	0.165	0.006992386422133736	
0.64	-0.197	0.020802476146679686	
0.645	0.120	0.03569379106745105	
0.65	0.396	0.053930217613100205	
0.655	-0.089	0.0760231573347333	
0.66	-0.031	0.09298998250121066	
0.665	0.489	0.10821704054808844	
0.67	0.119	0.12832092423854688	
0.675	-0.105	0.145058861706313	
0.68	0.459	0.15895564298108053	
0.685	0.415	0.18102952679043144	
0.69	-0.049	0.20781809217243982	
0.695	0.340	0.22963509953227124	
0.7	0.588	0.2519087735340355	
0.705	0.046	0.2731164774779355	
0.71	0.119	0.2819629210786866	
0.715	0.620	0.28408933170774214	
0.72	0.247	0.28943071057984937	
0.725	-0.020	0.29216002950691183	
0.73	0.503	0.28674861750963276	
0.735	0.361	0.2820193261403726	
0.74	-0.131	0.27105814278295903	
0.745	0.122	0.2414749026288455	
0.75	0.285	0.19870337998739512	
0.755	-0.206	0.14841862268234052	
0.76	-0.209	0.09201660914858649	
0.765	0.076	0.02972413247725303	
0.77	-0.235	-0.03541201832032135	
0.775	-0.389	-0.09453561352148333	
0.78	-0.120	-0.14457641774132823	
0.785	-0.194	-0.19108772458749482	
0.79	-0.470	-0.23153401044712746	
0.795	-0.291	-0.2586181346623445	
0.8	-0.160	-0.2826043346512811	
0.805	-0.454	-0.30530403755258306	
0.81	-0.416	-0.3178365336617902	
0.815	-0.156	-0.32459223457222147	
0.82	-0.332	-0.33236493999344596	
0.825	-0.441	-0.3302801671460486	
0.83	-0.149	-0.3177493668576398	
0.835	-0.191	-0.30622222428277135	
0.84	-0.436	-0.29633384414482156	
0.845	-0.252	-0.28161496924869633	
0.85	-0.111	-0.27378015533167416	
0.855	-0.383	-0.2722428031857492	
0.86	-0.326	-0.2657274668154525	
0.865	-0.005	-0.25467771272776174	
0.87	-0.238	-0.24442630881632366	
0.875	-0.355	-0.23020336155458537	
0.88	-0.029	-0.21171905348827455	
0.885	-0.096	-0.19830335145739403	
0.89	-0.361	-0.18835528238674862	
0.895	-0.149	-0.17852201395938194	
0.9	0.046	-0.17178185416755432	
0.905	-0.305	-0.1673479476494397	
0.91	-0.261	-0.16067799582329945	
0.915	0.099	-0.15458579011146736	
0.92	-0.177	-0.1495391548745098	
0.925	-0.306	-0.14324706720377314	
0.93	0.009	-0.1355677958085953	
0.935	-0.070	-0.13434839155014128	
0.94	-0.314	-0.13649852094076897	
0.945	-0.090	-0.13337679686592413	
0.95	0.102	-0.12769943258782523	
0.955	-0.264	-0.1225554074366215	
0.96	-0.215	-0.1156455301797062	
0.965	0.194	-0.10637512938296856	
0.97	-0.122	-0.09569510095363849	
0.975	-0.250	-0.08438161689140043	
0.98	0.160	-0.07032032189303768	
0.985	0.078	-0.05534232582522784	
0.99	-0.255	-0.04175536630404873	
0.995	0.014	-0.030241172261196915	
1.0	0.261	-0.02052710351273286	
1.005	-0.172	-0.009794382938198638	
1.01	-0.139	-0.0016769812453885644	
1.015	0.296	0.0038723541966844566	
1.02	-0.043	0.007179300068235456	
1.025	-0.178	0.012451219621522288	
1.03	0.320	0.023913443689143627	
1.035	0.256	0.04569206500427778	
1.04	-0.146	0.07300633421057715	
1.045	0.194	0.09587029452950184	
1.05	0.431	0.11863028207561704	
1.055	-0.079	0.13700139286107718	
1.06	-0.023	0.1452846997564658	
1.065	0.488	0.14607520405644628	
1.07	0.151	0.15410714679309628	
1.075	-0.055	0.16632487581816027	
1.08	0.474	0.18003817900590552	
1.085	0.390	0.20071477542233093	
1.09	-0.053	0.22189323901358657	
1.095	0.363	0.23791420209394135	
1.1	0.634	0.25869102266467836	
1.105	0.110	0.2869594440582326	
1.11	0.198	0.30828206102258326	
1.115	0.662	0.3230782931382248	
1.12	0.300	0.33809880657811053	
1.125	0.072	0.3473502998040896	
1.13	0.622	0.3519928176903863	
1.135	0.501	0.3606927468346378	
1.14	0.004	0.3669907949533278	
1.145	0.393	0.359859959027516	
1.15	0.585	0.3505722533400763	
1.155	0.011	0.3401065136899185	
1.16	0.075	0.31432044734948894	
1.165	0.511	0.28285731523936875	
1.17	0.085	0.2532124777115792	
1.175	-0.127	0.21954735304950976	
1.18	0.360	0.1867236543539853	
1.185	0.224	0.16165269188435538	
1.19	-0.204	0.14034296988829204	
1.195	0.027	0.11267851690310365	
1.2	0.195	0.07729089583256381	
1.205	-0.235	0.04048697898916769	
1.21	-0.213	0.003401334582513281	
1.215	0.116	-0.03358452864989189	
1.22	-0.186	-0.06859655087210631	
1.225	-0.328	-0.0981012688362527	
1.23	-0.027	-0.12067531193788007	
1.235	-0.124	-0.14347177834029246	
1.24	-0.392	-0.16619152872469853	
1.245	-0.195	-0.18246112713082674	
1.25	-0.070	-0.19906353079042605	
1.255	-0.377	-0.21616506977720618	
1.26	-0.329	-0.22746229546634944	
1.265	-0.073	-0.23498760605271898	
1.27	-0.294	-0.24649142783910674	
1.275	-0.421	-0.2537970285754184	
1.28	-0.148	-0.25595013243271875	
1.285	-0.226	-0.2645946297557906	
1.29	-0.489	-0.2768840619077547	
1.295	-0.306	-0.2865303948324843	
1.3	-0.215	-0.3023005280688916	
1.305	-0.499	-0.3239848765543996	
1.31	-0.474	-0.3413602463355765	
1.315	-0.252	-0.3601942147114606	
1.32	-0.485	-0.3844781182654984	
1.325	-0.621	-0.40763878717913593	
1.33	-0.358	-0.42703299512356047	
1.335	-0.398	-0.44868056343324453	
1.34	-0.617	-0.4647732846392812	
1.345	-0.410	-0.46648449935304115	
1.35	-0.294	-0.46338897628116305	
1.355	-0.550	-0.46099753580775976	
1.36	-0.502	-0.45127735658644513	
1.365	-0.259	-0.44119017238491204	
1.37	-0.457	-0.4375708765367519	
1.375	-0.569	-0.4316225753117308	
1.38	-0.293	-0.42392058489577916	
1.385	-0.326	-0.42075255020671687	
1.39	-0.520	-0.4158896468010025	
1.395	-0.217	-0.39433194833367136	
1.4	0.187	-0.3493046099059679	
1.405	-0.046	-0.27117683775284407	
1.41	0.171	-0.15821652021780458	
1.415	0.570	-0.0279907118454468	
1.42	-0.095	0.08222209351316055	
1.425	-0.433	0.12218057410551741	
1.43	-0.367	0.07126026080378653	
1.435	-0.531	-0.05677709123495743	
1.44	-0.768	-0.21710814991413607	
1.445	-0.546	-0.3611693331078282	
1.45	-0.380	-0.4711595945503019	
1.455	-0.584	-0.5394197618480008	
1.46	-0.494	-0.5562002152026164	
1.465	-0.218	-0.5377149112636465	
1.47	-0.389	-0.5059174897711003	
1.475	-0.479	-0.4619160306662726	
1.48	-0.171	-0.41135304104898585	
1.485	-0.207	-0.36978705442516	
1.49	-0.428	-0.3345014670783939	
1.495	-0.212	-0.2979369619661405	
1.5	-0.050	-0.26993035602344995	
1.505	-0.337	-0.2509095805733531	
1.51	-0.253	-0.22822421219177208	
1.515	0.172	-0.19920735208454848	
1.52	-0.073	-0.1632221361084844	
1.525	-0.146	-0.11827328151655697	
1.53	0.441	-0.05579100786763078	
1.535	0.398	0.024282929027792517	
1.54	-0.023	0.10889355484608265	
1.545	0.401	0.18134102332703336	
1.55	0.651	0.24650392454568243	
1.555	0.145	0.3035593852628349	
1.56	0.253	0.34264073189616395	
1.565	0.748	0.3713513369301559	
1.57	0.367	0.3965664031902628	
1.575	0.152	0.41530287779461605	
1.58	0.700	0.42561458592412943	
1.585	0.598	0.4384124099973924	
1.59	0.145	0.45144302962096194	
1.595	0.572	0.458494671081024	
1.6	0.800	0.4708418890047052	
1.605	0.262	0.4862450344950352	
1.61	0.413	0.4975330387695817	
1.615	0.944	0.5127143178705893	
1.62	0.578	0.5404825950157204	
1.625	0.334	0.570043351362266	
1.63	0.890	0.5938288676338641	
1.635	0.812	0.6175171887271722	
1.64	0.319	0.6382020226304627	
1.645	0.729	0.64952536812639	
1.65	0.992	0.6590173044146471	
1.655	0.447	0.6721313532999165	
1.66	0.540	0.6794512076722345	
1.665	1.008	0.6828282326494756	
1.67	0.607	0.6854715177933098	
1.675	0.349	0.6829596204336787	
1.68	0.860	0.670869139927637	
1.685	0.715	0.6565501521535542	
1.69	0.168	0.6341669606549201	
1.695	0.482	0.5945042200926911	
1.7	0.625	0.5430154351926414	
1.705	-0.006	0.48115302934790777	
1.71	0.020	0.4044436132945004	
1.715	0.424	0.3207747638619758	
1.72	-0.046	0.24051997184823248	
1.725	-0.233	0.16502981037502013	
1.73	0.126	0.09477897445226222	
1.735	-0.011	0.030535188101466805	
1.74	-0.305	-0.023686221406535913	
1.745	-0.093	-0.061523246934471885	
1.75	0.041	-0.09208844954615267	
1.755	-0.300	-0.12073654163606719	
1.76	-0.236	-0.13548677450685076	
1.765	0.116	-0.141333862135833	
1.77	-0.172	-0.14348418593849493	
1.775	-0.281	-0.137883607584683	
1.78	0.114	-0.12324355539621354	
1.785	0.011	-0.10852483317201611	
1.79	-0.290	-0.09568093578849182	
1.795	-0.041	-0.08148975061337385	
1.8	0.174	-0.0731000859600269	
1.805	-0.235	-0.06679308118374082	
1.81	-0.165	-0.06047038155053202	
1.815	0.258	-0.05227687834643237	
1.82	-0.090	-0.044543852427862504	
1.825	-0.221	-0.035931255334402626	
1.83	0.223	-0.023151855208717508	
1.835	0.131	-0.009523567590208278	
1.84	-0.233	0.002214329160206835	
1.845	0.085	0.014571004986879752	
1.85	0.329	0.026985359053796912	
1.855	-0.130	0.04009837985003981	
1.86	-0.055	0.053501441154584356	
1.865	0.434	0.06685150418153962	
1.87	0.027	0.08141141256736621	
1.875	-0.143	0.09295916114834696	
1.88	0.384	0.10394893885826954	
1.885	0.288	0.11852931304042028	
1.89	-0.137	0.13409265174535473	
1.895	0.197	0.14458320407871908	
1.9	0.422	0.1510815494434002	
1.905	-0.095	0.15403012883363526	
1.91	-0.031	0.14944316039012392	
1.915	0.441	0.1409315410765936	
1.92	0.059	0.13442488610023334	
1.925	-0.133	0.12989482558144294	
1.93	0.354	0.12596750370178234	
1.935	0.227	0.124569090736172	
1.94	-0.168	0.12306328499800982	
1.945	0.187	0.12156796047123436	
1.95	0.413	0.12311852401330808	
1.955	-0.105	0.12704202850847063	
1.96	-0.046	0.12641018111458535	
1.965	0.431	0.12092431962861847	
1.97	0.024	0.11646082158537216	
1.975	-0.151	0.11189155781213686	
1.98	0.349	0.10792276547262233	
1.985	0.258	0.10959599018852528	
1.99	-0.165	0.11511475487973308	
1.995	0.160	0.11850760640500094	
2.0	0.390	0.12007688989295669	
2.005	-0.113	0.12113215335487192	
2.01	-0.037	0.11841134169738954	
2.015	0.430	0.11382166363121217	
2.02	0.029	0.11252408815520697	
2.025	-0.145	0.10997261721486418	
2.03	0.373	0.10979933042539686	
2.035	0.271	0.11558262590949912	
2.04	-0.133	0.12626524837598263	
2.045	0.186	0.1354279247670026	
2.05	0.387	0.1399563273933842	
2.055	-0.120	0.1392887425780412	
2.06	-0.061	0.1304365832960199	
2.065	0.416	0.11763078751835178	
2.07	0.018	0.10861893081068746	
2.075	-0.151	0.10112392481841376	
2.08	0.323	0.09660364381527489	
2.085	0.177	0.09353721020644609	
2.09	-0.200	0.09049251308532652	
2.095	0.087	0.08332911532765283	
2.1	0.279	0.07177924372897665	
2.105	-0.171	0.06051082430266935	
2.11	-0.110	0.048497163973955565	
2.115	0.317	0.0373694950132073	
2.12	-0.067	0.028715783415438352	
2.125	-0.195	0.022332551423331053	
2.13	0.235	0.019378095538773232	
2.135	0.114	0.019463845674891685	
2.14	-0.238	0.019769493230828848	
2.145	0.024	0.017234887980619628	
2.15	0.226	0.011556137525927438	
2.155	-0.206	0.0037433742602241728	
2.16	-0.133	-0.0024205406407088854	
2.165	0.288	-0.006913032975952556	
2.17	-0.092	-0.008190711443686003	
2.175	-0.236	-0.010445295964148978	
2.18	0.140	-0.013862514993200003	
2.185	-0.009	-0.024623485546470474	
2.19	-0.313	-0.039947302820782155	
2.195	-0.108	-0.058852327038972196	
2.2	0.041	-0.0826700167456541	
2.205	-0.308	-0.10903670341848315	
2.21	-0.259	-0.12832629334728454	
2.215	0.033	-0.14417455934212287	
2.22	-0.227	-0.16013205151119475	
2.225	-0.348	-0.17123032902237767	
2.23	-0.046	-0.17502232888567087	
2.235	-0.119	-0.1827230857424461	
2.24	-0.377	-0.18974756957007757	
2.245	-0.180	-0.19085627256583024	
2.25	-0.076	-0.19683399515831332	
2.255	-0.349	-0.20896599560192267	
2.26	-0.262	-0.2122232610742228	
2.265	0.190	-0.19925108406372571	
2.27	0.008	-0.1671602780367043	
2.275	0.096	-0.1021328841140085	
2.28	0.907	0.01303276461623479	
2.285	0.793	0.1802557238642248	
2.29	0.110	0.342202137893653	
2.295	0.210	0.43205729698957274	
2.3	-0.006	0.41610408423767065	
2.305	-0.512	0.3040345067565499	
2.31	-0.543	0.1317351051422045	
2.315	-0.294	-0.05829673526668442	
2.32	-0.430	-0.22907858096411504	
2.325	-0.488	-0.3430839048695389	
2.33	-0.168	-0.3940643691317684	
2.335	-0.197	-0.4057598266591884	
2.34	-0.409	-0.38766738123026456	
2.345	-0.172	-0.3458445803986189	
2.35	-0.021	-0.3008801488013936	
2.355	-0.334	-0.26296664311211443	
2.36	-0.268	-0.22721192144520225	
2.365	0.052	-0.19926461961657096	
2.37	-0.206	-0.1822116197677515	
2.375	-0.308	-0.16716808434103264	
2.38	0.065	-0.1499420688617555	
2.385	-0.031	-0.13579823312571324	
2.39	-0.297	-0.12384949278112513	
2.395	-0.043	-0.10972128683486033	
2.4	0.151	-0.09675199352248487	
2.405	-0.246	-0.08618040693677209	
2.41	-0.163	-0.07521577993970549	
2.415	0.271	-0.06401479419032827	
2.42	-0.098	-0.05034355141672241	
2.425	-0.210	-0.036344900355829914	
2.43	0.255	-0.020696909980977053	
2.435	0.174	0.0002426795083662304	
2.44	-0.195	0.02188534034599236	
2.445	0.113	0.041392540997196366	
2.45	0.367	0.05743525866505709	
2.455	-0.101	0.07459851342877225	
2.46	0.001	0.0897382147548303	
2.465	0.495	0.10622318792670873	
2.47	0.134	0.129562019837014	
2.475	-0.049	0.15349291512830698	
2.48	0.508	0.1774836125998003	
2.485	0.404	0.20628124059002045	
2.49	-0.032	0.23469898069691714	
2.495	0.392	0.25646300932254557	
2.5	0.616	0.2795586132280036	
2.505	0.091	0.3024737038310521	
2.51	0.244	0.31969646098448345	
2.515	0.739	0.33733970278532355	
2.52	0.346	0.3615426336892463	
2.525	0.128	0.3824103904289512	
2.53	0.698	0.396514743015028	
2.535	0.588	0.4153293286318519	
2.54	0.101	0.43167779124923483	
2.545	0.524	0.43841156166073003	
2.55	0.722	0.44357132952074474	
2.555	0.128	0.44554700595077784	
2.56	0.171	0.4306404935371132	
2.565	0.576	0.3992282233320126	
2.57	0.119	0.35865040505422846	
2.575	-0.113	0.3094856313627589	
2.58	0.309	0.2513306930061211	
2.585	0.091	0.1913398222120366	
2.59	-0.262	0.13088929938278232	
2.595	-0.081	0.06928323777578278	
2.6	0.029	0.00541523149583987	
2.605	-0.328	-0.05821594110855643	
2.61	-0.293	-0.10829745844873415	
2.615	-0.044	-0.15100478039906876	
2.62	-0.264	-0.1902566106422373	
2.625	-0.372	-0.21431604694498338	
2.63	-0.081	-0.22282630166904763	
2.635	-0.154	-0.22974510815533541	
2.64	-0.403	-0.23393573485015134	
2.645	-0.186	-0.22871487847420857	
2.65	-0.061	-0.226718815461811	
2.655	-0.337	-0.2281811914284675	
2.66	-0.262	-0.21920973744656677	
2.665	0.078	-0.2050441316397727	
2.67	-0.192	-0.1903360845341544	
2.675	-0.284	-0.1712858800502089	
2.68	0.105	-0.1467476111146967	
2.685	-0.015	-0.1238103868407285	
2.69	-0.291	-0.10602432267948414	
2.695	-0.046	-0.09060767135880424	
2.7	0.163	-0.08067159862616752	
2.705	-0.217	-0.07233439316156894	
2.71	-0.134	-0.06018185731100403	
2.715	0.303	-0.045893499296274703	
2.72	-0.087	-0.028456538465976462	
2.725	-0.201	-0.01438253427776163	
2.73	0.268	-0.0005736220019036252	
2.735	0.163	0.016188559263420194	
2.74	-0.191	0.03381172053001928	
2.745	0.120	0.04849490227141297	
2.75	0.343	0.061427961362840296	
2.755	-0.117	0.07350947569613461	
2.76	0.000	0.08381078585122417	
2.765	0.521	0.09825352319039848	
2.77	0.149	0.12548063589224379	
2.775	-0.046	0.15553727390269184	
2.78	0.509	0.1825197497691376	
2.785	0.404	0.21219510393407853	
2.79	-0.052	0.2397369246617257	
2.795	0.340	0.2555216639811073	
2.8	0.546	0.2664481390938884	
2.805	0.011	0.2744898421126464	
2.81	0.126	0.27281378328413974	
2.815	0.587	0.2672192354139042	
2.82	0.157	0.2654873983935897	
2.825	-0.044	0.25959402911328533	
2.83	0.486	0.24844810159950453	
2.835	0.325	0.24216534197274564	
2.84	-0.119	0.2348707033256004	
2.845	0.206	0.21846597634864456	
2.85	0.340	0.19531122036556914	
2.855	-0.130	0.16765341076847082	
2.86	-0.050	0.13787523057126738	
2.865	0.372	0.11099873986803796	
2.87	-0.058	0.08957085814430155	
2.875	-0.194	0.0697921653078179	
2.88	0.248	0.05223591979685466	
2.885	0.085	0.03909305233789892	
2.89	-0.239	0.027145772588813843	
2.895	0.012	0.015375386365356233	
2.9	0.169	0.0010942375079887488	
2.905	-0.232	-0.015110222898509676	
2.91	-0.156	-0.028048580339885155	
2.915	0.227	-0.03828666772304404	
2.92	-0.140	-0.04432933626442906	
2.925	-0.264	-0.0509868214377394	
2.93	0.102	-0.056004692225667	
2.935	-0.027	-0.06498559962142422	
2.94	-0.310	-0.0755767635382453	
2.945	-0.078	-0.08471638792737118	
2.95	0.113	-0.09311244091161235	
2.955	-0.249	-0.09888828922204057	
2.96	-0.180	-0.09697807543218698	
2.965	0.130	-0.0945441441561041	
2.97	-0.180	-0.09625483555970737	
2.975	-0.276	-0.09879352534212105	
2.98	0.096	-0.09818048843338457	
2.985	-0.027	-0.0970561446688865	
2.99	-0.287	-0.09537177770873209	
2.995	-0.037	-0.09076757267984684	
3.0	0.131	-0.08627024398222548	
3.005	-0.244	-0.08175694661639035	
3.01	-0.174	-0.07792050341879787	
3.015	0.157	-0.07570312743476082	
3.02	-0.186	-0.07821306856580057	
3.025	-0.293	-0.08467531773352015	
3.03	0.085	-0.0902961748918483	
3.035	-0.047	-0.09709667743507222	
3.04	-0.306	-0.1022385315759696	
3.045	-0.066	-0.10380979485281253	
3.05	0.090	-0.1053671648859532	
3.055	-0.285	-0.10766060400519527	
3.06	-0.230	-0.10989041865651912	
3.065	0.104	-0.114808111753435	
3.07	-0.203	-0.12117526939826231	
3.075	-0.311	-0.1265952427167627	
3.08	0.059	-0.1283698223174739	
3.085	-0.053	-0.1291255696518649	
3.09	-0.279	-0.1261550167262523	
3.095	0.125	-0.10781533873836557	
3.1	0.579	-0.05839385190070698	
3.105	0.303	0.03743082403682918	
3.11	0.575	0.17114462566542335	
3.115	0.966	0.32211028504409267	
3.12	0.323	0.4518129732663419	
3.125	-0.180	0.5023803873894264	
3.13	-0.125	0.44046168769726374	
3.135	-0.367	0.2798299079220729	
3.14	-0.611	0.0759851907796527	
3.145	-0.367	-0.11384250581721206	
3.15	-0.223	-0.2625097929731298	
3.155	-0.453	-0.35746414615621896	
3.16	-0.363	-0.39577274144440655	
3.165	-0.116	-0.3960067217014427	
3.17	-0.326	-0.38015657193271585	
3.175	-0.409	-0.35340246321210383	
3.18	-0.111	-0.31948437125670326	
3.185	-0.201	-0.29426048428711404	
3.19	-0.445	-0.27699964233501545	
3.195	-0.218	-0.26278809114445506	
3.2	-0.113	-0.25760385282318476	
3.205	-0.395	-0.25858096991522783	
3.21	-0.340	-0.2567076787506024	
3.215	-0.102	-0.2579530967722323	
3.22	-0.310	-0.26529577245284675	
3.225	-0.396	-0.26741183590070405	
3.23	-0.089	-0.2613046362404521	
3.235	-0.160	-0.2563379417666375	
3.24	-0.377	-0.24815422860189645	
3.245	-0.134	-0.2305834774902297	
3.25	0.027	-0.21252754160690807	
3.255	-0.300	-0.1948573663613235	
3.26	-0.215	-0.17462561734041604	
3.265	0.207	-0.15068322455515687	
3.27	-0.131	-0.12353709679192598	
3.275	-0.198	-0.0955606316535709	
3.28	0.314	-0.05996162114905482	
3.285	0.192	-0.015374609580071242	
3.29	-0.166	0.028514837698503433	
3.295	0.213	0.0636220530221003	
3.3	0.405	0.09566573120292816	
3.305	-0.072	0.12483247900628215	
3.31	0.110	0.14535477707342087	
3.315	0.614	0.16961078634199706	
3.32	0.207	0.20533342389014136	
3.325	0.056	0.2392472154233241	
3.33	0.640	0.2702330241312057	
3.335	0.517	0.3076825926260012	
3.34	0.073	0.3443319797467085	
3.345	0.517	0.36965817716174687	
3.35	0.680	0.39178603621301933	
3.355	0.151	0.4107635042050597	
3.36	0.326	0.41728724287146557	
3.365	0.790	0.42266111221519326	
3.37	0.337	0.43437856659548535	
3.375	0.091	0.4362010649789375	
3.38	0.620	0.42215405622905494	
3.385	0.450	0.40774371499196516	
3.39	-0.047	0.38742511860842266	
3.395	0.291	0.35152017752576614	
3.4	0.366	0.3067190833675568	
3.405	-0.172	0.25397853007778565	
3.41	-0.143	0.18824275227632253	
3.415	0.169	0.11241004368509479	
3.42	-0.220	0.03857354498452354	
3.425	-0.339	-0.029603999364361692	
3.43	-0.072	-0.08914587056928154	
3.435	-0.174	-0.1442713383703146	
3.44	-0.422	-0.18922827088504873	
3.445	-0.210	-0.21762838513462154	
3.45	-0.116	-0.23950977242764734	
3.455	-0.401	-0.25772444310174886	
3.46	-0.328	-0.2646801409582573	
3.465	-0.087	-0.2668872980270979	
3.47	-0.308	-0.2713317799984494	
3.475	-0.393	-0.26939809261413655	
3.48	-0.098	-0.26134071150934607	
3.485	-0.178	-0.2563522916801476	
3.49	-0.401	-0.25204127000753046	
3.495	-0.183	-0.24066996761081372	
3.5	-0.066	-0.23465009105374887	
3.505	-0.349	-0.23064057596847923	
3.51	-0.261	-0.22161427576080595	
3.515	0.044	-0.2089725101863435	
3.52	-0.256	-0.19935586845062853	
3.525	-0.332	-0.1903401939572123	
3.53	0.021	-0.18033507149153682	
3.535	-0.095	-0.1713972457038519	
3.54	-0.328	-0.16304764516933076	
3.545	-0.064	-0.1516216601593139	
3.55	0.122	-0.1376446671984029	
3.555	-0.258	-0.12169390349145492	
3.56	-0.175	-0.10560375779815925	
3.565	0.218	-0.09092416138123094	
3.57	-0.146	-0.07739308280627008	
3.575	-0.250	-0.06637217567061354	
3.58	0.184	-0.05828296727018675	
3.585	0.052	-0.047393631211622315	
3.59	-0.256	-0.03709571418754741	
3.595	0.008	-0.030606262177200538	
3.6	0.169	-0.029627337266435516	
3.605	-0.229	-0.030722920831400415	
3.61	-0.139	-0.033597986624547264	
3.615	0.206	-0.0369058182153473	
3.62	-0.157	-0.0424119660164528	
3.625	-0.250	-0.049370707199155525	
3.63	0.120	-0.055263247284642304	
3.635	-0.024	-0.062411570989013475	
3.64	-0.287	-0.06910647471723202	
3.645	-0.031	-0.07357205209283812	
3.65	0.096	-0.07762272736482592	
3.655	-0.287	-0.08376121184079854	
3.66	-0.220	-0.09158724588699066	
3.665	0.142	-0.09986764773332621	
3.67	-0.195	-0.1074390916313064	
3.675	-0.296	-0.11139235503758278	
3.68	0.067	-0.11421684989840541	
3.685	-0.095	-0.11841698511440943	
3.69	-0.343	-0.12515954935475834	
3.695	-0.120	-0.1315371315344554	
3.7	0.004	-0.14158985531612384	
3.705	-0.308	-0.152823029391721	
3.71	-0.232	-0.15657241426837798	
3.715	0.088	-0.15579035038651698	
3.72	-0.213	-0.1545077261928164	
3.725	-0.294	-0.15044446780195647	
3.73	0.082	-0.14109708245999764	
3.735	-0.052	-0.13142429479295228	
3.74	-0.325	-0.12329429551814425	
3.745	-0.050	-0.11544607691375744	
3.75	0.134	-0.10848971786039474	
3.755	-0.250	-0.0989812848845893	
3.76	-0.165	-0.08858952460262273	
3.765	0.224	-0.07762032908027883	
3.77	-0.128	-0.06759740839983647	
3.775	-0.232	-0.05656770916153558	
3.78	0.184	-0.04693570705345983	
3.785	0.020	-0.039406725325767146	
3.79	-0.267	-0.03547180797097044	
3.795	0.017	-0.033352704025236525	
3.8	0.197	-0.03337168362832003	
3.805	-0.217	-0.03115203242762715	
3.81	-0.120	-0.027598930702532734	
3.815	0.287	-0.02344065194939063	
3.82	-0.107	-0.017701079604436207	
3.825	-0.220	-0.013682849619432084	
3.83	0.221	-0.010761726904813165	
3.835	0.046	-0.007398635565417082	
3.84	-0.258	-0.007644920970729169	
3.845	0.037	-0.010255963887513727	
3.85	0.229	-0.012261280969642598	
3.855	-0.213	-0.011307450588426984	
3.86	-0.131	-0.010613703855257676	
3.865	0.264	-0.01329175957765909	
3.87	-0.136	-0.015779029277588265	
3.875	-0.242	-0.021775916694963347	
3.88	0.149	-0.028634957615696146	
3.885	-0.012	-0.037389800530043184	
3.89	-0.291	-0.04876822689796701	
3.895	-0.034	-0.05718332208903144	
3.9	0.130	-0.06618473017698843	
3.905	-0.252	-0.073429803768984	
3.91	-0.157	-0.07460859777622648	
3.915	0.224	-0.07215566889854456	
3.92	-0.159	-0.06786301306118903	
3.925	-0.253	-0.06386688162320844	
3.93	0.187	-0.05948658972158452	
3.935	0.041	-0.05137760914629386	
3.94	-0.258	-0.042925010019457775	
3.945	0.058	-0.03310115149348884	
3.95	0.268	-0.022074731368460852	
3.955	-0.136	-0.004573272812146162	
3.96	0.183	0.026380322509058834	
3.965	0.974	0.09803748963806083	
3.97	0.826	0.2341343037818245	
3.975	0.741	0.4190422626055626	
3.98	1.194	0.6075664428148222	
3.985	0.726	0.7525916531707488	
3.99	-0.104	0.7959107708598682	
3.995	-0.067	0.7088219949467875	
4.0	-0.107	0.5139276548059749	
4.005	-0.406	0.27844862578523477	
4.01	-0.281	0.0684180227001724	
4.015	0.084	-0.08199146618343074	
4.02	-0.180	-0.1719038394688861	
4.025	-0.230	-0.20188824167698777	
4.03	0.198	-0.18637108062799437	
4.035	0.050	-0.1484161734198277	
4.04	-0.238	-0.10499868334426496	
4.045	0.073	-0.06301382531812293	
4.05	0.247	-0.029084652432907365	
4.055	-0.183	-0.0026742648451552288	
4.06	-0.082	0.014435263885771004	
4.065	0.358	0.027031655779837776	
4.07	-0.060	0.036967347374791994	
4.075	-0.172	0.04306641895620017	
4.08	0.297	0.047711270533434276	
4.085	0.139	0.05254843923797177	
4.09	-0.203	0.05793859344056607	
4.095	0.111	0.059057072802179214	
4.1	0.259	0.056932804038670716	
4.105	-0.182	0.05125882099517451	
4.11	-0.082	0.04447216176120239	
4.115	0.335	0.03807789735927582	
4.12	-0.082	0.0339101570440266	
4.125	-0.183	0.030066877723983337	
4.13	0.294	0.029770858515798426	
4.135	0.139	0.03551790804242115	
4.14	-0.186	0.043909580546799575	
4.145	0.163	0.054107457699276565	
4.15	0.334	0.06593666782465368	
4.155	-0.137	0.07721901869555056	
4.16	-0.020	0.08448676946126142	
4.165	0.436	0.09009469509223633	
4.17	0.012	0.09789297814624014	
4.175	-0.117	0.1050668111851155	
4.18	0.378	0.11076962334070349	
4.185	0.224	0.11850922384007936	
4.19	-0.130	0.12792669393294778	
4.195	0.320	0.13910266986253256	
4.2	0.508	0.15992065428537822	
4.205	-0.032	0.18726050476381534	
4.21	0.140	0.20748124594286552	
4.215	0.590	0.2220241666338888	
4.22	0.168	0.24094920902441175	
4.225	0.011	0.2531249558081695	
4.23	0.534	0.25964244541231335	
4.235	0.335	0.2665129665895972	
4.24	-0.073	0.2680825460649551	
4.245	0.323	0.25897243519732294	
4.25	0.430	0.24879090912848467	
4.255	-0.133	0.2324887752659268	
4.26	-0.070	0.19946823067940767	
4.265	0.256	0.15074578384834172	
4.27	-0.185	0.09413049526754791	
4.275	-0.297	0.03532214340782074	
4.28	0.009	-0.022672725984460646	
4.285	-0.156	-0.08049574968136115	
4.29	-0.425	-0.13256402360975594	
4.295	-0.236	-0.17420878094893558	
4.3	-0.154	-0.21644793581222646	
4.305	-0.441	-0.25618219048955554	
4.31	-0.357	-0.27944870896898844	
4.315	-0.125	-0.2935655758084911	
4.32	-0.358	-0.3067597851678721	
4.325	-0.445	-0.31045002348566414	
4.33	-0.136	-0.3068757084744933	
4.335	-0.227	-0.3045889483466296	
4.34	-0.441	-0.29935594831109114	
4.345	-0.203	-0.286230401416518	
4.35	-0.098	-0.2756083157048177	
4.355	-0.380	-0.2681082750309519	
4.36	-0.274	-0.25436250019955475	
4.365	0.027	-0.2376602032340619	
4.37	-0.249	-0.22280421304131798	
4.375	-0.331	-0.20636959652420755	
4.38	-0.017	-0.18986403225855122	
4.385	-0.113	-0.18167438932868157	
4.39	-0.332	-0.17535888282066817	
4.395	-0.082	-0.16413752849250957	
4.4	0.068	-0.1526300934658158	
4.405	-0.274	-0.14220893734196083	
4.41	-0.185	-0.12829400538695238	
4.415	0.166	-0.11457758853388969	
4.42	-0.165	-0.10393344005023575	
4.425	-0.246	-0.09339785427435952	
4.43	0.166	-0.08069437398980758	
4.435	-0.018	-0.06973070052933253	
4.44	-0.284	-0.06251603446963849	
4.445	0.009	-0.05899630127291547	
4.45	0.166	-0.055549578541102027	
4.455	-0.236	-0.052402723212373936	
4.46	-0.137	-0.047263956049090554	
4.465	0.253	-0.043397139321186176	
4.47	-0.124	-0.03906916033631807	
4.475	-0.223	-0.03449700828611363	
4.48	0.198	-0.029499162846381835	
4.485	0.044	-0.024750123337924722	
4.49	-0.249	-0.021695477884837108	
4.495	0.050	-0.01786042203868506	
4.5	0.194	-0.015451777313011169	
4.505	-0.223	-0.015606533687158083	
4.51	-0.124	-0.016241753557241716	
4.515	0.255	-0.01820305412187592	
4.52	-0.124	-0.02121186468615764	
4.525	-0.218	-0.022608235777430985	
4.53	0.223	-0.021280383487526634	
4.535	0.046	-0.01776500475205824	
4.54	-0.239	-0.014909915714981948	
4.545	0.097	-0.0087121346831601	
4.55	0.248	-0.00031500866450718504	
4.555	-0.200	0.008163440834294693	
4.56	-0.107	0.013754367388347415	
4.565	0.311	0.014026224790349519	
4.57	-0.099	0.012650672512087152	
4.575	-0.191	0.012244599823445893	
4.58	0.253	0.012945968963877962	
4.585	0.075	0.015241969239943648	
4.59	-0.229	0.015857893113355188	
4.595	0.087	0.017420668950195534	
4.6	0.247	0.017829884889530336	
4.605	-0.195	0.018939661574009538	
4.61	-0.102	0.018753362594807983	
4.615	0.277	0.014253347380799513	
4.62	-0.110	0.008507994372197921	
4.625	-0.195	0.0031061515294121193	
4.63	0.279	0.004181684843578181	
4.635	0.101	0.010242962497316422	
4.64	-0.201	0.01962594922085065	
4.645	0.146	0.030565920205878883	
4.65	0.300	0.042974618076083035	
4.655	-0.157	0.053703914816025856	
4.66	-0.024	0.06274992198026903	
4.665	0.434	0.07049484966952221	
4.67	-0.002	0.0823752247087359	
4.675	-0.133	0.09294698509889096	
4.68	0.401	0.10139316000108706	
4.685	0.247	0.11426412549112523	
4.69	-0.122	0.1294149405447957	
4.695	0.314	0.14667203108148497	
4.7	0.486	0.16711018640117997	
4.705	-0.050	0.18953078993523456	
4.71	0.105	0.202722317165552	
4.715	0.517	0.20865048962177224	
4.72	0.078	0.2102994831999396	
4.725	-0.023	0.20885284996785816	
4.73	0.543	0.210518487221865	
4.735	0.343	0.22228560831939687	
4.74	-0.070	0.23529732330955824	
4.745	0.331	0.24069943077641331	
4.75	0.486	0.24317835525881945	
4.755	-0.027	0.24347940200085594	
4.76	0.157	0.24069903490961578	
4.765	0.616	0.24270995084010608	
4.77	0.192	0.25231840438372666	
4.775	0.052	0.2658102508497158	
4.78	0.633	0.2804994806654154	
4.785	0.508	0.3053308726802907	
4.79	0.102	0.33632342551429534	
4.795	0.596	0.36864401941226815	
4.8	0.793	0.4061782751448758	
4.805	0.265	0.44856580356343845	
4.81	0.445	0.4826515859910315	
4.815	0.877	0.5096031607270474	
4.82	0.413	0.5314154176693285	
4.825	0.212	0.5378610073913795	
4.83	0.748	0.5293185214542766	
4.835	0.538	0.5163551612989521	
4.84	0.040	0.4955060670118991	
4.845	0.448	0.4604758834941699	
4.85	0.534	0.4210479944654006	
4.855	-0.050	0.37683346543628604	
4.86	0.035	0.32162505578210265	
4.865	0.412	0.26031374457234485	
4.87	-0.053	0.20164284379214015	
4.875	-0.180	0.1470700127351842	
4.88	0.230	0.0989700491275715	
4.885	0.027	0.05636776449446605	
4.89	-0.258	0.021891366522954883	
4.895	-0.005	-0.0047454931957806885	
4.9	0.068	-0.0322004011778699	
4.905	-0.310	-0.06078862202365458	
4.91	-0.238	-0.08633745186655692	
4.915	0.096	-0.11006521009367819	
4.92	-0.160	-0.12716332713207484	
4.925	-0.119	-0.12265817796196261	
4.93	0.671	-0.07231930893662217	
4.935	0.716	0.04237051773019746	
4.94	0.335	0.19823516139555225	
4.945	0.570	0.34501554069111173	
4.95	0.302	0.43050150850605207	
4.955	-0.363	0.41748901287947005	
4.96	-0.447	0.3066293156771571	
4.965	-0.314	0.12855836748921862	
4.97	-0.520	-0.0729296352542846	
4.975	-0.563	-0.24140322504047637	
4.98	-0.230	-0.3536894876016732	
4.985	-0.288	-0.4166747852039776	
4.99	-0.500	-0.43639335485147307	
4.995	-0.271	-0.42110029734727805	
5.0	-0.180	-0.397656243216097	
5.005	-0.456	-0.3751769043723454	
5.01	-0.380	-0.35027591194688834	
5.015	-0.154	-0.3316892005900087	
5.02	-0.364	-0.32587474172647746	
5.025	-0.438	-0.31828228737524333	
5.03	-0.131	-0.3068613867539248	
5.035	-0.212	-0.29975788340249643	
5.04	-0.422	-0.29028357006733635	
5.045	-0.185	-0.2731072240732314	
5.05	-0.085	-0.2607417036833459	
5.055	-0.361	-0.25216273402030553	
5.06	-0.265	-0.23720555385574196	
5.065	0.023	-0.2216855394898618	
5.07	-0.239	-0.21095353605531109	
5.075	-0.325	-0.19727103005425342	
5.08	0.035	-0.1807532792321511	
5.085	-0.081	-0.16782467674346563	
5.09	-0.303	-0.15539601551196147	
5.095	-0.038	-0.13796163400465838	
5.1	0.084	-0.122684908786965	
5.105	-0.264	-0.11137154034055424	
5.11	-0.137	-0.0991533868842194	
5.115	0.265	-0.08247558157661676	
5.12	-0.130	-0.06312635587868734	
5.125	-0.213	-0.046400123103828655	
5.13	0.279	-0.0295000199989162	
5.135	0.120	-0.00782907280737838	
5.14	-0.198	0.01435343444029555	
5.145	0.172	0.03417756307493921	
5.15	0.367	0.056483045242922456	
5.155	-0.114	0.07940980534327353	
5.16	0.047	0.0988045723086267	
5.165	0.530	0.11874230725092735	
5.17	0.107	0.1457990504230274	
5.175	-0.029	0.1704488257660069	
5.18	0.550	0.1926393031612186	
5.185	0.399	0.22122944791146695	
5.19	-0.024	0.251212025685158	
5.195	0.428	0.27218858105898436	
5.2	0.623	0.2935802971718449	
5.205	0.079	0.318371718536006	
5.21	0.223	0.3307424580337158	
5.215	0.601	0.33375398560838365	
5.22	0.062	0.3248352444173641	
5.225	-0.060	0.29642685731017926	
5.23	0.460	0.2605704415972496	
5.235	0.207	0.23028293166761887	
5.24	-0.201	0.1982912764713785	
5.245	0.032	0.15606215816397112	
5.25	0.102	0.09852952929135003	
5.255	-0.274	0.03754513240273534	
5.26	-0.200	-0.015282684197936248	
5.265	0.067	-0.062390056508978	
5.27	-0.233	-0.1040231083314685	
5.275	-0.316	-0.1324659155375981	
5.28	0.020	-0.14859505351905822	
5.285	-0.108	-0.15972821719590347	
5.29	-0.325	-0.16454862357062822	
5.295	-0.061	-0.15797521140101806	
5.3	0.067	-0.14855778937523534	
5.305	-0.281	-0.13938429159773774	
5.31	-0.183	-0.12625573005625856	
5.315	0.183	-0.11345728834058791	
5.32	-0.149	-0.10102599688738201	
5.325	-0.227	-0.08643450147088999	
5.33	0.190	-0.06960836403389023	
5.335	-0.003	-0.05475347202883415	
5.34	-0.264	-0.04555718203353028	
5.345	0.008	-0.04096576521240093	
5.35	0.172	-0.03955392526804771	
5.355	-0.229	-0.03940443891591252	
5.36	-0.127	-0.03725303796990282	
5.365	0.259	-0.035431711869845936	
5.37	-0.119	-0.031042013964064648	
5.375	-0.212	-0.027455934596711574	
5.38	0.230	-0.02158092688135635	
5.385	0.023	-0.015743021206542796	
5.39	-0.273	-0.0145881069517449	
5.395	0.003	-0.018961989725545327	
5.4	0.131	-0.02952912276651374	
5.405	-0.261	-0.04142324407599581	
5.41	-0.172	-0.05326764607982402	
5.415	0.169	-0.06340520323271913	
5.42	-0.178	-0.07404247718380451	
5.425	-0.270	-0.08148173933889159	
5.43	0.122	-0.08455916420749893	
5.435	-0.037	-0.08672540836138495	
5.44	-0.293	-0.08761955433920726	
5.445	-0.032	-0.08594547136396354	
5.45	0.114	-0.08549138096590003	
5.455	-0.261	-0.08546927952364214	
5.46	-0.180	-0.08328084340192123	
5.465	0.158	-0.08334124734907561	
5.47	-0.180	-0.08707979629552733	
5.475	-0.271	-0.08853669266279927	
5.48	0.140	-0.08647398266087275	
5.485	-0.003	-0.08372041470878544	
5.49	-0.281	-0.07772270059362207	
5.495	0.000	-0.06987724107129967	
5.5	0.137	-0.06542300123937889	
5.505	-0.256	-0.06360099481531703	
5.51	-0.143	-0.06127023089148828	
5.515	0.251	-0.05719487918241571	
5.52	-0.125	-0.05117976745043583	
5.525	-0.224	-0.042627875492975455	
5.53	0.245	-0.033311348709834904	
5.535	0.082	-0.01972870269364556	
5.54	-0.232	-0.00588577109332138	
5.545	0.090	0.0052273393917897475	
5.55	0.255	0.013672494858167192	
5.555	-0.180	0.021240353564706473	
5.56	-0.099	0.024731859163415366	
5.565	0.294	0.023944547816227076	
5.57	-0.073	0.020722775071541726	
5.575	-0.160	0.020302218705541712	
5.58	0.312	0.026835083111999287	
5.585	0.117	0.03724995395507641	
5.59	-0.201	0.04698010101762435	
5.595	0.122	0.05232899891060452	
5.6	0.262	0.05374082623974044	
5.605	-0.169	0.05309557343719258	
5.61	-0.049	0.05075529212446805	
5.615	0.378	0.051084723588493086	
5.62	-0.064	0.05362498290238611	
5.625	-0.169	0.05421636461150129	
5.63	0.326	0.05496593670079078	
5.635	0.160	0.061256939099662164	
5.64	-0.197	0.06786124411876747	
5.645	0.137	0.07238927250381488	
5.65	0.291	0.0718143364133279	
5.655	-0.186	0.06900086458673681	
5.66	-0.084	0.061737383896919254	
5.665	0.315	0.050168806178973416	
5.67	-0.104	0.03858857171610121	
5.675	-0.182	0.027168738932834648	
5.68	0.293	0.02303452237670748	
5.685	0.101	0.02526350236804491	
5.69	-0.215	0.029795670005214825	
5.695	0.130	0.03442443019844292	
5.7	0.291	0.040863460808302776	
5.705	-0.174	0.046948552212163444	
5.71	-0.075	0.04971882091807504	
5.715	0.335	0.047223633824221456	
5.72	-0.072	0.0445796434141134	
5.725	-0.163	0.04112225372126571	
5.73	0.297	0.04205912600248124	
5.735	0.126	0.04528933291623169	
5.74	-0.207	0.049759579493857065	
5.745	0.128	0.05241557994113221	
5.75	0.276	0.053896061660972196	
5.755	-0.153	0.05494025004227311	
5.76	-0.055	0.05569833860667033	
5.765	0.395	0.05724916442189791	
5.77	0.006	0.0635943746298139	
5.775	-0.117	0.07409750836799722	
5.78	0.367	0.0860553467072771	
5.785	0.224	0.10030831281711078	
5.79	-0.137	0.11475704599269214	
5.795	0.244	0.1274008671819337	
5.8	0.395	0.1388996183668481	
5.805	-0.064	0.14895412458128343	
5.81	0.097	0.15869144469617885	
5.815	0.561	0.1702348974865976	
5.82	0.099	0.18861170870263028	
5.825	-0.049	0.20109981854717443	
5.83	0.534	0.20801095566575056	
5.835	0.378	0.22433373832056824	
5.84	-0.037	0.2428202223696658	
5.845	0.384	0.25632254996138637	
5.85	0.500	0.26685276261876645	
5.855	-0.049	0.2710835309134211	
5.86	0.101	0.25965017621529196	
5.865	0.521	0.2430719272275286	
5.87	0.068	0.22776397112293895	
5.875	-0.089	0.21120813591653526	
5.88	0.413	0.19076243363279766	
5.885	0.216	0.17636227504448782	
5.89	-0.146	0.16308475927227167	
5.895	0.218	0.1511273090153024	
5.9	0.334	0.1396920996208867	
5.905	-0.146	0.1294121468552098	
5.91	-0.044	0.11363168598026738	
5.915	0.354	0.09573629188234398	
5.92	-0.092	0.07899325975276816	
5.925	-0.200	0.05941962718278947	
5.93	0.218	0.040389352270078956	
5.935	0.023	0.02137311968622212	
5.94	-0.267	0.003461762678093137	
5.945	-0.034	-0.015122822194191695	
5.95	0.026	-0.040548280478919584	
5.955	-0.332	-0.07319655608232102	
5.96	-0.253	-0.10336316794336864	
5.965	0.008	-0.13364540114950033	
5.97	-0.282	-0.16277866015100106	
5.975	-0.395	-0.18634050769270477	
5.98	-0.131	-0.2059638183156386	
5.985	-0.204	-0.2306519292843097	
5.99	-0.422	-0.2491923027939142	
5.995	-0.197	-0.25427517676573375	
6.0	-0.119	-0.257758603914433	
6.005	-0.413	-0.26394113341935	
6.01	-0.366	-0.265315950053689	
6.015	-0.136	-0.27189580937521235	
6.02	-0.342	-0.2857030343668201	
6.025	-0.354	-0.2891681695157417	
6.03	0.198	-0.26406920332444916	
6.035	0.302	-0.19967808044316981	
6.04	0.099	-0.094051013465401	
6.045	0.605	0.04169997029711657	
6.05	0.546	0.1811429191562309	
6.055	-0.250	0.27106564965219226	
6.06	-0.374	0.262607339202213	
6.065	-0.314	0.15398558696329068	
6.07	-0.589	-0.016627176368642325	
6.075	-0.643	-0.19110737426869226	
6.08	-0.325	-0.33017711917413983	
6.085	-0.357	-0.4266619217392119	
6.09	-0.546	-0.47294281753665707	
6.095	-0.319	-0.47436414185599984	
6.1	-0.213	-0.4568946367254961	
6.105	-0.459	-0.4317840847440676	
6.11	-0.366	-0.39628255040452076	
6.115	-0.142	-0.3630299075771256	
6.12	-0.351	-0.34066719076804	
6.125	-0.413	-0.3201076998698846	
6.13	-0.116	-0.298151408868327	
6.135	-0.210	-0.28474361653093505	
6.14	-0.430	-0.27404951543605593	
6.145	-0.169	-0.2602653917256208	
6.15	-0.053	-0.248843033122749	
6.155	-0.357	-0.23796081952980072	
6.16	-0.270	-0.22424699084202382	
6.165	0.046	-0.21083651085924232	
6.17	-0.220	-0.19981932279068243	
6.175	-0.282	-0.18322154150984477	
6.18	0.125	-0.15889369978282872	
6.185	-0.029	-0.13376731360316801	
6.19	-0.306	-0.11231746415137893	
6.195	0.014	-0.094081343832959	
6.2	0.215	-0.07567160022949515	
6.205	-0.191	-0.05425393175399919	
6.21	-0.089	-0.032245279198556534	
6.215	0.352	-0.011538301400772652	
6.22	-0.027	0.011999841654604848	
6.225	-0.113	0.0345855366499278	
6.23	0.425	0.06039299315413266	
6.235	0.238	0.09425497238017552	
6.24	-0.137	0.12340024852569526	
6.245	0.300	0.14305195740214244	
6.25	0.479	0.16551095895922427	
6.255	-0.044	0.18852611265410468	
6.26	0.114	0.20169672102933592	
6.265	0.553	0.2096714804093941	
6.27	0.160	0.22195146915062636	
6.275	0.020	0.23343650368221783	
6.28	0.598	0.2464912602024941	
6.285	0.428	0.26933711644662106	
6.29	-0.044	0.2913028190559444	
6.295	0.410	0.29900887675644217	
6.3	0.602	0.3065879575999092	
6.305	0.075	0.3175641420117116	
6.31	0.227	0.3236245673998159	
6.315	0.640	0.32563165720440634	
6.32	0.140	0.326049858664999	
6.325	-0.085	0.309434351124793	
6.33	0.387	0.2743232253035982	
6.335	0.140	0.2313950924248514	
6.34	-0.233	0.18247603734314424	
6.345	0.008	0.12584550768362535	
6.35	0.062	0.06347600962779631	
6.355	-0.332	-0.002191658863461266	
6.36	-0.273	-0.06038843998523581	
6.365	-0.069	-0.11760937351419526	
6.37	-0.335	-0.1737863594401763	
6.375	-0.416	-0.21838366238245624	
6.38	-0.131	-0.246887629166084	
6.385	-0.226	-0.269629186738451	
6.39	-0.451	-0.2833045800751277	
6.395	-0.230	-0.2852268122866536	
6.4	-0.134	-0.28665682319596636	
6.405	-0.398	-0.2880672893182292	
6.41	-0.300	-0.28034140407393787	
6.415	-0.027	-0.2667158176415668	
6.42	-0.267	-0.25578003856263454	
6.425	-0.340	-0.2393289396200356	
6.43	0.001	-0.2179124460866344	
6.435	-0.117	-0.2016689973346062	
6.44	-0.358	-0.1883146174530606	
6.445	-0.101	-0.17418888521236808	
6.45	0.047	-0.16364328992658717	
6.455	-0.284	-0.1541420811842372	
6.46	-0.203	-0.14233090029827888	
6.465	0.151	-0.129624781562953	
6.47	-0.174	-0.11885455315585271	
6.475	-0.258	-0.10740009571487741	
6.48	0.142	-0.09478258476906412	
6.485	-0.008	-0.08266662240639139	
6.49	-0.270	-0.07345895689296159	
6.495	0.018	-0.06310053983613577	
6.5	0.142	-0.0565409616524526	
6.505	-0.255	-0.05330527168426961	
6.51	-0.153	-0.05234703877084876	
6.515	0.244	-0.05244418776694149	
6.52	-0.127	-0.04894286890835794	
6.525	-0.221	-0.04452872979556374	
6.53	0.215	-0.03661207913676622	
6.535	0.047	-0.027636018149611113	
6.54	-0.264	-0.02064930696317499	
6.545	0.047	-0.017021371894273503	
6.55	0.216	-0.01539997544234607	
6.555	-0.215	-0.012459762485981334	
6.56	-0.148	-0.012389053138284492	
6.565	0.258	-0.016277151488294	
6.57	-0.119	-0.02100999316326727	
6.575	-0.213	-0.02264669848505989	
6.58	0.221	-0.020470597130837695	
6.585	0.043	-0.017611570908768	
6.59	-0.252	-0.014802110610489192	
6.595	0.049	-0.012941801933645277	
6.6	0.192	-0.013299590333330698	
6.605	-0.236	-0.015610219018406674	
6.61	-0.128	-0.019393033962892457	
6.615	0.280	-0.022113013036850235	
6.62	-0.105	-0.02110198995478644	
6.625	-0.210	-0.017755332854931354	
6.63	0.229	-0.013315759191575393	
6.635	0.050	-0.008601148210106097	
6.64	-0.252	-0.005963029898287638	
6.645	0.067	-0.0048554577696951935	
6.65	0.245	-0.002190155569184351	
6.655	-0.198	0.0012469025287228032	
6.66	-0.089	0.006589542301825764	
6.665	0.325	0.010033680559407995	
6.67	-0.098	0.014820490133890555	
6.675	-0.201	0.016142112161504955	
6.68	0.259	0.016816220504335816	
6.685	0.099	0.019421593706333527	
6.69	-0.213	0.022903241970937335	
6.695	0.088	0.0262038888246584	
6.7	0.255	0.02789738978575135	
6.705	-0.183	0.02913375191964162	
6.71	-0.084	0.028572035017581345	
6.715	0.384	0.03015274470031574	
6.72	-0.027	0.0387772914876305	
6.725	-0.151	0.04906701140778709	
6.73	0.320	0.05889823455816529	
6.735	0.160	0.06843668218750112	
6.74	-0.191	0.07581806312275072	
6.745	0.172	0.0812370138693456	
6.75	0.314	0.08495206362776433	
6.755	-0.162	0.08607340640282915	
6.76	-0.049	0.08255350529840658	
6.765	0.401	0.07720703824160538	
6.77	-0.049	0.07576048291367429	
6.775	-0.180	0.07202767986057698	
6.78	0.312	0.06592551059346258	
6.785	0.148	0.06446032839303707	
6.79	-0.201	0.06480105330306418	
6.795	0.139	0.06522204503719309	
6.8	0.309	0.06596452752913348	
6.805	-0.162	0.06710000218879159	
6.81	-0.098	0.06453528390149976	
6.815	0.287	0.05316368812209252	
6.82	-0.102	0.03779147034570947	
6.825	-0.207	0.023068963359021102	
6.83	0.212	0.010875309513458976	
6.835	0.004	-0.0005621660836105876	
6.84	-0.277	-0.014140306967331638	
6.845	-0.018	-0.02678687544555839	
6.85	0.117	-0.04309226536427486	
6.855	-0.273	-0.05986641016886052	
6.86	-0.203	-0.0714153857309556	
6.865	0.123	-0.08487458213268684	
6.87	-0.177	-0.09923795671734159	
6.875	-0.249	-0.10487716589339993	
6.88	0.163	-0.09709344385014124	
6.885	-0.011	-0.08662306405474679	
6.89	-0.281	-0.07716093159153228	
6.895	0.008	-0.06670461365128191	
6.9	0.091	-0.06310270591841204	
6.905	-0.262	-0.06697622834230221	
6.91	-0.125	-0.06835552333372794	
6.915	0.312	-0.0597569227789779	
6.92	-0.081	-0.04335040989719672	
6.925	-0.160	-0.021957344700058116	
6.93	0.364	0.005061746137274815	
6.935	0.219	0.03938290049462005	
6.94	-0.151	0.07367598235072645	
6.945	0.253	0.10237110169172732	
6.95	0.430	0.12902230562046135	
6.955	-0.078	0.15089016847776587	
6.96	0.084	0.1645808719814796	
6.965	0.540	0.17637955460898774	
6.97	0.108	0.1896322700171041	
6.975	-0.035	0.19991907540195852	
6.98	0.527	0.20912205476319728	
6.985	0.328	0.2224634176139425	
6.99	-0.133	0.23058487467026895	
6.995	0.227	0.2233179136217641	
7.0	0.376	0.20511198116691817	
7.005	-0.134	0.18291165407002563	
7.01	-0.052	0.1554932578985393	
7.015	0.383	0.12538485254503698	
7.02	-0.053	0.09972248313444272	
7.025	-0.174	0.07889458322154563	
7.03	0.296	0.06404384556325693	
7.035	0.148	0.05652642765532262	
7.04	-0.198	0.0546573603225609	
7.045	0.133	0.05624262456420782	
7.05	0.296	0.058091725897679386	
7.055	-0.177	0.05900717983356547	
7.06	-0.075	0.056462851825480026	
7.065	0.381	0.05330376871543695	
7.07	0.128	0.06181027911932975	
7.075	0.239	0.09996207172301208	
7.08	1.113	0.1939873443783512	
7.085	1.162	0.35759260875232396	
7.09	0.666	0.5557396880177352	
7.095	0.851	0.7220692832199651	
7.1	0.604	0.8029588064768334	
7.105	-0.215	0.7650959488424229	
7.11	-0.300	0.613375280589836	
7.115	-0.104	0.3891327711456293	
7.12	-0.300	0.1519780945291122	
7.125	-0.349	-0.03591876726903582	
7.13	0.035	-0.15223075891768162	
7.135	-0.047	-0.210418983191448	
7.14	-0.276	-0.22103581912885129	
7.145	0.008	-0.19594905759530323	
7.15	0.166	-0.15607560351720845	
7.155	-0.235	-0.11770327435670211	
7.16	-0.153	-0.08355389355232368	
7.165	0.242	-0.059978612264374606	
7.17	-0.125	-0.045031829024750114	
7.175	-0.227	-0.03491328648873521	
7.18	0.194	-0.027322840364374188	
7.185	0.046	-0.022454467054393443	
7.19	-0.250	-0.02001223158173353	
7.195	0.046	-0.016978879453944627	
7.2	0.206	-0.015093454642821866	
7.205	-0.223	-0.014669959567691281	
7.21	-0.133	-0.015552056387299229	
7.215	0.250	-0.017993646708583347	
7.22	-0.133	-0.022013299585978356	
7.225	-0.235	-0.026909232171624033	
7.23	0.209	-0.028334548373391895	
7.235	0.043	-0.027436787188000043	
7.24	-0.252	-0.02500994197826764	
7.245	0.062	-0.02099962969031543	
7.25	0.236	-0.015074514093194758	
7.255	-0.195	-0.007654505176724894	
7.26	-0.099	-0.0005831054241884603	
7.265	0.311	0.005010149388219411	
7.27	-0.069	0.010020010856162095	
7.275	-0.165	0.01706839973805414	
7.28	0.329	0.0276469110696951	
7.285	0.171	0.04460143911896403	
7.29	-0.182	0.06198828976667031	
7.295	0.198	0.0759536811706284	
7.3	0.393	0.09194784257227272	
7.305	-0.098	0.11038925453460524	
7.31	0.049	0.12336597195743192	
7.315	0.523	0.13698083907757874	
7.32	0.114	0.15710722415238287	
7.325	-0.043	0.17606253269576427	
7.33	0.524	0.1915273098424836	
7.335	0.381	0.2146690058172221	
7.34	-0.050	0.23810519733925373	
7.345	0.373	0.2527976924240657	
7.35	0.547	0.2658840309962066	
7.355	-0.012	0.27661043376479194	
7.36	0.094	0.27229794079914793	
7.365	0.514	0.25773854402385693	
7.37	0.038	0.23931798410443175	
7.375	-0.146	0.21220340129716198	
7.38	0.239	0.1721842869429963	
7.385	0.001	0.12269628480721961	
7.39	-0.310	0.06745452699761562	
7.395	-0.105	0.01056217583130378	
7.4	-0.031	-0.049340991773939594	
7.405	-0.375	-0.10800171601566745	
7.41	-0.332	-0.15567225216197256	
7.415	-0.119	-0.19863874888201885	
7.42	-0.358	-0.24148186886744058	
7.425	-0.448	-0.2725271148480507	
7.43	-0.178	-0.29111954984344857	
7.435	-0.271	-0.308359144083817	
7.44	-0.476	-0.3202290735459038	
7.445	-0.242	-0.31954411827171814	
7.45	-0.140	-0.3145446279793129	
7.455	-0.421	-0.3108064553090286	
7.46	-0.332	-0.2996147696127192	
7.465	-0.089	-0.28883141076909746	
7.47	-0.323	-0.28343740178977495	
7.475	-0.399	-0.2764154599698382	
7.48	-0.084	-0.2652165268748534	
7.485	-0.177	-0.25739860015048494	
7.49	-0.412	-0.2501551814708769	
7.495	-0.169	-0.23855777109753096	
7.5	-0.027	-0.22958693736735403	
7.505	-0.348	-0.22179524537651696	
7.51	-0.270	-0.21059555076580266	
7.515	0.029	-0.20082483576704346	
7.52	-0.236	-0.19446691376372036	
7.525	-0.331	-0.1874276470607924	
7.53	0.017	-0.17715936616384473	
7.535	-0.089	-0.169412279799438	
7.54	-0.339	-0.16222907874168066	
7.545	-0.085	-0.15249322089764406	
7.55	0.052	-0.14553465313844582	
7.555	-0.294	-0.14091182589846718	
7.56	-0.221	-0.1345859969961842	
7.565	0.108	-0.13069363315733173	
7.57	-0.192	-0.12956305365527793	
7.575	-0.274	-0.12551405716222602	
7.58	0.110	-0.11698899130655646	
7.585	-0.035	-0.10742122364387927	
7.59	-0.303	-0.10041460344166481	
7.595	-0.047	-0.0943706777166487	
7.6	0.137	-0.09041176337678161	
7.605	-0.249	-0.08611682043185387	
7.61	-0.156	-0.07958478754982796	
7.615	0.242	-0.07047263630977707	
7.62	-0.140	-0.060694788807120675	
7.625	-0.244	-0.052667020121886954	
7.63	0.166	-0.04777385928471185	
7.635	0.009	-0.04440312889065459	
7.64	-0.268	-0.04364122935920148	
7.645	0.018	-0.043248650121350984	
7.65	0.168	-0.04225650464531448	
7.655	-0.238	-0.04233286455338998	
7.66	-0.153	-0.042614306698243634	
7.665	0.253	-0.04324458044398257	
7.67	-0.114	-0.04080039958434703	
7.675	-0.213	-0.03582107024551735	
7.68	0.232	-0.02756708194264445	
7.685	0.065	-0.017368975902093298	
7.69	-0.249	-0.008865874615511738	
7.695	0.062	-0.004152014241212941	
7.7	0.238	-9.694391314465304e-05	
7.705	-0.201	0.003477965948179104	
7.71	-0.113	0.005343081436053084	
7.715	0.280	0.00395956728989411	
7.72	-0.111	0.0011113288334188612	
7.725	-0.218	-0.0029719460936550477	
7.73	0.227	-0.005393580759673261	
7.735	0.079	-0.004324474153361288	
7.74	-0.239	-0.002055070017426942	
7.745	0.076	0.0019249370986791463	
7.75	0.226	0.005043610446754012	
7.755	-0.217	0.005312984205198259	
7.76	-0.107	0.004301837040939655	
7.765	0.320	0.0031544249137468237	
7.77	-0.089	0.005043105214709328	
7.775	-0.186	0.008879308354853626	
7.78	0.293	0.014764285966606998	
7.785	0.145	0.026730636433676867	
7.79	-0.200	0.039758221672345065	
7.795	0.131	0.049975880597068374	
7.8	0.337	0.05919017986290165	
7.805	-0.143	0.0691849821149014	
7.81	-0.046	0.07523907380490749	
7.815	0.401	0.07830029706675291	
7.82	-0.015	0.082013322680243	
7.825	-0.166	0.08276185893563377	
7.83	0.334	0.08184713465691074	
7.835	0.190	0.08378355798539319	
7.84	-0.168	0.08966322212124381	
7.845	0.187	0.0949870204956604	
7.85	0.344	0.10026267451238353	
7.855	-0.151	0.1041352997072503	
7.86	-0.089	0.09819987050137106	
7.865	0.282	0.08134477424524578	
7.87	-0.117	0.05601017298922421	
7.875	-0.221	0.030735070986484415	
7.88	0.229	0.011876910288918265	
7.885	0.081	0.0007937869033987614	
7.89	-0.233	-0.003363433077910649	
7.895	0.061	-0.0019976557104648238	
7.9	0.219	-0.0007202811874116532	
7.905	-0.207	-0.0018946619476369925	
7.91	-0.107	-0.0017871385213886733	
7.915	0.325	0.0003973974830738568	
7.92	-0.064	0.00598253013818148	
7.925	-0.183	0.012695152820466815	
7.93	0.285	0.021924049398683605	
7.935	0.195	0.03480142332722828	
7.94	-0.064	0.05758276640744074	
7.945	0.623	0.10705501925246821	
7.95	1.105	0.21238618832950804	
7.955	0.751	0.3760986224331048	
7.96	0.817	0.5591494919293243	
7.965	1.067	0.7113706903707138	
7.97	0.291	0.7869420937806628	
7.975	-0.206	0.7495905415051098	
7.98	-0.063	0.5998282190102797	
7.985	-0.215	0.3758291821639765	
7.99	-0.419	0.14866621284804685	
7.995	-0.104	-0.02596839750356178	
8.0	0.160	-0.13367305243939945	
8.005	-0.178	-0.17484784563444414	
8.01	-0.031	-0.15976658005154132	
8.015	0.457	-0.106614904734088	
8.02	0.021	-0.037018059073314014	
8.025	-0.125	0.026707357760073214	
8.03	0.381	0.07488623417939287	
8.035	0.248	0.11177478031856869	
8.04	-0.124	0.13762324560633654	
8.045	0.258	0.15501214639374494	
8.05	0.441	0.1682641428352448	
8.055	-0.075	0.17811397073553142	
8.06	0.043	0.17922472515588894	
8.065	0.453	0.17434291940658228	
8.07	0.015	0.16699488512130217	
8.075	-0.116	0.15375986371902972	
8.08	0.401	0.14184928176531197	
8.085	0.221	0.13777376152970072	
8.09	-0.159	0.13670298879568615	
8.095	0.192	0.13196053347277475	
8.1	0.348	0.12720360534693048	
8.105	-0.145	0.12122921911001577	
8.11	-0.058	0.10922158139722007	
8.115	0.361	0.09420918198418493	
8.12	-0.067	0.07909667531935785	
8.125	-0.182	0.06485553864796134	
8.13	0.287	0.05267342409289302	
8.135	0.123	0.04777874169701929	
8.14	-0.213	0.04489433069241525	
8.145	0.096	0.04283579307885091	
8.15	0.279	0.041079939642916605	
8.155	-0.172	0.040445091724210624	
8.16	-0.079	0.04022346019093055	
8.165	0.373	0.039988254861237874	
8.17	-0.023	0.0452399061122251	
8.175	-0.148	0.05200116155758131	
8.18	0.334	0.06143083578750059	
8.185	0.209	0.0747741146311933	
8.19	-0.154	0.0891476264476967	
8.195	0.227	0.10268104340123546	
8.2	0.418	0.11891429545765096	
8.205	-0.099	0.13571252439810708	
8.21	0.024	0.14321712200140785	
8.215	0.469	0.14469290789205885	
8.22	0.029	0.1494314871060595	
8.225	-0.119	0.14618855537981978	
8.23	0.319	0.13708490497444092	
8.235	0.096	0.12277865905338889	
8.24	-0.242	0.09950648990185698	
8.245	-0.020	0.06743022610504748	
8.25	0.072	0.02467101580130602	
8.255	-0.331	-0.023878026525384618	
8.26	-0.290	-0.0707732945943233	
8.265	-0.067	-0.12072442055745057	
8.27	-0.332	-0.1733274785748684	
8.275	-0.451	-0.21752917893544366	
8.28	-0.198	-0.25329122570034723	
8.285	-0.291	-0.288259022664461	
8.29	-0.523	-0.31710006237354604	
8.295	-0.302	-0.3337271965520603	
8.3	-0.209	-0.3455771809444314	
8.305	-0.474	-0.355586078410394	
8.31	-0.398	-0.3547023630504432	
8.315	-0.157	-0.3500107326999292	
8.32	-0.374	-0.3472317928830888	
8.325	-0.454	-0.3413420776238637	
8.33	-0.156	-0.32847861370480413	
8.335	-0.224	-0.3193175906905303	
8.34	-0.445	-0.3099244233637622	
8.345	-0.221	-0.29378174909318067	
8.35	-0.113	-0.2826946602617929	
8.355	-0.395	-0.2754999383513409	
8.36	-0.334	-0.2666673905051098	
8.365	-0.050	-0.2600893088035814	
8.37	-0.264	-0.2552278876026007	
8.375	-0.348	-0.24429178058905834	
8.38	-0.008	-0.22648198448647056	
8.385	-0.104	-0.20935376810942197	
8.39	-0.342	-0.19293281208083884	
8.395	-0.113	-0.17573610905015857	
8.4	0.029	-0.1636958311362301	
8.405	-0.297	-0.15656776379354362	
8.41	-0.220	-0.14863172372118533	
8.415	0.126	-0.14001577857367697	
8.42	-0.188	-0.1323129552592257	
8.425	-0.282	-0.1243392855685893	
8.43	0.078	-0.11636464983265377	
8.435	-0.087	-0.112376598424661	
8.44	-0.331	-0.11505949786140027	
8.445	-0.089	-0.11763837146540099	
8.45	0.030	-0.12461045788642647	
8.455	-0.314	-0.13272210596651934	
8.46	-0.217	-0.1376278532134785	
8.465	0.130	-0.13784376711006655	
8.47	-0.207	-0.13641657510423477	
8.475	-0.311	-0.1324601321112267	
8.48	0.046	-0.13017961542440443	
8.485	-0.079	-0.13136195603604942	
8.49	-0.319	-0.13225909981117567	
8.495	-0.067	-0.12951664719470635	
8.5	0.107	-0.12446813593302704	
8.505	-0.259	-0.1169355864540483	
8.51	-0.182	-0.10664050459600627	
8.515	0.177	-0.09762045776674183	
8.52	-0.165	-0.0905566856182122	
8.525	-0.255	-0.08460634088214719	
8.53	0.142	-0.07693592306236668	
8.535	0.009	-0.07035958553268118	
8.54	-0.265	-0.06451463355115694	
8.545	0.020	-0.056362432519904804	
8.55	0.209	-0.047301721436202454	
8.555	-0.215	-0.03720063571175922	
8.56	-0.116	-0.028652859609058428	
8.565	0.322	-0.019341699465441103	
8.57	-0.063	-0.005704647915022284	
8.575	-0.178	0.007207684387658319	
8.58	0.315	0.021320645418593246	
8.585	0.133	0.037673047120263384	
8.59	-0.201	0.05121575144382983	
8.595	0.161	0.05975390461766113	
8.6	0.338	0.06988396702640501	
8.605	-0.146	0.07958603792147492	
8.61	-0.046	0.0832877196738615	
8.615	0.433	0.0838799650626159	
8.62	0.017	0.09123125657012897	
8.625	-0.133	0.09804685570643862	
8.63	0.344	0.10145576837803676	
8.635	0.190	0.10573641175234327	
8.64	-0.195	0.10707107449722467	
8.645	0.075	0.0987694159393348	
8.65	0.197	0.07897375645584051	
8.655	-0.223	0.051516004138413986	
8.66	-0.117	0.02526582064996913	
8.665	0.305	0.006965369656859293	
8.67	-0.090	-0.002794647230588895	
8.675	-0.206	-0.005005027875646612	
8.68	0.230	-0.00447826754535165	
8.685	0.053	-0.002253989014629137	
8.69	-0.249	-0.0019992163653332357	
8.695	0.012	-0.00518735634127428	
8.7	0.198	-0.01096808603145414	
8.705	-0.217	-0.017551090659092595	
8.71	-0.122	-0.02074842448264113	
8.715	0.335	-0.01796318495106706	
8.72	0.023	-0.003823205972696732	
8.725	0.038	0.026957389356672253	
8.73	0.896	0.09761956739004013	
8.735	0.976	0.23082089099954317	
8.74	0.570	0.4049494260420554	
8.745	0.846	0.5697534251540186	
8.75	0.674	0.6760125410603715	
8.755	-0.200	0.6813873445960927	
8.76	-0.320	0.5701268980031966	
8.765	-0.166	0.3689901537873993	
8.77	-0.369	0.13827862053525156	
8.775	-0.421	-0.05699861016422696	
8.78	-0.063	-0.18747370242126749	
8.785	-0.105	-0.26018476356898634	
8.79	-0.317	-0.28095157266445636	
8.795	-0.040	-0.2582149722874536	
8.8	0.136	-0.21596976652588112	
8.805	-0.244	-0.17051737032056175	
8.81	-0.162	-0.1267748962629315	
8.815	0.238	-0.09100097498454568	
8.82	-0.131	-0.06580769278971166	
8.825	-0.230	-0.048053657835654975	
8.83	0.161	-0.03644523013669307	
8.835	0.070	-0.029234889387827333	
8.84	-0.223	-0.023048242053802476	
8.845	0.101	-0.011159578711405244	
8.85	0.251	0.00208060319279192	
8.855	-0.200	0.013379757700875457	
8.86	-0.111	0.017226708576783448	
8.865	0.337	0.018112943995852886	
8.87	-0.052	0.02214223407929887	
8.875	-0.172	0.02687787088898705	
8.88	0.312	0.03465497732086652	
8.885	0.157	0.04678715432769139	
8.89	-0.209	0.05784684241432975	
8.895	0.119	0.06285914918385532	
8.9	0.305	0.06415164014201352	
8.905	-0.156	0.06533516954572816	
8.91	-0.052	0.06519904835338672	
8.915	0.404	0.06516375310914507	
8.92	-0.034	0.06914235716089563	
8.925	-0.160	0.07183825054860798	
8.93	0.370	0.07466256855954592	
8.935	0.271	0.08781936912804801	
8.94	-0.116	0.10885556173312222	
8.945	0.276	0.1308323607057027	
8.95	0.460	0.15414420849978794	
8.955	-0.056	0.1753801156050161	
8.96	0.093	0.1871786768491252	
8.965	0.562	0.19709791572020824	
8.97	0.184	0.21221337546232863	
8.975	0.027	0.22989170169011242	
8.98	0.590	0.24853868048037103	
8.985	0.425	0.27382504858392487	
8.99	-0.017	0.29498823246544575	
8.995	0.381	0.30371395795387846	
9.0	0.534	0.3070464896862718	
9.005	-0.018	0.303582099968151	
9.01	0.111	0.28715600590516555	
9.015	0.518	0.264868451835043	
9.02	-0.002	0.2413813994817138	
9.025	-0.186	0.20502481927561833	
9.03	0.201	0.15522918644277944	
9.035	-0.005	0.09885554424332474	
9.04	-0.316	0.0413177615413116	
9.045	-0.124	-0.013508811820532426	
9.05	-0.043	-0.07015490572277687	
9.055	-0.372	-0.12504568153272652	
9.06	-0.334	-0.16883434731187574	
9.065	-0.104	-0.20548956434746216	
9.07	-0.340	-0.2424073796778976	
9.075	-0.436	-0.26772877693573816	
9.08	-0.143	-0.2800702781464388	
9.085	-0.221	-0.2911802308887472	
9.09	-0.445	-0.2953910155366965	
9.095	-0.226	-0.28862801338328914	
9.1	-0.108	-0.28333293144432553	
9.105	-0.370	-0.2788595821920266	
9.11	-0.290	-0.2647904398702732	
9.115	-0.008	-0.24865839392961314	
9.12	-0.252	-0.23536933810481933	
9.125	-0.349	-0.22163514218336205	
9.13	-0.015	-0.2051465268389202	
9.135	-0.098	-0.1932241461429684	
9.14	-0.329	-0.18233828004100006	
9.145	-0.093	-0.1666154410351472	
9.15	0.085	-0.15236351682624982	
9.155	-0.270	-0.1388790059386794	
9.16	-0.188	-0.12477060964374413	
9.165	0.152	-0.1116320685023659	
9.17	-0.180	-0.10341141890314107	
9.175	-0.277	-0.09766089420691618	
9.18	0.108	-0.09307851224714352	
9.185	-0.005	-0.0892280272962796	
9.19	-0.285	-0.08441590597377727	
9.195	-0.043	-0.07956556964823511	
9.2	0.120	-0.07831308193131917	
9.205	-0.238	-0.07796938685570884	
9.21	-0.145	-0.07476321436405334	
9.215	0.247	-0.06652793091879637	
9.22	-0.130	-0.055474773220243176	
9.225	-0.258	-0.04873000730889721	
9.23	0.130	-0.045977072101038144	
9.235	0.020	-0.04822622667673655	
9.24	-0.264	-0.05052319605200631	
9.245	0.015	-0.048495492471921864	
9.25	0.190	-0.045235566617332745	
9.255	-0.223	-0.04108575509763768	
9.26	-0.146	-0.03677769193285399	
9.265	0.226	-0.03541017780257616	
9.27	-0.133	-0.036543180309158485	
9.275	-0.229	-0.03880690953349673	
9.28	0.186	-0.03784199054010826	
9.285	0.047	-0.03421824916091268	
9.29	-0.261	-0.030669116477949086	
9.295	0.004	-0.0284222389854022	
9.3	0.174	-0.03013975083588189	
9.305	-0.224	-0.03322433784436865	
9.31	-0.133	-0.03478749396708232	
9.315	0.277	-0.03325322398747262	
9.32	-0.116	-0.028619552710154313	
9.325	-0.221	-0.024918448036938934	
9.33	0.213	-0.020703167349416934	
9.335	0.075	-0.014192240125263966	
9.34	-0.241	-0.00882214717050291	
9.345	0.070	-0.0033561755782119925	
9.35	0.270	0.002978614015627353	
9.355	-0.175	0.011649726640258299	
9.36	-0.089	0.01916704794368062	
9.365	0.352	0.02488410536015237	
9.37	-0.035	0.03334360988516416	
9.375	-0.154	0.0419776477762179	
9.38	0.332	0.05139081632157624	
9.385	0.174	0.06585162472247025	
9.39	-0.180	0.07706865760773814	
9.395	0.130	0.0826549550047482	
9.4	0.322	0.08405837424278825	
9.405	-0.160	0.08359594879698956	
9.41	-0.096	0.0771208839661777	
9.415	0.291	0.06193897611619261	
9.42	-0.107	0.044348932336693	
9.425	-0.224	0.02493223731102353	
9.43	0.175	0.007404665528877726	
9.435	0.038	-0.00812156979310498	
9.44	-0.267	-0.02094570483694301	
9.445	0.009	-0.029344182235338887	
9.45	0.194	-0.03492281217665262	
9.455	-0.224	-0.03740975382576013	
9.46	-0.145	-0.036877956834609676	
9.465	0.210	-0.03804333301003568	
9.47	-0.119	-0.0406637543040929	
9.475	-0.232	-0.04207814993639448	
9.48	0.195	-0.039566358989835154	
9.485	0.087	-0.03212474175260569	
9.49	-0.168	-0.019975499792515193	
9.495	0.415	0.014699502843253427	
9.5	0.913	0.09715123819173227	
9.505	0.636	0.23859654393451873	
9.51	0.823	0.416101120055831	
9.515	1.131	0.58995085014035	
9.52	0.370	0.7092878029984813	
9.525	-0.180	0.7187987582034276	
9.53	-0.076	0.602329282732551	
9.535	-0.242	0.39490219814908667	
9.54	-0.460	0.16609691258663262	
9.545	-0.191	-0.022330681840026373	
9.55	-0.006	-0.15489539175032355	
9.555	-0.300	-0.22835665472669653	
9.56	-0.217	-0.24685388717172804	
9.565	0.155	-0.23205447747215907	
9.57	-0.159	-0.20066212005309125	
9.575	-0.255	-0.16406231423202322	
9.58	0.133	-0.12557640681252913	
9.585	-0.015	-0.09715580477001838	
9.59	-0.282	-0.0799817684971848	
9.595	0.001	-0.06629418578788715	
9.6	0.206	-0.054909783233886664	
9.605	-0.200	-0.043487084962697764	
9.61	-0.114	-0.030852014802673872	
9.615	0.309	-0.018962944236943786	
9.62	-0.090	-0.006740494674220897	
9.625	-0.203	0.0008692133211571706	
9.63	0.270	0.008542646847447578	
9.635	0.149	0.01986572588975252	
9.64	-0.197	0.03290914409321219	
9.645	0.117	0.04475209758255129	
9.65	0.287	0.05216240135037719	
9.655	-0.154	0.05742264361321513	
9.66	-0.046	0.059128370204744526	
9.665	0.393	0.062131257215939525	
9.67	0.003	0.06923223113289606	
9.675	-0.130	0.0768075363254313	
9.68	0.373	0.08660292139197195	
9.685	0.255	0.10188874757505237	
9.69	-0.133	0.1188463446090655	
9.695	0.224	0.1327619620599097	
9.7	0.383	0.14220734102271523	
9.705	-0.060	0.14939620293804867	
9.71	0.111	0.1561074055626542	
9.715	0.599	0.17216866421571098	
9.72	0.184	0.199249454070129	
9.725	-0.003	0.22577010264422617	
9.73	0.588	0.24657985422707457	
9.735	0.466	0.27293109352549794	
9.74	0.003	0.3008701802068722	
9.745	0.448	0.31768948621919846	
9.75	0.634	0.3341989457207212	
9.755	0.110	0.3505096789891483	
9.76	0.244	0.3570518859226107	
9.765	0.678	0.3600207646918551	
9.77	0.255	0.3633874526119365	
9.775	0.033	0.35886598797604197	
9.78	0.564	0.3453427444412194	
9.785	0.355	0.33195402827807213	
9.79	-0.136	0.31012626670606247	
9.795	0.134	0.26948276868188026	
9.8	0.244	0.21301280594384542	
9.805	-0.233	0.14984801451863997	
9.81	-0.191	0.08405538587285656	
9.815	0.110	0.0196599314752531	
9.82	-0.252	-0.04238814022927468	
9.825	-0.380	-0.0968705416657948	
9.83	-0.102	-0.14302537385675484	
9.835	-0.201	-0.18808463843825168	
9.84	-0.444	-0.22546423584960287	
9.845	-0.242	-0.24767339407338826	
9.85	-0.140	-0.26625139654480157	
9.855	-0.419	-0.2828403643773939	
9.86	-0.332	-0.2868655748480308	
9.865	-0.052	-0.2826519624322116	
9.87	-0.282	-0.2772845310514186	
9.875	-0.380	-0.2656619028983067	
9.88	-0.113	-0.2512327962391371	
9.885	-0.178	-0.24516293208071432	
9.89	-0.392	-0.24327072583215684	
9.895	-0.157	-0.23271753071356371	
9.9	-0.017	-0.22238194538925804	
9.905	-0.332	-0.2137524433437929	
9.91	-0.259	-0.20082150214389097	
9.915	0.064	-0.1887393045267677	
9.92	-0.220	-0.1792895267226341	
9.925	-0.317	-0.16961248677945912	
9.93	0.027	-0.15823482832621186	
9.935	-0.093	-0.15218975912800647	
9.94	-0.345	-0.1502838872939512	
9.945	-0.113	-0.14668808502509123	
9.95	0.056	-0.14636855212218963	
9.955	-0.284	-0.1448060551586356	
9.96	-0.201	-0.1378064461568988	
9.965	0.161	-0.1276671191476058	
9.97	-0.195	-0.1183509544931529	
9.975	-0.285	-0.11166881251410339	
9.98	0.133	-0.10312687667421001	
9.985	0.004	-0.09318114370555197	
9.99	-0.281	-0.08340323828396314	
9.995	-0.011	-0.07362536234432954	
10.0	0.178	-0.06427699690741717	
10.005	-0.249	-0.05692896556693007	
10.01	-0.175	-0.05384395514479371	
10.015	0.221	-0.05353208083353429	
10.02	-0.127	-0.05338876813951561	
10.025	-0.239	-0.051774947822274306	
10.03	0.184	-0.04702500859200734	
10.035	0.033	-0.04113623393955666	
10.04	-0.253	-0.036532758487480166	
10.045	0.001	-0.03359613577399521	
10.05	0.183	-0.03316843944039452	
10.055	-0.217	-0.033021636001416416	
10.06	-0.154	-0.03288905542985837	
10.065	0.239	-0.03440780861556249	
10.07	-0.111	-0.035421883351089145	
10.075	-0.226	-0.0348790869219308	
10.08	0.209	-0.03092480746316205	
10.085	0.056	-0.024093026793389073	
10.09	-0.256	-0.019660396773104986	
10.095	0.037	-0.016561154081260833	
10.1	0.218	-0.015060799851754897	
10.105	-0.218	-0.013120609943575208	
10.11	-0.143	-0.013939100309132703	
10.115	0.273	-0.016282813278687254	
10.12	-0.087	-0.01644328554259748	
10.125	-0.204	-0.01398504542321541	
10.13	0.239	-0.008844278903383922	
10.135	0.094	-3.833003490699336e-05	
10.14	-0.241	-0.015026179127684614	
10.145	-0.012	-0.01398504542321541	
10.15	0.195	-0.001980318330590785	
10.155	-0.206	-0.011173894992836086	
10.16	-0.134	-0.01796678147028391	
10.165	0.276	-0.020208365080269956	
10.17	-0.108	-0.02046709054566523	
10.175	-0.221	-0.020041758299190814	
10.18	0.209	-0.0177866785805591	
10.185	0.047	-0.015026179127684614	
10.19	-0.246	-0.013831187468413924	
10.195	0.037	-0.013517589020352536	
10.2	0.215	-0.012925018041918708	
10.205	-0.201	-0.012244146337553672	
10.21	-0.104	-0.00998744622524113	
10.215	0.320	-0.005127904207256363	
10.22	-0.081	0.002510334935569344	
10.225	-0.191	0.00888801177330258	
10.23	0.268	0.015270254123956517	
10.235	0.136	0.025015472735200352	
10.24	-0.207	0.03409583093796151	
10.245	0.105	0.041477058626708585	
10.25	0.311	0.04714432630382539	
10.255	-0.140	0.05472850867907776	
10.26	-0.053	0.05995853800946024	
10.265	0.386	0.0639138496601169	
10.27	-0.060	0.0675372315353476	
10.275	-0.215	0.0638334564740225	
10.28	0.265	0.053254176767073245	
10.285	0.133	0.0470717343828734	
10.29	-0.229	0.0421022226948744	
10.295	0.029	0.035414283698765155	
10.3	0.194	0.022150244080735	
10.305	-0.242	0.005791987453767415	
10.31	-0.182	-0.01207668640043732	
10.315	0.209	-0.031141559640233216	
10.32	-0.130	-0.04638967165067037	
10.325	-0.242	-0.055122909440769564	
10.33	0.137	-0.056824985265552866	
10.335	0.011	-0.057931909523112876	
10.34	-0.279	-0.059827495022051744	
10.345	-0.032	-0.059613622462379626	
10.35	0.137	-0.06188938590968317	
10.355	-0.229	-0.06516186178649877	
10.36	-0.104	-0.06205915619175069	
10.365	0.512	-0.03915788423062311	
10.37	0.405	0.02465722944783957	
10.375	0.511	0.13892758845668451	
10.38	1.201	0.30517134195196405	
10.385	0.962	0.4970676113361176	
10.39	0.157	0.6441228984417736	
10.395	0.149	0.6802289537474091	
10.4	-0.031	0.5880365542886105	
10.405	-0.441	0.4039164930795801	
10.41	-0.387	0.19192691368748413	
10.415	-0.090	-0.0022377318843309667	
10.42	-0.253	-0.151267234262733	
10.425	-0.317	-0.23501569049126989	
10.43	0.055	-0.25692286790183405	
10.435	-0.044	-0.2449222805068528	
10.44	-0.311	-0.2157235165581614	
10.445	-0.084	-0.1796782060163049	
10.45	0.099	-0.14994790609673198	
10.455	-0.261	-0.12908449471993952	
10.46	-0.221	-0.11206896256005955	
10.465	0.149	-0.10224775405013453	
10.47	-0.137	-0.09735412443687552	
10.475	-0.227	-0.09007423502585875	
10.48	0.207	-0.07286020665031179	
10.485	0.076	-0.05193732698271444	
10.49	-0.246	-0.03282460622036582	
10.495	0.021	-0.018615295943992687	
10.5	0.216	-0.011872056247003358	
10.505	-0.201	-0.009197238734357497	
10.51	-0.122	-0.007075351166272484	
10.515	0.300	-0.0051097724504240265	
10.52	-0.067	-0.0014222293020859117	
10.525	-0.177	0.004822174117981937	
10.53	0.309	0.015267137722671928	
10.535	0.192	0.035092662100608074	
10.54	-0.186	0.055038592452095456	
10.545	0.136	0.06943733029722843	
10.55	0.326	0.07822680617268715	
10.555	-0.146	0.08369808606511776	
10.56	-0.040	0.0838889460375341	
10.565	0.425	0.084000343480793	
10.57	0.065	0.0915583626132801	
10.575	-0.084	0.10474709683239311	
10.58	0.433	0.12131667547993592	
10.585	0.314	0.14512343521581728	
10.59	-0.101	0.16798867427243036	
10.595	0.290	0.1834335129342477	
10.6	0.512	0.1982630359849225	
10.605	-0.005	0.21570719900619845	
10.61	0.137	0.2268616743091033	
10.615	0.593	0.23597330807714725	
10.62	0.206	0.25160345503444614	
10.625	0.026	0.2637675974312182	
10.63	0.550	0.2732197140404132	
10.635	0.454	0.2871420010198644	
10.64	0.003	0.30211673840443937	
10.645	0.401	0.31033220291965147	
10.65	0.570	0.31615875399917354	
10.655	-0.026	0.31689008922154493	
10.66	0.018	0.29584889635017897	
10.665	0.392	0.2557286523754453	
10.67	-0.070	0.20675039272750861	
10.675	-0.233	0.14894915045667795	
10.68	0.091	0.08593225076492775	
10.685	-0.089	0.021111470611127777	
10.69	-0.375	-0.04254690240825092	
10.695	-0.198	-0.0978280965944772	
10.7	-0.117	-0.1520857234970294	
10.705	-0.416	-0.20278088466134164	
10.71	-0.364	-0.2390574695678317	
10.715	-0.130	-0.2655998323197296	
10.72	-0.335	-0.29012543690516807	
10.725	-0.436	-0.3007943223241353	
10.73	-0.156	-0.3012974803202349	
10.735	-0.235	-0.30298721360106334	
10.74	-0.451	-0.30330234613453444	
10.745	-0.223	-0.2948664883491343	
10.75	-0.096	-0.28526799666233515	
10.755	-0.370	-0.27767259147918416	
10.76	-0.308	-0.2639733278219004	
10.765	-0.040	-0.249729089529996	
10.77	-0.268	-0.24215261296456575	
10.775	-0.355	-0.23370419582078406	
10.78	-0.023	-0.2193069107359276	
10.785	-0.107	-0.20704948116273267	
10.79	-0.343	-0.19529504457387245	
10.795	-0.107	-0.1798152777513078	
10.8	0.033	-0.16627713807391303	
10.805	-0.296	-0.15774409144530888	
10.81	-0.220	-0.1489485402175243	
10.815	0.120	-0.13964386757918937	
10.82	-0.182	-0.13222058882294646	
10.825	-0.273	-0.12377273856488362	
10.83	0.120	-0.1121881475294147	
10.835	-0.003	-0.09903595555073348	
10.84	-0.281	-0.08743844662328458	
10.845	-0.032	-0.07775248010132915	
10.85	0.165	-0.07116197547745456	
10.855	-0.235	-0.06487549633020862	
10.86	-0.175	-0.05998814329038493	
10.865	0.227	-0.05748856023120514	
10.87	-0.117	-0.0532747753104775	
10.875	-0.239	-0.04989293264931252	
10.88	0.152	-0.045064661812437214	
10.885	0.035	-0.04300007310441577	
10.89	-0.259	-0.040582524601563266	
10.895	-0.015	-0.03969243362778446	
10.9	0.189	-0.04005638574936427	
10.905	-0.221	-0.04000210349672824	
10.91	-0.148	-0.039007747470376455	
10.915	0.242	-0.03734496464223766	
10.92	-0.102	-0.035347683122173554	
10.925	-0.221	-0.031991557428329	
10.93	0.207	-0.02692375404088084	
10.935	0.068	-0.01898454755784312	
10.94	-0.246	-0.013734149595272483	
10.945	0.033	-0.00961759711781257	
10.95	0.226	-0.007951229516614918	
10.955	-0.201	-0.006140693097388318	
10.96	-0.143	-0.0070331184558376355	
10.965	0.255	-0.010198677005878473	
10.97	-0.102	-0.0144126957779776	
10.975	-0.213	-0.017095165879260375	
10.98	0.226	-0.015795061427391857	
10.985	0.087	-0.009956453610368015	
10.99	-0.230	-0.002872916660369984	
10.995	0.053	0.0024403330998853104	
11.0	0.262	0.0071487349469656555	
11.005	-0.177	0.01274493860915303	
11.01	-0.110	0.015940888222742318	
11.015	0.285	0.015924785852360426	
11.02	-0.104	0.012534160608787866	
11.025	-0.206	0.0068136013010971	
11.03	0.259	0.005307984622279914	
11.035	0.122	0.01107505985413811	
11.04	-0.221	0.018014150050757405	
11.045	0.049	0.02247057595798864	
11.05	0.226	0.021231850792280745	
11.055	-0.201	0.016663320698780862	
11.06	-0.104	0.010907185135968108	
11.065	0.337	0.009033112671334973	
11.07	-0.056	0.013523138370347155	
11.075	-0.197	0.01872171493483426	
11.08	0.255	0.022357534312847194	
11.085	0.123	0.02812449144354414	
11.09	-0.223	0.031940677687522775	
11.095	0.073	0.03346322865338404	
11.1	0.265	0.03230555759038097	
11.105	-0.191	0.03064002918231245	
11.11	-0.119	0.02584960032773878	
11.115	0.280	0.019069172792671767	
11.12	-0.061	0.012551275885840138	
11.125	-0.172	0.01068155088467655	
11.13	0.270	0.01536293824033857	
11.135	0.130	0.025165511713737584	
11.14	-0.215	0.03291242560992369	
11.145	0.079	0.03743575307559617	
11.15	0.258	0.038347847066909954	
11.155	-0.180	0.036642262562325036	
11.16	-0.119	0.030802237511702905	
11.165	0.236	0.02109166453299189	
11.17	-0.082	0.007582518779364469	
11.175	-0.188	-0.0013642953369016702	
11.18	0.236	-0.00163733470523863	
11.185	0.125	0.004219046846332741	
11.19	-0.220	0.012881217912461796	
11.195	0.055	0.0194046622405584	
11.2	0.253	0.0214007522930847	
11.205	-0.185	0.02163607329212636	
11.21	-0.113	0.019756289634357722	
11.215	0.300	0.01713682524548743	
11.22	-0.085	0.013601914357822974	
11.225	-0.200	0.010571922841935033	
11.23	0.248	0.01037449480121476	
11.235	0.126	0.015270648109340946	
11.24	-0.223	0.0208387786235249	
11.245	0.050	0.024378238316056157	
11.25	0.241	0.02345706673474697	
11.255	-0.194	0.01962937121296857	
11.26	-0.111	0.014704343770288552	
11.265	0.349	0.013178780063417486	
11.27	-0.009	0.019643734924501714	
11.275	-0.148	0.031517727989530106	
11.28	0.302	0.04636057194783967	
11.285	0.169	0.06032251221086592	
11.29	-0.182	0.07081724856354789	
11.295	0.126	0.07733671811697734	
11.3	0.346	0.08150363680078052	
11.305	-0.127	0.08565054786310912	
11.31	-0.058	0.08664584616412445	
11.315	0.396	0.08417661559848477	
11.32	0.000	0.08469247367424997	
11.325	-0.157	0.08449105344217955	
11.33	0.287	0.08131570910411098	
11.335	0.128	0.0773657399166702	
11.34	-0.244	0.06884816476430156	
11.345	-0.009	0.05127057441325342	
11.35	0.187	0.02648726072666911	
11.355	-0.215	0.001732339592402289	
11.36	-0.149	-0.016360410056224524	
11.365	0.258	-0.02689377124205853	
11.37	-0.113	-0.03325770884417495	
11.375	-0.229	-0.03445788907885437	
11.38	0.180	-0.03275421486162994	
11.385	0.055	-0.029641062319630897	
11.39	-0.265	-0.028076698241677363	
11.395	-0.040	-0.029756860719015486	
11.4	0.192	-0.03556195845416828	
11.405	-0.148	-0.03721164023591461	
11.41	0.174	-0.015325782977869871	
11.415	0.985	0.06010107899914772	
11.42	0.835	0.20581894100382309	
11.425	0.666	0.396576209651871	
11.43	1.012	0.5791258895944339	
11.435	0.474	0.6942858072585802	
11.44	-0.261	0.6949220422489768	
11.445	-0.217	0.5721231920429296	
11.45	-0.175	0.3613678233840222	
11.455	-0.412	0.13192870822653913	
11.46	-0.296	-0.052288971587479124	
11.465	0.061	-0.17003894120864443	
11.47	-0.198	-0.230164489397748	
11.475	-0.294	-0.24330693108605075	
11.48	0.078	-0.22288918163419713	
11.485	-0.020	-0.1916927592788218	
11.49	-0.300	-0.15992024351831668	
11.495	-0.066	-0.12979621239062888	
11.5	0.140	-0.10768570854158818	
11.505	-0.246	-0.09312429813748327	
11.51	-0.171	-0.08029870627818553	
11.515	0.223	-0.06906404521566101	
11.52	-0.130	-0.06123229753809227	
11.525	-0.244	-0.05533434829860527	
11.53	0.174	-0.04784147256806007	
11.535	0.050	-0.04069994598144999	
11.54	-0.259	-0.0359798177818207	
11.545	0.018	-0.030751793672948995	
11.55	0.250	-0.025628425182789925	
11.555	-0.185	-0.017191604207539207	
11.56	-0.137	-0.008315874117211328	
11.565	0.277	-0.004986611672478928	
11.57	-0.090	-0.003265098284314743	
11.575	-0.206	-0.003389996107251503	
11.58	0.255	0.00023096670090567775	
11.585	0.148	0.010317242834390391	
11.59	-0.191	0.02294846652642435	
11.595	0.125	0.037279735782294626	
11.6	0.331	0.05141691203661174	
11.605	-0.137	0.06474564036057817	
11.61	-0.044	0.07167146024885435	
11.615	0.437	0.0790793247692264	
11.62	0.046	0.09172771567973353	
11.625	-0.130	0.1025597493301535	
11.63	0.349	0.11024137732657295	
11.635	0.290	0.1203494444430312	
11.64	-0.111	0.13393930623431843	
11.645	0.265	0.1482486349270165	
11.65	0.501	0.16642996440589225	
11.655	-0.018	0.18779371348352797	
11.66	0.094	0.2026403371211402	
11.665	0.619	0.21501905618320488	
11.67	0.244	0.23780303310395398	
11.675	0.008	0.2596087225452261	
11.68	0.538	0.2741097120466514	
11.685	0.419	0.28735169252861814	
11.69	-0.041	0.2960950340688729	
11.695	0.341	0.2931328899840252	
11.7	0.501	0.2872918903160372	
11.705	-0.090	0.2750102354037678	
11.71	-0.069	0.24164887281821143	
11.715	0.305	0.19072599677234617	
11.72	-0.127	0.13395513376559465	
11.725	-0.262	0.07484334462336999	
11.73	0.043	0.01780162549533875	
11.735	-0.116	-0.038702354745452236	
11.74	-0.389	-0.09252652052658042	
11.745	-0.212	-0.1370232357933685	
11.75	-0.120	-0.17998868936974757	
11.755	-0.415	-0.22164766526471283	
11.76	-0.364	-0.25023773397425525	
11.765	-0.114	-0.269624557241546	
11.77	-0.334	-0.28793049991456643	
11.775	-0.444	-0.29689361503668926	
11.78	-0.157	-0.29643883375181956	
11.785	-0.226	-0.29879975377213447	
11.79	-0.445	-0.2992730143512279	
11.795	-0.246	-0.2920769159729776	
11.8	-0.104	-0.2861721741301354	
11.805	-0.366	-0.280517703405707	
11.81	-0.310	-0.2681606250188049	
11.815	-0.041	-0.25377014738564807	
11.82	-0.262	-0.24493837521413234	
11.825	-0.357	-0.2347904865465729	
11.83	-0.031	-0.21947130435519874	
11.835	-0.099	-0.2068661567388414	
11.84	-0.348	-0.19524001474325225	
11.845	-0.128	-0.18103311618280332	
11.85	0.037	-0.1702053125392269	
11.855	-0.297	-0.16256751109031276	
11.86	-0.232	-0.1541209532128116	
11.865	0.117	-0.14471899229027785	
11.87	-0.175	-0.13700552703882762	
11.875	-0.297	-0.12882281789204925	
11.88	0.075	-0.12037698809459227	
11.885	-0.021	-0.11288266717236807	
11.89	-0.294	-0.10633848676403768	
11.895	-0.041	-0.09895624414316725	
11.9	0.128	-0.09113933002499727	
11.905	-0.255	-0.08668830978969204	
11.91	-0.186	-0.08212261935767999	
11.915	0.192	-0.07859113498232934	
11.92	-0.146	-0.07608022152644926	
11.925	-0.239	-0.07291264458407742	
11.93	0.181	-0.06423820202518954	
11.935	0.072	-0.05186064229922341	
11.94	-0.258	-0.03849428071187797	
11.945	-0.021	-0.03089595451115533	
11.95	0.154	-0.032028952540089486	
11.955	-0.250	-0.03782371360628234	
11.96	-0.163	-0.04615112116407352	
11.965	0.255	-0.049430603302214896	
11.97	-0.105	-0.047137858276918326	
11.975	-0.232	-0.042031989915444185	
11.98	0.160	-0.03711817828070543	
11.985	0.029	-0.03482938864260734	
11.99	-0.259	-0.035635810339506746	
11.995	0.012	-0.034831500809867924	
12.0	0.203	-0.03391087902905697	
12.005	-0.227	-0.031949104799399206	
12.01	-0.160	-0.032195192452692284	
12.015	0.256	-0.033287398459839995	
12.02	-0.087	-0.03118664542213369	
12.025	-0.223	-0.02814529837871682	
12.03	0.194	-0.022998631161975258	
12.035	0.061	-0.017784813400329058	
12.04	-0.262	-0.01577934662529732	
12.045	0.006	-0.016796857774536482	
12.05	0.235	-0.01879679623092327	
12.055	-0.197	-0.017043860488585878	
12.06	-0.130	-0.014241606241772592	
12.065	0.294	-0.011169766505639686	
12.07	-0.078	-0.0062143213162608865	
12.075	-0.206	-0.0022425429224115253	
12.08	0.210	0.0010806917267503673	
12.085	0.081	0.004257798103073088	
12.09	-0.233	0.00512466095892394	
12.095	0.033	0.004222293823048244	
12.1	0.248	0.0032804828694413656	
12.105	-0.201	0.002890980386553224	
12.11	-0.142	0.0017199797589644013	
12.115	0.285	-0.002091402280117591	
12.12	-0.078	-0.004224180398859389	
12.125	-0.207	-0.004304656390905481	
12.13	0.242	-0.000867588598050958	
12.135	0.102	0.0062906902289705845	
12.14	-0.236	0.01105911979749131	
12.145	0.020	0.01222499523739828	
12.15	0.233	0.008332227126303535	
12.155	-0.195	0.0038558610273261803	
12.16	-0.133	0.0006972111699240647	
12.165	0.258	-0.004042195395143109	
12.17	-0.081	-0.008236056612302017	
12.175	-0.198	-0.010345082242131555	
12.18	0.258	-0.004824378750146694	
12.185	0.145	0.007310057131725311	
12.19	-0.221	0.02100778067540108	
12.195	0.033	0.027236184262914475	
12.2	0.230	0.004975810084368159	
12.205	-0.192	0.00475400634482659	
12.21	-0.128	0.012684750779456196	
12.215	0.302	0.007006116957237255	
12.22	-0.067	0.00475400634482659	
12.225	-0.204	0.004615638148827235	
12.23	0.210	0.006197652503442142	
12.235	0.075	0.006320741854484691	
12.24	-0.233	0.004975810084368159	
12.245	0.052	0.004256333262783831	
12.25	0.233	0.004404659824303977	
12.255	-0.217	0.0027793143550401724	
12.26	-0.145	-0.0013363889128021368	
12.265	0.317	-0.005946826148729594	
12.27	-0.055	-0.003246655550198754	
12.275	-0.194	0.002574389379664446	
12.28	0.232	0.010219116859206392	
12.285	0.108	0.016347366725500714	
12.29	-0.246	0.018941368459893165	
12.295	0.011	0.016240217935091755	
12.3	0.241	0.009433596950516059	
12.305	-0.186	0.003785104493032633	
12.31	-0.133	0.0006477068788465328	
12.315	0.277	-0.001946813102168783	
12.32	-0.079	-0.004244820718259582	
12.325	-0.212	-0.005428852791479174	
12.33	0.168	-0.005777225063235819	
12.335	0.040	-0.009657637375524117	
12.34	-0.224	-0.01606294695163881	
12.345	0.084	-0.013729945093468237	
12.35	0.305	-0.002548968095483716	
12.355	-0.156	0.013746173819545252	
12.36	-0.096	0.026636497639220838	
12.365	0.340	0.035095695474552616	
12.37	-0.029	0.041742271452125626	
12.375	-0.160	0.04552562793406651	
12.38	0.311	0.05226060251764304	
12.385	0.190	0.0633855523344972	
12.39	-0.185	0.07388234707609093	
12.395	0.130	0.08023240554119988	
12.4	0.344	0.08350130494586028	
12.405	-0.127	0.08775777948622654	
12.41	-0.067	0.08658171185779268	
12.415	0.349	0.08110332513672665	
12.42	-0.063	0.07279596817100446	
12.425	-0.204	0.06049419734660151	
12.43	0.194	0.044206814708159084	
12.435	0.053	0.026432277807435615	
12.44	-0.256	0.007919296745393772	
12.445	-0.020	-0.00782584252431732	
12.45	0.174	-0.023502017406319773	
12.455	-0.224	-0.036176726689643	
12.46	-0.159	-0.043438480235850285	
12.465	0.238	-0.045932997034042966	
12.47	-0.107	-0.04615500697582825	
12.475	-0.230	-0.04349459218868841	
12.48	0.155	-0.038834195980874786	
12.485	0.035	-0.03655027281790698	
12.49	-0.273	-0.037065347741829166	
12.495	-0.024	-0.038855846783631506	
12.5	0.360	-0.03448606985984763	
12.505	0.149	-0.0011276959794097653	
12.51	0.562	0.08358738041712568	
12.515	1.250	0.23410523346665404	
12.52	0.825	0.4268649928353261	
12.525	0.306	0.5944201153228229	
12.53	0.444	0.6680397254894712	
12.535	-0.021	0.6234141150280557	
12.54	-0.450	0.4769429810325398	
12.545	-0.300	0.27709829483088194	
12.55	-0.153	0.06850542454650267	
12.555	-0.369	-0.10605855443998247	
12.56	-0.270	-0.21341858503663216	
12.565	0.062	-0.25896337222559346	
12.57	-0.194	-0.26610897487304985	
12.575	-0.291	-0.2454696090414999	
12.58	0.078	-0.20785741873089958	
12.585	-0.018	-0.170551387209742	
12.59	-0.293	-0.13906967862976266	
12.595	-0.066	-0.11185099892661046	
12.6	0.168	-0.09348085777652645	
12.605	-0.221	-0.0792044870244471	
12.61	-0.162	-0.06546319370537285	
12.615	0.247	-0.053862902321118865	
12.62	-0.096	-0.04319231029400335	
12.625	-0.218	-0.03457516053486761	
12.63	0.204	-0.024721346969606938	
12.635	0.105	-0.013524545135896923	
12.64	-0.233	-0.004221573295229202	
12.645	0.041	0.0032219399391410363	
12.65	0.248	0.006634930065532489	
12.655	-0.166	0.00965510902873186	
12.66	-0.085	0.014510699332334386	
12.665	0.352	0.022301094840372227	
12.67	-0.021	0.03173983800582447	
12.675	-0.159	0.04130300305199658	
12.68	0.328	0.05242142940269513	
12.685	0.218	0.06851542366350521	
12.69	-0.163	0.08461675127848148	
12.695	0.171	0.09727771401618922	
12.7	0.386	0.10775949773615436	
12.705	-0.120	0.1155279597155306	
12.71	-0.031	0.11645255658945641	
12.715	0.469	0.11544183535242433	
12.72	0.114	0.12372632553867467	
12.725	-0.060	0.1381997678093099	
12.73	0.498	0.15748814951634232	
12.735	0.390	0.18657200588636066	
12.74	-0.061	0.2145406360247127	
12.745	0.334	0.23425557455495014	
12.75	0.598	0.2528219097498645	
12.755	0.107	0.2755451180711308	
12.76	0.184	0.29440369581151465	
12.765	0.669	0.3094171375088639	
12.77	0.294	0.3267819297401828	
12.775	0.046	0.33820552187438946	
12.78	0.608	0.3423852518269101	
12.785	0.476	0.34859799076529807	
12.79	-0.014	0.3516616484978502	
12.795	0.335	0.3411485936154652	
12.8	0.489	0.3227174680875783	
12.805	-0.075	0.2967232725101292	
12.81	-0.041	0.25540232937516183	
12.815	0.361	0.20419036070766267	
12.82	-0.082	0.15192310024979383	
12.825	-0.255	0.09938763758897473	
12.83	0.046	0.044117853701659875	
12.835	-0.085	-0.014443748768359512	
12.84	-0.361	-0.07001610503262387	
12.845	-0.166	-0.11296915908373671	
12.85	-0.035	-0.15051460492931001	
12.855	-0.332	-0.18099933033757953	
12.86	-0.287	-0.1964924699715491	
12.865	-0.002	-0.20310294523309783	
12.87	-0.239	-0.20900698199667384	
12.875	-0.351	-0.20837883601375828	
12.88	-0.008	-0.200054523666953	
12.885	-0.061	-0.18954732220093695	
12.89	-0.322	-0.1778166853738253	
12.895	-0.099	-0.15999393049595131	
12.9	0.094	-0.14468105140521037	
12.905	-0.241	-0.13090808850448804	
12.91	-0.168	-0.11441450821507154	
12.915	0.256	-0.09322300047024487	
12.92	-0.079	-0.06900871952424645	
12.925	-0.194	-0.04628581044261096	
12.93	0.245	-0.0221146673618736	
12.935	0.131	0.0014045738287981975	
12.94	-0.201	0.020255197328078865	
12.945	0.113	0.03398760653405371	
12.95	0.328	0.04826520668649541	
12.955	-0.125	0.06115668525940987	
12.96	-0.034	0.07058158765045228	
12.965	0.441	0.0806964004829463	
12.97	0.072	0.09706304482361387	
12.975	-0.110	0.11175976354866267	
12.98	0.352	0.12175835604459957	
12.985	0.253	0.13143287027059822	
12.99	-0.143	0.13839108347713314	
12.995	0.158	0.13786546227099655	
13.0	0.372	0.13417810388491813	
13.005	-0.107	0.13035060500006007	
13.01	-0.049	0.12156178190364403	
13.015	0.360	0.10848213981569362	
13.02	-0.031	0.09520478310463978	
13.025	-0.166	0.08090847314670915	
13.03	0.268	0.0685230148713991	
13.035	0.180	0.06342982834723387	
13.04	-0.207	0.06165739804685912	
13.045	0.032	0.05570842602694259	
13.05	0.229	0.04398687670031534	
13.055	-0.182	0.03063152298066041	
13.06	-0.136	0.01659653757600837	
13.065	0.233	0.003175274307218095	
13.07	-0.122	-0.009639993687771973	
13.075	-0.261	-0.023870288319696085	
13.08	0.073	-0.038778181403834	
13.085	0.008	-0.05562447641026427	
13.09	-0.276	-0.06800638690108857	
13.095	-0.072	-0.07542457638152351	
13.1	0.072	-0.08425776838349079	
13.105	-0.288	-0.09609427010106554	
13.11	-0.220	-0.10632762657022267	
13.115	0.126	-0.1131302766276082	
13.12	-0.171	-0.11652665945922416	
13.125	-0.293	-0.1176385434518077	
13.13	0.026	-0.11702029536749799	
13.135	-0.078	-0.12070567980562963	
13.14	-0.335	-0.12773910297217023	
13.145	-0.134	-0.13451642578745257	
13.15	0.008	-0.14245517441001776	
13.155	-0.303	-0.1528843002269869	
13.16	-0.252	-0.15826603582051924	
13.165	0.050	-0.1603635263369837	
13.17	-0.209	-0.16244742340734325	
13.175	-0.332	-0.16347505088270858	
13.18	-0.060	-0.1641915772444734	
13.185	-0.133	-0.1717546162270201	
13.19	-0.361	-0.1815572801178511	
13.195	-0.142	-0.18457025219981665	
13.2	0.015	-0.18357085688920394	
13.205	-0.308	-0.18076799245074884	
13.21	-0.267	-0.17623922750776033	
13.215	0.041	-0.17248321334161135	
13.22	-0.206	-0.17040438408998673	
13.225	-0.319	-0.16740008026570033	
13.23	-0.002	-0.16126477446961998	
13.235	-0.099	-0.1587676200984381	
13.24	-0.337	-0.15849342259784915	
13.245	-0.127	-0.15660461295481304	
13.25	0.033	-0.1556062677563844	
13.255	-0.291	-0.15472499630804742	
13.26	-0.241	-0.15123717731811107	
13.265	0.075	-0.14851017736377375	
13.27	-0.186	-0.14639172479454288	
13.275	-0.305	-0.14339495494204124	
13.28	-0.005	-0.14027198988137204	
13.285	-0.079	-0.14076555380741446	
13.29	-0.325	-0.14350072764300975	
13.295	-0.125	-0.14459670304930622	
13.3	0.029	-0.1455929751912874	
13.305	-0.293	-0.1487533462886451	
13.31	-0.236	-0.14823827916781213	
13.315	0.087	-0.1464635420447264	
13.32	-0.194	-0.144419080763999	
13.325	-0.314	-0.14243971439543202	
13.33	-0.003	-0.1412099067002312	
13.335	-0.081	-0.14275032453662398	
13.34	-0.325	-0.14558300607143954	
13.345	-0.114	-0.1455593434513922	
13.35	0.058	-0.1445198308581363	
13.355	-0.290	-0.14284049364847656	
13.36	-0.255	-0.14126597725620202	
13.365	0.088	-0.14035609236241625	
13.37	-0.171	-0.14046014634335693	
13.375	-0.277	-0.13652389339953247	
13.38	0.082	-0.12609916626792866	
13.385	0.001	-0.11372036853698861	
13.39	-0.276	-0.10072032743821069	
13.395	-0.038	-0.08950980571933279	
13.4	0.186	-0.07740914707913751	
13.405	-0.200	-0.06395965736408701	
13.41	-0.142	-0.05130564425050378	
13.415	0.274	-0.03921012690219603	
13.42	-0.076	-0.024506368623932066	
13.425	-0.210	-0.01464776541541521	
13.43	0.181	-0.009001249799362277	
13.435	0.058	-0.005669299685312139	
13.44	-0.258	-0.006841410481554264	
13.445	-0.072	-0.016499895747606824	
13.45	0.065	-0.036323229408589876	
13.455	-0.265	-0.06202645371448106	
13.46	-0.206	-0.08333897315624214	
13.465	0.157	-0.09611384539008978	
13.47	-0.153	-0.10152155486547973	
13.475	-0.271	-0.1017220291282239	
13.48	0.079	-0.09892728962872221	
13.485	-0.031	-0.09663538299189309	
13.49	-0.314	-0.09693994265854305	
13.495	-0.093	-0.10046529022314979	
13.5	0.113	-0.10322410680627409	
13.505	-0.256	-0.1051100680855564	
13.51	-0.192	-0.10239162422716444	
13.515	0.218	-0.09600444369621094	
13.52	-0.020	-0.07953386282523217	
13.525	-0.035	-0.046807243603052356	
13.53	0.774	0.022182143317808576	
13.535	0.954	0.15547876996121654	
13.54	0.532	0.3339840121547421	
13.545	0.761	0.5024584532793226	
13.55	0.620	0.6137773117413949	
13.555	-0.198	0.6258296296782548	
13.56	-0.355	0.520474335745746	
13.565	-0.220	0.3269487793972452	
13.57	-0.389	0.10257402648880982	
13.575	-0.441	-0.09076014697506228	
13.58	-0.111	-0.21992486232254493	
13.585	-0.122	-0.28952268636893175	
13.59	-0.346	-0.30890226260855747	
13.595	-0.156	-0.2915420757000955	
13.6	0.011	-0.26221852597750256	
13.605	-0.276	-0.23103077697946872	
13.61	-0.238	-0.1984358361218534	
13.615	0.084	-0.17008192422009527	
13.62	-0.160	-0.15047374740322278	
13.625	-0.274	-0.13378557849189587	
13.63	0.055	-0.11794096538244855	
13.635	-0.011	-0.1075786475815203	
13.64	-0.285	-0.09996052507317399	
13.645	-0.067	-0.0934977069263441	
13.65	0.125	-0.08919041598357613	
13.655	-0.247	-0.08711258659025106	
13.66	-0.188	-0.08442106479790937	
13.665	0.184	-0.08098511609586384	
13.67	-0.130	-0.0775378691295303	
13.675	-0.253	-0.07384801790466242	
13.68	0.137	-0.06782745266469206	
13.685	0.043	-0.060571750254364794	
13.69	-0.264	-0.05407977370630064	
13.695	-0.043	-0.050435732322133844	
13.7	0.155	-0.05110853482471913	
13.705	-0.203	-0.05222509373547646	
13.71	-0.139	-0.05043073125677604	
13.715	0.271	-0.042857091198262184	
13.72	-0.046	-0.02959808863850611	
13.725	-0.163	-0.014936752549470338	
13.73	0.308	0.006289165089824591	
13.735	0.209	0.034457019966585706	
13.74	-0.142	0.06279316044188456	
13.745	0.198	0.08560221826133296	
13.75	0.436	0.109996500010822	
13.755	-0.052	0.13569370785016244	
13.76	0.033	0.15049524594070268	
13.765	0.521	0.1622257504239818	
13.77	0.189	0.18044083768170596	
13.775	-0.002	0.20098425407560302	
13.78	0.521	0.21925960517678686	
13.785	0.434	0.2455352737281686	
13.79	-0.020	0.26981679071929376	
13.795	0.322	0.27948994848440123	
13.8	0.527	0.2829840782915074	
13.805	0.030	0.2848418145695314	
13.81	0.107	0.2754430766870294	
13.815	0.535	0.2630615454393861	
13.82	0.119	0.25259272607373773	
13.825	-0.140	0.23308384757289868	
13.83	0.242	0.19698873456495788	
13.835	0.072	0.15155268502374322	
13.84	-0.284	0.10011312779093869	
13.845	-0.114	0.04230049108234504	
13.85	-0.017	-0.02122548851948155	
13.855	-0.351	-0.0838199804317871	
13.86	-0.326	-0.13751250077142874	
13.865	-0.098	-0.18229636286943376	
13.87	-0.310	-0.22323385884769478	
13.875	-0.436	-0.2536361979103974	
13.88	-0.177	-0.2713028669388574	
13.885	-0.230	-0.28752225789768926	
13.89	-0.460	-0.2985577942180824	
13.895	-0.264	-0.3007995444202985	
13.9	-0.127	-0.3004522481987555	
13.905	-0.390	-0.29860128564245614	
13.91	-0.329	-0.28944035843715243	
13.915	-0.031	-0.2755328233313349	
13.92	-0.238	-0.2601691340243315	
13.925	-0.363	-0.2424777664955467	
13.93	-0.084	-0.22546455220171338	
13.935	-0.149	-0.21658739162988566	
13.94	-0.389	-0.21339562391942835	
13.945	-0.206	-0.21184466810703761	
13.95	-0.067	-0.21357770689618932	
13.955	-0.349	-0.21950157666625425	
13.96	-0.310	-0.22139144504821676	
13.965	-0.029	-0.2216457550295378	
13.97	-0.259	-0.2231558999448665	
13.975	-0.375	-0.22339476709293213	
13.98	-0.070	-0.2195080111193874	
13.985	-0.136	-0.2176202955509256	
13.99	-0.378	-0.21534439721709323	
13.995	-0.180	-0.2108370110478885	
14.0	-0.049	-0.20760943508124813	
14.005	-0.343	-0.20850316139681171	
14.01	-0.319	-0.2093764492512852	
14.015	-0.049	-0.21264079067234842	
14.02	-0.256	-0.2201789665755499	
14.025	-0.369	-0.2234019629421867	
14.03	-0.096	-0.22146124771366574	
14.035	-0.174	-0.22363444248939368	
14.04	-0.413	-0.2294134348955242	
14.045	-0.229	-0.23277838252003663	
14.05	-0.143	-0.24055341074420586	
14.055	-0.441	-0.25662270418398003	
14.06	-0.428	-0.2743785853591144	
14.065	-0.204	-0.2954897271331716	
14.07	-0.419	-0.32327482535133	
14.075	-0.543	-0.3475275862067495	
14.08	-0.282	-0.36626579534630915	
14.085	-0.313	-0.3826030261176321	
14.09	-0.538	-0.39364468497515726	
14.095	-0.363	-0.3926498239880398	
14.1	-0.247	-0.39236432067349003	
14.105	-0.502	-0.39488599787375794	
14.11	-0.454	-0.39140911658492494	
14.115	-0.210	-0.3861614570692963	
14.12	-0.378	-0.38445069311666974	
14.125	-0.464	-0.3757764499225271	
14.13	-0.154	-0.35689999969415137	
14.135	-0.177	-0.3365615546146209	
14.14	-0.403	-0.31208214457213435	
14.145	-0.198	-0.28242114042299304	
14.15	-0.041	-0.25704023925814257	
14.155	-0.313	-0.2383497007902298	
14.16	-0.239	-0.21546608776926554	
14.165	0.157	-0.1876200316292197	
14.17	-0.136	-0.1567241151553213	
14.175	-0.255	-0.1271860713556507	
14.18	0.174	-0.09737440214449838	
14.185	0.137	-0.0654661844947039	
14.19	-0.209	-0.03368500936018796	
14.195	0.070	-0.005159315920824794	
14.2	0.322	0.018407098819866585	
14.205	-0.117	0.03911762651414085	
14.21	-0.053	0.05640540140502115	
14.215	0.396	0.06897204039615444	
14.22	0.114	0.0860360144454798	
14.225	-0.061	0.1063895354541834	
14.23	0.482	0.13413584956195368	
14.235	0.390	0.17064365809154391	
14.24	-0.052	0.20474621045867816	
14.245	0.325	0.22907142247608211	
14.25	0.561	0.24981691129354688	
14.255	0.064	0.2676508967464109	
14.26	0.180	0.2802892252496816	
14.265	0.678	0.2924907564450988	
14.27	0.320	0.31284899665744664	
14.275	0.088	0.3340044674376875	
14.28	0.628	0.3495181157203101	
14.285	0.562	0.36776666110708084	
14.29	0.126	0.3883264945359008	
14.295	0.527	0.40622017931563215	
14.3	0.773	0.42712369272980366	
14.305	0.291	0.4513393401277944	
14.31	0.393	0.4742020258611188	
14.315	0.864	0.4948246543239657	
14.32	0.482	0.5167157362223147	
14.325	0.264	0.5307692794590284	
14.33	0.791	0.5397774553707619	
14.335	0.697	0.54782613223992	
14.34	0.245	0.5550494086976048	
14.345	0.645	0.5593255227653853	
14.35	0.864	0.5653157075072541	
14.355	0.348	0.5731297913567324	
14.36	0.418	0.576142919316713	
14.365	0.841	0.5720410704490484	
14.37	0.405	0.5626364986326902	
14.375	0.157	0.540611817772649	
14.38	0.684	0.5109339195359848	
14.385	0.575	0.4858849720188428	
14.39	0.075	0.46389015168703385	
14.395	0.445	0.4393598709780724	
14.4	0.672	0.41842990897696913	
14.405	0.140	0.4040536305539694	
14.41	0.215	0.3890972092741719	
14.415	0.701	0.3771264583415796	
14.42	0.322	0.37265653606091054	
14.425	0.078	0.37056640000201413	
14.43	0.627	0.36793178900151213	
14.435	0.555	0.3729174432095895	
14.44	0.151	0.38490802299301485	
14.445	0.680	0.4093340301640712	
14.45	1.130	0.46444149333060775	
14.455	0.881	0.5651531453996452	
14.46	1.186	0.7121108032640399	
14.465	1.648	0.8870398708435246	
14.47	1.046	1.04666967292343	
14.475	0.390	1.1245366333257225	
14.48	0.399	1.0747164398741749	
14.485	-0.012	0.8928527137031971	
14.49	-0.345	0.6320383193285227	
14.495	-0.116	0.3672992393095011	
14.5	0.146	0.14636525053280192	
14.505	-0.180	-0.005733360291161019	
14.51	-0.095	-0.07984497265603402	
14.515	0.386	-0.09303792271912481	
14.52	0.032	-0.06825451171823999	
14.525	-0.128	-0.0253034737703954	
14.53	0.335	0.021770322886436624	
14.535	0.232	0.06387387665498032	
14.54	-0.143	0.09405773415999095	
14.545	0.189	0.11625222135201213	
14.55	0.433	0.1333069139514926	
14.555	-0.063	0.1472338190455211	
14.56	0.003	0.1540987774429663	
14.565	0.480	0.1559247071690085	
14.57	0.107	0.15977478783364446	
14.575	-0.078	0.1636976490110063	
14.58	0.425	0.1687273597935163	
14.585	0.322	0.17791064443967722	
14.59	-0.111	0.18510879039648617	
14.595	0.187	0.18618399229834645	
14.6	0.407	0.18027883140117054	
14.605	-0.067	0.17032847524232214	
14.61	0.026	0.161085990846984	
14.615	0.514	0.15784332856639016	
14.62	0.133	0.1638535324800611	
14.625	-0.098	0.17074128042574904	
14.63	0.390	0.17460388534850185	
14.635	0.297	0.17592940900435566	
14.64	-0.122	0.17623068467820177	
14.645	0.233	0.17409654957473297	
14.65	0.483	0.1772171648821567	
14.655	-0.023	0.18347845639494242	
14.66	0.061	0.18905858774849105	
14.665	0.562	0.19468208792584718	
14.67	0.206	0.20898068199682385	
14.675	-0.006	0.22484573213995432	
14.68	0.529	0.2394011019407745	
14.685	0.416	0.2579458522360981	
14.69	-0.008	0.2744507063192285	
14.695	0.399	0.28593350789056843	
14.7	0.658	0.30307135295327964	
14.705	0.157	0.3257592602720246	
14.71	0.245	0.3460437765997212	
14.715	0.712	0.3623698308614759	
14.72	0.315	0.3781819713078169	
14.725	0.075	0.3840447385773217	
14.73	0.588	0.38003615721638007	
14.735	0.459	0.37495308648475834	
14.74	-0.075	0.3618394010854924	
14.745	0.212	0.328656217923391	
14.75	0.387	0.28379148687165934	
14.755	-0.137	0.23321777750579187	
14.76	-0.149	0.17505322004016075	
14.765	0.160	0.1088638272233197	
14.77	-0.183	0.04048322817903706	
14.775	-0.354	-0.024586775228115774	
14.78	-0.099	-0.08348050529874254	
14.785	-0.171	-0.141105267756918	
14.79	-0.430	-0.1915790562803375	
14.795	-0.255	-0.22458409212403913	
14.8	-0.146	-0.2516013057784666	
14.805	-0.418	-0.2773058569953381	
14.81	-0.375	-0.28983265341428144	
14.815	-0.105	-0.2946225752707547	
14.82	-0.282	-0.29732755100842434	
14.825	-0.398	-0.2912500876565576	
14.83	-0.120	-0.27584214517265604	
14.835	-0.178	-0.2662030382403925	
14.84	-0.406	-0.25922265521091337	
14.845	-0.194	-0.24872152031783618	
14.85	-0.037	-0.23784065672858848	
14.855	-0.322	-0.22905363583717656	
14.86	-0.281	-0.2157816728822895	
14.865	0.033	-0.20188064492667346	
14.87	-0.212	-0.19223128752009688	
14.875	-0.343	-0.18409930744759365	
14.88	-0.053	-0.17602568003298324	
14.885	-0.079	-0.17522645269575915	
14.89	-0.332	-0.1740484240664309	
14.895	-0.143	-0.16779898374642296	
14.9	0.046	-0.16194214258361722	
14.905	-0.274	-0.15793537757455373	
14.91	-0.236	-0.15076618074828987	
14.915	0.117	-0.14097898178366053	
14.92	-0.154	-0.1321854875484108	
14.925	-0.290	-0.12404984349541971	
14.93	0.050	-0.11508406307359874	
14.935	0.009	-0.10822267397027284	
14.94	-0.267	-0.10100990688460482	
14.945	-0.047	-0.09082991927674103	
14.95	0.160	-0.0799450379338159	
14.955	-0.235	-0.0719103980274006	
14.96	-0.194	-0.06779832817607795	
14.965	0.212	-0.06498307996343707	
14.97	-0.119	-0.06114456678744059	
14.975	-0.270	-0.05907688730791825	
14.98	0.073	-0.061115976033390286	
14.985	0.015	-0.06617704949598205	
14.99	-0.285	-0.07200557217275928	
14.995	-0.081	-0.07588158111180468	
15.0	0.139	-0.07991995326848322	
15.005	-0.241	-0.08286815368268954	
15.01	-0.221	-0.08483900716925254	
15.015	0.146	-0.08799909080572013	
15.02	-0.143	-0.0911010833566308	
15.025	-0.274	-0.09308340632822097	
15.03	0.046	-0.09314031103845269	
15.035	-0.021	-0.09615434568529	
15.04	-0.282	-0.09900409020308126	
15.045	-0.063	-0.09789700997185963	
15.05	0.158	-0.09289925862904606	
15.055	-0.236	-0.08587060407946637	
15.06	-0.203	-0.07986379654416897	
15.065	0.174	-0.07697769112649806	
15.07	-0.125	-0.07509298902342418	
15.075	-0.277	-0.07411729685449589	
15.08	0.067	-0.07512827963383475	
15.085	-0.005	-0.07912965970892252	
15.09	-0.300	-0.08403444928832657	
15.095	-0.089	-0.08890528240511858	
15.1	0.125	-0.09287101556051519	
15.105	-0.239	-0.09488281730435894	
15.11	-0.204	-0.09387449855061893	
15.115	0.169	-0.09094912605419204	
15.12	-0.128	-0.08710010850745209	
15.125	-0.276	-0.08414230077382182	
15.13	0.041	-0.08310301742282296	
15.135	-0.009	-0.08712298296606286	
15.14	-0.284	-0.09206889128211329	
15.145	-0.069	-0.09288287595775532	
15.15	0.155	-0.08983919879860944	
15.155	-0.252	-0.08593081705512809	
15.16	-0.217	-0.08388826884035083	
15.165	0.165	-0.08389414831049417	
15.17	-0.140	-0.08512252785347832	
15.175	-0.290	-0.08618763733447378	
15.18	0.085	-0.08704569965901651	
15.185	0.017	-0.08610109059012189	
15.19	-0.293	-0.08513743597420644	
15.195	-0.081	-0.08387094723115726	
15.2	0.148	-0.08378665805152033	
15.205	-0.224	-0.08297521361844296	
15.21	-0.175	-0.07790394131185263	
15.215	0.218	-0.070829932970286	
15.22	-0.105	-0.062145385015856265	
15.225	-0.236	-0.05423990809962418	
15.23	0.165	-0.04699026209000144	
15.235	0.023	-0.03908483806532212	
15.24	-0.270	-0.038212190228887555	
15.245	-0.011	-0.03985135404968072	
15.25	0.242	-0.03771596991876944	
15.255	-0.209	-0.03102231588866467	
15.26	-0.203	-0.028959878939582337	
15.265	0.194	-0.034779102828531645	
15.27	-0.131	-0.04412081370159894	
15.275	-0.299	-0.05529605278637918	
15.28	0.001	-0.06999626917175628	
15.285	-0.084	-0.09304047697803695	
15.29	-0.367	-0.11822366451170034	
15.295	-0.169	-0.13987251851296328	
15.3	0.003	-0.15869546534419876	
15.305	-0.345	-0.17602635676290326	
15.31	-0.300	-0.18696219402468467	
15.315	0.027	-0.19374015512496906	
15.32	-0.232	-0.19713746302748808	
15.325	-0.386	-0.19933281925342367	
15.33	-0.110	-0.20094011668507603	
15.335	-0.145	-0.2090277141745436	
15.34	-0.381	-0.21830241498024233	
15.345	-0.113	-0.21482539601737666	
15.35	0.317	-0.18859923635122328	
15.355	0.082	-0.12709114120162074	
15.36	0.376	-0.022968636931217094	
15.365	0.905	0.12039561663386261	
15.37	0.341	0.2698016067097747	
15.375	-0.178	0.3604725503138755	
15.38	-0.096	0.3470650830173886	
15.385	-0.339	0.23401105822091486	
15.39	-0.656	0.06159393212336009	
15.395	-0.465	-0.11782785924347383	
15.4	-0.290	-0.2714959300488421	
15.405	-0.509	-0.38313052687411914	
15.41	-0.438	-0.4370280896635717	
15.415	-0.139	-0.44652067313638294	
15.42	-0.311	-0.43017018359302694	
15.425	-0.436	-0.3965295459006176	
15.43	-0.140	-0.35376201403045926	
15.435	-0.168	-0.3189269813788254	
15.44	-0.421	-0.2915759281902634	
15.445	-0.230	-0.26677966632488104	
15.45	-0.044	-0.24937309543701155	
15.455	-0.339	-0.23935903861569727	
15.46	-0.288	-0.22611211976441536	
15.465	0.090	-0.20826831010289087	
15.47	-0.177	-0.190280182155489	
15.475	-0.323	-0.17076796801205707	
15.48	0.030	-0.15249996743098243	
15.485	-0.015	-0.13883213766170183	
15.49	-0.313	-0.12891261420547828	
15.495	-0.090	-0.11766039018641837	
15.5	0.190	-0.10607884266905462	
15.505	-0.210	-0.092657339499784	
15.51	-0.165	-0.07622941117741969	
15.515	0.303	-0.05588778384713165	
15.52	-0.041	-0.03439726787494301	
15.525	-0.207	-0.014087723689671055	
15.53	0.232	0.0028146144653569353	
15.535	0.178	0.019302054026429427	
15.54	-0.206	0.03369227911107667	
15.545	0.081	0.0434407538209318	
15.55	0.408	0.055248353355466746	
15.555	-0.073	0.0730531114213068	
15.56	-0.006	0.09262790586353051	
15.565	0.526	0.11347174919060748	
15.57	0.168	0.14152844112059856	
15.575	-0.076	0.1676222180004836	
15.58	0.503	0.18905158327494018	
15.585	0.492	0.21843736127765226	
15.59	0.014	0.2534162899322605	
15.595	0.375	0.282478945713224	
15.6	0.669	0.3084543196303374	
15.605	0.177	0.33589748818515996	
15.61	0.259	0.3575369344428715	
15.615	0.764	0.3786408898300786	
15.62	0.392	0.4025070174299292	
15.625	0.119	0.41849746922877595	
15.63	0.663	0.42511799207647694	
15.635	0.569	0.4304855340896896	
15.64	0.020	0.4293393885706628	
15.645	0.343	0.41045723574653703	
15.65	0.543	0.3814961689580949	
15.655	-0.085	0.34190692506283604	
15.66	-0.095	0.2844866469873607	
15.665	0.351	0.21560405743817201	
15.67	-0.060	0.15058644179328484	
15.675	-0.255	0.0915448175426972	
15.68	0.085	0.039010224485038984	
15.685	-0.024	-0.01050612258582007	
15.69	-0.357	-0.056518164970284585	
15.695	-0.165	-0.09360251212626207	
15.7	-0.002	-0.12759625965205038	
15.705	-0.316	-0.1589554819042581	
15.71	-0.276	-0.1754603760702353	
15.715	0.078	-0.17951389509860763	
15.72	-0.197	-0.1793917738452057	
15.725	-0.337	-0.17438106951060078	
15.73	0.003	-0.16404345991081123	
15.735	-0.035	-0.15753544189670501	
15.74	-0.323	-0.1514860482263297	
15.745	-0.098	-0.1395977695800691	
15.75	0.171	-0.12559968124514279	
15.755	-0.236	-0.1119808926354032	
15.76	-0.224	-0.09647852706700108	
15.765	0.233	-0.08347480632801352	
15.77	-0.067	-0.07040842583323831	
15.775	-0.226	-0.055431578100167106	
15.78	0.223	-0.03498132854716075	
15.785	0.177	-0.012507307537076587	
15.79	-0.221	0.008420897676588926	
15.795	0.003	0.0224149651525005	
15.8	0.277	0.026471120402174565	
15.805	-0.153	0.02594758482279024	
15.81	-0.119	0.025496561864293135	
15.815	0.352	0.028624375911078512	
15.82	-0.005	0.03355785772527107	
15.825	-0.185	0.03948470257370045	
15.83	0.296	0.047100953544468235	
15.835	0.256	0.061529245344941606	
15.84	-0.169	0.077325520375882	
15.845	0.116	0.0894415011926218	
15.85	0.381	0.09855419506504799	
15.855	-0.117	0.10287973694336472	
15.86	-0.093	0.10044481298921512	
15.865	0.398	0.09369923714167064	
15.87	0.027	0.08956784484501748	
15.875	-0.168	0.0864196491314302	
15.88	0.331	0.08611871227130052	
15.885	0.248	0.09257726852746781	
15.89	-0.182	0.09929422701147221	
15.895	0.082	0.10040474893695453	
15.9	0.340	0.09558925753331356	
15.905	-0.125	0.0889098091867516	
15.91	-0.096	0.08040861066125786	
15.915	0.373	0.0726834329587426	
15.92	-0.006	0.06861733557517635	
15.925	-0.204	0.0624148031173954	
15.93	0.241	0.056054456559278515	
15.935	0.203	0.053611042268882005	
15.94	-0.209	0.05335535746432222	
15.945	0.032	0.05233879911156061	
15.95	0.317	0.048562277713145426	
15.955	-0.185	0.043002031597100324	
15.96	-0.169	0.03438133246641032	
15.965	0.315	0.023591502597438616	
15.97	-0.023	0.016702127841073278	
15.975	-0.213	0.014474746705801254	
15.98	0.206	0.0149357780260159	
15.985	0.119	0.01661174237021943	
15.99	-0.247	0.013468847848244727	
15.995	-0.038	0.008265809560092069	
16.0	0.241	-0.0015112970683076978	
16.005	-0.188	-0.010876846619083209	
16.01	-0.159	-0.014605265641209913	
16.015	0.276	-0.015525374543632092	
16.02	-0.070	-0.015245712755160302	
16.025	-0.238	-0.0154545212454928	
16.03	0.169	-0.014158837098409921	
16.035	0.107	-0.012395546888832277	
16.04	-0.255	-0.012436028802011341	
16.045	-0.058	-0.014783214033975126	
16.05	0.184	-0.02357301068662976	
16.055	-0.227	-0.034800830087585624	
16.06	-0.198	-0.04459838303750756	
16.065	0.229	-0.05059979304659148	
16.07	-0.096	-0.053202400304669564	
16.075	-0.252	-0.05340715019809459	
16.08	0.111	-0.05022572470456678	
16.085	0.068	-0.0484000575842623	
16.09	-0.247	-0.048374735349409226	
16.095	-0.002	-0.04180597952240113	
16.1	0.291	-0.030589969964260173	
16.105	-0.168	-0.01576027068024939	
16.11	-0.159	-0.004623428279610741	
16.115	0.322	0.0033672829284045053	
16.12	-0.009	0.011843128297683381	
16.125	-0.197	0.020590684274837907	
16.13	0.245	0.029724205810784096	
16.135	0.187	0.03963772090233329	
16.14	-0.226	0.046655153201032584	
16.145	-0.011	0.04511617614781975	
16.15	0.261	0.03539485179037695	
16.155	-0.201	0.022322057532642568	
16.16	-0.209	0.007352640459105213	
16.165	0.136	-0.015710851281851228	
16.17	-0.146	-0.04410361574563763	
16.175	-0.306	-0.07035630437978457	
16.18	0.011	-0.0883419317217853	
16.185	-0.038	-0.10737889012414666	
16.19	-0.331	-0.12427641936582152	
16.195	-0.133	-0.13087333777337234	
16.2	0.085	-0.1356423254989325	
16.205	-0.282	-0.13968251061687526	
16.21	-0.252	-0.13860967841523333	
16.215	0.116	-0.1346823907768833	
16.22	-0.172	-0.13315428385161682	
16.225	-0.322	-0.1313887540172206	
16.23	0.085	-0.1252587108685317	
16.235	0.157	-0.10936920472548367	
16.24	-0.087	-0.07636355169326497	
16.245	0.556	-0.0037899596978984455	
16.25	1.114	0.12949772426595973	
16.255	0.564	0.3102351506277475	
16.26	0.361	0.47226949516620154	
16.265	0.469	-0.10936920472548367	
16.27	-0.172	0.5287952440057604	
16.275	-0.477	0.4034976925812957	
16.28	-0.264	0.21874927307077635	
16.285	-0.267	0.017696956164798282	
16.29	-0.470	-0.1513733405716188	
16.295	-0.232	-0.25680437223826547	
16.3	0.014	-0.30449161301337013	
16.305	-0.300	-0.3117868243912164	
16.31	-0.273	-0.28566653789430774	
16.315	0.108	-0.2455127771859189	
16.32	-0.157	-0.20719968957076312	
16.325	-0.297	-0.17155277124355162	
16.33	0.072	-0.13811228717838647	
16.335	0.062	-0.11130503621793181	
16.34	-0.276	-0.09060530707794301	
16.345	-0.069	-0.07276491629033097	
16.35	0.223	-0.06035518269060029	
16.355	-0.197	-0.05099408612050474	
16.36	-0.154	-0.040732433134140114	
16.365	0.311	-0.027263547623908126	
16.37	-0.018	-0.013282207093876279	
16.375	-0.206	0.0012414069345210968	
16.38	0.239	0.01610768595070198	
16.385	0.198	0.029779665601452267	
16.39	-0.217	0.04111994413316128	
16.395	0.078	0.04931940675013638	
16.4	0.422	0.05988122976287004	
16.405	-0.078	0.07579115139926071	
16.41	-0.034	0.09216427116809817	
16.415	0.489	0.10900386692868938	
16.42	0.117	0.127657785953887	
16.425	-0.120	0.14301712557841828	
16.43	0.433	0.15529092198104522	
16.435	0.430	0.174892017334277	
16.44	-0.061	0.19990293361967681	
16.445	0.290	0.2203401097134231	
16.45	0.565	0.23805022965579578	
16.455	0.053	0.254671004727377	
16.46	0.122	0.2640763236178247	
16.465	0.678	0.27414783557211186	
16.47	0.351	0.2956711576084953	
16.475	0.079	0.31991169542486825	
16.48	0.610	0.3413210263972044	
16.485	0.562	0.36294485536017407	
16.49	0.096	0.3818610466646475	
16.495	0.495	0.3953103049332916	
16.5	0.806	0.4160915811919174	
16.505	0.280	0.44171466691943684	
16.51	0.315	0.4630271025134533	
16.515	0.837	0.47808812922252103	
16.52	0.488	0.49374536466440233	
16.525	0.158	0.5019410406319608	
16.53	0.642	0.4981911894298478	
16.535	0.535	0.4829638221700778	
16.54	-0.037	0.45399339551951323	
16.545	0.256	0.4071871163525693	
16.55	0.485	0.3519841289913952	
16.555	-0.099	0.2949084424756654	
16.56	-0.125	0.23103219530224278	
16.565	0.277	0.1638676511658486	
16.57	-0.089	0.09887864562119328	
16.575	-0.297	0.04012096611457574	
16.58	0.008	-0.010032346816145564	
16.585	0.001	-0.0570641825674175	
16.59	-0.299	-0.09272127595424351	
16.595	-0.107	-0.10890160062193249	
16.6	0.149	-0.11421016465978466	
16.605	-0.235	-0.1138824315036665	
16.61	-0.212	-0.10689200801385426	
16.615	0.203	-0.09435255594413758	
16.62	-0.096	-0.08406753184331901	
16.625	-0.265	-0.07372997678953577	
16.63	0.097	-0.06317326157377384	
16.635	0.070	-0.057121569367811306	
16.64	-0.250	-0.0545908114996118	
16.645	-0.029	-0.04695219215799602	
16.65	0.265	-0.03729838295526444	
16.655	-0.168	-0.02679316667321594	
16.66	-0.157	-0.01588452207099892	
16.665	0.312	-0.006438813640529441	
16.67	-0.017	0.003982296094150836	
16.675	-0.215	0.011311726711722887	
16.68	0.215	0.018752508875355865	
16.685	0.203	0.027898328978771383	
16.69	-0.209	0.03647510384057573	
16.695	0.012	0.04097187380563516	
16.7	0.315	0.040666136444869605	
16.705	-0.125	0.04130774212830175	
16.71	-0.096	0.04309739732720225	
16.715	0.392	0.049470501356396704	
16.72	0.068	0.06106507856543999	
16.725	-0.146	0.07436594752049963	
16.73	0.340	0.08863299141319733	
16.735	0.296	0.10691397608964592	
16.74	-0.153	0.12259404453153677	
16.745	0.111	0.12887410785548836	
16.75	0.418	0.1295905791669305	
16.755	-0.079	0.1304638071525182	
16.76	-0.044	0.12707871726473535	
16.765	0.512	0.1273005855316371	
16.77	0.163	0.140202349494549	
16.775	-0.119	0.15448147262190043	
16.78	0.363	0.16239139923174978	
16.785	0.312	0.16791652991871497	
16.79	-0.151	0.16886444917025972	
16.795	0.122	0.1607069533281583	
16.8	0.410	0.14939254127033966	
16.805	-0.095	0.13977652670901713	
16.81	-0.098	0.12510473825568846	
16.815	0.361	0.10692840128527777	
16.82	-0.018	0.0913871539524321	
16.825	-0.252	0.06976045425293702	
16.83	0.076	0.04201597232048875	
16.835	0.004	0.005846973072010239	
16.84	-0.329	-0.03369545703048463	
16.845	-0.172	-0.06947715935221047	
16.85	-0.008	-0.10593771781952376	
16.855	-0.337	-0.14383662589923432	
16.86	-0.374	-0.17479118046253925	
16.865	-0.116	-0.2045040798150696	
16.87	-0.305	-0.2384596649819714	
16.875	-0.467	-0.2649097067237811	
16.88	-0.224	-0.2822910575018023	
16.885	-0.267	-0.3032678551719394	
16.89	-0.532	-0.32535630088013845	
16.895	-0.369	-0.33955988192823716	
16.9	-0.226	-0.3541837249480705	
16.905	-0.503	-0.370635694941781	
16.91	-0.517	-0.3816925141034353	
16.915	-0.261	-0.39172150088185614	
16.92	-0.432	-0.40643067931197707	
16.925	-0.578	-0.41675469173606716	
16.93	-0.317	-0.4183885979982584	
16.935	-0.343	-0.42333848961734827	
16.94	-0.598	-0.4292569290579752	
16.945	-0.442	-0.4305515737231709	
16.95	-0.302	-0.43425410829076283	
16.955	-0.544	-0.4436316279550534	
16.96	-0.517	-0.4446461621042749	
16.965	-0.250	-0.4397028602837797	
16.97	-0.422	-0.43648318413211884	
16.975	-0.575	-0.4307867306417207	
16.98	-0.299	-0.4212990117800889	
16.985	-0.297	-0.4153384193191806	
16.99	-0.550	-0.4113845807306905	
16.995	-0.370	-0.40047260456600986	
17.0	-0.182	-0.38913094278579297	
17.005	-0.427	-0.3798027284635244	
17.01	-0.403	-0.3626885409660111	
17.015	-0.095	-0.3394715119736621	
17.02	-0.259	-0.31958174221743185	
17.025	-0.384	-0.29599430485473	
17.03	-0.035	-0.2640459164785005	
17.035	-0.012	-0.23125180083864005	
17.04	-0.288	-0.1977235201664268	
17.045	-0.067	-0.1593576050810734	
17.05	0.261	-0.11882567606848767	
17.055	-0.160	-0.07911914130551749	
17.06	-0.104	-0.04183379508889252	
17.065	0.430	-0.004055141360919475	
17.07	0.117	0.03932308231403349	
17.075	-0.145	0.07863193627525704	
17.08	0.334	0.10624703975418744	
17.085	0.309	0.1279236555837579	
17.09	-0.159	0.1428783886021724	
17.095	0.128	0.1446889900865432	
17.1	0.457	0.1445081490555327	
17.105	-0.056	0.1476519792226877	
17.11	-0.061	0.14499520563720117	
17.115	0.416	0.1372340780242174	
17.12	0.085	0.13130387129736198	
17.125	-0.168	0.12439710011694538	
17.13	0.267	0.11440746887062342	
17.135	0.198	0.1040448121745734	
17.14	-0.236	0.08967816002024942	
17.145	-0.040	0.06870174855469668	
17.15	0.259	0.041670707693371695	
17.155	-0.188	0.018545997181527534	
17.16	-0.182	-6.922584623852382e-05	
17.165	0.261	-0.012615552686522227	
17.17	-0.063	-0.01972426540289133	
17.175	-0.242	-0.024719461184668452	
17.18	0.169	-0.02348400423416474	
