Vernier Format 2
reposo.txt 10/17/2025 10:7:57
Run 1
Time	Potential	EKG	
T	P	E	
s	mV	mV	

0.000	0.209	0.010	
0.005	-0.203	0.023	
0.010	-0.185	0.007	
0.015	0.238	-0.017	
0.020	-0.117	-0.018	
0.025	-0.261	-0.027	
0.030	0.168	-0.048	
0.035	0.125	-0.040	
0.040	-0.249	-0.021	
0.045	-0.044	-0.027	
0.050	0.215	-0.031	
0.055	-0.194	-0.018	
0.060	-0.151	-0.023	
0.065	0.271	-0.032	
0.070	-0.066	-0.015	
0.075	-0.233	-0.009	
0.080	0.137	-0.022	
0.085	0.102	-0.018	
0.090	-0.232	-0.007	
0.095	-0.023	-0.019	
0.100	0.247	-0.022	
0.105	-0.185	-0.007	
0.110	-0.172	-0.011	
0.115	0.267	-0.024	
0.120	-0.050	-0.011	
0.125	-0.218	-0.005	
0.130	0.218	-0.014	
0.135	0.163	0.002	
0.140	-0.226	0.024	
0.145	0.026	0.019	
0.150	0.302	0.018	
0.155	-0.162	0.036	
0.160	-0.124	0.032	
0.165	0.355	0.021	
0.170	0.001	0.039	
0.175	-0.171	0.050	
0.180	0.294	0.043	
0.185	0.212	0.061	
0.190	-0.177	0.084	
0.195	0.097	0.077	
0.200	0.344	0.077	
0.205	-0.127	0.093	
0.210	-0.090	0.083	
0.215	0.387	0.067	
0.220	0.023	0.079	
0.225	-0.169	0.083	
0.230	0.297	0.069	
0.235	0.221	0.079	
0.240	-0.191	0.094	
0.245	0.093	0.082	
0.250	0.372	0.077	
0.255	-0.128	0.093	
0.260	-0.113	0.084	
0.265	0.361	0.065	
0.270	0.001	0.071	
0.275	-0.183	0.070	
0.280	0.290	0.053	
0.285	0.235	0.064	
0.290	-0.194	0.083	
0.295	0.096	0.075	
0.300	0.366	0.074	
0.305	-0.099	0.093	
0.310	-0.058	0.091	
0.315	0.444	0.083	
0.320	0.068	0.106	
0.325	-0.145	0.117	
0.330	0.351	0.107	
0.335	0.294	0.122	
0.340	-0.143	0.143	
0.345	0.148	0.134	
0.350	0.381	0.130	
0.355	-0.119	0.140	
0.360	-0.110	0.121	
0.365	0.305	0.088	
0.370	-0.099	0.074	
0.375	-0.246	0.047	
0.380	0.140	0.004	
0.385	0.067	-0.013	
0.390	-0.273	-0.019	
0.395	-0.064	-0.043	
0.400	0.178	-0.058	
0.405	-0.198	-0.050	
0.410	-0.154	-0.054	
0.415	0.285	-0.056	
0.420	-0.095	-0.032	
0.425	-0.264	-0.022	
0.430	0.101	-0.037	
0.435	0.079	-0.037	
0.440	-0.178	-0.026	
0.445	0.386	-0.011	
0.450	0.942	0.069	
0.455	0.672	0.231	
0.460	0.761	0.409	
0.465	0.991	0.568	
0.470	0.161	0.675	
0.475	-0.325	0.649	
0.480	-0.186	0.485	
0.485	-0.252	0.271	
0.490	-0.474	0.062	
0.495	-0.233	-0.118	
0.500	-0.017	-0.229	
0.505	-0.277	-0.267	
0.510	-0.224	-0.273	
0.515	0.154	-0.252	
0.520	-0.151	-0.198	
0.525	-0.291	-0.155	
0.530	0.131	-0.133	
0.535	0.046	-0.097	
0.540	-0.262	-0.063	
0.545	-0.053	-0.060	
0.550	0.177	-0.056	
0.555	-0.215	-0.039	
0.560	-0.148	-0.043	
0.565	0.395	-0.042	
0.570	-0.015	-0.005	
0.575	-0.235	0.020	
0.580	0.171	0.014	
0.585	0.101	0.018	
0.590	-0.256	0.022	
0.595	-0.044	-0.001	
0.600	0.194	-0.019	
0.605	-0.206	-0.018	
0.610	-0.153	-0.032	
0.615	0.290	-0.042	
0.620	-0.056	-0.023	
0.625	-0.212	-0.011	
0.630	0.226	-0.014	
0.635	0.165	0.005	
0.640	-0.197	0.030	
0.645	0.120	0.032	
0.650	0.396	0.047	
0.655	-0.089	0.084	
0.660	-0.031	0.095	
0.665	0.489	0.099	
0.670	0.119	0.132	
0.675	-0.105	0.152	
0.680	0.459	0.151	
0.685	0.415	0.179	
0.690	-0.049	0.217	
0.695	0.340	0.226	
0.700	0.588	0.245	
0.705	0.046	0.281	
0.710	0.119	0.284	
0.715	0.620	0.275	
0.720	0.247	0.293	
0.725	-0.020	0.299	
0.730	0.503	0.279	
0.735	0.361	0.280	
0.740	-0.131	0.280	
0.745	0.122	0.238	
0.750	0.285	0.192	
0.755	-0.206	0.156	
0.760	-0.209	0.094	
0.765	0.076	0.021	
0.770	-0.235	-0.032	
0.775	-0.389	-0.088	
0.780	-0.120	-0.152	
0.785	-0.194	-0.193	
0.790	-0.470	-0.223	
0.795	-0.291	-0.262	
0.800	-0.160	-0.289	
0.805	-0.454	-0.298	
0.810	-0.416	-0.316	
0.815	-0.156	-0.333	
0.820	-0.332	-0.329	
0.825	-0.441	-0.324	
0.830	-0.149	-0.325	
0.835	-0.191	-0.308	
0.840	-0.436	-0.288	
0.845	-0.252	-0.285	
0.850	-0.111	-0.280	
0.855	-0.383	-0.265	
0.860	-0.326	-0.264	
0.865	-0.005	-0.263	
0.870	-0.238	-0.241	
0.875	-0.355	-0.224	
0.880	-0.029	-0.219	
0.885	-0.096	-0.200	
0.890	-0.361	-0.180	
0.895	-0.149	-0.182	
0.900	0.046	-0.178	
0.905	-0.305	-0.160	
0.910	-0.261	-0.159	
0.915	0.099	-0.163	
0.920	-0.177	-0.146	
0.925	-0.306	-0.137	
0.930	0.009	-0.143	
0.935	-0.070	-0.136	
0.940	-0.314	-0.128	
0.945	-0.090	-0.137	
0.950	0.102	-0.134	
0.955	-0.264	-0.115	
0.960	-0.215	-0.114	
0.965	0.194	-0.115	
0.970	-0.122	-0.092	
0.975	-0.250	-0.078	
0.980	0.160	-0.078	
0.985	0.078	-0.057	
0.990	-0.255	-0.033	
0.995	0.014	-0.034	
1.000	0.261	-0.027	
1.005	-0.172	-0.002	
1.010	-0.139	0.000	
1.015	0.296	-0.005	
1.020	-0.043	0.011	
1.025	-0.178	0.019	
1.030	0.320	0.016	
1.035	0.256	0.044	
1.040	-0.146	0.082	
1.045	0.194	0.092	
1.050	0.431	0.112	
1.055	-0.079	0.145	
1.060	-0.023	0.147	
1.065	0.488	0.137	
1.070	0.151	0.158	
1.075	-0.055	0.173	
1.080	0.474	0.172	
1.085	0.390	0.199	
1.090	-0.053	0.231	
1.095	0.363	0.234	
1.100	0.634	0.252	
1.105	0.110	0.295	
1.110	0.198	0.310	
1.115	0.662	0.314	
1.120	0.300	0.342	
1.125	0.072	0.354	
1.130	0.622	0.344	
1.135	0.501	0.359	
1.140	0.004	0.376	
1.145	0.393	0.356	
1.150	0.585	0.344	
1.155	0.011	0.348	
1.160	0.075	0.316	
1.165	0.511	0.274	
1.170	0.085	0.257	
1.175	-0.127	0.226	
1.180	0.360	0.179	
1.185	0.224	0.160	
1.190	-0.204	0.149	
1.195	0.027	0.109	
1.200	0.195	0.071	
1.205	-0.235	0.048	
1.210	-0.213	0.005	
1.215	0.116	-0.042	
1.220	-0.186	-0.065	
1.225	-0.328	-0.092	
1.230	-0.027	-0.128	
1.235	-0.124	-0.145	
1.240	-0.392	-0.158	
1.245	-0.195	-0.186	
1.250	-0.070	-0.205	
1.255	-0.377	-0.209	
1.260	-0.329	-0.226	
1.265	-0.073	-0.243	
1.270	-0.294	-0.243	
1.275	-0.421	-0.248	
1.280	-0.148	-0.263	
1.285	-0.226	-0.266	
1.290	-0.489	-0.269	
1.295	-0.306	-0.290	
1.300	-0.215	-0.308	
1.305	-0.499	-0.317	
1.310	-0.474	-0.340	
1.315	-0.252	-0.368	
1.320	-0.485	-0.381	
1.325	-0.621	-0.402	
1.330	-0.358	-0.434	
1.335	-0.398	-0.450	
1.340	-0.617	-0.457	
1.345	-0.410	-0.470	
1.350	-0.294	-0.469	
1.355	-0.550	-0.454	
1.360	-0.502	-0.450	
1.365	-0.259	-0.449	
1.370	-0.457	-0.434	
1.375	-0.569	-0.426	
1.380	-0.293	-0.431	
1.385	-0.326	-0.422	
1.390	-0.520	-0.408	
1.395	-0.217	-0.398	
1.400	0.187	-0.355	
1.405	-0.046	-0.264	
1.410	0.171	-0.157	
1.415	0.570	-0.036	
1.420	-0.095	0.086	
1.425	-0.433	0.128	
1.430	-0.367	0.064	
1.435	-0.531	-0.058	
1.440	-0.768	-0.209	
1.445	-0.546	-0.365	
1.450	-0.380	-0.477	
1.455	-0.584	-0.532	
1.460	-0.494	-0.555	
1.465	-0.218	-0.546	
1.470	-0.389	-0.502	
1.475	-0.479	-0.456	
1.480	-0.171	-0.419	
1.485	-0.207	-0.371	
1.490	-0.428	-0.326	
1.495	-0.212	-0.302	
1.500	-0.050	-0.276	
1.505	-0.337	-0.243	
1.510	-0.253	-0.227	
1.515	0.172	-0.208	
1.520	-0.073	-0.159	
1.525	-0.146	-0.112	
1.530	0.441	-0.064	
1.535	0.398	0.023	
1.540	-0.023	0.118	
1.545	0.401	0.177	
1.550	0.651	0.240	
1.555	0.145	0.312	
1.560	0.253	0.344	
1.565	0.748	0.362	
1.570	0.367	0.401	
1.575	0.152	0.422	
1.580	0.700	0.417	
1.585	0.598	0.437	
1.590	0.145	0.461	
1.595	0.572	0.454	
1.600	0.800	0.464	
1.605	0.262	0.495	
1.610	0.413	0.499	
1.615	0.944	0.503	
1.620	0.578	0.545	
1.625	0.334	0.577	
1.630	0.890	0.585	
1.635	0.812	0.616	
1.640	0.319	0.648	
1.645	0.729	0.645	
1.650	0.992	0.652	
1.655	0.447	0.681	
1.660	0.540	0.681	
1.665	1.008	0.673	
1.670	0.607	0.690	
1.675	0.349	0.690	
1.680	0.860	0.662	
1.685	0.715	0.655	
1.690	0.168	0.644	
1.695	0.482	0.590	
1.700	0.625	0.536	
1.705	-0.006	0.490	
1.710	0.020	0.406	
1.715	0.424	0.311	
1.720	-0.046	0.245	
1.725	-0.233	0.172	
1.730	0.126	0.086	
1.735	-0.011	0.029	
1.740	-0.305	-0.014	
1.745	-0.093	-0.066	
1.750	0.041	-0.099	
1.755	-0.300	-0.112	
1.760	-0.236	-0.134	
1.765	0.116	-0.151	
1.770	-0.172	-0.139	
1.775	-0.281	-0.131	
1.780	0.114	-0.132	
1.785	0.011	-0.110	
1.790	-0.290	-0.086	
1.795	-0.041	-0.086	
1.800	0.174	-0.080	
1.805	-0.235	-0.058	
1.810	-0.165	-0.059	
1.815	0.258	-0.062	
1.820	-0.090	-0.040	
1.825	-0.221	-0.029	
1.830	0.223	-0.032	
1.835	0.131	-0.011	
1.840	-0.233	0.012	
1.845	0.085	0.010	
1.850	0.329	0.020	
1.855	-0.130	0.049	
1.860	-0.055	0.055	
1.865	0.434	0.057	
1.870	0.027	0.086	
1.875	-0.143	0.100	
1.880	0.384	0.095	
1.885	0.288	0.117	
1.890	-0.137	0.144	
1.895	0.197	0.140	
1.900	0.422	0.144	
1.905	-0.095	0.163	
1.910	-0.031	0.151	
1.915	0.441	0.131	
1.920	0.059	0.139	
1.925	-0.133	0.137	
1.930	0.354	0.117	
1.935	0.227	0.123	
1.940	-0.168	0.133	
1.945	0.187	0.117	
1.950	0.413	0.116	
1.955	-0.105	0.136	
1.960	-0.046	0.128	
1.965	0.431	0.111	
1.970	0.024	0.121	
1.975	-0.151	0.119	
1.980	0.349	0.099	
1.985	0.258	0.108	
1.990	-0.165	0.125	
1.995	0.160	0.114	
2.000	0.390	0.113	
2.005	-0.113	0.130	
2.010	-0.037	0.120	
2.015	0.430	0.104	
2.020	0.029	0.117	
2.025	-0.145	0.117	
2.030	0.373	0.101	
2.035	0.271	0.114	
2.040	-0.133	0.136	
2.045	0.186	0.131	
2.050	0.387	0.133	
2.055	-0.120	0.148	
2.060	-0.061	0.132	
2.065	0.416	0.108	
2.070	0.018	0.113	
2.075	-0.151	0.108	
2.080	0.323	0.088	
2.085	0.177	0.092	
2.090	-0.200	0.100	
2.095	0.087	0.079	
2.100	0.279	0.065	
2.105	-0.171	0.069	
2.110	-0.110	0.050	
2.115	0.317	0.028	
2.120	-0.067	0.033	
2.125	-0.195	0.029	
2.130	0.235	0.011	
2.135	0.114	0.018	
2.140	-0.238	0.029	
2.145	0.024	0.013	
2.150	0.226	0.005	
2.155	-0.206	0.012	
2.160	-0.133	-0.001	
2.165	0.288	-0.016	
2.170	-0.092	-0.004	
2.175	-0.236	-0.004	
2.180	0.140	-0.022	
2.185	-0.009	-0.026	
2.190	-0.313	-0.031	
2.195	-0.108	-0.063	
2.200	0.041	-0.089	
2.205	-0.308	-0.101	
2.210	-0.259	-0.127	
2.215	0.033	-0.153	
2.220	-0.227	-0.156	
2.225	-0.348	-0.165	
2.230	-0.046	-0.183	
2.235	-0.119	-0.184	
2.240	-0.377	-0.181	
2.245	-0.180	-0.195	
2.250	-0.076	-0.203	
2.255	-0.349	-0.201	
2.260	-0.262	-0.211	
2.265	0.190	-0.208	
2.270	0.008	-0.163	
2.275	0.096	-0.096	
2.280	0.907	0.005	
2.285	0.793	0.179	
2.290	0.110	0.351	
2.295	0.210	0.428	
2.300	-0.006	0.410	
2.305	-0.512	0.312	
2.310	-0.543	0.133	
2.315	-0.294	-0.067	
2.320	-0.430	-0.225	
2.325	-0.488	-0.337	
2.330	-0.168	-0.402	
2.335	-0.197	-0.407	
2.340	-0.409	-0.379	
2.345	-0.172	-0.350	
2.350	-0.021	-0.307	
2.355	-0.334	-0.255	
2.360	-0.268	-0.226	
2.365	0.052	-0.208	
2.370	-0.206	-0.178	
2.375	-0.308	-0.161	
2.380	0.065	-0.158	
2.385	-0.031	-0.137	
2.390	-0.297	-0.115	
2.395	-0.043	-0.114	
2.400	0.151	-0.103	
2.405	-0.246	-0.078	
2.410	-0.163	-0.074	
2.415	0.271	-0.073	
2.420	-0.098	-0.046	
2.425	-0.210	-0.030	
2.430	0.255	-0.029	
2.435	0.174	-0.001	
2.440	-0.195	0.031	
2.445	0.113	0.037	
2.450	0.367	0.051	
2.455	-0.101	0.083	
2.460	0.001	0.091	
2.465	0.495	0.097	
2.470	0.134	0.134	
2.475	-0.049	0.160	
2.480	0.508	0.169	
2.485	0.404	0.205	
2.490	-0.032	0.244	
2.495	0.392	0.252	
2.500	0.616	0.273	
2.505	0.091	0.311	
2.510	0.244	0.321	
2.515	0.739	0.328	
2.520	0.346	0.366	
2.525	0.128	0.389	
2.530	0.698	0.388	
2.535	0.588	0.414	
2.540	0.101	0.441	
2.545	0.524	0.434	
2.550	0.722	0.437	
2.555	0.128	0.454	
2.560	0.171	0.432	
2.565	0.576	0.390	
2.570	0.119	0.363	
2.575	-0.113	0.316	
2.580	0.309	0.243	
2.585	0.091	0.190	
2.590	-0.262	0.140	
2.595	-0.081	0.065	
2.600	0.029	-0.001	
2.605	-0.328	-0.050	
2.610	-0.293	-0.107	
2.615	-0.044	-0.160	
2.620	-0.264	-0.186	
2.625	-0.372	-0.208	
2.630	-0.081	-0.231	
2.635	-0.154	-0.231	
2.640	-0.403	-0.225	
2.645	-0.186	-0.233	
2.650	-0.061	-0.233	
2.655	-0.337	-0.220	
2.660	-0.262	-0.218	
2.665	0.078	-0.214	
2.670	-0.192	-0.186	
2.675	-0.284	-0.165	
2.680	0.105	-0.155	
2.685	-0.015	-0.125	
2.690	-0.291	-0.097	
2.695	-0.046	-0.095	
2.700	0.163	-0.087	
2.705	-0.217	-0.064	
2.710	-0.134	-0.059	
2.715	0.303	-0.055	
2.720	-0.087	-0.024	
2.725	-0.201	-0.008	
2.730	0.268	-0.009	
2.735	0.163	0.015	
2.740	-0.191	0.043	
2.745	0.120	0.044	
2.750	0.343	0.055	
2.755	-0.117	0.082	
2.760	0.000	0.085	
2.765	0.521	0.089	
2.770	0.149	0.130	
2.775	-0.046	0.162	
2.780	0.509	0.174	
2.785	0.404	0.211	
2.790	-0.052	0.249	
2.795	0.340	0.251	
2.800	0.546	0.260	
2.805	0.011	0.283	
2.810	0.126	0.274	
2.815	0.587	0.258	
2.820	0.157	0.270	
2.825	-0.044	0.266	
2.830	0.486	0.240	
2.835	0.325	0.241	
2.840	-0.119	0.244	
2.845	0.206	0.214	
2.850	0.340	0.189	
2.855	-0.130	0.176	
2.860	-0.050	0.139	
2.865	0.372	0.102	
2.870	-0.058	0.094	
2.875	-0.194	0.076	
2.880	0.248	0.044	
2.885	0.085	0.038	
2.890	-0.239	0.036	
2.895	0.012	0.011	
2.900	0.169	-0.005	
2.905	-0.232	-0.007	
2.910	-0.156	-0.027	
2.915	0.227	-0.047	
2.920	-0.140	-0.040	
2.925	-0.264	-0.045	
2.930	0.102	-0.064	
2.935	-0.027	-0.066	
2.940	-0.310	-0.067	
2.945	-0.078	-0.089	
2.950	0.113	-0.099	
2.955	-0.249	-0.091	
2.960	-0.180	-0.096	
2.965	0.130	-0.103	
2.970	-0.180	-0.092	
2.975	-0.276	-0.093	
2.980	0.096	-0.106	
2.985	-0.027	-0.098	
2.990	-0.287	-0.087	
2.995	-0.037	-0.095	
3.000	0.131	-0.092	
3.005	-0.244	-0.074	
3.010	-0.174	-0.077	
3.015	0.157	-0.084	
3.020	-0.186	-0.074	
3.025	-0.293	-0.079	
3.030	0.085	-0.098	
3.035	-0.047	-0.098	
3.040	-0.306	-0.094	
3.045	-0.066	-0.108	
3.050	0.090	-0.111	
3.055	-0.285	-0.100	
3.060	-0.230	-0.109	
3.065	0.104	-0.123	
3.070	-0.203	-0.117	
3.075	-0.311	-0.121	
3.080	0.059	-0.136	
3.085	-0.053	-0.130	
3.090	-0.279	-0.118	
3.095	0.125	-0.112	
3.100	0.579	-0.064	
3.105	0.303	0.045	
3.110	0.575	0.172	
3.115	0.966	0.314	
3.120	0.323	0.456	
3.125	-0.180	0.508	
3.130	-0.125	0.433	
3.135	-0.367	0.279	
3.140	-0.611	0.084	
3.145	-0.367	-0.118	
3.150	-0.223	-0.268	
3.155	-0.453	-0.350	
3.160	-0.363	-0.395	
3.165	-0.116	-0.404	
3.170	-0.326	-0.376	
3.175	-0.409	-0.348	
3.180	-0.111	-0.327	
3.185	-0.201	-0.295	
3.190	-0.445	-0.269	
3.195	-0.218	-0.267	
3.200	-0.113	-0.263	
3.205	-0.395	-0.251	
3.210	-0.340	-0.256	
3.215	-0.102	-0.266	
3.220	-0.310	-0.261	
3.225	-0.396	-0.262	
3.230	-0.089	-0.269	
3.235	-0.160	-0.257	
3.240	-0.377	-0.240	
3.245	-0.134	-0.235	
3.250	0.027	-0.218	
3.255	-0.300	-0.187	
3.260	-0.215	-0.174	
3.265	0.207	-0.159	
3.270	-0.131	-0.119	
3.275	-0.198	-0.090	
3.280	0.314	-0.068	
3.285	0.192	-0.016	
3.290	-0.166	0.037	
3.295	0.213	0.059	
3.300	0.405	0.090	
3.305	-0.072	0.133	
3.310	0.110	0.146	
3.315	0.614	0.161	
3.320	0.207	0.210	
3.325	0.056	0.245	
3.330	0.640	0.262	
3.335	0.517	0.307	
3.340	0.073	0.353	
3.345	0.517	0.365	
3.350	0.680	0.386	
3.355	0.151	0.419	
3.360	0.326	0.418	
3.365	0.790	0.414	
3.370	0.337	0.439	
3.375	0.091	0.442	
3.380	0.620	0.414	
3.385	0.450	0.407	
3.390	-0.047	0.396	
3.395	0.291	0.347	
3.400	0.366	0.301	
3.405	-0.172	0.262	
3.410	-0.143	0.189	
3.415	0.169	0.104	
3.420	-0.220	0.043	
3.425	-0.339	-0.024	
3.430	-0.072	-0.097	
3.435	-0.174	-0.145	
3.440	-0.422	-0.181	
3.445	-0.210	-0.222	
3.450	-0.116	-0.245	
3.455	-0.401	-0.250	
3.460	-0.328	-0.264	
3.465	-0.087	-0.275	
3.470	-0.308	-0.267	
3.475	-0.393	-0.264	
3.480	-0.098	-0.269	
3.485	-0.178	-0.257	
3.490	-0.401	-0.244	
3.495	-0.183	-0.245	
3.500	-0.066	-0.240	
3.505	-0.349	-0.223	
3.510	-0.261	-0.221	
3.515	0.044	-0.217	
3.520	-0.256	-0.195	
3.525	-0.332	-0.185	
3.530	0.021	-0.188	
3.535	-0.095	-0.172	
3.540	-0.328	-0.155	
3.545	-0.064	-0.156	
3.550	0.122	-0.143	
3.555	-0.258	-0.114	
3.560	-0.175	-0.105	
3.565	0.218	-0.099	
3.570	-0.146	-0.073	
3.575	-0.250	-0.061	
3.580	0.184	-0.066	
3.585	0.052	-0.048	
3.590	-0.256	-0.029	
3.595	0.008	-0.035	
3.600	0.169	-0.035	
3.605	-0.229	-0.023	
3.610	-0.139	-0.033	
3.615	0.206	-0.045	
3.620	-0.157	-0.038	
3.625	-0.250	-0.044	
3.630	0.120	-0.063	
3.635	-0.024	-0.063	
3.640	-0.287	-0.061	
3.645	-0.031	-0.078	
3.650	0.096	-0.083	
3.655	-0.287	-0.076	
3.660	-0.220	-0.091	
3.665	0.142	-0.108	
3.670	-0.195	-0.103	
3.675	-0.296	-0.106	
3.680	0.067	-0.122	
3.685	-0.095	-0.119	
3.690	-0.343	-0.117	
3.695	-0.120	-0.136	
3.700	0.004	-0.147	
3.705	-0.308	-0.145	
3.710	-0.232	-0.156	
3.715	0.088	-0.164	
3.720	-0.213	-0.150	
3.725	-0.294	-0.145	
3.730	0.082	-0.149	
3.735	-0.052	-0.132	
3.740	-0.325	-0.115	
3.745	-0.050	-0.120	
3.750	0.134	-0.114	
3.755	-0.250	-0.091	
3.760	-0.165	-0.088	
3.765	0.224	-0.086	
3.770	-0.128	-0.063	
3.775	-0.232	-0.051	
3.780	0.184	-0.055	
3.785	0.020	-0.040	
3.790	-0.267	-0.027	
3.795	0.017	-0.038	
3.800	0.197	-0.039	
3.805	-0.217	-0.023	
3.810	-0.120	-0.027	
3.815	0.287	-0.032	
3.820	-0.107	-0.013	
3.825	-0.220	-0.008	
3.830	0.221	-0.019	
3.835	0.046	-0.008	
3.840	-0.258	0.001	
3.845	0.037	-0.015	
3.850	0.229	-0.018	
3.855	-0.213	-0.003	
3.860	-0.131	-0.010	
3.865	0.264	-0.022	
3.870	-0.136	-0.011	
3.875	-0.242	-0.016	
3.880	0.149	-0.037	
3.885	-0.012	-0.038	
3.890	-0.291	-0.040	
3.895	-0.034	-0.062	
3.900	0.130	-0.072	
3.905	-0.252	-0.065	
3.910	-0.157	-0.074	
3.915	0.224	-0.081	
3.920	-0.159	-0.063	
3.925	-0.253	-0.058	
3.930	0.187	-0.068	
3.935	0.041	-0.052	
3.940	-0.258	-0.034	
3.945	0.058	-0.038	
3.950	0.268	-0.028	
3.955	-0.136	0.004	
3.960	0.183	0.027	
3.965	0.974	0.089	
3.970	0.826	0.239	
3.975	0.741	0.425	
3.980	1.194	0.599	
3.985	0.726	0.752	
3.990	-0.104	0.805	
3.995	-0.067	0.704	
4.000	-0.107	0.508	
4.005	-0.406	0.287	
4.010	-0.281	0.069	
4.015	0.084	-0.091	
4.020	-0.180	-0.167	
4.025	-0.230	-0.196	
4.030	0.198	-0.195	
4.035	0.050	-0.149	
4.040	-0.238	-0.096	
4.045	0.073	-0.068	
4.050	0.247	-0.035	
4.055	-0.183	0.006	
4.060	-0.082	0.015	
4.065	0.358	0.018	
4.070	-0.060	0.042	
4.075	-0.172	0.049	
4.080	0.297	0.039	
4.085	0.139	0.052	
4.090	-0.203	0.067	
4.095	0.111	0.054	
4.100	0.259	0.051	
4.105	-0.182	0.060	
4.110	-0.082	0.045	
4.115	0.335	0.029	
4.120	-0.082	0.039	
4.125	-0.183	0.036	
4.130	0.294	0.021	
4.135	0.139	0.035	
4.140	-0.186	0.053	
4.145	0.163	0.049	
4.150	0.334	0.060	
4.155	-0.137	0.086	
4.160	-0.020	0.085	
4.165	0.436	0.081	
4.170	0.012	0.103	
4.175	-0.117	0.111	
4.180	0.378	0.102	
4.185	0.224	0.118	
4.190	-0.130	0.137	
4.195	0.320	0.134	
4.200	0.508	0.154	
4.205	-0.032	0.196	
4.210	0.140	0.208	
4.215	0.590	0.213	
4.220	0.168	0.246	
4.225	0.011	0.259	
4.230	0.534	0.251	
4.235	0.335	0.266	
4.240	-0.073	0.277	
4.245	0.323	0.254	
4.250	0.430	0.243	
4.255	-0.133	0.241	
4.260	-0.070	0.200	
4.265	0.256	0.142	
4.270	-0.185	0.099	
4.275	-0.297	0.041	
4.280	0.009	-0.031	
4.285	-0.156	-0.081	
4.290	-0.425	-0.124	
4.295	-0.236	-0.179	
4.300	-0.154	-0.222	
4.305	-0.441	-0.248	
4.310	-0.357	-0.279	
4.315	-0.125	-0.302	
4.320	-0.358	-0.302	
4.325	-0.445	-0.305	
4.330	-0.136	-0.315	
4.335	-0.227	-0.305	
4.340	-0.441	-0.291	
4.345	-0.203	-0.291	
4.350	-0.098	-0.281	
4.355	-0.380	-0.260	
4.360	-0.274	-0.254	
4.365	0.027	-0.246	
4.370	-0.249	-0.218	
4.375	-0.331	-0.201	
4.380	-0.017	-0.198	
4.385	-0.113	-0.182	
4.390	-0.332	-0.167	
4.395	-0.082	-0.169	
4.400	0.068	-0.158	
4.405	-0.274	-0.134	
4.410	-0.185	-0.128	
4.415	0.166	-0.123	
4.420	-0.165	-0.099	
4.425	-0.246	-0.088	
4.430	0.166	-0.089	
4.435	-0.018	-0.070	
4.440	-0.284	-0.054	
4.445	0.009	-0.064	
4.450	0.166	-0.061	
4.455	-0.236	-0.044	
4.460	-0.137	-0.047	
4.465	0.253	-0.052	
4.470	-0.124	-0.034	
4.475	-0.223	-0.029	
4.480	0.198	-0.038	
4.485	0.044	-0.025	
4.490	-0.249	-0.013	
4.495	0.050	-0.023	
4.500	0.194	-0.021	
4.505	-0.223	-0.007	
4.510	-0.124	-0.016	
4.515	0.255	-0.027	
4.520	-0.124	-0.016	
4.525	-0.218	-0.017	
4.530	0.223	-0.030	
4.535	0.046	-0.018	
4.540	-0.239	-0.006	
4.545	0.097	-0.014	
4.550	0.248	-0.006	
4.555	-0.200	0.017	
4.560	-0.107	0.014	
4.565	0.311	0.005	
4.570	-0.099	0.018	
4.575	-0.191	0.018	
4.580	0.253	0.004	
4.585	0.075	0.015	
4.590	-0.229	0.025	
4.595	0.087	0.012	
4.600	0.247	0.012	
4.605	-0.195	0.028	
4.610	-0.102	0.019	
4.615	0.277	0.005	
4.620	-0.110	0.014	
4.625	-0.195	0.009	
4.630	0.279	-0.005	
4.635	0.101	0.010	
4.640	-0.201	0.029	
4.645	0.146	0.025	
4.650	0.300	0.037	
4.655	-0.157	0.063	
4.660	-0.024	0.063	
4.665	0.434	0.061	
4.670	-0.002	0.088	
4.675	-0.133	0.099	
4.680	0.401	0.092	
4.685	0.247	0.114	
4.690	-0.122	0.139	
4.695	0.314	0.141	
4.700	0.486	0.161	
4.705	-0.050	0.199	
4.710	0.105	0.203	
4.715	0.517	0.199	
4.720	0.078	0.216	
4.725	-0.023	0.215	
4.730	0.543	0.201	
4.735	0.343	0.222	
4.740	-0.070	0.245	
4.745	0.331	0.235	
4.750	0.486	0.237	
4.755	-0.027	0.253	
4.760	0.157	0.241	
4.765	0.616	0.233	
4.770	0.192	0.258	
4.775	0.052	0.272	
4.780	0.633	0.271	
4.785	0.508	0.305	
4.790	0.102	0.346	
4.795	0.596	0.363	
4.800	0.793	0.400	
4.805	0.265	0.458	
4.810	0.445	0.483	
4.815	0.877	0.500	
4.820	0.413	0.537	
4.825	0.212	0.544	
4.830	0.748	0.520	
4.835	0.538	0.516	
4.840	0.040	0.505	
4.845	0.448	0.455	
4.850	0.534	0.415	
4.855	-0.050	0.386	
4.860	0.035	0.322	
4.865	0.412	0.251	
4.870	-0.053	0.207	
4.875	-0.180	0.153	
4.880	0.230	0.090	
4.885	0.027	0.056	
4.890	-0.258	0.031	
4.895	-0.005	-0.010	
4.900	0.068	-0.038	
4.905	-0.310	-0.052	
4.910	-0.238	-0.086	
4.915	0.096	-0.119	
4.920	-0.160	-0.122	
4.925	-0.119	-0.117	
4.930	0.671	-0.081	
4.935	0.716	0.042	
4.940	0.335	0.207	
4.945	0.570	0.340	
4.950	0.302	0.425	
4.955	-0.363	0.426	
4.960	-0.447	0.307	
4.965	-0.314	0.120	
4.970	-0.520	-0.068	
4.975	-0.563	-0.236	
4.980	-0.230	-0.362	
4.985	-0.288	-0.417	
4.990	-0.500	-0.428	
4.995	-0.271	-0.426	
5.000	-0.180	-0.403	
5.005	-0.456	-0.367	
5.010	-0.380	-0.350	
5.015	-0.154	-0.340	
5.020	-0.364	-0.321	
5.025	-0.438	-0.313	
5.030	-0.131	-0.315	
5.035	-0.212	-0.300	
5.040	-0.422	-0.282	
5.045	-0.185	-0.278	
5.050	-0.085	-0.266	
5.055	-0.361	-0.244	
5.060	-0.265	-0.237	
5.065	0.023	-0.230	
5.070	-0.239	-0.206	
5.075	-0.325	-0.192	
5.080	0.035	-0.189	
5.085	-0.081	-0.168	
5.090	-0.303	-0.147	
5.095	-0.038	-0.143	
5.100	0.084	-0.128	
5.105	-0.264	-0.103	
5.110	-0.137	-0.099	
5.115	0.265	-0.091	
5.120	-0.130	-0.058	
5.125	-0.213	-0.041	
5.130	0.279	-0.038	
5.135	0.120	-0.008	
5.140	-0.198	0.023	
5.145	0.172	0.029	
5.150	0.367	0.051	
5.155	-0.114	0.088	
5.160	0.047	0.099	
5.165	0.530	0.110	
5.170	0.107	0.151	
5.175	-0.029	0.176	
5.180	0.550	0.184	
5.185	0.399	0.221	
5.190	-0.024	0.260	
5.195	0.428	0.267	
5.200	0.623	0.288	
5.205	0.079	0.327	
5.210	0.223	0.331	
5.215	0.601	0.325	
5.220	0.062	0.330	
5.225	-0.060	0.302	
5.230	0.460	0.252	
5.235	0.207	0.230	
5.240	-0.201	0.207	
5.245	0.032	0.151	
5.250	0.102	0.093	
5.255	-0.274	0.046	
5.260	-0.200	-0.015	
5.265	0.067	-0.071	
5.270	-0.233	-0.099	
5.275	-0.316	-0.127	
5.280	0.020	-0.157	
5.285	-0.108	-0.160	
5.290	-0.325	-0.156	
5.295	-0.061	-0.163	
5.300	0.067	-0.154	
5.305	-0.281	-0.131	
5.310	-0.183	-0.126	
5.315	0.183	-0.122	
5.320	-0.149	-0.096	
5.325	-0.227	-0.081	
5.330	0.190	-0.078	
5.335	-0.003	-0.055	
5.340	-0.264	-0.037	
5.345	0.008	-0.046	
5.350	0.172	-0.045	
5.355	-0.229	-0.031	
5.360	-0.127	-0.037	
5.365	0.259	-0.044	
5.370	-0.119	-0.026	
5.375	-0.212	-0.022	
5.380	0.230	-0.030	
5.385	0.023	-0.016	
5.390	-0.273	-0.006	
5.395	0.003	-0.024	
5.400	0.131	-0.035	
5.405	-0.261	-0.033	
5.410	-0.172	-0.053	
5.415	0.169	-0.072	
5.420	-0.178	-0.069	
5.425	-0.270	-0.076	
5.430	0.122	-0.093	
5.435	-0.037	-0.087	
5.440	-0.293	-0.079	
5.445	-0.032	-0.091	
5.450	0.114	-0.091	
5.455	-0.261	-0.077	
5.460	-0.180	-0.083	
5.465	0.158	-0.092	
5.470	-0.180	-0.082	
5.475	-0.271	-0.083	
5.480	0.140	-0.095	
5.485	-0.003	-0.084	
5.490	-0.281	-0.069	
5.495	0.000	-0.075	
5.500	0.137	-0.071	
5.505	-0.256	-0.055	
5.510	-0.143	-0.061	
5.515	0.251	-0.066	
5.520	-0.125	-0.046	
5.525	-0.224	-0.037	
5.530	0.245	-0.042	
5.535	0.082	-0.020	
5.540	-0.232	0.003	
5.545	0.090	-0.000	
5.550	0.255	0.008	
5.555	-0.180	0.030	
5.560	-0.099	0.025	
5.565	0.294	0.015	
5.570	-0.073	0.026	
5.575	-0.160	0.026	
5.580	0.312	0.018	
5.585	0.117	0.037	
5.590	-0.201	0.056	
5.595	0.122	0.047	
5.600	0.262	0.048	
5.605	-0.169	0.062	
5.610	-0.049	0.051	
5.615	0.378	0.042	
5.620	-0.064	0.059	
5.625	-0.169	0.060	
5.630	0.326	0.046	
5.635	0.160	0.061	
5.640	-0.197	0.077	
5.645	0.137	0.067	
5.650	0.291	0.066	
5.655	-0.186	0.078	
5.660	-0.084	0.062	
5.665	0.315	0.041	
5.670	-0.104	0.044	
5.675	-0.182	0.033	
5.680	0.293	0.014	
5.685	0.101	0.025	
5.690	-0.215	0.039	
5.695	0.130	0.029	
5.700	0.291	0.035	
5.705	-0.174	0.056	
5.710	-0.075	0.050	
5.715	0.335	0.038	
5.720	-0.072	0.050	
5.725	-0.163	0.047	
5.730	0.297	0.033	
5.735	0.126	0.045	
5.740	-0.207	0.059	
5.745	0.128	0.047	
5.750	0.276	0.048	
5.755	-0.153	0.064	
5.760	-0.055	0.056	
5.765	0.395	0.048	
5.770	0.006	0.069	
5.775	-0.117	0.080	
5.780	0.367	0.077	
5.785	0.224	0.100	
5.790	-0.137	0.124	
5.795	0.244	0.122	
5.800	0.395	0.133	
5.805	-0.064	0.158	
5.810	0.097	0.159	
5.815	0.561	0.161	
5.820	0.099	0.194	
5.825	-0.049	0.207	
5.830	0.534	0.199	
5.835	0.378	0.224	
5.840	-0.037	0.252	
5.845	0.384	0.251	
5.850	0.500	0.261	
5.855	-0.049	0.280	
5.860	0.101	0.260	
5.865	0.521	0.234	
5.870	0.068	0.233	
5.875	-0.089	0.217	
5.880	0.413	0.182	
5.885	0.216	0.176	
5.890	-0.146	0.172	
5.895	0.218	0.146	
5.900	0.334	0.134	
5.905	-0.146	0.138	
5.910	-0.044	0.114	
5.915	0.354	0.087	
5.920	-0.092	0.084	
5.925	-0.200	0.065	
5.930	0.218	0.032	
5.935	0.023	0.021	
5.940	-0.267	0.012	
5.945	-0.034	-0.020	
5.950	0.026	-0.046	
5.955	-0.332	-0.065	
5.960	-0.253	-0.103	
5.965	0.008	-0.142	
5.970	-0.282	-0.158	
5.975	-0.395	-0.181	
5.980	-0.131	-0.214	
5.985	-0.204	-0.231	
5.990	-0.422	-0.241	
5.995	-0.197	-0.259	
6.000	-0.119	-0.263	
6.005	-0.413	-0.256	
6.010	-0.366	-0.265	
6.015	-0.136	-0.280	
6.020	-0.342	-0.281	
6.025	-0.354	-0.284	
6.030	0.198	-0.272	
6.035	0.302	-0.200	
6.040	0.099	-0.086	
6.045	0.605	0.037	
6.050	0.546	0.176	
6.055	-0.250	0.279	
6.060	-0.374	0.263	
6.065	-0.314	0.146	
6.070	-0.589	-0.012	
6.075	-0.643	-0.186	
6.080	-0.325	-0.338	
6.085	-0.357	-0.427	
6.090	-0.546	-0.465	
6.095	-0.319	-0.479	
6.100	-0.213	-0.462	
6.105	-0.459	-0.424	
6.110	-0.366	-0.396	
6.115	-0.142	-0.371	
6.120	-0.351	-0.336	
6.125	-0.413	-0.315	
6.130	-0.116	-0.306	
6.135	-0.210	-0.285	
6.140	-0.430	-0.266	
6.145	-0.169	-0.265	
6.150	-0.053	-0.254	
6.155	-0.357	-0.230	
6.160	-0.270	-0.224	
6.165	0.046	-0.219	
6.170	-0.220	-0.195	
6.175	-0.282	-0.178	
6.180	0.125	-0.167	
6.185	-0.029	-0.134	
6.190	-0.306	-0.104	
6.195	0.014	-0.099	
6.200	0.215	-0.081	
6.205	-0.191	-0.046	
6.210	-0.089	-0.032	
6.215	0.352	-0.020	
6.220	-0.027	0.017	
6.225	-0.113	0.040	
6.230	0.425	0.052	
6.235	0.238	0.094	
6.240	-0.137	0.132	
6.245	0.300	0.138	
6.250	0.479	0.160	
6.255	-0.044	0.197	
6.260	0.114	0.202	
6.265	0.553	0.201	
6.270	0.160	0.227	
6.275	0.020	0.239	
6.280	0.598	0.238	
6.285	0.428	0.269	
6.290	-0.044	0.300	
6.295	0.410	0.294	
6.300	0.602	0.301	
6.305	0.075	0.326	
6.310	0.227	0.324	
6.315	0.640	0.317	
6.320	0.140	0.331	
6.325	-0.085	0.315	
6.330	0.387	0.266	
6.335	0.140	0.231	
6.340	-0.233	0.191	
6.345	0.008	0.121	
6.350	0.062	0.058	
6.355	-0.332	0.006	
6.360	-0.273	-0.060	
6.365	-0.069	-0.126	
6.370	-0.335	-0.169	
6.375	-0.416	-0.213	
6.380	-0.131	-0.255	
6.385	-0.226	-0.270	
6.390	-0.451	-0.275	
6.395	-0.230	-0.290	
6.400	-0.134	-0.292	
6.405	-0.398	-0.280	
6.410	-0.300	-0.280	
6.415	-0.027	-0.275	
6.420	-0.267	-0.251	
6.425	-0.340	-0.234	
6.430	0.001	-0.226	
6.435	-0.117	-0.202	
6.440	-0.358	-0.180	
6.445	-0.101	-0.179	
6.450	0.047	-0.169	
6.455	-0.284	-0.146	
6.460	-0.203	-0.142	
6.465	0.151	-0.138	
6.470	-0.174	-0.114	
6.475	-0.258	-0.102	
6.480	0.142	-0.103	
6.485	-0.008	-0.083	
6.490	-0.270	-0.065	
6.495	0.018	-0.068	
6.500	0.142	-0.062	
6.505	-0.255	-0.045	
6.510	-0.153	-0.052	
6.515	0.244	-0.061	
6.520	-0.127	-0.044	
6.525	-0.221	-0.039	
6.530	0.215	-0.045	
6.535	0.047	-0.028	
6.540	-0.264	-0.012	
6.545	0.047	-0.022	
6.550	0.216	-0.021	
6.555	-0.215	-0.004	
6.560	-0.148	-0.012	
6.565	0.258	-0.025	
6.570	-0.119	-0.016	
6.575	-0.213	-0.017	
6.580	0.221	-0.029	
6.585	0.043	-0.018	
6.590	-0.252	-0.006	
6.595	0.049	-0.018	
6.600	0.192	-0.019	
6.605	-0.236	-0.007	
6.610	-0.128	-0.019	
6.615	0.280	-0.031	
6.620	-0.105	-0.016	
6.625	-0.210	-0.012	
6.630	0.229	-0.022	
6.635	0.050	-0.009	
6.640	-0.252	0.003	
6.645	0.067	-0.010	
6.650	0.245	-0.008	
6.655	-0.198	0.010	
6.660	-0.089	0.007	
6.665	0.325	0.001	
6.670	-0.098	0.020	
6.675	-0.201	0.022	
6.680	0.259	0.008	
6.685	0.099	0.019	
6.690	-0.213	0.032	
6.695	0.088	0.021	
6.700	0.255	0.022	
6.705	-0.183	0.038	
6.710	-0.084	0.029	
6.715	0.384	0.021	
6.720	-0.027	0.044	
6.725	-0.151	0.055	
6.730	0.320	0.050	
6.735	0.160	0.068	
6.740	-0.191	0.085	
6.745	0.172	0.076	
6.750	0.314	0.079	
6.755	-0.162	0.095	
6.760	-0.049	0.083	
6.765	0.401	0.068	
6.770	-0.049	0.081	
6.775	-0.180	0.078	
6.780	0.312	0.057	
6.785	0.148	0.064	
6.790	-0.201	0.074	
6.795	0.139	0.060	
6.800	0.309	0.060	
6.805	-0.162	0.076	
6.810	-0.098	0.065	
6.815	0.287	0.044	
6.820	-0.102	0.043	
6.825	-0.207	0.029	
6.830	0.212	0.002	
6.835	0.004	-0.001	
6.840	-0.277	-0.005	
6.845	-0.018	-0.032	
6.850	0.117	-0.049	
6.855	-0.273	-0.051	
6.860	-0.203	-0.071	
6.865	0.123	-0.094	
6.870	-0.177	-0.094	
6.875	-0.249	-0.099	
6.880	0.163	-0.106	
6.885	-0.011	-0.087	
6.890	-0.281	-0.068	
6.895	0.008	-0.072	
6.900	0.091	-0.069	
6.905	-0.262	-0.058	
6.910	-0.125	-0.068	
6.915	0.312	-0.069	
6.920	-0.081	-0.038	
6.925	-0.160	-0.016	
6.930	0.364	-0.004	
6.935	0.219	0.039	
6.940	-0.151	0.083	
6.945	0.253	0.097	
6.950	0.430	0.123	
6.955	-0.078	0.160	
6.960	0.084	0.165	
6.965	0.540	0.167	
6.970	0.108	0.195	
6.975	-0.035	0.206	
6.980	0.527	0.200	
6.985	0.328	0.222	
6.990	-0.133	0.240	
6.995	0.227	0.218	
7.000	0.376	0.199	
7.005	-0.134	0.192	
7.010	-0.052	0.156	
7.015	0.383	0.116	
7.020	-0.053	0.105	
7.025	-0.174	0.085	
7.030	0.296	0.055	
7.035	0.148	0.056	
7.040	-0.198	0.064	
7.045	0.133	0.051	
7.050	0.296	0.052	
7.055	-0.177	0.068	
7.060	-0.075	0.057	
7.065	0.381	0.044	
7.070	0.128	0.067	
7.075	0.239	0.106	
7.080	1.113	0.185	
7.085	1.162	0.357	
7.090	0.666	0.565	
7.095	0.851	0.717	
7.100	0.604	0.797	
7.105	-0.215	0.774	
7.110	-0.300	0.614	
7.115	-0.104	0.380	
7.120	-0.300	0.157	
7.125	-0.349	-0.030	
7.130	0.035	-0.161	
7.135	-0.047	-0.211	
7.140	-0.276	-0.212	
7.145	0.008	-0.201	
7.150	0.166	-0.162	
7.155	-0.235	-0.109	
7.160	-0.153	-0.083	
7.165	0.242	-0.069	
7.170	-0.125	-0.040	
7.175	-0.227	-0.029	
7.180	0.194	-0.036	
7.185	0.046	-0.023	
7.190	-0.250	-0.011	
7.195	0.046	-0.022	
7.200	0.206	-0.021	
7.205	-0.223	-0.006	
7.210	-0.133	-0.015	
7.215	0.250	-0.027	
7.220	-0.133	-0.017	
7.225	-0.235	-0.021	
7.230	0.209	-0.037	
7.235	0.043	-0.028	
7.240	-0.252	-0.016	
7.245	0.062	-0.026	
7.250	0.236	-0.021	
7.255	-0.195	0.001	
7.260	-0.099	0.000	
7.265	0.311	-0.004	
7.270	-0.069	0.015	
7.275	-0.165	0.023	
7.280	0.329	0.019	
7.285	0.171	0.044	
7.290	-0.182	0.071	
7.295	0.198	0.071	
7.300	0.393	0.086	
7.305	-0.098	0.119	
7.310	0.049	0.124	
7.315	0.523	0.128	
7.320	0.114	0.162	
7.325	-0.043	0.182	
7.330	0.524	0.183	
7.335	0.381	0.214	
7.340	-0.050	0.247	
7.345	0.373	0.248	
7.350	0.547	0.260	
7.355	-0.012	0.285	
7.360	0.094	0.273	
7.365	0.514	0.249	
7.370	0.038	0.244	
7.375	-0.146	0.218	
7.380	0.239	0.164	
7.385	0.001	0.122	
7.390	-0.310	0.076	
7.395	-0.105	0.006	
7.400	-0.031	-0.055	
7.405	-0.375	-0.100	
7.410	-0.332	-0.155	
7.415	-0.119	-0.207	
7.420	-0.358	-0.237	
7.425	-0.448	-0.267	
7.430	-0.178	-0.299	
7.435	-0.271	-0.309	
7.440	-0.476	-0.312	
7.445	-0.242	-0.324	
7.450	-0.140	-0.320	
7.455	-0.421	-0.303	
7.460	-0.332	-0.299	
7.465	-0.089	-0.297	
7.470	-0.323	-0.279	
7.475	-0.399	-0.271	
7.480	-0.084	-0.273	
7.485	-0.177	-0.258	
7.490	-0.412	-0.242	
7.495	-0.169	-0.243	
7.500	-0.027	-0.235	
7.505	-0.348	-0.214	
7.510	-0.270	-0.210	
7.515	0.029	-0.209	
7.520	-0.236	-0.190	
7.525	-0.331	-0.182	
7.530	0.017	-0.185	
7.535	-0.089	-0.170	
7.540	-0.339	-0.154	
7.545	-0.085	-0.157	
7.550	0.052	-0.151	
7.555	-0.294	-0.133	
7.560	-0.221	-0.134	
7.565	0.108	-0.139	
7.570	-0.192	-0.125	
7.575	-0.274	-0.120	
7.580	0.110	-0.125	
7.585	-0.035	-0.108	
7.590	-0.303	-0.092	
7.595	-0.047	-0.099	
7.600	0.137	-0.096	
7.605	-0.249	-0.078	
7.610	-0.156	-0.079	
7.615	0.242	-0.079	
7.620	-0.140	-0.056	
7.625	-0.244	-0.047	
7.630	0.166	-0.056	
7.635	0.009	-0.045	
7.640	-0.268	-0.035	
7.645	0.018	-0.048	
7.650	0.168	-0.048	
7.655	-0.238	-0.034	
7.660	-0.153	-0.042	
7.665	0.253	-0.052	
7.670	-0.114	-0.036	
7.675	-0.213	-0.030	
7.680	0.232	-0.036	
7.685	0.065	-0.018	
7.690	-0.249	-0.000	
7.695	0.062	-0.009	
7.700	0.238	-0.006	
7.705	-0.201	0.012	
7.710	-0.113	0.006	
7.715	0.280	-0.005	
7.720	-0.111	0.006	
7.725	-0.218	0.003	
7.730	0.227	-0.014	
7.735	0.079	-0.005	
7.740	-0.239	0.007	
7.745	0.076	-0.003	
7.750	0.226	-0.001	
7.755	-0.217	0.014	
7.760	-0.107	0.005	
7.765	0.320	-0.006	
7.770	-0.089	0.010	
7.775	-0.186	0.015	
7.780	0.293	0.006	
7.785	0.145	0.026	
7.790	-0.200	0.049	
7.795	0.131	0.045	
7.800	0.337	0.053	
7.805	-0.143	0.078	
7.810	-0.046	0.076	
7.815	0.401	0.069	
7.820	-0.015	0.087	
7.825	-0.166	0.089	
7.830	0.334	0.073	
7.835	0.190	0.083	
7.840	-0.168	0.099	
7.845	0.187	0.090	
7.850	0.344	0.094	
7.855	-0.151	0.113	
7.860	-0.089	0.099	
7.865	0.282	0.072	
7.870	-0.117	0.061	
7.875	-0.221	0.037	
7.880	0.229	0.003	
7.885	0.081	0.000	
7.890	-0.233	0.006	
7.895	0.061	-0.007	
7.900	0.219	-0.007	
7.905	-0.207	0.007	
7.910	-0.107	-0.001	
7.915	0.325	-0.009	
7.920	-0.064	0.011	
7.925	-0.183	0.019	
7.930	0.285	0.013	
7.935	0.195	0.034	
7.940	-0.064	0.067	
7.945	0.623	0.102	
7.950	1.105	0.206	
7.955	0.751	0.385	
7.960	0.817	0.560	
7.965	1.067	0.702	
7.970	0.291	0.792	
7.975	-0.206	0.756	
7.980	-0.063	0.591	
7.985	-0.215	0.375	
7.990	-0.419	0.158	
7.995	-0.104	-0.031	
8.000	0.160	-0.140	
8.005	-0.178	-0.166	
8.010	-0.031	-0.159	
8.015	0.457	-0.116	
8.020	0.021	-0.032	
8.025	-0.125	0.033	
8.030	0.381	0.066	
8.035	0.248	0.111	
8.040	-0.124	0.147	
8.045	0.258	0.150	
8.050	0.441	0.162	
8.055	-0.075	0.187	
8.060	0.043	0.180	
8.065	0.453	0.165	
8.070	0.015	0.172	
8.075	-0.116	0.160	
8.080	0.401	0.133	
8.085	0.221	0.137	
8.090	-0.159	0.146	
8.095	0.192	0.127	
8.100	0.348	0.121	
8.105	-0.145	0.130	
8.110	-0.058	0.110	
8.115	0.361	0.085	
8.120	-0.067	0.084	
8.125	-0.182	0.071	
8.130	0.287	0.044	
8.135	0.123	0.047	
8.140	-0.213	0.054	
8.145	0.096	0.038	
8.150	0.279	0.035	
8.155	-0.172	0.049	
8.160	-0.079	0.041	
8.165	0.373	0.031	
8.170	-0.023	0.050	
8.175	-0.148	0.058	
8.180	0.334	0.053	
8.185	0.209	0.074	
8.190	-0.154	0.098	
8.195	0.227	0.098	
8.200	0.418	0.113	
8.205	-0.099	0.144	
8.210	0.024	0.144	
8.215	0.469	0.136	
8.220	0.029	0.154	
8.225	-0.119	0.152	
8.230	0.319	0.129	
8.235	0.096	0.122	
8.240	-0.242	0.108	
8.245	-0.020	0.063	
8.250	0.072	0.019	
8.255	-0.331	-0.016	
8.260	-0.290	-0.070	
8.265	-0.067	-0.129	
8.270	-0.332	-0.169	
8.275	-0.451	-0.212	
8.280	-0.198	-0.261	
8.285	-0.291	-0.289	
8.290	-0.523	-0.309	
8.295	-0.302	-0.338	
8.300	-0.209	-0.351	
8.305	-0.474	-0.348	
8.310	-0.398	-0.354	
8.315	-0.157	-0.358	
8.320	-0.374	-0.343	
8.325	-0.454	-0.336	
8.330	-0.156	-0.336	
8.335	-0.224	-0.320	
8.340	-0.445	-0.302	
8.345	-0.221	-0.298	
8.350	-0.113	-0.288	
8.355	-0.395	-0.268	
8.360	-0.334	-0.266	
8.365	-0.050	-0.268	
8.370	-0.264	-0.251	
8.375	-0.348	-0.239	
8.380	-0.008	-0.234	
8.385	-0.104	-0.210	
8.390	-0.342	-0.185	
8.395	-0.113	-0.180	
8.400	0.029	-0.169	
8.405	-0.297	-0.149	
8.410	-0.220	-0.148	
8.415	0.126	-0.148	
8.420	-0.188	-0.128	
8.425	-0.282	-0.119	
8.430	0.078	-0.124	
8.435	-0.087	-0.113	
8.440	-0.331	-0.107	
8.445	-0.089	-0.122	
8.450	0.030	-0.130	
8.455	-0.314	-0.125	
8.460	-0.217	-0.137	
8.465	0.130	-0.146	
8.470	-0.207	-0.132	
8.475	-0.311	-0.127	
8.480	0.046	-0.138	
8.485	-0.079	-0.132	
8.490	-0.319	-0.124	
8.495	-0.067	-0.134	
8.500	0.107	-0.130	
8.505	-0.259	-0.109	
8.510	-0.182	-0.106	
8.515	0.177	-0.106	
8.520	-0.165	-0.086	
8.525	-0.255	-0.079	
8.530	0.142	-0.085	
8.535	0.009	-0.071	
8.540	-0.265	-0.056	
8.545	0.020	-0.061	
8.550	0.209	-0.053	
8.555	-0.215	-0.029	
8.560	-0.116	-0.028	
8.565	0.322	-0.028	
8.570	-0.063	-0.001	
8.575	-0.178	0.013	
8.580	0.315	0.013	
8.585	0.133	0.037	
8.590	-0.201	0.060	
8.595	0.161	0.055	
8.600	0.338	0.064	
8.605	-0.146	0.088	
8.610	-0.046	0.084	
8.615	0.433	0.075	
8.620	0.017	0.096	
8.625	-0.133	0.104	
8.630	0.344	0.093	
8.635	0.190	0.105	
8.640	-0.195	0.116	
8.645	0.075	0.094	
8.650	0.197	0.073	
8.655	-0.223	0.060	
8.660	-0.117	0.026	
8.665	0.305	-0.002	
8.670	-0.090	0.002	
8.675	-0.206	0.001	
8.680	0.230	-0.013	
8.685	0.053	-0.003	
8.690	-0.249	0.007	
8.695	0.012	-0.010	
8.700	0.198	-0.017	
8.705	-0.217	-0.009	
8.710	-0.122	-0.020	
8.715	0.335	-0.027	
8.720	0.023	0.001	
8.725	0.038	0.033	
8.730	0.896	0.089	
8.735	0.976	0.230	
8.740	0.570	0.414	
8.745	0.846	0.565	
8.750	0.674	0.670	
8.755	-0.200	0.690	
8.760	-0.320	0.571	
8.765	-0.166	0.360	
8.770	-0.369	0.143	
8.775	-0.421	-0.051	
8.780	-0.063	-0.196	
8.785	-0.105	-0.261	
8.790	-0.317	-0.272	
8.795	-0.040	-0.263	
8.800	0.136	-0.222	
8.805	-0.244	-0.162	
8.810	-0.162	-0.126	
8.815	0.238	-0.100	
8.820	-0.131	-0.061	
8.825	-0.230	-0.042	
8.830	0.161	-0.045	
8.835	0.070	-0.030	
8.840	-0.223	-0.014	
8.845	0.101	-0.016	
8.850	0.251	-0.004	
8.855	-0.200	0.022	
8.860	-0.111	0.018	
8.865	0.337	0.009	
8.870	-0.052	0.027	
8.875	-0.172	0.033	
8.880	0.312	0.026	
8.885	0.157	0.046	
8.890	-0.209	0.067	
8.895	0.119	0.058	
8.900	0.305	0.058	
8.905	-0.156	0.074	
8.910	-0.052	0.066	
8.915	0.404	0.056	
8.920	-0.034	0.074	
8.925	-0.160	0.078	
8.930	0.370	0.066	
8.935	0.271	0.087	
8.940	-0.116	0.118	
8.945	0.276	0.126	
8.950	0.460	0.148	
8.955	-0.056	0.184	
8.960	0.093	0.188	
8.965	0.562	0.188	
8.970	0.184	0.217	
8.975	0.027	0.236	
8.980	0.590	0.240	
8.985	0.425	0.273	
8.990	-0.017	0.304	
8.995	0.381	0.299	
9.000	0.534	0.301	
9.005	-0.018	0.312	
9.010	0.111	0.288	
9.015	0.518	0.256	
9.020	-0.002	0.246	
9.025	-0.186	0.211	
9.030	0.201	0.147	
9.035	-0.005	0.098	
9.040	-0.316	0.050	
9.045	-0.124	-0.018	
9.050	-0.043	-0.076	
9.055	-0.372	-0.117	
9.060	-0.334	-0.168	
9.065	-0.104	-0.214	
9.070	-0.340	-0.238	
9.075	-0.436	-0.262	
9.080	-0.143	-0.288	
9.085	-0.221	-0.292	
9.090	-0.445	-0.287	
9.095	-0.226	-0.293	
9.100	-0.108	-0.289	
9.105	-0.370	-0.271	
9.110	-0.290	-0.264	
9.115	-0.008	-0.257	
9.120	-0.252	-0.231	
9.125	-0.349	-0.216	
9.130	-0.015	-0.213	
9.135	-0.098	-0.194	
9.140	-0.329	-0.174	
9.145	-0.093	-0.171	
9.150	0.085	-0.158	
9.155	-0.270	-0.131	
9.160	-0.188	-0.124	
9.165	0.152	-0.120	
9.170	-0.180	-0.099	
9.175	-0.277	-0.092	
9.180	0.108	-0.101	
9.185	-0.005	-0.090	
9.190	-0.285	-0.076	
9.195	-0.043	-0.084	
9.200	0.120	-0.084	
9.205	-0.238	-0.070	
9.210	-0.145	-0.074	
9.215	0.247	-0.075	
9.220	-0.130	-0.051	
9.225	-0.258	-0.043	
9.230	0.130	-0.054	
9.235	0.020	-0.049	
9.240	-0.264	-0.042	
9.245	0.015	-0.053	
9.250	0.190	-0.051	
9.255	-0.223	-0.033	
9.260	-0.146	-0.036	
9.265	0.226	-0.044	
9.270	-0.133	-0.032	
9.275	-0.229	-0.033	
9.280	0.186	-0.046	
9.285	0.047	-0.035	
9.290	-0.261	-0.022	
9.295	0.004	-0.033	
9.300	0.174	-0.036	
9.305	-0.224	-0.025	
9.310	-0.133	-0.034	
9.315	0.277	-0.042	
9.320	-0.116	-0.024	
9.325	-0.221	-0.019	
9.330	0.213	-0.029	
9.335	0.075	-0.015	
9.340	-0.241	-0.000	
9.345	0.070	-0.008	
9.350	0.270	-0.003	
9.355	-0.175	0.020	
9.360	-0.089	0.020	
9.365	0.352	0.016	
9.370	-0.035	0.038	
9.375	-0.154	0.048	
9.380	0.332	0.043	
9.385	0.174	0.065	
9.390	-0.180	0.086	
9.395	0.130	0.078	
9.400	0.322	0.078	
9.405	-0.160	0.092	
9.410	-0.096	0.078	
9.415	0.291	0.053	
9.420	-0.107	0.049	
9.425	-0.224	0.031	
9.430	0.175	-0.001	
9.435	0.038	-0.009	
9.440	-0.267	-0.012	
9.445	0.009	-0.034	
9.450	0.194	-0.041	
9.455	-0.224	-0.029	
9.460	-0.145	-0.036	
9.465	0.210	-0.047	
9.470	-0.119	-0.036	
9.475	-0.232	-0.036	
9.480	0.195	-0.048	
9.485	0.087	-0.033	
9.490	-0.168	-0.011	
9.495	0.415	0.010	
9.500	0.913	0.091	
9.505	0.636	0.247	
9.510	0.823	0.417	
9.515	1.131	0.581	
9.520	0.370	0.714	
9.525	-0.180	0.725	
9.530	-0.076	0.594	
9.535	-0.242	0.394	
9.540	-0.460	0.175	
9.545	-0.191	-0.027	
9.550	-0.006	-0.161	
9.555	-0.300	-0.220	
9.560	-0.217	-0.246	
9.565	0.155	-0.241	
9.570	-0.159	-0.196	
9.575	-0.255	-0.158	
9.580	0.133	-0.134	
9.585	-0.015	-0.098	
9.590	-0.282	-0.071	
9.595	0.001	-0.071	
9.600	0.206	-0.061	
9.605	-0.200	-0.035	
9.610	-0.114	-0.030	
9.615	0.309	-0.028	
9.620	-0.090	-0.002	
9.625	-0.203	0.007	
9.630	0.270	0.000	
9.635	0.149	0.019	
9.640	-0.197	0.042	
9.645	0.117	0.040	
9.650	0.287	0.046	
9.655	-0.154	0.066	
9.660	-0.046	0.060	
9.665	0.393	0.053	
9.670	0.003	0.074	
9.675	-0.130	0.083	
9.680	0.373	0.078	
9.685	0.255	0.101	
9.690	-0.133	0.128	
9.695	0.224	0.128	
9.700	0.383	0.136	
9.705	-0.060	0.158	
9.710	0.111	0.157	
9.715	0.599	0.163	
9.720	0.184	0.204	
9.725	-0.003	0.232	
9.730	0.588	0.238	
9.735	0.466	0.272	
9.740	0.003	0.310	
9.745	0.448	0.313	
9.750	0.634	0.328	
9.755	0.110	0.359	
9.760	0.244	0.358	
9.765	0.678	0.351	
9.770	0.255	0.368	
9.775	0.033	0.365	
9.780	0.564	0.337	
9.785	0.355	0.331	
9.790	-0.136	0.319	
9.795	0.134	0.265	
9.800	0.244	0.207	
9.805	-0.233	0.158	
9.810	-0.191	0.085	
9.815	0.110	0.011	
9.820	-0.252	-0.038	
9.825	-0.380	-0.091	
9.830	-0.102	-0.151	
9.835	-0.201	-0.189	
9.840	-0.444	-0.217	
9.845	-0.242	-0.252	
9.850	-0.140	-0.272	
9.855	-0.419	-0.275	
9.860	-0.332	-0.286	
9.865	-0.052	-0.291	
9.870	-0.282	-0.273	
9.875	-0.380	-0.260	
9.880	-0.113	-0.259	
9.885	-0.178	-0.246	
9.890	-0.392	-0.235	
9.895	-0.157	-0.237	
9.900	-0.017	-0.228	
9.905	-0.332	-0.206	
9.910	-0.259	-0.200	
9.915	0.064	-0.197	
9.920	-0.220	-0.175	
9.925	-0.317	-0.164	
9.930	0.027	-0.166	
9.935	-0.093	-0.153	
9.940	-0.345	-0.142	
9.945	-0.113	-0.151	
9.950	0.056	-0.152	
9.955	-0.284	-0.137	
9.960	-0.201	-0.137	
9.965	0.161	-0.136	
9.970	-0.195	-0.114	
9.975	-0.285	-0.106	
9.980	0.133	-0.111	
9.985	0.004	-0.094	
9.990	-0.281	-0.075	
9.995	-0.011	-0.078	
10.000	0.178	-0.070	
10.005	-0.249	-0.049	
10.010	-0.175	-0.053	
10.015	0.221	-0.062	
10.020	-0.127	-0.049	
10.025	-0.239	-0.046	
10.030	0.184	-0.055	
10.035	0.033	-0.042	
10.040	-0.253	-0.028	
10.045	0.001	-0.038	
10.050	0.183	-0.039	
10.055	-0.217	-0.025	
10.060	-0.154	-0.032	
10.065	0.239	-0.043	
10.070	-0.111	-0.031	
10.075	-0.226	-0.029	
10.080	0.209	-0.039	
10.085	0.056	-0.025	
10.090	-0.256	-0.011	
10.095	0.037	-0.021	
10.100	0.218	-0.021	
10.105	-0.218	-0.005	
10.110	-0.143	-0.013	
10.115	0.273	-0.025	
10.120	-0.087	-0.012	
10.125	-0.204	-0.008	
10.130	0.239	-0.017	
10.135	0.094	-0.001	
10.140	-0.241	0.016	
10.145	-0.012	0.003	
10.150	0.195	-0.008	
10.155	-0.206	-0.003	
10.160	-0.134	-0.017	
10.165	0.276	-0.029	
10.170	-0.108	-0.016	
10.175	-0.221	-0.014	
10.180	0.209	-0.026	
10.185	0.047	-0.016	
10.190	-0.246	-0.005	
10.195	0.037	-0.018	
10.200	0.215	-0.019	
10.205	-0.201	-0.004	
10.210	-0.104	-0.009	
10.215	0.320	-0.014	
10.220	-0.081	0.007	
10.225	-0.191	0.015	
10.230	0.268	0.007	
10.235	0.136	0.024	
10.240	-0.207	0.043	
10.245	0.105	0.037	
10.250	0.311	0.041	
10.255	-0.140	0.063	
10.260	-0.053	0.061	
10.265	0.386	0.055	
10.270	-0.060	0.072	
10.275	-0.215	0.070	
10.280	0.265	0.045	
10.285	0.133	0.046	
10.290	-0.229	0.051	
10.295	0.029	0.031	
10.300	0.194	0.016	
10.305	-0.242	0.014	
10.310	-0.182	-0.011	
10.315	0.209	-0.040	
10.320	-0.130	-0.042	
10.325	-0.242	-0.049	
10.330	0.137	-0.065	
10.335	0.011	-0.059	
10.340	-0.279	-0.051	
10.345	-0.032	-0.064	
10.350	0.137	-0.068	
10.355	-0.229	-0.057	
10.360	-0.104	-0.061	
10.365	0.512	-0.048	
10.370	0.405	0.029	
10.375	0.511	0.145	
10.380	1.201	0.297	
10.385	0.962	0.496	
10.390	0.157	0.653	
10.395	0.149	0.676	
10.400	-0.031	0.582	
10.405	-0.441	0.412	
10.410	-0.387	0.193	
10.415	-0.090	-0.011	
10.420	-0.253	-0.147	
10.425	-0.317	-0.229	
10.430	0.055	-0.265	
10.435	-0.044	-0.246	
10.440	-0.311	-0.207	
10.445	-0.084	-0.184	
10.450	0.099	-0.156	
10.455	-0.261	-0.121	
10.460	-0.221	-0.111	
10.465	0.149	-0.111	
10.470	-0.137	-0.093	
10.475	-0.227	-0.084	
10.480	0.207	-0.081	
10.485	0.076	-0.053	
10.490	-0.246	-0.024	
10.495	0.021	-0.023	
10.500	0.216	-0.018	
10.505	-0.201	-0.001	
10.510	-0.122	-0.006	
10.515	0.300	-0.014	
10.520	-0.067	0.003	
10.525	-0.177	0.011	
10.530	0.309	0.007	
10.535	0.192	0.034	
10.540	-0.186	0.064	
10.545	0.136	0.065	
10.550	0.326	0.072	
10.555	-0.146	0.092	
10.560	-0.040	0.085	
10.565	0.425	0.075	
10.570	0.065	0.096	
10.575	-0.084	0.111	
10.580	0.433	0.113	
10.585	0.314	0.144	
10.590	-0.101	0.177	
10.595	0.290	0.179	
10.600	0.512	0.192	
10.605	-0.005	0.224	
10.610	0.137	0.228	
10.615	0.593	0.227	
10.620	0.206	0.256	
10.625	0.026	0.270	
10.630	0.550	0.265	
10.635	0.454	0.286	
10.640	0.003	0.311	
10.645	0.401	0.306	
10.650	0.570	0.310	
10.655	-0.026	0.325	
10.660	0.018	0.297	
10.665	0.392	0.247	
10.670	-0.070	0.211	
10.675	-0.233	0.155	
10.680	0.091	0.078	
10.685	-0.089	0.020	
10.690	-0.375	-0.034	
10.695	-0.198	-0.102	
10.700	-0.117	-0.158	
10.705	-0.416	-0.195	
10.710	-0.364	-0.238	
10.715	-0.130	-0.274	
10.720	-0.335	-0.286	
10.725	-0.436	-0.295	
10.730	-0.156	-0.309	
10.735	-0.235	-0.304	
10.740	-0.451	-0.295	
10.745	-0.223	-0.299	
10.750	-0.096	-0.291	
10.755	-0.370	-0.270	
10.760	-0.308	-0.263	
10.765	-0.040	-0.258	
10.770	-0.268	-0.238	
10.775	-0.355	-0.228	
10.780	-0.023	-0.227	
10.785	-0.107	-0.208	
10.790	-0.343	-0.187	
10.795	-0.107	-0.184	
10.800	0.033	-0.172	
10.805	-0.296	-0.150	
10.810	-0.220	-0.148	
10.815	0.120	-0.148	
10.820	-0.182	-0.128	
10.825	-0.273	-0.118	
10.830	0.120	-0.120	
10.835	-0.003	-0.100	
10.840	-0.281	-0.079	
10.845	-0.032	-0.082	
10.850	0.165	-0.077	
10.855	-0.235	-0.057	
10.860	-0.175	-0.059	
10.865	0.227	-0.066	
10.870	-0.117	-0.049	
10.875	-0.239	-0.044	
10.880	0.152	-0.053	
10.885	0.035	-0.044	
10.890	-0.259	-0.032	
10.895	-0.015	-0.044	
10.900	0.189	-0.046	
10.905	-0.221	-0.032	
10.910	-0.148	-0.038	
10.915	0.242	-0.046	
10.920	-0.102	-0.031	
10.925	-0.221	-0.026	
10.930	0.207	-0.035	
10.935	0.068	-0.020	
10.940	-0.246	-0.005	
10.945	0.033	-0.014	
10.950	0.226	-0.014	
10.955	-0.201	0.002	
10.960	-0.143	-0.006	
10.965	0.255	-0.019	
10.970	-0.102	-0.010	
10.975	-0.213	-0.011	
10.980	0.226	-0.024	
10.985	0.087	-0.011	
10.990	-0.230	0.006	
10.995	0.053	-0.002	
11.000	0.262	0.001	
11.005	-0.177	0.021	
11.010	-0.110	0.017	
11.015	0.285	0.007	
11.020	-0.104	0.017	
11.025	-0.206	0.013	
11.030	0.259	-0.003	
11.035	0.122	0.010	
11.040	-0.221	0.027	
11.045	0.049	0.018	
11.050	0.226	0.015	
11.055	-0.201	0.025	
11.060	-0.104	0.012	
11.065	0.337	-0.000	
11.070	-0.056	0.018	
11.075	-0.197	0.025	
11.080	0.255	0.014	
11.085	0.123	0.027	
11.090	-0.223	0.041	
11.095	0.073	0.029	
11.100	0.265	0.026	
11.105	-0.191	0.039	
11.110	-0.119	0.027	
11.115	0.280	0.010	
11.120	-0.061	0.017	
11.125	-0.172	0.017	
11.130	0.270	0.007	
11.135	0.130	0.024	
11.140	-0.215	0.042	
11.145	0.079	0.033	
11.150	0.258	0.032	
11.155	-0.180	0.045	
11.160	-0.119	0.032	
11.165	0.236	0.012	
11.170	-0.082	0.012	
11.175	-0.188	0.005	
11.180	0.236	-0.010	
11.185	0.125	0.003	
11.190	-0.220	0.022	
11.195	0.055	0.015	
11.200	0.253	0.015	
11.205	-0.185	0.030	
11.210	-0.113	0.021	
11.215	0.300	0.008	
11.220	-0.085	0.018	
11.225	-0.200	0.017	
11.230	0.248	0.002	
11.235	0.126	0.014	
11.240	-0.223	0.030	
11.245	0.050	0.020	
11.250	0.241	0.017	
11.255	-0.194	0.028	
11.260	-0.111	0.016	
11.265	0.349	0.004	
11.270	-0.009	0.024	
11.275	-0.148	0.038	
11.280	0.302	0.038	
11.285	0.169	0.059	
11.290	-0.182	0.080	
11.295	0.126	0.073	
11.300	0.346	0.075	
11.305	-0.127	0.094	
11.310	-0.058	0.088	
11.315	0.396	0.075	
11.320	0.000	0.089	
11.325	-0.157	0.091	
11.330	0.287	0.073	
11.335	0.128	0.076	
11.340	-0.244	0.078	
11.345	-0.009	0.047	
11.350	0.187	0.020	
11.355	-0.215	0.010	
11.360	-0.149	-0.015	
11.365	0.258	-0.036	
11.370	-0.113	-0.029	
11.375	-0.229	-0.028	
11.380	0.180	-0.041	
11.385	0.055	-0.031	
11.390	-0.265	-0.019	
11.395	-0.040	-0.034	
11.400	0.192	-0.042	
11.405	-0.148	-0.029	
11.410	0.174	-0.014	
11.415	0.985	0.051	
11.420	0.835	0.210	
11.425	0.666	0.403	
11.430	1.012	0.571	
11.435	0.474	0.693	
11.440	-0.261	0.704	
11.445	-0.217	0.568	
11.450	-0.175	0.355	
11.455	-0.412	0.140	
11.460	-0.296	-0.051	
11.465	0.061	-0.179	
11.470	-0.198	-0.226	
11.475	-0.294	-0.237	
11.480	0.078	-0.231	
11.485	-0.020	-0.193	
11.490	-0.300	-0.151	
11.495	-0.066	-0.134	
11.500	0.140	-0.114	
11.505	-0.246	-0.085	
11.510	-0.171	-0.079	
11.515	0.223	-0.078	
11.520	-0.130	-0.057	
11.525	-0.244	-0.049	
11.530	0.174	-0.056	
11.535	0.050	-0.042	
11.540	-0.259	-0.027	
11.545	0.018	-0.035	
11.550	0.250	-0.032	
11.555	-0.185	-0.009	
11.560	-0.137	-0.007	
11.565	0.277	-0.014	
11.570	-0.090	0.001	
11.575	-0.206	0.003	
11.580	0.255	-0.008	
11.585	0.148	0.009	
11.590	-0.191	0.032	
11.595	0.125	0.033	
11.600	0.331	0.045	
11.605	-0.137	0.073	
11.610	-0.044	0.073	
11.615	0.437	0.070	
11.620	0.046	0.096	
11.625	-0.130	0.109	
11.630	0.349	0.102	
11.635	0.290	0.119	
11.640	-0.111	0.143	
11.645	0.265	0.144	
11.650	0.501	0.160	
11.655	-0.018	0.196	
11.660	0.094	0.204	
11.665	0.619	0.206	
11.670	0.244	0.242	
11.675	0.008	0.266	
11.680	0.538	0.266	
11.685	0.419	0.286	
11.690	-0.041	0.305	
11.695	0.341	0.289	
11.700	0.501	0.281	
11.705	-0.090	0.283	
11.710	-0.069	0.243	
11.715	0.305	0.182	
11.720	-0.127	0.138	
11.725	-0.262	0.081	
11.730	0.043	0.010	
11.735	-0.116	-0.040	
11.740	-0.389	-0.084	
11.745	-0.212	-0.141	
11.750	-0.120	-0.186	
11.755	-0.415	-0.214	
11.760	-0.364	-0.249	
11.765	-0.114	-0.278	
11.770	-0.334	-0.284	
11.775	-0.444	-0.291	
11.780	-0.157	-0.304	
11.785	-0.226	-0.300	
11.790	-0.445	-0.291	
11.795	-0.246	-0.296	
11.800	-0.104	-0.292	
11.805	-0.366	-0.273	
11.810	-0.310	-0.267	
11.815	-0.041	-0.262	
11.820	-0.262	-0.241	
11.825	-0.357	-0.229	
11.830	-0.031	-0.227	
11.835	-0.099	-0.208	
11.840	-0.348	-0.187	
11.845	-0.128	-0.185	
11.850	0.037	-0.176	
11.855	-0.297	-0.155	
11.860	-0.232	-0.153	
11.865	0.117	-0.153	
11.870	-0.175	-0.133	
11.875	-0.297	-0.123	
11.880	0.075	-0.128	
11.885	-0.021	-0.114	
11.890	-0.294	-0.098	
11.895	-0.041	-0.103	
11.900	0.128	-0.097	
11.905	-0.255	-0.079	
11.910	-0.186	-0.081	
11.915	0.192	-0.087	
11.920	-0.146	-0.072	
11.925	-0.239	-0.067	
11.930	0.181	-0.072	
11.935	0.072	-0.053	
11.940	-0.258	-0.030	
11.945	-0.021	-0.035	
11.950	0.154	-0.038	
11.955	-0.250	-0.030	
11.960	-0.163	-0.045	
11.965	0.255	-0.058	
11.970	-0.105	-0.043	
11.975	-0.232	-0.036	
11.980	0.160	-0.045	
11.985	0.029	-0.036	
11.990	-0.259	-0.027	
11.995	0.012	-0.039	
12.000	0.203	-0.040	
12.005	-0.227	-0.024	
12.010	-0.160	-0.031	
12.015	0.256	-0.042	
12.020	-0.087	-0.027	
12.025	-0.223	-0.022	
12.030	0.194	-0.031	
12.035	0.061	-0.019	
12.040	-0.262	-0.007	
12.045	0.006	-0.021	
12.050	0.235	-0.025	
12.055	-0.197	-0.009	
12.060	-0.130	-0.013	
12.065	0.294	-0.020	
12.070	-0.078	-0.002	
12.075	-0.206	0.004	
12.080	0.210	-0.007	
12.085	0.081	0.003	
12.090	-0.233	0.014	
12.095	0.033	-0.000	
12.100	0.248	-0.003	
12.105	-0.201	0.011	
12.110	-0.142	0.003	
12.115	0.285	-0.011	
12.120	-0.078	0.000	
12.125	-0.207	0.002	
12.130	0.242	-0.009	
12.135	0.102	0.005	
12.140	-0.236	0.020	
12.145	0.020	0.008	
12.150	0.233	0.002	
12.155	-0.195	0.012	
12.160	-0.133	0.002	
12.165	0.258	-0.013	
12.170	-0.081	-0.004	
12.175	-0.198	-0.004	
12.180	0.258	-0.013	
12.185	0.145	0.006	
12.190	-0.221	0.030	
12.195	0.033	0.023	
12.200	0.230	0.020	
12.205	-0.192	0.028	
12.210	-0.128	0.014	
12.215	0.302	-0.002	
12.220	-0.067	0.009	
12.225	-0.204	0.011	
12.230	0.210	-0.002	
12.235	0.075	0.005	
12.240	-0.233	0.014	
12.245	0.052	-0.000	
12.250	0.233	-0.002	
12.255	-0.217	0.011	
12.260	-0.145	-0.000	
12.265	0.317	-0.015	
12.270	-0.055	0.001	
12.275	-0.194	0.009	
12.280	0.232	0.002	
12.285	0.108	0.015	
12.290	-0.246	0.028	
12.295	0.011	0.012	
12.300	0.241	0.003	
12.305	-0.186	0.012	
12.310	-0.133	0.002	
12.315	0.277	-0.011	
12.320	-0.079	0.000	
12.325	-0.212	0.001	
12.330	0.168	-0.014	
12.335	0.040	-0.011	
12.340	-0.224	-0.007	
12.345	0.084	-0.018	
12.350	0.305	-0.009	
12.355	-0.156	0.022	
12.360	-0.096	0.028	
12.365	0.340	0.026	
12.370	-0.029	0.046	
12.375	-0.160	0.052	
12.380	0.311	0.044	
12.385	0.190	0.062	
12.390	-0.185	0.083	
12.395	0.130	0.076	
12.400	0.344	0.077	
12.405	-0.127	0.096	
12.410	-0.067	0.088	
12.415	0.349	0.072	
12.420	-0.063	0.077	
12.425	-0.204	0.067	
12.430	0.194	0.036	
12.435	0.053	0.025	
12.440	-0.256	0.017	
12.445	-0.020	-0.012	
12.450	0.174	-0.030	
12.455	-0.224	-0.028	
12.460	-0.159	-0.042	
12.465	0.238	-0.055	
12.470	-0.107	-0.042	
12.475	-0.230	-0.037	
12.480	0.155	-0.047	
12.485	0.035	-0.038	
12.490	-0.273	-0.028	
12.495	-0.024	-0.043	
12.500	0.360	-0.041	
12.505	0.149	0.007	
12.510	0.562	0.085	
12.515	1.250	0.225	
12.520	0.825	0.431	
12.525	0.306	0.601	
12.530	0.444	0.660	
12.535	-0.021	0.622	
12.540	-0.450	0.486	
12.545	-0.300	0.273	
12.550	-0.153	0.062	
12.555	-0.369	-0.098	
12.560	-0.270	-0.212	
12.565	0.062	-0.268	
12.570	-0.194	-0.262	
12.575	-0.291	-0.239	
12.580	0.078	-0.216	
12.585	-0.018	-0.172	
12.590	-0.293	-0.130	
12.595	-0.066	-0.116	
12.600	0.168	-0.100	
12.605	-0.221	-0.071	
12.610	-0.162	-0.064	
12.615	0.247	-0.063	
12.620	-0.096	-0.039	
12.625	-0.218	-0.028	
12.630	0.204	-0.033	
12.635	0.105	-0.015	
12.640	-0.233	0.005	
12.645	0.041	-0.001	
12.650	0.248	0.000	
12.655	-0.166	0.018	
12.660	-0.085	0.016	
12.665	0.352	0.013	
12.670	-0.021	0.036	
12.675	-0.159	0.048	
12.680	0.328	0.044	
12.685	0.218	0.067	
12.690	-0.163	0.094	
12.695	0.171	0.093	
12.700	0.386	0.101	
12.705	-0.120	0.124	
12.710	-0.031	0.118	
12.715	0.469	0.106	
12.720	0.114	0.128	
12.725	-0.060	0.145	
12.730	0.498	0.149	
12.735	0.390	0.185	
12.740	-0.061	0.224	
12.745	0.334	0.230	
12.750	0.598	0.246	
12.755	0.107	0.284	
12.760	0.184	0.296	
12.765	0.669	0.300	
12.770	0.294	0.331	
12.775	0.046	0.345	
12.780	0.608	0.334	
12.785	0.476	0.347	
12.790	-0.014	0.361	
12.795	0.335	0.337	
12.800	0.489	0.316	
12.805	-0.075	0.305	
12.810	-0.041	0.257	
12.815	0.361	0.195	
12.820	-0.082	0.156	
12.825	-0.255	0.106	
12.830	0.046	0.036	
12.835	-0.085	-0.016	
12.840	-0.361	-0.061	
12.845	-0.166	-0.117	
12.850	-0.035	-0.157	
12.855	-0.332	-0.173	
12.860	-0.287	-0.195	
12.865	-0.002	-0.212	
12.870	-0.239	-0.205	
12.875	-0.351	-0.202	
12.880	-0.008	-0.208	
12.885	-0.061	-0.191	
12.890	-0.322	-0.169	
12.895	-0.099	-0.164	
12.900	0.094	-0.151	
12.905	-0.241	-0.123	
12.910	-0.168	-0.113	
12.915	0.256	-0.102	
12.920	-0.079	-0.065	
12.925	-0.194	-0.040	
12.930	0.245	-0.030	
12.935	0.131	0.000	
12.940	-0.201	0.029	
12.945	0.113	0.030	
12.950	0.328	0.042	
12.955	-0.125	0.069	
12.960	-0.034	0.072	
12.965	0.441	0.072	
12.970	0.072	0.101	
12.975	-0.110	0.118	
12.980	0.352	0.114	
12.985	0.253	0.130	
12.990	-0.143	0.147	
12.995	0.158	0.134	
13.000	0.372	0.128	
13.005	-0.107	0.138	
13.010	-0.049	0.123	
13.015	0.360	0.100	
13.020	-0.031	0.099	
13.025	-0.166	0.087	
13.030	0.268	0.061	
13.035	0.180	0.062	
13.040	-0.207	0.070	
13.045	0.032	0.052	
13.050	0.229	0.038	
13.055	-0.182	0.038	
13.060	-0.136	0.018	
13.065	0.233	-0.005	
13.070	-0.122	-0.006	
13.075	-0.261	-0.018	
13.080	0.073	-0.046	
13.085	0.008	-0.057	
13.090	-0.276	-0.060	
13.095	-0.072	-0.079	
13.100	0.072	-0.090	
13.105	-0.288	-0.089	
13.110	-0.220	-0.105	
13.115	0.126	-0.121	
13.120	-0.171	-0.113	
13.125	-0.293	-0.112	
13.130	0.026	-0.124	
13.135	-0.078	-0.122	
13.140	-0.335	-0.120	
13.145	-0.134	-0.138	
13.150	0.008	-0.148	
13.155	-0.303	-0.146	
13.160	-0.252	-0.157	
13.165	0.050	-0.168	
13.170	-0.209	-0.159	
13.175	-0.332	-0.158	
13.180	-0.060	-0.171	
13.185	-0.133	-0.173	
13.190	-0.361	-0.174	
13.195	-0.142	-0.188	
13.200	0.015	-0.189	
13.205	-0.308	-0.174	
13.210	-0.267	-0.175	
13.215	0.041	-0.180	
13.220	-0.206	-0.167	
13.225	-0.319	-0.162	
13.230	-0.002	-0.168	
13.235	-0.099	-0.160	
13.240	-0.337	-0.151	
13.245	-0.127	-0.160	
13.250	0.033	-0.161	
13.255	-0.291	-0.148	
13.260	-0.241	-0.150	
13.265	0.075	-0.156	
13.270	-0.186	-0.143	
13.275	-0.305	-0.138	
13.280	-0.005	-0.147	
13.285	-0.079	-0.142	
13.290	-0.325	-0.136	
13.295	-0.125	-0.148	
13.300	0.029	-0.151	
13.305	-0.293	-0.142	
13.310	-0.236	-0.147	
13.315	0.087	-0.154	
13.320	-0.194	-0.141	
13.325	-0.314	-0.137	
13.330	-0.003	-0.148	
13.335	-0.081	-0.144	
13.340	-0.325	-0.138	
13.345	-0.114	-0.149	
13.350	0.058	-0.150	
13.355	-0.290	-0.136	
13.360	-0.255	-0.140	
13.365	0.088	-0.148	
13.370	-0.171	-0.137	
13.375	-0.277	-0.131	
13.380	0.082	-0.133	
13.385	0.001	-0.115	
13.390	-0.276	-0.093	
13.395	-0.038	-0.093	
13.400	0.186	-0.083	
13.405	-0.200	-0.057	
13.410	-0.142	-0.050	
13.415	0.274	-0.047	
13.420	-0.076	-0.021	
13.425	-0.210	-0.009	
13.430	0.181	-0.016	
13.435	0.058	-0.007	
13.440	-0.258	0.001	
13.445	-0.072	-0.020	
13.450	0.065	-0.042	
13.455	-0.265	-0.055	
13.460	-0.206	-0.082	
13.465	0.157	-0.104	
13.470	-0.153	-0.098	
13.475	-0.271	-0.096	
13.480	0.079	-0.106	
13.485	-0.031	-0.098	
13.490	-0.314	-0.089	
13.495	-0.093	-0.104	
13.500	0.113	-0.109	
13.505	-0.256	-0.098	
13.510	-0.192	-0.101	
13.515	0.218	-0.104	
13.520	-0.020	-0.076	
13.525	-0.035	-0.041	
13.530	0.774	0.015	
13.535	0.954	0.154	
13.540	0.532	0.342	
13.545	0.761	0.499	
13.550	0.620	0.608	
13.555	-0.198	0.633	
13.560	-0.355	0.522	
13.565	-0.220	0.319	
13.570	-0.389	0.106	
13.575	-0.441	-0.085	
13.580	-0.111	-0.227	
13.585	-0.122	-0.291	
13.590	-0.346	-0.301	
13.595	-0.156	-0.295	
13.600	0.011	-0.268	
13.605	-0.276	-0.224	
13.610	-0.238	-0.197	
13.615	0.084	-0.178	
13.620	-0.160	-0.147	
13.625	-0.274	-0.128	
13.630	0.055	-0.125	
13.635	-0.011	-0.109	
13.640	-0.285	-0.092	
13.645	-0.067	-0.097	
13.650	0.125	-0.095	
13.655	-0.247	-0.080	
13.660	-0.188	-0.083	
13.665	0.184	-0.089	
13.670	-0.130	-0.074	
13.675	-0.253	-0.068	
13.680	0.137	-0.075	
13.685	0.043	-0.062	
13.690	-0.264	-0.046	
13.695	-0.043	-0.054	
13.700	0.155	-0.057	
13.705	-0.203	-0.045	
13.710	-0.139	-0.049	
13.715	0.271	-0.051	
13.720	-0.046	-0.026	
13.725	-0.163	-0.009	
13.730	0.308	-0.001	
13.735	0.209	0.033	
13.740	-0.142	0.071	
13.745	0.198	0.082	
13.750	0.436	0.104	
13.755	-0.052	0.143	
13.760	0.033	0.152	
13.765	0.521	0.154	
13.770	0.189	0.184	
13.775	-0.002	0.207	
13.780	0.521	0.212	
13.785	0.434	0.244	
13.790	-0.020	0.278	
13.795	0.322	0.276	
13.800	0.527	0.277	
13.805	0.030	0.292	
13.810	0.107	0.277	
13.815	0.535	0.255	
13.820	0.119	0.256	
13.825	-0.140	0.239	
13.830	0.242	0.190	
13.835	0.072	0.150	
13.840	-0.284	0.108	
13.845	-0.114	0.039	
13.850	-0.017	-0.027	
13.855	-0.351	-0.077	
13.860	-0.326	-0.136	
13.865	-0.098	-0.190	
13.870	-0.310	-0.220	
13.875	-0.436	-0.248	
13.880	-0.177	-0.278	
13.885	-0.230	-0.289	
13.890	-0.460	-0.291	
13.895	-0.264	-0.304	
13.900	-0.127	-0.306	
13.905	-0.390	-0.292	
13.910	-0.329	-0.288	
13.915	-0.031	-0.283	
13.920	-0.238	-0.257	
13.925	-0.363	-0.237	
13.930	-0.084	-0.232	
13.935	-0.149	-0.218	
13.940	-0.389	-0.206	
13.945	-0.206	-0.215	
13.950	-0.067	-0.219	
13.955	-0.349	-0.213	
13.960	-0.310	-0.220	
13.965	-0.029	-0.229	
13.970	-0.259	-0.220	
13.975	-0.375	-0.218	
13.980	-0.070	-0.226	
13.985	-0.136	-0.219	
13.990	-0.378	-0.208	
13.995	-0.180	-0.214	
14.000	-0.049	-0.213	
14.005	-0.343	-0.202	
14.010	-0.319	-0.208	
14.015	-0.049	-0.220	
14.020	-0.256	-0.217	
14.025	-0.369	-0.218	
14.030	-0.096	-0.228	
14.035	-0.174	-0.225	
14.040	-0.413	-0.222	
14.045	-0.229	-0.236	
14.050	-0.143	-0.246	
14.055	-0.441	-0.250	
14.060	-0.428	-0.273	
14.065	-0.204	-0.303	
14.070	-0.419	-0.320	
14.075	-0.543	-0.342	
14.080	-0.282	-0.373	
14.085	-0.313	-0.384	
14.090	-0.538	-0.386	
14.095	-0.363	-0.396	
14.100	-0.247	-0.398	
14.105	-0.502	-0.388	
14.110	-0.454	-0.390	
14.115	-0.210	-0.394	
14.120	-0.378	-0.381	
14.125	-0.464	-0.370	
14.130	-0.154	-0.364	
14.135	-0.177	-0.338	
14.140	-0.403	-0.304	
14.145	-0.198	-0.286	
14.150	-0.041	-0.263	
14.155	-0.313	-0.231	
14.160	-0.239	-0.214	
14.165	0.157	-0.196	
14.170	-0.136	-0.153	
14.175	-0.255	-0.121	
14.180	0.174	-0.105	
14.185	0.137	-0.067	
14.190	-0.209	-0.025	
14.195	0.070	-0.009	
14.200	0.322	0.012	
14.205	-0.117	0.047	
14.210	-0.053	0.058	
14.215	0.396	0.060	
14.220	0.114	0.090	
14.225	-0.061	0.113	
14.230	0.482	0.126	
14.235	0.390	0.169	
14.240	-0.052	0.214	
14.245	0.325	0.225	
14.250	0.561	0.243	
14.255	0.064	0.276	
14.260	0.180	0.282	
14.265	0.678	0.283	
14.270	0.320	0.317	
14.275	0.088	0.341	
14.280	0.628	0.341	
14.285	0.562	0.366	
14.290	0.126	0.398	
14.295	0.527	0.402	
14.300	0.773	0.420	
14.305	0.291	0.460	
14.310	0.393	0.476	
14.315	0.864	0.485	
14.320	0.482	0.521	
14.325	0.264	0.538	
14.330	0.791	0.531	
14.335	0.697	0.546	
14.340	0.245	0.565	
14.345	0.645	0.555	
14.350	0.864	0.558	
14.355	0.348	0.582	
14.360	0.418	0.578	
14.365	0.841	0.562	
14.370	0.405	0.567	
14.375	0.157	0.548	
14.380	0.684	0.502	
14.385	0.575	0.484	
14.390	0.075	0.474	
14.395	0.445	0.435	
14.400	0.672	0.411	
14.405	0.140	0.413	
14.410	0.215	0.391	
14.415	0.701	0.367	
14.420	0.322	0.377	
14.425	0.078	0.378	
14.430	0.627	0.359	
14.435	0.555	0.371	
14.440	0.151	0.395	
14.445	0.680	0.405	
14.450	1.130	0.457	
14.455	0.881	0.574	
14.460	1.186	0.714	
14.465	1.648	0.877	
14.470	1.046	1.051	
14.475	0.390	1.132	
14.480	0.399	1.066	
14.485	-0.012	0.891	
14.490	-0.345	0.642	
14.495	-0.116	0.363	
14.500	0.146	0.139	
14.505	-0.180	0.003	
14.510	-0.095	-0.078	
14.515	0.386	-0.103	
14.520	0.032	-0.064	
14.525	-0.128	-0.018	
14.530	0.335	0.013	
14.535	0.232	0.062	
14.540	-0.143	0.104	
14.545	0.189	0.112	
14.550	0.433	0.126	
14.555	-0.063	0.156	
14.560	0.003	0.156	
14.565	0.480	0.146	
14.570	0.107	0.164	
14.575	-0.078	0.171	
14.580	0.425	0.160	
14.585	0.322	0.176	
14.590	-0.111	0.195	
14.595	0.187	0.182	
14.600	0.407	0.173	
14.605	-0.067	0.179	
14.610	0.026	0.163	
14.615	0.514	0.148	
14.620	0.133	0.168	
14.625	-0.098	0.178	
14.630	0.390	0.166	
14.635	0.297	0.174	
14.640	-0.122	0.186	
14.645	0.233	0.170	
14.650	0.483	0.170	
14.655	-0.023	0.192	
14.660	0.061	0.191	
14.665	0.562	0.185	
14.670	0.206	0.213	
14.675	-0.006	0.232	
14.680	0.529	0.231	
14.685	0.416	0.256	
14.690	-0.008	0.284	
14.695	0.399	0.282	
14.700	0.658	0.296	
14.705	0.157	0.334	
14.710	0.245	0.348	
14.715	0.712	0.353	
14.720	0.315	0.382	
14.725	0.075	0.391	
14.730	0.588	0.372	
14.735	0.459	0.373	
14.740	-0.075	0.371	
14.745	0.212	0.325	
14.750	0.387	0.277	
14.755	-0.137	0.241	
14.760	-0.149	0.177	
14.765	0.160	0.100	
14.770	-0.183	0.044	
14.775	-0.354	-0.018	
14.780	-0.099	-0.091	
14.785	-0.171	-0.143	
14.790	-0.430	-0.183	
14.795	-0.255	-0.228	
14.800	-0.146	-0.258	
14.805	-0.418	-0.270	
14.810	-0.375	-0.288	
14.815	-0.105	-0.303	
14.820	-0.282	-0.294	
14.825	-0.398	-0.285	
14.830	-0.120	-0.283	
14.835	-0.178	-0.268	
14.840	-0.406	-0.251	
14.845	-0.194	-0.252	
14.850	-0.037	-0.244	
14.855	-0.322	-0.222	
14.860	-0.281	-0.214	
14.865	0.033	-0.210	
14.870	-0.212	-0.189	
14.875	-0.343	-0.178	
14.880	-0.053	-0.183	
14.885	-0.079	-0.177	
14.890	-0.332	-0.166	
14.895	-0.143	-0.171	
14.900	0.046	-0.168	
14.905	-0.274	-0.151	
14.910	-0.236	-0.149	
14.915	0.117	-0.149	
14.920	-0.154	-0.129	
14.925	-0.290	-0.118	
14.930	0.050	-0.122	
14.935	0.009	-0.110	
14.940	-0.267	-0.093	
14.945	-0.047	-0.094	
14.950	0.160	-0.086	
14.955	-0.235	-0.065	
14.960	-0.194	-0.066	
14.965	0.212	-0.073	
14.970	-0.119	-0.058	
14.975	-0.270	-0.053	
14.980	0.073	-0.068	
14.985	0.015	-0.068	
14.990	-0.285	-0.064	
14.995	-0.081	-0.079	
15.000	0.139	-0.086	
15.005	-0.241	-0.076	
15.010	-0.221	-0.083	
15.015	0.146	-0.096	
15.020	-0.143	-0.088	
15.025	-0.274	-0.087	
15.030	0.046	-0.100	
15.035	-0.021	-0.098	
15.040	-0.282	-0.091	
15.045	-0.063	-0.101	
15.050	0.158	-0.099	
15.055	-0.236	-0.079	
15.060	-0.203	-0.078	
15.065	0.174	-0.085	
15.070	-0.125	-0.072	
15.075	-0.277	-0.068	
15.080	0.067	-0.082	
15.085	-0.005	-0.081	
15.090	-0.300	-0.076	
15.095	-0.089	-0.092	
15.100	0.125	-0.099	
15.105	-0.239	-0.088	
15.110	-0.204	-0.092	
15.115	0.169	-0.099	
15.120	-0.128	-0.084	
15.125	-0.276	-0.078	
15.130	0.041	-0.090	
15.135	-0.009	-0.089	
15.140	-0.284	-0.084	
15.145	-0.069	-0.096	
15.150	0.155	-0.096	
15.155	-0.252	-0.079	
15.160	-0.217	-0.082	
15.165	0.165	-0.092	
15.170	-0.140	-0.082	
15.175	-0.290	-0.080	
15.180	0.085	-0.094	
15.185	0.017	-0.088	
15.190	-0.293	-0.077	
15.195	-0.081	-0.087	
15.200	0.148	-0.090	
15.205	-0.224	-0.076	
15.210	-0.175	-0.076	
15.215	0.218	-0.079	
15.220	-0.105	-0.059	
15.225	-0.236	-0.048	
15.230	0.165	-0.054	
15.235	0.023	-0.041	
15.240	-0.270	-0.030	
15.245	-0.011	-0.043	
15.250	0.242	-0.044	
15.255	-0.209	-0.024	
15.260	-0.203	-0.027	
15.265	0.194	-0.043	
15.270	-0.131	-0.041	
15.275	-0.299	-0.049	
15.280	0.001	-0.077	
15.285	-0.084	-0.095	
15.290	-0.367	-0.110	
15.295	-0.169	-0.143	
15.300	0.003	-0.165	
15.305	-0.345	-0.169	
15.310	-0.300	-0.185	
15.315	0.027	-0.202	
15.320	-0.232	-0.194	
15.325	-0.386	-0.193	
15.330	-0.110	-0.208	
15.335	-0.145	-0.211	
15.340	-0.381	-0.210	
15.345	-0.113	-0.218	
15.350	0.317	-0.195	
15.355	0.082	-0.120	
15.360	0.376	-0.021	
15.365	0.905	0.112	
15.370	0.341	0.273	
15.375	-0.178	0.367	
15.380	-0.096	0.340	
15.385	-0.339	0.232	
15.390	-0.656	0.070	
15.395	-0.465	-0.121	
15.400	-0.290	-0.278	
15.405	-0.509	-0.376	
15.410	-0.438	-0.435	
15.415	-0.139	-0.455	
15.420	-0.311	-0.427	
15.425	-0.436	-0.390	
15.430	-0.140	-0.361	
15.435	-0.168	-0.321	
15.440	-0.421	-0.283	
15.445	-0.230	-0.270	
15.450	-0.044	-0.256	
15.455	-0.339	-0.232	
15.460	-0.288	-0.224	
15.465	0.090	-0.217	
15.470	-0.177	-0.187	
15.475	-0.323	-0.164	
15.480	0.030	-0.160	
15.485	-0.015	-0.141	
15.490	-0.313	-0.120	
15.495	-0.090	-0.121	
15.500	0.190	-0.113	
15.505	-0.210	-0.085	
15.510	-0.165	-0.074	
15.515	0.303	-0.065	
15.520	-0.041	-0.031	
15.525	-0.207	-0.007	
15.530	0.232	-0.005	
15.535	0.178	0.017	
15.540	-0.206	0.043	
15.545	0.081	0.040	
15.550	0.408	0.048	
15.555	-0.073	0.081	
15.560	-0.006	0.095	
15.565	0.526	0.104	
15.570	0.168	0.145	
15.575	-0.076	0.175	
15.580	0.503	0.181	
15.585	0.492	0.216	
15.590	0.014	0.263	
15.595	0.375	0.279	
15.600	0.669	0.301	
15.605	0.177	0.344	
15.610	0.259	0.360	
15.615	0.764	0.369	
15.620	0.392	0.406	
15.625	0.119	0.426	
15.630	0.663	0.417	
15.635	0.569	0.428	
15.640	0.020	0.439	
15.645	0.343	0.407	
15.650	0.543	0.374	
15.655	-0.085	0.350	
15.660	-0.095	0.287	
15.665	0.351	0.206	
15.670	-0.060	0.154	
15.675	-0.255	0.099	
15.680	0.085	0.031	
15.685	-0.024	-0.013	
15.690	-0.357	-0.047	
15.695	-0.165	-0.097	
15.700	-0.002	-0.135	
15.705	-0.316	-0.151	
15.710	-0.276	-0.173	
15.715	0.078	-0.189	
15.720	-0.197	-0.176	
15.725	-0.337	-0.167	
15.730	0.003	-0.172	
15.735	-0.035	-0.160	
15.740	-0.323	-0.142	
15.745	-0.098	-0.143	
15.750	0.171	-0.133	
15.755	-0.236	-0.104	
15.760	-0.224	-0.094	
15.765	0.233	-0.093	
15.770	-0.067	-0.067	
15.775	-0.226	-0.048	
15.780	0.223	-0.043	
15.785	0.177	-0.015	
15.790	-0.221	0.018	
15.795	0.003	0.019	
15.800	0.277	0.019	
15.805	-0.153	0.034	
15.810	-0.119	0.028	
15.815	0.352	0.019	
15.820	-0.005	0.037	
15.825	-0.185	0.047	
15.830	0.296	0.039	
15.835	0.256	0.059	
15.840	-0.169	0.087	
15.845	0.116	0.086	
15.850	0.381	0.091	
15.855	-0.117	0.111	
15.860	-0.093	0.103	
15.865	0.398	0.084	
15.870	0.027	0.093	
15.875	-0.168	0.094	
15.880	0.331	0.078	
15.885	0.248	0.090	
15.890	-0.182	0.109	
15.895	0.082	0.097	
15.900	0.340	0.088	
15.905	-0.125	0.097	
15.910	-0.096	0.083	
15.915	0.373	0.063	
15.920	-0.006	0.072	
15.925	-0.204	0.070	
15.930	0.241	0.048	
15.935	0.203	0.051	
15.940	-0.209	0.063	
15.945	0.032	0.049	
15.950	0.317	0.041	
15.955	-0.185	0.051	
15.960	-0.169	0.037	
15.965	0.315	0.014	
15.970	-0.023	0.020	
15.975	-0.213	0.022	
15.980	0.206	0.007	
15.985	0.119	0.014	
15.990	-0.247	0.023	
15.995	-0.038	0.005	
16.000	0.241	-0.009	
16.005	-0.188	-0.003	
16.010	-0.159	-0.012	
16.015	0.276	-0.025	
16.020	-0.070	-0.012	
16.025	-0.238	-0.008	
16.030	0.169	-0.022	
16.035	0.107	-0.015	
16.040	-0.255	-0.003	
16.045	-0.058	-0.018	
16.050	0.184	-0.031	
16.055	-0.227	-0.027	
16.060	-0.198	-0.042	
16.065	0.229	-0.060	
16.070	-0.096	-0.050	
16.075	-0.252	-0.046	
16.080	0.111	-0.058	
16.085	0.068	-0.051	
16.090	-0.247	-0.039	
16.095	-0.002	-0.045	
16.100	0.291	-0.038	
16.105	-0.168	-0.008	
16.110	-0.159	-0.002	
16.115	0.322	-0.006	
16.120	-0.009	0.015	
16.125	-0.197	0.028	
16.130	0.245	0.022	
16.135	0.187	0.037	
16.140	-0.226	0.056	
16.145	-0.011	0.042	
16.150	0.261	0.028	
16.155	-0.201	0.030	
16.160	-0.209	0.010	
16.165	0.136	-0.025	
16.170	-0.146	-0.041	
16.175	-0.306	-0.063	
16.180	0.011	-0.096	
16.185	-0.038	-0.110	
16.190	-0.331	-0.115	
16.195	-0.133	-0.134	
16.200	0.085	-0.143	
16.205	-0.282	-0.132	
16.210	-0.252	-0.136	
16.215	0.116	-0.144	
16.220	-0.172	-0.130	
16.225	-0.322	-0.124	
16.230	0.085	-0.133	
16.235	0.157	-0.112	
16.240	-0.087	-0.067	
16.245	0.556	-0.007	
16.250	1.114	0.122	
16.255	0.564	0.318	
16.260	0.361	0.475	
16.265	0.469	0.546	
16.270	-0.172	0.532	
16.275	-0.477	0.411	
16.280	-0.264	0.211	
16.285	-0.267	0.015	
16.290	-0.470	-0.142	
16.295	-0.232	-0.260	
16.300	0.014	-0.312	
16.305	-0.300	-0.304	
16.310	-0.273	-0.283	
16.315	0.108	-0.255	
16.320	-0.157	-0.204	
16.325	-0.297	-0.164	
16.330	0.072	-0.146	
16.335	0.062	-0.114	
16.340	-0.276	-0.081	
16.345	-0.069	-0.076	
16.350	0.223	-0.068	
16.355	-0.197	-0.043	
16.360	-0.154	-0.038	
16.365	0.311	-0.037	
16.370	-0.018	-0.010	
16.375	-0.206	0.009	
16.380	0.239	0.008	
16.385	0.198	0.027	
16.390	-0.217	0.051	
16.395	0.078	0.046	
16.400	0.422	0.052	
16.405	-0.078	0.084	
16.410	-0.034	0.095	
16.415	0.489	0.099	
16.420	0.117	0.131	
16.425	-0.120	0.151	
16.430	0.433	0.147	
16.435	0.430	0.172	
16.440	-0.061	0.210	
16.445	0.290	0.217	
16.450	0.565	0.230	
16.455	0.053	0.263	
16.460	0.122	0.267	
16.465	0.678	0.264	
16.470	0.351	0.299	
16.475	0.079	0.328	
16.480	0.610	0.333	
16.485	0.562	0.360	
16.490	0.096	0.392	
16.495	0.495	0.392	
16.500	0.806	0.408	
16.505	0.280	0.450	
16.510	0.315	0.466	
16.515	0.837	0.468	
16.520	0.488	0.497	
16.525	0.158	0.510	
16.530	0.642	0.490	
16.535	0.535	0.480	
16.540	-0.037	0.464	
16.545	0.256	0.404	
16.550	0.485	0.344	
16.555	-0.099	0.303	
16.560	-0.125	0.234	
16.565	0.277	0.154	
16.570	-0.089	0.102	
16.575	-0.297	0.048	
16.580	0.008	-0.018	
16.585	0.001	-0.060	
16.590	-0.299	-0.083	
16.595	-0.107	-0.112	
16.600	0.149	-0.122	
16.605	-0.235	-0.106	
16.610	-0.212	-0.104	
16.615	0.203	-0.104	
16.620	-0.096	-0.081	
16.625	-0.265	-0.066	
16.630	0.097	-0.071	
16.635	0.070	-0.060	
16.640	-0.250	-0.045	
16.645	-0.029	-0.050	
16.650	0.265	-0.045	
16.655	-0.168	-0.019	
16.660	-0.157	-0.013	
16.665	0.312	-0.016	
16.670	-0.017	0.007	
16.675	-0.215	0.019	
16.680	0.215	0.011	
16.685	0.203	0.025	
16.690	-0.209	0.046	
16.695	0.012	0.038	
16.700	0.315	0.033	
16.705	-0.125	0.049	
16.710	-0.096	0.046	
16.715	0.392	0.040	
16.720	0.068	0.064	
16.725	-0.146	0.082	
16.730	0.340	0.081	
16.735	0.296	0.104	
16.740	-0.153	0.132	
16.745	0.111	0.126	
16.750	0.418	0.122	
16.755	-0.079	0.138	
16.760	-0.044	0.130	
16.765	0.512	0.118	
16.770	0.163	0.143	
16.775	-0.119	0.162	
16.780	0.363	0.155	
16.785	0.312	0.165	
16.790	-0.151	0.178	
16.795	0.122	0.158	
16.800	0.410	0.142	
16.805	-0.095	0.147	
16.810	-0.098	0.128	
16.815	0.361	0.098	
16.820	-0.018	0.094	
16.825	-0.252	0.077	
16.830	0.076	0.035	
16.835	0.004	0.003	
16.840	-0.329	-0.025	
16.845	-0.172	-0.072	
16.850	-0.008	-0.113	
16.855	-0.337	-0.137	
16.860	-0.374	-0.172	
16.865	-0.116	-0.213	
16.870	-0.305	-0.236	
16.875	-0.467	-0.258	
16.880	-0.224	-0.289	
16.885	-0.267	-0.306	
16.890	-0.532	-0.317	
16.895	-0.369	-0.342	
16.900	-0.226	-0.361	
16.905	-0.503	-0.364	
16.910	-0.517	-0.379	
16.915	-0.261	-0.400	
16.920	-0.432	-0.404	
16.925	-0.578	-0.410	
16.930	-0.317	-0.425	
16.935	-0.343	-0.426	
16.940	-0.598	-0.421	
16.945	-0.442	-0.433	
16.950	-0.302	-0.441	
16.955	-0.544	-0.437	
16.960	-0.517	-0.442	
16.965	-0.250	-0.448	
16.970	-0.422	-0.434	
16.975	-0.575	-0.424	
16.980	-0.299	-0.428	
16.985	-0.297	-0.418	
16.990	-0.550	-0.403	
16.995	-0.370	-0.403	
17.000	-0.182	-0.396	
17.005	-0.427	-0.373	
17.010	-0.403	-0.360	
17.015	-0.095	-0.348	
17.020	-0.259	-0.317	
17.025	-0.384	-0.289	
17.030	-0.035	-0.271	
17.035	-0.012	-0.234	
17.040	-0.288	-0.189	
17.045	-0.067	-0.162	
17.050	0.261	-0.126	
17.055	-0.160	-0.072	
17.060	-0.104	-0.039	
17.065	0.430	-0.013	
17.070	0.117	0.042	
17.075	-0.145	0.086	
17.080	0.334	0.099	
17.085	0.309	0.125	
17.090	-0.159	0.152	
17.095	0.128	0.142	
17.100	0.457	0.137	
17.105	-0.056	0.155	
17.110	-0.061	0.148	
17.115	0.416	0.128	
17.120	0.085	0.134	
17.125	-0.168	0.132	
17.130	0.267	0.107	
17.135	0.198	0.101	
17.140	-0.236	0.099	
17.145	-0.040	0.066	
17.150	0.259	0.034	
17.155	-0.188	0.026	
17.160	-0.182	0.003	
17.165	0.261	-0.022	
17.170	-0.063	-0.017	
17.175	-0.242	-0.017	
17.180	0.169	-0.031	
17.185	0.160	-0.020	
17.190	-0.230	0.000	
17.195	-0.018	-0.004	
17.200	0.300	-0.004	
17.205	-0.089	0.020	
17.210	0.155	0.040	
17.215	1.021	0.101	
17.220	0.919	0.255	
17.225	0.660	0.447	
17.230	1.037	0.610	
17.235	0.639	0.733	
17.240	-0.191	0.756	
17.245	-0.197	0.631	
17.250	-0.111	0.421	
17.255	-0.381	0.203	
17.260	-0.335	0.002	
17.265	0.091	-0.141	
17.270	-0.134	-0.199	
17.275	-0.276	-0.211	
17.280	0.133	-0.204	
17.285	0.114	-0.158	
17.290	-0.259	-0.102	
17.295	-0.056	-0.076	
17.300	0.236	-0.056	
17.305	-0.194	-0.026	
17.310	-0.198	-0.022	
17.315	0.250	-0.032	
17.320	-0.043	-0.019	
17.325	-0.233	-0.012	
17.330	0.168	-0.022	
17.335	0.171	-0.011	
17.340	-0.210	0.011	
17.345	0.024	0.009	
17.350	0.352	0.015	
17.355	-0.128	0.043	
17.360	-0.122	0.048	
17.365	0.376	0.041	
17.370	0.068	0.063	
17.375	-0.168	0.078	
17.380	0.305	0.073	
17.385	0.331	0.092	
17.390	-0.125	0.124	
17.395	0.161	0.127	
17.400	0.472	0.137	
17.405	-0.024	0.166	
17.410	0.035	0.171	
17.415	0.588	0.171	
17.420	0.268	0.208	
17.425	-0.046	0.237	
17.430	0.505	0.239	
17.435	0.509	0.264	
17.440	0.001	0.298	
17.445	0.340	0.299	
17.450	0.671	0.307	
17.455	0.174	0.339	
17.460	0.165	0.347	
17.465	0.727	0.344	
17.470	0.389	0.371	
17.475	0.046	0.388	
17.480	0.564	0.373	
17.485	0.527	0.375	
17.490	-0.023	0.380	
17.495	0.276	0.348	
17.500	0.543	0.317	
17.505	-0.032	0.305	
17.510	-0.079	0.261	
17.515	0.343	0.198	
17.520	-0.047	0.157	
17.525	-0.291	0.105	
17.530	-0.043	0.030	
17.535	-0.116	-0.036	
17.540	-0.435	-0.094	
17.545	-0.293	-0.164	
17.550	-0.143	-0.222	
17.555	-0.421	-0.256	
17.560	-0.428	-0.290	
17.565	-0.163	-0.320	
17.570	-0.323	-0.326	
17.575	-0.465	-0.327	
17.580	-0.185	-0.334	
17.585	-0.191	-0.323	
17.590	-0.454	-0.305	
17.595	-0.268	-0.303	
17.600	-0.064	-0.295	
17.605	-0.340	-0.270	
17.610	-0.331	-0.258	
17.615	0.011	-0.250	
17.620	-0.185	-0.223	
17.625	-0.343	-0.201	
17.630	-0.018	-0.194	
17.635	0.008	-0.172	
17.640	-0.310	-0.144	
17.645	-0.122	-0.137	
17.650	0.165	-0.127	
17.655	-0.210	-0.098	
17.660	-0.195	-0.087	
17.665	0.265	-0.081	
17.670	-0.044	-0.050	
17.675	-0.230	-0.027	
17.680	0.204	-0.025	
17.685	0.197	-0.002	
17.690	-0.221	0.027	
17.695	-0.006	0.024	
17.700	0.344	0.024	
17.705	-0.130	0.045	
17.710	-0.114	0.045	
17.715	0.381	0.038	
17.720	0.047	0.060	
17.725	-0.185	0.073	
17.730	0.244	0.062	
17.735	0.255	0.071	
17.740	-0.182	0.089	
17.745	0.052	0.078	
17.750	0.352	0.072	
17.755	-0.134	0.084	
17.760	-0.139	0.072	
17.765	0.335	0.049	
17.770	0.027	0.055	
17.775	-0.209	0.056	
17.780	0.181	0.036	
17.785	0.194	0.036	
17.790	-0.212	0.046	
17.795	0.001	0.031	
17.800	0.308	0.023	
17.805	-0.149	0.036	
17.810	-0.159	0.029	
17.815	0.291	0.012	
17.820	-0.023	0.020	
17.825	-0.250	0.020	
17.830	0.146	-0.001	
17.835	0.154	-0.002	
17.840	-0.252	0.007	
17.845	-0.078	-0.010	
17.850	0.212	-0.025	
17.855	-0.204	-0.021	
17.860	-0.200	-0.034	
17.865	0.251	-0.050	
17.870	-0.063	-0.038	
17.875	-0.262	-0.031	
17.880	0.126	-0.043	
17.885	0.128	-0.036	
17.890	-0.250	-0.019	
17.895	-0.069	-0.028	
17.900	0.216	-0.035	
17.905	-0.182	-0.024	
17.910	-0.168	-0.028	
17.915	0.309	-0.035	
17.920	-0.011	-0.011	
17.925	-0.217	0.006	
17.930	0.210	0.002	
17.935	0.203	0.019	
17.940	-0.203	0.043	
17.945	0.026	0.038	
17.950	0.348	0.038	
17.955	-0.130	0.058	
17.960	-0.122	0.056	
17.965	0.386	0.045	
17.970	0.093	0.066	
17.975	-0.162	0.082	
17.980	0.291	0.078	
17.985	0.300	0.095	
17.990	-0.140	0.121	
17.995	0.113	0.117	
18.000	0.444	0.118	
18.005	-0.040	0.141	
18.010	-0.052	0.141	
18.015	0.453	0.129	
18.020	0.111	0.144	
18.025	-0.131	0.150	
18.030	0.370	0.135	
18.035	0.363	0.148	
18.040	-0.131	0.171	
18.045	0.068	0.159	
18.050	0.395	0.142	
18.055	-0.085	0.143	
18.060	-0.087	0.124	
18.065	0.404	0.098	
18.070	0.061	0.103	
18.075	-0.188	0.102	
18.080	0.242	0.080	
18.085	0.245	0.079	
18.090	-0.166	0.090	
18.095	0.096	0.079	
18.100	0.433	0.081	
18.105	-0.072	0.107	
18.110	-0.087	0.110	
18.115	0.413	0.099	
18.120	0.090	0.113	
18.125	-0.156	0.120	
18.130	0.288	0.104	
18.135	0.297	0.110	
18.140	-0.172	0.125	
18.145	0.032	0.109	
18.150	0.340	0.092	
18.155	-0.149	0.092	
18.160	-0.195	0.068	
18.165	0.200	0.028	
18.170	-0.102	0.008	
18.175	-0.302	-0.018	
18.180	0.033	-0.058	
18.185	0.040	-0.076	
18.190	-0.305	-0.080	
18.195	-0.148	-0.100	
18.200	0.075	-0.116	
18.205	-0.285	-0.115	
18.210	-0.294	-0.130	
18.215	0.055	-0.151	
18.220	-0.168	-0.150	
18.225	-0.351	-0.151	
18.230	-0.064	-0.166	
18.235	0.024	-0.164	
18.240	-0.188	-0.142	
18.245	0.317	-0.107	
18.250	0.933	-0.006	
18.255	0.535	0.170	
18.260	0.390	0.336	
18.265	0.590	0.443	
18.270	-0.099	0.482	
18.275	-0.468	0.409	
18.280	-0.328	0.234	
18.285	-0.337	0.038	
18.290	-0.543	-0.137	
18.295	-0.319	-0.278	
18.300	-0.096	-0.355	
18.305	-0.355	-0.367	
18.310	-0.357	-0.359	
18.315	-0.027	-0.340	
18.320	-0.207	-0.296	
18.325	-0.386	-0.258	
18.330	-0.104	-0.242	
18.335	-0.101	-0.221	
18.340	-0.370	-0.201	
18.345	-0.197	-0.202	
18.350	0.026	-0.200	
18.355	-0.294	-0.182	
18.360	-0.291	-0.179	
18.365	0.072	-0.181	
18.370	-0.162	-0.164	
18.375	-0.331	-0.152	
18.380	-0.015	-0.156	
18.385	0.000	-0.147	
18.390	-0.313	-0.130	
18.395	-0.149	-0.133	
18.400	0.148	-0.132	
18.405	-0.213	-0.110	
18.410	-0.217	-0.102	
18.415	0.206	-0.099	
18.420	-0.069	-0.074	
18.425	-0.262	-0.057	
18.430	0.128	-0.059	
18.435	0.155	-0.043	
18.440	-0.244	-0.018	
18.445	-0.043	-0.019	
18.450	0.279	-0.019	
18.455	-0.140	0.002	
18.460	-0.133	0.006	
18.465	0.375	0.005	
18.470	0.104	0.037	
18.475	-0.154	0.066	
18.480	0.311	0.073	
18.485	0.355	0.101	
18.490	-0.120	0.137	
18.495	0.148	0.142	
18.500	0.503	0.150	
18.505	-0.006	0.179	
18.510	-0.029	0.181	
18.515	0.541	0.171	
18.520	0.244	0.194	
18.525	-0.084	0.213	
18.530	0.386	0.205	
18.535	0.335	0.210	
18.540	-0.183	0.214	
18.545	-0.046	0.173	
18.550	0.194	0.117	
18.555	-0.261	0.072	
18.560	-0.310	0.007	
18.565	-0.027	-0.068	
18.570	-0.253	-0.121	
18.575	-0.451	-0.170	
18.580	-0.212	-0.226	
18.585	-0.218	-0.262	
18.590	-0.491	-0.284	
18.595	-0.342	-0.314	
18.600	-0.148	-0.331	
18.605	-0.409	-0.327	
18.610	-0.438	-0.329	
18.615	-0.140	-0.335	
18.620	-0.273	-0.322	
18.625	-0.435	-0.308	
18.630	-0.149	-0.304	
18.635	-0.131	-0.285	
18.640	-0.396	-0.261	
18.645	-0.212	-0.253	
18.650	0.072	-0.237	
18.655	-0.256	-0.201	
18.660	-0.265	-0.178	
18.665	0.145	-0.164	
18.670	-0.084	-0.129	
18.675	-0.265	-0.102	
18.680	0.133	-0.092	
18.685	0.180	-0.062	
18.690	-0.224	-0.023	
18.695	-0.043	-0.014	
18.700	0.303	-0.007	
18.705	-0.127	0.017	
18.710	-0.133	0.023	
18.715	0.373	0.020	
18.720	0.075	0.047	
18.725	-0.186	0.067	
18.730	0.241	0.062	
18.735	0.261	0.074	
18.740	-0.192	0.092	
18.745	0.047	0.081	
18.750	0.402	0.074	
18.755	-0.076	0.093	
18.760	-0.099	0.092	
18.765	0.387	0.080	
18.770	0.102	0.095	
18.775	-0.168	0.104	
18.780	0.273	0.092	
18.785	0.270	0.098	
18.790	-0.182	0.113	
18.795	-0.006	0.094	
18.800	0.334	0.074	
18.805	-0.124	0.076	
18.810	-0.145	0.060	
18.815	0.358	0.038	
18.820	0.058	0.050	
18.825	-0.195	0.059	
18.830	0.233	0.048	
18.835	0.238	0.057	
18.840	-0.183	0.076	
18.845	0.040	0.066	
18.850	0.370	0.062	
18.855	-0.107	0.079	
18.860	-0.119	0.075	
18.865	0.396	0.062	
18.870	0.097	0.079	
18.875	-0.174	0.092	
18.880	0.236	0.081	
18.885	0.239	0.086	
18.890	-0.194	0.096	
18.895	-0.003	0.076	
18.900	0.341	0.059	
18.905	-0.124	0.065	
18.910	-0.159	0.053	
18.915	0.300	0.031	
18.920	0.009	0.035	
18.925	-0.230	0.035	
18.930	0.133	0.014	
18.935	0.151	0.009	
18.940	-0.247	0.014	
18.945	-0.082	-0.006	
18.950	0.213	-0.024	
18.955	-0.201	-0.022	
18.960	-0.232	-0.036	
18.965	0.161	-0.060	
18.970	-0.108	-0.061	
18.975	-0.311	-0.067	
18.980	-0.015	-0.092	
18.985	-0.006	-0.104	
18.990	-0.326	-0.107	
18.995	-0.191	-0.127	
19.000	0.053	-0.144	
19.005	-0.284	-0.143	
19.010	-0.320	-0.154	
19.015	0.032	-0.173	
19.020	-0.171	-0.170	
19.025	-0.366	-0.168	
19.030	-0.093	-0.182	
19.035	-0.060	-0.184	
19.040	-0.352	-0.177	
19.045	-0.209	-0.185	
19.050	0.049	-0.189	
19.055	-0.279	-0.174	
19.060	-0.296	-0.171	
19.065	0.082	-0.175	
19.070	-0.128	-0.156	
19.075	-0.311	-0.141	
19.080	0.052	-0.139	
19.085	0.113	-0.117	
19.090	-0.261	-0.084	
19.095	-0.089	-0.075	
19.100	0.287	-0.064	
19.105	-0.128	-0.030	
19.110	-0.146	-0.013	
19.115	0.351	-0.006	
19.120	0.076	0.028	
19.125	-0.166	0.055	
19.130	0.280	0.059	
19.135	0.279	0.081	
19.140	-0.180	0.108	
19.145	0.017	0.098	
19.150	0.343	0.084	
19.155	-0.146	0.087	
19.160	-0.191	0.066	
19.165	0.271	0.032	
19.170	-0.006	0.025	
19.175	-0.249	0.018	
19.180	0.131	-0.007	
19.185	0.171	-0.009	
19.190	-0.233	0.003	
19.195	-0.078	-0.009	
19.200	0.235	-0.021	
19.205	-0.201	-0.014	
19.210	-0.224	-0.026	
19.215	0.285	-0.044	
19.220	0.146	-0.022	
19.225	-0.002	0.020	
19.230	0.811	0.080	
19.235	1.084	0.220	
19.240	0.517	0.409	
19.245	0.556	0.550	
19.250	0.562	0.619	
19.255	-0.224	0.606	
19.260	-0.416	0.474	
19.265	-0.209	0.263	
19.270	-0.334	0.057	
19.275	-0.465	-0.117	
19.280	-0.154	-0.246	
19.285	-0.087	-0.304	
19.290	-0.370	-0.309	
19.295	-0.212	-0.302	
19.300	0.073	-0.276	
19.305	-0.256	-0.227	
19.310	-0.282	-0.195	
19.315	0.081	-0.177	
19.320	-0.145	-0.148	
19.325	-0.339	-0.131	
19.330	-0.053	-0.139	
19.335	-0.006	-0.139	
19.340	-0.326	-0.131	
19.345	-0.180	-0.141	
19.350	0.093	-0.148	
19.355	-0.252	-0.135	
19.360	-0.276	-0.136	
19.365	0.125	-0.142	
19.370	-0.102	-0.125	
19.375	-0.302	-0.111	
19.380	0.026	-0.115	
19.385	0.101	-0.103	
19.390	-0.250	-0.079	
19.395	-0.093	-0.075	
19.400	0.256	-0.068	
19.405	-0.140	-0.039	
19.410	-0.149	-0.025	
19.415	0.344	-0.019	
19.420	0.078	0.017	
19.425	-0.178	0.046	
19.430	0.276	0.052	
19.435	0.358	0.079	
19.440	-0.110	0.118	
19.445	0.158	0.129	
19.450	0.547	0.146	
19.455	0.067	0.188	
19.460	0.050	0.208	
19.465	0.645	0.217	
19.470	0.396	0.261	
19.475	0.047	0.303	
19.480	0.581	0.317	
19.485	0.631	0.351	
19.490	0.111	0.393	
19.495	0.415	0.399	
19.500	0.774	0.408	
19.505	0.256	0.439	
19.510	0.169	0.441	
19.515	0.695	0.420	
19.520	0.355	0.420	
19.525	-0.058	0.405	
19.530	0.376	0.351	
19.535	0.361	0.309	
19.540	-0.171	0.274	
19.545	-0.047	0.205	
19.550	0.250	0.132	
19.555	-0.206	0.084	
19.560	-0.273	0.024	
19.565	0.082	-0.040	
19.570	-0.146	-0.076	
19.575	-0.363	-0.107	
19.580	-0.076	-0.145	
19.585	-0.038	-0.163	
19.590	-0.346	-0.165	
19.595	-0.195	-0.178	
19.600	0.104	-0.181	
19.605	-0.241	-0.159	
19.610	-0.285	-0.150	
19.615	0.076	-0.152	
19.620	-0.125	-0.136	
19.625	-0.311	-0.126	
19.630	0.006	-0.132	
19.635	0.056	-0.122	
19.640	-0.293	-0.102	
19.645	-0.154	-0.105	
19.650	0.161	-0.108	
19.655	-0.201	-0.090	
19.660	-0.235	-0.087	
19.665	0.177	-0.092	
19.670	-0.067	-0.075	
19.675	-0.277	-0.064	
19.680	0.079	-0.072	
19.685	0.145	-0.061	
19.690	-0.249	-0.039	
19.695	-0.105	-0.042	
19.700	0.232	-0.046	
19.705	-0.169	-0.031	
19.710	-0.200	-0.032	
19.715	0.248	-0.041	
19.720	-0.015	-0.025	
19.725	-0.239	-0.014	
19.730	0.113	-0.023	
19.735	0.165	-0.017	
19.740	-0.218	0.000	
19.745	-0.049	-0.007	
19.750	0.311	-0.009	
19.755	-0.143	0.012	
19.760	-0.172	0.013	
19.765	0.341	0.004	
19.770	0.084	0.026	
19.775	-0.200	0.047	
19.780	0.200	0.043	
19.785	0.256	0.054	
19.790	-0.186	0.074	
19.795	-0.003	0.064	
19.800	0.367	0.056	
19.805	-0.107	0.070	
19.810	-0.148	0.065	
19.815	0.355	0.048	
19.820	0.062	0.059	
19.825	-0.203	0.067	
19.830	0.201	0.052	
19.835	0.273	0.057	
19.840	-0.178	0.075	
19.845	0.000	0.066	
19.850	0.367	0.058	
19.855	-0.108	0.073	
19.860	-0.153	0.066	
19.865	0.331	0.047	
19.870	0.052	0.055	
19.875	-0.220	0.058	
19.880	0.149	0.038	
19.885	0.203	0.034	
19.890	-0.217	0.042	
19.895	-0.058	0.024	
19.900	0.320	0.011	
19.905	-0.125	0.023	
19.910	-0.185	0.020	
19.915	0.279	0.004	
19.920	0.024	0.014	
19.925	-0.224	0.021	
19.930	0.152	0.008	
19.935	0.215	0.014	
19.940	-0.210	0.031	
19.945	-0.056	0.022	
19.950	0.297	0.012	
19.955	-0.131	0.024	
19.960	-0.175	0.019	
19.965	0.288	0.004	
19.970	0.059	0.017	
19.975	-0.195	0.030	
19.980	0.215	0.026	
19.985	0.259	0.041	
19.990	-0.212	0.066	
19.995	-0.066	0.055	
20.000	0.288	0.037	
20.005	-0.162	0.037	
20.010	-0.224	0.019	
20.015	0.140	-0.016	
20.020	-0.098	-0.032	
20.025	-0.311	-0.050	
20.030	-0.027	-0.085	
20.035	0.020	-0.102	
20.040	-0.294	-0.105	
20.045	-0.165	-0.121	
20.050	0.120	-0.129	
20.055	-0.233	-0.117	
20.060	-0.268	-0.118	
20.065	0.155	-0.125	
20.070	-0.082	-0.107	
20.075	-0.291	-0.092	
20.080	0.052	-0.096	
20.085	0.175	-0.081	
20.090	-0.159	-0.048	
20.095	0.247	-0.017	
20.100	0.936	0.059	
20.105	0.721	0.217	
20.110	0.686	0.396	
20.115	1.085	0.557	
20.120	0.479	0.688	
20.125	-0.226	0.709	
20.130	-0.168	0.582	
20.135	-0.224	0.376	
20.140	-0.467	0.155	
20.145	-0.284	-0.048	
20.150	0.026	-0.186	
20.155	-0.235	-0.241	
20.160	-0.238	-0.255	
20.165	0.203	-0.238	
20.170	-0.055	-0.181	
20.175	-0.259	-0.127	
20.180	0.122	-0.098	
20.185	0.207	-0.057	
20.190	-0.221	-0.011	
20.195	-0.070	-0.001	
20.200	0.315	0.002	
20.205	-0.116	0.024	
20.210	-0.180	0.026	
20.215	0.264	0.012	
20.220	0.041	0.021	
20.225	-0.221	0.027	
20.230	0.184	0.015	
20.235	0.270	0.026	
20.240	-0.180	0.051	
20.245	-0.027	0.049	
20.250	0.344	0.044	
20.255	-0.098	0.059	
20.260	-0.137	0.056	
20.265	0.355	0.044	
20.270	0.113	0.061	
20.275	-0.191	0.076	
20.280	0.187	0.066	
20.285	0.270	0.070	
20.290	-0.175	0.084	
20.295	0.009	0.072	
20.300	0.418	0.065	
20.305	-0.047	0.086	
20.310	-0.101	0.091	
20.315	0.453	0.086	
20.320	0.251	0.116	
20.325	-0.082	0.150	
20.330	0.402	0.162	
20.335	0.465	0.192	
20.340	-0.050	0.231	
20.345	0.224	0.234	
20.350	0.628	0.240	
20.355	0.148	0.274	
20.360	0.068	0.286	
20.365	0.625	0.281	
20.370	0.354	0.304	
20.375	-0.058	0.318	
20.380	0.372	0.294	
20.385	0.419	0.279	
20.390	-0.134	0.270	
20.395	-0.018	0.222	
20.400	0.299	0.163	
20.405	-0.180	0.122	
20.410	-0.271	0.065	
20.415	0.075	-0.006	
20.420	-0.162	-0.052	
20.425	-0.390	-0.095	
20.430	-0.166	-0.150	
20.435	-0.148	-0.189	
20.440	-0.441	-0.215	
20.445	-0.319	-0.251	
20.450	-0.102	-0.276	
20.455	-0.370	-0.279	
20.460	-0.419	-0.287	
20.465	-0.111	-0.299	
20.470	-0.236	-0.290	
20.475	-0.445	-0.280	
20.480	-0.183	-0.284	
20.485	-0.120	-0.276	
20.490	-0.406	-0.260	
20.495	-0.281	-0.260	
20.500	-0.021	-0.257	
20.505	-0.279	-0.236	
20.510	-0.314	-0.224	
20.515	0.049	-0.216	
20.520	-0.134	-0.188	
20.525	-0.349	-0.166	
20.530	-0.066	-0.166	
20.535	0.033	-0.156	
20.540	-0.285	-0.135	
20.545	-0.145	-0.132	
20.550	0.190	-0.123	
20.555	-0.200	-0.095	
20.560	-0.264	-0.085	
20.565	0.160	-0.091	
20.570	-0.038	-0.076	
20.575	-0.264	-0.063	
20.580	0.068	-0.068	
20.585	0.122	-0.058	
20.590	-0.271	-0.041	
20.595	-0.149	-0.051	
20.600	0.204	-0.063	
20.605	-0.157	-0.053	
20.610	-0.206	-0.053	
20.615	0.221	-0.059	
20.620	-0.014	-0.041	
20.625	-0.265	-0.028	
20.630	0.055	-0.039	
20.635	0.149	-0.037	
20.640	-0.255	-0.025	
20.645	-0.124	-0.037	
20.650	0.226	-0.049	
20.655	-0.177	-0.038	
20.660	-0.230	-0.043	
20.665	0.189	-0.058	
20.670	-0.023	-0.049	
20.675	-0.261	-0.041	
20.680	0.062	-0.052	
20.685	0.145	-0.047	
20.690	-0.261	-0.032	
20.695	-0.143	-0.042	
20.700	0.219	-0.055	
20.705	-0.178	-0.046	
20.710	-0.224	-0.049	
20.715	0.239	-0.060	
20.720	0.003	-0.042	
20.725	-0.249	-0.026	
20.730	0.079	-0.032	
20.735	0.174	-0.026	
20.740	-0.238	-0.009	
20.745	-0.104	-0.018	
20.750	0.267	-0.027	
20.755	-0.134	-0.013	
20.760	-0.200	-0.013	
20.765	0.238	-0.024	
20.770	0.008	-0.012	
20.775	-0.252	-0.004	
20.780	0.085	-0.018	
20.785	0.174	-0.018	
20.790	-0.238	-0.005	
20.795	-0.111	-0.017	
20.800	0.255	-0.029	
20.805	-0.159	-0.019	
20.810	-0.215	-0.023	
20.815	0.229	-0.038	
20.820	-0.023	-0.028	
20.825	-0.284	-0.022	
20.830	0.027	-0.042	
20.835	0.145	-0.047	
20.840	-0.236	-0.038	
20.845	-0.113	-0.046	
20.850	0.235	-0.052	
20.855	-0.153	-0.036	
20.860	-0.177	-0.033	
20.865	0.311	-0.035	
20.870	0.084	-0.004	
20.875	-0.213	0.023	
20.880	0.146	0.024	
20.885	0.233	0.034	
20.890	-0.207	0.051	
20.895	-0.047	0.040	
20.900	0.349	0.029	
20.905	-0.108	0.043	
20.910	-0.172	0.041	
20.915	0.311	0.025	
20.920	0.044	0.036	
20.925	-0.265	0.040	
20.930	0.061	0.016	
20.935	0.157	0.001	
20.940	-0.250	-0.000	
20.945	-0.136	-0.023	
20.950	0.192	-0.045	
20.955	-0.183	-0.045	
20.960	-0.229	-0.055	
20.965	0.190	-0.070	
20.970	-0.018	-0.059	
20.975	-0.264	-0.048	
20.980	0.052	-0.056	
20.985	0.133	-0.051	
20.990	-0.247	-0.036	
20.995	-0.070	-0.042	
21.000	0.517	-0.031	
21.005	0.348	0.040	
21.010	0.508	0.147	
21.015	1.204	0.291	
21.020	0.916	0.485	
21.025	0.224	0.641	
21.030	0.315	0.677	
21.035	0.026	0.611	
21.040	-0.459	0.461	
21.045	-0.369	0.244	
21.050	-0.107	0.032	
21.055	-0.302	-0.119	
21.060	-0.323	-0.219	
21.065	0.072	-0.268	
21.070	-0.098	-0.256	
21.075	-0.322	-0.223	
21.080	-0.041	-0.202	
21.085	0.072	-0.169	
21.090	-0.293	-0.131	
21.095	-0.178	-0.120	
21.100	0.119	-0.117	
21.105	-0.229	-0.102	
21.110	-0.288	-0.104	
21.115	0.075	-0.120	
21.120	-0.101	-0.117	
21.125	-0.320	-0.114	
21.130	-0.043	-0.128	
21.135	0.038	-0.128	
21.140	-0.314	-0.118	
21.145	-0.206	-0.127	
21.150	0.133	-0.136	
21.155	-0.195	-0.121	
21.160	-0.255	-0.116	
21.165	0.146	-0.117	
21.170	-0.058	-0.097	
21.175	-0.284	-0.081	
21.180	0.046	-0.085	
21.185	0.177	-0.072	
21.190	-0.235	-0.045	
21.195	-0.108	-0.042	
21.200	0.285	-0.040	
21.205	-0.119	-0.016	
21.210	-0.192	-0.008	
21.215	0.293	-0.012	
21.220	0.102	0.011	
21.225	-0.186	0.034	
21.230	0.215	0.037	
21.235	0.351	0.059	
21.240	-0.124	0.095	
21.245	0.062	0.103	
21.250	0.489	0.111	
21.255	0.053	0.145	
21.260	-0.024	0.161	
21.265	0.534	0.164	
21.270	0.340	0.199	
21.275	-0.040	0.234	
21.280	0.456	0.241	
21.285	0.556	0.266	
21.290	-0.041	0.299	
21.295	0.105	0.287	
21.300	0.469	0.258	
21.305	-0.040	0.242	
21.310	-0.159	0.200	
21.315	0.245	0.138	
21.320	-0.029	0.096	
21.325	-0.300	0.052	
21.330	-0.047	-0.010	
21.335	-0.009	-0.058	
21.340	-0.346	-0.089	
21.345	-0.249	-0.132	
21.350	-0.009	-0.168	
21.355	-0.296	-0.181	
21.360	-0.346	-0.197	
21.365	0.014	-0.214	
21.370	-0.134	-0.204	
21.375	-0.346	-0.189	
21.380	-0.078	-0.188	
21.385	0.004	-0.176	
21.390	-0.311	-0.155	
21.395	-0.182	-0.153	
21.400	0.169	-0.147	
21.405	-0.198	-0.119	
21.410	-0.242	-0.105	
21.415	0.230	-0.099	
21.420	0.015	-0.068	
21.425	-0.252	-0.039	
21.430	0.102	-0.036	
21.435	0.239	-0.019	
21.440	-0.197	0.011	
21.445	-0.064	0.013	
21.450	0.340	0.013	
21.455	-0.090	0.034	
21.460	-0.192	0.037	
21.465	0.253	0.021	
21.470	0.079	0.028	
21.475	-0.206	0.035	
21.480	0.184	0.026	
21.485	0.290	0.037	
21.490	-0.186	0.062	
21.495	-0.060	0.057	
21.500	0.355	0.046	
21.505	-0.082	0.058	
21.510	-0.166	0.055	
21.515	0.315	0.038	
21.520	0.108	0.050	
21.525	-0.218	0.060	
21.530	0.145	0.046	
21.535	0.270	0.046	
21.540	-0.206	0.060	
21.545	-0.090	0.045	
21.550	0.325	0.026	
21.555	-0.108	0.033	
21.560	-0.188	0.027	
21.565	0.264	0.009	
21.570	0.032	0.015	
21.575	-0.230	0.020	
21.580	0.113	0.004	
21.585	0.224	0.006	
21.590	-0.213	0.021	
21.595	-0.084	0.012	
21.600	0.291	0.001	
21.605	-0.131	0.012	
21.610	-0.194	0.008	
21.615	0.255	-0.008	
21.620	0.064	0.003	
21.625	-0.227	0.015	
21.630	0.128	0.006	
21.635	0.241	0.013	
21.640	-0.203	0.033	
21.645	-0.096	0.024	
21.650	0.290	0.011	
21.655	-0.116	0.019	
21.660	-0.178	0.014	
21.665	0.282	0.000	
21.670	0.052	0.014	
21.675	-0.236	0.024	
21.680	0.087	0.010	
21.685	0.190	0.007	
21.690	-0.238	0.015	
21.695	-0.125	-0.003	
21.700	0.248	-0.022	
21.705	-0.143	-0.017	
21.710	-0.218	-0.023	
21.715	0.203	-0.039	
21.720	0.015	-0.031	
21.725	-0.247	-0.021	
21.730	0.068	-0.032	
21.735	0.181	-0.028	
21.740	-0.218	-0.011	
21.745	-0.113	-0.017	
21.750	0.279	-0.025	
21.755	-0.116	-0.009	
21.760	-0.186	-0.006	
21.765	0.279	-0.013	
21.770	0.041	0.005	
21.775	-0.241	0.019	
21.780	0.110	0.006	
21.785	0.216	0.008	
21.790	-0.203	0.023	
21.795	-0.075	0.014	
21.800	0.328	0.006	
21.805	-0.090	0.023	
21.810	-0.171	0.027	
21.815	0.297	0.017	
21.820	0.108	0.034	
21.825	-0.210	0.050	
21.830	0.139	0.040	
21.835	0.251	0.043	
21.840	-0.183	0.058	
21.845	-0.055	0.046	
21.850	0.344	0.035	
21.855	-0.072	0.048	
21.860	-0.157	0.048	
21.865	0.305	0.036	
21.870	0.099	0.048	
21.875	-0.212	0.059	
21.880	0.142	0.045	
21.885	0.274	0.046	
21.890	-0.185	0.061	
21.895	-0.052	0.050	
21.900	0.370	0.040	
21.905	-0.079	0.055	
21.910	-0.149	0.056	
21.915	0.369	0.045	
21.920	0.163	0.066	
21.925	-0.175	0.088	
21.930	0.192	0.083	
21.935	0.287	0.088	
21.940	-0.156	0.102	
21.945	-0.014	0.089	
21.950	0.408	0.076	
21.955	-0.046	0.091	
21.960	-0.140	0.089	
21.965	0.349	0.073	
21.970	0.130	0.083	
21.975	-0.206	0.092	
21.980	0.096	0.070	
21.985	0.194	0.055	
21.990	-0.242	0.048	
21.995	-0.154	0.016	
22.000	0.181	-0.020	
22.005	-0.183	-0.033	
22.010	-0.252	-0.053	
22.015	0.161	-0.078	
22.020	-0.037	-0.074	
22.025	-0.288	-0.067	
22.030	-0.006	-0.080	
22.035	0.134	-0.080	
22.040	-0.262	-0.065	
22.045	-0.172	-0.071	
22.050	0.218	-0.079	
22.055	-0.113	-0.062	
22.060	-0.043	-0.044	
22.065	0.835	0.002	
22.070	0.904	0.141	
22.075	0.549	0.331	
22.080	0.857	0.495	
22.085	0.616	0.617	
22.090	-0.224	0.649	
22.095	-0.320	0.538	
22.100	-0.209	0.335	
22.105	-0.399	0.120	
22.110	-0.404	-0.072	
22.115	-0.037	-0.211	
22.120	-0.127	-0.268	
22.125	-0.342	-0.276	
22.130	-0.082	-0.270	
22.135	0.033	-0.239	
22.140	-0.314	-0.195	
22.145	-0.195	-0.174	
22.150	0.151	-0.157	
22.155	-0.191	-0.123	
22.160	-0.273	-0.107	
22.165	0.104	-0.109	
22.170	-0.046	-0.095	
22.175	-0.279	-0.083	
22.180	0.008	-0.089	
22.185	0.126	-0.082	
22.190	-0.271	-0.064	
22.195	-0.151	-0.069	
22.200	0.255	-0.074	
22.205	-0.134	-0.052	
22.210	-0.210	-0.042	
22.215	0.245	-0.044	
22.220	0.056	-0.021	
22.225	-0.242	-0.001	
22.230	0.082	-0.006	
22.235	0.229	-0.001	
22.240	-0.203	0.017	
22.245	-0.102	0.010	
22.250	0.334	0.001	
22.255	-0.073	0.020	
22.260	-0.163	0.026	
22.265	0.322	0.021	
22.270	0.148	0.043	
22.275	-0.182	0.066	
22.280	0.230	0.066	
22.285	0.389	0.085	
22.290	-0.113	0.119	
22.295	0.046	0.124	
22.300	0.544	0.128	
22.305	0.154	0.165	
22.310	0.017	0.193	
22.315	0.572	0.206	
22.320	0.380	0.246	
22.325	-0.046	0.279	
22.330	0.407	0.276	
22.335	0.538	0.284	
22.340	-0.027	0.302	
22.345	0.133	0.284	
22.350	0.550	0.259	
22.355	0.033	0.257	
22.360	-0.130	0.232	
22.365	0.305	0.180	
22.370	0.037	0.145	
22.375	-0.297	0.105	
22.380	-0.108	0.035	
22.385	-0.056	-0.032	
22.390	-0.375	-0.087	
22.395	-0.322	-0.150	
22.400	-0.096	-0.204	
22.405	-0.355	-0.234	
22.410	-0.439	-0.262	
22.415	-0.160	-0.292	
22.420	-0.261	-0.300	
22.425	-0.476	-0.302	
22.430	-0.242	-0.314	
22.435	-0.165	-0.314	
22.440	-0.439	-0.303	
22.445	-0.340	-0.305	
22.450	-0.090	-0.306	
22.455	-0.313	-0.288	
22.460	-0.378	-0.277	
22.465	-0.066	-0.272	
22.470	-0.175	-0.252	
22.475	-0.378	-0.232	
22.480	-0.131	-0.228	
22.485	-0.017	-0.215	
22.490	-0.340	-0.192	
22.495	-0.242	-0.188	
22.500	0.084	-0.186	
22.505	-0.220	-0.164	
22.510	-0.294	-0.153	
22.515	0.107	-0.152	
22.520	-0.046	-0.129	
22.525	-0.293	-0.107	
22.530	-0.021	-0.106	
22.535	0.101	-0.097	
22.540	-0.270	-0.079	
22.545	-0.171	-0.084	
22.550	0.184	-0.090	
22.555	-0.160	-0.075	
22.560	-0.235	-0.071	
22.565	0.201	-0.075	
22.570	0.024	-0.055	
22.575	-0.262	-0.035	
22.580	0.029	-0.041	
22.585	0.172	-0.038	
22.590	-0.253	-0.023	
22.595	-0.149	-0.035	
22.600	0.259	-0.047	
22.605	-0.133	-0.034	
22.610	-0.229	-0.032	
22.615	0.203	-0.043	
22.620	0.035	-0.031	
22.625	-0.253	-0.018	
22.630	0.055	-0.028	
22.635	0.207	-0.024	
22.640	-0.218	-0.007	
22.645	-0.120	-0.013	
22.650	0.280	-0.022	
22.655	-0.130	-0.008	
22.660	-0.215	-0.008	
22.665	0.238	-0.022	
22.670	0.041	-0.011	
22.675	-0.250	0.000	
22.680	0.075	-0.012	
22.685	0.230	-0.010	
22.690	-0.230	0.007	
22.695	-0.119	-0.002	
22.700	0.303	-0.014	
22.705	-0.105	0.001	
22.710	-0.209	0.002	
22.715	0.230	-0.011	
22.720	0.035	-0.002	
22.725	-0.256	0.005	
22.730	0.067	-0.012	
22.735	0.242	-0.012	
22.740	-0.195	0.006	
22.745	-0.089	0.003	
22.750	0.325	-0.001	
22.755	-0.101	0.018	
22.760	-0.200	0.021	
22.765	0.262	0.007	
22.770	0.101	0.019	
22.775	-0.232	0.032	
22.780	0.064	0.018	
22.785	0.226	0.014	
22.790	-0.200	0.024	
22.795	-0.090	0.012	
22.800	0.332	0.002	
22.805	-0.095	0.019	
22.810	-0.207	0.020	
22.815	0.242	0.005	
22.820	0.084	0.013	
22.825	-0.217	0.024	
22.830	0.122	0.014	
22.835	0.270	0.020	
22.840	-0.197	0.041	
22.845	-0.098	0.034	
22.850	0.291	0.019	
22.855	-0.116	0.025	
22.860	-0.192	0.018	
22.865	0.264	-0.000	
22.870	0.104	0.011	
22.875	-0.224	0.026	
22.880	0.096	0.017	
22.885	0.265	0.020	
22.890	-0.191	0.038	
22.895	-0.096	0.030	
22.900	0.291	0.016	
22.905	-0.105	0.024	
22.910	-0.203	0.018	
22.915	0.248	-0.001	
22.920	0.073	0.007	
22.925	-0.235	0.017	
22.930	0.076	0.004	
22.935	0.224	0.003	
22.940	-0.207	0.017	
22.945	-0.131	0.006	
22.950	0.223	-0.012	
22.955	-0.131	-0.010	
22.960	-0.220	-0.020	
22.965	0.189	-0.038	
22.970	0.004	-0.033	
22.975	-0.253	-0.026	
22.980	0.053	-0.039	
22.985	0.203	-0.036	
22.990	-0.224	-0.017	
22.995	-0.143	-0.022	
23.000	0.227	-0.034	
23.005	-0.133	-0.025	
23.010	-0.226	-0.028	
23.015	0.184	-0.043	
23.020	0.004	-0.036	
23.025	-0.276	-0.029	
23.030	0.003	-0.046	
23.035	0.172	-0.050	
23.040	-0.230	-0.037	
23.045	-0.142	-0.044	
23.050	0.245	-0.052	
23.055	-0.122	-0.035	
23.060	-0.218	-0.031	
23.065	0.229	-0.038	
23.070	0.065	-0.021	
23.075	-0.209	-0.001	
23.080	0.157	-0.001	
23.085	0.326	0.020	
23.090	-0.156	0.056	
23.095	-0.044	0.063	
23.100	0.378	0.060	
23.105	-0.046	0.079	
23.110	-0.165	0.079	
23.115	0.309	0.061	
23.120	0.105	0.067	
23.125	-0.252	0.070	
23.130	0.033	0.042	
23.135	0.200	0.021	
23.140	-0.218	0.017	
23.145	-0.128	-0.005	
23.150	0.288	-0.024	
23.155	-0.107	-0.013	
23.160	-0.213	-0.011	
23.165	0.216	-0.023	
23.170	0.043	-0.013	
23.175	-0.241	-0.002	
23.180	0.064	-0.014	
23.185	0.194	-0.014	
23.190	-0.226	-0.000	
23.195	-0.076	-0.009	
23.200	0.642	0.000	
23.205	0.506	0.084	
23.210	0.588	0.213	
23.215	1.242	0.372	
23.220	0.931	0.566	
23.225	0.101	0.705	
23.230	0.110	0.701	
23.235	-0.078	0.580	
23.240	-0.460	0.391	
23.245	-0.372	0.162	
23.250	-0.076	-0.039	
23.255	-0.276	-0.168	
23.260	-0.337	-0.245	
23.265	0.033	-0.280	
23.270	-0.076	-0.261	
23.275	-0.313	-0.224	
23.280	-0.073	-0.200	
23.285	0.033	-0.171	
23.290	-0.300	-0.139	
23.295	-0.213	-0.134	
23.300	0.161	-0.133	
23.305	-0.171	-0.111	
23.310	-0.261	-0.100	
23.315	0.145	-0.101	
23.320	-0.024	-0.083	
23.325	-0.299	-0.068	
23.330	-0.035	-0.079	
23.335	0.139	-0.080	
23.340	-0.242	-0.066	
23.345	-0.143	-0.069	
23.350	0.261	-0.071	
23.355	-0.131	-0.047	
23.360	-0.221	-0.037	
23.365	0.235	-0.041	
23.370	0.085	-0.020	
23.375	-0.226	0.003	
23.380	0.087	0.000	
23.385	0.280	0.009	
23.390	-0.177	0.034	
23.395	-0.075	0.033	
23.400	0.386	0.029	
23.405	-0.003	0.054	
23.410	-0.124	0.068	
23.415	0.367	0.068	
23.420	0.244	0.094	
23.425	-0.119	0.124	
23.430	0.325	0.131	
23.435	0.515	0.159	
23.440	-0.012	0.205	
23.445	0.171	0.220	
23.450	0.649	0.232	
23.455	0.229	0.274	
23.460	0.024	0.296	
23.465	0.588	0.292	
23.470	0.482	0.314	
23.475	0.040	0.340	
23.480	0.466	0.338	
23.485	0.564	0.345	
23.490	-0.020	0.358	
23.495	0.101	0.327	
23.500	0.509	0.283	
23.505	0.000	0.261	
23.510	-0.180	0.217	
23.515	0.197	0.148	
23.520	-0.060	0.094	
23.525	-0.351	0.037	
23.530	-0.153	-0.040	
23.535	-0.093	-0.105	
23.540	-0.407	-0.152	
23.545	-0.339	-0.204	
23.550	-0.110	-0.248	
23.555	-0.349	-0.265	
23.560	-0.445	-0.283	
23.565	-0.148	-0.303	
23.570	-0.244	-0.303	
23.575	-0.483	-0.298	
23.580	-0.249	-0.308	
23.585	-0.130	-0.308	
23.590	-0.403	-0.293	
23.595	-0.325	-0.289	
23.600	-0.052	-0.285	
23.605	-0.279	-0.263	
23.610	-0.367	-0.249	
23.615	-0.058	-0.245	
23.620	-0.160	-0.228	
23.625	-0.387	-0.213	
23.630	-0.134	-0.215	
23.635	0.020	-0.206	
23.640	-0.320	-0.183	
23.645	-0.226	-0.177	
23.650	0.125	-0.171	
23.655	-0.188	-0.144	
23.660	-0.277	-0.129	
23.665	0.078	-0.128	
23.670	-0.041	-0.112	
23.675	-0.293	-0.097	
23.680	-0.029	-0.102	
23.685	0.126	-0.096	
23.690	-0.252	-0.076	
23.695	-0.171	-0.078	
23.700	0.215	-0.082	
23.705	-0.137	-0.063	
23.710	-0.236	-0.056	
23.715	0.194	-0.061	
23.720	0.032	-0.044	
23.725	-0.274	-0.028	
23.730	0.017	-0.038	
23.735	0.215	-0.038	
23.740	-0.229	-0.020	
23.745	-0.149	-0.026	
23.750	0.274	-0.036	
23.755	-0.107	-0.020	
23.760	-0.213	-0.016	
23.765	0.223	-0.025	
23.770	0.044	-0.013	
23.775	-0.273	-0.002	
23.780	0.014	-0.019	
23.785	0.195	-0.026	
23.790	-0.226	-0.017	
23.795	-0.130	-0.027	
23.800	0.282	-0.036	
23.805	-0.117	-0.019	
23.810	-0.230	-0.016	
23.815	0.221	-0.028	
23.820	0.043	-0.017	
23.825	-0.256	-0.006	
23.830	0.047	-0.019	
23.835	0.235	-0.019	
23.840	-0.209	-0.001	
23.845	-0.128	-0.006	
23.850	0.302	-0.015	
23.855	-0.085	0.001	
23.860	-0.207	0.005	
23.865	0.235	-0.006	
23.870	0.068	0.005	
23.875	-0.252	0.015	
23.880	0.055	-0.000	
23.885	0.253	-0.003	
23.890	-0.192	0.014	
23.895	-0.111	0.008	
23.900	0.297	-0.002	
23.905	-0.098	0.012	
23.910	-0.223	0.010	
23.915	0.224	-0.007	
23.920	0.088	0.001	
23.925	-0.236	0.012	
23.930	0.076	0.001	
23.935	0.247	0.003	
23.940	-0.195	0.020	
23.945	-0.105	0.014	
23.950	0.320	0.004	
23.955	-0.093	0.019	
23.960	-0.188	0.020	
23.965	0.267	0.008	
23.970	0.119	0.022	
23.975	-0.238	0.037	
23.980	0.064	0.024	
23.985	0.256	0.020	
23.990	-0.186	0.032	
23.995	-0.105	0.022	
24.000	0.319	0.009	
24.005	-0.078	0.022	
24.010	-0.195	0.023	
24.015	0.255	0.009	
24.020	0.111	0.021	
24.025	-0.230	0.034	
24.030	0.052	0.020	
24.035	0.245	0.015	
24.040	-0.215	0.025	
24.045	-0.127	0.011	
24.050	0.297	-0.006	
24.055	-0.089	0.004	
24.060	-0.203	0.005	
24.065	0.229	-0.008	
24.070	0.078	0.002	
24.075	-0.246	0.013	
24.080	0.030	-0.001	
24.085	0.203	-0.007	
24.090	-0.217	0.001	
24.095	-0.124	-0.011	
24.100	0.300	-0.023	
24.105	-0.105	-0.007	
24.110	-0.218	-0.004	
24.115	0.241	-0.016	
24.120	0.094	-0.002	
24.125	-0.227	0.014	
24.130	0.096	0.008	
24.135	0.300	0.015	
24.140	-0.169	0.040	
24.145	-0.089	0.039	
24.150	0.357	0.032	
24.155	-0.052	0.049	
24.160	-0.178	0.052	
24.165	0.329	0.040	
24.170	0.195	0.058	
24.175	-0.191	0.080	
24.180	0.123	0.074	
24.185	0.328	0.075	
24.190	-0.149	0.090	
24.195	-0.087	0.079	
24.200	0.290	0.057	
24.205	-0.095	0.054	
24.210	-0.217	0.037	
24.215	0.207	0.007	
24.220	0.064	0.003	
24.225	-0.265	0.004	
24.230	-0.008	-0.018	
24.235	0.200	-0.030	
24.240	-0.206	-0.021	
24.245	-0.133	-0.029	
24.250	0.264	-0.037	
24.255	-0.117	-0.021	
24.260	-0.238	-0.019	
24.265	0.200	-0.033	
24.270	0.111	-0.021	
24.275	-0.178	-0.000	
24.280	0.376	0.016	
24.285	0.863	0.088	
24.290	0.611	0.232	
24.295	0.843	0.395	
24.300	1.154	0.562	
24.305	0.381	0.703	
24.310	-0.154	0.724	
24.315	-0.034	0.602	
24.320	-0.239	0.410	
24.325	-0.453	0.196	
24.330	-0.178	-0.007	
24.335	0.037	-0.141	
24.340	-0.273	-0.199	
24.345	-0.166	-0.221	
24.350	0.276	-0.207	
24.355	-0.087	-0.148	
24.360	-0.197	-0.096	
24.365	0.223	-0.065	
24.370	0.087	-0.022	
24.375	-0.232	0.011	
24.380	0.072	0.011	
24.385	0.267	0.017	
24.390	-0.178	0.037	
24.395	-0.089	0.031	
24.400	0.369	0.023	
24.405	-0.038	0.043	
24.410	-0.160	0.051	
24.415	0.360	0.046	
24.420	0.223	0.071	
24.425	-0.171	0.099	
24.430	0.181	0.098	
24.435	0.418	0.107	
24.440	-0.076	0.135	
24.445	0.047	0.139	
24.450	0.520	0.139	
24.455	0.116	0.170	
24.460	-0.060	0.185	
24.465	0.465	0.180	
24.470	0.343	0.200	
24.475	-0.066	0.223	
24.480	0.361	0.220	
24.485	0.565	0.234	
24.490	0.049	0.269	
24.495	0.186	0.276	
24.500	0.698	0.280	
24.505	0.308	0.317	
24.510	0.119	0.343	
24.515	0.674	0.349	
24.520	0.564	0.381	
24.525	0.114	0.415	
24.530	0.570	0.418	
24.535	0.815	0.438	
24.540	0.293	0.482	
24.545	0.431	0.499	
24.550	0.908	0.511	
24.555	0.479	0.548	
24.560	0.261	0.563	
24.565	0.820	0.551	
24.570	0.630	0.560	
24.575	0.104	0.562	
24.580	0.491	0.520	
24.585	0.625	0.483	
24.590	0.011	0.456	
24.595	0.050	0.391	
24.600	0.437	0.312	
24.605	-0.023	0.257	
24.610	-0.185	0.192	
24.615	0.204	0.116	
24.620	0.023	0.069	
24.625	-0.277	0.032	
24.630	-0.038	-0.019	
24.635	0.149	-0.050	
24.640	-0.235	-0.055	
24.645	-0.154	-0.069	
24.650	0.261	-0.076	
24.655	-0.064	-0.052	
24.660	-0.156	-0.031	
24.665	0.348	-0.017	
24.670	0.245	0.030	
24.675	-0.122	0.080	
24.680	0.285	0.103	
24.685	0.532	0.141	
24.690	0.035	0.197	
24.695	0.189	0.225	
24.700	0.707	0.249	
24.705	0.331	0.304	
24.710	0.123	0.344	
24.715	0.691	0.358	
24.720	0.582	0.396	
24.725	0.125	0.432	
24.730	0.594	0.436	
24.735	0.800	0.455	
24.740	0.271	0.495	
24.745	0.463	0.506	
24.750	1.009	0.520	
24.755	0.648	0.575	
24.760	0.451	0.623	
24.765	1.012	0.650	
24.770	0.866	0.698	
24.775	0.343	0.735	
24.780	0.695	0.721	
24.785	0.822	0.699	
24.790	0.218	0.677	
24.795	0.256	0.611	
24.800	0.642	0.529	
24.805	0.155	0.470	
24.810	-0.084	0.394	
24.815	0.361	0.300	
24.820	0.137	0.234	
24.825	-0.259	0.176	
24.830	-0.090	0.093	
24.835	0.003	0.015	
24.840	-0.331	-0.045	
24.845	-0.299	-0.111	
24.850	-0.082	-0.169	
24.855	-0.349	-0.204	
24.860	-0.503	-0.243	
24.865	-0.261	-0.292	
24.870	-0.360	-0.326	
24.875	-0.630	-0.357	
24.880	-0.460	-0.402	
24.885	-0.396	-0.440	
24.890	-0.680	-0.467	
24.895	-0.642	-0.504	
24.900	-0.442	-0.541	
24.905	-0.672	-0.560	
24.910	-0.791	-0.585	
24.915	-0.541	-0.619	
24.920	-0.614	-0.636	
24.925	-0.854	-0.648	
24.930	-0.671	-0.672	
24.935	-0.549	-0.687	
24.940	-0.807	-0.686	
24.945	-0.743	-0.693	
24.950	-0.505	-0.698	
24.955	-0.685	-0.684	
24.960	-0.787	-0.673	
24.965	-0.518	-0.672	
24.970	-0.538	-0.656	
24.975	-0.743	-0.635	
24.980	-0.535	-0.626	
24.985	-0.422	-0.609	
24.990	-0.650	-0.582	
24.995	-0.561	-0.566	
25.000	-0.306	-0.550	
25.005	-0.483	-0.517	
25.010	-0.550	-0.490	
25.015	-0.235	-0.470	
25.020	-0.284	-0.433	
25.025	-0.496	-0.395	
25.030	-0.247	-0.374	
25.035	-0.107	-0.345	
25.040	-0.374	-0.306	
25.045	-0.277	-0.282	
25.050	0.079	-0.258	
25.055	-0.218	-0.214	
25.060	-0.285	-0.182	
25.065	0.130	-0.163	
25.070	0.037	-0.124	
25.075	-0.259	-0.084	
25.080	0.033	-0.069	
25.085	0.273	-0.046	
25.090	-0.194	-0.008	
25.095	-0.140	0.000	
25.100	0.305	-0.003	
25.105	-0.081	0.013	
25.110	-0.220	0.015	
25.115	0.238	0.001	
25.120	0.087	0.009	
25.125	-0.264	0.018	
25.130	-0.031	-0.002	
25.135	0.122	-0.021	
25.140	-0.290	-0.030	
25.145	-0.250	-0.062	
25.150	0.046	-0.100	
25.155	-0.264	-0.120	
25.160	-0.378	-0.147	
25.165	-0.095	-0.185	
25.170	-0.188	-0.204	
25.175	-0.462	-0.219	
25.180	-0.268	-0.249	
25.185	-0.175	-0.273	
25.190	-0.491	-0.285	
25.195	-0.468	-0.313	
25.200	-0.227	-0.346	
25.205	-0.442	-0.361	
25.210	-0.561	-0.379	
25.215	-0.285	-0.403	
25.220	-0.354	-0.409	
25.225	-0.561	-0.408	
25.230	-0.322	-0.415	
25.235	-0.197	-0.407	
25.240	-0.473	-0.382	
25.245	-0.404	-0.371	
25.250	-0.134	-0.362	
25.255	-0.313	-0.337	
25.260	-0.369	-0.314	
25.265	0.090	-0.289	
25.270	0.203	-0.223	
25.275	0.061	-0.124	
25.280	0.832	0.001	
25.285	1.172	0.196	
25.290	0.552	0.428	
25.295	0.421	0.587	
25.300	0.535	0.646	
25.305	-0.166	0.617	
25.310	-0.372	0.481	
25.315	-0.018	0.283	
25.320	-0.005	0.114	
25.325	-0.235	-0.002	
25.330	0.178	-0.073	
25.335	0.479	-0.066	
25.340	-0.026	0.000	
25.345	0.061	0.056	
25.350	0.564	0.103	
25.355	0.158	0.169	
25.360	-0.084	0.208	
25.365	0.410	0.206	
25.370	0.230	0.212	
25.375	-0.183	0.208	
25.380	0.114	0.166	
25.385	0.297	0.131	
25.390	-0.188	0.113	
25.395	-0.119	0.075	
25.400	0.352	0.039	
25.405	-0.043	0.039	
25.410	-0.195	0.035	
25.415	0.332	0.022	
25.420	0.300	0.047	
25.425	-0.072	0.090	
25.430	0.425	0.122	
25.435	0.748	0.185	
25.440	0.328	0.286	
25.445	0.540	0.373	
25.450	1.067	0.460	
25.455	0.625	0.571	
25.460	0.302	0.641	
25.465	0.799	0.650	
25.470	0.596	0.650	
25.475	-0.006	0.622	
25.480	0.282	0.533	
25.485	0.408	0.435	
25.490	-0.151	0.351	
25.495	-0.125	0.244	
25.500	0.264	0.140	
25.505	-0.145	0.075	
25.510	-0.291	0.014	
25.515	0.102	-0.047	
25.520	0.003	-0.072	
25.525	-0.302	-0.080	
25.530	-0.053	-0.100	
25.535	0.189	-0.101	
25.540	-0.195	-0.077	
25.545	-0.102	-0.065	
25.550	0.383	-0.048	
25.555	0.012	0.001	
25.560	-0.145	0.036	
25.565	0.346	0.050	
25.570	0.227	0.084	
25.575	-0.182	0.113	
25.580	0.068	0.104	
25.585	0.177	0.086	
25.590	-0.285	0.068	
25.595	-0.265	0.016	
25.600	-0.014	-0.051	
25.605	-0.323	-0.103	
25.610	-0.465	-0.161	
25.615	-0.212	-0.228	
25.620	-0.313	-0.274	
25.625	-0.578	-0.311	
25.630	-0.396	-0.358	
25.635	-0.302	-0.392	
25.640	-0.589	-0.410	
25.645	-0.553	-0.437	
25.650	-0.316	-0.462	
25.655	-0.528	-0.468	
25.660	-0.637	-0.478	
25.665	-0.364	-0.494	
25.670	-0.432	-0.494	
25.675	-0.666	-0.490	
25.680	-0.454	-0.500	
25.685	-0.346	-0.501	
25.690	-0.617	-0.491	
25.695	-0.544	-0.493	
25.700	-0.297	-0.496	
25.705	-0.494	-0.481	
25.710	-0.592	-0.471	
25.715	-0.302	-0.471	
25.720	-0.339	-0.455	
25.725	-0.553	-0.433	
25.730	-0.335	-0.425	
25.735	-0.204	-0.409	
25.740	-0.467	-0.381	
25.745	-0.395	-0.368	
25.750	-0.114	-0.357	
25.755	-0.313	-0.328	
25.760	-0.406	-0.307	
25.765	-0.089	-0.296	
25.770	-0.139	-0.269	
25.775	-0.390	-0.241	
25.780	-0.114	-0.230	
25.785	0.146	-0.205	
25.790	-0.236	-0.157	
25.795	-0.156	-0.127	
25.800	0.282	-0.101	
25.805	-0.027	-0.052	
25.810	-0.130	-0.014	
25.815	0.436	0.014	
25.820	0.363	0.077	
25.825	-0.101	0.142	
25.830	0.322	0.170	
25.835	0.608	0.206	
25.840	0.119	0.262	
25.845	0.255	0.292	
25.850	0.785	0.318	
25.855	0.415	0.375	
25.860	0.200	0.418	
25.865	0.785	0.436	
25.870	0.710	0.478	
25.875	0.239	0.524	
25.880	0.660	0.535	
25.885	0.880	0.554	
25.890	0.383	0.591	
25.895	0.530	0.600	
25.900	1.043	0.608	
25.905	0.671	0.652	
25.910	0.450	0.684	
25.915	1.012	0.692	
25.920	0.907	0.725	
25.925	0.421	0.757	
25.930	0.843	0.752	
25.935	1.037	0.756	
25.940	0.444	0.774	
25.945	0.518	0.752	
25.950	1.015	0.718	
25.955	0.564	0.712	
25.960	0.271	0.689	
25.965	0.814	0.639	
25.970	0.634	0.614	
25.975	0.085	0.588	
25.980	0.424	0.523	
25.985	0.591	0.465	
25.990	-0.011	0.425	
25.995	0.020	0.353	
26.000	0.419	0.274	
26.005	-0.032	0.222	
26.010	-0.229	0.162	
26.015	0.131	0.086	
26.020	-0.017	0.033	
26.025	-0.331	-0.010	
26.030	-0.111	-0.065	
26.035	0.050	-0.104	
26.040	-0.296	-0.118	
26.045	-0.226	-0.138	
26.050	0.198	-0.148	
26.055	-0.119	-0.123	
26.060	-0.223	-0.100	
26.065	0.219	-0.087	
26.070	0.049	-0.052	
26.075	-0.316	-0.025	
26.080	-0.188	-0.043	
26.085	-0.159	-0.083	
26.090	-0.521	-0.134	
26.095	-0.552	-0.216	
26.100	-0.393	-0.309	
26.105	-0.659	-0.390	
26.110	-0.836	-0.476	
26.115	-0.633	-0.566	
26.120	-0.732	-0.637	
26.125	-0.968	-0.696	
26.130	-0.814	-0.757	
26.135	-0.738	-0.801	
26.140	-0.993	-0.826	
26.145	-0.928	-0.855	
26.150	-0.672	-0.874	
26.155	-0.767	-0.862	
26.160	-0.735	-0.833	
26.165	-0.294	-0.781	
26.170	-0.247	-0.684	
26.175	-0.509	-0.570	
26.180	-0.407	-0.486	
26.185	-0.454	-0.437	
26.190	-0.890	-0.434	
26.195	-0.957	-0.500	
26.200	-0.738	-0.603	
26.205	-0.837	-0.694	
26.210	-0.852	-0.761	
26.215	-0.502	-0.794	
26.220	-0.485	-0.771	
26.225	-0.654	-0.716	
26.230	-0.386	-0.657	
26.235	-0.203	-0.582	
26.240	-0.430	-0.494	
26.245	-0.326	-0.424	
26.250	0.094	-0.357	
26.255	-0.159	-0.271	
26.260	-0.239	-0.201	
26.265	0.319	-0.144	
26.270	0.277	-0.058	
26.275	-0.104	0.030	
26.280	0.366	0.088	
26.285	0.674	0.161	
26.290	0.212	0.255	
26.295	0.372	0.323	
26.300	0.934	0.383	
26.305	0.611	0.474	
26.310	0.465	0.552	
26.315	1.091	0.610	
26.320	1.008	0.695	
26.325	0.526	0.776	
26.330	0.968	0.812	
26.335	1.235	0.851	
26.340	0.729	0.905	
26.345	0.881	0.929	
26.350	1.424	0.950	
26.355	1.055	1.006	
26.360	0.812	1.048	
26.365	1.355	1.062	
26.370	1.303	1.095	
26.375	0.863	1.132	
26.380	1.299	1.141	
26.385	1.546	1.166	
26.390	0.995	1.211	
26.395	1.104	1.224	
26.400	1.648	1.228	
26.405	1.273	1.265	
26.410	1.038	1.292	
26.415	1.605	1.295	
26.420	1.489	1.322	
26.425	0.985	1.348	
26.430	1.405	1.337	
26.435	1.598	1.333	
26.440	1.026	1.345	
26.445	1.062	1.320	
26.450	1.502	1.279	
26.455	1.041	1.258	
26.460	0.721	1.214	
26.465	1.175	1.138	
26.470	1.024	1.079	
26.475	0.447	1.020	
26.480	0.784	0.928	
26.485	0.953	0.848	
26.490	0.328	0.791	
26.495	0.413	0.711	
26.500	0.905	0.635	
26.505	0.506	0.606	
26.510	0.273	0.582	
26.515	0.825	0.549	
26.520	0.721	0.553	
26.525	0.245	0.569	
26.530	0.687	0.560	
26.535	0.924	0.569	
26.540	0.387	0.603	
26.545	0.538	0.612	
26.550	1.072	0.620	
26.555	0.672	0.665	
26.560	0.434	0.695	
26.565	0.983	0.699	
26.570	0.840	0.721	
26.575	0.296	0.735	
26.580	0.748	0.707	
26.585	0.953	0.689	
26.590	0.364	0.693	
26.595	0.424	0.664	
26.600	0.896	0.624	
26.605	0.466	0.613	
26.610	0.169	0.587	
26.615	0.700	0.535	
26.620	0.543	0.508	
26.625	-0.008	0.483	
26.630	0.325	0.421	
26.635	0.482	0.365	
26.640	-0.061	0.326	
26.645	0.008	0.264	
26.650	0.466	0.204	
26.655	0.053	0.183	
26.660	-0.078	0.161	
26.665	0.544	0.142	
26.670	0.552	0.178	
26.675	0.197	0.248	
26.680	0.732	0.314	
26.685	1.075	0.415	
26.690	0.616	0.549	
26.695	0.777	0.656	
26.700	1.319	0.749	
26.705	0.915	0.856	
26.710	0.642	0.925	
26.715	1.148	0.943	
26.720	0.951	0.957	
26.725	0.351	0.944	
26.730	0.662	0.871	
26.735	0.771	0.786	
26.740	0.117	0.707	
26.745	0.093	0.588	
26.750	0.482	0.457	
26.755	0.015	0.358	
26.760	-0.192	0.258	
26.765	0.146	0.151	
26.770	-0.015	0.074	
26.775	-0.316	0.014	
26.780	-0.125	-0.054	
26.785	0.001	-0.104	
26.790	-0.325	-0.130	
26.795	-0.284	-0.161	
26.800	0.012	-0.188	
26.805	-0.229	-0.189	
26.810	-0.357	-0.191	
26.815	-0.053	-0.203	
26.820	-0.114	-0.198	
26.825	-0.380	-0.190	
26.830	-0.178	-0.199	
26.835	-0.027	-0.202	
26.840	-0.328	-0.192	
26.845	-0.281	-0.196	
26.850	0.004	-0.203	
26.855	-0.249	-0.193	
26.860	-0.370	-0.192	
26.865	-0.089	-0.206	
26.870	-0.171	-0.208	
26.875	-0.438	-0.211	
26.880	-0.249	-0.233	
26.885	-0.134	-0.250	
26.890	-0.427	-0.256	
26.895	-0.380	-0.275	
26.900	-0.153	-0.295	
26.905	-0.377	-0.300	
26.910	-0.506	-0.312	
26.915	-0.230	-0.335	
26.920	-0.305	-0.343	
26.925	-0.560	-0.348	
26.930	-0.370	-0.370	
26.935	-0.261	-0.384	
26.940	-0.544	-0.386	
26.945	-0.517	-0.402	
26.950	-0.293	-0.422	
26.955	-0.526	-0.429	
26.960	-0.659	-0.446	
26.965	-0.393	-0.475	
26.970	-0.448	-0.489	
26.975	-0.686	-0.497	
26.980	-0.506	-0.516	
26.985	-0.390	-0.527	
26.990	-0.645	-0.524	
26.995	-0.592	-0.531	
27.000	-0.346	-0.536	
27.005	-0.515	-0.523	
27.010	-0.599	-0.511	
27.015	-0.310	-0.504	
27.020	-0.339	-0.480	
27.025	-0.540	-0.450	
27.030	-0.290	-0.431	
27.035	-0.046	-0.395	
27.040	-0.195	-0.332	
27.045	0.146	-0.253	
27.050	0.878	-0.122	
27.055	0.466	0.074	
27.060	0.014	0.241	
27.065	0.190	0.310	
27.070	-0.213	0.295	
27.075	-0.587	0.195	
27.080	-0.416	0.027	
27.085	-0.262	-0.138	
27.090	-0.486	-0.260	
27.095	-0.378	-0.346	
27.100	-0.079	-0.386	
27.105	-0.296	-0.372	
27.110	-0.410	-0.347	
27.115	-0.122	-0.328	
27.120	-0.194	-0.297	
27.125	-0.442	-0.271	
27.130	-0.247	-0.269	
27.135	-0.131	-0.268	
27.140	-0.432	-0.261	
27.145	-0.386	-0.273	
27.150	-0.120	-0.290	
27.155	-0.349	-0.290	
27.160	-0.473	-0.296	
27.165	-0.197	-0.313	
27.170	-0.247	-0.315	
27.175	-0.483	-0.312	
27.180	-0.302	-0.323	
27.185	-0.192	-0.328	
27.190	-0.447	-0.322	
27.195	-0.396	-0.328	
27.200	-0.133	-0.334	
27.205	-0.343	-0.321	
27.210	-0.451	-0.315	
27.215	-0.137	-0.317	
27.220	-0.195	-0.302	
27.225	-0.435	-0.284	
27.230	-0.227	-0.282	
27.235	-0.093	-0.274	
27.240	-0.369	-0.256	
27.245	-0.313	-0.252	
27.250	0.000	-0.250	
27.255	-0.247	-0.229	
27.260	-0.346	-0.215	
27.265	0.015	-0.211	
27.270	-0.069	-0.188	
27.275	-0.334	-0.163	
27.280	-0.081	-0.158	
27.285	0.152	-0.143	
27.290	-0.233	-0.109	
27.295	-0.171	-0.095	
27.300	0.235	-0.086	
27.305	-0.090	-0.056	
27.310	-0.224	-0.039	
27.315	0.186	-0.040	
27.320	0.026	-0.025	
27.325	-0.297	-0.015	
27.330	-0.085	-0.038	
27.335	0.044	-0.062	
27.340	-0.328	-0.077	
27.345	-0.305	-0.113	
27.350	-0.058	-0.155	
27.355	-0.325	-0.182	
27.360	-0.462	-0.216	
27.365	-0.186	-0.258	
27.370	-0.259	-0.282	
27.375	-0.520	-0.298	
27.380	-0.329	-0.326	
27.385	-0.201	-0.344	
27.390	-0.454	-0.343	
27.395	-0.392	-0.349	
27.400	-0.130	-0.351	
27.405	-0.322	-0.332	
27.410	-0.415	-0.316	
27.415	-0.111	-0.308	
27.420	-0.172	-0.285	
27.425	-0.412	-0.261	
27.430	-0.185	-0.255	
27.435	0.017	-0.241	
27.440	-0.294	-0.210	
27.445	-0.221	-0.192	
27.450	0.169	-0.174	
27.455	-0.153	-0.135	
27.460	-0.264	-0.109	
27.465	0.165	-0.100	
27.470	0.078	-0.071	
27.475	-0.242	-0.040	
27.480	0.058	-0.033	
27.485	0.283	-0.017	
27.490	-0.182	0.015	
27.495	-0.089	0.020	
27.500	0.422	0.022	
27.505	0.032	0.055	
27.510	-0.148	0.077	
27.515	0.358	0.078	
27.520	0.250	0.101	
27.525	-0.169	0.126	
27.530	0.221	0.121	
27.535	0.469	0.131	
27.540	-0.076	0.161	
27.545	0.017	0.162	
27.550	0.511	0.154	
27.555	0.087	0.173	
27.560	-0.111	0.177	
27.565	0.404	0.159	
27.570	0.315	0.167	
27.575	-0.114	0.183	
27.580	0.270	0.173	
27.585	0.480	0.178	
27.590	-0.082	0.201	
27.595	0.011	0.190	
27.600	0.512	0.170	
27.605	0.099	0.182	
27.610	-0.101	0.182	
27.615	0.436	0.164	
27.620	0.329	0.175	
27.625	-0.125	0.193	
27.630	0.255	0.182	
27.635	0.508	0.184	
27.640	-0.015	0.209	
27.645	0.065	0.208	
27.650	0.541	0.199	
27.655	0.168	0.219	
27.660	-0.021	0.227	
27.665	0.520	0.220	
27.670	0.419	0.241	
27.675	-0.035	0.269	
27.680	0.364	0.265	
27.685	0.572	0.273	
27.690	0.018	0.297	
27.695	0.105	0.287	
27.700	0.599	0.267	
27.705	0.194	0.277	
27.710	-0.006	0.276	
27.715	0.553	0.259	
27.720	0.428	0.273	
27.725	-0.064	0.291	
27.730	0.311	0.275	
27.735	0.534	0.267	
27.740	-0.009	0.276	
27.745	0.090	0.258	
27.750	0.561	0.235	
27.755	0.166	0.244	
27.760	-0.056	0.242	
27.765	0.488	0.221	
27.770	0.369	0.230	
27.775	-0.104	0.243	
27.780	0.253	0.224	
27.785	0.453	0.213	
27.790	-0.081	0.218	
27.795	0.024	0.194	
27.800	0.508	0.169	
27.805	0.081	0.177	
27.810	-0.119	0.174	
27.815	0.430	0.153	
27.820	0.302	0.162	
27.825	-0.142	0.178	
27.830	0.238	0.165	
27.835	0.466	0.165	
27.840	-0.079	0.185	
27.845	-0.002	0.175	
27.850	0.489	0.156	
27.855	0.073	0.167	
27.860	-0.116	0.165	
27.865	0.363	0.143	
27.870	0.227	0.145	
27.875	-0.160	0.149	
27.880	0.181	0.128	
27.885	0.396	0.121	
27.890	-0.107	0.136	
27.895	-0.049	0.124	
27.900	0.412	0.105	
27.905	-0.011	0.111	
27.910	-0.159	0.105	
27.915	0.351	0.083	
27.920	0.247	0.094	
27.925	-0.168	0.113	
27.930	0.200	0.106	
27.935	0.430	0.114	
27.940	-0.089	0.142	
27.945	-0.017	0.140	
27.950	0.462	0.129	
27.955	0.052	0.144	
27.960	-0.130	0.145	
27.965	0.352	0.125	
27.970	0.230	0.130	
27.975	-0.169	0.138	
27.980	0.152	0.118	
27.985	0.334	0.108	
27.990	-0.200	0.112	
27.995	-0.125	0.085	
28.000	0.306	0.049	
28.005	-0.092	0.040	
28.010	-0.239	0.023	
28.015	0.151	-0.009	
28.020	0.052	-0.017	
28.025	-0.268	-0.019	
28.030	-0.037	-0.041	
28.035	0.166	-0.052	
28.040	-0.242	-0.045	
28.045	-0.203	-0.058	
28.050	0.134	-0.077	
28.055	-0.168	-0.077	
28.060	-0.270	-0.084	
28.065	0.210	-0.096	
28.070	0.297	-0.063	
28.075	0.097	0.007	
28.080	0.805	0.099	
28.085	1.165	0.259	
28.090	0.546	0.460	
28.095	0.348	0.594	
28.100	0.405	0.626	
28.105	-0.233	0.569	
28.110	-0.483	0.411	
28.115	-0.220	0.192	
28.120	-0.233	-0.005	
28.125	-0.422	-0.152	
28.130	-0.177	-0.254	
28.135	-0.011	-0.293	
28.140	-0.316	-0.283	
28.145	-0.253	-0.266	
28.150	0.078	-0.244	
28.155	-0.195	-0.201	
28.160	-0.302	-0.171	
28.165	0.067	-0.159	
28.170	-0.037	-0.133	
28.175	-0.316	-0.110	
28.180	-0.070	-0.113	
28.185	0.122	-0.109	
28.190	-0.264	-0.091	
28.195	-0.206	-0.094	
28.200	0.183	-0.100	
28.205	-0.133	-0.084	
28.210	-0.252	-0.076	
28.215	0.149	-0.080	
28.220	0.037	-0.064	
28.225	-0.256	-0.045	
28.230	0.020	-0.049	
28.235	0.229	-0.041	
28.240	-0.194	-0.017	
28.245	-0.122	-0.015	
28.250	0.322	-0.016	
28.255	-0.055	0.008	
28.260	-0.188	0.019	
28.265	0.270	0.014	
28.270	0.157	0.032	
28.275	-0.213	0.052	
28.280	0.123	0.046	
28.285	0.360	0.052	
28.290	-0.114	0.079	
28.295	-0.024	0.083	
28.300	0.460	0.083	
28.305	0.044	0.111	
28.310	-0.084	0.126	
28.315	0.497	0.127	
28.320	0.404	0.165	
28.325	-0.070	0.210	
28.330	0.314	0.220	
28.335	0.515	0.234	
28.340	0.029	0.261	
28.345	0.168	0.260	
28.350	0.630	0.258	
28.355	0.200	0.284	
28.360	-0.055	0.289	
28.365	0.428	0.263	
28.370	0.261	0.250	
28.375	-0.175	0.233	
28.380	0.061	0.181	
28.385	0.161	0.126	
28.390	-0.276	0.081	
28.395	-0.267	0.014	
28.400	-0.014	-0.060	
28.405	-0.281	-0.112	
28.410	-0.418	-0.162	
28.415	-0.149	-0.216	
28.420	-0.242	-0.246	
28.425	-0.500	-0.268	
28.430	-0.300	-0.301	
28.435	-0.169	-0.320	
28.440	-0.435	-0.320	
28.445	-0.374	-0.326	
28.450	-0.107	-0.328	
28.455	-0.320	-0.311	
28.460	-0.427	-0.299	
28.465	-0.128	-0.298	
28.470	-0.180	-0.282	
28.475	-0.424	-0.265	
28.480	-0.182	-0.263	
28.485	-0.035	-0.251	
28.490	-0.346	-0.227	
28.495	-0.288	-0.220	
28.500	0.023	-0.217	
28.505	-0.235	-0.198	
28.510	-0.339	-0.188	
28.515	0.021	-0.190	
28.520	-0.064	-0.172	
28.525	-0.328	-0.152	
28.530	-0.108	-0.152	
28.535	0.072	-0.146	
28.540	-0.277	-0.127	
28.545	-0.217	-0.127	
28.550	0.148	-0.129	
28.555	-0.159	-0.110	
28.560	-0.290	-0.102	
28.565	0.079	-0.109	
28.570	-0.040	-0.101	
28.575	-0.300	-0.092	
28.580	-0.052	-0.102	
28.585	0.140	-0.101	
28.590	-0.250	-0.083	
28.595	-0.191	-0.084	
28.600	0.180	-0.090	
28.605	-0.142	-0.075	
28.610	-0.247	-0.070	
28.615	0.145	-0.077	
28.620	0.009	-0.064	
28.625	-0.276	-0.051	
28.630	-0.041	-0.062	
28.635	0.134	-0.067	
28.640	-0.241	-0.057	
28.645	-0.163	-0.065	
28.650	0.216	-0.074	
28.655	-0.130	-0.058	
28.660	-0.232	-0.052	
28.665	0.160	-0.059	
28.670	0.047	-0.046	
28.675	-0.261	-0.031	
28.680	-0.008	-0.040	
28.685	0.171	-0.042	
28.690	-0.232	-0.031	
28.695	-0.160	-0.040	
28.700	0.238	-0.052	
28.705	-0.122	-0.039	
28.710	-0.244	-0.037	
28.715	0.174	-0.050	
28.720	0.046	-0.040	
28.725	-0.262	-0.027	
28.730	0.001	-0.038	
28.735	0.200	-0.039	
28.740	-0.215	-0.024	
28.745	-0.146	-0.029	
28.750	0.229	-0.040	
28.755	-0.139	-0.029	
28.760	-0.238	-0.032	
28.765	0.207	-0.046	
28.770	0.076	-0.033	
28.775	-0.255	-0.016	
28.780	0.009	-0.024	
28.785	0.192	-0.025	
28.790	-0.249	-0.015	
28.795	-0.162	-0.028	
28.800	0.282	-0.043	
28.805	-0.089	-0.028	
28.810	-0.217	-0.021	
28.815	0.216	-0.027	
28.820	0.085	-0.012	
28.825	-0.246	0.005	
28.830	0.008	-0.006	
28.835	0.219	-0.011	
28.840	-0.215	-0.001	
28.845	-0.140	-0.012	
28.850	0.259	-0.026	
28.855	-0.107	-0.016	
28.860	-0.217	-0.015	
28.865	0.207	-0.028	
28.870	0.064	-0.017	
28.875	-0.246	-0.004	
28.880	0.044	-0.015	
28.885	0.229	-0.014	
28.890	-0.212	0.002	
28.895	-0.139	-0.006	
28.900	0.271	-0.018	
28.905	-0.107	-0.008	
