Vernier Format 2
ecg4.txt 10/18/2025 9:20:38
Run 1
Time	Potential	EKG	
T	P	E	
s	mV	mV	

0.000	0.130	0.006	
0.005	-0.201	0.010	
0.010	-0.310	-0.016	
0.015	0.180	-0.056	
0.020	0.050	-0.060	
0.025	-0.308	-0.053	
0.030	0.017	-0.065	
0.035	0.312	-0.057	
0.040	-0.221	-0.023	
0.045	-0.128	-0.014	
0.050	0.395	-0.011	
0.055	-0.157	0.016	
0.060	-0.314	0.015	
0.065	0.058	-0.021	
0.070	-0.140	-0.051	
0.075	-0.448	-0.087	
0.080	-0.177	-0.145	
0.085	0.014	-0.183	
0.090	-0.380	-0.192	
0.095	-0.310	-0.210	
0.100	0.131	-0.220	
0.105	-0.073	-0.190	
0.110	0.029	-0.139	
0.115	1.041	-0.042	
0.120	1.061	0.161	
0.125	0.285	0.389	
0.130	0.134	0.512	
0.135	-0.306	0.489	
0.140	-0.941	0.322	
0.145	-0.915	0.037	
0.150	-0.550	-0.263	
0.155	-0.598	-0.482	
0.160	-0.483	-0.604	
0.165	0.209	-0.615	
0.170	0.296	-0.496	
0.175	-0.095	-0.314	
0.180	0.559	-0.135	
0.185	0.918	0.067	
0.190	0.280	0.277	
0.195	0.627	0.427	
0.200	1.221	0.549	
0.205	0.643	0.679	
0.210	0.447	0.754	
0.215	1.162	0.776	
0.220	0.934	0.814	
0.225	0.357	0.839	
0.230	0.991	0.819	
0.235	1.276	0.824	
0.240	0.576	0.865	
0.245	0.933	0.880	
0.250	1.576	0.911	
0.255	0.976	0.991	
0.260	0.893	1.052	
0.265	1.686	1.093	
0.270	1.523	1.178	
0.275	0.719	1.254	
0.280	1.195	1.252	
0.285	1.282	1.223	
0.290	0.415	1.175	
0.295	0.442	1.053	
0.300	0.817	0.896	
0.305	-0.021	0.748	
0.310	-0.264	0.561	
0.315	0.079	0.344	
0.320	-0.139	0.162	
0.325	-0.474	0.012	
0.330	-0.322	-0.129	
0.335	-0.264	-0.238	
0.340	-0.624	-0.316	
0.345	-0.537	-0.390	
0.350	-0.274	-0.446	
0.355	-0.553	-0.467	
0.360	-0.650	-0.484	
0.365	-0.305	-0.503	
0.370	-0.415	-0.497	
0.375	-0.634	-0.484	
0.380	-0.334	-0.481	
0.385	-0.213	-0.461	
0.390	-0.547	-0.426	
0.395	-0.413	-0.410	
0.400	-0.101	-0.394	
0.405	-0.409	-0.361	
0.410	-0.480	-0.343	
0.415	-0.096	-0.338	
0.420	-0.230	-0.315	
0.425	-0.471	-0.293	
0.430	-0.206	-0.292	
0.435	-0.055	-0.280	
0.440	-0.428	-0.258	
0.445	-0.276	-0.254	
0.450	0.195	-0.241	
0.455	-0.163	-0.193	
0.460	-0.256	-0.151	
0.465	0.256	-0.122	
0.470	0.003	-0.074	
0.475	-0.290	-0.037	
0.480	0.152	-0.032	
0.485	0.348	-0.007	
0.490	-0.241	0.035	
0.495	-0.096	0.038	
0.500	0.354	0.029	
0.505	-0.157	0.040	
0.510	-0.276	0.027	
0.515	0.130	-0.011	
0.520	-0.064	-0.031	
0.525	-0.352	-0.052	
0.530	-0.017	-0.089	
0.535	0.097	-0.104	
0.540	-0.326	-0.099	
0.545	-0.165	-0.111	
0.550	0.404	-0.109	
0.555	0.050	-0.055	
0.560	0.279	0.017	
0.565	1.281	0.137	
0.570	1.056	0.350	
0.575	0.207	0.557	
0.580	0.020	0.624	
0.585	-0.386	0.536	
0.590	-0.993	0.313	
0.595	-0.988	-0.009	
0.600	-0.585	-0.330	
0.605	-0.642	-0.556	
0.610	-0.489	-0.673	
0.615	0.119	-0.676	
0.620	0.105	-0.560	
0.625	-0.165	-0.391	
0.630	0.489	-0.224	
0.635	0.771	-0.027	
0.640	0.133	0.174	
0.645	0.508	0.312	
0.650	1.159	0.429	
0.655	0.535	0.562	
0.660	0.387	0.645	
0.665	1.145	0.680	
0.670	0.855	0.734	
0.675	0.300	0.771	
0.680	0.898	0.756	
0.685	1.174	0.759	
0.690	0.511	0.794	
0.695	0.806	0.803	
0.700	1.431	0.824	
0.705	0.854	0.890	
0.710	0.724	0.937	
0.715	1.520	0.963	
0.720	1.244	1.029	
0.725	0.616	1.085	
0.730	1.131	1.079	
0.735	1.143	1.062	
0.740	0.218	1.026	
0.745	0.319	0.906	
0.750	0.646	0.749	
0.755	-0.157	0.601	
0.760	-0.258	0.421	
0.765	-0.035	0.222	
0.770	-0.267	0.055	
0.775	-0.582	-0.090	
0.780	-0.326	-0.226	
0.785	-0.311	-0.322	
0.790	-0.715	-0.387	
0.795	-0.611	-0.456	
0.800	-0.380	-0.513	
0.805	-0.695	-0.541	
0.810	-0.756	-0.572	
0.815	-0.422	-0.603	
0.820	-0.521	-0.605	
0.825	-0.803	-0.599	
0.830	-0.444	-0.604	
0.835	-0.314	-0.588	
0.840	-0.616	-0.549	
0.845	-0.477	-0.522	
0.850	-0.197	-0.494	
0.855	-0.476	-0.451	
0.860	-0.480	-0.422	
0.865	-0.079	-0.400	
0.870	-0.250	-0.356	
0.875	-0.454	-0.316	
0.880	-0.113	-0.297	
0.885	0.040	-0.263	
0.890	-0.320	-0.213	
0.895	-0.102	-0.182	
0.900	0.306	-0.143	
0.905	-0.172	-0.082	
0.910	-0.197	-0.048	
0.915	0.358	-0.032	
0.920	0.116	0.011	
0.925	-0.209	0.048	
0.930	0.282	0.056	
0.935	0.364	0.083	
0.940	-0.201	0.118	
0.945	-0.047	0.110	
0.950	0.390	0.090	
0.955	-0.159	0.090	
0.960	-0.255	0.065	
0.965	0.239	0.021	
0.970	-0.029	0.004	
0.975	-0.285	-0.009	
0.980	0.119	-0.037	
0.985	0.209	-0.036	
0.990	-0.261	-0.016	
0.995	-0.075	-0.021	
1.000	0.561	-0.013	
1.005	0.192	0.051	
1.010	0.369	0.133	
1.015	1.253	0.250	
1.020	0.867	0.434	
1.025	-0.113	0.577	
1.030	-0.213	0.561	
1.035	-0.421	0.405	
1.040	-0.864	0.165	
1.045	-0.624	-0.111	
1.050	-0.142	-0.331	
1.055	-0.227	-0.430	
1.060	-0.043	-0.429	
1.065	0.905	-0.322	
1.070	0.692	-0.096	
1.075	0.300	0.152	
1.080	1.055	0.354	
1.085	1.169	0.553	
1.090	0.442	0.726	
1.095	0.858	0.812	
1.100	1.575	0.876	
1.105	0.980	0.976	
1.110	0.939	1.052	
1.115	1.652	1.103	
1.120	1.233	1.177	
1.125	0.726	1.220	
1.130	1.381	1.203	
1.135	1.360	1.197	
1.140	0.431	1.182	
1.145	0.634	1.088	
1.150	1.035	0.967	
1.155	0.210	0.864	
1.160	0.026	0.722	
1.165	0.684	0.563	
1.170	0.229	0.455	
1.175	-0.206	0.362	
1.180	0.255	0.252	
1.185	0.251	0.177	
1.190	-0.369	0.126	
1.195	-0.273	0.042	
1.200	-0.049	-0.051	
1.205	-0.499	-0.128	
1.210	-0.582	-0.217	
1.215	-0.168	-0.305	
1.220	-0.403	-0.353	
1.225	-0.665	-0.387	
1.230	-0.314	-0.427	
1.235	-0.264	-0.439	
1.240	-0.613	-0.432	
1.245	-0.395	-0.435	
1.250	-0.078	-0.425	
1.255	-0.413	-0.386	
1.260	-0.395	-0.355	
1.265	0.116	-0.325	
1.270	-0.113	-0.263	
1.275	-0.320	-0.204	
1.280	0.210	-0.162	
1.285	0.485	-0.085	
1.290	-0.070	0.020	
1.295	0.378	0.101	
1.300	1.005	0.201	
1.305	0.369	0.339	
1.310	0.349	0.442	
1.315	1.206	0.515	
1.320	0.905	0.625	
1.325	0.509	0.727	
1.330	1.335	0.793	
1.335	1.491	0.895	
1.340	0.755	1.014	
1.345	1.180	1.078	
1.350	1.605	1.128	
1.355	0.848	1.186	
1.360	0.855	1.188	
1.365	1.596	1.161	
1.370	1.137	1.173	
1.375	0.663	1.171	
1.380	1.284	1.127	
1.385	1.248	1.104	
1.390	0.427	1.083	
1.395	0.765	1.005	
1.400	1.140	0.924	
1.405	0.332	0.870	
1.410	0.259	0.778	
1.415	0.973	0.673	
1.420	0.540	0.624	
1.425	0.122	0.585	
1.430	0.726	0.527	
1.435	0.735	0.508	
1.440	0.001	0.506	
1.445	0.512	0.470	
1.450	1.218	0.468	
1.455	0.776	0.553	
1.460	0.905	0.662	
1.465	1.535	0.784	
1.470	0.506	0.906	
1.475	-0.477	0.894	
1.480	-0.514	0.679	
1.485	-0.601	0.351	
1.490	-0.880	0.005	
1.495	-0.520	-0.299	
1.500	-0.081	-0.486	
1.505	-0.319	-0.534	
1.510	-0.249	-0.504	
1.515	0.283	-0.420	
1.520	-0.089	-0.291	
1.525	-0.299	-0.183	
1.530	0.081	-0.124	
1.535	0.082	-0.074	
1.540	-0.348	-0.041	
1.545	-0.137	-0.052	
1.550	0.154	-0.069	
1.555	-0.319	-0.072	
1.560	-0.328	-0.097	
1.565	0.126	-0.131	
1.570	-0.154	-0.134	
1.575	-0.375	-0.136	
1.580	0.082	-0.150	
1.585	0.192	-0.130	
1.590	-0.270	-0.087	
1.595	-0.015	-0.067	
1.600	0.553	-0.033	
1.605	-0.024	0.039	
1.610	0.082	0.094	
1.615	0.797	0.147	
1.620	0.326	0.239	
1.625	-0.095	0.302	
1.630	0.428	0.304	
1.635	0.285	0.297	
1.640	-0.308	0.270	
1.645	-0.172	0.184	
1.650	0.015	0.079	
1.655	-0.427	-0.014	
1.660	-0.518	-0.120	
1.665	-0.241	-0.228	
1.670	-0.486	-0.308	
1.675	-0.666	-0.377	
1.680	-0.403	-0.444	
1.685	-0.427	-0.483	
1.690	-0.770	-0.506	
1.695	-0.540	-0.540	
1.700	-0.294	-0.556	
1.705	-0.634	-0.542	
1.710	-0.621	-0.536	
1.715	-0.223	-0.531	
1.720	-0.425	-0.499	
1.725	-0.592	-0.469	
1.730	-0.210	-0.451	
1.735	-0.210	-0.415	
1.740	-0.541	-0.375	
1.745	-0.319	-0.361	
1.750	-0.078	-0.345	
1.755	-0.419	-0.315	
1.760	-0.425	-0.304	
1.765	-0.079	-0.305	
1.770	-0.294	-0.289	
1.775	-0.471	-0.281	
1.780	-0.073	-0.285	
1.785	-0.029	-0.265	
1.790	-0.374	-0.229	
1.795	-0.098	-0.210	
1.800	0.320	-0.173	
1.805	-0.256	-0.110	
1.810	-0.200	-0.076	
1.815	0.501	-0.053	
1.820	0.097	0.010	
1.825	-0.125	0.065	
1.830	0.509	0.097	
1.835	0.463	0.157	
1.840	-0.127	0.218	
1.845	0.186	0.226	
1.850	0.567	0.226	
1.855	-0.131	0.239	
1.860	-0.124	0.210	
1.865	0.462	0.160	
1.870	-0.024	0.142	
1.875	-0.294	0.113	
1.880	0.180	0.057	
1.885	0.175	0.031	
1.890	-0.217	0.026	
1.895	0.380	0.025	
1.900	1.096	0.095	
1.905	0.491	0.254	
1.910	0.436	0.401	
1.915	0.465	0.483	
1.920	-0.567	0.472	
1.925	-0.993	0.302	
1.930	-0.874	0.005	
1.935	-0.857	-0.308	
1.940	-0.993	-0.570	
1.945	-0.550	-0.750	
1.950	-0.146	-0.804	
1.955	-0.427	-0.740	
1.960	-0.249	-0.630	
1.965	0.454	-0.481	
1.970	0.047	-0.287	
1.975	-0.130	-0.119	
1.980	0.588	0.003	
1.985	0.576	0.137	
1.990	-0.024	0.257	
1.995	0.497	0.316	
2.000	0.912	0.373	
2.005	0.212	0.449	
2.010	0.319	0.480	
2.015	1.087	0.496	
2.020	0.622	0.556	
2.025	0.340	0.606	
2.030	1.136	0.631	
2.035	1.143	0.700	
2.040	0.619	0.792	
2.045	1.210	0.856	
2.050	1.655	0.946	
2.055	0.846	1.064	
2.060	0.912	1.122	
2.065	1.538	1.137	
2.070	0.875	1.159	
2.075	0.348	1.124	
2.080	0.892	1.013	
2.085	0.611	0.898	
2.090	-0.160	0.766	
2.095	0.011	0.573	
2.100	0.149	0.373	
2.105	-0.383	0.203	
2.110	-0.403	0.034	
2.115	-0.101	-0.114	
2.120	-0.453	-0.215	
2.125	-0.636	-0.301	
2.130	-0.273	-0.379	
2.135	-0.306	-0.417	
2.140	-0.604	-0.427	
2.145	-0.337	-0.439	
2.150	-0.107	-0.427	
2.155	-0.479	-0.390	
2.160	-0.421	-0.369	
2.165	-0.029	-0.352	
2.170	-0.291	-0.315	
2.175	-0.438	-0.287	
2.180	-0.011	-0.274	
2.185	-0.096	-0.243	
2.190	-0.427	-0.212	
2.195	-0.192	-0.210	
2.200	0.009	-0.208	
2.205	-0.409	-0.195	
2.210	-0.329	-0.205	
2.215	0.097	-0.217	
2.220	-0.238	-0.200	
2.225	-0.343	-0.188	
2.230	0.190	-0.181	
2.235	0.107	-0.138	
2.240	-0.323	-0.087	
2.245	0.015	-0.071	
2.250	0.390	-0.045	
2.255	-0.253	0.001	
2.260	-0.149	0.011	
2.265	0.547	0.014	
2.270	-0.035	0.055	
2.275	-0.241	0.075	
2.280	0.268	0.060	
2.285	0.151	0.062	
2.290	-0.319	0.063	
2.295	-0.029	0.028	
2.300	0.309	0.003	
2.305	-0.235	0.006	
2.310	-0.157	-0.008	
2.315	0.439	-0.019	
2.320	-0.018	0.012	
2.325	-0.148	0.037	
2.330	0.610	0.056	
2.335	0.715	0.137	
2.340	0.302	0.260	
2.345	0.873	0.373	
2.350	0.986	0.500	
2.355	-0.267	0.589	
2.360	-0.642	0.516	
2.365	-0.611	0.285	
2.370	-0.909	-0.010	
2.375	-0.939	-0.308	
2.380	-0.393	-0.544	
2.385	-0.215	-0.650	
2.390	-0.340	-0.635	
2.395	0.212	-0.543	
2.400	0.721	-0.360	
2.405	0.117	-0.122	
2.410	0.279	0.075	
2.415	0.873	0.229	
2.420	0.424	0.376	
2.425	0.236	0.469	
2.430	1.050	0.518	
2.435	0.905	0.596	
2.440	0.268	0.669	
2.445	0.866	0.688	
2.450	1.178	0.717	
2.455	0.477	0.769	
2.460	0.759	0.787	
2.465	1.480	0.810	
2.470	0.977	0.889	
2.475	0.803	0.959	
2.480	1.590	1.009	
2.485	1.511	1.101	
2.490	0.889	1.197	
2.495	1.479	1.243	
2.500	1.706	1.292	
2.505	0.863	1.344	
2.510	0.849	1.318	
2.515	1.309	1.241	
2.520	0.537	1.159	
2.525	0.059	1.017	
2.530	0.605	0.818	
2.535	0.218	0.638	
2.540	-0.302	0.465	
2.545	-0.061	0.274	
2.550	0.017	0.111	
2.555	-0.456	-0.012	
2.560	-0.416	-0.131	
2.565	-0.105	-0.230	
2.570	-0.421	-0.284	
2.575	-0.569	-0.328	
2.580	-0.227	-0.372	
2.585	-0.279	-0.385	
2.590	-0.599	-0.384	
2.595	-0.291	-0.394	
2.600	-0.148	-0.388	
2.605	-0.534	-0.365	
2.610	-0.424	-0.362	
2.615	-0.067	-0.360	
2.620	-0.342	-0.335	
2.625	-0.492	-0.318	
2.630	-0.067	-0.315	
2.635	-0.212	-0.294	
2.640	-0.480	-0.274	
2.645	-0.127	-0.274	
2.650	0.133	-0.251	
2.655	-0.331	-0.202	
2.660	-0.242	-0.177	
2.665	0.187	-0.160	
2.670	-0.194	-0.126	
2.675	-0.290	-0.108	
2.680	0.224	-0.105	
2.685	0.075	-0.073	
2.690	-0.229	-0.037	
2.695	0.216	-0.021	
2.700	0.375	0.018	
2.705	-0.215	0.069	
2.710	-0.073	0.075	
2.715	0.424	0.067	
2.720	-0.140	0.080	
2.725	-0.297	0.064	
2.730	0.123	0.017	
2.735	-0.075	-0.016	
2.740	-0.390	-0.048	
2.745	-0.093	-0.099	
2.750	0.128	-0.126	
2.755	-0.366	-0.126	
2.760	-0.217	-0.140	
2.765	0.395	-0.140	
2.770	0.111	-0.083	
2.775	0.264	0.002	
2.780	1.363	0.135	
2.785	1.197	0.369	
2.790	0.055	0.592	
2.795	-0.195	0.643	
2.800	-0.515	0.511	
2.805	-0.994	0.249	
2.810	-0.936	-0.085	
2.815	-0.486	-0.388	
2.820	-0.566	-0.579	
2.825	-0.467	-0.663	
2.830	0.169	-0.643	
2.835	0.133	-0.514	
2.840	-0.185	-0.345	
2.845	0.348	-0.192	
2.850	0.677	-0.027	
2.855	0.021	0.138	
2.860	0.311	0.242	
2.865	1.017	0.325	
2.870	0.430	0.433	
2.875	0.261	0.506	
2.880	1.081	0.541	
2.885	0.884	0.612	
2.890	0.209	0.674	
2.895	0.831	0.679	
2.900	1.116	0.694	
2.905	0.405	0.733	
2.910	0.665	0.737	
2.915	1.454	0.750	
2.920	0.905	0.824	
2.925	0.735	0.893	
2.930	1.505	0.941	
2.935	1.230	1.021	
2.940	0.463	1.076	
2.945	0.994	1.050	
2.950	1.091	1.007	
2.955	0.158	0.953	
2.960	0.236	0.827	
2.965	0.674	0.673	
2.970	-0.093	0.541	
2.975	-0.337	0.384	
2.980	-0.012	0.200	
2.985	-0.210	0.046	
2.990	-0.581	-0.085	
2.995	-0.328	-0.212	
3.000	-0.259	-0.305	
3.005	-0.717	-0.366	
3.010	-0.576	-0.433	
3.015	-0.276	-0.485	
3.020	-0.569	-0.500	
3.025	-0.643	-0.509	
3.030	-0.274	-0.518	
3.035	-0.404	-0.501	
3.040	-0.656	-0.480	
3.045	-0.325	-0.475	
3.050	-0.218	-0.456	
3.055	-0.585	-0.424	
3.060	-0.442	-0.415	
3.065	-0.122	-0.407	
3.070	-0.486	-0.382	
3.075	-0.552	-0.375	
3.080	-0.130	-0.382	
3.085	-0.232	-0.363	
3.090	-0.500	-0.337	
3.095	-0.201	-0.328	
3.100	-0.111	-0.310	
3.105	-0.492	-0.286	
3.110	-0.364	-0.289	
3.115	-0.073	-0.297	
3.120	-0.421	-0.289	
3.125	-0.457	-0.295	
3.130	-0.024	-0.306	
3.135	-0.247	-0.290	
3.140	-0.535	-0.277	
3.145	-0.238	-0.291	
3.150	-0.134	-0.298	
3.155	-0.553	-0.294	
3.160	-0.439	-0.316	
3.165	-0.212	-0.344	
3.170	-0.540	-0.359	
3.175	-0.601	-0.388	
3.180	-0.230	-0.421	
3.185	-0.370	-0.426	
3.190	-0.624	-0.423	
3.195	-0.285	-0.432	
3.200	-0.108	-0.416	
3.205	-0.357	-0.371	
3.210	-0.029	-0.320	
3.215	0.855	-0.215	
3.220	0.268	-0.034	
3.225	-0.139	0.119	
3.230	-0.127	0.166	
3.235	-0.630	0.111	
3.240	-0.994	-0.046	
3.245	-0.823	-0.273	
3.250	-0.585	-0.484	
3.255	-0.735	-0.624	
3.260	-0.370	-0.689	
3.265	0.235	-0.652	
3.270	-0.114	-0.514	
3.275	-0.122	-0.356	
3.280	0.631	-0.201	
3.285	0.466	-0.013	
3.290	0.068	0.157	
3.295	0.729	0.273	
3.300	0.811	0.388	
3.305	0.084	0.485	
3.310	0.489	0.511	
3.315	1.117	0.530	
3.320	0.526	0.591	
3.325	0.344	0.628	
3.330	1.108	0.638	
3.335	0.883	0.684	
3.340	0.410	0.732	
3.345	1.035	0.746	
3.350	1.264	0.789	
3.355	0.596	0.856	
3.360	0.988	0.890	
3.365	1.500	0.930	
3.370	0.823	1.000	
3.375	0.686	1.027	
3.380	1.384	1.016	
3.385	0.966	1.027	
3.390	0.203	1.005	
3.395	0.602	0.900	
3.400	0.594	0.775	
3.405	-0.192	0.644	
3.410	-0.084	0.466	
3.415	0.114	0.282	
3.420	-0.323	0.131	
3.425	-0.375	-0.009	
3.430	-0.064	-0.129	
3.435	-0.273	-0.200	
3.440	-0.526	-0.250	
3.445	-0.212	-0.300	
3.450	-0.136	-0.319	
3.455	-0.503	-0.315	
3.460	-0.332	-0.323	
3.465	-0.021	-0.322	
3.470	-0.366	-0.296	
3.475	-0.403	-0.282	
3.480	-0.035	-0.279	
3.485	-0.177	-0.256	
3.490	-0.374	-0.232	
3.495	-0.020	-0.222	
3.500	0.158	-0.187	
3.505	-0.346	-0.138	
3.510	-0.191	-0.122	
3.515	0.247	-0.113	
3.520	-0.200	-0.084	
3.525	-0.204	-0.070	
3.530	0.370	-0.061	
3.535	0.056	-0.018	
3.540	-0.220	0.018	
3.545	0.277	0.028	
3.550	0.413	0.062	
3.555	-0.209	0.109	
3.560	-0.027	0.110	
3.565	0.471	0.100	
3.570	-0.116	0.113	
3.575	-0.136	0.104	
3.580	0.498	0.085	
3.585	0.068	0.103	
3.590	-0.313	0.108	
3.595	0.015	0.065	
3.600	0.158	0.027	
3.605	-0.331	0.003	
3.610	-0.151	-0.040	
3.615	0.271	-0.070	
3.620	-0.169	-0.062	
3.625	-0.178	-0.058	
3.630	0.415	-0.050	
3.635	0.238	0.004	
3.640	-0.035	0.069	
3.645	0.776	0.132	
3.650	1.015	0.255	
3.655	0.181	0.407	
3.660	-0.031	0.468	
3.665	-0.183	0.409	
3.670	-0.768	0.251	
3.675	-0.857	0.008	
3.680	-0.425	-0.247	
3.685	-0.427	-0.426	
3.690	-0.460	-0.515	
3.695	0.130	-0.520	
3.700	0.372	-0.419	
3.705	-0.160	-0.259	
3.710	0.180	-0.122	
3.715	0.788	0.014	
3.720	0.198	0.168	
3.725	0.165	0.275	
3.730	0.962	0.346	
3.735	0.680	0.444	
3.740	0.137	0.524	
3.745	0.858	0.550	
3.750	0.957	0.591	
3.755	0.198	0.640	
3.760	0.680	0.639	
3.765	1.238	0.650	
3.770	0.585	0.708	
3.775	0.532	0.741	
3.780	1.351	0.759	
3.785	1.047	0.826	
3.790	0.628	0.894	
3.795	1.325	0.930	
3.800	1.460	0.994	
3.805	0.619	1.067	
3.810	0.904	1.072	
3.815	1.405	1.054	
3.820	0.697	1.054	
3.825	0.381	1.006	
3.830	0.915	0.906	
3.835	0.462	0.813	
3.840	-0.102	0.698	
3.845	0.303	0.538	
3.850	0.268	0.396	
3.855	-0.300	0.278	
3.860	-0.148	0.146	
3.865	0.213	0.037	
3.870	-0.276	-0.024	
3.875	-0.325	-0.080	
3.880	0.163	-0.128	
3.885	-0.105	-0.132	
3.890	-0.366	-0.129	
3.895	0.026	-0.142	
3.900	-0.043	-0.138	
3.905	-0.389	-0.131	
3.910	-0.175	-0.150	
3.915	0.212	-0.156	
3.920	-0.256	-0.130	
3.925	-0.284	-0.120	
3.930	0.160	-0.124	
3.935	-0.110	-0.106	
3.940	-0.345	-0.097	
3.945	0.076	-0.107	
3.950	0.215	-0.092	
3.955	-0.265	-0.056	
3.960	-0.066	-0.046	
3.965	0.328	-0.035	
3.970	-0.195	-0.006	
3.975	-0.178	-0.001	
3.980	0.447	-0.003	
3.985	0.117	0.034	
3.990	-0.212	0.068	
3.995	0.236	0.069	
4.000	0.262	0.081	
4.005	-0.291	0.093	
4.010	-0.130	0.062	
4.015	0.248	0.021	
4.020	-0.255	0.002	
4.025	-0.305	-0.034	
4.030	0.116	-0.080	
4.035	-0.165	-0.099	
4.040	-0.393	-0.118	
4.045	-0.041	-0.151	
4.050	-0.018	-0.162	
4.055	-0.375	-0.159	
4.060	-0.098	-0.168	
4.065	0.495	-0.145	
4.070	0.107	-0.061	
4.075	0.218	0.035	
4.080	0.866	0.140	
4.085	0.296	0.270	
4.090	-0.319	0.336	
4.095	-0.300	0.277	
4.100	-0.500	0.132	
4.105	-0.849	-0.063	
4.110	-0.581	-0.276	
4.115	-0.235	-0.433	
4.120	-0.377	-0.496	
4.125	-0.213	-0.491	
4.130	0.477	-0.413	
4.135	0.171	-0.257	
4.140	-0.070	-0.098	
4.145	0.631	0.029	
4.150	0.617	0.169	
4.155	0.003	0.293	
4.160	0.439	0.349	
4.165	0.838	0.392	
4.170	0.213	0.448	
4.175	0.215	0.461	
4.180	0.898	0.453	
4.185	0.585	0.486	
4.190	0.236	0.518	
4.195	0.944	0.531	
4.200	0.979	0.582	
4.205	0.294	0.648	
4.210	0.747	0.667	
4.215	1.219	0.692	
4.220	0.559	0.750	
4.225	0.585	0.774	
4.230	1.242	0.781	
4.235	0.784	0.818	
4.240	0.306	0.829	
4.245	0.858	0.785	
4.250	0.738	0.746	
4.255	-0.066	0.694	
4.260	0.064	0.571	
4.265	0.352	0.424	
4.270	-0.250	0.298	
4.275	-0.303	0.160	
4.280	0.064	0.026	
4.285	-0.268	-0.065	
4.290	-0.515	-0.144	
4.295	-0.227	-0.226	
4.300	-0.232	-0.280	
4.305	-0.604	-0.315	
4.310	-0.435	-0.360	
4.315	-0.236	-0.395	
4.320	-0.543	-0.406	
4.325	-0.488	-0.420	
4.330	-0.175	-0.428	
4.335	-0.416	-0.410	
4.340	-0.531	-0.397	
4.345	-0.119	-0.391	
4.350	-0.053	-0.354	
4.355	-0.447	-0.301	
4.360	-0.217	-0.273	
4.365	0.201	-0.241	
4.370	-0.282	-0.185	
4.375	-0.195	-0.149	
4.380	0.364	-0.118	
4.385	-0.027	-0.058	
4.390	-0.210	-0.013	
4.395	0.322	0.006	
4.400	0.326	0.049	
4.405	-0.229	0.095	
4.410	0.018	0.095	
4.415	0.503	0.092	
4.420	-0.098	0.116	
4.425	-0.055	0.118	
4.430	0.594	0.115	
4.435	0.052	0.147	
4.440	-0.192	0.159	
4.445	0.267	0.133	
4.450	0.172	0.119	
4.455	-0.320	0.103	
4.460	-0.114	0.050	
4.465	0.134	-0.005	
4.470	-0.308	-0.038	
4.475	-0.270	-0.082	
4.480	0.172	-0.120	
4.485	-0.194	-0.122	
4.490	-0.349	-0.126	
4.495	0.174	-0.138	
4.500	0.401	-0.100	
4.505	-0.101	-0.023	
4.510	0.154	0.036	
4.515	0.259	0.080	
4.520	-0.596	0.090	
4.525	-0.927	-0.007	
4.530	-0.813	-0.204	
4.535	-0.988	-0.427	
4.540	-0.994	-0.632	
4.545	-0.518	-0.778	
4.550	-0.407	-0.818	
4.555	-0.643	-0.778	
4.560	-0.366	-0.710	
4.565	-0.136	-0.615	
4.570	-0.468	-0.506	
4.575	-0.378	-0.426	
4.580	0.093	-0.360	
4.585	-0.191	-0.279	
4.590	-0.337	-0.216	
4.595	0.131	-0.180	
4.600	0.131	-0.126	
4.605	-0.268	-0.070	
4.610	0.078	-0.045	
4.615	0.501	-0.007	
4.620	-0.093	0.059	
4.625	0.030	0.097	
4.630	0.849	0.135	
4.635	0.524	0.233	
4.640	0.268	0.338	
4.645	1.035	0.424	
4.650	1.061	0.545	
4.655	0.472	0.671	
4.660	0.916	0.744	
4.665	1.078	0.799	
4.670	0.363	0.837	
4.675	0.361	0.801	
4.680	0.922	0.728	
4.685	0.344	0.676	
4.690	-0.114	0.594	
4.695	0.346	0.466	
4.700	0.146	0.350	
4.705	-0.320	0.243	
4.710	-0.128	0.117	
4.715	0.072	0.010	
4.720	-0.370	-0.061	
4.725	-0.328	-0.130	
4.730	0.055	-0.185	
4.735	-0.261	-0.200	
4.740	-0.393	-0.210	
4.745	-0.060	-0.228	
4.750	-0.122	-0.223	
4.755	-0.427	-0.214	
4.760	-0.145	-0.221	
4.765	0.155	-0.210	
4.770	-0.235	-0.169	
4.775	-0.175	-0.140	
4.780	0.416	-0.108	
4.785	0.047	-0.040	
4.790	-0.093	0.020	
4.795	0.669	0.071	
4.800	0.674	0.171	
4.805	0.169	0.289	
4.810	0.797	0.378	
4.815	1.274	0.492	
4.820	0.773	0.647	
4.825	0.962	0.778	
4.830	1.695	0.902	
4.835	1.291	1.057	
4.840	1.053	1.184	
4.845	1.895	1.272	
4.850	2.059	1.399	
4.855	1.438	1.547	
4.860	1.904	1.650	
4.865	2.197	1.739	
4.870	1.357	1.815	
4.875	1.297	1.804	
4.880	1.814	1.732	
4.885	1.206	1.659	
4.890	0.840	1.551	
4.895	1.529	1.416	
4.900	1.375	1.331	
4.905	0.515	1.265	
4.910	1.052	1.158	
4.915	1.535	1.084	
4.920	0.843	1.076	
4.925	1.287	1.082	
4.930	2.313	1.149	
4.935	1.848	1.328	
4.940	1.352	1.511	
4.945	1.340	1.594	
4.950	0.238	1.537	
4.955	-0.537	1.285	
4.960	-0.383	0.867	
4.965	-0.133	0.436	
4.970	-0.268	0.101	
4.975	0.142	-0.107	
4.980	1.127	-0.137	
4.985	0.762	0.020	
4.990	0.501	0.238	
4.995	1.253	0.441	
5.000	1.151	0.651	
5.005	0.462	0.820	
5.010	0.930	0.890	
5.015	1.245	0.925	
5.020	0.472	0.951	
5.025	0.596	0.917	
5.030	1.166	0.861	
5.035	0.655	0.841	
5.040	0.334	0.805	
5.045	1.069	0.749	
5.050	0.953	0.741	
5.055	0.290	0.751	
5.060	0.774	0.724	
5.065	1.061	0.711	
5.070	0.253	0.718	
5.075	0.495	0.685	
5.080	1.154	0.652	
5.085	0.520	0.669	
5.090	0.078	0.659	
5.095	0.614	0.592	
5.100	0.273	0.522	
5.105	-0.355	0.429	
5.110	-0.247	0.272	
5.115	-0.242	0.095	
5.120	-0.750	-0.079	
5.125	-0.808	-0.267	
5.130	-0.598	-0.447	
5.135	-0.938	-0.589	
5.140	-0.994	-0.710	
5.145	-0.871	-0.813	
5.150	-0.980	-0.886	
5.155	-0.993	-0.934	
5.160	-0.994	-0.968	
5.165	-0.979	-0.989	
5.170	-0.994	-0.999	
5.175	-0.994	-1.002	
5.180	-0.890	-0.997	
5.185	-0.993	-0.985	
5.190	-0.994	-0.975	
5.195	-0.864	-0.968	
5.200	-0.851	-0.951	
5.205	-0.994	-0.931	
5.210	-0.765	-0.916	
5.215	-0.607	-0.884	
5.220	-0.910	-0.838	
5.225	-0.793	-0.810	
5.230	-0.427	-0.781	
5.235	-0.634	-0.728	
5.240	-0.735	-0.680	
5.245	-0.355	-0.644	
5.250	-0.386	-0.592	
5.255	-0.636	-0.539	
5.260	-0.320	-0.504	
5.265	-0.114	-0.458	
5.270	-0.456	-0.398	
5.275	-0.352	-0.358	
5.280	0.073	-0.323	
5.285	-0.262	-0.267	
5.290	-0.392	-0.230	
5.295	0.001	-0.217	
5.300	-0.133	-0.195	
5.305	-0.468	-0.182	
5.310	-0.197	-0.200	
5.315	-0.064	-0.215	
5.320	-0.399	-0.216	
5.325	-0.268	-0.229	
5.330	0.177	-0.228	
5.335	-0.218	-0.192	
5.340	-0.303	-0.164	
5.345	0.372	-0.142	
5.350	0.541	-0.059	
5.355	0.322	0.075	
5.360	1.101	0.232	
5.365	1.236	0.440	
5.370	-0.104	0.621	
5.375	-0.496	0.620	
5.380	-0.508	0.431	
5.385	-0.874	0.149	
5.390	-0.909	-0.163	
5.395	-0.435	-0.431	
5.400	-0.249	-0.577	
5.405	-0.415	-0.604	
5.410	0.067	-0.553	
5.415	0.565	-0.412	
5.420	-0.066	-0.215	
5.425	0.140	-0.052	
5.430	0.857	0.088	
5.435	0.399	0.244	
5.440	0.203	0.361	
5.445	0.962	0.434	
5.450	0.834	0.526	
5.455	0.273	0.608	
5.460	0.841	0.639	
5.465	1.096	0.677	
5.470	0.412	0.730	
5.475	0.660	0.740	
5.480	1.386	0.752	
5.485	0.881	0.818	
5.490	0.762	0.880	
5.495	1.518	0.929	
5.500	1.399	1.022	
5.505	0.869	1.118	
5.510	1.361	1.166	
5.515	1.595	1.214	
5.520	0.870	1.264	
5.525	0.951	1.253	
5.530	1.430	1.210	
5.535	0.698	1.174	
5.540	0.233	1.080	
5.545	0.691	0.921	
5.550	0.303	0.761	
5.555	-0.239	0.591	
5.560	0.008	0.390	
5.565	-0.021	0.208	
5.570	-0.456	0.058	
5.575	-0.410	-0.089	
5.580	-0.146	-0.210	
5.585	-0.444	-0.284	
5.590	-0.543	-0.341	
5.595	-0.166	-0.384	
5.600	-0.265	-0.387	
5.605	-0.544	-0.374	
5.610	-0.256	-0.373	
5.615	-0.114	-0.358	
5.620	-0.439	-0.327	
5.625	-0.374	-0.314	
5.630	-0.006	-0.305	
5.635	-0.311	-0.277	
5.640	-0.444	-0.261	
5.645	-0.037	-0.262	
5.650	-0.116	-0.243	
5.655	-0.392	-0.220	
5.660	-0.073	-0.213	
5.665	0.154	-0.187	
5.670	-0.288	-0.143	
5.675	-0.168	-0.122	
5.680	0.358	-0.101	
5.685	-0.101	-0.052	
5.690	-0.195	-0.020	
5.695	0.375	-0.006	
5.700	0.172	0.036	
5.705	-0.201	0.074	
5.710	0.258	0.080	
5.715	0.389	0.101	
5.720	-0.195	0.131	
5.725	-0.117	0.116	
5.730	0.309	0.082	
5.735	-0.185	0.065	
5.740	-0.285	0.028	
5.745	0.215	-0.020	
5.750	-0.014	-0.034	
5.755	-0.314	-0.040	
5.760	0.014	-0.065	
5.765	0.264	-0.066	
5.770	-0.163	-0.037	
5.775	0.093	-0.015	
5.780	1.001	0.046	
5.785	0.782	0.201	
5.790	0.718	0.391	
5.795	1.194	0.570	
5.800	0.180	0.704	
5.805	-0.678	0.681	
5.810	-0.657	0.459	
5.815	-0.589	0.146	
5.820	-0.794	-0.156	
5.825	-0.442	-0.397	
5.830	0.187	-0.511	
5.835	-0.044	-0.478	
5.840	0.076	-0.365	
5.845	0.988	-0.192	
5.850	0.837	0.062	
5.855	0.369	0.315	
5.860	1.107	0.505	
5.865	1.439	0.691	
5.870	0.666	0.869	
5.875	0.930	0.967	
5.880	1.529	1.024	
5.885	0.890	1.088	
5.890	0.770	1.107	
5.895	1.564	1.096	
5.900	1.297	1.128	
5.905	0.750	1.162	
5.910	1.430	1.160	
5.915	1.686	1.189	
5.920	0.919	1.247	
5.925	1.252	1.266	
5.930	1.922	1.289	
5.935	1.308	1.357	
5.940	1.113	1.401	
5.945	1.840	1.412	
5.950	1.358	1.441	
5.955	0.584	1.426	
5.960	1.087	1.322	
5.965	1.043	1.203	
5.970	0.073	1.072	
5.975	0.061	0.867	
5.980	0.293	0.629	
5.985	-0.291	0.412	
5.990	-0.459	0.195	
5.995	-0.149	-0.011	
6.000	-0.305	-0.159	
6.005	-0.607	-0.265	
6.010	-0.346	-0.355	
6.015	-0.273	-0.406	
6.020	-0.648	-0.427	
6.025	-0.514	-0.455	
6.030	-0.238	-0.473	
6.035	-0.550	-0.465	
6.040	-0.634	-0.467	
6.045	-0.264	-0.478	
6.050	-0.392	-0.466	
6.055	-0.621	-0.452	
6.060	-0.271	-0.449	
6.065	-0.182	-0.427	
6.070	-0.567	-0.393	
6.075	-0.421	-0.383	
6.080	-0.093	-0.377	
6.085	-0.390	-0.351	
6.090	-0.433	-0.333	
6.095	-0.003	-0.321	
6.100	-0.134	-0.283	
6.105	-0.399	-0.242	
6.110	-0.012	-0.221	
6.115	0.201	-0.181	
6.120	-0.345	-0.125	
6.125	-0.197	-0.106	
6.130	0.293	-0.098	
6.135	-0.166	-0.066	
6.140	-0.218	-0.049	
6.145	0.375	-0.043	
6.150	0.047	-0.005	
6.155	-0.300	0.022	
6.160	0.023	0.007	
6.165	0.165	-0.006	
6.170	-0.355	-0.011	
6.175	-0.223	-0.047	
6.180	0.181	-0.085	
6.185	-0.284	-0.094	
6.190	-0.374	-0.117	
6.195	0.023	-0.153	
6.200	-0.142	-0.164	
6.205	-0.401	-0.170	
6.210	0.145	-0.178	
6.215	0.668	-0.124	
6.220	0.223	0.004	
6.225	0.630	0.147	
6.230	0.947	0.302	
6.235	-0.253	0.427	
6.240	-0.791	0.394	
6.245	-0.729	0.186	
6.250	-0.910	-0.096	
6.255	-0.993	-0.380	
6.260	-0.560	-0.609	
6.265	-0.288	-0.720	
6.270	-0.486	-0.717	
6.275	-0.220	-0.651	
6.280	0.325	-0.526	
6.285	-0.127	-0.354	
6.290	-0.159	-0.208	
6.295	0.508	-0.095	
6.300	0.290	0.031	
6.305	-0.108	0.133	
6.310	0.515	0.185	
6.315	0.684	0.251	
6.320	0.000	0.324	
6.325	0.320	0.346	
6.330	0.831	0.361	
6.335	0.134	0.400	
6.340	0.056	0.398	
6.345	0.866	0.375	
6.350	0.637	0.406	
6.355	0.187	0.454	
6.360	0.977	0.486	
6.365	1.213	0.566	
6.370	0.498	0.681	
6.375	0.869	0.754	
6.380	1.422	0.820	
6.385	0.692	0.904	
6.390	0.476	0.930	
6.395	1.050	0.895	
6.400	0.608	0.860	
6.405	-0.008	0.788	
6.410	0.471	0.656	
6.415	0.401	0.532	
6.420	-0.310	0.417	
6.425	-0.242	0.262	
6.430	0.011	0.102	
6.435	-0.410	-0.025	
6.440	-0.515	-0.144	
6.445	-0.154	-0.250	
6.450	-0.284	-0.306	
6.455	-0.515	-0.335	
6.460	-0.217	-0.358	
6.465	-0.142	-0.353	
6.470	-0.448	-0.330	
6.475	-0.310	-0.319	
6.480	-0.067	-0.308	
6.485	-0.364	-0.282	
6.490	-0.392	-0.273	
6.495	0.050	-0.268	
6.500	-0.227	-0.240	
6.505	-0.453	-0.222	
6.510	-0.096	-0.229	
6.515	0.014	-0.219	
6.520	-0.372	-0.194	
6.525	-0.197	-0.189	
6.530	0.169	-0.179	
6.535	-0.178	-0.143	
6.540	-0.239	-0.118	
6.545	0.244	-0.104	
6.550	-0.009	-0.066	
6.555	-0.250	-0.037	
6.560	0.186	-0.030	
6.565	0.229	-0.005	
6.570	-0.300	0.024	
6.575	-0.110	0.011	
6.580	0.393	-0.003	
6.585	-0.156	0.015	
6.590	-0.209	0.015	
6.595	0.204	-0.005	
6.600	-0.130	-0.010	
6.605	-0.386	-0.032	
6.610	-0.027	-0.079	
6.615	0.049	-0.106	
6.620	-0.352	-0.113	
6.625	-0.171	-0.133	
6.630	0.204	-0.141	
6.635	-0.273	-0.121	
6.640	-0.325	-0.119	
6.645	0.335	-0.124	
6.650	0.340	-0.071	
6.655	0.175	0.023	
6.660	0.965	0.141	
6.665	0.921	0.313	
6.670	-0.256	0.457	
6.675	-0.573	0.436	
6.680	-0.630	0.252	
6.685	-0.988	-0.016	
6.690	-0.912	-0.307	
6.695	-0.357	-0.539	
6.700	-0.294	-0.643	
6.705	-0.360	-0.635	
6.710	0.107	-0.556	
6.715	0.373	-0.404	
6.720	-0.133	-0.222	
6.725	0.184	-0.077	
6.730	0.765	0.054	
6.735	0.151	0.195	
6.740	0.102	0.282	
6.745	0.893	0.330	
6.750	0.547	0.406	
6.755	0.085	0.463	
6.760	0.770	0.475	
6.765	0.854	0.507	
6.770	0.194	0.553	
6.775	0.512	0.554	
6.780	0.966	0.553	
6.785	0.456	0.584	
6.790	0.543	0.604	
6.795	1.308	0.633	
6.800	1.046	0.725	
6.805	0.701	0.825	
6.810	1.422	0.901	
6.815	1.511	1.005	
6.820	0.756	1.111	
6.825	1.029	1.145	
6.830	1.337	1.142	
6.835	0.453	1.121	
6.840	0.251	1.019	
6.845	0.712	0.858	
6.850	0.130	0.704	
6.855	-0.281	0.530	
6.860	-0.034	0.325	
6.865	-0.075	0.145	
6.870	-0.496	-0.002	
6.875	-0.345	-0.139	
6.880	-0.124	-0.241	
6.885	-0.476	-0.296	
6.890	-0.521	-0.342	
6.895	-0.186	-0.380	
6.900	-0.367	-0.387	
6.905	-0.560	-0.387	
6.910	-0.247	-0.396	
6.915	-0.224	-0.386	
6.920	-0.558	-0.368	
6.925	-0.372	-0.370	
6.930	-0.104	-0.368	
6.935	-0.428	-0.345	
6.940	-0.393	-0.333	
6.945	-0.067	-0.325	
6.950	-0.285	-0.298	
6.955	-0.479	-0.282	
6.960	-0.098	-0.283	
6.965	-0.060	-0.266	
6.970	-0.433	-0.238	
6.975	-0.233	-0.234	
6.980	0.102	-0.226	
6.985	-0.282	-0.194	
6.990	-0.276	-0.177	
6.995	0.221	-0.164	
7.000	-0.101	-0.125	
7.005	-0.320	-0.096	
7.010	0.116	-0.093	
7.015	0.149	-0.072	
7.020	-0.284	-0.042	
7.025	-0.084	-0.043	
7.030	0.303	-0.042	
7.035	-0.210	-0.020	
7.040	-0.306	-0.024	
7.045	0.033	-0.059	
7.050	-0.246	-0.087	
7.055	-0.448	-0.127	
7.060	-0.114	-0.181	
7.065	-0.082	-0.209	
7.070	-0.438	-0.218	
7.075	-0.209	-0.235	
7.080	0.210	-0.230	
7.085	-0.130	-0.182	
7.090	0.075	-0.123	
7.095	1.145	-0.018	
7.100	0.895	0.188	
7.105	0.259	0.401	
7.110	0.123	0.503	
7.115	-0.448	0.463	
7.120	-0.993	0.277	
7.125	-0.950	-0.022	
7.130	-0.681	-0.330	
7.135	-0.840	-0.566	
7.140	-0.610	-0.715	
7.145	-0.044	-0.753	
7.150	-0.127	-0.671	
7.155	-0.239	-0.532	
7.160	0.343	-0.377	
7.165	0.425	-0.191	
7.170	-0.137	-0.016	
7.175	0.223	0.091	
7.180	0.767	0.176	
7.185	0.157	0.273	
7.190	0.108	0.326	
7.195	0.790	0.345	
7.200	0.410	0.388	
7.205	-0.009	0.411	
7.210	0.701	0.397	
7.215	0.784	0.417	
7.220	0.116	0.460	
7.225	0.646	0.473	
7.230	1.122	0.509	
7.235	0.515	0.590	
7.240	0.645	0.650	
7.245	1.389	0.707	
7.250	0.968	0.807	
7.255	0.538	0.885	
7.260	1.160	0.908	
7.265	1.090	0.934	
7.270	0.285	0.942	
7.275	0.547	0.874	
7.280	0.748	0.777	
7.285	-0.089	0.676	
7.290	-0.182	0.520	
7.295	0.145	0.333	
7.300	-0.229	0.174	
7.305	-0.462	0.028	
7.310	-0.165	-0.110	
7.315	-0.201	-0.203	
7.320	-0.555	-0.263	
7.325	-0.383	-0.322	
7.330	-0.162	-0.360	
7.335	-0.500	-0.368	
7.340	-0.474	-0.380	
7.345	-0.089	-0.386	
7.350	-0.308	-0.362	
7.355	-0.491	-0.339	
7.360	-0.107	-0.329	
7.365	-0.116	-0.302	
7.370	-0.453	-0.269	
7.375	-0.195	-0.259	
7.380	0.146	-0.239	
7.385	-0.317	-0.195	
7.390	-0.267	-0.172	
7.395	0.219	-0.158	
7.400	-0.127	-0.120	
7.405	-0.282	-0.094	
7.410	0.256	-0.084	
7.415	0.270	-0.040	
7.420	-0.210	0.016	
7.425	0.079	0.037	
7.430	0.469	0.060	
7.435	-0.095	0.103	
7.440	-0.055	0.115	
7.445	0.601	0.118	
7.450	0.180	0.159	
7.455	-0.090	0.190	
7.460	0.565	0.196	
7.465	0.488	0.234	
7.470	-0.110	0.275	
7.475	0.187	0.265	
7.480	0.550	0.249	
7.485	-0.131	0.249	
7.490	-0.117	0.211	
7.495	0.486	0.158	
7.500	0.091	0.147	
7.505	-0.154	0.138	
7.510	0.427	0.118	
7.515	0.451	0.139	
7.520	-0.029	0.184	
7.525	0.654	0.220	
7.530	1.317	0.317	
7.535	0.809	0.496	
7.540	0.726	0.661	
7.545	0.803	0.761	
7.550	-0.291	0.764	
7.555	-0.810	0.598	
7.560	-0.608	0.289	
7.565	-0.544	-0.034	
7.570	-0.648	-0.295	
7.575	-0.212	-0.464	
7.580	0.410	-0.492	
7.585	-0.026	-0.388	
7.590	0.169	-0.241	
7.595	0.959	-0.065	
7.600	0.581	0.156	
7.605	0.279	0.347	
7.610	0.966	0.474	
7.615	0.976	0.596	
7.620	0.370	0.698	
7.625	0.794	0.735	
7.630	1.162	0.761	
7.635	0.465	0.799	
7.640	0.567	0.793	
7.645	1.252	0.775	
7.650	0.829	0.803	
7.655	0.512	0.827	
7.660	1.174	0.825	
7.665	1.175	0.858	
7.670	0.614	0.907	
7.675	1.139	0.927	
7.680	1.534	0.970	
7.685	0.861	1.046	
7.690	0.925	1.083	
7.695	1.506	1.096	
7.700	0.985	1.127	
7.705	0.469	1.117	
7.710	0.928	1.037	
7.715	0.663	0.944	
7.720	-0.142	0.822	
7.725	0.000	0.628	
7.730	0.111	0.415	
7.735	-0.418	0.225	
7.740	-0.427	0.036	
7.745	-0.182	-0.130	
7.750	-0.460	-0.245	
7.755	-0.650	-0.338	
7.760	-0.314	-0.416	
7.765	-0.342	-0.453	
7.770	-0.637	-0.463	
7.775	-0.471	-0.479	
7.780	-0.328	-0.486	
7.785	-0.656	-0.482	
7.790	-0.587	-0.494	
7.795	-0.241	-0.504	
7.800	-0.489	-0.488	
7.805	-0.659	-0.477	
7.810	-0.291	-0.480	
7.815	-0.264	-0.462	
7.820	-0.573	-0.433	
7.825	-0.335	-0.419	
7.830	-0.137	-0.398	
7.835	-0.448	-0.364	
7.840	-0.360	-0.344	
7.845	0.003	-0.324	
7.850	-0.264	-0.283	
7.855	-0.398	-0.254	
7.860	0.017	-0.240	
7.865	-0.011	-0.207	
7.870	-0.328	-0.167	
7.875	-0.061	-0.151	
7.880	0.305	-0.121	
7.885	-0.209	-0.069	
7.890	-0.124	-0.041	
7.895	0.407	-0.022	
7.900	-0.064	0.020	
7.905	-0.277	0.037	
7.910	0.207	0.020	
7.915	0.076	0.017	
7.920	-0.348	0.014	
7.925	-0.127	-0.025	
7.930	0.186	-0.059	
7.935	-0.288	-0.066	
7.940	-0.235	-0.087	
7.945	0.296	-0.102	
7.950	-0.124	-0.080	
7.955	-0.233	-0.063	
7.960	0.575	-0.044	
7.965	0.895	0.057	
7.970	0.587	0.233	
7.975	1.175	0.426	
7.980	1.171	0.631	
7.985	-0.227	0.768	
7.990	-0.668	0.696	
7.995	-0.593	0.432	
8.000	-0.877	0.097	
8.005	-0.892	-0.235	
8.010	-0.320	-0.493	
8.015	-0.142	-0.606	
8.020	-0.294	-0.591	
8.025	0.203	-0.499	
8.030	0.630	-0.327	
8.035	0.008	-0.115	
8.040	0.198	0.050	
8.045	0.915	0.182	
8.050	0.448	0.328	
8.055	0.241	0.434	
8.060	0.976	0.494	
8.065	0.896	0.575	
8.070	0.256	0.648	
8.075	0.771	0.665	
8.080	1.114	0.685	
8.085	0.405	0.725	
8.090	0.575	0.727	
8.095	1.267	0.724	
8.100	0.915	0.774	
8.105	0.634	0.828	
8.110	1.360	0.865	
8.115	1.334	0.940	
8.120	0.800	1.026	
8.125	1.189	1.069	
8.130	1.532	1.111	
8.135	0.742	1.156	
8.140	0.745	1.139	
8.145	1.258	1.081	
8.150	0.575	1.030	
8.155	0.076	0.930	
8.160	0.572	0.769	
8.165	0.238	0.615	
8.170	-0.300	0.460	
8.175	-0.092	0.278	
8.180	-0.002	0.115	
8.185	-0.465	-0.012	
8.190	-0.450	-0.136	
8.195	-0.178	-0.243	
8.200	-0.471	-0.310	
8.205	-0.593	-0.365	
8.210	-0.218	-0.411	
8.215	-0.279	-0.418	
8.220	-0.604	-0.408	
8.225	-0.348	-0.413	
8.230	-0.160	-0.406	
8.235	-0.502	-0.382	
8.240	-0.409	-0.372	
8.245	-0.070	-0.363	
8.250	-0.348	-0.332	
8.255	-0.476	-0.313	
8.260	-0.125	-0.312	
8.265	-0.162	-0.295	
8.270	-0.441	-0.273	
8.275	-0.168	-0.268	
8.280	0.049	-0.249	
8.285	-0.332	-0.213	
8.290	-0.291	-0.197	
8.295	0.084	-0.192	
8.300	-0.242	-0.171	
8.305	-0.372	-0.164	
8.310	0.040	-0.175	
8.315	-0.002	-0.161	
8.320	-0.291	-0.136	
8.325	0.023	-0.125	
8.330	0.306	-0.094	
8.335	-0.241	-0.043	
8.340	-0.180	-0.026	
8.345	0.271	-0.028	
8.350	-0.204	-0.017	
8.355	-0.386	-0.032	
8.360	0.011	-0.078	
8.365	-0.047	-0.106	
8.370	-0.409	-0.122	
8.375	-0.151	-0.155	
8.380	0.011	-0.174	
8.385	-0.404	-0.177	
8.390	-0.317	-0.196	
8.395	0.235	-0.207	
8.400	0.052	-0.165	
8.405	0.187	-0.089	
8.410	1.149	0.037	
8.415	0.977	0.252	
8.420	-0.125	0.449	
8.425	-0.329	0.481	
8.430	-0.546	0.347	
8.435	-0.993	0.105	
8.440	-0.906	-0.191	
8.445	-0.445	-0.452	
8.450	-0.459	-0.601	
8.455	-0.370	-0.643	
8.460	0.360	-0.584	
8.465	0.338	-0.415	
8.470	-0.114	-0.213	
8.475	0.447	-0.049	
8.480	0.745	0.111	
8.485	0.161	0.266	
8.490	0.483	0.365	
8.495	1.145	0.451	
8.500	0.535	0.563	
8.505	0.355	0.632	
8.510	1.145	0.660	
8.515	1.009	0.721	
8.520	0.372	0.780	
8.525	0.991	0.792	
8.530	1.352	0.823	
8.535	0.675	0.888	
8.540	0.896	0.922	
8.545	1.579	0.955	
8.550	1.108	1.034	
8.555	0.933	1.099	
8.560	1.576	1.139	
8.565	1.348	1.199	
8.570	0.681	1.236	
8.575	1.066	1.200	
8.580	1.178	1.145	
8.585	0.213	1.074	
8.590	0.200	0.925	
8.595	0.668	0.739	
8.600	-0.038	0.581	
8.605	-0.276	0.410	
8.610	0.023	0.225	
8.615	-0.178	0.073	
8.620	-0.550	-0.056	
8.625	-0.325	-0.183	
8.630	-0.215	-0.277	
8.635	-0.576	-0.334	
8.640	-0.550	-0.388	
8.645	-0.213	-0.431	
8.650	-0.511	-0.441	
8.655	-0.622	-0.450	
8.660	-0.265	-0.465	
8.665	-0.302	-0.453	
8.670	-0.541	-0.429	
8.675	-0.258	-0.414	
8.680	-0.108	-0.384	
8.685	-0.441	-0.340	
8.690	-0.314	-0.316	
8.695	0.076	-0.292	
8.700	-0.230	-0.244	
8.705	-0.326	-0.208	
8.710	0.192	-0.184	
8.715	0.043	-0.134	
8.720	-0.221	-0.082	
8.725	0.148	-0.053	
8.730	0.398	-0.007	
8.735	-0.194	0.052	
8.740	-0.044	0.069	
8.745	0.608	0.080	
8.750	0.046	0.127	
8.755	-0.087	0.155	
8.760	0.639	0.163	
8.765	0.425	0.212	
8.770	-0.162	0.258	
8.775	0.325	0.253	
8.780	0.601	0.254	
8.785	-0.124	0.272	
8.790	-0.014	0.247	
8.795	0.581	0.208	
8.800	-0.035	0.202	
8.805	-0.159	0.178	
8.810	0.386	0.135	
8.815	0.219	0.127	
8.820	-0.221	0.128	
8.825	0.192	0.103	
8.830	0.578	0.106	
8.835	0.037	0.152	
8.840	0.523	0.200	
8.845	1.258	0.295	
8.850	0.433	0.448	
8.855	-0.182	0.529	
8.860	-0.281	0.462	
8.865	-0.703	0.277	
8.870	-0.993	0.012	
8.875	-0.672	-0.276	
8.880	-0.352	-0.491	
8.885	-0.506	-0.593	
8.890	-0.224	-0.607	
8.895	0.428	-0.526	
8.900	-0.024	-0.361	
8.905	-0.137	-0.202	
8.910	0.613	-0.072	
8.915	0.450	0.076	
8.920	-0.090	0.200	
8.925	0.521	0.261	
8.930	0.848	0.326	
8.935	0.040	0.402	
8.940	0.267	0.420	
8.945	0.895	0.419	
8.950	0.233	0.447	
8.955	0.087	0.445	
8.960	0.877	0.421	
8.965	0.707	0.449	
8.970	0.175	0.494	
8.975	0.863	0.513	
8.980	1.108	0.567	
8.985	0.422	0.650	
8.990	0.758	0.696	
8.995	1.369	0.743	
9.000	0.756	0.825	
9.005	0.503	0.869	
9.010	1.122	0.864	
9.015	0.727	0.862	
9.020	0.021	0.822	
9.025	0.477	0.708	
9.030	0.509	0.590	
9.035	-0.226	0.481	
9.040	-0.206	0.332	
9.045	0.073	0.172	
9.050	-0.381	0.041	
9.055	-0.505	-0.086	
9.060	-0.178	-0.205	
9.065	-0.323	-0.281	
9.070	-0.653	-0.334	
9.075	-0.383	-0.391	
9.080	-0.258	-0.425	
9.085	-0.634	-0.433	
9.090	-0.511	-0.452	
9.095	-0.230	-0.464	
9.100	-0.529	-0.454	
9.105	-0.593	-0.452	
9.110	-0.224	-0.457	
9.115	-0.351	-0.439	
9.120	-0.604	-0.420	
9.125	-0.308	-0.419	
9.130	-0.220	-0.408	
9.135	-0.560	-0.387	
9.140	-0.404	-0.386	
9.145	-0.064	-0.380	
9.150	-0.357	-0.348	
9.155	-0.409	-0.323	
9.160	-0.037	-0.307	
9.165	-0.185	-0.273	
9.170	-0.441	-0.245	
9.175	-0.154	-0.242	
9.180	-0.032	-0.232	
9.185	-0.406	-0.213	
9.190	-0.256	-0.215	
9.195	0.105	-0.214	
9.200	-0.291	-0.190	
9.205	-0.407	-0.183	
9.210	-0.052	-0.200	
9.215	-0.185	-0.203	
9.220	-0.486	-0.209	
9.225	-0.206	-0.236	
9.230	-0.075	-0.251	
9.235	-0.485	-0.251	
9.240	-0.369	-0.269	
9.245	-0.037	-0.287	
9.250	-0.364	-0.280	
9.255	-0.427	-0.280	
9.260	-0.015	-0.285	
9.265	0.012	-0.256	
9.270	-0.073	-0.197	
9.275	0.796	-0.101	
9.280	1.128	0.087	
9.285	0.245	0.315	
9.290	-0.104	0.439	
9.295	-0.300	0.407	
9.300	-0.854	0.244	
9.305	-0.948	-0.017	
9.310	-0.439	-0.290	
9.315	-0.326	-0.470	
9.320	-0.332	-0.537	
9.325	0.308	-0.503	
9.330	0.815	-0.342	
9.335	0.253	-0.099	
9.340	0.616	0.128	
9.345	1.216	0.341	
9.350	0.636	0.553	
9.355	0.550	0.695	
9.360	1.363	0.780	
9.365	1.145	0.881	
9.370	0.601	0.965	
9.375	1.192	0.991	
9.380	1.396	1.023	
9.385	0.687	1.066	
9.390	0.995	1.064	
9.395	1.646	1.066	
9.400	1.017	1.115	
9.405	0.896	1.145	
9.410	1.651	1.154	
9.415	1.480	1.207	
9.420	1.108	1.275	
9.425	1.755	1.324	
9.430	1.875	1.404	
9.435	1.188	1.492	
9.440	1.436	1.523	
9.445	1.890	1.531	
9.450	1.123	1.546	
9.455	0.797	1.495	
9.460	1.299	1.379	
9.465	0.844	1.264	
9.470	0.079	1.115	
9.475	0.366	0.899	
9.480	0.290	0.678	
9.485	-0.303	0.474	
9.490	-0.250	0.260	
9.495	0.012	0.070	
9.500	-0.349	-0.063	
9.505	-0.444	-0.169	
9.510	-0.072	-0.250	
9.515	-0.220	-0.281	
9.520	-0.492	-0.291	
9.525	-0.197	-0.306	
9.530	-0.119	-0.304	
9.535	-0.480	-0.289	
9.540	-0.345	-0.294	
9.545	-0.093	-0.300	
9.550	-0.406	-0.291	
9.555	-0.444	-0.295	
9.560	-0.117	-0.308	
9.565	-0.249	-0.300	
9.570	-0.515	-0.293	
9.575	-0.224	-0.305	
9.580	-0.104	-0.304	
9.585	-0.418	-0.286	
9.590	-0.255	-0.280	
9.595	0.105	-0.263	
9.600	-0.274	-0.221	
9.605	-0.323	-0.195	
9.610	0.158	-0.181	
9.615	-0.090	-0.146	
9.620	-0.345	-0.118	
9.625	0.043	-0.117	
9.630	0.180	-0.098	
9.635	-0.334	-0.068	
9.640	-0.188	-0.072	
9.645	0.120	-0.087	
9.650	-0.314	-0.091	
9.655	-0.380	-0.117	
9.660	0.058	-0.155	
9.665	-0.140	-0.164	
9.670	-0.392	-0.166	
9.675	-0.082	-0.183	
9.680	-0.021	-0.184	
9.685	-0.380	-0.174	
9.690	-0.174	-0.181	
9.695	0.297	-0.171	
9.700	-0.124	-0.121	
9.705	0.037	-0.070	
9.710	1.111	0.017	
9.715	0.974	0.206	
9.720	0.197	0.411	
9.725	0.157	0.506	
9.730	-0.445	0.463	
9.735	-0.994	0.276	
9.740	-0.993	-0.024	
9.745	-0.665	-0.336	
9.750	-0.768	-0.570	
9.755	-0.582	-0.708	
9.760	-0.017	-0.735	
9.765	-0.044	-0.644	
9.770	-0.238	-0.495	
9.775	0.297	-0.342	
9.780	0.469	-0.165	
9.785	-0.124	0.004	
9.790	0.198	0.106	
9.795	0.735	0.183	
9.800	0.001	0.264	
9.805	-0.085	0.285	
9.810	0.750	0.270	
9.815	0.387	0.296	
9.820	-0.105	0.319	
9.825	0.546	0.305	
9.830	0.686	0.319	
9.835	-0.009	0.355	
9.840	0.442	0.359	
9.845	1.024	0.382	
9.850	0.448	0.458	
9.855	0.418	0.519	
9.860	1.213	0.568	
9.865	0.915	0.661	
9.870	0.366	0.742	
9.875	0.948	0.765	
9.880	0.989	0.785	
9.885	0.145	0.791	
9.890	0.224	0.718	
9.895	0.535	0.601	
9.900	-0.209	0.483	
9.905	-0.335	0.326	
9.910	-0.060	0.145	
9.915	-0.325	-0.007	
9.920	-0.616	-0.141	
9.925	-0.348	-0.269	
9.930	-0.340	-0.359	
9.935	-0.726	-0.417	
9.940	-0.595	-0.479	
9.945	-0.316	-0.524	
9.950	-0.625	-0.535	
9.955	-0.683	-0.545	
9.960	-0.300	-0.555	
9.965	-0.447	-0.538	
9.970	-0.648	-0.515	
9.975	-0.331	-0.504	
9.980	-0.320	-0.481	
9.985	-0.654	-0.456	
9.990	-0.491	-0.457	
9.995	-0.206	-0.458	
10.000	-0.526	-0.440	
10.005	-0.535	-0.433	
10.010	-0.107	-0.428	
10.015	-0.252	-0.393	
10.020	-0.459	-0.352	
10.025	-0.107	-0.326	
10.030	-0.009	-0.285	
10.035	-0.386	-0.235	
10.040	-0.194	-0.212	
10.045	0.204	-0.188	
10.050	-0.242	-0.143	
10.055	-0.279	-0.120	
10.060	0.245	-0.112	
10.065	-0.076	-0.082	
10.070	-0.357	-0.063	
10.075	0.000	-0.079	
10.080	0.017	-0.088	
10.085	-0.393	-0.093	
10.090	-0.207	-0.123	
10.095	0.165	-0.145	
10.100	-0.294	-0.137	
10.105	-0.302	-0.141	
10.110	0.190	-0.150	
10.115	-0.128	-0.129	
10.120	-0.364	-0.114	
10.125	0.061	-0.123	
10.130	0.317	-0.101	
10.135	-0.101	-0.044	
10.140	0.569	0.023	
10.145	1.183	0.155	
10.150	0.439	0.346	
10.155	-0.055	0.469	
10.160	-0.142	0.452	
10.165	-0.675	0.313	
10.170	-0.993	0.072	
10.175	-0.666	-0.213	
10.180	-0.454	-0.442	
10.185	-0.555	-0.571	
10.190	-0.154	-0.609	
10.195	0.511	-0.531	
10.200	0.020	-0.354	
10.205	0.143	-0.170	
10.210	0.910	0.008	
10.215	0.579	0.212	
10.220	0.192	0.377	
10.225	0.944	0.477	
10.230	1.087	0.584	
10.235	0.255	0.684	
10.240	0.674	0.712	
10.245	1.166	0.722	
10.250	0.498	0.755	
10.255	0.514	0.756	
10.260	1.338	0.749	
10.265	0.979	0.799	
10.270	0.558	0.855	
10.275	1.294	0.880	
10.280	1.456	0.943	
10.285	0.805	1.031	
10.290	1.268	1.084	
10.295	1.736	1.144	
10.300	1.181	1.236	
10.305	1.023	1.289	
10.310	1.628	1.302	
10.315	1.081	1.315	
10.320	0.425	1.273	
10.325	0.905	1.148	
10.330	0.733	1.012	
10.335	-0.101	0.863	
10.340	0.067	0.658	
10.345	0.361	0.454	
10.350	-0.259	0.294	
10.355	-0.340	0.139	
10.360	0.037	-0.005	
10.365	-0.262	-0.099	
10.370	-0.488	-0.172	
10.375	-0.207	-0.243	
10.380	-0.195	-0.284	
10.385	-0.518	-0.303	
10.390	-0.363	-0.330	
10.395	-0.157	-0.347	
10.400	-0.479	-0.345	
10.405	-0.459	-0.353	
10.410	-0.070	-0.359	
10.415	-0.279	-0.336	
10.420	-0.486	-0.315	
10.425	-0.137	-0.310	
10.430	-0.113	-0.291	
10.435	-0.474	-0.266	
10.440	-0.227	-0.265	
10.445	0.032	-0.256	
10.450	-0.342	-0.228	
10.455	-0.325	-0.217	
10.460	0.152	-0.211	
10.465	-0.146	-0.176	
10.470	-0.360	-0.150	
10.475	0.035	-0.147	
10.480	0.082	-0.129	
10.485	-0.357	-0.103	
10.490	-0.082	-0.104	
10.495	0.294	-0.096	
10.500	-0.232	-0.062	
10.505	-0.201	-0.051	
10.510	0.221	-0.055	
10.515	-0.165	-0.043	
10.520	-0.403	-0.053	
10.525	-0.049	-0.095	
10.530	-0.050	-0.124	
10.535	-0.410	-0.141	
10.540	-0.168	-0.171	
10.545	0.133	-0.183	
10.550	-0.310	-0.164	
10.555	-0.244	-0.159	
10.560	0.325	-0.149	
10.565	0.084	-0.094	
10.570	-0.026	-0.028	
10.575	0.867	0.051	
10.580	1.091	0.210	
10.585	0.238	0.401	
10.590	-0.049	0.491	
10.595	-0.348	0.435	
10.600	-0.938	0.250	
10.605	-0.925	-0.033	
10.610	-0.468	-0.316	
10.615	-0.477	-0.505	
10.620	-0.410	-0.589	
10.625	0.253	-0.570	
10.630	0.477	-0.429	
10.635	0.006	-0.225	
10.640	0.512	-0.036	
10.645	0.956	0.155	
10.650	0.302	0.346	
10.655	0.413	0.467	
10.660	1.200	0.548	
10.665	0.706	0.649	
10.670	0.337	0.715	
10.675	1.052	0.727	
10.680	1.059	0.761	
10.685	0.413	0.802	
10.690	0.892	0.803	
10.695	1.296	0.816	
10.700	0.691	0.864	
10.705	0.776	0.888	
10.710	1.421	0.905	
10.715	1.067	0.962	
10.720	0.715	1.010	
10.725	1.512	1.032	
10.730	1.579	1.098	
10.735	0.887	1.184	
10.740	1.209	1.218	
10.745	1.485	1.231	
10.750	0.651	1.233	
10.755	0.508	1.159	
10.760	0.968	1.030	
10.765	0.287	0.902	
10.770	-0.157	0.737	
10.775	0.200	0.527	
10.780	-0.003	0.338	
10.785	-0.424	0.172	
10.790	-0.235	0.009	
10.795	-0.159	-0.122	
10.800	-0.547	-0.214	
10.805	-0.524	-0.302	
10.810	-0.204	-0.373	
10.815	-0.425	-0.401	
10.820	-0.590	-0.417	
10.825	-0.259	-0.434	
10.830	-0.271	-0.426	
10.835	-0.573	-0.407	
10.840	-0.339	-0.403	
10.845	-0.108	-0.390	
10.850	-0.441	-0.357	
10.855	-0.432	-0.341	
10.860	-0.070	-0.333	
10.865	-0.256	-0.306	
10.870	-0.456	-0.284	
10.875	-0.104	-0.280	
10.880	-0.111	-0.262	
10.885	-0.412	-0.238	
10.890	-0.172	-0.234	
10.895	0.145	-0.217	
10.900	-0.273	-0.176	
10.905	-0.232	-0.152	
10.910	0.244	-0.135	
10.915	-0.192	-0.099	
10.920	-0.322	-0.084	
10.925	0.232	-0.089	
10.930	0.212	-0.059	
10.935	-0.256	-0.015	
10.940	0.023	-0.003	
10.945	0.373	0.011	
10.950	-0.215	0.041	
10.955	-0.200	0.037	
10.960	0.270	0.012	
10.965	-0.145	0.006	
10.970	-0.358	-0.015	
10.975	0.004	-0.062	
10.980	-0.021	-0.091	
10.985	-0.372	-0.107	
10.990	-0.117	-0.136	
10.995	0.194	-0.144	
11.000	-0.223	-0.120	
11.005	-0.005	-0.097	
11.010	1.076	-0.029	
11.015	0.887	0.150	
11.020	0.532	0.366	
11.025	0.780	0.531	
11.030	-0.136	0.604	
11.035	-0.916	0.510	
11.040	-0.883	0.238	
11.045	-0.715	-0.096	
11.050	-0.866	-0.390	
11.055	-0.712	-0.608	
11.060	-0.139	-0.715	
11.065	-0.235	-0.692	
11.070	-0.302	-0.595	
11.075	0.294	-0.463	
11.080	0.328	-0.284	
11.085	-0.159	-0.107	
11.090	0.320	0.015	
11.095	0.747	0.129	
11.100	0.050	0.247	
11.105	0.149	0.306	
11.110	0.840	0.333	
11.115	0.378	0.387	
11.120	0.065	0.418	
11.125	0.758	0.415	
11.130	0.745	0.444	
11.135	0.149	0.487	
11.140	0.677	0.498	
11.145	1.194	0.536	
11.150	0.506	0.620	
11.155	0.569	0.675	
11.160	1.296	0.713	
11.165	0.826	0.784	
11.170	0.546	0.836	
11.175	1.255	0.853	
11.180	1.087	0.895	
11.185	0.328	0.924	
11.190	0.671	0.879	
11.195	0.834	0.810	
11.200	-0.063	0.732	
11.205	-0.104	0.586	
11.210	0.305	0.408	
11.215	-0.209	0.259	
11.220	-0.448	0.112	
11.225	-0.160	-0.040	
11.230	-0.264	-0.154	
11.235	-0.642	-0.244	
11.240	-0.435	-0.334	
11.245	-0.264	-0.399	
11.250	-0.610	-0.429	
11.255	-0.555	-0.459	
11.260	-0.230	-0.479	
11.265	-0.450	-0.468	
11.270	-0.585	-0.456	
11.275	-0.230	-0.451	
11.280	-0.218	-0.423	
11.285	-0.535	-0.387	
11.290	-0.291	-0.371	
11.295	-0.089	-0.350	
11.300	-0.430	-0.317	
11.305	-0.348	-0.302	
11.310	0.079	-0.287	
11.315	-0.241	-0.246	
11.320	-0.396	-0.218	
11.325	0.064	-0.209	
11.330	-0.018	-0.179	
11.335	-0.366	-0.147	
11.340	-0.085	-0.142	
11.345	0.250	-0.127	
11.350	-0.244	-0.088	
11.355	-0.180	-0.072	
11.360	0.380	-0.061	
11.365	-0.058	-0.021	
11.370	-0.226	0.005	
11.375	0.337	0.009	
11.380	0.126	0.035	
11.385	-0.299	0.055	
11.390	-0.029	0.032	
11.395	0.190	0.007	
11.400	-0.339	-0.006	
11.405	-0.270	-0.046	
11.410	0.184	-0.090	
11.415	-0.195	-0.099	
11.420	-0.352	-0.111	
11.425	0.085	-0.134	
11.430	0.030	-0.127	
11.435	-0.329	-0.109	
11.440	0.125	-0.103	
11.445	0.811	-0.048	
11.450	0.341	0.085	
11.455	0.575	0.230	
11.460	0.931	0.370	
11.465	-0.227	0.473	
11.470	-0.814	0.421	
11.475	-0.726	0.198	
11.480	-0.799	-0.089	
11.485	-0.948	-0.365	
11.490	-0.505	-0.581	
11.495	-0.107	-0.675	
11.500	-0.294	-0.644	
11.505	-0.099	-0.546	
11.510	0.643	-0.390	
11.515	0.190	-0.178	
11.520	-0.037	0.005	
11.525	0.738	0.133	
11.530	0.662	0.269	
11.535	0.072	0.384	
11.540	0.658	0.437	
11.545	1.059	0.496	
11.550	0.280	0.574	
11.555	0.456	0.603	
11.560	1.125	0.612	
11.565	0.572	0.655	
11.570	0.341	0.676	
11.575	1.088	0.669	
11.580	1.053	0.707	
11.585	0.538	0.768	
11.590	1.188	0.809	
11.595	1.585	0.887	
11.600	0.936	1.006	
11.605	1.116	1.090	
11.610	1.777	1.158	
11.615	1.219	1.250	
11.620	0.727	1.292	
11.625	1.320	1.259	
11.630	1.040	1.214	
11.635	0.186	1.133	
11.640	0.642	0.979	
11.645	0.768	0.825	
11.650	-0.133	0.692	
11.655	-0.105	0.517	
11.660	0.331	0.335	
11.665	-0.197	0.200	
11.670	-0.358	0.078	
11.675	0.079	-0.035	
11.680	-0.090	-0.098	
11.685	-0.410	-0.134	
11.690	-0.130	-0.175	
11.695	0.009	-0.194	
11.700	-0.367	-0.189	
11.705	-0.282	-0.198	
11.710	0.126	-0.203	
11.715	-0.221	-0.180	
11.720	-0.380	-0.167	
11.725	0.023	-0.174	
11.730	-0.053	-0.164	
11.735	-0.360	-0.149	
11.740	-0.055	-0.152	
11.745	0.169	-0.139	
11.750	-0.300	-0.108	
11.755	-0.168	-0.101	
11.760	0.293	-0.094	
11.765	-0.133	-0.060	
11.770	-0.236	-0.042	
11.775	0.328	-0.038	
11.780	0.169	-0.002	
11.785	-0.290	0.033	
11.790	0.032	0.027	
11.795	0.312	0.023	
11.800	-0.264	0.035	
11.805	-0.224	0.014	
11.810	0.238	-0.021	
11.815	-0.149	-0.029	
11.820	-0.308	-0.045	
11.825	0.040	-0.078	
11.830	-0.139	-0.097	
11.835	-0.508	-0.123	
11.840	-0.256	-0.178	
11.845	-0.137	-0.225	
11.850	-0.502	-0.255	
11.855	-0.444	-0.295	
11.860	-0.122	-0.331	
11.865	-0.387	-0.336	
11.870	-0.523	-0.343	
11.875	-0.096	-0.353	
11.880	-0.046	-0.328	
11.885	-0.165	-0.272	
11.890	0.587	-0.184	
11.895	0.925	-0.018	
11.900	-0.058	0.177	
11.905	-0.363	0.261	
11.910	-0.468	0.196	
11.915	-0.893	0.027	
11.920	-0.971	-0.210	
11.925	-0.441	-0.439	
11.930	-0.242	-0.567	
11.935	-0.265	-0.581	
11.940	0.468	-0.494	
11.945	0.915	-0.287	
11.950	0.290	-0.013	
11.955	0.625	0.222	
11.960	1.366	0.430	
11.965	0.815	0.646	
11.970	0.642	0.801	
11.975	1.364	0.889	
11.980	1.184	0.978	
11.985	0.611	1.042	
11.990	1.108	1.043	
11.995	1.477	1.050	
12.000	0.799	1.084	
12.005	1.024	1.090	
12.010	1.742	1.103	
12.015	1.162	1.168	
12.020	0.933	1.215	
12.025	1.729	1.233	
12.030	1.642	1.293	
12.035	1.099	1.366	
12.040	1.704	1.405	
12.045	2.006	1.466	
12.050	1.223	1.545	
12.055	1.384	1.568	
12.060	1.806	1.558	
12.065	1.027	1.543	
12.070	0.497	1.452	
12.075	1.034	1.280	
12.080	0.575	1.104	
12.085	-0.209	0.905	
12.090	-0.053	0.645	
12.095	-0.047	0.381	
12.100	-0.518	0.150	
12.105	-0.496	-0.064	
12.110	-0.264	-0.239	
12.115	-0.566	-0.355	
12.120	-0.675	-0.441	
12.125	-0.335	-0.507	
12.130	-0.439	-0.527	
12.135	-0.717	-0.530	
12.140	-0.450	-0.540	
12.145	-0.281	-0.533	
12.150	-0.601	-0.505	
12.155	-0.462	-0.488	
12.160	-0.151	-0.467	
12.165	-0.418	-0.425	
12.170	-0.502	-0.395	
12.175	-0.102	-0.377	
12.180	-0.182	-0.340	
12.185	-0.451	-0.301	
12.190	-0.145	-0.283	
12.195	0.026	-0.255	
12.200	-0.351	-0.215	
12.205	-0.206	-0.196	
12.210	0.283	-0.173	
12.215	-0.151	-0.120	
12.220	-0.271	-0.085	
12.225	0.250	-0.073	
12.230	0.015	-0.042	
12.235	-0.316	-0.021	
12.240	-0.008	-0.035	
12.245	0.210	-0.041	
12.250	-0.282	-0.031	
12.255	-0.172	-0.044	
12.260	0.216	-0.062	
12.265	-0.241	-0.058	
12.270	-0.349	-0.074	
12.275	0.043	-0.109	
12.280	-0.175	-0.127	
12.285	-0.517	-0.150	
12.290	-0.256	-0.202	
12.295	-0.165	-0.245	
12.300	-0.552	-0.273	
12.305	-0.442	-0.316	
12.310	-0.137	-0.351	
12.315	-0.450	-0.357	
12.320	-0.509	-0.366	
12.325	0.009	-0.370	
12.330	0.120	-0.321	
12.335	-0.058	-0.228	
12.340	0.747	-0.106	
12.345	0.841	0.078	
12.350	-0.317	0.252	
12.355	-0.672	0.270	
12.360	-0.759	0.117	
12.365	-0.993	-0.127	
12.370	-0.994	-0.396	
12.375	-0.630	-0.621	
12.380	-0.479	-0.744	
12.385	-0.541	-0.765	
12.390	-0.096	-0.711	
12.395	0.264	-0.574	
12.400	-0.195	-0.391	
12.405	-0.014	-0.235	
12.410	0.642	-0.095	
12.415	0.125	0.055	
12.420	-0.035	0.159	
12.425	0.726	0.216	
12.430	0.540	0.295	
12.435	0.017	0.363	
12.440	0.639	0.386	
12.445	0.957	0.429	
12.450	0.235	0.500	
12.455	0.421	0.528	
12.460	1.067	0.543	
12.465	0.585	0.595	
12.470	0.529	0.639	
12.475	1.351	0.680	
12.480	1.162	0.778	
12.485	0.649	0.882	
12.490	1.259	0.942	
12.495	1.473	1.011	
12.500	0.675	1.084	
12.505	0.866	1.090	
12.510	1.337	1.065	
12.515	0.575	1.045	
12.520	0.139	0.964	
12.525	0.724	0.819	
12.530	0.317	0.684	
12.535	-0.261	0.542	
12.540	0.018	0.364	
12.545	0.070	0.202	
12.550	-0.403	0.074	
12.555	-0.308	-0.051	
12.560	-0.027	-0.151	
12.565	-0.366	-0.206	
12.570	-0.499	-0.253	
12.575	-0.154	-0.300	
12.580	-0.246	-0.316	
12.585	-0.509	-0.319	
12.590	-0.178	-0.328	
12.595	-0.067	-0.315	
12.600	-0.456	-0.286	
12.605	-0.296	-0.278	
12.610	0.107	-0.266	
12.615	-0.271	-0.227	
12.620	-0.326	-0.202	
12.625	0.190	-0.186	
12.630	-0.055	-0.143	
12.635	-0.322	-0.107	
12.640	-0.008	-0.102	
12.645	0.163	-0.089	
12.650	-0.291	-0.065	
12.655	-0.148	-0.067	
12.660	0.325	-0.068	
12.665	-0.178	-0.041	
12.670	-0.242	-0.033	
12.675	0.332	-0.038	
12.680	0.041	-0.012	
12.685	-0.252	0.010	
12.690	0.123	0.004	
12.695	0.335	0.015	
12.700	-0.230	0.044	
12.705	-0.101	0.040	
12.710	0.392	0.028	
12.715	-0.149	0.042	
12.720	-0.306	0.031	
12.725	0.105	-0.010	
12.730	-0.134	-0.039	
12.735	-0.430	-0.074	
12.740	-0.149	-0.130	
12.745	-0.043	-0.169	
12.750	-0.418	-0.187	
12.755	-0.262	-0.214	
12.760	0.161	-0.224	
12.765	-0.226	-0.195	
12.770	-0.267	-0.171	
12.775	0.515	-0.138	
12.780	0.509	-0.038	
12.785	0.154	0.096	
12.790	0.680	0.213	
12.795	0.258	0.313	
12.800	-0.739	0.326	
12.805	-0.986	0.170	
12.810	-0.816	-0.101	
12.815	-0.957	-0.380	
12.820	-0.852	-0.613	
12.825	-0.277	-0.750	
12.830	-0.230	-0.754	
12.835	-0.352	-0.668	
12.840	0.067	-0.542	
12.845	0.375	-0.373	
12.850	-0.169	-0.191	
12.855	0.081	-0.061	
12.860	0.686	0.046	
12.865	0.123	0.162	
12.870	0.149	0.240	
12.875	0.976	0.298	
12.880	0.616	0.397	
12.885	0.082	0.478	
12.890	0.768	0.501	
12.895	0.944	0.538	
12.900	0.235	0.590	
12.905	0.655	0.603	
12.910	1.296	0.628	
12.915	0.828	0.713	
12.920	0.797	0.796	
12.925	1.668	0.879	
12.930	1.482	1.016	
12.935	1.000	1.156	
12.940	1.672	1.249	
12.945	1.748	1.346	
12.950	0.995	1.429	
12.955	1.226	1.436	
12.960	1.611	1.407	
12.965	0.774	1.374	
12.970	0.387	1.268	
12.975	0.931	1.097	
12.980	0.381	0.931	
12.985	-0.197	0.747	
12.990	0.072	0.521	
12.995	0.062	0.315	
13.000	-0.419	0.145	
13.005	-0.310	-0.016	
13.010	-0.067	-0.143	
13.015	-0.418	-0.219	
13.020	-0.479	-0.279	
13.025	-0.130	-0.327	
13.030	-0.281	-0.337	
13.035	-0.524	-0.336	
13.040	-0.226	-0.345	
13.045	-0.134	-0.337	
13.050	-0.499	-0.317	
13.055	-0.366	-0.317	
13.060	-0.069	-0.319	
13.065	-0.374	-0.301	
13.070	-0.444	-0.295	
13.075	-0.050	-0.298	
13.080	-0.203	-0.279	
13.085	-0.439	-0.260	
13.090	-0.101	-0.256	
13.095	0.037	-0.236	
13.100	-0.332	-0.198	
13.105	-0.174	-0.181	
13.110	0.319	-0.155	
13.115	-0.157	-0.100	
13.120	-0.212	-0.064	
13.125	0.357	-0.045	
13.130	0.072	-0.001	
13.135	-0.226	0.034	
13.140	0.204	0.036	
13.145	0.302	0.053	
13.150	-0.238	0.078	
13.155	-0.044	0.066	
13.160	0.463	0.054	
13.165	-0.127	0.073	
13.170	-0.259	0.067	
13.175	0.201	0.031	
13.180	-0.111	0.009	
13.185	-0.374	-0.022	
13.190	-0.026	-0.074	
13.195	0.123	-0.099	
13.200	-0.328	-0.099	
13.205	-0.171	-0.113	
13.210	0.201	-0.120	
13.215	-0.220	-0.101	
13.220	-0.172	-0.092	
13.225	0.806	-0.060	
13.230	0.779	0.070	
13.235	0.532	0.254	
13.240	0.968	0.428	
13.245	0.294	0.561	
13.250	-0.717	0.562	
13.255	-0.874	0.366	
13.260	-0.730	0.055	
13.265	-0.960	-0.260	
13.270	-0.820	-0.528	
13.275	-0.258	-0.693	
13.280	-0.191	-0.718	
13.285	-0.313	-0.641	
13.290	0.206	-0.513	
13.295	0.468	-0.329	
13.300	-0.139	-0.132	
13.305	0.146	0.005	
13.310	0.674	0.110	
13.315	-0.002	0.210	
13.320	0.012	0.252	
13.325	0.762	0.262	
13.330	0.419	0.309	
13.335	-0.027	0.348	
13.340	0.599	0.347	
13.345	0.694	0.369	
13.350	0.020	0.404	
13.355	0.328	0.395	
13.360	0.860	0.389	
13.365	0.221	0.419	
13.370	0.227	0.427	
13.375	1.076	0.433	
13.380	0.806	0.503	
13.385	0.279	0.581	
13.390	1.024	0.623	
13.395	1.041	0.684	
13.400	0.233	0.742	
13.405	0.512	0.726	
13.410	0.857	0.682	
13.415	-0.047	0.635	
13.420	-0.227	0.520	
13.425	0.065	0.347	
13.430	-0.249	0.182	
13.435	-0.561	0.021	
13.440	-0.331	-0.140	
13.445	-0.332	-0.265	
13.450	-0.739	-0.358	
13.455	-0.636	-0.450	
13.460	-0.441	-0.526	
13.465	-0.758	-0.571	
13.470	-0.781	-0.614	
13.475	-0.432	-0.649	
13.480	-0.575	-0.648	
13.485	-0.816	-0.639	
13.490	-0.517	-0.642	
13.495	-0.464	-0.632	
13.500	-0.761	-0.612	
13.505	-0.563	-0.607	
13.510	-0.316	-0.594	
13.515	-0.581	-0.560	
13.520	-0.585	-0.535	
13.525	-0.213	-0.515	
13.530	-0.421	-0.476	
13.535	-0.599	-0.445	
13.540	-0.201	-0.432	
13.545	-0.134	-0.398	
13.550	-0.511	-0.353	
13.555	-0.308	-0.334	
13.560	0.003	-0.314	
13.565	-0.335	-0.276	
13.570	-0.317	-0.252	
13.575	0.186	-0.230	
13.580	-0.122	-0.179	
13.585	-0.357	-0.141	
13.590	0.037	-0.133	
13.595	0.219	-0.107	
13.600	-0.291	-0.066	
13.605	-0.131	-0.057	
13.610	0.305	-0.053	
13.615	-0.246	-0.031	
13.620	-0.281	-0.036	
13.625	0.184	-0.060	
13.630	-0.108	-0.062	
13.635	-0.345	-0.069	
13.640	0.061	-0.094	
13.645	0.131	-0.093	
13.650	-0.343	-0.076	
13.655	-0.125	-0.085	
13.660	0.294	-0.088	
13.665	-0.133	-0.058	
13.670	-0.035	-0.032	
13.675	1.035	0.024	
13.680	0.855	0.181	
13.685	0.424	0.371	
13.690	0.695	0.506	
13.695	-0.066	0.560	
13.700	-0.816	0.472	
13.705	-0.814	0.225	
13.710	-0.547	-0.075	
13.715	-0.714	-0.330	
13.720	-0.488	-0.508	
13.725	0.299	-0.566	
13.730	0.235	-0.474	
13.735	0.012	-0.306	
13.740	0.707	-0.122	
13.745	0.883	0.098	
13.750	0.226	0.312	
13.755	0.692	0.453	
13.760	1.226	0.570	
13.765	0.584	0.694	
13.770	0.724	0.771	
13.775	1.569	0.832	
13.780	1.137	0.940	
13.785	0.698	1.029	
13.790	1.430	1.065	
13.795	1.569	1.123	
13.800	0.895	1.196	
13.805	1.392	1.231	
13.810	2.012	1.283	
13.815	1.311	1.382	
13.820	1.325	1.451	
13.825	2.160	1.499	
13.830	1.803	1.590	
13.835	1.357	1.670	
13.840	2.070	1.705	
13.845	2.084	1.757	
13.850	1.229	1.803	
13.855	1.537	1.773	
13.860	1.820	1.714	
13.865	0.895	1.649	
13.870	0.773	1.514	
13.875	1.297	1.341	
13.880	0.662	1.195	
13.885	0.011	1.023	
13.890	0.524	0.806	
13.895	0.479	0.621	
13.900	-0.182	0.476	
13.905	0.011	0.322	
13.910	0.383	0.198	
13.915	-0.213	0.126	
13.920	-0.253	0.053	
13.925	0.264	-0.013	
13.930	-0.076	-0.034	
13.935	-0.303	-0.047	
13.940	0.120	-0.071	
13.945	0.140	-0.066	
13.950	-0.262	-0.045	
13.955	-0.089	-0.048	
13.960	0.264	-0.049	
13.965	-0.249	-0.031	
13.970	-0.218	-0.038	
13.975	0.303	-0.052	
13.980	-0.070	-0.034	
13.985	-0.288	-0.025	
13.990	0.198	-0.037	
13.995	0.271	-0.018	
14.000	-0.223	0.018	
14.005	0.041	0.027	
14.010	0.489	0.042	
14.015	-0.148	0.082	
14.020	-0.156	0.088	
14.025	0.564	0.080	
14.030	0.163	0.113	
14.035	-0.210	0.140	
14.040	0.213	0.126	
14.045	0.282	0.118	
14.050	-0.233	0.118	
14.055	-0.050	0.085	
14.060	0.296	0.051	
14.065	-0.185	0.042	
14.070	-0.244	0.015	
14.075	0.133	-0.026	
14.080	-0.192	-0.049	
14.085	-0.435	-0.083	
14.090	-0.041	-0.135	
14.095	0.000	-0.160	
14.100	-0.387	-0.162	
14.105	-0.198	-0.178	
14.110	0.062	-0.187	
14.115	-0.285	-0.173	
14.120	-0.120	-0.163	
14.125	0.774	-0.117	
14.130	0.585	0.020	
14.135	0.088	0.178	
14.140	0.288	0.271	
14.145	-0.361	0.281	
14.150	-0.986	0.168	
14.155	-0.933	-0.069	
14.160	-0.666	-0.335	
14.165	-0.791	-0.545	
14.170	-0.557	-0.677	
14.175	0.008	-0.705	
14.180	-0.061	-0.616	
14.185	-0.127	-0.470	
14.190	0.628	-0.297	
14.195	0.665	-0.074	
14.200	0.038	0.141	
14.205	0.520	0.279	
14.210	1.027	0.393	
14.215	0.370	0.512	
14.220	0.466	0.579	
14.225	1.194	0.620	
14.230	0.758	0.693	
14.235	0.383	0.743	
14.240	1.088	0.751	
14.245	1.120	0.786	
14.250	0.408	0.831	
14.255	1.102	0.840	
14.260	1.569	0.882	
14.265	0.872	0.976	
14.270	0.983	1.040	
14.275	1.776	1.093	
14.280	1.416	1.191	
14.285	1.067	1.282	
14.290	1.828	1.338	
14.295	1.747	1.417	
14.300	0.901	1.482	
14.305	1.239	1.461	
14.310	1.422	1.403	
14.315	0.469	1.325	
14.320	0.322	1.166	
14.325	0.829	0.963	
14.330	0.111	0.781	
14.335	-0.236	0.585	
14.340	0.145	0.371	
14.345	0.009	0.200	
14.350	-0.422	0.067	
14.355	-0.223	-0.059	
14.360	-0.061	-0.154	
14.365	-0.413	-0.207	
14.370	-0.384	-0.253	
14.375	-0.040	-0.286	
14.380	-0.302	-0.284	
14.385	-0.460	-0.282	
14.390	-0.125	-0.291	
14.395	-0.172	-0.283	
14.400	-0.505	-0.271	
14.405	-0.265	-0.282	
14.410	-0.015	-0.284	
14.415	-0.393	-0.264	
14.420	-0.387	-0.261	
14.425	-0.021	-0.266	
14.430	-0.270	-0.251	
14.435	-0.435	-0.244	
14.440	-0.070	-0.251	
14.445	-0.095	-0.239	
14.450	-0.401	-0.220	
14.455	-0.201	-0.220	
14.460	0.030	-0.215	
14.465	-0.363	-0.197	
14.470	-0.296	-0.197	
14.475	0.171	-0.197	
14.480	-0.171	-0.166	
14.485	-0.329	-0.144	
14.490	0.097	-0.140	
14.495	0.119	-0.113	
14.500	-0.323	-0.078	
14.505	-0.105	-0.076	
14.510	0.117	-0.080	
14.515	-0.345	-0.077	
14.520	-0.293	-0.101	
14.525	0.047	-0.135	
14.530	-0.322	-0.151	
14.535	-0.479	-0.181	
14.540	-0.124	-0.226	
14.545	-0.163	-0.248	
14.550	-0.488	-0.256	
14.555	-0.244	-0.277	
14.560	0.001	-0.281	
14.565	-0.320	-0.257	
14.570	-0.131	-0.233	
14.575	0.822	-0.168	
14.580	0.677	-0.003	
14.585	0.357	0.195	
14.590	0.697	0.353	
14.595	-0.140	0.439	
14.600	-0.906	0.378	
14.605	-0.913	0.146	
14.610	-0.753	-0.155	
14.615	-0.993	-0.433	
14.620	-0.767	-0.651	
14.625	-0.213	-0.764	
14.630	-0.331	-0.750	
14.635	-0.398	-0.663	
14.640	0.192	-0.541	
14.645	0.223	-0.371	
14.650	-0.209	-0.200	
14.655	0.200	-0.078	
14.660	0.619	0.033	
14.665	-0.026	0.147	
14.670	0.081	0.206	
14.675	0.712	0.236	
14.680	0.223	0.287	
14.685	-0.050	0.310	
14.690	0.649	0.300	
14.695	0.569	0.323	
14.700	-0.011	0.357	
14.705	0.608	0.361	
14.710	0.947	0.396	
14.715	0.226	0.466	
14.720	0.430	0.498	
14.725	1.232	0.529	
14.730	0.750	0.615	
14.735	0.460	0.691	
14.740	1.210	0.734	
14.745	1.046	0.800	
14.750	0.297	0.852	
14.755	0.668	0.826	
14.760	0.823	0.774	
14.765	-0.072	0.709	
14.770	-0.084	0.574	
14.775	0.344	0.406	
14.780	-0.204	0.267	
14.785	-0.433	0.127	
14.790	-0.177	-0.023	
14.795	-0.303	-0.143	
14.800	-0.680	-0.243	
14.805	-0.450	-0.345	
14.810	-0.316	-0.419	
14.815	-0.665	-0.458	
14.820	-0.622	-0.498	
14.825	-0.303	-0.527	
14.830	-0.553	-0.527	
14.835	-0.714	-0.527	
14.840	-0.335	-0.537	
14.845	-0.374	-0.524	
14.850	-0.660	-0.501	
14.855	-0.399	-0.494	
14.860	-0.235	-0.478	
14.865	-0.561	-0.447	
14.870	-0.473	-0.434	
14.875	-0.127	-0.423	
14.880	-0.386	-0.391	
14.885	-0.489	-0.367	
14.890	-0.096	-0.355	
14.895	-0.133	-0.321	
14.900	-0.415	-0.281	
14.905	-0.137	-0.260	
14.910	0.116	-0.228	
14.915	-0.306	-0.180	
14.920	-0.213	-0.156	
14.925	0.288	-0.136	
14.930	-0.096	-0.089	
14.935	-0.250	-0.056	
14.940	0.251	-0.046	
14.945	0.206	-0.011	
14.950	-0.241	0.028	
14.955	0.040	0.031	
14.960	0.349	0.035	
14.965	-0.249	0.053	
14.970	-0.221	0.035	
14.975	0.223	-0.001	
14.980	-0.195	-0.018	
14.985	-0.355	-0.047	
14.990	0.091	-0.090	
14.995	0.003	-0.103	
15.000	-0.355	-0.102	
15.005	-0.053	-0.118	
15.010	0.282	-0.112	
15.015	-0.185	-0.074	
15.020	0.094	-0.041	
15.025	1.062	0.032	
15.030	0.735	0.198	
15.035	0.407	0.379	
15.040	0.686	0.501	
15.045	-0.192	0.542	
15.050	-0.881	0.435	
15.055	-0.787	0.176	
15.060	-0.584	-0.124	
15.065	-0.744	-0.373	
15.070	-0.432	-0.543	
15.075	0.223	-0.589	
15.080	-0.032	-0.505	
15.085	-0.070	-0.366	
15.090	0.767	-0.203	
15.095	0.627	0.012	
15.100	0.018	0.209	
15.105	0.608	0.326	
15.110	0.969	0.425	
15.115	0.194	0.522	
15.120	0.373	0.553	
15.125	1.008	0.556	
15.130	0.562	0.591	
15.135	0.334	0.613	
15.140	1.073	0.617	
15.145	0.918	0.662	
15.150	0.306	0.710	
15.155	0.912	0.715	
15.160	1.284	0.743	
15.165	0.611	0.809	
15.170	0.835	0.846	
15.175	1.526	0.884	
15.180	1.037	0.966	
15.185	0.684	1.026	
15.190	1.247	1.035	
15.195	1.029	1.042	
15.200	0.319	1.021	
15.205	0.704	0.931	
15.210	0.819	0.833	
15.215	-0.047	0.736	
15.220	-0.058	0.584	
15.225	0.320	0.408	
15.230	-0.256	0.262	
15.235	-0.456	0.111	
15.240	-0.137	-0.043	
15.245	-0.296	-0.159	
15.250	-0.601	-0.248	
15.255	-0.387	-0.332	
15.260	-0.310	-0.391	
15.265	-0.665	-0.424	
15.270	-0.582	-0.465	
15.275	-0.277	-0.496	
15.280	-0.537	-0.497	
15.285	-0.636	-0.498	
15.290	-0.262	-0.502	
15.295	-0.334	-0.480	
15.300	-0.604	-0.451	
15.305	-0.297	-0.439	
15.310	-0.142	-0.414	
15.315	-0.473	-0.373	
15.320	-0.345	-0.351	
15.325	-0.032	-0.330	
15.330	-0.323	-0.293	
15.335	-0.374	-0.269	
15.340	0.065	-0.254	
15.345	-0.009	-0.211	
15.350	-0.334	-0.165	
15.355	-0.040	-0.144	
15.360	0.279	-0.114	
15.365	-0.239	-0.065	
15.370	-0.085	-0.042	
15.375	0.457	-0.021	
15.380	-0.053	0.029	
15.385	-0.137	0.058	
15.390	0.422	0.066	
15.395	0.253	0.102	
15.400	-0.212	0.134	
15.405	0.175	0.125	
15.410	0.462	0.125	
15.415	-0.169	0.145	
15.420	-0.117	0.129	
15.425	0.378	0.095	
15.430	-0.124	0.085	
15.435	-0.238	0.060	
15.440	0.312	0.023	
15.445	0.130	0.024	
15.450	-0.262	0.035	
15.455	0.143	0.022	
15.460	0.486	0.035	
15.465	-0.041	0.085	
15.470	0.376	0.129	
15.475	1.245	0.218	
15.480	0.768	0.389	
15.485	0.384	0.547	
15.490	0.482	0.617	
15.495	-0.308	0.586	
15.500	-0.867	0.416	
15.505	-0.651	0.131	
15.510	-0.406	-0.152	
15.515	-0.567	-0.356	
15.520	-0.276	-0.475	
15.525	0.451	-0.477	
15.530	0.096	-0.356	
15.535	0.081	-0.198	
15.540	0.883	-0.031	
15.545	0.777	0.178	
15.550	0.157	0.368	
15.555	0.776	0.479	
15.560	1.136	0.577	
15.565	0.363	0.676	
15.570	0.579	0.712	
15.575	1.216	0.725	
15.580	0.706	0.769	
15.585	0.492	0.793	
15.590	1.183	0.791	
15.595	1.012	0.822	
15.600	0.434	0.854	
15.605	1.017	0.846	
15.610	1.281	0.859	
15.615	0.530	0.896	
15.620	0.863	0.897	
15.625	1.450	0.903	
15.630	0.791	0.949	
15.635	0.534	0.961	
15.640	1.207	0.931	
15.645	0.886	0.922	
15.650	0.145	0.891	
15.655	0.538	0.790	
15.660	0.500	0.674	
15.665	-0.252	0.552	
15.670	-0.169	0.382	
15.675	0.123	0.207	
15.680	-0.342	0.070	
15.685	-0.508	-0.059	
15.690	-0.185	-0.183	
15.695	-0.320	-0.266	
15.700	-0.636	-0.324	
15.705	-0.381	-0.384	
15.710	-0.284	-0.421	
15.715	-0.657	-0.435	
15.720	-0.528	-0.460	
15.725	-0.192	-0.475	
15.730	-0.468	-0.458	
15.735	-0.569	-0.444	
15.740	-0.191	-0.438	
15.745	-0.288	-0.411	
15.750	-0.515	-0.381	
15.755	-0.210	-0.367	
15.760	-0.079	-0.339	
15.765	-0.488	-0.302	
15.770	-0.393	-0.295	
15.775	-0.034	-0.298	
15.780	-0.331	-0.280	
15.785	-0.473	-0.274	
15.790	-0.143	-0.286	
15.795	-0.249	-0.285	
15.800	-0.509	-0.286	
15.805	-0.244	-0.303	
15.810	-0.108	-0.306	
15.815	-0.444	-0.293	
15.820	-0.335	-0.294	
15.825	-0.032	-0.293	
15.830	-0.346	-0.273	
15.835	-0.428	-0.266	
15.840	0.018	-0.268	
15.845	-0.154	-0.245	
15.850	-0.439	-0.222	
15.855	-0.137	-0.224	
15.860	-0.041	-0.218	
15.865	-0.448	-0.206	
15.870	-0.302	-0.219	
15.875	0.087	-0.230	
15.880	-0.250	-0.210	
15.885	-0.293	-0.194	
15.890	0.235	-0.178	
15.895	0.091	-0.125	
15.900	-0.165	-0.064	
15.905	0.444	-0.013	
15.910	0.814	0.085	
15.915	0.431	0.234	
15.920	1.021	0.388	
15.925	1.767	0.588	
15.930	1.047	0.836	
15.935	0.300	0.996	
15.940	0.076	0.970	
15.945	-0.355	0.783	
15.950	-0.717	0.484	
15.955	-0.288	0.152	
15.960	0.157	-0.092	
15.965	-0.099	-0.198	
15.970	0.442	-0.195	
15.975	1.215	-0.066	
15.980	0.753	0.177	
15.985	0.694	0.422	
15.990	1.520	0.633	
15.995	1.358	0.855	
16.000	0.915	1.044	
16.005	1.596	1.165	
16.010	1.805	1.282	
16.015	1.038	1.391	
16.020	1.320	1.428	
16.025	1.966	1.443	
16.030	1.227	1.483	
16.035	0.985	1.479	
16.040	1.713	1.430	
16.045	1.474	1.414	
16.050	0.912	1.402	
16.055	1.544	1.361	
16.060	1.771	1.356	
16.065	1.085	1.388	
16.070	1.399	1.394	
16.075	1.947	1.409	
16.080	1.281	1.459	
16.085	1.012	1.469	
16.090	1.630	1.431	
16.095	1.227	1.402	
16.100	0.497	1.340	
16.105	0.857	1.204	
16.110	0.759	1.052	
16.115	-0.078	0.889	
16.120	-0.093	0.669	
16.125	0.172	0.432	
16.130	-0.314	0.234	
16.135	-0.442	0.051	
16.140	-0.140	-0.110	
16.145	-0.340	-0.218	
16.150	-0.628	-0.297	
16.155	-0.332	-0.371	
16.160	-0.256	-0.410	
16.165	-0.617	-0.421	
16.170	-0.479	-0.440	
16.175	-0.215	-0.450	
16.180	-0.505	-0.438	
16.185	-0.544	-0.432	
16.190	-0.183	-0.432	
16.195	-0.374	-0.411	
16.200	-0.613	-0.396	
16.205	-0.316	-0.404	
16.210	-0.215	-0.401	
16.215	-0.567	-0.386	
16.220	-0.407	-0.388	
16.225	-0.098	-0.386	
16.230	-0.369	-0.359	
16.235	-0.407	-0.336	
16.240	0.009	-0.317	
16.245	-0.105	-0.272	
16.250	-0.357	-0.226	
16.255	-0.037	-0.201	
16.260	0.137	-0.165	
16.265	-0.299	-0.120	
16.270	-0.149	-0.103	
16.275	0.274	-0.091	
16.280	-0.169	-0.058	
16.285	-0.262	-0.046	
16.290	0.171	-0.056	
16.295	-0.099	-0.051	
16.300	-0.383	-0.058	
16.305	-0.085	-0.095	
16.310	0.000	-0.121	
16.315	-0.395	-0.134	
16.320	-0.250	-0.163	
16.325	0.068	-0.186	
16.330	-0.329	-0.183	
16.335	-0.395	-0.193	
16.340	0.014	-0.214	
16.345	-0.139	-0.208	
16.350	-0.325	-0.194	
16.355	0.273	-0.175	
16.360	0.625	-0.094	
16.365	-0.021	0.032	
16.370	0.079	0.119	
16.375	-0.111	0.141	
16.380	-0.851	0.080	
16.385	-0.994	-0.095	
16.390	-0.866	-0.334	
16.395	-0.871	-0.556	
16.400	-0.883	-0.723	
16.405	-0.367	-0.811	
16.410	-0.104	-0.784	
16.415	-0.369	-0.669	
16.420	-0.156	-0.535	
16.425	0.332	-0.387	
16.430	-0.160	-0.226	
16.435	-0.186	-0.114	
16.440	0.434	-0.042	
16.445	0.178	0.041	
16.450	-0.157	0.103	
16.455	0.392	0.127	
16.460	0.569	0.170	
16.465	-0.101	0.226	
16.470	0.146	0.235	
16.475	0.681	0.237	
16.480	0.110	0.268	
16.485	0.035	0.278	
16.490	0.814	0.277	
16.495	0.567	0.328	
16.500	0.204	0.392	
16.505	0.887	0.437	
16.510	1.059	0.519	
16.515	0.416	0.621	
16.520	0.741	0.678	
16.525	1.210	0.725	
16.530	0.501	0.783	
16.535	0.335	0.784	
16.540	0.877	0.735	
16.545	0.364	0.688	
16.550	-0.169	0.604	
16.555	0.113	0.458	
16.560	0.136	0.310	
16.565	-0.393	0.180	
16.570	-0.354	0.036	
16.575	-0.163	-0.099	
16.580	-0.517	-0.203	
16.585	-0.589	-0.299	
16.590	-0.303	-0.383	
16.595	-0.483	-0.431	
16.600	-0.697	-0.466	
16.605	-0.418	-0.503	
16.610	-0.377	-0.516	
16.615	-0.721	-0.515	
16.620	-0.573	-0.530	
16.625	-0.328	-0.540	
16.630	-0.634	-0.532	
16.635	-0.669	-0.534	
16.640	-0.291	-0.541	
16.645	-0.406	-0.521	
16.650	-0.646	-0.496	
16.655	-0.308	-0.484	
16.660	-0.227	-0.458	
16.665	-0.561	-0.422	
16.670	-0.375	-0.406	
16.675	-0.090	-0.387	
16.680	-0.387	-0.350	
16.685	-0.370	-0.325	
16.690	0.038	-0.302	
16.695	-0.168	-0.257	
16.700	-0.363	-0.218	
16.705	0.029	-0.198	
16.710	0.151	-0.159	
16.715	-0.332	-0.110	
16.720	-0.133	-0.096	
16.725	0.253	-0.087	
16.730	-0.200	-0.059	
16.735	-0.297	-0.054	
16.740	0.085	-0.075	
16.745	-0.166	-0.085	
16.750	-0.406	-0.104	
16.755	-0.061	-0.142	
16.760	0.044	-0.157	
16.765	-0.332	-0.149	
16.770	-0.153	-0.154	
16.775	0.288	-0.144	
16.780	-0.171	-0.101	
16.785	-0.079	-0.067	
16.790	0.834	-0.015	
16.795	0.744	0.121	
16.800	0.366	0.290	
16.805	0.803	0.424	
16.810	0.221	0.513	
16.815	-0.704	0.487	
16.820	-0.791	0.293	
16.825	-0.582	0.011	
16.830	-0.729	-0.253	
16.835	-0.521	-0.455	
16.840	0.139	-0.545	
16.845	0.102	-0.496	
16.850	-0.056	-0.367	
16.855	0.694	-0.204	
16.860	0.846	0.014	
16.865	0.163	0.236	
16.870	0.511	0.380	
16.875	1.053	0.483	
16.880	0.381	0.583	
16.885	0.386	0.627	
16.890	1.157	0.639	
16.895	0.694	0.683	
16.900	0.218	0.707	
16.905	0.913	0.682	
16.910	1.017	0.685	
16.915	0.344	0.712	
16.920	0.753	0.707	
16.925	1.212	0.716	
16.930	0.645	0.764	
16.935	0.707	0.795	
16.940	1.534	0.829	
16.945	1.247	0.925	
16.950	0.770	1.022	
16.955	1.381	1.074	
16.960	1.383	1.128	
16.965	0.521	1.162	
16.970	0.820	1.114	
16.975	1.160	1.038	
16.980	0.325	0.969	
16.985	0.090	0.844	
16.990	0.549	0.675	
16.995	-0.003	0.522	
17.000	-0.380	0.358	
17.005	-0.137	0.170	
17.010	-0.194	0.007	
17.015	-0.619	-0.127	
17.020	-0.528	-0.260	
17.025	-0.355	-0.371	
17.030	-0.700	-0.447	
17.035	-0.758	-0.517	
17.040	-0.477	-0.581	
17.045	-0.645	-0.614	
17.050	-0.866	-0.638	
17.055	-0.590	-0.669	
17.060	-0.558	-0.681	
17.065	-0.889	-0.681	
17.070	-0.710	-0.696	
17.075	-0.512	-0.705	
17.080	-0.826	-0.697	
17.085	-0.863	-0.705	
17.090	-0.535	-0.721	
17.095	-0.668	-0.716	
17.100	-0.796	-0.704	
17.105	-0.464	-0.694	
17.110	-0.471	-0.662	
17.115	-0.750	-0.624	
17.120	-0.524	-0.605	
17.125	-0.273	-0.580	
17.130	-0.558	-0.535	
17.135	-0.511	-0.502	
17.140	-0.096	-0.471	
17.145	-0.241	-0.412	
17.150	-0.424	-0.353	
17.155	-0.056	-0.312	
17.160	0.040	-0.257	
17.165	-0.374	-0.199	
17.170	-0.191	-0.175	
17.175	0.131	-0.160	
17.180	-0.339	-0.135	
17.185	-0.317	-0.138	
17.190	0.079	-0.155	
17.195	-0.156	-0.149	
17.200	-0.311	-0.144	
17.205	0.134	-0.145	
17.210	0.209	-0.110	
17.215	-0.277	-0.061	
17.220	0.204	-0.032	
17.225	0.982	0.040	
17.230	0.645	0.197	
17.235	0.773	0.379	
17.240	1.265	0.558	
17.245	0.133	0.701	
17.250	-0.622	0.684	
17.255	-0.595	0.471	
17.260	-0.602	0.168	
17.265	-0.732	-0.129	
17.270	-0.305	-0.361	
17.275	0.439	-0.450	
17.280	0.227	-0.373	
17.285	0.463	-0.205	
17.290	1.345	0.032	
17.295	1.188	0.342	
17.300	0.912	0.645	
17.305	1.716	0.893	
17.310	1.889	1.138	
17.315	1.305	1.362	
17.320	1.812	1.512	
17.325	2.367	1.643	
17.330	1.797	1.790	
17.335	1.875	1.893	
17.340	2.588	1.970	
17.345	2.183	2.070	
17.350	1.805	2.141	
17.355	2.550	2.166	
17.360	2.579	2.216	
17.365	1.944	2.277	
17.370	2.326	2.293	
17.375	2.768	2.309	
17.380	2.143	2.353	
17.385	2.200	2.367	
17.390	2.806	2.369	
17.395	2.238	2.396	
17.400	1.598	2.377	
17.405	2.032	2.273	
17.410	1.817	2.148	
17.415	0.849	1.990	
17.420	0.968	1.752	
17.425	1.078	1.490	
17.430	0.128	1.236	
17.435	-0.049	0.943	
17.440	0.360	0.642	
17.445	-0.101	0.402	
17.450	-0.410	0.198	
17.455	-0.133	0.013	
17.460	-0.172	-0.120	
17.465	-0.558	-0.211	
17.470	-0.378	-0.293	
17.475	-0.186	-0.349	
17.480	-0.503	-0.370	
17.485	-0.537	-0.392	
17.490	-0.183	-0.411	
17.495	-0.377	-0.404	
17.500	-0.567	-0.395	
17.505	-0.194	-0.397	
17.510	-0.163	-0.376	
17.515	-0.499	-0.343	
17.520	-0.288	-0.331	
17.525	-0.095	-0.317	
17.530	-0.395	-0.293	
17.535	-0.331	-0.282	
17.540	0.068	-0.271	
17.545	-0.160	-0.232	
17.550	-0.326	-0.196	
17.555	0.076	-0.177	
17.560	0.097	-0.138	
17.565	-0.302	-0.095	
17.570	-0.043	-0.081	
17.575	0.315	-0.063	
17.580	-0.206	-0.025	
17.585	-0.203	-0.015	
17.590	0.369	-0.019	
17.595	-0.026	0.006	
17.600	-0.293	0.019	
17.605	-0.005	-0.007	
17.610	-0.020	-0.033	
17.615	-0.374	-0.059	
17.620	-0.204	-0.106	
17.625	-0.006	-0.146	
17.630	-0.366	-0.165	
17.635	-0.332	-0.194	
17.640	0.070	-0.216	
17.645	-0.203	-0.206	
17.650	-0.328	-0.193	
17.655	0.302	-0.177	
17.660	0.637	-0.094	
17.665	0.354	0.053	
17.670	0.738	0.211	
17.675	0.587	0.362	
17.680	-0.561	0.431	
17.685	-0.956	0.317	
17.690	-0.846	0.049	
17.695	-0.993	-0.259	
17.700	-0.994	-0.540	
17.705	-0.540	-0.741	
17.710	-0.290	-0.812	
17.715	-0.464	-0.770	
17.720	-0.139	-0.670	
17.725	0.302	-0.517	
17.730	-0.182	-0.334	
17.735	-0.133	-0.191	
17.740	0.537	-0.081	
17.745	0.110	0.036	
17.750	-0.154	0.115	
17.755	0.419	0.143	
17.760	0.415	0.181	
17.765	-0.159	0.216	
17.770	0.184	0.207	
17.775	0.691	0.206	
17.780	0.008	0.240	
17.785	0.044	0.247	
17.790	0.809	0.246	
17.795	0.433	0.298	
17.800	0.136	0.351	
17.805	0.844	0.384	
17.810	0.910	0.456	
17.815	0.273	0.542	
17.820	0.756	0.587	
17.825	1.130	0.635	
17.830	0.288	0.694	
17.835	0.242	0.685	
17.840	0.796	0.626	
17.845	0.189	0.575	
17.850	-0.265	0.486	
17.855	-0.008	0.336	
17.860	-0.108	0.183	
17.865	-0.503	0.040	
17.870	-0.360	-0.106	
17.875	-0.212	-0.224	
17.880	-0.614	-0.305	
17.885	-0.611	-0.384	
17.890	-0.291	-0.450	
17.895	-0.486	-0.477	
17.900	-0.654	-0.490	
17.905	-0.345	-0.505	
17.910	-0.310	-0.496	
17.915	-0.601	-0.472	
17.920	-0.374	-0.460	
17.925	-0.140	-0.438	
17.930	-0.465	-0.398	
17.935	-0.398	-0.372	
17.940	0.029	-0.348	
17.945	-0.252	-0.299	
17.950	-0.410	-0.261	
17.955	0.000	-0.243	
17.960	0.044	-0.207	
17.965	-0.296	-0.160	
17.970	-0.031	-0.134	
17.975	0.323	-0.098	
17.980	-0.182	-0.043	
17.985	-0.125	-0.015	
17.990	0.508	0.005	
17.995	0.041	0.057	
18.000	-0.156	0.092	
18.005	0.526	0.104	
18.010	0.351	0.148	
18.015	-0.192	0.190	
18.020	0.113	0.180	
18.025	0.460	0.164	
18.030	-0.148	0.167	
18.035	-0.159	0.138	
18.040	0.315	0.091	
18.045	-0.116	0.068	
18.050	-0.291	0.034	
18.055	0.140	-0.014	
18.060	0.021	-0.035	
18.065	-0.303	-0.044	
18.070	-0.044	-0.070	
18.075	0.242	-0.076	
18.080	-0.212	-0.055	
18.085	-0.102	-0.047	
18.090	0.823	-0.016	
18.095	0.582	0.100	
18.100	0.174	0.239	
18.105	0.366	0.323	
18.110	-0.294	0.332	
18.115	-0.977	0.221	
18.120	-0.912	-0.021	
18.125	-0.749	-0.300	
18.130	-0.991	-0.538	
18.135	-0.773	-0.718	
18.140	-0.210	-0.800	
18.145	-0.267	-0.761	
18.150	-0.352	-0.651	
18.155	0.189	-0.514	
18.160	0.212	-0.340	
18.165	-0.204	-0.173	
18.170	0.151	-0.061	
18.175	0.556	0.035	
18.180	-0.050	0.132	
18.185	0.079	0.180	
18.190	0.820	0.213	
18.195	0.381	0.287	
18.200	0.090	0.348	
18.205	0.809	0.376	
18.210	0.784	0.436	
18.215	0.142	0.501	
18.220	0.692	0.522	
18.225	1.136	0.558	
18.230	0.477	0.632	
18.235	0.619	0.677	
18.240	1.325	0.714	
18.245	0.863	0.791	
18.250	0.514	0.847	
18.255	1.287	0.865	
18.260	1.171	0.911	
18.265	0.401	0.951	
18.270	0.742	0.921	
18.275	0.950	0.866	
18.280	-0.005	0.802	
18.285	-0.050	0.663	
18.290	0.441	0.488	
18.295	-0.133	0.344	
18.300	-0.412	0.199	
18.305	-0.125	0.041	
18.310	-0.201	-0.084	
18.315	-0.561	-0.180	
18.320	-0.386	-0.273	
18.325	-0.239	-0.341	
18.330	-0.592	-0.379	
18.335	-0.534	-0.417	
18.340	-0.224	-0.446	
18.345	-0.430	-0.443	
18.350	-0.555	-0.436	
18.355	-0.186	-0.431	
18.360	-0.182	-0.401	
18.365	-0.499	-0.360	
18.370	-0.244	-0.339	
18.375	0.055	-0.309	
18.380	-0.361	-0.260	
18.385	-0.339	-0.235	
18.390	0.161	-0.219	
18.395	-0.143	-0.179	
18.400	-0.276	-0.144	
18.405	0.314	-0.118	
18.410	0.276	-0.055	
18.415	-0.198	0.018	
18.420	0.149	0.051	
18.425	0.543	0.088	
18.430	-0.031	0.145	
18.435	0.168	0.177	
18.440	0.774	0.209	
18.445	0.296	0.279	
18.450	0.006	0.326	
18.455	0.761	0.338	
18.460	0.617	0.380	
18.465	-0.092	0.419	
18.470	0.322	0.395	
18.475	0.534	0.361	
18.480	-0.099	0.337	
18.485	-0.012	0.278	
18.490	0.623	0.221	
18.495	0.088	0.213	
18.500	-0.114	0.201	
18.505	0.530	0.176	
18.510	0.514	0.199	
18.515	0.065	0.248	
18.520	0.735	0.290	
18.525	1.291	0.388	
18.530	0.761	0.552	
18.535	0.715	0.694	
18.540	0.598	0.764	
18.545	-0.454	0.725	
18.550	-0.878	0.517	
18.555	-0.631	0.188	
18.560	-0.552	-0.132	
18.565	-0.619	-0.374	
18.570	-0.137	-0.513	
18.575	0.456	-0.507	
18.580	-0.041	-0.376	
18.585	0.119	-0.220	
18.590	0.858	-0.054	
18.595	0.300	0.136	
18.600	0.146	0.279	
18.605	0.912	0.367	
18.610	0.864	0.473	
18.615	0.314	0.574	
18.620	0.939	0.630	
18.625	1.238	0.700	
18.630	0.494	0.785	
18.635	0.684	0.816	
18.640	1.428	0.833	
18.645	0.995	0.897	
18.650	0.651	0.950	
18.655	1.384	0.971	
18.660	1.369	1.023	
18.665	0.857	1.090	
18.670	1.428	1.129	
18.675	1.870	1.198	
18.680	1.236	1.306	
18.685	1.316	1.379	
18.690	1.959	1.430	
18.695	1.427	1.498	
18.700	1.032	1.525	
18.705	1.604	1.491	
18.710	1.258	1.453	
18.715	0.346	1.373	
18.720	0.677	1.201	
18.725	0.811	1.010	
18.730	-0.076	0.833	
18.735	-0.085	0.618	
18.740	0.348	0.403	
18.745	-0.168	0.244	
18.750	-0.325	0.106	
18.755	0.046	-0.017	
18.760	-0.099	-0.090	
18.765	-0.418	-0.135	
18.770	-0.159	-0.183	
18.775	-0.002	-0.207	
18.780	-0.366	-0.205	
18.785	-0.296	-0.213	
18.790	0.053	-0.220	
18.795	-0.273	-0.204	
18.800	-0.396	-0.199	
18.805	0.004	-0.209	
18.810	-0.092	-0.198	
18.815	-0.377	-0.181	
18.820	-0.102	-0.183	
18.825	0.050	-0.175	
18.830	-0.367	-0.156	
18.835	-0.265	-0.161	
18.840	0.143	-0.169	
18.845	-0.186	-0.149	
18.850	-0.343	-0.138	
18.855	0.055	-0.145	
18.860	-0.015	-0.133	
18.865	-0.325	-0.117	
18.870	-0.047	-0.120	
18.875	0.273	-0.106	
18.880	-0.229	-0.067	
18.885	-0.151	-0.051	
18.890	0.287	-0.045	
18.895	-0.149	-0.021	
18.900	-0.316	-0.021	
18.905	0.068	-0.050	
18.910	-0.066	-0.066	
18.915	-0.390	-0.083	
18.920	-0.162	-0.122	
18.925	0.017	-0.151	
18.930	-0.361	-0.160	
18.935	-0.281	-0.181	
18.940	0.123	-0.194	
18.945	-0.210	-0.176	
18.950	-0.314	-0.163	
18.955	0.466	-0.144	
18.960	0.623	-0.050	
18.965	0.364	0.101	
18.970	0.974	0.264	
18.975	0.887	0.443	
18.980	-0.389	0.558	
18.985	-0.805	0.480	
18.990	-0.741	0.226	
18.995	-0.993	-0.091	
19.000	-0.993	-0.402	
19.005	-0.462	-0.640	
19.010	-0.303	-0.741	
19.015	-0.433	-0.723	
19.020	-0.050	-0.637	
19.025	0.354	-0.486	
19.030	-0.133	-0.297	
19.035	0.001	-0.146	
19.040	0.553	-0.025	
19.045	0.049	0.093	
19.050	-0.070	0.160	
19.055	0.559	0.185	
19.060	0.462	0.233	
19.065	-0.137	0.276	
19.070	0.308	0.269	
19.075	0.663	0.268	
19.080	-0.046	0.292	
19.085	0.125	0.282	
19.090	0.831	0.272	
19.095	0.360	0.317	
19.100	0.168	0.359	
19.105	0.893	0.387	
19.110	0.787	0.456	
19.115	0.325	0.534	
19.120	0.841	0.579	
19.125	1.026	0.635	
19.130	0.230	0.689	
19.135	0.230	0.667	
19.140	0.751	0.600	
19.145	-0.008	0.536	
19.150	-0.246	0.428	
19.155	0.070	0.276	
19.160	-0.169	0.138	
19.165	-0.579	0.005	
19.170	-0.427	-0.142	
19.175	-0.369	-0.271	
19.180	-0.781	-0.374	
19.185	-0.747	-0.480	
19.190	-0.505	-0.571	
19.195	-0.767	-0.627	
19.200	-0.884	-0.674	
19.205	-0.595	-0.717	
19.210	-0.695	-0.733	
19.215	-0.935	-0.741	
19.220	-0.698	-0.758	
19.225	-0.544	-0.760	
19.230	-0.825	-0.741	
19.235	-0.726	-0.729	
19.240	-0.427	-0.714	
19.245	-0.645	-0.677	
19.250	-0.758	-0.648	
19.255	-0.398	-0.633	
19.260	-0.430	-0.600	
19.265	-0.685	-0.562	
19.270	-0.393	-0.541	
19.275	-0.226	-0.509	
19.280	-0.541	-0.464	
19.285	-0.413	-0.435	
19.290	-0.127	-0.410	
19.295	-0.360	-0.369	
19.300	-0.435	-0.340	
19.305	0.001	-0.319	
19.310	-0.072	-0.274	
19.315	-0.375	-0.225	
19.320	-0.142	-0.203	
19.325	0.027	-0.185	
19.330	-0.339	-0.161	
19.335	-0.253	-0.161	
19.340	0.120	-0.165	
19.345	-0.252	-0.149	
19.350	-0.381	-0.148	
19.355	-0.031	-0.169	
19.360	-0.130	-0.174	
19.365	-0.374	-0.175	
19.370	-0.101	-0.189	
19.375	0.096	-0.182	
19.380	-0.349	-0.158	
19.385	-0.215	-0.154	
19.390	0.383	-0.142	
19.395	0.163	-0.077	
19.400	0.216	0.012	
19.405	1.169	0.135	
19.410	1.021	0.335	
19.415	0.119	0.526	
19.420	-0.111	0.575	
19.425	-0.416	0.470	
19.430	-0.925	0.245	
19.435	-0.828	-0.054	
19.440	-0.399	-0.328	
19.445	-0.445	-0.498	
19.450	-0.326	-0.564	
19.455	0.459	-0.522	
19.460	0.509	-0.354	
19.465	0.059	-0.136	
19.470	0.663	0.057	
19.475	0.988	0.250	
19.480	0.366	0.438	
19.485	0.631	0.558	
19.490	1.309	0.649	
19.495	0.794	0.761	
19.500	0.593	0.837	
19.505	1.288	0.870	
19.510	1.180	0.927	
19.515	0.569	0.978	
19.520	0.995	0.976	
19.525	1.334	0.974	
19.530	0.729	0.996	
19.535	0.936	0.995	
19.540	1.628	1.006	
19.545	1.061	1.068	
19.550	0.901	1.116	
19.555	1.674	1.143	
19.560	1.468	1.209	
19.565	0.826	1.269	
19.570	1.291	1.268	
19.575	1.389	1.255	
19.580	0.540	1.229	
19.585	0.617	1.132	
19.590	0.969	1.002	
19.595	0.133	0.877	
19.600	-0.142	0.704	
19.605	0.224	0.493	
19.610	-0.027	0.311	
19.615	-0.404	0.153	
19.620	-0.218	-0.002	
19.625	-0.154	-0.123	
19.630	-0.526	-0.209	
19.635	-0.444	-0.288	
19.640	-0.186	-0.348	
19.645	-0.467	-0.372	
19.650	-0.538	-0.392	
19.655	-0.194	-0.410	
19.660	-0.282	-0.398	
19.665	-0.544	-0.379	
19.670	-0.261	-0.375	
19.675	-0.096	-0.358	
19.680	-0.435	-0.324	
19.685	-0.316	-0.307	
19.690	0.012	-0.290	
19.695	-0.265	-0.254	
19.700	-0.370	-0.231	
19.705	0.081	-0.219	
19.710	-0.110	-0.188	
19.715	-0.380	-0.162	
19.720	-0.078	-0.163	
19.725	0.126	-0.152	
19.730	-0.268	-0.123	
19.735	-0.127	-0.111	
19.740	0.344	-0.093	
19.745	-0.117	-0.046	
19.750	-0.195	-0.019	
19.755	0.421	-0.006	
19.760	0.169	0.039	
19.765	-0.227	0.079	
19.770	0.146	0.077	
19.775	0.326	0.080	
19.780	-0.192	0.095	
19.785	-0.101	0.077	
19.790	0.340	0.052	
19.795	-0.163	0.049	
19.800	-0.255	0.027	
19.805	0.160	-0.012	
19.810	-0.011	-0.027	
19.815	-0.314	-0.037	
19.820	0.040	-0.063	
19.825	0.308	-0.061	
19.830	-0.153	-0.025	
19.835	0.146	0.004	
19.840	0.962	0.068	
19.845	0.614	0.211	
19.850	0.489	0.366	
19.855	0.944	0.492	
19.860	0.029	0.574	
19.865	-0.668	0.524	
19.870	-0.648	0.312	
19.875	-0.602	0.032	
19.880	-0.808	-0.234	
19.885	-0.491	-0.447	
19.890	0.053	-0.549	
19.895	-0.122	-0.522	
19.900	-0.104	-0.425	
19.905	0.684	-0.283	
19.910	0.534	-0.078	
19.915	0.052	0.121	
19.920	0.651	0.255	
19.925	0.913	0.379	
19.930	0.253	0.496	
19.935	0.500	0.550	
19.940	1.056	0.582	
19.945	0.498	0.634	
19.950	0.348	0.653	
19.955	0.983	0.642	
19.960	0.788	0.662	
19.965	0.261	0.679	
19.970	0.873	0.663	
19.975	1.127	0.678	
19.980	0.453	0.725	
19.985	0.660	0.738	
19.990	1.335	0.752	
19.995	0.803	0.811	
20.000	0.640	0.855	
20.005	1.282	0.875	
20.010	0.992	0.916	
20.015	0.472	0.940	
20.020	0.931	0.911	
20.025	0.941	0.879	
20.030	0.047	0.834	
20.035	0.084	0.709	
20.040	0.392	0.545	
20.045	-0.247	0.392	
20.050	-0.413	0.221	
20.055	-0.119	0.041	
20.060	-0.299	-0.099	
20.065	-0.602	-0.210	
20.070	-0.370	-0.313	
20.075	-0.276	-0.380	
20.080	-0.590	-0.413	
20.085	-0.459	-0.441	
20.090	-0.178	-0.451	
20.095	-0.480	-0.433	
20.100	-0.550	-0.422	
20.105	-0.162	-0.419	
20.110	-0.244	-0.392	
20.115	-0.496	-0.359	
20.120	-0.204	-0.343	
20.125	-0.058	-0.316	
20.130	-0.399	-0.278	
20.135	-0.255	-0.259	
20.140	0.143	-0.237	
20.145	-0.198	-0.191	
20.150	-0.255	-0.156	
20.155	0.297	-0.129	
20.160	0.133	-0.070	
20.165	-0.174	-0.010	
20.170	0.233	0.022	
20.175	0.450	0.068	
20.180	-0.110	0.125	
20.185	0.079	0.144	
20.190	0.569	0.156	
20.195	0.026	0.190	
20.200	-0.085	0.196	
20.205	0.486	0.179	
20.210	0.255	0.190	
20.215	-0.191	0.198	
20.220	0.136	0.165	
20.225	0.242	0.134	
20.230	-0.241	0.111	
20.235	-0.130	0.062	
20.240	0.282	0.017	
20.245	-0.200	0.002	
20.250	-0.273	-0.023	
20.255	0.215	-0.056	
20.260	0.037	-0.053	
20.265	-0.256	-0.040	
20.270	0.123	-0.043	
20.275	0.386	-0.019	
20.280	-0.082	0.034	
20.285	0.344	0.080	
20.290	1.113	0.167	
20.295	0.575	0.324	
20.300	0.059	0.449	
20.305	-0.012	0.458	
20.310	-0.561	0.354	
20.315	-0.976	0.141	
20.320	-0.712	-0.139	
20.325	-0.531	-0.386	
20.330	-0.648	-0.548	
20.335	-0.276	-0.624	
20.340	0.274	-0.588	
20.345	-0.093	-0.454	
20.350	-0.122	-0.306	
20.355	0.512	-0.169	
20.360	0.354	-0.012	
20.365	-0.020	0.123	
20.370	0.643	0.210	
20.375	0.855	0.313	
20.380	0.270	0.426	
20.385	0.611	0.496	
20.390	1.175	0.562	
20.395	0.622	0.656	
20.400	0.486	0.715	
20.405	1.201	0.741	
20.410	0.901	0.792	
20.415	0.445	0.830	
20.420	1.238	0.835	
20.425	1.459	0.886	
20.430	0.695	0.971	
20.435	0.944	1.009	
20.440	1.619	1.035	
20.445	1.079	1.099	
20.450	0.921	1.145	
20.455	1.469	1.159	
20.460	1.099	1.180	
20.465	0.505	1.166	
20.470	0.950	1.084	
20.475	0.947	0.999	
20.480	0.062	0.907	
20.485	0.107	0.748	
20.490	0.512	0.569	
20.495	-0.125	0.422	
20.500	-0.279	0.271	
20.505	0.017	0.116	
20.510	-0.178	-0.001	
20.515	-0.457	-0.095	
20.520	-0.191	-0.183	
20.525	-0.128	-0.237	
20.530	-0.488	-0.263	
20.535	-0.404	-0.297	
20.540	-0.072	-0.322	
20.545	-0.358	-0.316	
20.550	-0.383	-0.309	
20.555	-0.058	-0.303	
20.560	-0.212	-0.277	
20.565	-0.439	-0.256	
20.570	-0.146	-0.255	
20.575	-0.014	-0.242	
20.580	-0.383	-0.217	
20.585	-0.217	-0.210	
20.590	0.134	-0.200	
20.595	-0.258	-0.167	
20.600	-0.308	-0.152	
20.605	0.145	-0.150	
20.610	-0.052	-0.125	
20.615	-0.306	-0.102	
20.620	0.020	-0.101	
20.625	0.110	-0.090	
20.630	-0.297	-0.070	
20.635	-0.157	-0.077	
20.640	0.218	-0.084	
20.645	-0.188	-0.068	
20.650	-0.230	-0.066	
20.655	0.258	-0.070	
20.660	0.006	-0.046	
20.665	-0.274	-0.026	
20.670	0.026	-0.035	
20.675	0.142	-0.037	
20.680	-0.396	-0.035	
20.685	-0.302	-0.072	
20.690	-0.049	-0.125	
20.695	-0.374	-0.164	
20.700	-0.404	-0.208	
20.705	-0.035	-0.247	
20.710	-0.186	-0.252	
20.715	-0.435	-0.246	
20.720	-0.162	-0.254	
20.725	0.021	-0.245	
20.730	-0.209	-0.211	
20.735	0.168	-0.165	
20.740	0.931	-0.064	
20.745	0.370	0.109	
20.750	-0.105	0.246	
20.755	-0.128	0.269	
20.760	-0.738	0.180	
20.765	-0.994	-0.016	
20.770	-0.933	-0.279	
20.775	-0.746	-0.523	
20.780	-0.805	-0.695	
20.785	-0.439	-0.781	
20.790	0.049	-0.754	
20.795	-0.221	-0.628	
20.800	-0.242	-0.479	
20.805	0.466	-0.329	
20.810	0.293	-0.149	
20.815	-0.151	0.009	
20.820	0.373	0.101	
20.825	0.581	0.183	
20.830	0.021	0.261	
20.835	0.341	0.295	
20.840	0.872	0.331	
20.845	0.293	0.397	
20.850	0.143	0.430	
20.855	0.851	0.433	
20.860	0.622	0.468	
20.865	0.224	0.506	
20.870	0.941	0.524	
20.875	1.192	0.588	
20.880	0.565	0.691	
20.885	0.913	0.763	
20.890	1.395	0.832	
20.895	0.788	0.920	
20.900	0.829	0.969	
20.905	1.463	0.994	
20.910	1.134	1.049	
20.915	0.623	1.083	
20.920	0.941	1.053	
20.925	0.848	0.999	
20.930	0.067	0.913	
20.935	0.213	0.757	
20.940	0.418	0.583	
20.945	-0.204	0.428	
20.950	-0.305	0.260	
20.955	-0.044	0.089	
20.960	-0.249	-0.041	
20.965	-0.502	-0.145	
20.970	-0.262	-0.240	
20.975	-0.195	-0.298	
20.980	-0.544	-0.327	
20.985	-0.444	-0.361	
20.990	-0.197	-0.386	
20.995	-0.468	-0.387	
21.000	-0.496	-0.392	
21.005	-0.148	-0.396	
21.010	-0.281	-0.374	
21.015	-0.470	-0.349	
21.020	-0.151	-0.335	
21.025	-0.137	-0.309	
21.030	-0.464	-0.280	
21.035	-0.302	-0.277	
21.040	0.004	-0.273	
21.045	-0.329	-0.250	
21.050	-0.349	-0.239	
21.055	0.078	-0.233	
21.060	-0.111	-0.201	
21.065	-0.311	-0.169	
21.070	0.097	-0.152	
21.075	0.238	-0.110	
21.080	-0.235	-0.053	
21.085	-0.055	-0.029	
21.090	0.389	-0.009	
21.095	-0.137	0.029	
21.100	-0.215	0.038	
21.105	0.274	0.022	
21.110	0.070	0.028	
21.115	-0.267	0.033	
21.120	0.015	0.009	
21.125	0.105	-0.011	
21.130	-0.310	-0.022	
21.135	-0.201	-0.057	
21.140	0.113	-0.091	
21.145	-0.259	-0.102	
21.150	-0.331	-0.122	
21.155	0.037	-0.151	
21.160	-0.159	-0.156	
21.165	-0.358	-0.159	
21.170	-0.032	-0.173	
21.175	0.187	-0.159	
21.180	-0.258	-0.119	
21.185	0.023	-0.091	
21.190	0.840	-0.032	
21.195	0.658	0.112	
21.200	0.761	0.297	
21.205	1.184	0.488	
21.210	0.018	0.637	
21.215	-0.717	0.616	
21.220	-0.689	0.395	
21.225	-0.665	0.086	
21.230	-0.878	-0.215	
21.235	-0.524	-0.460	
21.240	-0.017	-0.585	
21.245	-0.133	-0.570	
21.250	0.027	-0.470	
21.255	0.849	-0.298	
21.260	0.556	-0.053	
21.265	0.212	0.177	
21.270	1.018	0.350	
21.275	1.152	0.527	
21.280	0.418	0.690	
21.285	0.703	0.766	
21.290	1.116	0.798	
21.295	0.506	0.825	
21.300	0.456	0.806	
21.305	1.232	0.769	
21.310	0.870	0.784	
21.315	0.369	0.801	
21.320	0.998	0.782	
21.325	1.157	0.791	
21.330	0.543	0.827	
21.335	0.947	0.839	
21.340	1.515	0.873	
21.345	0.951	0.955	
21.350	0.915	1.020	
21.355	1.689	1.069	
21.360	1.311	1.155	
21.365	0.782	1.219	
21.370	1.270	1.217	
21.375	1.219	1.200	
21.380	0.338	1.158	
21.385	0.479	1.033	
21.390	0.755	0.875	
21.395	-0.032	0.726	
21.400	-0.160	0.544	
21.405	0.166	0.345	
21.410	-0.215	0.181	
21.415	-0.467	0.034	
21.420	-0.194	-0.107	
21.425	-0.185	-0.204	
21.430	-0.575	-0.267	
21.435	-0.441	-0.330	
21.440	-0.145	-0.374	
21.445	-0.468	-0.382	
21.450	-0.509	-0.389	
21.455	-0.163	-0.397	
21.460	-0.319	-0.380	
21.465	-0.523	-0.363	
21.470	-0.198	-0.360	
21.475	-0.154	-0.341	
21.480	-0.492	-0.315	
21.485	-0.314	-0.311	
21.490	-0.063	-0.307	
21.495	-0.393	-0.286	
21.500	-0.462	-0.284	
21.505	-0.131	-0.297	
21.510	-0.270	-0.295	
21.515	-0.515	-0.294	
21.520	-0.169	-0.307	
21.525	-0.064	-0.299	
21.530	-0.386	-0.272	
21.535	-0.189	-0.255	
21.540	0.152	-0.228	
21.545	-0.290	-0.181	
21.550	-0.293	-0.157	
21.555	0.139	-0.151	
21.560	-0.090	-0.125	
21.565	-0.319	-0.105	
21.570	0.064	-0.107	
21.575	0.046	-0.095	
21.580	-0.375	-0.081	
21.585	-0.171	-0.100	
21.590	0.128	-0.118	
21.595	-0.320	-0.116	
21.600	-0.354	-0.133	
21.605	-0.018	-0.166	
21.610	-0.261	-0.181	
21.615	-0.462	-0.201	
21.620	-0.142	-0.235	
21.625	-0.107	-0.248	
21.630	-0.459	-0.246	
21.635	-0.290	-0.260	
21.640	0.091	-0.263	
21.645	-0.140	-0.227	
21.650	0.154	-0.169	
21.655	1.122	-0.050	
21.660	0.797	0.165	
21.665	-0.049	0.364	
21.670	-0.226	0.416	
21.675	-0.610	0.314	
21.680	-0.994	0.093	
21.685	-0.930	-0.195	
21.690	-0.598	-0.460	
21.695	-0.666	-0.635	
21.700	-0.471	-0.714	
21.705	0.184	-0.687	
21.710	0.120	-0.546	
21.715	-0.104	-0.361	
21.720	0.575	-0.181	
21.725	0.767	0.024	
21.730	0.207	0.228	
21.735	0.668	0.371	
21.740	1.123	0.496	
21.745	0.588	0.628	
21.750	0.532	0.707	
21.755	1.197	0.747	
21.760	0.969	0.809	
21.765	0.479	0.856	
21.770	1.119	0.862	
21.775	1.328	0.893	
21.780	0.704	0.950	
21.785	1.049	0.977	
21.790	1.546	1.011	
21.795	1.052	1.080	
21.800	1.168	1.137	
21.805	1.902	1.200	
21.810	1.535	1.309	
21.815	1.195	1.406	
21.820	1.666	1.452	
21.825	1.613	1.490	
21.830	0.823	1.497	
21.835	1.043	1.423	
21.840	1.312	1.319	
21.845	0.471	1.215	
21.850	0.314	1.058	
21.855	0.582	0.863	
21.860	0.040	0.678	
21.865	-0.276	0.480	
21.870	-0.038	0.268	
21.875	-0.081	0.095	
21.880	-0.444	-0.038	
21.885	-0.296	-0.154	
21.890	-0.087	-0.235	
21.895	-0.430	-0.273	
21.900	-0.451	-0.305	
21.905	-0.110	-0.332	
21.910	-0.320	-0.329	
21.915	-0.497	-0.325	
21.920	-0.185	-0.332	
21.925	-0.171	-0.322	
21.930	-0.500	-0.305	
21.935	-0.291	-0.308	
21.940	-0.069	-0.306	
21.945	-0.375	-0.285	
21.950	-0.403	-0.279	
21.955	-0.037	-0.280	
21.960	-0.212	-0.261	
21.965	-0.413	-0.244	
21.970	-0.078	-0.242	
21.975	-0.002	-0.222	
21.980	-0.335	-0.191	
21.985	-0.175	-0.180	
21.990	0.152	-0.165	
21.995	-0.197	-0.131	
22.000	-0.220	-0.111	
22.005	0.256	-0.098	
22.010	-0.058	-0.063	
22.015	-0.249	-0.039	
22.020	0.195	-0.037	
22.025	0.287	-0.009	
22.030	-0.215	0.032	
22.035	-0.024	0.038	
22.040	0.328	0.037	
22.045	-0.267	0.047	
22.050	-0.311	0.019	
22.055	0.097	-0.035	
22.060	-0.163	-0.068	
22.065	-0.387	-0.100	
22.070	-0.055	-0.143	
22.075	-0.002	-0.161	
22.080	-0.386	-0.160	
22.085	-0.198	-0.175	
22.090	0.169	-0.179	
22.095	-0.236	-0.152	
22.100	-0.156	-0.132	
22.105	0.776	-0.087	
22.110	0.812	0.053	
22.115	0.657	0.253	
22.120	1.166	0.457	
22.125	0.550	0.636	
22.130	-0.535	0.686	
22.135	-0.749	0.526	
22.140	-0.688	0.225	
22.145	-0.953	-0.107	
22.150	-0.771	-0.405	
22.155	-0.197	-0.602	
22.160	-0.212	-0.651	
22.165	-0.300	-0.597	
22.170	0.280	-0.485	
22.175	0.375	-0.311	
22.180	-0.104	-0.126	
22.185	0.357	0.013	
22.190	0.927	0.150	
22.195	0.311	0.306	
22.200	0.410	0.416	
22.205	1.165	0.500	
22.210	0.808	0.612	
22.215	0.422	0.702	
22.220	1.140	0.746	
22.225	1.239	0.811	
22.230	0.687	0.893	
22.235	1.064	0.938	
22.240	1.531	0.987	
22.245	0.948	1.063	
22.250	0.966	1.107	
22.255	1.654	1.134	
22.260	1.287	1.194	
22.265	0.910	1.240	
22.270	1.587	1.251	
22.275	1.608	1.288	
22.280	0.831	1.328	
22.285	1.119	1.305	
22.290	1.431	1.261	
22.295	0.642	1.220	
22.300	0.404	1.118	
22.305	0.834	0.967	
22.310	0.268	0.822	
22.315	-0.166	0.655	
22.320	0.171	0.457	
22.325	0.020	0.284	
22.330	-0.439	0.136	
22.335	-0.328	-0.017	
22.340	-0.140	-0.146	
22.345	-0.479	-0.232	
22.350	-0.524	-0.307	
22.355	-0.209	-0.367	
22.360	-0.404	-0.391	
22.365	-0.589	-0.405	
22.370	-0.279	-0.423	
22.375	-0.226	-0.417	
22.380	-0.549	-0.396	
22.385	-0.364	-0.391	
22.390	-0.120	-0.380	
22.395	-0.474	-0.355	
22.400	-0.477	-0.348	
22.405	-0.122	-0.352	
22.410	-0.354	-0.339	
22.415	-0.550	-0.333	
22.420	-0.204	-0.346	
22.425	-0.224	-0.343	
22.430	-0.535	-0.333	
22.435	-0.352	-0.342	
22.440	-0.122	-0.347	
22.445	-0.435	-0.332	
22.450	-0.406	-0.329	
22.455	-0.053	-0.326	
22.460	-0.276	-0.301	
22.465	-0.439	-0.281	
22.470	-0.078	-0.276	
22.475	-0.089	-0.255	
22.480	-0.430	-0.229	
22.485	-0.210	-0.227	
22.490	-0.002	-0.224	
22.495	-0.407	-0.209	
22.500	-0.410	-0.220	
22.505	-0.072	-0.245	
22.510	-0.357	-0.254	
22.515	-0.587	-0.275	
22.520	-0.261	-0.317	
22.525	-0.229	-0.341	
22.530	-0.531	-0.347	
22.535	-0.335	-0.361	
22.540	-0.087	-0.361	
22.545	-0.377	-0.335	
22.550	-0.346	-0.315	
22.555	0.078	-0.293	
22.560	-0.026	-0.238	
22.565	0.108	-0.161	
22.570	0.998	-0.038	
22.575	1.084	0.176	
22.580	0.229	0.406	
22.585	-0.061	0.512	
22.590	-0.403	0.456	
22.595	-0.951	0.261	
22.600	-0.989	-0.036	
22.605	-0.579	-0.337	
22.610	-0.528	-0.546	
22.615	-0.476	-0.646	
22.620	0.070	-0.640	
22.625	0.315	-0.521	
22.630	-0.084	-0.337	
22.635	0.355	-0.162	
22.640	0.858	0.023	
22.645	0.270	0.218	
22.650	0.343	0.354	
22.655	1.059	0.448	
22.660	0.576	0.552	
22.665	0.239	0.614	
22.670	0.953	0.624	
22.675	1.021	0.660	
22.680	0.431	0.714	
22.685	0.808	0.733	
22.690	1.203	0.757	
22.695	0.567	0.803	
22.700	0.599	0.813	
22.705	1.335	0.811	
22.710	0.991	0.857	
22.715	0.741	0.909	
22.720	1.396	0.945	
22.725	1.454	1.018	
22.730	0.841	1.104	
22.735	1.090	1.137	
22.740	1.415	1.149	
22.745	0.709	1.156	
22.750	0.628	1.106	
22.755	1.076	1.017	
22.760	0.476	0.936	
22.765	-0.078	0.814	
22.770	0.297	0.632	
22.775	0.065	0.452	
22.780	-0.383	0.283	
22.785	-0.252	0.103	
22.790	-0.120	-0.050	
22.795	-0.500	-0.162	
22.800	-0.543	-0.264	
22.805	-0.313	-0.353	
22.810	-0.512	-0.409	
22.815	-0.668	-0.454	
22.820	-0.413	-0.496	
22.825	-0.416	-0.514	
22.830	-0.700	-0.517	
22.835	-0.500	-0.530	
22.840	-0.282	-0.530	
22.845	-0.643	-0.511	
22.850	-0.637	-0.509	
22.855	-0.299	-0.517	
22.860	-0.433	-0.502	
22.865	-0.584	-0.483	
22.870	-0.268	-0.470	
22.875	-0.246	-0.441	
22.880	-0.537	-0.404	
22.885	-0.326	-0.388	
22.890	-0.117	-0.368	
22.895	-0.413	-0.336	
22.900	-0.354	-0.318	
22.905	-0.027	-0.303	
22.910	-0.198	-0.268	
22.915	-0.355	-0.237	
22.920	-0.002	-0.220	
22.925	0.053	-0.185	
22.930	-0.317	-0.144	
22.935	-0.130	-0.130	
22.940	0.200	-0.116	
22.945	-0.209	-0.085	
22.950	-0.198	-0.074	
22.955	0.277	-0.069	
22.960	-0.104	-0.043	
22.965	-0.320	-0.033	
22.970	-0.003	-0.057	
22.975	-0.084	-0.077	
22.980	-0.401	-0.099	
22.985	-0.174	-0.141	
22.990	0.105	-0.165	
22.995	-0.314	-0.159	
23.000	-0.306	-0.165	
23.005	0.119	-0.175	
23.010	-0.157	-0.158	
23.015	-0.265	-0.142	
23.020	0.537	-0.114	
23.025	0.910	-0.001	
23.030	0.543	0.189	
23.035	0.922	0.382	
23.040	0.844	0.556	
23.045	-0.406	0.640	
23.050	-0.785	0.529	
23.055	-0.698	0.253	
23.060	-0.901	-0.071	
23.065	-0.916	-0.375	
23.070	-0.375	-0.599	
23.075	-0.178	-0.684	
23.080	-0.366	-0.650	
23.085	-0.046	-0.557	
23.090	0.398	-0.412	
23.095	-0.098	-0.234	
23.100	0.061	-0.091	
23.105	0.694	0.029	
23.110	0.236	0.160	
23.115	-0.021	0.248	
23.120	0.655	0.285	
23.125	0.665	0.340	
23.130	0.038	0.398	
23.135	0.456	0.408	
23.140	0.878	0.422	
23.145	0.262	0.465	
23.150	0.360	0.482	
23.155	1.052	0.495	
23.160	0.660	0.554	
23.165	0.364	0.607	
23.170	1.087	0.635	
23.175	1.098	0.700	
23.180	0.471	0.775	
23.185	0.942	0.807	
23.190	1.338	0.844	
23.195	0.637	0.903	
23.200	0.643	0.915	
23.205	1.064	0.890	
23.210	0.527	0.866	
23.215	0.058	0.795	
23.220	0.578	0.669	
23.225	0.361	0.557	
23.230	-0.256	0.447	
23.235	-0.079	0.300	
23.240	0.055	0.155	
23.245	-0.415	0.038	
23.250	-0.436	-0.083	
23.255	-0.125	-0.192	
23.260	-0.369	-0.259	
23.265	-0.563	-0.310	
23.270	-0.258	-0.358	
23.275	-0.291	-0.379	
23.280	-0.575	-0.385	
23.285	-0.334	-0.399	
23.290	-0.139	-0.395	
23.295	-0.476	-0.371	
23.300	-0.412	-0.360	
23.305	-0.101	-0.353	
23.310	-0.320	-0.327	
23.315	-0.480	-0.310	
23.320	-0.127	-0.310	
23.325	-0.110	-0.291	
23.330	-0.425	-0.264	
23.335	-0.206	-0.256	
23.340	0.026	-0.242	
23.345	-0.284	-0.211	
23.350	-0.252	-0.193	
23.355	0.203	-0.176	
23.360	-0.111	-0.133	
23.365	-0.287	-0.101	
23.370	0.148	-0.092	
23.375	0.166	-0.062	
23.380	-0.262	-0.026	
23.385	-0.089	-0.024	
23.390	0.261	-0.027	
23.395	-0.246	-0.015	
23.400	-0.201	-0.026	
23.405	0.279	-0.044	
23.410	-0.096	-0.032	
23.415	-0.331	-0.032	
23.420	-0.049	-0.063	
23.425	-0.127	-0.092	
23.430	-0.470	-0.125	
23.435	-0.291	-0.181	
23.440	-0.139	-0.230	
23.445	-0.468	-0.259	
23.450	-0.430	-0.295	
23.455	-0.081	-0.324	
23.460	-0.306	-0.319	
23.465	-0.459	-0.311	
23.470	-0.085	-0.310	
23.475	-0.021	-0.283	
23.480	-0.198	-0.232	
23.485	0.489	-0.161	
23.490	1.052	-0.012	
23.495	0.238	0.194	
23.500	-0.230	0.320	
23.505	-0.387	0.294	
23.510	-0.848	0.142	
23.515	-0.994	-0.101	
23.520	-0.657	-0.363	
23.525	-0.444	-0.552	
23.530	-0.511	-0.638	
23.535	-0.087	-0.634	
23.540	0.460	-0.525	
23.545	0.011	-0.336	
23.550	0.215	-0.149	
23.555	0.846	0.030	
23.560	0.518	0.224	
23.565	0.373	0.383	
23.570	1.207	0.504	
23.575	1.250	0.657	
23.580	0.643	0.812	
23.585	1.122	0.907	
23.590	1.529	0.990	
23.595	0.957	1.085	
23.600	1.014	1.137	
23.605	1.668	1.168	
23.610	1.248	1.226	
23.615	0.966	1.264	
23.620	1.692	1.275	
23.625	1.688	1.324	
23.630	1.076	1.387	
23.635	1.556	1.411	
23.640	2.006	1.448	
23.645	1.384	1.520	
23.650	1.259	1.553	
23.655	1.886	1.550	
23.660	1.380	1.558	
23.665	0.835	1.527	
23.670	1.320	1.432	
23.675	1.005	1.328	
23.680	0.215	1.195	
23.685	0.472	0.997	
23.690	0.569	0.795	
23.695	-0.178	0.616	
23.700	-0.244	0.412	
23.705	0.067	0.208	
23.710	-0.267	0.052	
23.715	-0.467	-0.077	
23.720	-0.194	-0.191	
23.725	-0.261	-0.263	
23.730	-0.605	-0.311	
23.735	-0.413	-0.364	
23.740	-0.229	-0.400	
23.745	-0.566	-0.410	
23.750	-0.558	-0.427	
23.755	-0.253	-0.447	
23.760	-0.432	-0.443	
23.765	-0.553	-0.436	
23.770	-0.192	-0.432	
23.775	-0.194	-0.403	
23.780	-0.488	-0.363	
23.785	-0.288	-0.344	
23.790	-0.073	-0.323	
23.795	-0.367	-0.291	
23.800	-0.270	-0.271	
23.805	0.133	-0.247	
23.810	-0.195	-0.199	
23.815	-0.288	-0.163	
23.820	0.262	-0.139	
23.825	0.123	-0.085	
23.830	-0.297	-0.033	
23.835	-0.035	-0.025	
23.840	0.360	-0.016	
23.845	-0.169	0.014	
23.850	-0.104	0.023	
23.855	0.480	0.028	
23.860	0.094	0.069	
23.865	-0.128	0.101	
23.870	0.395	0.109	
23.875	0.239	0.135	
23.880	-0.273	0.150	
23.885	-0.023	0.115	
23.890	0.194	0.070	
23.895	-0.300	0.038	
23.900	-0.281	-0.016	
23.905	0.123	-0.074	
23.910	-0.156	-0.097	
23.915	-0.335	-0.115	
23.920	-0.008	-0.141	
23.925	-0.005	-0.144	
23.930	-0.259	-0.132	
23.935	0.308	-0.111	
23.940	1.056	-0.016	
23.945	0.756	0.181	
23.950	0.892	0.404	
23.955	1.099	0.607	
23.960	-0.157	0.730	
23.965	-0.765	0.657	
23.970	-0.721	0.388	
23.975	-0.771	0.047	
23.980	-0.924	-0.276	
23.985	-0.515	-0.529	
23.990	-0.128	-0.652	
23.995	-0.322	-0.642	
24.000	-0.183	-0.563	
24.005	0.489	-0.430	
24.010	0.215	-0.238	
24.015	-0.078	-0.061	
24.020	0.584	0.067	
24.025	0.633	0.197	
24.030	0.143	0.316	
24.035	0.648	0.389	
24.040	0.980	0.465	
24.045	0.268	0.549	
24.050	0.511	0.582	
24.055	1.166	0.605	
24.060	0.671	0.666	
24.065	0.346	0.705	
24.070	1.046	0.705	
24.075	1.041	0.736	
24.080	0.500	0.782	
24.085	1.030	0.802	
24.090	1.407	0.847	
24.095	0.817	0.928	
24.100	0.937	0.980	
24.105	1.495	1.018	
24.110	0.980	1.075	
24.115	0.590	1.092	
24.120	1.131	1.050	
24.125	0.904	1.009	
24.130	0.105	0.943	
24.135	0.335	0.804	
24.140	0.503	0.646	
24.145	-0.215	0.501	
24.150	-0.274	0.328	
24.155	-0.064	0.144	
24.160	-0.374	-0.009	
24.165	-0.567	-0.146	
24.170	-0.261	-0.268	
24.175	-0.308	-0.343	
24.180	-0.611	-0.385	
24.185	-0.422	-0.425	
24.190	-0.264	-0.446	
24.195	-0.575	-0.444	
24.200	-0.511	-0.450	
24.205	-0.177	-0.452	
24.210	-0.393	-0.427	
24.215	-0.558	-0.406	
24.220	-0.178	-0.399	
24.225	-0.236	-0.375	
24.230	-0.541	-0.349	
24.235	-0.239	-0.344	
24.240	-0.021	-0.326	
24.245	-0.372	-0.287	
24.250	-0.273	-0.263	
24.255	0.201	-0.236	
24.260	-0.172	-0.181	
24.265	-0.323	-0.142	
24.270	0.155	-0.127	
24.275	0.200	-0.088	
24.280	-0.217	-0.037	
24.285	0.104	-0.011	
24.290	0.526	0.028	
24.295	-0.043	0.093	
24.300	0.012	0.129	
24.305	0.660	0.152	
24.310	0.216	0.207	
24.315	-0.070	0.243	
24.320	0.584	0.246	
24.325	0.529	0.277	
24.330	-0.052	0.315	
24.335	0.380	0.312	
24.340	0.695	0.318	
24.345	-0.043	0.342	
24.350	-0.003	0.319	
24.355	0.637	0.275	
24.360	0.136	0.268	
24.365	-0.090	0.253	
24.370	0.509	0.220	
24.375	0.444	0.227	
24.380	-0.104	0.248	
24.385	0.309	0.238	
24.390	0.800	0.249	
24.395	0.412	0.316	
24.400	0.880	0.406	
24.405	1.713	0.555	
24.410	1.125	0.776	
24.415	0.357	0.941	
24.420	0.053	0.936	
24.425	-0.464	0.760	
24.430	-0.913	0.451	
24.435	-0.680	0.079	
24.440	-0.357	-0.240	
24.445	-0.471	-0.438	
24.450	-0.212	-0.525	
24.455	0.550	-0.487	
24.460	0.258	-0.325	
24.465	0.075	-0.133	
24.470	0.800	0.042	
24.475	0.755	0.232	
24.480	0.059	0.392	
24.485	0.582	0.466	
24.490	0.986	0.518	
24.495	0.341	0.581	
24.500	0.454	0.603	
24.505	1.021	0.608	
24.510	0.576	0.639	
24.515	0.352	0.654	
24.520	1.094	0.649	
24.525	1.029	0.692	
24.530	0.418	0.750	
24.535	0.881	0.767	
24.540	1.277	0.793	
24.545	0.674	0.849	
24.550	0.951	0.885	
24.555	1.640	0.934	
24.560	1.053	1.029	
24.565	0.724	1.093	
24.570	1.370	1.101	
24.575	1.192	1.116	
24.580	0.457	1.112	
24.585	0.788	1.039	
24.590	0.901	0.946	
24.595	-0.027	0.844	
24.600	-0.066	0.674	
24.605	0.297	0.473	
24.610	-0.169	0.303	
24.615	-0.425	0.142	
24.620	-0.172	-0.018	
24.625	-0.305	-0.143	
24.630	-0.671	-0.246	
24.635	-0.425	-0.346	
24.640	-0.277	-0.415	
24.645	-0.643	-0.447	
24.650	-0.598	-0.480	
24.655	-0.317	-0.507	
24.660	-0.547	-0.509	
24.665	-0.656	-0.511	
24.670	-0.337	-0.519	
24.675	-0.383	-0.507	
24.680	-0.671	-0.489	
24.685	-0.415	-0.488	
24.690	-0.238	-0.478	
24.695	-0.561	-0.452	
24.700	-0.471	-0.440	
24.705	-0.154	-0.430	
24.710	-0.357	-0.398	
24.715	-0.477	-0.370	
24.720	-0.149	-0.356	
24.725	-0.186	-0.328	
24.730	-0.467	-0.299	
24.735	-0.209	-0.291	
24.740	-0.017	-0.275	
24.745	-0.348	-0.243	
24.750	-0.276	-0.229	
24.755	0.145	-0.214	
24.760	-0.192	-0.176	
24.765	-0.311	-0.150	
24.770	0.139	-0.140	
24.775	0.014	-0.111	
24.780	-0.311	-0.083	
24.785	-0.021	-0.083	
24.790	0.241	-0.072	
24.795	-0.305	-0.047	
24.800	-0.233	-0.054	
24.805	0.093	-0.078	
24.810	-0.238	-0.089	
24.815	-0.383	-0.113	
24.820	-0.055	-0.153	
24.825	-0.090	-0.171	
24.830	-0.390	-0.178	
24.835	-0.140	-0.194	
24.840	0.108	-0.193	
24.845	-0.305	-0.167	
24.850	-0.101	-0.151	
24.855	0.844	-0.100	
24.860	0.777	0.053	
24.865	0.790	0.265	
24.870	1.294	0.489	
24.875	0.442	0.685	
24.880	-0.610	0.728	
24.885	-0.707	0.546	
24.890	-0.662	0.232	
24.895	-0.988	-0.105	
24.900	-0.746	-0.407	
24.905	-0.210	-0.605	
24.910	-0.256	-0.656	
24.915	-0.230	-0.604	
24.920	0.468	-0.479	
24.925	0.431	-0.276	
24.930	-0.101	-0.069	
24.935	0.401	0.075	
24.940	0.777	0.200	
24.945	0.137	0.321	
24.950	0.297	0.384	
24.955	0.919	0.420	
24.960	0.425	0.478	
24.965	0.169	0.508	
24.970	0.877	0.505	
24.975	0.782	0.535	
24.980	0.230	0.574	
24.985	0.794	0.581	
24.990	1.159	0.615	
24.995	0.395	0.680	
25.000	0.549	0.701	
25.005	1.227	0.708	
25.010	0.747	0.754	
25.015	0.534	0.787	
25.020	1.253	0.800	
25.025	1.082	0.849	
25.030	0.453	0.895	
25.035	0.867	0.884	
25.040	1.012	0.863	
25.045	0.133	0.833	
25.050	0.090	0.728	
25.055	0.501	0.579	
25.060	-0.111	0.444	
25.065	-0.332	0.294	
25.070	-0.058	0.127	
25.075	-0.204	-0.009	
25.080	-0.573	-0.122	
25.085	-0.348	-0.233	
25.090	-0.224	-0.314	
25.095	-0.633	-0.362	
25.100	-0.605	-0.415	
25.105	-0.313	-0.464	
25.110	-0.540	-0.484	
25.115	-0.640	-0.499	
25.120	-0.317	-0.512	
25.125	-0.387	-0.501	
25.130	-0.651	-0.484	
25.135	-0.399	-0.482	
25.140	-0.232	-0.470	
25.145	-0.553	-0.443	
25.150	-0.459	-0.430	
25.155	-0.149	-0.420	
25.160	-0.410	-0.391	
25.165	-0.526	-0.374	
25.170	-0.145	-0.370	
25.175	-0.185	-0.347	
25.180	-0.520	-0.319	
25.185	-0.258	-0.314	
25.190	-0.027	-0.303	
25.195	-0.363	-0.273	
25.200	-0.279	-0.255	
25.205	0.140	-0.236	
25.210	-0.183	-0.191	
25.215	-0.300	-0.158	
25.220	0.197	-0.140	
25.225	0.128	-0.095	
25.230	-0.271	-0.047	
25.235	0.027	-0.032	
25.240	0.341	-0.014	
25.245	-0.209	0.021	
25.250	-0.157	0.024	
25.255	0.282	0.009	
25.260	-0.151	0.012	
25.265	-0.247	-0.001	
25.270	0.108	-0.032	
25.275	-0.064	-0.046	
25.280	-0.358	-0.061	
25.285	-0.041	-0.096	
25.290	0.216	-0.105	
25.295	-0.282	-0.086	
25.300	-0.188	-0.085	
25.305	0.370	-0.082	
25.310	0.082	-0.036	
25.315	0.161	0.025	
25.320	1.181	0.124	
25.325	1.288	0.325	
25.330	0.509	0.561	
25.335	0.386	0.698	
25.340	-0.148	0.689	
25.345	-0.797	0.524	
25.350	-0.826	0.228	
25.355	-0.450	-0.093	
25.360	-0.546	-0.339	
25.365	-0.477	-0.490	
25.370	0.130	-0.538	
25.375	0.265	-0.459	
25.380	-0.052	-0.308	
25.385	0.520	-0.145	
25.390	0.870	0.047	
25.395	0.271	0.250	
25.400	0.538	0.394	
25.405	1.241	0.511	
25.410	0.718	0.647	
25.415	0.488	0.740	
25.420	1.248	0.785	
25.425	1.128	0.852	
25.430	0.471	0.911	
25.435	1.104	0.919	
25.440	1.445	0.943	
25.445	0.762	1.000	
25.450	0.953	1.025	
25.455	1.626	1.046	
25.460	1.128	1.109	
25.465	0.925	1.158	
25.470	1.759	1.186	
25.475	1.713	1.266	
25.480	1.084	1.360	
25.485	1.588	1.408	
25.490	1.773	1.450	
25.495	1.018	1.487	
25.500	1.058	1.455	
25.505	1.523	1.386	
25.510	0.747	1.320	
25.515	0.184	1.192	
25.520	0.715	0.993	
25.525	0.378	0.804	
25.530	-0.226	0.620	
25.535	-0.058	0.409	
25.540	0.001	0.214	
25.545	-0.433	0.056	
25.550	-0.425	-0.091	
25.555	-0.156	-0.213	
25.560	-0.435	-0.288	
25.565	-0.543	-0.344	
25.570	-0.192	-0.387	
25.575	-0.271	-0.392	
25.580	-0.569	-0.382	
25.585	-0.342	-0.388	
25.590	-0.197	-0.386	
25.595	-0.552	-0.373	
25.600	-0.456	-0.379	
25.605	-0.166	-0.387	
25.610	-0.442	-0.376	
25.615	-0.547	-0.375	
25.620	-0.183	-0.385	
25.625	-0.293	-0.374	
25.630	-0.576	-0.362	
25.635	-0.323	-0.371	
25.640	-0.177	-0.371	
25.645	-0.547	-0.359	
25.650	-0.448	-0.367	
25.655	-0.125	-0.375	
25.660	-0.398	-0.360	
25.665	-0.511	-0.353	
25.670	-0.113	-0.355	
25.675	-0.213	-0.334	
25.680	-0.464	-0.308	
25.685	-0.162	-0.299	
25.690	-0.027	-0.277	
25.695	-0.395	-0.243	
25.700	-0.282	-0.232	
25.705	0.044	-0.226	
25.710	-0.281	-0.204	
25.715	-0.409	-0.197	
25.720	-0.069	-0.212	
25.725	-0.183	-0.213	
25.730	-0.486	-0.217	
25.735	-0.197	-0.242	
25.740	-0.015	-0.250	
25.745	-0.375	-0.236	
25.750	-0.264	-0.233	
25.755	0.172	-0.222	
25.760	-0.204	-0.182	
25.765	-0.233	-0.150	
25.770	0.610	-0.109	
25.775	0.753	0.011	
25.780	0.530	0.190	
25.785	1.248	0.385	
25.790	1.319	0.610	
25.795	-0.050	0.785	
25.800	-0.428	0.763	
25.805	-0.428	0.549	
25.810	-0.790	0.247	
25.815	-0.787	-0.076	
25.820	-0.223	-0.340	
25.825	-0.076	-0.468	
25.830	-0.207	-0.471	
25.835	0.459	-0.387	
25.840	0.922	-0.199	
25.845	0.236	0.047	
25.850	0.495	0.247	
25.855	1.160	0.410	
25.860	0.642	0.574	
25.865	0.482	0.683	
25.870	1.221	0.742	
25.875	1.127	0.820	
25.880	0.587	0.895	
25.885	1.165	0.926	
25.890	1.325	0.966	
25.895	0.631	1.013	
25.900	0.863	1.008	
25.905	1.520	0.998	
25.910	0.962	1.034	
25.915	0.826	1.057	
25.920	1.540	1.066	
25.925	1.407	1.118	
25.930	0.886	1.179	
25.935	1.399	1.203	
25.940	1.678	1.240	
25.945	0.976	1.294	
25.950	1.133	1.301	
25.955	1.655	1.291	
25.960	0.931	1.295	
25.965	0.521	1.245	
25.970	0.959	1.126	
25.975	0.509	0.995	
25.980	-0.156	0.832	
25.985	0.038	0.608	
25.990	0.079	0.386	
25.995	-0.404	0.196	
26.000	-0.352	0.017	
26.005	-0.153	-0.133	
26.010	-0.486	-0.235	
26.015	-0.636	-0.323	
26.020	-0.326	-0.403	
26.025	-0.409	-0.446	
26.030	-0.668	-0.468	
26.035	-0.393	-0.492	
26.040	-0.270	-0.492	
26.045	-0.614	-0.473	
26.050	-0.514	-0.469	
26.055	-0.203	-0.466	
26.060	-0.476	-0.442	
26.065	-0.560	-0.428	
26.070	-0.191	-0.425	
26.075	-0.294	-0.402	
26.080	-0.584	-0.379	
26.085	-0.317	-0.380	
26.090	-0.154	-0.374	
26.095	-0.474	-0.352	
26.100	-0.358	-0.344	
26.105	-0.079	-0.335	
26.110	-0.357	-0.309	
26.115	-0.430	-0.296	
26.120	-0.041	-0.293	
26.125	-0.143	-0.267	
26.130	-0.412	-0.240	
26.135	-0.116	-0.232	
26.140	0.056	-0.212	
26.145	-0.325	-0.179	
26.150	-0.201	-0.166	
26.155	0.215	-0.152	
26.160	-0.180	-0.116	
26.165	-0.282	-0.096	
26.170	0.123	-0.097	
26.175	-0.073	-0.085	
26.180	-0.383	-0.082	
26.185	-0.102	-0.109	
26.190	0.050	-0.127	
26.195	-0.357	-0.129	
26.200	-0.203	-0.146	
26.205	0.037	-0.161	
26.210	-0.300	-0.158	
26.215	-0.358	-0.171	
26.220	0.120	-0.186	
26.225	0.027	-0.164	
26.230	-0.183	-0.123	
26.235	0.654	-0.066	
26.240	1.312	0.087	
26.245	0.767	0.333	
26.250	0.785	0.560	
26.255	0.619	0.704	
26.260	-0.464	0.718	
26.265	-0.860	0.538	
26.270	-0.654	0.219	
26.275	-0.689	-0.110	
26.280	-0.765	-0.380	
26.285	-0.262	-0.558	
26.290	0.157	-0.594	
26.295	-0.166	-0.508	
26.300	0.113	-0.375	
26.305	0.829	-0.199	
26.310	0.303	0.020	
26.315	0.165	0.198	
26.320	0.872	0.318	
26.325	0.756	0.441	
26.330	0.326	0.546	
26.335	0.988	0.607	
26.340	1.238	0.688	
26.345	0.558	0.787	
26.350	0.815	0.836	
26.355	1.419	0.873	
26.360	0.881	0.939	
26.365	0.715	0.978	
26.370	1.419	0.989	
26.375	1.244	1.033	
26.380	0.758	1.079	
26.385	1.345	1.092	
26.390	1.547	1.127	
26.395	0.809	1.179	
26.400	1.075	1.182	
26.405	1.566	1.174	
26.410	0.896	1.189	
26.415	0.561	1.158	
26.420	1.052	1.070	
26.425	0.655	0.983	
26.430	-0.043	0.866	
26.435	0.283	0.688	
26.440	0.273	0.510	
26.445	-0.342	0.351	
26.450	-0.319	0.174	
26.455	-0.134	0.004	
26.460	-0.502	-0.131	
26.465	-0.653	-0.255	
26.470	-0.360	-0.370	
26.475	-0.518	-0.445	
26.480	-0.813	-0.502	
26.485	-0.560	-0.562	
26.490	-0.456	-0.598	
26.495	-0.825	-0.611	
26.500	-0.698	-0.634	
26.505	-0.439	-0.651	
26.510	-0.712	-0.645	
26.515	-0.820	-0.647	
26.520	-0.491	-0.659	
26.525	-0.578	-0.654	
26.530	-0.834	-0.645	
26.535	-0.553	-0.651	
26.540	-0.447	-0.643	
26.545	-0.764	-0.623	
26.550	-0.636	-0.619	
26.555	-0.346	-0.612	
26.560	-0.599	-0.585	
26.565	-0.657	-0.565	
26.570	-0.294	-0.553	
26.575	-0.387	-0.520	
26.580	-0.624	-0.486	
26.585	-0.351	-0.471	
26.590	-0.265	-0.450	
26.595	-0.584	-0.425	
26.600	-0.445	-0.420	
26.605	-0.102	-0.413	
26.610	-0.418	-0.383	
26.615	-0.486	-0.363	
26.620	-0.110	-0.355	
26.625	-0.235	-0.329	
26.630	-0.503	-0.306	
26.635	-0.236	-0.306	
26.640	-0.162	-0.302	
26.645	-0.528	-0.295	
26.650	-0.392	-0.311	
26.655	-0.084	-0.326	
26.660	-0.381	-0.316	
26.665	-0.432	-0.312	
26.670	-0.056	-0.313	
26.675	-0.218	-0.290	
26.680	-0.422	-0.268	
26.685	-0.032	-0.258	
26.690	0.483	-0.206	
26.695	0.168	-0.091	
26.700	0.654	0.050	
26.705	1.168	0.232	
26.710	0.067	0.420	
26.715	-0.509	0.471	
26.720	-0.521	0.342	
26.725	-0.752	0.109	
26.730	-0.941	-0.163	
26.735	-0.489	-0.410	
26.740	-0.117	-0.550	
26.745	-0.230	-0.562	
26.750	0.152	-0.483	
26.755	0.741	-0.318	
26.760	0.256	-0.091	
26.765	0.221	0.106	
26.770	0.968	0.260	
26.775	0.828	0.425	
26.780	0.355	0.566	
26.785	1.030	0.649	
26.790	1.323	0.742	
26.795	0.657	0.851	
26.800	0.916	0.912	
26.805	1.495	0.957	
26.810	0.945	1.027	
26.815	0.826	1.066	
26.820	1.555	1.080	
26.825	1.354	1.131	
26.830	0.843	1.184	
26.835	1.514	1.201	
26.840	1.796	1.249	
26.845	1.171	1.332	
26.850	1.316	1.378	
26.855	2.018	1.415	
26.860	1.430	1.485	
26.865	1.198	1.526	
26.870	1.797	1.524	
26.875	1.390	1.527	
26.880	0.698	1.490	
26.885	1.107	1.376	
26.890	1.087	1.251	
26.895	0.149	1.117	
26.900	0.166	0.916	
26.905	0.517	0.695	
26.910	-0.140	0.506	
26.915	-0.319	0.316	
26.920	0.040	0.131	
26.925	-0.200	-0.005	
26.930	-0.514	-0.111	
26.935	-0.252	-0.211	
26.940	-0.194	-0.277	
26.945	-0.550	-0.313	
26.950	-0.413	-0.352	
26.955	-0.133	-0.376	
26.960	-0.448	-0.370	
26.965	-0.561	-0.372	
26.970	-0.113	-0.382	
26.975	-0.246	-0.364	
26.980	-0.506	-0.340	
26.985	-0.212	-0.332	
26.990	-0.128	-0.316	
26.995	-0.454	-0.293	
27.000	-0.300	-0.289	
27.005	-0.015	-0.283	
27.010	-0.313	-0.257	
27.015	-0.366	-0.244	
27.020	0.040	-0.239	
27.025	-0.055	-0.208	
27.030	-0.332	-0.173	
27.035	-0.061	-0.160	
27.040	0.084	-0.141	
27.045	-0.288	-0.114	
27.050	-0.113	-0.108	
27.055	0.340	-0.093	
27.060	-0.130	-0.048	
27.065	-0.143	-0.020	
27.070	0.505	0.001	
27.075	0.187	0.060	
27.080	-0.195	0.110	
27.085	0.195	0.113	
27.090	0.297	0.117	
27.095	-0.264	0.121	
27.100	-0.149	0.084	
27.105	0.258	0.036	
27.110	-0.209	0.013	
27.115	-0.306	-0.023	
27.120	0.181	-0.065	
27.125	-0.043	-0.074	
27.130	-0.319	-0.074	
27.135	0.072	-0.089	
27.140	0.361	-0.071	
27.145	-0.053	-0.015	
27.150	0.537	0.052	
27.155	1.450	0.189	
27.160	1.018	0.427	
27.165	0.634	0.655	
27.170	0.459	0.773	
27.175	-0.457	0.739	
27.180	-0.980	0.520	
27.185	-0.791	0.168	
27.190	-0.617	-0.183	
27.195	-0.727	-0.449	
27.200	-0.374	-0.609	
27.205	0.178	-0.636	
27.210	-0.125	-0.538	
27.215	-0.139	-0.400	
27.220	0.541	-0.252	
27.225	0.361	-0.073	
27.230	-0.061	0.084	
27.235	0.508	0.181	
27.240	0.713	0.271	
27.245	0.055	0.358	
27.250	0.309	0.387	
27.255	0.864	0.400	
27.260	0.255	0.439	
27.265	0.151	0.447	
27.270	0.825	0.433	
27.275	0.558	0.454	
27.280	0.058	0.473	
27.285	0.721	0.460	
27.290	0.945	0.481	
27.295	0.329	0.538	
27.300	0.663	0.572	
27.305	1.297	0.619	
27.310	0.698	0.710	
27.315	0.553	0.774	
27.320	1.238	0.803	
27.325	0.873	0.849	
27.330	0.223	0.863	
27.335	0.736	0.805	
27.340	0.729	0.740	
27.345	-0.114	0.667	
27.350	-0.090	0.527	
27.355	0.171	0.356	
27.360	-0.322	0.202	
27.365	-0.503	0.044	
27.370	-0.230	-0.113	
27.375	-0.390	-0.232	
27.380	-0.675	-0.326	
27.385	-0.447	-0.413	
27.390	-0.415	-0.471	
27.395	-0.735	-0.505	
27.400	-0.596	-0.543	
27.405	-0.334	-0.566	
27.410	-0.653	-0.561	
27.415	-0.700	-0.563	
27.420	-0.326	-0.570	
27.425	-0.451	-0.551	
27.430	-0.689	-0.529	
27.435	-0.377	-0.522	
27.440	-0.255	-0.501	
27.445	-0.573	-0.465	
27.450	-0.418	-0.446	
27.455	-0.114	-0.424	
27.460	-0.421	-0.385	
27.465	-0.503	-0.361	
27.470	-0.111	-0.354	
27.475	-0.241	-0.330	
27.480	-0.464	-0.306	
27.485	-0.076	-0.295	
27.490	0.017	-0.263	
27.495	-0.398	-0.219	
27.500	-0.198	-0.202	
27.505	0.212	-0.183	
27.510	-0.224	-0.140	
27.515	-0.274	-0.117	
27.520	0.302	-0.105	
27.525	0.047	-0.063	
27.530	-0.265	-0.024	
27.535	0.149	-0.016	
27.540	0.250	0.004	
27.545	-0.302	0.029	
27.550	-0.185	0.011	
27.555	0.171	-0.023	
27.560	-0.273	-0.041	
27.565	-0.340	-0.075	
27.570	0.087	-0.118	
27.575	-0.149	-0.132	
27.580	-0.406	-0.143	
27.585	-0.055	-0.169	
27.590	0.081	-0.170	
27.595	-0.352	-0.151	
27.600	-0.122	-0.148	
27.605	0.559	-0.121	
27.610	0.233	-0.029	
27.615	0.441	0.090	
27.620	1.277	0.242	
27.625	0.841	0.449	
27.630	-0.186	0.596	
27.635	-0.404	0.561	
27.640	-0.665	0.364	
27.645	-0.993	0.074	
27.650	-0.919	-0.247	
27.655	-0.496	-0.512	
27.660	-0.558	-0.663	
27.665	-0.419	-0.708	
27.670	0.236	-0.653	
27.675	0.107	-0.498	
27.680	-0.204	-0.319	
27.685	0.328	-0.171	
27.690	0.491	-0.023	
27.695	-0.131	0.109	
27.700	0.172	0.172	
27.705	0.677	0.212	
27.710	0.015	0.264	
27.715	-0.067	0.270	
27.720	0.701	0.250	
27.725	0.302	0.270	
27.730	-0.130	0.284	
27.735	0.480	0.263	
27.740	0.634	0.271	
27.745	-0.034	0.304	
27.750	0.332	0.306	
27.755	0.971	0.324	
27.760	0.392	0.396	
27.765	0.344	0.456	
27.770	1.066	0.500	
27.775	0.776	0.579	
27.780	0.285	0.645	
27.785	0.960	0.665	
27.790	1.108	0.705	
27.795	0.213	0.751	
27.800	0.389	0.724	
27.805	0.785	0.659	
27.810	0.003	0.596	
27.815	-0.154	0.484	
27.820	0.300	0.340	
27.825	-0.099	0.222	
27.830	-0.416	0.109	
27.835	-0.102	-0.015	
27.840	-0.056	-0.104	
27.845	-0.480	-0.161	
27.850	-0.340	-0.222	
27.855	-0.087	-0.268	
27.860	-0.418	-0.285	
27.865	-0.424	-0.302	
27.870	0.047	-0.311	
27.875	-0.125	-0.279	
27.880	-0.435	-0.241	
27.885	-0.087	-0.228	
27.890	0.053	-0.205	
27.895	-0.383	-0.173	
27.900	-0.197	-0.167	
27.905	0.224	-0.159	
27.910	-0.235	-0.125	
27.915	-0.271	-0.109	
27.920	0.317	-0.102	
27.925	0.075	-0.060	
27.930	-0.246	-0.018	
27.935	0.250	-0.002	
27.940	0.445	0.039	
27.945	-0.165	0.097	
27.950	0.017	0.113	
27.955	0.547	0.120	
27.960	0.001	0.152	
27.965	-0.006	0.165	
27.970	0.695	0.173	
27.975	0.305	0.222	
27.980	-0.145	0.259	
27.985	0.398	0.249	
27.990	0.518	0.251	
27.995	-0.139	0.266	
28.000	0.087	0.239	
28.005	0.604	0.212	
28.010	-0.070	0.215	
28.015	-0.180	0.190	
28.020	0.375	0.141	
28.025	0.075	0.120	
28.030	-0.268	0.099	
28.035	0.130	0.056	
28.040	0.270	0.036	
28.045	-0.235	0.039	
28.050	-0.070	0.022	
28.055	0.457	0.013	
28.060	-0.012	0.044	
28.065	0.213	0.081	
28.070	1.238	0.161	
28.075	1.009	0.341	
28.080	0.395	0.535	
28.085	0.471	0.636	
28.090	-0.182	0.622	
28.095	-0.834	0.467	
28.100	-0.768	0.184	
28.105	-0.496	-0.122	
28.110	-0.653	-0.361	
28.115	-0.485	-0.517	
28.120	0.207	-0.564	
28.125	0.120	-0.481	
28.130	-0.146	-0.337	
28.135	0.456	-0.191	
28.140	0.576	-0.022	
28.145	-0.044	0.137	
28.150	0.293	0.226	
28.155	0.883	0.294	
28.160	0.427	0.388	
28.165	0.474	0.464	
28.170	1.256	0.537	
28.175	0.834	0.651	
28.180	0.343	0.737	
28.185	0.994	0.759	
28.190	1.076	0.787	
28.195	0.408	0.820	
28.200	0.785	0.808	
28.205	1.349	0.807	
28.210	0.750	0.852	
28.215	0.742	0.883	
28.220	1.543	0.910	
28.225	1.267	0.990	
28.230	0.838	1.073	
28.235	1.425	1.118	
28.240	1.471	1.172	
28.245	0.703	1.216	
28.250	0.922	1.188	
28.255	1.252	1.131	
28.260	0.439	1.072	
28.265	0.160	0.951	
28.270	0.649	0.781	
28.275	0.184	0.629	
28.280	-0.242	0.474	
28.285	0.055	0.299	
28.290	0.047	0.154	
28.295	-0.403	0.042	
28.300	-0.258	-0.067	
28.305	-0.038	-0.153	
28.310	-0.398	-0.200	
28.315	-0.435	-0.245	
28.320	-0.066	-0.284	
28.325	-0.265	-0.289	
28.330	-0.524	-0.289	
28.335	-0.206	-0.307	
28.340	-0.105	-0.306	
28.345	-0.444	-0.290	
28.350	-0.264	-0.286	
28.355	0.058	-0.273	
28.360	-0.294	-0.237	
28.365	-0.328	-0.215	
28.370	0.108	-0.204	
28.375	-0.122	-0.171	
28.380	-0.348	-0.146	
28.385	0.020	-0.143	
28.390	0.128	-0.124	
28.395	-0.281	-0.092	
28.400	-0.090	-0.083	
28.405	0.380	-0.067	
28.410	-0.128	-0.022	
28.415	-0.154	0.003	
28.420	0.453	0.015	
28.425	0.119	0.059	
28.430	-0.169	0.093	
28.435	0.421	0.102	
28.440	0.521	0.143	
28.445	-0.108	0.199	
28.450	0.171	0.212	
28.455	0.642	0.219	
28.460	-0.055	0.247	
28.465	-0.151	0.233	
28.470	0.369	0.183	
28.475	0.003	0.152	
28.480	-0.241	0.115	
28.485	0.154	0.061	
28.490	0.210	0.035	
28.495	-0.253	0.031	
28.500	-0.043	0.008	
28.505	0.454	0.000	
28.510	-0.084	0.032	
28.515	-0.018	0.055	
28.520	0.854	0.089	
28.525	0.899	0.209	
28.530	0.642	0.382	
28.535	1.287	0.556	
28.540	1.027	0.735	
28.545	-0.334	0.826	
28.550	-0.605	0.707	
28.555	-0.569	0.421	
28.560	-0.839	0.083	
28.565	-0.691	-0.234	
28.570	-0.114	-0.454	
28.575	-0.073	-0.524	
28.580	-0.168	-0.482	
28.585	0.492	-0.368	
28.590	0.692	-0.175	
28.595	0.116	0.044	
28.600	0.488	0.209	
28.605	1.026	0.349	
28.610	0.381	0.488	
28.615	0.348	0.565	
28.620	1.192	0.603	
28.625	0.765	0.672	
28.630	0.325	0.722	
28.635	0.997	0.725	
28.640	1.009	0.746	
28.645	0.256	0.770	
28.650	0.648	0.739	
28.655	1.177	0.714	
28.660	0.584	0.735	
28.665	0.602	0.746	
28.670	1.399	0.760	
28.675	1.075	0.834	
28.680	0.663	0.910	
28.685	1.328	0.952	
28.690	1.436	1.016	
28.695	0.710	1.087	
28.700	0.886	1.094	
28.705	1.334	1.071	
28.710	0.436	1.046	
28.715	0.163	0.951	
28.720	0.668	0.794	
28.725	0.114	0.645	
28.730	-0.303	0.480	
28.735	-0.047	0.285	
28.740	-0.093	0.114	
28.745	-0.532	-0.026	
28.750	-0.438	-0.164	
28.755	-0.276	-0.279	
28.760	-0.698	-0.362	
28.765	-0.703	-0.446	
28.770	-0.401	-0.520	
28.775	-0.584	-0.557	
28.780	-0.831	-0.583	
28.785	-0.534	-0.617	
28.790	-0.474	-0.629	
28.795	-0.799	-0.624	
28.800	-0.627	-0.631	
28.805	-0.396	-0.631	
28.810	-0.681	-0.611	
28.815	-0.689	-0.602	
28.820	-0.329	-0.596	
28.825	-0.470	-0.567	
28.830	-0.666	-0.538	
28.835	-0.372	-0.524	
28.840	-0.392	-0.504	
28.845	-0.709	-0.487	
28.850	-0.453	-0.493	
28.855	-0.206	-0.489	
28.860	-0.473	-0.459	
28.865	-0.460	-0.433	
28.870	-0.064	-0.408	
28.875	-0.242	-0.359	
28.880	-0.412	-0.313	
28.885	-0.079	-0.285	
28.890	0.041	-0.243	
28.895	-0.313	-0.192	
28.900	-0.134	-0.165	
28.905	0.210	-0.138	
28.910	-0.253	-0.098	
28.915	-0.288	-0.087	
28.920	0.160	-0.096	
28.925	-0.093	-0.086	
28.930	-0.346	-0.082	
28.935	-0.029	-0.103	
28.940	0.008	-0.112	
28.945	-0.360	-0.113	
28.950	-0.151	-0.133	
28.955	0.216	-0.138	
