Vernier Format 2
ecg1.txt 10/18/2025 9:35:51
Run 1
Time	Potential	EKG	
T	P	E	
s	mV	mV	

0.000	-0.132	-0.006	
0.005	0.660	0.010	
0.010	0.793	0.108	
0.015	0.020	0.240	
0.020	0.360	0.316	
0.025	0.845	0.368	
0.030	0.017	0.421	
0.035	-0.072	0.407	
0.040	0.615	0.347	
0.045	0.062	0.310	
0.050	-0.358	0.252	
0.055	0.108	0.152	
0.060	0.145	0.075	
0.065	-0.411	0.023	
0.070	-0.184	-0.047	
0.075	0.278	-0.096	
0.080	-0.315	-0.099	
0.085	-0.356	-0.116	
0.090	0.217	-0.140	
0.095	-0.145	-0.129	
0.100	-0.445	-0.124	
0.105	0.038	-0.144	
0.110	0.136	-0.139	
0.115	-0.398	-0.114	
0.120	-0.142	-0.118	
0.125	0.369	-0.113	
0.130	-0.245	-0.073	
0.135	-0.248	-0.057	
0.140	0.479	-0.051	
0.145	0.059	-0.003	
0.150	-0.291	0.036	
0.155	0.351	0.040	
0.160	0.460	0.075	
0.165	-0.213	0.127	
0.170	0.165	0.138	
0.175	0.698	0.156	
0.180	-0.072	0.205	
0.185	-0.104	0.211	
0.190	0.663	0.193	
0.195	0.160	0.213	
0.200	-0.231	0.218	
0.205	0.408	0.185	
0.210	0.389	0.179	
0.215	-0.295	0.185	
0.220	0.000	0.144	
0.225	0.573	0.110	
0.230	-0.150	0.119	
0.235	-0.161	0.107	
0.240	0.681	0.091	
0.245	0.385	0.139	
0.250	-0.019	0.203	
0.255	0.877	0.254	
0.260	0.915	0.354	
0.265	-0.145	0.456	
0.270	-0.136	0.445	
0.275	-0.019	0.337	
0.280	-0.562	0.188	
0.285	-0.585	-0.000	
0.290	-0.078	-0.176	
0.295	-0.236	-0.275	
0.300	-0.419	-0.318	
0.305	0.189	-0.321	
0.310	0.310	-0.251	
0.315	-0.301	-0.147	
0.320	0.036	-0.080	
0.325	0.632	-0.014	
0.330	-0.118	0.076	
0.335	-0.118	0.119	
0.340	0.702	0.134	
0.345	0.235	0.187	
0.350	-0.182	0.224	
0.355	0.638	0.225	
0.360	0.712	0.267	
0.365	-0.124	0.328	
0.370	0.321	0.333	
0.375	0.910	0.340	
0.380	0.114	0.385	
0.385	0.130	0.395	
0.390	1.025	0.391	
0.395	0.594	0.445	
0.400	0.088	0.496	
0.405	0.971	0.509	
0.410	1.031	0.563	
0.415	0.162	0.633	
0.420	0.670	0.644	
0.425	1.188	0.655	
0.430	0.209	0.690	
0.435	0.076	0.657	
0.440	0.796	0.573	
0.445	0.165	0.511	
0.450	-0.278	0.425	
0.455	0.263	0.298	
0.460	0.217	0.202	
0.465	-0.388	0.132	
0.470	-0.145	0.040	
0.475	0.296	-0.030	
0.480	-0.323	-0.053	
0.485	-0.342	-0.087	
0.490	0.235	-0.123	
0.495	-0.176	-0.120	
0.500	-0.468	-0.124	
0.505	0.009	-0.153	
0.510	0.006	-0.160	
0.515	-0.440	-0.153	
0.520	-0.197	-0.171	
0.525	0.174	-0.179	
0.530	-0.371	-0.160	
0.535	-0.371	-0.164	
0.540	0.201	-0.178	
0.545	-0.171	-0.159	
0.550	-0.420	-0.146	
0.555	0.114	-0.154	
0.560	0.105	-0.134	
0.565	-0.414	-0.103	
0.570	-0.104	-0.107	
0.575	0.414	-0.099	
0.580	-0.269	-0.056	
0.585	-0.300	-0.044	
0.590	0.269	-0.058	
0.595	-0.187	-0.051	
0.600	-0.459	-0.065	
0.605	0.020	-0.109	
0.610	0.020	-0.130	
0.615	-0.477	-0.135	
0.620	-0.216	-0.166	
0.625	0.203	-0.183	
0.630	-0.370	-0.166	
0.635	-0.352	-0.168	
0.640	0.339	-0.172	
0.645	0.009	-0.126	
0.650	-0.203	-0.074	
0.655	0.621	-0.024	
0.660	0.534	0.078	
0.665	-0.414	0.172	
0.670	-0.413	0.154	
0.675	-0.344	0.044	
0.680	-0.796	-0.106	
0.685	-0.755	-0.284	
0.690	-0.237	-0.437	
0.695	-0.378	-0.505	
0.700	-0.558	-0.517	
0.705	-0.061	-0.500	
0.710	0.010	-0.429	
0.715	-0.430	-0.337	
0.720	-0.115	-0.274	
0.725	0.405	-0.204	
0.730	-0.271	-0.113	
0.735	-0.229	-0.064	
0.740	0.545	-0.036	
0.745	0.067	0.027	
0.750	-0.272	0.071	
0.755	0.423	0.078	
0.760	0.453	0.114	
0.765	-0.210	0.162	
0.770	0.288	0.171	
0.775	0.829	0.199	
0.780	0.010	0.266	
0.785	0.110	0.295	
0.790	1.013	0.311	
0.795	0.507	0.384	
0.800	0.001	0.443	
0.805	0.918	0.455	
0.810	0.927	0.505	
0.815	0.059	0.567	
0.820	0.588	0.568	
0.825	1.005	0.567	
0.830	0.041	0.584	
0.835	-0.048	0.532	
0.840	0.692	0.438	
0.845	0.032	0.374	
0.850	-0.346	0.292	
0.855	0.180	0.176	
0.860	0.091	0.091	
0.865	-0.469	0.028	
0.870	-0.213	-0.057	
0.875	0.191	-0.121	
0.880	-0.407	-0.141	
0.885	-0.396	-0.172	
0.890	0.157	-0.203	
0.895	-0.249	-0.197	
0.900	-0.529	-0.197	
0.905	-0.080	-0.225	
0.910	-0.083	-0.233	
0.915	-0.524	-0.229	
0.920	-0.239	-0.248	
0.925	0.140	-0.252	
0.930	-0.393	-0.223	
0.935	-0.375	-0.215	
0.940	0.226	-0.213	
0.945	-0.177	-0.178	
0.950	-0.425	-0.153	
0.955	0.130	-0.154	
0.960	0.163	-0.126	
0.965	-0.373	-0.086	
0.970	-0.049	-0.079	
0.975	0.421	-0.063	
0.980	-0.300	-0.021	
0.985	-0.297	-0.018	
0.990	0.322	-0.040	
0.995	-0.187	-0.036	
1.000	-0.459	-0.051	
1.005	0.056	-0.097	
1.010	0.026	-0.117	
1.015	-0.462	-0.121	
1.020	-0.156	-0.150	
1.025	0.284	-0.159	
1.030	-0.330	-0.130	
1.035	-0.286	-0.123	
1.040	0.531	-0.113	
1.045	0.151	-0.045	
1.050	-0.132	0.029	
1.055	0.785	0.091	
1.060	0.577	0.198	
1.065	-0.440	0.283	
1.070	-0.417	0.239	
1.075	-0.320	0.100	
1.080	-0.779	-0.071	
1.085	-0.718	-0.262	
1.090	-0.177	-0.418	
1.095	-0.346	-0.483	
1.100	-0.521	-0.490	
1.105	0.033	-0.466	
1.110	0.073	-0.385	
1.115	-0.423	-0.286	
1.120	-0.078	-0.224	
1.125	0.449	-0.158	
1.130	-0.248	-0.070	
1.135	-0.188	-0.025	
1.140	0.615	0.002	
1.145	0.067	0.066	
1.150	-0.263	0.107	
1.155	0.527	0.111	
1.160	0.550	0.154	
1.165	-0.182	0.214	
1.170	0.372	0.229	
1.175	0.939	0.264	
1.180	0.119	0.342	
1.185	0.267	0.383	
1.190	1.248	0.421	
1.195	0.722	0.522	
1.200	0.220	0.610	
1.205	1.133	0.647	
1.210	1.100	0.711	
1.215	0.194	0.774	
1.220	0.745	0.765	
1.225	1.173	0.751	
1.230	0.169	0.756	
1.235	0.148	0.696	
1.240	0.907	0.601	
1.245	0.191	0.543	
1.250	-0.243	0.462	
1.255	0.392	0.342	
1.260	0.256	0.256	
1.265	-0.385	0.191	
1.270	-0.072	0.097	
1.275	0.372	0.025	
1.280	-0.324	0.001	
1.285	-0.324	-0.038	
1.290	0.247	-0.084	
1.295	-0.234	-0.094	
1.300	-0.498	-0.115	
1.305	-0.017	-0.161	
1.310	-0.058	-0.182	
1.315	-0.508	-0.188	
1.320	-0.179	-0.214	
1.325	0.211	-0.217	
1.330	-0.396	-0.186	
1.335	-0.346	-0.179	
1.340	0.264	-0.181	
1.345	-0.226	-0.150	
1.350	-0.491	-0.139	
1.355	0.032	-0.162	
1.360	0.036	-0.161	
1.365	-0.445	-0.147	
1.370	-0.101	-0.157	
1.375	0.403	-0.144	
1.380	-0.315	-0.093	
1.385	-0.271	-0.074	
1.390	0.330	-0.075	
1.395	-0.214	-0.054	
1.400	-0.475	-0.060	
1.405	0.012	-0.105	
1.410	-0.063	-0.132	
1.415	-0.520	-0.150	
1.420	-0.197	-0.191	
1.425	0.209	-0.208	
1.430	-0.385	-0.186	
1.435	-0.298	-0.181	
1.440	0.478	-0.168	
1.445	0.067	-0.097	
1.450	-0.136	-0.022	
1.455	0.898	0.050	
1.460	0.806	0.191	
1.465	-0.243	0.329	
1.470	-0.196	0.342	
1.475	-0.188	0.247	
1.480	-0.737	0.095	
1.485	-0.663	-0.105	
1.490	-0.144	-0.286	
1.495	-0.336	-0.381	
1.500	-0.446	-0.416	
1.505	0.307	-0.399	
1.510	0.368	-0.292	
1.515	-0.245	-0.149	
1.520	0.304	-0.043	
1.525	0.817	0.072	
1.530	-0.054	0.202	
1.535	0.081	0.265	
1.540	0.936	0.295	
1.545	0.334	0.361	
1.550	-0.077	0.398	
1.555	0.829	0.389	
1.560	0.754	0.420	
1.565	-0.051	0.464	
1.570	0.617	0.458	
1.575	1.087	0.476	
1.580	0.220	0.535	
1.585	0.417	0.556	
1.590	1.310	0.572	
1.595	0.739	0.649	
1.600	0.287	0.709	
1.605	1.193	0.723	
1.610	1.083	0.770	
1.615	0.198	0.815	
1.620	0.832	0.793	
1.625	1.202	0.778	
1.630	0.131	0.782	
1.635	0.117	0.713	
1.640	0.842	0.603	
1.645	0.124	0.526	
1.650	-0.268	0.429	
1.655	0.353	0.300	
1.660	0.159	0.208	
1.665	-0.419	0.136	
1.670	-0.092	0.040	
1.675	0.301	-0.028	
1.680	-0.375	-0.051	
1.685	-0.318	-0.088	
1.690	0.241	-0.125	
1.695	-0.254	-0.125	
1.700	-0.480	-0.136	
1.705	0.049	-0.170	
1.710	-0.034	-0.175	
1.715	-0.515	-0.169	
1.720	-0.210	-0.194	
1.725	0.143	-0.207	
1.730	-0.393	-0.190	
1.735	-0.335	-0.191	
1.740	0.270	-0.193	
1.745	-0.229	-0.160	
1.750	-0.453	-0.143	
1.755	0.110	-0.156	
1.760	0.017	-0.144	
1.765	-0.439	-0.125	
1.770	-0.052	-0.134	
1.775	0.374	-0.122	
1.780	-0.327	-0.077	
1.785	-0.255	-0.065	
1.790	0.398	-0.067	
1.795	-0.193	-0.040	
1.800	-0.448	-0.039	
1.805	0.114	-0.077	
1.810	0.004	-0.091	
1.815	-0.462	-0.097	
1.820	-0.126	-0.130	
1.825	0.208	-0.146	
1.830	-0.417	-0.132	
1.835	-0.352	-0.147	
1.840	0.256	-0.166	
1.845	-0.181	-0.146	
1.850	-0.306	-0.128	
1.855	0.597	-0.105	
1.860	0.621	-0.004	
1.865	-0.174	0.123	
1.870	0.044	0.177	
1.875	-0.013	0.167	
1.880	-0.677	0.100	
1.885	-0.672	-0.045	
1.890	-0.265	-0.213	
1.895	-0.501	-0.336	
1.900	-0.614	-0.420	
1.905	-0.049	-0.467	
1.910	-0.020	-0.437	
1.915	-0.430	-0.366	
1.920	-0.016	-0.305	
1.925	0.473	-0.218	
1.930	-0.249	-0.103	
1.935	-0.126	-0.035	
1.940	0.748	0.017	
1.945	0.091	0.106	
1.950	-0.222	0.164	
1.955	0.623	0.174	
1.960	0.550	0.220	
1.965	-0.176	0.273	
1.970	0.444	0.278	
1.975	0.944	0.306	
1.980	0.084	0.375	
1.985	0.279	0.403	
1.990	1.187	0.428	
1.995	0.568	0.509	
2.000	0.149	0.569	
2.005	1.161	0.587	
2.010	1.023	0.649	
2.015	0.166	0.715	
2.020	0.851	0.718	
2.025	1.263	0.731	
2.030	0.247	0.770	
2.035	0.350	0.744	
2.040	1.048	0.686	
2.045	0.244	0.655	
2.050	-0.168	0.582	
2.055	0.583	0.461	
2.060	0.348	0.379	
2.065	-0.330	0.312	
2.070	0.085	0.211	
2.075	0.467	0.137	
2.080	-0.326	0.107	
2.085	-0.263	0.052	
2.090	0.356	-0.008	
2.095	-0.197	-0.024	
2.100	-0.401	-0.048	
2.105	0.209	-0.087	
2.110	0.067	-0.087	
2.115	-0.414	-0.074	
2.120	0.003	-0.089	
2.125	0.453	-0.078	
2.130	-0.284	-0.029	
2.135	-0.188	-0.014	
2.140	0.576	-0.008	
2.145	-0.054	0.039	
2.150	-0.278	0.063	
2.155	0.437	0.055	
2.160	0.258	0.081	
2.165	-0.318	0.108	
2.170	0.230	0.094	
2.175	0.658	0.107	
2.180	-0.164	0.157	
2.185	-0.016	0.168	
2.190	0.828	0.171	
2.195	0.137	0.223	
2.200	-0.185	0.250	
2.205	0.606	0.234	
2.210	0.446	0.251	
2.215	-0.194	0.273	
2.220	0.405	0.255	
2.225	0.722	0.261	
2.230	-0.159	0.293	
2.235	-0.048	0.272	
2.240	0.744	0.234	
2.245	0.162	0.246	
2.250	-0.057	0.253	
2.255	0.991	0.258	
2.260	0.930	0.344	
2.265	0.162	0.462	
2.270	0.641	0.522	
2.275	0.547	0.547	
2.280	-0.430	0.519	
2.285	-0.442	0.374	
2.290	-0.034	0.172	
2.295	-0.341	0.002	
2.300	-0.404	-0.134	
2.305	0.374	-0.212	
2.310	0.287	-0.182	
2.315	-0.265	-0.102	
2.320	0.293	-0.042	
2.325	0.710	0.043	
2.330	-0.110	0.151	
2.335	0.067	0.202	
2.340	0.840	0.229	
2.345	0.133	0.287	
2.350	-0.139	0.307	
2.355	0.724	0.287	
2.360	0.576	0.311	
2.365	-0.115	0.347	
2.370	0.519	0.340	
2.375	0.874	0.357	
2.380	-0.006	0.404	
2.385	0.269	0.404	
2.390	1.051	0.403	
2.395	0.348	0.453	
2.400	-0.002	0.475	
2.405	0.936	0.457	
2.410	0.809	0.487	
2.415	0.018	0.531	
2.420	0.667	0.525	
2.425	0.961	0.531	
2.430	-0.013	0.555	
2.435	0.128	0.514	
2.440	0.813	0.447	
2.445	0.010	0.413	
2.450	-0.263	0.347	
2.455	0.379	0.244	
2.460	0.099	0.175	
2.465	-0.419	0.117	
2.470	-0.086	0.028	
2.475	0.140	-0.041	
2.480	-0.445	-0.079	
2.485	-0.367	-0.135	
2.490	0.049	-0.190	
2.495	-0.346	-0.210	
2.500	-0.526	-0.235	
2.505	-0.060	-0.271	
2.510	-0.190	-0.277	
2.515	-0.581	-0.276	
2.520	-0.226	-0.298	
2.525	-0.006	-0.301	
2.530	-0.482	-0.281	
2.535	-0.355	-0.280	
2.540	0.154	-0.276	
2.545	-0.335	-0.240	
2.550	-0.514	-0.226	
2.555	-0.025	-0.241	
2.560	-0.144	-0.237	
2.565	-0.523	-0.230	
2.570	-0.144	-0.245	
2.575	0.149	-0.238	
2.580	-0.411	-0.202	
2.585	-0.281	-0.192	
2.590	0.313	-0.181	
2.595	-0.232	-0.138	
2.600	-0.416	-0.117	
2.605	0.084	-0.131	
2.610	-0.132	-0.131	
2.615	-0.535	-0.139	
2.620	-0.174	-0.182	
2.625	0.065	-0.207	
2.630	-0.477	-0.205	
2.635	-0.361	-0.224	
2.640	0.139	-0.241	
2.645	-0.303	-0.222	
2.650	-0.402	-0.212	
2.655	0.354	-0.203	
2.660	0.252	-0.135	
2.665	-0.278	-0.050	
2.670	0.183	-0.005	
2.675	0.185	0.031	
2.680	-0.614	0.040	
2.685	-0.617	-0.040	
2.690	-0.269	-0.169	
2.695	-0.572	-0.281	
2.700	-0.633	-0.379	
2.705	-0.043	-0.444	
2.710	-0.072	-0.430	
2.715	-0.465	-0.374	
2.720	-0.092	-0.328	
2.725	0.233	-0.264	
2.730	-0.361	-0.183	
2.735	-0.200	-0.141	
2.740	0.482	-0.108	
2.745	-0.126	-0.042	
2.750	-0.277	-0.004	
2.755	0.457	0.005	
2.760	0.246	0.050	
2.765	-0.284	0.093	
2.770	0.281	0.095	
2.775	0.647	0.121	
2.780	-0.122	0.179	
2.785	0.143	0.199	
2.790	0.926	0.223	
2.795	0.223	0.296	
2.800	-0.043	0.338	
2.805	0.903	0.345	
2.810	0.750	0.400	
2.815	-0.051	0.462	
2.820	0.614	0.465	
2.825	0.918	0.478	
2.830	-0.034	0.507	
2.835	0.185	0.476	
2.840	0.901	0.430	
2.845	0.131	0.425	
2.850	-0.176	0.390	
2.855	0.539	0.316	
2.860	0.208	0.272	
2.865	-0.330	0.229	
2.870	0.172	0.153	
2.875	0.392	0.106	
2.880	-0.339	0.092	
2.885	-0.225	0.044	
2.890	0.322	-0.009	
2.895	-0.255	-0.026	
2.900	-0.416	-0.057	
2.905	0.156	-0.105	
2.910	-0.072	-0.117	
2.915	-0.463	-0.123	
2.920	-0.097	-0.153	
2.925	0.149	-0.163	
2.930	-0.407	-0.147	
2.935	-0.260	-0.155	
2.940	0.295	-0.159	
2.945	-0.260	-0.129	
2.950	-0.394	-0.119	
2.955	0.197	-0.131	
2.960	-0.016	-0.114	
2.965	-0.419	-0.096	
2.970	-0.045	-0.111	
2.975	0.214	-0.111	
2.980	-0.367	-0.090	
2.985	-0.234	-0.098	
2.990	0.324	-0.107	
2.995	-0.263	-0.085	
3.000	-0.425	-0.088	
3.005	0.111	-0.119	
3.010	-0.121	-0.127	
3.015	-0.512	-0.137	
3.020	-0.135	-0.176	
3.025	0.053	-0.196	
3.030	-0.472	-0.193	
3.035	-0.317	-0.212	
3.040	0.157	-0.225	
3.045	-0.330	-0.206	
3.050	-0.417	-0.201	
3.055	0.308	-0.201	
3.060	0.183	-0.146	
3.065	-0.287	-0.074	
3.070	0.232	-0.033	
3.075	0.246	0.013	
3.080	-0.587	0.040	
3.085	-0.639	-0.027	
3.090	-0.385	-0.159	
3.095	-0.731	-0.293	
3.100	-0.772	-0.425	
3.105	-0.217	-0.527	
3.110	-0.249	-0.547	
3.115	-0.537	-0.514	
3.120	-0.110	-0.469	
3.125	0.218	-0.385	
3.130	-0.362	-0.274	
3.135	-0.202	-0.202	
3.140	0.466	-0.143	
3.145	-0.126	-0.060	
3.150	-0.263	-0.010	
3.155	0.429	0.006	
3.160	0.108	0.045	
3.165	-0.349	0.070	
3.170	0.243	0.053	
3.175	0.573	0.068	
3.180	-0.182	0.118	
3.185	0.058	0.133	
3.190	0.854	0.153	
3.195	0.186	0.224	
3.200	0.017	0.275	
3.205	0.939	0.303	
3.210	0.690	0.380	
3.215	0.015	0.455	
3.220	0.788	0.478	
3.225	1.043	0.523	
3.230	0.044	0.583	
3.235	0.359	0.573	
3.240	0.965	0.543	
3.245	0.027	0.534	
3.250	-0.219	0.469	
3.255	0.484	0.353	
3.260	0.137	0.272	
3.265	-0.379	0.200	
3.270	0.023	0.099	
3.275	0.227	0.027	
3.280	-0.388	-0.010	
3.285	-0.187	-0.060	
3.290	0.507	-0.085	
3.295	-0.152	-0.051	
3.300	-0.300	-0.029	
3.305	0.324	-0.033	
3.310	0.042	-0.010	
3.315	-0.332	0.006	
3.320	0.160	-0.008	
3.325	0.377	0.003	
3.330	-0.320	0.036	
3.335	-0.133	0.027	
3.340	0.556	0.016	
3.345	-0.138	0.047	
3.350	-0.265	0.054	
3.355	0.484	0.039	
3.360	0.206	0.066	
3.365	-0.294	0.095	
3.370	0.230	0.085	
3.375	0.472	0.094	
3.380	-0.236	0.124	
3.385	-0.026	0.115	
3.390	0.632	0.105	
3.395	-0.130	0.132	
3.400	-0.284	0.125	
3.405	0.376	0.083	
3.410	0.026	0.070	
3.415	-0.416	0.051	
3.420	0.009	-0.004	
3.425	0.229	-0.038	
3.430	-0.391	-0.045	
3.435	-0.223	-0.076	
3.440	0.386	-0.098	
3.445	-0.232	-0.076	
3.450	-0.352	-0.071	
3.455	0.339	-0.083	
3.460	0.186	-0.050	
3.465	-0.205	-0.001	
3.470	0.522	0.037	
3.475	0.680	0.119	
3.480	-0.338	0.208	
3.485	-0.408	0.195	
3.490	-0.171	0.092	
3.495	-0.610	-0.039	
3.500	-0.702	-0.193	
3.505	-0.145	-0.332	
3.510	-0.184	-0.394	
3.515	-0.443	-0.395	
3.520	0.078	-0.369	
3.525	0.434	-0.281	
3.530	-0.251	-0.154	
3.535	-0.013	-0.067	
3.540	0.667	0.006	
3.545	-0.078	0.099	
3.550	-0.193	0.140	
3.555	0.660	0.144	
3.560	0.406	0.190	
3.565	-0.197	0.236	
3.570	0.434	0.236	
3.575	0.692	0.255	
3.580	-0.112	0.296	
3.585	0.204	0.293	
3.590	0.901	0.292	
3.595	0.183	0.339	
3.600	0.047	0.360	
3.605	1.028	0.364	
3.610	0.803	0.433	
3.615	0.145	0.515	
3.620	0.918	0.553	
3.625	1.118	0.613	
3.630	0.175	0.683	
3.635	0.478	0.681	
3.640	1.130	0.659	
3.645	0.186	0.661	
3.650	-0.126	0.604	
3.655	0.559	0.487	
3.660	0.105	0.390	
3.665	-0.364	0.289	
3.670	0.061	0.161	
3.675	0.224	0.067	
3.680	-0.396	0.013	
3.685	-0.254	-0.053	
3.690	0.263	-0.106	
3.695	-0.274	-0.112	
3.700	-0.451	-0.129	
3.705	-0.040	-0.169	
3.710	-0.255	-0.194	
3.715	-0.593	-0.223	
3.720	-0.193	-0.272	
3.725	-0.069	-0.294	
3.730	-0.533	-0.290	
3.735	-0.353	-0.304	
3.740	0.154	-0.304	
3.745	-0.368	-0.268	
3.750	-0.480	-0.249	
3.755	0.006	-0.255	
3.760	-0.177	-0.241	
3.765	-0.520	-0.229	
3.770	-0.138	-0.244	
3.775	0.018	-0.242	
3.780	-0.468	-0.223	
3.785	-0.291	-0.228	
3.790	0.130	-0.231	
3.795	-0.356	-0.207	
3.800	-0.453	-0.205	
3.805	0.049	-0.223	
3.810	-0.225	-0.217	
3.815	-0.581	-0.219	
3.820	-0.187	-0.252	
3.825	-0.014	-0.267	
3.830	-0.527	-0.259	
3.835	-0.384	-0.274	
3.840	-0.034	-0.293	
3.845	-0.433	-0.288	
3.850	-0.504	-0.298	
3.855	0.050	-0.312	
3.860	-0.074	-0.283	
3.865	-0.277	-0.234	
3.870	0.574	-0.169	
3.875	0.813	-0.028	
3.880	-0.217	0.138	
3.885	-0.297	0.198	
3.890	-0.219	0.143	
3.895	-0.737	0.022	
3.900	-0.868	-0.160	
3.905	-0.396	-0.352	
3.910	-0.471	-0.480	
3.915	-0.692	-0.548	
3.920	-0.242	-0.577	
3.925	-0.043	-0.541	
3.930	-0.431	-0.459	
3.935	-0.207	-0.385	
3.940	0.331	-0.301	
3.945	-0.216	-0.193	
3.950	-0.312	-0.124	
3.955	0.334	-0.090	
3.960	0.033	-0.039	
3.965	-0.341	-0.004	
3.970	0.287	-0.002	
3.975	0.547	0.035	
3.980	-0.207	0.101	
3.985	0.107	0.126	
3.990	0.842	0.154	
3.995	0.160	0.229	
4.000	0.030	0.279	
4.005	0.930	0.305	
4.010	0.655	0.379	
4.015	0.152	0.456	
4.020	0.991	0.500	
4.025	1.136	0.580	
4.030	0.217	0.673	
4.035	0.576	0.693	
4.040	1.121	0.690	
4.045	0.226	0.702	
4.050	-0.014	0.650	
4.055	0.751	0.548	
4.060	0.304	0.480	
4.065	-0.262	0.408	
4.070	0.221	0.298	
4.075	0.275	0.209	
4.080	-0.384	0.145	
4.085	-0.196	0.055	
4.090	0.293	-0.022	
4.095	-0.312	-0.052	
4.100	-0.430	-0.092	
4.105	0.091	-0.145	
4.110	-0.184	-0.164	
4.115	-0.523	-0.180	
4.120	-0.132	-0.217	
4.125	-0.006	-0.232	
4.130	-0.465	-0.225	
4.135	-0.240	-0.234	
4.140	0.249	-0.227	
4.145	-0.339	-0.186	
4.150	-0.423	-0.171	
4.155	0.116	-0.181	
4.160	-0.138	-0.168	
4.165	-0.442	-0.158	
4.170	-0.002	-0.172	
4.175	0.174	-0.159	
4.180	-0.390	-0.125	
4.185	-0.210	-0.123	
4.190	0.304	-0.123	
4.195	-0.266	-0.094	
4.200	-0.327	-0.088	
4.205	0.305	-0.097	
4.210	-0.058	-0.073	
4.215	-0.425	-0.059	
4.220	-0.031	-0.084	
4.225	0.062	-0.101	
4.230	-0.456	-0.107	
4.235	-0.254	-0.141	
4.240	0.247	-0.165	
4.245	-0.307	-0.149	
4.250	-0.388	-0.149	
4.255	0.203	-0.162	
4.260	-0.029	-0.139	
4.265	-0.292	-0.109	
4.270	0.541	-0.077	
4.275	0.892	0.030	
4.280	0.148	0.191	
4.285	0.484	0.312	
4.290	0.664	0.396	
4.295	-0.396	0.430	
4.300	-0.665	0.331	
4.305	-0.335	0.126	
4.310	-0.506	-0.083	
4.315	-0.715	-0.266	
4.320	-0.208	-0.405	
4.325	0.039	-0.450	
4.330	-0.391	-0.412	
4.335	-0.086	-0.356	
4.340	0.583	-0.262	
4.345	-0.119	-0.123	
4.350	-0.145	-0.023	
4.355	0.632	0.041	
4.360	0.252	0.128	
4.365	-0.217	0.190	
4.370	0.484	0.199	
4.375	0.660	0.232	
4.380	-0.121	0.283	
4.385	0.308	0.289	
4.390	0.985	0.307	
4.395	0.279	0.377	
4.400	0.194	0.422	
4.405	1.101	0.448	
4.410	0.776	0.525	
4.415	0.256	0.599	
4.420	1.123	0.637	
4.425	1.335	0.715	
4.430	0.482	0.818	
4.435	0.852	0.864	
4.440	1.436	0.894	
4.445	0.611	0.944	
4.450	0.453	0.937	
4.455	1.226	0.888	
4.460	0.614	0.862	
4.465	-0.121	0.798	
4.470	0.525	0.661	
4.475	0.573	0.540	
4.480	-0.232	0.448	
4.485	0.000	0.325	
4.490	0.577	0.220	
4.495	-0.168	0.174	
4.500	-0.254	0.118	
4.505	0.420	0.057	
4.510	0.029	0.045	
4.515	-0.318	0.038	
4.520	0.191	0.008	
4.525	0.279	0.008	
4.530	-0.333	0.026	
4.535	-0.127	0.006	
4.540	0.371	-0.015	
4.545	-0.240	-0.005	
4.550	-0.283	-0.018	
4.555	0.443	-0.037	
4.560	0.124	-0.006	
4.565	-0.306	0.028	
4.570	0.305	0.031	
4.575	0.479	0.063	
4.580	-0.225	0.115	
4.585	0.108	0.126	
4.590	0.747	0.142	
4.595	-0.031	0.196	
4.600	-0.115	0.213	
4.605	0.666	0.201	
4.610	0.250	0.225	
4.615	-0.220	0.239	
4.620	0.365	0.210	
4.625	0.386	0.198	
4.630	-0.286	0.195	
4.635	-0.025	0.148	
4.640	0.547	0.107	
4.645	-0.159	0.109	
4.650	-0.197	0.092	
4.655	0.574	0.067	
4.660	0.185	0.095	
4.665	-0.182	0.126	
4.670	0.735	0.144	
4.675	1.040	0.233	
4.680	0.337	0.380	
4.685	0.707	0.493	
4.690	0.935	0.582	
4.695	-0.220	0.627	
4.700	-0.491	0.534	
4.705	-0.202	0.324	
4.710	-0.449	0.100	
4.715	-0.686	-0.112	
4.720	-0.185	-0.288	
4.725	0.015	-0.369	
4.730	-0.394	-0.366	
4.735	-0.100	-0.338	
4.740	0.592	-0.261	
4.745	-0.106	-0.130	
4.750	-0.177	-0.033	
4.755	0.498	0.023	
4.760	0.029	0.086	
4.765	-0.291	0.113	
4.770	0.385	0.097	
4.775	0.513	0.118	
4.780	-0.210	0.161	
4.785	0.157	0.165	
4.790	0.777	0.177	
4.795	0.044	0.231	
4.800	0.006	0.255	
4.805	0.918	0.265	
4.810	0.537	0.331	
4.815	0.038	0.396	
4.820	0.927	0.426	
4.825	1.081	0.499	
4.830	0.270	0.598	
4.835	0.751	0.646	
4.840	1.286	0.691	
4.845	0.415	0.759	
4.850	0.186	0.758	
4.855	0.864	0.694	
4.860	0.301	0.637	
4.865	-0.217	0.549	
4.870	0.380	0.415	
4.875	0.362	0.315	
4.880	-0.338	0.243	
4.885	-0.153	0.141	
4.890	0.256	0.047	
4.895	-0.342	-0.007	
4.900	-0.379	-0.070	
4.905	0.030	-0.137	
4.910	-0.274	-0.172	
4.915	-0.561	-0.207	
4.920	-0.165	-0.258	
4.925	-0.106	-0.282	
4.930	-0.550	-0.284	
4.935	-0.352	-0.305	
4.940	-0.061	-0.319	
4.945	-0.497	-0.312	
4.950	-0.540	-0.325	
4.955	-0.116	-0.349	
4.960	-0.349	-0.348	
4.965	-0.625	-0.350	
4.970	-0.208	-0.370	
4.975	-0.147	-0.366	
4.980	-0.556	-0.345	
4.985	-0.338	-0.345	
4.990	0.004	-0.338	
4.995	-0.413	-0.306	
5.000	-0.439	-0.292	
5.005	-0.043	-0.293	
5.010	-0.317	-0.278	
5.015	-0.588	-0.278	
5.020	-0.252	-0.307	
5.025	-0.228	-0.326	
5.030	-0.636	-0.337	
5.035	-0.426	-0.369	
5.040	-0.147	-0.392	
5.045	-0.552	-0.390	
5.050	-0.569	-0.401	
5.055	-0.145	-0.417	
5.060	-0.362	-0.404	
5.065	-0.582	-0.390	
5.070	-0.046	-0.384	
5.075	0.208	-0.332	
5.080	-0.310	-0.242	
5.085	-0.147	-0.179	
5.090	-0.063	-0.146	
5.095	-0.712	-0.148	
5.100	-0.871	-0.231	
5.105	-0.517	-0.366	
5.110	-0.694	-0.485	
5.115	-0.874	-0.582	
5.120	-0.390	-0.653	
5.125	-0.258	-0.656	
5.130	-0.585	-0.605	
5.135	-0.297	-0.548	
5.140	0.072	-0.470	
5.145	-0.422	-0.371	
5.150	-0.417	-0.309	
5.155	0.159	-0.272	
5.160	-0.167	-0.216	
5.165	-0.416	-0.176	
5.170	0.125	-0.164	
5.175	0.181	-0.127	
5.180	-0.347	-0.079	
5.185	-0.061	-0.067	
5.190	0.531	-0.046	
5.195	-0.181	0.011	
5.200	-0.208	0.035	
5.205	0.502	0.036	
5.210	0.111	0.072	
5.215	-0.213	0.100	
5.220	0.548	0.106	
5.225	0.698	0.162	
5.230	-0.089	0.246	
5.235	0.308	0.280	
5.240	0.793	0.306	
5.245	-0.066	0.346	
5.250	-0.121	0.327	
5.255	0.580	0.270	
5.260	0.000	0.240	
5.265	-0.347	0.192	
5.270	0.087	0.105	
5.275	0.076	0.038	
5.280	-0.448	-0.012	
5.285	-0.240	-0.083	
5.290	0.041	-0.143	
5.295	-0.443	-0.174	
5.300	-0.457	-0.218	
5.305	0.032	-0.260	
5.310	-0.229	-0.261	
5.315	-0.515	-0.257	
5.320	-0.158	-0.273	
5.325	-0.159	-0.276	
5.330	-0.555	-0.274	
5.335	-0.266	-0.294	
5.340	0.151	-0.292	
5.345	-0.365	-0.253	
5.350	-0.371	-0.230	
5.355	0.186	-0.220	
5.360	-0.194	-0.183	
5.365	-0.419	-0.159	
5.370	0.119	-0.161	
5.375	0.104	-0.135	
5.380	-0.402	-0.101	
5.385	-0.129	-0.104	
5.390	0.330	-0.102	
5.395	-0.298	-0.071	
5.400	-0.336	-0.070	
5.405	0.145	-0.095	
5.410	-0.213	-0.102	
5.415	-0.472	-0.121	
5.420	-0.020	-0.163	
5.425	0.038	-0.175	
5.430	-0.443	-0.166	
5.435	-0.236	-0.182	
5.440	0.084	-0.194	
5.445	-0.420	-0.187	
5.450	-0.410	-0.203	
5.455	0.201	-0.221	
5.460	-0.101	-0.194	
5.465	-0.266	-0.157	
5.470	0.579	-0.113	
5.475	0.654	0.001	
5.480	-0.246	0.133	
5.485	-0.234	0.169	
5.490	-0.184	0.115	
5.495	-0.697	0.007	
5.500	-0.723	-0.154	
5.505	-0.298	-0.317	
5.510	-0.451	-0.420	
5.515	-0.604	-0.477	
5.520	-0.126	-0.499	
5.525	-0.040	-0.459	
5.530	-0.426	-0.384	
5.535	-0.141	-0.324	
5.540	0.377	-0.250	
5.545	-0.202	-0.148	
5.550	-0.179	-0.080	
5.555	0.557	-0.032	
5.560	-0.019	0.039	
5.565	-0.358	0.075	
5.570	0.236	0.056	
5.575	0.301	0.055	
5.580	-0.283	0.070	
5.585	0.114	0.058	
5.590	0.631	0.068	
5.595	-0.112	0.118	
5.600	-0.031	0.139	
5.605	0.874	0.155	
5.610	0.365	0.231	
5.615	-0.038	0.298	
5.620	0.770	0.324	
5.625	0.713	0.380	
5.630	-0.097	0.434	
5.635	0.450	0.425	
5.640	0.919	0.422	
5.645	-0.008	0.448	
5.650	-0.014	0.419	
5.655	0.706	0.358	
5.660	0.088	0.331	
5.665	-0.300	0.283	
5.670	0.301	0.198	
5.675	0.331	0.148	
5.680	-0.292	0.128	
5.685	0.038	0.084	
5.690	0.502	0.060	
5.695	-0.243	0.074	
5.700	-0.237	0.057	
5.705	0.457	0.026	
5.710	-0.086	0.033	
5.715	-0.376	0.027	
5.720	0.165	-0.013	
5.725	0.186	-0.023	
5.730	-0.329	-0.015	
5.735	0.036	-0.028	
5.740	0.596	-0.013	
5.745	-0.126	0.047	
5.750	-0.118	0.078	
5.755	0.660	0.093	
5.760	0.204	0.148	
5.765	-0.193	0.188	
5.770	0.605	0.193	
5.775	0.510	0.230	
5.780	-0.223	0.270	
5.785	0.208	0.253	
5.790	0.692	0.238	
5.795	-0.130	0.255	
5.800	-0.109	0.231	
5.805	0.640	0.190	
5.810	0.036	0.190	
5.815	-0.304	0.174	
5.820	0.337	0.123	
5.825	0.275	0.105	
5.830	-0.335	0.103	
5.835	0.035	0.066	
5.840	0.513	0.047	
5.845	-0.210	0.068	
5.850	-0.130	0.064	
5.855	0.762	0.064	
5.860	0.366	0.133	
5.865	-0.025	0.211	
5.870	0.628	0.253	
5.875	0.266	0.297	
5.880	-0.518	0.293	
5.885	-0.370	0.184	
5.890	-0.162	0.031	
5.895	-0.535	-0.106	
5.900	-0.469	-0.233	
5.905	0.084	-0.316	
5.910	-0.182	-0.321	
5.915	-0.352	-0.294	
5.920	0.256	-0.255	
5.925	0.208	-0.172	
5.930	-0.327	-0.083	
5.935	0.070	-0.042	
5.940	0.614	0.006	
5.945	-0.101	0.084	
5.950	-0.060	0.123	
5.955	0.689	0.141	
5.960	0.183	0.193	
5.965	-0.155	0.224	
5.970	0.647	0.223	
5.975	0.580	0.260	
5.980	-0.158	0.307	
5.985	0.351	0.301	
5.990	0.897	0.310	
5.995	0.124	0.361	
6.000	0.266	0.385	
6.005	1.092	0.406	
6.010	0.605	0.483	
6.015	0.120	0.543	
6.020	0.971	0.556	
6.025	0.897	0.597	
6.030	0.036	0.636	
6.035	0.499	0.605	
6.040	0.852	0.566	
6.045	-0.104	0.539	
6.050	-0.112	0.451	
6.055	0.562	0.335	
6.060	-0.026	0.262	
6.065	-0.323	0.186	
6.070	0.276	0.096	
6.075	0.188	0.054	
6.080	-0.346	0.037	
6.085	-0.006	-0.002	
6.090	0.411	-0.018	
6.095	-0.278	0.002	
6.100	-0.236	-0.006	
6.105	0.412	-0.024	
6.110	-0.113	-0.007	
6.115	-0.338	-0.004	
6.120	0.290	-0.025	
6.125	0.284	-0.006	
6.130	-0.286	0.030	
6.135	0.082	0.033	
6.140	0.484	0.045	
6.145	-0.225	0.081	
6.150	-0.152	0.078	
6.155	0.576	0.065	
6.160	0.030	0.093	
6.165	-0.234	0.109	
6.170	0.571	0.103	
6.175	0.513	0.146	
6.180	-0.213	0.204	
6.185	0.221	0.210	
6.190	0.646	0.214	
6.195	-0.141	0.240	
6.200	-0.086	0.221	
6.205	0.663	0.187	
6.210	0.113	0.199	
6.215	-0.214	0.198	
6.220	0.522	0.171	
6.225	0.507	0.188	
6.230	-0.142	0.226	
6.235	0.379	0.231	
6.240	0.852	0.258	
6.245	0.110	0.325	
6.250	0.385	0.365	
6.255	1.283	0.417	
6.260	0.605	0.530	
6.265	-0.148	0.596	
6.270	0.209	0.542	
6.275	-0.097	0.423	
6.280	-0.558	0.262	
6.285	-0.231	0.068	
6.290	0.229	-0.077	
6.295	-0.300	-0.137	
6.300	-0.199	-0.168	
6.305	0.631	-0.155	
6.310	0.186	-0.062	
6.315	-0.216	0.031	
6.320	0.438	0.080	
6.325	0.372	0.137	
6.330	-0.245	0.183	
6.335	0.203	0.176	
6.340	0.678	0.179	
6.345	-0.126	0.213	
6.350	-0.071	0.207	
6.355	0.721	0.187	
6.360	0.162	0.213	
6.365	-0.155	0.228	
6.370	0.573	0.213	
6.375	0.498	0.235	
6.380	-0.184	0.266	
6.385	0.382	0.256	
6.390	0.922	0.273	
6.395	0.075	0.337	
6.400	0.211	0.366	
6.405	1.060	0.384	
6.410	0.434	0.450	
6.415	-0.077	0.484	
6.420	0.724	0.458	
6.425	0.542	0.449	
6.430	-0.231	0.435	
6.435	0.151	0.358	
6.440	0.513	0.281	
6.445	-0.271	0.233	
6.450	-0.263	0.153	
6.455	0.290	0.062	
6.460	-0.216	0.011	
6.465	-0.453	-0.044	
6.470	0.021	-0.114	
6.475	-0.061	-0.149	
6.480	-0.497	-0.166	
6.485	-0.161	-0.200	
6.490	0.160	-0.210	
6.495	-0.449	-0.190	
6.500	-0.433	-0.199	
6.505	0.018	-0.226	
6.510	-0.324	-0.231	
6.515	-0.524	-0.244	
6.520	-0.055	-0.272	
6.525	-0.095	-0.269	
6.530	-0.504	-0.252	
6.535	-0.190	-0.257	
6.540	0.143	-0.246	
6.545	-0.410	-0.210	
6.550	-0.356	-0.201	
6.555	0.159	-0.204	
6.560	-0.246	-0.181	
6.565	-0.460	-0.173	
6.570	0.023	-0.190	
6.575	-0.051	-0.185	
6.580	-0.475	-0.173	
6.585	-0.176	-0.190	
6.590	0.058	-0.199	
6.595	-0.471	-0.191	
6.600	-0.399	-0.211	
6.605	0.091	-0.236	
6.610	-0.301	-0.229	
6.615	-0.503	-0.230	
6.620	-0.035	-0.250	
6.625	-0.112	-0.245	
6.630	-0.498	-0.233	
6.635	-0.078	-0.238	
6.640	0.536	-0.203	
6.645	-0.126	-0.108	
6.650	0.012	-0.027	
6.655	0.663	0.043	
6.660	-0.202	0.122	
6.665	-0.581	0.124	
6.670	-0.298	0.025	
6.675	-0.434	-0.103	
6.680	-0.795	-0.237	
6.685	-0.393	-0.371	
6.690	-0.037	-0.443	
6.695	-0.426	-0.438	
6.700	-0.284	-0.409	
6.705	0.470	-0.343	
6.710	-0.069	-0.221	
6.715	-0.298	-0.118	
6.720	0.420	-0.057	
6.725	0.377	0.026	
6.730	-0.255	0.104	
6.735	0.232	0.128	
6.740	0.663	0.156	
6.745	-0.133	0.207	
6.750	-0.031	0.211	
6.755	0.805	0.202	
6.760	0.255	0.245	
6.765	-0.072	0.278	
6.770	0.890	0.289	
6.775	0.767	0.356	
6.780	-0.017	0.434	
6.785	0.673	0.457	
6.790	1.156	0.499	
6.795	0.295	0.579	
6.800	0.473	0.613	
6.805	1.283	0.634	
6.810	0.612	0.695	
6.815	0.162	0.720	
6.820	0.944	0.687	
6.825	0.699	0.670	
6.830	-0.145	0.640	
6.835	0.345	0.541	
6.840	0.690	0.450	
6.845	-0.222	0.392	
6.850	-0.216	0.292	
6.855	0.372	0.176	
6.860	-0.187	0.102	
6.865	-0.413	0.028	
6.870	0.116	-0.055	
6.875	-0.016	-0.095	
6.880	-0.463	-0.114	
6.885	-0.122	-0.152	
6.890	0.232	-0.164	
6.895	-0.404	-0.143	
6.900	-0.339	-0.148	
6.905	0.214	-0.164	
6.910	-0.262	-0.149	
6.915	-0.468	-0.150	
6.920	0.024	-0.177	
6.925	-0.075	-0.181	
6.930	-0.492	-0.177	
6.935	-0.152	-0.199	
6.940	0.220	-0.199	
6.945	-0.375	-0.167	
6.950	-0.303	-0.158	
6.955	0.305	-0.156	
6.960	-0.197	-0.121	
6.965	-0.410	-0.105	
6.970	0.186	-0.115	
6.975	0.009	-0.101	
6.980	-0.492	-0.088	
6.985	-0.170	-0.119	
6.990	0.177	-0.142	
6.995	-0.422	-0.138	
7.000	-0.362	-0.158	
7.005	0.168	-0.184	
7.010	-0.304	-0.178	
7.015	-0.508	-0.186	
7.020	0.038	-0.215	
7.025	-0.031	-0.211	
7.030	-0.391	-0.189	
7.035	0.201	-0.172	
7.040	0.837	-0.092	
7.045	0.024	0.051	
7.050	0.033	0.155	
7.055	0.374	0.199	
7.060	-0.451	0.199	
7.065	-0.827	0.100	
7.070	-0.482	-0.087	
7.075	-0.527	-0.269	
7.080	-0.815	-0.418	
7.085	-0.394	-0.532	
7.090	-0.068	-0.566	
7.095	-0.436	-0.524	
7.100	-0.313	-0.464	
7.105	0.276	-0.385	
7.110	-0.214	-0.274	
7.115	-0.373	-0.193	
7.120	0.238	-0.151	
7.125	0.114	-0.092	
7.130	-0.381	-0.043	
7.135	0.044	-0.038	
7.140	0.484	-0.020	
7.145	-0.237	0.028	
7.150	-0.109	0.042	
7.155	0.721	0.054	
7.160	0.177	0.119	
7.165	-0.161	0.171	
7.170	0.652	0.189	
7.175	0.559	0.241	
7.180	-0.141	0.298	
7.185	0.519	0.307	
7.190	0.947	0.340	
7.195	0.046	0.407	
7.200	0.246	0.424	
7.205	1.106	0.430	
7.210	0.405	0.486	
7.215	-0.071	0.508	
7.220	0.722	0.471	
7.225	0.469	0.451	
7.230	-0.263	0.422	
7.235	0.162	0.335	
7.240	0.457	0.254	
7.245	-0.333	0.202	
7.250	-0.269	0.117	
7.255	0.318	0.028	
7.260	-0.249	-0.016	
7.265	-0.471	-0.064	
7.270	0.075	-0.128	
7.275	-0.080	-0.154	
7.280	-0.533	-0.167	
7.285	-0.203	-0.205	
7.290	0.101	-0.224	
7.295	-0.445	-0.213	
7.300	-0.356	-0.221	
7.305	0.154	-0.231	
7.310	-0.310	-0.209	
7.315	-0.486	-0.204	
7.320	0.101	-0.218	
7.325	-0.080	-0.202	
7.330	-0.524	-0.184	
7.335	-0.164	-0.200	
7.340	0.175	-0.203	
7.345	-0.410	-0.177	
7.350	-0.297	-0.175	
7.355	0.383	-0.170	
7.360	-0.220	-0.125	
7.365	-0.436	-0.102	
7.370	0.136	-0.117	
7.375	-0.051	-0.112	
7.380	-0.520	-0.111	
7.385	-0.197	-0.150	
7.390	0.068	-0.180	
7.395	-0.482	-0.187	
7.400	-0.388	-0.215	
7.405	0.145	-0.240	
7.410	-0.307	-0.227	
7.415	-0.475	-0.222	
7.420	0.168	-0.229	
7.425	0.130	-0.191	
7.430	-0.313	-0.132	
7.435	0.423	-0.081	
7.440	1.031	0.030	
7.445	0.139	0.201	
7.450	0.038	0.310	
7.455	0.282	0.329	
7.460	-0.526	0.281	
7.465	-0.848	0.131	
7.470	-0.436	-0.089	
7.475	-0.471	-0.282	
7.480	-0.760	-0.424	
7.485	-0.320	-0.522	
7.490	0.056	-0.535	
7.495	-0.408	-0.472	
7.500	-0.232	-0.399	
7.505	0.432	-0.310	
7.510	-0.194	-0.189	
7.515	-0.388	-0.110	
7.520	0.357	-0.080	
7.525	0.215	-0.025	
7.530	-0.333	0.028	
7.535	0.206	0.037	
7.540	0.637	0.068	
7.545	-0.170	0.131	
7.550	0.018	0.152	
7.555	0.915	0.171	
7.560	0.238	0.245	
7.565	-0.081	0.296	
7.570	0.872	0.311	
7.575	0.725	0.371	
7.580	-0.011	0.438	
7.585	0.761	0.458	
7.590	1.211	0.509	
7.595	0.266	0.599	
7.600	0.492	0.636	
7.605	1.272	0.653	
7.610	0.536	0.706	
7.615	0.038	0.711	
7.620	0.831	0.649	
7.625	0.502	0.601	
7.630	-0.254	0.539	
7.635	0.227	0.419	
7.640	0.539	0.317	
7.645	-0.309	0.254	
7.650	-0.225	0.163	
7.655	0.412	0.071	
7.660	-0.219	0.031	
7.665	-0.417	-0.015	
7.670	0.146	-0.077	
7.675	-0.061	-0.101	
7.680	-0.488	-0.116	
7.685	-0.109	-0.155	
7.690	0.177	-0.170	
7.695	-0.448	-0.155	
7.700	-0.332	-0.168	
7.705	0.269	-0.182	
7.710	-0.254	-0.157	
7.715	-0.462	-0.149	
7.720	0.107	-0.166	
7.725	-0.049	-0.158	
7.730	-0.501	-0.148	
7.735	-0.139	-0.170	
7.740	0.217	-0.176	
7.745	-0.407	-0.151	
7.750	-0.284	-0.152	
7.755	0.345	-0.153	
7.760	-0.242	-0.118	
7.765	-0.440	-0.106	
7.770	0.124	-0.126	
7.775	-0.078	-0.126	
7.780	-0.526	-0.128	
7.785	-0.170	-0.165	
7.790	0.093	-0.189	
7.795	-0.489	-0.187	
7.800	-0.384	-0.211	
7.805	0.097	-0.237	
7.810	-0.359	-0.231	
7.815	-0.517	-0.238	
7.820	0.082	-0.258	
7.825	0.027	-0.235	
7.830	-0.335	-0.190	
7.835	0.510	-0.139	
7.840	0.987	-0.011	
7.845	-0.071	0.166	
7.850	-0.165	0.253	
7.855	0.018	0.232	
7.860	-0.598	0.145	
7.865	-0.848	-0.018	
7.870	-0.445	-0.221	
7.875	-0.514	-0.384	
7.880	-0.804	-0.498	
7.885	-0.336	-0.576	
7.890	-0.008	-0.576	
7.895	-0.468	-0.508	
7.900	-0.300	-0.438	
7.905	0.362	-0.355	
7.910	-0.211	-0.239	
7.915	-0.342	-0.157	
7.920	0.460	-0.107	
7.925	0.215	-0.027	
7.930	-0.370	0.042	
7.935	0.130	0.050	
7.940	0.541	0.064	
7.945	-0.237	0.104	
7.950	-0.037	0.106	
7.955	0.845	0.112	
7.960	0.146	0.177	
7.965	-0.135	0.223	
7.970	0.814	0.236	
7.975	0.635	0.297	
7.980	-0.092	0.364	
7.985	0.698	0.383	
7.990	1.113	0.433	
7.995	0.165	0.520	
8.000	0.437	0.554	
8.005	1.185	0.571	
8.010	0.345	0.619	
8.015	-0.068	0.612	
8.020	0.802	0.542	
8.025	0.473	0.501	
8.030	-0.262	0.456	
8.035	0.224	0.358	
8.040	0.464	0.274	
8.045	-0.335	0.220	
8.050	-0.236	0.132	
8.055	0.382	0.045	
8.060	-0.243	0.007	
8.065	-0.430	-0.038	
8.070	0.168	-0.096	
8.075	-0.064	-0.114	
8.080	-0.501	-0.123	
8.085	-0.121	-0.160	
8.090	0.171	-0.175	
8.095	-0.436	-0.160	
8.100	-0.257	-0.167	
8.105	0.388	-0.166	
8.110	-0.280	-0.124	
8.115	-0.472	-0.110	
8.120	0.094	-0.135	
8.125	-0.098	-0.140	
8.130	-0.506	-0.145	
8.135	-0.098	-0.176	
8.140	0.244	-0.180	
8.145	-0.396	-0.149	
8.150	-0.268	-0.144	
8.155	0.366	-0.141	
8.160	-0.243	-0.103	
8.165	-0.413	-0.090	
8.170	0.215	-0.107	
8.175	-0.077	-0.098	
8.180	-0.532	-0.097	
8.185	-0.150	-0.138	
8.190	0.154	-0.164	
8.195	-0.439	-0.160	
8.200	-0.298	-0.175	
8.205	0.301	-0.184	
8.210	-0.274	-0.153	
8.215	-0.420	-0.141	
8.220	0.284	-0.147	
8.225	0.162	-0.108	
8.230	-0.274	-0.054	
8.235	0.498	-0.012	
8.240	0.890	0.085	
8.245	-0.200	0.213	
8.250	-0.309	0.245	
8.255	-0.115	0.172	
8.260	-0.616	0.052	
8.265	-0.775	-0.115	
8.270	-0.239	-0.287	
8.275	-0.286	-0.389	
8.280	-0.610	-0.433	
8.285	-0.142	-0.451	
8.290	0.261	-0.406	
8.295	-0.330	-0.306	
8.300	-0.168	-0.227	
8.305	0.507	-0.154	
8.310	-0.165	-0.058	
8.315	-0.323	-0.007	
8.320	0.452	0.003	
8.325	0.244	0.045	
8.330	-0.303	0.087	
8.335	0.347	0.091	
8.340	0.728	0.128	
8.345	-0.142	0.199	
8.350	0.110	0.223	
8.355	0.962	0.241	
8.360	0.229	0.310	
8.365	-0.057	0.350	
8.370	0.924	0.353	
8.375	0.687	0.403	
8.380	-0.061	0.457	
8.385	0.735	0.459	
8.390	1.087	0.490	
8.395	0.101	0.554	
8.400	0.386	0.561	
8.405	1.150	0.554	
8.410	0.284	0.585	
8.415	-0.112	0.567	
8.420	0.725	0.489	
8.425	0.351	0.439	
8.430	-0.323	0.384	
8.435	0.192	0.282	
8.440	0.481	0.204	
8.445	-0.321	0.167	
8.450	-0.188	0.102	
8.455	0.447	0.039	
8.460	-0.211	0.024	
8.465	-0.364	-0.003	
8.470	0.380	-0.042	
8.475	0.062	-0.032	
8.480	-0.457	-0.019	
8.485	-0.052	-0.051	
8.490	0.253	-0.071	
8.495	-0.399	-0.066	
8.500	-0.228	-0.086	
8.505	0.472	-0.098	
8.510	-0.208	-0.063	
8.515	-0.408	-0.050	
8.520	0.241	-0.070	
8.525	-0.019	-0.065	
8.530	-0.459	-0.062	
8.535	-0.025	-0.094	
8.540	0.324	-0.100	
8.545	-0.353	-0.073	
8.550	-0.174	-0.071	
8.555	0.495	-0.067	
8.560	-0.207	-0.025	
8.565	-0.393	-0.013	
8.570	0.235	-0.040	
8.575	-0.002	-0.043	
8.580	-0.451	-0.046	
8.585	-0.072	-0.084	
8.590	0.198	-0.106	
8.595	-0.430	-0.102	
8.600	-0.295	-0.125	
8.605	0.298	-0.147	
8.610	-0.286	-0.130	
8.615	-0.405	-0.129	
8.620	0.389	-0.137	
8.625	0.275	-0.086	
8.630	-0.229	-0.012	
8.635	0.556	0.043	
8.640	0.819	0.141	
8.645	-0.309	0.250	
8.650	-0.396	0.249	
8.655	-0.121	0.146	
8.660	-0.569	0.012	
8.665	-0.729	-0.147	
8.670	-0.173	-0.300	
8.675	-0.203	-0.379	
8.680	-0.526	-0.398	
8.685	-0.061	-0.395	
8.690	0.299	-0.337	
8.695	-0.364	-0.238	
8.700	-0.179	-0.174	
8.705	0.592	-0.116	
8.710	-0.106	-0.024	
8.715	-0.255	0.031	
8.720	0.611	0.052	
8.725	0.347	0.113	
8.730	-0.269	0.170	
8.735	0.385	0.176	
8.740	0.742	0.203	
8.745	-0.107	0.261	
8.750	0.180	0.273	
8.755	1.032	0.289	
8.760	0.227	0.357	
8.765	-0.058	0.390	
8.770	0.941	0.383	
8.775	0.719	0.427	
8.780	0.055	0.481	
8.785	0.860	0.497	
8.790	1.094	0.546	
8.795	0.050	0.612	
8.800	0.337	0.602	
8.805	1.139	0.572	
8.810	0.261	0.585	
8.815	-0.101	0.555	
8.820	0.741	0.475	
8.825	0.357	0.428	
8.830	-0.307	0.379	
8.835	0.236	0.284	
8.840	0.498	0.215	
8.845	-0.313	0.184	
8.850	-0.177	0.121	
8.855	0.496	0.059	
8.860	-0.210	0.046	
8.865	-0.365	0.018	
8.870	0.324	-0.028	
8.875	0.027	-0.031	
8.880	-0.459	-0.030	
8.885	0.017	-0.065	
8.890	0.426	-0.070	
8.895	-0.359	-0.036	
8.900	-0.243	-0.037	
8.905	0.376	-0.053	
8.910	-0.255	-0.039	
8.915	-0.405	-0.050	
8.920	0.292	-0.082	
8.925	0.027	-0.073	
8.930	-0.416	-0.058	
8.935	0.102	-0.073	
8.940	0.418	-0.057	
8.945	-0.323	-0.010	
8.950	-0.147	-0.003	
8.955	0.557	-0.001	
8.960	-0.167	0.037	
8.965	-0.350	0.043	
8.970	0.325	0.013	
8.975	-0.009	0.009	
8.980	-0.453	-0.001	
8.985	-0.002	-0.048	
8.990	0.347	-0.068	
8.995	-0.375	-0.050	
9.000	-0.236	-0.062	
9.005	0.414	-0.076	
9.010	-0.237	-0.052	
9.015	-0.361	-0.051	
9.020	0.501	-0.062	
9.025	0.432	-0.006	
9.030	-0.155	0.078	
9.035	0.637	0.140	
9.040	0.797	0.233	
9.045	-0.355	0.323	
9.050	-0.423	0.291	
9.055	-0.165	0.159	
9.060	-0.598	0.003	
9.065	-0.686	-0.169	
9.070	-0.086	-0.318	
9.075	-0.150	-0.378	
9.080	-0.488	-0.379	
9.085	0.047	-0.359	
9.090	0.482	-0.279	
9.095	-0.262	-0.153	
9.100	-0.077	-0.069	
9.105	0.669	-0.003	
9.110	-0.095	0.084	
9.115	-0.232	0.123	
9.120	0.658	0.123	
9.125	0.376	0.168	
9.130	-0.243	0.213	
9.135	0.469	0.212	
9.140	0.811	0.242	
9.145	-0.089	0.305	
9.150	0.272	0.321	
9.155	1.071	0.340	
9.160	0.247	0.409	
9.165	-0.002	0.440	
9.170	1.045	0.433	
9.175	0.782	0.483	
9.180	0.018	0.539	
9.185	0.872	0.545	
9.190	1.190	0.584	
9.195	0.188	0.654	
9.200	0.495	0.662	
9.205	1.275	0.658	
9.210	0.351	0.691	
9.215	-0.092	0.666	
9.220	0.733	0.573	
9.225	0.348	0.501	
9.230	-0.310	0.425	
9.235	0.233	0.307	
9.240	0.481	0.222	
9.245	-0.320	0.179	
9.250	-0.188	0.109	
9.255	0.415	0.042	
9.260	-0.262	0.019	
9.265	-0.402	-0.020	
9.270	0.235	-0.073	
9.275	-0.066	-0.086	
9.280	-0.482	-0.094	
9.285	-0.058	-0.131	
9.290	0.191	-0.143	
9.295	-0.442	-0.129	
9.300	-0.249	-0.141	
9.305	0.363	-0.148	
9.310	-0.280	-0.115	
9.315	-0.414	-0.105	
9.320	0.253	-0.121	
9.325	-0.038	-0.104	
9.330	-0.462	-0.089	
9.335	0.018	-0.109	
9.340	0.336	-0.103	
9.345	-0.365	-0.066	
9.350	-0.193	-0.063	
9.355	0.478	-0.062	
9.360	-0.217	-0.025	
9.365	-0.356	-0.017	
9.370	0.385	-0.035	
9.375	0.006	-0.018	
9.380	-0.471	-0.010	
9.385	-0.066	-0.050	
9.390	0.195	-0.079	
9.395	-0.448	-0.085	
9.400	-0.275	-0.117	
9.405	0.330	-0.142	
9.410	-0.292	-0.124	
9.415	-0.411	-0.123	
9.420	0.345	-0.135	
9.425	0.211	-0.094	
9.430	-0.213	-0.030	
9.435	0.690	0.028	
9.440	0.988	0.151	
9.445	-0.200	0.298	
9.450	-0.309	0.328	
9.455	-0.153	0.237	
9.460	-0.650	0.090	
9.465	-0.766	-0.101	
9.470	-0.232	-0.287	
9.475	-0.287	-0.396	
9.480	-0.559	-0.440	
9.485	0.033	-0.443	
9.490	0.447	-0.365	
9.495	-0.324	-0.232	
9.500	-0.104	-0.137	
9.505	0.644	-0.060	
9.510	-0.104	0.038	
9.515	-0.225	0.090	
9.520	0.652	0.103	
9.525	0.316	0.155	
9.530	-0.271	0.198	
9.535	0.441	0.193	
9.540	0.758	0.218	
9.545	-0.124	0.275	
9.550	0.224	0.286	
9.555	1.039	0.301	
9.560	0.288	0.373	
9.565	0.096	0.418	
9.570	1.155	0.439	
9.575	0.794	0.515	
9.580	-0.003	0.584	
9.585	0.842	0.586	
9.590	1.133	0.608	
9.595	0.143	0.657	
9.600	0.482	0.647	
9.605	1.208	0.630	
9.610	0.279	0.652	
9.615	-0.034	0.622	
9.620	0.875	0.543	
9.625	0.366	0.500	
9.630	-0.321	0.446	
9.635	0.186	0.333	
9.640	0.357	0.235	
9.645	-0.378	0.167	
9.650	-0.231	0.074	
9.655	0.305	-0.010	
9.660	-0.329	-0.047	
9.665	-0.468	-0.095	
9.670	0.099	-0.154	
9.675	-0.173	-0.175	
9.680	-0.562	-0.191	
9.685	-0.118	-0.229	
9.690	0.133	-0.236	
9.695	-0.477	-0.211	
9.700	-0.303	-0.212	
9.705	0.266	-0.211	
9.710	-0.324	-0.176	
9.715	-0.446	-0.164	
9.720	0.175	-0.176	
9.725	-0.109	-0.159	
9.730	-0.494	-0.146	
9.735	-0.025	-0.164	
9.740	0.253	-0.156	
9.745	-0.391	-0.120	
9.750	-0.197	-0.113	
9.755	0.457	-0.104	
9.760	-0.239	-0.058	
9.765	-0.371	-0.043	
9.770	0.295	-0.060	
9.775	-0.061	-0.049	
9.780	-0.506	-0.051	
9.785	-0.080	-0.095	
9.790	0.088	-0.126	
9.795	-0.517	-0.137	
9.800	-0.329	-0.176	
9.805	0.198	-0.208	
9.810	-0.365	-0.199	
9.815	-0.503	-0.205	
9.820	0.117	-0.229	
9.825	-0.038	-0.212	
9.830	-0.310	-0.177	
9.835	0.621	-0.129	
9.840	1.028	0.009	
9.845	-0.090	0.194	
9.850	-0.171	0.281	
9.855	-0.060	0.249	
9.860	-0.686	0.142	
9.865	-0.870	-0.043	
9.870	-0.390	-0.256	
9.875	-0.457	-0.410	
9.880	-0.686	-0.503	
9.885	-0.193	-0.548	
9.890	0.076	-0.516	
9.895	-0.466	-0.428	
9.900	-0.242	-0.356	
9.905	0.449	-0.279	
9.910	-0.219	-0.169	
9.915	-0.330	-0.098	
9.920	0.437	-0.066	
9.925	0.102	-0.008	
9.930	-0.362	0.035	
9.935	0.272	0.033	
9.940	0.565	0.061	
9.945	-0.228	0.117	
9.950	0.087	0.132	
9.955	0.901	0.154	
9.960	0.096	0.228	
9.965	-0.051	0.271	
9.970	1.002	0.288	
9.975	0.701	0.365	
9.980	-0.005	0.447	
9.985	0.929	0.479	
9.990	1.188	0.547	
9.995	0.159	0.639	
10.000	0.519	0.660	
10.005	1.240	0.661	
10.010	0.334	0.693	
10.015	-0.014	0.669	
10.020	0.877	0.588	
10.025	0.418	0.539	
10.030	-0.274	0.482	
10.035	0.278	0.372	
10.040	0.409	0.281	
10.045	-0.376	0.218	
10.050	-0.213	0.121	
10.055	0.368	0.031	
10.060	-0.309	-0.009	
10.065	-0.439	-0.059	
10.070	0.192	-0.118	
10.075	-0.130	-0.134	
10.080	-0.512	-0.144	
10.085	-0.045	-0.178	
10.090	0.221	-0.179	
10.095	-0.474	-0.150	
10.100	-0.329	-0.157	
10.105	0.169	-0.176	
10.110	-0.373	-0.169	
10.115	-0.475	-0.183	
10.120	0.146	-0.211	
10.125	-0.142	-0.200	
10.130	-0.524	-0.189	
10.135	-0.037	-0.205	
10.140	0.215	-0.193	
10.145	-0.426	-0.153	
10.150	-0.213	-0.144	
10.155	0.440	-0.132	
10.160	-0.246	-0.083	
10.165	-0.384	-0.063	
10.170	0.252	-0.077	
10.175	-0.122	-0.070	
10.180	-0.515	-0.077	
10.185	-0.078	-0.123	
10.190	0.134	-0.148	
10.195	-0.466	-0.145	
10.200	-0.275	-0.167	
10.205	0.288	-0.180	
10.210	-0.329	-0.155	
10.215	-0.434	-0.151	
10.220	0.233	-0.165	
10.225	-0.006	-0.141	
10.230	-0.324	-0.108	
10.235	0.592	-0.074	
10.240	1.014	0.042	
10.245	-0.013	0.212	
10.250	0.015	0.303	
10.255	0.178	0.301	
10.260	-0.608	0.233	
10.265	-0.819	0.071	
10.270	-0.362	-0.142	
10.275	-0.475	-0.314	
10.280	-0.714	-0.434	
10.285	-0.159	-0.508	
10.290	0.142	-0.492	
10.295	-0.445	-0.408	
10.300	-0.202	-0.335	
10.305	0.505	-0.253	
10.310	-0.176	-0.137	
10.315	-0.275	-0.060	
10.320	0.541	-0.020	
10.325	0.169	0.048	
10.330	-0.323	0.099	
10.335	0.365	0.100	
10.340	0.652	0.131	
10.345	-0.170	0.192	
10.350	0.175	0.208	
10.355	0.959	0.231	
10.360	0.166	0.303	
10.365	0.062	0.346	
10.370	1.084	0.366	
10.375	0.739	0.446	
10.380	0.033	0.522	
10.385	0.935	0.544	
10.390	1.199	0.597	
10.395	0.212	0.677	
10.400	0.623	0.695	
10.405	1.378	0.706	
10.410	0.421	0.757	
10.415	0.075	0.748	
10.420	0.932	0.675	
10.425	0.478	0.626	
10.430	-0.217	0.563	
10.435	0.429	0.450	
10.440	0.530	0.366	
10.445	-0.318	0.311	
10.450	-0.124	0.216	
10.455	0.527	0.127	
10.460	-0.225	0.093	
10.465	-0.344	0.046	
10.470	0.382	-0.009	
10.475	-0.009	-0.016	
10.480	-0.448	-0.021	
10.485	0.056	-0.058	
10.490	0.285	-0.068	
10.495	-0.398	-0.050	
10.500	-0.199	-0.064	
10.505	0.400	-0.078	
10.510	-0.281	-0.055	
10.515	-0.361	-0.058	
10.520	0.366	-0.078	
10.525	-0.013	-0.057	
10.530	-0.416	-0.040	
10.535	0.149	-0.056	
10.540	0.380	-0.041	
10.545	-0.344	-0.000	
10.550	-0.127	-0.000	
10.555	0.570	-0.002	
10.560	-0.185	0.036	
10.565	-0.300	0.044	
10.570	0.452	0.024	
10.575	0.020	0.038	
10.580	-0.422	0.042	
10.585	0.101	0.002	
10.590	0.226	-0.017	
10.595	-0.436	-0.018	
10.600	-0.220	-0.055	
10.605	0.380	-0.086	
10.610	-0.281	-0.074	
10.615	-0.373	-0.079	
10.620	0.383	-0.097	
10.625	0.128	-0.064	
10.630	-0.254	-0.018	
10.635	0.649	0.020	
10.640	0.970	0.128	
10.645	-0.081	0.273	
10.650	-0.026	0.330	
10.655	0.287	0.304	
10.660	-0.486	0.238	
10.665	-0.671	0.099	
10.670	-0.216	-0.082	
10.675	-0.364	-0.223	
10.680	-0.624	-0.324	
10.685	-0.061	-0.391	
10.690	0.284	-0.373	
10.695	-0.347	-0.288	
10.700	-0.054	-0.214	
10.705	0.707	-0.127	
10.710	-0.104	-0.003	
10.715	-0.200	0.073	
10.720	0.716	0.106	
10.725	0.359	0.176	
10.730	-0.217	0.234	
10.735	0.559	0.242	
10.740	0.776	0.278	
10.745	-0.138	0.336	
10.750	0.263	0.337	
10.755	1.063	0.343	
10.760	0.203	0.402	
10.765	0.044	0.426	
10.770	1.058	0.422	
10.775	0.695	0.474	
10.780	0.013	0.525	
10.785	0.956	0.531	
10.790	1.188	0.580	
10.795	0.192	0.659	
10.800	0.596	0.677	
10.805	1.274	0.683	
10.810	0.336	0.721	
10.815	0.047	0.698	
10.820	0.971	0.623	
10.825	0.492	0.585	
10.830	-0.214	0.539	
10.835	0.403	0.438	
10.840	0.516	0.359	
10.845	-0.317	0.306	
10.850	-0.135	0.211	
10.855	0.482	0.121	
10.860	-0.254	0.081	
10.865	-0.359	0.029	
10.870	0.307	-0.033	
10.875	-0.078	-0.049	
10.880	-0.463	-0.063	
10.885	0.038	-0.102	
10.890	0.209	-0.111	
10.895	-0.436	-0.094	
10.900	-0.217	-0.109	
10.905	0.377	-0.119	
10.910	-0.284	-0.090	
10.915	-0.346	-0.084	
10.920	0.414	-0.092	
10.925	-0.052	-0.059	
10.930	-0.460	-0.038	
10.935	0.067	-0.063	
10.940	0.250	-0.067	
10.945	-0.420	-0.050	
10.950	-0.196	-0.069	
10.955	0.470	-0.081	
10.960	-0.242	-0.049	
10.965	-0.359	-0.041	
10.970	0.273	-0.061	
10.975	-0.141	-0.058	
10.980	-0.529	-0.070	
10.985	-0.069	-0.122	
10.990	0.090	-0.151	
10.995	-0.483	-0.155	
11.000	-0.246	-0.180	
11.005	0.397	-0.186	
11.010	-0.309	-0.143	
11.015	-0.407	-0.125	
11.020	0.314	-0.130	
11.025	0.059	-0.096	
11.030	-0.284	-0.054	
11.035	0.528	-0.023	
11.040	0.696	0.064	
11.045	-0.323	0.169	
11.050	-0.329	0.177	
11.055	-0.145	0.096	
11.060	-0.660	-0.021	
11.065	-0.724	-0.175	
11.070	-0.167	-0.324	
11.075	-0.284	-0.399	
11.080	-0.558	-0.422	
11.085	-0.009	-0.421	
11.090	0.261	-0.357	
11.095	-0.378	-0.253	
11.100	-0.092	-0.183	
11.105	0.615	-0.112	
11.110	-0.176	-0.012	
11.115	-0.246	0.040	
11.120	0.592	0.055	
11.125	0.143	0.102	
11.130	-0.333	0.131	
11.135	0.327	0.113	
11.140	0.527	0.122	
11.145	-0.263	0.155	
11.150	0.061	0.146	
11.155	0.802	0.145	
11.160	-0.046	0.192	
11.165	-0.127	0.207	
11.170	0.842	0.201	
11.175	0.453	0.254	
11.180	-0.159	0.306	
11.185	0.698	0.314	
11.190	0.935	0.360	
11.195	-0.069	0.431	
11.200	0.322	0.439	
11.205	0.958	0.432	
11.210	0.007	0.452	
11.215	-0.147	0.417	
11.220	0.724	0.343	
11.225	0.178	0.311	
11.230	-0.382	0.271	
11.235	0.117	0.179	
11.240	0.236	0.105	
11.245	-0.451	0.056	
11.250	-0.246	-0.021	
11.255	0.287	-0.085	
11.260	-0.349	-0.102	
11.265	-0.436	-0.130	
11.270	0.160	-0.169	
11.275	-0.182	-0.171	
11.280	-0.550	-0.175	
11.285	-0.101	-0.208	
11.290	0.015	-0.220	
11.295	-0.530	-0.213	
11.300	-0.272	-0.231	
11.305	0.273	-0.235	
11.310	-0.365	-0.197	
11.315	-0.443	-0.184	
11.320	0.162	-0.194	
11.325	-0.187	-0.177	
11.330	-0.538	-0.171	
11.335	-0.054	-0.197	
11.340	0.111	-0.198	
11.345	-0.486	-0.177	
11.350	-0.255	-0.185	
11.355	0.276	-0.188	
11.360	-0.358	-0.158	
11.365	-0.453	-0.155	
11.370	0.107	-0.178	
11.375	-0.246	-0.179	
11.380	-0.621	-0.193	
11.385	-0.179	-0.241	
11.390	-0.063	-0.268	
11.395	-0.576	-0.273	
11.400	-0.362	-0.297	
11.405	0.058	-0.312	
11.410	-0.449	-0.294	
11.415	-0.494	-0.292	
11.420	0.166	-0.296	
11.425	-0.106	-0.256	
11.430	-0.405	-0.209	
11.435	0.285	-0.177	
11.440	0.334	-0.105	
11.445	-0.569	-0.033	
11.450	-0.566	-0.054	
11.455	-0.373	-0.151	
11.460	-0.842	-0.269	
11.465	-0.871	-0.413	
11.470	-0.304	-0.541	
11.475	-0.417	-0.591	
11.480	-0.683	-0.591	
11.485	-0.173	-0.572	
11.490	-0.028	-0.506	
11.495	-0.540	-0.416	
11.500	-0.292	-0.359	
11.505	0.259	-0.305	
11.510	-0.355	-0.228	
11.515	-0.396	-0.187	
11.520	0.343	-0.169	
11.525	-0.061	-0.119	
11.530	-0.410	-0.081	
11.535	0.253	-0.076	
11.540	0.444	-0.035	
11.545	-0.312	0.030	
11.550	0.055	0.051	
11.555	0.858	0.082	
11.560	0.006	0.164	
11.565	-0.083	0.210	
11.570	0.915	0.229	
11.575	0.481	0.299	
11.580	-0.135	0.358	
11.585	0.748	0.366	
11.590	0.912	0.407	
11.595	-0.055	0.468	
11.600	0.377	0.466	
11.605	1.005	0.458	
11.610	-0.003	0.479	
11.615	-0.177	0.439	
11.620	0.586	0.349	
11.625	0.004	0.286	
11.630	-0.448	0.209	
11.635	0.070	0.095	
11.640	0.149	0.014	
11.645	-0.504	-0.035	
11.650	-0.297	-0.106	
11.655	0.140	-0.165	
11.660	-0.459	-0.186	
11.665	-0.541	-0.223	
11.670	-0.038	-0.272	
11.675	-0.313	-0.290	
11.680	-0.677	-0.307	
11.685	-0.251	-0.347	
11.690	-0.188	-0.366	
11.695	-0.682	-0.368	
11.700	-0.442	-0.393	
11.705	-0.066	-0.408	
11.710	-0.544	-0.392	
11.715	-0.599	-0.392	
11.720	-0.080	-0.404	
11.725	-0.339	-0.386	
11.730	-0.669	-0.372	
11.735	-0.213	-0.384	
11.740	-0.110	-0.374	
11.745	-0.617	-0.349	
11.750	-0.378	-0.352	
11.755	0.068	-0.348	
11.760	-0.474	-0.315	
11.765	-0.544	-0.307	
11.770	-0.072	-0.321	
11.775	-0.361	-0.317	
11.780	-0.700	-0.326	
11.785	-0.263	-0.363	
11.790	-0.199	-0.380	
11.795	-0.683	-0.381	
11.800	-0.439	-0.403	
11.805	-0.028	-0.413	
11.810	-0.523	-0.388	
11.815	-0.552	-0.380	
11.820	0.099	-0.376	
11.825	-0.150	-0.328	
11.830	-0.407	-0.272	
11.835	0.427	-0.219	
11.840	0.519	-0.108	
11.845	-0.477	0.012	
11.850	-0.503	0.026	
11.855	-0.365	-0.057	
11.860	-0.860	-0.184	
11.865	-0.903	-0.351	
11.870	-0.361	-0.508	
11.875	-0.469	-0.588	
11.880	-0.695	-0.611	
11.885	-0.138	-0.601	
11.890	0.107	-0.526	
11.895	-0.457	-0.409	
11.900	-0.135	-0.320	
11.905	0.576	-0.224	
11.910	-0.205	-0.098	
11.915	-0.242	-0.021	
11.920	0.686	0.020	
11.925	0.250	0.100	
11.930	-0.269	0.164	
11.935	0.586	0.178	
11.940	0.745	0.229	
11.945	-0.168	0.299	
11.950	0.372	0.315	
11.955	1.190	0.346	
11.960	0.275	0.437	
11.965	0.236	0.492	
11.970	1.314	0.524	
11.975	0.864	0.615	
11.980	0.191	0.695	
11.985	1.191	0.719	
11.990	1.327	0.778	
11.995	0.296	0.854	
12.000	0.800	0.860	
12.005	1.450	0.858	
12.010	0.421	0.889	
12.015	0.204	0.855	
12.020	1.116	0.771	
12.025	0.521	0.723	
12.030	-0.211	0.656	
12.035	0.495	0.530	
12.040	0.554	0.431	
12.045	-0.327	0.362	
12.050	-0.075	0.253	
12.055	0.545	0.156	
12.060	-0.287	0.113	
12.065	-0.359	0.053	
12.070	0.372	-0.015	
12.075	-0.127	-0.034	
12.080	-0.500	-0.055	
12.085	0.091	-0.103	
12.090	0.235	-0.111	
12.095	-0.445	-0.089	
12.100	-0.159	-0.100	
12.105	0.504	-0.098	
12.110	-0.271	-0.053	
12.115	-0.332	-0.038	
12.120	0.432	-0.047	
12.125	-0.078	-0.021	
12.130	-0.443	-0.013	
12.135	0.220	-0.041	
12.140	0.362	-0.030	
12.145	-0.382	0.006	
12.150	-0.098	0.000	
12.155	0.521	-0.006	
12.160	-0.297	0.022	
12.165	-0.375	0.011	
12.170	0.301	-0.030	
12.175	-0.184	-0.043	
12.180	-0.559	-0.071	
12.185	-0.054	-0.134	
12.190	0.017	-0.170	
12.195	-0.569	-0.184	
12.200	-0.307	-0.222	
12.205	0.208	-0.245	
12.210	-0.420	-0.226	
12.215	-0.439	-0.224	
12.220	0.376	-0.224	
12.225	0.107	-0.164	
12.230	-0.199	-0.086	
12.235	0.922	-0.002	
12.240	1.014	0.162	
12.245	-0.260	0.337	
12.250	-0.287	0.370	
12.255	-0.164	0.272	
12.260	-0.776	0.110	
12.265	-0.841	-0.108	
12.270	-0.274	-0.322	
12.275	-0.402	-0.450	
12.280	-0.622	-0.508	
12.285	0.023	-0.518	
12.290	0.256	-0.442	
12.295	-0.394	-0.317	
12.300	-0.022	-0.222	
12.305	0.771	-0.119	
12.310	-0.127	0.018	
12.315	-0.173	0.098	
12.320	0.788	0.133	
12.325	0.273	0.204	
12.330	-0.240	0.251	
12.335	0.632	0.248	
12.340	0.799	0.285	
12.345	-0.152	0.346	
12.350	0.397	0.353	
12.355	1.165	0.375	
12.360	0.267	0.455	
12.365	0.258	0.501	
12.370	1.364	0.530	
12.375	0.901	0.625	
12.380	0.243	0.714	
12.385	1.283	0.750	
12.390	1.477	0.826	
12.395	0.406	0.926	
12.400	0.887	0.950	
12.405	1.524	0.958	
12.410	0.452	0.987	
12.415	0.232	0.942	
12.420	1.104	0.840	
12.425	0.423	0.766	
12.430	-0.245	0.667	
12.435	0.495	0.515	
12.440	0.490	0.402	
12.445	-0.350	0.325	
12.450	-0.058	0.214	
12.455	0.571	0.125	
12.460	-0.274	0.095	
12.465	-0.324	0.049	
12.470	0.464	-0.003	
12.475	-0.063	-0.004	
12.480	-0.422	-0.007	
12.485	0.293	-0.036	
12.490	0.403	-0.017	
12.495	-0.381	0.028	
12.500	-0.064	0.026	
12.505	0.605	0.024	
12.510	-0.234	0.061	
12.515	-0.262	0.062	
12.520	0.634	0.046	
12.525	0.128	0.081	
12.530	-0.324	0.110	
12.535	0.481	0.102	
12.540	0.628	0.138	
12.545	-0.242	0.199	
12.550	0.215	0.209	
12.555	0.945	0.227	
12.560	-0.043	0.290	
12.565	-0.115	0.301	
12.570	0.819	0.277	
12.575	0.208	0.293	
12.580	-0.329	0.289	
12.585	0.463	0.234	
12.590	0.530	0.216	
12.595	-0.326	0.222	
12.600	-0.008	0.179	
12.605	0.673	0.139	
12.610	-0.207	0.147	
12.615	-0.243	0.124	
12.620	0.742	0.092	
12.625	0.353	0.133	
12.630	-0.092	0.191	
12.635	1.092	0.243	
12.640	1.245	0.377	
12.645	-0.057	0.536	
12.650	-0.013	0.567	
12.655	0.163	0.481	
12.660	-0.627	0.336	
12.665	-0.729	0.119	
12.670	-0.197	-0.115	
12.675	-0.387	-0.279	
12.680	-0.616	-0.381	
12.685	0.042	-0.434	
12.690	0.313	-0.390	
12.695	-0.353	-0.282	
12.700	0.013	-0.194	
12.705	0.735	-0.096	
12.710	-0.145	0.031	
12.715	-0.142	0.102	
12.720	0.820	0.136	
12.725	0.253	0.208	
12.730	-0.254	0.255	
12.735	0.623	0.248	
12.740	0.739	0.279	
12.745	-0.179	0.331	
12.750	0.357	0.330	
12.755	1.104	0.344	
12.760	0.160	0.413	
12.765	0.134	0.443	
12.770	1.208	0.451	
12.775	0.696	0.522	
12.780	0.033	0.582	
12.785	1.077	0.589	
12.790	1.179	0.639	
12.795	0.133	0.710	
12.800	0.678	0.712	
12.805	1.320	0.711	
12.810	0.292	0.746	
12.815	0.105	0.718	
12.820	0.990	0.641	
12.825	0.295	0.594	
12.830	-0.300	0.521	
12.835	0.395	0.393	
12.840	0.405	0.298	
12.845	-0.396	0.234	
12.850	-0.107	0.137	
12.855	0.507	0.059	
12.860	-0.301	0.038	
12.865	-0.346	-0.000	
12.870	0.374	-0.047	
12.875	-0.136	-0.049	
12.880	-0.498	-0.060	
12.885	0.053	-0.103	
12.890	0.110	-0.119	
12.895	-0.508	-0.115	
12.900	-0.211	-0.144	
12.905	0.343	-0.158	
12.910	-0.370	-0.131	
12.915	-0.407	-0.131	
12.920	0.304	-0.147	
12.925	-0.165	-0.126	
12.930	-0.495	-0.117	
12.935	0.097	-0.139	
12.940	0.174	-0.131	
12.945	-0.468	-0.103	
12.950	-0.156	-0.113	
12.955	0.476	-0.111	
12.960	-0.301	-0.067	
12.965	-0.364	-0.055	
12.970	0.318	-0.072	
12.975	-0.190	-0.063	
12.980	-0.541	-0.075	
12.985	0.015	-0.125	
12.990	0.096	-0.146	
12.995	-0.517	-0.143	
13.000	-0.211	-0.169	
13.005	0.356	-0.177	
13.010	-0.358	-0.142	
13.015	-0.373	-0.132	
13.020	0.453	-0.133	
13.025	0.024	-0.083	
13.030	-0.275	-0.033	
13.035	0.709	0.006	
13.040	0.822	0.115	
13.045	-0.284	0.243	
13.050	-0.248	0.261	
13.055	-0.110	0.181	
13.060	-0.708	0.054	
13.065	-0.744	-0.123	
13.070	-0.199	-0.298	
13.075	-0.385	-0.400	
13.080	-0.617	-0.449	
13.085	0.029	-0.464	
13.090	0.232	-0.401	
13.095	-0.396	-0.291	
13.100	-0.016	-0.210	
13.105	0.664	-0.121	
13.110	-0.202	-0.003	
13.115	-0.210	0.058	
13.120	0.715	0.081	
13.125	0.171	0.142	
13.130	-0.303	0.180	
13.135	0.489	0.168	
13.140	0.577	0.189	
13.145	-0.251	0.229	
13.150	0.267	0.222	
13.155	1.042	0.239	
13.160	0.096	0.316	
13.165	0.099	0.357	
13.170	1.155	0.378	
13.175	0.609	0.458	
13.180	0.000	0.522	
13.185	1.048	0.534	
13.190	1.175	0.592	
13.195	0.105	0.673	
13.200	0.681	0.684	
13.205	1.256	0.689	
13.210	0.197	0.720	
13.215	0.062	0.682	
13.220	0.962	0.596	
13.225	0.259	0.548	
13.230	-0.287	0.478	
13.235	0.441	0.361	
13.240	0.443	0.285	
13.245	-0.350	0.240	
13.250	-0.045	0.160	
13.255	0.537	0.095	
13.260	-0.303	0.079	
13.265	-0.317	0.039	
13.270	0.479	-0.009	
13.275	-0.071	-0.004	
13.280	-0.454	-0.007	
13.285	0.145	-0.045	
13.290	0.189	-0.055	
13.295	-0.443	-0.045	
13.300	-0.126	-0.071	
13.305	0.472	-0.080	
13.310	-0.313	-0.047	
13.315	-0.317	-0.044	
13.320	0.444	-0.057	
13.325	-0.098	-0.031	
13.330	-0.411	-0.020	
13.335	0.270	-0.041	
13.340	0.296	-0.024	
13.345	-0.408	0.009	
13.350	-0.064	-0.003	
13.355	0.583	-0.006	
13.360	-0.275	0.032	
13.365	-0.312	0.031	
13.370	0.450	0.005	
13.375	-0.113	0.013	
13.380	-0.477	0.003	
13.385	0.136	-0.046	
13.390	0.198	-0.061	
13.395	-0.449	-0.054	
13.400	-0.122	-0.078	
13.405	0.478	-0.086	
13.410	-0.324	-0.050	
13.415	-0.342	-0.047	
13.420	0.470	-0.062	
13.425	0.020	-0.029	
13.430	-0.246	0.005	
13.435	0.814	0.036	
13.440	0.887	0.149	
13.445	-0.228	0.287	
13.450	-0.147	0.314	
13.455	-0.058	0.243	
13.460	-0.721	0.118	
13.465	-0.767	-0.070	
13.470	-0.200	-0.263	
13.475	-0.410	-0.382	
13.480	-0.630	-0.446	
13.485	0.015	-0.472	
13.490	0.206	-0.415	
13.495	-0.413	-0.310	
13.500	0.003	-0.230	
13.505	0.702	-0.134	
13.510	-0.190	-0.006	
13.515	-0.197	0.064	
13.520	0.724	0.093	
13.525	0.136	0.154	
13.530	-0.281	0.188	
13.535	0.570	0.177	
13.540	0.626	0.208	
13.545	-0.199	0.259	
13.550	0.394	0.265	
13.555	1.026	0.294	
13.560	0.012	0.367	
13.565	0.042	0.386	
13.570	1.109	0.379	
13.575	0.557	0.436	
13.580	-0.028	0.485	
13.585	1.026	0.490	
13.590	1.092	0.546	
13.595	0.062	0.624	
13.600	0.695	0.635	
13.605	1.318	0.651	
13.610	0.247	0.704	
13.615	0.215	0.694	
13.620	1.071	0.641	
13.625	0.302	0.620	
13.630	-0.269	0.560	
13.635	0.475	0.438	
13.640	0.389	0.347	
13.645	-0.394	0.277	
13.650	-0.080	0.170	
13.655	0.473	0.082	
13.660	-0.335	0.048	
13.665	-0.350	-0.002	
13.670	0.368	-0.058	
13.675	-0.171	-0.064	
13.680	-0.503	-0.078	
13.685	0.091	-0.120	
13.690	0.107	-0.129	
13.695	-0.492	-0.118	
13.700	-0.124	-0.137	
13.705	0.484	-0.133	
13.710	-0.329	-0.083	
13.715	-0.321	-0.065	
13.720	0.489	-0.067	
13.725	-0.069	-0.029	
13.730	-0.411	-0.007	
13.735	0.292	-0.023	
13.740	0.304	-0.005	
13.745	-0.401	0.028	
13.750	-0.046	0.014	
13.755	0.582	0.009	
13.760	-0.274	0.043	
13.765	-0.283	0.041	
13.770	0.498	0.016	
13.775	-0.121	0.029	
13.780	-0.472	0.019	
13.785	0.146	-0.031	
13.790	0.124	-0.053	
13.795	-0.517	-0.059	
13.800	-0.187	-0.102	
13.805	0.328	-0.130	
13.810	-0.398	-0.117	
13.815	-0.407	-0.129	
13.820	0.256	-0.155	
13.825	-0.214	-0.144	
13.830	-0.457	-0.141	
13.835	0.414	-0.147	
13.840	0.684	-0.074	
13.845	-0.110	0.053	
13.850	0.461	0.148	
13.855	0.718	0.238	
13.860	-0.500	0.303	
13.865	-0.726	0.232	
13.870	-0.352	0.049	
13.875	-0.656	-0.147	
13.880	-0.873	-0.333	
13.885	-0.265	-0.486	
13.890	-0.141	-0.543	
13.895	-0.572	-0.522	
13.900	-0.185	-0.483	
13.905	0.440	-0.398	
13.910	-0.320	-0.266	
13.915	-0.312	-0.175	
13.920	0.498	-0.119	
13.925	-0.068	-0.041	
13.930	-0.381	0.004	
13.935	0.423	0.007	
13.940	0.444	0.049	
13.945	-0.317	0.106	
13.950	0.152	0.113	
13.955	0.825	0.133	
13.960	-0.101	0.197	
13.965	-0.049	0.219	
13.970	1.014	0.226	
13.975	0.435	0.300	
13.980	-0.083	0.364	
13.985	0.968	0.385	
13.990	1.055	0.459	
13.995	0.059	0.555	
14.000	0.748	0.589	
14.005	1.355	0.631	
14.010	0.264	0.707	
14.015	0.235	0.712	
14.020	1.167	0.670	
14.025	0.423	0.664	
14.030	-0.167	0.624	
14.035	0.654	0.523	
14.040	0.496	0.453	
14.045	-0.355	0.394	
14.050	-0.037	0.281	
14.055	0.508	0.177	
14.060	-0.332	0.123	
14.065	-0.347	0.051	
14.070	0.345	-0.025	
14.075	-0.210	-0.052	
14.080	-0.527	-0.083	
14.085	0.046	-0.140	
14.090	0.032	-0.160	
14.095	-0.530	-0.160	
14.100	-0.207	-0.188	
14.105	0.295	-0.196	
14.110	-0.426	-0.167	
14.115	-0.423	-0.166	
14.120	0.230	-0.184	
14.125	-0.249	-0.168	
14.130	-0.552	-0.167	
14.135	0.027	-0.197	
14.140	0.061	-0.196	
14.145	-0.518	-0.176	
14.150	-0.181	-0.187	
14.155	0.343	-0.183	
14.160	-0.382	-0.141	
14.165	-0.352	-0.130	
14.170	0.408	-0.132	
14.175	-0.148	-0.094	
14.180	-0.488	-0.076	
14.185	0.111	-0.099	
14.190	0.020	-0.104	
14.195	-0.561	-0.106	
14.200	-0.237	-0.149	
14.205	0.243	-0.179	
14.210	-0.433	-0.170	
14.215	-0.430	-0.182	
14.220	0.235	-0.203	
14.225	-0.249	-0.186	
14.230	-0.550	-0.181	
14.235	0.096	-0.203	
14.240	0.285	-0.179	
14.245	-0.287	-0.117	
14.250	0.450	-0.058	
14.255	1.210	0.066	
14.260	0.033	0.249	
14.265	-0.266	0.340	
14.270	-0.048	0.296	
14.275	-0.605	0.176	
14.280	-0.983	-0.019	
14.285	-0.498	-0.253	
14.290	-0.413	-0.432	
14.295	-0.781	-0.537	
14.300	-0.370	-0.598	
14.305	0.113	-0.583	
14.310	-0.422	-0.494	
14.315	-0.391	-0.410	
14.320	0.333	-0.334	
14.325	-0.179	-0.231	
14.330	-0.469	-0.160	
14.335	0.211	-0.137	
14.340	0.226	-0.093	
14.345	-0.413	-0.042	
14.350	0.004	-0.037	
14.355	0.661	-0.016	
14.360	-0.225	0.048	
14.365	-0.162	0.073	
14.370	0.813	0.084	
14.375	0.206	0.151	
14.380	-0.226	0.202	
14.385	0.731	0.212	
14.390	0.771	0.271	
14.395	-0.129	0.348	
14.400	0.567	0.372	
14.405	1.226	0.418	
14.410	0.175	0.511	
14.415	0.180	0.543	
14.420	1.165	0.538	
14.425	0.450	0.572	
14.430	-0.145	0.572	
14.435	0.704	0.506	
14.440	0.554	0.464	
14.445	-0.317	0.427	
14.450	0.059	0.329	
14.455	0.571	0.237	
14.460	-0.321	0.189	
14.465	-0.327	0.112	
14.470	0.400	0.027	
14.475	-0.199	-0.007	
14.480	-0.521	-0.047	
14.485	0.064	-0.112	
14.490	0.030	-0.140	
14.495	-0.543	-0.147	
14.500	-0.208	-0.182	
14.505	0.266	-0.197	
14.510	-0.422	-0.173	
14.515	-0.420	-0.175	
14.520	0.220	-0.192	
14.525	-0.263	-0.176	
14.530	-0.555	-0.176	
14.535	-0.002	-0.206	
14.540	-0.035	-0.211	
14.545	-0.561	-0.203	
14.550	-0.213	-0.225	
14.555	0.270	-0.228	
14.560	-0.425	-0.191	
14.565	-0.381	-0.182	
14.570	0.325	-0.184	
14.575	-0.214	-0.148	
14.580	-0.501	-0.131	
14.585	0.116	-0.150	
14.590	0.047	-0.141	
14.595	-0.541	-0.126	
14.600	-0.196	-0.152	
14.605	0.301	-0.166	
14.610	-0.426	-0.143	
14.615	-0.454	-0.152	
14.620	0.162	-0.182	
14.625	-0.292	-0.183	
14.630	-0.576	-0.196	
14.635	-0.006	-0.233	
14.640	-0.023	-0.236	
14.645	-0.523	-0.221	
14.650	-0.037	-0.224	
14.655	0.753	-0.177	
14.660	-0.077	-0.057	
14.665	0.072	0.044	
14.670	0.948	0.132	
14.675	-0.124	0.236	
14.680	-0.692	0.244	
14.685	-0.346	0.117	
14.690	-0.439	-0.051	
14.695	-0.896	-0.222	
14.700	-0.460	-0.389	
14.705	0.009	-0.483	
14.710	-0.482	-0.483	
14.715	-0.391	-0.455	
14.720	0.409	-0.397	
14.725	-0.136	-0.282	
14.730	-0.414	-0.186	
14.735	0.385	-0.131	
14.740	0.437	-0.044	
14.745	-0.336	0.050	
14.750	0.157	0.083	
14.755	0.765	0.118	
14.760	-0.167	0.184	
14.765	-0.090	0.198	
14.770	0.906	0.194	
14.775	0.223	0.246	
14.780	-0.207	0.279	
14.785	0.814	0.273	
14.790	0.813	0.322	
14.795	-0.112	0.394	
14.800	0.621	0.413	
14.805	1.278	0.457	
14.810	0.255	0.553	
14.815	0.402	0.599	
14.820	1.381	0.624	
14.825	0.658	0.697	
14.830	0.038	0.731	
14.835	1.029	0.694	
14.840	0.906	0.686	
14.845	-0.150	0.680	
14.850	0.343	0.595	
14.855	0.813	0.506	
14.860	-0.196	0.450	
14.865	-0.173	0.351	
14.870	0.644	0.243	
14.875	-0.109	0.191	
14.880	-0.426	0.130	
14.885	0.269	0.044	
14.890	0.169	0.007	
14.895	-0.477	-0.007	
14.900	-0.116	-0.054	
14.905	0.429	-0.080	
14.910	-0.356	-0.060	
14.915	-0.312	-0.067	
14.920	0.400	-0.085	
14.925	-0.200	-0.064	
14.930	-0.483	-0.065	
14.935	0.162	-0.100	
14.940	0.119	-0.100	
14.945	-0.485	-0.086	
14.950	-0.112	-0.107	
14.955	0.405	-0.112	
14.960	-0.371	-0.079	
14.965	-0.321	-0.078	
14.970	0.447	-0.090	
14.975	-0.148	-0.059	
14.980	-0.419	-0.046	
14.985	0.388	-0.058	
14.990	0.241	-0.026	
14.995	-0.446	0.014	
15.000	-0.083	-0.003	
15.005	0.409	-0.020	
15.010	-0.370	-0.008	
15.015	-0.329	-0.031	
15.020	0.418	-0.064	
15.025	-0.202	-0.055	
15.030	-0.489	-0.062	
15.035	0.159	-0.101	
15.040	0.096	-0.105	
15.045	-0.497	-0.095	
15.050	-0.118	-0.119	
15.055	0.466	-0.121	
15.060	-0.258	-0.074	
15.065	-0.071	-0.043	
15.070	1.075	0.011	
15.075	0.414	0.151	
15.080	-0.211	0.270	
15.085	0.279	0.291	
15.090	-0.185	0.255	
15.095	-0.805	0.149	
15.100	-0.503	-0.037	
15.105	-0.184	-0.213	
15.110	-0.610	-0.329	
15.115	-0.462	-0.411	
15.120	0.293	-0.433	
15.125	-0.197	-0.367	
15.130	-0.423	-0.291	
15.135	0.389	-0.230	
15.140	0.337	-0.126	
15.145	-0.370	-0.019	
15.150	0.097	0.023	
15.155	0.722	0.064	
15.160	-0.177	0.136	
15.165	-0.119	0.157	
15.170	0.799	0.157	
15.175	0.085	0.199	
15.180	-0.262	0.216	
15.185	0.690	0.196	
15.190	0.647	0.232	
15.195	-0.181	0.290	
15.200	0.539	0.303	
15.205	1.139	0.347	
15.210	0.133	0.441	
15.215	0.304	0.485	
15.220	1.304	0.511	
15.225	0.623	0.593	
15.230	0.108	0.646	
15.235	1.144	0.645	
15.240	1.003	0.682	
15.245	-0.055	0.717	
15.250	0.570	0.670	
15.255	1.013	0.619	
15.260	-0.081	0.596	
15.265	-0.069	0.511	
15.270	0.791	0.401	
15.275	0.009	0.343	
15.280	-0.335	0.273	
15.285	0.446	0.179	
15.290	0.324	0.140	
15.295	-0.407	0.126	
15.300	-0.020	0.073	
15.305	0.481	0.035	
15.310	-0.338	0.038	
15.315	-0.262	0.011	
15.320	0.541	-0.019	
15.325	-0.155	0.000	
15.330	-0.445	0.000	
15.335	0.220	-0.038	
15.340	0.143	-0.044	
15.345	-0.456	-0.036	
15.350	-0.064	-0.064	
15.355	0.431	-0.073	
15.360	-0.355	-0.044	
15.365	-0.265	-0.046	
15.370	0.563	-0.054	
15.375	-0.116	-0.013	
15.380	-0.394	0.006	
15.385	0.351	-0.011	
15.390	0.249	0.008	
15.395	-0.404	0.037	
15.400	0.053	0.021	
15.405	0.582	0.022	
15.410	-0.284	0.062	
15.415	-0.245	0.059	
15.420	0.486	0.034	
15.425	-0.182	0.040	
15.430	-0.451	0.021	
15.435	0.195	-0.034	
15.440	0.064	-0.054	
15.445	-0.497	-0.062	
15.450	-0.103	-0.102	
15.455	0.383	-0.118	
15.460	-0.362	-0.090	
15.465	-0.243	-0.086	
15.470	0.617	-0.080	
15.475	0.004	-0.016	
15.480	-0.208	0.038	
15.485	0.910	0.080	
15.490	0.829	0.199	
15.495	-0.239	0.328	
15.500	-0.103	0.343	
15.505	-0.078	0.262	
15.510	-0.729	0.129	
15.515	-0.677	-0.063	
15.520	-0.139	-0.248	
15.525	-0.396	-0.355	
15.530	-0.532	-0.410	
15.535	0.255	-0.417	
15.540	0.243	-0.333	
15.545	-0.378	-0.214	
15.550	0.143	-0.133	
15.555	0.698	-0.040	
15.560	-0.205	0.074	
15.565	-0.109	0.125	
15.570	0.825	0.145	
15.575	0.114	0.205	
15.580	-0.213	0.235	
15.585	0.768	0.228	
15.590	0.638	0.273	
15.595	-0.196	0.330	
15.600	0.498	0.331	
15.605	1.083	0.358	
15.610	0.075	0.431	
15.615	0.284	0.458	
15.620	1.312	0.476	
15.625	0.621	0.560	
15.630	0.148	0.623	
15.635	1.249	0.639	
15.640	1.138	0.703	
15.645	0.206	0.777	
15.650	0.939	0.785	
15.655	1.364	0.803	
15.660	0.201	0.842	
15.665	0.258	0.800	
15.670	1.130	0.716	
15.675	0.302	0.673	
15.680	-0.177	0.600	
15.685	0.661	0.481	
15.690	0.427	0.406	
15.695	-0.347	0.349	
15.700	0.110	0.249	
15.705	0.550	0.173	
15.710	-0.321	0.145	
15.715	-0.257	0.088	
15.720	0.499	0.029	
15.725	-0.199	0.019	
15.730	-0.446	-0.005	
15.735	0.212	-0.057	
15.740	0.030	-0.071	
15.745	-0.498	-0.076	
15.750	-0.097	-0.113	
15.755	0.333	-0.127	
15.760	-0.402	-0.103	
15.765	-0.320	-0.108	
15.770	0.397	-0.121	
15.775	-0.214	-0.093	
15.780	-0.453	-0.084	
15.785	0.243	-0.105	
15.790	0.114	-0.089	
15.795	-0.440	-0.063	
15.800	0.001	-0.074	
15.805	0.490	-0.064	
15.810	-0.329	-0.016	
15.815	-0.237	-0.009	
15.820	0.562	-0.015	
15.825	-0.135	0.020	
15.830	-0.391	0.029	
15.835	0.360	0.002	
15.840	0.111	0.009	
15.845	-0.500	0.014	
15.850	-0.126	-0.032	
15.855	0.272	-0.071	
15.860	-0.431	-0.078	
15.865	-0.326	-0.109	
15.870	0.357	-0.138	
15.875	-0.237	-0.119	
15.880	-0.469	-0.115	
15.885	0.212	-0.137	
15.890	0.139	-0.117	
15.895	-0.335	-0.079	
15.900	0.489	-0.048	
15.905	1.194	0.061	
15.910	0.157	0.244	
15.915	0.044	0.360	
15.920	0.365	0.379	
15.925	-0.504	0.331	
15.930	-0.857	0.177	
15.935	-0.396	-0.052	
15.940	-0.423	-0.251	
15.945	-0.767	-0.395	
15.950	-0.292	-0.497	
15.955	0.163	-0.510	
15.960	-0.431	-0.441	
15.965	-0.304	-0.372	
15.970	0.460	-0.296	
15.975	-0.187	-0.184	
15.980	-0.402	-0.110	
15.985	0.415	-0.080	
15.990	0.224	-0.020	
15.995	-0.393	0.035	
16.000	0.156	0.037	
16.005	0.660	0.057	
16.010	-0.234	0.114	
16.015	-0.103	0.125	
16.020	0.857	0.127	
16.025	0.110	0.184	
16.030	-0.211	0.217	
16.035	0.762	0.215	
16.040	0.657	0.265	
16.045	-0.130	0.330	
16.050	0.719	0.353	
16.055	1.231	0.416	
16.060	0.117	0.523	
16.065	0.290	0.560	
16.070	1.187	0.561	
16.075	0.366	0.598	
16.080	-0.092	0.591	
16.085	0.855	0.526	
16.090	0.556	0.497	
16.095	-0.313	0.467	
16.100	0.116	0.369	
16.105	0.478	0.270	
16.110	-0.371	0.204	
16.115	-0.317	0.107	
16.120	0.310	0.008	
16.125	-0.321	-0.043	
16.130	-0.570	-0.102	
16.135	-0.034	-0.181	
16.140	-0.174	-0.224	
16.145	-0.637	-0.251	
16.150	-0.258	-0.297	
16.155	0.006	-0.317	
16.160	-0.578	-0.307	
16.165	-0.456	-0.319	
16.170	0.120	-0.330	
16.175	-0.401	-0.302	
16.180	-0.610	-0.293	
16.185	-0.066	-0.312	
16.190	-0.177	-0.306	
16.195	-0.634	-0.295	
16.200	-0.232	-0.313	
16.205	0.097	-0.310	
16.210	-0.514	-0.277	
16.215	-0.382	-0.270	
16.220	0.235	-0.265	
16.225	-0.329	-0.225	
16.230	-0.529	-0.207	
16.235	0.140	-0.218	
16.240	0.017	-0.194	
16.245	-0.527	-0.162	
16.250	-0.152	-0.172	
16.255	0.162	-0.176	
16.260	-0.514	-0.161	
16.265	-0.422	-0.183	
16.270	0.143	-0.217	
16.275	-0.378	-0.217	
16.280	-0.584	-0.232	
16.285	-0.011	-0.268	
16.290	-0.152	-0.272	
16.295	-0.624	-0.266	
16.300	-0.222	-0.290	
16.305	0.107	-0.292	
16.310	-0.497	-0.262	
16.315	-0.321	-0.255	
16.320	0.571	-0.231	
16.325	0.068	-0.135	
16.330	-0.092	-0.035	
16.335	0.970	0.060	
16.340	0.414	0.200	
16.345	-0.599	0.288	
16.350	-0.463	0.220	
16.355	-0.413	0.056	
16.360	-0.957	-0.138	
16.365	-0.810	-0.353	
16.370	-0.262	-0.524	
16.375	-0.544	-0.598	
16.380	-0.665	-0.617	
16.385	-0.045	-0.601	
16.390	-0.121	-0.523	
16.395	-0.527	-0.425	
16.400	-0.086	-0.357	
16.405	0.350	-0.274	
16.410	-0.411	-0.173	
16.415	-0.272	-0.126	
16.420	0.541	-0.099	
16.425	-0.129	-0.036	
16.430	-0.352	-0.001	
16.435	0.460	-0.001	
16.440	0.273	0.038	
16.445	-0.342	0.081	
16.450	0.284	0.081	
16.455	0.788	0.113	
16.460	-0.159	0.186	
16.465	0.079	0.213	
16.470	1.069	0.236	
16.475	0.305	0.321	
16.480	-0.060	0.378	
16.485	1.014	0.391	
16.490	0.767	0.452	
16.495	-0.127	0.510	
16.500	0.626	0.497	
16.505	0.968	0.496	
16.510	-0.147	0.515	
16.515	-0.063	0.457	
16.520	0.731	0.366	
16.525	-0.129	0.312	
16.530	-0.388	0.232	
16.535	0.261	0.120	
16.540	-0.064	0.046	
16.545	-0.569	-0.019	
16.550	-0.141	-0.109	
16.555	0.149	-0.166	
16.560	-0.523	-0.180	
16.565	-0.407	-0.214	
16.570	0.157	-0.245	
16.575	-0.393	-0.238	
16.580	-0.601	-0.247	
16.585	-0.016	-0.280	
16.590	-0.173	-0.282	
16.595	-0.619	-0.276	
16.600	-0.208	-0.297	
16.605	0.042	-0.298	
16.610	-0.552	-0.275	
16.615	-0.410	-0.281	
16.620	0.211	-0.285	
16.625	-0.365	-0.251	
16.630	-0.570	-0.238	
16.635	0.046	-0.255	
16.640	-0.130	-0.245	
16.645	-0.573	-0.231	
16.650	-0.127	-0.246	
16.655	0.253	-0.235	
16.660	-0.449	-0.189	
16.665	-0.284	-0.174	
16.670	0.455	-0.161	
16.675	-0.260	-0.108	
16.680	-0.463	-0.086	
16.685	0.249	-0.103	
16.690	-0.032	-0.092	
16.695	-0.533	-0.086	
16.700	-0.110	-0.123	
16.705	0.247	-0.142	
16.710	-0.463	-0.128	
16.715	-0.339	-0.145	
16.720	0.342	-0.164	
16.725	-0.278	-0.139	
16.730	-0.475	-0.134	
16.735	0.186	-0.154	
16.740	-0.035	-0.142	
16.745	-0.460	-0.126	
16.750	0.275	-0.126	
16.755	0.933	-0.056	
16.760	-0.023	0.087	
16.765	0.169	0.190	
16.770	0.672	0.251	
16.775	-0.387	0.286	
16.780	-0.738	0.212	
16.785	-0.295	0.037	
16.790	-0.428	-0.137	
16.795	-0.789	-0.287	
16.800	-0.254	-0.412	
16.805	0.131	-0.451	
16.810	-0.482	-0.409	
16.815	-0.283	-0.364	
16.820	0.527	-0.299	
16.825	-0.164	-0.184	
16.830	-0.341	-0.100	
16.835	0.574	-0.053	
16.840	0.348	0.034	
16.845	-0.327	0.113	
16.850	0.319	0.132	
16.855	0.731	0.165	
16.860	-0.211	0.223	
16.865	-0.022	0.224	
16.870	0.861	0.211	
16.875	0.003	0.244	
16.880	-0.222	0.245	
16.885	0.794	0.217	
16.890	0.617	0.254	
16.895	-0.156	0.312	
16.900	0.678	0.328	
16.905	1.087	0.381	
16.910	0.036	0.470	
16.915	0.411	0.500	
16.920	1.291	0.521	
16.925	0.369	0.590	
16.930	-0.032	0.608	
16.935	0.997	0.564	
16.940	0.635	0.559	
16.945	-0.226	0.547	
16.950	0.405	0.467	
16.955	0.667	0.400	
16.960	-0.297	0.359	
16.965	-0.155	0.269	
16.970	0.620	0.176	
16.975	-0.181	0.139	
16.980	-0.405	0.089	
16.985	0.345	0.018	
16.990	0.044	-0.005	
16.995	-0.500	-0.019	
17.000	-0.019	-0.067	
17.005	0.339	-0.087	
17.010	-0.405	-0.070	
17.015	-0.258	-0.082	
17.020	0.457	-0.094	
17.025	-0.239	-0.064	
17.030	-0.407	-0.057	
17.035	0.395	-0.073	
17.040	0.116	-0.045	
17.045	-0.426	-0.013	
17.050	0.157	-0.022	
17.055	0.562	-0.002	
17.060	-0.294	0.054	
17.065	-0.107	0.066	
17.070	0.742	0.070	
17.075	-0.068	0.120	
17.080	-0.262	0.138	
17.085	0.709	0.127	
17.090	0.423	0.171	
17.095	-0.275	0.220	
17.100	0.463	0.219	
17.105	0.776	0.244	
17.110	-0.229	0.293	
17.115	-0.037	0.277	
17.120	0.786	0.240	
17.125	-0.081	0.244	
17.130	-0.291	0.217	
17.135	0.545	0.158	
17.140	0.220	0.147	
17.145	-0.379	0.142	
17.150	0.235	0.100	
17.155	0.583	0.091	
17.160	-0.312	0.121	
17.165	-0.130	0.105	
17.170	0.701	0.084	
17.175	-0.035	0.115	
17.180	-0.116	0.133	
17.185	1.159	0.158	
17.190	0.997	0.289	
17.195	0.039	0.447	
17.200	0.550	0.518	
17.205	0.290	0.523	
17.210	-0.643	0.451	
17.215	-0.564	0.261	
17.220	-0.112	0.032	
17.225	-0.469	-0.144	
17.230	-0.517	-0.277	
17.235	0.321	-0.345	
17.240	0.137	-0.303	
17.245	-0.356	-0.216	
17.250	0.366	-0.142	
17.255	0.767	-0.027	
17.260	-0.181	0.114	
17.265	0.130	0.187	
17.270	1.022	0.239	
17.275	0.142	0.327	
17.280	-0.106	0.366	
17.285	0.948	0.358	
17.290	0.638	0.400	
17.295	-0.139	0.443	
17.300	0.748	0.434	
17.305	1.161	0.465	
17.310	0.143	0.543	
17.315	0.550	0.573	
17.320	1.465	0.607	
17.325	0.625	0.701	
17.330	0.336	0.759	
17.335	1.462	0.774	
17.340	1.188	0.844	
17.345	0.350	0.916	
17.350	1.257	0.927	
17.355	1.560	0.966	
17.360	0.397	1.027	
17.365	0.699	1.008	
17.370	1.465	0.963	
17.375	0.443	0.951	
17.380	0.029	0.880	
17.385	0.976	0.750	
17.390	0.533	0.664	
17.395	-0.248	0.582	
17.400	0.435	0.456	
17.405	0.680	0.370	
17.410	-0.283	0.329	
17.415	-0.112	0.248	
17.420	0.647	0.169	
17.425	-0.174	0.146	
17.430	-0.352	0.105	
17.435	0.426	0.045	
17.440	0.049	0.032	
17.445	-0.453	0.023	
17.450	0.081	-0.021	
17.455	0.402	-0.034	
17.460	-0.378	-0.011	
17.465	-0.181	-0.022	
17.470	0.542	-0.032	
17.475	-0.242	-0.001	
17.480	-0.401	-0.001	
17.485	0.386	-0.031	
17.490	0.079	-0.020	
17.495	-0.376	-0.002	
17.500	0.201	-0.015	
17.505	0.479	0.005	
17.510	-0.335	0.052	
17.515	-0.129	0.050	
17.520	0.663	0.044	
17.525	-0.142	0.081	
17.530	-0.294	0.088	
17.535	0.562	0.068	
17.540	0.183	0.092	
17.545	-0.384	0.112	
17.550	0.227	0.085	
17.555	0.475	0.081	
17.560	-0.379	0.101	
17.565	-0.211	0.069	
17.570	0.486	0.026	
17.575	-0.254	0.024	
17.580	-0.411	-0.002	
17.585	0.307	-0.050	
17.590	-0.042	-0.057	
17.595	-0.480	-0.061	
17.600	0.087	-0.095	
17.605	0.467	-0.086	
17.610	-0.262	-0.031	
17.615	0.246	0.011	
17.620	1.414	0.105	
17.625	0.719	0.307	
17.630	0.354	0.498	
17.635	0.918	0.608	
17.640	-0.069	0.648	
17.645	-0.735	0.550	
17.650	-0.404	0.311	
17.655	-0.246	0.053	
17.660	-0.711	-0.157	
17.665	-0.416	-0.328	
17.670	0.302	-0.409	
17.675	-0.284	-0.377	
17.680	-0.371	-0.322	
17.685	0.502	-0.259	
17.690	0.194	-0.142	
17.695	-0.317	-0.032	
17.700	0.397	0.026	
17.705	0.721	0.105	
17.710	-0.190	0.201	
17.715	0.165	0.234	
17.720	1.058	0.262	
17.725	0.229	0.344	
17.730	0.042	0.392	
17.735	1.171	0.412	
17.740	0.852	0.495	
17.745	0.094	0.582	
17.750	1.106	0.616	
17.755	1.453	0.693	
17.760	0.463	0.809	
17.765	0.974	0.871	
17.770	1.850	0.938	
17.775	0.979	1.058	
17.780	0.721	1.131	
17.785	1.766	1.151	
17.790	1.369	1.208	
17.795	0.449	1.242	
17.800	1.291	1.193	
17.805	1.492	1.158	
17.810	0.311	1.138	
17.815	0.608	1.044	
17.820	1.298	0.936	
17.825	0.267	0.870	
17.830	-0.048	0.759	
17.835	0.889	0.614	
17.840	0.424	0.528	
17.845	-0.263	0.457	
17.850	0.405	0.351	
17.855	0.600	0.287	
17.860	-0.280	0.264	
17.865	-0.045	0.204	
17.870	0.707	0.152	
17.875	-0.164	0.154	
17.880	-0.300	0.130	
17.885	0.507	0.083	
17.890	0.067	0.080	
17.895	-0.408	0.075	
17.900	0.154	0.031	
17.905	0.398	0.017	
17.910	-0.367	0.034	
17.915	-0.159	0.014	
17.920	0.512	-0.007	
17.925	-0.232	0.013	
17.930	-0.350	0.007	
17.935	0.403	-0.022	
17.940	-0.005	-0.011	
17.945	-0.426	-0.006	
17.950	0.160	-0.034	
17.955	0.394	-0.028	
17.960	-0.370	0.006	
17.965	-0.161	-0.001	
17.970	0.486	-0.014	
17.975	-0.254	0.008	
17.980	-0.371	-0.001	
17.985	0.365	-0.034	
17.990	-0.084	-0.032	
17.995	-0.523	-0.040	
18.000	-0.060	-0.091	
18.005	0.090	-0.125	
18.010	-0.527	-0.138	
18.015	-0.295	-0.176	
18.020	0.243	-0.203	
18.025	-0.388	-0.188	
18.030	-0.508	-0.194	
18.035	0.113	-0.221	
18.040	-0.155	-0.213	
18.045	-0.511	-0.203	
18.050	0.145	-0.208	
18.055	0.573	-0.156	
18.060	-0.196	-0.051	
18.065	0.120	0.024	
18.070	0.606	0.086	
18.075	-0.475	0.141	
18.080	-0.819	0.088	
18.085	-0.463	-0.073	
18.090	-0.697	-0.252	
18.095	-0.995	-0.425	
18.100	-0.517	-0.579	
18.105	-0.317	-0.656	
18.110	-0.746	-0.661	
18.115	-0.472	-0.646	
18.120	0.024	-0.597	
18.125	-0.469	-0.503	
18.130	-0.559	-0.433	
18.135	0.035	-0.390	
18.140	-0.216	-0.329	
18.145	-0.579	-0.284	
18.150	-0.077	-0.276	
18.155	0.075	-0.252	
18.160	-0.547	-0.215	
18.165	-0.312	-0.219	
18.170	0.292	-0.221	
18.175	-0.346	-0.185	
18.180	-0.428	-0.171	
18.185	0.316	-0.173	
18.190	-0.048	-0.135	
18.195	-0.446	-0.102	
18.200	0.214	-0.101	
18.205	0.515	-0.058	
18.210	-0.295	0.017	
18.215	0.009	0.048	
18.220	0.806	0.078	
18.225	-0.106	0.149	
18.230	-0.231	0.173	
18.235	0.632	0.156	
18.240	0.090	0.171	
18.245	-0.442	0.163	
18.250	0.053	0.095	
18.255	0.197	0.038	
18.260	-0.520	-0.001	
18.265	-0.336	-0.074	
18.270	0.130	-0.145	
18.275	-0.472	-0.179	
18.280	-0.588	-0.227	
18.285	-0.052	-0.288	
18.290	-0.301	-0.310	
18.295	-0.709	-0.327	
18.300	-0.265	-0.366	
18.305	-0.158	-0.382	
18.310	-0.703	-0.379	
18.315	-0.480	-0.402	
18.320	-0.071	-0.419	
18.325	-0.573	-0.405	
18.330	-0.674	-0.411	
18.335	-0.150	-0.433	
18.340	-0.398	-0.428	
18.345	-0.786	-0.426	
18.350	-0.318	-0.452	
18.355	-0.200	-0.456	
18.360	-0.723	-0.441	
18.365	-0.482	-0.450	
18.370	-0.061	-0.452	
18.375	-0.569	-0.424	
18.380	-0.654	-0.417	
18.385	-0.116	-0.429	
18.390	-0.365	-0.413	
18.395	-0.737	-0.402	
18.400	-0.251	-0.419	
18.405	-0.138	-0.414	
18.410	-0.671	-0.390	
18.415	-0.434	-0.394	
18.420	-0.020	-0.396	
18.425	-0.561	-0.371	
18.430	-0.671	-0.374	
18.435	-0.138	-0.401	
18.440	-0.390	-0.402	
18.445	-0.747	-0.405	
18.450	-0.260	-0.430	
18.455	-0.155	-0.429	
18.460	-0.688	-0.407	
18.465	-0.437	-0.412	
18.470	0.032	-0.409	
18.475	-0.508	-0.373	
18.480	-0.530	-0.356	
18.485	0.307	-0.340	
18.490	0.030	-0.264	
18.495	-0.347	-0.177	
18.500	0.435	-0.112	
18.505	0.376	-0.018	
18.510	-0.648	0.056	
18.515	-0.628	0.011	
18.520	-0.371	-0.118	
18.525	-0.854	-0.263	
18.530	-0.868	-0.421	
18.535	-0.263	-0.553	
18.540	-0.413	-0.599	
18.545	-0.705	-0.594	
18.550	-0.142	-0.573	
18.555	0.072	-0.499	
18.560	-0.527	-0.395	
18.565	-0.228	-0.326	
18.570	0.501	-0.255	
18.575	-0.297	-0.151	
18.580	-0.367	-0.093	
18.585	0.487	-0.072	
18.590	0.009	-0.020	
18.595	-0.423	0.013	
18.600	0.310	0.002	
18.605	0.524	0.030	
18.610	-0.321	0.086	
18.615	0.047	0.094	
18.620	0.880	0.111	
18.625	-0.052	0.180	
18.630	-0.104	0.211	
18.635	1.022	0.223	
18.640	0.545	0.302	
18.645	-0.130	0.377	
18.650	0.860	0.397	
18.655	1.023	0.454	
18.660	-0.071	0.529	
18.665	0.423	0.529	
18.670	1.129	0.519	
18.675	0.018	0.543	
18.680	-0.161	0.501	
18.685	0.770	0.409	
18.690	0.160	0.360	
18.695	-0.401	0.301	
18.700	0.189	0.195	
18.705	0.282	0.120	
18.710	-0.483	0.073	
18.715	-0.232	-0.006	
18.720	0.330	-0.072	
18.725	-0.408	-0.090	
18.730	-0.503	-0.128	
18.735	0.130	-0.183	
18.740	-0.257	-0.199	
18.745	-0.640	-0.217	
18.750	-0.138	-0.264	
18.755	-0.046	-0.282	
18.760	-0.607	-0.278	
18.765	-0.333	-0.298	
18.770	0.212	-0.302	
18.775	-0.456	-0.265	
18.780	-0.518	-0.254	
18.785	0.145	-0.264	
18.790	-0.248	-0.242	
18.795	-0.607	-0.231	
18.800	-0.043	-0.252	
18.805	0.130	-0.242	
18.810	-0.503	-0.206	
18.815	-0.213	-0.200	
18.820	0.444	-0.183	
18.825	-0.312	-0.124	
18.830	-0.352	-0.096	
18.835	0.489	-0.089	
18.840	-0.013	-0.041	
18.845	-0.417	-0.008	
18.850	0.325	-0.014	
18.855	0.440	0.017	
18.860	-0.371	0.067	
18.865	-0.089	0.061	
18.870	0.585	0.049	
18.875	-0.281	0.071	
18.880	-0.333	0.054	
18.885	0.544	0.017	
18.890	-0.008	0.030	
18.895	-0.434	0.035	
18.900	0.264	0.003	
18.905	0.417	0.010	
18.910	-0.355	0.046	
18.915	0.053	0.044	
18.920	0.959	0.068	
18.925	0.223	0.168	
18.930	0.409	0.270	
18.935	1.677	0.396	
18.940	1.107	0.609	
18.945	-0.080	0.778	
18.950	0.263	0.773	
18.955	-0.060	0.646	
18.960	-0.732	0.437	
18.965	-0.491	0.160	
18.970	-0.025	-0.085	
18.975	-0.460	-0.236	
18.980	-0.404	-0.329	
18.985	0.487	-0.350	
18.990	0.023	-0.269	
18.995	-0.370	-0.171	
19.000	0.452	-0.104	
19.005	0.603	0.001	
19.010	-0.265	0.116	
19.015	0.203	0.164	
19.020	0.919	0.207	
19.025	-0.061	0.281	
19.030	-0.103	0.297	
19.035	0.930	0.281	
19.040	0.423	0.322	
19.045	-0.165	0.357	
19.050	0.805	0.350	
19.055	0.941	0.392	
19.060	-0.068	0.461	
19.065	0.557	0.473	
19.070	1.356	0.502	
19.075	0.403	0.593	
19.080	0.376	0.646	
19.085	1.454	0.673	
19.090	0.906	0.755	
19.095	0.194	0.816	
19.100	1.164	0.809	
19.105	1.214	0.828	
19.110	0.065	0.854	
19.115	0.548	0.796	
19.120	1.141	0.727	
19.125	0.024	0.691	
19.130	-0.122	0.594	
19.135	0.759	0.462	
19.140	0.091	0.381	
19.145	-0.390	0.296	
19.150	0.287	0.181	
19.155	0.293	0.113	
19.160	-0.448	0.078	
19.165	-0.159	0.012	
19.170	0.452	-0.038	
19.175	-0.344	-0.037	
19.180	-0.394	-0.058	
19.185	0.314	-0.096	
19.190	-0.194	-0.095	
19.195	-0.546	-0.106	
19.200	0.020	-0.150	
19.205	0.119	-0.162	
19.210	-0.480	-0.148	
19.215	-0.181	-0.161	
19.220	0.359	-0.160	
19.225	-0.398	-0.124	
19.230	-0.420	-0.122	
19.235	0.321	-0.142	
19.240	-0.167	-0.122	
19.245	-0.514	-0.115	
19.250	0.120	-0.139	
19.255	0.223	-0.128	
19.260	-0.449	-0.093	
19.265	-0.116	-0.096	
19.270	0.541	-0.086	
19.275	-0.277	-0.033	
19.280	-0.286	-0.015	
19.285	0.580	-0.016	
19.290	-0.006	0.027	
19.295	-0.398	0.051	
19.300	0.351	0.032	
19.305	0.351	0.048	
19.310	-0.446	0.074	
19.315	-0.162	0.041	
19.320	0.405	0.000	
19.325	-0.356	-0.006	
19.330	-0.367	-0.040	
19.335	0.421	-0.079	
19.340	-0.116	-0.068	
19.345	-0.471	-0.063	
19.350	0.192	-0.088	
19.355	0.258	-0.077	
19.360	-0.393	-0.043	
19.365	0.152	-0.035	
19.370	1.110	0.022	
19.375	0.322	0.171	
19.380	0.353	0.309	
19.385	1.123	0.420	
19.390	-0.048	0.514	
19.395	-0.689	0.481	
19.400	-0.371	0.293	
19.405	-0.413	0.062	
19.410	-0.874	-0.159	
19.415	-0.491	-0.361	
19.420	0.027	-0.478	
19.425	-0.442	-0.488	
19.430	-0.378	-0.459	
19.435	0.510	-0.392	
19.440	-0.008	-0.258	
19.445	-0.373	-0.138	
19.450	0.421	-0.070	
19.455	0.487	0.021	
19.460	-0.320	0.112	
19.465	0.136	0.135	
19.470	0.835	0.158	
19.475	-0.135	0.217	
19.480	-0.130	0.226	
19.485	0.870	0.211	
19.490	0.311	0.253	
19.495	-0.174	0.288	
19.500	0.814	0.288	
19.505	0.892	0.343	
19.510	-0.063	0.424	
19.515	0.625	0.449	
19.520	1.349	0.496	
19.525	0.429	0.600	
19.530	0.536	0.668	
19.535	1.592	0.720	
19.540	0.993	0.830	
19.545	0.334	0.912	
19.550	1.314	0.921	
19.555	1.272	0.951	
19.560	0.151	0.975	
19.565	0.692	0.911	
19.570	1.243	0.840	
19.575	0.120	0.802	
19.580	0.036	0.706	
19.585	0.956	0.581	
19.590	0.250	0.514	
19.595	-0.263	0.441	
19.600	0.522	0.335	
19.605	0.504	0.281	
19.610	-0.321	0.258	
19.615	0.068	0.196	
19.620	0.651	0.151	
19.625	-0.249	0.152	
19.630	-0.240	0.121	
19.635	0.585	0.077	
19.640	-0.054	0.081	
19.645	-0.390	0.072	
19.650	0.347	0.032	
19.655	0.330	0.036	
19.660	-0.407	0.059	
19.665	-0.084	0.033	
19.670	0.478	0.010	
19.675	-0.327	0.021	
19.680	-0.310	0.001	
19.685	0.472	-0.031	
19.690	-0.110	-0.017	
19.695	-0.448	-0.016	
19.700	0.203	-0.050	
19.705	0.183	-0.051	
19.710	-0.456	-0.036	
19.715	-0.110	-0.061	
19.720	0.421	-0.074	
19.725	-0.346	-0.049	
19.730	-0.321	-0.055	
19.735	0.435	-0.073	
19.740	-0.156	-0.050	
19.745	-0.492	-0.047	
19.750	0.067	-0.086	
19.755	-0.009	-0.107	
19.760	-0.556	-0.120	
19.765	-0.245	-0.168	
19.770	0.143	-0.202	
19.775	-0.495	-0.202	
19.780	-0.460	-0.226	
19.785	0.149	-0.254	
19.790	-0.297	-0.242	
19.795	-0.584	-0.239	
19.800	0.015	-0.260	
19.805	0.120	-0.243	
19.810	-0.384	-0.195	
19.815	0.157	-0.158	
19.820	0.866	-0.074	
19.825	-0.122	0.062	
19.830	-0.242	0.135	
19.835	0.093	0.123	
19.840	-0.558	0.066	
19.845	-0.943	-0.065	
19.850	-0.471	-0.252	
19.855	-0.426	-0.404	
19.860	-0.784	-0.501	
19.865	-0.355	-0.565	
19.870	0.133	-0.555	
19.875	-0.448	-0.472	
19.880	-0.379	-0.397	
19.885	0.403	-0.324	
19.890	-0.168	-0.216	
19.895	-0.456	-0.141	
19.900	0.266	-0.116	
19.905	0.267	-0.066	
19.910	-0.391	-0.011	
19.915	0.073	-0.002	
19.920	0.670	0.022	
19.925	-0.232	0.085	
19.930	-0.182	0.101	
19.935	0.751	0.097	
19.940	0.116	0.144	
19.945	-0.249	0.174	
19.950	0.722	0.172	
19.955	0.753	0.230	
19.960	-0.133	0.312	
19.965	0.603	0.345	
19.970	1.225	0.404	
19.975	0.191	0.508	
19.980	0.275	0.552	
19.985	1.231	0.563	
19.990	0.493	0.613	
19.995	-0.090	0.623	
20.000	0.897	0.569	
20.005	0.727	0.549	
20.010	-0.240	0.535	
20.015	0.208	0.451	
20.020	0.689	0.366	
20.025	-0.258	0.318	
20.030	-0.257	0.232	
20.035	0.486	0.133	
20.040	-0.164	0.086	
20.045	-0.469	0.032	
20.050	0.178	-0.043	
20.055	0.076	-0.073	
20.060	-0.511	-0.083	
20.065	-0.145	-0.123	
20.070	0.353	-0.141	
20.075	-0.420	-0.117	
20.080	-0.379	-0.124	
20.085	0.314	-0.144	
20.090	-0.229	-0.127	
20.095	-0.504	-0.125	
20.100	0.139	-0.151	
20.105	0.058	-0.144	
20.110	-0.501	-0.126	
20.115	-0.116	-0.142	
20.120	0.412	-0.139	
20.125	-0.358	-0.096	
20.130	-0.300	-0.084	
20.135	0.492	-0.085	
20.140	-0.142	-0.044	
20.145	-0.413	-0.026	
20.150	0.357	-0.040	
20.155	0.278	-0.013	
20.160	-0.393	0.027	
20.165	0.056	0.020	
20.170	0.635	0.030	
20.175	-0.229	0.080	
20.180	-0.144	0.091	
20.185	0.788	0.092	
20.190	0.023	0.143	
20.195	-0.352	0.164	
20.200	0.371	0.129	
20.205	0.226	0.117	
20.210	-0.442	0.107	
20.215	-0.034	0.050	
20.220	0.510	0.013	
20.225	-0.324	0.023	
20.230	-0.268	0.005	
20.235	0.528	-0.020	
20.240	-0.122	0.002	
20.245	-0.371	0.008	
20.250	0.562	-0.004	
20.255	0.683	0.057	
20.260	-0.042	0.163	
20.265	0.903	0.255	
20.270	1.431	0.400	
20.275	-0.040	0.570	
20.280	-0.321	0.595	
20.285	-0.055	0.464	
20.290	-0.570	0.268	
20.295	-0.830	0.028	
20.300	-0.249	-0.209	
20.305	-0.188	-0.357	
20.310	-0.578	-0.420	
20.315	-0.122	-0.441	
20.320	0.467	-0.386	
20.325	-0.312	-0.265	
20.330	-0.210	-0.173	
20.335	0.664	-0.099	
20.340	-0.058	0.004	
20.345	-0.344	0.064	
20.350	0.518	0.071	
20.355	0.441	0.113	
20.360	-0.315	0.163	
20.365	0.263	0.161	
20.370	0.825	0.178	
20.375	-0.139	0.235	
20.380	0.009	0.246	
20.385	1.043	0.248	
20.390	0.321	0.315	
20.395	-0.115	0.362	
20.400	0.964	0.367	
20.405	0.900	0.427	
20.410	-0.026	0.504	
20.415	0.768	0.523	
20.420	1.300	0.566	
20.425	0.209	0.647	
20.430	0.340	0.663	
20.435	1.280	0.648	
20.440	0.475	0.677	
20.445	-0.083	0.666	
20.450	0.831	0.590	
20.455	0.553	0.542	
20.460	-0.307	0.493	
20.465	0.134	0.382	
20.470	0.525	0.279	
20.475	-0.364	0.215	
20.480	-0.318	0.120	
20.485	0.343	0.020	
20.490	-0.277	-0.028	
20.495	-0.532	-0.081	
20.500	0.067	-0.151	
20.505	-0.086	-0.179	
20.510	-0.570	-0.192	
20.515	-0.196	-0.228	
20.520	0.145	-0.241	
20.525	-0.514	-0.223	
20.530	-0.436	-0.233	
20.535	0.149	-0.253	
20.540	-0.358	-0.238	
20.545	-0.599	-0.241	
20.550	-0.029	-0.271	
20.555	-0.129	-0.272	
20.560	-0.604	-0.263	
20.565	-0.211	-0.282	
20.570	0.156	-0.279	
20.575	-0.495	-0.245	
20.580	-0.391	-0.239	
20.585	0.273	-0.238	
20.590	-0.281	-0.200	
20.595	-0.508	-0.181	
20.600	0.133	-0.192	
20.605	-0.035	-0.175	
20.610	-0.537	-0.156	
20.615	-0.118	-0.174	
20.620	0.330	-0.172	
20.625	-0.407	-0.133	
20.630	-0.295	-0.125	
20.635	0.437	-0.124	
20.640	-0.226	-0.084	
20.645	-0.489	-0.072	
20.650	0.108	-0.104	
20.655	-0.092	-0.117	
20.660	-0.587	-0.132	
20.665	-0.194	-0.183	
20.670	0.175	-0.211	
20.675	-0.497	-0.202	
20.680	-0.387	-0.215	
20.685	0.295	-0.227	
20.690	-0.300	-0.196	
20.695	-0.478	-0.180	
20.700	0.429	-0.178	
20.705	0.530	-0.102	
20.710	-0.100	0.019	
20.715	0.820	0.127	
20.720	1.130	0.281	
20.725	-0.284	0.433	
20.730	-0.498	0.431	
20.735	-0.260	0.280	
20.740	-0.737	0.072	
20.745	-0.944	-0.166	
20.750	-0.358	-0.391	
20.755	-0.338	-0.521	
20.760	-0.683	-0.568	
20.765	-0.202	-0.575	
20.770	0.255	-0.510	
20.775	-0.428	-0.390	
20.780	-0.291	-0.300	
20.785	0.508	-0.223	
20.790	-0.173	-0.119	
20.795	-0.375	-0.055	
20.800	0.438	-0.036	
20.805	0.238	0.014	
20.810	-0.384	0.061	
20.815	0.181	0.056	
20.820	0.680	0.074	
20.825	-0.225	0.130	
20.830	-0.029	0.143	
20.835	0.938	0.153	
20.840	0.211	0.224	
20.845	-0.113	0.276	
20.850	0.987	0.295	
20.855	0.845	0.375	
20.860	0.003	0.468	
20.865	0.855	0.507	
20.870	1.271	0.570	
20.875	0.166	0.660	
20.880	0.389	0.674	
20.885	1.251	0.658	
20.890	0.350	0.679	
20.895	-0.110	0.648	
20.900	0.825	0.558	
20.905	0.482	0.503	
20.910	-0.332	0.451	
20.915	0.171	0.342	
20.920	0.537	0.250	
20.925	-0.353	0.200	
20.930	-0.255	0.119	
20.935	0.440	0.038	
20.940	-0.242	0.008	
20.945	-0.465	-0.031	
20.950	0.203	-0.089	
20.955	-0.035	-0.106	
20.960	-0.569	-0.115	
20.965	-0.159	-0.159	
20.970	0.181	-0.184	
20.975	-0.494	-0.176	
20.980	-0.371	-0.194	
20.985	0.241	-0.213	
20.990	-0.336	-0.193	
20.995	-0.520	-0.192	
21.000	0.157	-0.212	
21.005	-0.086	-0.196	
21.010	-0.559	-0.179	
21.015	-0.098	-0.197	
21.020	0.256	-0.193	
21.025	-0.456	-0.157	
21.030	-0.332	-0.156	
21.035	0.318	-0.164	
21.040	-0.301	-0.137	
21.045	-0.488	-0.134	
21.050	0.214	-0.157	
21.055	-0.016	-0.143	
21.060	-0.500	-0.124	
21.065	-0.035	-0.141	
21.070	0.340	-0.133	
21.075	-0.411	-0.094	
21.080	-0.266	-0.092	
21.085	0.437	-0.098	
21.090	-0.263	-0.066	
21.095	-0.489	-0.065	
21.100	0.151	-0.103	
21.105	-0.106	-0.116	
21.110	-0.572	-0.130	
21.115	-0.139	-0.177	
21.120	0.169	-0.199	
21.125	-0.492	-0.187	
21.130	-0.335	-0.199	
21.135	0.307	-0.208	
21.140	-0.339	-0.177	
21.145	-0.477	-0.168	
21.150	0.447	-0.172	
21.155	0.409	-0.104	
21.160	-0.185	-0.001	
21.165	0.684	0.083	
21.170	0.816	0.201	
21.175	-0.468	0.307	
21.180	-0.584	0.270	
21.185	-0.297	0.113	
21.190	-0.767	-0.075	
21.195	-0.905	-0.280	
21.200	-0.280	-0.460	
21.205	-0.294	-0.546	
21.210	-0.640	-0.556	
21.215	-0.124	-0.537	
21.220	0.351	-0.454	
21.225	-0.396	-0.320	
21.230	-0.217	-0.226	
21.235	0.592	-0.149	
21.240	-0.167	-0.047	
21.245	-0.333	0.009	
21.250	0.589	0.023	
21.255	0.263	0.077	
21.260	-0.373	0.124	
21.265	0.292	0.115	
21.270	0.680	0.130	
21.275	-0.222	0.180	
21.280	0.052	0.184	
21.285	0.948	0.191	
21.290	0.127	0.254	
21.295	-0.122	0.289	
21.300	0.952	0.291	
21.305	0.702	0.352	
21.310	-0.090	0.422	
21.315	0.838	0.442	
21.320	1.179	0.497	
21.325	0.052	0.583	
21.330	0.389	0.594	
21.335	1.259	0.587	
21.340	0.278	0.622	
21.345	-0.132	0.602	
21.350	0.777	0.517	
21.355	0.322	0.461	
21.360	-0.355	0.397	
21.365	0.214	0.285	
21.370	0.406	0.199	
21.375	-0.446	0.147	
21.380	-0.307	0.057	
21.385	0.293	-0.033	
21.390	-0.378	-0.075	
21.395	-0.530	-0.128	
21.400	0.096	-0.193	
21.405	-0.171	-0.212	
21.410	-0.640	-0.224	
21.415	-0.190	-0.264	
21.420	0.036	-0.280	
21.425	-0.569	-0.268	
21.430	-0.382	-0.281	
21.435	0.215	-0.287	
21.440	-0.410	-0.254	
21.445	-0.553	-0.244	
21.450	0.044	-0.262	
21.455	-0.213	-0.254	
21.460	-0.640	-0.250	
21.465	-0.155	-0.278	
21.470	0.128	-0.279	
21.475	-0.517	-0.246	
21.480	-0.309	-0.241	
21.485	0.409	-0.228	
21.490	-0.287	-0.169	
21.495	-0.431	-0.136	
21.500	0.287	-0.135	
21.505	-0.074	-0.106	
21.510	-0.509	-0.089	
21.515	0.070	-0.112	
21.520	0.412	-0.100	
21.525	-0.385	-0.053	
21.530	-0.205	-0.045	
21.535	0.490	-0.048	
21.540	-0.300	-0.018	
21.545	-0.468	-0.027	
21.550	0.238	-0.072	
21.555	-0.106	-0.086	
21.560	-0.544	-0.100	
21.565	-0.040	-0.146	
21.570	0.244	-0.159	
21.575	-0.474	-0.137	
21.580	-0.251	-0.145	
21.585	0.482	-0.145	
21.590	-0.232	-0.096	
21.595	-0.303	-0.067	
21.600	0.805	-0.042	
21.605	0.652	0.068	
21.610	-0.005	0.207	
21.615	0.938	0.310	
21.620	0.832	0.428	
21.625	-0.483	0.505	
21.630	-0.503	0.420	
21.635	-0.213	0.223	
21.640	-0.686	0.010	
21.645	-0.723	-0.203	
21.650	0.013	-0.368	
21.655	-0.159	-0.421	
21.660	-0.540	-0.408	
21.665	0.064	-0.381	
21.670	0.435	-0.296	
21.675	-0.356	-0.173	
21.680	-0.090	-0.097	
21.685	0.756	-0.032	
21.690	-0.119	0.066	
21.695	-0.219	0.116	
21.700	0.762	0.128	
21.705	0.383	0.189	
21.710	-0.286	0.241	
21.715	0.534	0.238	
21.720	0.831	0.267	
21.725	-0.162	0.326	
21.730	0.321	0.333	
21.735	1.208	0.353	
21.740	0.292	0.437	
21.745	0.156	0.488	
21.750	1.271	0.509	
21.755	0.861	0.590	
21.760	0.059	0.661	
21.765	1.069	0.669	
21.770	1.364	0.714	
21.775	0.247	0.791	
21.780	0.649	0.798	
21.785	1.428	0.792	
21.790	0.426	0.824	
21.795	0.015	0.793	
21.800	0.977	0.698	
21.805	0.447	0.634	
21.810	-0.301	0.558	
21.815	0.368	0.427	
21.820	0.525	0.329	
21.825	-0.376	0.267	
21.830	-0.165	0.170	
21.835	0.542	0.083	
21.840	-0.286	0.054	
21.845	-0.420	0.009	
21.850	0.331	-0.051	
21.855	-0.072	-0.064	
21.860	-0.527	-0.074	
21.865	-0.016	-0.118	
21.870	0.192	-0.135	
21.875	-0.475	-0.123	
21.880	-0.243	-0.141	
21.885	0.388	-0.150	
21.890	-0.355	-0.119	
21.895	-0.463	-0.118	
21.900	0.250	-0.143	
21.905	-0.130	-0.133	
21.910	-0.538	-0.129	
21.915	0.024	-0.158	
21.920	0.227	-0.155	
21.925	-0.472	-0.125	
21.930	-0.207	-0.129	
21.935	0.492	-0.126	
21.940	-0.283	-0.078	
21.945	-0.341	-0.060	
21.950	0.472	-0.062	
21.955	-0.013	-0.025	
21.960	-0.451	-0.002	
21.965	0.227	-0.022	
21.970	0.486	-0.005	
21.975	-0.336	0.044	
21.980	-0.052	0.049	
21.985	0.680	0.053	
21.990	-0.223	0.096	
21.995	-0.342	0.094	
22.000	0.431	0.053	
22.005	-0.069	0.045	
22.010	-0.497	0.023	
22.015	0.117	-0.036	
22.020	0.281	-0.057	
22.025	-0.451	-0.047	
22.030	-0.171	-0.069	
22.035	0.550	-0.079	
22.040	-0.249	-0.038	
22.045	-0.274	-0.021	
22.050	0.864	-0.006	
22.055	0.640	0.100	
22.060	0.114	0.237	
22.065	1.278	0.360	
22.070	1.375	0.541	
22.075	-0.121	0.710	
22.080	-0.196	0.706	
22.085	-0.052	0.547	
22.090	-0.700	0.322	
22.095	-0.790	0.048	
22.100	-0.179	-0.208	
22.105	-0.309	-0.364	
22.110	-0.578	-0.436	
22.115	0.104	-0.454	
22.120	0.392	-0.378	
22.125	-0.358	-0.247	
22.130	0.012	-0.151	
22.135	0.816	-0.054	
22.140	-0.113	0.075	
22.145	-0.184	0.143	
22.150	0.811	0.165	
22.155	0.290	0.225	
22.160	-0.268	0.265	
22.165	0.670	0.255	
22.170	0.822	0.291	
22.175	-0.159	0.354	
22.180	0.347	0.359	
22.185	1.147	0.373	
22.190	0.162	0.440	
22.195	0.099	0.464	
22.200	1.240	0.464	
22.205	0.762	0.533	
22.210	0.068	0.599	
22.215	1.116	0.614	
22.220	1.280	0.673	
22.225	0.194	0.757	
22.230	0.730	0.769	
22.235	1.387	0.773	
22.240	0.273	0.807	
22.245	0.091	0.768	
22.250	1.083	0.678	
22.255	0.406	0.632	
22.260	-0.277	0.567	
22.265	0.486	0.446	
22.270	0.507	0.360	
22.275	-0.367	0.303	
22.280	-0.113	0.204	
22.285	0.476	0.112	
22.290	-0.338	0.069	
22.295	-0.401	0.008	
22.300	0.354	-0.060	
22.305	-0.130	-0.074	
22.310	-0.514	-0.087	
22.315	0.052	-0.128	
22.320	0.131	-0.138	
22.325	-0.506	-0.126	
22.330	-0.194	-0.146	
22.335	0.386	-0.153	
22.340	-0.361	-0.118	
22.345	-0.410	-0.113	
22.350	0.295	-0.131	
22.355	-0.167	-0.115	
22.360	-0.520	-0.112	
22.365	0.067	-0.142	
22.370	0.174	-0.140	
22.375	-0.485	-0.117	
22.380	-0.170	-0.128	
22.385	0.475	-0.126	
22.390	-0.326	-0.081	
22.395	-0.352	-0.068	
22.400	0.475	-0.075	
22.405	-0.046	-0.039	
22.410	-0.417	-0.016	
22.415	0.284	-0.029	
22.420	0.354	-0.007	
22.425	-0.413	0.032	
22.430	-0.075	0.020	
22.435	0.588	0.012	
22.440	-0.271	0.044	
22.445	-0.317	0.039	
22.450	0.478	0.010	
22.455	-0.122	0.017	
22.460	-0.494	0.006	
22.465	0.140	-0.046	
22.470	0.172	-0.064	
22.475	-0.500	-0.062	
22.480	-0.177	-0.096	
22.485	0.472	-0.113	
22.490	-0.321	-0.080	
22.495	-0.326	-0.072	
22.500	0.605	-0.071	
22.505	0.214	-0.007	
22.510	-0.147	0.066	
22.515	1.007	0.133	
22.520	1.060	0.276	
22.525	-0.207	0.430	
22.530	-0.152	0.450	
22.535	-0.040	0.351	
22.540	-0.700	0.194	
22.545	-0.746	-0.019	
22.550	-0.173	-0.230	
22.555	-0.370	-0.358	
22.560	-0.614	-0.426	
22.565	0.049	-0.452	
22.570	0.223	-0.395	
22.575	-0.410	-0.290	
22.580	-0.019	-0.214	
22.585	0.657	-0.127	
22.590	-0.226	-0.011	
22.595	-0.193	0.048	
22.600	0.803	0.077	
22.605	0.152	0.149	
22.610	-0.297	0.195	
22.615	0.573	0.187	
22.620	0.652	0.218	
22.625	-0.246	0.268	
22.630	0.269	0.263	
22.635	1.005	0.272	
22.640	0.029	0.333	
22.645	0.076	0.353	
22.650	1.181	0.361	
22.655	0.618	0.440	
22.660	0.021	0.509	
22.665	1.110	0.531	
22.670	1.161	0.601	
22.675	0.162	0.690	
22.680	0.803	0.712	
22.685	1.381	0.737	
22.690	0.284	0.791	
22.695	0.177	0.769	
22.700	1.098	0.697	
22.705	0.327	0.657	
22.710	-0.278	0.584	
22.715	0.476	0.452	
22.720	0.397	0.353	
22.725	-0.396	0.280	
22.730	-0.080	0.170	
22.735	0.457	0.080	
22.740	-0.370	0.042	
22.745	-0.376	-0.014	
22.750	0.325	-0.076	
22.755	-0.225	-0.090	
22.760	-0.540	-0.111	
22.765	0.033	-0.160	
22.770	0.018	-0.175	
22.775	-0.556	-0.173	
22.780	-0.213	-0.200	
22.785	0.333	-0.206	
22.790	-0.430	-0.170	
22.795	-0.431	-0.165	
22.800	0.259	-0.180	
22.805	-0.229	-0.161	
22.810	-0.549	-0.156	
22.815	0.047	-0.184	
22.820	0.039	-0.183	
22.825	-0.521	-0.167	
22.830	-0.153	-0.182	
22.835	0.418	-0.174	
22.840	-0.367	-0.124	
22.845	-0.342	-0.106	
22.850	0.453	-0.106	
22.855	-0.129	-0.066	
22.860	-0.419	-0.044	
22.865	0.318	-0.056	
22.870	0.276	-0.028	
22.875	-0.419	0.011	
22.880	-0.013	0.002	
22.885	0.608	0.005	
22.890	-0.277	0.048	
22.895	-0.268	0.051	
22.900	0.470	0.027	
22.905	-0.170	0.033	
22.910	-0.474	0.014	
22.915	0.188	-0.040	
22.920	0.151	-0.057	
22.925	-0.463	-0.054	
22.930	-0.035	-0.080	
22.935	0.504	-0.079	
22.940	-0.346	-0.035	
22.945	-0.301	-0.030	
22.950	0.588	-0.038	
22.955	0.107	0.010	
22.960	-0.129	0.063	
22.965	1.100	0.121	
22.970	1.054	0.271	
22.975	-0.176	0.435	
22.980	-0.078	0.464	
22.985	-0.025	0.376	
22.990	-0.729	0.224	
22.995	-0.743	0.005	
23.000	-0.184	-0.214	
23.005	-0.420	-0.353	
23.010	-0.601	-0.431	
23.015	0.105	-0.460	
23.020	0.152	-0.400	
23.025	-0.437	-0.298	
23.030	0.023	-0.225	
23.035	0.628	-0.137	
23.040	-0.251	-0.021	
23.045	-0.167	0.038	
23.050	0.803	0.070	
23.055	0.090	0.144	
23.060	-0.271	0.186	
23.065	0.634	0.181	
23.070	0.579	0.218	
23.075	-0.237	0.267	
23.080	0.427	0.267	
23.085	1.049	0.294	
23.090	0.013	0.371	
23.095	0.183	0.398	
23.100	1.211	0.411	
23.105	0.518	0.486	
23.110	0.055	0.539	
23.115	1.210	0.551	
23.120	1.106	0.620	
23.125	0.097	0.702	
23.130	0.866	0.713	
23.135	1.382	0.735	
23.140	0.266	0.790	
23.145	0.322	0.774	
23.150	1.167	0.719	
23.155	0.267	0.695	
23.160	-0.237	0.622	
23.165	0.594	0.489	
23.170	0.402	0.396	
23.175	-0.388	0.324	
23.180	-0.009	0.211	
23.185	0.434	0.117	
23.190	-0.396	0.071	
23.195	-0.339	0.003	
23.200	0.366	-0.064	
23.205	-0.226	-0.077	
23.210	-0.494	-0.096	
23.215	0.111	-0.139	
23.220	-0.058	-0.149	
23.225	-0.581	-0.154	
23.230	-0.200	-0.193	
23.235	0.230	-0.212	
23.240	-0.445	-0.190	
23.245	-0.371	-0.192	
23.250	0.259	-0.200	
23.255	-0.312	-0.175	
23.260	-0.567	-0.173	
23.265	0.024	-0.206	
23.270	-0.081	-0.212	
23.275	-0.561	-0.208	
23.280	-0.126	-0.229	
23.285	0.379	-0.217	
23.290	-0.398	-0.160	
23.295	-0.303	-0.136	
23.300	0.452	-0.124	
23.305	-0.194	-0.077	
23.310	-0.428	-0.056	
23.315	0.328	-0.069	
23.320	0.192	-0.043	
23.325	-0.433	-0.010	
23.330	0.047	-0.020	
23.335	0.585	-0.010	
23.340	-0.323	0.038	
23.345	-0.263	0.039	
23.350	0.457	0.015	
23.355	-0.242	0.019	
23.360	-0.504	-0.007	
23.365	0.136	-0.070	
23.370	-0.052	-0.101	
23.375	-0.553	-0.122	
23.380	-0.139	-0.170	
23.385	0.261	-0.188	
23.390	-0.449	-0.165	
23.395	-0.355	-0.170	
23.400	0.377	-0.176	
23.405	-0.182	-0.137	
23.410	-0.309	-0.106	
23.415	0.864	-0.068	
23.420	0.910	0.070	
23.425	0.021	0.250	
23.430	0.615	0.365	
23.435	0.521	0.436	
23.440	-0.614	0.438	
23.445	-0.706	0.293	
23.450	-0.336	0.059	
23.455	-0.703	-0.163	
23.460	-0.831	-0.361	
23.465	-0.182	-0.509	
23.470	-0.173	-0.551	
23.475	-0.575	-0.521	
23.480	-0.122	-0.477	
23.485	0.356	-0.388	
23.490	-0.401	-0.265	
23.495	-0.272	-0.188	
23.500	0.515	-0.135	
23.505	-0.164	-0.057	
23.510	-0.362	-0.016	
23.515	0.496	-0.011	
23.520	0.288	0.036	
23.525	-0.362	0.085	
23.530	0.249	0.085	
23.535	0.779	0.111	
23.540	-0.148	0.180	
23.545	0.078	0.207	
23.550	1.054	0.231	
23.555	0.287	0.314	
23.560	-0.069	0.369	
23.565	1.043	0.383	
23.570	0.866	0.452	
23.575	-0.032	0.529	
23.580	0.802	0.543	
23.585	1.230	0.579	
23.590	0.116	0.646	
23.595	0.331	0.642	
23.600	1.179	0.612	
23.605	0.263	0.621	
23.610	-0.164	0.581	
23.615	0.761	0.487	
23.620	0.363	0.430	
23.625	-0.394	0.373	
23.630	0.032	0.258	
23.635	0.377	0.156	
23.640	-0.423	0.094	
23.645	-0.323	0.009	
23.650	0.318	-0.069	
23.655	-0.324	-0.095	
23.660	-0.543	-0.131	
23.665	0.050	-0.187	
23.670	-0.139	-0.207	
23.675	-0.607	-0.217	
23.680	-0.177	-0.253	
23.685	0.137	-0.261	
23.690	-0.518	-0.237	
23.695	-0.378	-0.240	
23.700	0.217	-0.246	
23.705	-0.376	-0.218	
23.710	-0.581	-0.216	
23.715	0.003	-0.246	
23.720	-0.168	-0.249	
23.725	-0.611	-0.249	
23.730	-0.174	-0.275	
23.735	0.160	-0.274	
23.740	-0.482	-0.238	
23.745	-0.303	-0.228	
23.750	0.380	-0.213	
23.755	-0.291	-0.159	
23.760	-0.483	-0.135	
23.765	0.232	-0.145	
23.770	0.003	-0.124	
23.775	-0.469	-0.102	
23.780	0.053	-0.113	
23.785	0.438	-0.094	
23.790	-0.367	-0.041	
23.795	-0.222	-0.032	
23.800	0.544	-0.033	
23.805	-0.205	0.002	
23.810	-0.410	0.007	
23.815	0.287	-0.026	
23.820	-0.043	-0.032	
23.825	-0.532	-0.044	
23.830	-0.063	-0.096	
23.835	0.290	-0.121	
23.840	-0.445	-0.107	
23.845	-0.266	-0.121	
23.850	0.521	-0.126	
23.855	-0.223	-0.080	
23.860	-0.405	-0.058	
23.865	0.473	-0.062	
23.870	0.365	-0.011	
23.875	-0.185	0.063	
23.880	0.845	0.127	
23.885	1.320	0.265	
23.890	0.094	0.449	
23.895	-0.034	0.525	
23.900	0.232	0.477	
23.905	-0.575	0.359	
23.910	-0.825	0.154	
23.915	-0.310	-0.092	
23.920	-0.376	-0.280	
23.925	-0.679	-0.401	
23.930	-0.090	-0.471	
23.935	0.411	-0.439	
23.940	-0.326	-0.324	
23.945	-0.100	-0.223	
23.950	0.811	-0.119	
23.955	-0.034	0.023	
23.960	-0.220	0.112	
23.965	0.805	0.151	
23.970	0.562	0.232	
23.975	-0.187	0.310	
23.980	0.647	0.329	
23.985	1.036	0.377	
23.990	0.020	0.457	
23.995	0.444	0.482	
24.000	1.387	0.512	
24.005	0.568	0.606	
24.010	0.327	0.672	
24.015	1.450	0.704	
24.020	1.161	0.792	
24.025	0.362	0.880	
24.030	1.337	0.909	
24.035	1.718	0.975	
24.040	0.629	1.077	
24.045	0.950	1.109	
24.050	1.734	1.117	
24.055	0.745	1.153	
24.060	0.339	1.122	
24.065	1.324	1.027	
24.070	0.895	0.970	
24.075	-0.046	0.904	
24.080	0.725	0.775	
24.085	0.912	0.676	
24.090	-0.171	0.612	
24.095	0.029	0.495	
24.100	0.803	0.378	
24.105	-0.106	0.321	
24.110	-0.300	0.248	
24.115	0.481	0.155	
24.120	0.087	0.116	
24.125	-0.423	0.086	
24.130	0.139	0.026	
24.135	0.420	0.005	
24.140	-0.371	0.022	
24.145	-0.174	0.003	
24.150	0.515	-0.016	
24.155	-0.237	0.006	
24.160	-0.379	-0.000	
24.165	0.365	-0.032	
24.170	-0.013	-0.026	
24.175	-0.466	-0.024	
24.180	0.075	-0.059	
24.185	0.371	-0.063	
24.190	-0.378	-0.033	
24.195	-0.170	-0.038	
24.200	0.560	-0.040	
24.205	-0.207	0.000	
24.210	-0.332	0.012	
24.215	0.490	-0.003	
24.220	0.094	0.025	
24.225	-0.405	0.047	
24.230	0.224	0.026	
24.235	0.551	0.039	
24.240	-0.298	0.085	
24.245	-0.071	0.087	
24.250	0.693	0.083	
24.255	-0.148	0.120	
24.260	-0.280	0.121	
24.265	0.585	0.094	
24.270	0.130	0.110	
24.275	-0.416	0.118	
24.280	0.130	0.073	
24.285	0.357	0.047	
24.290	-0.394	0.046	
24.295	-0.170	0.010	
24.300	0.518	-0.020	
24.305	-0.260	-0.003	
24.310	-0.371	-0.011	
24.315	0.450	-0.039	
24.320	0.113	-0.016	
24.325	-0.349	0.014	
24.330	0.533	0.023	
24.335	1.002	0.103	
24.340	0.053	0.243	
24.345	0.457	0.339	
24.350	0.897	0.409	
24.355	-0.344	0.457	
24.360	-0.676	0.374	
24.365	-0.275	0.173	
24.370	-0.491	-0.036	
24.375	-0.798	-0.228	
24.380	-0.217	-0.386	
24.385	0.101	-0.445	
24.390	-0.451	-0.413	
24.395	-0.171	-0.366	
24.400	0.582	-0.285	
24.405	-0.193	-0.156	
24.410	-0.260	-0.067	
24.415	0.618	-0.015	
24.420	0.177	0.067	
24.425	-0.346	0.123	
24.430	0.377	0.122	
24.435	0.646	0.148	
24.440	-0.220	0.200	
24.445	0.101	0.203	
24.450	0.878	0.206	
24.455	-0.038	0.254	
24.460	-0.133	0.261	
24.465	0.919	0.245	
24.470	0.542	0.296	
24.475	-0.110	0.353	
24.480	0.889	0.372	
24.485	1.146	0.443	
24.490	0.065	0.545	
24.495	0.553	0.580	
24.500	1.321	0.604	
24.505	0.321	0.667	
24.510	0.094	0.670	
24.515	1.118	0.623	
24.520	0.545	0.617	
24.525	-0.214	0.593	
24.530	0.502	0.500	
24.535	0.536	0.423	
24.540	-0.376	0.363	
24.545	-0.171	0.248	
24.550	0.382	0.130	
24.555	-0.371	0.059	
24.560	-0.495	-0.027	
24.565	0.064	-0.124	
24.570	-0.263	-0.178	
24.575	-0.653	-0.223	
24.580	-0.190	-0.285	
24.585	-0.115	-0.316	
24.590	-0.660	-0.323	
24.595	-0.425	-0.352	
24.600	-0.034	-0.373	
24.605	-0.547	-0.362	
24.610	-0.619	-0.371	
24.615	-0.080	-0.393	
24.620	-0.358	-0.383	
24.625	-0.729	-0.378	
24.630	-0.255	-0.402	
24.635	-0.168	-0.404	
24.640	-0.694	-0.390	
24.645	-0.428	-0.403	
24.650	-0.019	-0.407	
24.655	-0.544	-0.380	
24.660	-0.607	-0.376	
24.665	-0.078	-0.390	
24.670	-0.346	-0.375	
24.675	-0.708	-0.367	
24.680	-0.217	-0.387	
24.685	-0.121	-0.383	
24.690	-0.631	-0.361	
24.695	-0.376	-0.365	
24.700	0.061	-0.360	
24.705	-0.504	-0.327	
24.710	-0.564	-0.319	
24.715	-0.002	-0.332	
24.720	-0.336	-0.319	
24.725	-0.714	-0.318	
24.730	-0.242	-0.351	
24.735	-0.179	-0.366	
24.740	-0.706	-0.366	
24.745	-0.453	-0.393	
24.750	-0.071	-0.411	
24.755	-0.585	-0.399	
24.760	-0.640	-0.406	
24.765	-0.107	-0.425	
24.770	-0.370	-0.413	
24.775	-0.662	-0.400	
24.780	-0.034	-0.400	
24.785	0.339	-0.344	
24.790	-0.280	-0.236	
24.795	0.221	-0.140	
24.800	0.719	-0.026	
24.805	-0.471	0.090	
24.810	-0.796	0.083	
24.815	-0.478	-0.053	
24.820	-0.808	-0.228	
24.825	-0.995	-0.415	
24.830	-0.555	-0.585	
24.835	-0.379	-0.675	
24.840	-0.799	-0.692	
24.845	-0.471	-0.686	
24.850	-0.043	-0.639	
24.855	-0.526	-0.547	
24.860	-0.558	-0.478	
24.865	0.038	-0.429	
24.870	-0.303	-0.363	
24.875	-0.631	-0.318	
24.880	-0.090	-0.314	
24.885	0.012	-0.291	
24.890	-0.550	-0.254	
24.895	-0.242	-0.251	
24.900	0.368	-0.233	
24.905	-0.333	-0.174	
24.910	-0.364	-0.144	
24.915	0.450	-0.130	
24.920	-0.060	-0.078	
24.925	-0.407	-0.041	
24.930	0.412	-0.037	
24.935	0.576	0.018	
24.940	-0.252	0.102	
24.945	0.227	0.138	
24.950	0.915	0.182	
24.955	-0.104	0.260	
24.960	-0.145	0.276	
24.965	0.832	0.254	
24.970	0.130	0.272	
24.975	-0.401	0.262	
24.980	0.236	0.189	
24.985	0.180	0.130	
24.990	-0.532	0.080	
24.995	-0.265	-0.013	
25.000	0.163	-0.097	
25.005	-0.526	-0.142	
25.010	-0.582	-0.206	
25.015	-0.060	-0.280	
25.020	-0.404	-0.316	
25.025	-0.732	-0.349	
25.030	-0.254	-0.399	
25.035	-0.242	-0.418	
25.040	-0.752	-0.419	
25.045	-0.471	-0.444	
25.050	-0.136	-0.459	
25.055	-0.651	-0.446	
25.060	-0.662	-0.454	
25.065	-0.129	-0.472	
25.070	-0.460	-0.457	
25.075	-0.789	-0.450	
25.080	-0.291	-0.471	
25.085	-0.260	-0.469	
25.090	-0.757	-0.454	
25.095	-0.457	-0.466	
25.100	-0.112	-0.468	
25.105	-0.633	-0.443	
25.110	-0.630	-0.442	
25.115	-0.095	-0.451	
25.120	-0.428	-0.430	
25.125	-0.732	-0.418	
25.130	-0.197	-0.431	
25.135	-0.167	-0.418	
25.140	-0.691	-0.391	
25.145	-0.382	-0.394	
25.150	0.068	-0.387	
25.155	-0.530	-0.348	
25.160	-0.530	-0.335	
25.165	0.104	-0.335	
25.170	-0.329	-0.304	
25.175	-0.663	-0.288	
25.180	-0.164	-0.311	
25.185	-0.177	-0.319	
25.190	-0.700	-0.320	
25.195	-0.382	-0.352	
25.200	0.021	-0.369	
25.205	-0.567	-0.352	
25.210	-0.552	-0.355	
25.215	0.053	-0.365	
25.220	-0.347	-0.340	
25.225	-0.637	-0.324	
25.230	-0.014	-0.331	
25.235	0.165	-0.297	
25.240	-0.371	-0.228	
25.245	0.369	-0.162	
25.250	1.301	-0.022	
25.255	0.307	0.202	
25.260	0.047	0.365	
25.265	0.450	0.417	
25.270	-0.465	0.388	
25.275	-0.918	0.238	
25.280	-0.489	-0.009	
25.285	-0.471	-0.238	
25.290	-0.850	-0.412	
25.295	-0.413	-0.540	
25.300	0.131	-0.575	
25.305	-0.459	-0.514	
25.310	-0.391	-0.444	
25.315	0.458	-0.363	
25.320	-0.121	-0.238	
25.325	-0.426	-0.142	
25.330	0.398	-0.095	
25.335	0.408	-0.019	
25.340	-0.362	0.061	
25.345	0.122	0.081	
25.350	0.758	0.105	
25.355	-0.203	0.163	
25.360	-0.144	0.172	
25.365	0.860	0.161	
25.370	0.221	0.209	
25.375	-0.236	0.243	
25.380	0.808	0.241	
25.385	0.864	0.299	
25.390	-0.074	0.386	
25.395	0.706	0.423	
25.400	1.356	0.488	
25.405	0.316	0.602	
25.410	0.411	0.657	
25.415	1.442	0.682	
25.420	0.739	0.755	
25.425	0.113	0.791	
25.430	1.147	0.760	
25.435	0.977	0.761	
25.440	-0.147	0.757	
25.445	0.432	0.667	
25.450	0.930	0.576	
25.455	-0.173	0.522	
25.460	-0.179	0.418	
25.465	0.704	0.298	
25.470	-0.035	0.239	
25.475	-0.393	0.177	
25.480	0.391	0.094	
25.485	0.311	0.068	
25.490	-0.423	0.070	
25.495	-0.008	0.033	
25.500	0.568	0.015	
25.505	-0.297	0.041	
25.510	-0.222	0.035	
25.515	0.666	0.022	
25.520	-0.081	0.059	
25.525	-0.422	0.070	
25.530	0.350	0.036	
25.535	0.292	0.039	
25.540	-0.411	0.057	
25.545	0.061	0.034	
25.550	0.638	0.032	
25.555	-0.283	0.074	
25.560	-0.220	0.074	
25.565	0.704	0.060	
25.570	-0.002	0.096	
25.575	-0.335	0.113	
25.580	0.580	0.097	
25.585	0.527	0.133	
25.590	-0.300	0.188	
25.595	0.310	0.191	
25.600	0.945	0.216	
25.605	-0.121	0.284	
25.610	-0.048	0.296	
25.615	0.909	0.279	
25.620	0.137	0.307	
25.625	-0.274	0.306	
25.630	0.669	0.261	
25.635	0.577	0.267	
25.640	-0.307	0.290	
25.645	0.232	0.257	
25.650	0.770	0.236	
25.655	-0.214	0.254	
25.660	-0.139	0.225	
25.665	0.823	0.185	
25.670	0.094	0.205	
25.675	-0.278	0.211	
25.680	0.683	0.185	
25.685	0.609	0.216	
25.690	-0.225	0.269	
25.695	0.625	0.282	
25.700	1.456	0.350	
25.705	0.562	0.508	
25.710	0.793	0.648	
25.715	1.650	0.772	
25.720	0.435	0.900	
25.725	-0.385	0.895	
25.730	0.049	0.714	
25.735	-0.162	0.473	
25.740	-0.653	0.224	
25.745	-0.179	-0.016	
25.750	0.504	-0.154	
25.755	-0.258	-0.167	
25.760	-0.080	-0.147	
25.765	0.999	-0.083	
25.770	0.311	0.066	
25.775	-0.101	0.198	
25.780	0.991	0.277	
25.785	0.887	0.392	
25.790	-0.057	0.502	
25.795	0.761	0.534	
25.800	1.340	0.580	
25.805	0.308	0.669	
25.810	0.490	0.702	
25.815	1.491	0.717	
25.820	0.770	0.788	
25.825	0.318	0.832	
25.830	1.453	0.831	
25.835	1.372	0.890	
25.840	0.435	0.968	
25.845	1.303	0.991	
25.850	1.879	1.047	
25.855	0.837	1.153	
25.860	1.052	1.205	
25.865	2.044	1.238	
25.870	1.223	1.320	
25.875	0.698	1.355	
25.880	1.740	1.324	
25.885	1.515	1.327	
25.890	0.476	1.326	
25.895	1.216	1.250	
25.900	1.611	1.191	
25.905	0.438	1.167	
25.910	0.539	1.080	
25.915	1.411	0.972	
25.920	0.579	0.922	
25.925	0.093	0.850	
25.930	1.158	0.746	
25.935	0.979	0.714	
25.940	0.001	0.710	
25.945	0.768	0.658	
25.950	1.213	0.638	
25.955	0.116	0.663	
25.960	0.305	0.633	
25.965	1.225	0.592	
25.970	0.408	0.609	
25.975	-0.042	0.596	
25.980	1.007	0.542	
25.985	0.765	0.541	
25.990	-0.139	0.552	
25.995	0.554	0.503	
26.000	0.936	0.474	
26.005	-0.121	0.479	
26.010	0.024	0.426	
26.015	0.939	0.361	
26.020	0.124	0.356	
26.025	-0.196	0.334	
26.030	0.748	0.283	
26.035	0.536	0.291	
26.040	-0.245	0.314	
26.045	0.395	0.287	
26.050	0.819	0.284	
26.055	-0.158	0.317	
26.060	-0.003	0.297	
26.065	0.930	0.268	
26.070	0.149	0.297	
26.075	-0.181	0.305	
26.080	0.762	0.278	
26.085	0.476	0.297	
26.090	-0.304	0.317	
26.095	0.217	0.272	
26.100	0.608	0.234	
26.105	-0.284	0.225	
26.110	-0.161	0.173	
26.115	0.649	0.118	
26.120	-0.119	0.116	
26.125	-0.321	0.098	
26.130	0.510	0.059	
26.135	0.244	0.073	
26.140	-0.382	0.094	
26.145	0.241	0.075	
26.150	0.852	0.095	
26.155	0.006	0.178	
26.160	0.453	0.246	
26.165	1.422	0.342	
26.170	0.386	0.496	
26.175	-0.324	0.567	
26.180	-0.037	0.483	
26.185	-0.353	0.318	
26.190	-0.850	0.105	
26.195	-0.413	-0.133	
26.200	-0.095	-0.307	
26.205	-0.546	-0.389	
26.210	-0.362	-0.429	
26.215	0.350	-0.412	
26.220	-0.228	-0.323	
26.225	-0.396	-0.242	
26.230	0.414	-0.186	
26.235	0.186	-0.095	
26.240	-0.378	-0.015	
26.245	0.223	0.012	
26.250	0.647	0.056	
26.255	-0.248	0.126	
26.260	-0.068	0.141	
26.265	0.860	0.144	
26.270	0.076	0.199	
26.275	-0.158	0.229	
26.280	0.866	0.230	
26.285	0.644	0.291	
26.290	-0.127	0.360	
26.295	0.727	0.380	
26.300	1.162	0.434	
26.305	0.122	0.527	
26.310	0.463	0.562	
26.315	1.375	0.587	
26.320	0.539	0.664	
26.325	0.145	0.699	
26.330	1.213	0.682	
26.335	0.918	0.708	
26.340	-0.060	0.728	
26.345	0.657	0.671	
26.350	0.916	0.619	
26.355	-0.170	0.586	
26.360	-0.026	0.487	
26.365	0.681	0.370	
26.370	-0.182	0.297	
26.375	-0.405	0.202	
26.380	0.279	0.086	
26.385	-0.042	0.018	
26.390	-0.537	-0.035	
26.395	-0.101	-0.110	
26.400	0.212	-0.151	
26.405	-0.469	-0.150	
26.410	-0.309	-0.170	
26.415	0.328	-0.183	
26.420	-0.298	-0.154	
26.425	-0.468	-0.145	
26.430	0.217	-0.160	
26.435	-0.071	-0.144	
26.440	-0.543	-0.130	
26.445	-0.092	-0.157	
26.450	0.215	-0.165	
26.455	-0.460	-0.144	
26.460	-0.295	-0.153	
26.465	0.342	-0.162	
26.470	-0.300	-0.133	
26.475	-0.462	-0.127	
26.480	0.236	-0.146	
26.485	-0.046	-0.130	
26.490	-0.504	-0.115	
26.495	-0.014	-0.136	
26.500	0.339	-0.130	
26.505	-0.408	-0.091	
26.510	-0.236	-0.088	
26.515	0.470	-0.089	
26.520	-0.234	-0.052	
26.525	-0.396	-0.042	
26.530	0.400	-0.058	
26.535	0.087	-0.033	
26.540	-0.430	-0.008	
26.545	0.070	-0.026	
26.550	0.353	-0.028	
26.555	-0.448	-0.008	
26.560	-0.320	-0.037	
26.565	0.240	-0.083	
26.570	-0.362	-0.100	
26.575	-0.518	-0.136	
26.580	0.108	-0.188	
26.585	-0.141	-0.200	
26.590	-0.569	-0.203	
26.595	-0.109	-0.231	
26.600	0.183	-0.230	
26.605	-0.411	-0.194	
26.610	-0.075	-0.174	
26.615	1.034	-0.110	
26.620	0.334	0.049	
26.625	0.032	0.198	
26.630	0.768	0.289	
26.635	-0.159	0.345	
26.640	-0.848	0.291	
26.645	-0.584	0.098	
26.650	-0.468	-0.130	
26.655	-0.915	-0.330	
26.660	-0.627	-0.503	
26.665	-0.081	-0.598	
26.670	-0.468	-0.593	
26.675	-0.567	-0.554	
26.680	0.081	-0.503	
26.685	-0.147	-0.410	
26.690	-0.541	-0.324	
26.695	-0.049	-0.281	
26.700	0.243	-0.226	
26.705	-0.443	-0.158	
26.710	-0.223	-0.135	
26.715	0.528	-0.116	
26.720	-0.202	-0.056	
26.725	-0.329	-0.025	
26.730	0.557	-0.020	
26.735	0.253	0.035	
26.740	-0.315	0.090	
26.745	0.427	0.102	
26.750	0.788	0.151	
26.755	-0.142	0.233	
26.760	0.244	0.265	
26.765	1.142	0.300	
26.770	0.236	0.390	
26.775	-0.016	0.436	
26.780	1.075	0.437	
26.785	0.686	0.487	
26.790	-0.126	0.529	
26.795	0.704	0.504	
26.800	0.910	0.500	
26.805	-0.177	0.514	
26.810	0.020	0.453	
26.815	0.764	0.368	
26.820	-0.165	0.322	
26.825	-0.359	0.243	
26.830	0.334	0.134	
26.835	-0.103	0.066	
26.840	-0.567	-0.001	
26.845	-0.106	-0.095	
26.850	0.084	-0.156	
26.855	-0.546	-0.179	
26.860	-0.378	-0.222	
26.865	0.097	-0.257	
26.870	-0.456	-0.257	
26.875	-0.578	-0.273	
26.880	0.007	-0.305	
26.885	-0.243	-0.301	
26.890	-0.650	-0.296	
26.895	-0.170	-0.318	
26.900	0.009	-0.315	
26.905	-0.576	-0.289	
26.910	-0.359	-0.292	
26.915	0.195	-0.291	
26.920	-0.401	-0.253	
26.925	-0.506	-0.239	
26.930	0.114	-0.248	
26.935	-0.190	-0.228	
26.940	-0.592	-0.216	
26.945	-0.095	-0.238	
26.950	0.140	-0.234	
26.955	-0.488	-0.203	
26.960	-0.254	-0.201	
26.965	0.402	-0.190	
26.970	-0.321	-0.139	
26.975	-0.434	-0.119	
26.980	0.334	-0.127	
26.985	-0.040	-0.099	
26.990	-0.468	-0.076	
26.995	0.108	-0.091	
27.000	0.389	-0.075	
27.005	-0.396	-0.031	
27.010	-0.213	-0.032	
27.015	0.363	-0.048	
27.020	-0.371	-0.040	
27.025	-0.486	-0.069	
27.030	0.175	-0.124	
27.035	-0.158	-0.142	
27.040	-0.556	-0.157	
27.045	-0.020	-0.195	
27.050	0.195	-0.196	
27.055	-0.489	-0.166	
27.060	-0.242	-0.168	
27.065	0.510	-0.159	
27.070	-0.141	-0.096	
27.075	-0.068	-0.040	
27.080	1.240	0.040	
27.085	0.851	0.222	
27.090	-0.119	0.401	
27.095	0.252	0.455	
27.100	-0.109	0.410	
27.105	-0.845	0.275	
27.110	-0.714	0.042	
27.115	-0.332	-0.201	
27.120	-0.715	-0.379	
27.125	-0.698	-0.511	
27.130	-0.025	-0.580	
27.135	-0.223	-0.552	
27.140	-0.566	-0.484	
27.145	0.012	-0.423	
27.150	0.302	-0.326	
27.155	-0.428	-0.210	
27.160	-0.162	-0.147	
27.165	0.606	-0.095	
27.170	-0.213	-0.014	
27.175	-0.304	0.023	
27.180	0.585	0.026	
27.185	0.178	0.071	
27.190	-0.346	0.107	
27.195	0.446	0.102	
27.200	0.718	0.139	
27.205	-0.223	0.208	
27.210	0.192	0.225	
27.215	1.042	0.247	
27.220	0.145	0.324	
27.225	0.020	0.365	
27.230	1.147	0.379	
27.235	0.709	0.455	
27.240	-0.055	0.524	
27.245	0.922	0.532	
27.250	1.081	0.570	
27.255	-0.034	0.624	
27.260	0.394	0.601	
27.265	1.075	0.563	
27.270	-0.028	0.556	
27.275	-0.222	0.487	
27.280	0.586	0.369	
27.285	0.006	0.286	
27.290	-0.465	0.199	
27.295	0.056	0.080	
27.300	0.152	-0.003	
27.305	-0.540	-0.051	
27.310	-0.307	-0.123	
27.315	0.209	-0.179	
27.320	-0.454	-0.189	
27.325	-0.549	-0.217	
27.330	0.049	-0.260	
27.335	-0.266	-0.266	
27.340	-0.640	-0.272	
27.345	-0.142	-0.303	
27.350	-0.023	-0.306	
27.355	-0.587	-0.286	
27.360	-0.330	-0.295	
27.365	0.188	-0.293	
27.370	-0.449	-0.257	
27.375	-0.523	-0.249	
27.380	0.120	-0.262	
27.385	-0.217	-0.243	
27.390	-0.598	-0.231	
27.395	-0.084	-0.252	
27.400	0.078	-0.247	
27.405	-0.544	-0.221	
27.410	-0.274	-0.227	
27.415	0.304	-0.224	
27.420	-0.394	-0.184	
27.425	-0.459	-0.174	
27.430	0.293	-0.184	
27.435	-0.129	-0.155	
27.440	-0.504	-0.134	
27.445	0.119	-0.146	
27.450	0.311	-0.123	
27.455	-0.416	-0.074	
27.460	-0.124	-0.066	
27.465	0.521	-0.056	
27.470	-0.317	-0.013	
27.475	-0.416	-0.014	
27.480	0.285	-0.052	
27.485	-0.174	-0.062	
27.490	-0.549	-0.083	
27.495	0.027	-0.136	
27.500	0.191	-0.151	
27.505	-0.485	-0.134	
27.510	-0.199	-0.146	
27.515	0.478	-0.143	
27.520	-0.323	-0.096	
27.525	-0.356	-0.079	
27.530	0.594	-0.076	
27.535	0.266	-0.010	
27.540	-0.167	0.068	
27.545	0.922	0.134	
27.550	1.010	0.265	
27.555	-0.286	0.403	
27.560	-0.300	0.403	
27.565	-0.161	0.281	
27.570	-0.773	0.104	
27.575	-0.844	-0.120	
27.580	-0.263	-0.333	
27.585	-0.410	-0.459	
27.590	-0.672	-0.517	
27.595	-0.060	-0.534	
27.600	0.162	-0.473	
27.605	-0.456	-0.364	
27.610	-0.132	-0.284	
27.615	0.592	-0.198	
27.620	-0.258	-0.083	
27.625	-0.317	-0.022	
27.630	0.573	-0.003	
27.635	0.053	0.048	
27.640	-0.379	0.078	
27.645	0.405	0.064	
27.650	0.553	0.091	
27.655	-0.291	0.144	
27.660	0.171	0.150	
27.665	0.962	0.172	
27.670	-0.009	0.247	
27.675	-0.017	0.281	
27.680	1.116	0.296	
27.685	0.606	0.378	
27.690	-0.051	0.454	
27.695	1.052	0.480	
27.700	1.214	0.554	
27.705	0.131	0.655	
27.710	0.712	0.685	
27.715	1.382	0.709	
27.720	0.281	0.763	
27.725	0.075	0.742	
27.730	1.026	0.662	
27.735	0.336	0.614	
27.740	-0.292	0.542	
27.745	0.458	0.416	
27.750	0.463	0.328	
27.755	-0.388	0.270	
27.760	-0.093	0.172	
27.765	0.534	0.091	
27.770	-0.320	0.064	
27.775	-0.375	0.017	
27.780	0.379	-0.041	
27.785	-0.148	-0.051	
27.790	-0.517	-0.067	
27.795	0.076	-0.113	
27.800	0.159	-0.125	
27.805	-0.491	-0.112	
27.810	-0.187	-0.131	
27.815	0.411	-0.138	
27.820	-0.358	-0.103	
27.825	-0.376	-0.098	
27.830	0.427	-0.109	
27.835	-0.119	-0.078	
27.840	-0.495	-0.062	
27.845	0.137	-0.088	
27.850	0.238	-0.084	
27.855	-0.439	-0.058	
27.860	-0.095	-0.069	
27.865	0.602	-0.062	
27.870	-0.266	-0.009	
27.875	-0.320	0.007	
27.880	0.512	-0.004	
27.885	-0.032	0.022	
27.890	-0.390	0.033	
27.895	0.489	0.018	
27.900	0.530	0.059	
27.905	-0.338	0.124	
27.910	0.039	0.128	
27.915	0.736	0.128	
27.920	-0.187	0.166	
27.925	-0.199	0.161	
27.930	0.712	0.135	
27.935	0.044	0.156	
27.940	-0.388	0.156	
27.945	0.350	0.110	
27.950	0.392	0.099	
27.955	-0.376	0.111	
27.960	0.015	0.080	
27.965	0.672	0.065	
27.970	-0.228	0.098	
27.975	-0.266	0.094	
27.980	0.588	0.066	
27.985	0.030	0.084	
27.990	-0.284	0.094	
27.995	0.829	0.095	
28.000	1.181	0.196	
28.005	0.325	0.371	
28.010	0.955	0.518	
28.015	1.225	0.654	
28.020	-0.274	0.744	
28.025	-0.544	0.658	
28.030	-0.165	0.423	
28.035	-0.494	0.167	
28.040	-0.726	-0.077	
28.045	-0.063	-0.275	
28.050	0.169	-0.353	
28.055	-0.399	-0.332	
28.060	0.072	-0.286	
28.065	0.829	-0.184	
28.070	-0.103	-0.025	
28.075	-0.055	0.084	
28.080	1.014	0.159	
28.085	0.365	0.275	
28.090	-0.187	0.353	
28.095	0.782	0.362	
28.100	0.814	0.400	
28.105	-0.139	0.450	
28.110	0.495	0.439	
28.115	1.194	0.447	
28.120	0.177	0.510	
28.125	0.227	0.528	
28.130	1.321	0.530	
28.135	0.748	0.600	
28.140	0.165	0.661	
28.145	1.298	0.679	
28.150	1.381	0.754	
28.155	0.374	0.856	
28.160	1.063	0.895	
28.165	1.723	0.944	
28.170	0.667	1.033	
28.175	0.629	1.056	
28.180	1.611	1.036	
28.185	0.870	1.052	
28.190	0.174	1.029	
28.195	1.123	0.936	
28.200	0.942	0.872	
28.205	-0.141	0.812	
28.210	0.362	0.680	
28.215	0.932	0.559	
28.220	-0.110	0.494	
28.225	-0.121	0.398	
28.230	0.765	0.297	
28.235	0.067	0.260	
28.240	-0.329	0.220	
28.245	0.458	0.154	
28.250	0.440	0.140	
28.255	-0.344	0.154	
28.260	0.042	0.122	
28.265	0.643	0.102	
28.270	-0.236	0.124	
28.275	-0.193	0.110	
28.280	0.680	0.086	
28.285	-0.008	0.112	
28.290	-0.361	0.118	
28.295	0.414	0.084	
28.300	0.348	0.090	
28.305	-0.379	0.110	
28.310	0.003	0.081	
28.315	0.611	0.062	
28.320	-0.254	0.086	
28.325	-0.223	0.077	
28.330	0.628	0.055	
28.335	-0.037	0.080	
28.340	-0.375	0.085	
28.345	0.366	0.053	
28.350	0.318	0.059	
28.355	-0.378	0.079	
28.360	0.032	0.056	
28.365	0.631	0.049	
28.370	-0.240	0.085	
28.375	-0.185	0.085	
28.380	0.702	0.074	
28.385	0.046	0.113	
28.390	-0.306	0.134	
28.395	0.490	0.116	
28.400	0.363	0.134	
28.405	-0.416	0.155	
28.410	-0.075	0.111	
28.415	0.446	0.064	
28.420	-0.339	0.051	
28.425	-0.292	0.011	
28.430	0.496	-0.031	
28.435	-0.116	-0.018	
28.440	-0.405	-0.016	
28.445	0.321	-0.039	
28.450	0.292	-0.019	
28.455	-0.338	0.020	
28.460	0.340	0.034	
28.465	1.251	0.108	
28.470	0.461	0.277	
28.475	0.637	0.438	
28.480	1.410	0.582	
28.485	0.127	0.711	
28.490	-0.561	0.694	
28.495	-0.286	0.498	
28.500	-0.448	0.237	
28.505	-0.921	-0.032	
28.510	-0.503	-0.287	
28.515	-0.083	-0.453	
28.520	-0.520	-0.505	
28.525	-0.414	-0.509	
28.530	0.334	-0.463	
28.535	-0.196	-0.353	
28.540	-0.465	-0.257	
28.545	0.238	-0.204	
28.550	0.194	-0.131	
28.555	-0.433	-0.061	
28.560	-0.038	-0.049	
28.565	0.539	-0.032	
28.570	-0.294	0.016	
28.575	-0.243	0.024	
28.580	0.579	0.014	
28.585	-0.075	0.045	
28.590	-0.356	0.055	
28.595	0.490	0.037	
28.600	0.453	0.070	
28.605	-0.281	0.125	
28.610	0.299	0.138	
28.615	0.880	0.174	
28.620	-0.104	0.250	
28.625	-0.026	0.271	
28.630	0.952	0.268	
28.635	0.241	0.315	
28.640	-0.203	0.336	
28.645	0.707	0.310	
28.650	0.547	0.321	
28.655	-0.327	0.335	
28.660	0.027	0.276	
28.665	0.481	0.206	
28.670	-0.393	0.161	
28.675	-0.398	0.077	
28.680	0.159	-0.026	
28.685	-0.350	-0.092	
28.690	-0.640	-0.162	
28.695	-0.138	-0.248	
28.700	-0.226	-0.297	
28.705	-0.732	-0.328	
28.710	-0.388	-0.378	
28.715	-0.103	-0.407	
28.720	-0.643	-0.404	
28.725	-0.590	-0.419	
28.730	-0.109	-0.438	
28.735	-0.504	-0.427	
28.740	-0.761	-0.430	
28.745	-0.245	-0.456	
28.750	-0.303	-0.457	
28.755	-0.773	-0.448	
28.760	-0.417	-0.465	
28.765	-0.124	-0.468	
28.770	-0.657	-0.444	
28.775	-0.610	-0.445	
28.780	-0.113	-0.455	
28.785	-0.475	-0.436	
28.790	-0.706	-0.428	
28.795	-0.162	-0.440	
28.800	-0.219	-0.422	
28.805	-0.708	-0.396	
28.810	-0.335	-0.401	
28.815	-0.025	-0.394	
28.820	-0.573	-0.362	
28.825	-0.492	-0.356	
28.830	0.105	-0.355	
28.835	-0.364	-0.318	
28.840	-0.617	-0.299	
28.845	-0.031	-0.309	
28.850	-0.115	-0.294	
28.855	-0.617	-0.273	
28.860	-0.242	-0.285	
28.865	0.107	-0.285	
28.870	-0.553	-0.259	
28.875	-0.503	-0.268	
28.880	0.026	-0.293	
28.885	-0.408	-0.291	
28.890	-0.680	-0.305	
28.895	-0.150	-0.343	
28.900	-0.219	-0.354	
28.905	-0.692	-0.353	
28.910	-0.306	-0.376	
28.915	0.035	-0.376	
28.920	-0.527	-0.342	
28.925	-0.353	-0.325	
28.930	0.563	-0.288	
28.935	0.027	-0.180	
28.940	-0.229	-0.075	
28.945	0.664	0.001	
28.950	0.128	0.095	
28.955	-0.760	0.131	
28.960	-0.627	0.031	
28.965	-0.501	-0.139	
28.970	-0.993	-0.319	
28.975	-0.886	-0.504	
