Vernier Format 2
ecg2.txt 10/18/2025 9:9:1
Run 1
Time	Potential	EKG	
T	P	E	
s	mV	mV	

0.000	-0.163	-0.008	
0.005	-0.117	-0.030	
0.010	-0.224	-0.065	
0.015	-0.201	-0.105	
0.020	-0.073	-0.138	
0.025	-0.195	-0.153	
0.030	-0.186	-0.163	
0.035	0.125	-0.158	
0.040	0.381	-0.106	
0.045	0.419	-0.000	
0.050	0.694	0.140	
0.055	0.549	0.292	
0.060	-0.220	0.385	
0.065	-0.590	0.338	
0.070	-0.707	0.155	
0.075	-0.816	-0.094	
0.080	-0.785	-0.343	
0.085	-0.485	-0.534	
0.090	-0.308	-0.625	
0.095	-0.253	-0.617	
0.100	-0.076	-0.540	
0.105	0.177	-0.413	
0.110	0.033	-0.260	
0.115	0.122	-0.120	
0.120	0.363	0.000	
0.125	0.190	0.108	
0.130	0.149	0.182	
0.135	0.433	0.227	
0.140	0.416	0.274	
0.145	0.203	0.314	
0.150	0.383	0.331	
0.155	0.509	0.347	
0.160	0.349	0.371	
0.165	0.500	0.393	
0.170	0.808	0.431	
0.175	0.748	0.502	
0.180	0.722	0.584	
0.185	1.035	0.666	
0.190	1.084	0.762	
0.195	0.831	0.855	
0.200	0.928	0.912	
0.205	0.947	0.939	
0.210	0.558	0.936	
0.215	0.399	0.875	
0.220	0.424	0.765	
0.225	0.049	0.630	
0.230	-0.143	0.465	
0.235	-0.095	0.282	
0.240	-0.162	0.118	
0.245	-0.339	-0.020	
0.250	-0.322	-0.137	
0.255	-0.305	-0.229	
0.260	-0.441	-0.295	
0.265	-0.427	-0.348	
0.270	-0.335	-0.385	
0.275	-0.406	-0.401	
0.280	-0.436	-0.408	
0.285	-0.302	-0.409	
0.290	-0.317	-0.397	
0.295	-0.422	-0.380	
0.300	-0.326	-0.371	
0.305	-0.264	-0.359	
0.310	-0.381	-0.344	
0.315	-0.352	-0.337	
0.320	-0.235	-0.332	
0.325	-0.311	-0.321	
0.330	-0.335	-0.311	
0.335	-0.178	-0.302	
0.340	-0.171	-0.282	
0.345	-0.290	-0.257	
0.350	-0.204	-0.242	
0.355	-0.145	-0.228	
0.360	-0.276	-0.215	
0.365	-0.206	-0.211	
0.370	-0.035	-0.203	
0.375	-0.116	-0.180	
0.380	-0.159	-0.155	
0.385	-0.014	-0.135	
0.390	-0.034	-0.110	
0.395	-0.177	-0.089	
0.400	-0.093	-0.085	
0.405	-0.029	-0.085	
0.410	-0.221	-0.087	
0.415	-0.241	-0.104	
0.420	-0.137	-0.133	
0.425	-0.209	-0.155	
0.430	-0.271	-0.176	
0.435	-0.125	-0.194	
0.440	-0.124	-0.197	
0.445	-0.221	-0.189	
0.450	0.032	-0.175	
0.455	0.447	-0.123	
0.460	0.399	-0.013	
0.465	0.486	0.123	
0.470	0.405	0.249	
0.475	-0.230	0.315	
0.480	-0.636	0.257	
0.485	-0.712	0.079	
0.490	-0.747	-0.153	
0.495	-0.790	-0.377	
0.500	-0.531	-0.549	
0.505	-0.282	-0.631	
0.510	-0.258	-0.617	
0.515	-0.122	-0.539	
0.520	0.175	-0.416	
0.525	0.102	-0.264	
0.530	0.035	-0.121	
0.535	0.305	-0.006	
0.540	0.340	0.097	
0.545	0.133	0.181	
0.550	0.346	0.233	
0.555	0.495	0.276	
0.560	0.230	0.319	
0.565	0.312	0.340	
0.570	0.559	0.352	
0.575	0.415	0.379	
0.580	0.381	0.403	
0.585	0.730	0.429	
0.590	0.811	0.485	
0.595	0.642	0.561	
0.600	0.905	0.633	
0.605	1.078	0.715	
0.610	0.794	0.801	
0.615	0.768	0.854	
0.620	0.939	0.873	
0.625	0.610	0.872	
0.630	0.325	0.825	
0.635	0.416	0.727	
0.640	0.216	0.608	
0.645	-0.133	0.470	
0.650	-0.102	0.309	
0.655	-0.095	0.152	
0.660	-0.299	0.020	
0.665	-0.314	-0.095	
0.670	-0.206	-0.186	
0.675	-0.322	-0.245	
0.680	-0.404	-0.287	
0.685	-0.288	-0.320	
0.690	-0.305	-0.336	
0.695	-0.427	-0.343	
0.700	-0.320	-0.352	
0.705	-0.249	-0.352	
0.710	-0.343	-0.340	
0.715	-0.331	-0.330	
0.720	-0.206	-0.320	
0.725	-0.276	-0.303	
0.730	-0.326	-0.289	
0.735	-0.172	-0.279	
0.740	-0.178	-0.262	
0.745	-0.290	-0.243	
0.750	-0.166	-0.232	
0.755	-0.053	-0.214	
0.760	-0.174	-0.187	
0.765	-0.148	-0.164	
0.770	0.001	-0.144	
0.775	-0.128	-0.121	
0.780	-0.197	-0.107	
0.785	-0.029	-0.107	
0.790	-0.014	-0.099	
0.795	-0.151	-0.086	
0.800	-0.047	-0.081	
0.805	0.046	-0.073	
0.810	-0.124	-0.059	
0.815	-0.122	-0.056	
0.820	-0.008	-0.062	
0.825	-0.156	-0.067	
0.830	-0.241	-0.083	
0.835	-0.119	-0.110	
0.840	-0.099	-0.130	
0.845	-0.224	-0.141	
0.850	-0.119	-0.151	
0.855	-0.027	-0.151	
0.860	-0.146	-0.137	
0.865	-0.047	-0.123	
0.870	0.416	-0.085	
0.875	0.416	0.005	
0.880	0.340	0.122	
0.885	0.399	0.225	
0.890	-0.140	0.281	
0.895	-0.642	0.232	
0.900	-0.776	0.064	
0.905	-0.714	-0.165	
0.910	-0.715	-0.381	
0.915	-0.509	-0.540	
0.920	-0.201	-0.608	
0.925	-0.130	-0.577	
0.930	-0.066	-0.479	
0.935	0.326	-0.340	
0.940	0.384	-0.164	
0.945	0.137	0.010	
0.950	0.300	0.138	
0.955	0.514	0.233	
0.960	0.264	0.310	
0.965	0.361	0.356	
0.970	0.616	0.386	
0.975	0.479	0.426	
0.980	0.349	0.455	
0.985	0.639	0.469	
0.990	0.637	0.494	
0.995	0.517	0.527	
1.000	0.785	0.560	
1.005	1.021	0.616	
1.010	0.844	0.699	
1.015	0.968	0.781	
1.020	1.139	0.858	
1.025	1.049	0.935	
1.030	0.899	0.992	
1.035	1.094	1.018	
1.040	0.931	1.029	
1.045	0.488	1.003	
1.050	0.453	0.914	
1.055	0.408	0.785	
1.060	-0.015	0.634	
1.065	-0.110	0.456	
1.070	-0.050	0.270	
1.075	-0.224	0.109	
1.080	-0.366	-0.030	
1.085	-0.265	-0.149	
1.090	-0.261	-0.234	
1.095	-0.389	-0.286	
1.100	-0.310	-0.322	
1.105	-0.274	-0.339	
1.110	-0.390	-0.342	
1.115	-0.351	-0.346	
1.120	-0.224	-0.344	
1.125	-0.300	-0.331	
1.130	-0.358	-0.318	
1.135	-0.226	-0.310	
1.140	-0.210	-0.296	
1.145	-0.343	-0.280	
1.150	-0.232	-0.273	
1.155	-0.102	-0.261	
1.160	-0.259	-0.239	
1.165	-0.217	-0.223	
1.170	-0.032	-0.207	
1.175	-0.120	-0.180	
1.180	-0.217	-0.156	
1.185	-0.072	-0.144	
1.190	-0.079	-0.132	
1.195	-0.250	-0.124	
1.200	-0.096	-0.128	
1.205	0.065	-0.124	
1.210	-0.073	-0.101	
1.215	-0.070	-0.078	
1.220	0.116	-0.057	
1.225	-0.005	-0.029	
1.230	-0.107	-0.010	
1.235	0.037	-0.007	
1.240	-0.037	-0.007	
1.245	-0.212	-0.018	
1.250	-0.142	-0.047	
1.255	-0.117	-0.082	
1.260	-0.246	-0.112	
1.265	-0.207	-0.144	
1.270	-0.046	-0.166	
1.275	-0.111	-0.165	
1.280	-0.149	-0.153	
1.285	0.233	-0.127	
1.290	0.532	-0.052	
1.295	0.544	0.080	
1.300	0.796	0.241	
1.305	0.674	0.406	
1.310	-0.195	0.502	
1.315	-0.581	0.442	
1.320	-0.663	0.239	
1.325	-0.782	-0.030	
1.330	-0.753	-0.294	
1.335	-0.462	-0.496	
1.340	-0.250	-0.593	
1.345	-0.244	-0.587	
1.350	-0.060	-0.513	
1.355	0.160	-0.391	
1.360	0.052	-0.244	
1.365	0.099	-0.110	
1.370	0.384	0.005	
1.375	0.256	0.113	
1.380	0.139	0.193	
1.385	0.427	0.241	
1.390	0.515	0.289	
1.395	0.287	0.340	
1.400	0.501	0.376	
1.405	0.680	0.415	
1.410	0.413	0.463	
1.415	0.558	0.496	
1.420	0.930	0.534	
1.425	0.837	0.604	
1.430	0.683	0.679	
1.435	1.070	0.742	
1.440	1.131	0.818	
1.445	0.855	0.898	
1.450	0.979	0.947	
1.455	1.050	0.975	
1.460	0.630	0.980	
1.465	0.453	0.929	
1.470	0.524	0.828	
1.475	0.174	0.702	
1.480	-0.095	0.547	
1.485	-0.055	0.366	
1.490	-0.124	0.195	
1.495	-0.316	0.046	
1.500	-0.241	-0.082	
1.505	-0.201	-0.175	
1.510	-0.361	-0.236	
1.515	-0.370	-0.281	
1.520	-0.258	-0.315	
1.525	-0.346	-0.330	
1.530	-0.418	-0.340	
1.535	-0.300	-0.350	
1.540	-0.277	-0.350	
1.545	-0.364	-0.342	
1.550	-0.276	-0.334	
1.555	-0.191	-0.320	
1.560	-0.306	-0.298	
1.565	-0.322	-0.284	
1.570	-0.165	-0.276	
1.575	-0.220	-0.262	
1.580	-0.293	-0.248	
1.585	-0.117	-0.238	
1.590	-0.102	-0.218	
1.595	-0.235	-0.194	
1.600	-0.133	-0.178	
1.605	0.009	-0.161	
1.610	-0.162	-0.135	
1.615	-0.162	-0.120	
1.620	0.011	-0.112	
1.625	-0.063	-0.097	
1.630	-0.137	-0.083	
1.635	0.038	-0.075	
1.640	0.050	-0.057	
1.645	-0.194	-0.041	
1.650	-0.098	-0.045	
1.655	-0.002	-0.057	
1.660	-0.172	-0.065	
1.665	-0.192	-0.082	
1.670	-0.064	-0.103	
1.675	-0.159	-0.117	
1.680	-0.236	-0.131	
1.685	-0.052	-0.145	
1.690	-0.003	-0.141	
1.695	-0.076	-0.119	
1.700	0.287	-0.080	
1.705	0.724	0.010	
1.710	0.639	0.162	
1.715	0.622	0.328	
1.720	0.422	0.455	
1.725	-0.268	0.489	
1.730	-0.639	0.381	
1.735	-0.650	0.156	
1.740	-0.621	-0.101	
1.745	-0.625	-0.325	
1.750	-0.403	-0.480	
1.755	-0.146	-0.541	
1.760	-0.136	-0.509	
1.765	-0.032	-0.420	
1.770	0.343	-0.292	
1.775	0.273	-0.133	
1.780	0.203	0.021	
1.785	0.489	0.146	
1.790	0.486	0.258	
1.795	0.229	0.343	
1.800	0.428	0.385	
1.805	0.631	0.414	
1.810	0.323	0.444	
1.815	0.344	0.452	
1.820	0.686	0.451	
1.825	0.643	0.476	
1.830	0.538	0.516	
1.835	0.815	0.558	
1.840	0.864	0.615	
1.845	0.622	0.676	
1.850	0.872	0.719	
1.855	1.102	0.767	
1.860	0.837	0.830	
1.865	0.797	0.872	
1.870	0.892	0.886	
1.875	0.596	0.875	
1.880	0.236	0.816	
1.885	0.338	0.701	
1.890	0.194	0.566	
1.895	-0.131	0.423	
1.900	-0.140	0.265	
1.905	-0.125	0.113	
1.910	-0.290	-0.014	
1.915	-0.329	-0.121	
1.920	-0.194	-0.204	
1.925	-0.265	-0.253	
1.930	-0.358	-0.280	
1.935	-0.232	-0.298	
1.940	-0.232	-0.300	
1.945	-0.349	-0.294	
1.950	-0.270	-0.292	
1.955	-0.169	-0.286	
1.960	-0.276	-0.271	
1.965	-0.276	-0.260	
1.970	-0.111	-0.250	
1.975	-0.203	-0.231	
1.980	-0.316	-0.217	
1.985	-0.153	-0.216	
1.990	-0.120	-0.210	
1.995	-0.247	-0.198	
2.000	-0.156	-0.191	
2.005	-0.050	-0.180	
2.010	-0.182	-0.162	
2.015	-0.148	-0.149	
2.020	0.021	-0.136	
2.025	-0.073	-0.113	
2.030	-0.160	-0.094	
2.035	0.011	-0.085	
2.040	0.004	-0.071	
2.045	-0.153	-0.057	
2.050	-0.060	-0.056	
2.055	0.037	-0.057	
2.060	-0.131	-0.052	
2.065	-0.154	-0.057	
2.070	-0.015	-0.070	
2.075	-0.136	-0.079	
2.080	-0.242	-0.093	
2.085	-0.099	-0.116	
2.090	-0.072	-0.129	
2.095	-0.217	-0.133	
2.100	-0.052	-0.136	
2.105	0.259	-0.116	
2.110	0.204	-0.053	
2.115	0.360	0.035	
2.120	0.701	0.147	
2.125	0.412	0.275	
2.130	-0.134	0.351	
2.135	-0.317	0.316	
2.140	-0.520	0.181	
2.145	-0.704	-0.014	
2.150	-0.599	-0.224	
2.155	-0.399	-0.392	
2.160	-0.346	-0.483	
2.165	-0.195	-0.498	
2.170	0.131	-0.441	
2.175	0.146	-0.322	
2.180	0.068	-0.181	
2.185	0.413	-0.047	
2.190	0.463	0.091	
2.195	0.206	0.213	
2.200	0.376	0.292	
2.205	0.567	0.347	
2.210	0.326	0.395	
2.215	0.319	0.416	
2.220	0.625	0.423	
2.225	0.512	0.445	
2.230	0.334	0.465	
2.235	0.607	0.471	
2.240	0.697	0.491	
2.245	0.509	0.526	
2.250	0.732	0.559	
2.255	0.998	0.609	
2.260	0.782	0.683	
2.265	0.776	0.748	
2.270	0.924	0.792	
2.275	0.694	0.820	
2.280	0.451	0.810	
2.285	0.623	0.758	
2.290	0.511	0.695	
2.295	0.076	0.615	
2.300	0.073	0.496	
2.305	0.130	0.362	
2.310	-0.131	0.239	
2.315	-0.204	0.119	
2.320	-0.116	0.007	
2.325	-0.250	-0.080	
2.330	-0.335	-0.153	
2.335	-0.195	-0.211	
2.340	-0.207	-0.244	
2.345	-0.366	-0.261	
2.350	-0.271	-0.276	
2.355	-0.174	-0.283	
2.360	-0.299	-0.276	
2.365	-0.293	-0.271	
2.370	-0.136	-0.266	
2.375	-0.192	-0.249	
2.380	-0.262	-0.231	
2.385	-0.111	-0.217	
2.390	-0.079	-0.197	
2.395	-0.213	-0.173	
2.400	-0.119	-0.158	
2.405	-0.021	-0.143	
2.410	-0.195	-0.126	
2.415	-0.169	-0.121	
2.420	0.038	-0.119	
2.425	-0.044	-0.103	
2.430	-0.163	-0.085	
2.435	0.001	-0.078	
2.440	0.050	-0.065	
2.445	-0.116	-0.048	
2.450	-0.020	-0.039	
2.455	0.180	-0.027	
2.460	-0.058	-0.003	
2.465	-0.101	0.008	
2.470	0.056	0.002	
2.475	-0.082	-0.004	
2.480	-0.209	-0.021	
2.485	-0.084	-0.053	
2.490	-0.056	-0.078	
2.495	-0.198	-0.095	
2.500	-0.125	-0.112	
2.505	-0.023	-0.122	
2.510	-0.107	-0.117	
2.515	0.000	-0.104	
2.520	0.447	-0.062	
2.525	0.415	0.030	
2.530	0.312	0.143	
2.535	0.395	0.238	
2.540	-0.058	0.289	
2.545	-0.492	0.251	
2.550	-0.587	0.111	
2.555	-0.500	-0.078	
2.560	-0.515	-0.254	
2.565	-0.403	-0.383	
2.570	-0.101	-0.441	
2.575	-0.055	-0.419	
2.580	-0.116	-0.346	
2.585	0.139	-0.253	
2.590	0.247	-0.141	
2.595	-0.018	-0.032	
2.600	0.160	0.044	
2.605	0.416	0.107	
2.610	0.209	0.173	
2.615	0.171	0.220	
2.620	0.509	0.252	
2.625	0.404	0.294	
2.630	0.206	0.331	
2.635	0.486	0.348	
2.640	0.537	0.371	
2.645	0.322	0.401	
2.650	0.543	0.421	
2.655	0.826	0.456	
2.660	0.642	0.520	
2.665	0.643	0.583	
2.670	0.930	0.638	
2.675	0.779	0.699	
2.680	0.584	0.741	
2.685	0.785	0.751	
2.690	0.729	0.751	
2.695	0.314	0.730	
2.700	0.290	0.661	
2.705	0.380	0.564	
2.710	-0.021	0.459	
2.715	-0.125	0.333	
2.720	-0.011	0.196	
2.725	-0.133	0.080	
2.730	-0.276	-0.017	
2.735	-0.182	-0.102	
2.740	-0.188	-0.163	
2.745	-0.343	-0.204	
2.750	-0.273	-0.240	
2.755	-0.156	-0.261	
2.760	-0.273	-0.263	
2.765	-0.281	-0.261	
2.770	-0.130	-0.256	
2.775	-0.194	-0.240	
2.780	-0.267	-0.224	
2.785	-0.117	-0.214	
2.790	-0.052	-0.195	
2.795	-0.223	-0.170	
2.800	-0.148	-0.156	
2.805	-0.017	-0.145	
2.810	-0.182	-0.130	
2.815	-0.151	-0.123	
2.820	0.072	-0.116	
2.825	-0.012	-0.092	
2.830	-0.148	-0.068	
2.835	0.012	-0.057	
2.840	0.068	-0.044	
2.845	-0.120	-0.028	
2.850	-0.040	-0.025	
2.855	0.169	-0.020	
2.860	-0.046	-0.002	
2.865	-0.082	0.007	
2.870	0.158	0.007	
2.875	0.014	0.018	
2.880	-0.156	0.021	
2.885	-0.040	0.003	
2.890	-0.009	-0.017	
2.895	-0.185	-0.036	
2.900	-0.128	-0.061	
2.905	-0.008	-0.083	
2.910	-0.163	-0.093	
2.915	-0.175	-0.104	
2.920	0.024	-0.113	
2.925	0.055	-0.100	
2.930	0.076	-0.065	
2.935	0.515	-0.003	
2.940	0.646	0.109	
2.945	0.216	0.238	
2.950	-0.069	0.303	
2.955	-0.325	0.269	
2.960	-0.671	0.138	
2.965	-0.747	-0.063	
2.970	-0.550	-0.276	
2.975	-0.462	-0.436	
2.980	-0.360	-0.519	
2.985	-0.052	-0.521	
2.990	0.174	-0.439	
2.995	0.047	-0.302	
3.000	0.213	-0.157	
3.005	0.393	-0.016	
3.010	0.192	0.111	
3.015	0.216	0.199	
3.020	0.508	0.257	
3.025	0.398	0.314	
3.030	0.230	0.355	
3.035	0.506	0.372	
3.040	0.579	0.396	
3.045	0.338	0.427	
3.050	0.518	0.445	
3.055	0.808	0.473	
3.060	0.581	0.524	
3.065	0.611	0.572	
3.070	0.979	0.618	
3.075	0.918	0.688	
3.080	0.750	0.759	
3.085	1.017	0.813	
3.090	1.020	0.865	
3.095	0.700	0.904	
3.100	0.755	0.903	
3.105	0.819	0.875	
3.110	0.410	0.830	
3.115	0.168	0.737	
3.120	0.253	0.602	
3.125	0.021	0.456	
3.130	-0.182	0.306	
3.135	-0.111	0.154	
3.140	-0.145	0.026	
3.145	-0.328	-0.075	
3.150	-0.276	-0.161	
3.155	-0.204	-0.224	
3.160	-0.339	-0.260	
3.165	-0.354	-0.287	
3.170	-0.212	-0.305	
3.175	-0.276	-0.307	
3.180	-0.372	-0.303	
3.185	-0.244	-0.304	
3.190	-0.210	-0.297	
3.195	-0.329	-0.285	
3.200	-0.250	-0.278	
3.205	-0.130	-0.268	
3.210	-0.259	-0.249	
3.215	-0.255	-0.235	
3.220	-0.084	-0.224	
3.225	-0.146	-0.204	
3.230	-0.244	-0.185	
3.235	-0.076	-0.174	
3.240	-0.035	-0.157	
3.245	-0.182	-0.134	
3.250	-0.102	-0.122	
3.255	0.065	-0.108	
3.260	-0.099	-0.084	
3.265	-0.122	-0.069	
3.270	0.094	-0.060	
3.275	0.014	-0.041	
3.280	-0.119	-0.024	
3.285	0.033	-0.020	
3.290	0.023	-0.016	
3.295	-0.168	-0.015	
3.300	-0.139	-0.032	
3.305	-0.053	-0.058	
3.310	-0.203	-0.081	
3.315	-0.212	-0.108	
3.320	-0.027	-0.132	
3.325	-0.107	-0.136	
3.330	-0.213	-0.134	
3.335	-0.009	-0.134	
3.340	0.241	-0.108	
3.345	0.262	-0.042	
3.350	0.628	0.063	
3.355	0.886	0.214	
3.360	0.363	0.376	
3.365	-0.229	0.450	
3.370	-0.499	0.376	
3.375	-0.755	0.179	
3.380	-0.854	-0.083	
3.385	-0.602	-0.338	
3.390	-0.380	-0.513	
3.395	-0.322	-0.583	
3.400	-0.116	-0.562	
3.405	0.157	-0.466	
3.410	0.018	-0.323	
3.415	0.061	-0.181	
3.420	0.421	-0.052	
3.425	0.320	0.077	
3.430	0.133	0.182	
3.435	0.410	0.245	
3.440	0.460	0.297	
3.445	0.221	0.339	
3.450	0.389	0.356	
3.455	0.657	0.376	
3.460	0.454	0.415	
3.465	0.422	0.450	
3.470	0.811	0.481	
3.475	0.822	0.540	
3.480	0.744	0.617	
3.485	1.101	0.698	
3.490	1.226	0.802	
3.495	0.977	0.914	
3.500	1.053	0.995	
3.505	1.213	1.050	
3.510	0.860	1.083	
3.515	0.684	1.067	
3.520	0.780	1.001	
3.525	0.445	0.907	
3.530	0.024	0.772	
3.535	0.093	0.591	
3.540	-0.018	0.401	
3.545	-0.241	0.225	
3.550	-0.242	0.063	
3.555	-0.192	-0.071	
3.560	-0.334	-0.168	
3.565	-0.381	-0.242	
3.570	-0.246	-0.296	
3.575	-0.325	-0.323	
3.580	-0.418	-0.337	
3.585	-0.294	-0.349	
3.590	-0.258	-0.349	
3.595	-0.381	-0.339	
3.600	-0.317	-0.334	
3.605	-0.194	-0.325	
3.610	-0.308	-0.308	
3.615	-0.323	-0.295	
3.620	-0.160	-0.285	
3.625	-0.207	-0.267	
3.630	-0.305	-0.250	
3.635	-0.159	-0.240	
3.640	-0.111	-0.225	
3.645	-0.233	-0.204	
3.650	-0.156	-0.190	
3.655	0.001	-0.173	
3.660	-0.119	-0.146	
3.665	-0.143	-0.123	
3.670	0.030	-0.106	
3.675	-0.035	-0.084	
3.680	-0.139	-0.065	
3.685	0.033	-0.057	
3.690	0.120	-0.041	
3.695	-0.078	-0.016	
3.700	-0.024	-0.003	
3.705	0.076	0.001	
3.710	-0.153	0.002	
3.715	-0.213	-0.019	
3.720	-0.043	-0.054	
3.725	-0.089	-0.079	
3.730	-0.207	-0.097	
3.735	-0.095	-0.115	
3.740	-0.052	-0.124	
3.745	-0.168	-0.122	
3.750	0.009	-0.116	
3.755	0.518	-0.075	
3.760	0.584	0.035	
3.765	0.716	0.193	
3.770	0.936	0.371	
3.775	0.290	0.523	
3.780	-0.401	0.553	
3.785	-0.582	0.415	
3.790	-0.681	0.167	
3.795	-0.785	-0.112	
3.800	-0.602	-0.360	
3.805	-0.334	-0.523	
3.810	-0.297	-0.579	
3.815	-0.162	-0.550	
3.820	0.248	-0.451	
3.825	0.274	-0.291	
3.830	0.125	-0.116	
3.835	0.422	0.035	
3.840	0.541	0.172	
3.845	0.265	0.290	
3.850	0.405	0.362	
3.855	0.634	0.410	
3.860	0.416	0.454	
3.865	0.372	0.477	
3.870	0.672	0.485	
3.875	0.614	0.506	
3.880	0.462	0.533	
3.885	0.802	0.555	
3.890	0.936	0.602	
3.895	0.747	0.672	
3.900	0.953	0.739	
3.905	1.206	0.813	
3.910	0.994	0.900	
3.915	0.877	0.965	
3.920	1.085	0.996	
3.925	0.883	1.008	
3.930	0.498	0.983	
3.935	0.534	0.900	
3.940	0.392	0.784	
3.945	-0.002	0.643	
3.950	-0.024	0.471	
3.955	0.017	0.299	
3.960	-0.198	0.150	
3.965	-0.294	0.018	
3.970	-0.215	-0.097	
3.975	-0.285	-0.182	
3.980	-0.398	-0.244	
3.985	-0.261	-0.292	
3.990	-0.227	-0.315	
3.995	-0.361	-0.317	
4.000	-0.290	-0.317	
4.005	-0.171	-0.310	
4.010	-0.305	-0.292	
4.015	-0.323	-0.281	
4.020	-0.171	-0.275	
4.025	-0.198	-0.261	
4.030	-0.287	-0.246	
4.035	-0.153	-0.235	
4.040	-0.114	-0.219	
4.045	-0.239	-0.200	
4.050	-0.166	-0.188	
4.055	-0.031	-0.176	
4.060	-0.139	-0.154	
4.065	-0.146	-0.136	
4.070	0.041	-0.120	
4.075	-0.017	-0.094	
4.080	-0.143	-0.070	
4.085	0.006	-0.059	
4.090	0.068	-0.046	
4.095	-0.110	-0.029	
4.100	-0.063	-0.025	
4.105	0.113	-0.025	
4.110	-0.072	-0.015	
4.115	-0.128	-0.015	
4.120	0.014	-0.027	
4.125	-0.082	-0.036	
4.130	-0.221	-0.051	
4.135	-0.114	-0.079	
4.140	-0.055	-0.101	
4.145	-0.183	-0.112	
4.150	-0.143	-0.123	
4.155	0.006	-0.127	
4.160	-0.078	-0.115	
4.165	0.033	-0.093	
4.170	0.517	-0.042	
4.175	0.581	0.067	
4.180	0.416	0.205	
4.185	0.372	0.317	
4.190	-0.122	0.362	
4.195	-0.581	0.296	
4.200	-0.689	0.118	
4.205	-0.602	-0.109	
4.210	-0.604	-0.316	
4.215	-0.479	-0.465	
4.220	-0.159	-0.532	
4.225	-0.041	-0.505	
4.230	-0.082	-0.414	
4.235	0.219	-0.292	
4.240	0.369	-0.145	
4.245	0.139	0.005	
4.250	0.290	0.121	
4.255	0.553	0.214	
4.260	0.376	0.302	
4.265	0.273	0.363	
4.270	0.492	0.391	
4.275	0.428	0.410	
4.280	0.311	0.421	
4.285	0.608	0.425	
4.290	0.735	0.453	
4.295	0.508	0.502	
4.300	0.678	0.546	
4.305	0.944	0.596	
4.310	0.811	0.667	
4.315	0.785	0.733	
4.320	1.091	0.790	
4.325	0.974	0.855	
4.330	0.655	0.899	
4.335	0.784	0.897	
4.340	0.751	0.867	
4.345	0.311	0.812	
4.350	0.309	0.713	
4.355	0.393	0.594	
4.360	0.017	0.477	
4.365	-0.146	0.344	
4.370	-0.050	0.200	
4.375	-0.182	0.073	
4.380	-0.346	-0.038	
4.385	-0.261	-0.138	
4.390	-0.232	-0.213	
4.395	-0.383	-0.261	
4.400	-0.335	-0.298	
4.405	-0.244	-0.321	
4.410	-0.343	-0.327	
4.415	-0.358	-0.329	
4.420	-0.198	-0.327	
4.425	-0.232	-0.312	
4.430	-0.349	-0.293	
4.435	-0.210	-0.282	
4.440	-0.160	-0.268	
4.445	-0.299	-0.250	
4.450	-0.253	-0.241	
4.455	-0.127	-0.236	
4.460	-0.238	-0.224	
4.465	-0.270	-0.217	
4.470	-0.098	-0.214	
4.475	-0.131	-0.200	
4.480	-0.230	-0.184	
4.485	-0.073	-0.173	
4.490	0.026	-0.151	
4.495	-0.162	-0.122	
4.500	-0.108	-0.103	
4.505	0.059	-0.090	
4.510	-0.095	-0.070	
4.515	-0.124	-0.060	
4.520	0.056	-0.057	
4.525	-0.052	-0.047	
4.530	-0.218	-0.046	
4.535	-0.120	-0.065	
4.540	-0.087	-0.088	
4.545	-0.252	-0.108	
4.550	-0.188	-0.134	
4.555	-0.093	-0.155	
4.560	-0.207	-0.164	
4.565	-0.255	-0.173	
4.570	-0.076	-0.182	
4.575	-0.041	-0.174	
4.580	-0.017	-0.146	
4.585	0.459	-0.087	
4.590	0.681	0.031	
4.595	0.358	0.183	
4.600	-0.003	0.289	
4.605	-0.296	0.290	
4.610	-0.694	0.178	
4.615	-0.843	-0.027	
4.620	-0.669	-0.263	
4.625	-0.587	-0.459	
4.630	-0.509	-0.579	
4.635	-0.201	-0.614	
4.640	0.024	-0.559	
4.645	-0.052	-0.439	
4.650	0.107	-0.297	
4.655	0.412	-0.146	
4.660	0.232	0.009	
4.665	0.198	0.133	
4.670	0.521	0.222	
4.675	0.463	0.304	
4.680	0.232	0.365	
4.685	0.425	0.391	
4.690	0.465	0.402	
4.695	0.314	0.411	
4.700	0.482	0.412	
4.705	0.764	0.430	
4.710	0.605	0.481	
4.715	0.599	0.536	
4.720	0.945	0.590	
4.725	0.927	0.666	
4.730	0.788	0.746	
4.735	1.078	0.813	
4.740	1.120	0.883	
4.745	0.745	0.942	
4.750	0.724	0.951	
4.755	0.803	0.918	
4.760	0.422	0.860	
4.765	0.168	0.756	
4.770	0.287	0.614	
4.775	0.017	0.465	
4.780	-0.233	0.311	
4.785	-0.180	0.148	
4.790	-0.194	0.004	
4.795	-0.360	-0.110	
4.800	-0.339	-0.203	
4.805	-0.253	-0.271	
4.810	-0.390	-0.312	
4.815	-0.427	-0.341	
4.820	-0.277	-0.363	
4.825	-0.319	-0.367	
4.830	-0.416	-0.362	
4.835	-0.288	-0.360	
4.840	-0.227	-0.348	
4.845	-0.349	-0.329	
4.850	-0.310	-0.316	
4.855	-0.178	-0.304	
4.860	-0.281	-0.285	
4.865	-0.320	-0.273	
4.870	-0.198	-0.268	
4.875	-0.207	-0.259	
4.880	-0.294	-0.248	
4.885	-0.137	-0.240	
4.890	-0.095	-0.223	
4.895	-0.217	-0.198	
4.900	-0.136	-0.180	
4.905	0.015	-0.160	
4.910	-0.125	-0.131	
4.915	-0.157	-0.111	
4.920	0.044	-0.098	
4.925	-0.015	-0.078	
4.930	-0.125	-0.059	
4.935	0.004	-0.051	
4.940	0.044	-0.041	
4.945	-0.169	-0.032	
4.950	-0.154	-0.042	
4.955	-0.044	-0.064	
4.960	-0.171	-0.081	
4.965	-0.229	-0.104	
4.970	-0.058	-0.127	
4.975	-0.105	-0.136	
4.980	-0.224	-0.138	
4.985	-0.079	-0.143	
4.990	0.044	-0.134	
4.995	0.017	-0.104	
5.000	0.424	-0.047	
5.005	0.925	0.072	
5.010	0.741	0.257	
5.015	0.354	0.427	
5.020	-0.069	0.496	
5.025	-0.528	0.424	
5.030	-0.840	0.220	
5.035	-0.744	-0.057	
5.040	-0.575	-0.317	
5.045	-0.523	-0.498	
5.050	-0.299	-0.583	
5.055	-0.047	-0.572	
5.060	-0.058	-0.481	
5.065	0.011	-0.355	
5.070	0.367	-0.212	
5.075	0.309	-0.054	
5.080	0.114	0.084	
5.085	0.387	0.180	
5.090	0.498	0.257	
5.095	0.223	0.322	
5.100	0.367	0.355	
5.105	0.634	0.379	
5.110	0.421	0.416	
5.115	0.358	0.442	
5.120	0.718	0.459	
5.125	0.715	0.498	
5.130	0.576	0.551	
5.135	0.947	0.605	
5.140	1.125	0.686	
5.145	0.918	0.789	
5.150	1.012	0.877	
5.155	1.259	0.953	
5.160	0.983	1.022	
5.165	0.822	1.054	
5.170	0.974	1.042	
5.175	0.701	1.003	
5.180	0.248	0.921	
5.185	0.300	0.779	
5.190	0.194	0.614	
5.195	-0.156	0.444	
5.200	-0.172	0.265	
5.205	-0.117	0.100	
5.210	-0.302	-0.033	
5.215	-0.395	-0.143	
5.220	-0.261	-0.234	
5.225	-0.313	-0.292	
5.230	-0.432	-0.327	
5.235	-0.316	-0.353	
5.240	-0.262	-0.362	
5.245	-0.392	-0.356	
5.250	-0.323	-0.351	
5.255	-0.200	-0.341	
5.260	-0.305	-0.320	
5.265	-0.348	-0.304	
5.270	-0.186	-0.295	
5.275	-0.210	-0.279	
5.280	-0.320	-0.262	
5.285	-0.186	-0.254	
5.290	-0.131	-0.241	
5.295	-0.270	-0.223	
5.300	-0.203	-0.213	
5.305	-0.072	-0.204	
5.310	-0.192	-0.186	
5.315	-0.206	-0.174	
5.320	-0.018	-0.164	
5.325	-0.061	-0.143	
5.330	-0.168	-0.121	
5.335	-0.002	-0.106	
5.340	0.105	-0.082	
5.345	-0.095	-0.050	
5.350	-0.012	-0.029	
5.355	0.186	-0.011	
5.360	-0.085	0.013	
5.365	-0.159	0.016	
5.370	-0.012	-0.005	
5.375	-0.104	-0.028	
5.380	-0.239	-0.055	
5.385	-0.111	-0.090	
5.390	-0.067	-0.115	
5.395	-0.212	-0.127	
5.400	-0.131	-0.139	
5.405	0.075	-0.137	
5.410	0.006	-0.110	
5.415	0.239	-0.061	
5.420	0.797	0.033	
5.425	0.823	0.196	
5.430	0.505	0.376	
5.435	0.184	0.488	
5.440	-0.300	0.480	
5.445	-0.710	0.335	
5.450	-0.770	0.087	
5.455	-0.624	-0.183	
5.460	-0.593	-0.403	
5.465	-0.450	-0.541	
5.470	-0.128	-0.584	
5.475	-0.029	-0.531	
5.480	-0.063	-0.418	
5.485	0.270	-0.281	
5.490	0.416	-0.120	
5.495	0.197	0.041	
5.500	0.328	0.165	
5.505	0.582	0.262	
5.510	0.357	0.346	
5.515	0.306	0.398	
5.520	0.608	0.423	
5.525	0.529	0.451	
5.530	0.376	0.477	
5.535	0.651	0.490	
5.540	0.802	0.521	
5.545	0.590	0.571	
5.550	0.785	0.618	
5.555	1.142	0.679	
5.560	0.994	0.772	
5.565	0.947	0.863	
5.570	1.244	0.939	
5.575	1.108	1.013	
5.580	0.779	1.058	
5.585	0.892	1.049	
5.590	0.805	1.006	
5.595	0.329	0.930	
5.600	0.224	0.799	
5.605	0.268	0.635	
5.610	-0.079	0.469	
5.615	-0.229	0.295	
5.620	-0.157	0.123	
5.625	-0.206	-0.019	
5.630	-0.348	-0.127	
5.635	-0.255	-0.211	
5.640	-0.239	-0.263	
5.645	-0.375	-0.292	
5.650	-0.313	-0.312	
5.655	-0.185	-0.319	
5.660	-0.306	-0.309	
5.665	-0.352	-0.300	
5.670	-0.210	-0.297	
5.675	-0.262	-0.288	
5.680	-0.351	-0.281	
5.685	-0.209	-0.279	
5.690	-0.153	-0.270	
5.695	-0.281	-0.252	
5.700	-0.209	-0.239	
5.705	-0.075	-0.224	
5.710	-0.183	-0.201	
5.715	-0.212	-0.182	
5.720	-0.020	-0.168	
5.725	-0.044	-0.144	
5.730	-0.166	-0.118	
5.735	-0.018	-0.102	
5.740	0.088	-0.080	
5.745	-0.107	-0.053	
5.750	-0.024	-0.036	
5.755	0.212	-0.019	
5.760	-0.014	0.011	
5.765	-0.075	0.029	
5.770	0.157	0.032	
5.775	0.044	0.041	
5.780	-0.148	0.042	
5.785	-0.038	0.021	
5.790	-0.021	-0.004	
5.795	-0.192	-0.028	
5.800	-0.134	-0.060	
5.805	-0.023	-0.087	
5.810	-0.169	-0.100	
5.815	-0.188	-0.113	
5.820	0.001	-0.124	
5.825	0.075	-0.112	
5.830	0.120	-0.072	
5.835	0.607	0.003	
5.840	0.825	0.139	
5.845	0.477	0.306	
5.850	0.148	0.421	
5.855	-0.197	0.426	
5.860	-0.622	0.310	
5.865	-0.781	0.093	
5.870	-0.622	-0.160	
5.875	-0.523	-0.372	
5.880	-0.454	-0.506	
5.885	-0.143	-0.551	
5.890	0.122	-0.500	
5.895	-0.015	-0.379	
5.900	0.172	-0.237	
5.905	0.460	-0.087	
5.910	0.265	0.065	
5.915	0.198	0.183	
5.920	0.527	0.262	
5.925	0.469	0.332	
5.930	0.258	0.385	
5.935	0.532	0.410	
5.940	0.631	0.436	
5.945	0.364	0.469	
5.950	0.509	0.484	
5.955	0.741	0.500	
5.960	0.627	0.537	
5.965	0.663	0.578	
5.970	1.041	0.630	
5.975	1.024	0.713	
5.980	0.832	0.803	
5.985	1.108	0.875	
5.990	1.188	0.944	
5.995	0.825	1.002	
6.000	0.820	1.015	
6.005	0.922	0.990	
6.010	0.529	0.942	
6.015	0.250	0.848	
6.020	0.340	0.708	
6.025	0.111	0.557	
6.030	-0.172	0.398	
6.035	-0.090	0.231	
6.040	-0.093	0.086	
6.045	-0.291	-0.028	
6.050	-0.290	-0.123	
6.055	-0.182	-0.195	
6.060	-0.316	-0.240	
6.065	-0.390	-0.273	
6.070	-0.232	-0.300	
6.075	-0.247	-0.309	
6.080	-0.348	-0.306	
6.085	-0.207	-0.301	
6.090	-0.139	-0.284	
6.095	-0.290	-0.260	
6.100	-0.249	-0.244	
6.105	-0.131	-0.234	
6.110	-0.250	-0.221	
6.115	-0.271	-0.215	
6.120	-0.105	-0.214	
6.125	-0.139	-0.203	
6.130	-0.274	-0.190	
6.135	-0.116	-0.186	
6.140	0.017	-0.172	
6.145	-0.133	-0.143	
6.150	-0.069	-0.118	
6.155	0.117	-0.090	
6.160	-0.095	-0.057	
6.165	-0.142	-0.040	
6.170	0.107	-0.037	
6.175	0.073	-0.022	
6.180	-0.079	-0.002	
6.185	0.090	0.008	
6.190	0.143	0.023	
6.195	-0.116	0.038	
6.200	-0.108	0.029	
6.205	0.003	0.004	
6.210	-0.140	-0.020	
6.215	-0.200	-0.050	
6.220	-0.050	-0.083	
6.225	-0.081	-0.101	
6.230	-0.197	-0.111	
6.235	-0.041	-0.119	
6.240	0.117	-0.108	
6.245	0.035	-0.072	
6.250	0.372	-0.016	
6.255	0.867	0.091	
6.260	0.735	0.258	
6.265	0.364	0.417	
6.270	-0.006	0.485	
6.275	-0.462	0.424	
6.280	-0.782	0.237	
6.285	-0.721	-0.025	
6.290	-0.566	-0.279	
6.295	-0.491	-0.460	
6.300	-0.259	-0.547	
6.305	0.055	-0.534	
6.310	0.011	-0.435	
6.315	0.052	-0.300	
6.320	0.421	-0.154	
6.325	0.387	0.006	
6.330	0.187	0.147	
6.335	0.486	0.247	
6.340	0.569	0.330	
6.345	0.297	0.399	
6.350	0.419	0.432	
6.355	0.658	0.451	
6.360	0.448	0.478	
6.365	0.424	0.495	
6.370	0.779	0.507	
6.375	0.780	0.547	
6.380	0.605	0.602	
6.385	0.944	0.653	
6.390	1.120	0.724	
6.395	0.924	0.815	
6.400	1.043	0.895	
6.405	1.233	0.964	
6.410	0.985	1.028	
6.415	0.849	1.056	
6.420	1.027	1.047	
6.425	0.750	1.017	
6.430	0.372	0.949	
6.435	0.450	0.830	
6.440	0.329	0.692	
6.445	-0.069	0.544	
6.450	-0.128	0.374	
6.455	-0.069	0.203	
6.460	-0.261	0.058	
6.465	-0.335	-0.067	
6.470	-0.215	-0.169	
6.475	-0.276	-0.236	
6.480	-0.390	-0.279	
6.485	-0.268	-0.310	
6.490	-0.217	-0.320	
6.495	-0.342	-0.315	
6.500	-0.288	-0.309	
6.505	-0.160	-0.298	
6.510	-0.271	-0.279	
6.515	-0.322	-0.265	
6.520	-0.160	-0.259	
6.525	-0.195	-0.247	
6.530	-0.303	-0.235	
6.535	-0.178	-0.231	
6.540	-0.090	-0.221	
6.545	-0.236	-0.203	
6.550	-0.198	-0.191	
6.555	-0.072	-0.183	
6.560	-0.157	-0.168	
6.565	-0.166	-0.155	
6.570	0.035	-0.141	
6.575	-0.018	-0.114	
6.580	-0.159	-0.086	
6.585	-0.017	-0.073	
6.590	0.052	-0.060	
6.595	-0.116	-0.044	
6.600	-0.032	-0.037	
6.605	0.161	-0.028	
6.610	-0.070	-0.008	
6.615	-0.154	-0.003	
6.620	-0.050	-0.020	
6.625	-0.159	-0.043	
6.630	-0.259	-0.076	
6.635	-0.125	-0.115	
6.640	-0.079	-0.140	
6.645	-0.236	-0.151	
6.650	-0.172	-0.161	
6.655	-0.002	-0.164	
6.660	-0.075	-0.146	
6.665	0.040	-0.116	
6.670	0.663	-0.049	
6.675	0.852	0.096	
6.680	0.684	0.290	
6.685	0.596	0.462	
6.690	-0.038	0.546	
6.695	-0.592	0.483	
6.700	-0.768	0.271	
6.705	-0.712	-0.014	
6.710	-0.723	-0.286	
6.715	-0.582	-0.494	
6.720	-0.256	-0.603	
6.725	-0.154	-0.604	
6.730	-0.195	-0.527	
6.735	0.107	-0.413	
6.740	0.311	-0.265	
6.745	0.111	-0.105	
6.750	0.241	0.029	
6.755	0.524	0.141	
6.760	0.326	0.245	
6.765	0.238	0.316	
6.770	0.530	0.354	
6.775	0.471	0.389	
6.780	0.271	0.415	
6.785	0.505	0.421	
6.790	0.622	0.434	
6.795	0.418	0.460	
6.800	0.643	0.485	
6.805	1.005	0.533	
6.810	0.855	0.620	
6.815	0.820	0.711	
6.820	1.119	0.792	
6.825	1.018	0.873	
6.830	0.733	0.932	
6.835	0.898	0.944	
6.840	0.867	0.933	
6.845	0.424	0.896	
6.850	0.317	0.807	
6.855	0.361	0.679	
6.860	-0.027	0.538	
6.865	-0.192	0.374	
6.870	-0.104	0.201	
6.875	-0.223	0.050	
6.880	-0.395	-0.077	
6.885	-0.308	-0.186	
6.890	-0.270	-0.265	
6.895	-0.421	-0.313	
6.900	-0.378	-0.348	
6.905	-0.256	-0.367	
6.910	-0.360	-0.366	
6.915	-0.399	-0.362	
6.920	-0.241	-0.357	
6.925	-0.265	-0.342	
6.930	-0.364	-0.324	
6.935	-0.239	-0.312	
6.940	-0.166	-0.295	
6.945	-0.294	-0.272	
6.950	-0.218	-0.256	
6.955	-0.076	-0.238	
6.960	-0.194	-0.211	
6.965	-0.223	-0.191	
6.970	-0.047	-0.177	
6.975	-0.111	-0.157	
6.980	-0.226	-0.142	
6.985	-0.102	-0.138	
6.990	-0.040	-0.133	
6.995	-0.189	-0.123	
7.000	-0.128	-0.120	
7.005	0.056	-0.115	
7.010	-0.105	-0.097	
7.015	-0.153	-0.084	
7.020	0.035	-0.079	
7.025	-0.052	-0.069	
7.030	-0.192	-0.063	
7.035	-0.096	-0.073	
7.040	-0.076	-0.086	
7.045	-0.246	-0.099	
7.050	-0.197	-0.122	
7.055	-0.044	-0.143	
7.060	-0.168	-0.148	
7.065	-0.215	-0.150	
7.070	-0.043	-0.153	
7.075	-0.061	-0.143	
7.080	-0.099	-0.124	
7.085	0.322	-0.089	
7.090	0.657	0.000	
7.095	0.472	0.141	
7.100	0.430	0.278	
7.105	0.151	0.363	
7.110	-0.419	0.352	
7.115	-0.724	0.216	
7.120	-0.704	-0.009	
7.125	-0.677	-0.248	
7.130	-0.648	-0.444	
7.135	-0.355	-0.566	
7.140	-0.134	-0.591	
7.145	-0.151	-0.529	
7.150	0.024	-0.421	
7.155	0.361	-0.278	
7.160	0.215	-0.112	
7.165	0.172	0.035	
7.170	0.486	0.149	
7.175	0.430	0.250	
7.180	0.174	0.324	
7.185	0.393	0.354	
7.190	0.552	0.374	
7.195	0.314	0.398	
7.200	0.407	0.409	
7.205	0.681	0.423	
7.210	0.503	0.457	
7.215	0.500	0.490	
7.220	0.890	0.526	
7.225	0.904	0.594	
7.230	0.719	0.675	
7.235	0.983	0.744	
7.240	1.091	0.815	
7.245	0.814	0.883	
7.250	0.838	0.918	
7.255	0.965	0.925	
7.260	0.596	0.913	
7.265	0.309	0.852	
7.270	0.410	0.740	
7.275	0.160	0.608	
7.280	-0.143	0.458	
7.285	-0.064	0.291	
7.290	-0.073	0.139	
7.295	-0.284	0.016	
7.300	-0.281	-0.090	
7.305	-0.192	-0.173	
7.310	-0.325	-0.228	
7.315	-0.390	-0.270	
7.320	-0.256	-0.303	
7.325	-0.281	-0.318	
7.330	-0.398	-0.323	
7.335	-0.267	-0.328	
7.340	-0.201	-0.322	
7.345	-0.339	-0.306	
7.350	-0.273	-0.295	
7.355	-0.130	-0.282	
7.360	-0.246	-0.259	
7.365	-0.282	-0.242	
7.370	-0.120	-0.232	
7.375	-0.134	-0.214	
7.380	-0.247	-0.195	
7.385	-0.096	-0.184	
7.390	-0.006	-0.164	
7.395	-0.163	-0.137	
7.400	-0.101	-0.118	
7.405	0.099	-0.100	
7.410	-0.052	-0.070	
7.415	-0.111	-0.048	
7.420	0.105	-0.036	
7.425	0.052	-0.016	
7.430	-0.113	0.001	
7.435	0.027	0.002	
7.440	0.107	0.005	
7.445	-0.111	0.011	
7.450	-0.096	0.002	
7.455	0.020	-0.015	
7.460	-0.142	-0.031	
7.465	-0.226	-0.055	
7.470	-0.044	-0.086	
7.475	-0.089	-0.104	
7.480	-0.244	-0.115	
7.485	-0.102	-0.131	
7.490	0.032	-0.134	
7.495	-0.049	-0.114	
7.500	0.238	-0.076	
7.505	0.672	0.008	
7.510	0.515	0.144	
7.515	0.253	0.275	
7.520	-0.008	0.335	
7.525	-0.387	0.296	
7.530	-0.694	0.154	
7.535	-0.637	-0.055	
7.540	-0.500	-0.262	
7.545	-0.494	-0.414	
7.550	-0.293	-0.494	
7.555	0.006	-0.492	
7.560	-0.015	-0.414	
7.565	0.030	-0.299	
7.570	0.376	-0.168	
7.575	0.340	-0.020	
7.580	0.174	0.113	
7.585	0.444	0.209	
7.590	0.558	0.293	
7.595	0.285	0.365	
7.600	0.373	0.402	
7.605	0.636	0.424	
7.610	0.399	0.450	
7.615	0.308	0.460	
7.620	0.639	0.457	
7.625	0.587	0.471	
7.630	0.469	0.496	
7.635	0.784	0.524	
7.640	0.965	0.579	
7.645	0.768	0.660	
7.650	0.919	0.736	
7.655	1.163	0.811	
7.660	0.899	0.890	
7.665	0.732	0.935	
7.670	0.944	0.937	
7.675	0.712	0.919	
7.680	0.258	0.861	
7.685	0.322	0.746	
7.690	0.268	0.605	
7.695	-0.069	0.461	
7.700	-0.111	0.306	
7.705	-0.043	0.157	
7.710	-0.207	0.037	
7.715	-0.311	-0.065	
7.720	-0.183	-0.149	
7.725	-0.233	-0.205	
7.730	-0.357	-0.242	
7.735	-0.232	-0.269	
7.740	-0.182	-0.279	
7.745	-0.343	-0.276	
7.750	-0.291	-0.277	
7.755	-0.145	-0.276	
7.760	-0.249	-0.262	
7.765	-0.290	-0.250	
7.770	-0.156	-0.244	
7.775	-0.195	-0.232	
7.780	-0.284	-0.222	
7.785	-0.140	-0.218	
7.790	-0.061	-0.204	
7.795	-0.206	-0.181	
7.800	-0.185	-0.167	
7.805	0.006	-0.156	
7.810	-0.093	-0.133	
7.815	-0.151	-0.113	
7.820	0.029	-0.099	
7.825	-0.026	-0.080	
7.830	-0.166	-0.064	
7.835	-0.023	-0.062	
7.840	0.058	-0.057	
7.845	-0.120	-0.045	
7.850	-0.101	-0.044	
7.855	0.062	-0.047	
7.860	-0.107	-0.044	
7.865	-0.203	-0.051	
7.870	-0.061	-0.071	
7.875	-0.102	-0.088	
7.880	-0.238	-0.103	
7.885	-0.111	-0.123	
7.890	-0.041	-0.134	
7.895	-0.206	-0.132	
7.900	-0.133	-0.135	
7.905	0.082	-0.129	
7.910	0.003	-0.100	
7.915	0.081	-0.060	
7.920	0.501	0.001	
7.925	0.466	0.103	
7.930	0.087	0.204	
7.935	-0.149	0.239	
7.940	-0.462	0.181	
7.945	-0.803	0.032	
7.950	-0.813	-0.180	
7.955	-0.584	-0.390	
7.960	-0.509	-0.536	
7.965	-0.354	-0.599	
7.970	-0.011	-0.576	
7.975	0.154	-0.469	
7.980	0.061	-0.313	
7.985	0.331	-0.151	
7.990	0.462	0.012	
7.995	0.232	0.158	
8.000	0.355	0.260	
8.005	0.593	0.333	
8.010	0.367	0.395	
8.015	0.271	0.427	
8.020	0.582	0.432	
8.025	0.537	0.446	
8.030	0.354	0.464	
8.035	0.598	0.471	
8.040	0.748	0.494	
8.045	0.590	0.538	
8.050	0.774	0.585	
8.055	1.082	0.649	
8.060	0.968	0.741	
8.065	0.904	0.830	
8.070	1.236	0.906	
8.075	1.128	0.984	
8.080	0.771	1.037	
8.085	0.872	1.036	
8.090	0.852	0.999	
8.095	0.413	0.935	
8.100	0.308	0.822	
8.105	0.367	0.679	
8.110	-0.029	0.531	
8.115	-0.198	0.365	
8.120	-0.117	0.191	
8.125	-0.195	0.041	
8.130	-0.345	-0.080	
8.135	-0.258	-0.177	
8.140	-0.217	-0.242	
8.145	-0.367	-0.278	
8.150	-0.334	-0.304	
8.155	-0.206	-0.318	
8.160	-0.313	-0.315	
8.165	-0.358	-0.310	
8.170	-0.218	-0.308	
8.175	-0.246	-0.298	
8.180	-0.375	-0.288	
8.185	-0.270	-0.289	
8.190	-0.182	-0.286	
8.195	-0.320	-0.276	
8.200	-0.253	-0.270	
8.205	-0.073	-0.258	
8.210	-0.194	-0.232	
8.215	-0.230	-0.209	
8.220	-0.034	-0.190	
8.225	-0.087	-0.164	
8.230	-0.206	-0.140	
8.235	-0.073	-0.128	
8.240	0.015	-0.115	
8.245	-0.143	-0.095	
8.250	-0.072	-0.084	
8.255	0.120	-0.071	
8.260	-0.096	-0.048	
8.265	-0.130	-0.037	
8.270	0.111	-0.036	
8.275	0.026	-0.024	
8.280	-0.171	-0.013	
8.285	-0.063	-0.023	
8.290	-0.043	-0.040	
8.295	-0.223	-0.057	
8.300	-0.185	-0.087	
8.305	-0.047	-0.114	
8.310	-0.178	-0.128	
8.315	-0.220	-0.140	
8.320	0.008	-0.148	
8.325	0.113	-0.129	
8.330	0.190	-0.076	
8.335	0.736	0.020	
8.340	1.001	0.187	
8.345	0.518	0.385	
8.350	-0.044	0.503	
8.355	-0.372	0.471	
8.360	-0.736	0.298	
8.365	-0.852	0.034	
8.370	-0.660	-0.246	
8.375	-0.529	-0.462	
8.380	-0.424	-0.582	
8.385	-0.124	-0.603	
8.390	0.152	-0.526	
8.395	0.023	-0.382	
8.400	0.152	-0.224	
8.405	0.447	-0.069	
8.410	0.290	0.081	
8.415	0.206	0.197	
8.420	0.540	0.275	
8.425	0.486	0.344	
8.430	0.280	0.397	
8.435	0.534	0.423	
8.440	0.627	0.449	
8.445	0.395	0.479	
8.450	0.550	0.496	
8.455	0.843	0.521	
8.460	0.710	0.573	
8.465	0.678	0.629	
8.470	1.073	0.685	
8.475	1.094	0.767	
8.480	0.927	0.859	
8.485	1.184	0.936	
8.490	1.281	1.013	
8.495	0.886	1.077	
8.500	0.811	1.088	
8.505	0.893	1.050	
8.510	0.465	0.978	
8.515	0.161	0.854	
8.520	0.227	0.682	
8.525	-0.049	0.498	
8.530	-0.281	0.309	
8.535	-0.218	0.120	
8.540	-0.201	-0.037	
8.545	-0.383	-0.154	
8.550	-0.369	-0.244	
8.555	-0.262	-0.308	
8.560	-0.361	-0.340	
8.565	-0.412	-0.358	
8.570	-0.270	-0.367	
8.575	-0.311	-0.363	
8.580	-0.422	-0.354	
8.585	-0.317	-0.352	
8.590	-0.238	-0.346	
8.595	-0.366	-0.333	
8.600	-0.299	-0.323	
8.605	-0.142	-0.310	
8.610	-0.246	-0.284	
8.615	-0.310	-0.263	
8.620	-0.142	-0.250	
8.625	-0.160	-0.233	
8.630	-0.258	-0.214	
8.635	-0.107	-0.202	
8.640	-0.008	-0.180	
8.645	-0.175	-0.150	
8.650	-0.143	-0.131	
8.655	0.040	-0.117	
8.660	-0.090	-0.095	
8.665	-0.140	-0.080	
8.670	0.059	-0.072	
8.675	-0.014	-0.057	
8.680	-0.159	-0.044	
8.685	-0.043	-0.047	
8.690	-0.024	-0.053	
8.695	-0.209	-0.059	
8.700	-0.192	-0.081	
8.705	-0.075	-0.107	
8.710	-0.172	-0.124	
8.715	-0.224	-0.139	
8.720	-0.064	-0.153	
8.725	-0.076	-0.151	
8.730	-0.169	-0.140	
8.735	0.099	-0.123	
8.740	0.444	-0.071	
8.745	0.405	0.033	
8.750	0.610	0.163	
8.755	0.735	0.306	
8.760	-0.037	0.414	
8.765	-0.496	0.399	
8.770	-0.608	0.242	
8.775	-0.726	0.008	
8.780	-0.808	-0.241	
8.785	-0.564	-0.453	
8.790	-0.314	-0.578	
8.795	-0.268	-0.600	
8.800	-0.082	-0.543	
8.805	0.306	-0.421	
8.810	0.187	-0.250	
8.815	0.149	-0.081	
8.820	0.479	0.061	
8.825	0.454	0.192	
8.830	0.238	0.296	
8.835	0.479	0.357	
8.840	0.655	0.407	
8.845	0.392	0.457	
8.850	0.472	0.485	
8.855	0.713	0.504	
8.860	0.550	0.534	
8.865	0.514	0.557	
8.870	0.870	0.579	
8.875	0.893	0.628	
8.880	0.756	0.693	
8.885	1.084	0.759	
8.890	1.241	0.843	
8.895	0.933	0.936	
8.900	0.942	0.996	
8.905	1.120	1.024	
8.910	0.761	1.030	
8.915	0.465	0.986	
8.920	0.558	0.887	
8.925	0.367	0.764	
8.930	-0.011	0.622	
8.935	0.023	0.454	
8.940	-0.003	0.289	
8.945	-0.226	0.145	
8.950	-0.252	0.015	
8.955	-0.191	-0.094	
8.960	-0.314	-0.174	
8.965	-0.381	-0.237	
8.970	-0.242	-0.285	
8.975	-0.282	-0.309	
8.980	-0.403	-0.319	
8.985	-0.276	-0.329	
8.990	-0.217	-0.326	
8.995	-0.355	-0.314	
9.000	-0.306	-0.307	
9.005	-0.149	-0.299	
9.010	-0.252	-0.279	
9.015	-0.303	-0.262	
9.020	-0.153	-0.252	
9.025	-0.168	-0.236	
9.030	-0.252	-0.219	
9.035	-0.124	-0.207	
9.040	-0.055	-0.188	
9.045	-0.220	-0.165	
9.050	-0.172	-0.154	
9.055	-0.012	-0.147	
9.060	-0.122	-0.131	
9.065	-0.157	-0.118	
9.070	0.061	-0.107	
9.075	0.014	-0.083	
9.080	-0.157	-0.059	
9.085	-0.040	-0.052	
9.090	0.043	-0.048	
9.095	-0.154	-0.042	
9.100	-0.151	-0.051	
9.105	-0.032	-0.068	
9.110	-0.174	-0.082	
9.115	-0.221	-0.101	
9.120	-0.040	-0.123	
9.125	-0.079	-0.128	
9.130	-0.207	-0.126	
9.135	-0.052	-0.126	
9.140	0.065	-0.115	
9.145	-0.055	-0.087	
9.150	0.226	-0.049	
9.155	0.651	0.027	
9.160	0.448	0.151	
9.165	0.088	0.259	
9.170	-0.120	0.288	
9.175	-0.474	0.220	
9.180	-0.750	0.062	
9.185	-0.656	-0.148	
9.190	-0.486	-0.342	
9.195	-0.444	-0.470	
9.200	-0.236	-0.520	
9.205	0.032	-0.490	
9.210	0.043	-0.390	
9.215	0.070	-0.261	
9.220	0.410	-0.122	
9.225	0.378	0.028	
9.230	0.203	0.159	
9.235	0.471	0.252	
9.240	0.625	0.333	
9.245	0.319	0.406	
9.250	0.378	0.442	
9.255	0.651	0.458	
9.260	0.460	0.480	
9.265	0.380	0.492	
9.270	0.736	0.498	
9.275	0.736	0.528	
9.280	0.508	0.571	
9.285	0.797	0.604	
9.290	0.974	0.651	
9.295	0.800	0.717	
9.300	0.931	0.779	
9.305	1.215	0.845	
9.310	0.919	0.919	
9.315	0.691	0.958	
9.320	0.893	0.948	
9.325	0.694	0.914	
9.330	0.314	0.849	
9.335	0.352	0.737	
9.340	0.244	0.604	
9.345	-0.159	0.459	
9.350	-0.175	0.291	
9.355	-0.084	0.128	
9.360	-0.232	-0.003	
9.365	-0.334	-0.107	
9.370	-0.215	-0.190	
9.375	-0.267	-0.243	
9.380	-0.410	-0.278	
9.385	-0.322	-0.309	
9.390	-0.224	-0.326	
9.395	-0.364	-0.327	
9.400	-0.339	-0.326	
9.405	-0.215	-0.324	
9.410	-0.291	-0.312	
9.415	-0.328	-0.300	
9.420	-0.162	-0.290	
9.425	-0.172	-0.270	
9.430	-0.300	-0.247	
9.435	-0.156	-0.233	
9.440	-0.073	-0.215	
9.445	-0.236	-0.191	
9.450	-0.178	-0.178	
9.455	-0.009	-0.166	
9.460	-0.114	-0.144	
9.465	-0.169	-0.125	
9.470	0.055	-0.111	
9.475	0.009	-0.086	
9.480	-0.151	-0.062	
9.485	-0.021	-0.053	
9.490	0.076	-0.044	
9.495	-0.111	-0.031	
9.500	-0.087	-0.029	
9.505	0.059	-0.034	
9.510	-0.117	-0.033	
9.515	-0.232	-0.046	
9.520	-0.092	-0.075	
9.525	-0.124	-0.100	
9.530	-0.258	-0.121	
9.535	-0.107	-0.144	
9.540	-0.008	-0.151	
9.545	-0.154	-0.139	
9.550	-0.070	-0.125	
9.555	0.348	-0.093	
9.560	0.404	-0.012	
9.565	0.485	0.105	
9.570	0.857	0.246	
9.575	0.521	0.396	
9.580	-0.230	0.473	
9.585	-0.502	0.404	
9.590	-0.642	0.208	
9.595	-0.790	-0.045	
9.600	-0.651	-0.294	
9.605	-0.334	-0.474	
9.610	-0.236	-0.547	
9.615	-0.151	-0.526	
9.620	0.242	-0.432	
9.625	0.315	-0.276	
9.630	0.136	-0.102	
9.635	0.419	0.049	
9.640	0.593	0.186	
9.645	0.322	0.308	
9.650	0.419	0.388	
9.655	0.674	0.440	
9.660	0.405	0.485	
9.665	0.270	0.498	
9.670	0.639	0.486	
9.675	0.686	0.493	
9.680	0.485	0.521	
9.685	0.832	0.553	
9.690	1.009	0.613	
9.695	0.776	0.696	
9.700	0.899	0.768	
9.705	1.239	0.838	
9.710	1.099	0.924	
9.715	0.994	1.000	
9.720	1.245	1.053	
9.725	1.081	1.095	
9.730	0.732	1.105	
9.735	0.803	1.060	
9.740	0.736	0.984	
9.745	0.218	0.880	
9.750	0.107	0.726	
9.755	0.192	0.545	
9.760	-0.084	0.374	
9.765	-0.242	0.211	
9.770	-0.131	0.059	
9.775	-0.188	-0.058	
9.780	-0.335	-0.144	
9.785	-0.230	-0.210	
9.790	-0.217	-0.250	
9.795	-0.421	-0.274	
9.800	-0.392	-0.302	
9.805	-0.261	-0.328	
9.810	-0.360	-0.339	
9.815	-0.395	-0.345	
9.820	-0.207	-0.347	
9.825	-0.209	-0.331	
9.830	-0.323	-0.306	
9.835	-0.180	-0.285	
9.840	-0.107	-0.258	
9.845	-0.270	-0.228	
9.850	-0.185	-0.210	
9.855	-0.038	-0.193	
9.860	-0.099	-0.166	
9.865	-0.154	-0.140	
9.870	-0.006	-0.120	
9.875	-0.029	-0.098	
9.880	-0.168	-0.079	
9.885	-0.009	-0.073	
9.890	0.076	-0.061	
9.895	-0.117	-0.043	
9.900	-0.085	-0.037	
9.905	0.037	-0.039	
9.910	-0.125	-0.039	
9.915	-0.203	-0.051	
9.920	-0.034	-0.074	
9.925	-0.095	-0.088	
9.930	-0.220	-0.099	
9.935	-0.096	-0.115	
9.940	0.008	-0.121	
9.945	-0.204	-0.114	
9.950	-0.192	-0.117	
9.955	-0.073	-0.128	
9.960	-0.104	-0.130	
9.965	-0.017	-0.120	
9.970	0.497	-0.077	
9.975	0.745	0.038	
9.980	0.636	0.208	
9.985	0.605	0.375	
9.990	0.204	0.482	
9.995	-0.453	0.472	
10.000	-0.729	0.314	
10.005	-0.665	0.059	
10.010	-0.771	-0.207	
10.015	-0.701	-0.434	
10.020	-0.348	-0.582	
10.025	-0.175	-0.620	
10.030	-0.134	-0.563	
10.035	0.142	-0.445	
10.040	0.305	-0.283	
10.045	0.047	-0.115	
10.050	0.081	0.011	
10.055	0.372	0.098	
10.060	0.232	0.171	
10.065	0.110	0.219	
10.070	0.415	0.242	
10.075	0.512	0.276	
10.080	0.370	0.325	
10.085	0.556	0.373	
10.090	0.721	0.429	
10.095	0.441	0.490	
10.100	0.640	0.533	
10.105	1.012	0.582	
10.110	0.815	0.659	
10.115	0.831	0.736	
10.120	1.111	0.803	
10.125	1.087	0.879	
10.130	0.730	0.939	
10.135	0.870	0.953	
10.140	0.974	0.943	
10.145	0.601	0.922	
10.150	0.463	0.863	
10.155	0.529	0.770	
10.160	0.090	0.656	
10.165	-0.148	0.505	
10.170	-0.069	0.325	
10.175	-0.174	0.155	
10.180	-0.337	0.008	
10.185	-0.223	-0.115	
10.190	-0.210	-0.200	
10.195	-0.311	-0.249	
10.200	-0.334	-0.281	
10.205	-0.262	-0.302	
10.210	-0.331	-0.312	
10.215	-0.308	-0.316	
10.220	-0.235	-0.314	
10.225	-0.207	-0.301	
10.230	-0.363	-0.285	
10.235	-0.279	-0.281	
10.240	-0.203	-0.279	
10.245	-0.375	-0.275	
10.250	-0.305	-0.281	
10.255	-0.136	-0.283	
10.260	-0.241	-0.270	
10.265	-0.273	-0.255	
10.270	-0.087	-0.241	
10.275	-0.014	-0.210	
10.280	-0.188	-0.171	
10.285	0.015	-0.137	
10.290	0.107	-0.097	
10.295	-0.101	-0.054	
10.300	-0.108	-0.032	
10.305	0.093	-0.026	
10.310	-0.070	-0.018	
10.315	-0.153	-0.020	
10.320	-0.076	-0.038	
10.325	-0.060	-0.057	
10.330	-0.206	-0.074	
10.335	-0.084	-0.094	
10.340	-0.005	-0.104	
10.345	-0.192	-0.103	
10.350	-0.186	-0.110	
10.355	0.000	-0.119	
10.360	-0.104	-0.115	
10.365	-0.247	-0.113	
10.370	-0.046	-0.121	
10.375	0.183	-0.109	
10.380	0.139	-0.062	
10.385	0.462	0.015	
10.390	0.707	0.132	
10.395	0.495	0.274	
10.400	0.044	0.374	
10.405	-0.323	0.366	
10.410	-0.776	0.231	
10.415	-0.930	-0.007	
10.420	-0.720	-0.278	
10.425	-0.575	-0.496	
10.430	-0.433	-0.617	
10.435	-0.188	-0.639	
10.440	0.058	-0.566	
10.445	0.125	-0.423	
10.450	0.209	-0.251	
10.455	0.454	-0.074	
10.460	0.360	0.095	
10.465	0.294	0.228	
10.470	0.544	0.320	
10.475	0.596	0.398	
10.480	0.325	0.458	
10.485	0.491	0.483	
10.490	0.703	0.499	
10.495	0.482	0.524	
10.500	0.674	0.548	
10.505	1.015	0.590	
10.510	0.765	0.661	
10.515	0.573	0.719	
10.520	0.985	0.748	
10.525	1.066	0.790	
10.530	0.931	0.852	
10.535	1.166	0.914	
10.540	1.288	0.986	
10.545	1.014	1.059	
10.550	0.986	1.098	
10.555	1.107	1.103	
10.560	0.747	1.084	
10.565	0.410	1.014	
10.570	0.437	0.884	
10.575	0.123	0.723	
10.580	-0.239	0.530	
10.585	-0.186	0.313	
10.590	-0.165	0.112	
10.595	-0.342	-0.047	
10.600	-0.351	-0.171	
10.605	-0.200	-0.258	
10.610	-0.328	-0.303	
10.615	-0.410	-0.328	
10.620	-0.264	-0.345	
10.625	-0.246	-0.344	
10.630	-0.343	-0.331	
10.635	-0.261	-0.318	
10.640	-0.242	-0.304	
10.645	-0.372	-0.293	
10.650	-0.323	-0.294	
10.655	-0.188	-0.296	
10.660	-0.320	-0.289	
10.665	-0.345	-0.286	
10.670	-0.157	-0.286	
10.675	-0.209	-0.273	
10.680	-0.300	-0.257	
10.685	-0.177	-0.247	
10.690	-0.060	-0.229	
10.695	-0.102	-0.197	
10.700	-0.134	-0.163	
10.705	-0.061	-0.136	
10.710	-0.159	-0.117	
10.715	-0.174	-0.111	
10.720	-0.002	-0.112	
10.725	-0.089	-0.103	
10.730	-0.207	-0.098	
10.735	-0.050	-0.103	
10.740	0.037	-0.099	
10.745	-0.180	-0.086	
10.750	-0.182	-0.087	
10.755	-0.049	-0.099	
10.760	-0.119	-0.105	
10.765	-0.192	-0.110	
10.770	-0.105	-0.121	
10.775	-0.171	-0.130	
10.780	-0.299	-0.145	
10.785	-0.142	-0.168	
10.790	0.178	-0.167	
10.795	0.334	-0.110	
10.800	0.668	0.008	
10.805	1.003	0.188	
10.810	0.501	0.388	
10.815	-0.185	0.499	
10.820	-0.442	0.447	
10.825	-0.686	0.258	
10.830	-0.866	-0.006	
10.835	-0.703	-0.279	
10.840	-0.465	-0.488	
10.845	-0.398	-0.594	
10.850	-0.180	-0.603	
10.855	0.250	-0.520	
10.860	0.161	-0.361	
10.865	0.093	-0.185	
10.870	0.300	-0.035	
10.875	0.283	0.091	
10.880	0.081	0.179	
10.885	0.451	0.231	
10.890	0.671	0.290	
10.895	0.613	0.377	
10.900	0.492	0.460	
10.905	0.521	0.514	
10.910	0.245	0.528	
10.915	0.195	0.493	
10.920	0.636	0.443	
10.925	0.742	0.439	
10.930	0.633	0.483	
10.935	1.014	0.555	
10.940	1.143	0.663	
10.945	0.797	0.783	
10.950	0.843	0.863	
10.955	1.076	0.907	
10.960	0.834	0.938	
10.965	0.671	0.938	
10.970	0.848	0.904	
10.975	0.658	0.860	
10.980	0.215	0.790	
10.985	0.282	0.672	
10.990	0.279	0.539	
10.995	-0.117	0.408	
11.000	-0.191	0.261	
11.005	-0.127	0.112	
11.010	-0.274	-0.015	
11.015	-0.375	-0.123	
11.020	-0.238	-0.212	
11.025	-0.244	-0.267	
11.030	-0.352	-0.295	
11.035	-0.213	-0.307	
11.040	-0.168	-0.301	
11.045	-0.328	-0.282	
11.050	-0.274	-0.272	
11.055	-0.174	-0.265	
11.060	-0.335	-0.257	
11.065	-0.364	-0.261	
11.070	-0.127	-0.270	
11.075	-0.058	-0.256	
11.080	-0.154	-0.220	
11.085	-0.026	-0.180	
11.090	0.108	-0.131	
11.095	-0.021	-0.075	
11.100	0.075	-0.028	
11.105	0.261	0.019	
11.110	0.050	0.068	
11.115	-0.078	0.093	
11.120	0.101	0.088	
11.125	0.068	0.078	
11.130	-0.104	0.065	
11.135	-0.029	0.039	
11.140	-0.031	0.010	
11.145	-0.186	-0.019	
11.150	-0.168	-0.056	
11.155	-0.046	-0.090	
11.160	-0.201	-0.111	
11.165	-0.300	-0.136	
11.170	-0.153	-0.167	
11.175	-0.159	-0.187	
11.180	-0.244	-0.195	
11.185	-0.122	-0.198	
11.190	-0.046	-0.188	
11.195	-0.168	-0.166	
11.200	0.027	-0.141	
11.205	0.582	-0.081	
11.210	0.741	0.053	
11.215	0.584	0.231	
11.220	0.401	0.382	
11.225	-0.229	0.440	
11.230	-0.669	0.353	
11.235	-0.703	0.141	
11.240	-0.610	-0.113	
11.245	-0.605	-0.334	
11.250	-0.424	-0.485	
11.255	-0.153	-0.543	
11.260	-0.087	-0.509	
11.265	-0.011	-0.414	
11.270	0.468	-0.275	
11.275	0.549	-0.087	
11.280	0.213	0.103	
11.285	0.358	0.239	
11.290	0.450	0.326	
11.295	0.160	0.373	
11.300	0.192	0.372	
11.305	0.520	0.352	
11.310	0.392	0.352	
11.315	0.348	0.363	
11.320	0.691	0.384	
11.325	0.759	0.438	
11.330	0.579	0.512	
11.335	0.745	0.577	
11.340	0.934	0.641	
11.345	0.764	0.710	
11.350	0.825	0.765	
11.355	1.098	0.812	
11.360	0.925	0.868	
11.365	0.790	0.907	
11.370	1.032	0.923	
11.375	0.992	0.937	
11.380	0.556	0.936	
11.385	0.598	0.888	
11.390	0.466	0.802	
11.395	0.023	0.684	
11.400	-0.060	0.520	
11.405	0.003	0.340	
11.410	-0.238	0.175	
11.415	-0.313	0.025	
11.420	-0.191	-0.102	
11.425	-0.213	-0.187	
11.430	-0.320	-0.238	
11.435	-0.244	-0.270	
11.440	-0.156	-0.280	
11.445	-0.297	-0.273	
11.450	-0.290	-0.267	
11.455	-0.194	-0.264	
11.460	-0.302	-0.259	
11.465	-0.364	-0.262	
11.470	-0.204	-0.273	
11.475	-0.168	-0.271	
11.480	-0.252	-0.256	
11.485	-0.143	-0.240	
11.490	-0.044	-0.214	
11.495	-0.136	-0.179	
11.500	-0.114	-0.148	
11.505	0.030	-0.121	
11.510	-0.137	-0.095	
11.515	-0.212	-0.085	
11.520	-0.060	-0.093	
11.525	-0.046	-0.097	
11.530	-0.125	-0.094	
11.535	0.037	-0.087	
11.540	0.171	-0.062	
11.545	-0.069	-0.024	
11.550	-0.063	-0.002	
11.555	0.128	0.006	
11.560	-0.066	0.015	
11.565	-0.180	0.008	
11.570	-0.096	-0.021	
11.575	-0.133	-0.055	
11.580	-0.242	-0.089	
11.585	-0.136	-0.124	
11.590	-0.060	-0.145	
11.595	-0.195	-0.149	
11.600	-0.127	-0.150	
11.605	0.224	-0.134	
11.610	0.373	-0.069	
11.615	0.570	0.047	
11.620	1.040	0.213	
11.625	0.898	0.419	
11.630	0.006	0.574	
11.635	-0.349	0.570	
11.640	-0.564	0.405	
11.645	-0.837	0.142	
11.650	-0.776	-0.152	
11.655	-0.521	-0.403	
11.660	-0.442	-0.557	
11.665	-0.355	-0.611	
11.670	-0.084	-0.581	
11.675	-0.017	-0.485	
11.680	-0.114	-0.358	
11.685	0.094	-0.237	
11.690	0.326	-0.115	
11.695	0.070	0.004	
11.700	0.079	0.087	
11.705	0.325	0.137	
11.710	0.145	0.177	
11.715	0.062	0.195	
11.720	0.427	0.200	
11.725	0.465	0.229	
11.730	0.276	0.277	
11.735	0.534	0.320	
11.740	0.764	0.380	
11.745	0.562	0.460	
11.750	0.692	0.534	
11.755	0.988	0.607	
11.760	0.835	0.692	
11.765	0.710	0.762	
11.770	0.898	0.801	
11.775	0.877	0.829	
11.780	0.651	0.842	
11.785	0.750	0.828	
11.790	0.683	0.799	
11.795	0.279	0.748	
11.800	0.125	0.648	
11.805	0.148	0.510	
11.810	-0.145	0.361	
11.815	-0.299	0.201	
11.820	-0.207	0.041	
11.825	-0.265	-0.090	
11.830	-0.412	-0.191	
11.835	-0.328	-0.271	
11.840	-0.273	-0.322	
11.845	-0.407	-0.347	
11.850	-0.367	-0.362	
11.855	-0.255	-0.367	
11.860	-0.339	-0.358	
11.865	-0.401	-0.349	
11.870	-0.294	-0.346	
11.875	-0.281	-0.340	
11.880	-0.378	-0.331	
11.885	-0.265	-0.325	
11.890	-0.163	-0.312	
11.895	-0.294	-0.289	
11.900	-0.259	-0.271	
11.905	-0.114	-0.255	
11.910	-0.195	-0.231	
11.915	-0.238	-0.211	
11.920	-0.061	-0.196	
11.925	-0.072	-0.173	
11.930	-0.203	-0.148	
11.935	-0.113	-0.136	
11.940	-0.017	-0.125	
11.945	-0.157	-0.111	
11.950	-0.130	-0.105	
11.955	0.088	-0.097	
11.960	-0.034	-0.075	
11.965	-0.154	-0.057	
11.970	-0.035	-0.054	
11.975	-0.092	-0.058	
11.980	-0.249	-0.070	
11.985	-0.124	-0.096	
11.990	-0.049	-0.117	
11.995	-0.206	-0.125	
12.000	-0.159	-0.134	
12.005	-0.024	-0.139	
12.010	-0.125	-0.132	
12.015	-0.130	-0.122	
12.020	0.320	-0.098	
12.025	0.666	-0.014	
12.030	0.660	0.137	
12.035	0.912	0.319	
12.040	0.631	0.494	
12.045	-0.233	0.578	
12.050	-0.557	0.495	
12.055	-0.622	0.272	
12.060	-0.727	-0.005	
12.065	-0.689	-0.267	
12.070	-0.387	-0.462	
12.075	-0.209	-0.550	
12.080	-0.229	-0.539	
12.085	-0.029	-0.467	
12.090	0.216	-0.348	
12.095	0.024	-0.206	
12.100	0.113	-0.080	
12.105	0.376	0.025	
12.110	0.213	0.122	
12.115	0.136	0.191	
12.120	0.457	0.233	
12.125	0.457	0.280	
12.130	0.279	0.328	
12.135	0.521	0.362	
12.140	0.680	0.404	
12.145	0.401	0.455	
12.150	0.498	0.488	
12.155	0.855	0.518	
12.160	0.724	0.572	
12.165	0.640	0.629	
12.170	0.957	0.678	
12.175	0.976	0.739	
12.180	0.724	0.801	
12.185	0.895	0.836	
12.190	0.957	0.860	
12.195	0.588	0.869	
12.200	0.503	0.835	
12.205	0.578	0.764	
12.210	0.224	0.676	
12.215	-0.026	0.553	
12.220	0.064	0.402	
12.225	-0.079	0.254	
12.230	-0.299	0.117	
12.235	-0.233	-0.015	
12.240	-0.180	-0.120	
12.245	-0.334	-0.193	
12.250	-0.329	-0.247	
12.255	-0.201	-0.283	
12.260	-0.325	-0.298	
12.265	-0.375	-0.306	
12.270	-0.229	-0.314	
12.275	-0.235	-0.309	
12.280	-0.351	-0.298	
12.285	-0.221	-0.291	
12.290	-0.131	-0.277	
12.295	-0.268	-0.253	
12.300	-0.229	-0.236	
12.305	-0.070	-0.221	
12.310	-0.180	-0.198	
12.315	-0.239	-0.181	
12.320	-0.093	-0.174	
12.325	-0.095	-0.162	
12.330	-0.206	-0.149	
12.335	-0.075	-0.142	
12.340	0.047	-0.127	
12.345	-0.124	-0.100	
12.350	-0.124	-0.084	
12.355	0.084	-0.074	
12.360	-0.053	-0.055	
12.365	-0.143	-0.044	
12.370	0.044	-0.044	
12.375	0.004	-0.038	
12.380	-0.182	-0.034	
12.385	-0.111	-0.048	
12.390	-0.050	-0.066	
12.395	-0.226	-0.084	
12.400	-0.206	-0.109	
12.405	-0.024	-0.132	
12.410	-0.105	-0.136	
12.415	-0.198	-0.132	
12.420	-0.050	-0.132	
12.425	0.004	-0.121	
12.430	-0.017	-0.096	
12.435	0.444	-0.047	
12.440	0.751	0.061	
12.445	0.465	0.214	
12.450	0.085	0.331	
12.455	-0.215	0.347	
12.460	-0.578	0.248	
12.465	-0.743	0.056	
12.470	-0.585	-0.171	
12.475	-0.477	-0.361	
12.480	-0.432	-0.479	
12.485	-0.168	-0.518	
12.490	0.107	-0.472	
12.495	0.001	-0.360	
12.500	0.116	-0.229	
12.505	0.437	-0.091	
12.510	0.282	0.053	
12.515	0.209	0.169	
12.520	0.468	0.249	
12.525	0.488	0.318	
12.530	0.253	0.371	
12.535	0.483	0.397	
12.540	0.681	0.424	
12.545	0.393	0.463	
12.550	0.436	0.484	
12.555	0.747	0.498	
12.560	0.625	0.531	
12.565	0.588	0.568	
12.570	1.005	0.611	
12.575	0.991	0.685	
12.580	0.745	0.767	
12.585	0.957	0.825	
12.590	1.114	0.875	
12.595	0.785	0.921	
12.600	0.716	0.931	
12.605	0.866	0.906	
12.610	0.569	0.866	
12.615	0.277	0.792	
12.620	0.419	0.680	
12.625	0.227	0.562	
12.630	-0.101	0.435	
12.635	-0.047	0.292	
12.640	-0.063	0.156	
12.645	-0.246	0.041	
12.650	-0.294	-0.063	
12.655	-0.191	-0.149	
12.660	-0.343	-0.211	
12.665	-0.410	-0.262	
12.670	-0.232	-0.303	
12.675	-0.242	-0.319	
12.680	-0.381	-0.318	
12.685	-0.261	-0.318	
12.690	-0.166	-0.308	
12.695	-0.305	-0.288	
12.700	-0.282	-0.274	
12.705	-0.153	-0.263	
12.710	-0.241	-0.248	
12.715	-0.299	-0.238	
12.720	-0.114	-0.233	
12.725	-0.104	-0.216	
12.730	-0.233	-0.194	
12.735	-0.117	-0.179	
12.740	0.020	-0.159	
12.745	-0.131	-0.130	
12.750	-0.107	-0.107	
12.755	0.085	-0.089	
12.760	-0.056	-0.063	
12.765	-0.119	-0.045	
12.770	0.082	-0.038	
12.775	0.055	-0.023	
12.780	-0.134	-0.008	
12.785	-0.037	-0.011	
12.790	0.043	-0.018	
12.795	-0.182	-0.025	
12.800	-0.186	-0.046	
12.805	-0.044	-0.076	
12.810	-0.151	-0.096	
12.815	-0.233	-0.115	
12.820	-0.084	-0.136	
12.825	-0.073	-0.143	
12.830	-0.215	-0.140	
12.835	-0.038	-0.138	
12.840	0.279	-0.112	
12.845	0.258	-0.043	
12.850	0.562	0.062	
12.855	0.895	0.207	
12.860	0.428	0.368	
12.865	-0.230	0.450	
12.870	-0.448	0.385	
12.875	-0.634	0.201	
12.880	-0.796	-0.043	
12.885	-0.613	-0.286	
12.890	-0.377	-0.463	
12.895	-0.358	-0.544	
12.900	-0.174	-0.542	
12.905	0.146	-0.467	
12.910	0.081	-0.335	
12.915	0.040	-0.192	
12.920	0.354	-0.062	
12.925	0.319	0.062	
12.930	0.073	0.161	
12.935	0.268	0.213	
12.940	0.433	0.248	
12.945	0.157	0.279	
12.950	0.204	0.286	
12.955	0.515	0.287	
12.960	0.381	0.309	
12.965	0.340	0.337	
12.970	0.669	0.369	
12.975	0.747	0.428	
12.980	0.582	0.505	
12.985	0.855	0.577	
12.990	1.091	0.662	
12.995	0.858	0.762	
13.000	0.887	0.840	
13.005	1.105	0.897	
13.010	0.855	0.941	
13.015	0.620	0.948	
13.020	0.791	0.909	
13.025	0.590	0.852	
13.030	0.142	0.763	
13.035	0.187	0.628	
13.040	0.197	0.479	
13.045	-0.104	0.339	
13.050	-0.156	0.200	
13.055	-0.076	0.072	
13.060	-0.232	-0.029	
13.065	-0.339	-0.114	
13.070	-0.235	-0.187	
13.075	-0.262	-0.238	
13.080	-0.369	-0.271	
13.085	-0.274	-0.296	
13.090	-0.206	-0.306	
13.095	-0.348	-0.302	
13.100	-0.317	-0.300	
13.105	-0.174	-0.297	
13.110	-0.264	-0.284	
13.115	-0.328	-0.272	
13.120	-0.175	-0.267	
13.125	-0.178	-0.255	
13.130	-0.316	-0.241	
13.135	-0.195	-0.236	
13.140	-0.087	-0.226	
13.145	-0.221	-0.207	
13.150	-0.192	-0.193	
13.155	0.027	-0.177	
13.160	-0.102	-0.147	
13.165	-0.198	-0.123	
13.170	-0.018	-0.112	
13.175	0.011	-0.097	
13.180	-0.148	-0.078	
13.185	0.021	-0.066	
13.190	0.181	-0.045	
13.195	-0.093	-0.013	
13.200	-0.114	-0.000	
13.205	0.023	-0.008	
13.210	-0.117	-0.018	
13.215	-0.215	-0.040	
13.220	-0.061	-0.071	
13.225	-0.078	-0.093	
13.230	-0.246	-0.108	
13.235	-0.128	-0.127	
13.240	-0.044	-0.138	
13.245	-0.183	-0.137	
13.250	-0.079	-0.133	
13.255	0.372	-0.106	
13.260	0.434	-0.022	
13.265	0.611	0.109	
13.270	1.056	0.278	
13.275	0.822	0.474	
13.280	-0.076	0.603	
13.285	-0.395	0.569	
13.290	-0.582	0.380	
13.295	-0.797	0.108	
13.300	-0.723	-0.179	
13.305	-0.442	-0.411	
13.310	-0.348	-0.540	
13.315	-0.271	-0.568	
13.320	0.026	-0.517	
13.325	0.149	-0.400	
13.330	0.004	-0.253	
13.335	0.232	-0.117	
13.340	0.483	0.016	
13.345	0.241	0.145	
13.350	0.264	0.238	
13.355	0.562	0.301	
13.360	0.387	0.359	
13.365	0.264	0.395	
13.370	0.572	0.408	
13.375	0.576	0.431	
13.380	0.373	0.459	
13.385	0.666	0.480	
13.390	0.904	0.522	
13.395	0.687	0.593	
13.400	0.820	0.661	
13.405	1.174	0.734	
13.410	0.988	0.826	
13.415	0.823	0.902	
13.420	1.116	0.946	
13.425	1.024	0.981	
13.430	0.674	0.995	
13.435	0.735	0.961	
13.440	0.710	0.899	
13.445	0.255	0.813	
13.450	0.131	0.684	
13.455	0.209	0.527	
13.460	-0.095	0.374	
13.465	-0.253	0.219	
13.470	-0.157	0.067	
13.475	-0.236	-0.057	
13.480	-0.374	-0.154	
13.485	-0.271	-0.231	
13.490	-0.182	-0.277	
13.495	-0.360	-0.294	
13.500	-0.334	-0.305	
13.505	-0.180	-0.310	
13.510	-0.294	-0.301	
13.515	-0.349	-0.293	
13.520	-0.178	-0.288	
13.525	-0.185	-0.274	
13.530	-0.325	-0.257	
13.535	-0.229	-0.250	
13.540	-0.131	-0.243	
13.545	-0.244	-0.228	
13.550	-0.212	-0.217	
13.555	-0.055	-0.205	
13.560	-0.139	-0.183	
13.565	-0.201	-0.162	
13.570	-0.024	-0.149	
13.575	-0.032	-0.127	
13.580	-0.174	-0.106	
13.585	-0.029	-0.094	
13.590	0.117	-0.077	
13.595	-0.066	-0.047	
13.600	-0.060	-0.028	
13.605	0.157	-0.014	
13.610	-0.027	0.006	
13.615	-0.151	0.012	
13.620	-0.015	-0.003	
13.625	-0.047	-0.020	
13.630	-0.223	-0.040	
13.635	-0.127	-0.071	
13.640	-0.038	-0.097	
13.645	-0.194	-0.110	
13.650	-0.166	-0.124	
13.655	-0.006	-0.132	
13.660	-0.085	-0.124	
13.665	-0.122	-0.111	
13.670	0.251	-0.088	
13.675	0.430	-0.023	
13.680	0.358	0.081	
13.685	0.602	0.198	
13.690	0.524	0.315	
13.695	-0.233	0.380	
13.700	-0.561	0.319	
13.705	-0.617	0.139	
13.710	-0.721	-0.092	
13.715	-0.701	-0.315	
13.720	-0.412	-0.484	
13.725	-0.247	-0.560	
13.730	-0.218	-0.545	
13.735	0.033	-0.468	
13.740	0.344	-0.334	
13.745	0.161	-0.166	
13.750	0.181	-0.014	
13.755	0.447	0.109	
13.760	0.309	0.213	
13.765	0.232	0.284	
13.770	0.506	0.326	
13.775	0.482	0.366	
13.780	0.212	0.396	
13.785	0.434	0.399	
13.790	0.666	0.408	
13.795	0.430	0.438	
13.800	0.517	0.466	
13.805	0.861	0.501	
13.810	0.729	0.563	
13.815	0.655	0.627	
13.820	1.035	0.684	
13.825	1.047	0.760	
13.830	0.782	0.838	
13.835	0.922	0.884	
13.840	0.953	0.909	
13.845	0.552	0.910	
13.850	0.477	0.859	
13.855	0.651	0.775	
13.860	0.329	0.688	
13.865	0.018	0.579	
13.870	0.082	0.440	
13.875	-0.064	0.295	
13.880	-0.262	0.156	
13.885	-0.204	0.022	
13.890	-0.171	-0.087	
13.895	-0.328	-0.165	
13.900	-0.317	-0.225	
13.905	-0.223	-0.268	
13.910	-0.299	-0.289	
13.915	-0.367	-0.300	
13.920	-0.221	-0.309	
13.925	-0.242	-0.304	
13.930	-0.372	-0.296	
13.935	-0.253	-0.294	
13.940	-0.182	-0.288	
13.945	-0.313	-0.275	
13.950	-0.279	-0.267	
13.955	-0.128	-0.261	
13.960	-0.217	-0.244	
13.965	-0.268	-0.229	
13.970	-0.102	-0.219	
13.975	-0.093	-0.200	
13.980	-0.224	-0.177	
13.985	-0.101	-0.163	
13.990	0.008	-0.145	
13.995	-0.157	-0.121	
14.000	-0.140	-0.107	
14.005	0.047	-0.099	
14.010	-0.081	-0.082	
14.015	-0.149	-0.071	
14.020	-0.003	-0.070	
14.025	-0.027	-0.065	
14.030	-0.188	-0.062	
14.035	-0.098	-0.072	
14.040	-0.020	-0.082	
14.045	-0.198	-0.088	
14.050	-0.189	-0.102	
14.055	-0.060	-0.120	
14.060	-0.174	-0.128	
14.065	-0.229	-0.138	
14.070	-0.122	-0.153	
14.075	-0.120	-0.159	
14.080	-0.203	-0.159	
14.085	0.099	-0.149	
14.090	0.518	-0.093	
14.095	0.373	0.021	
14.100	0.404	0.151	
14.105	0.297	0.255	
14.110	-0.317	0.290	
14.115	-0.688	0.207	
14.120	-0.683	0.018	
14.125	-0.660	-0.203	
14.130	-0.656	-0.397	
14.135	-0.377	-0.528	
14.140	-0.133	-0.566	
14.145	-0.154	-0.517	
14.150	-0.038	-0.419	
14.155	0.343	-0.289	
14.160	0.209	-0.132	
14.165	0.073	0.008	
14.170	0.402	0.110	
14.175	0.401	0.199	
14.180	0.148	0.269	
14.185	0.290	0.299	
14.190	0.508	0.315	
14.195	0.276	0.338	
14.200	0.360	0.352	
14.205	0.695	0.372	
14.210	0.527	0.419	
14.215	0.439	0.465	
14.220	0.814	0.504	
14.225	0.899	0.568	
14.230	0.716	0.647	
14.235	0.956	0.719	
14.240	1.130	0.795	
14.245	0.791	0.870	
14.250	0.780	0.908	
14.255	1.024	0.915	
14.260	0.761	0.915	
14.265	0.430	0.883	
14.270	0.527	0.804	
14.275	0.300	0.699	
14.280	-0.053	0.568	
14.285	0.018	0.408	
14.290	0.003	0.254	
14.295	-0.232	0.122	
14.300	-0.288	-0.001	
14.305	-0.210	-0.107	
14.310	-0.323	-0.188	
14.315	-0.401	-0.251	
14.320	-0.261	-0.299	
14.325	-0.271	-0.323	
14.330	-0.407	-0.331	
14.335	-0.308	-0.338	
14.340	-0.242	-0.338	
14.345	-0.378	-0.329	
14.350	-0.343	-0.326	
14.355	-0.182	-0.322	
14.360	-0.241	-0.304	
14.365	-0.306	-0.284	
14.370	-0.174	-0.269	
14.375	-0.183	-0.251	
14.380	-0.270	-0.233	
14.385	-0.124	-0.220	
14.390	-0.041	-0.199	
14.395	-0.195	-0.170	
14.400	-0.145	-0.151	
14.405	0.037	-0.135	
14.410	-0.078	-0.109	
14.415	-0.174	-0.089	
14.420	0.014	-0.082	
14.425	0.004	-0.070	
14.430	-0.140	-0.057	
14.435	-0.020	-0.053	
14.440	0.041	-0.048	
14.445	-0.177	-0.042	
14.450	-0.162	-0.053	
14.455	-0.020	-0.073	
14.460	-0.156	-0.086	
14.465	-0.235	-0.102	
14.470	-0.092	-0.124	
14.475	-0.107	-0.137	
14.480	-0.241	-0.143	
14.485	-0.105	-0.151	
14.490	-0.021	-0.149	
14.495	-0.151	-0.135	
14.500	0.023	-0.117	
14.505	0.637	-0.062	
14.510	0.718	0.070	
14.515	0.713	0.250	
14.520	0.806	0.429	
14.525	0.035	0.546	
14.530	-0.572	0.517	
14.535	-0.707	0.324	
14.540	-0.717	0.044	
14.545	-0.768	-0.236	
14.550	-0.569	-0.460	
14.555	-0.239	-0.584	
14.560	-0.194	-0.595	
14.565	-0.174	-0.527	
14.570	0.146	-0.415	
14.575	0.197	-0.269	
14.580	0.017	-0.121	
14.585	0.200	-0.007	
14.590	0.407	0.089	
14.595	0.207	0.176	
14.600	0.287	0.237	
14.605	0.541	0.285	
14.610	0.363	0.335	
14.615	0.256	0.369	
14.620	0.591	0.385	
14.625	0.663	0.418	
14.630	0.445	0.467	
14.635	0.738	0.510	
14.640	1.015	0.573	
14.645	0.770	0.661	
14.650	0.893	0.742	
14.655	1.155	0.816	
14.660	0.870	0.889	
14.665	0.744	0.930	
14.670	1.017	0.933	
14.675	0.890	0.932	
14.680	0.479	0.911	
14.685	0.540	0.842	
14.690	0.500	0.748	
14.695	0.021	0.636	
14.700	-0.078	0.485	
14.705	-0.011	0.314	
14.710	-0.204	0.158	
14.715	-0.329	0.018	
14.720	-0.230	-0.105	
14.725	-0.293	-0.196	
14.730	-0.439	-0.262	
14.735	-0.323	-0.316	
14.740	-0.253	-0.345	
14.745	-0.404	-0.353	
14.750	-0.370	-0.358	
14.755	-0.239	-0.358	
14.760	-0.323	-0.346	
14.765	-0.384	-0.335	
14.770	-0.224	-0.328	
14.775	-0.217	-0.313	
14.780	-0.348	-0.294	
14.785	-0.227	-0.283	
14.790	-0.146	-0.269	
14.795	-0.267	-0.249	
14.800	-0.210	-0.234	
14.805	-0.021	-0.216	
14.810	-0.119	-0.185	
14.815	-0.177	-0.155	
14.820	-0.011	-0.135	
14.825	-0.032	-0.110	
14.830	-0.168	-0.089	
14.835	-0.031	-0.081	
14.840	0.120	-0.066	
14.845	-0.085	-0.042	
14.850	-0.081	-0.028	
14.855	0.119	-0.022	
14.860	-0.075	-0.011	
14.865	-0.162	-0.013	
14.870	0.008	-0.029	
14.875	-0.058	-0.041	
14.880	-0.221	-0.055	
14.885	-0.116	-0.080	
14.890	-0.050	-0.101	
14.895	-0.217	-0.112	
14.900	-0.186	-0.128	
14.905	-0.018	-0.140	
14.910	-0.084	-0.135	
14.915	-0.034	-0.117	
14.920	0.492	-0.071	
14.925	0.646	0.038	
14.930	0.474	0.189	
14.935	0.518	0.326	
14.940	0.041	0.405	
14.945	-0.483	0.374	
14.950	-0.709	0.215	
14.955	-0.645	-0.021	
14.960	-0.678	-0.256	
14.965	-0.592	-0.444	
14.970	-0.252	-0.552	
14.975	-0.079	-0.558	
14.980	-0.119	-0.482	
14.985	0.165	-0.363	
14.990	0.442	-0.207	
14.995	0.120	-0.038	
15.000	0.206	0.093	
15.005	0.578	0.191	
15.010	0.405	0.286	
15.015	0.290	0.357	
15.020	0.588	0.399	
15.025	0.546	0.439	
15.030	0.296	0.468	
15.035	0.529	0.473	
15.040	0.692	0.483	
15.045	0.427	0.506	
15.050	0.530	0.520	
15.055	0.829	0.538	
15.060	0.730	0.582	
15.065	0.719	0.635	
15.070	1.099	0.695	
15.075	1.096	0.781	
15.080	0.794	0.868	
15.085	0.942	0.918	
15.090	1.011	0.943	
15.095	0.572	0.945	
15.100	0.434	0.890	
15.105	0.486	0.788	
15.110	0.085	0.662	
15.115	-0.125	0.502	
15.120	-0.037	0.321	
15.125	-0.113	0.159	
15.130	-0.319	0.023	
15.135	-0.250	-0.094	
15.140	-0.201	-0.182	
15.145	-0.363	-0.238	
15.150	-0.340	-0.280	
15.155	-0.201	-0.307	
15.160	-0.323	-0.312	
15.165	-0.398	-0.315	
15.170	-0.233	-0.320	
15.175	-0.247	-0.315	
15.180	-0.378	-0.306	
15.185	-0.258	-0.303	
15.190	-0.165	-0.294	
15.195	-0.285	-0.276	
15.200	-0.249	-0.261	
15.205	-0.087	-0.246	
15.210	-0.162	-0.220	
15.215	-0.220	-0.196	
15.220	-0.056	-0.178	
15.225	-0.060	-0.155	
15.230	-0.203	-0.132	
15.235	-0.075	-0.121	
15.240	0.030	-0.109	
15.245	-0.139	-0.089	
15.250	-0.089	-0.079	
15.255	0.137	-0.067	
15.260	-0.038	-0.043	
15.265	-0.120	-0.025	
15.270	0.122	-0.019	
15.275	0.030	-0.006	
15.280	-0.162	0.003	
15.285	-0.078	-0.010	
15.290	0.000	-0.030	
15.295	-0.191	-0.046	
15.300	-0.197	-0.072	
15.305	-0.012	-0.099	
15.310	-0.117	-0.110	
15.315	-0.165	-0.114	
15.320	0.043	-0.113	
15.325	0.065	-0.093	
15.330	-0.021	-0.059	
15.335	0.416	-0.011	
15.340	0.799	0.089	
15.345	0.616	0.243	
15.350	0.434	0.388	
15.355	0.024	0.457	
15.360	-0.477	0.407	
15.365	-0.709	0.232	
15.370	-0.621	-0.013	
15.375	-0.557	-0.247	
15.380	-0.505	-0.420	
15.385	-0.209	-0.509	
15.390	0.076	-0.498	
15.395	-0.053	-0.406	
15.400	0.091	-0.283	
15.405	0.453	-0.143	
15.410	0.306	0.012	
15.415	0.215	0.145	
15.420	0.552	0.243	
15.425	0.529	0.332	
15.430	0.291	0.402	
15.435	0.532	0.438	
15.440	0.683	0.469	
15.445	0.401	0.504	
15.450	0.497	0.519	
15.455	0.774	0.531	
15.460	0.610	0.561	
15.465	0.546	0.590	
15.470	0.925	0.616	
15.475	1.047	0.674	
15.480	0.823	0.756	
15.485	1.088	0.831	
15.490	1.253	0.911	
15.495	0.963	0.992	
15.500	0.957	1.040	
15.505	1.139	1.057	
15.510	0.770	1.055	
15.515	0.404	1.001	
15.520	0.576	0.890	
15.525	0.370	0.759	
15.530	-0.034	0.614	
15.535	0.021	0.445	
15.540	0.014	0.280	
15.545	-0.236	0.139	
15.550	-0.273	0.010	
15.555	-0.162	-0.099	
15.560	-0.281	-0.174	
15.565	-0.372	-0.230	
15.570	-0.207	-0.272	
15.575	-0.220	-0.289	
15.580	-0.352	-0.290	
15.585	-0.242	-0.291	
15.590	-0.165	-0.284	
15.595	-0.296	-0.268	
15.600	-0.265	-0.258	
15.605	-0.114	-0.249	
15.610	-0.201	-0.230	
15.615	-0.229	-0.213	
15.620	-0.055	-0.198	
15.625	-0.072	-0.173	
15.630	-0.204	-0.148	
15.635	-0.053	-0.132	
15.640	0.096	-0.110	
15.645	-0.131	-0.079	
15.650	-0.095	-0.061	
15.655	0.117	-0.050	
15.660	-0.046	-0.031	
15.665	-0.116	-0.020	
15.670	0.145	-0.017	
15.675	0.120	0.001	
15.680	-0.085	0.024	
15.685	0.029	0.029	
15.690	0.177	0.034	
15.695	-0.093	0.043	
15.700	-0.084	0.035	
15.705	0.084	0.017	
15.710	-0.105	0.004	
15.715	-0.226	-0.020	
15.720	-0.040	-0.055	
15.725	-0.040	-0.078	
15.730	-0.201	-0.090	
15.735	-0.078	-0.103	
15.740	0.050	-0.105	
15.745	-0.079	-0.089	
15.750	0.172	-0.062	
15.755	0.773	0.011	
15.760	0.797	0.161	
15.765	0.694	0.346	
15.770	0.665	0.505	
15.775	-0.093	0.579	
15.780	-0.650	0.500	
15.785	-0.739	0.271	
15.790	-0.688	-0.022	
15.795	-0.692	-0.291	
15.800	-0.499	-0.488	
15.805	-0.188	-0.582	
15.810	-0.139	-0.567	
15.815	-0.098	-0.481	
15.820	0.287	-0.352	
15.825	0.352	-0.186	
15.830	0.152	-0.017	
15.835	0.404	0.118	
15.840	0.555	0.233	
15.845	0.305	0.330	
15.850	0.405	0.389	
15.855	0.704	0.431	
15.860	0.503	0.478	
15.865	0.360	0.509	
15.870	0.677	0.518	
15.875	0.684	0.537	
15.880	0.523	0.566	
15.885	0.860	0.595	
15.890	1.037	0.651	
15.895	0.790	0.730	
15.900	0.884	0.796	
15.905	1.192	0.854	
15.910	1.006	0.922	
15.915	0.857	0.973	
15.920	1.090	0.994	
15.925	0.934	1.004	
15.930	0.501	0.984	
15.935	0.514	0.905	
15.940	0.468	0.791	
15.945	-0.017	0.656	
15.950	-0.085	0.484	
15.955	-0.026	0.300	
15.960	-0.223	0.138	
15.965	-0.317	-0.004	
15.970	-0.191	-0.121	
15.975	-0.249	-0.200	
15.980	-0.409	-0.253	
15.985	-0.306	-0.295	
15.990	-0.247	-0.320	
15.995	-0.404	-0.329	
16.000	-0.363	-0.338	
16.005	-0.204	-0.342	
16.010	-0.294	-0.330	
16.015	-0.351	-0.316	
16.020	-0.183	-0.305	
16.025	-0.204	-0.286	
16.030	-0.342	-0.267	
16.035	-0.229	-0.260	
16.040	-0.156	-0.252	
16.045	-0.256	-0.239	
16.050	-0.226	-0.229	
16.055	-0.064	-0.218	
16.060	-0.159	-0.196	
16.065	-0.210	-0.176	
16.070	-0.043	-0.163	
16.075	-0.055	-0.142	
16.080	-0.192	-0.122	
16.085	-0.050	-0.112	
16.090	0.043	-0.098	
16.095	-0.130	-0.077	
16.100	-0.087	-0.067	
16.105	0.084	-0.060	
16.110	-0.090	-0.045	
16.115	-0.198	-0.044	
16.120	-0.050	-0.060	
16.125	-0.096	-0.075	
16.130	-0.267	-0.092	
16.135	-0.165	-0.120	
16.140	-0.076	-0.143	
16.145	-0.221	-0.152	
16.150	-0.188	-0.162	
16.155	-0.031	-0.165	
16.160	-0.116	-0.153	
16.165	-0.073	-0.135	
16.170	0.437	-0.093	
16.175	0.524	0.006	
16.180	0.319	0.137	
16.185	0.390	0.248	
16.190	0.004	0.307	
16.195	-0.538	0.273	
16.200	-0.747	0.122	
16.205	-0.660	-0.099	
16.210	-0.683	-0.316	
16.215	-0.604	-0.486	
16.220	-0.271	-0.580	
16.225	-0.113	-0.577	
16.230	-0.122	-0.498	
16.235	0.160	-0.376	
16.240	0.380	-0.220	
16.245	0.143	-0.054	
16.250	0.238	0.080	
16.255	0.518	0.183	
16.260	0.287	0.272	
16.265	0.184	0.324	
16.270	0.555	0.346	
16.275	0.564	0.379	
16.280	0.317	0.417	
16.285	0.604	0.442	
16.290	0.758	0.478	
16.295	0.477	0.527	
16.300	0.581	0.560	
16.305	0.944	0.592	
16.310	0.814	0.650	
16.315	0.709	0.710	
16.320	1.062	0.760	
16.325	1.087	0.826	
16.330	0.846	0.894	
16.335	0.998	0.937	
16.340	0.963	0.960	
16.345	0.472	0.952	
16.350	0.431	0.880	
16.355	0.616	0.772	
16.360	0.180	0.662	
16.365	-0.134	0.524	
16.370	-0.056	0.353	
16.375	-0.060	0.190	
16.380	-0.209	0.056	
16.385	-0.226	-0.052	
16.390	-0.250	-0.138	
16.395	-0.337	-0.203	
16.400	-0.256	-0.253	
16.405	-0.192	-0.278	
16.410	-0.360	-0.286	
16.415	-0.441	-0.299	
16.420	-0.261	-0.320	
16.425	-0.249	-0.327	
16.430	-0.363	-0.322	
16.435	-0.255	-0.316	
16.440	-0.157	-0.303	
16.445	-0.314	-0.281	
16.450	-0.306	-0.269	
16.455	-0.185	-0.265	
16.460	-0.207	-0.254	
16.465	-0.227	-0.241	
16.470	-0.075	-0.223	
16.475	-0.108	-0.196	
16.480	-0.238	-0.171	
16.485	-0.110	-0.159	
16.490	-0.015	-0.146	
16.495	-0.178	-0.127	
16.500	-0.137	-0.118	
16.505	0.064	-0.109	
16.510	-0.072	-0.089	
16.515	-0.146	-0.073	
16.520	0.075	-0.065	
16.525	-0.038	-0.051	
16.530	-0.209	-0.044	
16.535	-0.105	-0.058	
16.540	-0.061	-0.077	
16.545	-0.226	-0.093	
16.550	-0.195	-0.116	
16.555	-0.011	-0.135	
16.560	-0.146	-0.136	
16.565	-0.213	-0.135	
16.570	-0.024	-0.138	
16.575	-0.060	-0.128	
16.580	-0.133	-0.113	
16.585	0.227	-0.089	
16.590	0.611	-0.018	
16.595	0.413	0.107	
16.600	0.340	0.230	
16.605	0.052	0.301	
16.610	-0.502	0.278	
16.615	-0.794	0.134	
16.620	-0.692	-0.089	
16.625	-0.617	-0.312	
16.630	-0.592	-0.480	
16.635	-0.281	-0.570	
16.640	-0.018	-0.563	
16.645	-0.060	-0.473	
16.650	0.097	-0.344	
16.655	0.448	-0.189	
16.660	0.241	-0.022	
16.665	0.133	0.114	
16.670	0.456	0.204	
16.675	0.410	0.278	
16.680	0.149	0.328	
16.685	0.380	0.343	
16.690	0.544	0.354	
16.695	0.267	0.374	
16.700	0.392	0.383	
16.705	0.706	0.397	
16.710	0.549	0.440	
16.715	0.482	0.485	
16.720	0.861	0.527	
16.725	0.855	0.592	
16.730	0.698	0.665	
16.735	1.011	0.729	
16.740	1.197	0.807	
16.745	0.930	0.896	
16.750	0.941	0.959	
16.755	1.113	0.994	
16.760	0.765	1.009	
16.765	0.465	0.974	
16.770	0.581	0.882	
16.775	0.344	0.765	
16.780	-0.075	0.621	
16.785	-0.003	0.445	
16.790	-0.006	0.272	
16.795	-0.239	0.125	
16.800	-0.299	-0.007	
16.805	-0.191	-0.117	
16.810	-0.305	-0.196	
16.815	-0.398	-0.253	
16.820	-0.235	-0.297	
16.825	-0.279	-0.316	
16.830	-0.396	-0.322	
16.835	-0.265	-0.327	
16.840	-0.195	-0.321	
16.845	-0.328	-0.304	
16.850	-0.274	-0.292	
16.855	-0.130	-0.278	
16.860	-0.253	-0.257	
16.865	-0.290	-0.241	
16.870	-0.101	-0.232	
16.875	-0.140	-0.214	
16.880	-0.246	-0.195	
16.885	-0.108	-0.183	
16.890	-0.021	-0.166	
16.895	-0.165	-0.142	
16.900	-0.110	-0.125	
16.905	0.101	-0.106	
16.910	-0.073	-0.077	
16.915	-0.127	-0.056	
16.920	0.102	-0.046	
16.925	0.044	-0.027	
16.930	-0.124	-0.009	
16.935	0.082	-0.005	
16.940	0.215	0.010	
16.945	-0.095	0.035	
16.950	-0.149	0.035	
16.955	0.004	0.011	
16.960	-0.111	-0.015	
16.965	-0.177	-0.043	
16.970	-0.015	-0.071	
16.975	-0.066	-0.084	
16.980	-0.207	-0.092	
16.985	-0.067	-0.104	
16.990	0.090	-0.102	
16.995	-0.050	-0.079	
17.000	0.192	-0.045	
17.005	0.732	0.029	
17.010	0.800	0.173	
17.015	0.753	0.355	
17.020	0.715	0.518	
17.025	-0.064	0.600	
17.030	-0.592	0.530	
17.035	-0.688	0.308	
17.040	-0.663	0.021	
17.045	-0.689	-0.249	
17.050	-0.460	-0.451	
17.055	-0.140	-0.548	
17.060	-0.116	-0.534	
17.065	-0.095	-0.450	
17.070	0.282	-0.327	
17.075	0.334	-0.169	
17.080	0.120	-0.011	
17.085	0.383	0.113	
17.090	0.569	0.220	
17.095	0.245	0.314	
17.100	0.303	0.365	
17.105	0.619	0.390	
17.110	0.439	0.422	
17.115	0.346	0.445	
17.120	0.687	0.458	
17.125	0.703	0.492	
17.130	0.526	0.538	
17.135	0.800	0.580	
17.140	1.040	0.639	
17.145	0.825	0.721	
17.150	0.941	0.796	
17.155	1.267	0.869	
17.160	1.101	0.956	
17.165	0.965	1.027	
17.170	1.171	1.066	
17.175	0.979	1.086	
17.180	0.558	1.066	
17.185	0.594	0.983	
17.190	0.527	0.866	
17.195	0.067	0.728	
17.200	-0.008	0.556	
17.205	0.064	0.374	
17.210	-0.183	0.212	
17.215	-0.314	0.065	
17.220	-0.200	-0.066	
17.225	-0.256	-0.163	
17.230	-0.404	-0.232	
17.235	-0.300	-0.286	
17.240	-0.236	-0.317	
17.245	-0.396	-0.328	
17.250	-0.369	-0.337	
17.255	-0.217	-0.342	
17.260	-0.313	-0.332	
17.265	-0.346	-0.321	
17.270	-0.201	-0.312	
17.275	-0.223	-0.295	
17.280	-0.363	-0.279	
17.285	-0.233	-0.274	
17.290	-0.125	-0.265	
17.295	-0.241	-0.245	
17.300	-0.177	-0.226	
17.305	-0.015	-0.203	
17.310	-0.146	-0.171	
17.315	-0.204	-0.147	
17.320	-0.009	-0.134	
17.325	-0.011	-0.114	
17.330	-0.153	-0.091	
17.335	-0.023	-0.079	
17.340	0.084	-0.064	
17.345	-0.111	-0.043	
17.350	-0.061	-0.034	
17.355	0.166	-0.026	
17.360	-0.043	-0.007	
17.365	-0.136	0.001	
17.370	0.041	-0.008	
17.375	-0.018	-0.014	
17.380	-0.192	-0.023	
17.385	-0.078	-0.045	
17.390	0.023	-0.063	
17.395	-0.166	-0.069	
17.400	-0.134	-0.080	
17.405	0.082	-0.087	
17.410	-0.020	-0.074	
17.415	-0.073	-0.055	
17.420	0.363	-0.027	
17.425	0.637	0.052	
17.430	0.590	0.183	
17.435	0.762	0.333	
17.440	0.444	0.464	
17.445	-0.332	0.503	
17.450	-0.599	0.391	
17.455	-0.605	0.166	
17.460	-0.694	-0.091	
17.465	-0.651	-0.323	
17.470	-0.348	-0.485	
17.475	-0.172	-0.546	
17.480	-0.124	-0.512	
17.485	0.183	-0.412	
17.490	0.393	-0.258	
17.495	0.139	-0.083	
17.500	0.223	0.059	
17.505	0.515	0.169	
17.510	0.329	0.265	
17.515	0.197	0.326	
17.520	0.508	0.353	
17.525	0.512	0.381	
17.530	0.250	0.406	
17.535	0.479	0.412	
17.540	0.639	0.425	
17.545	0.390	0.451	
17.550	0.477	0.469	
17.555	0.808	0.490	
17.560	0.722	0.540	
17.565	0.694	0.601	
17.570	1.061	0.666	
17.575	1.081	0.755	
17.580	0.793	0.845	
17.585	0.925	0.899	
17.590	0.924	0.924	
17.595	0.495	0.917	
17.600	0.387	0.850	
17.605	0.517	0.743	
17.610	0.128	0.625	
17.615	-0.087	0.483	
17.620	0.000	0.322	
17.625	-0.127	0.173	
17.630	-0.329	0.042	
17.635	-0.274	-0.080	
17.640	-0.238	-0.176	
17.645	-0.407	-0.245	
17.650	-0.398	-0.300	
17.655	-0.284	-0.340	
17.660	-0.381	-0.360	
17.665	-0.457	-0.372	
17.670	-0.314	-0.384	
17.675	-0.288	-0.382	
17.680	-0.399	-0.370	
17.685	-0.316	-0.361	
17.690	-0.241	-0.348	
17.695	-0.354	-0.331	
17.700	-0.310	-0.319	
17.705	-0.153	-0.307	
17.710	-0.233	-0.283	
17.715	-0.297	-0.261	
17.720	-0.125	-0.246	
17.725	-0.136	-0.225	
17.730	-0.259	-0.203	
17.735	-0.143	-0.192	
17.740	-0.066	-0.179	
17.745	-0.195	-0.161	
17.750	-0.136	-0.150	
17.755	0.047	-0.136	
17.760	-0.110	-0.111	
17.765	-0.189	-0.095	
17.770	-0.027	-0.093	
17.775	-0.050	-0.089	
17.780	-0.188	-0.085	
17.785	-0.089	-0.091	
17.790	-0.038	-0.096	
17.795	-0.233	-0.099	
17.800	-0.221	-0.116	
17.805	-0.060	-0.136	
17.810	-0.156	-0.144	
17.815	-0.230	-0.149	
17.820	-0.085	-0.157	
17.825	-0.090	-0.154	
17.830	-0.157	-0.144	
17.835	0.216	-0.121	
17.840	0.520	-0.051	
17.845	0.395	0.069	
17.850	0.418	0.195	
17.855	0.255	0.290	
17.860	-0.358	0.309	
17.865	-0.701	0.208	
17.870	-0.665	0.008	
17.875	-0.653	-0.216	
17.880	-0.646	-0.407	
17.885	-0.355	-0.532	
17.890	-0.096	-0.562	
17.895	-0.137	-0.505	
17.900	-0.046	-0.403	
17.905	0.348	-0.273	
17.910	0.235	-0.118	
17.915	0.183	0.026	
17.920	0.515	0.144	
17.925	0.463	0.252	
17.930	0.212	0.336	
17.935	0.433	0.375	
17.940	0.561	0.401	
17.945	0.251	0.423	
17.950	0.328	0.420	
17.955	0.681	0.414	
17.960	0.534	0.438	
17.965	0.413	0.468	
17.970	0.742	0.494	
17.975	0.803	0.540	
17.980	0.623	0.600	
17.985	0.852	0.653	
17.990	1.073	0.715	
17.995	0.774	0.788	
18.000	0.753	0.834	
18.005	0.939	0.851	
18.010	0.642	0.854	
18.015	0.399	0.818	
18.020	0.535	0.741	
18.025	0.306	0.648	
18.030	-0.055	0.533	
18.035	-0.003	0.387	
18.040	-0.027	0.240	
18.045	-0.233	0.110	
18.050	-0.235	-0.008	
18.055	-0.153	-0.104	
18.060	-0.300	-0.171	
18.065	-0.370	-0.224	
18.070	-0.217	-0.267	
18.075	-0.255	-0.287	
18.080	-0.367	-0.295	
18.085	-0.230	-0.301	
18.090	-0.157	-0.293	
18.095	-0.296	-0.274	
18.100	-0.271	-0.261	
18.105	-0.125	-0.251	
18.110	-0.223	-0.234	
18.115	-0.314	-0.223	
18.120	-0.104	-0.221	
18.125	-0.090	-0.207	
18.130	-0.209	-0.185	
18.135	-0.067	-0.166	
18.140	0.017	-0.142	
18.145	-0.207	-0.114	
18.150	-0.166	-0.106	
18.155	0.026	-0.106	
18.160	-0.105	-0.097	
18.165	-0.168	-0.090	
18.170	0.041	-0.089	
18.175	0.015	-0.075	
18.180	-0.142	-0.058	
18.185	-0.014	-0.052	
18.190	0.093	-0.043	
18.195	-0.143	-0.029	
18.200	-0.151	-0.033	
18.205	0.017	-0.048	
18.210	-0.120	-0.058	
18.215	-0.238	-0.074	
18.220	-0.078	-0.099	
18.225	-0.079	-0.115	
18.230	-0.203	-0.122	
18.235	-0.035	-0.127	
18.240	0.148	-0.111	
18.245	0.046	-0.069	
18.250	0.329	-0.010	
18.255	0.834	0.092	
18.260	0.703	0.250	
18.265	0.463	0.406	
18.270	0.401	0.502	
18.275	-0.131	0.508	
18.280	-0.508	0.401	
18.285	-0.488	0.199	
18.290	-0.392	-0.024	
18.295	-0.421	-0.207	
18.300	-0.270	-0.328	
18.305	0.052	-0.369	
18.310	0.085	-0.325	
18.315	0.097	-0.229	
18.320	0.433	-0.106	
18.325	0.447	0.039	
18.330	0.264	0.176	
18.335	0.468	0.278	
18.340	0.578	0.359	
18.345	0.268	0.419	
18.350	0.294	0.437	
18.355	0.555	0.430	
18.360	0.375	0.429	
18.365	0.311	0.424	
18.370	0.617	0.418	
18.375	0.537	0.434	
18.380	0.335	0.455	
18.385	0.546	0.462	
18.390	0.738	0.480	
18.395	0.509	0.517	
18.400	0.585	0.548	
18.405	0.835	0.578	
18.410	0.643	0.620	
18.415	0.530	0.648	
18.420	0.812	0.659	
18.425	0.695	0.674	
18.430	0.334	0.674	
18.435	0.408	0.631	
18.440	0.386	0.565	
18.445	-0.026	0.481	
18.450	-0.034	0.365	
18.455	0.116	0.242	
18.460	-0.137	0.139	
18.465	-0.253	0.044	
18.470	-0.125	-0.046	
18.475	-0.148	-0.112	
18.480	-0.316	-0.158	
18.485	-0.226	-0.198	
18.490	-0.154	-0.223	
18.495	-0.288	-0.232	
18.500	-0.261	-0.240	
18.505	-0.133	-0.243	
18.510	-0.235	-0.234	
18.515	-0.313	-0.229	
18.520	-0.159	-0.231	
18.525	-0.177	-0.227	
18.530	-0.296	-0.220	
18.535	-0.186	-0.220	
18.540	-0.081	-0.214	
18.545	-0.207	-0.197	
18.550	-0.160	-0.183	
18.555	0.018	-0.165	
18.560	-0.090	-0.136	
18.565	-0.146	-0.111	
18.570	0.044	-0.094	
18.575	0.033	-0.069	
18.580	-0.111	-0.044	
18.585	0.018	-0.032	
18.590	0.130	-0.017	
18.595	-0.078	0.002	
18.600	-0.070	0.007	
18.605	0.117	0.003	
18.610	-0.066	0.006	
18.615	-0.178	-0.003	
18.620	-0.055	-0.029	
18.625	-0.102	-0.054	
18.630	-0.238	-0.080	
18.635	-0.116	-0.110	
18.640	-0.053	-0.128	
18.645	-0.207	-0.133	
18.650	-0.148	-0.140	
18.655	0.099	-0.136	
18.660	0.078	-0.103	
18.665	0.171	-0.048	
18.670	0.543	0.032	
18.675	0.459	0.145	
18.680	0.038	0.243	
18.685	-0.145	0.264	
18.690	-0.349	0.198	
18.695	-0.598	0.063	
18.700	-0.582	-0.114	
18.705	-0.395	-0.279	
18.710	-0.369	-0.389	
18.715	-0.317	-0.438	
18.720	-0.053	-0.430	
18.725	0.035	-0.365	
18.730	-0.092	-0.269	
18.735	0.161	-0.172	
18.740	0.416	-0.062	
18.745	0.140	0.056	
18.750	0.152	0.142	
18.755	0.386	0.197	
18.760	0.218	0.240	
18.765	0.082	0.259	
18.770	0.372	0.255	
18.775	0.370	0.261	
18.780	0.143	0.274	
18.785	0.395	0.278	
18.790	0.565	0.298	
18.795	0.317	0.338	
18.800	0.463	0.372	
18.805	0.825	0.415	
18.810	0.684	0.489	
18.815	0.648	0.566	
18.820	0.919	0.633	
18.825	0.802	0.701	
18.830	0.482	0.744	
18.835	0.610	0.737	
18.840	0.617	0.705	
18.845	0.235	0.655	
18.850	0.131	0.565	
18.855	0.210	0.450	
18.860	-0.035	0.334	
18.865	-0.183	0.213	
18.870	-0.079	0.092	
18.875	-0.128	-0.006	
18.880	-0.247	-0.080	
18.885	-0.195	-0.139	
18.890	-0.159	-0.180	
18.895	-0.323	-0.205	
18.900	-0.316	-0.231	
18.905	-0.185	-0.254	
18.910	-0.267	-0.262	
18.915	-0.314	-0.266	
18.920	-0.192	-0.268	
18.925	-0.191	-0.261	
18.930	-0.293	-0.249	
18.935	-0.157	-0.241	
18.940	-0.078	-0.224	
18.945	-0.218	-0.198	
18.950	-0.171	-0.181	
18.955	0.015	-0.164	
18.960	-0.073	-0.135	
18.965	-0.139	-0.109	
18.970	0.017	-0.091	
18.975	0.018	-0.070	
18.980	-0.148	-0.050	
18.985	-0.024	-0.046	
18.990	0.139	-0.038	
18.995	-0.064	-0.018	
19.000	-0.017	-0.005	
19.005	0.209	0.007	
19.010	0.024	0.031	
19.015	-0.076	0.046	
19.020	0.033	0.040	
19.025	-0.070	0.026	
19.030	-0.220	-0.000	
19.035	-0.145	-0.044	
19.040	-0.079	-0.084	
19.045	-0.229	-0.113	
19.050	-0.218	-0.141	
19.055	-0.079	-0.163	
19.060	-0.201	-0.171	
19.065	-0.250	-0.177	
19.070	-0.046	-0.181	
19.075	0.079	-0.162	
19.080	0.037	-0.116	
19.085	0.319	-0.050	
19.090	0.433	0.042	
19.095	-0.064	0.132	
19.100	-0.378	0.148	
19.105	-0.578	0.064	
19.110	-0.802	-0.097	
19.115	-0.826	-0.297	
19.120	-0.569	-0.480	
19.125	-0.403	-0.590	
19.130	-0.357	-0.616	
19.135	-0.137	-0.572	
19.140	0.015	-0.474	
19.145	-0.084	-0.347	
19.150	0.017	-0.227	
19.155	0.325	-0.113	
19.160	0.131	0.000	
19.165	0.000	0.083	
19.170	0.309	0.129	
19.175	0.302	0.170	
19.180	0.068	0.204	
19.185	0.271	0.216	
19.190	0.454	0.231	
19.195	0.206	0.260	
19.200	0.265	0.278	
19.205	0.553	0.295	
19.210	0.431	0.332	
19.215	0.361	0.371	
19.220	0.701	0.408	
19.225	0.721	0.465	
19.230	0.540	0.531	
19.235	0.774	0.584	
19.240	0.881	0.640	
19.245	0.549	0.691	
19.250	0.492	0.703	
19.255	0.623	0.679	
19.260	0.255	0.633	
19.265	0.017	0.547	
19.270	0.143	0.424	
19.275	-0.027	0.298	
19.280	-0.247	0.173	
19.285	-0.194	0.047	
19.290	-0.165	-0.060	
19.295	-0.314	-0.141	
19.300	-0.320	-0.206	
19.305	-0.227	-0.254	
19.310	-0.320	-0.282	
19.315	-0.367	-0.300	
19.320	-0.213	-0.312	
19.325	-0.224	-0.308	
19.330	-0.358	-0.296	
19.335	-0.256	-0.290	
19.340	-0.166	-0.282	
19.345	-0.299	-0.267	
19.350	-0.259	-0.257	
19.355	-0.124	-0.249	
19.360	-0.213	-0.232	
19.365	-0.270	-0.218	
19.370	-0.102	-0.211	
19.375	-0.063	-0.193	
19.380	-0.188	-0.168	
19.385	-0.089	-0.149	
19.390	0.044	-0.127	
19.395	-0.122	-0.098	
19.400	-0.090	-0.079	
19.405	0.117	-0.064	
19.410	-0.034	-0.039	
19.415	-0.111	-0.023	
19.420	0.113	-0.017	
19.425	0.097	-0.001	
19.430	-0.116	0.015	
19.435	0.033	0.016	
19.440	0.061	0.014	
19.445	-0.169	0.010	
19.450	-0.178	-0.015	
19.455	-0.008	-0.049	
19.460	-0.148	-0.073	
19.465	-0.200	-0.094	
19.470	-0.015	-0.113	
19.475	-0.047	-0.114	
19.480	-0.188	-0.108	
19.485	-0.021	-0.105	
19.490	0.306	-0.081	
19.495	0.329	-0.012	
19.500	0.689	0.101	
19.505	1.029	0.264	
19.510	0.593	0.449	
19.515	-0.171	0.552	
19.520	-0.448	0.492	
19.525	-0.689	0.290	
19.530	-0.839	0.014	
19.535	-0.665	-0.264	
19.540	-0.410	-0.471	
19.545	-0.335	-0.570	
19.550	-0.192	-0.572	
19.555	0.148	-0.494	
19.560	0.075	-0.356	
19.565	0.029	-0.208	
19.570	0.390	-0.072	
19.575	0.405	0.064	
19.580	0.142	0.181	
19.585	0.392	0.255	
19.590	0.543	0.312	
19.595	0.285	0.364	
19.600	0.349	0.390	
19.605	0.588	0.403	
19.610	0.444	0.426	
19.615	0.405	0.445	
19.620	0.751	0.465	
19.625	0.790	0.514	
19.630	0.649	0.580	
19.635	0.941	0.646	
19.640	1.136	0.728	
19.645	0.913	0.824	
19.650	1.011	0.903	
19.655	1.281	0.969	
19.660	1.014	1.035	
19.665	0.782	1.065	
19.670	0.866	1.042	
19.675	0.678	0.985	
19.680	0.218	0.889	
19.685	0.248	0.740	
19.690	0.256	0.575	
19.695	-0.119	0.417	
19.700	-0.201	0.254	
19.705	-0.122	0.098	
19.710	-0.274	-0.031	
19.715	-0.372	-0.136	
19.720	-0.235	-0.221	
19.725	-0.262	-0.273	
19.730	-0.409	-0.302	
19.735	-0.317	-0.325	
19.740	-0.255	-0.336	
19.745	-0.369	-0.335	
19.750	-0.348	-0.334	
19.755	-0.215	-0.331	
19.760	-0.296	-0.318	
19.765	-0.357	-0.307	
19.770	-0.244	-0.302	
19.775	-0.226	-0.294	
19.780	-0.314	-0.282	
19.785	-0.195	-0.272	
19.790	-0.079	-0.254	
19.795	-0.213	-0.224	
19.800	-0.166	-0.199	
19.805	0.009	-0.175	
19.810	-0.117	-0.143	
19.815	-0.171	-0.119	
19.820	0.017	-0.106	
19.825	-0.005	-0.086	
19.830	-0.139	-0.067	
19.835	0.011	-0.058	
19.840	0.116	-0.042	
19.845	-0.098	-0.020	
19.850	-0.056	-0.012	
19.855	0.122	-0.010	
19.860	-0.075	-0.002	
19.865	-0.209	-0.008	
19.870	-0.058	-0.035	
19.875	-0.085	-0.061	
19.880	-0.233	-0.084	
19.885	-0.117	-0.110	
19.890	-0.037	-0.126	
19.895	-0.183	-0.128	
19.900	-0.146	-0.131	
19.905	0.088	-0.126	
19.910	0.102	-0.094	
19.915	0.271	-0.035	
19.920	0.840	0.069	
19.925	0.969	0.242	
19.930	0.532	0.435	
19.935	0.021	0.545	
19.940	-0.345	0.509	
19.945	-0.715	0.333	
19.950	-0.774	0.068	
19.955	-0.610	-0.208	
19.960	-0.538	-0.422	
19.965	-0.422	-0.546	
19.970	-0.114	-0.576	
19.975	0.026	-0.513	
19.980	-0.041	-0.392	
19.985	0.174	-0.255	
19.990	0.410	-0.107	
19.995	0.192	0.040	
20.000	0.291	0.155	
20.005	0.555	0.244	
20.010	0.378	0.325	
20.015	0.258	0.377	
20.020	0.535	0.399	
20.025	0.622	0.426	
20.030	0.370	0.460	
20.035	0.605	0.483	
20.040	0.777	0.513	
20.045	0.570	0.560	
20.050	0.710	0.600	
20.055	1.108	0.653	
20.060	0.939	0.736	
20.065	0.844	0.818	
20.070	1.149	0.882	
20.075	1.117	0.947	
20.080	0.840	0.999	
20.085	0.959	1.014	
20.090	0.950	1.005	
20.095	0.517	0.971	
20.100	0.338	0.882	
20.105	0.430	0.750	
20.110	0.061	0.605	
20.115	-0.146	0.441	
20.120	-0.064	0.265	
20.125	-0.154	0.110	
20.130	-0.319	-0.019	
20.135	-0.256	-0.127	
20.140	-0.191	-0.204	
20.145	-0.339	-0.249	
20.150	-0.325	-0.280	
20.155	-0.198	-0.299	
20.160	-0.294	-0.299	
20.165	-0.374	-0.298	
20.170	-0.217	-0.300	
20.175	-0.232	-0.294	
20.180	-0.348	-0.284	
20.185	-0.229	-0.280	
20.190	-0.145	-0.270	
20.195	-0.290	-0.253	
20.200	-0.255	-0.243	
20.205	-0.095	-0.234	
20.210	-0.182	-0.216	
20.215	-0.224	-0.198	
20.220	-0.041	-0.184	
20.225	-0.029	-0.159	
20.230	-0.149	-0.128	
20.235	-0.031	-0.106	
20.240	0.110	-0.080	
20.245	-0.090	-0.048	
20.250	-0.043	-0.029	
20.255	0.154	-0.015	
20.260	-0.040	0.005	
20.265	-0.133	0.011	
20.270	0.081	0.002	
20.275	0.052	0.001	
20.280	-0.143	0.002	
20.285	-0.049	-0.011	
20.290	0.027	-0.025	
20.295	-0.168	-0.035	
20.300	-0.157	-0.055	
20.305	0.006	-0.076	
20.310	-0.079	-0.083	
20.315	-0.154	-0.085	
20.320	0.020	-0.088	
20.325	0.021	-0.077	
20.330	-0.089	-0.059	
20.335	0.247	-0.035	
20.340	0.636	0.032	
20.345	0.527	0.153	
20.350	0.576	0.289	
20.355	0.535	0.404	
20.360	-0.165	0.455	
20.365	-0.557	0.380	
20.370	-0.601	0.186	
20.375	-0.627	-0.054	
20.380	-0.666	-0.278	
20.385	-0.412	-0.446	
20.390	-0.146	-0.522	
20.395	-0.125	-0.501	
20.400	0.044	-0.415	
20.405	0.399	-0.279	
20.410	0.277	-0.109	
20.415	0.215	0.049	
20.420	0.541	0.175	
20.425	0.547	0.290	
20.430	0.328	0.383	
20.435	0.471	0.436	
20.440	0.649	0.470	
20.445	0.415	0.501	
20.450	0.439	0.512	
20.455	0.703	0.515	
20.460	0.584	0.533	
20.465	0.486	0.553	
20.470	0.841	0.571	
20.475	0.887	0.616	
20.480	0.713	0.677	
20.485	0.934	0.733	
20.490	1.122	0.796	
20.495	0.866	0.866	
20.500	0.878	0.913	
20.505	1.055	0.938	
20.510	0.791	0.951	
20.515	0.558	0.929	
20.520	0.719	0.868	
20.525	0.537	0.795	
20.530	0.091	0.699	
20.535	0.104	0.561	
20.540	0.062	0.406	
20.545	-0.204	0.256	
20.550	-0.250	0.108	
20.555	-0.140	-0.024	
20.560	-0.303	-0.123	
20.565	-0.386	-0.201	
20.570	-0.252	-0.264	
20.575	-0.282	-0.300	
20.580	-0.386	-0.318	
20.585	-0.249	-0.328	
20.590	-0.175	-0.321	
20.595	-0.314	-0.301	
20.600	-0.296	-0.286	
20.605	-0.172	-0.276	
20.610	-0.264	-0.261	
20.615	-0.316	-0.253	
20.620	-0.156	-0.251	
20.625	-0.171	-0.240	
20.630	-0.288	-0.227	
20.635	-0.194	-0.222	
20.640	-0.090	-0.214	
20.645	-0.210	-0.197	
20.650	-0.182	-0.185	
20.655	0.012	-0.170	
20.660	-0.114	-0.144	
20.665	-0.178	-0.123	
20.670	0.012	-0.111	
20.675	0.001	-0.092	
20.680	-0.136	-0.071	
20.685	0.001	-0.060	
20.690	0.126	-0.044	
20.695	-0.093	-0.020	
20.700	-0.099	-0.012	
20.705	0.055	-0.017	
20.710	-0.102	-0.020	
20.715	-0.200	-0.034	
20.720	-0.082	-0.062	
20.725	-0.113	-0.086	
20.730	-0.255	-0.108	
20.735	-0.139	-0.134	
20.740	-0.049	-0.149	
20.745	-0.178	-0.148	
20.750	-0.140	-0.145	
20.755	0.064	-0.135	
20.760	0.020	-0.105	
20.765	0.072	-0.063	
20.770	0.550	0.002	
20.775	0.660	0.119	
20.780	0.360	0.257	
20.785	0.111	0.346	
20.790	-0.270	0.341	
20.795	-0.680	0.224	
20.800	-0.781	0.014	
20.805	-0.627	-0.224	
20.810	-0.576	-0.420	
20.815	-0.445	-0.542	
20.820	-0.117	-0.575	
20.825	0.044	-0.514	
20.830	-0.041	-0.393	
20.835	0.192	-0.253	
20.840	0.387	-0.105	
20.845	0.142	0.039	
20.850	0.189	0.142	
20.855	0.413	0.210	
20.860	0.238	0.262	
20.865	0.139	0.287	
20.870	0.469	0.291	
20.875	0.479	0.312	
20.880	0.236	0.341	
20.885	0.479	0.358	
20.890	0.675	0.387	
20.895	0.441	0.434	
20.900	0.534	0.474	
20.905	0.887	0.516	
20.910	0.793	0.585	
20.915	0.707	0.658	
20.920	1.058	0.722	
20.925	1.067	0.801	
20.930	0.730	0.872	
20.935	0.844	0.902	
20.940	0.869	0.902	
20.945	0.495	0.877	
20.950	0.380	0.807	
20.955	0.485	0.703	
20.960	0.096	0.589	
20.965	-0.122	0.450	
20.970	-0.066	0.289	
20.975	-0.151	0.137	
20.980	-0.332	0.005	
20.985	-0.273	-0.111	
20.990	-0.238	-0.199	
20.995	-0.415	-0.259	
21.000	-0.412	-0.309	
21.005	-0.294	-0.348	
21.010	-0.401	-0.367	
21.015	-0.465	-0.381	
21.020	-0.320	-0.393	
21.025	-0.305	-0.392	
21.030	-0.416	-0.381	
21.035	-0.316	-0.373	
21.040	-0.226	-0.358	
21.045	-0.331	-0.336	
21.050	-0.314	-0.318	
21.055	-0.185	-0.304	
21.060	-0.246	-0.283	
21.065	-0.308	-0.266	
21.070	-0.171	-0.257	
21.075	-0.142	-0.241	
21.080	-0.250	-0.221	
21.085	-0.174	-0.208	
21.090	-0.084	-0.195	
21.095	-0.229	-0.179	
21.100	-0.172	-0.171	
21.105	-0.008	-0.162	
21.110	-0.098	-0.141	
21.115	-0.165	-0.122	
21.120	0.011	-0.109	
21.125	0.059	-0.086	
21.130	-0.124	-0.059	
21.135	-0.035	-0.045	
21.140	0.137	-0.032	
21.145	-0.128	-0.015	
21.150	-0.171	-0.017	
21.155	-0.099	-0.041	
21.160	-0.188	-0.071	
21.165	-0.244	-0.106	
21.170	-0.098	-0.139	
21.175	-0.120	-0.156	
21.180	-0.236	-0.162	
21.185	-0.104	-0.167	
21.190	0.006	-0.159	
21.195	-0.078	-0.133	
21.200	0.140	-0.097	
21.205	0.719	-0.018	
21.210	0.774	0.132	
21.215	0.631	0.316	
21.220	0.559	0.467	
21.225	-0.142	0.530	
21.230	-0.616	0.447	
21.235	-0.712	0.228	
21.240	-0.674	-0.047	
21.245	-0.678	-0.300	
21.250	-0.489	-0.486	
21.255	-0.178	-0.572	
21.260	-0.128	-0.554	
21.265	-0.142	-0.469	
21.270	0.174	-0.352	
21.275	0.255	-0.208	
21.280	0.008	-0.067	
21.285	0.227	0.037	
21.290	0.434	0.123	
21.295	0.198	0.202	
21.300	0.183	0.251	
21.305	0.472	0.276	
21.310	0.340	0.305	
21.315	0.227	0.327	
21.320	0.550	0.339	
21.325	0.584	0.371	
21.330	0.367	0.414	
21.335	0.617	0.448	
21.340	0.863	0.496	
21.345	0.677	0.567	
21.350	0.742	0.634	
21.355	1.078	0.699	
21.360	0.982	0.781	
21.365	0.820	0.856	
21.370	0.995	0.901	
21.375	0.877	0.927	
21.380	0.501	0.919	
21.385	0.587	0.859	
21.390	0.594	0.776	
21.395	0.155	0.681	
21.400	0.008	0.551	
21.405	0.091	0.397	
21.410	-0.136	0.251	
21.415	-0.282	0.111	
21.420	-0.200	-0.019	
21.425	-0.230	-0.122	
21.430	-0.396	-0.199	
21.435	-0.320	-0.262	
21.440	-0.249	-0.304	
21.445	-0.399	-0.325	
21.450	-0.390	-0.341	
21.455	-0.236	-0.352	
21.460	-0.308	-0.346	
21.465	-0.386	-0.337	
21.470	-0.229	-0.330	
21.475	-0.201	-0.314	
21.480	-0.354	-0.294	
21.485	-0.253	-0.283	
21.490	-0.153	-0.272	
21.495	-0.277	-0.255	
21.500	-0.255	-0.244	
21.505	-0.095	-0.234	
21.510	-0.201	-0.216	
21.515	-0.265	-0.202	
21.520	-0.073	-0.195	
21.525	-0.040	-0.177	
21.530	-0.177	-0.150	
21.535	-0.058	-0.130	
21.540	0.055	-0.107	
21.545	-0.130	-0.080	
21.550	-0.096	-0.066	
21.555	0.137	-0.055	
21.560	-0.021	-0.032	
21.565	-0.101	-0.016	
21.570	0.120	-0.009	
21.575	0.126	0.008	
21.580	-0.104	0.027	
21.585	-0.024	0.027	
21.590	0.049	0.017	
21.595	-0.157	0.005	
21.600	-0.165	-0.022	
21.605	-0.009	-0.054	
21.610	-0.140	-0.074	
21.615	-0.194	-0.093	
21.620	-0.012	-0.110	
21.625	-0.027	-0.109	
21.630	-0.191	-0.101	
21.635	-0.011	-0.097	
21.640	0.348	-0.071	
21.645	0.398	0.004	
21.650	0.744	0.128	
21.655	1.155	0.305	
21.660	0.713	0.510	
21.665	-0.075	0.632	
21.670	-0.351	0.586	
21.675	-0.614	0.390	
21.680	-0.825	0.111	
21.685	-0.695	-0.183	
21.690	-0.459	-0.417	
21.695	-0.399	-0.548	
21.700	-0.235	-0.580	
21.705	0.087	-0.525	
21.710	0.076	-0.401	
21.715	0.046	-0.252	
21.720	0.413	-0.106	
21.725	0.451	0.047	
21.730	0.212	0.184	
21.735	0.436	0.277	
21.740	0.598	0.350	
21.745	0.311	0.411	
21.750	0.380	0.438	
21.755	0.698	0.453	
21.760	0.529	0.483	
21.765	0.398	0.508	
21.770	0.722	0.521	
21.775	0.796	0.553	
21.780	0.601	0.601	
21.785	0.849	0.645	
21.790	1.070	0.703	
21.795	0.858	0.779	
21.800	0.931	0.845	
21.805	1.262	0.905	
21.810	1.050	0.975	
21.815	0.782	1.021	
21.820	0.945	1.019	
21.825	0.788	0.990	
21.830	0.361	0.926	
21.835	0.358	0.810	
21.840	0.335	0.668	
21.845	-0.110	0.518	
21.850	-0.177	0.346	
21.855	-0.093	0.171	
21.860	-0.249	0.026	
21.865	-0.372	-0.095	
21.870	-0.274	-0.195	
21.875	-0.285	-0.264	
21.880	-0.409	-0.307	
21.885	-0.319	-0.337	
21.890	-0.220	-0.348	
21.895	-0.343	-0.340	
21.900	-0.337	-0.331	
21.905	-0.213	-0.322	
21.910	-0.296	-0.307	
21.915	-0.355	-0.297	
21.920	-0.198	-0.292	
21.925	-0.188	-0.280	
21.930	-0.310	-0.262	
21.935	-0.183	-0.251	
21.940	-0.084	-0.234	
21.945	-0.241	-0.210	
21.950	-0.213	-0.195	
21.955	-0.037	-0.185	
21.960	-0.134	-0.165	
21.965	-0.207	-0.148	
21.970	-0.024	-0.139	
21.975	0.001	-0.121	
21.980	-0.137	-0.097	
21.985	0.020	-0.079	
21.990	0.146	-0.053	
21.995	-0.127	-0.022	
22.000	-0.096	-0.012	
22.005	0.149	-0.013	
22.010	-0.008	-0.002	
22.015	-0.104	0.005	
22.020	0.113	0.003	
22.025	0.119	0.013	
22.030	-0.108	0.026	
22.035	-0.038	0.022	
22.040	0.032	0.008	
22.045	-0.151	-0.005	
22.050	-0.148	-0.031	
22.055	0.035	-0.056	
22.060	-0.104	-0.067	
22.065	-0.191	-0.077	
22.070	-0.003	-0.090	
22.075	0.056	-0.086	
22.080	-0.069	-0.067	
22.085	0.233	-0.038	
22.090	0.590	0.029	
22.095	0.556	0.147	
22.100	0.713	0.290	
22.105	0.762	0.433	
22.110	-0.055	0.524	
22.115	-0.520	0.478	
22.120	-0.592	0.290	
22.125	-0.646	0.035	
22.130	-0.707	-0.216	
22.135	-0.456	-0.416	
22.140	-0.185	-0.521	
22.145	-0.188	-0.523	
22.150	-0.053	-0.456	
22.155	0.311	-0.338	
22.160	0.195	-0.182	
22.165	0.082	-0.036	
22.170	0.459	0.080	
22.175	0.456	0.190	
22.180	0.213	0.282	
22.185	0.369	0.333	
22.190	0.520	0.364	
22.195	0.287	0.391	
22.200	0.346	0.398	
22.205	0.674	0.404	
22.210	0.530	0.435	
22.215	0.381	0.468	
22.220	0.777	0.493	
22.225	0.924	0.546	
22.230	0.713	0.626	
22.235	0.948	0.702	
22.240	1.162	0.783	
22.245	0.908	0.872	
22.250	0.925	0.935	
22.255	1.128	0.972	
22.260	0.848	0.997	
22.265	0.593	0.983	
22.270	0.727	0.922	
22.275	0.515	0.840	
22.280	0.073	0.729	
22.285	0.075	0.574	
22.290	0.087	0.406	
22.295	-0.157	0.253	
22.300	-0.206	0.111	
22.305	-0.130	-0.012	
22.310	-0.273	-0.104	
22.315	-0.381	-0.179	
22.320	-0.255	-0.242	
22.325	-0.247	-0.281	
22.330	-0.387	-0.301	
22.335	-0.282	-0.315	
22.340	-0.198	-0.317	
22.345	-0.335	-0.306	
22.350	-0.334	-0.300	
22.355	-0.186	-0.296	
22.360	-0.255	-0.284	
22.365	-0.325	-0.273	
22.370	-0.168	-0.266	
22.375	-0.151	-0.251	
22.380	-0.297	-0.233	
22.385	-0.186	-0.224	
22.390	-0.076	-0.213	
22.395	-0.226	-0.194	
22.400	-0.203	-0.183	
22.405	-0.026	-0.174	
22.410	-0.114	-0.154	
22.415	-0.206	-0.137	
22.420	-0.043	-0.130	
22.425	-0.003	-0.116	
22.430	-0.133	-0.096	
22.435	0.001	-0.081	
22.440	0.177	-0.056	
22.445	-0.044	-0.020	
22.450	-0.040	0.004	
22.455	0.175	0.018	
22.460	-0.031	0.034	
22.465	-0.128	0.035	
22.470	0.032	0.017	
22.475	0.011	0.003	
22.480	-0.177	-0.010	
22.485	-0.076	-0.034	
22.490	0.021	-0.054	
22.495	-0.163	-0.063	
22.500	-0.140	-0.076	
22.505	0.068	-0.086	
22.510	-0.070	-0.078	
22.515	-0.153	-0.070	
22.520	0.094	-0.067	
22.525	0.233	-0.040	
22.530	0.161	0.014	
22.535	0.576	0.090	
22.540	0.857	0.211	
22.545	0.476	0.359	
22.550	-0.012	0.448	
22.555	-0.250	0.419	
22.560	-0.569	0.277	
22.565	-0.730	0.059	
22.570	-0.555	-0.179	
22.575	-0.422	-0.367	
22.580	-0.387	-0.474	
22.585	-0.124	-0.500	
22.590	0.195	-0.441	
22.595	0.075	-0.315	
22.600	0.160	-0.171	
22.605	0.483	-0.029	
22.610	0.358	0.115	
22.615	0.180	0.228	
22.620	0.491	0.298	
22.625	0.529	0.355	
22.630	0.230	0.399	
22.635	0.425	0.413	
22.640	0.590	0.420	
22.645	0.355	0.437	
22.650	0.370	0.442	
22.655	0.663	0.443	
22.660	0.565	0.467	
22.665	0.463	0.496	
22.670	0.822	0.526	
22.675	0.877	0.581	
22.680	0.658	0.650	
22.685	0.890	0.706	
22.690	1.091	0.767	
22.695	0.767	0.832	
22.700	0.687	0.863	
22.705	0.877	0.859	
22.710	0.607	0.839	
22.715	0.291	0.784	
22.720	0.447	0.688	
22.725	0.255	0.580	
22.730	-0.099	0.459	
22.735	-0.073	0.315	
22.740	-0.037	0.172	
22.745	-0.238	0.053	
22.750	-0.262	-0.051	
22.755	-0.145	-0.135	
22.760	-0.258	-0.189	
22.765	-0.363	-0.227	
22.770	-0.204	-0.259	
22.775	-0.192	-0.272	
22.780	-0.342	-0.270	
22.785	-0.230	-0.271	
22.790	-0.130	-0.264	
22.795	-0.277	-0.248	
22.800	-0.279	-0.238	
22.805	-0.125	-0.234	
22.810	-0.213	-0.223	
22.815	-0.276	-0.215	
22.820	-0.116	-0.212	
22.825	-0.081	-0.198	
22.830	-0.227	-0.178	
22.835	-0.136	-0.167	
22.840	-0.024	-0.154	
22.845	-0.171	-0.136	
22.850	-0.124	-0.125	
22.855	0.108	-0.110	
22.860	-0.035	-0.080	
22.865	-0.124	-0.055	
22.870	0.084	-0.041	
22.875	0.091	-0.021	
22.880	-0.120	0.000	
22.885	0.018	0.004	
22.890	0.223	0.012	
22.895	-0.038	0.033	
22.900	-0.044	0.042	
22.905	0.136	0.039	
22.910	-0.018	0.040	
22.915	-0.127	0.032	
22.920	0.008	0.010	
22.925	-0.005	-0.008	
22.930	-0.165	-0.023	
22.935	-0.070	-0.045	
22.940	0.026	-0.060	
22.945	-0.145	-0.064	
22.950	-0.142	-0.073	
22.955	0.068	-0.080	
22.960	-0.035	-0.071	
22.965	-0.063	-0.056	
22.970	0.375	-0.029	
22.975	0.630	0.051	
22.980	0.512	0.180	
22.985	0.608	0.314	
22.990	0.337	0.418	
22.995	-0.357	0.434	
23.000	-0.633	0.316	
23.005	-0.584	0.097	
23.010	-0.599	-0.139	
23.015	-0.569	-0.338	
23.020	-0.274	-0.466	
23.025	-0.104	-0.499	
23.030	-0.116	-0.451	
23.035	0.105	-0.355	
23.040	0.364	-0.221	
23.045	0.178	-0.068	
23.050	0.209	0.063	
23.055	0.482	0.166	
23.060	0.317	0.254	
23.065	0.177	0.310	
23.070	0.479	0.334	
23.075	0.468	0.358	
23.080	0.207	0.378	
23.085	0.405	0.378	
23.090	0.619	0.384	
23.095	0.383	0.409	
23.100	0.399	0.428	
23.105	0.779	0.449	
23.110	0.748	0.501	
23.115	0.660	0.570	
23.120	0.985	0.639	
23.125	0.974	0.722	
23.130	0.729	0.798	
23.135	0.902	0.842	
23.140	1.012	0.872	
23.145	0.645	0.890	
23.150	0.497	0.864	
23.155	0.613	0.796	
23.160	0.285	0.708	
23.165	-0.018	0.588	
23.170	0.091	0.436	
23.175	-0.006	0.288	
23.180	-0.239	0.155	
23.185	-0.195	0.029	
23.190	-0.149	-0.074	
23.195	-0.303	-0.148	
23.200	-0.343	-0.207	
23.205	-0.242	-0.255	
23.210	-0.332	-0.285	
23.215	-0.418	-0.309	
23.220	-0.279	-0.330	
23.225	-0.258	-0.336	
23.230	-0.369	-0.331	
23.235	-0.261	-0.325	
23.240	-0.163	-0.311	
23.245	-0.313	-0.288	
23.250	-0.314	-0.275	
23.255	-0.136	-0.267	
23.260	-0.217	-0.251	
23.265	-0.288	-0.236	
23.270	-0.134	-0.228	
23.275	-0.095	-0.212	
23.280	-0.232	-0.191	
23.285	-0.160	-0.178	
23.290	-0.041	-0.166	
23.295	-0.185	-0.150	
23.300	-0.168	-0.141	
23.305	0.049	-0.132	
23.310	-0.064	-0.109	
23.315	-0.166	-0.090	
23.320	0.014	-0.081	
23.325	0.058	-0.065	
23.330	-0.111	-0.045	
23.335	-0.024	-0.035	
23.340	0.088	-0.027	
23.345	-0.110	-0.016	
23.350	-0.120	-0.020	
23.355	0.011	-0.033	
23.360	-0.110	-0.044	
23.365	-0.213	-0.060	
23.370	-0.075	-0.085	
23.375	-0.076	-0.102	
23.380	-0.230	-0.113	
23.385	-0.137	-0.128	
23.390	-0.037	-0.137	
23.395	-0.163	-0.134	
23.400	-0.136	-0.130	
23.405	0.258	-0.113	
23.410	0.335	-0.050	
23.415	0.346	0.049	
23.420	0.655	0.166	
23.425	0.436	0.289	
23.430	-0.247	0.356	
23.435	-0.523	0.296	
23.440	-0.650	0.122	
23.445	-0.799	-0.106	
23.450	-0.689	-0.335	
23.455	-0.393	-0.504	
23.460	-0.291	-0.576	
23.465	-0.239	-0.561	
23.470	0.020	-0.485	
23.475	0.174	-0.359	
23.480	-0.024	-0.215	
23.485	0.168	-0.091	
23.490	0.433	0.021	
23.495	0.174	0.128	
23.500	0.195	0.202	
23.505	0.482	0.249	
23.510	0.340	0.296	
23.515	0.194	0.326	
23.520	0.485	0.337	
23.525	0.521	0.358	
23.530	0.282	0.386	
23.535	0.515	0.402	
23.540	0.733	0.430	
23.545	0.535	0.481	
23.550	0.645	0.530	
23.555	1.040	0.588	
23.560	0.959	0.678	
23.565	0.826	0.772	
23.570	1.116	0.848	
23.575	1.058	0.918	
23.580	0.678	0.964	
23.585	0.707	0.952	
23.590	0.735	0.902	
23.595	0.294	0.824	
23.600	0.097	0.700	
23.605	0.157	0.539	
23.610	-0.090	0.375	
23.615	-0.264	0.212	
23.620	-0.186	0.056	
23.625	-0.229	-0.071	
23.630	-0.404	-0.169	
23.635	-0.342	-0.249	
23.640	-0.250	-0.305	
23.645	-0.393	-0.333	
23.650	-0.438	-0.353	
23.655	-0.300	-0.370	
23.660	-0.377	-0.376	
23.665	-0.448	-0.378	
23.670	-0.291	-0.382	
23.675	-0.256	-0.373	
23.680	-0.370	-0.353	
23.685	-0.259	-0.337	
23.690	-0.168	-0.315	
23.695	-0.310	-0.288	
23.700	-0.294	-0.272	
23.705	-0.130	-0.261	
23.710	-0.195	-0.242	
23.715	-0.277	-0.225	
23.720	-0.117	-0.215	
23.725	-0.078	-0.198	
23.730	-0.201	-0.174	
23.735	-0.119	-0.159	
23.740	-0.002	-0.142	
23.745	-0.185	-0.122	
23.750	-0.165	-0.114	
23.755	0.053	-0.110	
23.760	-0.046	-0.093	
23.765	-0.127	-0.075	
23.770	0.052	-0.064	
23.775	0.032	-0.046	
23.780	-0.180	-0.032	
23.785	-0.108	-0.039	
23.790	0.000	-0.054	
23.795	-0.192	-0.065	
23.800	-0.203	-0.085	
23.805	-0.049	-0.110	
23.810	-0.139	-0.122	
23.815	-0.232	-0.131	
23.820	-0.073	-0.142	
23.825	-0.067	-0.142	
23.830	-0.192	-0.134	
23.835	0.014	-0.126	
23.840	0.462	-0.085	
23.845	0.498	0.017	
23.850	0.573	0.158	
23.855	0.770	0.309	
23.860	0.101	0.429	
23.865	-0.460	0.432	
23.870	-0.607	0.288	
23.875	-0.707	0.054	
23.880	-0.788	-0.200	
23.885	-0.561	-0.420	
23.890	-0.265	-0.551	
23.895	-0.230	-0.574	
23.900	-0.098	-0.518	
23.905	0.312	-0.400	
23.910	0.267	-0.231	
23.915	0.131	-0.061	
23.920	0.442	0.079	
23.925	0.479	0.202	
23.930	0.212	0.300	
23.935	0.370	0.351	
23.940	0.607	0.384	
23.945	0.412	0.421	
23.950	0.344	0.443	
23.955	0.623	0.452	
23.960	0.517	0.470	
23.965	0.323	0.484	
23.970	0.669	0.486	
23.975	0.784	0.510	
23.980	0.599	0.558	
23.985	0.864	0.610	
23.990	1.107	0.682	
23.995	0.875	0.774	
24.000	0.878	0.848	
24.005	1.125	0.902	
24.010	0.904	0.948	
24.015	0.596	0.958	
24.020	0.724	0.917	
24.025	0.578	0.848	
24.030	0.146	0.751	
24.035	0.203	0.614	
24.040	0.207	0.469	
24.045	-0.136	0.333	
24.050	-0.229	0.191	
24.055	-0.148	0.052	
24.060	-0.250	-0.062	
24.065	-0.374	-0.154	
24.070	-0.250	-0.228	
24.075	-0.238	-0.274	
24.080	-0.390	-0.297	
24.085	-0.320	-0.316	
24.090	-0.236	-0.325	
24.095	-0.355	-0.323	
24.100	-0.340	-0.321	
24.105	-0.183	-0.317	
24.110	-0.239	-0.301	
24.115	-0.314	-0.282	
24.120	-0.203	-0.270	
24.125	-0.192	-0.257	
24.130	-0.322	-0.244	
24.135	-0.213	-0.242	
24.140	-0.092	-0.235	
24.145	-0.209	-0.216	
24.150	-0.203	-0.199	
24.155	-0.029	-0.184	
24.160	-0.136	-0.161	
24.165	-0.217	-0.144	
24.170	-0.020	-0.136	
24.175	0.040	-0.117	
24.180	-0.134	-0.090	
24.185	-0.034	-0.072	
24.190	0.165	-0.051	
24.195	-0.050	-0.021	
24.200	-0.085	-0.003	
24.205	0.130	0.002	
24.210	-0.032	0.011	
24.215	-0.178	0.008	
24.220	-0.063	-0.016	
24.225	-0.060	-0.041	
24.230	-0.209	-0.064	
24.235	-0.110	-0.091	
24.240	0.020	-0.106	
24.245	-0.151	-0.104	
24.250	-0.146	-0.104	
24.255	0.055	-0.102	
24.260	0.003	-0.084	
24.265	0.067	-0.054	
24.270	0.614	0.005	
24.275	0.758	0.128	
24.280	0.428	0.283	
24.285	0.166	0.389	
24.290	-0.210	0.395	
24.295	-0.640	0.284	
24.300	-0.782	0.072	
24.305	-0.624	-0.176	
24.310	-0.540	-0.384	
24.315	-0.453	-0.515	
24.320	-0.148	-0.558	
24.325	0.024	-0.509	
24.330	-0.063	-0.399	
24.335	0.223	-0.265	
24.340	0.480	-0.111	
24.345	0.241	0.051	
24.350	0.250	0.177	
24.355	0.558	0.267	
24.360	0.442	0.345	
24.365	0.227	0.396	
24.370	0.598	0.418	
24.375	0.599	0.444	
24.380	0.332	0.474	
24.385	0.508	0.482	
24.390	0.724	0.493	
24.395	0.500	0.521	
24.400	0.567	0.544	
24.405	0.941	0.574	
24.410	0.895	0.637	
24.415	0.785	0.712	
24.420	1.110	0.783	
24.425	1.162	0.865	
24.430	0.890	0.946	
24.435	0.989	0.992	
24.440	1.114	1.016	
24.445	0.706	1.021	
24.450	0.471	0.973	
24.455	0.567	0.872	
24.460	0.242	0.747	
24.465	-0.073	0.593	
24.470	-0.020	0.411	
24.475	-0.067	0.237	
24.480	-0.288	0.088	
24.485	-0.265	-0.044	
24.490	-0.178	-0.147	
24.495	-0.328	-0.214	
24.500	-0.354	-0.262	
24.505	-0.221	-0.296	
24.510	-0.282	-0.307	
24.515	-0.381	-0.310	
24.520	-0.252	-0.314	
24.525	-0.250	-0.310	
24.530	-0.366	-0.303	
24.535	-0.267	-0.301	
24.540	-0.169	-0.294	
24.545	-0.297	-0.278	
24.550	-0.287	-0.267	
24.555	-0.125	-0.258	
24.560	-0.180	-0.240	
24.565	-0.255	-0.220	
24.570	-0.084	-0.206	
24.575	-0.035	-0.182	
24.580	-0.183	-0.152	
24.585	-0.072	-0.131	
24.590	0.050	-0.109	
24.595	-0.099	-0.082	
24.600	-0.120	-0.065	
24.605	0.093	-0.057	
24.610	-0.006	-0.039	
24.615	-0.120	-0.025	
24.620	0.097	-0.021	
24.625	0.130	-0.005	
24.630	-0.117	0.014	
24.635	-0.085	0.013	
24.640	0.021	-0.003	
24.645	-0.162	-0.019	
24.650	-0.194	-0.047	
24.655	-0.037	-0.079	
24.660	-0.131	-0.098	
24.665	-0.235	-0.114	
24.670	-0.089	-0.133	
24.675	-0.027	-0.138	
24.680	-0.169	-0.129	
24.685	0.023	-0.117	
24.690	0.491	-0.072	
24.695	0.518	0.033	
24.700	0.651	0.179	
24.705	0.890	0.343	
24.710	0.244	0.484	
24.715	-0.416	0.508	
24.720	-0.566	0.373	
24.725	-0.704	0.134	
24.730	-0.811	-0.137	
24.735	-0.579	-0.379	
24.740	-0.294	-0.532	
24.745	-0.259	-0.576	
24.750	-0.151	-0.535	
24.755	0.201	-0.433	
24.760	0.184	-0.283	
24.765	0.078	-0.127	
24.770	0.410	0.008	
24.775	0.457	0.135	
24.780	0.172	0.242	
24.785	0.351	0.303	
24.790	0.584	0.344	
24.795	0.370	0.388	
24.800	0.366	0.416	
24.805	0.657	0.434	
24.810	0.596	0.468	
24.815	0.422	0.503	
24.820	0.761	0.529	
24.825	0.863	0.574	
24.830	0.637	0.634	
24.835	0.899	0.686	
24.840	1.207	0.754	
24.845	1.014	0.847	
24.850	0.995	0.932	
24.855	1.268	0.999	
24.860	1.058	1.059	
24.865	0.701	1.082	
24.870	0.820	1.045	
24.875	0.683	0.973	
24.880	0.256	0.871	
24.885	0.212	0.725	
24.890	0.218	0.561	
24.895	-0.124	0.401	
24.900	-0.217	0.237	
24.905	-0.134	0.081	
24.910	-0.297	-0.047	
24.915	-0.432	-0.155	
24.920	-0.314	-0.247	
24.925	-0.305	-0.310	
24.930	-0.445	-0.347	
24.935	-0.361	-0.373	
24.940	-0.264	-0.383	
24.945	-0.380	-0.376	
24.950	-0.361	-0.367	
24.955	-0.224	-0.356	
24.960	-0.271	-0.335	
24.965	-0.334	-0.313	
24.970	-0.200	-0.298	
24.975	-0.203	-0.278	
24.980	-0.331	-0.260	
24.985	-0.241	-0.255	
24.990	-0.101	-0.247	
24.995	-0.207	-0.228	
25.000	-0.197	-0.209	
25.005	-0.041	-0.191	
25.010	-0.101	-0.164	
25.015	-0.195	-0.141	
25.020	-0.046	-0.128	
25.025	-0.018	-0.113	
25.030	-0.154	-0.095	
25.035	-0.049	-0.086	
25.040	0.110	-0.072	
25.045	-0.092	-0.049	
25.050	-0.125	-0.037	
25.055	0.027	-0.039	
25.060	-0.107	-0.041	
25.065	-0.233	-0.054	
25.070	-0.090	-0.081	
25.075	-0.075	-0.102	
25.080	-0.221	-0.114	
25.085	-0.160	-0.131	
25.090	-0.046	-0.142	
25.095	-0.148	-0.140	
25.100	-0.127	-0.134	
25.105	0.087	-0.121	
25.110	0.166	-0.083	
25.115	0.265	-0.017	
25.120	0.773	0.086	
25.125	0.875	0.245	
25.130	0.300	0.408	
25.135	-0.165	0.474	
25.140	-0.428	0.397	
25.145	-0.741	0.205	
25.150	-0.791	-0.052	
25.155	-0.582	-0.303	
25.160	-0.471	-0.482	
25.165	-0.367	-0.569	
25.170	-0.060	-0.565	
25.175	0.184	-0.473	
25.180	0.046	-0.324	
25.185	0.271	-0.165	
25.190	0.489	-0.007	
25.195	0.258	0.141	
25.200	0.253	0.246	
25.205	0.599	0.315	
25.210	0.526	0.382	
25.215	0.331	0.436	
25.220	0.594	0.464	
25.225	0.631	0.492	
25.230	0.451	0.521	
25.235	0.619	0.538	
25.240	0.867	0.566	
25.245	0.687	0.615	
25.250	0.735	0.663	
25.255	1.052	0.712	
25.260	0.992	0.782	
25.265	0.918	0.854	
25.270	1.206	0.918	
25.275	1.189	0.989	
25.280	0.852	1.046	
25.285	0.893	1.055	
25.290	0.913	1.029	
25.295	0.492	0.975	
25.300	0.267	0.868	
25.305	0.346	0.718	
25.310	0.046	0.559	
25.315	-0.149	0.390	
25.320	-0.075	0.220	
25.325	-0.108	0.077	
25.330	-0.291	-0.034	
25.335	-0.242	-0.126	
25.340	-0.178	-0.192	
25.345	-0.337	-0.232	
25.350	-0.372	-0.265	
25.355	-0.239	-0.294	
25.360	-0.297	-0.307	
25.365	-0.390	-0.313	
25.370	-0.259	-0.320	
25.375	-0.236	-0.317	
25.380	-0.361	-0.308	
25.385	-0.288	-0.304	
25.390	-0.151	-0.296	
25.395	-0.259	-0.277	
25.400	-0.274	-0.260	
25.405	-0.111	-0.246	
25.410	-0.168	-0.224	
25.415	-0.233	-0.204	
25.420	-0.061	-0.188	
25.425	-0.035	-0.164	
25.430	-0.204	-0.137	
25.435	-0.140	-0.126	
25.440	-0.021	-0.120	
25.445	-0.148	-0.111	
25.450	-0.149	-0.107	
25.455	0.015	-0.105	
25.460	-0.064	-0.094	
25.465	-0.169	-0.084	
25.470	-0.003	-0.082	
25.475	0.003	-0.074	
25.480	-0.215	-0.066	
25.485	-0.156	-0.077	
25.490	-0.023	-0.093	
25.495	-0.171	-0.102	
25.500	-0.165	-0.111	
25.505	0.033	-0.117	
25.510	-0.067	-0.106	
25.515	-0.169	-0.093	
25.520	0.006	-0.088	
25.525	0.142	-0.070	
25.530	0.068	-0.032	
25.535	0.427	0.025	
25.540	0.687	0.123	
25.545	0.288	0.245	
25.550	-0.131	0.312	
25.555	-0.352	0.272	
25.560	-0.637	0.134	
25.565	-0.790	-0.070	
25.570	-0.610	-0.287	
25.575	-0.447	-0.455	
25.580	-0.406	-0.541	
25.585	-0.175	-0.550	
25.590	0.143	-0.481	
25.595	0.050	-0.351	
25.600	0.099	-0.206	
25.605	0.413	-0.067	
25.610	0.283	0.070	
25.615	0.111	0.175	
25.620	0.412	0.236	
25.625	0.472	0.288	
25.630	0.223	0.333	
25.635	0.355	0.352	
25.640	0.596	0.367	
25.645	0.335	0.394	
25.650	0.290	0.406	
25.655	0.584	0.406	
25.660	0.515	0.422	
25.665	0.399	0.445	
25.670	0.750	0.469	
25.675	0.895	0.524	
25.680	0.654	0.601	
25.685	0.817	0.667	
25.690	1.018	0.729	
25.695	0.765	0.792	
25.700	0.662	0.825	
25.705	0.823	0.823	
25.710	0.558	0.803	
25.715	0.235	0.745	
25.720	0.367	0.643	
25.725	0.232	0.530	
25.730	-0.125	0.409	
25.735	-0.142	0.267	
25.740	-0.105	0.124	
25.745	-0.294	0.001	
25.750	-0.319	-0.107	
25.755	-0.209	-0.192	
25.760	-0.282	-0.246	
25.765	-0.407	-0.281	
25.770	-0.291	-0.311	
25.775	-0.246	-0.325	
25.780	-0.380	-0.326	
25.785	-0.294	-0.326	
25.790	-0.182	-0.319	
25.795	-0.300	-0.301	
25.800	-0.308	-0.287	
25.805	-0.157	-0.276	
25.810	-0.224	-0.259	
25.815	-0.294	-0.245	
25.820	-0.116	-0.235	
25.825	-0.066	-0.214	
25.830	-0.186	-0.185	
25.835	-0.120	-0.162	
25.840	-0.002	-0.140	
25.845	-0.148	-0.116	
25.850	-0.177	-0.105	
25.855	0.026	-0.102	
25.860	-0.038	-0.089	
25.865	-0.160	-0.076	
25.870	-0.008	-0.073	
25.875	0.055	-0.063	
25.880	-0.131	-0.048	
25.885	-0.053	-0.044	
25.890	0.056	-0.042	
25.895	-0.140	-0.037	
25.900	-0.178	-0.046	
25.905	-0.029	-0.067	
25.910	-0.133	-0.081	
25.915	-0.250	-0.099	
25.920	-0.107	-0.123	
25.925	-0.075	-0.137	
25.930	-0.220	-0.141	
25.935	-0.143	-0.147	
25.940	0.059	-0.143	
25.945	0.033	-0.115	
25.950	0.204	-0.064	
25.955	0.651	0.023	
25.960	0.584	0.158	
25.965	0.151	0.286	
25.970	-0.108	0.332	
25.975	-0.442	0.270	
25.980	-0.778	0.108	
25.985	-0.747	-0.118	
25.990	-0.549	-0.338	
25.995	-0.500	-0.492	
26.000	-0.306	-0.562	
26.005	0.047	-0.542	
26.010	0.072	-0.439	
26.015	-0.006	-0.299	
26.020	0.317	-0.157	
26.025	0.412	-0.011	
26.030	0.184	0.124	
26.035	0.383	0.222	
26.040	0.601	0.300	
26.045	0.357	0.373	
26.050	0.287	0.414	
26.055	0.564	0.426	
26.060	0.447	0.440	
26.065	0.290	0.446	
26.070	0.602	0.442	
26.075	0.716	0.460	
26.080	0.506	0.501	
26.085	0.713	0.542	
26.090	1.009	0.598	
26.095	0.802	0.678	
26.100	0.819	0.750	
26.105	1.168	0.814	
26.110	1.006	0.887	
26.115	0.744	0.940	
26.120	0.959	0.952	
26.125	0.915	0.947	
26.130	0.463	0.920	
26.135	0.412	0.841	
26.140	0.405	0.725	
26.145	0.020	0.591	
26.150	-0.095	0.433	
26.155	-0.003	0.267	
26.160	-0.159	0.124	
26.165	-0.317	0.002	
26.170	-0.220	-0.106	
26.175	-0.232	-0.185	
26.180	-0.390	-0.239	
26.185	-0.329	-0.283	
26.190	-0.238	-0.312	
26.195	-0.358	-0.323	
26.200	-0.367	-0.329	
26.205	-0.206	-0.332	
26.210	-0.264	-0.320	
26.215	-0.367	-0.306	
26.220	-0.220	-0.299	
26.225	-0.186	-0.286	
26.230	-0.303	-0.268	
26.235	-0.220	-0.257	
26.240	-0.079	-0.242	
26.245	-0.203	-0.216	
26.250	-0.217	-0.196	
26.255	-0.040	-0.182	
26.260	-0.089	-0.158	
26.265	-0.209	-0.137	
26.270	-0.066	-0.128	
26.275	-0.020	-0.117	
26.280	-0.162	-0.102	
26.285	-0.056	-0.094	
26.290	0.117	-0.080	
26.295	-0.060	-0.053	
26.300	-0.087	-0.034	
26.305	0.081	-0.025	
26.310	-0.085	-0.017	
26.315	-0.209	-0.024	
26.320	-0.075	-0.049	
26.325	-0.070	-0.072	
26.330	-0.215	-0.090	
26.335	-0.102	-0.110	
26.340	-0.009	-0.119	
26.345	-0.183	-0.116	
26.350	-0.194	-0.119	
26.355	-0.006	-0.125	
26.360	-0.070	-0.118	
26.365	-0.070	-0.103	
26.370	0.459	-0.065	
26.375	0.829	0.043	
26.380	0.704	0.219	
26.385	0.634	0.397	
26.390	0.105	0.507	
26.395	-0.497	0.484	
26.400	-0.750	0.308	
26.405	-0.665	0.041	
26.410	-0.648	-0.223	
26.415	-0.585	-0.430	
26.420	-0.249	-0.547	
26.425	-0.055	-0.556	
26.430	-0.090	-0.479	
26.435	0.105	-0.359	
26.440	0.392	-0.210	
26.445	0.181	-0.048	
26.450	0.189	0.084	
26.455	0.527	0.183	
26.460	0.430	0.275	
26.465	0.241	0.345	
26.470	0.538	0.383	
26.475	0.607	0.419	
26.480	0.367	0.458	
26.485	0.518	0.478	
26.490	0.730	0.498	
26.495	0.508	0.531	
26.500	0.555	0.555	
26.505	0.922	0.582	
26.510	0.886	0.639	
26.515	0.733	0.707	
26.520	1.050	0.767	
26.525	1.134	0.838	
26.530	0.863	0.911	
26.535	0.971	0.956	
26.540	1.133	0.983	
26.545	0.747	0.999	
26.550	0.561	0.969	
26.555	0.694	0.894	
26.560	0.370	0.799	
26.565	0.009	0.671	
26.570	0.090	0.507	
26.575	0.008	0.341	
26.580	-0.238	0.191	
26.585	-0.220	0.050	
26.590	-0.175	-0.068	
26.595	-0.351	-0.156	
26.600	-0.383	-0.228	
26.605	-0.242	-0.285	
26.610	-0.297	-0.314	
26.615	-0.393	-0.327	
26.620	-0.258	-0.335	
26.625	-0.227	-0.329	
26.630	-0.363	-0.316	
26.635	-0.285	-0.308	
26.640	-0.186	-0.299	
26.645	-0.285	-0.283	
26.650	-0.276	-0.270	
26.655	-0.104	-0.258	
26.660	-0.162	-0.234	
26.665	-0.235	-0.209	
26.670	-0.092	-0.192	
26.675	-0.053	-0.170	
26.680	-0.203	-0.146	
26.685	-0.113	-0.134	
26.690	0.046	-0.121	
26.695	-0.125	-0.099	
26.700	-0.137	-0.086	
26.705	0.070	-0.078	
26.710	-0.014	-0.061	
26.715	-0.125	-0.045	
26.720	0.061	-0.038	
26.725	0.073	-0.025	
26.730	-0.163	-0.011	
26.735	-0.124	-0.020	
26.740	-0.006	-0.040	
26.745	-0.182	-0.057	
26.750	-0.204	-0.081	
26.755	-0.024	-0.107	
26.760	-0.096	-0.115	
26.765	-0.204	-0.118	
26.770	-0.029	-0.122	
26.775	0.015	-0.113	
26.780	-0.119	-0.093	
26.785	0.119	-0.071	
26.790	0.588	-0.014	
26.795	0.596	0.103	
26.800	0.666	0.255	
26.805	0.719	0.405	
26.810	-0.020	0.500	
26.815	-0.526	0.461	
26.820	-0.634	0.279	
26.825	-0.669	0.024	
26.830	-0.746	-0.231	
26.835	-0.512	-0.438	
26.840	-0.235	-0.551	
26.845	-0.200	-0.559	
26.850	-0.073	-0.493	
26.855	0.329	-0.370	
26.860	0.293	-0.201	
26.865	0.143	-0.032	
26.870	0.441	0.104	
26.875	0.524	0.223	
26.880	0.280	0.322	
26.885	0.428	0.381	
26.890	0.651	0.423	
26.895	0.448	0.465	
26.900	0.442	0.492	
26.905	0.747	0.511	
26.910	0.662	0.545	
26.915	0.527	0.581	
26.920	0.860	0.611	
26.925	0.956	0.660	
26.930	0.748	0.725	
26.935	0.988	0.782	
26.940	1.236	0.848	
26.945	0.991	0.930	
26.950	0.924	0.989	
26.955	1.169	1.021	
26.960	0.965	1.043	
26.965	0.645	1.034	
26.970	0.758	0.978	
26.975	0.636	0.899	
26.980	0.154	0.795	
26.985	0.099	0.645	
26.990	0.125	0.474	
26.995	-0.160	0.312	
27.000	-0.241	0.154	
27.005	-0.127	0.012	
27.010	-0.218	-0.092	
27.015	-0.334	-0.168	
27.020	-0.210	-0.225	
27.025	-0.215	-0.256	
27.030	-0.380	-0.271	
27.035	-0.310	-0.288	
27.040	-0.206	-0.299	
27.045	-0.329	-0.297	
27.050	-0.329	-0.297	
27.055	-0.180	-0.296	
27.060	-0.252	-0.284	
27.065	-0.326	-0.272	
27.070	-0.156	-0.265	
27.075	-0.117	-0.248	
27.080	-0.249	-0.223	
27.085	-0.159	-0.205	
27.090	-0.032	-0.186	
27.095	-0.149	-0.160	
27.100	-0.165	-0.140	
27.105	0.017	-0.126	
27.110	-0.067	-0.105	
27.115	-0.194	-0.089	
27.120	-0.032	-0.088	
27.125	0.009	-0.082	
27.130	-0.154	-0.072	
27.135	-0.070	-0.071	
27.140	0.101	-0.066	
27.145	-0.084	-0.049	
27.150	-0.133	-0.041	
27.155	0.018	-0.045	
27.160	-0.101	-0.048	
27.165	-0.213	-0.058	
27.170	-0.099	-0.082	
27.175	-0.084	-0.101	
27.180	-0.223	-0.115	
27.185	-0.139	-0.131	
27.190	-0.046	-0.140	
27.195	-0.177	-0.137	
27.200	-0.143	-0.136	
27.205	0.192	-0.122	
27.210	0.303	-0.068	
27.215	0.331	0.023	
27.220	0.695	0.140	
27.225	0.530	0.276	
27.230	-0.182	0.364	
27.235	-0.459	0.327	
27.240	-0.572	0.171	
27.245	-0.723	-0.044	
27.250	-0.669	-0.266	
27.255	-0.407	-0.440	
27.260	-0.268	-0.525	
27.265	-0.223	-0.524	
27.270	0.061	-0.457	
27.275	0.216	-0.334	
27.280	0.040	-0.188	
27.285	0.287	-0.054	
27.290	0.512	0.074	
27.295	0.226	0.194	
27.300	0.210	0.271	
27.305	0.529	0.313	
27.310	0.392	0.353	
27.315	0.209	0.377	
27.320	0.505	0.380	
27.325	0.594	0.395	
27.330	0.358	0.424	
27.335	0.491	0.443	
27.340	0.726	0.466	
27.345	0.535	0.506	
27.350	0.569	0.541	
27.355	0.910	0.577	
27.360	0.884	0.640	
27.365	0.715	0.709	
27.370	0.985	0.764	
27.375	1.001	0.821	
27.380	0.640	0.864	
27.385	0.680	0.863	
27.390	0.736	0.829	
27.395	0.331	0.774	
27.400	0.128	0.675	
27.405	0.230	0.539	
27.410	-0.005	0.400	
27.415	-0.175	0.259	
27.420	-0.134	0.120	
27.425	-0.172	0.001	
27.430	-0.357	-0.096	
27.435	-0.306	-0.181	
27.440	-0.223	-0.245	
27.445	-0.369	-0.283	
27.450	-0.381	-0.311	
27.455	-0.247	-0.331	
27.460	-0.319	-0.335	
27.465	-0.418	-0.335	
27.470	-0.267	-0.339	
27.475	-0.210	-0.332	
27.480	-0.340	-0.315	
27.485	-0.277	-0.302	
27.490	-0.174	-0.289	
27.495	-0.288	-0.272	
27.500	-0.285	-0.261	
27.505	-0.117	-0.252	
27.510	-0.165	-0.233	
27.515	-0.267	-0.214	
27.520	-0.110	-0.202	
27.525	-0.064	-0.184	
27.530	-0.210	-0.162	
27.535	-0.127	-0.150	
27.540	0.014	-0.137	
27.545	-0.116	-0.115	
27.550	-0.133	-0.099	
27.555	0.026	-0.090	
27.560	-0.046	-0.074	
27.565	-0.139	-0.062	
27.570	-0.003	-0.060	
27.575	-0.047	-0.057	
27.580	-0.223	-0.059	
27.585	-0.177	-0.081	
27.590	-0.050	-0.105	
27.595	-0.192	-0.119	
27.600	-0.206	-0.134	
27.605	-0.052	-0.147	
27.610	-0.134	-0.146	
27.615	-0.223	-0.144	
27.620	-0.035	-0.145	
27.625	0.081	-0.128	
27.630	0.041	-0.089	
27.635	0.430	-0.026	
27.640	0.790	0.088	
27.645	0.529	0.245	
27.650	0.134	0.368	
27.655	-0.174	0.390	
27.660	-0.564	0.292	
27.665	-0.794	0.094	
27.670	-0.672	-0.151	
27.675	-0.534	-0.367	
27.680	-0.477	-0.508	
27.685	-0.227	-0.563	
27.690	0.073	-0.525	
27.695	0.015	-0.413	
27.700	0.085	-0.273	
27.705	0.355	-0.129	
27.710	0.282	0.016	
27.715	0.123	0.132	
27.720	0.416	0.208	
27.725	0.486	0.274	
27.730	0.235	0.331	
27.735	0.389	0.359	
27.740	0.576	0.381	
27.745	0.341	0.408	
27.750	0.303	0.418	
27.755	0.640	0.419	
27.760	0.556	0.441	
27.765	0.441	0.472	
27.770	0.738	0.500	
27.775	0.861	0.550	
27.780	0.672	0.617	
27.785	0.896	0.680	
27.790	1.180	0.753	
27.795	0.918	0.843	
27.800	0.820	0.908	
27.805	0.976	0.936	
27.810	0.793	0.941	
27.815	0.476	0.910	
27.820	0.562	0.833	
27.825	0.427	0.735	
27.830	-0.034	0.615	
27.835	-0.049	0.457	
27.840	-0.032	0.287	
27.845	-0.238	0.135	
27.850	-0.296	-0.002	
27.855	-0.185	-0.116	
27.860	-0.285	-0.194	
27.865	-0.404	-0.251	
27.870	-0.270	-0.295	
27.875	-0.249	-0.317	
27.880	-0.392	-0.323	
27.885	-0.310	-0.328	
27.890	-0.210	-0.327	
27.895	-0.323	-0.314	
27.900	-0.319	-0.304	
27.905	-0.183	-0.296	
27.910	-0.239	-0.280	
27.915	-0.328	-0.266	
27.920	-0.177	-0.260	
27.925	-0.133	-0.246	
27.930	-0.256	-0.226	
27.935	-0.149	-0.211	
27.940	-0.040	-0.193	
27.945	-0.194	-0.167	
27.950	-0.200	-0.153	
27.955	-0.027	-0.146	
27.960	-0.105	-0.133	
27.965	-0.201	-0.122	
27.970	-0.012	-0.118	
27.975	0.059	-0.102	
27.980	-0.114	-0.076	
27.985	-0.012	-0.057	
27.990	0.133	-0.038	
27.995	-0.076	-0.013	
28.000	-0.107	-0.004	
28.005	0.024	-0.012	
28.010	-0.099	-0.020	
28.015	-0.210	-0.038	
28.020	-0.102	-0.069	
28.025	-0.107	-0.095	
28.030	-0.259	-0.117	
28.035	-0.157	-0.143	
28.040	-0.027	-0.156	
28.045	-0.177	-0.152	
28.050	-0.169	-0.148	
28.055	0.142	-0.135	
28.060	0.262	-0.087	
28.065	0.392	0.002	
28.070	0.905	0.135	
28.075	0.933	0.320	
28.080	0.253	0.492	
28.085	-0.227	0.541	
28.090	-0.494	0.434	
28.095	-0.816	0.207	
28.100	-0.845	-0.080	
28.105	-0.605	-0.349	
28.110	-0.473	-0.534	
28.115	-0.372	-0.615	
28.120	-0.087	-0.602	
28.125	0.099	-0.505	
28.130	-0.026	-0.360	
28.135	0.177	-0.212	
28.140	0.404	-0.066	
28.145	0.166	0.071	
28.150	0.221	0.169	
28.155	0.497	0.237	
28.160	0.369	0.300	
28.165	0.201	0.342	
28.170	0.480	0.357	
28.175	0.527	0.377	
28.180	0.338	0.403	
28.185	0.534	0.422	
28.190	0.796	0.455	
28.195	0.521	0.509	
28.200	0.572	0.553	
28.205	0.956	0.594	
28.210	0.898	0.660	
28.215	0.761	0.733	
28.220	1.053	0.794	
28.225	1.073	0.859	
28.230	0.748	0.915	
28.235	0.815	0.929	
28.240	0.908	0.917	
28.245	0.486	0.885	
28.250	0.288	0.807	
28.255	0.360	0.685	
28.260	0.047	0.547	
28.265	-0.183	0.391	
28.270	-0.117	0.222	
28.275	-0.165	0.071	
28.280	-0.348	-0.053	
28.285	-0.303	-0.158	
28.290	-0.236	-0.235	
28.295	-0.393	-0.284	
28.300	-0.418	-0.322	
28.305	-0.262	-0.350	
28.310	-0.329	-0.358	
28.315	-0.395	-0.356	
28.320	-0.244	-0.353	
28.325	-0.239	-0.338	
28.330	-0.370	-0.318	
28.335	-0.274	-0.308	
28.340	-0.172	-0.296	
28.345	-0.308	-0.279	
28.350	-0.303	-0.269	
28.355	-0.157	-0.264	
28.360	-0.213	-0.251	
28.365	-0.287	-0.239	
28.370	-0.093	-0.229	
28.375	-0.049	-0.206	
28.380	-0.194	-0.175	
28.385	-0.087	-0.151	
28.390	0.076	-0.125	
28.395	-0.116	-0.091	
28.400	-0.122	-0.071	
28.405	0.102	-0.060	
28.410	-0.021	-0.040	
28.415	-0.127	-0.026	
28.420	0.070	-0.024	
28.425	0.082	-0.014	
28.430	-0.130	-0.002	
28.435	-0.082	-0.007	
28.440	0.024	-0.021	
28.445	-0.145	-0.032	
28.450	-0.168	-0.052	
28.455	0.015	-0.073	
28.460	-0.078	-0.080	
28.465	-0.203	-0.085	
28.470	-0.009	-0.094	
28.475	0.018	-0.091	
28.480	-0.128	-0.077	
28.485	0.090	-0.063	
28.490	0.517	-0.018	
28.495	0.483	0.081	
28.500	0.564	0.210	
28.505	0.730	0.342	
28.510	0.082	0.441	
28.515	-0.432	0.430	
28.520	-0.570	0.283	
28.525	-0.654	0.055	
28.530	-0.733	-0.187	
28.535	-0.521	-0.394	
28.540	-0.259	-0.517	
28.545	-0.220	-0.540	
28.550	-0.076	-0.487	
28.555	0.317	-0.374	
28.560	0.259	-0.212	
28.565	0.082	-0.051	
28.570	0.415	0.077	
28.575	0.521	0.191	
28.580	0.262	0.292	
28.585	0.442	0.356	
28.590	0.636	0.404	
28.595	0.361	0.449	
28.600	0.328	0.466	
28.605	0.681	0.466	
28.610	0.515	0.483	
28.615	0.328	0.495	
28.620	0.671	0.495	
28.625	0.733	0.515	
28.630	0.599	0.555	
28.635	0.835	0.601	
28.640	1.046	0.665	
28.645	0.822	0.747	
28.650	0.819	0.811	
28.655	1.108	0.858	
28.660	0.912	0.904	
28.665	0.608	0.924	
28.670	0.791	0.897	
28.675	0.655	0.850	
28.680	0.146	0.774	
28.685	0.116	0.643	
28.690	0.178	0.485	
28.695	-0.140	0.333	
28.700	-0.198	0.183	
28.705	-0.124	0.045	
28.710	-0.261	-0.063	
28.715	-0.387	-0.153	
28.720	-0.261	-0.228	
28.725	-0.252	-0.277	
28.730	-0.398	-0.303	
28.735	-0.323	-0.324	
28.740	-0.215	-0.332	
28.745	-0.348	-0.326	
28.750	-0.352	-0.321	
28.755	-0.209	-0.317	
28.760	-0.267	-0.305	
28.765	-0.340	-0.292	
28.770	-0.200	-0.285	
28.775	-0.153	-0.270	
28.780	-0.265	-0.249	
28.785	-0.169	-0.231	
28.790	-0.044	-0.210	
28.795	-0.178	-0.181	
28.800	-0.171	-0.160	
28.805	-0.002	-0.144	
28.810	-0.102	-0.122	
28.815	-0.182	-0.107	
28.820	0.023	-0.100	
