Vernier Format 2
ecg3.txt 10/18/2025 9:13:17
Run 1
Time	Potential	EKG	
T	P	E	
s	mV	mV	

0.000	0.636	0.029	
0.005	0.860	0.137	
0.010	0.950	0.317	
0.015	0.716	0.507	
0.020	0.803	0.654	
0.025	0.851	0.752	
0.030	0.588	0.804	
0.035	0.351	0.791	
0.040	0.293	0.712	
0.045	0.131	0.591	
0.050	-0.053	0.445	
0.055	-0.020	0.292	
0.060	-0.064	0.155	
0.065	-0.253	0.041	
0.070	-0.232	-0.060	
0.075	-0.174	-0.140	
0.080	-0.288	-0.193	
0.085	-0.345	-0.234	
0.090	-0.218	-0.266	
0.095	-0.255	-0.281	
0.100	-0.308	-0.284	
0.105	-0.204	-0.283	
0.110	-0.162	-0.270	
0.115	-0.255	-0.251	
0.120	-0.203	-0.235	
0.125	-0.128	-0.220	
0.130	-0.186	-0.202	
0.135	-0.134	-0.185	
0.140	-0.038	-0.165	
0.145	-0.079	-0.139	
0.150	-0.157	-0.116	
0.155	-0.060	-0.105	
0.160	-0.043	-0.094	
0.165	-0.149	-0.085	
0.170	-0.078	-0.085	
0.175	0.027	-0.081	
0.180	-0.095	-0.070	
0.185	-0.153	-0.066	
0.190	-0.079	-0.074	
0.195	-0.178	-0.087	
0.200	-0.264	-0.110	
0.205	-0.163	-0.141	
0.210	-0.131	-0.163	
0.215	-0.241	-0.175	
0.220	-0.178	-0.185	
0.225	-0.047	-0.185	
0.230	-0.035	-0.166	
0.235	0.177	-0.123	
0.240	0.543	-0.039	
0.245	0.565	0.093	
0.250	0.267	0.231	
0.255	-0.130	0.301	
0.260	-0.511	0.256	
0.265	-0.799	0.097	
0.270	-0.773	-0.132	
0.275	-0.573	-0.355	
0.280	-0.450	-0.508	
0.285	-0.313	-0.572	
0.290	-0.104	-0.553	
0.295	-0.053	-0.467	
0.300	-0.027	-0.350	
0.305	0.184	-0.224	
0.310	0.297	-0.092	
0.315	0.155	0.034	
0.320	0.253	0.129	
0.325	0.392	0.200	
0.330	0.253	0.258	
0.335	0.261	0.292	
0.340	0.476	0.313	
0.345	0.415	0.340	
0.350	0.376	0.368	
0.355	0.616	0.397	
0.360	0.770	0.447	
0.365	0.630	0.518	
0.370	0.828	0.589	
0.375	1.067	0.670	
0.380	0.925	0.765	
0.385	0.928	0.848	
0.390	1.401	0.926	
0.395	1.832	1.050	
0.400	2.055	1.245	
0.405	2.247	1.489	
0.410	2.116	1.734	
0.415	1.758	1.915	
0.420	1.561	1.982	
0.425	1.425	1.940	
0.430	0.997	1.811	
0.435	0.762	1.606	
0.440	0.742	1.360	
0.445	0.453	1.112	
0.450	0.120	0.867	
0.455	0.114	0.623	
0.460	0.155	0.412	
0.465	0.085	0.255	
0.470	0.177	0.155	
0.475	0.334	0.112	
0.480	0.259	0.121	
0.485	0.300	0.157	
0.490	0.627	0.214	
0.495	0.780	0.310	
0.500	0.812	0.439	
0.505	0.889	0.573	
0.510	0.706	0.685	
0.515	0.616	0.748	
0.520	0.645	0.761	
0.525	0.686	0.746	
0.530	0.434	0.714	
0.535	0.322	0.653	
0.540	0.358	0.569	
0.545	0.305	0.484	
0.550	0.143	0.405	
0.555	0.113	0.323	
0.560	0.087	0.245	
0.565	-0.047	0.172	
0.570	-0.156	0.097	
0.575	-0.148	0.019	
0.580	-0.191	-0.053	
0.585	-0.233	-0.113	
0.590	-0.185	-0.161	
0.595	-0.177	-0.191	
0.600	-0.224	-0.205	
0.605	-0.186	-0.212	
0.610	0.152	-0.197	
0.615	0.457	-0.126	
0.620	0.527	0.005	
0.625	0.247	0.150	
0.630	-0.364	0.224	
0.635	-0.858	0.157	
0.640	-0.996	-0.047	
0.645	-0.993	-0.316	
0.650	-0.986	-0.573	
0.655	-0.785	-0.766	
0.660	-0.575	-0.865	
0.665	-0.462	-0.864	
0.670	-0.364	-0.790	
0.675	-0.273	-0.676	
0.680	-0.253	-0.548	
0.685	-0.220	-0.431	
0.690	-0.137	-0.331	
0.695	-0.070	-0.248	
0.700	-0.063	-0.176	
0.705	-0.040	-0.120	
0.710	-0.009	-0.077	
0.715	-0.053	-0.046	
0.720	-0.026	-0.030	
0.725	0.099	-0.016	
0.730	0.183	0.010	
0.735	0.203	0.052	
0.740	0.352	0.106	
0.745	0.373	0.172	
0.750	0.370	0.241	
0.755	0.509	0.305	
0.760	0.587	0.371	
0.765	0.437	0.433	
0.770	0.265	0.464	
0.775	0.171	0.445	
0.780	-0.003	0.382	
0.785	-0.163	0.280	
0.790	-0.262	0.151	
0.795	-0.366	0.011	
0.800	-0.494	-0.128	
0.805	-0.601	-0.263	
0.810	-0.624	-0.388	
0.815	-0.668	-0.494	
0.820	-0.703	-0.578	
0.825	-0.665	-0.639	
0.830	-0.698	-0.677	
0.835	-0.755	-0.700	
0.840	-0.724	-0.718	
0.845	-0.694	-0.728	
0.850	-0.724	-0.729	
0.855	-0.701	-0.727	
0.860	-0.648	-0.719	
0.865	-0.692	-0.707	
0.870	-0.698	-0.696	
0.875	-0.633	-0.688	
0.880	-0.627	-0.677	
0.885	-0.631	-0.662	
0.890	-0.578	-0.647	
0.895	-0.589	-0.629	
0.900	-0.601	-0.613	
0.905	-0.550	-0.600	
0.910	-0.499	-0.585	
0.915	-0.534	-0.565	
0.920	-0.499	-0.546	
0.925	-0.430	-0.527	
0.930	-0.462	-0.504	
0.935	-0.508	-0.486	
0.940	-0.488	-0.478	
0.945	-0.474	-0.476	
0.950	-0.543	-0.479	
0.955	-0.535	-0.488	
0.960	-0.523	-0.501	
0.965	-0.604	-0.516	
0.970	-0.599	-0.536	
0.975	-0.485	-0.552	
0.980	-0.380	-0.548	
0.985	-0.220	-0.512	
0.990	0.084	-0.434	
0.995	-0.024	-0.319	
1.000	-0.384	-0.220	
1.005	-0.781	-0.203	
1.010	-0.994	-0.293	
1.015	-0.994	-0.457	
1.020	-0.994	-0.636	
1.025	-0.993	-0.791	
1.030	-0.994	-0.904	
1.035	-0.886	-0.971	
1.040	-0.589	-0.980	
1.045	-0.457	-0.920	
1.050	-0.406	-0.808	
1.055	-0.253	-0.675	
1.060	-0.156	-0.534	
1.065	-0.183	-0.400	
1.070	-0.089	-0.289	
1.075	0.111	-0.192	
1.080	0.049	-0.101	
1.085	0.044	-0.026	
1.090	0.261	0.034	
1.095	0.308	0.098	
1.100	0.358	0.168	
1.105	0.625	0.248	
1.110	0.823	0.353	
1.115	0.750	0.479	
1.120	0.919	0.602	
1.125	1.165	0.725	
1.130	1.093	0.852	
1.135	1.084	0.961	
1.140	1.232	1.045	
1.145	1.131	1.109	
1.150	0.858	1.137	
1.155	0.875	1.112	
1.160	0.815	1.053	
1.165	0.408	0.964	
1.170	0.277	0.830	
1.175	0.366	0.673	
1.180	0.094	0.522	
1.185	-0.050	0.375	
1.190	0.052	0.235	
1.195	-0.014	0.125	
1.200	-0.136	0.043	
1.205	-0.050	-0.021	
1.210	-0.014	-0.060	
1.215	-0.142	-0.079	
1.220	-0.130	-0.093	
1.225	0.033	-0.100	
1.230	-0.050	-0.090	
1.235	-0.066	-0.074	
1.240	0.104	-0.057	
1.245	0.072	-0.028	
1.250	-0.055	0.000	
1.255	0.137	0.019	
1.260	0.250	0.046	
1.265	0.070	0.084	
1.270	0.125	0.110	
1.275	0.312	0.132	
1.280	0.177	0.161	
1.285	0.134	0.183	
1.290	0.390	0.198	
1.295	0.293	0.225	
1.300	0.090	0.246	
1.305	0.287	0.246	
1.310	0.325	0.246	
1.315	0.068	0.247	
1.320	0.052	0.225	
1.325	0.113	0.187	
1.330	-0.009	0.145	
1.335	-0.040	0.101	
1.340	0.145	0.063	
1.345	0.154	0.051	
1.350	0.021	0.058	
1.355	0.291	0.073	
1.360	0.569	0.121	
1.365	0.616	0.217	
1.370	0.855	0.346	
1.375	0.918	0.496	
1.380	0.178	0.610	
1.385	-0.370	0.595	
1.390	-0.489	0.430	
1.395	-0.585	0.180	
1.400	-0.614	-0.081	
1.405	-0.364	-0.295	
1.410	-0.104	-0.413	
1.415	-0.014	-0.421	
1.420	0.194	-0.345	
1.425	0.439	-0.206	
1.430	0.360	-0.034	
1.435	0.308	0.125	
1.440	0.581	0.251	
1.445	0.591	0.362	
1.450	0.421	0.451	
1.455	0.573	0.504	
1.460	0.684	0.541	
1.465	0.501	0.572	
1.470	0.596	0.587	
1.475	0.796	0.601	
1.480	0.674	0.629	
1.485	0.689	0.657	
1.490	0.997	0.691	
1.495	0.988	0.749	
1.500	0.925	0.819	
1.505	1.107	0.885	
1.510	1.117	0.950	
1.515	0.864	1.001	
1.520	0.893	1.014	
1.525	1.041	1.003	
1.530	0.750	0.985	
1.535	0.468	0.933	
1.540	0.534	0.838	
1.545	0.290	0.720	
1.550	-0.024	0.580	
1.555	0.008	0.415	
1.560	-0.026	0.256	
1.565	-0.201	0.119	
1.570	-0.201	0.001	
1.575	-0.127	-0.091	
1.580	-0.197	-0.150	
1.585	-0.252	-0.186	
1.590	-0.134	-0.209	
1.595	-0.154	-0.212	
1.600	-0.259	-0.207	
1.605	-0.165	-0.205	
1.610	-0.113	-0.199	
1.615	-0.224	-0.187	
1.620	-0.165	-0.180	
1.625	-0.041	-0.171	
1.630	-0.096	-0.151	
1.635	-0.160	-0.131	
1.640	0.032	-0.115	
1.645	-0.026	-0.092	
1.650	-0.119	-0.070	
1.655	-0.012	-0.059	
1.660	0.015	-0.048	
1.665	-0.119	-0.039	
1.670	-0.070	-0.041	
1.675	0.183	-0.038	
1.680	0.055	-0.013	
1.685	-0.061	0.012	
1.690	0.044	0.021	
1.695	-0.029	0.022	
1.700	-0.165	0.010	
1.705	-0.093	-0.019	
1.710	-0.031	-0.047	
1.715	-0.165	-0.067	
1.720	-0.140	-0.087	
1.725	-0.003	-0.102	
1.730	-0.070	-0.100	
1.735	-0.003	-0.088	
1.740	0.471	-0.047	
1.745	0.654	0.055	
1.750	0.538	0.202	
1.755	0.535	0.341	
1.760	0.015	0.422	
1.765	-0.541	0.385	
1.770	-0.724	0.213	
1.775	-0.639	-0.032	
1.780	-0.573	-0.266	
1.785	-0.453	-0.435	
1.790	-0.148	-0.513	
1.795	0.049	-0.489	
1.800	0.053	-0.387	
1.805	0.451	-0.237	
1.810	1.404	-0.011	
1.815	2.406	0.364	
1.820	3.107	0.911	
1.825	3.114	1.553	
1.830	3.117	2.157	
1.835	3.111	2.631	
1.840	3.079	2.951	
1.845	2.869	3.124	
1.850	2.495	3.155	
1.855	2.404	3.061	
1.860	2.331	2.895	
1.865	2.264	2.709	
1.870	2.241	2.538	
1.875	2.293	2.402	
1.880	2.133	2.305	
1.885	1.988	2.227	
1.890	2.072	2.154	
1.895	1.919	2.093	
1.900	1.547	2.020	
1.905	1.398	1.908	
1.910	1.219	1.757	
1.915	0.744	1.570	
1.920	0.428	1.333	
1.925	0.160	1.051	
1.930	-0.111	0.748	
1.935	-0.258	0.447	
1.940	-0.314	0.172	
1.945	-0.352	-0.052	
1.950	-0.447	-0.220	
1.955	-0.511	-0.343	
1.960	-0.512	-0.432	
1.965	-0.540	-0.491	
1.970	-0.576	-0.530	
1.975	-0.557	-0.555	
1.980	-0.587	-0.570	
1.985	-0.616	-0.580	
1.990	-0.558	-0.588	
1.995	-0.555	-0.589	
2.000	-0.590	-0.585	
2.005	-0.587	-0.582	
2.010	-0.505	-0.578	
2.015	-0.523	-0.567	
2.020	-0.543	-0.554	
2.025	-0.496	-0.542	
2.030	-0.509	-0.530	
2.035	-0.512	-0.520	
2.040	-0.462	-0.511	
2.045	-0.392	-0.497	
2.050	-0.398	-0.474	
2.055	-0.367	-0.447	
2.060	-0.360	-0.420	
2.065	-0.406	-0.398	
2.070	-0.380	-0.385	
2.075	-0.329	-0.377	
2.080	-0.367	-0.368	
2.085	-0.518	-0.369	
2.090	-0.529	-0.390	
2.095	-0.436	-0.422	
2.100	-0.439	-0.444	
2.105	-0.416	-0.453	
2.110	-0.380	-0.450	
2.115	-0.381	-0.437	
2.120	-0.302	-0.417	
2.125	-0.081	-0.379	
2.130	0.187	-0.303	
2.135	0.247	-0.185	
2.140	0.096	-0.057	
2.145	-0.340	0.021	
2.150	-0.764	-0.007	
2.155	-0.980	-0.150	
2.160	-0.993	-0.365	
2.165	-0.938	-0.583	
2.170	-0.771	-0.751	
2.175	-0.500	-0.832	
2.180	-0.370	-0.817	
2.185	-0.316	-0.731	
2.190	-0.148	-0.607	
2.195	-0.002	-0.462	
2.200	0.023	-0.311	
2.205	0.056	-0.175	
2.210	0.204	-0.060	
2.215	0.197	0.038	
2.220	0.131	0.113	
2.225	0.186	0.159	
2.230	0.287	0.188	
2.235	0.253	0.215	
2.240	0.309	0.239	
2.245	0.413	0.266	
2.250	0.508	0.306	
2.255	0.598	0.363	
2.260	0.741	0.436	
2.265	0.790	0.524	
2.270	0.788	0.614	
2.275	0.918	0.697	
2.280	0.896	0.771	
2.285	0.694	0.822	
2.290	0.604	0.829	
2.295	0.578	0.794	
2.300	0.274	0.724	
2.305	0.052	0.610	
2.310	-0.056	0.456	
2.315	-0.233	0.283	
2.320	-0.329	0.106	
2.325	-0.345	-0.057	
2.330	-0.406	-0.193	
2.335	-0.496	-0.300	
2.340	-0.494	-0.385	
2.345	-0.494	-0.447	
2.350	-0.538	-0.488	
2.355	-0.508	-0.514	
2.360	-0.456	-0.525	
2.365	-0.480	-0.521	
2.370	-0.500	-0.511	
2.375	-0.464	-0.502	
2.380	-0.435	-0.490	
2.385	-0.454	-0.477	
2.390	-0.415	-0.463	
2.395	-0.375	-0.448	
2.400	-0.375	-0.428	
2.405	-0.375	-0.409	
2.410	-0.317	-0.391	
2.415	-0.308	-0.370	
2.420	-0.313	-0.349	
2.425	-0.273	-0.330	
2.430	-0.268	-0.312	
2.435	-0.319	-0.297	
2.440	-0.252	-0.289	
2.445	-0.235	-0.280	
2.450	-0.227	-0.268	
2.455	-0.215	-0.254	
2.460	-0.192	-0.240	
2.465	-0.271	-0.228	
2.470	-0.329	-0.230	
2.475	-0.300	-0.245	
2.480	-0.308	-0.264	
2.485	-0.363	-0.284	
2.490	-0.343	-0.305	
2.495	-0.331	-0.323	
2.500	-0.384	-0.336	
2.505	-0.339	-0.347	
2.510	-0.223	-0.347	
2.515	-0.060	-0.322	
2.520	0.261	-0.254	
2.525	0.559	-0.127	
2.530	0.290	0.036	
2.535	-0.308	0.148	
2.540	-0.665	0.130	
2.545	-0.884	-0.019	
2.550	-0.991	-0.247	
2.555	-0.883	-0.486	
2.560	-0.648	-0.671	
2.565	-0.492	-0.762	
2.570	-0.351	-0.757	
2.575	-0.168	-0.678	
2.580	-0.095	-0.550	
2.585	-0.093	-0.406	
2.590	0.050	-0.271	
2.595	0.209	-0.145	
2.600	0.276	-0.022	
2.605	0.431	0.098	
2.610	0.598	0.219	
2.615	0.543	0.338	
2.620	0.625	0.441	
2.625	0.788	0.529	
2.630	0.745	0.611	
2.635	0.727	0.677	
2.640	0.899	0.727	
2.645	0.960	0.779	
2.650	0.823	0.829	
2.655	0.939	0.864	
2.660	1.043	0.894	
2.665	0.910	0.926	
2.670	0.852	0.942	
2.675	0.825	0.935	
2.680	0.498	0.897	
2.685	0.067	0.800	
2.690	-0.104	0.629	
2.695	-0.308	0.408	
2.700	-0.544	0.166	
2.705	-0.634	-0.077	
2.710	-0.621	-0.295	
2.715	-0.697	-0.466	
2.720	-0.698	-0.590	
2.725	-0.625	-0.667	
2.730	-0.666	-0.702	
2.735	-0.643	-0.710	
2.740	-0.506	-0.697	
2.745	-0.505	-0.661	
2.750	-0.582	-0.618	
2.755	-0.508	-0.584	
2.760	-0.419	-0.552	
2.765	-0.491	-0.519	
2.770	-0.421	-0.491	
2.775	-0.242	-0.460	
2.780	-0.270	-0.414	
2.785	-0.285	-0.364	
2.790	-0.157	-0.318	
2.795	-0.133	-0.271	
2.800	-0.192	-0.226	
2.805	-0.040	-0.188	
2.810	0.082	-0.143	
2.815	-0.021	-0.090	
2.820	0.056	-0.043	
2.825	0.250	0.004	
2.830	0.136	0.058	
2.835	0.073	0.102	
2.840	0.308	0.131	
2.845	0.239	0.165	
2.850	0.061	0.190	
2.855	0.230	0.194	
2.860	0.332	0.200	
2.865	0.119	0.213	
2.870	0.088	0.210	
2.875	0.258	0.196	
2.880	0.128	0.186	
2.885	0.046	0.173	
2.890	0.290	0.158	
2.895	0.337	0.166	
2.900	0.326	0.199	
2.905	0.806	0.261	
2.910	1.105	0.384	
2.915	1.055	0.561	
2.920	0.886	0.734	
2.925	0.424	0.834	
2.930	-0.311	0.794	
2.935	-0.610	0.591	
2.940	-0.515	0.288	
2.945	-0.406	-0.009	
2.950	-0.335	-0.230	
2.955	-0.061	-0.349	
2.960	0.312	-0.349	
2.965	0.370	-0.242	
2.970	0.534	-0.072	
2.975	0.815	0.129	
2.980	0.695	0.336	
2.985	0.601	0.506	
2.990	0.797	0.620	
2.995	0.753	0.697	
3.000	0.675	0.744	
3.005	0.837	0.766	
3.010	0.863	0.783	
3.015	0.755	0.800	
3.020	0.895	0.812	
3.025	1.163	0.838	
3.030	1.078	0.895	
3.035	1.008	0.958	
3.040	1.284	1.013	
3.045	1.325	1.080	
3.050	1.140	1.147	
3.055	1.252	1.193	
3.060	1.284	1.222	
3.065	1.018	1.234	
3.070	0.898	1.207	
3.075	0.922	1.143	
3.080	0.634	1.057	
3.085	0.360	0.937	
3.090	0.416	0.787	
3.095	0.192	0.631	
3.100	-0.078	0.472	
3.105	-0.038	0.306	
3.110	0.006	0.161	
3.115	-0.160	0.052	
3.120	-0.165	-0.034	
3.125	-0.046	-0.094	
3.130	-0.149	-0.125	
3.135	-0.223	-0.144	
3.140	-0.114	-0.159	
3.145	-0.107	-0.163	
3.150	-0.201	-0.159	
3.155	-0.120	-0.157	
3.160	-0.067	-0.150	
3.165	-0.200	-0.140	
3.170	-0.191	-0.140	
3.175	-0.018	-0.142	
3.180	-0.058	-0.129	
3.185	-0.116	-0.111	
3.190	0.125	-0.089	
3.195	0.172	-0.048	
3.200	-0.018	0.002	
3.205	0.120	0.038	
3.210	0.235	0.070	
3.215	0.004	0.100	
3.220	0.020	0.109	
3.225	0.151	0.102	
3.230	0.099	0.099	
3.235	0.030	0.097	
3.240	0.258	0.097	
3.245	0.152	0.112	
3.250	-0.064	0.121	
3.255	0.023	0.106	
3.260	0.093	0.082	
3.265	-0.125	0.059	
3.270	-0.090	0.025	
3.275	0.081	-0.006	
3.280	-0.072	-0.021	
3.285	-0.177	-0.035	
3.290	0.165	-0.048	
3.295	0.416	-0.019	
3.300	0.410	0.064	
3.305	0.773	0.185	
3.310	0.924	0.344	
3.315	0.233	0.490	
3.320	-0.276	0.523	
3.325	-0.477	0.406	
3.330	-0.674	0.185	
3.335	-0.669	-0.072	
3.340	-0.406	-0.297	
3.345	-0.227	-0.432	
3.350	-0.178	-0.466	
3.355	0.047	-0.422	
3.360	0.328	-0.311	
3.365	0.157	-0.159	
3.370	0.224	-0.016	
3.375	0.500	0.109	
3.380	0.343	0.222	
3.385	0.239	0.303	
3.390	0.538	0.349	
3.395	0.495	0.391	
3.400	0.311	0.425	
3.405	0.556	0.440	
3.410	0.683	0.463	
3.415	0.454	0.499	
3.420	0.431	0.518	
3.425	0.819	0.530	
3.430	0.854	0.573	
3.435	0.835	0.643	
3.440	1.113	0.727	
3.445	1.101	0.826	
3.450	0.841	0.914	
3.455	0.947	0.961	
3.460	0.977	0.978	
3.465	0.610	0.967	
3.470	0.444	0.906	
3.475	0.538	0.802	
3.480	0.184	0.682	
3.485	-0.122	0.533	
3.490	0.000	0.359	
3.495	-0.111	0.196	
3.500	-0.277	0.057	
3.505	-0.227	-0.063	
3.510	-0.209	-0.154	
3.515	-0.328	-0.215	
3.520	-0.331	-0.261	
3.525	-0.229	-0.291	
3.530	-0.281	-0.302	
3.535	-0.349	-0.304	
3.540	-0.239	-0.305	
3.545	-0.212	-0.297	
3.550	-0.300	-0.283	
3.555	-0.201	-0.271	
3.560	-0.154	-0.254	
3.565	-0.282	-0.236	
3.570	-0.274	-0.229	
3.575	-0.149	-0.228	
3.580	-0.185	-0.221	
3.585	-0.160	-0.208	
3.590	0.512	-0.163	
3.595	1.235	-0.014	
3.600	1.407	0.265	
3.605	1.787	0.622	
3.610	2.056	1.007	
3.615	1.921	1.372	
3.620	1.878	1.657	
3.625	1.884	1.840	
3.630	1.550	1.922	
3.635	1.383	1.902	
3.640	1.485	1.809	
3.645	1.366	1.693	
3.650	0.944	1.561	
3.655	0.878	1.399	
3.660	0.814	1.223	
3.665	0.474	1.049	
3.670	0.421	0.870	
3.675	0.558	0.708	
3.680	0.413	0.587	
3.685	0.290	0.497	
3.690	0.550	0.432	
3.695	0.739	0.419	
3.700	0.674	0.459	
3.705	0.826	0.529	
3.710	0.751	0.608	
3.715	-0.040	0.640	
3.720	-0.515	0.545	
3.725	-0.703	0.316	
3.730	-0.816	0.019	
3.735	-0.784	-0.275	
3.740	-0.491	-0.501	
3.745	-0.285	-0.614	
3.750	-0.215	-0.616	
3.755	-0.076	-0.539	
3.760	0.096	-0.415	
3.765	0.166	-0.264	
3.770	0.296	-0.108	
3.775	0.541	0.049	
3.780	0.489	0.203	
3.785	0.428	0.331	
3.790	0.511	0.419	
3.795	0.500	0.475	
3.800	0.338	0.500	
3.805	0.361	0.491	
3.810	0.401	0.463	
3.815	0.296	0.432	
3.820	0.320	0.397	
3.825	0.530	0.374	
3.830	0.482	0.380	
3.835	0.422	0.401	
3.840	0.544	0.424	
3.845	0.462	0.448	
3.850	0.372	0.462	
3.855	0.373	0.456	
3.860	0.340	0.437	
3.865	0.014	0.396	
3.870	-0.113	0.314	
3.875	-0.166	0.199	
3.880	-0.299	0.071	
3.885	-0.467	-0.062	
3.890	-0.499	-0.195	
3.895	-0.529	-0.317	
3.900	-0.636	-0.420	
3.905	-0.642	-0.505	
3.910	-0.630	-0.572	
3.915	-0.695	-0.619	
3.920	-0.698	-0.653	
3.925	-0.630	-0.675	
3.930	-0.636	-0.681	
3.935	-0.666	-0.677	
3.940	-0.593	-0.668	
3.945	-0.547	-0.651	
3.950	-0.598	-0.628	
3.955	-0.537	-0.606	
3.960	-0.451	-0.581	
3.965	-0.488	-0.551	
3.970	-0.502	-0.523	
3.975	-0.438	-0.502	
3.980	-0.448	-0.483	
3.985	-0.474	-0.468	
3.990	-0.377	-0.456	
3.995	-0.329	-0.438	
4.000	-0.370	-0.413	
4.005	-0.328	-0.389	
4.010	-0.288	-0.366	
4.015	-0.326	-0.344	
4.020	-0.303	-0.327	
4.025	-0.220	-0.312	
4.030	-0.241	-0.292	
4.035	-0.299	-0.274	
4.040	-0.288	-0.267	
4.045	-0.290	-0.268	
4.050	-0.370	-0.276	
4.055	-0.378	-0.294	
4.060	-0.381	-0.318	
4.065	-0.456	-0.345	
4.070	-0.454	-0.375	
4.075	-0.392	-0.402	
4.080	-0.445	-0.418	
4.085	-0.496	-0.431	
4.090	-0.381	-0.442	
4.095	-0.249	-0.435	
4.100	-0.124	-0.398	
4.105	0.190	-0.320	
4.110	0.328	-0.196	
4.115	-0.191	-0.068	
4.120	-0.666	-0.026	
4.125	-0.976	-0.116	
4.130	-0.994	-0.305	
4.135	-0.994	-0.525	
4.140	-0.989	-0.719	
4.145	-0.942	-0.862	
4.150	-0.991	-0.952	
4.155	-0.872	-0.996	
4.160	-0.741	-0.994	
4.165	-0.822	-0.956	
4.170	-0.709	-0.904	
4.175	-0.342	-0.830	
4.180	-0.061	-0.708	
4.185	0.226	-0.528	
4.190	0.594	-0.297	
4.195	0.489	-0.041	
4.200	-0.029	0.164	
4.205	-0.087	0.251	
4.210	-0.037	0.236	
4.215	-0.159	0.170	
4.220	-0.104	0.085	
4.225	0.215	0.021	
4.230	0.180	0.009	
4.235	0.247	0.039	
4.240	0.640	0.107	
4.245	0.779	0.227	
4.250	0.666	0.377	
4.255	0.848	0.517	
4.260	0.942	0.643	
4.265	0.558	0.738	
4.270	0.407	0.762	
4.275	0.530	0.721	
4.280	0.194	0.645	
4.285	-0.063	0.528	
4.290	0.001	0.376	
4.295	-0.093	0.225	
4.300	-0.264	0.088	
4.305	-0.185	-0.032	
4.310	-0.098	-0.119	
4.315	-0.246	-0.169	
4.320	-0.262	-0.201	
4.325	-0.133	-0.222	
4.330	-0.212	-0.225	
4.335	-0.258	-0.223	
4.340	-0.075	-0.217	
4.345	-0.049	-0.196	
4.350	-0.171	-0.165	
4.355	-0.085	-0.141	
4.360	0.024	-0.118	
4.365	-0.124	-0.092	
4.370	-0.078	-0.077	
4.375	0.195	-0.059	
4.380	0.062	-0.022	
4.385	0.015	0.016	
4.390	0.223	0.046	
4.395	0.236	0.085	
4.400	0.027	0.121	
4.405	0.166	0.138	
4.410	0.337	0.153	
4.415	0.131	0.177	
4.420	0.180	0.192	
4.425	0.428	0.206	
4.430	0.255	0.235	
4.435	0.209	0.258	
4.440	0.462	0.275	
4.445	0.393	0.302	
4.450	0.068	0.321	
4.455	0.192	0.304	
4.460	0.218	0.271	
4.465	-0.037	0.232	
4.470	-0.023	0.175	
4.475	0.239	0.122	
4.480	0.101	0.099	
4.485	-0.005	0.090	
4.490	0.328	0.088	
4.495	0.553	0.126	
4.500	0.610	0.216	
4.505	1.055	0.351	
4.510	1.223	0.534	
4.515	0.561	0.713	
4.520	-0.140	0.771	
4.525	-0.380	0.653	
4.530	-0.622	0.404	
4.535	-0.683	0.101	
4.540	-0.492	-0.182	
4.545	-0.296	-0.377	
4.550	-0.204	-0.464	
4.555	0.145	-0.446	
4.560	0.552	-0.326	
4.565	0.472	-0.127	
4.570	0.590	0.090	
4.575	0.846	0.296	
4.580	0.750	0.482	
4.585	0.649	0.623	
4.590	0.893	0.713	
4.595	0.878	0.779	
4.600	0.614	0.818	
4.605	0.767	0.819	
4.610	0.954	0.811	
4.615	0.815	0.819	
4.620	0.910	0.833	
4.625	1.224	0.864	
4.630	1.142	0.927	
4.635	1.030	0.997	
4.640	1.302	1.055	
4.645	1.323	1.117	
4.650	1.061	1.173	
4.655	1.131	1.195	
4.660	1.174	1.193	
4.665	0.808	1.169	
4.670	0.691	1.103	
4.675	0.796	1.004	
4.680	0.392	0.894	
4.685	0.046	0.749	
4.690	0.102	0.567	
4.695	-0.050	0.382	
4.700	-0.227	0.210	
4.705	-0.171	0.056	
4.710	-0.111	-0.062	
4.715	-0.281	-0.140	
4.720	-0.303	-0.197	
4.725	-0.180	-0.238	
4.730	-0.265	-0.257	
4.735	-0.345	-0.268	
4.740	-0.189	-0.276	
4.745	-0.151	-0.270	
4.750	-0.293	-0.253	
4.755	-0.206	-0.242	
4.760	-0.122	-0.229	
4.765	-0.253	-0.214	
4.770	-0.247	-0.207	
4.775	-0.087	-0.204	
4.780	-0.143	-0.191	
4.785	-0.197	-0.175	
4.790	-0.044	-0.162	
4.795	-0.053	-0.142	
4.800	-0.206	-0.122	
4.805	-0.053	-0.113	
4.810	0.108	-0.098	
4.815	-0.101	-0.069	
4.820	-0.104	-0.051	
4.825	0.105	-0.043	
4.830	0.046	-0.023	
4.835	-0.047	-0.003	
4.840	0.093	0.010	
4.845	0.055	0.023	
4.850	-0.101	0.030	
4.855	-0.024	0.020	
4.860	0.017	0.005	
4.865	-0.149	-0.009	
4.870	-0.143	-0.035	
4.875	-0.005	-0.061	
4.880	-0.101	-0.074	
4.885	-0.166	-0.084	
4.890	0.000	-0.094	
4.895	0.142	-0.082	
4.900	0.184	-0.040	
4.905	0.610	0.040	
4.910	0.851	0.176	
4.915	0.392	0.335	
4.920	-0.090	0.423	
4.925	-0.387	0.380	
4.930	-0.704	0.216	
4.935	-0.819	-0.025	
4.940	-0.596	-0.274	
4.945	-0.352	-0.455	
4.950	-0.252	-0.532	
4.955	0.008	-0.511	
4.960	0.250	-0.405	
4.965	0.136	-0.249	
4.970	0.198	-0.093	
4.975	0.518	0.049	
4.980	0.419	0.186	
4.985	0.273	0.295	
4.990	0.441	0.358	
4.995	0.373	0.394	
5.000	0.273	0.406	
5.005	0.537	0.404	
5.010	0.701	0.423	
5.015	0.485	0.466	
5.020	0.569	0.505	
5.025	0.916	0.548	
5.030	0.866	0.618	
5.035	0.812	0.699	
5.040	1.133	0.776	
5.045	1.160	0.867	
5.050	0.962	0.955	
5.055	1.070	1.014	
5.060	1.038	1.047	
5.065	0.777	1.051	
5.070	0.697	1.011	
5.075	0.739	0.939	
5.080	0.341	0.846	
5.085	0.011	0.711	
5.090	0.056	0.532	
5.095	-0.037	0.350	
5.100	-0.258	0.183	
5.105	-0.247	0.031	
5.110	-0.246	-0.096	
5.115	-0.351	-0.191	
5.120	-0.299	-0.260	
5.125	-0.191	-0.298	
5.130	-0.311	-0.308	
5.135	-0.357	-0.310	
5.140	-0.229	-0.311	
5.145	-0.218	-0.302	
5.150	-0.317	-0.287	
5.155	-0.213	-0.276	
5.160	-0.119	-0.260	
5.165	-0.255	-0.236	
5.170	-0.264	-0.222	
5.175	-0.108	-0.215	
5.180	-0.159	-0.202	
5.185	-0.265	-0.190	
5.190	-0.116	-0.186	
5.195	-0.111	-0.178	
5.200	-0.239	-0.168	
5.205	-0.089	-0.163	
5.210	0.037	-0.148	
5.215	-0.130	-0.120	
5.220	-0.113	-0.100	
5.225	0.049	-0.085	
5.230	-0.055	-0.066	
5.235	-0.127	-0.053	
5.240	0.088	-0.047	
5.245	0.091	-0.029	
5.250	-0.127	-0.008	
5.255	-0.056	-0.006	
5.260	0.014	-0.015	
5.265	-0.169	-0.025	
5.270	-0.207	-0.050	
5.275	-0.070	-0.084	
5.280	-0.153	-0.108	
5.285	-0.221	-0.127	
5.290	-0.067	-0.144	
5.295	-0.063	-0.145	
5.300	-0.102	-0.132	
5.305	0.376	-0.096	
5.310	0.867	0.009	
5.315	0.840	0.195	
5.320	0.797	0.405	
5.325	0.427	0.566	
5.330	-0.358	0.600	
5.335	-0.752	0.458	
5.340	-0.765	0.182	
5.345	-0.709	-0.125	
5.350	-0.621	-0.382	
5.355	-0.348	-0.544	
5.360	-0.092	-0.588	
5.365	-0.098	-0.531	
5.370	0.023	-0.416	
5.375	0.314	-0.271	
5.380	0.178	-0.112	
5.385	0.059	0.021	
5.390	0.360	0.113	
5.395	0.428	0.193	
5.400	0.210	0.262	
5.405	0.393	0.305	
5.410	0.541	0.341	
5.415	0.372	0.381	
5.420	0.405	0.408	
5.425	0.729	0.435	
5.430	0.657	0.484	
5.435	0.593	0.540	
5.440	0.959	0.597	
5.445	1.099	0.682	
5.450	0.933	0.786	
5.455	1.120	0.881	
5.460	1.235	0.968	
5.465	0.974	1.043	
5.470	0.895	1.076	
5.475	0.979	1.066	
5.480	0.549	1.021	
5.485	0.134	0.913	
5.490	0.158	0.736	
5.495	0.033	0.536	
5.500	-0.212	0.339	
5.505	-0.209	0.152	
5.510	-0.175	-0.005	
5.515	-0.406	-0.126	
5.520	-0.448	-0.228	
5.525	-0.343	-0.313	
5.530	-0.427	-0.368	
5.535	-0.505	-0.406	
5.540	-0.374	-0.433	
5.545	-0.352	-0.441	
5.550	-0.456	-0.434	
5.555	-0.354	-0.425	
5.560	-0.267	-0.408	
5.565	-0.375	-0.383	
5.570	-0.352	-0.363	
5.575	-0.223	-0.346	
5.580	-0.281	-0.324	
5.585	-0.351	-0.305	
5.590	-0.191	-0.294	
5.595	-0.198	-0.277	
5.600	-0.314	-0.259	
5.605	-0.206	-0.250	
5.610	-0.137	-0.239	
5.615	-0.224	-0.222	
5.620	-0.182	-0.208	
5.625	-0.035	-0.192	
5.630	-0.108	-0.165	
5.635	-0.175	-0.141	
5.640	-0.003	-0.124	
5.645	0.037	-0.100	
5.650	-0.114	-0.072	
5.655	-0.005	-0.054	
5.660	0.067	-0.037	
5.665	-0.139	-0.023	
5.670	-0.198	-0.031	
5.675	-0.079	-0.057	
5.680	-0.162	-0.083	
5.685	-0.250	-0.111	
5.690	-0.111	-0.140	
5.695	-0.104	-0.155	
5.700	-0.244	-0.160	
5.705	-0.087	-0.164	
5.710	0.200	-0.146	
5.715	0.224	-0.085	
5.720	0.561	0.016	
5.725	1.043	0.173	
5.730	0.881	0.381	
5.735	0.189	0.551	
5.740	-0.250	0.580	
5.745	-0.607	0.444	
5.750	-0.861	0.189	
5.755	-0.739	-0.114	
5.760	-0.531	-0.374	
5.765	-0.438	-0.536	
5.770	-0.253	-0.593	
5.775	0.097	-0.551	
5.780	0.059	-0.429	
5.785	-0.005	-0.280	
5.790	0.364	-0.135	
5.795	0.485	0.016	
5.800	0.273	0.162	
5.805	0.410	0.270	
5.810	0.535	0.349	
5.815	0.328	0.406	
5.820	0.384	0.432	
5.825	0.697	0.448	
5.830	0.602	0.483	
5.835	0.514	0.522	
5.840	0.858	0.560	
5.845	0.899	0.620	
5.850	0.742	0.691	
5.855	1.026	0.756	
5.860	1.219	0.834	
5.865	0.899	0.920	
5.870	0.933	0.974	
5.875	1.175	1.003	
5.880	0.912	1.026	
5.885	0.640	1.015	
5.890	0.747	0.959	
5.895	0.541	0.877	
5.900	0.070	0.763	
5.905	0.064	0.600	
5.910	0.046	0.421	
5.915	-0.194	0.253	
5.920	-0.235	0.097	
5.925	-0.136	-0.034	
5.930	-0.291	-0.129	
5.935	-0.377	-0.203	
5.940	-0.296	-0.263	
5.945	-0.279	-0.302	
5.950	-0.370	-0.322	
5.955	-0.303	-0.333	
5.960	-0.201	-0.332	
5.965	-0.308	-0.317	
5.970	-0.285	-0.302	
5.975	-0.163	-0.287	
5.980	-0.255	-0.266	
5.985	-0.320	-0.253	
5.990	-0.156	-0.248	
5.995	-0.140	-0.236	
6.000	-0.258	-0.218	
6.005	-0.140	-0.206	
6.010	-0.066	-0.190	
6.015	-0.215	-0.169	
6.020	-0.201	-0.160	
6.025	-0.018	-0.155	
6.030	-0.110	-0.140	
6.035	-0.198	-0.127	
6.040	-0.029	-0.122	
6.045	0.003	-0.109	
6.050	-0.120	-0.089	
6.055	-0.002	-0.073	
6.060	0.161	-0.051	
6.065	-0.064	-0.018	
6.070	-0.064	-0.000	
6.075	0.093	0.004	
6.080	-0.082	0.007	
6.085	-0.210	-0.006	
6.090	-0.072	-0.037	
6.095	-0.093	-0.067	
6.100	-0.262	-0.093	
6.105	-0.160	-0.124	
6.110	-0.021	-0.145	
6.115	-0.105	-0.142	
6.120	0.062	-0.123	
6.125	0.591	-0.062	
6.130	0.622	0.065	
6.135	0.482	0.223	
6.140	0.471	0.354	
6.145	-0.139	0.412	
6.150	-0.614	0.346	
6.155	-0.710	0.153	
6.160	-0.656	-0.094	
6.165	-0.610	-0.319	
6.170	-0.390	-0.476	
6.175	-0.060	-0.532	
6.180	0.030	-0.483	
6.185	0.023	-0.369	
6.190	0.401	-0.223	
6.195	0.428	-0.052	
6.200	0.221	0.110	
6.205	0.367	0.226	
6.210	0.500	0.309	
6.215	0.261	0.368	
6.220	0.315	0.390	
6.225	0.619	0.399	
6.230	0.497	0.424	
6.235	0.335	0.448	
6.240	0.687	0.463	
6.245	0.739	0.498	
6.250	0.508	0.546	
6.255	0.829	0.589	
6.260	1.101	0.651	
6.265	0.852	0.741	
6.270	0.877	0.818	
6.275	1.169	0.880	
6.280	0.979	0.941	
6.285	0.770	0.977	
6.290	0.950	0.974	
6.295	0.768	0.952	
6.300	0.328	0.895	
6.305	0.268	0.780	
6.310	0.158	0.627	
6.315	-0.139	0.456	
6.320	-0.172	0.275	
6.325	-0.090	0.108	
6.330	-0.241	-0.021	
6.335	-0.351	-0.123	
6.340	-0.244	-0.205	
6.345	-0.258	-0.259	
6.350	-0.367	-0.289	
6.355	-0.305	-0.310	
6.360	-0.244	-0.320	
6.365	-0.377	-0.320	
6.370	-0.334	-0.322	
6.375	-0.212	-0.322	
6.380	-0.265	-0.309	
6.385	-0.322	-0.295	
6.390	-0.157	-0.283	
6.395	-0.160	-0.262	
6.400	-0.300	-0.239	
6.405	-0.218	-0.228	
6.410	-0.133	-0.221	
6.415	-0.230	-0.210	
6.420	-0.192	-0.202	
6.425	-0.044	-0.191	
6.430	-0.149	-0.170	
6.435	-0.201	-0.154	
6.440	-0.026	-0.144	
6.445	-0.043	-0.126	
6.450	-0.186	-0.108	
6.455	-0.067	-0.101	
6.460	0.088	-0.090	
6.465	-0.043	-0.065	
6.470	0.024	-0.039	
6.475	0.311	-0.005	
6.480	0.110	0.048	
6.485	-0.043	0.087	
6.490	0.157	0.099	
6.495	0.078	0.103	
6.500	-0.175	0.092	
6.505	-0.089	0.053	
6.510	0.023	0.009	
6.515	-0.134	-0.023	
6.520	-0.113	-0.051	
6.525	0.142	-0.065	
6.530	0.158	-0.045	
6.535	0.351	0.011	
6.540	0.953	0.120	
6.545	1.134	0.307	
6.550	0.707	0.524	
6.555	0.197	0.661	
6.560	-0.337	0.641	
6.565	-0.764	0.456	
6.570	-0.855	0.155	
6.575	-0.619	-0.164	
6.580	-0.500	-0.410	
6.585	-0.407	-0.549	
6.590	-0.114	-0.582	
6.595	0.076	-0.517	
6.600	-0.011	-0.388	
6.605	0.213	-0.241	
6.610	0.410	-0.086	
6.615	0.190	0.063	
6.620	0.229	0.171	
6.625	0.540	0.248	
6.630	0.351	0.316	
6.635	0.207	0.358	
6.640	0.599	0.376	
6.645	0.572	0.406	
6.650	0.360	0.443	
6.655	0.613	0.467	
6.660	0.848	0.505	
6.665	0.672	0.568	
6.670	0.780	0.631	
6.675	1.189	0.704	
6.680	1.146	0.808	
6.685	1.038	0.919	
6.690	1.279	1.011	
6.695	1.203	1.092	
6.700	0.841	1.138	
6.705	0.840	1.123	
6.710	0.713	1.058	
6.715	0.261	0.947	
6.720	0.056	0.777	
6.725	0.105	0.572	
6.730	-0.085	0.374	
6.735	-0.209	0.195	
6.740	-0.128	0.042	
6.745	-0.189	-0.071	
6.750	-0.367	-0.154	
6.755	-0.281	-0.222	
6.760	-0.213	-0.267	
6.765	-0.364	-0.289	
6.770	-0.389	-0.308	
6.775	-0.250	-0.325	
6.780	-0.355	-0.331	
6.785	-0.433	-0.337	
6.790	-0.314	-0.348	
6.795	-0.284	-0.352	
6.800	-0.392	-0.347	
6.805	-0.277	-0.343	
6.810	-0.180	-0.330	
6.815	-0.322	-0.307	
6.820	-0.311	-0.291	
6.825	-0.182	-0.281	
6.830	-0.261	-0.268	
6.835	-0.299	-0.258	
6.840	-0.119	-0.251	
6.845	-0.102	-0.230	
6.850	-0.246	-0.204	
6.855	-0.134	-0.187	
6.860	-0.044	-0.170	
6.865	-0.192	-0.149	
6.870	-0.151	-0.138	
6.875	0.011	-0.130	
6.880	-0.114	-0.113	
6.885	-0.163	-0.101	
6.890	0.030	-0.096	
6.895	0.009	-0.080	
6.900	-0.191	-0.064	
6.905	-0.111	-0.066	
6.910	-0.046	-0.077	
6.915	-0.235	-0.088	
6.920	-0.220	-0.111	
6.925	-0.070	-0.136	
6.930	-0.177	-0.148	
6.935	-0.233	-0.157	
6.940	-0.050	-0.165	
6.945	0.085	-0.149	
6.950	0.163	-0.101	
6.955	0.758	-0.005	
6.960	1.154	0.174	
6.965	0.727	0.405	
6.970	0.079	0.568	
6.975	-0.331	0.569	
6.980	-0.730	0.403	
6.985	-0.904	0.124	
6.990	-0.732	-0.188	
6.995	-0.604	-0.443	
7.000	-0.529	-0.601	
7.005	-0.276	-0.657	
7.010	-0.032	-0.615	
7.015	-0.099	-0.501	
7.020	-0.038	-0.365	
7.025	0.238	-0.228	
7.030	0.210	-0.088	
7.035	0.180	0.035	
7.040	0.477	0.138	
7.045	0.457	0.236	
7.050	0.183	0.314	
7.055	0.408	0.351	
7.060	0.581	0.377	
7.065	0.337	0.408	
7.070	0.369	0.423	
7.075	0.703	0.435	
7.080	0.697	0.474	
7.085	0.669	0.533	
7.090	1.015	0.605	
7.095	1.085	0.703	
7.100	0.799	0.805	
7.105	1.014	0.878	
7.110	1.134	0.934	
7.115	0.706	0.973	
7.120	0.561	0.956	
7.125	0.672	0.887	
7.130	0.312	0.791	
7.135	-0.023	0.657	
7.140	0.040	0.484	
7.145	-0.079	0.308	
7.150	-0.311	0.145	
7.155	-0.250	-0.006	
7.160	-0.177	-0.124	
7.165	-0.314	-0.202	
7.170	-0.339	-0.256	
7.175	-0.239	-0.292	
7.180	-0.335	-0.309	
7.185	-0.407	-0.321	
7.190	-0.268	-0.333	
7.195	-0.281	-0.334	
7.200	-0.398	-0.330	
7.205	-0.302	-0.330	
7.210	-0.195	-0.325	
7.215	-0.297	-0.308	
7.220	-0.271	-0.292	
7.225	-0.142	-0.275	
7.230	-0.235	-0.253	
7.235	-0.320	-0.238	
7.240	-0.142	-0.234	
7.245	-0.107	-0.221	
7.250	-0.238	-0.202	
7.255	-0.120	-0.187	
7.260	-0.008	-0.168	
7.265	-0.188	-0.143	
7.270	-0.172	-0.129	
7.275	0.017	-0.123	
7.280	-0.049	-0.105	
7.285	-0.174	-0.089	
7.290	-0.005	-0.083	
7.295	0.000	-0.074	
7.300	-0.133	-0.061	
7.305	0.003	-0.056	
7.310	0.113	-0.044	
7.315	-0.142	-0.026	
7.320	-0.175	-0.028	
7.325	-0.041	-0.049	
7.330	-0.177	-0.070	
7.335	-0.247	-0.097	
7.340	-0.064	-0.126	
7.345	-0.089	-0.139	
7.350	-0.220	-0.141	
7.355	-0.021	-0.141	
7.360	0.340	-0.111	
7.365	0.290	-0.033	
7.370	0.465	0.076	
7.375	0.755	0.206	
7.380	0.165	0.331	
7.385	-0.395	0.363	
7.390	-0.561	0.257	
7.395	-0.680	0.056	
7.400	-0.776	-0.177	
7.405	-0.535	-0.387	
7.410	-0.261	-0.516	
7.415	-0.241	-0.544	
7.420	-0.101	-0.496	
7.425	0.302	-0.388	
7.430	0.143	-0.233	
7.435	-0.002	-0.087	
7.440	0.366	0.024	
7.445	0.427	0.128	
7.450	0.148	0.218	
7.455	0.326	0.271	
7.460	0.529	0.308	
7.465	0.335	0.349	
7.470	0.314	0.374	
7.475	0.695	0.394	
7.480	0.631	0.439	
7.485	0.543	0.495	
7.490	0.834	0.549	
7.495	0.898	0.618	
7.500	0.692	0.691	
7.505	0.985	0.750	
7.510	1.194	0.818	
7.515	0.873	0.897	
7.520	0.791	0.942	
7.525	0.997	0.950	
7.530	0.739	0.941	
7.535	0.343	0.893	
7.540	0.472	0.792	
7.545	0.270	0.668	
7.550	-0.087	0.527	
7.555	-0.009	0.364	
7.560	0.001	0.212	
7.565	-0.235	0.087	
7.570	-0.235	-0.023	
7.575	-0.139	-0.112	
7.580	-0.232	-0.169	
7.585	-0.323	-0.209	
7.590	-0.174	-0.238	
7.595	-0.156	-0.247	
7.600	-0.271	-0.241	
7.605	-0.230	-0.236	
7.610	-0.145	-0.230	
7.615	-0.250	-0.221	
7.620	-0.174	-0.213	
7.625	0.023	-0.197	
7.630	-0.139	-0.164	
7.635	-0.212	-0.140	
7.640	-0.044	-0.130	
7.645	-0.061	-0.118	
7.650	-0.207	-0.107	
7.655	-0.142	-0.111	
7.660	-0.066	-0.118	
7.665	-0.194	-0.121	
7.670	-0.143	-0.128	
7.675	0.046	-0.128	
7.680	-0.041	-0.108	
7.685	-0.114	-0.086	
7.690	0.068	-0.068	
7.695	0.099	-0.041	
7.700	-0.043	-0.010	
7.705	0.158	0.015	
7.710	0.372	0.054	
7.715	0.270	0.118	
7.720	0.294	0.183	
7.725	0.501	0.244	
7.730	0.309	0.303	
7.735	0.165	0.335	
7.740	0.300	0.333	
7.745	0.242	0.317	
7.750	0.024	0.287	
7.755	0.090	0.238	
7.760	0.142	0.185	
7.765	-0.037	0.141	
7.770	0.085	0.100	
7.775	0.582	0.095	
7.780	0.623	0.161	
7.785	0.569	0.274	
7.790	0.529	0.385	
7.795	-0.073	0.440	
7.800	-0.526	0.379	
7.805	-0.645	0.198	
7.810	-0.605	-0.040	
7.815	-0.572	-0.261	
7.820	-0.406	-0.421	
7.825	-0.169	-0.494	
7.830	-0.108	-0.478	
7.835	-0.096	-0.404	
7.840	0.117	-0.302	
7.845	0.136	-0.183	
7.850	0.035	-0.071	
7.855	0.241	0.017	
7.860	0.445	0.102	
7.865	0.472	0.199	
7.870	0.482	0.296	
7.875	0.662	0.386	
7.880	0.495	0.465	
7.885	0.306	0.509	
7.890	0.456	0.508	
7.895	0.471	0.492	
7.900	0.299	0.472	
7.905	0.376	0.441	
7.910	0.521	0.417	
7.915	0.523	0.418	
7.920	0.572	0.440	
7.925	0.735	0.480	
7.930	0.732	0.540	
7.935	1.127	0.622	
7.940	1.809	0.769	
7.945	2.194	1.020	
7.950	2.098	1.338	
7.955	1.884	1.629	
7.960	1.771	1.824	
7.965	1.441	1.900	
7.970	1.174	1.855	
7.975	1.041	1.714	
7.980	0.774	1.514	
7.985	0.317	1.271	
7.990	0.270	0.994	
7.995	0.201	0.723	
8.000	-0.027	0.486	
8.005	-0.085	0.283	
8.010	-0.070	0.118	
8.015	-0.140	-0.001	
8.020	-0.178	-0.084	
8.025	-0.122	-0.138	
8.030	-0.124	-0.164	
8.035	-0.120	-0.169	
8.040	-0.029	-0.159	
8.045	-0.009	-0.133	
8.050	-0.084	-0.102	
8.055	-0.079	-0.079	
8.060	-0.053	-0.068	
8.065	-0.110	-0.063	
8.070	-0.154	-0.069	
8.075	-0.127	-0.084	
8.080	-0.149	-0.102	
8.085	-0.207	-0.121	
8.090	-0.197	-0.143	
8.095	-0.162	-0.163	
8.100	-0.221	-0.177	
8.105	-0.160	-0.186	
8.110	-0.154	-0.188	
8.115	-0.200	-0.186	
8.120	-0.217	-0.186	
8.125	-0.171	-0.188	
8.130	-0.178	-0.189	
8.135	-0.258	-0.191	
8.140	-0.259	-0.200	
8.145	-0.273	-0.216	
8.150	-0.364	-0.238	
8.155	-0.366	-0.268	
8.160	-0.349	-0.300	
8.165	-0.387	-0.327	
8.170	-0.387	-0.350	
8.175	-0.340	-0.366	
8.180	-0.352	-0.372	
8.185	-0.282	-0.367	
8.190	-0.055	-0.342	
8.195	0.200	-0.275	
8.200	0.187	-0.167	
8.205	0.032	-0.055	
8.210	-0.337	0.006	
8.215	-0.764	-0.030	
8.220	-0.991	-0.174	
8.225	-0.959	-0.383	
8.230	-0.846	-0.589	
8.235	-0.685	-0.735	
8.240	-0.419	-0.793	
8.245	-0.229	-0.756	
8.250	-0.213	-0.649	
8.255	-0.108	-0.511	
8.260	0.084	-0.365	
8.265	0.207	-0.214	
8.270	0.306	-0.063	
8.275	0.523	0.085	
8.280	0.655	0.235	
8.285	0.593	0.377	
8.290	0.622	0.491	
8.295	0.587	0.568	
8.300	0.483	0.607	
8.305	0.503	0.608	
8.310	0.599	0.593	
8.315	0.639	0.584	
8.320	0.558	0.584	
8.325	0.726	0.591	
8.330	0.767	0.613	
8.335	0.774	0.651	
8.340	0.840	0.695	
8.345	0.860	0.741	
8.350	0.645	0.775	
8.355	0.553	0.773	
8.360	0.491	0.733	
8.365	0.146	0.656	
8.370	-0.081	0.529	
8.375	-0.143	0.362	
8.380	-0.250	0.184	
8.385	-0.378	0.016	
8.390	-0.425	-0.136	
8.395	-0.462	-0.264	
8.400	-0.555	-0.366	
8.405	-0.546	-0.446	
8.410	-0.483	-0.501	
8.415	-0.547	-0.531	
8.420	-0.593	-0.548	
8.425	-0.515	-0.559	
8.430	-0.480	-0.558	
8.435	-0.492	-0.546	
8.440	-0.435	-0.526	
8.445	-0.403	-0.501	
8.450	-0.442	-0.474	
8.455	-0.398	-0.451	
8.460	-0.328	-0.428	
8.465	-0.346	-0.403	
8.470	-0.360	-0.380	
8.475	-0.305	-0.361	
8.480	-0.311	-0.345	
8.485	-0.290	-0.329	
8.490	-0.210	-0.312	
8.495	-0.159	-0.285	
8.500	-0.207	-0.254	
8.505	-0.177	-0.226	
8.510	-0.102	-0.201	
8.515	-0.119	-0.175	
8.520	-0.143	-0.152	
8.525	-0.067	-0.135	
8.530	-0.066	-0.117	
8.535	-0.096	-0.100	
8.540	-0.014	-0.086	
8.545	0.011	-0.069	
8.550	-0.063	-0.050	
8.555	-0.110	-0.042	
8.560	-0.105	-0.048	
8.565	-0.148	-0.064	
8.570	-0.169	-0.086	
8.575	-0.137	-0.110	
8.580	-0.174	-0.130	
8.585	-0.244	-0.149	
8.590	-0.185	-0.170	
8.595	-0.168	-0.185	
8.600	-0.220	-0.193	
8.605	-0.003	-0.189	
8.610	0.534	-0.138	
8.615	0.745	-0.004	
8.620	0.788	0.192	
8.625	0.459	0.382	
8.630	-0.259	0.471	
8.635	-0.688	0.394	
8.640	-0.843	0.169	
8.645	-0.845	-0.122	
8.650	-0.784	-0.395	
8.655	-0.558	-0.593	
8.660	-0.328	-0.684	
8.665	-0.195	-0.668	
8.670	-0.102	-0.574	
8.675	0.082	-0.437	
8.680	0.154	-0.279	
8.685	0.224	-0.121	
8.690	0.482	0.029	
8.695	0.668	0.183	
8.700	0.607	0.336	
8.705	0.599	0.464	
8.710	0.658	0.555	
8.715	0.543	0.611	
8.720	0.508	0.629	
8.725	0.741	0.628	
8.730	0.814	0.641	
8.735	0.837	0.677	
8.740	1.006	0.731	
8.745	1.096	0.805	
8.750	1.043	0.888	
8.755	1.059	0.961	
8.760	1.104	1.016	
8.765	1.034	1.054	
8.770	0.902	1.066	
8.775	0.942	1.050	
8.780	0.805	1.014	
8.785	0.511	0.950	
8.790	0.363	0.845	
8.795	0.209	0.703	
8.800	-0.061	0.537	
8.805	-0.160	0.353	
8.810	-0.212	0.170	
8.815	-0.325	0.007	
8.820	-0.430	-0.134	
8.825	-0.416	-0.253	
8.830	-0.445	-0.343	
8.835	-0.506	-0.408	
8.840	-0.514	-0.456	
8.845	-0.595	-0.493	
8.850	-0.688	-0.531	
8.855	-0.666	-0.573	
8.860	-0.602	-0.609	
8.865	-0.639	-0.630	
8.870	-0.631	-0.640	
8.875	-0.523	-0.639	
8.880	-0.497	-0.620	
8.885	-0.515	-0.591	
8.890	-0.432	-0.558	
8.895	-0.395	-0.520	
8.900	-0.441	-0.482	
8.905	-0.343	-0.450	
8.910	-0.213	-0.412	
8.915	-0.242	-0.365	
8.920	-0.183	-0.314	
8.925	-0.024	-0.261	
8.930	-0.005	-0.197	
8.935	-0.044	-0.133	
8.940	0.104	-0.077	
8.945	0.186	-0.019	
8.950	0.084	0.039	
8.955	0.183	0.085	
8.960	0.329	0.128	
8.965	0.250	0.176	
8.970	0.181	0.213	
8.975	0.399	0.239	
8.980	0.326	0.268	
8.985	0.194	0.290	
8.990	0.349	0.297	
8.995	0.407	0.305	
9.000	0.276	0.319	
9.005	0.296	0.325	
9.010	0.395	0.326	
9.015	0.331	0.332	
9.020	0.396	0.340	
9.025	0.802	0.371	
9.030	1.058	0.458	
9.035	1.073	0.601	
9.040	1.084	0.758	
9.045	0.648	0.875	
9.050	-0.182	0.872	
9.055	-0.488	0.701	
9.060	-0.576	0.407	
9.065	-0.596	0.084	
9.070	-0.511	-0.195	
9.075	-0.244	-0.382	
9.080	-0.023	-0.451	
9.085	0.043	-0.413	
9.090	0.341	-0.300	
9.095	0.476	-0.133	
9.100	0.390	0.051	
9.105	0.540	0.215	
9.110	0.765	0.359	
9.115	0.889	0.500	
9.120	1.015	0.641	
9.125	1.235	0.784	
9.130	1.291	0.930	
9.135	1.620	1.081	
9.140	2.317	1.272	
9.145	2.933	1.555	
9.150	3.117	1.928	
9.155	3.116	2.323	
9.160	3.114	2.663	
9.165	3.117	2.914	
9.170	2.878	3.064	
9.175	2.781	3.110	
9.180	2.646	3.070	
9.185	2.395	2.967	
9.190	2.096	2.808	
9.195	1.934	2.605	
9.200	1.591	2.373	
9.205	1.210	2.113	
9.210	0.889	1.821	
9.215	0.512	1.503	
9.220	0.120	1.163	
9.225	-0.061	0.813	
9.230	-0.166	0.483	
9.235	-0.316	0.199	
9.240	-0.370	-0.031	
9.245	-0.358	-0.204	
9.250	-0.424	-0.321	
9.255	-0.488	-0.398	
9.260	-0.465	-0.448	
9.265	-0.492	-0.478	
9.270	-0.532	-0.496	
9.275	-0.512	-0.509	
9.280	-0.514	-0.517	
9.285	-0.549	-0.522	
9.290	-0.541	-0.527	
9.295	-0.460	-0.529	
9.300	-0.476	-0.522	
9.305	-0.465	-0.508	
9.310	-0.396	-0.491	
9.315	-0.413	-0.469	
9.320	-0.436	-0.448	
9.325	-0.348	-0.431	
9.330	-0.317	-0.409	
9.335	-0.361	-0.385	
9.340	-0.352	-0.367	
9.345	-0.320	-0.354	
9.350	-0.354	-0.344	
9.355	-0.349	-0.340	
9.360	-0.310	-0.337	
9.365	-0.316	-0.333	
9.370	-0.361	-0.330	
9.375	-0.323	-0.330	
9.380	-0.284	-0.329	
9.385	-0.326	-0.324	
9.390	-0.299	-0.318	
9.395	-0.279	-0.313	
9.400	-0.378	-0.309	
9.405	-0.418	-0.317	
9.410	-0.389	-0.337	
9.415	-0.396	-0.358	
9.420	-0.432	-0.376	
9.425	-0.374	-0.391	
9.430	-0.349	-0.397	
9.435	-0.370	-0.393	
9.440	-0.299	-0.383	
9.445	-0.139	-0.358	
9.450	0.012	-0.306	
9.455	0.279	-0.216	
9.460	0.466	-0.084	
9.465	0.120	0.057	
9.470	-0.433	0.129	
9.475	-0.832	0.068	
9.480	-0.989	-0.117	
9.485	-0.991	-0.362	
9.490	-0.836	-0.591	
9.495	-0.599	-0.745	
9.500	-0.436	-0.798	
9.505	-0.303	-0.758	
9.510	-0.145	-0.653	
9.515	-0.063	-0.512	
9.520	0.001	-0.360	
9.525	0.187	-0.213	
9.530	0.232	-0.073	
9.535	0.232	0.050	
9.540	0.291	0.146	
9.545	0.439	0.225	
9.550	0.408	0.295	
9.555	0.399	0.351	
9.560	0.520	0.394	
9.565	0.579	0.435	
9.570	0.541	0.477	
9.575	0.662	0.517	
9.580	0.819	0.565	
9.585	0.870	0.631	
9.590	0.988	0.710	
9.595	1.114	0.801	
9.600	1.091	0.896	
9.605	1.038	0.978	
9.610	1.066	1.033	
9.615	0.890	1.057	
9.620	0.590	1.032	
9.625	0.437	0.945	
9.630	0.210	0.805	
9.635	-0.098	0.623	
9.640	-0.229	0.408	
9.645	-0.287	0.189	
9.650	-0.383	-0.009	
9.655	-0.454	-0.174	
9.660	-0.467	-0.304	
9.665	-0.476	-0.398	
9.670	-0.483	-0.458	
9.675	-0.441	-0.490	
9.680	-0.435	-0.499	
9.685	-0.471	-0.493	
9.690	-0.412	-0.482	
9.695	-0.355	-0.463	
9.700	-0.374	-0.438	
9.705	-0.372	-0.412	
9.710	-0.294	-0.389	
9.715	-0.277	-0.363	
9.720	-0.314	-0.337	
9.725	-0.268	-0.316	
9.730	-0.191	-0.295	
9.735	-0.209	-0.270	
9.740	-0.165	-0.244	
9.745	-0.143	-0.217	
9.750	-0.195	-0.194	
9.755	-0.191	-0.180	
9.760	-0.105	-0.171	
9.765	-0.070	-0.157	
9.770	-0.093	-0.137	
9.775	-0.002	-0.114	
9.780	0.058	-0.083	
9.785	0.015	-0.047	
9.790	0.043	-0.014	
9.795	0.133	0.015	
9.800	0.090	0.045	
9.805	0.038	0.068	
9.810	0.136	0.080	
9.815	0.120	0.091	
9.820	0.035	0.099	
9.825	0.014	0.094	
9.830	-0.008	0.077	
9.835	-0.089	0.050	
9.840	-0.120	0.013	
9.845	-0.063	-0.025	
9.850	-0.093	-0.055	
9.855	-0.107	-0.076	
9.860	-0.041	-0.088	
9.865	-0.024	-0.088	
9.870	0.038	-0.074	
9.875	0.428	-0.031	
9.880	0.744	0.071	
9.885	0.928	0.240	
9.890	0.883	0.439	
9.895	0.323	0.595	
9.900	-0.354	0.616	
9.905	-0.689	0.463	
9.910	-0.753	0.188	
9.915	-0.692	-0.115	
9.920	-0.572	-0.368	
9.925	-0.332	-0.525	
9.930	-0.111	-0.567	
9.935	-0.015	-0.509	
9.940	0.068	-0.391	
9.945	0.072	-0.251	
9.950	-0.053	-0.129	
9.955	0.012	-0.046	
9.960	0.262	0.014	
9.965	0.125	0.071	
9.970	-0.087	0.106	
9.975	-0.143	0.095	
9.980	-0.178	0.046	
9.985	-0.229	-0.020	
9.990	-0.149	-0.085	
9.995	-0.047	-0.128	
10.000	-0.023	-0.138	
10.005	0.125	-0.116	
10.010	0.410	-0.054	
10.015	0.465	0.051	
10.020	0.509	0.179	
10.025	0.733	0.311	
10.030	0.753	0.444	
10.035	0.579	0.558	
10.040	0.642	0.629	
10.045	0.680	0.665	
10.050	0.451	0.673	
10.055	0.233	0.637	
10.060	0.195	0.553	
10.065	0.012	0.439	
10.070	-0.134	0.305	
10.075	-0.117	0.166	
10.080	-0.165	0.043	
10.085	-0.256	-0.058	
10.090	-0.212	-0.138	
10.095	-0.153	-0.191	
10.100	-0.238	-0.216	
10.105	-0.218	-0.228	
10.110	-0.151	-0.229	
10.115	-0.198	-0.221	
10.120	-0.227	-0.212	
10.125	-0.157	-0.206	
10.130	-0.133	-0.196	
10.135	-0.168	-0.182	
10.140	-0.124	-0.169	
10.145	-0.119	-0.156	
10.150	-0.169	-0.145	
10.155	-0.122	-0.140	
10.160	-0.038	-0.132	
10.165	-0.119	-0.119	
10.170	-0.131	-0.109	
10.175	-0.043	-0.104	
10.180	-0.021	-0.093	
10.185	-0.082	-0.078	
10.190	-0.006	-0.065	
10.195	0.120	-0.046	
10.200	0.055	-0.014	
10.205	0.125	0.020	
10.210	0.221	0.058	
10.215	0.117	0.097	
10.220	0.125	0.125	
10.225	0.340	0.149	
10.230	0.358	0.186	
10.235	0.247	0.231	
10.240	0.331	0.264	
10.245	0.373	0.291	
10.250	0.155	0.308	
10.255	0.105	0.295	
10.260	0.190	0.260	
10.265	0.408	0.237	
10.270	0.835	0.266	
10.275	1.381	0.391	
10.280	1.692	0.625	
10.285	1.748	0.925	
10.290	1.840	1.226	
10.295	1.971	1.489	
10.300	1.928	1.699	
10.305	1.892	1.845	
10.310	2.020	1.933	
10.315	1.817	1.977	
10.320	1.043	1.943	
10.325	0.152	1.755	
10.330	-0.340	1.385	
10.335	-0.567	0.897	
10.340	-0.502	0.400	
10.345	-0.308	-0.005	
10.350	-0.153	-0.261	
10.355	-0.006	-0.368	
10.360	0.203	-0.351	
10.365	0.282	-0.246	
10.370	0.300	-0.100	
10.375	0.459	0.052	
10.380	0.562	0.199	
10.385	0.500	0.331	
10.390	0.546	0.432	
10.395	0.567	0.502	
10.400	0.479	0.543	
10.405	0.418	0.552	
10.410	0.497	0.539	
10.415	0.471	0.519	
10.420	0.404	0.499	
10.425	0.512	0.480	
10.430	0.628	0.476	
10.435	0.559	0.494	
10.440	0.646	0.522	
10.445	0.765	0.560	
10.450	0.691	0.608	
10.455	0.636	0.648	
10.460	0.648	0.668	
10.465	0.538	0.669	
10.470	0.315	0.640	
10.475	0.169	0.569	
10.480	0.023	0.461	
10.485	-0.185	0.324	
10.490	-0.320	0.166	
10.495	-0.398	0.001	
10.500	-0.518	-0.155	
10.505	-0.557	-0.296	
10.510	-0.543	-0.410	
10.515	-0.604	-0.495	
10.520	-0.675	-0.557	
10.525	-0.619	-0.603	
10.530	-0.578	-0.630	
10.535	-0.625	-0.637	
10.540	-0.593	-0.635	
10.545	-0.549	-0.626	
10.550	-0.581	-0.610	
10.555	-0.569	-0.595	
10.560	-0.497	-0.580	
10.565	-0.497	-0.561	
10.570	-0.502	-0.540	
10.575	-0.477	-0.521	
10.580	-0.444	-0.503	
10.585	-0.456	-0.486	
10.590	-0.395	-0.468	
10.595	-0.337	-0.446	
10.600	-0.326	-0.417	
10.605	-0.293	-0.385	
10.610	-0.235	-0.351	
10.615	-0.233	-0.316	
10.620	-0.244	-0.284	
10.625	-0.177	-0.257	
10.630	-0.168	-0.232	
10.635	-0.209	-0.210	
10.640	-0.153	-0.194	
10.645	-0.113	-0.180	
10.650	-0.149	-0.164	
10.655	-0.166	-0.152	
10.660	-0.107	-0.146	
10.665	-0.139	-0.140	
10.670	-0.198	-0.138	
10.675	-0.169	-0.144	
10.680	-0.197	-0.154	
10.685	-0.285	-0.170	
10.690	-0.252	-0.193	
10.695	-0.221	-0.216	
10.700	-0.259	-0.231	
10.705	-0.252	-0.241	
10.710	-0.227	-0.248	
10.715	-0.213	-0.248	
10.720	-0.192	-0.241	
10.725	0.033	-0.219	
10.730	0.447	-0.153	
10.735	0.713	-0.017	
10.740	0.902	0.181	
10.745	0.721	0.395	
10.750	-0.154	0.528	
10.755	-0.683	0.484	
10.760	-0.910	0.260	
10.765	-0.989	-0.059	
10.770	-0.912	-0.380	
10.775	-0.660	-0.628	
10.780	-0.404	-0.756	
10.785	-0.273	-0.760	
10.790	-0.130	-0.671	
10.795	0.001	-0.528	
10.800	-0.008	-0.367	
10.805	0.146	-0.213	
10.810	0.445	-0.065	
10.815	0.523	0.092	
10.820	0.466	0.242	
10.825	0.631	0.368	
10.830	0.662	0.472	
10.835	0.593	0.554	
10.840	0.738	0.611	
10.845	0.881	0.662	
10.850	0.861	0.721	
10.855	0.989	0.782	
10.860	1.210	0.855	
10.865	1.299	0.950	
10.870	1.370	1.060	
10.875	1.543	1.177	
10.880	1.541	1.293	
10.885	1.366	1.388	
10.890	1.331	1.437	
10.895	1.248	1.440	
10.900	0.866	1.392	
10.905	0.570	1.275	
10.910	0.422	1.094	
10.915	0.111	0.874	
10.920	-0.114	0.629	
10.925	-0.171	0.379	
10.930	-0.285	0.152	
10.935	-0.410	-0.041	
10.940	-0.387	-0.197	
10.945	-0.332	-0.307	
10.950	-0.337	-0.369	
10.955	-0.348	-0.394	
10.960	-0.217	-0.391	
10.965	-0.188	-0.362	
10.970	-0.201	-0.318	
10.975	-0.111	-0.269	
10.980	-0.069	-0.219	
10.985	-0.119	-0.170	
10.990	-0.076	-0.133	
10.995	0.003	-0.102	
11.000	-0.058	-0.074	
11.005	-0.047	-0.054	
11.010	0.068	-0.038	
11.015	0.008	-0.019	
11.020	-0.024	-0.003	
11.025	0.126	0.009	
11.030	0.110	0.029	
11.035	0.046	0.052	
11.040	0.155	0.070	
11.045	0.311	0.096	
11.050	0.212	0.137	
11.055	0.244	0.177	
11.060	0.465	0.218	
11.065	0.451	0.273	
11.070	0.372	0.330	
11.075	0.469	0.373	
11.080	0.476	0.409	
11.085	0.245	0.427	
11.090	0.198	0.411	
11.095	0.232	0.368	
11.100	0.046	0.311	
11.105	-0.046	0.239	
11.110	-0.049	0.155	
11.115	-0.108	0.073	
11.120	-0.188	-0.001	
11.125	-0.221	-0.070	
11.130	-0.285	-0.133	
11.135	-0.496	-0.199	
11.140	-0.604	-0.281	
11.145	-0.668	-0.379	
11.150	-0.738	-0.481	
11.155	-0.633	-0.570	
11.160	-0.390	-0.619	
11.165	-0.274	-0.607	
11.170	-0.246	-0.544	
11.175	-0.285	-0.461	
11.180	-0.627	-0.401	
11.185	-0.993	-0.415	
11.190	-0.994	-0.511	
11.195	-0.993	-0.648	
11.200	-0.994	-0.779	
11.205	-0.797	-0.873	
11.210	-0.491	-0.901	
11.215	-0.358	-0.847	
11.220	-0.299	-0.734	
11.225	-0.087	-0.591	
11.230	0.004	-0.433	
11.235	-0.040	-0.281	
11.240	0.130	-0.152	
11.245	0.259	-0.038	
11.250	0.145	0.061	
11.255	0.265	0.136	
11.260	0.518	0.203	
11.265	0.529	0.283	
11.270	0.544	0.368	
11.275	0.878	0.457	
11.280	0.925	0.565	
11.285	0.861	0.680	
11.290	1.146	0.786	
11.295	1.364	0.901	
11.300	1.244	1.028	
11.305	1.317	1.139	
11.310	1.486	1.231	
11.315	1.319	1.308	
11.320	1.192	1.349	
11.325	1.303	1.352	
11.330	1.166	1.333	
11.335	0.805	1.282	
11.340	0.669	1.180	
11.345	0.537	1.035	
11.350	0.212	0.863	
11.355	0.037	0.665	
11.360	0.047	0.461	
11.365	-0.113	0.276	
11.370	-0.178	0.117	
11.375	-0.120	-0.009	
11.380	-0.136	-0.096	
11.385	-0.241	-0.149	
11.390	-0.148	-0.184	
11.395	0.043	-0.190	
11.400	0.428	-0.141	
11.405	0.869	-0.009	
11.410	1.454	0.224	
11.415	1.718	0.551	
11.420	1.781	0.918	
11.425	1.910	1.261	
11.430	1.854	1.540	
11.435	1.564	1.725	
11.440	1.453	1.794	
11.445	1.422	1.769	
11.450	1.069	1.678	
11.455	0.857	1.527	
11.460	0.869	1.340	
11.465	0.634	1.149	
11.470	0.425	0.962	
11.475	0.424	0.780	
11.480	0.367	0.622	
11.485	0.137	0.490	
11.490	0.099	0.368	
11.495	0.082	0.260	
11.500	-0.072	0.167	
11.505	-0.114	0.083	
11.510	-0.069	0.009	
11.515	-0.101	-0.045	
11.520	-0.171	-0.084	
11.525	-0.139	-0.114	
11.530	-0.133	-0.135	
11.535	-0.239	-0.150	
11.540	-0.268	-0.170	
11.545	-0.258	-0.196	
11.550	-0.364	-0.226	
11.555	-0.393	-0.263	
11.560	-0.285	-0.298	
11.565	-0.306	-0.319	
11.570	-0.398	-0.331	
11.575	-0.299	-0.340	
11.580	-0.157	-0.335	
11.585	-0.064	-0.302	
11.590	0.201	-0.234	
11.595	0.498	-0.119	
11.600	0.326	0.030	
11.605	-0.175	0.143	
11.610	-0.541	0.146	
11.615	-0.834	0.024	
11.620	-0.989	-0.188	
11.625	-0.842	-0.426	
11.630	-0.621	-0.617	
11.635	-0.480	-0.715	
11.640	-0.313	-0.718	
11.645	-0.166	-0.646	
11.650	-0.139	-0.528	
11.655	-0.113	-0.398	
11.660	-0.053	-0.280	
11.665	-0.063	-0.183	
11.670	-0.124	-0.116	
11.675	-0.078	-0.079	
11.680	-0.035	-0.061	
11.685	-0.079	-0.051	
11.690	-0.037	-0.048	
11.695	-0.002	-0.044	
11.700	-0.049	-0.038	
11.705	0.014	-0.033	
11.710	0.194	-0.016	
11.715	0.186	0.023	
11.720	0.213	0.073	
11.725	0.436	0.133	
11.730	0.547	0.213	
11.735	0.460	0.305	
11.740	0.412	0.381	
11.745	0.465	0.428	
11.750	0.300	0.448	
11.755	0.126	0.431	
11.760	0.014	0.368	
11.765	-0.175	0.269	
11.770	-0.340	0.139	
11.775	-0.358	-0.006	
11.780	-0.441	-0.146	
11.785	-0.569	-0.271	
11.790	-0.610	-0.383	
11.795	-0.602	-0.478	
11.800	-0.672	-0.551	
11.805	-0.694	-0.607	
11.810	-0.627	-0.647	
11.815	-0.628	-0.666	
11.820	-0.653	-0.669	
11.825	-0.561	-0.662	
11.830	-0.532	-0.643	
11.835	-0.534	-0.615	
11.840	-0.459	-0.582	
11.845	-0.377	-0.543	
11.850	-0.432	-0.500	
11.855	-0.432	-0.463	
11.860	-0.364	-0.436	
11.865	-0.235	-0.407	
11.870	0.068	-0.353	
11.875	0.381	-0.248	
11.880	0.276	-0.100	
11.885	-0.052	0.032	
11.890	-0.104	0.094	
11.895	-0.127	0.090	
11.900	-0.232	0.044	
11.905	-0.232	-0.025	
11.910	-0.133	-0.092	
11.915	-0.227	-0.142	
11.920	-0.273	-0.180	
11.925	-0.156	-0.208	
11.930	-0.145	-0.217	
11.935	-0.215	-0.212	
11.940	-0.107	-0.202	
11.945	-0.024	-0.181	
11.950	-0.087	-0.148	
11.955	-0.069	-0.117	
11.960	0.008	-0.090	
11.965	-0.131	-0.069	
11.970	-0.204	-0.067	
11.975	-0.140	-0.085	
11.980	-0.186	-0.109	
11.985	-0.256	-0.136	
11.990	-0.169	-0.165	
11.995	-0.137	-0.182	
12.000	-0.239	-0.188	
12.005	-0.168	-0.193	
12.010	0.052	-0.184	
12.015	0.233	-0.138	
12.020	0.544	-0.040	
12.025	0.989	0.121	
12.030	0.951	0.339	
12.035	0.241	0.528	
12.040	-0.354	0.573	
12.045	-0.707	0.435	
12.050	-0.939	0.162	
12.055	-0.877	-0.161	
12.060	-0.642	-0.445	
12.065	-0.500	-0.625	
12.070	-0.346	-0.690	
12.075	-0.079	-0.653	
12.080	0.078	-0.534	
12.085	0.088	-0.370	
12.090	0.392	-0.191	
12.095	0.599	0.000	
12.100	0.576	0.194	
12.105	0.655	0.365	
12.110	0.844	0.507	
12.115	0.782	0.628	
12.120	0.733	0.716	
12.125	0.913	0.774	
12.130	0.944	0.821	
12.135	0.919	0.864	
12.140	1.117	0.906	
12.145	1.261	0.963	
12.150	1.177	1.035	
12.155	1.235	1.104	
12.160	1.418	1.167	
12.165	1.325	1.232	
12.170	1.233	1.281	
12.175	1.395	1.308	
12.180	1.320	1.326	
12.185	1.006	1.323	
12.190	0.825	1.269	
12.195	0.500	1.154	
12.200	0.009	0.969	
12.205	-0.137	0.717	
12.210	-0.235	0.437	
12.215	-0.447	0.171	
12.220	-0.555	-0.070	
12.225	-0.506	-0.270	
12.230	-0.598	-0.419	
12.235	-0.651	-0.523	
12.240	-0.534	-0.590	
12.245	-0.517	-0.617	
12.250	-0.599	-0.617	
12.255	-0.479	-0.604	
12.260	-0.345	-0.574	
12.265	-0.383	-0.525	
12.270	-0.370	-0.472	
12.275	-0.218	-0.421	
12.280	-0.210	-0.365	
12.285	-0.279	-0.313	
12.290	-0.151	-0.271	
12.295	-0.055	-0.231	
12.300	-0.165	-0.187	
12.305	-0.119	-0.155	
12.310	-0.021	-0.130	
12.315	-0.102	-0.106	
12.320	-0.127	-0.091	
12.325	0.078	-0.079	
12.330	0.064	-0.055	
12.335	-0.002	-0.023	
12.340	0.229	0.010	
12.345	0.378	0.063	
12.350	0.172	0.131	
12.355	0.250	0.185	
12.360	0.434	0.228	
12.365	0.276	0.272	
12.370	0.206	0.298	
12.375	0.456	0.309	
12.380	0.413	0.328	
12.385	0.235	0.346	
12.390	0.418	0.352	
12.395	0.466	0.360	
12.400	0.210	0.370	
12.405	0.203	0.357	
12.410	0.319	0.328	
12.415	0.142	0.298	
12.420	0.068	0.259	
12.425	0.319	0.220	
12.430	0.200	0.202	
12.435	0.099	0.193	
12.440	0.415	0.191	
12.445	0.710	0.230	
12.450	0.805	0.329	
12.455	1.043	0.472	
12.460	1.128	0.640	
12.465	0.387	0.775	
12.470	-0.293	0.773	
12.475	-0.483	0.597	
12.480	-0.598	0.315	
12.485	-0.625	0.012	
12.490	-0.409	-0.243	
12.495	-0.169	-0.398	
12.500	-0.082	-0.439	
12.505	0.078	-0.390	
12.510	0.413	-0.272	
12.515	0.348	-0.106	
12.520	0.325	0.062	
12.525	0.578	0.205	
12.530	0.572	0.333	
12.535	0.518	0.437	
12.540	0.753	0.517	
12.545	0.794	0.591	
12.550	0.559	0.652	
12.555	0.633	0.679	
12.560	0.852	0.691	
12.565	0.805	0.714	
12.570	0.860	0.747	
12.575	1.175	0.796	
12.580	1.291	0.881	
12.585	1.218	0.990	
12.590	1.376	1.096	
12.595	1.462	1.197	
12.600	1.258	1.282	
12.605	1.204	1.326	
12.610	1.262	1.331	
12.615	0.918	1.302	
12.620	0.620	1.219	
12.625	0.622	1.081	
12.630	0.402	0.919	
12.635	0.040	0.737	
12.640	0.014	0.534	
12.645	-0.055	0.337	
12.650	-0.232	0.162	
12.655	-0.277	0.010	
12.660	-0.217	-0.113	
12.665	-0.290	-0.199	
12.670	-0.335	-0.257	
12.675	-0.253	-0.294	
12.680	-0.273	-0.309	
12.685	-0.314	-0.311	
12.690	-0.255	-0.308	
12.695	-0.188	-0.296	
12.700	-0.308	-0.279	
12.705	-0.308	-0.270	
12.710	-0.209	-0.268	
12.715	-0.233	-0.262	
12.720	-0.274	-0.255	
12.725	-0.192	-0.249	
12.730	-0.224	-0.241	
12.735	-0.247	-0.233	
12.740	-0.172	-0.228	
12.745	-0.063	-0.213	
12.750	0.576	-0.154	
12.755	1.573	0.027	
12.760	2.547	0.400	
12.765	3.116	0.961	
12.770	3.116	1.608	
12.775	3.114	2.205	
12.780	3.111	2.666	
12.785	3.117	2.975	
12.790	2.846	3.141	
12.795	2.756	3.176	
12.800	2.462	3.107	
12.805	2.084	2.950	
12.810	1.840	2.719	
12.815	1.556	2.441	
12.820	1.076	2.132	
12.825	0.881	1.799	
12.830	0.768	1.469	
12.835	0.453	1.168	
12.840	0.207	0.892	
12.845	0.183	0.639	
12.850	-0.015	0.423	
12.855	-0.151	0.239	
12.860	-0.131	0.083	
12.865	-0.089	-0.032	
12.870	-0.104	-0.101	
12.875	0.040	-0.129	
12.880	0.361	-0.103	
12.885	0.258	-0.024	
12.890	0.001	0.059	
12.895	-0.314	0.087	
12.900	-0.778	0.020	
12.905	-0.993	-0.149	
12.910	-0.994	-0.378	
12.915	-0.985	-0.603	
12.920	-0.910	-0.782	
12.925	-0.726	-0.888	
12.930	-0.582	-0.912	
12.935	-0.552	-0.869	
12.940	-0.544	-0.790	
12.945	-0.467	-0.702	
12.950	-0.489	-0.621	
12.955	-0.572	-0.559	
12.960	-0.515	-0.525	
12.965	-0.496	-0.508	
12.970	-0.566	-0.501	
12.975	-0.492	-0.503	
12.980	-0.418	-0.502	
12.985	-0.492	-0.493	
12.990	-0.496	-0.485	
12.995	-0.357	-0.477	
13.000	-0.331	-0.456	
13.005	-0.305	-0.422	
13.010	-0.180	-0.380	
13.015	-0.136	-0.325	
13.020	-0.122	-0.265	
13.025	-0.005	-0.204	
13.030	0.158	-0.136	
13.035	0.037	-0.061	
13.040	-0.026	-0.003	
13.045	-0.029	0.024	
13.050	-0.145	0.022	
13.055	-0.290	-0.011	
13.060	-0.294	-0.072	
13.065	-0.354	-0.146	
13.070	-0.503	-0.225	
13.075	-0.528	-0.309	
13.080	-0.518	-0.389	
13.085	-0.601	-0.457	
13.090	-0.625	-0.514	
13.095	-0.576	-0.559	
13.100	-0.634	-0.589	
13.105	-0.663	-0.611	
13.110	-0.622	-0.628	
13.115	-0.593	-0.636	
13.120	-0.656	-0.636	
13.125	-0.621	-0.635	
13.130	-0.512	-0.629	
13.135	-0.529	-0.610	
13.140	-0.503	-0.584	
13.145	-0.441	-0.554	
13.150	-0.508	-0.525	
13.155	-0.517	-0.504	
13.160	-0.430	-0.492	
13.165	-0.427	-0.479	
13.170	-0.489	-0.466	
13.175	-0.453	-0.459	
13.180	-0.401	-0.454	
13.185	-0.424	-0.445	
13.190	-0.346	-0.432	
13.195	-0.246	-0.409	
13.200	-0.247	-0.372	
13.205	-0.255	-0.331	
13.210	-0.178	-0.293	
13.215	-0.153	-0.255	
13.220	-0.168	-0.220	
13.225	-0.101	-0.189	
13.230	-0.020	-0.157	
13.235	-0.055	-0.121	
13.240	-0.037	-0.089	
13.245	0.004	-0.062	
13.250	-0.061	-0.042	
13.255	-0.136	-0.036	
13.260	-0.102	-0.046	
13.265	-0.154	-0.066	
13.270	-0.246	-0.093	
13.275	-0.165	-0.127	
13.280	-0.107	-0.152	
13.285	-0.166	-0.161	
13.290	-0.119	-0.162	
13.295	0.024	-0.150	
13.300	0.157	-0.112	
13.305	0.444	-0.037	
13.310	0.931	0.098	
13.315	1.154	0.306	
13.320	0.912	0.543	
13.325	0.389	0.715	
13.330	-0.284	0.732	
13.335	-0.666	0.567	
13.340	-0.781	0.270	
13.345	-0.651	-0.058	
13.350	-0.480	-0.327	
13.355	-0.258	-0.486	
13.360	0.035	-0.518	
13.365	0.258	-0.435	
13.370	0.251	-0.277	
13.375	0.433	-0.093	
13.380	0.582	0.093	
13.385	0.537	0.266	
13.390	0.598	0.406	
13.395	0.736	0.513	
13.400	0.704	0.600	
13.405	0.648	0.660	
13.410	0.751	0.695	
13.415	0.751	0.718	
13.420	0.668	0.731	
13.425	0.872	0.740	
13.430	1.090	0.769	
13.435	1.061	0.831	
13.440	1.154	0.910	
13.445	1.290	0.995	
13.450	1.306	1.086	
13.455	1.317	1.171	
13.460	1.460	1.246	
13.465	1.401	1.313	
13.470	1.184	1.355	
13.475	1.105	1.351	
13.480	0.919	1.298	
13.485	0.541	1.194	
13.490	0.322	1.029	
13.495	0.184	0.821	
13.500	-0.063	0.597	
13.505	-0.185	0.370	
13.510	-0.183	0.162	
13.515	-0.249	-0.007	
13.520	-0.326	-0.135	
13.525	-0.342	-0.231	
13.530	-0.302	-0.296	
13.535	-0.346	-0.333	
13.540	-0.339	-0.351	
13.545	-0.297	-0.356	
13.550	-0.323	-0.351	
13.555	-0.378	-0.345	
13.560	-0.323	-0.343	
13.565	-0.319	-0.340	
13.570	-0.346	-0.337	
13.575	-0.274	-0.332	
13.580	-0.215	-0.320	
13.585	-0.268	-0.300	
13.590	-0.249	-0.281	
13.595	-0.177	-0.263	
13.600	-0.218	-0.244	
13.605	-0.233	-0.228	
13.610	-0.154	-0.217	
13.615	-0.142	-0.203	
13.620	-0.186	-0.188	
13.625	-0.128	-0.175	
13.630	-0.069	-0.160	
13.635	-0.099	-0.140	
13.640	-0.078	-0.120	
13.645	0.004	-0.100	
13.650	-0.046	-0.077	
13.655	-0.058	-0.058	
13.660	0.055	-0.043	
13.665	0.082	-0.021	
13.670	-0.008	0.003	
13.675	0.108	0.022	
13.680	0.230	0.048	
13.685	0.081	0.082	
13.690	0.024	0.102	
13.695	0.033	0.101	
13.700	-0.066	0.083	
13.705	-0.156	0.047	
13.710	-0.078	-0.000	
13.715	-0.084	-0.042	
13.720	-0.143	-0.072	
13.725	-0.119	-0.097	
13.730	-0.052	-0.111	
13.735	0.009	-0.107	
13.740	0.340	-0.071	
13.745	0.806	0.028	
13.750	1.014	0.209	
13.755	0.872	0.430	
13.760	0.389	0.605	
13.765	-0.291	0.642	
13.770	-0.692	0.501	
13.775	-0.796	0.225	
13.780	-0.720	-0.091	
13.785	-0.637	-0.362	
13.790	-0.497	-0.543	
13.795	-0.223	-0.618	
13.800	-0.069	-0.587	
13.805	0.000	-0.480	
13.810	0.090	-0.338	
13.815	0.151	-0.191	
13.820	0.062	-0.062	
13.825	0.151	0.032	
13.830	0.285	0.103	
13.835	0.226	0.162	
13.840	0.215	0.205	
13.845	0.328	0.234	
13.850	0.340	0.261	
13.855	0.238	0.283	
13.860	0.328	0.295	
13.865	0.404	0.306	
13.870	0.457	0.328	
13.875	0.594	0.367	
13.880	0.756	0.429	
13.885	0.715	0.511	
13.890	0.735	0.591	
13.895	0.852	0.662	
13.900	0.742	0.721	
13.905	0.569	0.751	
13.910	0.555	0.740	
13.915	0.451	0.696	
13.920	0.168	0.621	
13.925	0.046	0.508	
13.930	-0.038	0.369	
13.935	-0.207	0.221	
13.940	-0.273	0.074	
13.945	-0.229	-0.057	
13.950	-0.279	-0.157	
13.955	-0.345	-0.230	
13.960	-0.296	-0.282	
13.965	-0.297	-0.312	
13.970	-0.335	-0.326	
13.975	-0.300	-0.331	
13.980	-0.213	-0.326	
13.985	-0.206	-0.306	
13.990	-0.182	-0.277	
13.995	-0.055	-0.240	
14.000	-0.020	-0.192	
14.005	-0.031	-0.139	
14.010	0.046	-0.089	
14.015	0.139	-0.039	
14.020	0.011	0.009	
14.025	-0.003	0.038	
14.030	0.116	0.050	
14.035	0.026	0.059	
14.040	-0.050	0.058	
14.045	0.052	0.046	
14.050	0.043	0.035	
14.055	-0.053	0.028	
14.060	0.032	0.017	
14.065	0.134	0.016	
14.070	0.011	0.026	
14.075	-0.020	0.033	
14.080	0.050	0.031	
14.085	-0.050	0.026	
14.090	-0.073	0.013	
14.095	0.026	-0.004	
14.100	0.012	-0.012	
14.105	-0.099	-0.016	
14.110	-0.029	-0.025	
14.115	0.084	-0.028	
14.120	-0.034	-0.020	
14.125	-0.064	-0.014	
14.130	-0.020	-0.017	
14.135	-0.096	-0.025	
14.140	-0.154	-0.041	
14.145	-0.119	-0.065	
14.150	-0.034	-0.085	
14.155	-0.008	-0.088	
14.160	0.137	-0.069	
14.165	0.253	-0.023	
14.170	0.340	0.049	
14.175	0.634	0.148	
14.180	1.008	0.290	
14.185	0.925	0.471	
14.190	0.559	0.631	
14.195	-0.053	0.685	
14.200	-0.492	0.583	
14.205	-0.771	0.342	
14.210	-0.709	0.034	
14.215	-0.515	-0.249	
14.220	-0.413	-0.441	
14.225	-0.247	-0.528	
14.230	-0.029	-0.516	
14.235	0.072	-0.426	
14.240	0.102	-0.293	
14.245	0.340	-0.145	
14.250	0.381	0.008	
14.255	0.248	0.144	
14.260	0.395	0.243	
14.265	0.503	0.318	
14.270	0.348	0.377	
14.275	0.396	0.410	
14.280	0.547	0.428	
14.285	0.515	0.451	
14.290	0.515	0.475	
14.295	0.637	0.500	
14.300	0.703	0.535	
14.305	0.686	0.580	
14.310	0.811	0.627	
14.315	0.965	0.686	
14.320	0.898	0.756	
14.325	0.951	0.823	
14.330	1.034	0.880	
14.335	0.863	0.925	
14.340	0.668	0.935	
14.345	0.691	0.900	
14.350	0.441	0.832	
14.355	0.155	0.724	
14.360	0.073	0.576	
14.365	-0.060	0.408	
14.370	-0.226	0.237	
14.375	-0.293	0.073	
14.380	-0.299	-0.073	
14.385	-0.387	-0.190	
14.390	-0.445	-0.283	
14.395	-0.381	-0.353	
14.400	-0.383	-0.395	
14.405	-0.428	-0.416	
14.410	-0.418	-0.426	
14.415	-0.383	-0.428	
14.420	-0.418	-0.424	
14.425	-0.361	-0.417	
14.430	-0.296	-0.402	
14.435	-0.322	-0.380	
14.440	-0.308	-0.356	
14.445	-0.267	-0.335	
14.450	-0.306	-0.315	
14.455	-0.367	-0.305	
14.460	-0.326	-0.307	
14.465	-0.244	-0.309	
14.470	-0.276	-0.304	
14.475	-0.218	-0.292	
14.480	-0.154	-0.272	
14.485	-0.218	-0.246	
14.490	-0.213	-0.225	
14.495	-0.122	-0.209	
14.500	-0.143	-0.190	
14.505	-0.185	-0.173	
14.510	-0.096	-0.161	
14.515	-0.078	-0.146	
14.520	-0.169	-0.131	
14.525	-0.136	-0.125	
14.530	0.027	-0.118	
14.535	-0.020	-0.098	
14.540	-0.053	-0.073	
14.545	0.029	-0.051	
14.550	-0.012	-0.032	
14.555	-0.067	-0.019	
14.560	-0.011	-0.017	
14.565	-0.046	-0.019	
14.570	-0.160	-0.028	
14.575	-0.142	-0.051	
14.580	-0.082	-0.077	
14.585	-0.113	-0.095	
14.590	-0.090	-0.105	
14.595	0.012	-0.103	
14.600	0.003	-0.086	
14.605	0.088	-0.057	
14.610	0.515	-0.000	
14.615	0.855	0.119	
14.620	0.913	0.300	
14.625	0.902	0.499	
14.630	0.404	0.649	
14.635	-0.352	0.666	
14.640	-0.680	0.506	
14.645	-0.735	0.221	
14.650	-0.677	-0.090	
14.655	-0.534	-0.348	
14.660	-0.261	-0.503	
14.665	-0.044	-0.537	
14.670	0.064	-0.468	
14.675	0.248	-0.332	
14.680	0.454	-0.157	
14.685	0.448	0.032	
14.690	0.399	0.200	
14.695	0.530	0.327	
14.700	0.509	0.421	
14.705	0.370	0.477	
14.710	0.553	0.500	
14.715	0.637	0.517	
14.720	0.594	0.541	
14.725	0.750	0.572	
14.730	0.901	0.620	
14.735	0.852	0.686	
14.740	0.912	0.754	
14.745	1.152	0.825	
14.750	1.188	0.911	
14.755	1.178	1.002	
14.760	1.326	1.087	
14.765	1.363	1.167	
14.770	1.184	1.233	
14.775	1.090	1.260	
14.780	1.064	1.246	
14.785	0.716	1.190	
14.790	0.511	1.082	
14.795	0.472	0.931	
14.800	0.223	0.762	
14.805	-0.067	0.578	
14.810	-0.142	0.378	
14.815	-0.213	0.184	
14.820	-0.339	0.013	
14.825	-0.375	-0.132	
14.830	-0.361	-0.246	
14.835	-0.435	-0.327	
14.840	-0.456	-0.385	
14.845	-0.393	-0.422	
14.850	-0.415	-0.439	
14.855	-0.488	-0.445	
14.860	-0.404	-0.449	
14.865	-0.340	-0.443	
14.870	-0.386	-0.427	
14.875	-0.364	-0.408	
14.880	-0.302	-0.389	
14.885	-0.320	-0.367	
14.890	-0.317	-0.347	
14.895	-0.250	-0.328	
14.900	-0.273	-0.309	
14.905	-0.276	-0.292	
14.910	-0.217	-0.278	
14.915	-0.188	-0.261	
14.920	-0.244	-0.243	
14.925	-0.213	-0.230	
14.930	-0.182	-0.221	
14.935	-0.182	-0.211	
14.940	-0.165	-0.199	
14.945	-0.058	-0.183	
14.950	-0.128	-0.160	
14.955	-0.140	-0.141	
14.960	-0.050	-0.126	
14.965	-0.009	-0.107	
14.970	-0.069	-0.084	
14.975	-0.035	-0.066	
14.980	0.082	-0.047	
14.985	0.026	-0.022	
14.990	-0.015	-0.000	
14.995	0.067	0.013	
15.000	0.003	0.023	
15.005	-0.084	0.023	
15.010	-0.050	0.009	
15.015	-0.070	-0.011	
15.020	-0.165	-0.036	
15.025	-0.139	-0.066	
15.030	-0.113	-0.094	
15.035	-0.172	-0.116	
15.040	-0.175	-0.134	
15.045	-0.040	-0.144	
15.050	0.122	-0.129	
15.055	0.416	-0.069	
15.060	0.953	0.061	
15.065	1.178	0.275	
15.070	0.855	0.522	
15.075	0.152	0.687	
15.080	-0.413	0.676	
15.085	-0.768	0.479	
15.090	-0.864	0.164	
15.095	-0.726	-0.170	
15.100	-0.553	-0.435	
15.105	-0.361	-0.586	
15.110	-0.153	-0.619	
15.115	-0.020	-0.552	
15.120	0.070	-0.423	
15.125	0.206	-0.266	
15.130	0.358	-0.102	
15.135	0.332	0.056	
15.140	0.320	0.185	
15.145	0.428	0.279	
15.150	0.424	0.348	
15.155	0.343	0.392	
15.160	0.492	0.415	
15.165	0.582	0.438	
15.170	0.523	0.469	
15.175	0.663	0.504	
15.180	0.819	0.551	
15.185	0.864	0.618	
15.190	0.930	0.698	
15.195	1.163	0.787	
15.200	1.200	0.892	
15.205	1.171	0.997	
15.210	1.288	1.087	
15.215	1.232	1.161	
15.220	0.976	1.201	
15.225	0.878	1.186	
15.230	0.770	1.122	
15.235	0.427	1.014	
15.240	0.183	0.858	
15.245	0.078	0.662	
15.250	-0.113	0.455	
15.255	-0.241	0.251	
15.260	-0.265	0.064	
15.265	-0.316	-0.089	
15.270	-0.410	-0.209	
15.275	-0.407	-0.300	
15.280	-0.374	-0.363	
15.285	-0.418	-0.400	
15.290	-0.413	-0.419	
15.295	-0.326	-0.423	
15.300	-0.354	-0.413	
15.305	-0.409	-0.398	
15.310	-0.334	-0.387	
15.315	-0.300	-0.373	
15.320	-0.329	-0.356	
15.325	-0.288	-0.340	
15.330	-0.227	-0.321	
15.335	-0.306	-0.301	
15.340	-0.297	-0.288	
15.345	-0.177	-0.278	
15.350	-0.171	-0.260	
15.355	-0.220	-0.237	
15.360	-0.165	-0.218	
15.365	-0.153	-0.201	
15.370	-0.226	-0.187	
15.375	-0.195	-0.183	
15.380	-0.087	-0.179	
15.385	-0.136	-0.168	
15.390	-0.130	-0.154	
15.395	-0.031	-0.138	
15.400	-0.032	-0.115	
15.405	-0.117	-0.092	
15.410	-0.060	-0.079	
15.415	0.056	-0.066	
15.420	-0.018	-0.046	
15.425	0.072	-0.024	
15.430	0.186	0.006	
15.435	0.091	0.044	
15.440	0.055	0.075	
15.445	0.177	0.093	
15.450	0.046	0.106	
15.455	-0.081	0.101	
15.460	-0.044	0.073	
15.465	-0.005	0.038	
15.470	-0.044	0.009	
15.475	-0.018	-0.012	
15.480	0.134	-0.018	
15.485	0.061	-0.003	
15.490	0.037	0.018	
15.495	0.340	0.047	
15.500	0.643	0.116	
15.505	0.829	0.241	
15.510	1.113	0.416	
15.515	0.937	0.609	
15.520	0.126	0.736	
15.525	-0.384	0.699	
15.530	-0.633	0.493	
15.535	-0.756	0.190	
15.540	-0.688	-0.125	
15.545	-0.459	-0.376	
15.550	-0.281	-0.517	
15.555	-0.191	-0.547	
15.560	-0.052	-0.494	
15.565	0.229	-0.379	
15.570	0.251	-0.223	
15.575	0.277	-0.058	
15.580	0.381	0.088	
15.585	0.309	0.206	
15.590	0.268	0.285	
15.595	0.380	0.327	
15.600	0.363	0.352	
15.605	0.294	0.364	
15.610	0.404	0.365	
15.615	0.518	0.373	
15.620	0.472	0.396	
15.625	0.541	0.427	
15.630	0.741	0.469	
15.635	0.719	0.530	
15.640	0.809	0.600	
15.645	1.012	0.678	
15.650	1.041	0.770	
15.655	0.948	0.860	
15.660	0.992	0.927	
15.665	0.880	0.964	
15.670	0.637	0.961	
15.675	0.524	0.906	
15.680	0.373	0.807	
15.685	0.053	0.670	
15.690	-0.098	0.497	
15.695	-0.133	0.307	
15.700	-0.218	0.131	
15.705	-0.323	-0.022	
15.710	-0.282	-0.145	
15.715	-0.323	-0.235	
15.720	-0.410	-0.298	
15.725	-0.383	-0.344	
15.730	-0.349	-0.374	
15.735	-0.366	-0.386	
15.740	-0.349	-0.387	
15.745	-0.294	-0.379	
15.750	-0.317	-0.362	
15.755	-0.337	-0.346	
15.760	-0.268	-0.332	
15.765	-0.252	-0.316	
15.770	-0.297	-0.299	
15.775	-0.239	-0.286	
15.780	-0.218	-0.272	
15.785	-0.249	-0.258	
15.790	-0.233	-0.247	
15.795	-0.182	-0.238	
15.800	-0.168	-0.224	
15.805	-0.182	-0.209	
15.810	-0.090	-0.191	
15.815	-0.066	-0.167	
15.820	-0.119	-0.140	
15.825	-0.053	-0.117	
15.830	0.040	-0.093	
15.835	-0.029	-0.064	
15.840	-0.067	-0.042	
15.845	0.067	-0.028	
15.850	-0.008	-0.013	
15.855	-0.087	-0.005	
15.860	0.004	-0.008	
15.865	0.058	-0.009	
15.870	0.000	-0.003	
15.875	0.029	0.005	
15.880	0.134	0.017	
15.885	0.041	0.035	
15.890	-0.018	0.047	
15.895	-0.018	0.043	
15.900	-0.130	0.025	
15.905	-0.153	-0.008	
15.910	-0.073	-0.047	
15.915	-0.060	-0.074	
15.920	-0.140	-0.088	
15.925	-0.151	-0.102	
15.930	-0.093	-0.115	
15.935	-0.110	-0.120	
15.940	0.017	-0.115	
15.945	0.442	-0.074	
15.950	0.701	0.034	
15.955	0.742	0.200	
15.960	0.805	0.383	
15.965	0.262	0.522	
15.970	-0.419	0.537	
15.975	-0.732	0.384	
15.980	-0.796	0.115	
15.985	-0.753	-0.181	
15.990	-0.564	-0.425	
15.995	-0.261	-0.566	
16.000	-0.089	-0.584	
16.005	0.004	-0.506	
16.010	0.204	-0.368	
16.015	0.346	-0.197	
16.020	0.329	-0.021	
16.025	0.378	0.134	
16.030	0.506	0.259	
16.035	0.444	0.357	
16.040	0.430	0.423	
16.045	0.587	0.465	
16.050	0.625	0.503	
16.055	0.469	0.535	
16.060	0.605	0.552	
16.065	0.741	0.570	
16.070	0.692	0.602	
16.075	0.820	0.643	
16.080	1.069	0.701	
16.085	1.056	0.785	
16.090	1.165	0.882	
16.095	1.357	0.986	
16.100	1.328	1.095	
16.105	1.215	1.188	
16.110	1.239	1.245	
16.115	1.159	1.267	
16.120	0.851	1.247	
16.125	0.655	1.170	
16.130	0.546	1.041	
16.135	0.152	0.873	
16.140	-0.027	0.667	
16.145	-0.072	0.444	
16.150	-0.185	0.236	
16.155	-0.291	0.056	
16.160	-0.268	-0.090	
16.165	-0.290	-0.197	
16.170	-0.393	-0.271	
16.175	-0.398	-0.325	
16.180	-0.326	-0.362	
16.185	-0.380	-0.379	
16.190	-0.387	-0.385	
16.195	-0.322	-0.386	
16.200	-0.331	-0.377	
16.205	-0.401	-0.368	
16.210	-0.351	-0.363	
16.215	-0.284	-0.358	
16.220	-0.300	-0.346	
16.225	-0.290	-0.330	
16.230	-0.241	-0.313	
16.235	-0.270	-0.295	
16.240	-0.276	-0.280	
16.245	-0.182	-0.268	
16.250	-0.178	-0.250	
16.255	-0.226	-0.230	
16.260	-0.160	-0.215	
16.265	-0.104	-0.197	
16.270	-0.151	-0.176	
16.275	-0.146	-0.159	
16.280	-0.050	-0.144	
16.285	-0.069	-0.124	
16.290	-0.082	-0.104	
16.295	0.026	-0.085	
16.300	0.068	-0.058	
16.305	-0.050	-0.029	
16.310	-0.002	-0.011	
16.315	0.076	0.001	
16.320	-0.006	0.014	
16.325	0.032	0.021	
16.330	0.161	0.032	
16.335	0.065	0.050	
16.340	0.004	0.064	
16.345	0.058	0.065	
16.350	-0.031	0.057	
16.355	-0.136	0.037	
16.360	-0.098	0.001	
16.365	-0.056	-0.034	
16.370	-0.130	-0.061	
16.375	-0.131	-0.084	
16.380	-0.061	-0.100	
16.385	-0.096	-0.106	
16.390	-0.023	-0.102	
16.395	0.431	-0.068	
16.400	0.803	0.037	
16.405	0.989	0.222	
16.410	1.116	0.451	
16.415	0.698	0.662	
16.420	-0.241	0.748	
16.425	-0.650	0.632	
16.430	-0.788	0.351	
16.435	-0.823	0.008	
16.440	-0.692	-0.307	
16.445	-0.444	-0.527	
16.450	-0.226	-0.622	
16.455	-0.116	-0.600	
16.460	0.058	-0.497	
16.465	0.209	-0.345	
16.470	0.161	-0.177	
16.475	0.259	-0.026	
16.480	0.428	0.105	
16.485	0.380	0.219	
16.490	0.309	0.303	
16.495	0.415	0.354	
16.500	0.444	0.387	
16.505	0.393	0.410	
16.510	0.550	0.427	
16.515	0.683	0.458	
16.520	0.602	0.504	
16.525	0.700	0.554	
16.530	0.872	0.608	
16.535	0.895	0.677	
16.540	1.003	0.755	
16.545	1.178	0.842	
16.550	1.180	0.939	
16.555	1.038	1.024	
16.560	1.052	1.076	
16.565	0.969	1.093	
16.570	0.697	1.069	
16.575	0.564	0.995	
16.580	0.500	0.883	
16.585	0.236	0.747	
16.590	-0.014	0.587	
16.595	-0.053	0.407	
16.600	-0.130	0.232	
16.605	-0.250	0.077	
16.610	-0.259	-0.054	
16.615	-0.256	-0.156	
16.620	-0.352	-0.229	
16.625	-0.370	-0.284	
16.630	-0.296	-0.323	
16.635	-0.322	-0.342	
16.640	-0.332	-0.346	
16.645	-0.262	-0.343	
16.650	-0.270	-0.329	
16.655	-0.311	-0.313	
16.660	-0.250	-0.300	
16.665	-0.230	-0.287	
16.670	-0.285	-0.273	
16.675	-0.241	-0.264	
16.680	-0.185	-0.255	
16.685	-0.203	-0.241	
16.690	-0.221	-0.227	
16.695	-0.146	-0.215	
16.700	-0.168	-0.200	
16.705	-0.207	-0.188	
16.710	-0.124	-0.180	
16.715	-0.095	-0.168	
16.720	-0.159	-0.153	
16.725	-0.131	-0.142	
16.730	-0.061	-0.133	
16.735	-0.101	-0.120	
16.740	-0.113	-0.109	
16.745	-0.053	-0.101	
16.750	-0.099	-0.093	
16.755	-0.142	-0.090	
16.760	-0.060	-0.093	
16.765	-0.044	-0.091	
16.770	-0.122	-0.085	
16.775	-0.111	-0.086	
16.780	-0.108	-0.091	
16.785	-0.185	-0.100	
16.790	-0.217	-0.118	
16.795	-0.201	-0.143	
16.800	-0.270	-0.170	
16.805	-0.329	-0.201	
16.810	-0.351	-0.238	
16.815	-0.326	-0.275	
16.820	-0.342	-0.305	
16.825	-0.300	-0.323	
16.830	-0.258	-0.328	
16.835	-0.319	-0.322	
16.840	-0.277	-0.314	
16.845	-0.064	-0.295	
16.850	0.198	-0.241	
16.855	0.387	-0.137	
16.860	0.576	0.011	
16.865	0.212	0.163	
16.870	-0.387	0.235	
16.875	-0.761	0.167	
16.880	-0.918	-0.028	
16.885	-0.971	-0.283	
16.890	-0.843	-0.528	
16.895	-0.610	-0.701	
16.900	-0.462	-0.773	
16.905	-0.346	-0.753	
16.910	-0.177	-0.665	
16.915	-0.122	-0.538	
16.920	-0.134	-0.401	
16.925	-0.037	-0.280	
16.930	0.053	-0.175	
16.935	-0.006	-0.089	
16.940	0.099	-0.023	
16.945	0.282	0.035	
16.950	0.212	0.098	
16.955	0.373	0.160	
16.960	0.645	0.235	
16.965	0.674	0.337	
16.970	0.697	0.448	
16.975	0.942	0.559	
16.980	1.084	0.680	
16.985	1.181	0.812	
16.990	1.346	0.948	
16.995	1.459	1.086	
17.000	1.314	1.211	
17.005	1.213	1.293	
17.010	1.180	1.322	
17.015	0.933	1.300	
17.020	0.666	1.221	
17.025	0.669	1.092	
17.030	0.441	0.940	
17.035	0.079	0.767	
17.040	-0.024	0.567	
17.045	-0.066	0.362	
17.050	-0.247	0.176	
17.055	-0.288	0.013	
17.060	-0.233	-0.118	
17.065	-0.303	-0.210	
17.070	-0.378	-0.272	
17.075	-0.305	-0.316	
17.080	-0.296	-0.338	
17.085	-0.355	-0.344	
17.090	-0.290	-0.344	
17.095	-0.293	-0.337	
17.100	-0.348	-0.327	
17.105	-0.303	-0.322	
17.110	-0.178	-0.312	
17.115	-0.178	-0.289	
17.120	-0.188	-0.257	
17.125	-0.134	-0.226	
17.130	-0.111	-0.195	
17.135	-0.154	-0.167	
17.140	-0.099	-0.147	
17.145	-0.017	-0.127	
17.150	-0.020	-0.100	
17.155	0.026	-0.070	
17.160	0.174	-0.033	
17.165	0.116	0.014	
17.170	0.032	0.055	
17.175	0.180	0.081	
17.180	0.223	0.108	
17.185	0.130	0.135	
17.190	0.253	0.158	
17.195	0.378	0.187	
17.200	0.320	0.228	
17.205	0.273	0.265	
17.210	0.370	0.292	
17.215	0.360	0.315	
17.220	0.340	0.334	
17.225	0.479	0.351	
17.230	0.527	0.379	
17.235	0.441	0.414	
17.240	0.476	0.442	
17.245	0.480	0.460	
17.250	0.294	0.464	
17.255	0.198	0.439	
17.260	0.221	0.387	
17.265	0.108	0.325	
17.270	-0.003	0.255	
17.275	0.099	0.182	
17.280	0.082	0.126	
17.285	0.033	0.088	
17.290	0.236	0.072	
17.295	0.558	0.099	
17.300	0.721	0.190	
17.305	0.857	0.331	
17.310	0.994	0.498	
17.315	0.639	0.649	
17.320	-0.127	0.702	
17.325	-0.448	0.596	
17.330	-0.625	0.358	
17.335	-0.671	0.065	
17.340	-0.509	-0.205	
17.345	-0.267	-0.390	
17.350	-0.108	-0.462	
17.355	0.027	-0.434	
17.360	0.256	-0.330	
17.365	0.349	-0.177	
17.370	0.265	-0.013	
17.375	0.427	0.130	
17.380	0.529	0.253	
17.385	0.491	0.357	
17.390	0.436	0.433	
17.395	0.534	0.477	
17.400	0.501	0.504	
17.405	0.448	0.515	
17.410	0.541	0.515	
17.415	0.611	0.519	
17.420	0.585	0.533	
17.425	0.779	0.560	
17.430	0.942	0.612	
17.435	0.912	0.690	
17.440	1.030	0.776	
17.445	1.133	0.864	
17.450	1.081	0.950	
17.455	0.988	1.015	
17.460	1.000	1.046	
17.465	0.907	1.048	
17.470	0.575	1.012	
17.475	0.511	0.926	
17.480	0.390	0.805	
17.485	0.073	0.659	
17.490	-0.084	0.487	
17.495	-0.119	0.302	
17.500	-0.204	0.132	
17.505	-0.249	-0.012	
17.510	-0.185	-0.122	
17.515	-0.160	-0.189	
17.520	-0.160	-0.218	
17.525	-0.063	-0.217	
17.530	0.072	-0.186	
17.535	0.046	-0.131	
17.540	0.038	-0.070	
17.545	0.165	-0.014	
17.550	0.172	0.041	
17.555	0.194	0.093	
17.560	0.346	0.143	
17.565	0.352	0.198	
17.570	0.219	0.248	
17.575	0.232	0.273	
17.580	0.268	0.279	
17.585	0.145	0.273	
17.590	0.166	0.253	
17.595	0.349	0.234	
17.600	0.314	0.236	
17.605	0.206	0.248	
17.610	0.226	0.252	
17.615	0.226	0.248	
17.620	0.134	0.238	
17.625	0.131	0.218	
17.630	0.207	0.196	
17.635	0.171	0.182	
17.640	0.119	0.172	
17.645	0.184	0.163	
17.650	0.143	0.157	
17.655	0.041	0.149	
17.660	0.117	0.134	
17.665	0.123	0.120	
17.670	-0.024	0.106	
17.675	-0.027	0.082	
17.680	0.152	0.059	
17.685	0.154	0.056	
17.690	0.168	0.073	
17.695	0.251	0.103	
17.700	0.177	0.137	
17.705	0.053	0.159	
17.710	0.171	0.162	
17.715	0.140	0.158	
17.720	0.068	0.151	
17.725	0.213	0.142	
17.730	0.415	0.153	
17.735	0.262	0.191	
17.740	0.003	0.218	
17.745	-0.017	0.202	
17.750	-0.063	0.153	
17.755	-0.136	0.088	
17.760	-0.174	0.016	
17.765	-0.412	-0.064	
17.770	-0.877	-0.177	
17.775	-0.994	-0.346	
17.780	-0.994	-0.544	
17.785	-0.994	-0.724	
17.790	-0.994	-0.862	
17.795	-0.988	-0.954	
17.800	-0.782	-0.997	
17.805	-0.678	-0.983	
17.810	-0.531	-0.918	
17.815	-0.432	-0.816	
17.820	-0.419	-0.700	
17.825	-0.367	-0.589	
17.830	-0.265	-0.491	
17.835	-0.252	-0.405	
17.840	-0.253	-0.336	
17.845	-0.154	-0.281	
17.850	-0.122	-0.234	
17.855	-0.120	-0.192	
17.860	-0.012	-0.153	
17.865	0.091	-0.108	
17.870	0.040	-0.056	
17.875	0.189	-0.004	
17.880	0.495	0.065	
17.885	0.552	0.166	
17.890	0.579	0.286	
17.895	0.780	0.407	
17.900	0.843	0.529	
17.905	0.787	0.642	
17.910	0.849	0.729	
17.915	0.838	0.791	
17.920	0.578	0.819	
17.925	0.424	0.793	
17.930	0.314	0.714	
17.935	0.076	0.595	
17.940	-0.102	0.444	
17.945	-0.139	0.275	
17.950	-0.220	0.114	
17.955	-0.323	-0.028	
17.960	-0.393	-0.151	
17.965	-0.354	-0.251	
17.970	-0.401	-0.323	
17.975	-0.404	-0.371	
17.980	-0.351	-0.398	
17.985	-0.383	-0.407	
17.990	-0.387	-0.405	
17.995	-0.317	-0.398	
18.000	-0.313	-0.382	
18.005	-0.366	-0.364	
18.010	-0.323	-0.351	
18.015	-0.284	-0.340	
18.020	-0.339	-0.328	
18.025	-0.305	-0.320	
18.030	-0.227	-0.312	
18.035	-0.227	-0.295	
18.040	-0.270	-0.277	
18.045	-0.192	-0.261	
18.050	-0.192	-0.244	
18.055	-0.223	-0.227	
18.060	-0.171	-0.215	
18.065	-0.136	-0.201	
18.070	-0.174	-0.186	
18.075	-0.124	-0.172	
18.080	-0.017	-0.154	
18.085	-0.050	-0.126	
18.090	-0.105	-0.099	
18.095	-0.006	-0.080	
18.100	0.024	-0.060	
18.105	-0.052	-0.040	
18.110	0.023	-0.025	
18.115	0.072	-0.010	
18.120	-0.031	0.005	
18.125	0.033	0.014	
18.130	0.136	0.024	
18.135	0.081	0.042	
18.140	0.037	0.058	
18.145	0.122	0.068	
18.150	0.072	0.077	
18.155	-0.044	0.077	
18.160	-0.058	0.060	
18.165	-0.093	0.028	
18.170	-0.169	-0.011	
18.175	-0.171	-0.057	
18.180	-0.111	-0.097	
18.185	-0.140	-0.124	
18.190	-0.136	-0.138	
18.195	0.120	-0.133	
18.200	0.500	-0.079	
18.205	0.829	0.053	
18.210	1.140	0.260	
18.215	1.084	0.507	
18.220	0.358	0.704	
18.225	-0.337	0.739	
18.230	-0.646	0.575	
18.235	-0.828	0.275	
18.240	-0.805	-0.067	
18.245	-0.613	-0.363	
18.250	-0.409	-0.554	
18.255	-0.276	-0.625	
18.260	-0.099	-0.593	
18.265	0.081	-0.486	
18.270	0.078	-0.338	
18.275	0.158	-0.184	
18.280	0.291	-0.043	
18.285	0.262	0.081	
18.290	0.235	0.175	
18.295	0.373	0.240	
18.300	0.351	0.289	
18.305	0.265	0.322	
18.310	0.413	0.338	
18.315	0.524	0.358	
18.320	0.535	0.394	
18.325	0.640	0.442	
18.330	0.695	0.500	
18.335	0.675	0.561	
18.340	0.724	0.615	
18.345	0.826	0.664	
18.350	0.732	0.709	
18.355	0.619	0.735	
18.360	0.607	0.731	
18.365	0.495	0.701	
18.370	0.279	0.644	
18.375	0.213	0.555	
18.380	0.056	0.444	
18.385	-0.157	0.316	
18.390	-0.236	0.171	
18.395	-0.267	0.027	
18.400	-0.390	-0.102	
18.405	-0.468	-0.217	
18.410	-0.486	-0.317	
18.415	-0.552	-0.399	
18.420	-0.642	-0.469	
18.425	-0.608	-0.530	
18.430	-0.534	-0.572	
18.435	-0.537	-0.590	
18.440	-0.505	-0.587	
18.445	-0.454	-0.569	
18.450	-0.476	-0.543	
18.455	-0.450	-0.515	
18.460	-0.346	-0.486	
18.465	-0.342	-0.450	
18.470	-0.378	-0.415	
18.475	-0.322	-0.386	
18.480	-0.300	-0.362	
18.485	-0.339	-0.341	
18.490	-0.326	-0.328	
18.495	-0.415	-0.326	
18.500	-0.701	-0.351	
18.505	-0.895	-0.423	
18.510	-0.938	-0.539	
18.515	-0.950	-0.668	
18.520	-0.974	-0.784	
18.525	-0.834	-0.869	
18.530	-0.744	-0.906	
18.535	-0.721	-0.898	
18.540	-0.593	-0.856	
18.545	-0.476	-0.788	
18.550	-0.471	-0.702	
18.555	-0.393	-0.613	
18.560	-0.252	-0.526	
18.565	-0.241	-0.439	
18.570	-0.241	-0.360	
18.575	-0.090	-0.292	
18.580	-0.041	-0.226	
18.585	-0.128	-0.166	
18.590	0.020	-0.118	
18.595	0.206	-0.068	
18.600	0.046	-0.008	
18.605	-0.020	0.035	
18.610	0.123	0.056	
18.615	0.064	0.069	
18.620	-0.011	0.074	
18.625	0.198	0.074	
18.630	0.287	0.091	
18.635	0.187	0.127	
18.640	0.375	0.169	
18.645	0.665	0.232	
18.650	0.837	0.338	
18.655	1.166	0.489	
18.660	1.480	0.688	
18.665	1.247	0.906	
18.670	0.501	1.053	
18.675	-0.142	1.028	
18.680	-0.432	0.816	
18.685	-0.592	0.488	
18.690	-0.514	0.138	
18.695	-0.273	-0.147	
18.700	-0.119	-0.314	
18.705	0.168	-0.354	
18.710	0.567	-0.273	
18.715	0.640	-0.092	
18.720	0.680	0.130	
18.725	0.930	0.350	
18.730	1.421	0.577	
18.735	2.212	0.858	
18.740	2.925	1.242	
18.745	3.117	1.718	
18.750	3.116	2.201	
18.755	3.116	2.608	
18.760	3.113	2.901	
18.765	3.116	3.085	
18.770	3.116	3.181	
18.775	3.116	3.216	
18.780	3.119	3.215	
18.785	2.983	3.190	
18.790	2.840	3.140	
18.795	2.810	3.065	
18.800	2.595	2.972	
18.805	2.527	2.864	
18.810	2.540	2.752	
18.815	2.343	2.648	
18.820	2.037	2.536	
18.825	1.901	2.396	
18.830	1.639	2.230	
18.835	1.299	2.036	
18.840	1.043	1.808	
18.845	0.802	1.556	
18.850	0.434	1.287	
18.855	0.270	1.006	
18.860	0.248	0.739	
18.865	0.123	0.512	
18.870	-0.052	0.327	
18.875	-0.040	0.174	
18.880	-0.008	0.061	
18.885	-0.107	-0.014	
18.890	-0.128	-0.064	
18.895	-0.056	-0.096	
18.900	-0.099	-0.110	
18.905	-0.180	-0.117	
18.910	-0.194	-0.128	
18.915	-0.174	-0.145	
18.920	-0.223	-0.161	
18.925	-0.182	-0.177	
18.930	-0.146	-0.185	
18.935	-0.207	-0.187	
18.940	-0.233	-0.190	
18.945	-0.207	-0.197	
18.950	-0.238	-0.205	
18.955	-0.290	-0.216	
18.960	-0.296	-0.233	
18.965	-0.252	-0.250	
18.970	-0.282	-0.263	
18.975	-0.232	-0.269	
18.980	-0.165	-0.264	
18.985	-0.212	-0.249	
18.990	-0.230	-0.233	
18.995	-0.154	-0.220	
19.000	-0.163	-0.206	
19.005	-0.203	-0.192	
19.010	-0.148	-0.183	
19.015	-0.149	-0.175	
19.020	-0.212	-0.169	
19.025	-0.209	-0.171	
19.030	-0.149	-0.176	
19.035	-0.226	-0.180	
19.040	-0.247	-0.188	
19.045	-0.174	-0.198	
19.050	-0.241	-0.205	
19.055	-0.322	-0.216	
19.060	-0.320	-0.237	
19.065	-0.291	-0.261	
19.070	-0.342	-0.283	
19.075	-0.322	-0.301	
19.080	-0.256	-0.311	
19.085	-0.267	-0.310	
19.090	-0.284	-0.302	
19.095	-0.124	-0.286	
19.100	0.134	-0.244	
19.105	0.408	-0.153	
19.110	0.784	0.000	
19.115	0.852	0.206	
19.120	0.152	0.391	
19.125	-0.451	0.442	
19.130	-0.813	0.314	
19.135	-0.993	0.051	
19.140	-0.994	-0.262	
19.145	-0.840	-0.544	
19.150	-0.648	-0.736	
19.155	-0.509	-0.816	
19.160	-0.337	-0.798	
19.165	-0.209	-0.706	
19.170	-0.197	-0.574	
19.175	-0.136	-0.437	
19.180	-0.009	-0.311	
19.185	0.000	-0.199	
19.190	-0.021	-0.109	
19.195	0.078	-0.042	
19.200	0.090	0.008	
19.205	0.001	0.044	
19.210	0.079	0.061	
19.215	0.139	0.072	
19.220	0.123	0.086	
19.225	0.236	0.106	
19.230	0.433	0.144	
19.235	0.474	0.208	
19.240	0.463	0.287	
19.245	0.625	0.366	
19.250	0.684	0.448	
19.255	0.617	0.526	
19.260	0.687	0.588	
19.265	0.700	0.634	
19.270	0.480	0.658	
19.275	0.323	0.640	
19.280	0.232	0.575	
19.285	-0.070	0.471	
19.290	-0.229	0.326	
19.295	-0.242	0.159	
19.300	-0.329	-0.000	
19.305	-0.470	-0.142	
19.310	-0.512	-0.268	
19.315	-0.515	-0.373	
19.320	-0.642	-0.456	
19.325	-0.677	-0.528	
19.330	-0.633	-0.587	
19.335	-0.656	-0.627	
19.340	-0.662	-0.652	
19.345	-0.590	-0.662	
19.350	-0.582	-0.657	
19.355	-0.633	-0.643	
19.360	-0.582	-0.630	
19.365	-0.526	-0.614	
19.370	-0.550	-0.594	
19.375	-0.528	-0.574	
19.380	-0.464	-0.554	
19.385	-0.506	-0.532	
19.390	-0.532	-0.516	
19.395	-0.448	-0.506	
19.400	-0.442	-0.494	
19.405	-0.514	-0.482	
19.410	-0.412	-0.474	
19.415	-0.342	-0.460	
19.420	-0.357	-0.435	
19.425	-0.326	-0.407	
19.430	-0.288	-0.377	
19.435	-0.320	-0.350	
19.440	-0.308	-0.329	
19.445	-0.207	-0.310	
19.450	-0.195	-0.286	
19.455	-0.209	-0.259	
19.460	-0.143	-0.233	
19.465	-0.133	-0.206	
19.470	-0.188	-0.182	
19.475	-0.093	-0.165	
19.480	0.067	-0.140	
19.485	0.040	-0.098	
19.490	0.020	-0.052	
19.495	0.152	-0.009	
19.500	0.136	0.035	
19.505	0.061	0.073	
19.510	0.131	0.096	
19.515	0.120	0.110	
19.520	-0.032	0.112	
19.525	-0.043	0.093	
19.530	-0.061	0.058	
19.535	-0.203	0.014	
19.540	-0.255	-0.044	
19.545	-0.313	-0.112	
19.550	-0.523	-0.189	
19.555	-0.622	-0.284	
19.560	-0.410	-0.378	
19.565	-0.188	-0.430	
19.570	-0.031	-0.414	
19.575	0.065	-0.338	
19.580	-0.180	-0.242	
19.585	-0.640	-0.193	
19.590	-0.950	-0.245	
19.595	-0.994	-0.388	
19.600	-0.993	-0.568	
19.605	-0.930	-0.732	
19.610	-0.659	-0.840	
19.615	-0.430	-0.861	
19.620	-0.314	-0.797	
19.625	-0.119	-0.673	
19.630	0.064	-0.510	
19.635	0.021	-0.335	
19.640	0.187	-0.173	
19.645	0.395	-0.025	
19.650	0.335	0.113	
19.655	0.326	0.224	
19.660	0.529	0.307	
19.665	0.576	0.382	
19.670	0.511	0.449	
19.675	0.614	0.502	
19.680	0.776	0.551	
19.685	0.797	0.610	
19.690	0.933	0.679	
19.695	1.192	0.765	
19.700	1.183	0.874	
19.705	1.265	0.989	
19.710	1.506	1.104	
19.715	1.562	1.226	
19.720	1.438	1.340	
19.725	1.454	1.420	
19.730	1.448	1.465	
19.735	1.195	1.473	
19.740	1.053	1.430	
19.745	0.956	1.342	
19.750	0.649	1.218	
19.755	0.373	1.053	
19.760	0.337	0.858	
19.765	0.232	0.662	
19.770	0.043	0.483	
19.775	0.521	0.344	
19.780	1.345	0.325	
19.785	1.846	0.488	
19.790	2.079	0.807	
19.795	2.282	1.197	
19.800	2.290	1.580	
19.805	2.210	1.895	
19.810	2.277	2.115	
19.815	2.285	2.251	
19.820	2.034	2.312	
19.825	2.011	2.301	
19.830	2.017	2.243	
19.835	1.790	2.162	
19.840	1.503	2.051	
19.845	1.413	1.904	
19.850	1.204	1.736	
19.855	0.916	1.551	
19.860	0.840	1.353	
19.865	0.860	1.165	
19.870	0.631	1.005	
19.875	0.462	0.860	
19.880	0.503	0.725	
19.885	0.322	0.607	
19.890	0.117	0.496	
19.895	0.165	0.383	
19.900	0.113	0.282	
19.905	-0.044	0.197	
19.910	-0.043	0.117	
19.915	-0.058	0.048	
19.920	-0.185	-0.011	
19.925	-0.215	-0.067	
19.930	-0.200	-0.120	
19.935	-0.302	-0.166	
19.940	-0.396	-0.214	
19.945	-0.335	-0.264	
19.950	-0.306	-0.303	
19.955	-0.374	-0.327	
19.960	-0.319	-0.342	
19.965	-0.316	-0.348	
19.970	-0.407	-0.349	
19.975	-0.427	-0.357	
19.980	-0.323	-0.368	
19.985	-0.332	-0.370	
19.990	-0.383	-0.367	
19.995	-0.313	-0.362	
20.000	-0.316	-0.354	
20.005	-0.355	-0.345	
20.010	-0.268	-0.336	
20.015	-0.087	-0.315	
20.020	0.049	-0.265	
20.025	0.328	-0.176	
20.030	0.569	-0.041	
20.035	0.334	0.116	
20.040	-0.233	0.218	
20.045	-0.640	0.192	
20.050	-0.928	0.032	
20.055	-0.994	-0.214	
20.060	-0.913	-0.473	
20.065	-0.669	-0.673	
20.070	-0.509	-0.775	
20.075	-0.339	-0.776	
20.080	-0.142	-0.694	
20.085	-0.165	-0.562	
20.090	-0.198	-0.424	
20.095	-0.061	-0.307	
20.100	0.024	-0.206	
20.105	-0.073	-0.123	
20.110	-0.014	-0.065	
20.115	0.139	-0.023	
20.120	0.079	0.018	
20.125	0.104	0.053	
20.130	0.238	0.085	
20.135	0.207	0.121	
20.140	0.137	0.153	
20.145	0.346	0.179	
20.150	0.483	0.219	
20.155	0.437	0.279	
20.160	0.652	0.350	
20.165	0.840	0.439	
20.170	0.773	0.545	
20.175	0.767	0.642	
20.180	0.968	0.723	
20.185	0.899	0.795	
20.190	0.694	0.843	
20.195	0.593	0.844	
20.200	0.393	0.794	
20.205	0.033	0.688	
20.210	-0.066	0.527	
20.215	-0.133	0.340	
20.220	-0.305	0.156	
20.225	-0.375	-0.015	
20.230	-0.369	-0.162	
20.235	-0.436	-0.276	
20.240	-0.518	-0.362	
20.245	-0.492	-0.428	
20.250	-0.477	-0.473	
20.255	-0.534	-0.499	
20.260	-0.496	-0.514	
20.265	-0.433	-0.517	
20.270	-0.492	-0.508	
20.275	-0.489	-0.498	
20.280	-0.406	-0.488	
20.285	-0.433	-0.473	
20.290	-0.460	-0.458	
20.295	-0.387	-0.447	
20.300	-0.369	-0.433	
20.305	-0.409	-0.417	
20.310	-0.329	-0.402	
20.315	-0.271	-0.382	
20.320	-0.299	-0.356	
20.325	-0.252	-0.329	
20.330	-0.153	-0.299	
20.335	-0.169	-0.263	
20.340	-0.226	-0.229	
20.345	-0.122	-0.205	
20.350	-0.049	-0.179	
20.355	-0.122	-0.149	
20.360	-0.090	-0.124	
20.365	-0.005	-0.104	
20.370	-0.073	-0.082	
20.375	-0.052	-0.066	
20.380	0.073	-0.050	
20.385	0.029	-0.028	
20.390	-0.052	-0.008	
20.395	0.021	0.001	
20.400	0.038	0.006	
20.405	-0.050	0.010	
20.410	-0.043	0.005	
20.415	0.079	-0.001	
20.420	0.026	0.003	
20.425	0.011	0.011	
20.430	0.078	0.018	
20.435	-0.063	0.023	
20.440	-0.163	0.012	
20.445	-0.102	-0.019	
20.450	-0.119	-0.053	
20.455	-0.197	-0.084	
20.460	-0.165	-0.116	
20.465	-0.107	-0.139	
20.470	-0.162	-0.150	
20.475	-0.108	-0.152	
20.480	0.099	-0.138	
20.485	0.317	-0.087	
20.490	0.547	0.013	
20.495	0.905	0.167	
20.500	0.770	0.356	
20.505	0.078	0.500	
20.510	-0.428	0.501	
20.515	-0.750	0.339	
20.520	-0.994	0.062	
20.525	-0.993	-0.258	
20.530	-0.808	-0.543	
20.535	-0.634	-0.732	
20.540	-0.477	-0.808	
20.545	-0.262	-0.781	
20.550	-0.146	-0.677	
20.555	-0.142	-0.533	
20.560	-0.017	-0.385	
20.565	0.136	-0.242	
20.570	0.161	-0.109	
20.575	0.303	0.012	
20.580	0.416	0.124	
20.585	0.351	0.225	
20.590	0.334	0.300	
20.595	0.526	0.353	
20.600	0.620	0.406	
20.605	0.439	0.459	
20.610	0.508	0.493	
20.615	0.598	0.513	
20.620	0.430	0.527	
20.625	0.267	0.516	
20.630	0.216	0.470	
20.635	0.023	0.394	
20.640	-0.032	0.294	
20.645	0.087	0.193	
20.650	0.075	0.118	
20.655	-0.037	0.068	
20.660	-0.023	0.030	
20.665	-0.052	-0.000	
20.670	-0.218	-0.031	
20.675	-0.253	-0.075	
20.680	-0.255	-0.128	
20.685	-0.366	-0.182	
20.690	-0.444	-0.241	
20.695	-0.389	-0.302	
20.700	-0.457	-0.353	
20.705	-0.537	-0.398	
20.710	-0.465	-0.439	
20.715	-0.430	-0.465	
20.720	-0.468	-0.475	
20.725	-0.435	-0.476	
20.730	-0.357	-0.466	
20.735	-0.413	-0.447	
20.740	-0.409	-0.429	
20.745	-0.293	-0.411	
20.750	-0.284	-0.385	
20.755	-0.334	-0.357	
20.760	-0.246	-0.332	
20.765	-0.174	-0.305	
20.770	-0.224	-0.273	
20.775	-0.165	-0.243	
20.780	-0.047	-0.211	
20.785	-0.101	-0.173	
20.790	-0.110	-0.139	
20.795	0.024	-0.110	
20.800	0.015	-0.078	
20.805	-0.066	-0.048	
20.810	0.065	-0.027	
20.815	0.160	-0.001	
20.820	0.053	0.032	
20.825	0.143	0.061	
20.830	0.305	0.094	
20.835	0.166	0.135	
20.840	0.130	0.166	
20.845	0.326	0.185	
20.850	0.200	0.206	
20.855	0.119	0.217	
20.860	0.258	0.214	
20.865	0.215	0.213	
20.870	0.052	0.207	
20.875	0.139	0.187	
20.880	0.259	0.170	
20.885	0.099	0.165	
20.890	0.061	0.156	
20.895	0.151	0.140	
20.900	-0.005	0.123	
20.905	-0.081	0.094	
20.910	0.038	0.057	
20.915	-0.012	0.027	
20.920	-0.111	0.003	
20.925	-0.047	-0.022	
20.930	0.058	-0.037	
20.935	-0.044	-0.037	
20.940	-0.008	-0.032	
20.945	0.308	-0.012	
20.950	0.453	0.049	
20.955	0.643	0.156	
20.960	1.056	0.308	
20.965	1.026	0.501	
20.970	0.317	0.661	
20.975	-0.313	0.680	
20.980	-0.660	0.519	
20.985	-0.867	0.229	
20.990	-0.813	-0.104	
20.995	-0.585	-0.391	
21.000	-0.433	-0.571	
21.005	-0.329	-0.636	
21.010	-0.079	-0.605	
21.015	0.072	-0.497	
21.020	0.038	-0.348	
21.025	0.623	-0.175	
21.030	1.779	0.084	
21.035	2.521	0.505	
21.040	2.846	1.065	
21.045	2.994	1.661	
21.050	2.758	2.182	
21.055	2.378	2.538	
21.060	2.270	2.696	
21.065	2.087	2.692	
21.070	1.800	2.573	
21.075	1.776	2.384	
21.080	1.773	2.180	
21.085	1.666	2.000	
21.090	1.601	1.852	
21.095	1.744	1.742	
21.100	1.706	1.680	
21.105	1.579	1.650	
21.110	1.651	1.632	
21.115	1.590	1.620	
21.120	1.291	1.598	
21.125	1.157	1.538	
21.130	1.049	1.439	
21.135	0.332	1.291	
21.140	-0.274	1.046	
21.145	-0.555	0.697	
21.150	-0.871	0.293	
21.155	-0.996	-0.112	
21.160	-0.993	-0.468	
21.165	-0.994	-0.740	
21.170	-0.993	-0.921	
21.175	-0.994	-1.023	
21.180	-0.956	-1.066	
21.185	-0.982	-1.070	
21.190	-0.938	-1.052	
21.195	-0.819	-1.019	
21.200	-0.808	-0.971	
21.205	-0.762	-0.915	
21.210	-0.462	-0.848	
21.215	0.110	-0.731	
21.220	0.707	-0.517	
21.225	1.157	-0.193	
21.230	1.421	0.207	
21.235	1.302	0.610	
21.240	1.168	0.935	
21.245	1.119	1.142	
21.250	0.902	1.232	
21.255	0.616	1.212	
21.260	0.556	1.103	
21.265	0.468	0.947	
21.270	0.251	0.776	
21.275	0.212	0.603	
21.280	0.302	0.452	
21.285	0.190	0.341	
21.290	0.142	0.261	
21.295	0.273	0.208	
21.300	0.251	0.187	
21.305	0.116	0.183	
21.310	0.255	0.182	
21.315	0.338	0.192	
21.320	0.251	0.216	
21.325	0.274	0.239	
21.330	0.248	0.255	
21.335	-0.098	0.247	
21.340	-0.299	0.186	
21.345	-0.541	0.065	
21.350	-0.810	-0.108	
21.355	-0.965	-0.317	
21.360	-0.831	-0.526	
21.365	-0.621	-0.682	
21.370	-0.459	-0.749	
21.375	-0.261	-0.727	
21.380	-0.191	-0.636	
21.385	-0.242	-0.515	
21.390	-0.281	-0.404	
21.395	-0.389	-0.330	
21.400	-0.627	-0.311	
21.405	-0.750	-0.354	
21.410	-0.672	-0.439	
21.415	-0.567	-0.523	
21.420	-0.416	-0.570	
21.425	-0.124	-0.558	
21.430	0.084	-0.476	
21.435	-0.149	-0.353	
21.440	-0.474	-0.259	
21.445	-0.832	-0.254	
21.450	-0.993	-0.349	
21.455	-0.994	-0.507	
21.460	-0.993	-0.675	
21.465	-0.770	-0.806	
21.470	-0.518	-0.862	
21.475	-0.224	-0.824	
21.480	0.099	-0.694	
21.485	0.235	-0.492	
21.490	0.337	-0.260	
21.495	0.834	-0.018	
21.500	1.582	0.270	
21.505	2.271	0.651	
21.510	2.656	1.123	
21.515	2.390	1.608	
21.520	1.585	1.966	
21.525	1.088	2.086	
21.530	0.736	1.968	
21.535	0.315	1.679	
21.540	0.209	1.300	
21.545	0.357	0.924	
21.550	0.370	0.628	
21.555	0.404	0.436	
21.560	0.703	0.348	
21.565	0.797	0.361	
21.570	0.736	0.440	
21.575	0.928	0.546	
21.580	1.038	0.664	
21.585	0.844	0.778	
21.590	0.768	0.851	
21.595	0.744	0.874	
21.600	0.523	0.853	
21.605	0.256	0.779	
21.610	0.204	0.656	
21.615	-0.005	0.505	
21.620	-0.183	0.338	
21.625	-0.203	0.167	
21.630	-0.224	0.015	
21.635	-0.348	-0.109	
21.640	-0.367	-0.209	
21.645	-0.314	-0.284	
21.650	-0.349	-0.331	
21.655	-0.384	-0.357	
21.660	-0.294	-0.369	
21.665	-0.306	-0.366	
21.670	-0.360	-0.355	
21.675	-0.238	-0.343	
21.680	-0.165	-0.320	
21.685	-0.210	-0.285	
21.690	-0.232	-0.253	
21.695	-0.137	-0.228	
21.700	-0.154	-0.204	
21.705	-0.172	-0.183	
21.710	-0.066	-0.165	
21.715	-0.076	-0.143	
21.720	-0.148	-0.123	
21.725	-0.085	-0.111	
21.730	-0.041	-0.102	
21.735	-0.117	-0.091	
21.740	-0.082	-0.086	
21.745	0.040	-0.079	
21.750	-0.072	-0.064	
21.755	-0.145	-0.056	
21.760	-0.024	-0.060	
21.765	-0.017	-0.061	
21.770	-0.055	-0.055	
21.775	0.094	-0.043	
21.780	0.187	-0.015	
21.785	0.046	0.026	
21.790	0.059	0.056	
21.795	0.207	0.078	
21.800	0.134	0.103	
21.805	0.068	0.121	
21.810	0.250	0.131	
21.815	0.221	0.149	
21.820	0.073	0.165	
21.825	0.171	0.168	
21.830	0.308	0.171	
21.835	0.055	0.180	
21.840	0.026	0.172	
21.845	0.142	0.147	
21.850	0.020	0.123	
21.855	-0.038	0.095	
21.860	0.078	0.065	
21.865	0.046	0.046	
21.870	-0.067	0.032	
21.875	0.068	0.019	
21.880	0.268	0.024	
21.885	0.372	0.068	
21.890	0.741	0.157	
21.895	1.111	0.309	
21.900	0.979	0.509	
21.905	0.434	0.674	
21.910	-0.113	0.712	
21.915	-0.505	0.585	
21.920	-0.761	0.328	
21.925	-0.723	0.014	
21.930	-0.573	-0.271	
21.935	-0.489	-0.470	
21.940	-0.265	-0.565	
21.945	0.006	-0.554	
21.950	0.065	-0.455	
21.955	0.110	-0.311	
21.960	0.335	-0.154	
21.965	0.349	0.003	
21.970	0.209	0.138	
21.975	0.364	0.230	
21.980	0.509	0.300	
21.985	0.323	0.358	
21.990	0.300	0.387	
21.995	0.462	0.394	
22.000	0.331	0.397	
22.005	0.328	0.392	
22.010	0.611	0.390	
22.015	0.666	0.420	
22.020	0.605	0.475	
22.025	0.779	0.537	
22.030	0.994	0.614	
22.035	0.934	0.709	
22.040	1.052	0.806	
22.045	1.250	0.902	
22.050	1.152	1.000	
22.055	0.968	1.073	
22.060	1.009	1.099	
22.065	0.869	1.087	
22.070	0.535	1.032	
22.075	0.463	0.926	
22.080	0.373	0.787	
22.085	0.355	0.646	
22.090	0.934	0.550	
22.095	1.706	0.583	
22.100	2.131	0.790	
22.105	2.200	1.123	
22.110	2.303	1.487	
22.115	2.258	1.810	
22.120	1.902	2.037	
22.125	1.742	2.133	
22.130	1.698	2.113	
22.135	1.326	2.012	
22.140	1.066	1.841	
22.145	1.070	1.626	
22.150	0.915	1.410	
22.155	0.658	1.208	
22.160	0.617	1.017	
22.165	0.585	0.850	
22.170	0.332	0.709	
22.175	0.218	0.576	
22.180	0.255	0.452	
22.185	0.113	0.346	
22.190	-0.058	0.250	
22.195	-0.023	0.155	
22.200	-0.032	0.074	
22.205	-0.130	0.010	
22.210	-0.124	-0.042	
22.215	-0.105	-0.082	
22.220	-0.189	-0.111	
22.225	-0.227	-0.137	
22.230	-0.146	-0.162	
22.235	-0.175	-0.176	
22.240	-0.224	-0.183	
22.245	-0.146	-0.189	
22.250	-0.149	-0.188	
22.255	-0.220	-0.183	
22.260	-0.183	-0.182	
22.265	-0.162	-0.183	
22.270	-0.210	-0.183	
22.275	-0.239	-0.187	
22.280	-0.157	-0.193	
22.285	-0.200	-0.196	
22.290	-0.256	-0.198	
22.295	-0.230	-0.206	
22.300	-0.276	-0.218	
22.305	-0.383	-0.237	
22.310	-0.387	-0.269	
22.315	-0.325	-0.303	
22.320	-0.435	-0.332	
22.325	-0.476	-0.362	
22.330	-0.406	-0.392	
22.335	-0.435	-0.415	
22.340	-0.479	-0.430	
22.345	-0.363	-0.439	
22.350	-0.159	-0.425	
22.355	-0.052	-0.374	
22.360	0.210	-0.282	
22.365	0.325	-0.153	
22.370	-0.151	-0.028	
22.375	-0.640	0.010	
22.380	-0.930	-0.082	
22.385	-0.994	-0.274	
22.390	-0.994	-0.498	
22.395	-0.935	-0.697	
22.400	-0.701	-0.831	
22.405	-0.654	-0.881	
22.410	-0.483	-0.858	
22.415	-0.325	-0.778	
22.420	-0.339	-0.663	
22.425	-0.322	-0.546	
22.430	-0.198	-0.441	
22.435	-0.183	-0.350	
22.440	-0.233	-0.278	
22.445	-0.151	-0.228	
22.450	-0.111	-0.191	
22.455	-0.156	-0.162	
22.460	-0.117	-0.143	
22.465	-0.018	-0.126	
22.470	-0.040	-0.103	
22.475	0.024	-0.076	
22.480	0.223	-0.039	
22.485	0.242	0.020	
22.490	0.213	0.088	
22.495	0.457	0.157	
22.500	0.633	0.243	
22.505	0.538	0.345	
22.510	0.617	0.439	
22.515	0.732	0.519	
22.520	0.537	0.584	
22.525	0.344	0.607	
22.530	0.331	0.578	
22.535	0.148	0.511	
22.540	-0.090	0.408	
22.545	-0.163	0.273	
22.550	-0.246	0.126	
22.555	-0.398	-0.018	
22.560	-0.456	-0.155	
22.565	-0.441	-0.274	
22.570	-0.531	-0.369	
22.575	-0.575	-0.443	
22.580	-0.511	-0.499	
22.585	-0.532	-0.532	
22.590	-0.585	-0.550	
22.595	-0.505	-0.559	
22.600	-0.454	-0.555	
22.605	-0.518	-0.540	
22.610	-0.479	-0.524	
22.615	-0.412	-0.506	
22.620	-0.416	-0.483	
22.625	-0.421	-0.460	
22.630	-0.346	-0.437	
22.635	-0.343	-0.413	
22.640	-0.389	-0.390	
22.645	-0.299	-0.372	
22.650	-0.258	-0.352	
22.655	-0.328	-0.330	
22.660	-0.319	-0.315	
22.665	-0.230	-0.305	
22.670	-0.252	-0.291	
22.675	-0.259	-0.276	
22.680	-0.180	-0.262	
22.685	-0.200	-0.244	
22.690	-0.252	-0.229	
22.695	-0.168	-0.219	
22.700	-0.116	-0.206	
22.705	-0.178	-0.189	
22.710	-0.131	-0.173	
22.715	-0.049	-0.156	
22.720	-0.119	-0.135	
22.725	-0.127	-0.119	
22.730	0.017	-0.105	
22.735	-0.021	-0.084	
22.740	-0.096	-0.064	
22.745	-0.038	-0.054	
22.750	0.020	-0.046	
22.755	-0.084	-0.038	
22.760	-0.032	-0.035	
22.765	0.046	-0.032	
22.770	-0.072	-0.025	
22.775	-0.143	-0.028	
22.780	-0.122	-0.047	
22.785	-0.185	-0.074	
22.790	-0.262	-0.108	
22.795	-0.232	-0.148	
22.800	-0.233	-0.185	
22.805	-0.302	-0.215	
22.810	-0.276	-0.242	
22.815	-0.139	-0.256	
22.820	-0.046	-0.243	
22.825	0.314	-0.188	
22.830	0.756	-0.065	
22.835	0.835	0.131	
22.840	0.495	0.337	
22.845	-0.125	0.455	
22.850	-0.587	0.414	
22.855	-0.925	0.214	
22.860	-0.977	-0.081	
22.865	-0.886	-0.385	
22.870	-0.848	-0.629	
22.875	-0.767	-0.788	
22.880	-0.686	-0.862	
22.885	-0.688	-0.870	
22.890	-0.599	-0.836	
22.895	-0.451	-0.773	
22.900	-0.422	-0.688	
22.905	-0.445	-0.600	
22.910	-0.299	-0.520	
22.915	-0.223	-0.443	
22.920	-0.227	-0.368	
22.925	-0.140	-0.301	
22.930	-0.002	-0.236	
22.935	0.008	-0.167	
22.940	0.037	-0.100	
22.945	0.294	-0.031	
22.950	0.372	0.055	
22.955	0.415	0.154	
22.960	0.697	0.261	
22.965	0.844	0.389	
22.970	0.800	0.526	
22.975	1.023	0.657	
22.980	1.296	0.791	
22.985	1.181	0.932	
22.990	1.110	1.050	
22.995	1.166	1.124	
23.000	1.014	1.159	
23.005	0.727	1.143	
23.010	0.675	1.069	
23.015	0.521	0.956	
23.020	0.183	0.811	
23.025	0.096	0.636	
23.030	0.068	0.453	
23.035	-0.114	0.284	
23.040	-0.149	0.135	
23.045	-0.111	0.012	
23.050	-0.201	-0.077	
23.055	-0.244	-0.141	
23.060	-0.156	-0.186	
23.065	-0.169	-0.207	
23.070	-0.265	-0.214	
23.075	-0.183	-0.219	
23.080	-0.139	-0.216	
23.085	-0.210	-0.206	
23.090	-0.183	-0.197	
23.095	-0.076	-0.187	
23.100	-0.107	-0.167	
23.105	-0.149	-0.147	
23.110	-0.079	-0.133	
23.115	-0.056	-0.118	
23.120	-0.107	-0.102	
23.125	0.030	-0.087	
23.130	0.210	-0.056	
23.135	0.075	-0.006	
23.140	0.136	0.043	
23.145	0.319	0.089	
23.150	0.235	0.142	
23.155	0.180	0.187	
23.160	0.349	0.218	
23.165	0.297	0.247	
23.170	0.154	0.266	
23.175	0.320	0.269	
23.180	0.372	0.275	
23.185	0.238	0.287	
23.190	0.309	0.293	
23.195	0.476	0.304	
23.200	0.346	0.327	
23.205	0.267	0.344	
23.210	0.415	0.349	
23.215	0.373	0.355	
23.220	0.209	0.355	
23.225	0.331	0.342	
23.230	0.354	0.328	
23.235	0.076	0.313	
23.240	0.068	0.274	
23.245	0.128	0.220	
23.250	0.006	0.168	
23.255	-0.055	0.115	
23.260	0.043	0.065	
23.265	0.058	0.033	
23.270	-0.011	0.018	
23.275	0.223	0.019	
23.280	0.488	0.058	
23.285	0.569	0.149	
23.290	0.838	0.279	
23.295	1.090	0.446	
23.300	0.768	0.620	
23.305	0.081	0.716	
23.310	-0.328	0.659	
23.315	-0.619	0.454	
23.320	-0.747	0.163	
23.325	-0.601	-0.135	
23.330	-0.398	-0.366	
23.335	-0.288	-0.489	
23.340	-0.066	-0.507	
23.345	0.303	-0.428	
23.350	0.383	-0.268	
23.355	0.387	-0.072	
23.360	0.559	0.117	
23.365	0.526	0.282	
23.370	0.415	0.404	
23.375	0.596	0.480	
23.380	0.697	0.535	
23.385	0.527	0.579	
23.390	0.561	0.601	
23.395	0.739	0.611	
23.400	0.622	0.626	
23.405	0.594	0.637	
23.410	0.822	0.646	
23.415	0.860	0.674	
23.420	0.809	0.718	
23.425	1.014	0.768	
23.430	1.130	0.834	
23.435	0.992	0.910	
23.440	1.098	0.973	
23.445	1.242	1.029	
23.450	1.085	1.082	
23.455	0.924	1.108	
23.460	0.922	1.095	
23.465	0.726	1.047	
23.470	0.387	0.958	
23.475	0.328	0.822	
23.480	0.210	0.661	
23.485	-0.056	0.492	
23.490	-0.153	0.315	
23.495	-0.131	0.147	
23.500	-0.227	0.008	
23.505	-0.297	-0.103	
23.510	-0.229	-0.187	
23.515	-0.279	-0.241	
23.520	-0.358	-0.276	
23.525	-0.277	-0.301	
23.530	-0.235	-0.311	
23.535	-0.308	-0.307	
23.540	-0.291	-0.301	
23.545	-0.233	-0.295	
23.550	-0.265	-0.284	
23.555	-0.277	-0.275	
23.560	-0.182	-0.265	
23.565	-0.185	-0.250	
23.570	-0.220	-0.232	
23.575	-0.139	-0.215	
23.580	-0.143	-0.197	
23.585	-0.186	-0.180	
23.590	-0.139	-0.168	
23.595	-0.056	-0.156	
23.600	-0.156	-0.140	
23.605	-0.221	-0.133	
23.610	-0.101	-0.137	
23.615	-0.082	-0.138	
23.620	-0.127	-0.130	
23.625	0.009	-0.118	
23.630	0.038	-0.093	
23.635	-0.024	-0.061	
23.640	0.049	-0.032	
23.645	0.155	-0.002	
23.650	0.040	0.032	
23.655	-0.032	0.052	
23.660	0.136	0.058	
23.665	0.119	0.066	
23.670	0.497	0.098	
23.675	1.526	0.218	
23.680	2.406	0.511	
23.685	2.819	0.983	
23.690	2.944	1.541	
23.695	2.936	2.068	
23.700	2.808	2.482	
23.705	2.503	2.737	
23.710	2.398	2.829	
23.715	2.216	2.791	
23.720	1.849	2.658	
23.725	1.619	2.449	
23.730	1.558	2.201	
23.735	1.367	1.955	
23.740	1.361	1.734	
23.745	1.626	1.569	
23.750	1.662	1.488	
23.755	1.474	1.470	
23.760	1.096	1.453	
23.765	0.229	1.356	
23.770	-0.433	1.110	
23.775	-0.694	0.723	
23.780	-0.683	0.283	
23.785	-0.625	-0.109	
23.790	-0.492	-0.394	
23.795	-0.267	-0.548	
23.800	-0.168	-0.577	
23.805	-0.180	-0.522	
23.810	-0.079	-0.426	
23.815	0.008	-0.316	
23.820	0.021	-0.205	
23.825	0.101	-0.106	
23.830	0.290	-0.014	
23.835	0.248	0.077	
23.840	0.130	0.149	
23.845	0.194	0.190	
23.850	0.183	0.207	
23.855	0.091	0.207	
23.860	0.155	0.193	
23.865	0.276	0.182	
23.870	0.221	0.186	
23.875	0.259	0.198	
23.880	0.444	0.222	
23.885	0.453	0.267	
23.890	0.381	0.320	
23.895	0.500	0.365	
23.900	0.517	0.408	
23.905	0.332	0.440	
23.910	0.250	0.440	
23.915	0.235	0.409	
23.920	-0.018	0.350	
23.925	-0.114	0.260	
23.930	-0.159	0.149	
23.935	-0.294	0.034	
23.940	-0.457	-0.085	
23.945	-0.485	-0.206	
23.950	-0.546	-0.318	
23.955	-0.660	-0.418	
23.960	-0.683	-0.508	
23.965	-0.685	-0.583	
23.970	-0.741	-0.641	
23.975	-0.752	-0.686	
23.980	-0.695	-0.717	
23.985	-0.718	-0.732	
23.990	-0.733	-0.737	
23.995	-0.637	-0.733	
24.000	-0.601	-0.716	
24.005	-0.654	-0.691	
24.010	-0.601	-0.667	
24.015	-0.534	-0.642	
24.020	-0.567	-0.614	
24.025	-0.535	-0.589	
24.030	-0.477	-0.566	
24.035	-0.473	-0.540	
24.040	-0.523	-0.518	
24.045	-0.462	-0.502	
24.050	-0.447	-0.490	
24.055	-0.473	-0.477	
24.060	-0.430	-0.467	
24.065	-0.390	-0.456	
24.070	-0.383	-0.439	
24.075	-0.369	-0.420	
24.080	-0.297	-0.399	
24.085	-0.322	-0.374	
24.090	-0.355	-0.353	
24.095	-0.276	-0.337	
24.100	-0.253	-0.321	
24.105	-0.317	-0.305	
24.110	-0.299	-0.295	
24.115	-0.246	-0.289	
24.120	-0.291	-0.283	
24.125	-0.302	-0.280	
24.130	-0.221	-0.278	
24.135	-0.244	-0.272	
24.140	-0.274	-0.264	
24.145	-0.259	-0.260	
24.150	-0.287	-0.259	
24.155	-0.378	-0.267	
24.160	-0.357	-0.287	
24.165	-0.311	-0.308	
24.170	-0.363	-0.323	
24.175	-0.352	-0.335	
24.180	-0.290	-0.342	
24.185	-0.308	-0.339	
24.190	-0.288	-0.331	
24.195	-0.119	-0.311	
24.200	0.175	-0.261	
24.205	0.402	-0.159	
24.210	0.637	-0.004	
24.215	0.505	0.173	
24.220	-0.191	0.295	
24.225	-0.660	0.276	
24.230	-0.967	0.102	
24.235	-0.993	-0.168	
24.240	-0.994	-0.452	
24.245	-0.994	-0.692	
24.250	-0.991	-0.865	
24.255	-0.907	-0.970	
24.260	-0.773	-1.008	
24.265	-0.675	-0.984	
24.270	-0.640	-0.919	
24.275	-0.524	-0.832	
24.280	-0.416	-0.732	
24.285	-0.416	-0.630	
24.290	-0.377	-0.539	
24.295	-0.250	-0.460	
24.300	-0.215	-0.386	
24.305	-0.185	-0.319	
24.310	-0.011	-0.254	
24.315	0.114	-0.180	
24.320	0.082	-0.096	
24.325	0.276	-0.012	
24.330	0.505	0.084	
24.335	0.526	0.200	
24.340	0.698	0.324	
24.345	0.973	0.458	
24.350	1.053	0.611	
24.355	1.052	0.763	
24.360	1.168	0.897	
24.365	1.143	1.006	
24.370	0.918	1.076	
24.375	0.895	1.090	
24.380	0.707	1.054	
24.385	0.354	0.964	
24.390	0.245	0.819	
24.395	0.207	0.645	
24.400	-0.056	0.468	
24.405	-0.169	0.291	
24.410	-0.125	0.127	
24.415	-0.183	-0.006	
24.420	-0.281	-0.105	
24.425	-0.239	-0.180	
24.430	-0.232	-0.229	
24.435	-0.279	-0.257	
24.440	-0.233	-0.270	
24.445	-0.137	-0.267	
24.450	-0.238	-0.251	
24.455	-0.253	-0.237	
24.460	-0.122	-0.226	
24.465	-0.127	-0.208	
24.470	-0.183	-0.186	
24.475	-0.089	-0.168	
24.480	-0.035	-0.146	
24.485	-0.116	-0.121	
24.490	-0.073	-0.102	
24.495	0.076	-0.083	
24.500	-0.040	-0.056	
24.505	-0.096	-0.037	
24.510	0.075	-0.028	
24.515	0.081	-0.012	
24.520	-0.029	0.007	
24.525	0.096	0.021	
24.530	0.197	0.040	
24.535	0.017	0.066	
24.540	0.081	0.081	
24.545	0.259	0.093	
24.550	0.227	0.120	
24.555	0.192	0.153	
24.560	0.352	0.185	
24.565	0.334	0.224	
24.570	0.241	0.260	
24.575	0.416	0.286	
24.580	0.494	0.319	
24.585	0.337	0.356	
24.590	0.366	0.380	
24.595	0.483	0.393	
24.600	0.291	0.402	
24.605	0.180	0.389	
24.610	0.291	0.355	
24.615	0.161	0.315	
24.620	-0.041	0.264	
24.625	0.101	0.198	
24.630	0.238	0.148	
24.635	0.111	0.127	
24.640	0.198	0.124	
24.645	0.508	0.147	
24.650	0.674	0.218	
24.655	0.916	0.340	
24.660	1.279	0.512	
24.665	1.232	0.720	
24.670	0.669	0.892	
24.675	0.000	0.931	
24.680	-0.381	0.792	
24.685	-0.619	0.513	
24.690	-0.604	0.179	
24.695	-0.380	-0.120	
24.700	-0.242	-0.319	
24.705	-0.114	-0.403	
24.710	0.297	-0.378	
24.715	0.463	-0.253	
24.720	0.418	-0.069	
24.725	0.605	0.123	
24.730	0.681	0.300	
24.735	0.541	0.448	
24.740	0.611	0.548	
24.745	0.761	0.612	
24.750	0.617	0.658	
24.755	0.578	0.677	
24.760	0.803	0.681	
24.765	0.774	0.694	
24.770	0.695	0.712	
24.775	0.887	0.731	
24.780	0.936	0.762	
24.785	0.864	0.804	
24.790	1.020	0.846	
24.795	1.281	0.904	
24.800	1.215	0.987	
24.805	1.230	1.073	
24.810	1.448	1.154	
24.815	1.419	1.237	
24.820	1.198	1.302	
24.825	1.238	1.327	
24.830	1.163	1.318	
24.835	0.762	1.270	
24.840	0.555	1.161	
24.845	0.485	1.002	
24.850	0.151	0.816	
24.855	-0.060	0.608	
24.860	-0.012	0.394	
24.865	-0.104	0.208	
24.870	-0.224	0.057	
24.875	-0.198	-0.062	
24.880	-0.204	-0.147	
24.885	-0.305	-0.204	
24.890	-0.335	-0.247	
24.895	-0.268	-0.280	
24.900	-0.311	-0.300	
24.905	-0.287	-0.308	
24.910	0.163	-0.289	
24.915	0.902	-0.182	
24.920	1.453	0.061	
24.925	1.896	0.433	
24.930	2.180	0.878	
24.935	2.099	1.321	
24.940	1.979	1.680	
24.945	1.974	1.917	
24.950	1.840	2.039	
24.955	1.642	2.058	
24.960	1.559	1.997	
24.965	1.357	1.880	
24.970	1.059	1.722	
24.975	0.944	1.530	
24.980	0.934	1.333	
24.985	0.762	1.154	
24.990	0.587	0.994	
24.995	0.565	0.847	
25.000	0.389	0.716	
25.005	0.149	0.588	
25.010	0.131	0.454	
25.015	0.081	0.328	
25.020	-0.049	0.216	
25.025	-0.043	0.118	
25.030	-0.009	0.042	
25.035	-0.084	-0.010	
25.040	-0.169	-0.050	
25.045	-0.143	-0.086	
25.050	-0.233	-0.120	
25.055	-0.340	-0.158	
25.060	-0.345	-0.206	
25.065	-0.358	-0.255	
25.070	-0.415	-0.301	
25.075	-0.427	-0.342	
25.080	-0.364	-0.375	
25.085	-0.406	-0.393	
25.090	-0.418	-0.404	
25.095	-0.290	-0.405	
25.100	-0.131	-0.383	
25.105	0.014	-0.326	
25.110	0.328	-0.228	
25.115	0.355	-0.090	
25.120	-0.130	0.036	
25.125	-0.581	0.069	
25.130	-0.903	-0.029	
25.135	-0.994	-0.227	
25.140	-0.993	-0.462	
25.145	-0.826	-0.668	
25.150	-0.616	-0.796	
25.155	-0.450	-0.828	
25.160	-0.247	-0.772	
25.165	-0.116	-0.651	
25.170	-0.111	-0.499	
25.175	-0.009	-0.348	
25.180	0.242	-0.204	
25.185	0.293	-0.060	
25.190	0.282	0.073	
25.195	0.430	0.184	
25.200	0.386	0.275	
25.205	0.308	0.339	
25.210	0.399	0.372	
25.215	0.448	0.392	
25.220	0.291	0.402	
25.225	0.404	0.399	
25.230	0.556	0.401	
25.235	0.556	0.423	
25.240	0.611	0.461	
25.245	0.809	0.514	
25.250	0.901	0.590	
25.255	0.825	0.677	
25.260	0.863	0.752	
25.265	0.825	0.806	
25.270	0.654	0.830	
25.275	0.558	0.813	
25.280	0.498	0.759	
25.285	0.190	0.673	
25.290	-0.063	0.544	
25.295	-0.130	0.377	
25.300	-0.255	0.199	
25.305	-0.407	0.027	
25.310	-0.428	-0.132	
25.315	-0.462	-0.266	
25.320	-0.575	-0.371	
25.325	-0.625	-0.458	
25.330	-0.555	-0.526	
25.335	-0.587	-0.569	
25.340	-0.628	-0.594	
25.345	-0.585	-0.609	
25.350	-0.567	-0.613	
25.355	-0.581	-0.608	
25.360	-0.520	-0.597	
25.365	-0.486	-0.579	
25.370	-0.523	-0.556	
25.375	-0.503	-0.536	
25.380	-0.441	-0.518	
25.385	-0.445	-0.498	
25.390	-0.456	-0.479	
25.395	-0.441	-0.464	
25.400	-0.464	-0.454	
25.405	-0.494	-0.451	
25.410	-0.428	-0.453	
25.415	-0.416	-0.452	
25.420	-0.425	-0.446	
25.425	-0.387	-0.437	
25.430	-0.319	-0.422	
25.435	-0.348	-0.400	
25.440	-0.361	-0.379	
25.445	-0.310	-0.362	
25.450	-0.320	-0.347	
25.455	-0.358	-0.336	
25.460	-0.329	-0.332	
25.465	-0.349	-0.331	
25.470	-0.450	-0.338	
25.475	-0.585	-0.364	
25.480	-0.721	-0.417	
25.485	-0.871	-0.500	
25.490	-0.915	-0.605	
25.495	-0.852	-0.708	
25.500	-0.875	-0.790	
25.505	-0.896	-0.845	
25.510	-0.822	-0.878	
25.515	-0.808	-0.886	
25.520	-0.820	-0.877	
25.525	-0.717	-0.857	
25.530	-0.602	-0.820	
25.535	-0.604	-0.768	
25.540	-0.541	-0.708	
25.545	-0.418	-0.646	
25.550	-0.334	-0.575	
25.555	-0.163	-0.491	
25.560	0.352	-0.374	
25.565	0.675	-0.191	
25.570	0.567	0.039	
25.575	0.197	0.237	
25.580	-0.357	0.319	
25.585	-0.810	0.239	
25.590	-0.947	0.021	
25.595	-0.880	-0.256	
25.600	-0.774	-0.505	
25.605	-0.563	-0.672	
25.610	-0.265	-0.731	
25.615	-0.140	-0.681	
25.620	-0.084	-0.560	
25.625	0.241	-0.401	
25.630	0.410	-0.211	
25.635	0.312	-0.015	
25.640	0.437	0.152	
25.645	0.625	0.289	
25.650	0.523	0.406	
25.655	0.523	0.489	
25.660	0.751	0.547	
25.665	0.762	0.603	
25.670	0.687	0.656	
25.675	0.820	0.698	
25.680	0.957	0.741	
25.685	0.893	0.793	
25.690	1.055	0.847	
25.695	1.349	0.918	
25.700	1.355	1.020	
25.705	1.433	1.135	
25.710	1.662	1.253	
25.715	1.619	1.374	
25.720	1.444	1.473	
25.725	1.511	1.527	
25.730	1.433	1.544	
25.735	1.090	1.520	
25.740	0.957	1.438	
25.745	0.881	1.312	
25.750	0.498	1.156	
25.755	0.192	0.962	
25.760	0.279	0.742	
25.765	0.099	0.536	
25.770	-0.108	0.353	
25.775	-0.082	0.189	
25.780	-0.090	0.056	
25.785	-0.210	-0.041	
25.790	-0.183	-0.113	
25.795	-0.117	-0.160	
25.800	-0.209	-0.182	
25.805	-0.230	-0.195	
25.810	-0.119	-0.202	
25.815	-0.133	-0.195	
25.820	-0.192	-0.183	
25.825	-0.093	-0.171	
25.830	-0.064	-0.154	
25.835	-0.163	-0.135	
25.840	-0.085	-0.123	
25.845	0.035	-0.108	
25.850	-0.089	-0.085	
25.855	-0.096	-0.070	
25.860	0.044	-0.060	
25.865	-0.014	-0.045	
25.870	-0.107	-0.034	
25.875	0.011	-0.032	
25.880	0.081	-0.025	
25.885	-0.015	-0.010	
25.890	0.055	0.004	
25.895	0.233	0.025	
25.900	0.113	0.060	
25.905	0.082	0.091	
25.910	0.273	0.115	
25.915	0.230	0.145	
25.920	0.084	0.171	
25.925	0.305	0.184	
25.930	0.437	0.209	
25.935	0.288	0.250	
25.940	0.323	0.286	
25.945	0.453	0.315	
25.950	0.261	0.340	
25.955	0.067	0.337	
25.960	0.189	0.301	
25.965	0.107	0.253	
25.970	-0.035	0.199	
25.975	0.108	0.143	
25.980	0.161	0.105	
25.985	0.011	0.087	
25.990	0.105	0.075	
25.995	0.296	0.080	
26.000	0.323	0.114	
26.005	0.489	0.176	
26.010	0.919	0.276	
26.015	0.998	0.428	
26.020	0.719	0.592	
26.025	0.322	0.690	
26.030	-0.268	0.662	
26.035	-0.681	0.484	
26.040	-0.781	0.196	
26.045	-0.674	-0.116	
26.050	-0.538	-0.371	
26.055	-0.357	-0.525	
26.060	-0.061	-0.565	
26.065	0.088	-0.498	
26.070	0.090	-0.364	
26.075	0.346	-0.202	
26.080	0.480	-0.027	
26.085	0.280	0.137	
26.090	0.344	0.256	
26.095	0.535	0.337	
26.100	0.376	0.397	
26.105	0.378	0.430	
26.110	0.593	0.447	
26.115	0.509	0.468	
26.120	0.314	0.481	
26.125	0.602	0.479	
26.130	0.788	0.496	
26.135	0.668	0.544	
26.140	0.785	0.601	
26.145	1.073	0.671	
26.150	0.918	0.760	
26.155	0.995	0.843	
26.160	1.259	0.920	
26.165	1.233	1.008	
26.170	1.056	1.085	
26.175	1.105	1.129	
26.180	1.018	1.139	
26.185	0.675	1.110	
26.190	0.529	1.025	
26.195	0.501	0.897	
26.200	0.178	0.747	
26.205	-0.053	0.573	
26.210	-0.043	0.383	
26.215	-0.116	0.207	
26.220	-0.247	0.058	
26.225	-0.230	-0.065	
26.230	-0.227	-0.156	
26.235	-0.328	-0.219	
26.240	-0.337	-0.266	
26.245	-0.256	-0.298	
26.250	-0.294	-0.311	
26.255	-0.346	-0.316	
26.260	-0.276	-0.318	
26.265	-0.261	-0.313	
26.270	-0.285	-0.304	
26.275	-0.224	-0.291	
26.280	-0.063	-0.268	
26.285	0.887	-0.183	
26.290	2.049	0.067	
26.295	2.867	0.539	
26.300	3.111	1.175	
26.305	3.096	1.833	
26.310	3.011	2.386	
26.315	2.774	2.767	
26.320	2.419	2.950	
26.325	2.123	2.945	
26.330	1.893	2.794	
26.335	1.559	2.548	
26.340	1.386	2.253	
26.345	1.288	1.951	
26.350	1.008	1.672	
26.355	0.761	1.413	
26.360	0.738	1.176	
26.365	0.599	0.973	
26.370	0.323	0.798	
26.375	0.247	0.634	
26.380	0.204	0.483	
26.385	0.040	0.352	
26.390	-0.055	0.233	
26.395	-0.108	0.123	
26.400	-0.162	0.026	
26.405	-0.262	-0.058	
26.410	-0.282	-0.133	
26.415	-0.310	-0.198	
26.420	-0.386	-0.253	
26.425	-0.381	-0.301	
26.430	-0.366	-0.339	
26.435	-0.422	-0.365	
26.440	-0.425	-0.387	
26.445	-0.296	-0.398	
26.450	-0.191	-0.386	
26.455	-0.032	-0.342	
26.460	0.372	-0.251	
26.465	0.466	-0.106	
26.470	0.125	0.051	
26.475	-0.305	0.138	
26.480	-0.735	0.099	
26.485	-0.991	-0.066	
26.490	-0.993	-0.306	
26.495	-0.994	-0.551	
26.500	-0.866	-0.747	
26.505	-0.692	-0.863	
26.510	-0.479	-0.887	
26.515	-0.357	-0.828	
26.520	-0.337	-0.716	
26.525	-0.258	-0.589	
26.530	-0.151	-0.464	
26.535	-0.114	-0.348	
26.540	-0.061	-0.247	
26.545	0.040	-0.161	
26.550	0.004	-0.088	
26.555	-0.064	-0.036	
26.560	0.044	-0.008	
26.565	0.119	0.014	
26.570	0.055	0.038	
26.575	0.111	0.058	
26.580	0.125	0.076	
26.585	-0.031	0.086	
26.590	-0.104	0.073	
26.595	-0.108	0.037	
26.600	-0.186	-0.010	
26.605	-0.329	-0.069	
26.610	-0.497	-0.148	
26.615	-0.689	-0.252	
26.620	-0.867	-0.383	
26.625	-0.893	-0.530	
26.630	-0.909	-0.669	
26.635	-0.957	-0.783	
26.640	-0.945	-0.868	
26.645	-0.892	-0.923	
26.650	-0.989	-0.951	
26.655	-0.994	-0.967	
26.660	-0.942	-0.978	
26.665	-0.953	-0.979	
26.670	-0.993	-0.976	
26.675	-0.918	-0.973	
26.680	-0.845	-0.961	
26.685	-0.867	-0.938	
26.690	-0.810	-0.910	
26.695	-0.681	-0.874	
26.700	-0.657	-0.826	
26.705	-0.657	-0.772	
26.710	-0.546	-0.719	
26.715	-0.515	-0.665	
26.720	-0.544	-0.614	
26.725	-0.445	-0.569	
26.730	-0.357	-0.525	
26.735	-0.370	-0.477	
26.740	-0.323	-0.431	
26.745	-0.218	-0.386	
26.750	-0.277	-0.340	
26.755	-0.267	-0.303	
26.760	-0.111	-0.271	
26.765	-0.146	-0.235	
26.770	-0.178	-0.201	
26.775	-0.047	-0.172	
26.780	0.047	-0.137	
26.785	-0.043	-0.094	
26.790	0.067	-0.054	
26.795	0.265	-0.008	
26.800	0.169	0.051	
26.805	0.181	0.107	
26.810	0.402	0.158	
26.815	0.366	0.216	
26.820	0.247	0.269	
26.825	0.442	0.305	
26.830	0.529	0.343	
26.835	0.319	0.382	
26.840	0.308	0.399	
26.845	0.488	0.399	
26.850	0.340	0.401	
26.855	0.232	0.392	
26.860	0.375	0.370	
26.865	0.276	0.348	
26.870	0.171	0.324	
26.875	0.380	0.299	
26.880	0.451	0.295	
26.885	0.270	0.310	
26.890	0.338	0.321	
26.895	0.605	0.339	
26.900	0.727	0.391	
26.905	0.976	0.484	
26.910	1.404	0.629	
26.915	1.346	0.820	
26.920	0.863	0.992	
26.925	0.189	1.044	
26.930	-0.355	0.918	
26.935	-0.637	0.633	
26.940	-0.642	0.271	
26.945	-0.460	-0.067	
26.950	-0.329	-0.308	
26.955	-0.157	-0.428	
26.960	0.256	-0.427	
26.965	0.425	-0.311	
26.970	0.393	-0.128	
26.975	0.623	0.071	
26.980	0.706	0.264	
26.985	0.523	0.428	
26.990	0.617	0.539	
26.995	0.838	0.614	
27.000	0.727	0.677	
27.005	0.691	0.720	
27.010	0.887	0.747	
27.015	0.848	0.775	
27.020	0.724	0.799	
27.025	0.904	0.810	
27.030	1.050	0.832	
27.035	0.918	0.870	
27.040	1.062	0.910	
27.045	1.323	0.963	
27.050	1.264	1.041	
27.055	1.230	1.122	
27.060	1.386	1.190	
27.065	1.261	1.247	
27.070	1.043	1.273	
27.075	1.108	1.256	
27.080	1.005	1.213	
27.085	0.623	1.141	
27.090	0.498	1.021	
27.095	0.418	0.868	
27.100	0.110	0.699	
27.105	-0.050	0.514	
27.110	0.001	0.329	
27.115	-0.110	0.170	
27.120	-0.261	0.038	
27.125	-0.195	-0.072	
27.130	-0.183	-0.151	
27.135	-0.296	-0.202	
27.140	-0.264	-0.237	
27.145	-0.198	-0.258	
27.150	-0.282	-0.264	
27.155	-0.302	-0.268	
27.160	-0.195	-0.270	
27.165	-0.221	-0.263	
27.170	-0.285	-0.254	
27.175	-0.178	-0.247	
27.180	-0.131	-0.234	
27.185	-0.236	-0.216	
27.190	-0.220	-0.205	
27.195	-0.090	-0.197	
27.200	-0.171	-0.183	
27.205	-0.191	-0.171	
27.210	-0.084	-0.163	
27.215	-0.104	-0.150	
27.220	-0.154	-0.137	
27.225	-0.037	-0.126	
27.230	0.046	-0.105	
27.235	-0.055	-0.076	
27.240	0.020	-0.050	
27.245	0.195	-0.019	
27.250	0.082	0.022	
27.255	0.058	0.058	
27.260	0.250	0.085	
27.265	0.125	0.114	
27.270	0.029	0.132	
27.275	0.190	0.134	
27.280	0.282	0.142	
27.285	0.099	0.159	
27.290	0.102	0.165	
27.295	0.158	0.159	
27.300	-0.050	0.143	
27.305	-0.101	0.107	
27.310	0.021	0.059	
27.315	-0.009	0.022	
27.320	-0.104	-0.006	
27.325	-0.020	-0.029	
27.330	0.024	-0.041	
27.335	-0.089	-0.041	
27.340	0.125	-0.036	
27.345	0.578	0.008	
27.350	0.620	0.116	
27.355	0.651	0.261	
27.360	0.726	0.407	
27.365	0.087	0.504	
27.370	-0.468	0.479	
27.375	-0.695	0.307	
27.380	-0.743	0.046	
27.385	-0.727	-0.225	
27.390	-0.508	-0.442	
27.395	-0.230	-0.558	
27.400	-0.154	-0.564	
27.405	-0.060	-0.490	
27.410	0.204	-0.367	
27.415	0.171	-0.214	
27.420	0.072	-0.071	
27.425	0.250	0.038	
27.430	0.315	0.126	
27.435	0.177	0.195	
27.440	0.261	0.235	
27.445	0.376	0.262	
27.450	0.241	0.284	
27.455	0.247	0.294	
27.460	0.447	0.299	
27.465	0.454	0.320	
27.470	0.393	0.352	
27.475	0.625	0.388	
27.480	0.742	0.445	
27.485	0.674	0.519	
27.490	0.835	0.595	
27.495	1.049	0.679	
27.500	0.905	0.772	
27.505	0.895	0.848	
27.510	1.108	0.905	
27.515	0.954	0.953	
27.520	0.657	0.971	
27.525	0.683	0.936	
27.530	0.553	0.865	
27.535	0.145	0.760	
27.540	0.024	0.608	
27.545	0.032	0.431	
27.550	-0.213	0.259	
27.555	-0.265	0.096	
27.560	-0.215	-0.046	
27.565	-0.313	-0.154	
27.570	-0.381	-0.235	
27.575	-0.310	-0.295	
27.580	-0.294	-0.330	
27.585	-0.396	-0.346	
27.590	-0.351	-0.356	
27.595	-0.265	-0.359	
27.600	-0.334	-0.350	
27.605	-0.340	-0.339	
27.610	-0.224	-0.329	
27.615	-0.226	-0.310	
27.620	-0.244	-0.286	
27.625	-0.139	-0.260	
27.630	-0.120	-0.230	
27.635	-0.210	-0.199	
27.640	-0.162	-0.180	
27.645	-0.060	-0.165	
27.650	-0.140	-0.146	
27.655	-0.159	-0.133	
27.660	-0.043	-0.125	
27.665	-0.056	-0.112	
27.670	-0.114	-0.097	
27.675	0.001	-0.085	
27.680	0.072	-0.065	
27.685	-0.066	-0.040	
27.690	-0.031	-0.024	
27.695	0.067	-0.015	
27.700	-0.009	-0.003	
27.705	-0.032	0.004	
27.710	0.143	0.010	
27.715	0.097	0.027	
27.720	-0.049	0.044	
27.725	0.024	0.045	
27.730	0.059	0.040	
27.735	-0.127	0.031	
27.740	-0.134	0.006	
27.745	-0.055	-0.029	
27.750	-0.174	-0.059	
27.755	-0.209	-0.092	
27.760	-0.105	-0.123	
27.765	-0.139	-0.141	
27.770	-0.223	-0.152	
27.775	-0.130	-0.162	
27.780	0.314	-0.145	
27.785	1.582	-0.014	
27.790	2.962	0.350	
27.795	3.111	0.955	
27.800	3.105	1.643	
27.805	3.108	2.251	
27.810	2.939	2.701	
27.815	1.817	2.922	
27.820	1.030	2.842	
27.825	0.866	2.497	
27.830	0.997	2.040	
27.835	1.069	1.620	
27.840	1.192	1.314	
27.845	1.319	1.141	
27.850	1.180	1.077	
27.855	1.154	1.069	
27.860	1.479	1.097	
27.865	1.753	1.179	
27.870	1.787	1.314	
27.875	1.852	1.469	
27.880	1.808	1.611	
27.885	1.549	1.707	
27.890	1.390	1.730	
27.895	1.317	1.682	
27.900	1.093	1.585	
27.905	0.855	1.445	
27.910	0.814	1.277	
27.915	0.762	1.108	
27.920	0.642	0.958	
27.925	0.672	0.833	
27.930	0.672	0.740	
27.935	0.474	0.673	
27.940	0.422	0.610	
27.945	0.328	0.542	
27.950	0.021	0.460	
27.955	-0.169	0.343	
27.960	-0.259	0.196	
27.965	-0.415	0.037	
27.970	-0.544	-0.124	
27.975	-0.598	-0.277	
27.980	-0.686	-0.413	
27.985	-0.857	-0.534	
27.990	-0.964	-0.650	
27.995	-0.993	-0.762	
28.000	-0.994	-0.858	
28.005	-0.994	-0.930	
28.010	-0.994	-0.977	
28.015	-0.994	-1.004	
28.020	-0.994	-1.015	
28.025	-0.994	-1.017	
28.030	-0.996	-1.013	
28.035	-0.996	-1.008	
28.040	-0.996	-1.004	
28.045	-0.994	-1.000	
28.050	-0.994	-0.997	
28.055	-0.996	-0.995	
28.060	-0.996	-0.994	
28.065	-0.994	-0.994	
28.070	-0.994	-0.994	
28.075	-0.994	-0.994	
28.080	-0.994	-0.994	
28.085	-0.993	-0.994	
28.090	-0.989	-0.994	
28.095	-0.845	-0.986	
28.100	-0.819	-0.962	
28.105	-0.759	-0.922	
28.110	-0.602	-0.868	
28.115	-0.546	-0.797	
28.120	-0.572	-0.719	
28.125	-0.435	-0.647	
28.130	-0.351	-0.574	
28.135	-0.363	-0.502	
28.140	-0.320	-0.438	
28.145	-0.191	-0.381	
28.150	-0.203	-0.324	
28.155	-0.197	-0.273	
28.160	-0.082	-0.229	
28.165	-0.082	-0.185	
28.170	-0.145	-0.148	
28.175	-0.056	-0.122	
28.180	-0.047	-0.101	
28.185	-0.186	-0.087	
28.190	-0.165	-0.092	
28.195	-0.087	-0.105	
28.200	-0.136	-0.113	
28.205	-0.137	-0.120	
28.210	0.024	-0.119	
28.215	-0.055	-0.103	
28.220	-0.084	-0.084	
28.225	0.297	-0.056	
28.230	0.636	0.021	
28.235	0.825	0.166	
28.240	1.194	0.367	
28.245	1.331	0.607	
28.250	0.627	0.820	
28.255	-0.217	0.883	
28.260	-0.500	0.737	
28.265	-0.709	0.440	
28.270	-0.762	0.089	
28.275	-0.518	-0.227	
28.280	-0.270	-0.436	
28.285	-0.165	-0.514	
28.290	0.081	-0.482	
28.295	0.412	-0.359	
28.300	0.364	-0.173	
28.305	0.401	0.021	
28.310	0.726	0.200	
28.315	0.657	0.367	
28.320	0.521	0.499	
28.325	0.718	0.584	
28.330	0.747	0.642	
28.335	0.517	0.679	
28.340	0.602	0.681	
28.345	0.758	0.671	
28.350	0.585	0.667	
28.355	0.559	0.656	
28.360	0.815	0.647	
28.365	0.771	0.659	
28.370	0.675	0.683	
28.375	1.017	0.714	
28.380	1.157	0.776	
28.385	1.000	0.863	
28.390	1.177	0.946	
28.395	1.253	1.025	
28.400	1.005	1.091	
28.405	0.901	1.114	
28.410	0.950	1.093	
28.415	0.709	1.043	
28.420	0.378	0.953	
28.425	0.433	0.820	
28.430	0.311	0.675	
28.435	-0.029	0.527	
28.440	-0.060	0.365	
28.445	-0.006	0.211	
28.450	-0.133	0.087	
28.455	-0.154	-0.009	
28.460	0.001	-0.076	
28.465	-0.055	-0.104	
28.470	-0.163	-0.111	
28.475	-0.031	-0.113	
28.480	0.070	-0.100	
28.485	-0.079	-0.074	
28.490	-0.002	-0.052	
28.495	0.157	-0.028	
28.500	-0.006	0.003	
28.505	-0.024	0.023	
28.510	0.235	0.037	
28.515	0.192	0.067	
28.520	0.044	0.099	
28.525	0.244	0.121	
28.530	0.274	0.147	
28.535	0.040	0.171	
28.540	0.140	0.174	
28.545	0.328	0.173	
28.550	0.151	0.184	
28.555	0.104	0.190	
28.560	0.320	0.189	
28.565	0.265	0.200	
28.570	0.142	0.214	
28.575	0.285	0.220	
28.580	0.291	0.229	
28.585	0.073	0.234	
28.590	0.184	0.222	
28.595	0.402	0.214	
28.600	0.245	0.228	
28.605	0.203	0.243	
28.610	0.465	0.257	
28.615	0.337	0.284	
28.620	0.084	0.302	
28.625	0.203	0.287	
28.630	0.197	0.259	
28.635	-0.053	0.222	
28.640	-0.014	0.166	
28.645	0.136	0.111	
28.650	-0.029	0.074	
28.655	-0.023	0.044	
28.660	0.285	0.031	
28.665	0.337	0.060	
28.670	0.351	0.123	
28.675	0.773	0.215	
28.680	0.994	0.354	
28.685	0.762	0.520	
28.690	0.488	0.644	
28.695	-0.082	0.662	
28.700	-0.566	0.538	
28.705	-0.765	0.286	
28.710	-0.648	-0.017	
28.715	-0.589	-0.285	
28.720	-0.483	-0.471	
28.725	-0.137	-0.553	
28.730	0.148	-0.520	
28.735	0.088	-0.396	
28.740	0.251	-0.236	
28.745	0.543	-0.061	
28.750	0.363	0.115	
28.755	0.273	0.251	
28.760	0.550	0.339	
28.765	0.454	0.404	
28.770	0.259	0.441	
28.775	0.463	0.444	
28.780	0.485	0.440	
28.785	0.351	0.440	
28.790	0.501	0.436	
28.795	0.687	0.448	
28.800	0.544	0.483	
28.805	0.596	0.520	
28.810	0.962	0.567	
28.815	0.959	0.646	
28.820	0.806	0.736	
28.825	1.041	0.811	
28.830	1.078	0.881	
28.835	0.814	0.938	
28.840	0.799	0.955	
28.845	0.869	0.938	
28.850	0.549	0.899	
28.855	0.343	0.820	
28.860	0.442	0.708	
28.865	0.131	0.584	
28.870	-0.127	0.443	
28.875	-0.101	0.281	
28.880	-0.160	0.127	
28.885	-0.306	-0.006	
28.890	-0.290	-0.119	
28.895	-0.223	-0.204	
28.900	-0.355	-0.258	
28.905	-0.412	-0.299	
28.910	-0.268	-0.331	
28.915	-0.320	-0.344	
28.920	-0.392	-0.347	
28.925	-0.264	-0.348	
28.930	-0.233	-0.337	
28.935	-0.323	-0.318	
28.940	-0.287	-0.304	
28.945	-0.230	-0.293	
28.950	-0.282	-0.281	
28.955	-0.284	-0.273	
