Vernier Format 2
ecg5.txt 10/18/2025 10:2:30
Run 1
Time	Potential	EKG	
T	P	E	
s	mV	mV	

0.000	-0.983	-0.045	
0.005	-0.993	-0.196	
0.010	1.899	-0.283	
0.015	-0.899	-0.186	
0.020	-0.995	-0.145	
0.025	0.084	-0.227	
0.030	0.146	-0.257	
0.035	-0.995	-0.253	
0.040	-0.559	-0.315	
0.045	1.958	-0.295	
0.050	-0.995	-0.121	
0.055	-0.995	-0.061	
0.060	2.207	-0.056	
0.065	-0.474	0.093	
0.070	-0.995	0.161	
0.075	1.514	0.121	
0.080	1.405	0.238	
0.085	-0.995	0.405	
0.090	-0.083	0.381	
0.095	2.864	0.378	
0.100	-0.990	0.522	
0.105	-0.948	0.493	
0.110	3.034	0.395	
0.115	0.238	0.521	
0.120	-0.993	0.603	
0.125	2.925	0.586	
0.130	2.930	0.829	
0.135	-0.990	1.155	
0.140	1.416	1.211	
0.145	3.029	1.240	
0.150	-0.477	1.348	
0.155	-0.419	1.229	
0.160	3.031	1.023	
0.165	0.800	1.030	
0.170	-0.993	1.011	
0.175	2.918	0.895	
0.180	2.635	1.018	
0.185	-0.993	1.222	
0.190	0.699	1.160	
0.195	3.037	1.073	
0.200	-0.902	1.104	
0.205	-0.853	0.933	
0.210	3.035	0.696	
0.215	-0.034	0.691	
0.220	-0.995	0.651	
0.225	2.278	0.524	
0.230	2.033	0.622	
0.235	-0.993	0.803	
0.240	0.235	0.756	
0.245	3.040	0.710	
0.250	-0.990	0.802	
0.255	-0.993	0.702	
0.260	3.016	0.525	
0.265	-0.217	0.564	
0.270	-0.995	0.552	
0.275	1.908	0.430	
0.280	1.605	0.495	
0.285	-0.995	0.626	
0.290	-0.136	0.551	
0.295	2.605	0.474	
0.300	-0.993	0.537	
0.305	-0.995	0.451	
0.310	2.375	0.298	
0.315	-0.564	0.315	
0.320	-0.995	0.277	
0.325	1.257	0.147	
0.330	1.046	0.174	
0.335	-0.995	0.264	
0.340	-0.078	0.213	
0.345	2.912	0.229	
0.350	-0.993	0.414	
0.355	-0.995	0.426	
0.360	1.700	0.293	
0.365	-0.989	0.240	
0.370	-0.995	0.110	
0.375	-0.040	-0.113	
0.380	-0.119	-0.257	
0.385	-0.996	-0.339	
0.390	-0.692	-0.446	
0.395	3.003	-0.388	
0.400	2.993	0.095	
0.405	2.993	0.868	
0.410	2.993	1.640	
0.415	2.991	2.270	
0.420	2.993	2.712	
0.425	2.993	2.982	
0.430	2.994	3.116	
0.435	2.994	3.160	
0.440	2.993	3.151	
0.445	2.991	3.117	
0.450	2.993	3.077	
0.455	2.996	3.042	
0.460	2.996	3.016	
0.465	2.993	2.999	
0.470	2.994	2.990	
0.475	2.993	2.986	
0.480	2.994	2.986	
0.485	2.996	2.987	
0.490	2.994	2.989	
0.495	2.993	2.991	
0.500	2.994	2.992	
0.505	2.996	2.993	
0.510	2.994	2.994	
0.515	2.994	2.995	
0.520	2.996	2.995	
0.525	2.994	2.995	
0.530	2.996	2.995	
0.535	2.997	2.995	
0.540	2.994	2.995	
0.545	2.994	2.995	
0.550	2.996	2.995	
0.555	2.997	2.995	
0.560	2.058	2.952	
0.565	-0.995	2.668	
0.570	-0.996	1.994	
0.575	-0.995	1.110	
0.580	-0.996	0.287	
0.585	-0.996	-0.354	
0.590	-0.996	-0.788	
0.595	-0.996	-1.040	
0.600	-0.996	-1.156	
0.605	-0.995	-1.183	
0.610	-0.996	-1.162	
0.615	-0.996	-1.121	
0.620	-0.996	-1.078	
0.625	-0.996	-1.042	
0.630	-0.996	-1.015	
0.635	-0.996	-0.999	
0.640	-0.996	-0.990	
0.645	-0.996	-0.987	
0.650	-0.996	-0.987	
0.655	-0.996	-0.989	
0.660	-0.996	-0.991	
0.665	-0.996	-0.993	
0.670	-0.996	-0.995	
0.675	-0.996	-0.996	
0.680	-0.996	-0.996	
0.685	-0.996	-0.997	
0.690	-0.996	-0.997	
0.695	-0.996	-0.997	
0.700	-0.996	-0.997	
0.705	-0.996	-0.997	
0.710	-0.996	-0.996	
0.715	-0.996	-0.996	
0.720	-0.996	-0.996	
0.725	-0.998	-0.996	
0.730	-0.996	-0.997	
0.735	-0.986	-0.996	
0.740	-0.996	-0.995	
0.745	-0.996	-0.994	
0.750	-0.996	-0.994	
0.755	-0.996	-0.995	
0.760	-0.996	-0.995	
0.765	-0.996	-0.996	
0.770	-0.993	-0.996	
0.775	-0.996	-0.996	
0.780	-0.996	-0.996	
0.785	-0.995	-0.996	
0.790	-0.996	-0.996	
0.795	-0.996	-0.996	
0.800	-0.996	-0.996	
0.805	-0.996	-0.996	
0.810	-0.996	-0.996	
0.815	-0.996	-0.996	
0.820	-0.996	-0.996	
0.825	-0.996	-0.996	
0.830	-0.996	-0.996	
0.835	-0.996	-0.996	
0.840	-0.996	-0.996	
0.845	-0.996	-0.996	
0.850	-0.996	-0.996	
0.855	-0.995	-0.996	
0.860	3.038	-0.810	
0.865	3.037	-0.194	
0.870	3.029	0.704	
0.875	2.993	1.574	
0.880	2.993	2.265	
0.885	1.560	2.673	
0.890	-0.996	2.617	
0.895	-0.996	2.040	
0.900	-0.996	1.196	
0.905	-0.995	0.377	
0.910	-0.996	-0.280	
0.915	-0.996	-0.735	
0.920	-0.996	-1.007	
0.925	-0.996	-1.139	
0.930	-0.996	-1.177	
0.935	-0.996	-1.163	
0.940	-0.996	-1.125	
0.945	-0.996	-1.083	
0.950	-0.996	-1.046	
0.955	-0.996	-1.019	
0.960	-0.996	-1.001	
0.965	-0.995	-0.992	
0.970	-0.996	-0.988	
0.975	-0.996	-0.987	
0.980	-0.996	-0.989	
0.985	-0.995	-0.991	
0.990	-0.996	-0.993	
0.995	-0.996	-0.994	
1.000	-0.995	-0.995	
1.005	-0.995	-0.996	
1.010	-0.995	-0.996	
1.015	-0.995	-0.996	
1.020	-0.995	-0.995	
1.025	-0.993	-0.995	
1.030	-0.993	-0.995	
1.035	-0.562	-0.974	
1.040	-0.552	-0.908	
1.045	-0.352	-0.801	
1.050	0.362	-0.641	
1.055	0.145	-0.421	
1.060	-0.654	-0.235	
1.065	-0.940	-0.197	
1.070	3.025	-0.119	
1.075	2.989	0.314	
1.080	2.991	1.023	
1.085	2.993	1.735	
1.090	2.991	2.317	
1.095	2.989	2.727	
1.100	2.991	2.978	
1.105	2.991	3.103	
1.110	2.993	3.144	
1.115	2.993	3.137	
1.120	2.993	3.106	
1.125	2.991	3.070	
1.130	2.991	3.038	
1.135	2.994	3.014	
1.140	2.993	2.998	
1.145	2.993	2.989	
1.150	2.991	2.985	
1.155	2.993	2.985	
1.160	2.993	2.986	
1.165	2.994	2.988	
1.170	2.996	2.990	
1.175	2.991	2.992	
1.180	2.993	2.993	
1.185	2.993	2.993	
1.190	2.994	2.993	
1.195	2.994	2.993	
1.200	2.993	2.994	
1.205	2.993	2.994	
1.210	2.994	2.993	
1.215	2.994	2.993	
1.220	2.996	2.994	
1.225	2.994	2.994	
1.230	2.993	2.994	
1.235	2.996	2.994	
1.240	2.994	2.994	
1.245	2.993	2.994	
1.250	2.994	2.994	
1.255	2.994	2.994	
1.260	2.994	2.994	
1.265	2.996	2.994	
1.270	2.996	2.994	
1.275	2.994	2.995	
1.280	2.994	2.995	
1.285	2.996	2.995	
1.290	2.996	2.995	
1.295	2.994	2.995	
1.300	2.994	2.995	
1.305	2.994	2.995	
1.310	2.996	2.995	
1.315	2.997	2.995	
1.320	2.996	2.995	
1.325	2.996	2.995	
1.330	2.996	2.996	
1.335	2.999	2.996	
1.340	2.996	2.996	
1.345	2.994	2.996	
1.350	2.996	2.996	
1.355	2.999	2.996	
1.360	2.997	2.996	
1.365	2.996	2.996	
1.370	2.997	2.997	
1.375	2.997	2.997	
1.380	2.997	2.997	
1.385	2.997	2.997	
1.390	2.996	2.997	
1.395	2.997	2.997	
1.400	2.999	2.997	
1.405	2.997	2.997	
1.410	2.996	2.997	
1.415	2.996	2.997	
1.420	3.008	2.997	
1.425	-0.995	2.814	
1.430	-0.995	2.206	
1.435	-0.995	1.316	
1.440	-0.996	0.452	
1.445	-0.996	-0.240	
1.450	-0.996	-0.720	
1.455	-0.996	-1.007	
1.460	-0.996	-1.146	
1.465	-0.996	-1.187	
1.470	-0.995	-1.172	
1.475	-0.996	-1.132	
1.480	-0.996	-1.087	
1.485	-0.996	-1.048	
1.490	-0.996	-1.020	
1.495	-0.996	-1.001	
1.500	-0.996	-0.991	
1.505	-0.995	-0.987	
1.510	-0.996	-0.987	
1.515	-0.996	-0.988	
1.520	-0.996	-0.990	
1.525	-0.996	-0.993	
1.530	-0.996	-0.994	
1.535	-0.996	-0.996	
1.540	-0.996	-0.996	
1.545	-0.996	-0.997	
1.550	-0.996	-0.997	
1.555	-0.996	-0.997	
1.560	-0.996	-0.997	
1.565	-0.996	-0.997	
1.570	-0.996	-0.996	
1.575	-0.996	-0.996	
1.580	-0.996	-0.996	
1.585	-0.996	-0.996	
1.590	-0.996	-0.996	
1.595	-0.996	-0.996	
1.600	-0.996	-0.996	
1.605	-0.996	-0.996	
1.610	-0.996	-0.996	
1.615	-0.996	-0.996	
1.620	-0.996	-0.996	
1.625	-0.996	-0.996	
1.630	-0.996	-0.996	
1.635	-0.996	-0.996	
1.640	-0.996	-0.996	
1.645	-0.996	-0.996	
1.650	-0.996	-0.996	
1.655	-0.996	-0.996	
1.660	-0.996	-0.996	
1.665	-0.996	-0.996	
1.670	-0.996	-0.996	
1.675	-0.996	-0.996	
1.680	-0.996	-0.996	
1.685	-0.996	-0.996	
1.690	-0.996	-0.996	
1.695	-0.996	-0.996	
1.700	-0.996	-0.996	
1.705	-0.996	-0.996	
1.710	-0.996	-0.996	
1.715	-0.996	-0.996	
1.720	-0.996	-0.996	
1.725	-0.996	-0.996	
1.730	-0.995	-0.996	
1.735	-0.996	-0.996	
1.740	-0.996	-0.996	
1.745	-0.995	-0.996	
1.750	-0.996	-0.996	
1.755	-0.996	-0.996	
1.760	-0.996	-0.996	
1.765	-0.996	-0.996	
1.770	-0.996	-0.996	
1.775	-0.996	-0.996	
1.780	-0.996	-0.996	
1.785	-0.996	-0.996	
1.790	-0.996	-0.996	
1.795	-0.996	-0.996	
1.800	-0.996	-0.996	
1.805	-0.996	-0.996	
1.810	-0.998	-0.996	
1.815	-0.996	-0.997	
1.820	-0.996	-0.997	
1.825	-0.996	-0.997	
1.830	-0.996	-0.997	
1.835	-0.996	-0.997	
1.840	-0.996	-0.996	
1.845	-0.996	-0.996	
1.850	-0.996	-0.996	
1.855	-0.996	-0.996	
1.860	-0.996	-0.996	
1.865	-0.996	-0.996	
1.870	-0.996	-0.996	
1.875	-0.996	-0.996	
1.880	-0.995	-0.996	
1.885	-0.993	-0.996	
1.890	-0.995	-0.995	
1.895	-0.996	-0.995	
1.900	-0.651	-0.979	
1.905	-0.709	-0.929	
1.910	-0.755	-0.864	
1.915	-0.286	-0.788	
1.920	-0.193	-0.675	
1.925	-0.517	-0.550	
1.930	-0.257	-0.455	
1.935	0.156	-0.365	
1.940	-0.291	-0.264	
1.945	-0.240	-0.197	
1.950	0.499	-0.140	
1.955	0.174	-0.043	
1.960	-0.089	0.048	
1.965	0.741	0.117	
1.970	0.849	0.233	
1.975	0.212	0.370	
1.980	0.829	0.465	
1.985	1.424	0.579	
1.990	0.777	0.733	
1.995	0.906	0.853	
2.000	1.787	0.956	
2.005	1.443	1.104	
2.010	1.139	1.241	
2.015	2.061	1.346	
2.020	2.239	1.496	
2.025	1.604	1.669	
2.030	2.151	1.796	
2.035	2.718	1.926	
2.040	2.108	2.081	
2.045	2.220	2.196	
2.050	3.038	2.289	
2.055	2.672	2.419	
2.060	2.267	2.527	
2.065	3.029	2.586	
2.070	3.037	2.663	
2.075	2.267	2.733	
2.080	2.711	2.738	
2.085	3.044	2.730	
2.090	2.562	2.747	
2.095	2.702	2.750	
2.100	3.040	2.751	
2.105	3.041	2.790	
2.110	3.041	2.855	
2.115	3.031	2.921	
2.120	3.029	2.974	
2.125	3.037	3.011	
2.130	3.038	3.034	
2.135	3.043	3.046	
2.140	1.940	3.000	
2.145	1.799	2.826	
2.150	2.728	2.601	
2.155	2.673	2.468	
2.160	2.612	2.440	
2.165	3.040	2.481	
2.170	3.038	2.584	
2.175	3.043	2.719	
2.180	3.038	2.845	
2.185	3.031	2.942	
2.190	3.038	3.007	
2.195	3.038	3.045	
2.200	3.031	3.061	
2.205	3.037	3.065	
2.210	3.040	3.061	
2.215	3.031	3.055	
2.220	3.032	3.048	
2.225	3.040	3.042	
2.230	3.034	3.038	
2.235	3.029	3.035	
2.240	3.035	3.033	
2.245	3.032	3.032	
2.250	3.028	3.032	
2.255	3.029	3.031	
2.260	3.034	3.030	
2.265	3.028	3.030	
2.270	3.029	3.030	
2.275	3.037	3.030	
2.280	3.032	3.031	
2.285	3.034	3.032	
2.290	3.040	3.033	
2.295	2.925	3.029	
2.300	3.037	3.018	
2.305	2.907	3.006	
2.310	2.363	2.962	
2.315	2.954	2.882	
2.320	2.835	2.824	
2.325	2.035	2.766	
2.330	2.441	2.658	
2.335	2.898	2.567	
2.340	2.154	2.528	
2.345	2.204	2.477	
2.350	2.950	2.433	
2.355	2.563	2.455	
2.360	2.183	2.486	
2.365	2.901	2.496	
2.370	3.026	2.548	
2.375	2.424	2.629	
2.380	2.725	2.672	
2.385	3.041	2.704	
2.390	2.528	2.744	
2.395	2.576	2.749	
2.400	3.040	2.739	
2.405	2.733	2.754	
2.410	2.426	2.758	
2.415	2.870	2.733	
2.420	2.704	2.718	
2.425	2.035	2.685	
2.430	2.258	2.589	
2.435	2.465	2.481	
2.440	1.776	2.383	
2.445	1.738	2.253	
2.450	2.171	2.116	
2.455	1.758	2.020	
2.460	1.497	1.931	
2.465	2.145	1.849	
2.470	2.265	1.839	
2.475	1.877	1.889	
2.480	2.198	1.945	
2.485	2.161	2.002	
2.490	0.927	2.004	
2.495	0.233	1.832	
2.500	0.318	1.488	
2.505	0.039	1.086	
2.510	-0.003	0.706	
2.515	0.666	0.421	
2.520	0.935	0.308	
2.525	0.599	0.340	
2.530	1.097	0.442	
2.535	1.547	0.611	
2.540	1.182	0.829	
2.545	1.443	1.030	
2.550	2.065	1.222	
2.555	1.686	1.426	
2.560	1.395	1.578	
2.565	1.912	1.657	
2.570	1.830	1.715	
2.575	1.314	1.744	
2.580	1.714	1.722	
2.585	2.048	1.706	
2.590	1.590	1.725	
2.595	1.728	1.737	
2.600	2.304	1.761	
2.605	2.007	1.833	
2.610	1.828	1.906	
2.615	2.375	1.961	
2.620	2.281	2.035	
2.625	1.673	2.093	
2.630	1.917	2.083	
2.635	2.048	2.043	
2.640	1.306	1.983	
2.645	1.171	1.857	
2.650	1.480	1.689	
2.655	0.916	1.528	
2.660	0.525	1.343	
2.665	0.906	1.137	
2.670	0.724	0.967	
2.675	0.172	0.822	
2.680	0.391	0.666	
2.685	0.606	0.538	
2.690	0.114	0.455	
2.695	0.139	0.376	
2.700	0.492	0.308	
2.705	0.156	0.277	
2.710	0.018	0.248	
2.715	0.343	0.213	
2.720	0.264	0.201	
2.725	-0.009	0.198	
2.730	0.215	0.181	
2.735	0.434	0.179	
2.740	0.023	0.196	
2.745	0.062	0.193	
2.750	0.452	0.183	
2.755	0.151	0.197	
2.760	0.012	0.202	
2.765	0.354	0.192	
2.770	0.252	0.196	
2.775	-0.077	0.198	
2.780	0.076	0.171	
2.785	0.177	0.137	
2.790	-0.167	0.108	
2.795	-0.159	0.059	
2.800	0.079	0.005	
2.805	-0.129	-0.028	
2.810	-0.254	-0.059	
2.815	-0.002	-0.093	
2.820	-0.049	-0.107	
2.825	-0.236	-0.109	
2.830	0.096	-0.110	
2.835	0.490	-0.069	
2.840	0.134	0.019	
2.845	0.111	0.099	
2.850	0.020	0.138	
2.855	-0.625	0.109	
2.860	-0.980	-0.027	
2.865	-0.757	-0.243	
2.870	-0.685	-0.451	
2.875	-0.726	-0.602	
2.880	-0.335	-0.679	
2.885	-0.087	-0.660	
2.890	-0.291	-0.566	
2.895	-0.145	-0.453	
2.900	0.197	-0.331	
2.905	0.010	-0.198	
2.910	-0.106	-0.091	
2.915	0.178	-0.023	
2.920	0.105	0.031	
2.925	-0.161	0.063	
2.930	0.044	0.059	
2.935	0.180	0.051	
2.940	-0.115	0.051	
2.945	-0.043	0.037	
2.950	0.296	0.028	
2.955	0.079	0.047	
2.960	0.021	0.070	
2.965	0.533	0.098	
2.970	0.539	0.169	
2.975	0.149	0.254	
2.980	0.449	0.308	
2.985	0.602	0.354	
2.990	0.053	0.390	
2.995	0.050	0.371	
3.000	0.238	0.311	
3.005	-0.107	0.243	
3.010	-0.323	0.151	
3.015	-0.141	0.037	
3.020	-0.287	-0.067	
3.025	-0.601	-0.167	
3.030	-0.456	-0.275	
3.035	-0.393	-0.365	
3.040	-0.689	-0.431	
3.045	-0.648	-0.496	
3.050	-0.431	-0.547	
3.055	-0.676	-0.573	
3.060	-0.799	-0.599	
3.065	-0.532	-0.630	
3.070	-0.604	-0.643	
3.075	-0.837	-0.650	
3.080	-0.619	-0.667	
3.085	-0.488	-0.670	
3.090	-0.747	-0.657	
3.095	-0.660	-0.650	
3.100	-0.413	-0.642	
3.105	-0.610	-0.616	
3.110	-0.714	-0.598	
3.115	-0.442	-0.593	
3.120	-0.475	-0.577	
3.125	-0.697	-0.559	
3.130	-0.511	-0.557	
3.135	-0.419	-0.551	
3.140	-0.726	-0.543	
3.145	-0.674	-0.556	
3.150	-0.474	-0.577	
3.155	-0.731	-0.590	
3.160	-0.848	-0.615	
3.165	-0.576	-0.653	
3.170	-0.622	-0.672	
3.175	-0.836	-0.680	
3.180	-0.634	-0.693	
3.185	-0.492	-0.692	
3.190	-0.654	-0.668	
3.195	-0.453	-0.637	
3.200	-0.087	-0.580	
3.205	-0.278	-0.487	
3.210	-0.509	-0.405	
3.215	-0.575	-0.376	
3.220	-0.989	-0.414	
3.225	-0.995	-0.520	
3.230	-0.993	-0.660	
3.235	-0.993	-0.790	
3.240	-0.993	-0.891	
3.245	-0.992	-0.960	
3.250	-0.634	-0.983	
3.255	-0.747	-0.952	
3.260	-0.772	-0.895	
3.265	-0.446	-0.828	
3.270	-0.495	-0.742	
3.275	-0.721	-0.662	
3.280	-0.509	-0.614	
3.285	-0.416	-0.576	
3.290	-0.694	-0.545	
3.295	-0.605	-0.540	
3.300	-0.347	-0.542	
3.305	-0.524	-0.527	
3.310	-0.592	-0.514	
3.315	-0.292	-0.505	
3.320	-0.327	-0.477	
3.325	-0.535	-0.443	
3.330	-0.286	-0.423	
3.335	-0.122	-0.391	
3.340	-0.359	-0.345	
3.345	-0.278	-0.310	
3.350	-0.061	-0.281	
3.355	-0.336	-0.248	
3.360	-0.497	-0.244	
3.365	-0.300	-0.271	
3.370	-0.440	-0.306	
3.375	-0.729	-0.355	
3.380	-0.604	-0.428	
3.385	-0.581	-0.502	
3.390	-0.900	-0.568	
3.395	-0.871	-0.646	
3.400	-0.659	-0.717	
3.405	-0.879	-0.762	
3.410	-0.977	-0.799	
3.415	-0.712	-0.834	
3.420	-0.769	-0.843	
3.425	-0.989	-0.842	
3.430	-0.799	-0.849	
3.435	-0.697	-0.848	
3.440	-0.951	-0.835	
3.445	-0.851	-0.834	
3.450	-0.617	-0.831	
3.455	-0.837	-0.811	
3.460	-0.921	-0.799	
3.465	-0.691	-0.802	
3.470	-0.753	-0.796	
3.475	-0.955	-0.792	
3.480	-0.724	-0.800	
3.485	-0.674	-0.798	
3.490	-0.958	-0.790	
3.495	-0.865	-0.800	
3.500	-0.634	-0.810	
3.505	-0.796	-0.801	
3.510	-0.850	-0.790	
3.515	-0.593	-0.782	
3.520	-0.683	-0.759	
3.525	-0.909	-0.740	
3.530	-0.656	-0.740	
3.535	-0.488	-0.728	
3.540	-0.753	-0.698	
3.545	-0.657	-0.677	
3.550	-0.341	-0.652	
3.555	-0.462	-0.603	
3.560	-0.431	-0.546	
3.565	-0.061	-0.481	
3.570	-0.197	-0.395	
3.575	-0.656	-0.331	
3.580	-0.758	-0.343	
3.585	-0.827	-0.424	
3.590	-0.993	-0.543	
3.595	-0.905	-0.672	
3.600	-0.556	-0.767	
3.605	-0.663	-0.796	
3.610	-0.654	-0.780	
3.615	-0.262	-0.731	
3.620	-0.303	-0.641	
3.625	-0.508	-0.541	
3.630	-0.223	-0.464	
3.635	-0.097	-0.388	
3.640	-0.367	-0.316	
3.645	-0.297	-0.274	
3.650	-0.072	-0.250	
3.655	-0.291	-0.226	
3.660	-0.329	-0.218	
3.665	0.107	-0.213	
3.670	0.018	-0.175	
3.675	-0.240	-0.129	
3.680	0.081	-0.100	
3.685	0.418	-0.052	
3.690	-0.002	0.024	
3.695	0.174	0.084	
3.700	0.680	0.145	
3.705	0.269	0.232	
3.710	0.148	0.294	
3.715	0.686	0.329	
3.720	0.461	0.376	
3.725	-0.040	0.402	
3.730	0.304	0.373	
3.735	0.446	0.336	
3.740	-0.167	0.303	
3.745	-0.205	0.227	
3.750	-0.031	0.120	
3.755	-0.217	0.022	
3.760	-0.242	-0.062	
3.765	0.172	-0.117	
3.770	0.107	-0.112	
3.775	-0.187	-0.080	
3.780	-0.037	-0.064	
3.785	0.036	-0.054	
3.790	-0.272	-0.050	
3.795	-0.167	-0.070	
3.800	0.217	-0.085	
3.805	-0.144	-0.071	
3.810	-0.211	-0.064	
3.815	0.220	-0.065	
3.820	0.104	-0.038	
3.825	-0.126	-0.004	
3.830	0.203	0.016	
3.835	0.324	0.051	
3.840	-0.152	0.091	
3.845	-0.022	0.094	
3.850	0.525	0.093	
3.855	0.087	0.127	
3.860	-0.075	0.149	
3.865	0.376	0.147	
3.870	0.203	0.159	
3.875	-0.165	0.164	
3.880	0.174	0.139	
3.885	0.372	0.126	
3.890	-0.106	0.134	
3.895	-0.002	0.121	
3.900	0.460	0.108	
3.905	0.033	0.126	
3.910	0.032	0.137	
3.915	0.994	0.168	
3.920	1.158	0.298	
3.925	0.585	0.487	
3.930	0.889	0.639	
3.935	0.774	0.740	
3.940	-0.200	0.756	
3.945	-0.371	0.625	
3.950	-0.242	0.390	
3.955	-0.437	0.143	
3.960	-0.404	-0.075	
3.965	0.175	-0.217	
3.970	0.211	-0.240	
3.975	-0.035	-0.181	
3.980	0.542	-0.087	
3.985	0.788	0.060	
3.990	0.278	0.232	
3.995	0.551	0.361	
4.000	0.987	0.467	
4.005	0.305	0.563	
4.010	0.068	0.584	
4.015	0.502	0.530	
4.020	0.249	0.466	
4.025	-0.078	0.392	
4.030	0.418	0.306	
4.035	0.634	0.272	
4.040	0.065	0.286	
4.045	0.325	0.290	
4.050	0.813	0.309	
4.055	0.357	0.368	
4.060	0.325	0.414	
4.065	0.906	0.449	
4.070	0.617	0.510	
4.075	0.070	0.548	
4.080	0.443	0.521	
4.085	0.499	0.479	
4.090	-0.104	0.431	
4.095	-0.069	0.338	
4.100	0.189	0.228	
4.105	-0.237	0.135	
4.110	-0.399	0.033	
4.115	-0.136	-0.078	
4.120	-0.295	-0.162	
4.125	-0.564	-0.233	
4.130	-0.358	-0.307	
4.135	-0.283	-0.359	
4.140	-0.584	-0.388	
4.145	-0.480	-0.420	
4.150	-0.228	-0.439	
4.155	-0.449	-0.432	
4.160	-0.501	-0.424	
4.165	-0.207	-0.418	
4.170	-0.291	-0.394	
4.175	-0.508	-0.369	
4.180	-0.303	-0.363	
4.185	-0.243	-0.355	
4.190	-0.529	-0.347	
4.195	-0.414	-0.358	
4.200	-0.165	-0.368	
4.205	-0.401	-0.357	
4.210	-0.459	-0.352	
4.215	-0.179	-0.354	
4.220	-0.287	-0.340	
4.225	-0.509	-0.329	
4.230	-0.291	-0.336	
4.235	-0.232	-0.339	
4.240	-0.535	-0.337	
4.245	-0.451	-0.355	
4.250	-0.237	-0.376	
4.255	-0.474	-0.381	
4.260	-0.514	-0.392	
4.265	-0.231	-0.404	
4.270	-0.318	-0.396	
4.275	-0.451	-0.379	
4.280	-0.092	-0.362	
4.285	0.232	-0.305	
4.290	-0.084	-0.207	
4.295	0.032	-0.117	
4.300	0.038	-0.050	
4.305	-0.566	-0.029	
4.310	-0.886	-0.105	
4.315	-0.740	-0.265	
4.320	-0.758	-0.438	
4.325	-0.775	-0.583	
4.330	-0.364	-0.670	
4.335	-0.129	-0.664	
4.340	-0.265	-0.580	
4.345	-0.064	-0.464	
4.350	0.447	-0.320	
4.355	0.229	-0.141	
4.360	0.342	0.031	
4.365	0.977	0.197	
4.370	0.788	0.384	
4.375	0.350	0.540	
4.380	0.715	0.618	
4.385	0.805	0.662	
4.390	0.337	0.684	
4.395	0.663	0.667	
4.400	1.162	0.666	
4.405	0.791	0.717	
4.410	0.785	0.773	
4.415	1.355	0.829	
4.420	1.126	0.917	
4.425	0.731	0.991	
4.430	1.233	1.021	
4.435	1.359	1.057	
4.440	0.718	1.096	
4.445	0.790	1.078	
4.450	0.952	1.020	
4.455	0.183	0.936	
4.460	-0.061	0.780	
4.465	0.249	0.573	
4.470	-0.052	0.384	
4.475	-0.339	0.211	
4.480	-0.150	0.046	
4.485	-0.132	-0.079	
4.490	-0.448	-0.166	
4.495	-0.361	-0.242	
4.500	-0.162	-0.296	
4.505	-0.426	-0.319	
4.510	-0.463	-0.340	
4.515	-0.161	-0.357	
4.520	-0.274	-0.349	
4.525	-0.466	-0.334	
4.530	-0.184	-0.330	
4.535	-0.095	-0.309	
4.540	-0.379	-0.277	
4.545	-0.239	-0.260	
4.550	0.032	-0.242	
4.555	-0.234	-0.207	
4.560	-0.294	-0.186	
4.565	0.003	-0.179	
4.570	-0.130	-0.161	
4.575	-0.342	-0.151	
4.580	-0.090	-0.160	
4.585	0.000	-0.159	
4.590	-0.306	-0.147	
4.595	-0.190	-0.151	
4.600	0.029	-0.156	
4.605	-0.284	-0.148	
4.610	-0.375	-0.160	
4.615	-0.089	-0.187	
4.620	-0.208	-0.202	
4.625	-0.401	-0.213	
4.630	-0.104	-0.231	
4.635	0.143	-0.218	
4.640	-0.080	-0.167	
4.645	0.406	-0.093	
4.650	1.175	0.048	
4.655	0.968	0.281	
4.660	0.996	0.533	
4.665	1.379	0.759	
4.670	0.476	0.925	
4.675	-0.413	0.924	
4.680	-0.475	0.716	
4.685	-0.491	0.395	
4.690	-0.650	0.068	
4.695	-0.246	-0.200	
4.700	0.632	-0.318	
4.705	0.621	-0.242	
4.710	0.877	-0.033	
4.715	1.760	0.267	
4.720	1.885	0.655	
4.725	1.868	1.066	
4.730	2.618	1.452	
4.735	2.858	1.833	
4.740	2.314	2.174	
4.745	2.571	2.404	
4.750	3.011	2.557	
4.755	2.521	2.673	
4.760	2.472	2.722	
4.765	3.031	2.728	
4.770	2.777	2.749	
4.775	2.308	2.755	
4.780	2.791	2.719	
4.785	2.887	2.697	
4.790	2.236	2.687	
4.795	2.337	2.633	
4.800	2.472	2.554	
4.805	1.673	2.457	
4.810	1.256	2.282	
4.815	1.474	2.036	
4.820	0.855	1.772	
4.825	0.090	1.467	
4.830	0.247	1.105	
4.835	0.085	0.754	
4.840	-0.361	0.445	
4.845	-0.365	0.165	
4.850	-0.262	-0.066	
4.855	-0.592	-0.236	
4.860	-0.685	-0.374	
4.865	-0.460	-0.484	
4.870	-0.613	-0.552	
4.875	-0.844	-0.600	
4.880	-0.651	-0.649	
4.885	-0.624	-0.681	
4.890	-0.900	-0.700	
4.895	-0.769	-0.728	
4.900	-0.558	-0.745	
4.905	-0.787	-0.740	
4.910	-0.853	-0.738	
4.915	-0.608	-0.744	
4.920	-0.724	-0.739	
4.925	-0.917	-0.737	
4.930	-0.697	-0.750	
4.935	-0.668	-0.756	
4.940	-0.946	-0.756	
4.945	-0.841	-0.774	
4.950	-0.654	-0.791	
4.955	-0.935	-0.796	
4.960	-0.996	-0.814	
4.965	-0.856	-0.847	
4.970	-0.993	-0.878	
4.975	-0.993	-0.908	
4.980	-0.995	-0.939	
4.985	-0.984	-0.963	
4.990	-0.993	-0.980	
4.995	-0.995	-0.991	
5.000	-0.923	-0.993	
5.005	-0.995	-0.988	
5.010	-0.993	-0.983	
5.015	-0.643	-0.967	
5.020	-0.621	-0.914	
5.025	-0.752	-0.841	
5.030	-0.650	-0.778	
5.035	-0.912	-0.740	
5.040	-0.995	-0.745	
5.045	-0.995	-0.790	
5.050	-0.995	-0.849	
5.055	-0.995	-0.906	
5.060	-0.995	-0.950	
5.065	-0.986	-0.979	
5.070	-0.951	-0.994	
5.075	-0.995	-0.997	
5.080	-0.712	-0.983	
5.085	-0.570	-0.932	
5.090	-0.743	-0.855	
5.095	-0.592	-0.782	
5.100	-0.318	-0.705	
5.105	-0.504	-0.617	
5.110	-0.509	-0.544	
5.115	-0.144	-0.485	
5.120	-0.173	-0.411	
5.125	-0.306	-0.336	
5.130	0.052	-0.270	
5.135	0.288	-0.184	
5.140	-0.066	-0.082	
5.145	0.244	0.002	
5.150	0.629	0.091	
5.155	0.053	0.190	
5.160	-0.037	0.236	
5.165	0.424	0.234	
5.170	0.076	0.230	
5.175	-0.249	0.201	
5.180	-0.081	0.127	
5.185	-0.138	0.041	
5.190	-0.494	-0.048	
5.195	-0.446	-0.155	
5.200	-0.323	-0.258	
5.205	-0.625	-0.340	
5.210	-0.695	-0.423	
5.215	-0.451	-0.499	
5.220	-0.576	-0.545	
5.225	-0.760	-0.576	
5.230	-0.535	-0.606	
5.235	-0.486	-0.616	
5.240	-0.720	-0.610	
5.245	-0.570	-0.610	
5.250	-0.361	-0.599	
5.255	-0.599	-0.571	
5.260	-0.605	-0.551	
5.265	-0.291	-0.537	
5.270	-0.375	-0.503	
5.275	-0.524	-0.465	
5.280	-0.255	-0.439	
5.285	-0.182	-0.401	
5.290	-0.437	-0.357	
5.295	-0.265	-0.330	
5.300	0.017	-0.300	
5.305	-0.249	-0.252	
5.310	-0.252	-0.216	
5.315	0.169	-0.185	
5.320	-0.049	-0.134	
5.325	-0.266	-0.093	
5.330	0.030	-0.081	
5.335	0.088	-0.066	
5.340	-0.266	-0.049	
5.345	-0.135	-0.058	
5.350	0.181	-0.068	
5.355	-0.182	-0.059	
5.360	-0.176	-0.060	
5.365	0.339	-0.058	
5.370	0.180	-0.015	
5.375	0.009	0.041	
5.380	0.761	0.106	
5.385	1.023	0.236	
5.390	0.524	0.410	
5.395	0.573	0.542	
5.400	0.356	0.600	
5.405	-0.448	0.557	
5.410	-0.634	0.378	
5.415	-0.353	0.125	
5.420	-0.373	-0.101	
5.425	-0.376	-0.262	
5.430	0.178	-0.336	
5.435	0.489	-0.289	
5.440	0.058	-0.157	
5.445	0.421	-0.015	
5.450	0.890	0.140	
5.455	0.380	0.309	
5.460	0.302	0.426	
5.465	0.835	0.488	
5.470	0.589	0.547	
5.475	0.327	0.583	
5.480	1.153	0.604	
5.485	1.663	0.701	
5.490	1.434	0.892	
5.495	1.908	1.118	
5.500	2.453	1.379	
5.505	2.184	1.668	
5.510	2.459	1.930	
5.515	3.043	2.171	
5.520	3.043	2.424	
5.525	2.931	2.657	
5.530	3.041	2.833	
5.535	3.043	2.952	
5.540	2.713	3.013	
5.545	2.811	3.007	
5.550	2.947	2.970	
5.555	2.181	2.905	
5.560	1.890	2.762	
5.565	2.241	2.560	
5.570	1.763	2.364	
5.575	1.167	2.151	
5.580	1.492	1.907	
5.585	1.436	1.693	
5.590	0.745	1.511	
5.595	0.919	1.320	
5.600	1.230	1.159	
5.605	0.718	1.054	
5.610	0.730	0.965	
5.615	1.560	0.916	
5.620	1.627	0.975	
5.625	1.627	1.121	
5.630	2.594	1.331	
5.635	3.041	1.643	
5.640	3.044	2.034	
5.645	3.037	2.413	
5.650	3.031	2.714	
5.655	3.035	2.921	
5.660	3.037	3.044	
5.665	3.028	3.102	
5.670	3.029	3.118	
5.675	3.031	3.109	
5.680	3.026	3.090	
5.685	3.025	3.069	
5.690	3.028	3.051	
5.695	3.025	3.037	
5.700	3.025	3.028	
5.705	3.031	3.024	
5.710	3.034	3.022	
5.715	3.031	3.024	
5.720	3.038	3.026	
5.725	2.997	3.027	
5.730	3.041	3.026	
5.735	3.043	3.027	
5.740	2.388	2.999	
5.745	2.713	2.918	
5.750	3.041	2.841	
5.755	2.661	2.807	
5.760	2.461	2.772	
5.765	2.362	2.702	
5.770	0.967	2.545	
5.775	-0.142	2.190	
5.780	-0.138	1.636	
5.785	-0.162	1.035	
5.790	-0.378	0.510	
5.795	-0.133	0.109	
5.800	0.183	-0.130	
5.805	-0.103	-0.217	
5.810	-0.086	-0.225	
5.815	0.372	-0.183	
5.820	0.084	-0.094	
5.825	-0.174	-0.016	
5.830	0.029	0.014	
5.835	-0.029	0.020	
5.840	-0.368	0.000	
5.845	-0.242	-0.056	
5.850	-0.048	-0.114	
5.855	-0.307	-0.152	
5.860	-0.315	-0.187	
5.865	-0.038	-0.215	
5.870	-0.205	-0.217	
5.875	-0.382	-0.216	
5.880	-0.132	-0.226	
5.885	-0.145	-0.226	
5.890	-0.459	-0.225	
5.895	-0.375	-0.249	
5.900	-0.277	-0.284	
5.905	-0.628	-0.320	
5.910	-0.727	-0.383	
5.915	-0.555	-0.465	
5.920	-0.822	-0.542	
5.925	-0.995	-0.628	
5.930	-0.993	-0.729	
5.935	-0.993	-0.828	
5.940	-0.995	-0.907	
5.945	-0.995	-0.962	
5.950	-0.995	-0.995	
5.955	-0.995	-1.011	
5.960	-0.995	-1.016	
5.965	-0.995	-1.015	
5.970	-0.995	-1.010	
5.975	-0.995	-1.005	
5.980	-0.995	-1.001	
5.985	-0.995	-0.998	
5.990	-0.995	-0.995	
5.995	-0.995	-0.994	
6.000	-0.995	-0.994	
6.005	-0.996	-0.994	
6.010	-0.995	-0.994	
6.015	-0.996	-0.995	
6.020	-0.996	-0.995	
6.025	-0.995	-0.995	
6.030	-0.995	-0.996	
6.035	-0.995	-0.996	
6.040	-0.995	-0.995	
6.045	-0.996	-0.995	
6.050	-0.995	-0.995	
6.055	-0.995	-0.995	
6.060	-0.996	-0.995	
6.065	-0.996	-0.995	
6.070	-0.993	-0.995	
6.075	-0.996	-0.995	
6.080	-0.996	-0.995	
6.085	-0.995	-0.995	
6.090	-0.993	-0.995	
6.095	-0.996	-0.995	
6.100	-0.995	-0.995	
6.105	-0.995	-0.995	
6.110	-0.996	-0.995	
6.115	-0.995	-0.995	
6.120	-0.995	-0.995	
6.125	-0.996	-0.995	
6.130	-0.995	-0.995	
6.135	-0.996	-0.995	
6.140	-0.996	-0.996	
6.145	-0.996	-0.996	
6.150	-0.996	-0.996	
6.155	-0.996	-0.996	
6.160	-0.996	-0.996	
6.165	-0.996	-0.996	
6.170	-0.996	-0.996	
6.175	-0.996	-0.996	
6.180	-0.995	-0.996	
6.185	-0.995	-0.996	
6.190	-0.995	-0.996	
6.195	-0.995	-0.995	
6.200	-0.995	-0.995	
6.205	-0.995	-0.995	
6.210	-0.995	-0.995	
6.215	-0.732	-0.983	
6.220	-0.738	-0.943	
6.225	-0.737	-0.885	
6.230	-0.359	-0.812	
6.235	-0.229	-0.704	
6.240	-0.425	-0.578	
6.245	-0.252	-0.471	
6.250	-0.077	-0.378	
6.255	-0.443	-0.302	
6.260	-0.671	-0.284	
6.265	-0.702	-0.337	
6.270	-0.993	-0.443	
6.275	-0.995	-0.583	
6.280	-0.995	-0.728	
6.285	-0.995	-0.848	
6.290	-0.996	-0.935	
6.295	-0.996	-0.988	
6.300	-0.996	-1.016	
6.305	-0.996	-1.026	
6.310	-0.996	-1.026	
6.315	-0.996	-1.020	
6.320	-0.996	-1.013	
6.325	-0.996	-1.006	
6.330	-0.995	-1.001	
6.335	-0.995	-0.998	
6.340	-0.995	-0.995	
6.345	-0.995	-0.994	
6.350	-0.995	-0.994	
6.355	-0.995	-0.994	
6.360	-0.995	-0.994	
6.365	-0.836	-0.987	
6.370	-0.834	-0.963	
6.375	-0.841	-0.928	
6.380	-0.486	-0.878	
6.385	-0.376	-0.792	
6.390	-0.527	-0.685	
6.395	-0.254	-0.584	
6.400	0.076	-0.471	
6.405	-0.281	-0.346	
6.410	-0.222	-0.253	
6.415	0.322	-0.180	
6.420	-0.005	-0.091	
6.425	-0.263	-0.028	
6.430	0.073	-0.013	
6.435	-0.057	-0.012	
6.440	-0.446	-0.031	
6.445	-0.339	-0.094	
6.450	-0.207	-0.170	
6.455	-0.514	-0.234	
6.460	-0.532	-0.303	
6.465	-0.280	-0.368	
6.470	-0.468	-0.403	
6.475	-0.616	-0.431	
6.480	-0.280	-0.456	
6.485	-0.109	-0.444	
6.490	-0.274	-0.391	
6.495	0.136	-0.317	
6.500	0.463	-0.201	
6.505	-0.272	-0.071	
6.510	-0.454	-0.018	
6.515	-0.245	-0.055	
6.520	-0.329	-0.121	
6.525	-0.295	-0.187	
6.530	0.559	-0.201	
6.535	0.950	-0.089	
6.540	0.663	0.126	
6.545	1.214	0.370	
6.550	1.853	0.649	
6.555	2.019	0.987	
6.560	2.863	1.375	
6.565	3.038	1.810	
6.570	3.040	2.242	
6.575	3.041	2.602	
6.580	3.038	2.860	
6.585	3.038	3.020	
6.590	3.041	3.102	
6.595	3.038	3.131	
6.600	3.035	3.128	
6.605	3.038	3.110	
6.610	3.035	3.087	
6.615	3.026	3.067	
6.620	3.029	3.049	
6.625	3.028	3.037	
6.630	3.025	3.029	
6.635	3.023	3.024	
6.640	3.028	3.022	
6.645	3.028	3.022	
6.650	3.026	3.023	
6.655	3.034	3.024	
6.660	3.038	3.027	
6.665	3.037	3.030	
6.670	3.041	3.033	
6.675	2.890	3.029	
6.680	3.044	3.015	
6.685	3.046	3.007	
6.690	2.415	2.981	
6.695	2.652	2.904	
6.700	2.916	2.821	
6.705	2.404	2.762	
6.710	2.487	2.694	
6.715	3.023	2.643	
6.720	2.623	2.645	
6.725	2.223	2.642	
6.730	2.676	2.603	
6.735	2.608	2.573	
6.740	2.012	2.540	
6.745	2.355	2.470	
6.750	2.655	2.412	
6.755	2.001	2.385	
6.760	1.942	2.328	
6.765	2.436	2.254	
6.770	2.149	2.215	
6.775	1.926	2.187	
6.780	2.536	2.163	
6.785	2.528	2.192	
6.790	2.053	2.247	
6.795	2.446	2.278	
6.800	2.716	2.318	
6.805	2.045	2.368	
6.810	2.016	2.363	
6.815	2.559	2.323	
6.820	2.186	2.304	
6.825	1.917	2.278	
6.830	2.635	2.244	
6.835	2.770	2.273	
6.840	2.310	2.351	
6.845	2.721	2.422	
6.850	3.041	2.508	
6.855	2.919	2.628	
6.860	3.043	2.752	
6.865	3.037	2.861	
6.870	3.040	2.947	
6.875	2.624	2.988	
6.880	2.259	2.943	
6.885	1.506	2.777	
6.890	0.596	2.453	
6.895	0.939	2.009	
6.900	1.457	1.601	
6.905	1.116	1.335	
6.910	1.372	1.191	
6.915	2.276	1.183	
6.920	2.247	1.338	
6.925	2.187	1.581	
6.930	2.913	1.848	
6.935	2.838	2.139	
6.940	2.122	2.382	
6.945	2.313	2.495	
6.950	2.449	2.514	
6.955	1.677	2.470	
6.960	1.553	2.332	
6.965	1.957	2.144	
6.970	1.462	1.976	
6.975	1.066	1.803	
6.980	1.579	1.624	
6.985	1.492	1.500	
6.990	0.906	1.414	
6.995	1.236	1.321	
7.000	1.494	1.256	
7.005	0.799	1.224	
7.010	0.684	1.156	
7.015	1.031	1.057	
7.020	0.397	0.958	
7.025	-0.042	0.815	
7.030	0.169	0.617	
7.035	-0.034	0.417	
7.040	-0.414	0.228	
7.045	-0.330	0.038	
7.050	-0.266	-0.125	
7.055	-0.625	-0.250	
7.060	-0.683	-0.367	
7.065	-0.491	-0.472	
7.070	-0.734	-0.546	
7.075	-0.912	-0.615	
7.080	-0.674	-0.684	
7.085	-0.706	-0.729	
7.090	-0.972	-0.757	
7.095	-0.818	-0.792	
7.100	-0.694	-0.815	
7.105	-0.981	-0.823	
7.110	-0.961	-0.842	
7.115	-0.721	-0.863	
7.120	-0.899	-0.867	
7.125	-0.993	-0.870	
7.130	-0.796	-0.882	
7.135	-0.822	-0.882	
7.140	-0.993	-0.877	
7.145	-0.912	-0.885	
7.150	-0.769	-0.891	
7.155	-0.993	-0.888	
7.160	-0.993	-0.896	
7.165	-0.769	-0.907	
7.170	-0.960	-0.907	
7.175	-0.993	-0.909	
7.180	-0.866	-0.918	
7.185	-0.935	-0.922	
7.190	-0.993	-0.926	
7.195	-0.995	-0.938	
7.200	-0.957	-0.952	
7.205	-0.995	-0.964	
7.210	-0.993	-0.973	
7.215	-0.951	-0.980	
7.220	-0.995	-0.982	
7.225	-0.995	-0.983	
7.230	-0.798	-0.977	
7.235	-0.671	-0.944	
7.240	-0.836	-0.891	
7.245	-0.668	-0.839	
7.250	-0.755	-0.794	
7.255	-0.993	-0.772	
7.260	-0.995	-0.791	
7.265	-0.995	-0.837	
7.270	-0.996	-0.890	
7.275	-0.995	-0.935	
7.280	-0.995	-0.968	
7.285	-0.995	-0.990	
7.290	-0.995	-1.001	
7.295	-0.995	-1.005	
7.300	-0.761	-0.995	
7.305	-0.896	-0.964	
7.310	-0.801	-0.925	
7.315	-0.543	-0.876	
7.320	-0.731	-0.810	
7.325	-0.862	-0.761	
7.330	-0.572	-0.736	
7.335	-0.552	-0.706	
7.340	-0.775	-0.674	
7.345	-0.576	-0.657	
7.350	-0.423	-0.636	
7.355	-0.682	-0.606	
7.360	-0.613	-0.589	
7.365	-0.346	-0.577	
7.370	-0.546	-0.549	
7.375	-0.705	-0.533	
7.380	-0.526	-0.541	
7.385	-0.656	-0.557	
7.390	-0.993	-0.592	
7.395	-0.941	-0.666	
7.400	-0.931	-0.755	
7.405	-0.995	-0.834	
7.410	-0.995	-0.900	
7.415	-0.995	-0.950	
7.420	-0.995	-0.983	
7.425	-0.995	-1.001	
7.430	-0.995	-1.009	
7.435	-0.995	-1.010	
7.440	-0.996	-1.008	
7.445	-0.995	-1.005	
7.450	-0.995	-1.001	
7.455	-0.995	-0.998	
7.460	-0.995	-0.996	
7.465	-0.995	-0.995	
7.470	-0.995	-0.994	
7.475	-0.996	-0.994	
7.480	-0.995	-0.994	
7.485	-0.995	-0.995	
7.490	-0.995	-0.995	
7.495	-0.995	-0.995	
7.500	-0.995	-0.995	
7.505	-0.995	-0.995	
7.510	-0.995	-0.995	
7.515	-0.995	-0.995	
7.520	-0.995	-0.995	
7.525	-0.995	-0.995	
7.530	-0.995	-0.995	
7.535	-0.995	-0.995	
7.540	-0.995	-0.995	
7.545	-0.995	-0.995	
7.550	-0.993	-0.995	
7.555	-0.993	-0.995	
7.560	-0.995	-0.994	
7.565	-0.995	-0.994	
7.570	-0.995	-0.994	
7.575	-0.995	-0.994	
7.580	-0.995	-0.995	
7.585	-0.995	-0.995	
7.590	-0.995	-0.995	
7.595	-0.995	-0.995	
7.600	-0.996	-0.995	
7.605	-0.995	-0.995	
7.610	-0.958	-0.993	
7.615	-0.683	-0.975	
7.620	-0.944	-0.937	
7.625	-0.995	-0.910	
7.630	-0.995	-0.910	
7.635	-0.996	-0.926	
7.640	-0.995	-0.946	
7.645	-0.995	-0.965	
7.650	-0.995	-0.980	
7.655	-0.995	-0.990	
7.660	-0.989	-0.996	
7.665	-0.613	-0.980	
7.670	-0.665	-0.924	
7.675	-0.639	-0.845	
7.680	-0.223	-0.751	
7.685	-0.153	-0.623	
7.690	-0.393	-0.487	
7.695	-0.152	-0.381	
7.700	0.152	-0.284	
7.705	-0.258	-0.188	
7.710	-0.148	-0.130	
7.715	0.484	-0.081	
7.720	0.224	0.006	
7.725	0.122	0.097	
7.730	0.890	0.186	
7.735	1.049	0.332	
7.740	0.730	0.514	
7.745	1.249	0.682	
7.750	1.593	0.861	
7.755	1.065	1.044	
7.760	1.150	1.166	
7.765	1.621	1.241	
7.770	1.150	1.305	
7.775	0.790	1.312	
7.780	1.243	1.257	
7.785	1.048	1.198	
7.790	0.421	1.121	
7.795	0.761	0.998	
7.800	1.048	0.892	
7.805	0.508	0.830	
7.810	0.670	0.773	
7.815	1.312	0.748	
7.820	1.007	0.796	
7.825	0.869	0.866	
7.830	1.589	0.941	
7.835	1.680	1.068	
7.840	1.333	1.223	
7.845	2.062	1.370	
7.850	2.776	1.569	
7.855	2.537	1.845	
7.860	2.933	2.138	
7.865	3.041	2.416	
7.870	3.043	2.663	
7.875	3.044	2.854	
7.880	3.041	2.984	
7.885	3.043	3.058	
7.890	2.864	3.083	
7.895	3.044	3.072	
7.900	3.041	3.053	
7.905	2.890	3.035	
7.910	2.964	3.009	
7.915	3.043	2.989	
7.920	2.988	2.982	
7.925	2.643	2.967	
7.930	3.044	2.934	
7.935	3.034	2.919	
7.940	2.510	2.909	
7.945	2.899	2.873	
7.950	3.044	2.849	
7.955	2.527	2.842	
7.960	2.592	2.808	
7.965	3.044	2.769	
7.970	2.672	2.763	
7.975	2.525	2.753	
7.980	3.044	2.737	
7.985	3.043	2.762	
7.990	2.702	2.810	
7.995	2.748	2.832	
8.000	2.230	2.801	
8.005	0.765	2.637	
8.010	0.347	2.259	
8.015	0.727	1.757	
8.020	0.475	1.291	
8.025	0.537	0.926	
8.030	1.398	0.711	
8.035	1.474	0.696	
8.040	1.057	0.810	
8.045	1.596	0.955	
8.050	1.977	1.138	
8.055	1.442	1.340	
8.060	1.523	1.487	
8.065	1.977	1.583	
8.070	1.485	1.659	
8.075	1.197	1.674	
8.080	1.819	1.635	
8.085	1.757	1.619	
8.090	1.185	1.612	
8.095	1.586	1.575	
8.100	1.865	1.553	
8.105	1.301	1.561	
8.110	1.428	1.549	
8.115	2.006	1.541	
8.120	1.587	1.577	
8.125	1.317	1.604	
8.130	1.841	1.600	
8.135	1.631	1.609	
8.140	0.910	1.594	
8.145	1.123	1.503	
8.150	1.196	1.382	
8.155	0.322	1.245	
8.160	0.191	1.041	
8.165	0.528	0.805	
8.170	-0.046	0.596	
8.175	-0.284	0.391	
8.180	-0.075	0.185	
8.185	-0.205	0.021	
8.190	-0.520	-0.110	
8.195	-0.364	-0.229	
8.200	-0.266	-0.315	
8.205	-0.564	-0.366	
8.210	-0.515	-0.412	
8.215	-0.274	-0.445	
8.220	-0.518	-0.452	
8.225	-0.642	-0.462	
8.230	-0.362	-0.481	
8.235	-0.411	-0.484	
8.240	-0.662	-0.481	
8.245	-0.448	-0.492	
8.250	-0.310	-0.493	
8.255	-0.613	-0.479	
8.260	-0.570	-0.482	
8.265	-0.323	-0.490	
8.270	-0.527	-0.484	
8.275	-0.631	-0.484	
8.280	-0.350	-0.494	
8.285	-0.416	-0.488	
8.290	-0.665	-0.480	
8.295	-0.469	-0.490	
8.300	-0.373	-0.496	
8.305	-0.714	-0.496	
8.310	-0.695	-0.520	
8.315	-0.472	-0.554	
8.320	-0.714	-0.578	
8.325	-0.848	-0.609	
8.330	-0.575	-0.650	
8.335	-0.633	-0.672	
8.340	-0.888	-0.684	
8.345	-0.671	-0.706	
8.350	-0.471	-0.711	
8.355	-0.634	-0.686	
8.360	-0.426	-0.647	
8.365	-0.014	-0.578	
8.370	-0.318	-0.473	
8.375	-0.749	-0.398	
8.380	-0.836	-0.411	
8.385	-0.993	-0.498	
8.390	-0.995	-0.626	
8.395	-0.993	-0.756	
8.400	-0.972	-0.863	
8.405	-0.996	-0.938	
8.410	-0.993	-0.984	
8.415	-0.552	-0.989	
8.420	-0.686	-0.937	
8.425	-0.773	-0.863	
8.430	-0.327	-0.785	
8.435	-0.320	-0.683	
8.440	-0.656	-0.581	
8.445	-0.405	-0.518	
8.450	-0.196	-0.468	
8.455	-0.523	-0.418	
8.460	-0.437	-0.394	
8.465	-0.040	-0.375	
8.470	-0.346	-0.337	
8.475	-0.504	-0.313	
8.480	-0.097	-0.310	
8.485	-0.150	-0.291	
8.490	-0.552	-0.271	
8.495	-0.327	-0.285	
8.500	-0.219	-0.304	
8.505	-0.737	-0.327	
8.510	-0.825	-0.394	
8.515	-0.650	-0.494	
8.520	-0.993	-0.596	
8.525	-0.995	-0.704	
8.530	-0.995	-0.810	
8.535	-0.995	-0.897	
8.540	-0.995	-0.957	
8.545	-0.995	-0.994	
8.550	-0.921	-1.009	
8.555	-0.993	-1.007	
8.560	-0.995	-1.000	
8.565	-0.995	-0.996	
8.570	-0.995	-0.993	
8.575	-0.996	-0.993	
8.580	-0.995	-0.993	
8.585	-0.996	-0.993	
8.590	-0.996	-0.994	
8.595	-0.995	-0.995	
8.600	-0.996	-0.995	
8.605	-0.996	-0.996	
8.610	-0.996	-0.996	
8.615	-0.995	-0.996	
8.620	-0.995	-0.996	
8.625	-0.996	-0.996	
8.630	-0.996	-0.996	
8.635	-0.996	-0.996	
8.640	-0.996	-0.996	
8.645	-0.996	-0.996	
8.650	-0.995	-0.996	
8.655	-0.996	-0.996	
8.660	-0.996	-0.996	
8.665	-0.996	-0.996	
8.670	-0.996	-0.996	
8.675	-0.996	-0.996	
8.680	-0.996	-0.996	
8.685	-0.996	-0.996	
8.690	-0.996	-0.996	
8.695	-0.996	-0.996	
8.700	-0.996	-0.996	
8.705	-0.996	-0.996	
8.710	-0.996	-0.996	
8.715	-0.996	-0.996	
8.720	-0.996	-0.996	
8.725	-0.996	-0.996	
8.730	-0.996	-0.996	
8.735	-0.996	-0.996	
8.740	-0.996	-0.996	
8.745	-0.996	-0.996	
8.750	-0.996	-0.996	
8.755	-0.996	-0.996	
8.760	-0.996	-0.996	
8.765	-0.996	-0.996	
8.770	-0.996	-0.996	
8.775	-0.998	-0.996	
8.780	-0.996	-0.997	
8.785	-0.996	-0.997	
8.790	-0.996	-0.997	
8.795	-0.996	-0.997	
8.800	-0.996	-0.997	
8.805	-0.995	-0.996	
8.810	-0.996	-0.996	
8.815	-0.995	-0.996	
8.820	-0.995	-0.996	
8.825	-0.995	-0.995	
8.830	-0.880	-0.990	
8.835	-0.860	-0.971	
8.840	-0.995	-0.949	
8.845	-0.805	-0.931	
8.850	-0.532	-0.896	
8.855	-0.782	-0.835	
8.860	-0.630	-0.777	
8.865	-0.077	-0.703	
8.870	-0.339	-0.588	
8.875	-0.482	-0.481	
8.880	0.154	-0.392	
8.885	0.217	-0.274	
8.890	-0.303	-0.152	
8.895	0.212	-0.072	
8.900	0.651	0.016	
8.905	-0.075	0.123	
8.910	0.000	0.176	
8.915	0.718	0.199	
8.920	0.261	0.252	
8.925	-0.020	0.288	
8.930	0.897	0.304	
8.935	1.008	0.384	
8.940	0.437	0.507	
8.945	1.037	0.609	
8.950	1.509	0.732	
8.955	0.842	0.883	
8.960	1.002	0.988	
8.965	1.755	1.070	
8.970	1.285	1.180	
8.975	1.026	1.263	
8.980	1.977	1.316	
8.985	2.084	1.425	
8.990	1.454	1.566	
8.995	1.984	1.669	
9.000	2.386	1.771	
9.005	1.651	1.883	
9.010	2.113	1.950	
9.015	3.046	2.035	
9.020	3.017	2.219	
9.025	2.873	2.451	
9.030	3.043	2.658	
9.035	3.043	2.823	
9.040	2.802	2.933	
9.045	3.044	2.986	
9.050	3.040	3.011	
9.055	3.048	3.029	
9.060	3.048	3.041	
9.065	3.038	3.048	
9.070	3.041	3.050	
9.075	3.046	3.050	
9.080	3.037	3.048	
9.085	3.034	3.045	
9.090	3.041	3.043	
9.095	3.038	3.040	
9.100	3.032	3.039	
9.105	3.038	3.037	
9.110	3.038	3.037	
9.115	3.029	3.036	
9.120	3.037	3.035	
9.125	3.043	3.035	
9.130	3.046	3.036	
9.135	2.262	3.003	
9.140	1.017	2.828	
9.145	1.431	2.485	
9.150	1.998	2.128	
9.155	1.454	1.878	
9.160	1.770	1.716	
9.165	2.708	1.675	
9.170	2.288	1.783	
9.175	1.894	1.931	
9.180	2.621	2.048	
9.185	2.542	2.175	
9.190	1.743	2.271	
9.195	2.276	2.283	
9.200	2.742	2.284	
9.205	1.955	2.311	
9.210	1.969	2.296	
9.215	2.701	2.261	
9.220	2.132	2.265	
9.225	1.477	2.239	
9.230	1.940	2.137	
9.235	1.671	2.016	
9.240	0.754	1.864	
9.245	1.118	1.643	
9.250	1.532	1.440	
9.255	0.735	1.301	
9.260	0.715	1.164	
9.265	1.448	1.049	
9.270	1.153	1.018	
9.275	1.011	1.035	
9.280	2.146	1.098	
9.285	2.375	1.280	
9.290	1.758	1.533	
9.295	2.314	1.753	
9.300	2.789	1.961	
9.305	2.006	2.158	
9.310	2.105	2.268	
9.315	2.915	2.324	
9.320	2.360	2.398	
9.325	1.824	2.428	
9.330	2.459	2.386	
9.335	2.232	2.338	
9.340	1.230	2.260	
9.345	1.495	2.090	
9.350	1.776	1.897	
9.355	0.855	1.724	
9.360	0.852	1.522	
9.365	1.648	1.335	
9.370	1.161	1.242	
9.375	0.744	1.184	
9.380	1.561	1.132	
9.385	1.694	1.154	
9.390	1.026	1.227	
9.395	1.543	1.281	
9.400	1.986	1.352	
9.405	1.156	1.445	
9.410	1.155	1.476	
9.415	1.845	1.464	
9.420	1.165	1.465	
9.425	0.501	1.411	
9.430	1.083	1.274	
9.435	0.820	1.132	
9.440	-0.126	0.974	
9.445	0.036	0.744	
9.450	0.201	0.500	
9.455	-0.454	0.288	
9.460	-0.611	0.069	
9.465	-0.390	-0.146	
9.470	-0.723	-0.323	
9.475	-0.995	-0.481	
9.480	-0.691	-0.627	
9.485	-0.650	-0.722	
9.490	-0.940	-0.771	
9.495	-0.712	-0.803	
9.500	-0.588	-0.806	
9.505	-0.993	-0.792	
9.510	-0.995	-0.804	
9.515	-0.995	-0.845	
9.520	-0.996	-0.892	
9.525	-0.996	-0.935	
9.530	-0.995	-0.967	
9.535	-0.995	-0.988	
9.540	-0.995	-1.000	
9.545	-0.995	-1.005	
9.550	-0.679	-0.991	
9.555	-0.827	-0.947	
9.560	-0.592	-0.886	
9.565	0.061	-0.783	
9.570	-0.090	-0.613	
9.575	-0.254	-0.434	
9.580	0.340	-0.277	
9.585	0.226	-0.119	
9.590	-0.388	-0.001	
9.595	-0.205	0.023	
9.600	0.081	-0.003	
9.605	-0.453	-0.038	
9.610	-0.686	-0.118	
9.615	-0.488	-0.242	
9.620	-0.724	-0.369	
9.625	-0.877	-0.493	
9.630	-0.482	-0.599	
9.635	-0.437	-0.646	
9.640	-0.746	-0.647	
9.645	-0.515	-0.641	
9.650	-0.332	-0.617	
9.655	-0.772	-0.581	
9.660	-0.885	-0.584	
9.665	-0.775	-0.630	
9.670	-0.993	-0.695	
9.675	-0.995	-0.772	
9.680	-0.996	-0.851	
9.685	-0.995	-0.916	
9.690	-0.996	-0.963	
9.695	-0.995	-0.992	
9.700	-0.996	-1.007	
9.705	-0.995	-1.012	
9.710	-0.995	-1.012	
9.715	-0.993	-1.008	
9.720	-0.995	-1.004	
9.725	-0.995	-1.000	
9.730	-0.986	-0.997	
9.735	-0.917	-0.990	
9.740	-0.995	-0.980	
9.745	-0.911	-0.971	
9.750	-0.654	-0.947	
9.755	-0.906	-0.905	
9.760	-0.828	-0.869	
9.765	-0.433	-0.829	
9.770	-0.581	-0.762	
9.775	-0.705	-0.694	
9.780	-0.300	-0.638	
9.785	-0.237	-0.564	
9.790	-0.526	-0.484	
9.795	-0.248	-0.426	
9.800	0.146	-0.359	
9.805	-0.317	-0.272	
9.810	-0.272	-0.215	
9.815	0.299	-0.173	
9.820	-0.121	-0.111	
9.825	-0.330	-0.072	
9.830	0.223	-0.066	
9.835	0.250	-0.034	
9.840	-0.262	0.010	
9.845	0.133	0.023	
9.850	0.641	0.055	
9.855	0.073	0.129	
9.860	0.424	0.198	
9.865	1.534	0.308	
9.870	1.416	0.532	
9.875	1.126	0.797	
9.880	1.503	1.019	
9.885	0.681	1.162	
9.890	-0.469	1.129	
9.895	-0.453	0.871	
9.900	-0.257	0.508	
9.905	-0.480	0.170	
9.910	-0.268	-0.097	
9.915	0.640	-0.227	
9.920	0.435	-0.183	
9.925	0.208	-0.048	
9.930	0.988	0.112	
9.935	1.043	0.319	
9.940	0.426	0.523	
9.945	0.970	0.659	
9.950	1.480	0.782	
9.955	0.825	0.917	
9.960	0.938	1.002	
9.965	2.531	1.100	
9.970	3.041	1.363	
9.975	3.037	1.778	
9.980	3.025	2.214	
9.985	3.020	2.578	
9.990	3.025	2.839	
9.995	3.019	3.002	
10.000	3.017	3.085	
10.005	3.025	3.113	
10.010	3.025	3.111	
10.015	3.022	3.094	
10.020	3.029	3.072	
10.025	3.037	3.054	
10.030	3.032	3.041	
10.035	3.037	3.034	
10.040	2.818	3.020	
10.045	3.022	2.996	
10.050	3.043	2.980	
10.055	2.261	2.947	
10.060	2.070	2.831	
10.065	2.576	2.666	
10.070	1.919	2.514	
10.075	1.410	2.337	
10.080	2.099	2.134	
10.085	2.117	1.996	
10.090	1.549	1.924	
10.095	2.192	1.875	
10.100	2.808	1.908	
10.105	2.299	2.039	
10.110	2.965	2.205	
10.115	3.038	2.400	
10.120	3.040	2.610	
10.125	2.980	2.790	
10.130	3.032	2.919	
10.135	3.029	3.000	
10.140	3.041	3.047	
10.145	3.041	3.068	
10.150	3.041	3.073	
10.155	3.028	3.070	
10.160	2.996	3.059	
10.165	2.994	3.044	
10.170	2.993	3.027	
10.175	2.991	3.012	
10.180	2.993	3.001	
10.185	2.994	2.994	
10.190	2.996	2.991	
10.195	2.993	2.990	
10.200	2.993	2.990	
10.205	2.993	2.990	
10.210	2.994	2.991	
10.215	2.994	2.992	
10.220	2.994	2.993	
10.225	2.993	2.993	
10.230	2.993	2.994	
10.235	2.996	2.994	
10.240	2.996	2.994	
10.245	2.994	2.994	
10.250	2.994	2.994	
10.255	2.994	2.994	
10.260	2.996	2.995	
10.265	2.996	2.995	
10.270	2.994	2.995	
10.275	2.994	2.995	
10.280	2.994	2.995	
10.285	2.996	2.995	
10.290	2.997	2.995	
10.295	2.994	2.995	
10.300	2.996	2.995	
10.305	2.996	2.995	
10.310	2.996	2.995	
10.315	2.996	2.995	
10.320	2.996	2.996	
10.325	2.996	2.996	
10.330	2.997	2.996	
10.335	2.997	2.996	
10.340	2.996	2.996	
10.345	2.996	2.996	
10.350	2.996	2.996	
10.355	2.997	2.996	
10.360	2.997	2.996	
10.365	2.996	2.996	
10.370	2.996	2.996	
10.375	2.997	2.996	
10.380	2.999	2.996	
10.385	2.996	2.997	
10.390	2.996	2.997	
10.395	2.996	2.997	
10.400	2.999	2.996	
10.405	2.999	2.997	
10.410	2.996	2.997	
10.415	2.997	2.997	
10.420	2.997	2.997	
10.425	2.997	2.997	
10.430	3.000	2.997	
10.435	2.997	2.998	
10.440	2.999	2.998	
10.445	2.999	2.998	
10.450	3.012	2.999	
10.455	3.020	3.002	
10.460	2.999	3.005	
10.465	2.997	3.006	
10.470	2.997	3.005	
10.475	2.999	3.003	
10.480	2.999	3.002	
10.485	2.997	3.000	
10.490	2.997	2.999	
10.495	2.999	2.998	
10.500	3.000	2.998	
10.505	2.997	2.998	
10.510	-0.987	2.814	
10.515	-0.995	2.206	
10.520	-0.995	1.316	
10.525	-0.996	0.452	
10.530	-0.996	-0.240	
10.535	-0.995	-0.720	
10.540	-0.996	-1.007	
10.545	-0.996	-1.146	
10.550	-0.996	-1.187	
10.555	-0.996	-1.172	
10.560	-0.996	-1.132	
10.565	-0.996	-1.087	
10.570	-0.995	-1.049	
10.575	-0.996	-1.020	
10.580	-0.996	-1.001	
10.585	-0.995	-0.991	
10.590	-0.996	-0.987	
10.595	-0.996	-0.987	
10.600	-0.996	-0.988	
10.605	-0.996	-0.990	
10.610	-0.996	-0.993	
10.615	-0.996	-0.994	
10.620	-0.996	-0.996	
10.625	-0.996	-0.996	
10.630	-0.996	-0.997	
10.635	-0.996	-0.997	
10.640	-0.995	-0.997	
10.645	-0.996	-0.996	
10.650	-0.996	-0.996	
10.655	-0.996	-0.996	
10.660	-0.996	-0.996	
10.665	-0.996	-0.996	
10.670	-0.996	-0.996	
10.675	-0.996	-0.996	
10.680	-0.996	-0.996	
10.685	-0.996	-0.996	
10.690	-0.996	-0.996	
10.695	-0.996	-0.996	
10.700	-0.996	-0.996	
10.705	-0.996	-0.996	
10.710	-0.996	-0.996	
10.715	-0.996	-0.996	
10.720	-0.996	-0.996	
10.725	-0.996	-0.996	
10.730	-0.996	-0.996	
10.735	-0.996	-0.996	
10.740	-0.996	-0.996	
10.745	-0.996	-0.996	
10.750	-0.996	-0.996	
10.755	-0.996	-0.996	
10.760	-0.996	-0.996	
10.765	-0.996	-0.996	
10.770	-0.996	-0.996	
10.775	-0.995	-0.996	
10.780	-0.996	-0.996	
10.785	-0.996	-0.996	
10.790	-0.995	-0.996	
10.795	3.009	-0.811	
10.800	2.994	-0.201	
10.805	2.993	0.690	
10.810	2.994	1.553	
10.815	2.994	2.243	
10.820	2.996	2.721	
10.825	-0.368	2.852	
10.830	-0.996	2.448	
10.835	-0.995	1.643	
10.840	2.997	0.944	
10.845	2.996	0.795	
10.850	2.996	1.128	
10.855	2.858	1.630	
10.860	-0.995	1.932	
10.865	-0.995	1.718	
10.870	3.016	1.298	
10.875	2.994	1.222	
10.880	2.994	1.512	
10.885	2.996	1.929	
10.890	3.022	2.332	
10.895	-0.995	2.471	
10.900	-0.995	2.085	
10.905	-0.996	1.327	
10.910	-0.996	0.525	
10.915	-0.995	-0.150	
10.920	-0.996	-0.638	
10.925	-0.996	-0.944	
10.930	-0.996	-1.104	
10.935	-0.996	-1.163	
10.940	-0.996	-1.161	
10.945	-0.996	-1.130	
10.950	-0.995	-1.090	
10.955	-0.996	-1.053	
10.960	-0.996	-1.024	
10.965	-0.996	-1.005	
10.970	2.970	-0.811	
10.975	2.994	-0.200	
10.980	2.993	0.689	
10.985	2.996	1.551	
10.990	2.996	2.242	
10.995	3.014	2.721	
11.000	-0.995	2.825	
11.005	-0.996	2.357	
11.010	-0.995	1.507	
11.015	-0.996	0.628	
11.020	-0.996	-0.104	
11.025	-0.996	-0.629	
11.030	-0.996	-0.955	
11.035	-0.996	-1.123	
11.040	3.014	-0.997	
11.045	2.996	-0.381	
11.050	2.993	0.546	
11.055	2.993	1.453	
11.060	2.994	2.184	
11.065	2.996	2.692	
11.070	2.996	2.999	
11.075	2.994	3.148	
11.080	2.994	3.194	
11.085	2.993	3.179	
11.090	2.996	3.138	
11.095	2.997	3.091	
11.100	2.994	3.051	
11.105	2.994	3.020	
11.110	2.996	3.001	
11.115	2.996	2.990	
11.120	2.997	2.986	
11.125	2.994	2.986	
11.130	2.996	2.987	
11.135	2.996	2.990	
11.140	2.997	2.992	
11.145	2.997	2.994	
11.150	2.996	2.995	
11.155	2.996	2.996	
11.160	2.997	2.997	
11.165	2.997	2.997	
11.170	2.997	2.997	
11.175	2.996	2.997	
11.180	2.997	2.997	
11.185	2.999	2.997	
11.190	2.997	2.997	
11.195	2.997	2.997	
11.200	2.997	2.997	
11.205	2.996	2.997	
11.210	2.999	2.997	
11.215	2.999	2.997	
11.220	2.997	2.997	
11.225	2.996	2.997	
11.230	2.999	2.997	
11.235	2.999	2.997	
11.240	2.999	2.998	
11.245	2.997	2.998	
11.250	2.997	2.998	
11.255	2.999	2.998	
11.260	2.999	2.998	
11.265	2.996	2.998	
11.270	2.997	2.998	
11.275	3.003	2.998	
11.280	-0.995	2.814	
11.285	-0.996	2.205	
11.290	-0.995	1.315	
11.295	-0.995	0.451	
11.300	-0.996	-0.241	
11.305	-0.996	-0.720	
11.310	-0.996	-1.007	
11.315	-0.996	-1.146	
11.320	-0.488	-1.163	
11.325	-0.993	-1.094	
11.330	-0.995	-1.018	
11.335	-0.996	-0.976	
11.340	-0.996	-0.960	
11.345	-0.996	-0.958	
11.350	-0.996	-0.964	
11.355	-0.996	-0.973	
11.360	-0.996	-0.982	
11.365	-0.996	-0.989	
11.370	3.019	-0.808	
11.375	2.996	-0.200	
11.380	-0.882	0.511	
11.385	-0.995	0.778	
11.390	-0.995	0.587	
11.395	-0.996	0.201	
11.400	-0.995	-0.210	
11.405	-0.996	-0.556	
11.410	-0.996	-0.808	
11.415	-0.995	-0.967	
11.420	-0.996	-1.050	
11.425	-0.996	-1.081	
11.430	-0.995	-1.080	
11.435	-0.996	-1.065	
11.440	-0.996	-1.044	
11.445	-0.996	-1.025	
11.450	-0.998	-1.011	
11.455	-0.996	-1.001	
11.460	-0.996	-0.995	
11.465	-0.996	-0.993	
11.470	-0.996	-0.992	
11.475	-0.996	-0.993	
11.480	-0.996	-0.994	
11.485	-0.996	-0.995	
11.490	-0.996	-0.995	
11.495	-0.998	-0.996	
11.500	-0.996	-0.997	
11.505	-0.996	-0.997	
11.510	-0.996	-0.997	
11.515	-0.996	-0.997	
11.520	-0.998	-0.997	
11.525	-0.996	-0.997	
11.530	-0.995	-0.997	
11.535	-0.996	-0.996	
11.540	-0.996	-0.996	
11.545	-0.996	-0.996	
11.550	-0.996	-0.996	
11.555	-0.996	-0.996	
11.560	-0.996	-0.996	
11.565	-0.996	-0.996	
11.570	-0.996	-0.996	
11.575	-0.996	-0.996	
11.580	-0.996	-0.996	
11.585	-0.996	-0.996	
11.590	-0.996	-0.996	
11.595	-0.996	-0.996	
11.600	-0.996	-0.996	
11.605	-0.996	-0.996	
11.610	-0.996	-0.996	
11.615	-0.996	-0.996	
11.620	-0.996	-0.996	
11.625	-0.996	-0.996	
11.630	-0.996	-0.996	
11.635	-0.996	-0.996	
11.640	-0.996	-0.996	
11.645	-0.996	-0.996	
11.650	-0.995	-0.996	
11.655	-0.996	-0.996	
11.660	-0.996	-0.996	
11.665	-0.996	-0.996	
11.670	-0.995	-0.996	
11.675	-0.996	-0.996	
11.680	-0.996	-0.996	
11.685	-0.996	-0.996	
11.690	-0.996	-0.996	
11.695	-0.996	-0.996	
11.700	-0.996	-0.996	
11.705	-0.996	-0.996	
11.710	-0.996	-0.996	
11.715	-0.996	-0.996	
11.720	-0.995	-0.996	
11.725	-0.996	-0.996	
11.730	-0.995	-0.996	
11.735	-0.996	-0.996	
11.740	-0.996	-0.996	
11.745	-0.995	-0.996	
11.750	-0.995	-0.996	
11.755	-0.995	-0.995	
11.760	-0.995	-0.995	
11.765	-0.804	-0.986	
11.770	-0.757	-0.955	
11.775	-0.750	-0.905	
11.780	-0.390	-0.835	
11.785	-0.547	-0.743	
11.790	-0.888	-0.670	
11.795	-0.543	-0.642	
11.800	-0.174	-0.609	
11.805	-0.336	-0.537	
11.810	0.049	-0.440	
11.815	1.314	-0.261	
11.820	1.155	0.052	
11.825	1.072	0.413	
11.830	2.206	0.768	
11.835	2.635	1.176	
11.840	2.438	1.616	
11.845	3.040	2.022	
11.850	3.029	2.381	
11.855	3.037	2.678	
11.860	3.032	2.890	
11.865	3.023	3.020	
11.870	3.025	3.085	
11.875	3.026	3.106	
11.880	3.017	3.101	
11.885	3.016	3.083	
11.890	3.017	3.062	
11.895	3.009	3.043	
11.900	3.003	3.028	
11.905	3.008	3.016	
11.910	3.006	3.008	
11.915	3.000	3.004	
11.920	3.005	3.002	
11.925	3.012	3.001	
11.930	3.006	3.003	
11.935	3.006	3.004	
11.940	3.016	3.006	
11.945	3.016	3.008	
11.950	3.011	3.010	
11.955	3.022	3.012	
11.960	3.025	3.014	
11.965	3.017	3.017	
11.970	3.023	3.019	
11.975	3.031	3.021	
11.980	3.026	3.023	
11.985	3.026	3.025	
11.990	3.041	3.027	
11.995	3.037	3.029	
12.000	3.032	3.032	
12.005	2.658	3.016	
12.010	2.357	2.946	
12.015	2.915	2.842	
12.020	2.021	2.738	
12.025	1.223	2.558	
12.030	2.048	2.299	
12.035	1.853	2.078	
12.040	0.484	1.873	
12.045	0.166	1.565	
12.050	-0.139	1.156	
12.055	-0.963	0.692	
12.060	-0.995	0.195	
12.065	-0.975	-0.267	
12.070	-0.993	-0.626	
12.075	-0.995	-0.870	
12.080	-0.995	-1.013	
12.085	-0.995	-1.080	
12.090	-0.995	-1.097	
12.095	-0.995	-1.087	
12.100	-0.993	-1.064	
12.105	-0.996	-1.041	
12.110	-0.995	-1.021	
12.115	-0.995	-1.006	
12.120	-0.995	-0.997	
12.125	-0.995	-0.992	
12.130	-0.995	-0.990	
12.135	-0.995	-0.990	
12.140	-0.993	-0.991	
12.145	-0.970	-0.991	
12.150	-0.506	-0.966	
12.155	-0.801	-0.905	
12.160	-0.830	-0.843	
12.165	-0.662	-0.801	
12.170	-0.993	-0.778	
12.175	-0.995	-0.791	
12.180	-0.995	-0.835	
12.185	-0.995	-0.886	
12.190	-0.995	-0.931	
12.195	-0.993	-0.965	
12.200	-0.724	-0.975	
12.205	-0.993	-0.958	
12.210	-0.992	-0.944	
12.215	-0.494	-0.923	
12.220	-0.599	-0.861	
12.225	-0.718	-0.783	
12.230	-0.208	-0.704	
12.235	-0.115	-0.592	
12.240	-0.504	-0.472	
12.245	-0.320	-0.392	
12.250	-0.194	-0.342	
12.255	-0.691	-0.319	
12.260	-0.752	-0.356	
12.265	-0.405	-0.429	
12.270	-0.792	-0.494	
12.275	-0.995	-0.572	
12.280	-0.995	-0.680	
12.285	-0.995	-0.790	
12.290	-0.995	-0.883	
12.295	-0.995	-0.949	
12.300	-0.718	-0.977	
12.305	-0.724	-0.956	
12.310	-0.355	-0.886	
12.315	0.695	-0.722	
12.320	0.683	-0.429	
12.325	0.464	-0.089	
12.330	1.421	0.234	
12.335	1.546	0.574	
12.340	0.728	0.877	
12.345	1.207	1.058	
12.350	1.752	1.178	
12.355	1.048	1.285	
12.360	1.636	1.354	
12.365	3.037	1.477	
12.370	3.029	1.760	
12.375	3.026	2.134	
12.380	3.011	2.482	
12.385	3.006	2.751	
12.390	3.009	2.931	
12.395	3.003	3.034	
12.400	2.997	3.078	
12.405	3.005	3.086	
12.410	3.006	3.075	
12.415	2.999	3.056	
12.420	3.002	3.037	
12.425	3.006	3.021	
12.430	3.002	3.010	
12.435	3.002	3.003	
12.440	3.011	3.000	
12.445	3.008	3.000	
12.450	3.005	3.001	
12.455	3.012	3.003	
12.460	3.012	3.005	
12.465	3.006	3.008	
12.470	3.011	3.009	
12.475	3.019	3.010	
12.480	3.011	3.011	
12.485	3.011	3.012	
12.490	3.020	3.013	
12.495	3.019	3.014	
12.500	3.014	3.015	
12.505	3.023	3.016	
12.510	3.025	3.018	
12.515	3.016	3.019	
12.520	3.017	3.020	
12.525	3.019	3.019	
12.530	3.008	3.019	
12.535	3.006	3.017	
12.540	3.016	3.014	
12.545	3.016	3.013	
12.550	3.022	3.013	
12.555	2.740	3.001	
12.560	2.030	2.928	
12.565	2.614	2.786	
12.570	1.935	2.626	
12.575	1.480	2.430	
12.580	2.458	2.225	
12.585	3.035	2.148	
12.590	2.734	2.234	
12.595	2.725	2.382	
12.600	2.791	2.521	
12.605	1.938	2.597	
12.610	1.980	2.554	
12.615	2.304	2.440	
12.620	0.955	2.282	
12.625	1.998	2.069	
12.630	2.494	1.926	
12.635	0.884	1.864	
12.640	-0.350	1.670	
12.645	-0.517	1.251	
12.650	-0.506	0.727	
12.655	-0.727	0.231	
12.660	0.116	-0.141	
12.665	1.796	-0.238	
12.670	2.316	0.037	
12.675	2.821	0.591	
12.680	3.029	1.262	
12.685	3.028	1.908	
12.690	3.034	2.433	
12.695	3.035	2.802	
12.700	3.025	3.026	
12.705	1.492	3.065	
12.710	0.997	2.842	
12.715	1.715	2.448	
12.720	0.470	2.029	
12.725	-0.226	1.560	
12.730	0.093	1.047	
12.735	0.567	0.625	
12.740	0.782	0.395	
12.745	1.741	0.388	
12.750	2.313	0.616	
12.755	1.792	0.991	
12.760	2.589	1.384	
12.765	3.034	1.783	
12.770	2.884	2.183	
12.775	3.025	2.522	
12.780	3.000	2.774	
12.785	3.006	2.941	
12.790	3.017	3.036	
12.795	3.020	3.078	
12.800	3.017	3.088	
12.805	3.026	3.081	
12.810	3.028	3.066	
12.815	3.014	3.052	
12.820	3.003	3.037	
12.825	3.026	3.026	
12.830	3.035	3.019	
12.835	1.850	2.964	
12.840	0.218	2.711	
12.845	0.047	2.194	
12.850	-0.138	1.542	
12.855	-0.926	0.884	
12.860	-0.993	0.260	
12.865	-0.993	-0.275	
12.870	-0.993	-0.671	
12.875	-0.995	-0.925	
12.880	-0.995	-1.063	
12.885	-0.995	-1.118	
12.890	-0.995	-1.123	
12.895	-0.995	-1.101	
12.900	-0.995	-1.071	
12.905	-0.995	-1.042	
12.910	-0.995	-1.019	
12.915	-0.993	-1.003	
12.920	-0.995	-0.994	
12.925	-0.995	-0.989	
12.930	-0.996	-0.988	
12.935	-0.995	-0.989	
12.940	-0.996	-0.991	
12.945	-0.995	-0.992	
12.950	-0.998	-0.994	
12.955	-0.996	-0.995	
12.960	-0.996	-0.996	
12.965	-0.996	-0.997	
12.970	-0.998	-0.997	
12.975	-0.996	-0.997	
12.980	-0.996	-0.997	
12.985	-0.995	-0.997	
12.990	-0.995	-0.996	
12.995	-0.996	-0.996	
13.000	-0.995	-0.996	
13.005	-0.996	-0.996	
13.010	-0.995	-0.995	
13.015	-0.996	-0.995	
13.020	-0.996	-0.996	
13.025	-0.996	-0.996	
13.030	-0.996	-0.996	
13.035	-0.996	-0.996	
13.040	-0.998	-0.996	
13.045	-0.996	-0.997	
13.050	-0.996	-0.997	
13.055	-0.996	-0.997	
13.060	-0.996	-0.997	
13.065	-0.996	-0.997	
13.070	-0.996	-0.996	
13.075	-0.996	-0.996	
13.080	-0.996	-0.996	
13.085	-0.996	-0.996	
13.090	-0.996	-0.996	
13.095	-0.996	-0.996	
13.100	-0.996	-0.996	
13.105	-0.996	-0.996	
13.110	-0.996	-0.996	
13.115	-0.996	-0.996	
13.120	-0.996	-0.996	
13.125	-0.996	-0.996	
13.130	-0.996	-0.996	
13.135	-0.996	-0.996	
13.140	-0.996	-0.996	
13.145	-0.996	-0.996	
13.150	-0.996	-0.996	
13.155	-0.996	-0.996	
13.160	-0.996	-0.996	
13.165	-0.996	-0.996	
13.170	-0.995	-0.996	
13.175	-0.996	-0.996	
13.180	-0.995	-0.996	
13.185	-0.995	-0.996	
13.190	-0.995	-0.995	
13.195	-0.993	-0.995	
13.200	-0.954	-0.993	
13.205	-0.993	-0.988	
13.210	-0.993	-0.985	
13.215	-0.666	-0.970	
13.220	-0.847	-0.930	
13.225	-0.990	-0.893	
13.230	-0.582	-0.868	
13.235	-0.562	-0.820	
13.240	-0.896	-0.766	
13.245	-0.637	-0.736	
13.250	-0.398	-0.703	
13.255	-0.718	-0.657	
13.260	-0.611	-0.626	
13.265	-0.133	-0.591	
13.270	-0.275	-0.518	
13.275	-0.358	-0.434	
13.280	0.417	-0.340	
13.285	0.800	-0.171	
13.290	0.463	0.057	
13.295	1.355	0.301	
13.300	2.105	0.609	
13.305	1.376	0.968	
13.310	1.089	1.241	
13.315	1.106	1.361	
13.320	-0.029	1.319	
13.325	-0.385	1.086	
13.330	0.140	0.741	
13.335	0.467	0.451	
13.340	0.134	0.281	
13.345	1.101	0.230	
13.350	1.935	0.360	
13.355	1.390	0.651	
13.360	1.772	0.973	
13.365	3.037	1.320	
13.370	3.029	1.748	
13.375	3.022	2.195	
13.380	3.006	2.567	
13.385	3.000	2.832	
13.390	3.000	2.993	
13.395	2.997	3.074	
13.400	2.994	3.099	
13.405	2.999	3.093	
13.410	3.000	3.072	
13.415	2.993	3.048	
13.420	2.999	3.027	
13.425	3.005	3.011	
13.430	2.996	3.001	
13.435	2.996	2.996	
13.440	3.005	2.994	
13.445	3.003	2.994	
13.450	2.999	2.996	
13.455	3.008	2.998	
13.460	3.011	3.000	
13.465	3.006	3.003	
13.470	3.014	3.006	
13.475	3.022	3.009	
13.480	3.017	3.012	
13.485	3.022	3.015	
13.490	3.029	3.018	
13.495	3.028	3.021	
13.500	3.028	3.024	
13.505	3.037	3.026	
13.510	2.875	3.022	
13.515	3.035	3.007	
13.520	2.684	2.982	
13.525	1.935	2.896	
13.530	2.632	2.743	
13.535	2.458	2.607	
13.540	1.393	2.472	
13.545	1.743	2.271	
13.550	2.143	2.078	
13.555	1.167	1.931	
13.560	1.100	1.760	
13.565	1.876	1.593	
13.570	1.265	1.499	
13.575	0.690	1.411	
13.580	1.442	1.296	
13.585	1.343	1.227	
13.590	0.409	1.176	
13.595	0.800	1.071	
13.600	1.162	0.967	
13.605	0.233	0.893	
13.610	0.191	0.776	
13.615	0.692	0.635	
13.620	0.042	0.523	
13.625	-0.283	0.395	
13.630	-0.052	0.232	
13.635	-0.214	0.081	
13.640	-0.622	-0.059	
13.645	-0.442	-0.204	
13.650	-0.346	-0.324	
13.655	-0.749	-0.409	
13.660	-0.729	-0.495	
13.665	-0.454	-0.568	
13.670	-0.703	-0.607	
13.675	-0.776	-0.636	
13.680	-0.332	-0.652	
13.685	-0.306	-0.620	
13.690	-0.642	-0.563	
13.695	-0.604	-0.533	
13.700	-0.873	-0.545	
13.705	-0.993	-0.604	
13.710	-0.995	-0.700	
13.715	-0.995	-0.801	
13.720	-0.995	-0.887	
13.725	-0.995	-0.949	
13.730	-0.995	-0.988	
13.735	-0.995	-1.008	
13.740	-0.996	-1.016	
13.745	-0.995	-1.016	
13.750	-0.995	-1.012	
13.755	-0.995	-1.007	
13.760	-0.995	-1.002	
13.765	-0.995	-0.999	
13.770	-0.995	-0.996	
13.775	-0.995	-0.995	
13.780	-0.993	-0.994	
13.785	-0.993	-0.993	
13.790	-0.995	-0.993	
13.795	-0.995	-0.993	
13.800	-0.966	-0.992	
13.805	-0.993	-0.990	
13.810	-0.993	-0.988	
13.815	-0.677	-0.973	
13.820	-0.850	-0.934	
13.825	-0.921	-0.894	
13.830	-0.559	-0.860	
13.835	-0.604	-0.806	
13.840	-0.908	-0.755	
13.845	-0.698	-0.734	
13.850	-0.593	-0.722	
13.855	-0.961	-0.714	
13.860	-0.948	-0.738	
13.865	-0.715	-0.779	
13.870	-0.992	-0.810	
13.875	-0.995	-0.847	
13.880	-0.873	-0.886	
13.885	-0.949	-0.912	
13.890	-0.995	-0.930	
13.895	-0.996	-0.949	
13.900	-0.868	-0.961	
13.905	-0.993	-0.962	
13.910	-0.995	-0.962	
13.915	-0.792	-0.959	
13.920	-0.993	-0.945	
13.925	-0.993	-0.938	
13.930	-0.781	-0.935	
13.935	-0.807	-0.916	
13.940	-0.995	-0.894	
13.945	-0.808	-0.884	
13.950	-0.634	-0.866	
13.955	-0.944	-0.837	
13.960	-0.880	-0.825	
13.965	-0.552	-0.817	
13.970	-0.773	-0.790	
13.975	-0.880	-0.768	
13.980	-0.529	-0.757	
13.985	-0.556	-0.727	
13.990	-0.837	-0.692	
13.995	-0.598	-0.678	
14.000	-0.433	-0.660	
14.005	-0.772	-0.632	
14.010	-0.735	-0.627	
14.015	-0.451	-0.633	
14.020	-0.702	-0.627	
14.025	-0.837	-0.633	
14.030	-0.504	-0.651	
14.035	-0.544	-0.651	
14.040	-0.825	-0.642	
14.045	-0.585	-0.647	
14.050	-0.408	-0.642	
14.055	-0.663	-0.616	
14.060	-0.478	-0.591	
14.065	-0.023	-0.546	
14.070	-0.185	-0.456	
14.075	-0.356	-0.362	
14.080	-0.251	-0.302	
14.085	-0.676	-0.287	
14.090	-0.993	-0.347	
14.095	-0.995	-0.481	
14.100	-0.952	-0.640	
14.105	-0.995	-0.779	
14.110	-0.859	-0.879	
14.115	-0.448	-0.912	
14.120	-0.508	-0.864	
14.125	-0.530	-0.773	
14.130	-0.216	-0.668	
14.135	-0.225	-0.548	
14.140	-0.416	-0.437	
14.145	-0.202	-0.361	
14.150	-0.066	-0.297	
14.155	-0.330	-0.242	
14.160	-0.260	-0.215	
14.165	-0.002	-0.202	
14.170	-0.184	-0.179	
14.175	-0.246	-0.163	
14.180	0.119	-0.151	
14.185	0.108	-0.112	
14.190	-0.104	-0.062	
14.195	0.302	-0.016	
14.200	0.657	0.062	
14.205	0.230	0.175	
14.210	0.398	0.268	
14.215	0.866	0.351	
14.220	0.443	0.446	
14.225	0.178	0.500	
14.230	0.559	0.496	
14.235	0.269	0.475	
14.240	-0.177	0.420	
14.245	-0.074	0.307	
14.250	-0.058	0.178	
14.255	-0.401	0.054	
14.260	-0.408	-0.075	
14.265	-0.231	-0.192	
14.270	-0.466	-0.275	
14.275	-0.593	-0.347	
14.280	-0.373	-0.411	
14.285	-0.442	-0.449	
14.290	-0.674	-0.474	
14.295	-0.503	-0.505	
14.300	-0.402	-0.523	
14.305	-0.653	-0.525	
14.310	-0.608	-0.537	
14.315	-0.384	-0.547	
14.320	-0.550	-0.540	
14.325	-0.628	-0.534	
14.330	-0.362	-0.533	
14.335	-0.396	-0.515	
14.340	-0.605	-0.492	
14.345	-0.419	-0.483	
14.350	-0.313	-0.471	
14.355	-0.558	-0.452	
14.360	-0.508	-0.449	
14.365	-0.266	-0.449	
14.370	-0.425	-0.434	
14.375	-0.509	-0.421	
14.380	-0.246	-0.415	
14.385	-0.291	-0.395	
14.390	-0.520	-0.375	
14.395	-0.368	-0.374	
14.400	-0.287	-0.376	
14.405	-0.566	-0.377	
14.410	-0.527	-0.398	
14.415	-0.303	-0.423	
14.420	-0.485	-0.432	
14.425	-0.572	-0.442	
14.430	-0.310	-0.455	
14.435	-0.329	-0.447	
14.440	-0.475	-0.428	
14.445	-0.138	-0.404	
14.450	0.325	-0.338	
14.455	0.061	-0.217	
14.460	0.211	-0.087	
14.465	0.330	0.031	
14.470	-0.440	0.103	
14.475	-0.906	0.052	
14.480	-0.845	-0.126	
14.485	-0.889	-0.351	
14.490	-0.964	-0.562	
14.495	-0.596	-0.720	
14.500	-0.301	-0.778	
14.505	-0.431	-0.738	
14.510	-0.300	-0.650	
14.515	0.020	-0.533	
14.520	-0.148	-0.396	
14.525	-0.219	-0.279	
14.530	0.201	-0.187	
14.535	0.133	-0.093	
14.540	-0.173	-0.016	
14.545	0.084	0.019	
14.550	0.359	0.049	
14.555	-0.049	0.089	
14.560	0.114	0.110	
14.565	0.676	0.139	
14.570	0.397	0.214	
14.575	0.285	0.292	
14.580	0.930	0.364	
14.585	0.979	0.477	
14.590	0.620	0.606	
14.595	1.048	0.708	
14.600	1.318	0.814	
14.605	0.793	0.922	
14.610	0.822	0.977	
14.615	1.194	0.991	
14.620	0.684	0.995	
14.625	0.316	0.946	
14.630	0.611	0.836	
14.635	0.340	0.715	
14.640	-0.141	0.576	
14.645	-0.005	0.404	
14.650	0.075	0.241	
14.655	-0.281	0.111	
14.660	-0.260	-0.009	
14.665	-0.063	-0.106	
14.670	-0.284	-0.165	
14.675	-0.411	-0.212	
14.680	-0.168	-0.254	
14.685	-0.219	-0.273	
14.690	-0.437	-0.280	
14.695	-0.246	-0.294	
14.700	-0.115	-0.294	
14.705	-0.361	-0.279	
14.710	-0.304	-0.272	
14.715	-0.058	-0.266	
14.720	-0.248	-0.245	
14.725	-0.346	-0.231	
14.730	-0.081	-0.228	
14.735	-0.126	-0.214	
14.740	-0.350	-0.199	
14.745	-0.168	-0.201	
14.750	-0.032	-0.198	
14.755	-0.275	-0.183	
14.760	-0.231	-0.180	
14.765	0.006	-0.179	
14.770	-0.208	-0.165	
14.775	-0.318	-0.161	
14.780	-0.081	-0.172	
14.785	-0.136	-0.175	
14.790	-0.370	-0.177	
14.795	-0.217	-0.196	
14.800	-0.109	-0.211	
14.805	-0.362	-0.216	
14.810	-0.309	-0.232	
14.815	-0.068	-0.245	
14.820	-0.239	-0.238	
14.825	-0.286	-0.229	
14.830	0.156	-0.212	
14.835	0.336	-0.148	
14.840	0.119	-0.046	
14.845	0.531	0.064	
14.850	0.550	0.186	
14.855	-0.309	0.273	
14.860	-0.617	0.233	
14.865	-0.614	0.071	
14.870	-0.815	-0.144	
14.875	-0.824	-0.365	
14.880	-0.440	-0.540	
14.885	-0.300	-0.619	
14.890	-0.375	-0.609	
14.895	-0.103	-0.545	
14.900	0.148	-0.432	
14.905	-0.155	-0.296	
14.910	-0.071	-0.185	
14.915	0.382	-0.092	
14.920	0.084	0.006	
14.925	-0.042	0.077	
14.930	0.414	0.117	
14.935	0.356	0.167	
14.940	-0.032	0.212	
14.945	0.333	0.223	
14.950	0.644	0.247	
14.955	0.230	0.298	
14.960	0.421	0.339	
14.965	0.979	0.391	
14.970	0.730	0.488	
14.975	0.611	0.586	
14.980	1.173	0.671	
14.985	1.138	0.777	
14.990	0.673	0.876	
14.995	0.947	0.922	
15.000	1.068	0.942	
15.005	0.427	0.940	
15.010	0.347	0.870	
15.015	0.574	0.753	
15.020	0.035	0.627	
15.025	-0.203	0.470	
15.030	-0.013	0.288	
15.035	-0.119	0.130	
15.040	-0.388	-0.002	
15.045	-0.272	-0.120	
15.050	-0.197	-0.208	
15.055	-0.465	-0.265	
15.060	-0.443	-0.317	
15.065	-0.234	-0.357	
15.070	-0.408	-0.372	
15.075	-0.520	-0.383	
15.080	-0.300	-0.398	
15.085	-0.341	-0.400	
15.090	-0.550	-0.397	
15.095	-0.379	-0.407	
15.100	-0.246	-0.408	
15.105	-0.474	-0.396	
15.110	-0.420	-0.391	
15.115	-0.184	-0.386	
15.120	-0.344	-0.364	
15.125	-0.451	-0.347	
15.130	-0.219	-0.342	
15.135	-0.245	-0.329	
15.140	-0.443	-0.315	
15.145	-0.266	-0.314	
15.150	-0.138	-0.307	
15.155	-0.394	-0.291	
15.160	-0.373	-0.289	
15.165	-0.176	-0.295	
15.170	-0.362	-0.294	
15.175	-0.492	-0.303	
15.180	-0.287	-0.327	
15.185	-0.338	-0.344	
15.190	-0.552	-0.358	
15.195	-0.384	-0.383	
15.200	-0.252	-0.398	
15.205	-0.489	-0.395	
15.210	-0.442	-0.398	
15.215	-0.142	-0.396	
15.220	-0.176	-0.363	
15.225	-0.136	-0.309	
15.230	0.429	-0.227	
15.235	0.307	-0.097	
15.240	-0.355	0.017	
15.245	-0.614	0.023	
15.250	-0.815	-0.089	
15.255	-0.995	-0.277	
15.260	-0.995	-0.494	
15.265	-0.654	-0.677	
15.270	-0.611	-0.777	
15.275	-0.553	-0.794	
15.280	-0.205	-0.745	
15.285	-0.179	-0.636	
15.290	-0.365	-0.508	
15.295	-0.165	-0.401	
15.300	0.017	-0.306	
15.305	-0.252	-0.220	
15.310	-0.202	-0.169	
15.315	0.140	-0.137	
15.320	-0.097	-0.096	
15.325	-0.196	-0.070	
15.330	0.208	-0.057	
15.335	0.243	-0.019	
15.340	-0.063	0.032	
15.345	0.359	0.074	
15.350	0.750	0.145	
15.355	0.405	0.258	
15.360	0.618	0.366	
15.365	1.191	0.483	
15.370	0.913	0.631	
15.375	0.704	0.760	
15.380	1.158	0.843	
15.385	1.048	0.916	
15.390	0.481	0.955	
15.395	0.664	0.922	
15.400	0.762	0.854	
15.405	0.110	0.769	
15.410	0.009	0.631	
15.415	0.304	0.466	
15.420	-0.110	0.323	
15.425	-0.292	0.183	
15.430	-0.089	0.044	
15.435	-0.148	-0.061	
15.440	-0.401	-0.137	
15.445	-0.260	-0.205	
15.450	-0.126	-0.249	
15.455	-0.370	-0.266	
15.460	-0.352	-0.281	
15.465	-0.119	-0.291	
15.470	-0.281	-0.283	
15.475	-0.391	-0.276	
15.480	-0.152	-0.278	
15.485	-0.159	-0.267	
15.490	-0.364	-0.251	
15.495	-0.193	-0.246	
15.500	-0.046	-0.235	
15.505	-0.297	-0.213	
15.510	-0.254	-0.204	
15.515	0.032	-0.198	
15.520	-0.164	-0.175	
15.525	-0.268	-0.157	
15.530	0.038	-0.150	
15.535	0.020	-0.126	
15.540	-0.240	-0.099	
15.545	-0.075	-0.092	
15.550	0.120	-0.084	
15.555	-0.228	-0.068	
15.560	-0.240	-0.074	
15.565	-0.003	-0.096	
15.570	-0.214	-0.110	
15.575	-0.336	-0.132	
15.580	-0.087	-0.164	
15.585	-0.126	-0.178	
15.590	-0.362	-0.185	
15.595	-0.194	-0.202	
15.600	0.006	-0.208	
15.605	-0.179	-0.189	
15.610	0.055	-0.158	
15.615	0.799	-0.081	
15.620	0.683	0.080	
15.625	0.362	0.261	
15.630	0.318	0.381	
15.635	-0.306	0.402	
15.640	-0.824	0.286	
15.645	-0.801	0.050	
15.650	-0.633	-0.217	
15.655	-0.711	-0.436	
15.660	-0.504	-0.582	
15.665	-0.107	-0.630	
15.670	-0.148	-0.578	
15.675	-0.207	-0.473	
15.680	0.195	-0.352	
15.685	0.229	-0.208	
15.690	-0.109	-0.074	
15.695	0.180	0.015	
15.700	0.496	0.090	
15.705	0.084	0.168	
15.710	0.151	0.213	
15.715	0.628	0.243	
15.720	0.371	0.295	
15.725	0.206	0.338	
15.730	0.745	0.368	
15.735	0.806	0.430	
15.740	0.461	0.511	
15.745	0.886	0.577	
15.750	1.256	0.664	
15.755	0.858	0.781	
15.760	0.939	0.874	
15.765	1.387	0.949	
15.770	1.045	1.031	
15.775	0.733	1.074	
15.780	1.072	1.063	
15.785	0.883	1.035	
15.790	0.266	0.973	
15.795	0.388	0.846	
15.800	0.482	0.698	
15.805	-0.074	0.555	
15.810	-0.132	0.392	
15.815	0.117	0.229	
15.820	-0.162	0.104	
15.825	-0.329	-0.001	
15.830	-0.118	-0.096	
15.835	-0.155	-0.158	
15.840	-0.396	-0.198	
15.845	-0.249	-0.236	
15.850	-0.112	-0.257	
15.855	-0.347	-0.258	
15.860	-0.333	-0.264	
15.865	-0.112	-0.270	
15.870	-0.272	-0.261	
15.875	-0.370	-0.256	
15.880	-0.116	-0.258	
15.885	-0.129	-0.246	
15.890	-0.358	-0.228	
15.895	-0.202	-0.225	
15.900	-0.058	-0.220	
15.905	-0.307	-0.206	
15.910	-0.278	-0.205	
15.915	-0.013	-0.207	
15.920	-0.174	-0.192	
15.925	-0.295	-0.179	
15.930	-0.045	-0.177	
15.935	-0.069	-0.165	
15.940	-0.333	-0.152	
15.945	-0.219	-0.161	
15.950	-0.095	-0.176	
15.955	-0.368	-0.187	
15.960	-0.375	-0.213	
15.965	-0.162	-0.246	
15.970	-0.317	-0.264	
15.975	-0.437	-0.280	
15.980	-0.217	-0.302	
15.985	-0.217	-0.307	
15.990	-0.422	-0.302	
15.995	-0.190	-0.302	
16.000	0.212	-0.273	
16.005	-0.006	-0.198	
16.010	0.117	-0.110	
16.015	0.434	-0.016	
16.020	-0.255	0.067	
16.025	-0.779	0.056	
16.030	-0.816	-0.081	
16.035	-0.874	-0.285	
16.040	-0.984	-0.497	
16.045	-0.676	-0.671	
16.050	-0.358	-0.758	
16.055	-0.442	-0.745	
16.060	-0.335	-0.674	
16.065	0.004	-0.566	
16.070	-0.126	-0.429	
16.075	-0.229	-0.304	
16.080	0.137	-0.208	
16.085	0.154	-0.113	
16.090	-0.171	-0.032	
16.095	0.047	0.006	
16.100	0.319	0.036	
16.105	-0.086	0.071	
16.110	-0.042	0.080	
16.115	0.449	0.083	
16.120	0.233	0.119	
16.125	0.090	0.161	
16.130	0.661	0.202	
16.135	0.783	0.286	
16.140	0.457	0.398	
16.145	0.861	0.498	
16.150	1.210	0.612	
16.155	0.765	0.741	
16.160	0.722	0.828	
16.165	1.087	0.870	
16.170	0.655	0.894	
16.175	0.215	0.861	
16.180	0.499	0.759	
16.185	0.302	0.639	
16.190	-0.202	0.504	
16.195	-0.130	0.333	
16.200	-0.037	0.165	
16.205	-0.339	0.027	
16.210	-0.356	-0.096	
16.215	-0.153	-0.194	
16.220	-0.329	-0.252	
16.225	-0.468	-0.293	
16.230	-0.240	-0.329	
16.235	-0.258	-0.341	
16.240	-0.504	-0.343	
16.245	-0.373	-0.356	
16.250	-0.223	-0.365	
16.255	-0.448	-0.360	
16.260	-0.431	-0.363	
16.265	-0.187	-0.366	
16.270	-0.320	-0.352	
16.275	-0.430	-0.338	
16.280	-0.179	-0.332	
16.285	-0.156	-0.311	
16.290	-0.368	-0.283	
16.295	-0.216	-0.268	
16.300	-0.051	-0.250	
16.305	-0.306	-0.224	
16.310	-0.277	-0.213	
16.315	0.024	-0.207	
16.320	-0.167	-0.184	
16.325	-0.301	-0.167	
16.330	-0.052	-0.166	
16.335	-0.071	-0.156	
16.340	-0.333	-0.147	
16.345	-0.216	-0.160	
16.350	-0.068	-0.175	
16.355	-0.339	-0.182	
16.360	-0.347	-0.202	
16.365	-0.106	-0.227	
16.370	-0.249	-0.235	
16.375	-0.379	-0.241	
16.380	-0.113	-0.251	
16.385	0.039	-0.236	
16.390	-0.066	-0.189	
16.395	0.502	-0.113	
16.400	1.007	0.035	
16.405	0.544	0.243	
16.410	0.102	0.401	
16.415	-0.159	0.432	
16.420	-0.634	0.329	
16.425	-0.921	0.109	
16.430	-0.706	-0.167	
16.435	-0.573	-0.405	
16.440	-0.605	-0.561	
16.445	-0.303	-0.631	
16.450	-0.022	-0.605	
16.455	-0.208	-0.507	
16.460	-0.138	-0.391	
16.465	0.359	-0.268	
16.470	0.156	-0.124	
16.475	-0.069	-0.003	
16.480	0.386	0.076	
16.485	0.466	0.155	
16.490	0.091	0.230	
16.495	0.420	0.274	
16.500	0.765	0.323	
16.505	0.363	0.394	
16.510	0.440	0.446	
16.515	0.977	0.491	
16.520	0.803	0.570	
16.525	0.641	0.653	
16.530	1.207	0.725	
16.535	1.320	0.828	
16.540	0.930	0.947	
16.545	1.216	1.033	
16.550	1.469	1.108	
16.555	0.921	1.174	
16.560	0.791	1.179	
16.565	1.089	1.130	
16.570	0.661	1.065	
16.575	0.206	0.957	
16.580	0.473	0.799	
16.585	0.325	0.642	
16.590	-0.174	0.490	
16.595	-0.089	0.320	
16.600	0.059	0.163	
16.605	-0.274	0.045	
16.610	-0.307	-0.058	
16.615	-0.069	-0.142	
16.620	-0.225	-0.188	
16.625	-0.370	-0.217	
16.630	-0.150	-0.243	
16.635	-0.133	-0.248	
16.640	-0.362	-0.240	
16.645	-0.239	-0.243	
16.650	-0.084	-0.242	
16.655	-0.324	-0.231	
16.660	-0.303	-0.230	
16.665	-0.023	-0.232	
16.670	-0.174	-0.214	
16.675	-0.310	-0.197	
16.680	-0.068	-0.192	
16.685	-0.052	-0.177	
16.690	-0.301	-0.159	
16.695	-0.159	-0.158	
16.700	0.061	-0.155	
16.705	-0.217	-0.136	
16.710	-0.222	-0.129	
16.715	0.090	-0.128	
16.720	-0.127	-0.112	
16.725	-0.303	-0.105	
16.730	-0.104	-0.121	
16.735	-0.129	-0.136	
16.740	-0.402	-0.153	
16.745	-0.286	-0.190	
16.750	-0.130	-0.224	
16.755	-0.353	-0.241	
16.760	-0.355	-0.259	
16.765	-0.107	-0.275	
16.770	-0.237	-0.269	
16.775	-0.335	-0.259	
16.780	0.073	-0.244	
16.785	0.348	-0.185	
16.790	0.082	-0.082	
16.795	0.369	0.024	
16.800	0.372	0.127	
16.805	-0.451	0.185	
16.810	-0.818	0.117	
16.815	-0.773	-0.070	
16.820	-0.870	-0.298	
16.825	-0.871	-0.511	
16.830	-0.480	-0.665	
16.835	-0.287	-0.715	
16.840	-0.394	-0.675	
16.845	-0.176	-0.588	
16.850	0.119	-0.466	
16.855	-0.168	-0.325	
16.860	-0.156	-0.213	
16.865	0.227	-0.130	
16.870	0.000	-0.052	
16.875	-0.184	-0.002	
16.880	0.165	0.014	
16.885	0.204	0.035	
16.890	-0.150	0.059	
16.895	0.078	0.059	
16.900	0.446	0.069	
16.905	0.091	0.110	
16.910	0.197	0.148	
16.915	0.785	0.198	
16.920	0.666	0.298	
16.925	0.493	0.413	
16.930	1.002	0.516	
16.935	1.065	0.635	
16.940	0.567	0.747	
16.945	0.758	0.801	
16.950	0.964	0.820	
16.955	0.366	0.819	
16.960	0.171	0.753	
16.965	0.446	0.635	
16.970	0.017	0.510	
16.975	-0.258	0.364	
16.980	-0.101	0.198	
16.985	-0.153	0.051	
16.990	-0.443	-0.070	
16.995	-0.365	-0.181	
17.000	-0.240	-0.268	
17.005	-0.478	-0.322	
17.010	-0.506	-0.368	
17.015	-0.284	-0.404	
17.020	-0.405	-0.416	
17.025	-0.540	-0.420	
17.030	-0.329	-0.429	
17.035	-0.303	-0.423	
17.040	-0.517	-0.409	
17.045	-0.393	-0.406	
17.050	-0.214	-0.400	
17.055	-0.408	-0.380	
17.060	-0.407	-0.366	
17.065	-0.158	-0.355	
17.070	-0.262	-0.330	
17.075	-0.407	-0.307	
17.080	-0.174	-0.296	
17.085	-0.112	-0.277	
17.090	-0.349	-0.250	
17.095	-0.207	-0.238	
17.100	0.023	-0.222	
17.105	-0.249	-0.192	
17.110	-0.266	-0.176	
17.115	0.007	-0.172	
17.120	-0.179	-0.158	
17.125	-0.362	-0.154	
17.130	-0.162	-0.174	
17.135	-0.144	-0.189	
17.140	-0.388	-0.201	
17.145	-0.266	-0.224	
17.150	-0.089	-0.241	
17.155	-0.320	-0.240	
17.160	-0.321	-0.243	
17.165	-0.011	-0.245	
17.170	-0.052	-0.219	
17.175	-0.049	-0.173	
17.180	0.670	-0.095	
17.185	0.912	0.063	
17.190	0.331	0.259	
17.195	-0.011	0.380	
17.200	-0.336	0.368	
17.205	-0.815	0.225	
17.210	-0.918	-0.020	
17.215	-0.643	-0.289	
17.220	-0.581	-0.496	
17.225	-0.541	-0.615	
17.230	-0.181	-0.645	
17.235	-0.008	-0.583	
17.240	-0.193	-0.462	
17.245	0.058	-0.333	
17.250	0.434	-0.192	
17.255	0.035	-0.043	
17.260	0.042	0.064	
17.265	0.533	0.134	
17.270	0.324	0.210	
17.275	0.055	0.266	
17.280	0.559	0.290	
17.285	0.692	0.334	
17.290	0.270	0.396	
17.295	0.583	0.438	
17.300	0.996	0.489	
17.305	0.666	0.574	
17.310	0.750	0.652	
17.315	1.330	0.731	
17.320	1.171	0.846	
17.325	0.922	0.959	
17.330	1.369	1.040	
17.335	1.405	1.121	
17.340	0.872	1.187	
17.345	0.974	1.191	
17.350	1.129	1.155	
17.355	0.513	1.097	
17.360	0.285	0.979	
17.365	0.585	0.817	
17.370	0.220	0.664	
17.375	-0.147	0.507	
17.380	0.082	0.336	
17.385	0.052	0.193	
17.390	-0.291	0.083	
17.395	-0.196	-0.020	
17.400	-0.013	-0.099	
17.405	-0.265	-0.142	
17.410	-0.280	-0.175	
17.415	-0.003	-0.197	
17.420	-0.161	-0.192	
17.425	-0.329	-0.184	
17.430	-0.106	-0.189	
17.435	-0.069	-0.185	
17.440	-0.307	-0.174	
17.445	-0.184	-0.176	
17.450	0.056	-0.174	
17.455	-0.229	-0.154	
17.460	-0.243	-0.146	
17.465	0.099	-0.143	
17.470	-0.083	-0.122	
17.475	-0.268	-0.104	
17.480	-0.019	-0.105	
17.485	0.062	-0.098	
17.490	-0.236	-0.082	
17.495	-0.113	-0.083	
17.500	0.156	-0.083	
17.505	-0.184	-0.066	
17.510	-0.231	-0.067	
17.515	0.021	-0.083	
17.520	-0.164	-0.092	
17.525	-0.344	-0.110	
17.530	-0.127	-0.143	
17.535	-0.103	-0.166	
17.540	-0.364	-0.178	
17.545	-0.260	-0.202	
17.550	-0.072	-0.220	
17.555	-0.291	-0.221	
17.560	-0.266	-0.223	
17.565	0.226	-0.210	
17.570	0.250	-0.145	
17.575	0.108	-0.048	
17.580	0.551	0.056	
17.585	0.322	0.167	
17.590	-0.480	0.224	
17.595	-0.743	0.147	
17.600	-0.758	-0.044	
17.605	-0.941	-0.277	
17.610	-0.841	-0.501	
17.615	-0.426	-0.660	
17.620	-0.342	-0.710	
17.625	-0.370	-0.672	
17.630	-0.038	-0.581	
17.635	0.128	-0.444	
17.640	-0.197	-0.293	
17.645	-0.048	-0.180	
17.650	0.318	-0.090	
17.655	-0.034	-0.003	
17.660	-0.058	0.049	
17.665	0.382	0.076	
17.670	0.189	0.117	
17.675	-0.084	0.146	
17.680	0.339	0.150	
17.685	0.508	0.176	
17.690	0.134	0.224	
17.695	0.449	0.263	
17.700	0.922	0.324	
17.705	0.635	0.429	
17.710	0.692	0.535	
17.715	1.239	0.638	
17.720	1.071	0.767	
17.725	0.718	0.878	
17.730	1.066	0.935	
17.735	1.037	0.970	
17.740	0.434	0.973	
17.745	0.470	0.905	
17.750	0.621	0.796	
17.755	0.032	0.676	
17.760	-0.144	0.518	
17.765	0.082	0.336	
17.770	-0.155	0.178	
17.775	-0.388	0.040	
17.780	-0.226	-0.089	
17.785	-0.208	-0.185	
17.790	-0.468	-0.249	
17.795	-0.394	-0.305	
17.800	-0.223	-0.345	
17.805	-0.437	-0.360	
17.810	-0.477	-0.373	
17.815	-0.243	-0.387	
17.820	-0.333	-0.382	
17.825	-0.495	-0.373	
17.830	-0.301	-0.376	
17.835	-0.249	-0.369	
17.840	-0.465	-0.357	
17.845	-0.350	-0.355	
17.850	-0.144	-0.349	
17.855	-0.341	-0.327	
17.860	-0.373	-0.311	
17.865	-0.118	-0.301	
17.870	-0.225	-0.279	
17.875	-0.376	-0.261	
17.880	-0.139	-0.255	
17.885	-0.074	-0.239	
17.890	-0.326	-0.215	
17.895	-0.220	-0.207	
17.900	0.001	-0.200	
17.905	-0.266	-0.182	
17.910	-0.329	-0.180	
17.915	-0.101	-0.192	
17.920	-0.240	-0.199	
17.925	-0.413	-0.211	
17.930	-0.196	-0.236	
17.935	-0.130	-0.248	
17.940	-0.373	-0.247	
17.945	-0.266	-0.253	
17.950	-0.032	-0.253	
17.955	-0.173	-0.229	
17.960	-0.009	-0.193	
17.965	0.809	-0.111	
17.970	0.840	0.062	
17.975	0.461	0.272	
17.980	0.353	0.423	
17.985	-0.255	0.461	
17.990	-0.813	0.350	
17.995	-0.857	0.104	
18.000	-0.656	-0.183	
18.005	-0.706	-0.423	
18.010	-0.558	-0.584	
18.015	-0.133	-0.646	
18.020	-0.097	-0.599	
18.025	-0.207	-0.491	
18.030	0.156	-0.363	
18.035	0.321	-0.213	
18.040	-0.075	-0.067	
18.045	0.165	0.032	
18.050	0.544	0.112	
18.055	0.165	0.196	
18.060	0.119	0.247	
18.065	0.632	0.274	
18.070	0.489	0.323	
18.075	0.188	0.371	
18.080	0.693	0.397	
18.085	0.903	0.452	
18.090	0.504	0.533	
18.095	0.813	0.601	
18.100	1.317	0.682	
18.105	0.999	0.801	
18.110	0.941	0.908	
18.115	1.431	0.992	
18.120	1.214	1.082	
18.125	0.754	1.139	
18.130	1.032	1.130	
18.135	1.017	1.095	
18.140	0.372	1.034	
18.145	0.366	0.911	
18.150	0.573	0.760	
18.155	0.017	0.616	
18.160	-0.142	0.453	
18.165	0.149	0.284	
18.170	-0.077	0.152	
18.175	-0.317	0.044	
18.180	-0.136	-0.056	
18.185	-0.087	-0.126	
18.190	-0.355	-0.168	
18.195	-0.263	-0.207	
18.200	-0.040	-0.230	
18.205	-0.272	-0.227	
18.210	-0.329	-0.226	
18.215	-0.077	-0.230	
18.220	-0.179	-0.220	
18.225	-0.353	-0.211	
18.230	-0.129	-0.214	
18.235	-0.046	-0.207	
18.240	-0.306	-0.189	
18.245	-0.199	-0.185	
18.250	0.067	-0.178	
18.255	-0.199	-0.154	
18.260	-0.240	-0.140	
18.265	0.097	-0.134	
18.270	-0.049	-0.111	
18.275	-0.248	-0.091	
18.280	-0.005	-0.089	
18.285	0.096	-0.079	
18.290	-0.237	-0.062	
18.295	-0.144	-0.066	
18.300	0.128	-0.075	
18.305	-0.213	-0.069	
18.310	-0.297	-0.081	
18.315	-0.048	-0.112	
18.320	-0.161	-0.132	
18.325	-0.350	-0.150	
18.330	-0.145	-0.178	
18.335	-0.058	-0.191	
18.340	-0.312	-0.189	
18.345	-0.179	-0.193	
18.350	0.296	-0.176	
18.355	0.154	-0.109	
18.360	0.261	-0.016	
18.365	0.809	0.101	
18.370	0.444	0.247	
18.375	-0.326	0.337	
18.380	-0.537	0.284	
18.385	-0.702	0.109	
18.390	-0.958	-0.131	
18.395	-0.776	-0.381	
18.400	-0.422	-0.569	
18.405	-0.425	-0.651	
18.410	-0.336	-0.645	
18.415	0.101	-0.570	
18.420	0.047	-0.431	
18.425	-0.161	-0.282	
18.430	0.217	-0.159	
18.435	0.380	-0.039	
18.440	-0.061	0.069	
18.445	0.105	0.126	
18.450	0.501	0.161	
18.455	0.128	0.206	
18.460	0.062	0.227	
18.465	0.586	0.235	
18.470	0.487	0.275	
18.475	0.183	0.324	
18.480	0.670	0.359	
18.485	0.935	0.423	
18.490	0.577	0.520	
18.495	0.855	0.608	
18.500	1.335	0.706	
18.505	1.000	0.833	
18.510	0.892	0.936	
18.515	1.309	1.003	
18.520	1.081	1.063	
18.525	0.579	1.083	
18.530	0.802	1.033	
18.535	0.761	0.954	
18.540	0.093	0.850	
18.545	0.073	0.689	
18.550	0.299	0.508	
18.555	-0.145	0.349	
18.560	-0.269	0.195	
18.565	-0.046	0.049	
18.570	-0.179	-0.057	
18.575	-0.407	-0.135	
18.580	-0.236	-0.206	
18.585	-0.177	-0.251	
18.590	-0.433	-0.274	
18.595	-0.362	-0.300	
18.600	-0.181	-0.319	
18.605	-0.393	-0.321	
18.610	-0.459	-0.328	
18.615	-0.210	-0.342	
18.620	-0.263	-0.338	
18.625	-0.436	-0.327	
18.630	-0.229	-0.325	
18.635	-0.133	-0.311	
18.640	-0.376	-0.287	
18.645	-0.295	-0.277	
18.650	-0.071	-0.269	
18.655	-0.280	-0.248	
18.660	-0.341	-0.237	
18.665	-0.058	-0.235	
18.670	-0.118	-0.217	
18.675	-0.309	-0.196	
18.680	-0.101	-0.188	
18.685	-0.005	-0.173	
18.690	-0.298	-0.153	
18.695	-0.252	-0.154	
18.700	-0.064	-0.166	
18.705	-0.304	-0.173	
18.710	-0.391	-0.194	
18.715	-0.152	-0.225	
18.720	-0.208	-0.241	
18.725	-0.394	-0.248	
18.730	-0.200	-0.262	
18.735	-0.086	-0.260	
18.740	-0.303	-0.243	
18.745	-0.071	-0.225	
18.750	0.664	-0.164	
18.755	0.592	-0.019	
18.760	0.565	0.168	
18.765	0.794	0.345	
18.770	-0.071	0.464	
18.775	-0.700	0.435	
18.780	-0.758	0.238	
18.785	-0.734	-0.039	
18.790	-0.854	-0.310	
18.795	-0.610	-0.527	
18.800	-0.236	-0.643	
18.805	-0.275	-0.644	
18.810	-0.262	-0.574	
18.815	0.149	-0.463	
18.820	0.110	-0.317	
18.825	-0.141	-0.176	
18.830	0.227	-0.071	
18.835	0.432	0.028	
18.840	0.001	0.122	
18.845	0.168	0.173	
18.850	0.632	0.211	
18.855	0.279	0.270	
18.860	0.192	0.313	
18.865	0.771	0.342	
18.870	0.733	0.408	
18.875	0.424	0.487	
18.880	0.901	0.551	
18.885	1.214	0.639	
18.890	0.870	0.759	
18.895	1.054	0.862	
18.900	1.472	0.959	
18.905	1.086	1.065	
18.910	0.913	1.130	
18.915	1.291	1.148	
18.920	1.029	1.153	
18.925	0.473	1.120	
18.930	0.660	1.018	
18.935	0.644	0.893	
18.940	0.021	0.757	
18.945	0.006	0.583	
18.950	0.258	0.403	
18.955	-0.147	0.257	
18.960	-0.262	0.125	
18.965	-0.023	0.004	
18.970	-0.139	-0.076	
18.975	-0.370	-0.133	
18.980	-0.194	-0.186	
18.985	-0.092	-0.217	
18.990	-0.342	-0.225	
18.995	-0.278	-0.236	
19.000	-0.045	-0.242	
19.005	-0.263	-0.229	
19.010	-0.339	-0.222	
19.015	-0.080	-0.225	
19.020	-0.141	-0.215	
19.025	-0.326	-0.201	
19.030	-0.121	-0.200	
19.035	0.015	-0.188	
19.040	-0.265	-0.164	
19.045	-0.190	-0.154	
19.050	0.107	-0.146	
19.055	-0.158	-0.121	
19.060	-0.239	-0.107	
19.065	0.105	-0.105	
19.070	0.007	-0.085	
19.075	-0.248	-0.066	
19.080	-0.058	-0.069	
19.085	0.050	-0.073	
19.090	-0.275	-0.072	
19.095	-0.236	-0.092	
19.100	-0.023	-0.120	
19.105	-0.260	-0.137	
19.110	-0.342	-0.161	
19.115	-0.078	-0.190	
19.120	-0.150	-0.199	
19.125	-0.355	-0.201	
19.130	-0.165	-0.212	
19.135	0.007	-0.209	
19.140	-0.177	-0.185	
19.145	0.081	-0.151	
19.150	0.704	-0.075	
19.155	0.434	0.065	
19.160	0.082	0.198	
19.165	-0.048	0.253	
19.170	-0.533	0.207	
19.175	-0.948	0.052	
19.180	-0.830	-0.185	
19.185	-0.647	-0.417	
19.190	-0.692	-0.584	
19.195	-0.457	-0.673	
19.200	-0.078	-0.671	
19.205	-0.173	-0.582	
19.210	-0.205	-0.460	
19.215	0.224	-0.332	
19.220	0.171	-0.188	
19.225	-0.130	-0.063	
19.230	0.186	0.015	
19.235	0.391	0.080	
19.240	-0.052	0.139	
19.245	0.049	0.158	
19.250	0.490	0.163	
19.255	0.180	0.191	
19.260	0.082	0.213	
19.265	0.637	0.229	
19.270	0.657	0.288	
19.275	0.365	0.371	
19.280	0.828	0.445	
19.285	1.129	0.545	
19.290	0.751	0.670	
19.295	0.901	0.771	
19.300	1.318	0.857	
19.305	0.924	0.947	
19.310	0.654	0.993	
19.315	0.979	0.980	
19.320	0.719	0.947	
19.325	0.136	0.873	
19.330	0.305	0.736	
19.335	0.328	0.582	
19.340	-0.190	0.435	
19.345	-0.216	0.270	
19.350	-0.051	0.108	
19.355	-0.298	-0.020	
19.360	-0.419	-0.129	
19.365	-0.217	-0.221	
19.370	-0.280	-0.277	
19.375	-0.494	-0.313	
19.380	-0.339	-0.347	
19.385	-0.243	-0.365	
19.390	-0.475	-0.366	
19.395	-0.436	-0.375	
19.400	-0.232	-0.382	
19.405	-0.404	-0.376	
19.410	-0.483	-0.374	
19.415	-0.231	-0.377	
19.420	-0.251	-0.365	
19.425	-0.430	-0.345	
19.430	-0.254	-0.334	
19.435	-0.141	-0.317	
19.440	-0.388	-0.293	
19.445	-0.342	-0.285	
19.450	-0.109	-0.283	
19.455	-0.271	-0.268	
19.460	-0.350	-0.258	
19.465	-0.093	-0.254	
19.470	-0.135	-0.236	
19.475	-0.352	-0.217	
19.480	-0.188	-0.215	
19.485	-0.107	-0.213	
19.490	-0.391	-0.209	
19.495	-0.370	-0.227	
19.500	-0.153	-0.253	
19.505	-0.330	-0.265	
19.510	-0.416	-0.279	
19.515	-0.177	-0.297	
19.520	-0.220	-0.296	
19.525	-0.411	-0.289	
19.530	-0.200	-0.289	
19.535	0.093	-0.269	
19.540	-0.043	-0.212	
19.545	0.351	-0.129	
19.550	0.997	0.013	
19.555	0.605	0.216	
19.560	-0.107	0.373	
19.565	-0.335	0.384	
19.570	-0.689	0.251	
19.575	-0.992	0.014	
19.580	-0.802	-0.265	
19.585	-0.544	-0.498	
19.590	-0.561	-0.634	
19.595	-0.349	-0.677	
19.600	0.044	-0.629	
19.605	-0.107	-0.506	
19.610	-0.167	-0.368	
19.615	0.275	-0.240	
19.620	0.272	-0.102	
19.625	-0.068	0.019	
19.630	0.269	0.094	
19.635	0.510	0.158	
19.640	0.072	0.224	
19.645	0.221	0.255	
19.650	0.736	0.281	
19.655	0.507	0.343	
19.660	0.374	0.409	
19.665	0.915	0.466	
19.670	0.981	0.554	
19.675	0.709	0.661	
19.680	1.173	0.756	
19.685	1.477	0.873	
19.690	1.032	1.007	
19.695	1.110	1.102	
19.700	1.486	1.164	
19.705	1.060	1.217	
19.710	0.728	1.218	
19.715	1.051	1.159	
19.720	0.814	1.084	
19.725	0.214	0.980	
19.730	0.360	0.822	
19.735	0.414	0.655	
19.740	-0.136	0.501	
19.745	-0.162	0.331	
19.750	0.073	0.169	
19.755	-0.202	0.048	
19.760	-0.341	-0.052	
19.765	-0.116	-0.137	
19.770	-0.138	-0.187	
19.775	-0.356	-0.211	
19.780	-0.210	-0.233	
19.785	-0.104	-0.241	
19.790	-0.347	-0.236	
19.795	-0.309	-0.241	
19.800	-0.080	-0.247	
19.805	-0.251	-0.238	
19.810	-0.344	-0.232	
19.815	-0.080	-0.233	
19.820	-0.100	-0.219	
19.825	-0.312	-0.198	
19.830	-0.138	-0.192	
19.835	0.015	-0.179	
19.840	-0.268	-0.157	
19.845	-0.228	-0.152	
19.850	0.062	-0.152	
19.855	-0.161	-0.136	
19.860	-0.262	-0.127	
19.865	0.024	-0.130	
19.870	-0.026	-0.118	
19.875	-0.280	-0.105	
19.880	-0.138	-0.112	
19.885	-0.020	-0.122	
19.890	-0.318	-0.127	
19.895	-0.312	-0.151	
19.900	-0.107	-0.183	
19.905	-0.284	-0.202	
19.910	-0.393	-0.224	
19.915	-0.150	-0.250	
19.920	-0.171	-0.256	
19.925	-0.365	-0.251	
19.930	-0.162	-0.252	
19.935	0.174	-0.229	
19.940	-0.051	-0.170	
19.945	0.165	-0.098	
19.950	0.649	-0.002	
19.955	0.124	0.119	
19.960	-0.430	0.178	
19.965	-0.601	0.112	
19.970	-0.828	-0.054	
19.975	-0.995	-0.276	
19.980	-0.779	-0.500	
19.985	-0.480	-0.658	
19.990	-0.514	-0.718	
19.995	-0.342	-0.701	
20.000	0.044	-0.616	
20.005	-0.100	-0.477	
20.010	-0.185	-0.336	
20.015	0.201	-0.217	
20.020	0.183	-0.100	
20.025	-0.144	-0.005	
20.030	0.130	0.044	
20.035	0.388	0.083	
20.040	-0.037	0.127	
20.045	0.070	0.143	
20.050	0.574	0.156	
20.055	0.336	0.205	
20.060	0.206	0.258	
20.065	0.745	0.306	
20.070	0.806	0.388	
20.075	0.482	0.488	
20.080	0.912	0.571	
20.085	1.254	0.671	
20.090	0.835	0.792	
20.095	0.886	0.882	
20.100	1.286	0.942	
20.105	0.874	0.998	
20.110	0.496	1.004	
20.115	0.790	0.945	
20.120	0.562	0.862	
20.125	-0.052	0.749	
20.130	0.050	0.578	
20.135	0.139	0.396	
20.140	-0.265	0.236	
20.145	-0.300	0.082	
20.150	-0.127	-0.054	
20.155	-0.332	-0.152	
20.160	-0.468	-0.230	
20.165	-0.255	-0.297	
20.170	-0.283	-0.333	
20.175	-0.509	-0.350	
20.180	-0.373	-0.372	
20.185	-0.251	-0.383	
20.190	-0.480	-0.380	
20.195	-0.456	-0.386	
20.200	-0.245	-0.393	
20.205	-0.393	-0.385	
20.210	-0.494	-0.381	
20.215	-0.252	-0.384	
20.220	-0.263	-0.373	
20.225	-0.465	-0.356	
20.230	-0.301	-0.351	
20.235	-0.168	-0.340	
20.240	-0.405	-0.321	
20.245	-0.376	-0.314	
20.250	-0.129	-0.313	
20.255	-0.275	-0.296	
20.260	-0.382	-0.282	
20.265	-0.144	-0.278	
20.270	-0.164	-0.263	
20.275	-0.399	-0.247	
20.280	-0.265	-0.250	
20.285	-0.155	-0.256	
20.290	-0.419	-0.257	
20.295	-0.426	-0.276	
20.300	-0.214	-0.302	
20.305	-0.359	-0.316	
20.310	-0.460	-0.328	
20.315	-0.220	-0.343	
20.320	-0.211	-0.338	
20.325	-0.410	-0.322	
20.330	-0.177	-0.310	
20.335	0.292	-0.269	
20.340	0.171	-0.173	
20.345	0.467	-0.043	
20.350	0.942	0.124	
20.355	0.208	0.301	
20.360	-0.514	0.371	
20.365	-0.662	0.269	
20.370	-0.828	0.046	
20.375	-0.992	-0.225	
20.380	-0.703	-0.479	
20.385	-0.382	-0.643	
20.390	-0.436	-0.694	
20.395	-0.306	-0.662	
20.400	0.124	-0.567	
20.405	-0.031	-0.420	
20.410	-0.141	-0.274	
20.415	0.285	-0.152	
20.420	0.308	-0.031	
20.425	-0.075	0.073	
20.430	0.206	0.127	
20.435	0.513	0.170	
20.440	0.091	0.220	
20.445	0.195	0.246	
20.450	0.765	0.270	
20.455	0.582	0.339	
20.460	0.440	0.420	
20.465	1.014	0.496	
20.470	1.142	0.608	
20.475	0.823	0.742	
20.480	1.197	0.854	
20.485	1.508	0.970	
20.490	1.065	1.091	
20.495	1.097	1.168	
20.500	1.505	1.210	
20.505	1.107	1.248	
20.510	0.672	1.239	
20.515	0.950	1.163	
20.520	0.751	1.064	
20.525	0.093	0.936	
20.530	0.197	0.753	
20.535	0.331	0.562	
20.540	-0.161	0.396	
20.545	-0.199	0.233	
20.550	0.058	0.087	
20.555	-0.193	-0.014	
20.560	-0.365	-0.093	
20.565	-0.138	-0.164	
20.570	-0.141	-0.204	
20.575	-0.367	-0.223	
20.580	-0.226	-0.242	
20.585	-0.069	-0.247	
20.590	-0.309	-0.235	
20.595	-0.298	-0.232	
20.600	-0.034	-0.230	
20.605	-0.208	-0.214	
20.610	-0.342	-0.203	
20.615	-0.092	-0.205	
20.620	-0.069	-0.196	
20.625	-0.300	-0.180	
20.630	-0.135	-0.176	
20.635	0.099	-0.163	
20.640	-0.220	-0.134	
20.645	-0.196	-0.120	
20.650	0.171	-0.111	
20.655	-0.046	-0.082	
20.660	-0.199	-0.058	
20.665	0.139	-0.049	
20.670	0.149	-0.026	
20.675	-0.207	0.001	
20.680	-0.071	-0.001	
20.685	0.101	-0.013	
20.690	-0.242	-0.022	
20.695	-0.242	-0.051	
20.700	0.024	-0.088	
20.705	-0.165	-0.107	
20.710	-0.295	-0.124	
20.715	-0.031	-0.146	
20.720	-0.017	-0.147	
20.725	-0.239	-0.134	
20.730	0.052	-0.124	
20.735	0.563	-0.076	
20.740	0.327	0.031	
20.745	0.432	0.154	
20.750	0.771	0.277	
20.755	0.018	0.378	
20.760	-0.529	0.371	
20.765	-0.588	0.224	
20.770	-0.676	0.000	
20.775	-0.831	-0.238	
20.780	-0.572	-0.445	
20.785	-0.251	-0.567	
20.790	-0.318	-0.587	
20.795	-0.200	-0.539	
20.800	0.281	-0.436	
20.805	0.148	-0.281	
20.810	-0.035	-0.128	
20.815	0.406	-0.007	
20.820	0.444	0.110	
20.825	0.035	0.209	
20.830	0.336	0.258	
20.835	0.654	0.297	
20.840	0.255	0.349	
20.845	0.319	0.379	
20.850	0.842	0.403	
20.855	0.643	0.463	
20.860	0.450	0.526	
20.865	0.994	0.577	
20.870	1.132	0.660	
20.875	0.777	0.765	
20.880	1.141	0.853	
20.885	1.485	0.948	
20.890	1.061	1.058	
20.895	1.049	1.132	
20.900	1.433	1.171	
20.905	1.032	1.203	
20.910	0.574	1.184	
20.915	0.823	1.095	
20.920	0.669	0.982	
20.925	0.044	0.847	
20.930	0.139	0.666	
20.935	0.259	0.481	
20.940	-0.185	0.323	
20.945	-0.229	0.170	
20.950	-0.005	0.033	
20.955	-0.200	-0.060	
20.960	-0.359	-0.130	
20.965	-0.153	-0.190	
20.970	-0.148	-0.222	
20.975	-0.391	-0.236	
20.980	-0.272	-0.254	
20.985	-0.119	-0.265	
20.990	-0.358	-0.262	
20.995	-0.365	-0.267	
21.000	-0.121	-0.276	
21.005	-0.246	-0.269	
21.010	-0.373	-0.261	
21.015	-0.132	-0.261	
21.020	-0.098	-0.247	
21.025	-0.336	-0.225	
21.030	-0.202	-0.217	
21.035	-0.006	-0.208	
21.040	-0.266	-0.187	
21.045	-0.272	-0.180	
21.050	0.032	-0.179	
21.055	-0.135	-0.161	
21.060	-0.280	-0.147	
21.065	-0.011	-0.145	
21.070	0.012	-0.131	
21.075	-0.277	-0.112	
21.080	-0.171	-0.115	
21.085	-0.019	-0.124	
21.090	-0.294	-0.129	
21.095	-0.317	-0.151	
21.100	-0.089	-0.180	
21.105	-0.237	-0.195	
21.110	-0.388	-0.210	
21.115	-0.164	-0.233	
21.120	-0.139	-0.241	
21.125	-0.336	-0.236	
21.130	-0.089	-0.232	
21.135	0.440	-0.190	
21.140	0.255	-0.087	
21.145	0.350	0.040	
21.150	0.657	0.170	
21.155	-0.148	0.272	
21.160	-0.706	0.256	
21.165	-0.740	0.095	
21.170	-0.767	-0.138	
21.175	-0.873	-0.372	
21.180	-0.576	-0.561	
21.185	-0.239	-0.655	
21.190	-0.326	-0.644	
21.195	-0.249	-0.572	
21.200	0.163	-0.462	
21.205	-0.005	-0.319	
21.210	-0.170	-0.191	
21.215	0.203	-0.099	
21.220	0.263	-0.012	
21.225	-0.130	0.060	
21.230	0.081	0.088	
21.235	0.405	0.106	
21.240	0.001	0.136	
21.245	0.000	0.145	
21.250	0.518	0.146	
21.255	0.354	0.184	
21.260	0.148	0.232	
21.265	0.709	0.275	
21.270	0.887	0.359	
21.275	0.508	0.472	
21.280	0.826	0.566	
21.285	1.173	0.662	
21.290	0.718	0.766	
21.295	0.608	0.825	
21.300	1.003	0.837	
21.305	0.672	0.840	
21.310	0.226	0.805	
21.315	0.489	0.714	
21.320	0.369	0.610	
21.325	-0.177	0.494	
21.330	-0.142	0.341	
21.335	-0.040	0.179	
21.340	-0.352	0.040	
21.345	-0.422	-0.090	
21.350	-0.228	-0.202	
21.355	-0.379	-0.279	
21.360	-0.564	-0.336	
21.365	-0.379	-0.389	
21.370	-0.368	-0.422	
21.375	-0.602	-0.439	
21.380	-0.483	-0.461	
21.385	-0.312	-0.474	
21.390	-0.512	-0.467	
21.395	-0.517	-0.463	
21.400	-0.272	-0.460	
21.405	-0.368	-0.439	
21.410	-0.495	-0.417	
21.415	-0.258	-0.404	
21.420	-0.197	-0.379	
21.425	-0.404	-0.345	
21.430	-0.265	-0.324	
21.435	-0.060	-0.299	
21.440	-0.295	-0.263	
21.445	-0.303	-0.241	
21.450	-0.020	-0.228	
21.455	-0.148	-0.202	
21.460	-0.287	-0.180	
21.465	-0.017	-0.170	
21.470	0.055	-0.146	
21.475	-0.257	-0.115	
21.480	-0.147	-0.106	
21.485	0.061	-0.105	
21.490	-0.255	-0.098	
21.495	-0.292	-0.111	
21.500	-0.029	-0.137	
21.505	-0.176	-0.148	
21.510	-0.326	-0.159	
21.515	-0.075	-0.177	
21.520	-0.022	-0.176	
21.525	-0.283	-0.162	
21.530	-0.092	-0.156	
21.535	0.487	-0.124	
21.540	0.385	-0.026	
21.545	0.609	0.112	
21.550	1.156	0.287	
21.555	0.617	0.483	
21.560	-0.306	0.587	
21.565	-0.518	0.506	
21.570	-0.714	0.278	
21.575	-0.963	-0.020	
21.580	-0.766	-0.320	
21.585	-0.439	-0.543	
21.590	-0.466	-0.650	
21.595	-0.361	-0.663	
21.600	0.027	-0.600	
21.605	-0.058	-0.476	
21.610	-0.210	-0.340	
21.615	0.163	-0.225	
21.620	0.293	-0.108	
21.625	-0.112	-0.001	
21.630	0.068	0.058	
21.635	0.411	0.096	
21.640	0.003	0.139	
21.645	-0.016	0.152	
21.650	0.515	0.154	
21.655	0.392	0.191	
21.660	0.194	0.242	
21.665	0.728	0.293	
21.670	0.919	0.382	
21.675	0.513	0.498	
21.680	0.861	0.592	
21.685	1.310	0.693	
21.690	0.913	0.817	
21.695	0.834	0.911	
21.700	1.240	0.965	
21.705	0.910	1.009	
21.710	0.441	1.005	
21.715	0.704	0.934	
21.720	0.608	0.839	
21.725	-0.038	0.725	
21.730	0.003	0.559	
21.735	0.186	0.382	
21.740	-0.234	0.231	
21.745	-0.333	0.085	
21.750	-0.142	-0.050	
21.755	-0.300	-0.150	
21.760	-0.497	-0.228	
21.765	-0.320	-0.299	
21.770	-0.297	-0.345	
21.775	-0.535	-0.371	
21.780	-0.437	-0.398	
21.785	-0.277	-0.416	
21.790	-0.475	-0.416	
21.795	-0.494	-0.418	
21.800	-0.266	-0.422	
21.805	-0.353	-0.410	
21.810	-0.506	-0.396	
21.815	-0.292	-0.393	
21.820	-0.240	-0.380	
21.825	-0.465	-0.361	
21.830	-0.346	-0.355	
21.835	-0.147	-0.346	
21.840	-0.353	-0.324	
21.845	-0.378	-0.310	
21.850	-0.127	-0.303	
21.855	-0.234	-0.284	
21.860	-0.393	-0.267	
21.865	-0.182	-0.265	
21.870	-0.127	-0.256	
21.875	-0.368	-0.242	
21.880	-0.280	-0.243	
21.885	-0.129	-0.247	
21.890	-0.371	-0.246	
21.895	-0.423	-0.259	
21.900	-0.214	-0.284	
21.905	-0.326	-0.298	
21.910	-0.482	-0.312	
21.915	-0.274	-0.334	
21.920	-0.216	-0.340	
21.925	-0.433	-0.333	
21.930	-0.286	-0.331	
21.935	0.072	-0.312	
21.940	-0.063	-0.255	
21.945	0.064	-0.179	
21.950	0.609	-0.078	
21.955	0.214	0.056	
21.960	-0.425	0.139	
21.965	-0.596	0.098	
21.970	-0.755	-0.050	
21.975	-0.989	-0.256	
21.980	-0.792	-0.473	
21.985	-0.448	-0.632	
21.990	-0.456	-0.692	
21.995	-0.347	-0.673	
22.000	0.073	-0.589	
22.005	0.007	-0.448	
22.010	-0.174	-0.300	
22.015	0.218	-0.177	
22.020	0.362	-0.056	
22.025	-0.061	0.055	
22.030	0.142	0.117	
22.035	0.551	0.161	
22.040	0.166	0.219	
22.045	0.124	0.253	
22.050	0.640	0.272	
22.055	0.525	0.320	
22.060	0.272	0.375	
22.065	0.783	0.418	
22.070	1.000	0.493	
22.075	0.661	0.598	
22.080	0.965	0.691	
22.085	1.407	0.794	
22.090	1.060	0.921	
22.095	0.991	1.022	
22.100	1.425	1.089	
22.105	1.168	1.152	
22.110	0.681	1.176	
22.115	0.919	1.129	
22.120	0.845	1.053	
22.125	0.181	0.950	
22.130	0.194	0.789	
22.135	0.377	0.608	
22.140	-0.124	0.444	
22.145	-0.240	0.277	
22.150	-0.020	0.115	
22.155	-0.194	-0.008	
22.160	-0.399	-0.104	
22.165	-0.220	-0.188	
22.170	-0.177	-0.242	
22.175	-0.430	-0.270	
22.180	-0.352	-0.298	
22.185	-0.174	-0.317	
22.190	-0.388	-0.318	
22.195	-0.414	-0.323	
22.200	-0.159	-0.329	
22.205	-0.257	-0.317	
22.210	-0.434	-0.304	
22.215	-0.232	-0.304	
22.220	-0.150	-0.296	
22.225	-0.384	-0.280	
22.230	-0.292	-0.276	
22.235	-0.074	-0.271	
22.240	-0.281	-0.252	
22.245	-0.317	-0.240	
22.250	-0.051	-0.234	
22.255	-0.152	-0.215	
22.260	-0.318	-0.196	
22.265	-0.086	-0.191	
22.270	0.023	-0.175	
22.275	-0.278	-0.150	
22.280	-0.194	-0.143	
22.285	0.036	-0.142	
22.290	-0.252	-0.133	
22.295	-0.329	-0.141	
22.300	-0.104	-0.165	
22.305	-0.222	-0.182	
22.310	-0.404	-0.200	
22.315	-0.199	-0.229	
22.320	-0.112	-0.243	
22.325	-0.355	-0.241	
22.330	-0.228	-0.244	
22.335	0.197	-0.229	
22.340	0.130	-0.165	
22.345	0.363	-0.066	
22.350	1.071	0.084	
22.355	0.892	0.299	
22.360	0.049	0.483	
22.365	-0.265	0.518	
22.370	-0.549	0.392	
22.375	-0.902	0.154	
22.380	-0.792	-0.137	
22.385	-0.465	-0.391	
22.390	-0.459	-0.544	
22.395	-0.349	-0.599	
22.400	0.101	-0.564	
22.405	0.108	-0.445	
22.410	-0.097	-0.294	
22.415	0.343	-0.153	
22.420	0.522	-0.005	
22.425	0.093	0.138	
22.430	0.305	0.229	
22.435	0.701	0.296	
22.440	0.343	0.369	
22.445	0.292	0.415	
22.450	0.843	0.442	
22.455	0.783	0.501	
22.460	0.521	0.573	
22.465	1.011	0.634	
22.470	1.291	0.723	
22.475	0.948	0.843	
22.480	1.242	0.951	
22.485	1.723	1.066	
22.490	1.398	1.207	
22.495	1.288	1.321	
22.500	1.718	1.396	
22.505	1.488	1.462	
22.510	1.029	1.489	
22.515	1.306	1.451	
22.520	1.260	1.391	
22.525	0.594	1.308	
22.530	0.562	1.165	
22.535	0.765	0.994	
22.540	0.240	0.835	
22.545	-0.016	0.659	
22.550	0.307	0.474	
22.555	0.085	0.328	
22.560	-0.210	0.207	
22.565	-0.006	0.094	
22.570	0.114	0.016	
22.575	-0.232	-0.026	
22.580	-0.161	-0.065	
22.585	0.124	-0.092	
22.590	-0.159	-0.092	
22.595	-0.210	-0.094	
22.600	0.120	-0.098	
22.605	-0.026	-0.082	
22.610	-0.240	-0.067	
22.615	0.006	-0.070	
22.620	0.197	-0.060	
22.625	-0.148	-0.033	
22.630	-0.034	-0.019	
22.635	0.359	-0.003	
22.640	0.032	0.039	
22.645	-0.028	0.071	
22.650	0.435	0.092	
22.655	0.318	0.139	
22.660	0.010	0.186	
22.665	0.408	0.210	
22.670	0.554	0.246	
22.675	0.116	0.294	
22.680	0.298	0.313	
22.685	0.664	0.328	
22.690	0.279	0.363	
22.695	0.149	0.376	
22.700	0.571	0.367	
22.705	0.389	0.372	
22.710	0.038	0.370	
22.715	0.452	0.343	
22.720	0.608	0.338	
22.725	0.163	0.357	
22.730	0.357	0.361	
22.735	0.809	0.374	
22.740	0.660	0.433	
22.745	0.825	0.518	
22.750	1.537	0.642	
22.755	1.505	0.834	
22.760	0.985	1.029	
22.765	0.758	1.131	
22.770	0.142	1.094	
22.775	-0.446	0.901	
22.780	-0.445	0.585	
22.785	-0.184	0.252	
22.790	-0.216	-0.006	
22.795	-0.093	-0.165	
22.800	0.592	-0.203	
22.805	0.672	-0.104	
22.810	0.435	0.074	
22.815	0.903	0.260	
22.820	1.110	0.459	
22.825	0.698	0.648	
22.830	0.838	0.776	
22.835	1.211	0.861	
22.840	0.834	0.933	
22.845	0.745	0.963	
22.850	1.259	0.966	
22.855	1.173	0.993	
22.860	0.842	1.029	
22.865	1.242	1.045	
22.870	1.457	1.081	
22.875	1.089	1.141	
22.880	1.317	1.189	
22.885	1.752	1.245	
22.890	1.413	1.331	
22.895	1.335	1.400	
22.900	1.783	1.446	
22.905	1.608	1.503	
22.910	1.121	1.535	
22.915	1.321	1.507	
22.920	1.271	1.447	
22.925	0.621	1.357	
22.930	0.589	1.206	
22.935	0.771	1.028	
22.940	0.233	0.859	
22.945	-0.035	0.674	
22.950	0.255	0.477	
22.955	0.020	0.315	
22.960	-0.243	0.180	
22.965	-0.090	0.054	
22.970	-0.049	-0.039	
22.975	-0.317	-0.101	
22.980	-0.263	-0.157	
22.985	-0.068	-0.197	
22.990	-0.265	-0.211	
22.995	-0.342	-0.222	
23.000	-0.127	-0.237	
23.005	-0.207	-0.237	
23.010	-0.391	-0.236	
23.015	-0.214	-0.248	
23.020	-0.127	-0.252	
23.025	-0.356	-0.245	
23.030	-0.281	-0.248	
23.035	-0.075	-0.250	
23.040	-0.265	-0.237	
23.045	-0.333	-0.230	
23.050	-0.101	-0.232	
23.055	-0.190	-0.223	
23.060	-0.382	-0.218	
23.065	-0.191	-0.228	
23.070	-0.103	-0.231	
23.075	-0.346	-0.224	
23.080	-0.300	-0.229	
23.085	-0.127	-0.239	
23.090	-0.352	-0.242	
23.095	-0.466	-0.258	
23.100	-0.274	-0.291	
23.105	-0.362	-0.316	
23.110	-0.564	-0.343	
23.115	-0.414	-0.380	
23.120	-0.338	-0.408	
23.125	-0.559	-0.423	
23.130	-0.515	-0.443	
23.135	-0.326	-0.460	
23.140	-0.437	-0.457	
23.145	-0.413	-0.446	
23.150	-0.078	-0.420	
23.155	-0.075	-0.359	
23.160	-0.298	-0.288	
23.165	-0.317	-0.245	
23.170	-0.608	-0.250	
23.175	-0.995	-0.323	
23.180	-0.993	-0.465	
23.185	-0.993	-0.632	
23.190	-0.995	-0.781	
23.195	-0.952	-0.892	
23.200	-0.593	-0.943	
23.205	-0.524	-0.917	
23.210	-0.648	-0.840	
23.215	-0.446	-0.752	
23.220	-0.329	-0.656	
23.225	-0.538	-0.564	
23.230	-0.468	-0.501	
23.235	-0.266	-0.458	
23.240	-0.414	-0.417	
23.245	-0.471	-0.392	
23.250	-0.225	-0.381	
23.255	-0.266	-0.360	
23.260	-0.431	-0.338	
23.265	-0.208	-0.326	
23.270	-0.028	-0.301	
23.275	-0.240	-0.256	
23.280	-0.106	-0.215	
23.285	0.397	-0.158	
23.290	0.175	-0.061	
23.295	0.116	0.038	
23.300	0.638	0.128	
23.305	0.557	0.238	
23.310	0.131	0.336	
23.315	0.400	0.378	
23.320	0.450	0.393	
23.325	-0.124	0.382	
23.330	-0.155	0.308	
23.335	0.017	0.196	
23.340	-0.286	0.086	
23.345	-0.446	-0.031	
23.350	-0.287	-0.150	
23.355	-0.385	-0.246	
23.360	-0.617	-0.325	
23.365	-0.486	-0.401	
23.370	-0.408	-0.457	
23.375	-0.631	-0.489	
23.380	-0.588	-0.519	
23.385	-0.399	-0.540	
23.390	-0.569	-0.540	
23.395	-0.654	-0.542	
23.400	-0.439	-0.550	
23.405	-0.474	-0.545	
23.410	-0.656	-0.536	
23.415	-0.489	-0.537	
23.420	-0.396	-0.533	
23.425	-0.614	-0.520	
23.430	-0.547	-0.517	
23.435	-0.321	-0.515	
23.440	-0.468	-0.495	
23.445	-0.535	-0.476	
23.450	-0.306	-0.464	
23.455	-0.341	-0.441	
23.460	-0.520	-0.418	
23.465	-0.347	-0.409	
23.470	-0.232	-0.396	
23.475	-0.445	-0.375	
23.480	-0.384	-0.364	
23.485	-0.165	-0.356	
23.490	-0.353	-0.335	
23.495	-0.457	-0.324	
23.500	-0.251	-0.329	
23.505	-0.307	-0.329	
23.510	-0.511	-0.332	
23.515	-0.347	-0.349	
23.520	-0.242	-0.360	
23.525	-0.463	-0.359	
23.530	-0.407	-0.364	
23.535	-0.171	-0.367	
23.540	-0.301	-0.349	
23.545	-0.312	-0.326	
23.550	0.233	-0.286	
23.555	0.505	-0.183	
23.560	0.394	-0.023	
23.565	0.779	0.155	
23.570	0.589	0.332	
23.575	-0.401	0.429	
23.580	-0.717	0.355	
23.585	-0.700	0.136	
23.590	-0.853	-0.134	
23.595	-0.821	-0.390	
23.600	-0.422	-0.579	
23.605	-0.283	-0.655	
23.610	-0.364	-0.634	
23.615	-0.090	-0.557	
23.620	0.241	-0.431	
23.625	-0.087	-0.275	
23.630	0.039	-0.143	
23.635	0.492	-0.029	
23.640	0.195	0.088	
23.645	0.030	0.172	
23.650	0.522	0.217	
23.655	0.525	0.273	
23.660	0.195	0.332	
23.665	0.615	0.370	
23.670	0.916	0.429	
23.675	0.557	0.517	
23.680	0.762	0.594	
23.685	1.315	0.679	
23.690	1.132	0.804	
23.695	1.060	0.931	
23.700	1.598	1.046	
23.705	1.575	1.178	
23.710	1.161	1.298	
23.715	1.479	1.366	
23.720	1.555	1.409	
23.725	0.930	1.424	
23.730	0.831	1.365	
23.735	1.066	1.253	
23.740	0.571	1.129	
23.745	0.192	0.971	
23.750	0.478	0.780	
23.755	0.256	0.607	
23.760	-0.174	0.448	
23.765	-0.026	0.281	
23.770	0.116	0.142	
23.775	-0.248	0.046	
23.780	-0.228	-0.038	
23.785	0.035	-0.103	
23.790	-0.184	-0.132	
23.795	-0.292	-0.151	
23.800	-0.040	-0.169	
23.805	-0.063	-0.167	
23.810	-0.284	-0.156	
23.815	-0.119	-0.157	
23.820	0.061	-0.149	
23.825	-0.242	-0.129	
23.830	-0.182	-0.123	
23.835	0.175	-0.117	
23.840	-0.080	-0.089	
23.845	-0.185	-0.066	
23.850	0.195	-0.055	
23.855	0.175	-0.021	
23.860	-0.141	0.018	
23.865	0.143	0.035	
23.870	0.386	0.062	
23.875	-0.028	0.105	
23.880	0.062	0.124	
23.885	0.487	0.138	
23.890	0.172	0.175	
23.895	-0.032	0.198	
23.900	0.369	0.195	
23.905	0.247	0.201	
23.910	-0.145	0.200	
23.915	0.067	0.164	
23.920	0.287	0.129	
23.925	-0.115	0.112	
23.930	-0.074	0.082	
23.935	0.327	0.055	
23.940	0.029	0.060	
23.945	-0.098	0.064	
23.950	0.438	0.067	
23.955	0.646	0.122	
23.960	0.533	0.231	
23.965	1.055	0.369	
23.970	1.304	0.551	
23.975	0.472	0.730	
23.980	-0.145	0.780	
23.985	-0.294	0.656	
23.990	-0.604	0.412	
23.995	-0.705	0.114	
24.000	-0.381	-0.164	
24.005	-0.216	-0.348	
24.010	-0.240	-0.423	
24.015	0.163	-0.406	
24.020	0.557	-0.293	
24.025	0.212	-0.115	
24.030	0.357	0.056	
24.035	0.837	0.211	
24.040	0.562	0.368	
24.045	0.402	0.486	
24.050	0.898	0.559	
24.055	0.883	0.634	
24.060	0.505	0.700	
24.065	0.854	0.730	
24.070	1.132	0.764	
24.075	0.744	0.818	
24.080	0.906	0.856	
24.085	1.453	0.902	
24.090	1.240	0.991	
24.095	1.107	1.084	
24.100	1.665	1.166	
24.105	1.746	1.277	
24.110	1.359	1.396	
24.115	1.642	1.479	
24.120	1.833	1.545	
24.125	1.269	1.596	
24.130	1.162	1.582	
24.135	1.411	1.514	
24.140	0.893	1.426	
24.145	0.453	1.288	
24.150	0.702	1.098	
24.155	0.486	0.910	
24.160	-0.069	0.724	
24.165	0.050	0.517	
24.170	0.183	0.330	
24.175	-0.207	0.186	
24.180	-0.217	0.061	
24.185	0.023	-0.041	
24.190	-0.190	-0.100	
24.195	-0.320	-0.142	
24.200	-0.098	-0.179	
24.205	-0.115	-0.193	
24.210	-0.344	-0.196	
24.215	-0.207	-0.207	
24.220	-0.063	-0.213	
24.225	-0.306	-0.205	
24.230	-0.297	-0.209	
24.235	-0.045	-0.215	
24.240	-0.188	-0.205	
24.245	-0.301	-0.196	
24.250	-0.061	-0.194	
24.255	-0.080	-0.181	
24.260	-0.310	-0.166	
24.265	-0.148	-0.167	
24.270	0.018	-0.163	
24.275	-0.260	-0.149	
24.280	-0.232	-0.148	
24.285	0.044	-0.152	
24.290	-0.164	-0.140	
24.295	-0.309	-0.136	
24.300	-0.090	-0.149	
24.305	-0.136	-0.156	
24.310	-0.394	-0.166	
24.315	-0.291	-0.197	
24.320	-0.187	-0.229	
24.325	-0.437	-0.253	
24.330	-0.422	-0.287	
24.335	-0.202	-0.319	
24.340	-0.356	-0.330	
24.345	-0.482	-0.339	
24.350	-0.248	-0.354	
24.355	-0.179	-0.349	
24.360	-0.268	-0.322	
24.365	0.120	-0.277	
24.370	0.570	-0.179	
24.375	0.059	-0.037	
24.380	-0.252	0.060	
24.385	-0.460	0.055	
24.390	-0.909	-0.054	
24.395	-0.995	-0.248	
24.400	-0.917	-0.474	
24.405	-0.779	-0.664	
24.410	-0.799	-0.786	
24.415	-0.508	-0.834	
24.420	-0.263	-0.800	
24.425	-0.419	-0.702	
24.430	-0.361	-0.592	
24.435	-0.087	-0.485	
24.440	-0.220	-0.378	
24.445	-0.332	-0.295	
24.450	-0.055	-0.243	
24.455	-0.035	-0.195	
24.460	-0.272	-0.154	
24.465	-0.100	-0.136	
24.470	0.171	-0.116	
24.475	-0.126	-0.080	
24.480	-0.051	-0.053	
24.485	0.484	-0.018	
24.490	0.324	0.059	
24.495	0.197	0.148	
24.500	0.761	0.232	
24.505	0.863	0.350	
24.510	0.501	0.481	
24.515	0.823	0.581	
24.520	1.086	0.672	
24.525	0.585	0.758	
24.530	0.518	0.788	
24.535	0.837	0.771	
24.540	0.369	0.738	
24.545	-0.061	0.656	
24.550	0.168	0.514	
24.555	-0.023	0.360	
24.560	-0.364	0.207	
24.565	-0.312	0.045	
24.570	-0.246	-0.100	
24.575	-0.506	-0.214	
24.580	-0.535	-0.313	
24.585	-0.355	-0.393	
24.590	-0.512	-0.441	
24.595	-0.653	-0.477	
24.600	-0.453	-0.511	
24.605	-0.460	-0.527	
24.610	-0.677	-0.532	
24.615	-0.547	-0.545	
24.620	-0.413	-0.552	
24.625	-0.622	-0.545	
24.630	-0.596	-0.545	
24.635	-0.362	-0.545	
24.640	-0.477	-0.527	
24.645	-0.602	-0.510	
24.650	-0.367	-0.502	
24.655	-0.338	-0.482	
24.660	-0.527	-0.456	
24.665	-0.381	-0.441	
24.670	-0.237	-0.423	
24.675	-0.439	-0.395	
24.680	-0.422	-0.380	
24.685	-0.174	-0.369	
24.690	-0.297	-0.345	
24.695	-0.423	-0.325	
24.700	-0.199	-0.317	
24.705	-0.202	-0.301	
24.710	-0.437	-0.286	
24.715	-0.324	-0.291	
24.720	-0.199	-0.298	
24.725	-0.436	-0.301	
24.730	-0.430	-0.315	
24.735	-0.199	-0.333	
24.740	-0.338	-0.334	
24.745	-0.460	-0.335	
24.750	-0.220	-0.341	
24.755	-0.190	-0.332	
24.760	-0.346	-0.310	
24.765	-0.038	-0.284	
24.770	0.553	-0.213	
24.775	0.372	-0.072	
24.780	0.421	0.090	
24.785	0.574	0.235	
24.790	-0.255	0.324	
24.795	-0.743	0.277	
24.800	-0.726	0.088	
24.805	-0.724	-0.155	
24.810	-0.834	-0.385	
24.815	-0.553	-0.563	
24.820	-0.240	-0.647	
24.825	-0.313	-0.631	
24.830	-0.207	-0.557	
24.835	0.269	-0.438	
24.840	0.127	-0.278	
24.845	-0.045	-0.126	
24.850	0.394	-0.008	
24.855	0.408	0.105	
24.860	-0.006	0.196	
24.865	0.284	0.236	
24.870	0.625	0.267	
24.875	0.243	0.315	
24.880	0.319	0.346	
24.885	0.860	0.378	
24.890	0.687	0.450	
24.895	0.556	0.531	
24.900	1.106	0.607	
24.905	1.190	0.714	
24.910	0.805	0.834	
24.915	1.116	0.919	
24.920	1.460	0.999	
24.925	1.075	1.090	
24.930	1.068	1.149	
24.935	1.396	1.179	
24.940	0.994	1.200	
24.945	0.585	1.172	
24.950	0.901	1.083	
24.955	0.758	0.985	
24.960	0.137	0.873	
24.965	0.226	0.714	
24.970	0.368	0.549	
24.975	-0.122	0.405	
24.980	-0.167	0.257	
24.985	0.140	0.123	
24.990	-0.098	0.035	
24.995	-0.263	-0.030	
25.000	-0.023	-0.086	
25.005	-0.026	-0.113	
25.010	-0.298	-0.123	
25.015	-0.173	-0.142	
25.020	0.044	-0.152	
25.025	-0.222	-0.144	
25.030	-0.219	-0.142	
25.035	0.105	-0.140	
25.040	-0.098	-0.118	
25.045	-0.242	-0.101	
25.050	0.056	-0.098	
25.055	0.125	-0.079	
25.060	-0.182	-0.049	
25.065	-0.032	-0.038	
25.070	0.250	-0.025	
25.075	-0.106	0.002	
25.080	-0.098	0.013	
25.085	0.307	0.016	
25.090	0.067	0.041	
25.095	-0.133	0.060	
25.100	0.229	0.060	
25.105	0.214	0.073	
25.110	-0.187	0.088	
25.115	-0.071	0.069	
25.120	0.156	0.038	
25.125	-0.194	0.019	
25.130	-0.234	-0.016	
25.135	0.006	-0.061	
25.140	-0.147	-0.088	
25.145	-0.287	-0.112	
25.150	-0.029	-0.138	
25.155	-0.002	-0.141	
25.160	-0.240	-0.129	
25.165	-0.008	-0.122	
25.170	0.521	-0.084	
25.175	0.321	0.013	
25.180	0.392	0.130	
25.185	0.709	0.247	
25.190	-0.034	0.341	
25.195	-0.575	0.327	
25.200	-0.616	0.177	
25.205	-0.672	-0.044	
25.210	-0.810	-0.272	
25.215	-0.556	-0.466	
25.220	-0.229	-0.574	
25.225	-0.300	-0.582	
25.230	-0.222	-0.527	
25.235	0.203	-0.428	
25.240	0.023	-0.290	
25.245	-0.147	-0.165	
25.250	0.255	-0.073	
25.255	0.339	0.018	
25.260	-0.061	0.099	
25.265	0.175	0.139	
25.270	0.533	0.171	
25.275	0.137	0.219	
25.280	0.142	0.246	
25.285	0.657	0.263	
25.290	0.489	0.313	
25.295	0.252	0.367	
25.300	0.745	0.406	
25.305	0.930	0.473	
25.310	0.612	0.568	
25.315	0.921	0.651	
25.320	1.253	0.743	
25.325	0.843	0.848	
25.330	0.783	0.915	
25.335	1.168	0.944	
25.340	0.875	0.969	
25.345	0.447	0.957	
25.350	0.698	0.889	
25.355	0.588	0.803	
25.360	-0.028	0.698	
25.365	0.018	0.543	
25.370	0.178	0.375	
25.375	-0.203	0.231	
25.380	-0.265	0.095	
25.385	-0.063	-0.026	
25.390	-0.226	-0.109	
25.395	-0.404	-0.173	
25.400	-0.219	-0.230	
25.405	-0.181	-0.262	
25.410	-0.410	-0.276	
25.415	-0.327	-0.293	
25.420	-0.181	-0.304	
25.425	-0.396	-0.304	
25.430	-0.417	-0.312	
25.435	-0.188	-0.324	
25.440	-0.301	-0.320	
25.445	-0.445	-0.316	
25.450	-0.225	-0.321	
25.455	-0.179	-0.314	
25.460	-0.411	-0.298	
25.465	-0.301	-0.296	
25.470	-0.129	-0.293	
25.475	-0.355	-0.279	
25.480	-0.385	-0.277	
25.485	-0.162	-0.285	
25.490	-0.278	-0.281	
25.495	-0.428	-0.281	
25.500	-0.237	-0.292	
25.505	-0.225	-0.296	
25.510	-0.468	-0.296	
25.515	-0.405	-0.314	
25.520	-0.298	-0.337	
25.525	-0.526	-0.357	
25.530	-0.575	-0.390	
25.535	-0.379	-0.429	
25.540	-0.506	-0.454	
25.545	-0.671	-0.477	
25.550	-0.497	-0.509	
25.555	-0.474	-0.529	
25.560	-0.691	-0.540	
25.565	-0.572	-0.558	
25.570	-0.339	-0.564	
25.575	-0.398	-0.539	
25.580	-0.287	-0.493	
25.585	0.116	-0.419	
25.590	-0.129	-0.313	
25.595	-0.553	-0.236	
25.600	-0.740	-0.245	
25.605	-0.948	-0.342	
25.610	-0.995	-0.494	
25.615	-0.995	-0.659	
25.620	-0.717	-0.789	
25.625	-0.729	-0.853	
25.630	-0.608	-0.856	
25.635	-0.291	-0.802	
25.640	-0.323	-0.698	
25.645	-0.425	-0.580	
25.650	-0.184	-0.478	
25.655	-0.100	-0.381	
25.660	-0.315	-0.295	
25.665	-0.182	-0.240	
25.670	0.111	-0.195	
25.675	-0.174	-0.143	
25.680	-0.164	-0.110	
25.685	0.285	-0.083	
25.690	0.159	-0.028	
25.695	-0.045	0.029	
25.700	0.455	0.077	
25.705	0.676	0.157	
25.710	0.374	0.268	
25.715	0.706	0.371	
25.720	1.152	0.489	
25.725	0.838	0.634	
25.730	0.835	0.758	
25.735	1.297	0.854	
25.740	1.046	0.950	
25.745	0.641	1.008	
25.750	0.909	1.000	
25.755	0.851	0.964	
25.760	0.223	0.899	
25.765	0.252	0.773	
25.770	0.441	0.622	
25.775	-0.080	0.482	
25.780	-0.199	0.328	
25.785	0.041	0.171	
25.790	-0.147	0.051	
25.795	-0.353	-0.046	
25.800	-0.185	-0.133	
25.805	-0.148	-0.191	
25.810	-0.378	-0.225	
25.815	-0.281	-0.254	
25.820	-0.104	-0.270	
25.825	-0.317	-0.265	
25.830	-0.353	-0.264	
25.835	-0.110	-0.267	
25.840	-0.207	-0.255	
25.845	-0.361	-0.243	
25.850	-0.136	-0.241	
25.855	-0.040	-0.227	
25.860	-0.280	-0.201	
25.865	-0.156	-0.186	
25.870	0.152	-0.165	
25.875	-0.147	-0.124	
25.880	-0.179	-0.095	
25.885	0.192	-0.078	
25.890	0.012	-0.045	
25.895	-0.196	-0.020	
25.900	0.108	-0.016	
25.905	0.217	-0.001	
25.910	-0.156	0.025	
25.915	-0.020	0.028	
25.920	0.305	0.029	
25.925	-0.092	0.047	
25.930	-0.174	0.045	
25.935	0.143	0.022	
25.940	-0.049	0.009	
25.945	-0.257	-0.008	
25.950	-0.045	-0.043	
25.955	0.055	-0.066	
25.960	-0.242	-0.073	
25.965	-0.133	-0.089	
25.970	0.180	-0.096	
25.975	-0.077	-0.074	
25.980	0.082	-0.045	
25.985	0.857	0.021	
25.990	0.974	0.178	
25.995	0.725	0.385	
26.000	0.788	0.564	
26.005	0.130	0.660	
26.010	-0.596	0.606	
26.015	-0.724	0.386	
26.020	-0.607	0.084	
26.025	-0.695	-0.202	
26.030	-0.555	-0.423	
26.035	-0.130	-0.543	
26.040	-0.054	-0.542	
26.045	-0.152	-0.459	
26.050	0.276	-0.337	
26.055	0.498	-0.174	
26.060	0.111	0.002	
26.065	0.296	0.136	
26.070	0.664	0.239	
26.075	0.322	0.336	
26.080	0.255	0.393	
26.085	0.731	0.421	
26.090	0.640	0.466	
26.095	0.385	0.513	
26.100	0.846	0.545	
26.105	1.043	0.604	
26.110	0.704	0.690	
26.115	1.008	0.764	
26.120	1.474	0.853	
26.125	1.216	0.978	
26.130	1.208	1.095	
26.135	1.696	1.196	
26.140	1.494	1.306	
26.145	1.103	1.386	
26.150	1.440	1.407	
26.155	1.436	1.408	
26.160	0.794	1.384	
26.165	0.759	1.291	
26.170	0.918	1.156	
26.175	0.356	1.013	
26.180	0.107	0.835	
26.185	0.414	0.639	
26.190	0.143	0.475	
26.195	-0.174	0.330	
26.200	0.026	0.190	
26.205	0.088	0.084	
26.210	-0.246	0.015	
26.215	-0.179	-0.049	
26.220	0.050	-0.097	
26.225	-0.202	-0.116	
26.230	-0.258	-0.132	
26.235	0.009	-0.148	
26.240	-0.101	-0.145	
26.245	-0.278	-0.138	
26.250	-0.069	-0.143	
26.255	0.035	-0.136	
26.260	-0.243	-0.119	
26.265	-0.135	-0.116	
26.270	0.192	-0.108	
26.275	-0.116	-0.078	
26.280	-0.173	-0.058	
26.285	0.212	-0.050	
26.290	0.101	-0.020	
26.295	-0.153	0.010	
26.300	0.143	0.020	
26.305	0.284	0.041	
26.310	-0.109	0.071	
26.315	0.009	0.076	
26.320	0.369	0.078	
26.325	-0.017	0.098	
26.330	-0.126	0.099	
26.335	0.209	0.079	
26.340	0.018	0.069	
26.345	-0.228	0.052	
26.350	-0.031	0.012	
26.355	0.064	-0.020	
26.360	-0.232	-0.038	
26.365	-0.139	-0.065	
26.370	0.162	-0.082	
26.375	-0.130	-0.073	
26.380	-0.142	-0.066	
26.385	0.411	-0.051	
26.390	0.501	0.020	
26.395	0.348	0.133	
26.400	0.806	0.256	
26.405	0.695	0.392	
26.410	-0.271	0.475	
26.415	-0.592	0.408	
26.420	-0.625	0.204	
26.425	-0.813	-0.056	
26.430	-0.758	-0.313	
26.435	-0.361	-0.505	
26.440	-0.232	-0.586	
26.445	-0.268	-0.568	
26.450	0.093	-0.485	
26.455	0.363	-0.342	
26.460	0.055	-0.168	
26.465	1.164	0.024	
26.470	2.438	0.336	
26.475	2.502	0.822	
26.480	2.340	1.360	
26.485	1.900	1.793	
26.490	0.933	2.001	
26.495	0.116	1.914	
26.500	0.284	1.584	
26.505	0.380	1.179	
26.510	-0.034	0.809	
26.515	0.742	0.526	
26.520	2.131	0.455	
26.525	2.420	0.679	
26.530	2.603	1.105	
26.535	3.043	1.603	
26.540	3.028	2.093	
26.545	2.572	2.486	
26.550	2.771	2.725	
26.555	2.736	2.841	
26.560	2.097	2.850	
26.565	1.975	2.740	
26.570	2.051	2.554	
26.575	1.323	2.332	
26.580	0.571	2.036	
26.585	0.010	1.629	
26.590	-0.468	1.134	
26.595	-0.865	0.598	
26.600	-0.834	0.085	
26.605	-0.834	-0.339	
26.610	-0.993	-0.646	
26.615	-0.984	-0.853	
26.620	-0.764	-0.970	
26.625	-0.905	-1.006	
26.630	-0.954	-1.001	
26.635	-0.732	-0.977	
26.640	-0.776	-0.932	
26.645	-0.946	-0.887	
26.650	-0.773	-0.860	
26.655	-0.685	-0.835	
26.660	-0.888	-0.808	
26.665	-0.807	-0.797	
26.670	-0.605	-0.787	
26.675	-0.761	-0.766	
26.680	-0.801	-0.749	
26.685	-0.570	-0.738	
26.690	-0.607	-0.714	
26.695	-0.767	-0.688	
26.700	-0.581	-0.674	
26.705	-0.492	-0.654	
26.710	-0.697	-0.628	
26.715	-0.614	-0.615	
26.720	-0.407	-0.602	
26.725	-0.549	-0.576	
26.730	-0.599	-0.554	
26.735	-0.391	-0.540	
26.740	-0.463	-0.518	
26.745	-0.662	-0.503	
26.750	-0.506	-0.509	
26.755	-0.436	-0.515	
26.760	-0.653	-0.517	
26.765	-0.573	-0.529	
26.770	-0.356	-0.537	
26.775	-0.514	-0.525	
26.780	-0.566	-0.512	
26.785	-0.309	-0.501	
26.790	-0.272	-0.471	
26.795	-0.318	-0.423	
26.800	0.157	-0.356	
26.805	0.621	-0.229	
26.810	0.212	-0.050	
26.815	-0.074	0.092	
26.820	-0.323	0.133	
26.825	-0.822	0.058	
26.830	-0.995	-0.127	
26.835	-0.828	-0.362	
26.840	-0.738	-0.567	
26.845	-0.744	-0.704	
26.850	-0.420	-0.764	
26.855	-0.194	-0.734	
26.860	-0.329	-0.637	
26.865	-0.196	-0.520	
26.870	0.189	-0.391	
26.875	-0.075	-0.250	
26.880	-0.147	-0.140	
26.885	0.318	-0.062	
26.890	0.305	0.024	
26.895	-0.031	0.103	
26.900	0.345	0.151	
26.905	0.605	0.204	
26.910	0.240	0.276	
26.915	0.463	0.331	
26.920	0.993	0.397	
26.925	0.764	0.504	
26.930	0.715	0.613	
26.935	1.268	0.713	
26.940	1.289	0.840	
26.945	0.958	0.969	
26.950	1.340	1.063	
26.955	1.512	1.151	
26.960	1.008	1.230	
26.965	1.025	1.251	
26.970	1.291	1.232	
26.975	0.814	1.199	
26.980	0.495	1.119	
26.985	0.759	0.991	
26.990	0.482	0.861	
26.995	-0.045	0.715	
27.000	0.142	0.536	
27.005	0.198	0.370	
27.010	-0.208	0.235	
27.015	-0.173	0.107	
27.020	0.064	0.002	
27.025	-0.199	-0.062	
27.030	-0.301	-0.111	
27.035	-0.060	-0.154	
27.040	-0.115	-0.172	
27.045	-0.326	-0.177	
27.050	-0.153	-0.189	
27.055	-0.045	-0.192	
27.060	-0.303	-0.183	
27.065	-0.255	-0.186	
27.070	-0.009	-0.192	
27.075	-0.197	-0.181	
27.080	-0.262	-0.173	
27.085	0.047	-0.168	
27.090	0.000	-0.142	
27.095	-0.222	-0.112	
27.100	0.006	-0.096	
27.105	0.204	-0.071	
27.110	-0.161	-0.034	
27.115	-0.092	-0.019	
27.120	0.278	-0.011	
27.125	-0.035	0.014	
27.130	-0.142	0.027	
27.135	0.232	0.025	
27.140	0.139	0.040	
27.145	-0.185	0.055	
27.150	-0.020	0.041	
27.155	0.096	0.020	
27.160	-0.251	0.003	
27.165	-0.220	-0.035	
27.170	0.015	-0.079	
27.175	-0.203	-0.104	
27.180	-0.286	-0.128	
27.185	-0.032	-0.154	
27.190	-0.090	-0.158	
27.195	-0.281	-0.154	
27.200	-0.002	-0.154	
27.205	0.412	-0.120	
27.210	0.198	-0.033	
27.215	0.427	0.072	
27.220	0.742	0.194	
27.225	-0.063	0.303	
27.230	-0.579	0.302	
27.235	-0.663	0.159	
27.240	-0.801	-0.065	
27.245	-0.934	-0.311	
27.250	-0.633	-0.527	
27.255	-0.339	-0.653	
27.260	-0.404	-0.674	
27.265	-0.243	-0.624	
27.270	0.162	-0.517	
27.275	-0.051	-0.368	
27.280	0.137	-0.218	
27.285	1.714	-0.014	
27.290	2.278	0.358	
27.295	1.365	0.827	
27.300	0.904	1.178	
27.305	0.637	1.309	
27.310	-0.019	1.232	
27.315	-0.023	0.993	
27.320	0.377	0.707	
27.325	0.094	0.473	
27.330	0.000	0.298	
27.335	0.567	0.187	
27.340	0.625	0.179	
27.345	0.339	0.241	
27.350	0.780	0.324	
27.355	1.077	0.442	
27.360	0.657	0.584	
27.365	0.759	0.691	
27.370	1.129	0.769	
27.375	0.698	0.837	
27.380	0.342	0.848	
27.385	0.632	0.790	
27.390	0.389	0.708	
27.395	-0.142	0.595	
27.400	-0.046	0.433	
27.405	-0.002	0.262	
27.410	-0.346	0.112	
27.415	-0.375	-0.032	
27.420	-0.220	-0.158	
27.425	-0.408	-0.247	
27.430	-0.524	-0.317	
27.435	-0.320	-0.375	
27.440	-0.367	-0.405	
27.445	-0.587	-0.421	
27.450	-0.436	-0.442	
27.455	-0.346	-0.454	
27.460	-0.579	-0.455	
27.465	-0.558	-0.467	
27.470	-0.349	-0.480	
27.475	-0.480	-0.479	
27.480	-0.562	-0.476	
27.485	-0.327	-0.476	
27.490	-0.332	-0.459	
27.495	-0.506	-0.436	
27.500	-0.323	-0.420	
27.505	-0.203	-0.398	
27.510	-0.436	-0.367	
27.515	-0.405	-0.353	
27.520	-0.188	-0.346	
27.525	-0.342	-0.331	
27.530	-0.443	-0.324	
27.535	-0.220	-0.327	
27.540	-0.232	-0.320	
27.545	-0.439	-0.309	
27.550	-0.294	-0.311	
27.555	-0.199	-0.312	
27.560	-0.457	-0.307	
27.565	-0.459	-0.321	
27.570	-0.278	-0.345	
27.575	-0.451	-0.360	
27.580	-0.567	-0.382	
27.585	-0.362	-0.412	
27.590	-0.381	-0.428	
27.595	-0.556	-0.434	
27.600	-0.394	-0.444	
27.605	-0.245	-0.441	
27.610	-0.390	-0.416	
27.615	-0.205	-0.384	
27.620	0.322	-0.320	
27.625	0.036	-0.207	
27.630	-0.232	-0.106	
27.635	-0.321	-0.071	
27.640	-0.740	-0.115	
27.645	-0.995	-0.245	
27.650	-0.995	-0.435	
27.655	-0.897	-0.627	
27.660	-0.938	-0.778	
27.665	-0.732	-0.871	
27.670	-0.382	-0.884	
27.675	-0.430	-0.816	
27.680	-0.465	-0.711	
27.685	-0.196	-0.600	
27.690	-0.184	-0.482	
27.695	-0.370	-0.379	
27.700	-0.193	-0.309	
27.705	-0.013	-0.254	
27.710	-0.258	-0.201	
27.715	-0.205	-0.172	
27.720	0.160	-0.150	
27.725	-0.060	-0.108	
27.730	-0.152	-0.073	
27.735	0.316	-0.045	
27.740	0.380	0.017	
27.745	0.075	0.098	
27.750	0.498	0.167	
27.755	0.846	0.258	
27.760	0.513	0.380	
27.765	0.658	0.487	
27.770	1.142	0.587	
27.775	0.854	0.702	
27.780	0.576	0.788	
27.785	0.932	0.820	
27.790	0.790	0.833	
27.795	0.230	0.813	
27.800	0.365	0.727	
27.805	0.417	0.614	
27.810	-0.148	0.494	
27.815	-0.207	0.340	
27.820	-0.022	0.174	
27.825	-0.262	0.037	
27.830	-0.402	-0.081	
27.835	-0.197	-0.182	
27.840	-0.236	-0.246	
27.845	-0.460	-0.284	
27.850	-0.329	-0.319	
27.855	-0.220	-0.339	
27.860	-0.442	-0.342	
27.865	-0.413	-0.350	
27.870	-0.182	-0.357	
27.875	-0.327	-0.345	
27.880	-0.430	-0.334	
27.885	-0.205	-0.331	
27.890	-0.211	-0.317	
27.895	-0.411	-0.300	
27.900	-0.251	-0.295	
27.905	-0.100	-0.285	
27.910	-0.327	-0.263	
27.915	-0.287	-0.252	
27.920	-0.020	-0.243	
27.925	-0.194	-0.217	
27.930	-0.295	-0.197	
27.935	-0.005	-0.187	
27.940	0.003	-0.162	
27.945	-0.257	-0.131	
27.950	-0.075	-0.119	
27.955	0.171	-0.102	
27.960	-0.185	-0.071	
27.965	-0.188	-0.061	
27.970	0.087	-0.066	
27.975	-0.181	-0.066	
27.980	-0.330	-0.081	
27.985	-0.107	-0.118	
27.990	-0.121	-0.145	
27.995	-0.336	-0.163	
28.000	-0.176	-0.186	
28.005	0.012	-0.195	
28.010	-0.252	-0.182	
28.015	-0.176	-0.173	
28.020	0.391	-0.146	
28.025	0.347	-0.062	
28.030	0.351	0.057	
28.035	0.906	0.195	
28.040	0.725	0.360	
28.045	-0.197	0.475	
28.050	-0.460	0.437	
28.055	-0.601	0.259	
28.060	-0.871	0.007	
28.065	-0.757	-0.262	
28.070	-0.364	-0.472	
28.075	-0.309	-0.571	
28.080	-0.274	-0.572	
28.085	0.201	-0.498	
28.090	0.322	-0.348	
28.095	0.003	-0.171	
28.100	0.333	-0.022	
28.105	0.609	0.114	
28.110	0.197	0.241	
28.115	0.269	0.317	
28.120	0.741	0.364	
28.125	0.476	0.423	
28.130	0.269	0.464	
28.135	0.750	0.480	
28.140	0.820	0.519	
28.145	0.479	0.575	
28.150	0.867	0.618	
28.155	1.249	0.685	
28.160	0.916	0.789	
28.165	1.054	0.886	
28.170	1.578	0.982	
28.175	1.373	1.106	
28.180	1.170	1.216	
28.185	1.595	1.291	
28.190	1.538	1.361	
28.195	1.014	1.407	
28.200	1.147	1.387	
28.205	1.254	1.332	
28.210	0.644	1.258	
28.215	0.476	1.128	
28.220	0.731	0.964	
28.225	0.295	0.808	
28.230	-0.071	0.640	
28.235	0.221	0.457	
28.240	0.114	0.305	
28.245	-0.252	0.183	
28.250	-0.142	0.064	
28.255	0.009	-0.030	
28.260	-0.281	-0.090	
28.265	-0.275	-0.141	
28.270	-0.017	-0.179	
28.275	-0.193	-0.188	
28.280	-0.317	-0.191	
28.285	-0.078	-0.199	
28.290	-0.084	-0.192	
28.295	-0.330	-0.179	
28.300	-0.188	-0.183	
28.305	-0.002	-0.184	
28.310	-0.252	-0.171	
28.315	-0.229	-0.167	
28.320	0.127	-0.161	
28.325	-0.077	-0.131	
28.330	-0.202	-0.103	
28.335	0.127	-0.086	
28.340	0.322	-0.045	
28.345	0.366	0.036	
28.350	1.142	0.171	
28.355	1.709	0.407	
28.360	1.378	0.721	
28.365	1.352	1.012	
28.370	1.734	1.236	
28.375	1.365	1.403	
28.380	0.970	1.478	
28.385	1.257	1.452	
28.390	1.118	1.384	
28.395	0.611	1.284	
28.400	0.870	1.146	
28.405	1.387	1.039	
28.410	1.286	1.023	
28.415	1.523	1.078	
28.420	2.073	1.202	
28.425	1.799	1.386	
28.430	1.494	1.551	
28.435	1.977	1.658	
28.440	2.114	1.754	
28.445	1.721	1.843	
28.450	1.969	1.894	
28.455	2.082	1.926	
28.460	1.045	1.918	
28.465	0.052	1.755	
28.470	-0.229	1.393	
28.475	-0.634	0.910	
28.480	-0.995	0.390	
28.485	-0.993	-0.105	
28.490	-0.995	-0.512	
28.495	-0.995	-0.802	
28.500	-0.993	-0.980	
28.505	-0.546	-1.049	
28.510	-0.144	-0.992	
28.515	0.611	-0.792	
28.520	1.443	-0.431	
28.525	1.272	0.047	
28.530	0.846	0.496	
28.535	1.005	0.808	
28.540	0.146	0.951	
28.545	-0.686	0.874	
28.550	-0.824	0.581	
28.555	-0.789	0.185	
28.560	-0.989	-0.200	
28.565	-0.949	-0.524	
28.570	-0.665	-0.750	
28.575	-0.692	-0.860	
28.580	-0.723	-0.884	
28.585	-0.437	-0.851	
28.590	-0.352	-0.768	
28.595	-0.503	-0.661	
28.600	-0.315	-0.564	
28.605	-0.122	-0.470	
28.610	-0.346	-0.379	
28.615	-0.371	-0.319	
28.620	-0.184	-0.289	
28.625	-0.364	-0.272	
28.630	-0.553	-0.281	
28.635	-0.414	-0.321	
28.640	-0.469	-0.366	
28.645	-0.734	-0.417	
28.650	-0.636	-0.484	
28.655	-0.504	-0.543	
28.660	-0.712	-0.581	
28.665	-0.731	-0.615	
28.670	-0.521	-0.643	
28.675	-0.634	-0.649	
28.680	-0.764	-0.650	
28.685	-0.552	-0.656	
28.690	-0.503	-0.647	
28.695	-0.695	-0.627	
28.700	-0.550	-0.614	
28.705	-0.381	-0.595	
28.710	-0.570	-0.563	
28.715	-0.559	-0.539	
28.720	-0.327	-0.521	
28.725	-0.428	-0.491	
28.730	-0.549	-0.466	
28.735	-0.309	-0.452	
28.740	-0.257	-0.428	
28.745	-0.460	-0.396	
28.750	-0.309	-0.376	
28.755	-0.109	-0.351	
28.760	-0.312	-0.313	
28.765	-0.310	-0.285	
28.770	-0.022	-0.262	
28.775	-0.159	-0.226	
28.780	-0.292	-0.196	
28.785	-0.011	-0.180	
28.790	0.055	-0.151	
28.795	-0.255	-0.116	
28.800	-0.124	-0.104	
28.805	0.122	-0.097	
28.810	-0.240	-0.081	
28.815	-0.272	-0.087	
28.820	0.024	-0.109	
28.825	-0.155	-0.117	
28.830	-0.309	-0.127	
