Vernier Format 2
ecg2.txt 10/18/2025 9:47:52
Run 1
Time	Potential	EKG	
T	P	E	
s	mV	mV	

0.000	2.997	0.138	
0.005	2.997	0.596	
0.010	2.997	1.264	
0.015	2.997	1.912	
0.020	2.997	2.431	
0.025	2.997	2.791	
0.030	2.999	3.006	
0.035	2.660	3.095	
0.040	-0.506	2.928	
0.045	-0.992	2.335	
0.050	-0.995	1.453	
0.055	-0.996	0.567	
0.060	-0.996	-0.157	
0.065	-0.998	-0.668	
0.070	-0.996	-0.980	
0.075	-0.996	-1.137	
0.080	-0.080	-1.145	
0.085	2.934	-0.856	
0.090	-0.995	-0.335	
0.095	0.545	0.052	
0.100	2.999	0.375	
0.105	-0.993	0.721	
0.110	-0.993	0.759	
0.115	3.000	0.639	
0.120	3.014	0.831	
0.125	-0.995	1.144	
0.130	3.003	1.272	
0.135	2.997	1.470	
0.140	-0.990	1.665	
0.145	-0.993	1.455	
0.150	-0.993	0.900	
0.155	-0.993	0.278	
0.160	-0.995	-0.263	
0.165	-0.770	-0.653	
0.170	-0.983	-0.887	
0.175	-0.672	-0.996	
0.180	-0.304	-0.987	
0.185	-0.584	-0.886	
0.190	-0.483	-0.764	
0.195	-0.006	-0.634	
0.200	-0.098	-0.481	
0.205	-0.239	-0.337	
0.210	0.149	-0.224	
0.215	0.269	-0.112	
0.220	-0.098	-0.009	
0.225	0.120	0.052	
0.230	0.522	0.103	
0.235	-0.051	0.161	
0.240	-0.552	0.153	
0.245	-0.993	0.022	
0.250	-0.996	-0.209	
0.255	-0.995	-0.468	
0.260	-0.995	-0.693	
0.265	-0.996	-0.859	
0.270	-0.996	-0.966	
0.275	-0.995	-1.024	
0.280	-0.995	-1.047	
0.285	-0.995	-1.049	
0.290	-0.993	-1.040	
0.295	0.097	-0.977	
0.300	-0.992	-0.848	
0.305	-0.805	-0.752	
0.310	-0.544	-0.711	
0.315	-0.993	-0.693	
0.320	-0.993	-0.719	
0.325	-0.628	-0.765	
0.330	-0.992	-0.797	
0.335	-0.993	-0.831	
0.340	-0.811	-0.870	
0.345	-0.853	-0.888	
0.350	-0.995	-0.895	
0.355	-0.993	-0.911	
0.360	-0.559	-0.913	
0.365	-0.995	-0.890	
0.370	-0.996	-0.877	
0.375	-0.998	-0.893	
0.380	-0.996	-0.920	
0.385	-0.996	-0.948	
0.390	-0.996	-0.970	
0.395	-0.993	-0.986	
0.400	-0.995	-0.995	
0.405	-0.324	-0.969	
0.410	0.814	-0.815	
0.415	-0.025	-0.530	
0.420	0.452	-0.236	
0.425	2.614	0.113	
0.430	1.443	0.593	
0.435	0.204	0.982	
0.440	1.735	1.158	
0.445	0.990	1.246	
0.450	-0.593	1.203	
0.455	-0.168	0.944	
0.460	0.212	0.609	
0.465	-0.836	0.305	
0.470	-0.805	-0.005	
0.475	0.145	-0.263	
0.480	-0.546	-0.390	
0.485	-0.993	-0.470	
0.490	-0.077	-0.543	
0.495	-0.303	-0.546	
0.500	-0.993	-0.524	
0.505	-0.830	-0.560	
0.510	-0.553	-0.622	
0.515	-0.995	-0.673	
0.520	-0.995	-0.738	
0.525	-0.995	-0.817	
0.530	-0.993	-0.888	
0.535	-0.995	-0.943	
0.540	-0.995	-0.979	
0.545	-0.995	-1.000	
0.550	-0.996	-1.009	
0.555	-0.993	-1.011	
0.560	-0.246	-0.975	
0.565	-0.993	-0.891	
0.570	-0.841	-0.827	
0.575	1.673	-0.690	
0.580	-0.032	-0.380	
0.585	-0.564	-0.110	
0.590	2.508	0.105	
0.595	2.271	0.502	
0.600	-0.118	0.924	
0.605	2.389	1.166	
0.610	3.028	1.424	
0.615	0.922	1.720	
0.620	1.647	1.849	
0.625	3.023	1.905	
0.630	2.322	2.043	
0.635	0.814	2.126	
0.640	3.028	2.096	
0.645	3.032	2.151	
0.650	0.554	2.226	
0.655	3.000	2.182	
0.660	3.026	2.199	
0.665	0.550	2.245	
0.670	1.020	2.091	
0.675	3.031	1.888	
0.680	1.094	1.817	
0.685	-0.083	1.684	
0.690	3.006	1.489	
0.695	2.114	1.490	
0.700	-0.327	1.534	
0.705	1.874	1.426	
0.710	3.037	1.408	
0.715	0.101	1.511	
0.720	0.362	1.448	
0.725	2.843	1.320	
0.730	0.851	1.331	
0.735	-0.174	1.293	
0.740	2.003	1.151	
0.745	1.673	1.123	
0.750	-0.126	1.142	
0.755	1.332	1.068	
0.760	2.444	1.065	
0.765	0.221	1.164	
0.770	0.325	1.146	
0.775	2.273	1.071	
0.780	0.877	1.101	
0.785	0.055	1.101	
0.790	2.042	1.038	
0.795	2.035	1.100	
0.800	0.504	1.233	
0.805	1.692	1.289	
0.810	2.696	1.383	
0.815	1.298	1.560	
0.820	1.231	1.661	
0.825	2.553	1.695	
0.830	1.511	1.761	
0.835	0.368	1.743	
0.840	1.514	1.585	
0.845	1.425	1.438	
0.850	0.130	1.307	
0.855	0.528	1.104	
0.860	1.175	0.909	
0.865	0.033	0.780	
0.870	-0.307	0.615	
0.875	0.009	0.395	
0.880	-0.404	0.181	
0.885	-0.993	-0.040	
0.890	-0.993	-0.297	
0.895	-0.830	-0.545	
0.900	-0.993	-0.734	
0.905	-0.995	-0.868	
0.910	-0.995	-0.957	
0.915	-0.995	-1.008	
0.920	-0.993	-1.030	
0.925	-0.993	-1.034	
0.930	-0.995	-1.029	
0.935	-0.990	-1.020	
0.940	-0.341	-0.980	
0.945	-0.181	-0.865	
0.950	-0.798	-0.718	
0.955	-0.243	-0.607	
0.960	0.822	-0.461	
0.965	-0.237	-0.251	
0.970	-0.152	-0.092	
0.975	1.780	0.060	
0.980	0.655	0.311	
0.985	-0.216	0.510	
0.990	1.706	0.603	
0.995	1.744	0.765	
1.000	-0.188	0.935	
1.005	1.040	0.957	
1.010	2.606	0.998	
1.015	0.420	1.143	
1.020	0.621	1.190	
1.025	2.907	1.205	
1.030	0.724	1.320	
1.035	-0.478	1.312	
1.040	1.650	1.131	
1.045	1.184	1.018	
1.050	-0.886	0.919	
1.055	0.429	0.694	
1.060	2.576	0.572	
1.065	-0.387	0.646	
1.070	-0.258	0.635	
1.075	3.005	0.609	
1.080	0.620	0.778	
1.085	-0.666	0.882	
1.090	2.126	0.836	
1.095	2.328	0.932	
1.100	-0.394	1.102	
1.105	-0.103	1.048	
1.110	2.235	0.904	
1.115	3.023	1.007	
1.120	3.034	1.394	
1.125	1.433	1.812	
1.130	2.708	2.081	
1.135	2.473	2.259	
1.140	0.186	2.291	
1.145	0.808	2.053	
1.150	1.865	1.726	
1.155	0.056	1.459	
1.160	-0.124	1.144	
1.165	1.306	0.829	
1.170	0.311	0.650	
1.175	-0.413	0.512	
1.180	0.609	0.354	
1.185	0.843	0.287	
1.190	-0.329	0.292	
1.195	0.151	0.256	
1.200	1.306	0.250	
1.205	-0.026	0.327	
1.210	-0.208	0.353	
1.215	0.738	0.314	
1.220	0.013	0.296	
1.225	-0.634	0.239	
1.230	-0.051	0.106	
1.235	0.116	-0.007	
1.240	-0.494	-0.076	
1.245	-0.121	-0.142	
1.250	0.596	-0.154	
1.255	-0.246	-0.094	
1.260	-0.313	-0.057	
1.265	0.678	-0.037	
1.270	0.235	0.039	
1.275	-0.174	0.114	
1.280	0.484	0.146	
1.285	0.528	0.197	
1.290	0.284	0.269	
1.295	-0.239	0.295	
1.300	-0.995	0.198	
1.305	-0.995	-0.035	
1.310	-0.995	-0.326	
1.315	-0.944	-0.591	
1.320	-0.368	-0.762	
1.325	3.014	-0.644	
1.330	1.952	-0.116	
1.335	-0.995	0.438	
1.340	0.029	0.630	
1.345	0.067	0.567	
1.350	-0.996	0.394	
1.355	-0.996	0.101	
1.360	0.009	-0.199	
1.365	-0.995	-0.401	
1.370	-0.995	-0.564	
1.375	1.265	-0.619	
1.380	-0.993	-0.507	
1.385	-0.995	-0.437	
1.390	0.909	-0.418	
1.395	1.094	-0.243	
1.400	-0.996	-0.015	
1.405	-0.622	0.029	
1.410	3.019	0.082	
1.415	-0.995	0.296	
1.420	-0.996	0.349	
1.425	3.014	0.311	
1.430	-0.399	0.449	
1.435	-0.996	0.490	
1.440	3.019	0.449	
1.445	3.022	0.718	
1.450	-0.995	1.090	
1.455	1.010	1.166	
1.460	2.997	1.173	
1.465	-0.975	1.239	
1.470	-0.993	1.045	
1.475	3.002	0.759	
1.480	1.744	0.789	
1.485	-0.995	0.912	
1.490	3.017	0.932	
1.495	3.008	1.141	
1.500	-0.888	1.409	
1.505	2.319	1.445	
1.510	2.999	1.507	
1.515	-0.805	1.606	
1.520	-0.993	1.377	
1.525	3.012	1.020	
1.530	1.738	0.969	
1.535	-0.995	1.018	
1.540	2.487	0.958	
1.545	2.785	1.063	
1.550	-0.995	1.245	
1.555	-0.552	1.116	
1.560	2.181	0.850	
1.565	0.218	0.748	
1.570	-0.101	0.676	
1.575	-0.097	0.513	
1.580	-0.732	0.290	
1.585	-0.993	0.009	
1.590	-0.993	-0.302	
1.595	-0.995	-0.582	
1.600	-0.995	-0.796	
1.605	-0.993	-0.938	
1.610	-0.995	-1.018	
1.615	-0.995	-1.053	
1.620	-0.995	-1.060	
1.625	-0.996	-1.051	
1.630	-0.995	-1.036	
1.635	-0.995	-1.022	
1.640	-0.995	-1.009	
1.645	-0.995	-1.001	
1.650	-0.995	-0.995	
1.655	-0.993	-0.993	
1.660	-0.995	-0.991	
1.665	-0.995	-0.991	
1.670	-0.995	-0.992	
1.675	-0.995	-0.993	
1.680	-0.995	-0.994	
1.685	-0.995	-0.994	
1.690	-0.995	-0.995	
1.695	-0.995	-0.995	
1.700	-0.975	-0.994	
1.705	-0.995	-0.992	
1.710	-0.996	-0.991	
1.715	-0.831	-0.983	
1.720	-0.993	-0.967	
1.725	-0.993	-0.956	
1.730	-0.789	-0.948	
1.735	-0.654	-0.918	
1.740	-0.995	-0.877	
1.745	-0.844	-0.855	
1.750	-0.414	-0.830	
1.755	-0.882	-0.782	
1.760	-0.935	-0.758	
1.765	-0.361	-0.750	
1.770	-0.617	-0.712	
1.775	-0.990	-0.682	
1.780	-0.474	-0.683	
1.785	-0.401	-0.665	
1.790	-0.969	-0.637	
1.795	-0.700	-0.646	
1.800	-0.303	-0.654	
1.805	-0.828	-0.636	
1.810	-0.899	-0.642	
1.815	-0.312	-0.662	
1.820	-0.581	-0.646	
1.825	-0.989	-0.633	
1.830	-0.457	-0.649	
1.835	-0.385	-0.642	
1.840	-0.963	-0.622	
1.845	-0.677	-0.635	
1.850	-0.248	-0.642	
1.855	-0.775	-0.617	
1.860	-0.836	-0.613	
1.865	-0.220	-0.620	
1.870	-0.486	-0.591	
1.875	-0.908	-0.564	
1.880	-0.347	-0.569	
1.885	-0.246	-0.552	
1.890	-0.837	-0.519	
1.895	-0.540	-0.520	
1.900	-0.113	-0.519	
1.905	-0.677	-0.489	
1.910	-0.757	-0.487	
1.915	-0.116	-0.502	
1.920	-0.408	-0.481	
1.925	-0.845	-0.465	
1.930	-0.255	-0.479	
1.935	-0.129	-0.466	
1.940	-0.758	-0.433	
1.945	-0.454	-0.433	
1.950	0.047	-0.428	
1.955	-0.540	-0.388	
1.960	-0.588	-0.372	
1.965	0.249	-0.363	
1.970	-0.092	-0.300	
1.975	-0.566	-0.237	
1.980	0.012	-0.218	
1.985	0.073	-0.190	
1.990	-0.692	-0.166	
1.995	-0.456	-0.205	
2.000	-0.022	-0.261	
2.005	-0.642	-0.293	
2.010	-0.731	-0.349	
2.015	-0.037	-0.411	
2.020	-0.321	-0.417	
2.025	-0.746	-0.409	
2.030	-0.112	-0.418	
2.035	0.032	-0.389	
2.040	-0.631	-0.334	
2.045	-0.303	-0.316	
2.050	0.359	-0.290	
2.055	-0.402	-0.222	
2.060	-0.488	-0.191	
2.065	0.372	-0.187	
2.070	-0.097	-0.143	
2.075	-0.562	-0.113	
2.080	0.136	-0.127	
2.085	0.383	-0.106	
2.090	-0.478	-0.057	
2.095	-0.152	-0.056	
2.100	0.664	-0.050	
2.105	-0.271	0.004	
2.110	-0.365	0.018	
2.115	0.654	0.006	
2.120	0.104	0.047	
2.125	-0.422	0.079	
2.130	0.417	0.065	
2.135	0.652	0.095	
2.140	-0.353	0.156	
2.145	-0.026	0.153	
2.150	0.843	0.144	
2.155	-0.210	0.179	
2.160	-0.329	0.168	
2.165	0.704	0.124	
2.170	0.061	0.132	
2.175	-0.504	0.127	
2.180	0.181	0.065	
2.185	0.388	0.034	
2.190	-0.511	0.033	
2.195	-0.203	-0.012	
2.200	0.579	-0.048	
2.205	-0.347	-0.028	
2.210	-0.482	-0.041	
2.215	0.388	-0.082	
2.220	-0.119	-0.079	
2.225	-0.625	-0.085	
2.230	0.050	-0.133	
2.235	0.311	-0.142	
2.240	-0.527	-0.114	
2.245	-0.188	-0.122	
2.250	0.661	-0.114	
2.255	-0.280	-0.050	
2.260	-0.393	-0.023	
2.265	0.647	-0.024	
2.270	0.055	0.023	
2.275	-0.511	0.054	
2.280	0.249	0.026	
2.285	0.490	0.029	
2.290	-0.475	0.060	
2.295	-0.162	0.036	
2.300	0.643	0.010	
2.305	-0.349	0.031	
2.310	-0.489	0.011	
2.315	0.409	-0.044	
2.320	-0.115	-0.052	
2.325	-0.656	-0.069	
2.330	-0.014	-0.131	
2.335	0.185	-0.160	
2.340	-0.619	-0.157	
2.345	-0.294	-0.189	
2.350	0.533	-0.201	
2.355	-0.310	-0.148	
2.360	-0.385	-0.117	
2.365	0.641	-0.100	
2.370	-0.003	-0.032	
2.375	-0.604	0.009	
2.380	-0.063	-0.032	
2.385	-0.009	-0.080	
2.390	-0.776	-0.128	
2.395	-0.483	-0.223	
2.400	0.101	-0.304	
2.405	-0.552	-0.326	
2.410	-0.648	-0.353	
2.415	0.180	-0.378	
2.420	-0.213	-0.344	
2.425	-0.718	-0.308	
2.430	-0.052	-0.312	
2.435	0.177	-0.286	
2.440	-0.616	-0.235	
2.445	-0.281	-0.228	
2.450	0.528	-0.213	
2.455	-0.375	-0.147	
2.460	-0.498	-0.121	
2.465	0.487	-0.127	
2.470	-0.046	-0.086	
2.475	-0.576	-0.059	
2.480	0.188	-0.081	
2.485	0.443	-0.066	
2.490	-0.520	-0.021	
2.495	-0.199	-0.031	
2.500	0.704	-0.041	
2.505	-0.275	0.005	
2.510	-0.390	0.016	
2.515	0.716	0.003	
2.520	0.120	0.049	
2.525	-0.469	0.086	
2.530	0.418	0.069	
2.535	0.692	0.097	
2.540	-0.410	0.157	
2.545	-0.101	0.147	
2.550	0.834	0.125	
2.555	-0.275	0.151	
2.560	-0.462	0.128	
2.565	0.507	0.061	
2.570	-0.048	0.040	
2.575	-0.613	0.013	
2.580	0.059	-0.059	
2.585	0.295	-0.092	
2.590	-0.627	-0.091	
2.595	-0.353	-0.134	
2.600	0.383	-0.174	
2.605	-0.453	-0.164	
2.610	-0.578	-0.179	
2.615	0.356	-0.211	
2.620	-0.145	-0.189	
2.625	-0.656	-0.170	
2.630	0.122	-0.191	
2.635	0.402	-0.167	
2.640	-0.567	-0.107	
2.645	-0.257	-0.104	
2.650	0.570	-0.107	
2.655	-0.419	-0.067	
2.660	-0.592	-0.075	
2.665	0.295	-0.125	
2.670	-0.165	-0.135	
2.675	-0.665	-0.147	
2.680	0.101	-0.190	
2.685	0.380	-0.180	
2.690	-0.601	-0.130	
2.695	-0.329	-0.134	
2.700	0.377	-0.152	
2.705	-0.512	-0.137	
2.710	-0.654	-0.164	
2.715	0.192	-0.223	
2.720	-0.219	-0.233	
2.725	-0.744	-0.240	
2.730	-0.055	-0.281	
2.735	0.241	-0.278	
2.740	-0.599	-0.233	
2.745	-0.220	-0.222	
2.750	0.788	-0.187	
2.755	-0.272	-0.086	
2.760	-0.478	-0.031	
2.765	0.340	-0.039	
2.770	-0.283	-0.040	
2.775	-0.911	-0.085	
2.780	-0.298	-0.203	
2.785	-0.104	-0.297	
2.790	-0.796	-0.349	
2.795	-0.480	-0.411	
2.800	0.189	-0.437	
2.805	-0.506	-0.398	
2.810	-0.567	-0.369	
2.815	0.482	-0.340	
2.820	-0.078	-0.249	
2.825	-0.642	-0.172	
2.830	0.064	-0.163	
2.835	0.377	-0.134	
2.840	-0.578	-0.085	
2.845	-0.245	-0.092	
2.850	0.707	-0.095	
2.855	-0.320	-0.040	
2.860	-0.465	-0.024	
2.865	0.695	-0.037	
2.870	0.130	0.012	
2.875	-0.506	0.055	
2.880	0.435	0.045	
2.885	0.803	0.086	
2.890	-0.370	0.167	
2.895	0.023	0.180	
2.900	1.182	0.193	
2.905	-0.090	0.270	
2.910	-0.266	0.291	
2.915	1.046	0.268	
2.920	0.426	0.311	
2.925	-0.410	0.343	
2.930	0.557	0.303	
2.935	0.840	0.299	
2.940	-0.410	0.326	
2.945	-0.116	0.275	
2.950	0.858	0.209	
2.955	-0.295	0.198	
2.960	-0.491	0.146	
2.965	0.583	0.061	
2.970	-0.014	0.039	
2.975	-0.640	0.017	
2.980	0.091	-0.053	
2.985	0.415	-0.079	
2.990	-0.576	-0.062	
2.995	-0.239	-0.087	
3.000	0.739	-0.097	
3.005	-0.332	-0.043	
3.010	-0.503	-0.028	
3.015	0.597	-0.050	
3.020	0.039	-0.017	
3.025	-0.561	0.007	
3.030	0.357	-0.016	
3.035	0.722	0.016	
3.040	-0.446	0.092	
3.045	-0.107	0.099	
3.050	1.003	0.100	
3.055	-0.222	0.160	
3.060	-0.417	0.166	
3.065	0.770	0.125	
3.070	0.142	0.140	
3.075	-0.546	0.145	
3.080	0.331	0.092	
3.085	0.667	0.086	
3.090	-0.485	0.121	
3.095	-0.150	0.095	
3.100	0.918	0.071	
3.105	-0.252	0.112	
3.110	-0.430	0.111	
3.115	0.768	0.074	
3.120	0.185	0.102	
3.125	-0.498	0.126	
3.130	0.602	0.105	
3.135	1.110	0.159	
3.140	-0.272	0.274	
3.145	0.068	0.309	
3.150	1.118	0.315	
3.155	-0.294	0.352	
3.160	-0.579	0.303	
3.165	0.379	0.174	
3.170	-0.158	0.079	
3.175	-0.740	-0.013	
3.180	0.061	-0.129	
3.185	0.453	-0.170	
3.190	-0.593	-0.141	
3.195	-0.272	-0.147	
3.200	0.690	-0.144	
3.205	-0.373	-0.082	
3.210	-0.549	-0.064	
3.215	0.563	-0.085	
3.220	-0.022	-0.054	
3.225	-0.643	-0.035	
3.230	0.177	-0.071	
3.235	0.565	-0.063	
3.240	-0.541	-0.012	
3.245	-0.223	-0.019	
3.250	0.823	-0.026	
3.255	-0.301	0.026	
3.260	-0.468	0.036	
3.265	0.786	0.014	
3.270	0.241	0.062	
3.275	-0.477	0.111	
3.280	0.550	0.107	
3.285	0.965	0.159	
3.290	-0.347	0.253	
3.295	0.006	0.266	
3.300	1.202	0.263	
3.305	-0.122	0.318	
3.310	-0.327	0.316	
3.315	0.993	0.267	
3.320	0.302	0.283	
3.325	-0.537	0.288	
3.330	0.287	0.215	
3.335	0.594	0.169	
3.340	-0.569	0.156	
3.345	-0.283	0.083	
3.350	0.647	0.010	
3.355	-0.422	-0.001	
3.360	-0.630	-0.044	
3.365	0.362	-0.118	
3.370	-0.152	-0.136	
3.375	-0.760	-0.151	
3.380	-0.051	-0.211	
3.385	0.308	-0.226	
3.390	-0.671	-0.197	
3.395	-0.364	-0.211	
3.400	0.559	-0.218	
3.405	-0.440	-0.166	
3.410	-0.642	-0.155	
3.415	0.414	-0.181	
3.420	-0.075	-0.155	
3.425	-0.691	-0.134	
3.430	0.070	-0.163	
3.435	0.486	-0.150	
3.440	-0.602	-0.095	
3.445	-0.303	-0.098	
3.450	0.673	-0.106	
3.455	-0.407	-0.061	
3.460	-0.636	-0.063	
3.465	0.351	-0.114	
3.470	-0.127	-0.121	
3.475	-0.752	-0.132	
3.480	-0.068	-0.191	
3.485	0.290	-0.213	
3.490	-0.682	-0.192	
3.495	-0.396	-0.214	
3.500	0.481	-0.231	
3.505	-0.471	-0.193	
3.510	-0.665	-0.190	
3.515	0.369	-0.220	
3.520	-0.060	-0.193	
3.525	-0.616	-0.161	
3.530	0.298	-0.162	
3.535	0.681	-0.102	
3.540	-0.552	-0.002	
3.545	-0.344	0.012	
3.550	0.406	-0.022	
3.555	-0.546	-0.038	
3.560	-0.755	-0.105	
3.565	0.124	-0.208	
3.570	-0.216	-0.254	
3.575	-0.779	-0.279	
3.580	-0.064	-0.325	
3.585	0.353	-0.314	
3.590	-0.630	-0.249	
3.595	-0.326	-0.229	
3.600	0.646	-0.206	
3.605	-0.384	-0.129	
3.610	-0.579	-0.100	
3.615	0.521	-0.115	
3.620	0.000	-0.079	
3.625	-0.633	-0.052	
3.630	0.183	-0.080	
3.635	0.664	-0.060	
3.640	-0.457	0.010	
3.645	-0.141	0.024	
3.650	1.007	0.039	
3.655	-0.184	0.117	
3.660	-0.398	0.145	
3.665	0.889	0.128	
3.670	0.392	0.178	
3.675	-0.431	0.227	
3.680	0.594	0.215	
3.685	1.023	0.251	
3.690	-0.310	0.330	
3.695	0.012	0.327	
3.700	1.170	0.306	
3.705	-0.112	0.343	
3.710	-0.353	0.325	
3.715	0.877	0.259	
3.720	0.288	0.256	
3.725	-0.518	0.251	
3.730	0.296	0.181	
3.735	0.638	0.146	
3.740	-0.524	0.151	
3.745	-0.281	0.093	
3.750	0.661	0.028	
3.755	-0.356	0.022	
3.760	-0.556	-0.013	
3.765	0.518	-0.071	
3.770	0.012	-0.064	
3.775	-0.630	-0.053	
3.780	0.143	-0.089	
3.785	0.574	-0.079	
3.790	-0.530	-0.025	
3.795	-0.251	-0.027	
3.800	0.794	-0.035	
3.805	-0.281	0.017	
3.810	-0.478	0.028	
3.815	0.716	0.004	
3.820	0.180	0.044	
3.825	-0.558	0.079	
3.830	0.267	0.051	
3.835	0.686	0.058	
3.840	-0.483	0.105	
3.845	-0.225	0.085	
3.850	0.777	0.052	
3.855	-0.307	0.074	
3.860	-0.524	0.054	
3.865	0.537	-0.003	
3.870	0.018	-0.005	
3.875	-0.634	-0.007	
3.880	0.107	-0.060	
3.885	0.521	-0.070	
3.890	-0.572	-0.036	
3.895	-0.303	-0.055	
3.900	0.695	-0.076	
3.905	-0.330	-0.038	
3.910	-0.517	-0.034	
3.915	0.739	-0.055	
3.920	0.369	0.006	
3.925	-0.448	0.083	
3.930	0.440	0.101	
3.935	0.791	0.148	
3.940	-0.512	0.213	
3.945	-0.330	0.180	
3.950	0.513	0.100	
3.955	-0.448	0.054	
3.960	-0.648	-0.027	
3.965	0.379	-0.124	
3.970	-0.038	-0.146	
3.975	-0.650	-0.146	
3.980	0.108	-0.176	
3.985	0.576	-0.151	
3.990	-0.509	-0.077	
3.995	-0.223	-0.057	
4.000	0.855	-0.041	
4.005	-0.249	0.031	
4.010	-0.451	0.057	
4.015	0.759	0.041	
4.020	0.276	0.087	
4.025	-0.506	0.131	
4.030	0.385	0.112	
4.035	0.835	0.133	
4.040	-0.398	0.195	
4.045	-0.101	0.187	
4.050	1.097	0.171	
4.055	-0.109	0.223	
4.060	-0.329	0.233	
4.065	1.046	0.208	
4.070	0.617	0.267	
4.075	-0.342	0.336	
4.080	0.728	0.339	
4.085	1.196	0.384	
4.090	-0.228	0.469	
4.095	0.110	0.463	
4.100	1.275	0.433	
4.105	-0.031	0.460	
4.110	-0.320	0.430	
4.115	0.929	0.347	
4.120	0.348	0.330	
4.125	-0.527	0.311	
4.130	0.252	0.223	
4.135	0.634	0.167	
4.140	-0.530	0.154	
4.145	-0.291	0.086	
4.150	0.713	0.019	
4.155	-0.336	0.019	
4.160	-0.576	-0.009	
4.165	0.463	-0.069	
4.170	-0.008	-0.070	
4.175	-0.653	-0.067	
4.180	0.087	-0.109	
4.185	0.577	-0.106	
4.190	-0.518	-0.051	
4.195	-0.260	-0.048	
4.200	0.786	-0.049	
4.205	-0.278	0.007	
4.210	-0.498	0.021	
4.215	0.657	-0.005	
4.220	0.185	0.030	
4.225	-0.561	0.063	
4.230	0.232	0.035	
4.235	0.701	0.042	
4.240	-0.483	0.091	
4.245	-0.249	0.075	
4.250	0.751	0.042	
4.255	-0.304	0.062	
4.260	-0.543	0.042	
4.265	0.518	-0.016	
4.270	0.020	-0.018	
4.275	-0.650	-0.020	
4.280	0.055	-0.073	
4.285	0.510	-0.088	
4.290	-0.552	-0.055	
4.295	-0.281	-0.068	
4.300	0.806	-0.077	
4.305	-0.223	-0.016	
4.310	-0.390	0.016	
4.315	1.055	0.031	
4.320	0.638	0.141	
4.325	-0.388	0.259	
4.330	0.487	0.286	
4.335	0.727	0.306	
4.340	-0.572	0.323	
4.345	-0.399	0.234	
4.350	0.463	0.105	
4.355	-0.425	0.027	
4.360	-0.625	-0.063	
4.365	0.466	-0.151	
4.370	0.053	-0.150	
4.375	-0.614	-0.124	
4.380	0.169	-0.135	
4.385	0.692	-0.096	
4.390	-0.459	-0.009	
4.395	-0.185	0.017	
4.400	0.945	0.032	
4.405	-0.190	0.103	
4.410	-0.422	0.126	
4.415	0.806	0.103	
4.420	0.334	0.144	
4.425	-0.501	0.182	
4.430	0.368	0.153	
4.435	0.866	0.162	
4.440	-0.379	0.215	
4.445	-0.084	0.203	
4.450	1.141	0.187	
4.455	-0.052	0.243	
4.460	-0.307	0.260	
4.465	1.069	0.239	
4.470	0.605	0.297	
4.475	-0.370	0.358	
4.480	0.625	0.345	
4.485	1.095	0.366	
4.490	-0.306	0.425	
4.495	-0.057	0.395	
4.500	1.104	0.339	
4.505	-0.152	0.341	
4.510	-0.442	0.296	
4.515	0.721	0.204	
4.520	0.183	0.176	
4.525	-0.611	0.152	
4.530	0.068	0.067	
4.535	0.522	0.015	
4.540	-0.587	0.011	
4.545	-0.356	-0.039	
4.550	0.618	-0.088	
4.555	-0.378	-0.073	
4.560	-0.637	-0.088	
4.565	0.397	-0.137	
4.570	-0.028	-0.130	
4.575	-0.692	-0.118	
4.580	-0.013	-0.157	
4.585	0.495	-0.157	
4.590	-0.581	-0.110	
4.595	-0.347	-0.113	
4.600	0.681	-0.121	
4.605	-0.323	-0.071	
4.610	-0.575	-0.058	
4.615	0.547	-0.084	
4.620	0.122	-0.051	
4.625	-0.624	-0.018	
4.630	0.093	-0.046	
4.635	0.588	-0.044	
4.640	-0.569	-0.003	
4.645	-0.365	-0.024	
4.650	0.594	-0.063	
4.655	-0.391	-0.050	
4.660	-0.648	-0.074	
4.665	0.350	-0.133	
4.670	-0.074	-0.139	
4.675	-0.727	-0.140	
4.680	-0.080	-0.189	
4.685	0.417	-0.200	
4.690	-0.608	-0.162	
4.695	-0.385	-0.168	
4.700	0.634	-0.174	
4.705	-0.303	-0.118	
4.710	-0.492	-0.091	
4.715	0.811	-0.082	
4.720	0.337	0.005	
4.725	-0.576	0.089	
4.730	0.042	0.078	
4.735	0.374	0.053	
4.740	-0.708	0.035	
4.745	-0.532	-0.053	
4.750	0.275	-0.156	
4.755	-0.508	-0.200	
4.760	-0.737	-0.253	
4.765	0.269	-0.311	
4.770	-0.066	-0.295	
4.775	-0.718	-0.259	
4.780	-0.046	-0.265	
4.785	0.498	-0.234	
4.790	-0.581	-0.158	
4.795	-0.344	-0.138	
4.800	0.710	-0.129	
4.805	-0.309	-0.065	
4.810	-0.566	-0.043	
4.815	0.565	-0.065	
4.820	0.143	-0.031	
4.825	-0.625	0.002	
4.830	0.113	-0.028	
4.835	0.706	-0.024	
4.840	-0.478	0.031	
4.845	-0.248	0.029	
4.850	0.927	0.021	
4.855	-0.182	0.079	
4.860	-0.451	0.098	
4.865	0.822	0.077	
4.870	0.435	0.128	
4.875	-0.495	0.184	
4.880	0.372	0.170	
4.885	0.926	0.185	
4.890	-0.396	0.243	
4.895	-0.188	0.224	
4.900	0.965	0.182	
4.905	-0.200	0.199	
4.910	-0.526	0.173	
4.915	0.568	0.096	
4.920	0.105	0.074	
4.925	-0.674	0.054	
4.930	-0.037	-0.025	
4.935	0.481	-0.071	
4.940	-0.624	-0.067	
4.945	-0.437	-0.108	
4.950	0.521	-0.153	
4.955	-0.399	-0.138	
4.960	-0.677	-0.149	
4.965	0.339	-0.192	
4.970	-0.026	-0.179	
4.975	-0.724	-0.160	
4.980	-0.080	-0.193	
4.985	0.486	-0.192	
4.990	-0.588	-0.142	
4.995	-0.384	-0.141	
5.000	0.672	-0.146	
5.005	-0.315	-0.092	
5.010	-0.599	-0.074	
5.015	0.476	-0.099	
5.020	0.076	-0.074	
5.025	-0.674	-0.050	
5.030	-0.023	-0.088	
5.035	0.533	-0.100	
5.040	-0.601	-0.067	
5.045	-0.420	-0.088	
5.050	0.570	-0.123	
5.055	-0.365	-0.101	
5.060	-0.660	-0.109	
5.065	0.347	-0.155	
5.070	-0.028	-0.149	
5.075	-0.729	-0.138	
5.080	-0.083	-0.180	
5.085	0.487	-0.186	
5.090	-0.593	-0.141	
5.095	-0.382	-0.143	
5.100	0.719	-0.147	
5.105	-0.246	-0.084	
5.110	-0.474	-0.049	
5.115	0.791	-0.042	
5.120	0.359	0.038	
5.125	-0.595	0.112	
5.130	-0.009	0.089	
5.135	0.446	0.053	
5.140	-0.660	0.036	
5.145	-0.497	-0.042	
5.150	0.432	-0.129	
5.155	-0.417	-0.150	
5.160	-0.671	-0.183	
5.165	0.415	-0.227	
5.170	0.104	-0.195	
5.175	-0.651	-0.144	
5.180	0.078	-0.144	
5.185	0.764	-0.106	
5.190	-0.445	-0.013	
5.195	-0.242	0.017	
5.200	0.959	0.031	
5.205	-0.152	0.102	
5.210	-0.460	0.127	
5.215	0.796	0.103	
5.220	0.452	0.146	
5.225	-0.506	0.195	
5.230	0.321	0.172	
5.235	0.974	0.180	
5.240	-0.358	0.239	
5.245	-0.148	0.229	
5.250	1.141	0.204	
5.255	-0.049	0.251	
5.260	-0.384	0.257	
5.265	0.958	0.220	
5.270	0.625	0.260	
5.275	-0.413	0.315	
5.280	0.510	0.298	
5.285	1.130	0.315	
5.290	-0.294	0.379	
5.295	-0.115	0.361	
5.300	1.132	0.313	
5.305	-0.090	0.327	
5.310	-0.448	0.297	
5.315	0.728	0.215	
5.320	0.331	0.197	
5.325	-0.588	0.189	
5.330	0.076	0.115	
5.335	0.673	0.068	
5.340	-0.512	0.074	
5.345	-0.341	0.032	
5.350	0.747	-0.016	
5.355	-0.277	0.004	
5.360	-0.593	-0.005	
5.365	0.501	-0.053	
5.370	0.185	-0.040	
5.375	-0.624	-0.014	
5.380	0.049	-0.046	
5.385	0.692	-0.045	
5.390	-0.488	0.007	
5.395	-0.297	0.004	
5.400	0.878	-0.007	
5.405	-0.185	0.048	
5.410	-0.500	0.066	
5.415	0.710	0.041	
5.420	0.386	0.081	
5.425	-0.543	0.130	
5.430	0.227	0.108	
5.435	0.843	0.112	
5.440	-0.443	0.161	
5.445	-0.278	0.141	
5.450	0.851	0.098	
5.455	-0.228	0.114	
5.460	-0.544	0.094	
5.465	0.606	0.034	
5.470	0.282	0.042	
5.475	-0.579	0.066	
5.480	0.142	0.031	
5.485	0.803	0.032	
5.490	-0.434	0.087	
5.495	-0.251	0.083	
5.500	1.013	0.070	
5.505	-0.037	0.130	
5.510	-0.327	0.164	
5.515	1.112	0.170	
5.520	0.744	0.263	
5.525	-0.404	0.362	
5.530	0.342	0.356	
5.535	0.791	0.337	
5.540	-0.511	0.331	
5.545	-0.371	0.239	
5.550	0.702	0.124	
5.555	-0.260	0.081	
5.560	-0.556	0.027	
5.565	0.608	-0.040	
5.570	0.348	-0.019	
5.575	-0.541	0.030	
5.580	0.224	0.025	
5.585	0.898	0.055	
5.590	-0.382	0.135	
5.595	-0.197	0.147	
5.600	1.054	0.138	
5.605	-0.087	0.193	
5.610	-0.425	0.205	
5.615	0.872	0.170	
5.620	0.580	0.209	
5.625	-0.436	0.263	
5.630	0.453	0.249	
5.635	1.120	0.269	
5.640	-0.268	0.342	
5.645	-0.052	0.339	
5.650	1.330	0.319	
5.655	0.189	0.379	
5.660	-0.269	0.406	
5.665	1.184	0.382	
5.670	0.904	0.439	
5.675	-0.280	0.511	
5.680	0.727	0.501	
5.685	1.369	0.521	
5.690	-0.165	0.587	
5.695	0.039	0.561	
5.700	1.355	0.503	
5.705	0.120	0.514	
5.710	-0.355	0.482	
5.715	0.909	0.392	
5.720	0.553	0.368	
5.725	-0.491	0.359	
5.730	0.243	0.280	
5.735	0.861	0.228	
5.740	-0.431	0.232	
5.745	-0.286	0.178	
5.750	0.870	0.112	
5.755	-0.182	0.118	
5.760	-0.524	0.098	
5.765	0.596	0.041	
5.770	0.307	0.050	
5.775	-0.564	0.075	
5.780	0.156	0.043	
5.785	0.849	0.047	
5.790	-0.398	0.107	
5.795	-0.222	0.109	
5.800	1.032	0.099	
5.805	-0.078	0.157	
5.810	-0.428	0.177	
5.815	0.852	0.151	
5.820	0.577	0.195	
5.825	-0.446	0.253	
5.830	0.379	0.238	
5.835	1.016	0.248	
5.840	-0.364	0.301	
5.845	-0.231	0.274	
5.850	0.968	0.217	
5.855	-0.133	0.222	
5.860	-0.492	0.193	
5.865	0.672	0.122	
5.870	0.394	0.122	
5.875	-0.535	0.143	
5.880	0.197	0.104	
5.885	0.878	0.100	
5.890	-0.382	0.152	
5.895	-0.214	0.145	
5.900	1.100	0.128	
5.905	0.085	0.192	
5.910	-0.246	0.235	
5.915	1.314	0.254	
5.920	1.016	0.374	
5.925	-0.277	0.505	
5.930	0.502	0.521	
5.935	0.930	0.509	
5.940	-0.462	0.497	
5.945	-0.365	0.383	
5.950	0.721	0.234	
5.955	-0.214	0.158	
5.960	-0.517	0.081	
5.965	0.684	0.002	
5.970	0.446	0.023	
5.975	-0.492	0.079	
5.980	0.322	0.082	
5.985	1.028	0.123	
5.990	-0.318	0.215	
5.995	-0.136	0.233	
6.000	1.168	0.225	
6.005	0.035	0.283	
6.010	-0.358	0.300	
6.015	1.007	0.268	
6.020	0.758	0.314	
6.025	-0.339	0.379	
6.030	0.623	0.374	
6.035	1.340	0.406	
6.040	-0.144	0.492	
6.045	0.130	0.499	
6.050	1.570	0.487	
6.055	0.487	0.565	
6.060	-0.080	0.613	
6.065	1.552	0.610	
6.070	1.405	0.700	
6.075	0.064	0.820	
6.080	1.240	0.855	
6.085	1.893	0.919	
6.090	0.198	1.022	
6.095	0.405	1.009	
6.100	1.694	0.940	
6.105	0.418	0.928	
6.110	-0.231	0.856	
6.115	1.098	0.712	
6.120	0.750	0.635	
6.125	-0.391	0.581	
6.130	0.417	0.466	
6.135	1.058	0.392	
6.140	-0.321	0.386	
6.145	-0.176	0.322	
6.150	1.061	0.250	
6.155	-0.084	0.254	
6.160	-0.454	0.229	
6.165	0.761	0.164	
6.170	0.502	0.174	
6.175	-0.468	0.207	
6.180	0.348	0.181	
6.185	1.043	0.193	
6.190	-0.304	0.262	
6.195	-0.147	0.261	
6.200	1.158	0.238	
6.205	0.021	0.284	
6.210	-0.378	0.292	
6.215	0.892	0.249	
6.220	0.609	0.275	
6.225	-0.440	0.314	
6.230	0.351	0.279	
6.235	1.032	0.270	
6.240	-0.335	0.312	
6.245	-0.211	0.282	
6.250	1.002	0.226	
6.255	-0.118	0.235	
6.260	-0.489	0.208	
6.265	0.683	0.138	
6.270	0.402	0.136	
6.275	-0.533	0.155	
6.280	0.154	0.111	
6.285	0.829	0.098	
6.290	-0.422	0.137	
6.295	-0.265	0.118	
6.300	0.958	0.087	
6.305	-0.063	0.129	
6.310	-0.365	0.148	
6.315	1.034	0.141	
6.320	0.707	0.222	
6.325	-0.449	0.314	
6.330	0.166	0.300	
6.335	0.641	0.261	
6.340	-0.585	0.234	
6.345	-0.492	0.131	
6.350	0.415	0.002	
6.355	-0.385	-0.063	
6.360	-0.709	-0.133	
6.365	0.284	-0.213	
6.370	0.088	-0.215	
6.375	-0.662	-0.186	
6.380	-0.046	-0.196	
6.385	0.634	-0.171	
6.390	-0.512	-0.094	
6.395	-0.376	-0.074	
6.400	0.686	-0.078	
6.405	-0.265	-0.031	
6.410	-0.617	-0.024	
6.415	0.421	-0.066	
6.420	0.188	-0.055	
6.425	-0.633	-0.032	
6.430	-0.026	-0.066	
6.435	0.631	-0.073	
6.440	-0.520	-0.030	
6.445	-0.378	-0.039	
6.450	0.718	-0.063	
6.455	-0.236	-0.025	
6.460	-0.573	-0.016	
6.465	0.530	-0.049	
6.470	0.305	-0.019	
6.475	-0.587	0.025	
6.480	0.058	0.004	
6.485	0.733	0.005	
6.490	-0.497	0.052	
6.495	-0.393	0.036	
6.500	0.612	-0.010	
6.505	-0.329	-0.007	
6.510	-0.714	-0.040	
6.515	0.128	-0.124	
6.520	-0.121	-0.169	
6.525	-0.856	-0.204	
6.530	-0.347	-0.285	
6.535	0.018	-0.342	
6.540	-0.834	-0.360	
6.545	-0.743	-0.413	
6.550	-0.046	-0.472	
6.555	-0.634	-0.482	
6.560	-0.990	-0.504	
6.565	-0.226	-0.553	
6.570	-0.336	-0.557	
6.575	-0.993	-0.544	
6.580	-0.489	-0.566	
6.585	-0.118	-0.569	
6.590	-0.900	-0.541	
6.595	-0.798	-0.552	
6.600	-0.090	-0.575	
6.605	-0.654	-0.556	
6.610	-0.992	-0.554	
6.615	-0.226	-0.583	
6.620	-0.333	-0.572	
6.625	-0.993	-0.548	
6.630	-0.491	-0.564	
6.635	-0.116	-0.565	
6.640	-0.912	-0.536	
6.645	-0.830	-0.551	
6.650	-0.145	-0.582	
6.655	-0.709	-0.574	
6.660	-0.995	-0.583	
6.665	-0.323	-0.619	
6.670	-0.436	-0.618	
6.675	-0.993	-0.604	
6.680	-0.592	-0.625	
6.685	-0.225	-0.631	
6.690	-0.980	-0.611	
6.695	-0.866	-0.629	
6.700	-0.164	-0.654	
6.705	-0.688	-0.633	
6.710	-0.996	-0.623	
6.715	-0.196	-0.635	
6.720	-0.266	-0.601	
6.725	-0.960	-0.551	
6.730	-0.465	-0.547	
6.735	-0.170	-0.539	
6.740	-0.993	-0.519	
6.745	-0.983	-0.558	
6.750	-0.352	-0.627	
6.755	-0.877	-0.663	
6.760	-0.993	-0.702	
6.765	-0.449	-0.744	
6.770	-0.509	-0.738	
6.775	-0.995	-0.713	
6.780	-0.625	-0.713	
6.785	-0.243	-0.696	
6.790	-0.981	-0.656	
6.795	-0.868	-0.657	
6.800	-0.170	-0.669	
6.805	-0.705	-0.640	
6.810	-0.993	-0.626	
6.815	-0.284	-0.641	
6.820	-0.368	-0.619	
6.825	-0.995	-0.587	
6.830	-0.512	-0.596	
6.835	-0.090	-0.587	
6.840	-0.862	-0.546	
6.845	-0.760	-0.544	
6.850	0.030	-0.551	
6.855	-0.575	-0.512	
6.860	-0.921	-0.492	
6.865	-0.115	-0.508	
6.870	-0.203	-0.485	
6.875	-0.888	-0.449	
6.880	-0.347	-0.456	
6.885	0.206	-0.439	
6.890	-0.741	-0.380	
6.895	-0.657	-0.371	
6.900	0.198	-0.383	
6.905	-0.518	-0.355	
6.910	-0.905	-0.356	
6.915	-0.153	-0.405	
6.920	-0.281	-0.423	
6.925	-0.990	-0.433	
6.930	-0.488	-0.485	
6.935	-0.083	-0.515	
6.940	-0.891	-0.506	
6.945	-0.819	-0.532	
6.950	-0.113	-0.569	
6.955	-0.656	-0.560	
6.960	-0.995	-0.564	
6.965	-0.262	-0.596	
6.970	-0.338	-0.588	
6.975	-0.990	-0.564	
6.980	-0.443	-0.575	
6.985	0.131	-0.556	
6.990	-0.747	-0.486	
6.995	-0.645	-0.455	
7.000	0.331	-0.434	
7.005	-0.419	-0.363	
7.010	-0.789	-0.320	
7.015	0.152	-0.325	
7.020	0.026	-0.289	
7.025	-0.766	-0.244	
7.030	-0.240	-0.257	
7.035	0.452	-0.253	
7.040	-0.622	-0.202	
7.045	-0.544	-0.202	
7.050	0.466	-0.221	
7.055	-0.384	-0.190	
7.060	-0.790	-0.190	
7.065	0.128	-0.240	
7.070	-0.016	-0.245	
7.075	-0.798	-0.235	
7.080	-0.269	-0.273	
7.085	0.412	-0.284	
7.090	-0.648	-0.242	
7.095	-0.575	-0.243	
7.100	0.452	-0.261	
7.105	-0.381	-0.224	
7.110	-0.773	-0.215	
7.115	0.272	-0.247	
7.120	0.276	-0.215	
7.125	-0.616	-0.150	
7.130	0.004	-0.134	
7.135	0.791	-0.093	
7.140	-0.511	-0.006	
7.145	-0.521	0.003	
7.150	0.400	-0.046	
7.155	-0.445	-0.070	
7.160	-0.853	-0.130	
7.165	0.030	-0.234	
7.170	-0.017	-0.279	
7.175	-0.770	-0.285	
7.180	-0.217	-0.318	
7.185	0.574	-0.304	
7.190	-0.564	-0.224	
7.195	-0.478	-0.191	
7.200	0.704	-0.178	
7.205	-0.226	-0.105	
7.210	-0.631	-0.068	
7.215	0.530	-0.081	
7.220	0.464	-0.032	
7.225	-0.564	0.040	
7.230	0.140	0.043	
7.235	1.016	0.071	
7.240	-0.362	0.155	
7.245	-0.294	0.168	
7.250	1.086	0.149	
7.255	0.111	0.204	
7.260	-0.413	0.235	
7.265	1.010	0.220	
7.270	0.944	0.290	
7.275	-0.342	0.389	
7.280	0.608	0.406	
7.285	1.537	0.450	
7.290	-0.009	0.558	
7.295	0.151	0.586	
7.300	1.662	0.581	
7.305	0.637	0.661	
7.310	-0.202	0.705	
7.315	1.272	0.666	
7.320	1.097	0.682	
7.325	-0.335	0.709	
7.330	0.476	0.633	
7.335	1.278	0.566	
7.340	-0.255	0.557	
7.345	-0.216	0.475	
7.350	1.182	0.370	
7.355	0.122	0.355	
7.360	-0.465	0.326	
7.365	0.808	0.252	
7.370	0.715	0.255	
7.375	-0.477	0.291	
7.380	0.252	0.255	
7.385	1.135	0.244	
7.390	-0.286	0.297	
7.395	-0.226	0.284	
7.400	1.205	0.246	
7.405	0.191	0.292	
7.410	-0.419	0.314	
7.415	0.926	0.280	
7.420	0.869	0.318	
7.425	-0.393	0.383	
7.430	0.435	0.368	
7.435	1.337	0.376	
7.440	-0.188	0.446	
7.445	-0.133	0.436	
7.450	1.356	0.392	
7.455	0.322	0.432	
7.460	-0.379	0.447	
7.465	0.973	0.396	
7.470	0.903	0.412	
7.475	-0.391	0.454	
7.480	0.392	0.415	
7.485	1.280	0.396	
7.490	-0.228	0.439	
7.495	-0.181	0.409	
7.500	1.288	0.351	
7.505	0.285	0.381	
7.510	-0.364	0.395	
7.515	1.061	0.357	
7.520	1.101	0.405	
7.525	-0.211	0.494	
7.530	0.897	0.520	
7.535	1.870	0.596	
7.540	0.227	0.747	
7.545	0.217	0.801	
7.550	1.566	0.783	
7.555	0.382	0.801	
7.560	-0.407	0.751	
7.565	0.849	0.607	
7.570	0.820	0.522	
7.575	-0.399	0.480	
7.580	0.429	0.392	
7.585	1.407	0.362	
7.590	-0.106	0.425	
7.595	-0.023	0.432	
7.600	1.506	0.418	
7.605	0.525	0.496	
7.610	-0.258	0.549	
7.615	1.239	0.531	
7.620	1.248	0.584	
7.625	-0.203	0.666	
7.630	0.747	0.656	
7.635	1.674	0.667	
7.640	0.091	0.742	
7.645	0.148	0.735	
7.650	1.702	0.692	
7.655	0.764	0.742	
7.660	-0.109	0.774	
7.665	1.482	0.740	
7.670	1.480	0.787	
7.675	-0.054	0.867	
7.680	1.003	0.856	
7.685	1.967	0.874	
7.690	0.400	0.967	
7.695	0.443	0.983	
7.700	1.981	0.960	
7.705	1.002	1.021	
7.710	0.020	1.047	
7.715	1.593	0.989	
7.720	1.529	0.996	
7.725	-0.077	1.026	
7.730	0.848	0.955	
7.735	1.712	0.897	
7.740	0.029	0.901	
7.745	-0.009	0.819	
7.750	1.469	0.695	
7.755	0.443	0.661	
7.760	-0.324	0.617	
7.765	1.025	0.519	
7.770	1.008	0.501	
7.775	-0.335	0.524	
7.780	0.427	0.475	
7.785	1.358	0.449	
7.790	-0.155	0.492	
7.795	-0.141	0.464	
7.800	1.362	0.407	
7.805	0.415	0.443	
7.810	-0.313	0.465	
7.815	1.077	0.430	
7.820	1.081	0.468	
7.825	-0.294	0.537	
7.830	0.510	0.518	
7.835	1.479	0.514	
7.840	-0.058	0.575	
7.845	-0.048	0.560	
7.850	1.502	0.511	
7.855	0.537	0.554	
7.860	-0.265	0.579	
7.865	1.141	0.538	
7.870	1.123	0.563	
7.875	-0.309	0.614	
7.880	0.426	0.568	
7.885	1.347	0.528	
7.890	-0.158	0.548	
7.895	-0.171	0.496	
7.900	1.281	0.415	
7.905	0.318	0.424	
7.910	-0.371	0.421	
7.915	0.962	0.367	
7.920	0.991	0.390	
7.925	-0.335	0.450	
7.930	0.429	0.431	
7.935	1.508	0.436	
7.940	0.101	0.521	
7.945	0.250	0.557	
7.950	1.838	0.585	
7.955	0.822	0.709	
7.960	-0.202	0.791	
7.965	0.994	0.750	
7.970	0.800	0.711	
7.975	-0.508	0.657	
7.980	-0.017	0.498	
7.985	0.965	0.348	
7.990	-0.306	0.284	
7.995	-0.287	0.203	
8.000	1.097	0.136	
8.005	0.169	0.173	
8.010	-0.443	0.206	
8.015	0.814	0.188	
8.020	0.883	0.240	
8.025	-0.385	0.323	
8.030	0.290	0.322	
8.035	1.291	0.331	
8.040	-0.171	0.399	
8.045	-0.177	0.394	
8.050	1.297	0.355	
8.055	0.386	0.399	
8.060	-0.347	0.427	
8.065	0.993	0.393	
8.070	1.084	0.430	
8.075	-0.292	0.501	
8.080	0.472	0.488	
8.085	1.506	0.491	
8.090	-0.014	0.562	
8.095	-0.017	0.561	
8.100	1.586	0.528	
8.105	0.678	0.591	
8.110	-0.226	0.638	
8.115	1.201	0.609	
8.120	1.237	0.640	
8.125	-0.249	0.695	
8.130	0.466	0.650	
8.135	1.417	0.604	
8.140	-0.152	0.616	
8.145	-0.232	0.548	
8.150	1.098	0.436	
8.155	0.104	0.396	
8.160	-0.530	0.339	
8.165	0.522	0.228	
8.170	0.565	0.181	
8.175	-0.569	0.175	
8.180	-0.126	0.107	
8.185	0.806	0.054	
8.190	-0.423	0.066	
8.195	-0.459	0.037	
8.200	0.731	-0.012	
8.205	-0.112	0.007	
8.210	-0.633	0.010	
8.215	0.377	-0.037	
8.220	0.464	-0.026	
8.225	-0.601	0.016	
8.230	-0.132	-0.006	
8.235	0.823	-0.017	
8.240	-0.398	0.032	
8.245	-0.426	0.031	
8.250	0.832	0.006	
8.255	-0.035	0.048	
8.260	-0.579	0.068	
8.265	0.476	0.033	
8.270	0.592	0.053	
8.275	-0.543	0.106	
8.280	-0.089	0.085	
8.285	0.831	0.064	
8.290	-0.436	0.094	
8.295	-0.486	0.068	
8.300	0.696	0.009	
8.305	-0.113	0.015	
8.310	-0.653	0.007	
8.315	0.310	-0.049	
8.320	0.408	-0.051	
8.325	-0.627	-0.019	
8.330	-0.176	-0.047	
8.335	0.790	-0.061	
8.340	-0.416	-0.011	
8.345	-0.453	-0.007	
8.350	0.849	-0.026	
8.355	0.093	0.032	
8.360	-0.488	0.079	
8.365	0.618	0.076	
8.370	0.635	0.124	
8.375	-0.605	0.184	
8.380	-0.268	0.141	
8.385	0.452	0.062	
8.390	-0.611	0.013	
8.395	-0.686	-0.081	
8.400	0.311	-0.189	
8.405	-0.269	-0.223	
8.410	-0.752	-0.244	
8.415	0.148	-0.284	
8.420	0.334	-0.257	
8.425	-0.654	-0.189	
8.430	-0.208	-0.175	
8.435	0.730	-0.151	
8.440	-0.433	-0.074	
8.445	-0.480	-0.051	
8.450	0.788	-0.058	
8.455	-0.014	-0.001	
8.460	-0.590	0.035	
8.465	0.444	0.012	
8.470	0.611	0.040	
8.475	-0.526	0.099	
8.480	-0.046	0.088	
8.485	1.028	0.085	
8.490	-0.263	0.148	
8.495	-0.315	0.161	
8.500	1.063	0.145	
8.505	0.246	0.205	
8.510	-0.448	0.248	
8.515	0.753	0.228	
8.520	0.926	0.268	
8.525	-0.396	0.340	
8.530	0.125	0.324	
8.535	1.165	0.304	
8.540	-0.245	0.340	
8.545	-0.365	0.309	
8.550	0.867	0.232	
8.555	-0.011	0.214	
8.560	-0.624	0.176	
8.565	0.267	0.079	
8.570	0.363	0.029	
8.575	-0.671	0.014	
8.580	-0.294	-0.054	
8.585	0.533	-0.111	
8.590	-0.535	-0.108	
8.595	-0.624	-0.140	
8.600	0.397	-0.194	
8.605	-0.240	-0.188	
8.610	-0.779	-0.190	
8.615	0.020	-0.238	
8.620	0.220	-0.242	
8.625	-0.712	-0.211	
8.630	-0.300	-0.226	
8.635	0.606	-0.224	
8.640	-0.456	-0.161	
8.645	-0.521	-0.138	
8.650	0.673	-0.140	
8.655	-0.029	-0.078	
8.660	-0.570	-0.031	
8.665	0.501	-0.033	
8.670	0.721	0.025	
8.675	-0.471	0.117	
8.680	-0.026	0.129	
8.685	1.039	0.135	
8.690	-0.281	0.195	
8.695	-0.404	0.191	
8.700	0.819	0.142	
8.705	0.018	0.149	
8.710	-0.599	0.137	
8.715	0.350	0.067	
8.720	0.537	0.050	
8.725	-0.581	0.071	
8.730	-0.193	0.031	
8.735	0.758	-0.004	
8.740	-0.405	0.021	
8.745	-0.504	0.004	
8.750	0.663	-0.039	
8.755	-0.052	-0.018	
8.760	-0.605	-0.007	
8.765	0.458	-0.037	
8.770	0.835	0.008	
8.775	-0.384	0.109	
8.780	0.070	0.145	
8.785	1.084	0.175	
8.790	-0.309	0.246	
8.795	-0.524	0.233	
8.800	0.461	0.142	
8.805	-0.225	0.079	
8.810	-0.782	-0.002	
8.815	-0.013	-0.124	
8.820	0.249	-0.188	
8.825	-0.672	-0.193	
8.830	-0.277	-0.223	
8.835	0.654	-0.223	
8.840	-0.434	-0.155	
8.845	-0.524	-0.126	
8.850	0.637	-0.128	
8.855	-0.072	-0.074	
8.860	-0.645	-0.041	
8.865	0.253	-0.068	
8.870	0.504	-0.052	
8.875	-0.579	-0.003	
8.880	-0.194	-0.018	
8.885	0.823	-0.028	
8.890	-0.341	0.023	
8.895	-0.436	0.030	
8.900	0.822	0.010	
8.905	0.119	0.060	
8.910	-0.527	0.098	
8.915	0.556	0.081	
8.920	0.866	0.124	
8.925	-0.393	0.210	
8.930	0.079	0.221	
8.935	1.205	0.230	
8.940	-0.152	0.300	
8.945	-0.284	0.308	
8.950	1.081	0.271	
8.955	0.334	0.305	
8.960	-0.465	0.325	
8.965	0.550	0.273	
8.970	0.777	0.262	
8.975	-0.477	0.283	
8.980	-0.136	0.227	
8.985	0.848	0.162	
8.990	-0.361	0.155	
8.995	-0.506	0.106	
9.000	0.631	0.028	
9.005	-0.075	0.016	
9.010	-0.669	-0.002	
9.015	0.168	-0.068	
9.020	0.440	-0.083	
9.025	-0.607	-0.054	
9.030	-0.240	-0.077	
9.035	0.731	-0.091	
9.040	-0.396	-0.042	
9.045	-0.527	-0.038	
9.050	0.626	-0.067	
9.055	-0.016	-0.036	
9.060	-0.613	-0.015	
9.065	0.313	-0.045	
9.070	0.612	-0.022	
9.075	-0.523	0.040	
9.080	-0.155	0.036	
9.085	0.893	0.030	
9.090	-0.310	0.083	
9.095	-0.445	0.085	
9.100	0.790	0.052	
9.105	0.096	0.083	
9.110	-0.578	0.101	
9.115	0.328	0.058	
9.120	0.576	0.056	
9.125	-0.567	0.087	
9.130	-0.231	0.050	
9.135	0.747	0.009	
9.140	-0.390	0.028	
9.145	-0.537	0.006	
9.150	0.603	-0.046	
9.155	-0.052	-0.034	
9.160	-0.656	-0.030	
9.165	0.235	-0.074	
9.170	0.597	-0.063	
9.175	-0.530	-0.005	
9.180	-0.136	-0.003	
9.185	1.091	0.012	
9.190	-0.115	0.106	
9.195	-0.255	0.161	
9.200	1.133	0.181	
9.205	0.417	0.270	
9.210	-0.495	0.332	
9.215	0.347	0.290	
9.220	0.533	0.250	
9.225	-0.614	0.221	
9.230	-0.272	0.121	
9.235	0.748	0.031	
9.240	-0.344	0.021	
9.245	-0.472	-0.006	
9.250	0.777	-0.042	
9.255	0.145	0.004	
9.260	-0.547	0.051	
9.265	0.437	0.040	
9.270	0.783	0.079	
9.275	-0.446	0.155	
9.280	-0.080	0.155	
9.285	1.068	0.148	
9.290	-0.200	0.203	
9.295	-0.356	0.207	
9.300	0.988	0.174	
9.305	0.363	0.217	
9.310	-0.451	0.257	
9.315	0.635	0.233	
9.320	0.984	0.262	
9.325	-0.347	0.332	
9.330	0.104	0.323	
9.335	1.326	0.314	
9.340	-0.031	0.377	
9.345	-0.219	0.387	
9.350	1.286	0.358	
9.355	0.686	0.418	
9.360	-0.307	0.479	
9.365	0.867	0.464	
9.370	1.199	0.492	
9.375	-0.262	0.553	
9.380	0.151	0.520	
9.385	1.260	0.467	
9.390	-0.129	0.473	
9.395	-0.347	0.418	
9.400	0.924	0.319	
9.405	0.249	0.292	
9.410	-0.544	0.265	
9.415	0.347	0.181	
9.420	0.663	0.143	
9.425	-0.521	0.151	
9.430	-0.210	0.100	
9.435	0.819	0.051	
9.440	-0.329	0.068	
9.445	-0.520	0.047	
9.450	0.649	-0.005	
9.455	0.062	0.009	
9.460	-0.598	0.023	
9.465	0.304	-0.013	
9.470	0.673	0.003	
9.475	-0.497	0.064	
9.480	-0.170	0.059	
9.485	0.922	0.050	
9.490	-0.258	0.102	
9.495	-0.437	0.107	
9.500	0.828	0.076	
9.505	0.246	0.114	
9.510	-0.527	0.148	
9.515	0.432	0.120	
9.520	0.822	0.138	
9.525	-0.443	0.196	
9.530	-0.141	0.179	
9.535	0.947	0.148	
9.540	-0.275	0.174	
9.545	-0.482	0.150	
9.550	0.687	0.086	
9.555	0.087	0.083	
9.560	-0.613	0.078	
9.565	0.220	0.019	
9.570	0.603	0.006	
9.575	-0.541	0.039	
9.580	-0.240	0.015	
9.585	0.808	-0.009	
9.590	-0.313	0.030	
9.595	-0.501	0.028	
9.600	0.735	-0.004	
9.605	0.292	0.038	
9.610	-0.426	0.094	
9.615	0.715	0.110	
9.620	1.084	0.195	
9.625	-0.347	0.317	
9.630	-0.138	0.331	
9.635	0.761	0.282	
9.640	-0.431	0.251	
9.645	-0.674	0.153	
9.650	0.319	0.009	
9.655	-0.118	-0.070	
9.660	-0.703	-0.125	
9.665	0.068	-0.196	
9.670	0.527	-0.196	
9.675	-0.566	-0.135	
9.680	-0.266	-0.120	
9.685	0.808	-0.104	
9.690	-0.303	-0.028	
9.695	-0.501	0.000	
9.700	0.690	-0.014	
9.705	0.148	0.029	
9.710	-0.579	0.063	
9.715	0.295	0.036	
9.720	0.753	0.051	
9.725	-0.453	0.111	
9.730	-0.147	0.106	
9.735	1.028	0.097	
9.740	-0.185	0.154	
9.745	-0.401	0.166	
9.750	0.930	0.138	
9.755	0.437	0.187	
9.760	-0.431	0.239	
9.765	0.621	0.230	
9.770	1.101	0.271	
9.775	-0.298	0.358	
9.780	0.064	0.361	
9.785	1.298	0.348	
9.790	-0.037	0.398	
9.795	-0.313	0.391	
9.800	1.023	0.333	
9.805	0.424	0.342	
9.810	-0.506	0.346	
9.815	0.330	0.273	
9.820	0.710	0.226	
9.825	-0.526	0.218	
9.830	-0.284	0.145	
9.835	0.701	0.064	
9.840	-0.373	0.047	
9.845	-0.616	-0.001	
9.850	0.406	-0.079	
9.855	-0.083	-0.098	
9.860	-0.732	-0.112	
9.865	-0.052	-0.172	
9.870	0.403	-0.190	
9.875	-0.639	-0.158	
9.880	-0.379	-0.171	
9.885	0.589	-0.183	
9.890	-0.401	-0.137	
9.895	-0.628	-0.128	
9.900	0.444	-0.156	
9.905	-0.040	-0.130	
9.910	-0.698	-0.109	
9.915	0.026	-0.144	
9.920	0.516	-0.140	
9.925	-0.575	-0.090	
9.930	-0.307	-0.093	
9.935	0.750	-0.097	
9.940	-0.321	-0.041	
9.945	-0.564	-0.027	
9.950	0.565	-0.056	
9.955	0.055	-0.031	
9.960	-0.683	-0.014	
9.965	-0.013	-0.064	
9.970	0.463	-0.088	
9.975	-0.625	-0.070	
9.980	-0.385	-0.103	
9.985	0.606	-0.136	
9.990	-0.390	-0.107	
9.995	-0.634	-0.111	
10.000	0.429	-0.149	
10.005	-0.037	-0.131	
10.010	-0.712	-0.115	
10.015	-0.003	-0.153	
10.020	0.525	-0.153	
10.025	-0.552	-0.102	
10.030	-0.242	-0.095	
10.035	1.034	-0.075	
10.040	-0.158	0.026	
10.045	-0.460	0.083	
10.050	0.693	0.078	
10.055	0.052	0.106	
10.060	-0.757	0.102	
10.065	-0.177	0.006	
10.070	0.189	-0.085	
10.075	-0.744	-0.139	
10.080	-0.495	-0.223	
10.085	0.490	-0.280	
10.090	-0.411	-0.254	
10.095	-0.642	-0.238	
10.100	0.479	-0.243	
10.105	0.070	-0.183	
10.110	-0.656	-0.121	
10.115	0.101	-0.121	
10.120	0.664	-0.089	
10.125	-0.529	-0.015	
10.130	-0.289	-0.008	
10.135	0.855	-0.014	
10.140	-0.248	0.039	
10.145	-0.518	0.051	
10.150	0.716	0.021	
10.155	0.321	0.060	
10.160	-0.544	0.105	
10.165	0.336	0.088	
10.170	0.936	0.113	
10.175	-0.375	0.188	
10.180	-0.109	0.195	
10.185	1.231	0.191	
10.190	-0.005	0.263	
10.195	-0.323	0.291	
10.200	1.106	0.272	
10.205	0.683	0.331	
10.210	-0.398	0.395	
10.215	0.571	0.374	
10.220	1.109	0.381	
10.225	-0.335	0.427	
10.230	-0.141	0.385	
10.235	1.034	0.312	
10.240	-0.203	0.298	
10.245	-0.535	0.241	
10.250	0.579	0.136	
10.255	0.131	0.094	
10.260	-0.666	0.064	
10.265	-0.011	-0.018	
10.270	0.534	-0.063	
10.275	-0.587	-0.051	
10.280	-0.379	-0.083	
10.285	0.652	-0.115	
10.290	-0.339	-0.083	
10.295	-0.627	-0.082	
10.300	0.443	-0.119	
10.305	0.065	-0.101	
10.310	-0.686	-0.078	
10.315	-0.019	-0.114	
10.320	0.583	-0.117	
10.325	-0.556	-0.069	
10.330	-0.359	-0.074	
10.335	0.722	-0.088	
10.340	-0.301	-0.043	
10.345	-0.592	-0.034	
10.350	0.551	-0.067	
10.355	0.189	-0.038	
10.360	-0.621	-0.003	
10.365	0.114	-0.028	
10.370	0.713	-0.021	
10.375	-0.514	0.034	
10.380	-0.327	0.025	
10.385	0.747	-0.003	
10.390	-0.303	0.023	
10.395	-0.621	0.010	
10.400	0.449	-0.049	
10.405	0.078	-0.053	
10.410	-0.697	-0.049	
10.415	-0.071	-0.102	
10.420	0.548	-0.123	
10.425	-0.566	-0.089	
10.430	-0.378	-0.100	
10.435	0.704	-0.116	
10.440	-0.289	-0.068	
10.445	-0.576	-0.053	
10.450	0.618	-0.073	
10.455	0.388	-0.022	
10.460	-0.482	0.050	
10.465	0.386	0.067	
10.470	0.959	0.121	
10.475	-0.426	0.212	
10.480	-0.333	0.207	
10.485	0.620	0.144	
10.490	-0.388	0.111	
10.495	-0.720	0.034	
10.500	0.249	-0.083	
10.505	-0.016	-0.137	
10.510	-0.700	-0.160	
10.515	-0.026	-0.208	
10.520	0.661	-0.198	
10.525	-0.492	-0.119	
10.530	-0.297	-0.087	
10.535	0.904	-0.064	
10.540	-0.168	0.022	
10.545	-0.485	0.063	
10.550	0.776	0.056	
10.555	0.481	0.113	
10.560	-0.495	0.178	
10.565	0.313	0.168	
10.570	0.973	0.183	
10.575	-0.362	0.244	
10.580	-0.185	0.232	
10.585	1.086	0.199	
10.590	-0.058	0.236	
10.595	-0.401	0.236	
10.600	0.938	0.197	
10.605	0.673	0.240	
10.610	-0.385	0.305	
10.615	0.571	0.302	
10.620	1.259	0.338	
10.625	-0.203	0.426	
10.630	0.018	0.431	
10.635	1.365	0.409	
10.640	0.169	0.458	
10.645	-0.313	0.461	
10.650	1.025	0.404	
10.655	0.699	0.414	
10.660	-0.430	0.434	
10.665	0.348	0.373	
10.670	0.961	0.330	
10.675	-0.394	0.335	
10.680	-0.257	0.272	
10.685	0.903	0.190	
10.690	-0.194	0.177	
10.695	-0.544	0.137	
10.700	0.594	0.060	
10.705	0.322	0.056	
10.710	-0.572	0.074	
10.715	0.133	0.038	
10.720	0.796	0.035	
10.725	-0.436	0.087	
10.730	-0.272	0.080	
10.735	0.939	0.060	
10.740	-0.133	0.107	
10.745	-0.483	0.119	
10.750	0.731	0.086	
10.755	0.461	0.121	
10.760	-0.504	0.168	
10.765	0.272	0.148	
10.770	0.962	0.157	
10.775	-0.358	0.217	
10.780	-0.184	0.209	
10.785	1.100	0.184	
10.790	-0.045	0.229	
10.795	-0.430	0.235	
10.800	0.823	0.191	
10.805	0.536	0.215	
10.810	-0.494	0.252	
10.815	0.236	0.214	
10.820	0.897	0.196	
10.825	-0.414	0.225	
10.830	-0.284	0.188	
10.835	0.872	0.130	
10.840	-0.185	0.136	
10.845	-0.538	0.113	
10.850	0.612	0.050	
10.855	0.359	0.058	
10.860	-0.570	0.087	
10.865	0.134	0.055	
10.870	0.857	0.055	
10.875	-0.388	0.112	
10.880	-0.182	0.115	
10.885	1.254	0.118	
10.890	0.195	0.214	
10.895	-0.326	0.283	
10.900	1.002	0.290	
10.905	0.609	0.345	
10.910	-0.550	0.386	
10.915	-0.011	0.311	
10.920	0.571	0.217	
10.925	-0.573	0.157	
10.930	-0.431	0.052	
10.935	0.684	-0.044	
10.940	-0.242	-0.051	
10.945	-0.578	-0.063	
10.950	0.573	-0.095	
10.955	0.359	-0.050	
10.960	-0.569	0.014	
10.965	0.120	0.013	
10.970	0.851	0.034	
10.975	-0.414	0.103	
10.980	-0.271	0.106	
10.985	0.973	0.089	
10.990	-0.104	0.137	
10.995	-0.483	0.148	
11.000	0.753	0.112	
11.005	0.544	0.145	
11.010	-0.482	0.198	
11.015	0.331	0.183	
11.020	1.103	0.201	
11.025	-0.280	0.277	
11.030	-0.126	0.283	
11.035	1.266	0.267	
11.040	0.165	0.329	
11.045	-0.333	0.357	
11.050	1.046	0.330	
11.055	0.832	0.375	
11.060	-0.355	0.437	
11.065	0.521	0.416	
11.070	1.230	0.418	
11.075	-0.255	0.467	
11.080	-0.158	0.431	
11.085	1.146	0.360	
11.090	-0.026	0.356	
11.095	-0.475	0.317	
11.100	0.681	0.226	
11.105	0.427	0.200	
11.110	-0.573	0.194	
11.115	0.036	0.124	
11.120	0.754	0.079	
11.125	-0.494	0.090	
11.130	-0.387	0.051	
11.135	0.745	-0.002	
11.140	-0.232	0.012	
11.145	-0.627	0.001	
11.150	0.464	-0.052	
11.155	0.278	-0.041	
11.160	-0.625	-0.010	
11.165	-0.031	-0.040	
11.170	0.745	-0.044	
11.175	-0.469	0.008	
11.180	-0.362	0.006	
11.185	0.829	-0.013	
11.190	-0.155	0.033	
11.195	-0.540	0.049	
11.200	0.641	0.020	
11.205	0.458	0.058	
11.210	-0.543	0.112	
11.215	0.149	0.096	
11.220	0.944	0.103	
11.225	-0.388	0.163	
11.230	-0.292	0.157	
11.235	0.924	0.123	
11.240	-0.148	0.148	
11.245	-0.572	0.136	
11.250	0.537	0.070	
11.255	0.350	0.064	
11.260	-0.608	0.078	
11.265	-0.020	0.030	
11.270	0.751	0.005	
11.275	-0.474	0.039	
11.280	-0.378	0.022	
11.285	0.799	-0.011	
11.290	-0.179	0.023	
11.295	-0.570	0.030	
11.300	0.612	-0.005	
11.305	0.551	0.034	
11.310	-0.437	0.106	
11.315	0.482	0.129	
11.320	1.306	0.201	
11.325	-0.229	0.332	
11.330	-0.208	0.364	
11.335	0.883	0.324	
11.340	-0.249	0.305	
11.345	-0.715	0.224	
11.350	0.223	0.075	
11.355	0.107	-0.019	
11.360	-0.685	-0.073	
11.365	-0.080	-0.149	
11.370	0.764	-0.162	
11.375	-0.446	-0.092	
11.380	-0.346	-0.063	
11.385	0.909	-0.047	
11.390	-0.095	0.032	
11.395	-0.512	0.075	
11.400	0.689	0.063	
11.405	0.551	0.110	
11.410	-0.512	0.172	
11.415	0.208	0.159	
11.420	1.066	0.168	
11.425	-0.306	0.235	
11.430	-0.214	0.236	
11.435	1.176	0.213	
11.440	0.140	0.268	
11.445	-0.381	0.295	
11.450	0.991	0.271	
11.455	0.918	0.325	
11.460	-0.310	0.408	
11.465	0.614	0.416	
11.470	1.477	0.453	
11.475	-0.098	0.548	
11.480	0.010	0.553	
11.485	1.486	0.519	
11.490	0.389	0.561	
11.495	-0.294	0.570	
11.500	1.084	0.510	
11.505	0.913	0.515	
11.510	-0.385	0.539	
11.515	0.324	0.473	
11.520	1.101	0.416	
11.525	-0.344	0.412	
11.530	-0.315	0.338	
11.535	0.904	0.237	
11.540	-0.142	0.205	
11.545	-0.599	0.153	
11.550	0.440	0.057	
11.555	0.281	0.026	
11.560	-0.665	0.021	
11.565	-0.138	-0.040	
11.570	0.621	-0.077	
11.575	-0.527	-0.055	
11.580	-0.472	-0.075	
11.585	0.615	-0.111	
11.590	-0.257	-0.085	
11.595	-0.685	-0.083	
11.600	0.310	-0.128	
11.605	0.226	-0.119	
11.610	-0.679	-0.089	
11.615	-0.148	-0.116	
11.620	0.640	-0.124	
11.625	-0.509	-0.076	
11.630	-0.448	-0.077	
11.635	0.696	-0.096	
11.640	-0.194	-0.053	
11.645	-0.617	-0.036	
11.650	0.450	-0.066	
11.655	0.403	-0.037	
11.660	-0.596	0.014	
11.665	-0.084	-0.003	
11.670	0.727	-0.013	
11.675	-0.492	0.025	
11.680	-0.460	0.006	
11.685	0.658	-0.039	
11.690	-0.228	-0.025	
11.695	-0.676	-0.036	
11.700	0.319	-0.092	
11.705	0.264	-0.093	
11.710	-0.662	-0.067	
11.715	-0.132	-0.097	
11.720	0.710	-0.104	
11.725	-0.472	-0.050	
11.730	-0.411	-0.045	
11.735	0.912	-0.051	
11.740	0.076	0.024	
11.745	-0.411	0.086	
11.750	0.831	0.105	
11.755	0.686	0.184	
11.760	-0.552	0.265	
11.765	-0.135	0.231	
11.770	0.545	0.158	
11.775	-0.608	0.110	
11.780	-0.595	0.007	
11.785	0.450	-0.107	
11.790	-0.278	-0.142	
11.795	-0.689	-0.170	
11.800	0.354	-0.212	
11.805	0.369	-0.176	
11.810	-0.604	-0.103	
11.815	-0.054	-0.089	
11.820	0.848	-0.060	
11.825	-0.419	0.022	
11.830	-0.388	0.041	
11.835	0.858	0.027	
11.840	-0.081	0.073	
11.845	-0.556	0.088	
11.850	0.605	0.052	
11.855	0.585	0.082	
11.860	-0.521	0.139	
11.865	0.082	0.125	
11.870	1.031	0.125	
11.875	-0.315	0.187	
11.880	-0.291	0.188	
11.885	1.086	0.162	
11.890	0.151	0.214	
11.895	-0.433	0.244	
11.900	0.842	0.219	
11.905	0.843	0.263	
11.910	-0.401	0.335	
11.915	0.287	0.323	
11.920	1.222	0.322	
11.925	-0.249	0.377	
11.930	-0.262	0.355	
11.935	1.054	0.292	
11.940	0.012	0.293	
11.945	-0.547	0.264	
11.950	0.504	0.174	
11.955	0.421	0.138	
11.960	-0.633	0.128	
11.965	-0.181	0.052	
11.970	0.589	-0.013	
11.975	-0.550	-0.022	
11.980	-0.559	-0.072	
11.985	0.496	-0.137	
11.990	-0.280	-0.137	
11.995	-0.752	-0.149	
12.000	0.139	-0.204	
12.005	0.154	-0.208	
12.010	-0.735	-0.184	
12.015	-0.262	-0.212	
12.020	0.522	-0.220	
12.025	-0.564	-0.174	
12.030	-0.559	-0.172	
12.035	0.533	-0.193	
12.040	-0.246	-0.156	
12.045	-0.723	-0.140	
12.050	0.226	-0.174	
12.055	0.301	-0.157	
12.060	-0.662	-0.112	
12.065	-0.184	-0.125	
12.070	0.680	-0.125	
12.075	-0.488	-0.070	
12.080	-0.495	-0.066	
12.085	0.647	-0.091	
12.090	-0.207	-0.058	
12.095	-0.715	-0.054	
12.100	0.204	-0.108	
12.105	0.253	-0.117	
12.110	-0.711	-0.100	
12.115	-0.260	-0.139	
12.120	0.541	-0.164	
12.125	-0.559	-0.134	
12.130	-0.573	-0.148	
12.135	0.499	-0.183	
12.140	-0.258	-0.159	
12.145	-0.738	-0.152	
12.150	0.203	-0.192	
12.155	0.267	-0.179	
12.160	-0.663	-0.136	
12.165	-0.132	-0.145	
12.170	0.906	-0.123	
12.175	-0.379	-0.030	
12.180	-0.439	0.008	
12.185	0.678	-0.002	
12.190	-0.260	0.024	
12.195	-0.833	0.002	
12.200	-0.095	-0.103	
12.205	-0.068	-0.186	
12.210	-0.851	-0.242	
12.215	-0.384	-0.325	
12.220	0.405	-0.361	
12.225	-0.587	-0.320	
12.230	-0.593	-0.304	
12.235	0.492	-0.299	
12.240	-0.252	-0.235	
12.245	-0.724	-0.194	
12.250	0.236	-0.206	
12.255	0.324	-0.170	
12.260	-0.665	-0.111	
12.265	-0.205	-0.118	
12.270	0.692	-0.117	
12.275	-0.482	-0.063	
12.280	-0.514	-0.061	
12.285	0.660	-0.088	
12.290	-0.158	-0.055	
12.295	-0.662	-0.043	
12.300	0.360	-0.081	
12.305	0.481	-0.060	
12.310	-0.592	-0.005	
12.315	-0.098	-0.014	
12.320	0.922	-0.009	
12.325	-0.352	0.059	
12.330	-0.379	0.074	
12.335	0.929	0.060	
12.340	0.056	0.112	
12.345	-0.543	0.140	
12.350	0.567	0.107	
12.355	0.631	0.127	
12.360	-0.556	0.172	
12.365	-0.112	0.135	
12.370	0.794	0.093	
12.375	-0.466	0.101	
12.380	-0.538	0.056	
12.385	0.554	-0.023	
12.390	-0.231	-0.041	
12.395	-0.757	-0.074	
12.400	0.082	-0.152	
12.405	0.177	-0.182	
12.410	-0.749	-0.178	
12.415	-0.317	-0.218	
12.420	0.486	-0.239	
12.425	-0.575	-0.202	
12.430	-0.627	-0.206	
12.435	0.424	-0.234	
12.440	-0.271	-0.207	
12.445	-0.773	-0.197	
12.450	0.107	-0.234	
12.455	0.230	-0.225	
12.460	-0.740	-0.187	
12.465	-0.509	-0.214	
12.470	0.104	-0.265	
12.475	-0.715	-0.288	
12.480	-0.683	-0.339	
12.485	0.614	-0.369	
12.490	-0.116	-0.296	
12.495	-0.665	-0.219	
12.500	0.458	-0.186	
12.505	0.638	-0.094	
12.510	-0.587	0.021	
12.515	-0.129	0.043	
12.520	0.921	0.050	
12.525	-0.433	0.103	
12.530	-0.524	0.088	
12.535	0.731	0.030	
12.540	-0.121	0.034	
12.545	-0.709	0.019	
12.550	0.293	-0.049	
12.555	0.440	-0.059	
12.560	-0.682	-0.030	
12.565	-0.231	-0.064	
12.570	0.786	-0.085	
12.575	-0.466	-0.039	
12.580	-0.532	-0.041	
12.585	0.808	-0.067	
12.590	-0.009	-0.019	
12.595	-0.576	0.019	
12.600	0.773	0.016	
12.605	0.974	0.101	
12.610	-0.466	0.228	
12.615	0.033	0.252	
12.620	1.013	0.246	
12.625	-0.472	0.270	
12.630	-0.616	0.207	
12.635	0.510	0.083	
12.640	-0.249	0.014	
12.645	-0.792	-0.059	
12.650	0.221	-0.158	
12.655	0.429	-0.174	
12.660	-0.685	-0.132	
12.665	-0.194	-0.139	
12.670	0.897	-0.125	
12.675	-0.431	-0.041	
12.680	-0.503	-0.014	
12.685	0.889	-0.023	
12.690	0.003	0.035	
12.695	-0.639	0.069	
12.700	0.513	0.038	
12.705	0.722	0.067	
12.710	-0.558	0.133	
12.715	-0.072	0.120	
12.720	1.092	0.109	
12.725	-0.317	0.167	
12.730	-0.407	0.166	
12.735	1.060	0.132	
12.740	0.240	0.181	
12.745	-0.521	0.219	
12.750	0.750	0.195	
12.755	0.967	0.236	
12.760	-0.445	0.317	
12.765	0.122	0.307	
12.770	1.317	0.297	
12.775	-0.202	0.355	
12.780	-0.336	0.345	
12.785	1.121	0.287	
12.790	0.259	0.306	
12.795	-0.547	0.309	
12.800	0.577	0.242	
12.805	0.770	0.228	
12.810	-0.566	0.250	
12.815	-0.171	0.190	
12.820	0.872	0.124	
12.825	-0.437	0.121	
12.830	-0.562	0.071	
12.835	0.667	-0.008	
12.840	-0.110	-0.015	
12.845	-0.729	-0.028	
12.850	0.215	-0.092	
12.855	0.464	-0.099	
12.860	-0.671	-0.062	
12.865	-0.252	-0.085	
12.870	0.825	-0.097	
12.875	-0.428	-0.040	
12.880	-0.541	-0.031	
12.885	0.745	-0.056	
12.890	-0.032	-0.016	
12.895	-0.662	0.008	
12.900	0.394	-0.026	
12.905	0.673	-0.002	
12.910	-0.569	0.065	
12.915	-0.138	0.058	
12.920	1.023	0.052	
12.925	-0.333	0.112	
12.930	-0.446	0.117	
12.935	0.941	0.085	
12.940	0.145	0.126	
12.945	-0.592	0.152	
12.950	0.504	0.113	
12.955	0.751	0.126	
12.960	-0.559	0.176	
12.965	-0.168	0.144	
12.970	0.958	0.104	
12.975	-0.359	0.129	
12.980	-0.494	0.106	
12.985	0.858	0.053	
12.990	0.079	0.077	
12.995	-0.631	0.092	
13.000	0.415	0.047	
13.005	0.742	0.060	
13.010	-0.530	0.118	
13.015	-0.095	0.106	
13.020	1.202	0.103	
13.025	-0.158	0.181	
13.030	-0.257	0.216	
13.035	1.332	0.223	
13.040	0.505	0.320	
13.045	-0.515	0.393	
13.050	0.440	0.352	
13.055	0.551	0.310	
13.060	-0.702	0.270	
13.065	-0.341	0.146	
13.070	0.718	0.027	
13.075	-0.448	-0.006	
13.080	-0.576	-0.057	
13.085	0.750	-0.110	
13.090	0.052	-0.071	
13.095	-0.659	-0.030	
13.100	0.382	-0.045	
13.105	0.741	-0.005	
13.110	-0.544	0.076	
13.115	-0.136	0.080	
13.120	1.098	0.080	
13.125	-0.300	0.146	
13.130	-0.463	0.154	
13.135	0.959	0.117	
13.140	0.272	0.157	
13.145	-0.547	0.191	
13.150	0.612	0.163	
13.155	0.999	0.197	
13.160	-0.433	0.277	
13.165	0.030	0.273	
13.170	1.338	0.266	
13.175	-0.136	0.331	
13.180	-0.307	0.337	
13.185	1.286	0.303	
13.190	0.579	0.361	
13.195	-0.434	0.416	
13.200	0.796	0.389	
13.205	1.135	0.410	
13.210	-0.399	0.468	
13.215	0.009	0.426	
13.220	1.216	0.365	
13.225	-0.257	0.368	
13.230	-0.482	0.312	
13.235	0.845	0.210	
13.240	0.090	0.181	
13.245	-0.700	0.148	
13.250	0.165	0.052	
13.255	0.481	-0.000	
13.260	-0.702	-0.006	
13.265	-0.367	-0.067	
13.270	0.655	-0.121	
13.275	-0.495	-0.104	
13.280	-0.677	-0.124	
13.285	0.510	-0.172	
13.290	-0.122	-0.154	
13.295	-0.790	-0.141	
13.300	0.058	-0.184	
13.305	0.479	-0.181	
13.310	-0.702	-0.131	
13.315	-0.356	-0.141	
13.320	0.759	-0.151	
13.325	-0.430	-0.094	
13.330	-0.622	-0.082	
13.335	0.652	-0.108	
13.340	-0.005	-0.070	
13.345	-0.718	-0.041	
13.350	0.279	-0.074	
13.355	0.747	-0.049	
13.360	-0.569	0.028	
13.365	-0.260	0.031	
13.370	0.887	0.017	
13.375	-0.384	0.059	
13.380	-0.595	0.047	
13.385	0.687	-0.008	
13.390	-0.013	0.001	
13.395	-0.749	0.002	
13.400	0.151	-0.061	
13.405	0.560	-0.075	
13.410	-0.660	-0.040	
13.415	-0.295	-0.064	
13.420	0.808	-0.085	
13.425	-0.436	-0.038	
13.430	-0.639	-0.041	
13.435	0.712	-0.081	
13.440	0.186	-0.041	
13.445	-0.627	0.008	
13.450	0.516	0.005	
13.455	1.116	0.072	
13.460	-0.378	0.202	
13.465	-0.066	0.242	
13.470	1.138	0.246	
13.475	-0.333	0.289	
13.480	-0.637	0.249	
13.485	0.541	0.134	
13.490	-0.093	0.069	
13.495	-0.790	0.004	
13.500	0.088	-0.102	
13.505	0.617	-0.135	
13.510	-0.625	-0.094	
13.515	-0.292	-0.099	
13.520	0.979	-0.094	
13.525	-0.306	-0.012	
13.530	-0.530	0.024	
13.535	0.944	0.017	
13.540	0.347	0.089	
13.545	-0.587	0.157	
13.550	0.536	0.148	
13.555	1.048	0.187	
13.560	-0.434	0.273	
13.565	-0.100	0.268	
13.570	1.253	0.245	
13.575	-0.150	0.293	
13.580	-0.410	0.287	
13.585	1.084	0.237	
13.590	0.571	0.276	
13.595	-0.474	0.325	
13.600	0.747	0.306	
13.605	1.392	0.352	
13.610	-0.239	0.461	
13.615	0.278	0.485	
13.620	1.761	0.503	
13.625	0.269	0.607	
13.630	-0.232	0.641	
13.635	1.531	0.601	
13.640	0.921	0.644	
13.645	-0.344	0.685	
13.650	0.933	0.633	
13.655	1.451	0.628	
13.660	-0.263	0.674	
13.665	0.111	0.620	
13.670	1.460	0.545	
13.675	-0.052	0.545	
13.680	-0.376	0.489	
13.685	1.141	0.387	
13.690	0.573	0.380	
13.695	-0.508	0.388	
13.700	0.525	0.325	
13.705	1.087	0.309	
13.710	-0.411	0.349	
13.715	-0.129	0.311	
13.720	1.274	0.263	
13.725	-0.132	0.296	
13.730	-0.440	0.284	
13.735	1.048	0.228	
13.740	0.551	0.259	
13.745	-0.480	0.304	
13.750	0.652	0.281	
13.755	1.237	0.313	
13.760	-0.350	0.399	
13.765	-0.031	0.391	
13.770	1.422	0.362	
13.775	-0.031	0.409	
13.780	-0.335	0.404	
13.785	1.278	0.353	
13.790	0.750	0.401	
13.795	-0.402	0.459	
13.800	0.777	0.437	
13.805	1.332	0.460	
13.810	-0.284	0.532	
13.815	0.067	0.508	
13.820	1.430	0.461	
13.825	-0.014	0.487	
13.830	-0.362	0.458	
13.835	1.165	0.379	
13.840	0.655	0.391	
13.845	-0.442	0.419	
13.850	0.669	0.375	
13.855	1.265	0.384	
13.860	-0.303	0.452	
13.865	0.047	0.434	
13.870	1.527	0.406	
13.875	0.215	0.470	
13.880	-0.150	0.499	
13.885	1.686	0.494	
13.890	1.243	0.607	
13.895	-0.174	0.735	
13.900	1.043	0.752	
13.905	1.410	0.774	
13.910	-0.326	0.806	
13.915	-0.109	0.703	
13.920	1.220	0.553	
13.925	-0.112	0.480	
13.930	-0.402	0.383	
13.935	1.153	0.276	
13.940	0.765	0.295	
13.945	-0.378	0.357	
13.950	0.777	0.357	
13.955	1.398	0.410	
13.960	-0.223	0.515	
13.965	0.169	0.524	
13.970	1.627	0.511	
13.975	0.215	0.579	
13.980	-0.236	0.589	
13.985	1.392	0.538	
13.990	0.961	0.575	
13.995	-0.292	0.627	
14.000	0.939	0.597	
14.005	1.602	0.620	
14.010	-0.104	0.703	
14.015	0.353	0.694	
14.020	1.824	0.674	
14.025	0.470	0.746	
14.030	-0.074	0.768	
14.035	1.703	0.730	
14.040	1.292	0.790	
14.045	-0.122	0.866	
14.050	1.226	0.849	
14.055	1.857	0.877	
14.060	0.049	0.959	
14.065	0.522	0.937	
14.070	1.974	0.894	
14.075	0.541	0.940	
14.080	-0.106	0.924	
14.085	1.558	0.834	
14.090	1.069	0.823	
14.095	-0.278	0.824	
14.100	0.872	0.736	
14.105	1.483	0.693	
14.110	-0.197	0.712	
14.115	0.085	0.644	
14.120	1.526	0.561	
14.125	0.117	0.567	
14.130	-0.310	0.532	
14.135	1.226	0.450	
14.140	0.790	0.462	
14.145	-0.396	0.494	
14.150	0.692	0.450	
14.155	1.362	0.454	
14.160	-0.223	0.519	
14.165	0.062	0.501	
14.170	1.537	0.466	
14.175	0.201	0.516	
14.180	-0.246	0.524	
14.185	1.361	0.481	
14.190	0.959	0.529	
14.195	-0.294	0.593	
14.200	0.852	0.571	
14.205	1.524	0.591	
14.210	-0.141	0.665	
14.215	0.201	0.645	
14.220	1.676	0.606	
14.225	0.299	0.652	
14.230	-0.220	0.650	
14.235	1.326	0.583	
14.240	0.845	0.594	
14.245	-0.359	0.612	
14.250	0.707	0.547	
14.255	1.358	0.525	
14.260	-0.226	0.565	
14.265	0.017	0.523	
14.270	1.450	0.463	
14.275	0.114	0.489	
14.280	-0.318	0.474	
14.285	1.109	0.406	
14.290	0.637	0.415	
14.295	-0.384	0.435	
14.300	0.771	0.394	
14.305	1.472	0.422	
14.310	-0.100	0.525	
14.315	0.424	0.557	
14.320	1.888	0.592	
14.325	0.479	0.716	
14.330	-0.190	0.767	
14.335	1.149	0.708	
14.340	0.513	0.670	
14.345	-0.559	0.602	
14.350	0.236	0.440	
14.355	0.915	0.318	
14.360	-0.425	0.275	
14.365	-0.193	0.197	
14.370	1.158	0.138	
14.375	-0.071	0.179	
14.380	-0.402	0.194	
14.385	0.948	0.169	
14.390	0.499	0.218	
14.395	-0.517	0.267	
14.400	0.496	0.241	
14.405	1.216	0.261	
14.410	-0.278	0.345	
14.415	-0.061	0.351	
14.420	1.346	0.332	
14.425	0.053	0.385	
14.430	-0.341	0.392	
14.435	1.146	0.346	
14.440	0.681	0.382	
14.445	-0.445	0.424	
14.450	0.582	0.383	
14.455	1.248	0.384	
14.460	-0.280	0.442	
14.465	-0.058	0.418	
14.470	1.382	0.375	
14.475	0.090	0.413	
14.480	-0.284	0.415	
14.485	1.274	0.376	
14.490	0.877	0.432	
14.495	-0.373	0.502	
14.500	0.600	0.478	
14.505	1.219	0.472	
14.510	-0.390	0.504	
14.515	-0.236	0.437	
14.520	1.060	0.332	
14.525	-0.251	0.294	
14.530	-0.682	0.216	
14.535	0.392	0.081	
14.540	-0.017	0.004	
14.545	-0.863	-0.058	
14.550	-0.317	-0.173	
14.555	-0.025	-0.268	
14.560	-0.960	-0.326	
14.565	-0.798	-0.421	
14.570	-0.045	-0.510	
14.575	-0.691	-0.532	
14.580	-0.993	-0.557	
14.585	-0.145	-0.596	
14.590	-0.388	-0.583	
14.595	-0.995	-0.557	
14.600	-0.532	-0.576	
14.605	-0.136	-0.580	
14.610	-0.993	-0.558	
14.615	-0.909	-0.584	
14.620	-0.174	-0.627	
14.625	-0.822	-0.628	
14.630	-0.995	-0.643	
14.635	-0.283	-0.674	
14.640	-0.468	-0.659	
14.645	-0.995	-0.632	
14.650	-0.576	-0.642	
14.655	-0.234	-0.638	
14.660	-0.996	-0.613	
14.665	-0.993	-0.636	
14.670	-0.300	-0.681	
14.675	-0.925	-0.694	
14.680	-0.995	-0.717	
14.685	-0.485	-0.753	
14.690	-0.643	-0.752	
14.695	-0.995	-0.740	
14.700	-0.839	-0.758	
14.705	-0.526	-0.775	
14.710	-0.995	-0.773	
14.715	-0.995	-0.791	
14.720	-0.456	-0.813	
14.725	-0.990	-0.807	
14.730	-0.995	-0.814	
14.735	-0.537	-0.829	
14.740	-0.663	-0.810	
14.745	-0.995	-0.782	
14.750	-0.731	-0.781	
14.755	-0.339	-0.765	
14.760	-0.995	-0.727	
14.765	-0.993	-0.727	
14.770	-0.500	-0.754	
14.775	-0.993	-0.766	
14.780	-0.995	-0.791	
14.785	-0.790	-0.831	
14.790	-0.906	-0.858	
14.795	-0.995	-0.879	
14.800	-0.954	-0.905	
14.805	-0.614	-0.913	
14.810	-0.993	-0.895	
14.815	-0.995	-0.887	
14.820	-0.520	-0.881	
14.825	-0.993	-0.855	
14.830	-0.995	-0.846	
14.835	-0.651	-0.853	
14.840	-0.737	-0.839	
14.845	-0.995	-0.821	
14.850	-0.821	-0.825	
14.855	-0.478	-0.818	
14.860	-0.993	-0.791	
14.865	-0.995	-0.792	
14.870	-0.474	-0.806	
14.875	-0.993	-0.799	
14.880	-0.996	-0.808	
14.885	-0.526	-0.825	
14.890	-0.639	-0.805	
14.895	-0.995	-0.776	
14.900	-0.764	-0.775	
14.905	-0.335	-0.763	
14.910	-0.993	-0.729	
14.915	-0.992	-0.730	
14.920	-0.248	-0.745	
14.925	-0.853	-0.722	
14.930	-0.995	-0.714	
14.935	-0.486	-0.732	
14.940	-0.642	-0.726	
14.945	-0.995	-0.717	
14.950	-0.865	-0.741	
14.955	-0.523	-0.766	
14.960	-0.995	-0.771	
14.965	-0.995	-0.793	
14.970	-0.527	-0.820	
14.975	-0.995	-0.822	
14.980	-0.995	-0.833	
14.985	-0.676	-0.854	
14.990	-0.761	-0.850	
14.995	-0.995	-0.838	
15.000	-0.938	-0.848	
15.005	-0.552	-0.854	
15.010	-0.995	-0.840	
15.015	-0.995	-0.841	
15.020	-0.454	-0.845	
15.025	-0.984	-0.824	
15.030	-0.995	-0.819	
15.035	-0.517	-0.827	
15.040	-0.588	-0.799	
15.045	-0.995	-0.762	
15.050	-0.709	-0.754	
15.055	-0.280	-0.736	
15.060	-0.995	-0.695	
15.065	-0.921	-0.694	
15.070	-0.116	-0.702	
15.075	-0.726	-0.663	
15.080	-0.995	-0.640	
15.085	-0.211	-0.645	
15.090	-0.280	-0.607	
15.095	-0.993	-0.558	
15.100	-0.425	-0.555	
15.105	0.160	-0.529	
15.110	-0.850	-0.462	
15.115	-0.738	-0.449	
15.120	0.321	-0.453	
15.125	-0.515	-0.399	
15.130	-0.899	-0.373	
15.135	0.105	-0.393	
15.140	-0.071	-0.366	
15.145	-0.880	-0.327	
15.150	-0.266	-0.344	
15.155	0.548	-0.329	
15.160	-0.656	-0.253	
15.165	-0.515	-0.228	
15.170	0.884	-0.210	
15.175	-0.139	-0.112	
15.180	-0.540	-0.039	
15.185	0.903	-0.011	
15.190	0.651	0.093	
15.195	-0.625	0.200	
15.200	0.026	0.189	
15.205	0.791	0.159	
15.210	-0.608	0.161	
15.215	-0.518	0.089	
15.220	0.820	-0.001	
15.225	-0.202	-0.003	
15.230	-0.605	-0.012	
15.235	0.845	-0.040	
15.240	0.767	0.039	
15.245	-0.497	0.157	
15.250	0.521	0.200	
15.255	1.544	0.280	
15.260	-0.080	0.431	
15.265	0.233	0.500	
15.270	1.945	0.550	
15.275	0.857	0.702	
15.280	0.015	0.817	
15.285	1.854	0.849	
15.290	1.801	0.963	
15.295	0.240	1.104	
15.300	1.517	1.145	
15.305	2.473	1.219	
15.310	0.771	1.364	
15.315	0.977	1.414	
15.320	2.634	1.425	
15.325	1.544	1.527	
15.330	0.664	1.590	
15.335	2.508	1.575	
15.340	2.443	1.653	
15.345	0.834	1.765	
15.350	2.055	1.779	
15.355	2.974	1.823	
15.360	1.214	1.933	
15.365	1.343	1.942	
15.370	2.956	1.904	
15.375	1.786	1.951	
15.380	0.764	1.951	
15.385	2.501	1.859	
15.390	2.374	1.846	
15.395	0.669	1.864	
15.400	1.825	1.785	
15.405	2.750	1.742	
15.410	0.947	1.782	
15.415	1.051	1.735	
15.420	2.716	1.658	
15.425	1.564	1.685	
15.430	0.554	1.683	
15.435	2.363	1.603	
15.440	2.285	1.618	
15.445	0.574	1.672	
15.450	1.787	1.632	
15.455	2.791	1.631	
15.460	0.962	1.714	
15.465	1.043	1.704	
15.470	2.736	1.651	
15.475	1.592	1.695	
15.480	0.574	1.703	
15.485	2.412	1.631	
15.490	2.374	1.652	
15.495	0.600	1.716	
15.500	1.793	1.679	
15.505	2.811	1.673	
15.510	1.034	1.751	
15.515	1.133	1.744	
15.520	2.857	1.703	
15.525	1.683	1.762	
15.530	0.612	1.781	
15.535	2.443	1.709	
15.540	2.340	1.719	
15.545	0.525	1.760	
15.550	1.666	1.689	
15.555	2.656	1.643	
15.560	0.838	1.677	
15.565	0.912	1.627	
15.570	2.647	1.547	
15.575	1.532	1.579	
15.580	0.492	1.590	
15.585	2.317	1.524	
15.590	2.287	1.553	
15.595	0.534	1.623	
15.600	1.689	1.591	
15.605	2.748	1.589	
15.610	1.045	1.674	
15.615	1.266	1.689	
15.620	3.037	1.690	
15.625	1.978	1.808	
15.630	0.840	1.894	
15.635	2.498	1.871	
15.640	2.233	1.886	
15.645	0.273	1.880	
15.650	1.286	1.717	
15.655	2.239	1.555	
15.660	0.434	1.474	
15.665	0.563	1.332	
15.670	2.345	1.196	
15.675	1.249	1.209	
15.680	0.174	1.223	
15.685	1.989	1.170	
15.690	1.998	1.212	
15.695	0.275	1.297	
15.700	1.425	1.283	
15.705	2.446	1.297	
15.710	0.663	1.386	
15.715	0.698	1.380	
15.720	2.404	1.329	
15.725	1.288	1.371	
15.730	0.195	1.378	
15.735	1.992	1.297	
15.740	1.984	1.301	
15.745	0.235	1.349	
15.750	1.350	1.300	
15.755	2.371	1.280	
15.760	0.567	1.341	
15.765	0.594	1.313	
15.770	2.317	1.245	
15.775	1.223	1.279	
15.780	0.119	1.285	
15.785	1.909	1.207	
15.790	1.911	1.215	
15.795	0.108	1.264	
15.800	1.152	1.207	
15.805	2.132	1.165	
15.810	0.253	1.191	
15.815	0.152	1.113	
15.820	1.784	0.977	
15.825	0.579	0.929	
15.830	-0.321	0.854	
15.835	1.069	0.706	
15.840	1.003	0.633	
15.845	-0.439	0.602	
15.850	0.183	0.490	
15.855	1.194	0.396	
15.860	-0.329	0.380	
15.865	-0.338	0.312	
15.870	1.063	0.223	
15.875	-0.009	0.220	
15.880	-0.576	0.200	
15.885	0.686	0.131	
15.890	0.721	0.143	
15.895	-0.547	0.195	
15.900	0.032	0.169	
15.905	1.109	0.154	
15.910	-0.342	0.206	
15.915	-0.342	0.197	
15.920	1.103	0.160	
15.925	0.023	0.199	
15.930	-0.588	0.208	
15.935	0.588	0.147	
15.940	0.623	0.146	
15.945	-0.585	0.176	
15.950	-0.028	0.132	
15.955	1.023	0.104	
15.960	-0.398	0.145	
15.965	-0.419	0.130	
15.970	0.939	0.085	
15.975	-0.063	0.112	
15.980	-0.648	0.112	
15.985	0.423	0.048	
15.990	0.441	0.037	
15.995	-0.715	0.052	
16.000	-0.216	-0.006	
16.005	0.686	-0.054	
16.010	-0.555	-0.040	
16.015	-0.581	-0.073	
16.020	0.617	-0.126	
16.025	-0.239	-0.110	
16.030	-0.786	-0.111	
16.035	0.266	-0.163	
16.040	0.377	-0.152	
16.045	-0.669	-0.103	
16.050	-0.040	-0.106	
16.055	1.210	-0.067	
16.060	-0.280	0.062	
16.065	-0.323	0.129	
16.070	1.072	0.145	
16.075	-0.112	0.205	
16.080	-0.811	0.198	
16.085	0.023	0.079	
16.090	0.041	-0.027	
16.095	-0.866	-0.110	
16.100	-0.324	-0.223	
16.105	0.602	-0.280	
16.110	-0.573	-0.242	
16.115	-0.590	-0.231	
16.120	0.676	-0.233	
16.125	-0.190	-0.164	
16.130	-0.744	-0.121	
16.135	0.372	-0.137	
16.140	0.464	-0.099	
16.145	-0.695	-0.034	
16.150	-0.174	-0.046	
16.155	0.845	-0.053	
16.160	-0.486	0.001	
16.165	-0.517	-0.003	
16.170	0.823	-0.036	
16.175	-0.103	0.002	
16.180	-0.668	0.018	
16.185	0.484	-0.022	
16.190	0.637	0.006	
16.195	-0.593	0.072	
16.200	-0.037	0.065	
16.205	1.153	0.071	
16.210	-0.317	0.151	
16.215	-0.353	0.171	
16.220	1.150	0.155	
16.225	0.130	0.214	
16.230	-0.553	0.243	
16.235	0.704	0.200	
16.240	0.764	0.217	
16.245	-0.592	0.260	
16.250	-0.110	0.209	
16.255	0.913	0.150	
16.260	-0.492	0.150	
16.265	-0.584	0.092	
16.270	0.597	-0.003	
16.275	-0.262	-0.032	
16.280	-0.885	-0.079	
16.285	-0.019	-0.181	
16.290	0.059	-0.238	
16.295	-0.905	-0.259	
16.300	-0.430	-0.322	
16.305	0.333	-0.360	
16.310	-0.738	-0.335	
16.315	-0.807	-0.351	
16.320	0.233	-0.392	
16.325	-0.387	-0.373	
16.330	-0.952	-0.364	
16.335	-0.054	-0.400	
16.340	0.101	-0.389	
16.345	-0.863	-0.344	
16.350	-0.378	-0.351	
16.355	0.533	-0.340	
16.360	-0.639	-0.269	
16.365	-0.723	-0.253	
16.370	0.441	-0.274	
16.375	-0.283	-0.239	
16.380	-0.877	-0.224	
16.385	0.068	-0.266	
16.390	0.252	-0.260	
16.395	-0.805	-0.220	
16.400	-0.309	-0.237	
16.405	0.669	-0.236	
16.410	-0.561	-0.170	
16.415	-0.647	-0.158	
16.420	0.547	-0.182	
16.425	-0.251	-0.152	
16.430	-0.870	-0.147	
16.435	0.026	-0.208	
16.440	0.208	-0.228	
16.445	-0.837	-0.214	
16.450	-0.376	-0.253	
16.455	0.516	-0.274	
16.460	-0.640	-0.234	
16.465	-0.729	-0.240	
16.470	0.437	-0.275	
16.475	-0.277	-0.248	
16.480	-0.873	-0.234	
16.485	0.105	-0.273	
16.490	0.437	-0.252	
16.495	-0.648	-0.180	
16.500	-0.124	-0.157	
16.505	0.974	-0.113	
16.510	-0.494	-0.009	
16.515	-0.683	0.012	
16.520	0.313	-0.052	
16.525	-0.398	-0.094	
16.530	-0.993	-0.166	
16.535	-0.162	-0.288	
16.540	0.003	-0.356	
16.545	-0.912	-0.372	
16.550	-0.417	-0.415	
16.555	0.527	-0.416	
16.560	-0.622	-0.339	
16.565	-0.703	-0.304	
16.570	0.530	-0.300	
16.575	-0.225	-0.236	
16.580	-0.847	-0.197	
16.585	0.090	-0.226	
16.590	0.365	-0.212	
16.595	-0.758	-0.163	
16.600	-0.294	-0.176	
16.605	0.768	-0.176	
16.610	-0.511	-0.110	
16.615	-0.602	-0.097	
16.620	0.710	-0.119	
16.625	-0.130	-0.076	
16.630	-0.761	-0.055	
16.635	0.319	-0.096	
16.640	0.576	-0.078	
16.645	-0.676	-0.018	
16.650	-0.226	-0.031	
16.655	0.903	-0.042	
16.660	-0.456	0.012	
16.665	-0.569	0.010	
16.670	0.799	-0.030	
16.675	-0.066	0.001	
16.680	-0.741	0.012	
16.685	0.281	-0.043	
16.690	0.486	-0.048	
16.695	-0.734	-0.018	
16.700	-0.313	-0.059	
16.705	0.670	-0.101	
16.710	-0.598	-0.083	
16.715	-0.755	-0.117	
16.720	0.362	-0.194	
16.725	-0.298	-0.210	
16.730	-0.941	-0.234	
16.735	-0.095	-0.308	
16.740	0.131	-0.333	
16.745	-0.874	-0.317	
16.750	-0.434	-0.345	
16.755	0.550	-0.350	
16.760	-0.604	-0.285	
16.765	-0.720	-0.264	
16.770	0.505	-0.276	
16.775	-0.216	-0.228	
16.780	-0.853	-0.198	
16.785	0.076	-0.231	
16.790	0.372	-0.221	
16.795	-0.757	-0.172	
16.800	-0.298	-0.182	
16.805	0.813	-0.179	
16.810	-0.474	-0.105	
16.815	-0.613	-0.083	
16.820	0.744	-0.102	
16.825	-0.057	-0.054	
16.830	-0.734	-0.026	
16.835	0.328	-0.062	
16.840	0.623	-0.043	
16.845	-0.668	0.016	
16.850	-0.245	-0.002	
16.855	0.872	-0.024	
16.860	-0.472	0.017	
16.865	-0.628	0.002	
16.870	0.669	-0.055	
16.875	-0.136	-0.046	
16.880	-0.810	-0.052	
16.885	0.140	-0.120	
16.890	0.466	-0.135	
16.895	-0.732	-0.101	
16.900	-0.307	-0.126	
16.905	0.800	-0.140	
16.910	-0.482	-0.084	
16.915	-0.622	-0.077	
16.920	0.713	-0.106	
16.925	-0.042	-0.066	
16.930	-0.682	-0.036	
16.935	0.547	-0.054	
16.940	0.881	0.006	
16.945	-0.576	0.115	
16.950	-0.222	0.124	
16.955	0.767	0.094	
16.960	-0.590	0.096	
16.965	-0.793	0.023	
16.970	0.296	-0.104	
16.975	-0.295	-0.170	
16.980	-0.908	-0.227	
16.985	0.010	-0.309	
16.990	0.414	-0.315	
16.995	-0.741	-0.255	
17.000	-0.317	-0.242	
17.005	0.828	-0.217	
17.010	-0.453	-0.123	
17.015	-0.616	-0.086	
17.020	0.731	-0.096	
17.025	-0.049	-0.047	
17.030	-0.747	-0.019	
17.035	0.307	-0.059	
17.040	0.699	-0.041	
17.045	-0.630	0.024	
17.050	-0.222	0.016	
17.055	1.019	0.007	
17.060	-0.349	0.068	
17.065	-0.517	0.077	
17.070	0.965	0.048	
17.075	0.227	0.101	
17.080	-0.614	0.145	
17.085	0.597	0.121	
17.090	1.016	0.161	
17.095	-0.472	0.250	
17.100	-0.026	0.250	
17.105	1.332	0.241	
17.110	-0.213	0.304	
17.115	-0.413	0.302	
17.120	1.109	0.248	
17.125	0.293	0.273	
17.130	-0.619	0.284	
17.135	0.438	0.214	
17.140	0.748	0.186	
17.145	-0.628	0.199	
17.150	-0.266	0.132	
17.155	0.867	0.062	
17.160	-0.460	0.062	
17.165	-0.659	0.018	
17.170	0.620	-0.060	
17.175	-0.103	-0.066	
17.180	-0.798	-0.074	
17.185	0.116	-0.137	
17.190	0.528	-0.145	
17.195	-0.718	-0.101	
17.200	-0.342	-0.118	
17.205	0.802	-0.133	
17.210	-0.460	-0.079	
17.215	-0.647	-0.073	
17.220	0.692	-0.105	
17.225	-0.026	-0.069	
17.230	-0.744	-0.043	
17.235	0.270	-0.080	
17.240	0.681	-0.061	
17.245	-0.654	0.004	
17.250	-0.287	-0.006	
17.255	0.944	-0.024	
17.260	-0.375	0.029	
17.265	-0.566	0.032	
17.270	0.867	-0.002	
17.275	0.162	0.044	
17.280	-0.663	0.082	
17.285	0.420	0.051	
17.290	0.829	0.073	
17.295	-0.595	0.139	
17.300	-0.236	0.118	
17.305	1.013	0.084	
17.310	-0.364	0.117	
17.315	-0.596	0.098	
17.320	0.765	0.033	
17.325	0.024	0.040	
17.330	-0.729	0.040	
17.335	0.281	-0.021	
17.340	0.731	-0.021	
17.345	-0.608	0.035	
17.350	-0.211	0.024	
17.355	1.130	0.019	
17.360	-0.291	0.094	
17.365	-0.491	0.116	
17.370	1.120	0.099	
17.375	0.605	0.180	
17.380	-0.379	0.277	
17.385	1.037	0.314	
17.390	1.503	0.422	
17.395	-0.272	0.571	
17.400	0.120	0.589	
17.405	1.373	0.551	
17.410	-0.274	0.550	
17.415	-0.569	0.460	
17.420	0.837	0.304	
17.425	0.186	0.231	
17.430	-0.657	0.178	
17.435	0.440	0.087	
17.440	0.936	0.080	
17.445	-0.544	0.143	
17.450	-0.174	0.133	
17.455	1.187	0.117	
17.460	-0.283	0.176	
17.465	-0.541	0.176	
17.470	0.938	0.124	
17.475	0.272	0.150	
17.480	-0.660	0.172	
17.485	0.379	0.121	
17.490	0.887	0.119	
17.495	-0.566	0.169	
17.500	-0.229	0.141	
17.505	1.107	0.105	
17.510	-0.281	0.146	
17.515	-0.533	0.140	
17.520	0.962	0.094	
17.525	0.342	0.133	
17.530	-0.601	0.176	
17.535	0.568	0.152	
17.540	1.129	0.188	
17.545	-0.430	0.282	
17.550	-0.055	0.286	
17.555	1.399	0.275	
17.560	-0.156	0.338	
17.565	-0.448	0.336	
17.570	1.101	0.275	
17.575	0.452	0.297	
17.580	-0.558	0.319	
17.585	0.611	0.269	
17.590	1.106	0.276	
17.595	-0.485	0.337	
17.600	-0.181	0.302	
17.605	1.158	0.244	
17.610	-0.291	0.255	
17.615	-0.572	0.214	
17.620	0.832	0.127	
17.625	0.186	0.119	
17.630	-0.706	0.117	
17.635	0.243	0.048	
17.640	0.782	0.032	
17.645	-0.617	0.073	
17.650	-0.317	0.044	
17.655	0.952	0.008	
17.660	-0.373	0.045	
17.665	-0.648	0.034	
17.670	0.704	-0.022	
17.675	0.082	-0.007	
17.680	-0.749	0.008	
17.685	0.160	-0.045	
17.690	0.722	-0.049	
17.695	-0.650	0.003	
17.700	-0.344	-0.015	
17.705	0.926	-0.040	
17.710	-0.356	0.008	
17.715	-0.619	0.012	
17.720	0.809	-0.025	
17.725	0.244	0.019	
17.730	-0.683	0.065	
17.735	0.276	0.037	
17.740	0.828	0.049	
17.745	-0.605	0.106	
17.750	-0.330	0.082	
17.755	0.863	0.037	
17.760	-0.420	0.052	
17.765	-0.721	0.018	
17.770	0.507	-0.064	
17.775	-0.081	-0.084	
17.780	-0.854	-0.101	
17.785	-0.058	-0.176	
17.790	0.534	-0.201	
17.795	-0.729	-0.163	
17.800	-0.474	-0.179	
17.805	0.617	-0.202	
17.810	-0.543	-0.167	
17.815	-0.828	-0.178	
17.820	0.421	-0.233	
17.825	0.001	-0.216	
17.830	-0.787	-0.185	
17.835	0.021	-0.207	
17.840	0.547	-0.189	
17.845	-0.842	-0.132	
17.850	-0.691	-0.165	
17.855	0.050	-0.250	
17.860	-0.815	-0.311	
17.865	-0.995	-0.402	
17.870	-0.107	-0.507	
17.875	-0.341	-0.537	
17.880	-0.995	-0.535	
17.885	-0.272	-0.555	
17.890	0.261	-0.521	
17.895	-0.834	-0.436	
17.900	-0.540	-0.403	
17.905	0.646	-0.371	
17.910	-0.489	-0.275	
17.915	-0.799	-0.229	
17.920	0.414	-0.241	
17.925	-0.089	-0.206	
17.930	-0.879	-0.180	
17.935	-0.107	-0.224	
17.940	0.513	-0.231	
17.945	-0.758	-0.185	
17.950	-0.485	-0.196	
17.955	0.753	-0.211	
17.960	-0.422	-0.151	
17.965	-0.705	-0.131	
17.970	0.690	-0.149	
17.975	0.233	-0.089	
17.980	-0.712	-0.022	
17.985	0.247	-0.029	
17.990	0.939	0.006	
17.995	-0.544	0.096	
18.000	-0.254	0.103	
18.005	1.205	0.095	
18.010	-0.211	0.163	
18.015	-0.573	0.176	
18.020	0.872	0.128	
18.025	0.337	0.150	
18.030	-0.703	0.172	
18.035	0.174	0.110	
18.040	0.806	0.080	
18.045	-0.651	0.103	
18.050	-0.430	0.052	
18.055	0.806	-0.015	
18.060	-0.416	-0.009	
18.065	-0.758	-0.041	
18.070	0.521	-0.114	
18.075	0.073	-0.113	
18.080	-0.821	-0.098	
18.085	-0.052	-0.148	
18.090	0.704	-0.155	
18.095	-0.643	-0.097	
18.100	-0.448	-0.098	
18.105	0.791	-0.115	
18.110	-0.286	-0.063	
18.115	-0.637	-0.045	
18.120	0.369	-0.083	
18.125	-0.014	-0.082	
18.130	-0.677	-0.082	
18.135	0.044	-0.128	
18.140	0.591	-0.127	
18.145	-0.535	-0.071	
18.150	-0.292	-0.066	
18.155	0.924	-0.060	
18.160	-0.219	0.015	
18.165	-0.532	0.047	
18.170	0.712	0.028	
18.175	0.337	0.070	
18.180	-0.584	0.115	
18.185	0.198	0.087	
18.190	0.816	0.086	
18.195	-0.495	0.131	
18.200	-0.335	0.106	
18.205	0.819	0.058	
18.210	-0.297	0.070	
18.215	-0.647	0.043	
18.220	0.745	-0.016	
18.225	0.308	0.010	
18.230	-0.721	0.051	
18.235	0.146	0.016	
18.240	0.893	0.017	
18.245	-0.584	0.077	
18.250	-0.358	0.063	
18.255	1.065	0.034	
18.260	-0.258	0.083	
18.265	-0.595	0.090	
18.270	1.031	0.057	
18.275	0.780	0.134	
18.280	-0.489	0.244	
18.285	0.559	0.270	
18.290	1.197	0.317	
18.295	-0.529	0.394	
18.300	-0.414	0.346	
18.305	0.796	0.233	
18.310	-0.428	0.169	
18.315	-0.807	0.066	
18.320	0.479	-0.069	
18.325	0.185	-0.107	
18.330	-0.746	-0.101	
18.335	0.145	-0.133	
18.340	0.979	-0.100	
18.345	-0.524	0.007	
18.350	-0.313	0.041	
18.355	1.173	0.051	
18.360	-0.167	0.133	
18.365	-0.552	0.162	
18.370	0.979	0.133	
18.375	0.632	0.188	
18.380	-0.573	0.257	
18.385	0.424	0.240	
18.390	1.234	0.257	
18.395	-0.410	0.332	
18.400	-0.182	0.319	
18.405	1.457	0.285	
18.410	0.072	0.345	
18.415	-0.408	0.366	
18.420	1.292	0.334	
18.425	1.022	0.404	
18.430	-0.365	0.501	
18.435	0.851	0.509	
18.440	1.682	0.558	
18.445	-0.170	0.666	
18.450	0.087	0.662	
18.455	1.676	0.615	
18.460	0.246	0.649	
18.465	-0.361	0.629	
18.470	1.271	0.540	
18.475	0.883	0.538	
18.480	-0.492	0.555	
18.485	0.490	0.479	
18.490	1.239	0.433	
18.495	-0.440	0.447	
18.500	-0.294	0.374	
18.505	1.115	0.274	
18.510	-0.210	0.253	
18.515	-0.645	0.199	
18.520	0.707	0.099	
18.525	0.398	0.085	
18.530	-0.697	0.100	
18.535	0.076	0.047	
18.540	0.909	0.028	
18.545	-0.547	0.076	
18.550	-0.365	0.060	
18.555	1.078	0.032	
18.560	-0.185	0.087	
18.565	-0.602	0.102	
18.570	0.832	0.065	
18.575	0.537	0.109	
18.580	-0.625	0.169	
18.585	0.211	0.145	
18.590	1.046	0.145	
18.595	-0.469	0.203	
18.600	-0.310	0.184	
18.605	1.178	0.145	
18.610	-0.104	0.189	
18.615	-0.549	0.195	
18.620	0.936	0.150	
18.625	0.698	0.193	
18.630	-0.549	0.261	
18.635	0.379	0.245	
18.640	1.225	0.258	
18.645	-0.411	0.329	
18.650	-0.265	0.309	
18.655	1.243	0.256	
18.660	-0.078	0.282	
18.665	-0.544	0.268	
18.670	0.929	0.200	
18.675	0.676	0.222	
18.680	-0.556	0.271	
18.685	0.345	0.241	
18.690	1.234	0.245	
18.695	-0.376	0.314	
18.700	-0.236	0.302	
18.705	1.309	0.261	
18.710	0.068	0.306	
18.715	-0.428	0.319	
18.720	1.263	0.288	
18.725	1.084	0.367	
18.730	-0.408	0.477	
18.735	0.498	0.479	
18.740	1.184	0.473	
18.745	-0.515	0.491	
18.750	-0.463	0.395	
18.755	0.758	0.244	
18.760	-0.336	0.157	
18.765	-0.760	0.054	
18.770	0.518	-0.068	
18.775	0.365	-0.086	
18.780	-0.685	-0.053	
18.785	0.082	-0.070	
18.790	1.011	-0.042	
18.795	-0.477	0.054	
18.800	-0.346	0.078	
18.805	1.115	0.073	
18.810	-0.107	0.139	
18.815	-0.564	0.161	
18.820	0.869	0.126	
18.825	0.664	0.170	
18.830	-0.561	0.236	
18.835	0.330	0.219	
18.840	1.281	0.234	
18.845	-0.335	0.316	
18.850	-0.190	0.317	
18.855	1.428	0.293	
18.860	0.163	0.357	
18.865	-0.431	0.384	
18.870	1.138	0.346	
18.875	0.979	0.394	
18.880	-0.411	0.469	
18.885	0.605	0.454	
18.890	1.529	0.471	
18.895	-0.219	0.551	
18.900	-0.098	0.534	
18.905	1.526	0.479	
18.910	0.226	0.510	
18.915	-0.426	0.503	
18.920	1.058	0.426	
18.925	0.826	0.426	
18.930	-0.533	0.448	
18.935	0.233	0.376	
18.940	1.116	0.319	
18.945	-0.453	0.325	
18.950	-0.385	0.260	
18.955	0.971	0.169	
18.960	-0.205	0.155	
18.965	-0.689	0.114	
18.970	0.542	0.024	
18.975	0.350	0.010	
18.980	-0.726	0.025	
18.985	-0.084	-0.027	
18.990	0.843	-0.050	
18.995	-0.547	-0.003	
19.000	-0.460	-0.013	
19.005	0.903	-0.041	
19.010	-0.190	0.006	
19.015	-0.654	0.022	
19.020	0.683	-0.012	
19.025	0.605	0.034	
19.030	-0.575	0.112	
19.035	0.247	0.115	
19.040	1.259	0.150	
19.045	-0.310	0.253	
19.050	-0.181	0.278	
19.055	1.543	0.279	
19.060	0.452	0.383	
19.065	-0.283	0.463	
19.070	1.448	0.479	
19.075	1.387	0.583	
19.080	-0.216	0.711	
19.085	0.874	0.727	
19.090	1.804	0.755	
19.095	-0.083	0.832	
19.100	-0.066	0.789	
19.105	1.491	0.681	
19.110	0.211	0.647	
19.115	-0.465	0.577	
19.120	0.895	0.445	
19.125	0.758	0.393	
19.130	-0.538	0.382	
19.135	0.024	0.292	
19.140	0.976	0.217	
19.145	-0.352	0.214	
19.150	-0.318	0.172	
19.155	1.022	0.121	
19.160	0.062	0.156	
19.165	-0.445	0.177	
19.170	0.973	0.161	
19.175	1.104	0.244	
19.180	-0.275	0.374	
19.185	0.496	0.417	
19.190	1.320	0.455	
19.195	-0.313	0.520	
19.200	-0.411	0.469	
19.205	0.660	0.336	
19.210	-0.248	0.238	
19.215	-0.737	0.120	
19.220	0.214	-0.030	
19.225	0.235	-0.101	
19.230	-0.671	-0.117	
19.235	-0.142	-0.161	
19.240	0.762	-0.162	
19.245	-0.474	-0.091	
19.250	-0.468	-0.069	
19.255	0.706	-0.078	
19.260	-0.188	-0.033	
19.265	-0.676	-0.021	
19.270	0.350	-0.066	
19.275	0.357	-0.058	
19.280	-0.650	-0.025	
19.285	-0.153	-0.054	
19.290	0.736	-0.069	
19.295	-0.482	-0.025	
19.300	-0.486	-0.031	
19.305	0.698	-0.064	
19.310	-0.165	-0.033	
19.315	-0.647	-0.025	
19.320	0.412	-0.065	
19.325	0.457	-0.043	
19.330	-0.595	0.009	
19.335	-0.060	-0.003	
19.340	0.915	0.000	
19.345	-0.388	0.066	
19.350	-0.414	0.073	
19.355	0.793	0.044	
19.360	-0.130	0.069	
19.365	-0.653	0.063	
19.370	0.281	-0.004	
19.375	0.249	-0.030	
19.380	-0.737	-0.035	
19.385	-0.303	-0.101	
19.390	0.409	-0.158	
19.395	-0.645	-0.163	
19.400	-0.674	-0.207	
19.405	0.258	-0.271	
19.410	-0.393	-0.277	
19.415	-0.882	-0.294	
19.420	-0.106	-0.353	
19.425	-0.060	-0.370	
19.430	-0.856	-0.360	
19.435	-0.407	-0.389	
19.440	0.327	-0.393	
19.445	-0.654	-0.342	
19.450	-0.677	-0.330	
19.455	0.285	-0.343	
19.460	-0.355	-0.307	
19.465	-0.831	-0.291	
19.470	0.000	-0.322	
19.475	0.087	-0.313	
19.480	-0.770	-0.278	
19.485	-0.324	-0.291	
19.490	0.478	-0.288	
19.495	-0.570	-0.230	
19.500	-0.593	-0.217	
19.505	0.513	-0.228	
19.510	-0.240	-0.182	
19.515	-0.735	-0.159	
19.520	0.240	-0.186	
19.525	0.369	-0.159	
19.530	-0.657	-0.102	
19.535	-0.208	-0.108	
19.540	0.672	-0.110	
19.545	-0.520	-0.062	
19.550	-0.585	-0.071	
19.555	0.487	-0.118	
19.560	-0.255	-0.113	
19.565	-0.787	-0.127	
19.570	0.056	-0.192	
19.575	0.203	-0.211	
19.580	-0.741	-0.194	
19.585	-0.297	-0.222	
19.590	0.588	-0.230	
19.595	-0.532	-0.175	
19.600	-0.569	-0.164	
19.605	0.585	-0.178	
19.610	-0.174	-0.133	
19.615	-0.662	-0.106	
19.620	0.524	-0.118	
19.625	0.806	-0.047	
19.630	-0.465	0.074	
19.635	0.000	0.114	
19.640	0.887	0.132	
19.645	-0.517	0.175	
19.650	-0.660	0.126	
19.655	0.266	0.006	
19.660	-0.371	-0.077	
19.665	-0.857	-0.165	
19.670	0.041	-0.272	
19.675	0.218	-0.301	
19.680	-0.731	-0.271	
19.685	-0.272	-0.276	
19.690	0.692	-0.254	
19.695	-0.477	-0.168	
19.700	-0.538	-0.131	
19.705	0.675	-0.129	
19.710	-0.113	-0.072	
19.715	-0.647	-0.040	
19.720	0.377	-0.064	
19.725	0.539	-0.035	
19.730	-0.569	0.027	
19.735	-0.129	0.019	
19.740	0.907	0.015	
19.745	-0.382	0.071	
19.750	-0.451	0.071	
19.755	0.874	0.039	
19.760	0.082	0.079	
19.765	-0.546	0.108	
19.770	0.618	0.083	
19.775	0.845	0.127	
19.780	-0.428	0.212	
19.785	0.166	0.221	
19.790	1.277	0.240	
19.795	-0.182	0.322	
19.800	-0.277	0.332	
19.805	1.132	0.294	
19.810	0.284	0.326	
19.815	-0.488	0.337	
19.820	0.637	0.278	
19.825	0.799	0.271	
19.830	-0.492	0.298	
19.835	-0.092	0.243	
19.840	0.887	0.181	
19.845	-0.414	0.176	
19.850	-0.530	0.119	
19.855	0.631	0.030	
19.860	-0.136	0.008	
19.865	-0.711	-0.020	
19.870	0.201	-0.093	
19.875	0.406	-0.107	
19.880	-0.651	-0.078	
19.885	-0.245	-0.101	
19.890	0.716	-0.114	
19.895	-0.420	-0.064	
19.900	-0.474	-0.055	
19.905	0.756	-0.069	
19.910	-0.002	-0.015	
19.915	-0.607	0.021	
19.920	0.398	-0.003	
19.925	0.609	0.023	
19.930	-0.546	0.081	
19.935	-0.142	0.065	
19.940	0.890	0.049	
19.945	-0.359	0.090	
19.950	-0.456	0.081	
19.955	0.797	0.040	
19.960	0.030	0.066	
19.965	-0.599	0.079	
19.970	0.415	0.036	
19.975	0.647	0.048	
19.980	-0.543	0.100	
19.985	-0.155	0.079	
19.990	0.864	0.055	
19.995	-0.384	0.088	
20.000	-0.503	0.069	
20.005	0.683	0.015	
20.010	-0.061	0.022	
20.015	-0.647	0.018	
20.020	0.299	-0.037	
20.025	0.536	-0.034	
20.030	-0.576	0.010	
20.035	-0.188	-0.007	
20.040	0.851	-0.019	
20.045	-0.359	0.032	
20.050	-0.469	0.036	
20.055	0.773	0.006	
20.060	0.084	0.045	
20.065	-0.520	0.074	
20.070	0.676	0.063	
20.075	0.979	0.129	
20.080	-0.408	0.240	
20.085	-0.042	0.256	
20.090	0.877	0.235	
20.095	-0.445	0.239	
20.100	-0.622	0.168	
20.105	0.386	0.042	
20.110	-0.217	-0.031	
20.115	-0.758	-0.098	
20.120	0.113	-0.188	
20.125	0.502	-0.199	
20.130	-0.552	-0.141	
20.135	-0.129	-0.121	
20.140	0.991	-0.080	
20.145	-0.258	0.029	
20.150	-0.396	0.080	
20.155	0.878	0.083	
20.160	0.177	0.140	
20.165	-0.530	0.174	
20.170	0.502	0.142	
20.175	0.806	0.158	
20.180	-0.440	0.215	
20.185	-0.058	0.197	
20.190	1.037	0.174	
20.195	-0.245	0.212	
20.200	-0.385	0.199	
20.205	0.941	0.153	
20.210	0.350	0.187	
20.215	-0.408	0.226	
20.220	0.811	0.219	
20.225	1.202	0.287	
20.230	-0.199	0.407	
20.235	0.446	0.448	
20.240	1.615	0.492	
20.245	0.227	0.603	
20.250	-0.087	0.638	
20.255	1.419	0.605	
20.260	0.735	0.638	
20.265	-0.301	0.656	
20.270	0.849	0.589	
20.275	1.089	0.562	
20.280	-0.335	0.569	
20.285	0.024	0.488	
20.290	1.069	0.394	
20.295	-0.240	0.364	
20.300	-0.425	0.290	
20.305	0.758	0.184	
20.310	0.075	0.152	
20.315	-0.598	0.122	
20.320	0.290	0.047	
20.325	0.621	0.029	
20.330	-0.509	0.062	
20.335	-0.159	0.041	
20.340	0.913	0.027	
20.345	-0.274	0.080	
20.350	-0.428	0.088	
20.355	0.794	0.060	
20.360	0.169	0.097	
20.365	-0.529	0.125	
20.370	0.432	0.095	
20.375	0.791	0.114	
20.380	-0.426	0.176	
20.385	-0.066	0.168	
20.390	1.091	0.158	
20.395	-0.168	0.213	
20.400	-0.339	0.220	
20.405	1.008	0.191	
20.410	0.397	0.236	
20.415	-0.439	0.278	
20.420	0.618	0.254	
20.425	0.947	0.276	
20.430	-0.378	0.334	
20.435	-0.052	0.307	
20.440	1.043	0.263	
20.445	-0.217	0.277	
20.450	-0.419	0.241	
20.455	0.805	0.168	
20.460	0.168	0.163	
20.465	-0.559	0.158	
20.470	0.328	0.097	
20.475	0.683	0.085	
20.480	-0.483	0.120	
20.485	-0.170	0.094	
20.490	0.904	0.067	
20.495	-0.260	0.105	
20.500	-0.426	0.103	
20.505	0.842	0.070	
20.510	0.319	0.114	
20.515	-0.411	0.163	
20.520	0.730	0.168	
20.525	1.069	0.237	
20.530	-0.338	0.344	
20.535	-0.087	0.347	
20.540	0.858	0.301	
20.545	-0.355	0.281	
20.550	-0.569	0.200	
20.555	0.464	0.076	
20.560	-0.051	0.015	
20.565	-0.642	-0.030	
20.570	0.180	-0.100	
20.575	0.623	-0.101	
20.580	-0.494	-0.039	
20.585	-0.176	-0.027	
20.590	0.913	-0.012	
20.595	-0.255	0.061	
20.600	-0.428	0.085	
20.605	0.809	0.067	
20.610	0.270	0.113	
20.615	-0.504	0.154	
20.620	0.437	0.132	
20.625	0.849	0.153	
20.630	-0.404	0.215	
20.635	-0.089	0.203	
20.640	1.051	0.182	
20.645	-0.176	0.223	
20.650	-0.368	0.217	
20.655	0.961	0.176	
20.660	0.472	0.217	
20.665	-0.399	0.267	
20.670	0.701	0.259	
20.675	1.184	0.308	
20.680	-0.216	0.407	
20.685	0.252	0.427	
20.690	1.465	0.439	
20.695	0.136	0.517	
20.700	-0.184	0.531	
20.705	1.268	0.488	
20.710	0.744	0.520	
20.715	-0.294	0.553	
20.720	0.788	0.511	
20.725	1.159	0.508	
20.730	-0.272	0.544	
20.735	0.082	0.494	
20.740	1.233	0.429	
20.745	-0.054	0.434	
20.750	-0.298	0.394	
20.755	1.016	0.319	
20.760	0.476	0.325	
20.765	-0.405	0.340	
20.770	0.597	0.297	
20.775	1.019	0.304	
20.780	-0.306	0.359	
20.785	0.059	0.341	
20.790	1.281	0.320	
20.795	0.015	0.372	
20.800	-0.239	0.379	
20.805	1.190	0.346	
20.810	0.686	0.396	
20.815	-0.300	0.452	
20.820	0.809	0.437	
20.825	1.254	0.468	
20.830	-0.176	0.542	
20.835	0.263	0.532	
20.840	1.468	0.513	
20.845	0.206	0.566	
20.850	-0.121	0.568	
20.855	1.396	0.528	
20.860	0.907	0.575	
20.865	-0.193	0.632	
20.870	1.022	0.614	
20.875	1.469	0.645	
20.880	-0.078	0.721	
20.885	0.414	0.704	
20.890	1.615	0.675	
20.895	0.325	0.720	
20.900	-0.083	0.709	
20.905	1.410	0.646	
20.910	0.916	0.664	
20.915	-0.190	0.691	
20.920	0.979	0.647	
20.925	1.421	0.653	
20.930	-0.110	0.706	
20.935	0.379	0.675	
20.940	1.611	0.640	
20.945	0.310	0.684	
20.950	-0.058	0.680	
20.955	1.517	0.632	
20.960	1.072	0.678	
20.965	-0.042	0.743	
20.970	1.381	0.747	
20.975	1.842	0.821	
20.980	0.177	0.948	
20.985	0.605	0.965	
20.990	1.621	0.934	
20.995	0.104	0.928	
21.000	-0.274	0.826	
21.005	1.022	0.650	
21.010	0.502	0.548	
21.015	-0.417	0.471	
21.020	0.556	0.357	
21.025	1.026	0.314	
21.030	-0.321	0.341	
21.035	-0.017	0.308	
21.040	1.211	0.274	
21.045	-0.057	0.316	
21.050	-0.306	0.314	
21.055	1.097	0.275	
21.060	0.649	0.322	
21.065	-0.342	0.381	
21.070	0.773	0.373	
21.075	1.283	0.415	
21.080	-0.193	0.504	
21.085	0.223	0.507	
21.090	1.523	0.497	
21.095	0.240	0.562	
21.100	-0.121	0.577	
21.105	1.477	0.546	
21.110	1.045	0.609	
21.115	-0.139	0.685	
21.120	1.161	0.686	
21.125	1.708	0.739	
21.130	0.073	0.843	
21.135	0.612	0.852	
21.140	1.891	0.847	
21.145	0.550	0.916	
21.150	-0.008	0.919	
21.155	1.567	0.847	
21.160	1.045	0.848	
21.165	-0.193	0.852	
21.170	0.939	0.770	
21.175	1.385	0.730	
21.180	-0.202	0.737	
21.185	0.076	0.653	
21.190	1.310	0.550	
21.195	-0.048	0.520	
21.200	-0.358	0.448	
21.205	0.901	0.337	
21.210	0.385	0.304	
21.215	-0.515	0.286	
21.220	0.350	0.210	
21.225	0.845	0.181	
21.230	-0.436	0.208	
21.235	-0.190	0.173	
21.240	0.955	0.130	
21.245	-0.222	0.154	
21.250	-0.515	0.137	
21.255	0.655	0.076	
21.260	0.163	0.076	
21.265	-0.616	0.079	
21.270	0.133	0.023	
21.275	0.654	0.005	
21.280	-0.541	0.037	
21.285	-0.304	0.012	
21.290	0.744	-0.022	
21.295	-0.321	0.006	
21.300	-0.598	-0.005	
21.305	0.521	-0.055	
21.310	0.061	-0.046	
21.315	-0.666	-0.034	
21.320	0.049	-0.079	
21.325	0.603	-0.084	
21.330	-0.567	-0.040	
21.335	-0.359	-0.052	
21.340	0.606	-0.079	
21.345	-0.423	-0.058	
21.350	-0.724	-0.082	
21.355	0.244	-0.153	
21.360	-0.121	-0.177	
21.365	-0.802	-0.193	
21.370	-0.156	-0.252	
21.375	0.266	-0.273	
21.380	-0.743	-0.251	
21.385	-0.532	-0.274	
21.390	0.307	-0.304	
21.395	-0.527	-0.283	
21.400	-0.784	-0.292	
21.405	0.152	-0.331	
21.410	-0.144	-0.319	
21.415	-0.749	-0.294	
21.420	0.024	-0.303	
21.425	0.631	-0.254	
21.430	-0.595	-0.151	
21.435	-0.445	-0.119	
21.440	0.238	-0.139	
21.445	-0.676	-0.153	
21.450	-0.993	-0.228	
21.455	-0.266	-0.359	
21.460	-0.488	-0.449	
21.465	-0.993	-0.514	
21.470	-0.457	-0.586	
21.475	-0.155	-0.609	
21.480	-0.957	-0.587	
21.485	-0.738	-0.597	
21.490	-0.029	-0.606	
21.495	-0.697	-0.567	
21.500	-0.969	-0.554	
21.505	-0.156	-0.574	
21.510	-0.376	-0.554	
21.515	-0.993	-0.530	
21.520	-0.413	-0.548	
21.525	-0.097	-0.545	
21.530	-0.934	-0.513	
21.535	-0.743	-0.528	
21.540	-0.020	-0.550	
21.545	-0.656	-0.526	
21.550	-0.935	-0.522	
21.555	-0.116	-0.545	
21.560	-0.324	-0.525	
21.565	-0.989	-0.499	
21.570	-0.350	-0.517	
21.575	0.030	-0.506	
21.580	-0.834	-0.460	
21.585	-0.631	-0.457	
21.590	0.186	-0.459	
21.595	-0.572	-0.414	
21.600	-0.874	-0.400	
21.605	-0.013	-0.427	
21.610	-0.274	-0.415	
21.615	-0.980	-0.404	
21.620	-0.396	-0.445	
21.625	-0.110	-0.470	
21.630	-0.966	-0.469	
21.635	-0.828	-0.514	
21.640	-0.200	-0.571	
21.645	-0.845	-0.590	
21.650	-0.995	-0.623	
21.655	-0.404	-0.674	
21.660	-0.604	-0.686	
21.665	-0.995	-0.685	
21.670	-0.676	-0.709	
21.675	-0.368	-0.715	
21.680	-0.993	-0.697	
21.685	-0.972	-0.713	
21.690	-0.300	-0.739	
21.695	-0.888	-0.729	
21.700	-0.995	-0.731	
21.705	-0.398	-0.748	
21.710	-0.561	-0.727	
21.715	-0.995	-0.698	
21.720	-0.613	-0.701	
21.725	-0.303	-0.690	
21.730	-0.993	-0.659	
21.735	-0.918	-0.670	
21.740	-0.246	-0.694	
21.745	-0.847	-0.682	
21.750	-0.993	-0.685	
21.755	-0.355	-0.708	
21.760	-0.514	-0.690	
21.765	-0.993	-0.664	
21.770	-0.587	-0.671	
21.775	-0.258	-0.662	
21.780	-0.993	-0.633	
21.785	-0.923	-0.648	
21.790	-0.266	-0.679	
21.795	-0.877	-0.676	
21.800	-0.995	-0.689	
21.805	-0.423	-0.720	
21.810	-0.585	-0.715	
21.815	-0.995	-0.699	
21.820	-0.674	-0.713	
21.825	-0.339	-0.712	
21.830	-0.995	-0.688	
21.835	-0.954	-0.701	
21.840	-0.268	-0.724	
21.845	-0.850	-0.710	
21.850	-0.993	-0.708	
21.855	-0.344	-0.724	
21.860	-0.430	-0.695	
21.865	-0.995	-0.654	
21.870	-0.402	-0.643	
21.875	-0.025	-0.604	
21.880	-0.929	-0.536	
21.885	-0.842	-0.530	
21.890	-0.231	-0.560	
21.895	-0.873	-0.572	
21.900	-0.995	-0.610	
21.905	-0.440	-0.668	
21.910	-0.559	-0.686	
21.915	-0.995	-0.686	
21.920	-0.566	-0.703	
21.925	-0.177	-0.688	
21.930	-0.975	-0.641	
21.935	-0.811	-0.635	
21.940	-0.005	-0.635	
21.945	-0.660	-0.586	
21.950	-0.986	-0.561	
21.955	-0.147	-0.573	
21.960	-0.300	-0.546	
21.965	-0.989	-0.512	
21.970	-0.391	-0.524	
21.975	0.120	-0.509	
21.980	-0.811	-0.453	
21.985	-0.659	-0.441	
21.990	0.325	-0.437	
21.995	-0.506	-0.378	
22.000	-0.839	-0.350	
22.005	0.142	-0.366	
22.010	-0.078	-0.335	
22.015	-0.815	-0.296	
22.020	-0.182	-0.310	
22.025	0.537	-0.289	
22.030	-0.636	-0.213	
22.035	-0.485	-0.193	
22.040	0.676	-0.190	
22.045	-0.346	-0.130	
22.050	-0.703	-0.109	
22.055	0.418	-0.140	
22.060	0.105	-0.119	
22.065	-0.779	-0.093	
22.070	-0.207	-0.140	
22.075	0.424	-0.173	
22.080	-0.714	-0.160	
22.085	-0.595	-0.198	
22.090	0.402	-0.250	
22.095	-0.501	-0.242	
22.100	-0.874	-0.262	
22.105	0.061	-0.324	
22.110	-0.158	-0.337	
22.115	-0.908	-0.335	
22.120	-0.312	-0.377	
22.125	0.343	-0.383	
22.130	-0.734	-0.332	
22.135	-0.598	-0.325	
22.140	0.486	-0.328	
22.145	-0.416	-0.271	
22.150	-0.775	-0.245	
22.155	0.290	-0.264	
22.160	0.084	-0.230	
22.165	-0.772	-0.185	
22.170	-0.155	-0.203	
22.175	0.626	-0.196	
22.180	-0.596	-0.133	
22.185	-0.465	-0.125	
22.190	0.797	-0.132	
22.195	-0.248	-0.070	
22.200	-0.617	-0.041	
22.205	0.680	-0.057	
22.210	0.542	0.006	
22.215	-0.562	0.090	
22.220	0.275	0.101	
22.225	1.089	0.138	
22.230	-0.378	0.226	
22.235	-0.258	0.231	
22.240	1.142	0.202	
22.245	-0.009	0.244	
22.250	-0.497	0.248	
22.255	0.880	0.199	
22.260	0.696	0.228	
22.265	-0.492	0.283	
22.270	0.383	0.262	
22.275	1.210	0.272	
22.280	-0.320	0.341	
22.285	-0.193	0.329	
22.290	1.278	0.289	
22.295	0.137	0.332	
22.300	-0.417	0.344	
22.305	1.124	0.306	
22.310	1.086	0.365	
22.315	-0.257	0.467	
22.320	0.817	0.495	
22.325	1.590	0.555	
22.330	-0.161	0.658	
22.335	-0.161	0.639	
22.340	1.167	0.543	
22.345	-0.064	0.493	
22.350	-0.552	0.400	
22.355	0.750	0.261	
22.360	0.632	0.217	
22.365	-0.504	0.226	
22.370	0.359	0.187	
22.375	1.245	0.201	
22.380	-0.280	0.289	
22.385	-0.156	0.304	
22.390	1.401	0.292	
22.395	0.307	0.369	
22.400	-0.347	0.415	
22.405	1.182	0.398	
22.410	1.034	0.457	
22.415	-0.344	0.536	
22.420	0.649	0.521	
22.425	1.552	0.534	
22.430	-0.103	0.610	
22.435	0.053	0.599	
22.440	1.630	0.559	
22.445	0.557	0.614	
22.450	-0.208	0.645	
22.455	1.433	0.614	
22.460	1.343	0.670	
22.465	-0.167	0.756	
22.470	0.962	0.750	
22.475	1.882	0.776	
22.480	0.233	0.875	
22.485	0.398	0.889	
22.490	1.974	0.870	
22.495	0.893	0.942	
22.500	-0.040	0.975	
22.505	1.590	0.922	
22.510	1.439	0.938	
22.515	-0.153	0.971	
22.520	0.889	0.902	
22.525	1.723	0.855	
22.530	-0.014	0.874	
22.535	0.062	0.803	
22.540	1.576	0.698	
22.545	0.455	0.687	
22.550	-0.312	0.655	
22.555	1.175	0.565	
22.560	1.075	0.560	
22.565	-0.332	0.592	
22.570	0.586	0.545	
22.575	1.498	0.529	
22.580	-0.139	0.582	
22.585	-0.034	0.556	
22.590	1.550	0.502	
22.595	0.463	0.546	
22.600	-0.294	0.567	
22.605	1.257	0.526	
22.610	1.214	0.566	
22.615	-0.254	0.640	
22.620	0.730	0.625	
22.625	1.647	0.633	
22.630	-0.013	0.706	
22.635	0.076	0.689	
22.640	1.668	0.638	
22.645	0.614	0.680	
22.650	-0.219	0.699	
22.655	1.362	0.650	
22.660	1.306	0.682	
22.665	-0.211	0.746	
22.670	0.758	0.715	
22.675	1.682	0.706	
22.680	0.003	0.761	
22.685	0.036	0.727	
22.690	1.578	0.653	
22.695	0.496	0.666	
22.700	-0.304	0.654	
22.705	1.147	0.575	
22.710	1.100	0.573	
22.715	-0.317	0.606	
22.720	0.554	0.557	
22.725	1.502	0.536	
22.730	-0.129	0.585	
22.735	-0.092	0.555	
22.740	1.492	0.491	
22.745	0.484	0.526	
22.750	-0.298	0.545	
22.755	1.269	0.507	
22.760	1.382	0.562	
22.765	-0.107	0.667	
22.770	0.935	0.692	
22.775	1.871	0.744	
22.780	0.137	0.855	
22.785	-0.034	0.849	
22.790	1.355	0.755	
22.795	0.214	0.703	
22.800	-0.466	0.608	
22.805	0.846	0.455	
22.810	0.887	0.394	
22.815	-0.407	0.393	
22.820	0.377	0.341	
22.825	1.376	0.332	
22.830	-0.168	0.403	
22.835	-0.148	0.404	
22.840	1.401	0.374	
22.845	0.418	0.431	
22.850	-0.346	0.467	
22.855	1.091	0.437	
22.860	1.124	0.477	
22.865	-0.292	0.550	
22.870	0.560	0.535	
22.875	1.555	0.539	
22.880	-0.063	0.608	
22.885	-0.051	0.593	
22.890	1.569	0.541	
22.895	0.605	0.586	
22.900	-0.255	0.616	
22.905	1.263	0.580	
22.910	1.347	0.622	
22.915	-0.167	0.703	
22.920	0.773	0.695	
22.925	1.790	0.709	
22.930	0.165	0.794	
22.935	0.145	0.793	
22.940	1.769	0.749	
22.945	0.780	0.795	
22.950	-0.194	0.816	
22.955	1.301	0.753	
22.960	1.306	0.755	
22.965	-0.254	0.785	
22.970	0.541	0.717	
22.975	1.502	0.659	
22.980	-0.145	0.665	
22.985	-0.219	0.591	
22.990	1.219	0.475	
22.995	0.203	0.442	
23.000	-0.486	0.397	
23.005	0.715	0.299	
23.010	0.753	0.274	
23.015	-0.501	0.290	
23.020	0.039	0.235	
23.025	1.069	0.194	
23.030	-0.320	0.224	
23.035	-0.349	0.201	
23.040	1.045	0.154	
23.045	0.108	0.188	
23.050	-0.514	0.204	
23.055	0.687	0.164	
23.060	0.762	0.189	
23.065	-0.475	0.246	
23.070	0.119	0.226	
23.075	1.184	0.218	
23.080	-0.252	0.277	
23.085	-0.294	0.272	
23.090	1.139	0.234	
23.095	0.240	0.274	
23.100	-0.457	0.297	
23.105	0.816	0.260	
23.110	0.927	0.291	
23.115	-0.405	0.357	
23.120	0.215	0.339	
23.125	1.257	0.326	
23.130	-0.231	0.375	
23.135	-0.301	0.353	
23.140	1.069	0.288	
23.145	0.137	0.294	
23.150	-0.523	0.280	
23.155	0.602	0.208	
23.160	0.693	0.197	
23.165	-0.527	0.223	
23.170	-0.009	0.177	
23.175	1.058	0.146	
23.180	-0.320	0.186	
23.185	-0.373	0.173	
23.190	0.990	0.132	
23.195	0.096	0.166	
23.200	-0.532	0.182	
23.205	0.709	0.144	
23.210	0.977	0.185	
23.215	-0.309	0.279	
23.220	0.486	0.313	
23.225	1.566	0.375	
23.230	-0.074	0.500	
23.235	-0.268	0.522	
23.240	0.944	0.452	
23.245	-0.087	0.405	
23.250	-0.706	0.310	
23.255	0.229	0.147	
23.260	0.424	0.048	
23.265	-0.622	0.012	
23.270	-0.148	-0.053	
23.275	0.900	-0.076	
23.280	-0.378	-0.015	
23.285	-0.442	0.005	
23.290	0.887	-0.004	
23.295	0.061	0.057	
23.300	-0.567	0.097	
23.305	0.565	0.075	
23.310	0.747	0.111	
23.315	-0.508	0.180	
23.320	-0.014	0.167	
23.325	1.113	0.157	
23.330	-0.281	0.212	
23.335	-0.361	0.209	
23.340	1.039	0.170	
23.345	0.191	0.208	
23.350	-0.491	0.231	
23.355	0.776	0.199	
23.360	1.045	0.244	
23.365	-0.349	0.337	
23.370	0.318	0.351	
23.375	1.503	0.376	
23.380	-0.037	0.470	
23.385	-0.136	0.490	
23.390	1.472	0.462	
23.395	0.614	0.522	
23.400	-0.336	0.564	
23.405	0.976	0.522	
23.410	1.150	0.533	
23.415	-0.338	0.576	
23.420	0.189	0.521	
23.425	1.246	0.457	
23.430	-0.249	0.454	
23.435	-0.384	0.385	
23.440	0.942	0.277	
23.445	0.062	0.245	
23.450	-0.619	0.204	
23.455	0.374	0.110	
23.460	0.554	0.075	
23.465	-0.614	0.084	
23.470	-0.208	0.032	
23.475	0.822	-0.009	
23.480	-0.419	0.019	
23.485	-0.520	0.005	
23.490	0.713	-0.037	
23.495	-0.075	-0.013	
23.500	-0.676	-0.004	
23.505	0.331	-0.049	
23.510	0.594	-0.035	
23.515	-0.579	0.021	
23.520	-0.156	0.012	
23.525	0.939	0.007	
23.530	-0.352	0.067	
23.535	-0.474	0.073	
23.540	0.838	0.041	
23.545	0.055	0.076	
23.550	-0.599	0.095	
23.555	0.472	0.056	
23.560	0.764	0.078	
23.565	-0.511	0.143	
23.570	-0.101	0.132	
23.575	1.020	0.116	
23.580	-0.309	0.162	
23.585	-0.448	0.153	
23.590	0.890	0.106	
23.595	0.099	0.129	
23.600	-0.590	0.140	
23.605	0.437	0.089	
23.610	0.647	0.091	
23.615	-0.596	0.128	
23.620	-0.220	0.087	
23.625	0.809	0.040	
23.630	-0.407	0.055	
23.635	-0.537	0.028	
23.640	0.715	-0.026	
23.645	-0.011	-0.007	
23.650	-0.636	0.006	
23.655	0.426	-0.028	
23.660	0.829	0.009	
23.665	-0.399	0.103	
23.670	0.226	0.142	
23.675	1.421	0.203	
23.680	-0.133	0.331	
23.685	-0.362	0.369	
23.690	0.854	0.320	
23.695	-0.051	0.296	
23.700	-0.746	0.230	
23.705	0.078	0.088	
23.710	0.403	-0.007	
23.715	-0.656	-0.042	
23.720	-0.240	-0.104	
23.725	0.881	-0.128	
23.730	-0.353	-0.061	
23.735	-0.488	-0.032	
23.740	0.870	-0.033	
23.745	0.156	0.038	
23.750	-0.575	0.094	
23.755	0.516	0.082	
23.760	0.906	0.124	
23.765	-0.426	0.209	
23.770	0.026	0.216	
23.775	1.297	0.222	
23.780	-0.150	0.298	
23.785	-0.326	0.311	
23.790	1.187	0.278	
23.795	0.492	0.328	
23.800	-0.426	0.372	
23.805	0.803	0.346	
23.810	1.171	0.377	
23.815	-0.332	0.453	
23.820	0.175	0.438	
23.825	1.469	0.419	
23.830	-0.035	0.474	
23.835	-0.245	0.467	
23.840	1.304	0.413	
23.845	0.556	0.445	
23.850	-0.417	0.471	
23.855	0.731	0.418	
23.860	1.045	0.411	
23.865	-0.422	0.442	
23.870	-0.077	0.382	
23.875	1.069	0.304	
23.880	-0.301	0.291	
23.885	-0.515	0.229	
23.890	0.713	0.128	
23.895	-0.011	0.096	
23.900	-0.715	0.061	
23.905	0.116	-0.028	
23.910	0.455	-0.068	
23.915	-0.685	-0.060	
23.920	-0.349	-0.103	
23.925	0.647	-0.139	
23.930	-0.463	-0.109	
23.935	-0.653	-0.117	
23.940	0.492	-0.158	
23.945	-0.110	-0.139	
23.950	-0.752	-0.126	
23.955	0.084	-0.167	
23.960	0.498	-0.161	
23.965	-0.650	-0.108	
23.970	-0.310	-0.113	
23.975	0.753	-0.119	
23.980	-0.404	-0.063	
23.985	-0.599	-0.054	
23.990	0.602	-0.086	
23.995	-0.016	-0.059	
24.000	-0.694	-0.040	
24.005	0.215	-0.078	
24.010	0.673	-0.064	
24.015	-0.558	0.001	
24.020	-0.216	0.003	
24.025	0.945	0.001	
24.030	-0.320	0.063	
24.035	-0.533	0.071	
24.040	0.692	0.030	
24.045	0.018	0.044	
24.050	-0.697	0.044	
24.055	0.162	-0.020	
24.060	0.600	-0.037	
24.065	-0.619	-0.004	
24.070	-0.298	-0.031	
24.075	0.800	-0.057	
24.080	-0.382	-0.017	
24.085	-0.584	-0.020	
24.090	0.712	-0.056	
24.095	0.137	-0.018	
24.100	-0.614	0.021	
24.105	0.374	0.003	
24.110	0.890	0.041	
24.115	-0.414	0.132	
24.120	0.049	0.158	
24.125	1.396	0.191	
24.130	-0.110	0.298	
24.135	-0.425	0.330	
24.140	0.803	0.278	
24.145	0.041	0.257	
24.150	-0.743	0.206	
24.155	0.027	0.078	
24.160	0.519	-0.008	
24.165	-0.613	-0.027	
24.170	-0.280	-0.077	
24.175	0.952	-0.098	
24.180	-0.278	-0.028	
24.185	-0.515	0.006	
24.190	0.823	-0.001	
24.195	0.269	0.061	
24.200	-0.584	0.115	
24.205	0.389	0.098	
24.210	0.874	0.120	
24.215	-0.475	0.186	
24.220	-0.147	0.173	
24.225	1.141	0.152	
24.230	-0.200	0.203	
24.235	-0.446	0.204	
24.240	0.942	0.160	
24.245	0.379	0.193	
24.250	-0.535	0.227	
24.255	0.505	0.193	
24.260	1.061	0.212	
24.265	-0.385	0.286	
24.270	-0.068	0.279	
24.275	1.301	0.261	
24.280	-0.087	0.316	
24.285	-0.358	0.321	
24.290	1.152	0.280	
24.295	0.620	0.327	
24.300	-0.448	0.379	
24.305	0.605	0.350	
24.310	1.116	0.358	
24.315	-0.396	0.408	
24.320	-0.138	0.366	
24.325	1.106	0.298	
24.330	-0.242	0.294	
24.335	-0.544	0.241	
24.340	0.701	0.142	
24.345	0.107	0.111	
24.350	-0.712	0.085	
24.355	0.042	-0.002	
24.360	0.570	-0.048	
24.365	-0.643	-0.036	
24.370	-0.394	-0.075	
24.375	0.687	-0.115	
24.380	-0.405	-0.087	
24.385	-0.674	-0.094	
24.390	0.478	-0.139	
24.395	-0.019	-0.123	
24.400	-0.755	-0.107	
24.405	-0.026	-0.151	
24.410	0.553	-0.157	
24.415	-0.637	-0.110	
24.420	-0.375	-0.118	
24.425	0.745	-0.129	
24.430	-0.368	-0.076	
24.435	-0.650	-0.066	
24.440	0.547	-0.100	
24.445	0.056	-0.076	
24.450	-0.723	-0.053	
24.455	0.055	-0.093	
24.460	0.664	-0.093	
24.465	-0.584	-0.040	
24.470	-0.324	-0.044	
24.475	0.860	-0.055	
24.480	-0.324	-0.001	
24.485	-0.627	0.007	
24.490	0.525	-0.039	
24.495	0.029	-0.034	
24.500	-0.752	-0.033	
24.505	-0.042	-0.096	
24.510	0.537	-0.123	
24.515	-0.654	-0.096	
24.520	-0.425	-0.121	
24.525	0.692	-0.148	
24.530	-0.382	-0.107	
24.535	-0.682	-0.102	
24.540	0.475	-0.140	
24.545	0.038	-0.118	
24.550	-0.741	-0.095	
24.555	0.009	-0.132	
24.560	0.693	-0.127	
24.565	-0.521	-0.061	
24.570	-0.217	-0.043	
24.575	1.149	-0.018	
24.580	-0.174	0.086	
24.585	-0.537	0.133	
24.590	0.626	0.103	
24.595	0.026	0.104	
24.600	-0.813	0.078	
24.605	-0.165	-0.030	
24.610	0.398	-0.112	
24.615	-0.694	-0.135	
24.620	-0.449	-0.187	
24.625	0.710	-0.219	
24.630	-0.347	-0.166	
24.635	-0.659	-0.139	
24.640	0.565	-0.150	
24.645	0.169	-0.099	
24.650	-0.692	-0.046	
24.655	0.104	-0.062	
24.660	0.796	-0.045	
24.665	-0.537	0.026	
24.670	-0.326	0.028	
24.675	0.936	0.012	
24.680	-0.239	0.062	
24.685	-0.579	0.070	
24.690	0.701	0.029	
24.695	0.331	0.056	
24.700	-0.619	0.094	
24.705	0.236	0.064	
24.710	0.958	0.075	
24.715	-0.437	0.146	
24.720	-0.213	0.148	
24.725	1.184	0.136	
24.730	-0.097	0.200	
24.735	-0.453	0.220	
24.740	0.977	0.188	
24.745	0.579	0.233	
24.750	-0.524	0.287	
24.755	0.362	0.255	
24.760	1.043	0.250	
24.765	-0.439	0.294	
24.770	-0.277	0.256	
24.775	0.968	0.189	
24.780	-0.248	0.187	
24.785	-0.634	0.143	
24.790	0.524	0.050	
24.795	0.120	0.019	
24.800	-0.755	0.001	
24.805	-0.104	-0.077	
24.810	0.548	-0.120	
24.815	-0.656	-0.104	
24.820	-0.489	-0.134	
24.825	0.629	-0.171	
24.830	-0.379	-0.139	
24.835	-0.726	-0.138	
24.840	0.386	-0.178	
24.845	0.056	-0.160	
24.850	-0.757	-0.134	
24.855	-0.064	-0.166	
24.860	0.670	-0.162	
24.865	-0.584	-0.097	
24.870	-0.405	-0.090	
24.875	0.840	-0.095	
24.880	-0.266	-0.033	
24.885	-0.624	-0.011	
24.890	0.646	-0.039	
24.895	0.357	0.002	
24.900	-0.628	0.056	
24.905	0.162	0.038	
24.910	0.938	0.051	
24.915	-0.463	0.121	
24.920	-0.283	0.120	
24.925	1.074	0.100	
24.930	-0.152	0.151	
24.935	-0.541	0.158	
24.940	0.794	0.112	
24.945	0.469	0.139	
24.950	-0.611	0.178	
24.955	0.130	0.136	
24.960	0.897	0.115	
24.965	-0.492	0.150	
24.970	-0.336	0.119	
24.975	0.976	0.074	
24.980	-0.184	0.104	
24.985	-0.578	0.101	
24.990	0.716	0.052	
24.995	0.444	0.078	
25.000	-0.598	0.123	
25.005	0.209	0.098	
25.010	1.063	0.108	
25.015	-0.353	0.184	
25.020	-0.110	0.199	
25.025	1.558	0.215	
25.030	0.319	0.337	
25.035	-0.326	0.421	
25.040	1.130	0.421	
25.045	0.663	0.463	
25.050	-0.595	0.485	
25.055	0.035	0.383	
25.060	0.777	0.274	
25.065	-0.537	0.218	
25.070	-0.378	0.120	
25.075	0.952	0.033	
25.080	-0.173	0.047	
25.085	-0.570	0.047	
25.090	0.738	0.012	
25.095	0.521	0.058	
25.100	-0.576	0.125	
25.105	0.211	0.116	
25.110	1.040	0.131	
25.115	-0.408	0.201	
25.120	-0.271	0.196	
25.125	1.139	0.166	
25.130	-0.057	0.211	
25.135	-0.504	0.218	
25.140	0.875	0.173	
25.145	0.676	0.207	
25.150	-0.501	0.265	
25.155	0.357	0.247	
25.160	1.231	0.258	
25.165	-0.292	0.333	
25.170	-0.127	0.332	
25.175	1.462	0.313	
25.180	0.273	0.387	
25.185	-0.323	0.430	
25.190	1.263	0.413	
25.195	1.087	0.480	
25.200	-0.312	0.569	
25.205	0.695	0.561	
25.210	1.508	0.573	
25.215	-0.185	0.636	
25.220	-0.078	0.598	
25.225	1.408	0.518	
25.230	0.128	0.516	
25.235	-0.454	0.475	
25.240	0.880	0.372	
25.245	0.620	0.342	
25.250	-0.559	0.336	
25.255	0.142	0.254	
25.260	0.942	0.198	
25.265	-0.471	0.206	
25.270	-0.379	0.154	
25.275	0.892	0.085	
25.280	-0.187	0.091	
25.285	-0.617	0.073	
25.290	0.588	0.012	
25.295	0.402	0.024	
25.300	-0.645	0.060	
25.305	-0.002	0.026	
25.310	0.872	0.014	
25.315	-0.474	0.065	
25.320	-0.373	0.057	
25.325	0.953	0.030	
25.330	-0.136	0.076	
25.335	-0.576	0.089	
25.340	0.706	0.052	
25.345	0.545	0.088	
25.350	-0.588	0.145	
25.355	0.114	0.123	
25.360	1.019	0.119	
25.365	-0.393	0.177	
25.370	-0.304	0.169	
25.375	1.098	0.139	
25.380	-0.032	0.184	
25.385	-0.511	0.196	
25.390	0.808	0.155	
25.395	0.655	0.187	
25.400	-0.529	0.242	
25.405	0.186	0.214	
25.410	1.034	0.201	
25.415	-0.428	0.242	
25.420	-0.365	0.209	
25.425	0.948	0.144	
25.430	-0.142	0.150	
25.435	-0.607	0.128	
25.440	0.602	0.058	
25.445	0.472	0.063	
25.450	-0.613	0.096	
25.455	0.015	0.061	
25.460	0.916	0.048	
25.465	-0.448	0.097	
25.470	-0.352	0.088	
25.475	1.063	0.063	
25.480	0.030	0.123	
25.485	-0.414	0.162	
25.490	1.116	0.166	
25.495	0.955	0.265	
25.500	-0.442	0.384	
25.505	0.174	0.383	
25.510	0.867	0.348	
25.515	-0.559	0.328	
25.520	-0.547	0.221	
25.525	0.559	0.077	
25.530	-0.307	0.004	
25.535	-0.738	-0.069	
25.540	0.380	-0.157	
25.545	0.342	-0.155	
25.550	-0.663	-0.106	
25.555	-0.058	-0.111	
25.560	0.890	-0.088	
25.565	-0.457	-0.002	
25.570	-0.399	0.021	
25.575	0.924	0.013	
25.580	-0.126	0.068	
25.585	-0.610	0.085	
25.590	0.628	0.045	
25.595	0.565	0.073	
25.600	-0.581	0.127	
25.605	0.072	0.106	
25.610	1.045	0.104	
25.615	-0.371	0.167	
25.620	-0.313	0.166	
25.625	1.133	0.141	
25.630	0.055	0.196	
25.635	-0.483	0.221	
25.640	0.909	0.193	
25.645	0.897	0.246	
25.650	-0.426	0.332	
25.655	0.360	0.332	
25.660	1.332	0.345	
25.665	-0.249	0.416	
25.670	-0.222	0.403	
25.675	1.257	0.348	
25.680	0.119	0.368	
25.685	-0.506	0.355	
25.690	0.736	0.276	
25.695	0.617	0.260	
25.700	-0.599	0.267	
25.705	-0.061	0.191	
25.710	0.848	0.125	
25.715	-0.512	0.121	
25.720	-0.517	0.064	
25.725	0.667	-0.016	
25.730	-0.263	-0.026	
25.735	-0.769	-0.056	
25.740	0.226	-0.133	
25.745	0.174	-0.153	
25.750	-0.781	-0.144	
25.755	-0.240	-0.188	
25.760	0.618	-0.205	
25.765	-0.585	-0.156	
25.770	-0.566	-0.155	
25.775	0.615	-0.177	
25.780	-0.260	-0.136	
25.785	-0.757	-0.121	
25.790	0.264	-0.161	
25.795	0.252	-0.150	
25.800	-0.740	-0.116	
25.805	-0.199	-0.143	
25.810	0.731	-0.149	
25.815	-0.529	-0.090	
25.820	-0.515	-0.084	
25.825	0.747	-0.103	
25.830	-0.159	-0.055	
25.835	-0.645	-0.032	
25.840	0.524	-0.057	
25.845	0.556	-0.015	
25.850	-0.608	0.056	
25.855	-0.052	0.048	
25.860	0.952	0.046	
25.865	-0.448	0.101	
25.870	-0.468	0.091	
25.875	0.790	0.041	
25.880	-0.162	0.053	
25.885	-0.691	0.039	
25.890	0.394	-0.028	
25.895	0.406	-0.033	
25.900	-0.685	-0.005	
25.905	-0.165	-0.043	
25.910	0.771	-0.064	
25.915	-0.506	-0.023	
25.920	-0.509	-0.033	
25.925	0.774	-0.066	
25.930	-0.147	-0.029	
25.935	-0.665	-0.014	
25.940	0.531	-0.048	
25.945	0.718	-0.004	
25.950	-0.489	0.086	
25.955	0.087	0.107	
25.960	1.037	0.131	
25.965	-0.445	0.197	
25.970	-0.558	0.175	
25.975	0.490	0.082	
25.980	-0.323	0.026	
25.985	-0.845	-0.053	
25.990	0.079	-0.171	
25.995	0.192	-0.220	
26.000	-0.746	-0.217	
26.005	-0.213	-0.245	
26.010	0.759	-0.233	
26.015	-0.500	-0.146	
26.020	-0.520	-0.112	
26.025	0.756	-0.111	
26.030	-0.138	-0.050	
26.035	-0.683	-0.020	
26.040	0.415	-0.052	
26.045	0.527	-0.027	
26.050	-0.619	0.029	
26.055	-0.089	0.015	
26.060	0.965	0.013	
26.065	-0.413	0.075	
26.070	-0.446	0.078	
26.075	0.906	0.046	
26.080	-0.028	0.084	
26.085	-0.599	0.099	
26.090	0.641	0.061	
26.095	0.771	0.098	
26.100	-0.503	0.176	
26.105	0.124	0.176	
26.110	1.246	0.190	
26.115	-0.248	0.271	
26.120	-0.283	0.282	
26.125	1.253	0.256	
26.130	0.284	0.311	
26.135	-0.494	0.342	
26.140	0.761	0.297	
26.145	0.848	0.307	
26.150	-0.504	0.345	
26.155	0.013	0.293	
26.160	1.075	0.241	
26.165	-0.378	0.253	
26.170	-0.466	0.206	
26.175	0.809	0.122	
26.180	-0.110	0.106	
26.185	-0.711	0.073	
26.190	0.318	-0.013	
26.195	0.438	-0.036	
26.200	-0.689	-0.017	
26.205	-0.220	-0.059	
26.210	0.767	-0.085	
26.215	-0.477	-0.043	
26.220	-0.537	-0.048	
26.225	0.765	-0.078	
26.230	-0.095	-0.037	
26.235	-0.688	-0.015	
26.240	0.382	-0.052	
26.245	0.563	-0.031	
26.250	-0.617	0.026	
26.255	-0.139	0.012	
26.260	0.941	0.005	
26.265	-0.394	0.063	
26.270	-0.460	0.065	
26.275	0.916	0.036	
26.280	0.046	0.081	
26.285	-0.601	0.106	
26.290	0.557	0.072	
26.295	0.756	0.100	
26.300	-0.529	0.167	
26.305	-0.026	0.153	
26.310	1.150	0.145	
26.315	-0.295	0.205	
26.320	-0.387	0.205	
26.325	1.008	0.164	
26.330	0.096	0.194	
26.335	-0.602	0.200	
26.340	0.521	0.139	
26.345	0.704	0.136	
26.350	-0.566	0.172	
26.355	-0.107	0.134	
26.360	1.025	0.101	
26.365	-0.346	0.140	
26.370	-0.439	0.129	
26.375	0.945	0.087	
26.380	0.082	0.121	
26.385	-0.585	0.139	
26.390	0.606	0.101	
26.395	0.872	0.132	
26.400	-0.437	0.211	
26.405	0.275	0.224	
26.410	1.607	0.268	
26.415	-0.020	0.400	
26.420	-0.196	0.455	
26.425	1.312	0.439	
26.430	0.276	0.475	
26.435	-0.579	0.464	
26.440	0.466	0.354	
26.445	0.641	0.281	
26.450	-0.581	0.246	
26.455	-0.100	0.156	
26.460	1.135	0.099	
26.465	-0.258	0.140	
26.470	-0.347	0.148	
26.475	1.171	0.134	
26.480	0.374	0.212	
26.485	-0.448	0.279	
26.490	0.858	0.276	
26.495	1.130	0.334	
26.500	-0.349	0.429	
26.505	0.267	0.429	
26.510	1.508	0.428	
26.515	-0.068	0.496	
26.520	-0.196	0.493	
26.525	1.436	0.445	
26.530	0.623	0.492	
26.535	-0.346	0.532	
26.540	1.069	0.499	
26.545	1.369	0.537	
26.550	-0.219	0.622	
26.555	0.544	0.617	
26.560	1.790	0.623	
26.565	0.208	0.711	
26.570	0.001	0.725	
26.575	1.769	0.689	
26.580	0.981	0.753	
26.585	-0.173	0.810	
26.590	1.312	0.778	
26.595	1.563	0.804	
26.600	-0.142	0.866	
26.605	0.579	0.823	
26.610	1.755	0.778	
26.615	0.088	0.804	
26.620	-0.161	0.751	
26.625	1.416	0.641	
26.630	0.568	0.618	
26.635	-0.411	0.591	
26.640	0.822	0.495	
26.645	1.084	0.463	
26.650	-0.388	0.482	
26.655	0.091	0.421	
26.660	1.312	0.364	
26.665	-0.170	0.387	
26.670	-0.326	0.356	
26.675	1.141	0.290	
26.680	0.368	0.311	
26.685	-0.472	0.329	
26.690	0.741	0.285	
26.695	1.046	0.305	
26.700	-0.390	0.372	
26.705	0.108	0.353	
26.710	1.353	0.333	
26.715	-0.133	0.386	
26.720	-0.283	0.377	
26.725	1.239	0.329	
26.730	0.470	0.367	
26.735	-0.425	0.399	
26.740	0.822	0.361	
26.745	1.153	0.386	
26.750	-0.324	0.456	
26.755	0.227	0.440	
26.760	1.477	0.425	
26.765	-0.060	0.483	
26.770	-0.231	0.475	
26.775	1.359	0.422	
26.780	0.626	0.461	
26.785	-0.368	0.499	
26.790	0.901	0.462	
26.795	1.188	0.480	
26.800	-0.347	0.535	
26.805	0.127	0.492	
26.810	1.378	0.439	
26.815	-0.121	0.460	
26.820	-0.306	0.423	
26.825	1.187	0.348	
26.830	0.453	0.363	
26.835	-0.449	0.380	
26.840	0.719	0.330	
26.845	1.077	0.340	
26.850	-0.378	0.398	
26.855	0.058	0.370	
26.860	1.327	0.337	
26.865	-0.092	0.380	
26.870	-0.217	0.373	
26.875	1.502	0.346	
26.880	0.805	0.435	
26.885	-0.320	0.527	
26.890	0.875	0.523	
26.895	1.010	0.537	
26.900	-0.515	0.555	
26.905	-0.234	0.449	
26.910	0.776	0.305	
26.915	-0.410	0.220	
26.920	-0.569	0.109	
26.925	0.706	-0.005	
26.930	0.018	-0.020	
26.935	-0.659	-0.020	
26.940	0.279	-0.063	
26.945	0.660	-0.047	
26.950	-0.570	0.017	
26.955	-0.205	0.014	
26.960	0.933	0.007	
26.965	-0.332	0.064	
26.970	-0.511	0.069	
26.975	0.797	0.033	
26.980	0.099	0.064	
26.985	-0.631	0.084	
26.990	0.316	0.039	
26.995	0.713	0.043	
27.000	-0.544	0.092	
27.005	-0.181	0.074	
27.010	0.994	0.055	
27.015	-0.277	0.106	
27.020	-0.459	0.111	
27.025	0.921	0.080	
27.030	0.253	0.126	
27.035	-0.549	0.166	
27.040	0.515	0.139	
27.045	0.935	0.166	
27.050	-0.451	0.238	
27.055	-0.121	0.225	
27.060	1.054	0.194	
27.065	-0.274	0.222	
27.070	-0.515	0.194	
27.075	0.699	0.117	
27.080	-0.034	0.097	
27.085	-0.758	0.063	
27.090	-0.022	-0.038	
27.095	0.301	-0.103	
27.100	-0.782	-0.126	
27.105	-0.500	-0.195	
27.110	0.292	-0.262	
27.115	-0.648	-0.273	
27.120	-0.866	-0.314	
27.125	0.001	-0.386	
27.130	-0.364	-0.407	
27.135	-0.993	-0.421	
27.140	-0.287	-0.472	
27.145	-0.084	-0.487	
27.150	-0.955	-0.469	
27.155	-0.651	-0.496	
27.160	0.046	-0.519	
27.165	-0.746	-0.496	
27.170	-0.948	-0.503	
27.175	-0.101	-0.540	
27.180	-0.431	-0.532	
27.185	-0.996	-0.520	
27.190	-0.371	-0.547	
27.195	-0.142	-0.546	
27.200	-0.990	-0.521	
27.205	-0.706	-0.543	
27.210	-0.023	-0.566	
27.215	-0.790	-0.543	
27.220	-0.993	-0.552	
27.225	-0.164	-0.590	
27.230	-0.460	-0.582	
27.235	-0.993	-0.567	
27.240	-0.373	-0.584	
27.245	-0.132	-0.572	
27.250	-0.983	-0.535	
27.255	-0.717	-0.548	
27.260	-0.063	-0.567	
27.265	-0.839	-0.550	
27.270	-0.993	-0.566	
27.275	-0.289	-0.613	
27.280	-0.595	-0.623	
27.285	-0.995	-0.627	
27.290	-0.567	-0.659	
27.295	-0.342	-0.667	
27.300	-0.995	-0.651	
27.305	-0.893	-0.672	
27.310	-0.255	-0.699	
27.315	-0.958	-0.692	
27.320	-0.995	-0.707	
27.325	-0.355	-0.736	
27.330	-0.622	-0.722	
27.335	-0.995	-0.701	
27.340	-0.515	-0.706	
27.345	-0.168	-0.679	
27.350	-0.969	-0.625	
27.355	-0.720	-0.613	
27.360	-0.069	-0.608	
27.365	-0.882	-0.574	
27.370	-0.995	-0.582	
27.375	-0.453	-0.632	
27.380	-0.750	-0.662	
27.385	-0.995	-0.690	
27.390	-0.715	-0.737	
27.395	-0.425	-0.755	
27.400	-0.995	-0.743	
27.405	-0.921	-0.753	
27.410	-0.239	-0.762	
27.415	-0.917	-0.732	
27.420	-0.993	-0.724	
27.425	-0.306	-0.734	
27.430	-0.555	-0.703	
27.435	-0.992	-0.670	
27.440	-0.509	-0.670	
27.445	-0.242	-0.650	
27.450	-0.993	-0.612	
27.455	-0.822	-0.621	
27.460	-0.113	-0.638	
27.465	-0.793	-0.613	
27.470	-0.993	-0.612	
27.475	-0.122	-0.633	
27.480	-0.379	-0.601	
27.485	-0.995	-0.561	
27.490	-0.303	-0.561	
27.495	0.143	-0.524	
27.500	-0.833	-0.449	
27.505	-0.559	-0.425	
27.510	0.450	-0.404	
27.515	-0.543	-0.329	
27.520	-0.793	-0.297	
27.525	0.290	-0.311	
27.530	-0.187	-0.279	
27.535	-0.899	-0.257	
27.540	-0.208	-0.300	
27.545	0.241	-0.315	
27.550	-0.831	-0.290	
27.555	-0.607	-0.318	
27.560	0.295	-0.354	
27.565	-0.659	-0.337	
27.570	-0.954	-0.358	
27.575	-0.090	-0.425	
27.580	-0.393	-0.450	
27.585	-0.993	-0.465	
27.590	-0.413	-0.516	
27.595	-0.084	-0.533	
27.600	-0.978	-0.515	
27.605	-0.738	-0.540	
27.610	0.076	-0.562	
27.615	-0.721	-0.529	
27.620	-0.975	-0.524	
27.625	-0.072	-0.551	
27.630	-0.347	-0.530	
27.635	-0.993	-0.503	
27.640	-0.330	-0.520	
27.645	0.108	-0.504	
27.650	-0.865	-0.448	
27.655	-0.624	-0.441	
27.660	0.371	-0.437	
27.665	-0.567	-0.375	
27.670	-0.844	-0.349	
27.675	0.270	-0.364	
27.680	-0.147	-0.325	
27.685	-0.866	-0.286	
27.690	-0.144	-0.308	
27.695	0.467	-0.294	
27.700	-0.708	-0.229	
27.705	-0.454	-0.219	
27.710	0.750	-0.214	
27.715	-0.385	-0.141	
27.720	-0.685	-0.112	
27.725	0.557	-0.132	
27.730	0.084	-0.094	
27.735	-0.776	-0.060	
27.740	-0.026	-0.102	
27.745	0.589	-0.114	
27.750	-0.669	-0.077	
27.755	-0.433	-0.099	
27.760	0.745	-0.128	
27.765	-0.396	-0.088	
27.770	-0.686	-0.086	
27.775	0.576	-0.124	
27.780	0.165	-0.091	
27.785	-0.714	-0.049	
27.790	0.172	-0.070	
27.795	0.860	-0.044	
27.800	-0.520	0.040	
27.805	-0.226	0.055	
27.810	1.314	0.068	
27.815	0.041	0.175	
27.820	-0.384	0.241	
27.825	1.150	0.249	
27.830	0.638	0.325	
27.835	-0.596	0.387	
27.840	0.220	0.330	
27.845	0.793	0.271	
27.850	-0.584	0.248	
27.855	-0.347	0.158	
27.860	1.017	0.072	
27.865	-0.207	0.085	
27.870	-0.514	0.080	
27.875	0.970	0.050	
27.880	0.594	0.120	
27.885	-0.517	0.208	
27.890	0.559	0.218	
27.895	1.271	0.269	
27.900	-0.333	0.372	
27.905	-0.035	0.381	
27.910	1.472	0.364	
27.915	0.142	0.429	
27.920	-0.333	0.448	
27.925	1.321	0.411	
27.930	0.942	0.467	
27.935	-0.349	0.540	
27.940	0.872	0.528	
27.945	1.586	0.562	
27.950	-0.161	0.654	
27.955	0.263	0.649	
27.960	1.802	0.627	
27.965	0.492	0.701	
27.970	-0.142	0.731	
27.975	1.662	0.696	
27.980	1.324	0.759	
27.985	-0.156	0.841	
27.990	1.185	0.828	
27.995	1.873	0.857	
28.000	0.038	0.942	
28.005	0.411	0.919	
28.010	1.887	0.865	
28.015	0.516	0.896	
28.020	-0.174	0.872	
28.025	1.517	0.777	
28.030	1.071	0.768	
28.035	-0.333	0.776	
28.040	0.817	0.692	
28.045	1.463	0.651	
28.050	-0.255	0.672	
28.055	-0.016	0.601	
28.060	1.466	0.510	
28.065	0.110	0.511	
28.070	-0.382	0.477	
28.075	1.176	0.396	
28.080	0.846	0.413	
28.085	-0.410	0.459	
28.090	0.695	0.430	
28.095	1.422	0.447	
28.100	-0.243	0.525	
28.105	0.033	0.511	
28.110	1.567	0.474	
28.115	0.247	0.526	
28.120	-0.313	0.535	
28.125	1.303	0.483	
28.130	0.961	0.519	
28.135	-0.355	0.573	
28.140	0.791	0.542	
28.145	1.544	0.554	
28.150	-0.170	0.629	
28.155	0.130	0.612	
28.160	1.660	0.571	
28.165	0.365	0.621	
28.170	-0.245	0.631	
28.175	1.434	0.579	
28.180	1.126	0.620	
28.185	-0.281	0.683	
28.190	0.892	0.655	
28.195	1.624	0.664	
28.200	-0.155	0.730	
28.205	0.076	0.692	
28.210	1.573	0.618	
28.215	0.259	0.628	
28.220	-0.313	0.599	
28.225	1.268	0.516	
28.230	0.953	0.526	
28.235	-0.371	0.564	
28.240	0.681	0.519	
28.245	1.456	0.514	
28.250	-0.214	0.573	
28.255	0.038	0.545	
28.260	1.615	0.499	
28.265	0.345	0.551	
28.270	-0.257	0.569	
28.275	1.466	0.533	
28.280	1.303	0.600	
28.285	-0.139	0.704	
28.290	1.098	0.723	
28.295	1.883	0.781	
28.300	0.026	0.891	
28.305	0.169	0.878	
28.310	1.537	0.797	
28.315	0.172	0.768	
28.320	-0.379	0.681	
28.325	1.139	0.538	
28.330	0.906	0.498	
28.335	-0.379	0.505	
28.340	0.667	0.453	
28.345	1.491	0.457	
28.350	-0.193	0.533	
28.355	0.017	0.525	
28.360	1.589	0.489	
28.365	0.347	0.545	
28.370	-0.283	0.564	
28.375	1.317	0.520	
28.380	1.063	0.560	
28.385	-0.313	0.620	
28.390	0.782	0.592	
28.395	1.616	0.601	
28.400	-0.109	0.675	
28.405	0.148	0.658	
28.410	1.735	0.617	
28.415	0.513	0.673	
28.420	-0.202	0.695	
28.425	1.476	0.651	
28.430	1.271	0.694	
28.435	-0.205	0.763	
28.440	0.970	0.741	
28.445	1.825	0.757	
28.450	0.056	0.842	
28.455	0.311	0.831	
28.460	1.888	0.791	
28.465	0.651	0.844	
28.470	-0.158	0.854	
28.475	1.511	0.787	
28.480	1.256	0.798	
28.485	-0.252	0.831	
28.490	0.776	0.764	
28.495	1.573	0.722	
28.500	-0.164	0.742	
28.505	-0.058	0.670	
28.510	1.436	0.564	
28.515	0.177	0.546	
28.520	-0.407	0.500	
28.525	1.007	0.402	
28.530	0.768	0.389	
28.535	-0.475	0.407	
28.540	0.337	0.347	
28.545	1.181	0.318	
28.550	-0.336	0.353	
28.555	-0.222	0.319	
28.560	1.199	0.263	
28.565	-0.017	0.286	
28.570	-0.501	0.275	
28.575	0.829	0.210	
28.580	0.643	0.223	
28.585	-0.527	0.261	
28.590	0.252	0.224	
28.595	1.126	0.216	
28.600	-0.356	0.271	
28.605	-0.251	0.255	
28.610	1.178	0.215	
28.615	-0.005	0.253	
28.620	-0.485	0.256	
28.625	0.907	0.207	
28.630	0.754	0.241	
28.635	-0.477	0.303	
28.640	0.342	0.284	
28.645	1.257	0.290	
28.650	-0.292	0.357	
28.655	-0.187	0.347	
28.660	1.329	0.309	
28.665	0.137	0.353	
28.670	-0.434	0.364	
28.675	0.930	0.311	
28.680	0.722	0.327	
28.685	-0.517	0.360	
28.690	0.218	0.306	
28.695	1.078	0.269	
28.700	-0.391	0.292	
28.705	-0.309	0.249	
28.710	1.066	0.185	
28.715	-0.064	0.200	
28.720	-0.532	0.189	
28.725	0.773	0.133	
28.730	0.618	0.156	
28.735	-0.544	0.206	
28.740	0.194	0.180	
28.745	1.165	0.180	
28.750	-0.283	0.251	
28.755	-0.138	0.260	
28.760	1.553	0.263	
28.765	0.458	0.374	
28.770	-0.317	0.459	
28.775	1.109	0.459	
28.780	0.774	0.498	
28.785	-0.587	0.520	
28.790	-0.060	0.414	
28.795	0.794	0.290	
28.800	-0.494	0.223	
28.805	-0.393	0.122	
28.810	0.991	0.036	
28.815	-0.074	0.057	
28.820	-0.550	0.071	
28.825	0.739	0.044	
28.830	0.692	0.098	
28.835	-0.511	0.180	
28.840	0.206	0.182	
28.845	1.161	0.198	
28.850	-0.317	0.272	
28.855	-0.251	0.270	
28.860	1.185	0.237	
28.865	0.061	0.277	
28.870	-0.489	0.284	
28.875	0.867	0.232	
28.880	0.805	0.259	
28.885	-0.457	0.317	
28.890	0.328	0.297	
28.895	1.310	0.303	
28.900	-0.243	0.374	
28.905	-0.164	0.371	
28.910	1.416	0.340	
28.915	0.357	0.401	
28.920	-0.341	0.440	
28.925	1.171	0.417	
28.930	1.135	0.473	
28.935	-0.306	0.558	
28.940	0.571	0.548	
28.945	1.517	0.550	
28.950	-0.147	0.609	
28.955	-0.129	0.576	
28.960	1.399	0.500	
28.965	0.249	0.504	
28.970	-0.446	0.481	
28.975	0.826	0.389	
28.980	0.719	0.360	
28.985	-0.532	0.360	
28.990	0.038	0.279	
28.995	0.971	0.212	
29.000	-0.426	0.211	
29.005	-0.411	0.158	
29.010	0.857	0.085	
29.015	-0.150	0.087	
29.020	-0.660	0.066	
29.025	0.441	-0.003	
29.030	0.405	-0.008	
29.035	-0.672	0.018	
29.040	-0.132	-0.022	
29.045	0.783	-0.045	
29.050	-0.497	-0.004	
29.055	-0.486	-0.016	
29.060	0.753	-0.052	
29.065	-0.188	-0.021	
29.070	-0.711	-0.018	
29.075	0.322	-0.072	
29.080	0.319	-0.074	
29.085	-0.686	-0.049	
29.090	-0.129	-0.082	
29.095	0.834	-0.088	
29.100	-0.463	-0.025	
29.105	-0.443	-0.014	
29.110	0.870	-0.028	
29.115	-0.095	0.025	
29.120	-0.614	0.050	
29.125	0.560	0.018	
29.130	0.576	0.049	
29.135	-0.607	0.106	
