Vernier Format 2
ecg4.txt 10/18/2025 9:56:28
Run 1
Time	Potential	EKG	
T	P	E	
s	mV	mV	

0.000	-0.040	-0.002	
0.005	0.608	0.022	
0.010	-0.553	0.058	
0.015	-0.408	0.024	
0.020	0.718	-0.028	
0.025	-0.275	-0.013	
0.030	-0.619	-0.025	
0.035	0.505	-0.072	
0.040	0.194	-0.055	
0.045	-0.654	-0.026	
0.050	-0.026	-0.059	
0.055	0.608	-0.069	
0.060	-0.546	-0.032	
0.065	-0.378	-0.047	
0.070	0.753	-0.071	
0.075	-0.283	-0.031	
0.080	-0.648	-0.027	
0.085	0.372	-0.075	
0.090	0.020	-0.080	
0.095	-0.735	-0.082	
0.100	-0.127	-0.141	
0.105	0.434	-0.170	
0.110	-0.622	-0.147	
0.115	-0.448	-0.167	
0.120	0.626	-0.187	
0.125	-0.303	-0.139	
0.130	-0.601	-0.117	
0.135	0.647	-0.124	
0.140	0.466	-0.051	
0.145	-0.430	0.047	
0.150	0.522	0.093	
0.155	1.026	0.174	
0.160	-0.425	0.281	
0.165	-0.358	0.273	
0.170	0.567	0.193	
0.175	-0.423	0.134	
0.180	-0.729	0.033	
0.185	0.330	-0.094	
0.190	0.064	-0.139	
0.195	-0.657	-0.145	
0.200	0.094	-0.174	
0.205	0.758	-0.143	
0.210	-0.453	-0.048	
0.215	-0.236	-0.010	
0.220	1.036	0.015	
0.225	-0.136	0.104	
0.230	-0.459	0.142	
0.235	0.906	0.128	
0.240	0.570	0.186	
0.245	-0.453	0.254	
0.250	0.524	0.249	
0.255	1.179	0.282	
0.260	-0.281	0.367	
0.265	-0.054	0.367	
0.270	1.375	0.344	
0.275	0.171	0.402	
0.280	-0.263	0.423	
0.285	1.310	0.400	
0.290	0.952	0.467	
0.295	-0.280	0.549	
0.300	0.829	0.545	
0.305	1.414	0.571	
0.310	-0.196	0.638	
0.315	0.039	0.602	
0.320	1.398	0.533	
0.325	0.055	0.533	
0.330	-0.375	0.488	
0.335	0.955	0.387	
0.340	0.460	0.358	
0.345	-0.555	0.339	
0.350	0.218	0.247	
0.355	0.747	0.185	
0.360	-0.512	0.176	
0.365	-0.312	0.112	
0.370	0.852	0.046	
0.375	-0.237	0.059	
0.380	-0.537	0.047	
0.385	0.699	0.004	
0.390	0.293	0.036	
0.395	-0.584	0.077	
0.400	0.232	0.053	
0.405	0.811	0.064	
0.410	-0.475	0.121	
0.415	-0.255	0.108	
0.420	0.965	0.081	
0.425	-0.210	0.120	
0.430	-0.520	0.119	
0.435	0.725	0.072	
0.440	0.233	0.089	
0.445	-0.648	0.106	
0.450	0.059	0.049	
0.455	0.579	0.014	
0.460	-0.598	0.023	
0.465	-0.391	-0.024	
0.470	0.678	-0.075	
0.475	-0.353	-0.058	
0.480	-0.642	-0.070	
0.485	0.489	-0.116	
0.490	0.055	-0.099	
0.495	-0.683	-0.076	
0.500	0.110	-0.107	
0.505	0.805	-0.086	
0.510	-0.376	0.002	
0.515	-0.005	0.047	
0.520	1.361	0.105	
0.525	-0.052	0.238	
0.530	-0.504	0.294	
0.535	0.435	0.238	
0.540	-0.176	0.176	
0.545	-0.897	0.075	
0.550	-0.236	-0.090	
0.555	0.217	-0.208	
0.560	-0.703	-0.251	
0.565	-0.426	-0.300	
0.570	0.667	-0.310	
0.575	-0.353	-0.232	
0.580	-0.608	-0.181	
0.585	0.614	-0.166	
0.590	0.142	-0.093	
0.595	-0.650	-0.029	
0.600	0.159	-0.038	
0.605	0.716	-0.018	
0.610	-0.521	0.045	
0.615	-0.260	0.040	
0.620	0.942	0.026	
0.625	-0.236	0.078	
0.630	-0.486	0.089	
0.635	0.915	0.064	
0.640	0.486	0.125	
0.645	-0.474	0.196	
0.650	0.574	0.201	
0.655	1.124	0.249	
0.660	-0.318	0.342	
0.665	0.010	0.348	
0.670	1.376	0.336	
0.675	0.003	0.396	
0.680	-0.341	0.400	
0.685	1.011	0.344	
0.690	0.368	0.347	
0.695	-0.585	0.338	
0.700	0.185	0.243	
0.705	0.573	0.168	
0.710	-0.631	0.132	
0.715	-0.396	0.040	
0.720	0.563	-0.052	
0.725	-0.451	-0.075	
0.730	-0.703	-0.121	
0.735	0.368	-0.189	
0.740	-0.106	-0.192	
0.745	-0.776	-0.186	
0.750	-0.063	-0.228	
0.755	0.363	-0.232	
0.760	-0.685	-0.192	
0.765	-0.404	-0.202	
0.770	0.626	-0.209	
0.775	-0.407	-0.154	
0.780	-0.625	-0.136	
0.785	0.545	-0.153	
0.790	0.036	-0.110	
0.795	-0.683	-0.072	
0.800	0.079	-0.097	
0.805	0.492	-0.094	
0.810	-0.648	-0.055	
0.815	-0.401	-0.082	
0.820	0.568	-0.120	
0.825	-0.462	-0.105	
0.830	-0.686	-0.126	
0.835	0.415	-0.178	
0.840	-0.089	-0.169	
0.845	-0.749	-0.156	
0.850	0.003	-0.195	
0.855	0.453	-0.191	
0.860	-0.645	-0.142	
0.865	-0.338	-0.145	
0.870	0.860	-0.142	
0.875	-0.216	-0.060	
0.880	-0.364	-0.006	
0.885	1.077	0.028	
0.890	0.353	0.138	
0.895	-0.639	0.220	
0.900	-0.022	0.176	
0.905	0.198	0.099	
0.910	-0.808	0.023	
0.915	-0.521	-0.108	
0.920	0.409	-0.219	
0.925	-0.472	-0.241	
0.930	-0.617	-0.261	
0.935	0.661	-0.271	
0.940	0.127	-0.187	
0.945	-0.614	-0.098	
0.950	0.311	-0.072	
0.955	0.724	-0.013	
0.960	-0.533	0.076	
0.965	-0.219	0.079	
0.970	0.964	0.066	
0.975	-0.254	0.114	
0.980	-0.437	0.118	
0.985	0.964	0.090	
0.990	0.369	0.146	
0.995	-0.488	0.202	
1.000	0.628	0.194	
1.005	1.061	0.238	
1.010	-0.347	0.327	
1.015	0.084	0.331	
1.020	1.413	0.329	
1.025	0.026	0.403	
1.030	-0.222	0.422	
1.035	1.399	0.399	
1.040	0.777	0.468	
1.045	-0.321	0.538	
1.050	0.854	0.518	
1.055	1.146	0.530	
1.060	-0.368	0.566	
1.065	-0.066	0.495	
1.070	1.086	0.396	
1.075	-0.260	0.359	
1.080	-0.494	0.278	
1.085	0.761	0.165	
1.090	0.072	0.129	
1.095	-0.668	0.099	
1.100	0.162	0.015	
1.105	0.481	-0.023	
1.110	-0.653	-0.016	
1.115	-0.332	-0.062	
1.120	0.683	-0.103	
1.125	-0.410	-0.075	
1.130	-0.579	-0.081	
1.135	0.664	-0.110	
1.140	0.050	-0.068	
1.145	-0.631	-0.028	
1.150	0.302	-0.045	
1.155	0.693	-0.015	
1.160	-0.540	0.056	
1.165	-0.216	0.053	
1.170	0.881	0.037	
1.175	-0.352	0.078	
1.180	-0.559	0.066	
1.185	0.638	0.009	
1.190	-0.043	0.011	
1.195	-0.714	0.002	
1.200	0.110	-0.065	
1.205	0.443	-0.089	
1.210	-0.650	-0.068	
1.215	-0.318	-0.099	
1.220	0.698	-0.124	
1.225	-0.417	-0.082	
1.230	-0.581	-0.080	
1.235	0.690	-0.105	
1.240	0.165	-0.053	
1.245	-0.506	0.005	
1.250	0.672	0.025	
1.255	0.950	0.113	
1.260	-0.501	0.231	
1.265	-0.252	0.232	
1.270	0.618	0.172	
1.275	-0.526	0.132	
1.280	-0.717	0.035	
1.285	0.372	-0.093	
1.290	-0.150	-0.144	
1.295	-0.712	-0.172	
1.300	0.230	-0.216	
1.305	0.606	-0.182	
1.310	-0.559	-0.090	
1.315	-0.179	-0.061	
1.320	0.985	-0.032	
1.325	-0.271	0.058	
1.330	-0.428	0.093	
1.335	0.959	0.085	
1.340	0.275	0.147	
1.345	-0.524	0.195	
1.350	0.544	0.173	
1.355	0.854	0.195	
1.360	-0.459	0.253	
1.365	-0.051	0.229	
1.370	1.187	0.204	
1.375	-0.165	0.254	
1.380	-0.317	0.256	
1.385	1.234	0.230	
1.390	0.579	0.301	
1.395	-0.350	0.374	
1.400	0.919	0.378	
1.405	1.196	0.434	
1.410	-0.317	0.520	
1.415	0.157	0.499	
1.420	1.329	0.458	
1.425	-0.144	0.477	
1.430	-0.346	0.430	
1.435	1.032	0.337	
1.440	0.221	0.318	
1.445	-0.579	0.292	
1.450	0.353	0.198	
1.455	0.576	0.148	
1.460	-0.613	0.137	
1.465	-0.269	0.064	
1.470	0.731	-0.003	
1.475	-0.411	0.000	
1.480	-0.549	-0.027	
1.485	0.695	-0.073	
1.490	-0.011	-0.044	
1.495	-0.640	-0.020	
1.500	0.318	-0.050	
1.505	0.600	-0.028	
1.510	-0.564	0.032	
1.515	-0.162	0.024	
1.520	0.944	0.018	
1.525	-0.310	0.077	
1.530	-0.446	0.086	
1.535	0.858	0.059	
1.540	0.097	0.098	
1.545	-0.601	0.120	
1.550	0.351	0.074	
1.555	0.547	0.067	
1.560	-0.616	0.090	
1.565	-0.246	0.042	
1.570	0.736	-0.007	
1.575	-0.413	0.008	
1.580	-0.524	-0.015	
1.585	0.727	-0.057	
1.590	0.009	-0.024	
1.595	-0.602	0.003	
1.600	0.438	-0.019	
1.605	0.704	0.019	
1.610	-0.463	0.098	
1.615	0.143	0.115	
1.620	1.402	0.159	
1.625	-0.092	0.283	
1.630	-0.284	0.335	
1.635	1.026	0.315	
1.640	0.024	0.330	
1.645	-0.688	0.295	
1.650	0.122	0.166	
1.655	0.318	0.066	
1.660	-0.660	0.009	
1.665	-0.210	-0.076	
1.670	0.872	-0.114	
1.675	-0.326	-0.056	
1.680	-0.411	-0.025	
1.685	0.938	-0.016	
1.690	0.159	0.067	
1.695	-0.521	0.129	
1.700	0.608	0.123	
1.705	0.790	0.166	
1.710	-0.459	0.236	
1.715	0.009	0.221	
1.720	1.103	0.204	
1.725	-0.229	0.249	
1.730	-0.320	0.241	
1.735	1.121	0.204	
1.740	0.369	0.253	
1.745	-0.382	0.299	
1.750	0.927	0.291	
1.755	1.152	0.355	
1.760	-0.258	0.457	
1.765	0.444	0.473	
1.770	1.541	0.494	
1.775	0.015	0.576	
1.780	-0.130	0.577	
1.785	1.408	0.525	
1.790	0.539	0.551	
1.795	-0.352	0.560	
1.800	0.863	0.494	
1.805	0.936	0.477	
1.810	-0.423	0.487	
1.815	0.044	0.408	
1.820	1.057	0.328	
1.825	-0.292	0.313	
1.830	-0.393	0.252	
1.835	0.893	0.167	
1.840	0.052	0.161	
1.845	-0.558	0.149	
1.850	0.505	0.089	
1.855	0.611	0.093	
1.860	-0.546	0.132	
1.865	-0.104	0.100	
1.870	0.898	0.072	
1.875	-0.344	0.108	
1.880	-0.414	0.096	
1.885	0.909	0.060	
1.890	0.075	0.100	
1.895	-0.535	0.125	
1.900	0.557	0.094	
1.905	0.660	0.119	
1.910	-0.529	0.171	
1.915	-0.095	0.143	
1.920	0.831	0.107	
1.925	-0.423	0.123	
1.930	-0.512	0.084	
1.935	0.670	0.013	
1.940	-0.138	0.008	
1.945	-0.680	-0.009	
1.950	0.250	-0.074	
1.955	0.348	-0.084	
1.960	-0.676	-0.061	
1.965	-0.239	-0.096	
1.970	0.664	-0.118	
1.975	-0.453	-0.077	
1.980	-0.472	-0.076	
1.985	0.962	-0.082	
1.990	0.285	0.011	
1.995	-0.399	0.107	
2.000	0.777	0.146	
2.005	0.695	0.224	
2.010	-0.656	0.291	
2.015	-0.358	0.225	
2.020	0.232	0.099	
2.025	-0.697	-0.009	
2.030	-0.714	-0.147	
2.035	0.357	-0.269	
2.040	-0.257	-0.291	
2.045	-0.726	-0.289	
2.050	0.240	-0.303	
2.055	0.345	-0.249	
2.060	-0.665	-0.164	
2.065	-0.208	-0.147	
2.070	0.695	-0.130	
2.075	-0.454	-0.063	
2.080	-0.485	-0.051	
2.085	0.782	-0.066	
2.090	-0.072	-0.014	
2.095	-0.602	0.016	
2.100	0.484	-0.009	
2.105	0.570	0.023	
2.110	-0.546	0.085	
2.115	-0.028	0.074	
2.120	1.031	0.075	
2.125	-0.271	0.143	
2.130	-0.283	0.159	
2.135	1.219	0.156	
2.140	0.342	0.240	
2.145	-0.382	0.308	
2.150	0.907	0.307	
2.155	0.907	0.357	
2.160	-0.434	0.422	
2.165	0.105	0.382	
2.170	1.026	0.329	
2.175	-0.356	0.326	
2.180	-0.442	0.258	
2.185	0.724	0.153	
2.190	-0.164	0.112	
2.195	-0.702	0.057	
2.200	0.209	-0.043	
2.205	0.206	-0.088	
2.210	-0.769	-0.101	
2.215	-0.317	-0.164	
2.220	0.431	-0.210	
2.225	-0.611	-0.197	
2.230	-0.639	-0.220	
2.235	0.449	-0.257	
2.240	-0.280	-0.229	
2.245	-0.758	-0.213	
2.250	0.168	-0.241	
2.255	0.208	-0.220	
2.260	-0.727	-0.176	
2.265	-0.251	-0.191	
2.270	0.567	-0.194	
2.275	-0.546	-0.144	
2.280	-0.556	-0.142	
2.285	0.606	-0.164	
2.290	-0.225	-0.125	
2.295	-0.735	-0.109	
2.300	0.149	-0.152	
2.305	0.093	-0.161	
2.310	-0.810	-0.158	
2.315	-0.368	-0.215	
2.320	0.256	-0.262	
2.325	-0.715	-0.264	
2.330	-0.723	-0.303	
2.335	0.269	-0.354	
2.340	-0.359	-0.339	
2.345	-0.799	-0.326	
2.350	0.124	-0.345	
2.355	0.208	-0.306	
2.360	-0.654	-0.236	
2.365	-0.016	-0.209	
2.370	1.005	-0.143	
2.375	-0.379	-0.009	
2.380	-0.469	0.048	
2.385	0.444	0.027	
2.390	-0.445	0.010	
2.395	-0.966	-0.065	
2.400	-0.226	-0.210	
2.405	-0.203	-0.317	
2.410	-0.912	-0.383	
2.415	-0.387	-0.456	
2.420	0.321	-0.471	
2.425	-0.639	-0.409	
2.430	-0.599	-0.375	
2.435	0.527	-0.349	
2.440	-0.257	-0.263	
2.445	-0.700	-0.204	
2.450	0.290	-0.200	
2.455	0.279	-0.154	
2.460	-0.665	-0.095	
2.465	-0.130	-0.102	
2.470	0.762	-0.095	
2.475	-0.446	-0.030	
2.480	-0.408	-0.017	
2.485	0.939	-0.023	
2.490	0.029	0.048	
2.495	-0.482	0.098	
2.500	0.806	0.098	
2.505	0.788	0.169	
2.510	-0.460	0.261	
2.515	0.209	0.262	
2.520	1.104	0.263	
2.525	-0.304	0.312	
2.530	-0.287	0.289	
2.535	1.118	0.235	
2.540	0.130	0.261	
2.545	-0.460	0.268	
2.550	0.802	0.222	
2.555	0.750	0.246	
2.560	-0.471	0.297	
2.565	0.180	0.267	
2.570	1.063	0.246	
2.575	-0.361	0.281	
2.580	-0.368	0.245	
2.585	0.918	0.173	
2.590	-0.090	0.170	
2.595	-0.576	0.144	
2.600	0.562	0.074	
2.605	0.492	0.073	
2.610	-0.590	0.104	
2.615	-0.013	0.067	
2.620	0.883	0.049	
2.625	-0.408	0.093	
2.630	-0.353	0.085	
2.635	0.997	0.059	
2.640	-0.025	0.110	
2.645	-0.540	0.134	
2.650	0.672	0.101	
2.655	0.589	0.130	
2.660	-0.566	0.180	
2.665	-0.017	0.146	
2.670	0.816	0.112	
2.675	-0.460	0.128	
2.680	-0.428	0.087	
2.685	0.849	0.030	
2.690	-0.121	0.049	
2.695	-0.573	0.051	
2.700	0.625	0.013	
2.705	0.495	0.046	
2.710	-0.598	0.100	
2.715	-0.043	0.074	
2.720	0.832	0.055	
2.725	-0.423	0.090	
2.730	-0.352	0.074	
2.735	1.083	0.051	
2.740	0.208	0.123	
2.745	-0.336	0.189	
2.750	1.066	0.215	
2.755	0.843	0.309	
2.760	-0.532	0.401	
2.765	-0.087	0.358	
2.770	0.632	0.267	
2.775	-0.567	0.202	
2.780	-0.523	0.085	
2.785	0.721	-0.029	
2.790	-0.162	-0.045	
2.795	-0.584	-0.053	
2.800	0.663	-0.078	
2.805	0.597	-0.014	
2.810	-0.526	0.081	
2.815	0.151	0.099	
2.820	1.020	0.126	
2.825	-0.376	0.200	
2.830	-0.327	0.197	
2.835	1.069	0.161	
2.840	0.020	0.198	
2.845	-0.495	0.208	
2.850	0.813	0.167	
2.855	0.707	0.201	
2.860	-0.486	0.261	
2.865	0.258	0.242	
2.870	1.162	0.243	
2.875	-0.265	0.305	
2.880	-0.173	0.301	
2.885	1.379	0.279	
2.890	0.324	0.351	
2.895	-0.341	0.399	
2.900	1.104	0.384	
2.905	0.970	0.436	
2.910	-0.382	0.504	
2.915	0.405	0.473	
2.920	1.214	0.446	
2.925	-0.300	0.467	
2.930	-0.266	0.408	
2.935	1.078	0.314	
2.940	-0.066	0.295	
2.945	-0.564	0.248	
2.950	0.600	0.152	
2.955	0.431	0.126	
2.960	-0.633	0.128	
2.965	-0.086	0.063	
2.970	0.696	0.014	
2.975	-0.529	0.024	
2.980	-0.453	-0.014	
2.985	0.800	-0.059	
2.990	-0.188	-0.026	
2.995	-0.624	-0.014	
3.000	0.547	-0.047	
3.005	0.423	-0.013	
3.010	-0.610	0.042	
3.015	0.029	0.026	
3.020	0.874	0.028	
3.025	-0.442	0.085	
3.030	-0.373	0.080	
3.035	0.912	0.050	
3.040	-0.145	0.086	
3.045	-0.584	0.090	
3.050	0.580	0.041	
3.055	0.391	0.054	
3.060	-0.645	0.084	
3.065	-0.072	0.038	
3.070	0.727	0.006	
3.075	-0.515	0.029	
3.080	-0.439	0.000	
3.085	0.797	-0.041	
3.090	-0.199	-0.010	
3.095	-0.604	-0.002	
3.100	0.612	-0.034	
3.105	0.484	0.007	
3.110	-0.538	0.074	
3.115	0.337	0.082	
3.120	1.318	0.137	
3.125	-0.226	0.266	
3.130	-0.193	0.312	
3.135	1.100	0.299	
3.140	-0.173	0.322	
3.145	-0.692	0.277	
3.150	0.292	0.145	
3.155	0.093	0.053	
3.160	-0.727	-0.014	
3.165	-0.095	-0.111	
3.170	0.759	-0.146	
3.175	-0.463	-0.092	
3.180	-0.339	-0.072	
3.185	1.010	-0.055	
3.190	-0.063	0.038	
3.195	-0.498	0.095	
3.200	0.838	0.095	
3.205	0.696	0.164	
3.210	-0.471	0.249	
3.215	0.340	0.249	
3.220	1.155	0.266	
3.225	-0.301	0.334	
3.230	-0.181	0.323	
3.235	1.309	0.287	
3.240	0.181	0.338	
3.245	-0.347	0.361	
3.250	1.202	0.338	
3.255	1.043	0.407	
3.260	-0.291	0.504	
3.265	0.747	0.515	
3.270	1.556	0.552	
3.275	-0.083	0.643	
3.280	0.062	0.636	
3.285	1.587	0.590	
3.290	0.395	0.627	
3.295	-0.278	0.626	
3.300	1.211	0.558	
3.305	0.910	0.563	
3.310	-0.417	0.582	
3.315	0.362	0.504	
3.320	1.046	0.435	
3.325	-0.410	0.415	
3.330	-0.326	0.324	
3.335	0.962	0.215	
3.340	-0.158	0.188	
3.345	-0.578	0.143	
3.350	0.647	0.064	
3.355	0.424	0.066	
3.360	-0.601	0.096	
3.365	0.081	0.061	
3.370	0.864	0.052	
3.375	-0.453	0.101	
3.380	-0.330	0.089	
3.385	1.007	0.062	
3.390	-0.110	0.110	
3.395	-0.512	0.126	
3.400	0.786	0.094	
3.405	0.539	0.135	
3.410	-0.553	0.191	
3.415	0.169	0.165	
3.420	0.913	0.154	
3.425	-0.453	0.191	
3.430	-0.358	0.158	
3.435	0.892	0.100	
3.440	-0.211	0.109	
3.445	-0.616	0.087	
3.450	0.570	0.019	
3.455	0.302	0.021	
3.460	-0.656	0.041	
3.465	0.009	-0.002	
3.470	0.756	-0.018	
3.475	-0.520	0.024	
3.480	-0.382	0.009	
3.485	0.918	-0.016	
3.490	-0.097	0.037	
3.495	-0.401	0.071	
3.500	1.194	0.088	
3.505	0.907	0.214	
3.510	-0.431	0.355	
3.515	0.217	0.371	
3.520	0.638	0.340	
3.525	-0.677	0.300	
3.530	-0.602	0.164	
3.535	0.400	-0.002	
3.540	-0.410	-0.092	
3.545	-0.715	-0.172	
3.550	0.478	-0.243	
3.555	0.249	-0.210	
3.560	-0.653	-0.140	
3.565	0.041	-0.127	
3.570	0.768	-0.088	
3.575	-0.509	-0.003	
3.580	-0.358	0.011	
3.585	0.932	0.003	
3.590	-0.173	0.059	
3.595	-0.549	0.078	
3.600	0.754	0.049	
3.605	0.492	0.093	
3.610	-0.544	0.152	
3.615	0.296	0.139	
3.620	1.040	0.158	
3.625	-0.361	0.230	
3.630	-0.168	0.231	
3.635	1.323	0.217	
3.640	0.137	0.291	
3.645	-0.327	0.332	
3.650	1.217	0.323	
3.655	0.926	0.399	
3.660	-0.347	0.489	
3.665	0.618	0.481	
3.670	1.286	0.490	
3.675	-0.294	0.537	
3.680	-0.187	0.485	
3.685	1.087	0.389	
3.690	-0.164	0.354	
3.695	-0.579	0.280	
3.700	0.592	0.158	
3.705	0.189	0.106	
3.710	-0.717	0.072	
3.715	-0.100	-0.020	
3.720	0.464	-0.082	
3.725	-0.668	-0.090	
3.730	-0.526	-0.142	
3.735	0.444	-0.200	
3.740	-0.460	-0.196	
3.745	-0.790	-0.217	
3.750	0.188	-0.272	
3.755	-0.101	-0.273	
3.760	-0.834	-0.262	
3.765	-0.205	-0.300	
3.770	0.353	-0.304	
3.775	-0.688	-0.259	
3.780	-0.501	-0.259	
3.785	0.579	-0.263	
3.790	-0.382	-0.203	
3.795	-0.717	-0.178	
3.800	0.365	-0.200	
3.805	-0.008	-0.174	
3.810	-0.793	-0.149	
3.815	-0.193	-0.192	
3.820	0.310	-0.218	
3.825	-0.737	-0.204	
3.830	-0.567	-0.240	
3.835	0.412	-0.281	
3.840	-0.469	-0.259	
3.845	-0.786	-0.260	
3.850	0.235	-0.297	
3.855	-0.095	-0.279	
3.860	-0.808	-0.254	
3.865	-0.156	-0.281	
3.870	0.464	-0.272	
3.875	-0.575	-0.209	
3.880	-0.274	-0.184	
3.885	1.135	-0.137	
3.890	-0.152	-0.003	
3.895	-0.581	0.075	
3.900	0.347	0.055	
3.905	-0.213	0.030	
3.910	-0.989	-0.037	
3.915	-0.398	-0.182	
3.920	-0.029	-0.304	
3.925	-0.833	-0.367	
3.930	-0.581	-0.435	
3.935	0.487	-0.458	
3.940	-0.407	-0.385	
3.945	-0.689	-0.325	
3.950	0.458	-0.297	
3.955	0.079	-0.214	
3.960	-0.720	-0.139	
3.965	-0.017	-0.140	
3.970	0.611	-0.121	
3.975	-0.575	-0.060	
3.980	-0.364	-0.061	
3.985	0.831	-0.072	
3.990	-0.271	-0.017	
3.995	-0.564	0.001	
4.000	0.736	-0.021	
4.005	0.356	0.030	
4.010	-0.566	0.091	
4.015	0.379	0.085	
4.020	1.051	0.124	
4.025	-0.341	0.219	
4.030	-0.075	0.239	
4.035	1.401	0.247	
4.040	0.128	0.336	
4.045	-0.320	0.380	
4.050	1.176	0.362	
4.055	0.715	0.413	
4.060	-0.456	0.461	
4.065	0.452	0.412	
4.070	0.956	0.376	
4.075	-0.472	0.376	
4.080	-0.304	0.294	
4.085	0.849	0.188	
4.090	-0.294	0.152	
4.095	-0.614	0.090	
4.100	0.577	-0.001	
4.105	0.119	-0.015	
4.110	-0.712	-0.014	
4.115	-0.040	-0.073	
4.120	0.446	-0.105	
4.125	-0.686	-0.093	
4.130	-0.482	-0.136	
4.135	0.550	-0.182	
4.140	-0.430	-0.162	
4.145	-0.712	-0.170	
4.150	0.389	-0.210	
4.155	-0.038	-0.190	
4.160	-0.757	-0.165	
4.165	-0.054	-0.197	
4.170	0.504	-0.192	
4.175	-0.627	-0.140	
4.180	-0.410	-0.142	
4.185	0.696	-0.151	
4.190	-0.370	-0.099	
4.195	-0.668	-0.088	
4.200	0.453	-0.125	
4.205	-0.003	-0.108	
4.210	-0.764	-0.095	
4.215	-0.107	-0.147	
4.220	0.380	-0.173	
4.225	-0.706	-0.156	
4.230	-0.482	-0.189	
4.235	0.563	-0.221	
4.240	-0.431	-0.186	
4.245	-0.688	-0.180	
4.250	0.482	-0.205	
4.255	0.091	-0.163	
4.260	-0.625	-0.110	
4.265	0.383	-0.099	
4.270	0.962	-0.025	
4.275	-0.492	0.100	
4.280	-0.338	0.126	
4.285	0.608	0.090	
4.290	-0.506	0.073	
4.295	-0.818	-0.005	
4.300	0.157	-0.135	
4.305	-0.182	-0.205	
4.310	-0.824	-0.249	
4.315	-0.080	-0.313	
4.320	0.528	-0.308	
4.325	-0.604	-0.231	
4.330	-0.344	-0.198	
4.335	0.857	-0.165	
4.340	-0.274	-0.068	
4.345	-0.540	-0.018	
4.350	0.762	-0.018	
4.355	0.369	0.048	
4.360	-0.488	0.119	
4.365	0.617	0.132	
4.370	1.187	0.203	
4.375	-0.286	0.325	
4.380	0.064	0.357	
4.385	1.453	0.366	
4.390	0.145	0.447	
4.395	-0.237	0.474	
4.400	1.347	0.446	
4.405	0.897	0.505	
4.410	-0.281	0.573	
4.415	0.910	0.558	
4.420	1.399	0.583	
4.425	-0.188	0.650	
4.430	0.208	0.620	
4.435	1.486	0.570	
4.440	0.101	0.591	
4.445	-0.300	0.557	
4.450	1.126	0.466	
4.455	0.528	0.450	
4.460	-0.497	0.437	
4.465	0.411	0.347	
4.470	0.840	0.293	
4.475	-0.497	0.285	
4.480	-0.268	0.210	
4.485	0.846	0.125	
4.490	-0.306	0.112	
4.495	-0.556	0.070	
4.500	0.666	0.002	
4.505	0.168	0.011	
4.510	-0.610	0.032	
4.515	0.307	0.002	
4.520	0.808	0.024	
4.525	-0.472	0.098	
4.530	-0.207	0.100	
4.535	1.029	0.089	
4.540	-0.194	0.144	
4.545	-0.440	0.154	
4.550	0.918	0.123	
4.555	0.412	0.168	
4.560	-0.511	0.216	
4.565	0.449	0.193	
4.570	0.874	0.204	
4.575	-0.463	0.252	
4.580	-0.213	0.216	
4.585	0.950	0.162	
4.590	-0.263	0.171	
4.595	-0.515	0.140	
4.600	0.754	0.074	
4.605	0.217	0.083	
4.610	-0.599	0.100	
4.615	0.275	0.057	
4.620	0.716	0.056	
4.625	-0.512	0.101	
4.630	-0.228	0.079	
4.635	0.973	0.054	
4.640	-0.193	0.102	
4.645	-0.347	0.118	
4.650	1.298	0.123	
4.655	0.791	0.243	
4.660	-0.355	0.374	
4.665	0.652	0.403	
4.670	0.843	0.426	
4.675	-0.552	0.441	
4.680	-0.329	0.340	
4.685	0.753	0.206	
4.690	-0.304	0.143	
4.695	-0.469	0.070	
4.700	0.987	0.010	
4.705	0.476	0.070	
4.710	-0.442	0.155	
4.715	0.658	0.180	
4.720	1.120	0.251	
4.725	-0.321	0.359	
4.730	0.052	0.370	
4.735	1.344	0.359	
4.740	-0.002	0.414	
4.745	-0.269	0.414	
4.750	1.251	0.370	
4.755	0.712	0.416	
4.760	-0.330	0.470	
4.765	0.864	0.452	
4.770	1.298	0.484	
4.775	-0.217	0.560	
4.780	0.276	0.547	
4.785	1.590	0.528	
4.790	0.227	0.592	
4.795	-0.127	0.602	
4.800	1.541	0.566	
4.805	0.948	0.624	
4.810	-0.236	0.685	
4.815	1.025	0.658	
4.820	1.392	0.671	
4.825	-0.216	0.719	
4.830	0.180	0.663	
4.835	1.362	0.582	
4.840	-0.081	0.566	
4.845	-0.358	0.492	
4.850	0.994	0.374	
4.855	0.336	0.338	
4.860	-0.552	0.309	
4.865	0.351	0.219	
4.870	0.702	0.173	
4.875	-0.537	0.175	
4.880	-0.242	0.116	
4.885	0.870	0.058	
4.890	-0.303	0.074	
4.895	-0.503	0.058	
4.900	0.771	0.014	
4.905	0.185	0.046	
4.910	-0.576	0.080	
4.915	0.363	0.054	
4.920	0.748	0.072	
4.925	-0.500	0.131	
4.930	-0.173	0.116	
4.935	1.003	0.095	
4.940	-0.246	0.140	
4.945	-0.472	0.138	
4.950	0.758	0.092	
4.955	0.072	0.103	
4.960	-0.648	0.102	
4.965	0.226	0.036	
4.970	0.576	0.015	
4.975	-0.604	0.037	
4.980	-0.284	-0.001	
4.985	0.780	-0.038	
4.990	-0.358	-0.006	
4.995	-0.552	-0.012	
5.000	0.687	-0.049	
5.005	0.065	-0.017	
5.010	-0.640	0.010	
5.015	0.255	-0.022	
5.020	0.655	-0.010	
5.025	-0.501	0.047	
5.030	-0.063	0.047	
5.035	1.381	0.073	
5.040	0.059	0.200	
5.045	-0.239	0.284	
5.050	1.133	0.305	
5.055	0.159	0.361	
5.060	-0.732	0.354	
5.065	-0.093	0.221	
5.070	0.165	0.080	
5.075	-0.758	-0.028	
5.080	-0.396	-0.157	
5.085	0.652	-0.232	
5.090	-0.382	-0.203	
5.095	-0.533	-0.180	
5.100	0.759	-0.168	
5.105	0.140	-0.079	
5.110	-0.595	-0.000	
5.115	0.365	0.007	
5.120	0.745	0.050	
5.125	-0.508	0.124	
5.130	-0.159	0.118	
5.135	1.003	0.101	
5.140	-0.246	0.148	
5.145	-0.413	0.149	
5.150	1.003	0.118	
5.155	0.357	0.171	
5.160	-0.482	0.223	
5.165	0.643	0.209	
5.170	1.022	0.248	
5.175	-0.381	0.327	
5.180	0.024	0.319	
5.185	1.289	0.301	
5.190	-0.107	0.351	
5.195	-0.317	0.346	
5.200	1.170	0.300	
5.205	0.482	0.337	
5.210	-0.453	0.371	
5.215	0.643	0.329	
5.220	0.927	0.329	
5.225	-0.466	0.362	
5.230	-0.159	0.304	
5.235	0.903	0.225	
5.240	-0.350	0.204	
5.245	-0.558	0.140	
5.250	0.632	0.044	
5.255	-0.058	0.019	
5.260	-0.706	-0.006	
5.265	0.148	-0.078	
5.270	0.476	-0.096	
5.275	-0.639	-0.066	
5.280	-0.295	-0.089	
5.285	0.745	-0.107	
5.290	-0.396	-0.059	
5.295	-0.555	-0.052	
5.300	0.744	-0.074	
5.305	0.124	-0.023	
5.310	-0.567	0.026	
5.315	0.486	0.021	
5.320	0.816	0.071	
5.325	-0.471	0.159	
5.330	-0.098	0.162	
5.335	1.060	0.152	
5.340	-0.254	0.200	
5.345	-0.425	0.193	
5.350	0.924	0.146	
5.355	0.166	0.169	
5.360	-0.601	0.179	
5.365	0.368	0.121	
5.370	0.634	0.105	
5.375	-0.581	0.126	
5.380	-0.231	0.079	
5.385	0.825	0.031	
5.390	-0.376	0.049	
5.395	-0.533	0.028	
5.400	0.758	-0.019	
5.405	0.091	0.011	
5.410	-0.581	0.040	
5.415	0.521	0.022	
5.420	0.955	0.074	
5.425	-0.327	0.183	
5.430	0.223	0.227	
5.435	1.314	0.273	
5.440	-0.236	0.366	
5.445	-0.547	0.357	
5.450	0.417	0.245	
5.455	-0.252	0.146	
5.460	-0.853	0.027	
5.465	-0.054	-0.129	
5.470	0.310	-0.212	
5.475	-0.665	-0.218	
5.480	-0.257	-0.240	
5.485	0.864	-0.221	
5.490	-0.341	-0.119	
5.495	-0.472	-0.060	
5.500	0.883	-0.038	
5.505	0.159	0.046	
5.510	-0.567	0.108	
5.515	0.479	0.096	
5.520	0.745	0.125	
5.525	-0.506	0.183	
5.530	-0.097	0.162	
5.535	1.092	0.139	
5.540	-0.239	0.188	
5.545	-0.379	0.188	
5.550	1.071	0.157	
5.555	0.400	0.212	
5.560	-0.431	0.267	
5.565	0.828	0.261	
5.570	1.124	0.319	
5.575	-0.349	0.414	
5.580	0.169	0.412	
5.585	1.375	0.398	
5.590	-0.112	0.447	
5.595	-0.292	0.428	
5.600	1.193	0.363	
5.605	0.397	0.379	
5.610	-0.478	0.386	
5.615	0.586	0.320	
5.620	0.738	0.294	
5.625	-0.564	0.296	
5.630	-0.199	0.216	
5.635	0.829	0.130	
5.640	-0.422	0.112	
5.645	-0.579	0.055	
5.650	0.641	-0.027	
5.655	-0.101	-0.034	
5.660	-0.717	-0.044	
5.665	0.217	-0.102	
5.670	0.502	-0.101	
5.675	-0.636	-0.055	
5.680	-0.240	-0.069	
5.685	0.808	-0.077	
5.690	-0.407	-0.022	
5.695	-0.529	-0.016	
5.700	0.797	-0.041	
5.705	0.052	0.006	
5.710	-0.608	0.042	
5.715	0.457	0.019	
5.720	0.724	0.051	
5.725	-0.550	0.120	
5.730	-0.153	0.108	
5.735	0.939	0.085	
5.740	-0.367	0.121	
5.745	-0.508	0.103	
5.750	0.782	0.047	
5.755	-0.032	0.058	
5.760	-0.677	0.055	
5.765	0.290	-0.008	
5.770	0.504	-0.018	
5.775	-0.645	0.010	
5.780	-0.232	-0.025	
5.785	0.823	-0.051	
5.790	-0.391	-0.007	
5.795	-0.482	-0.004	
5.800	0.929	-0.022	
5.805	0.285	0.050	
5.810	-0.352	0.129	
5.815	1.179	0.179	
5.820	1.364	0.326	
5.825	-0.291	0.505	
5.830	0.162	0.544	
5.835	1.051	0.512	
5.840	-0.391	0.489	
5.845	-0.543	0.374	
5.850	0.678	0.212	
5.855	-0.077	0.127	
5.860	-0.639	0.057	
5.865	0.478	-0.029	
5.870	0.727	-0.018	
5.875	-0.515	0.057	
5.880	-0.054	0.066	
5.885	1.092	0.080	
5.890	-0.274	0.158	
5.895	-0.375	0.175	
5.900	1.058	0.153	
5.905	0.235	0.205	
5.910	-0.495	0.240	
5.915	0.684	0.210	
5.920	0.855	0.236	
5.925	-0.468	0.294	
5.930	0.035	0.267	
5.935	1.175	0.239	
5.940	-0.213	0.282	
5.945	-0.291	0.272	
5.950	1.245	0.238	
5.955	0.424	0.298	
5.960	-0.382	0.352	
5.965	0.944	0.341	
5.970	1.098	0.393	
5.975	-0.346	0.475	
5.980	0.235	0.457	
5.985	1.289	0.429	
5.990	-0.187	0.458	
5.995	-0.307	0.415	
6.000	1.087	0.331	
6.005	0.152	0.322	
6.010	-0.559	0.296	
6.015	0.478	0.206	
6.020	0.556	0.168	
6.025	-0.619	0.163	
6.030	-0.213	0.089	
6.035	0.728	0.022	
6.040	-0.449	0.021	
6.045	-0.535	-0.015	
6.050	0.678	-0.069	
6.055	-0.116	-0.051	
6.060	-0.659	-0.042	
6.065	0.362	-0.079	
6.070	0.515	-0.056	
6.075	-0.592	0.002	
6.080	-0.132	-0.006	
6.085	0.890	-0.008	
6.090	-0.353	0.053	
6.095	-0.425	0.062	
6.100	0.912	0.041	
6.105	0.035	0.090	
6.110	-0.581	0.115	
6.115	0.490	0.077	
6.120	0.589	0.090	
6.125	-0.584	0.130	
6.130	-0.167	0.091	
6.135	0.753	0.047	
6.140	-0.454	0.058	
6.145	-0.518	0.022	
6.150	0.721	-0.036	
6.155	-0.122	-0.021	
6.160	-0.679	-0.019	
6.165	0.305	-0.068	
6.170	0.432	-0.063	
6.175	-0.640	-0.025	
6.180	-0.170	-0.048	
6.185	0.834	-0.058	
6.190	-0.371	0.000	
6.195	-0.367	0.016	
6.200	1.187	0.025	
6.205	0.408	0.136	
6.210	-0.408	0.239	
6.215	0.771	0.262	
6.220	0.654	0.308	
6.225	-0.665	0.339	
6.230	-0.301	0.246	
6.235	0.478	0.119	
6.240	-0.558	0.039	
6.245	-0.567	-0.063	
6.250	0.683	-0.148	
6.255	-0.089	-0.130	
6.260	-0.621	-0.103	
6.265	0.458	-0.110	
6.270	0.573	-0.054	
6.275	-0.569	0.032	
6.280	-0.090	0.038	
6.285	0.924	0.042	
6.290	-0.358	0.101	
6.295	-0.407	0.102	
6.300	0.936	0.073	
6.305	0.050	0.115	
6.310	-0.535	0.138	
6.315	0.647	0.106	
6.320	0.748	0.141	
6.325	-0.474	0.209	
6.330	0.124	0.200	
6.335	1.214	0.205	
6.340	-0.187	0.278	
6.345	-0.210	0.292	
6.350	1.382	0.281	
6.355	0.522	0.366	
6.360	-0.326	0.437	
6.365	1.052	0.434	
6.370	1.118	0.486	
6.375	-0.330	0.558	
6.380	0.296	0.526	
6.385	1.260	0.483	
6.390	-0.234	0.492	
6.395	-0.327	0.427	
6.400	1.016	0.322	
6.405	0.017	0.290	
6.410	-0.582	0.243	
6.415	0.446	0.142	
6.420	0.461	0.102	
6.425	-0.624	0.098	
6.430	-0.158	0.034	
6.435	0.733	-0.013	
6.440	-0.468	0.005	
6.445	-0.512	-0.020	
6.450	0.728	-0.064	
6.455	-0.110	-0.035	
6.460	-0.628	-0.020	
6.465	0.427	-0.052	
6.470	0.466	-0.027	
6.475	-0.622	0.025	
6.480	-0.127	0.004	
6.485	0.857	-0.008	
6.490	-0.396	0.043	
6.495	-0.417	0.043	
6.500	0.926	0.022	
6.505	-0.005	0.073	
6.510	-0.570	0.101	
6.515	0.545	0.068	
6.520	0.525	0.088	
6.525	-0.643	0.125	
6.530	-0.207	0.076	
6.535	0.583	0.016	
6.540	-0.562	0.002	
6.545	-0.585	-0.058	
6.550	0.562	-0.130	
6.555	-0.222	-0.127	
6.560	-0.717	-0.130	
6.565	0.302	-0.170	
6.570	0.397	-0.145	
6.575	-0.636	-0.085	
6.580	-0.122	-0.085	
6.585	0.961	-0.066	
6.590	-0.252	0.027	
6.595	-0.167	0.081	
6.600	1.456	0.133	
6.605	0.382	0.278	
6.610	-0.497	0.377	
6.615	0.382	0.346	
6.620	0.143	0.286	
6.625	-0.834	0.196	
6.630	-0.370	0.028	
6.635	0.411	-0.114	
6.640	-0.581	-0.168	
6.645	-0.550	-0.224	
6.650	0.725	-0.254	
6.655	-0.098	-0.185	
6.660	-0.605	-0.121	
6.665	0.528	-0.102	
6.670	0.582	-0.027	
6.675	-0.562	0.067	
6.680	-0.061	0.073	
6.685	0.895	0.072	
6.690	-0.393	0.120	
6.695	-0.391	0.109	
6.700	0.994	0.074	
6.705	0.062	0.120	
6.710	-0.506	0.149	
6.715	0.773	0.128	
6.720	0.851	0.181	
6.725	-0.422	0.268	
6.730	0.266	0.274	
6.735	1.292	0.291	
6.740	-0.190	0.369	
6.745	-0.211	0.371	
6.750	1.294	0.335	
6.755	0.314	0.380	
6.760	-0.396	0.402	
6.765	0.919	0.359	
6.770	0.895	0.380	
6.775	-0.430	0.425	
6.780	0.166	0.378	
6.785	1.054	0.329	
6.790	-0.361	0.333	
6.795	-0.419	0.269	
6.800	0.811	0.170	
6.805	-0.136	0.139	
6.810	-0.659	0.093	
6.815	0.321	0.001	
6.820	0.295	-0.032	
6.825	-0.700	-0.033	
6.830	-0.226	-0.088	
6.835	0.556	-0.127	
6.840	-0.572	-0.108	
6.845	-0.576	-0.132	
6.850	0.551	-0.174	
6.855	-0.252	-0.150	
6.860	-0.734	-0.142	
6.865	0.208	-0.182	
6.870	0.163	-0.175	
6.875	-0.764	-0.150	
6.880	-0.281	-0.186	
6.885	0.498	-0.208	
6.890	-0.599	-0.175	
6.895	-0.596	-0.186	
6.900	0.534	-0.215	
6.905	-0.263	-0.180	
6.910	-0.755	-0.164	
6.915	0.156	-0.201	
6.920	0.102	-0.197	
6.925	-0.790	-0.179	
6.930	-0.318	-0.220	
6.935	0.414	-0.246	
6.940	-0.625	-0.219	
6.945	-0.599	-0.231	
6.950	0.530	-0.255	
6.955	-0.266	-0.210	
6.960	-0.737	-0.183	
6.965	0.275	-0.204	
6.970	0.310	-0.171	
6.975	-0.647	-0.112	
6.980	-0.016	-0.108	
6.985	1.094	-0.067	
6.990	-0.306	0.052	
6.995	-0.368	0.106	
7.000	0.762	0.100	
7.005	-0.287	0.118	
7.010	-0.830	0.076	
7.015	-0.031	-0.050	
7.020	-0.063	-0.147	
7.025	-0.834	-0.213	
7.030	-0.295	-0.300	
7.035	0.557	-0.327	
7.040	-0.514	-0.266	
7.045	-0.463	-0.230	
7.050	0.838	-0.198	
7.055	-0.038	-0.091	
7.060	-0.486	-0.009	
7.065	0.842	0.025	
7.070	0.842	0.131	
7.075	-0.413	0.257	
7.080	0.278	0.285	
7.085	1.165	0.306	
7.090	-0.254	0.369	
7.095	-0.231	0.351	
7.100	1.208	0.301	
7.105	0.292	0.334	
7.110	-0.310	0.358	
7.115	1.150	0.341	
7.120	1.129	0.414	
7.125	-0.216	0.520	
7.130	0.783	0.545	
7.135	1.729	0.599	
7.140	0.212	0.720	
7.145	0.243	0.758	
7.150	1.700	0.747	
7.155	0.651	0.802	
7.160	-0.182	0.811	
7.165	1.197	0.734	
7.170	1.029	0.711	
7.175	-0.327	0.703	
7.180	0.337	0.602	
7.185	1.054	0.506	
7.190	-0.330	0.463	
7.195	-0.327	0.360	
7.200	0.874	0.237	
7.205	-0.095	0.194	
7.210	-0.553	0.143	
7.215	0.510	0.060	
7.220	0.411	0.048	
7.225	-0.584	0.068	
7.230	-0.045	0.028	
7.235	0.751	0.007	
7.240	-0.436	0.043	
7.245	-0.396	0.028	
7.250	0.811	-0.003	
7.255	-0.112	0.033	
7.260	-0.535	0.048	
7.265	0.591	0.019	
7.270	0.481	0.053	
7.275	-0.549	0.106	
7.280	0.021	0.086	
7.285	0.817	0.074	
7.290	-0.414	0.112	
7.295	-0.382	0.092	
7.300	0.765	0.046	
7.305	-0.179	0.059	
7.310	-0.624	0.045	
7.315	0.368	-0.019	
7.320	0.243	-0.031	
7.325	-0.668	-0.022	
7.330	-0.158	-0.072	
7.335	0.580	-0.101	
7.340	-0.523	-0.075	
7.345	-0.488	-0.092	
7.350	0.599	-0.125	
7.355	-0.243	-0.097	
7.360	-0.637	-0.089	
7.365	0.484	-0.117	
7.370	0.499	-0.070	
7.375	-0.466	0.012	
7.380	0.209	0.040	
7.385	0.857	0.084	
7.390	-0.488	0.156	
7.395	-0.553	0.132	
7.400	0.250	0.034	
7.405	-0.480	-0.046	
7.410	-0.886	-0.150	
7.415	-0.058	-0.280	
7.420	-0.077	-0.342	
7.425	-0.776	-0.355	
7.430	-0.232	-0.382	
7.435	0.481	-0.360	
7.440	-0.538	-0.274	
7.445	-0.448	-0.229	
7.450	0.719	-0.198	
7.455	-0.171	-0.108	
7.460	-0.559	-0.052	
7.465	0.560	-0.049	
7.470	0.434	0.008	
7.475	-0.547	0.075	
7.480	0.088	0.067	
7.485	0.912	0.076	
7.490	-0.349	0.139	
7.495	-0.278	0.141	
7.500	1.014	0.121	
7.505	0.039	0.171	
7.510	-0.402	0.196	
7.515	0.933	0.180	
7.520	0.837	0.245	
7.525	-0.355	0.336	
7.530	0.453	0.345	
7.535	1.234	0.369	
7.540	-0.194	0.438	
7.545	-0.130	0.424	
7.550	1.260	0.376	
7.555	0.180	0.402	
7.560	-0.399	0.397	
7.565	0.814	0.330	
7.570	0.600	0.321	
7.575	-0.504	0.327	
7.580	0.067	0.253	
7.585	0.774	0.189	
7.590	-0.453	0.177	
7.595	-0.393	0.113	
7.600	0.747	0.039	
7.605	-0.184	0.037	
7.610	-0.593	0.020	
7.615	0.498	-0.033	
7.620	0.366	-0.017	
7.625	-0.576	0.024	
7.630	0.004	0.004	
7.635	0.786	0.003	
7.640	-0.417	0.056	
7.645	-0.329	0.054	
7.650	0.926	0.036	
7.655	-0.075	0.088	
7.660	-0.494	0.110	
7.665	0.704	0.084	
7.670	0.559	0.124	
7.675	-0.494	0.182	
7.680	0.162	0.164	
7.685	0.918	0.160	
7.690	-0.373	0.203	
7.695	-0.326	0.180	
7.700	0.866	0.128	
7.705	-0.126	0.138	
7.710	-0.537	0.121	
7.715	0.559	0.061	
7.720	0.369	0.064	
7.725	-0.593	0.086	
7.730	-0.008	0.043	
7.735	0.753	0.021	
7.740	-0.434	0.055	
7.745	-0.341	0.041	
7.750	0.930	0.017	
7.755	-0.011	0.072	
7.760	-0.362	0.111	
7.765	1.066	0.125	
7.770	0.855	0.230	
7.775	-0.408	0.348	
7.780	0.203	0.353	
7.785	0.696	0.323	
7.790	-0.561	0.296	
7.795	-0.530	0.184	
7.800	0.473	0.042	
7.805	-0.298	-0.030	
7.810	-0.642	-0.095	
7.815	0.440	-0.163	
7.820	0.350	-0.138	
7.825	-0.569	-0.075	
7.830	0.039	-0.064	
7.835	0.806	-0.033	
7.840	-0.391	0.047	
7.845	-0.292	0.065	
7.850	0.990	0.063	
7.855	-0.022	0.127	
7.860	-0.448	0.158	
7.865	0.773	0.137	
7.870	0.611	0.181	
7.875	-0.446	0.240	
7.880	0.301	0.226	
7.885	1.077	0.234	
7.890	-0.242	0.297	
7.895	-0.142	0.294	
7.900	1.268	0.272	
7.905	0.275	0.335	
7.910	-0.275	0.375	
7.915	1.150	0.365	
7.920	0.979	0.432	
7.925	-0.291	0.515	
7.930	0.570	0.506	
7.935	1.295	0.506	
7.940	-0.182	0.551	
7.945	-0.130	0.508	
7.950	1.176	0.427	
7.955	0.056	0.413	
7.960	-0.443	0.370	
7.965	0.689	0.273	
7.970	0.434	0.238	
7.975	-0.572	0.223	
7.980	-0.032	0.140	
7.985	0.658	0.074	
7.990	-0.494	0.065	
7.995	-0.420	0.013	
8.000	0.693	-0.044	
8.005	-0.207	-0.029	
8.010	-0.584	-0.030	
8.015	0.521	-0.065	
8.020	0.360	-0.032	
8.025	-0.576	0.021	
8.030	0.017	0.007	
8.035	0.771	0.009	
8.040	-0.414	0.062	
8.045	-0.320	0.059	
8.050	0.907	0.040	
8.055	-0.097	0.087	
8.060	-0.491	0.105	
8.065	0.651	0.075	
8.070	0.434	0.103	
8.075	-0.553	0.143	
8.080	0.030	0.106	
8.085	0.698	0.078	
8.090	-0.478	0.094	
8.095	-0.396	0.054	
8.100	0.747	0.000	
8.105	-0.199	0.015	
8.110	-0.570	0.009	
8.115	0.525	-0.033	
8.120	0.327	-0.010	
8.125	-0.588	0.030	
8.130	0.046	0.007	
8.135	0.822	0.010	
8.140	-0.384	0.069	
8.145	-0.229	0.078	
8.150	1.249	0.086	
8.155	0.362	0.196	
8.160	-0.214	0.295	
8.165	1.170	0.340	
8.170	0.806	0.435	
8.175	-0.517	0.506	
8.180	-0.083	0.433	
8.185	0.501	0.309	
8.190	-0.562	0.207	
8.195	-0.454	0.069	
8.200	0.709	-0.046	
8.205	-0.179	-0.059	
8.210	-0.526	-0.062	
8.215	0.672	-0.078	
8.220	0.524	-0.009	
8.225	-0.495	0.082	
8.230	0.195	0.100	
8.235	0.952	0.129	
8.240	-0.336	0.201	
8.245	-0.240	0.201	
8.250	1.065	0.175	
8.255	0.020	0.218	
8.260	-0.408	0.231	
8.265	0.866	0.198	
8.270	0.706	0.239	
8.275	-0.401	0.301	
8.280	0.379	0.290	
8.285	1.129	0.299	
8.290	-0.229	0.359	
8.295	-0.095	0.349	
8.300	1.346	0.323	
8.305	0.301	0.384	
8.310	-0.266	0.420	
8.315	1.092	0.401	
8.320	0.835	0.444	
8.325	-0.384	0.493	
8.330	0.324	0.444	
8.335	0.953	0.394	
8.340	-0.391	0.382	
8.345	-0.356	0.297	
8.350	0.698	0.181	
8.355	-0.265	0.127	
8.360	-0.698	0.052	
8.365	0.172	-0.063	
8.370	-0.054	-0.127	
8.375	-0.833	-0.170	
8.380	-0.338	-0.255	
8.385	0.154	-0.312	
8.390	-0.747	-0.319	
8.395	-0.677	-0.356	
8.400	0.259	-0.394	
8.405	-0.436	-0.367	
8.410	-0.816	-0.352	
8.415	0.059	-0.372	
8.420	-0.058	-0.349	
8.425	-0.793	-0.312	
8.430	-0.239	-0.323	
8.435	0.435	-0.307	
8.440	-0.593	-0.241	
8.445	-0.501	-0.222	
8.450	0.589	-0.218	
8.455	-0.275	-0.157	
8.460	-0.656	-0.127	
8.465	0.371	-0.145	
8.470	0.151	-0.116	
8.475	-0.735	-0.083	
8.480	-0.187	-0.121	
8.485	0.495	-0.146	
8.490	-0.570	-0.120	
8.495	-0.477	-0.137	
8.500	0.631	-0.162	
8.505	-0.269	-0.120	
8.510	-0.651	-0.103	
8.515	0.411	-0.129	
8.520	0.218	-0.100	
8.525	-0.660	-0.059	
8.530	-0.078	-0.082	
8.535	0.715	-0.083	
8.540	-0.416	-0.025	
8.545	-0.225	-0.008	
8.550	1.219	0.019	
8.555	0.036	0.132	
8.560	-0.512	0.199	
8.565	0.389	0.168	
8.570	-0.069	0.131	
8.575	-0.888	0.059	
8.580	-0.373	-0.090	
8.585	0.140	-0.215	
8.590	-0.705	-0.274	
8.595	-0.549	-0.336	
8.600	0.560	-0.362	
8.605	-0.281	-0.294	
8.610	-0.648	-0.237	
8.615	0.450	-0.217	
8.620	0.290	-0.142	
8.625	-0.634	-0.061	
8.630	-0.037	-0.056	
8.635	0.716	-0.043	
8.640	-0.486	0.013	
8.645	-0.385	0.009	
8.650	0.843	-0.014	
8.655	-0.152	0.030	
8.660	-0.527	0.047	
8.665	0.716	0.024	
8.670	0.542	0.075	
8.675	-0.494	0.147	
8.680	0.282	0.147	
8.685	1.097	0.174	
8.690	-0.284	0.256	
8.695	-0.162	0.266	
8.700	1.278	0.253	
8.705	0.201	0.320	
8.710	-0.355	0.354	
8.715	1.017	0.330	
8.720	0.756	0.369	
8.725	-0.448	0.416	
8.730	0.259	0.368	
8.735	0.919	0.322	
8.740	-0.436	0.317	
8.745	-0.382	0.240	
8.750	0.756	0.138	
8.755	-0.252	0.103	
8.760	-0.660	0.047	
8.765	0.359	-0.045	
8.770	0.130	-0.073	
8.775	-0.718	-0.078	
8.780	-0.150	-0.133	
8.785	0.551	-0.158	
8.790	-0.570	-0.123	
8.795	-0.474	-0.132	
8.800	0.664	-0.152	
8.805	-0.248	-0.105	
8.810	-0.614	-0.084	
8.815	0.521	-0.102	
8.820	0.304	-0.058	
8.825	-0.621	-0.002	
8.830	0.030	-0.017	
8.835	0.765	-0.011	
8.840	-0.471	0.044	
8.845	-0.364	0.038	
8.850	0.843	0.012	
8.855	-0.171	0.050	
8.860	-0.562	0.056	
8.865	0.548	0.015	
8.870	0.281	0.029	
8.875	-0.653	0.052	
8.880	-0.075	0.003	
8.885	0.621	-0.030	
8.890	-0.547	-0.012	
8.895	-0.457	-0.044	
8.900	0.672	-0.088	
8.905	-0.263	-0.065	
8.910	-0.637	-0.064	
8.915	0.484	-0.100	
8.920	0.310	-0.070	
8.925	-0.613	-0.020	
8.930	0.105	-0.029	
8.935	0.984	-0.001	
8.940	-0.306	0.094	
8.945	-0.202	0.132	
8.950	1.037	0.141	
8.955	-0.184	0.197	
8.960	-0.683	0.188	
8.965	0.180	0.086	
8.970	-0.100	-0.000	
8.975	-0.834	-0.082	
8.980	-0.252	-0.200	
8.985	0.423	-0.263	
8.990	-0.575	-0.245	
8.995	-0.425	-0.244	
9.000	0.808	-0.227	
9.005	-0.159	-0.129	
9.010	-0.526	-0.059	
9.015	0.727	-0.036	
9.020	0.521	0.049	
9.025	-0.517	0.139	
9.030	0.232	0.145	
9.035	0.974	0.164	
9.040	-0.370	0.226	
9.045	-0.246	0.215	
9.050	1.113	0.181	
9.055	0.017	0.223	
9.060	-0.407	0.237	
9.065	0.994	0.209	
9.070	0.782	0.266	
9.075	-0.393	0.345	
9.080	0.515	0.343	
9.085	1.281	0.368	
9.090	-0.217	0.444	
9.095	-0.095	0.434	
9.100	1.362	0.393	
9.105	0.235	0.433	
9.110	-0.329	0.442	
9.115	1.037	0.393	
9.120	0.735	0.411	
9.125	-0.453	0.439	
9.130	0.276	0.376	
9.135	0.909	0.323	
9.140	-0.437	0.313	
9.145	-0.355	0.236	
9.150	0.764	0.137	
9.155	-0.281	0.104	
9.160	-0.676	0.047	
9.165	0.324	-0.051	
9.170	0.050	-0.088	
9.175	-0.743	-0.105	
9.180	-0.177	-0.168	
9.185	0.437	-0.199	
9.190	-0.621	-0.174	
9.195	-0.495	-0.189	
9.200	0.589	-0.209	
9.205	-0.306	-0.163	
9.210	-0.656	-0.141	
9.215	0.423	-0.160	
9.220	0.197	-0.121	
9.225	-0.643	-0.072	
9.230	0.020	-0.084	
9.235	0.722	-0.069	
9.240	-0.489	-0.004	
9.245	-0.368	0.000	
9.250	0.825	-0.016	
9.255	-0.214	0.028	
9.260	-0.601	0.035	
9.265	0.479	-0.011	
9.270	0.217	-0.005	
9.275	-0.668	0.010	
9.280	-0.074	-0.040	
9.285	0.599	-0.066	
9.290	-0.544	-0.041	
9.295	-0.419	-0.063	
9.300	0.712	-0.093	
9.305	-0.252	-0.056	
9.310	-0.587	-0.045	
9.315	0.586	-0.070	
9.320	0.380	-0.025	
9.325	-0.511	0.041	
9.330	0.438	0.056	
9.335	1.220	0.126	
9.340	-0.278	0.258	
9.345	-0.200	0.296	
9.350	0.932	0.272	
9.355	-0.280	0.274	
9.360	-0.712	0.208	
9.365	0.227	0.070	
9.370	-0.002	-0.023	
9.375	-0.721	-0.088	
9.380	-0.064	-0.173	
9.385	0.684	-0.190	
9.390	-0.483	-0.126	
9.395	-0.335	-0.100	
9.400	0.898	-0.080	
9.405	-0.155	0.005	
9.410	-0.497	0.050	
9.415	0.794	0.046	
9.420	0.525	0.111	
9.425	-0.518	0.183	
9.430	0.264	0.174	
9.435	0.970	0.182	
9.440	-0.376	0.237	
9.445	-0.237	0.219	
9.450	1.091	0.181	
9.455	-0.008	0.218	
9.460	-0.382	0.228	
9.465	1.032	0.203	
9.470	0.791	0.267	
9.475	-0.359	0.354	
9.480	0.644	0.364	
9.485	1.350	0.407	
9.490	-0.182	0.499	
9.495	-0.009	0.497	
9.500	1.410	0.460	
9.505	0.214	0.497	
9.510	-0.321	0.493	
9.515	1.049	0.429	
9.520	0.693	0.432	
9.525	-0.468	0.445	
9.530	0.272	0.370	
9.535	0.875	0.309	
9.540	-0.456	0.294	
9.545	-0.341	0.215	
9.550	0.820	0.122	
9.555	-0.236	0.103	
9.560	-0.599	0.063	
9.565	0.512	-0.011	
9.570	0.218	-0.016	
9.575	-0.656	-0.002	
9.580	-0.013	-0.045	
9.585	0.661	-0.059	
9.590	-0.521	-0.019	
9.595	-0.370	-0.030	
9.600	0.809	-0.051	
9.605	-0.228	-0.005	
9.610	-0.575	0.009	
9.615	0.626	-0.021	
9.620	0.337	0.015	
9.625	-0.599	0.062	
9.630	0.096	0.039	
9.635	0.742	0.036	
9.640	-0.503	0.077	
9.645	-0.370	0.054	
9.650	0.790	0.012	
9.655	-0.274	0.032	
9.660	-0.650	0.017	
9.665	0.421	-0.046	
9.670	0.116	-0.055	
9.675	-0.718	-0.052	
9.680	-0.124	-0.108	
9.685	0.482	-0.137	
9.690	-0.624	-0.117	
9.695	-0.468	-0.142	
9.700	0.658	-0.170	
9.705	-0.291	-0.126	
9.710	-0.617	-0.107	
9.715	0.634	-0.118	
9.720	0.508	-0.049	
9.725	-0.426	0.051	
9.730	0.536	0.099	
9.735	1.092	0.185	
9.740	-0.442	0.298	
9.745	-0.457	0.287	
9.750	0.379	0.184	
9.755	-0.521	0.089	
9.760	-0.857	-0.044	
9.765	0.073	-0.202	
9.770	-0.087	-0.278	
9.775	-0.766	-0.305	
9.780	-0.119	-0.342	
9.785	0.550	-0.318	
9.790	-0.576	-0.229	
9.795	-0.408	-0.189	
9.800	0.782	-0.163	
9.805	-0.245	-0.078	
9.810	-0.573	-0.035	
9.815	0.667	-0.041	
9.820	0.372	0.016	
9.825	-0.573	0.080	
9.830	0.201	0.070	
9.835	0.880	0.085	
9.840	-0.425	0.148	
9.845	-0.248	0.141	
9.850	1.103	0.120	
9.855	-0.057	0.175	
9.860	-0.433	0.196	
9.865	0.967	0.172	
9.870	0.686	0.229	
9.875	-0.419	0.304	
9.880	0.556	0.303	
9.885	1.257	0.337	
9.890	-0.262	0.421	
9.895	-0.107	0.413	
9.900	1.259	0.369	
9.905	-0.002	0.391	
9.910	-0.449	0.366	
9.915	0.799	0.282	
9.920	0.376	0.259	
9.925	-0.624	0.242	
9.930	0.015	0.150	
9.935	0.605	0.077	
9.940	-0.588	0.057	
9.945	-0.448	-0.011	
9.950	0.620	-0.082	
9.955	-0.358	-0.082	
9.960	-0.697	-0.103	
9.965	0.368	-0.159	
9.970	0.046	-0.153	
9.975	-0.744	-0.135	
9.980	-0.101	-0.172	
9.985	0.525	-0.178	
9.990	-0.616	-0.133	
9.995	-0.440	-0.139	
10.000	0.695	-0.153	
10.005	-0.303	-0.102	
10.010	-0.625	-0.083	
10.015	0.577	-0.103	
10.020	0.292	-0.056	
10.025	-0.614	0.002	
10.030	0.139	-0.006	
10.035	0.768	0.011	
10.040	-0.509	0.071	
10.045	-0.342	0.060	
10.050	0.805	0.026	
10.055	-0.291	0.049	
10.060	-0.639	0.032	
10.065	0.460	-0.033	
10.070	0.084	-0.042	
10.075	-0.731	-0.044	
10.080	-0.100	-0.105	
10.085	0.487	-0.136	
10.090	-0.640	-0.115	
10.095	-0.474	-0.142	
10.100	0.611	-0.174	
10.105	-0.342	-0.139	
10.110	-0.630	-0.129	
10.115	0.693	-0.142	
10.120	0.554	-0.062	
10.125	-0.449	0.052	
10.130	0.403	0.101	
10.135	0.878	0.163	
10.140	-0.579	0.236	
10.145	-0.543	0.191	
10.150	0.308	0.071	
10.155	-0.530	-0.022	
10.160	-0.839	-0.138	
10.165	0.186	-0.262	
10.170	-0.038	-0.298	
10.175	-0.738	-0.290	
10.180	-0.026	-0.304	
10.185	0.698	-0.258	
10.190	-0.515	-0.149	
10.195	-0.320	-0.098	
10.200	0.961	-0.064	
10.205	-0.176	0.031	
10.210	-0.508	0.076	
10.215	0.826	0.068	
10.220	0.490	0.126	
10.225	-0.533	0.191	
10.230	0.366	0.177	
10.235	1.051	0.196	
10.240	-0.365	0.266	
10.245	-0.152	0.259	
10.250	1.288	0.236	
10.255	0.085	0.297	
10.260	-0.330	0.324	
10.265	1.234	0.308	
10.270	0.936	0.385	
10.275	-0.307	0.481	
10.280	0.779	0.490	
10.285	1.392	0.526	
10.290	-0.223	0.601	
10.295	-0.034	0.569	
10.300	1.337	0.496	
10.305	0.020	0.492	
10.310	-0.433	0.442	
10.315	0.855	0.337	
10.320	0.417	0.301	
10.325	-0.602	0.278	
10.330	0.090	0.183	
10.335	0.640	0.113	
10.340	-0.588	0.093	
10.345	-0.430	0.022	
10.350	0.687	-0.052	
10.355	-0.327	-0.051	
10.360	-0.637	-0.068	
10.365	0.551	-0.113	
10.370	0.212	-0.083	
10.375	-0.651	-0.038	
10.380	0.107	-0.054	
10.385	0.774	-0.036	
10.390	-0.498	0.032	
10.395	-0.313	0.035	
10.400	0.916	0.021	
10.405	-0.214	0.070	
10.410	-0.529	0.079	
10.415	0.773	0.046	
10.420	0.417	0.088	
10.425	-0.561	0.140	
10.430	0.293	0.121	
10.435	0.927	0.133	
10.440	-0.446	0.193	
10.445	-0.280	0.176	
10.450	0.950	0.132	
10.455	-0.217	0.151	
10.460	-0.553	0.131	
10.465	0.715	0.068	
10.470	0.334	0.081	
10.475	-0.627	0.107	
10.480	0.101	0.063	
10.485	0.698	0.042	
10.490	-0.538	0.068	
10.495	-0.336	0.035	
10.500	0.907	-0.001	
10.505	-0.200	0.040	
10.510	-0.483	0.054	
10.515	0.993	0.043	
10.520	0.731	0.133	
10.525	-0.445	0.245	
10.530	0.369	0.265	
10.535	0.816	0.277	
10.540	-0.602	0.296	
10.545	-0.498	0.210	
10.550	0.470	0.077	
10.555	-0.445	-0.003	
10.560	-0.717	-0.094	
10.565	0.453	-0.187	
10.570	0.220	-0.180	
10.575	-0.599	-0.129	
10.580	0.256	-0.114	
10.585	0.901	-0.048	
10.590	-0.431	0.069	
10.595	-0.219	0.105	
10.600	1.086	0.113	
10.605	-0.124	0.181	
10.610	-0.460	0.198	
10.615	0.913	0.164	
10.620	0.539	0.205	
10.625	-0.501	0.256	
10.630	0.432	0.232	
10.635	1.069	0.244	
10.640	-0.358	0.307	
10.645	-0.127	0.291	
10.650	1.304	0.262	
10.655	0.068	0.317	
10.660	-0.321	0.337	
10.665	1.210	0.314	
10.670	0.808	0.379	
10.675	-0.388	0.453	
10.680	0.638	0.437	
10.685	1.256	0.447	
10.690	-0.298	0.501	
10.695	-0.109	0.461	
10.700	1.219	0.388	
10.705	-0.092	0.384	
10.710	-0.457	0.338	
10.715	0.845	0.245	
10.720	0.369	0.228	
10.725	-0.601	0.223	
10.730	0.166	0.149	
10.735	0.745	0.107	
10.740	-0.533	0.118	
10.745	-0.335	0.072	
10.750	0.834	0.019	
10.755	-0.268	0.038	
10.760	-0.562	0.029	
10.765	0.718	-0.013	
10.770	0.330	0.025	
10.775	-0.576	0.076	
10.780	0.295	0.062	
10.785	0.906	0.087	
10.790	-0.426	0.160	
10.795	-0.200	0.160	
10.800	1.132	0.144	
10.805	-0.100	0.201	
10.810	-0.410	0.215	
10.815	1.039	0.188	
10.820	0.643	0.247	
10.825	-0.437	0.317	
10.830	0.557	0.308	
10.835	1.147	0.331	
10.840	-0.333	0.397	
10.845	-0.127	0.373	
10.850	1.190	0.320	
10.855	-0.086	0.335	
10.860	-0.411	0.308	
10.865	1.007	0.243	
10.870	0.577	0.266	
10.875	-0.466	0.307	
10.880	0.534	0.279	
10.885	1.103	0.292	
10.890	-0.352	0.355	
10.895	-0.087	0.335	
10.900	1.326	0.300	
10.905	0.093	0.350	
10.910	-0.228	0.369	
10.915	1.552	0.365	
10.920	1.220	0.485	
10.925	-0.159	0.631	
10.930	0.974	0.673	
10.935	1.283	0.711	
10.940	-0.402	0.744	
10.945	-0.277	0.632	
10.950	0.829	0.454	
10.955	-0.283	0.334	
10.960	-0.529	0.201	
10.965	0.858	0.076	
10.970	0.490	0.078	
10.975	-0.465	0.128	
10.980	0.542	0.134	
10.985	1.109	0.192	
10.990	-0.341	0.296	
10.995	-0.080	0.309	
11.000	1.309	0.296	
11.005	0.006	0.352	
11.010	-0.335	0.360	
11.015	1.165	0.321	
11.020	0.718	0.367	
11.025	-0.382	0.425	
11.030	0.690	0.405	
11.035	1.243	0.423	
11.040	-0.274	0.488	
11.045	0.035	0.464	
11.050	1.479	0.425	
11.055	0.215	0.475	
11.060	-0.203	0.491	
11.065	1.445	0.466	
11.070	1.010	0.538	
11.075	-0.236	0.623	
11.080	0.945	0.619	
11.085	1.439	0.645	
11.090	-0.207	0.706	
11.095	0.070	0.656	
11.100	1.376	0.571	
11.105	-0.034	0.552	
11.110	-0.396	0.483	
11.115	0.935	0.365	
11.120	0.388	0.326	
11.125	-0.587	0.298	
11.130	0.166	0.201	
11.135	0.628	0.133	
11.140	-0.601	0.113	
11.145	-0.390	0.038	
11.150	0.655	-0.039	
11.155	-0.399	-0.046	
11.160	-0.676	-0.079	
11.165	0.463	-0.140	
11.170	0.026	-0.131	
11.175	-0.705	-0.111	
11.180	0.023	-0.144	
11.185	0.547	-0.139	
11.190	-0.619	-0.088	
11.195	-0.378	-0.096	
11.200	0.701	-0.113	
11.205	-0.342	-0.069	
11.210	-0.607	-0.062	
11.215	0.582	-0.092	
11.220	0.099	-0.060	
11.225	-0.688	-0.028	
11.230	0.047	-0.065	
11.235	0.559	-0.072	
11.240	-0.634	-0.038	
11.245	-0.433	-0.067	
11.250	0.570	-0.112	
11.255	-0.423	-0.100	
11.260	-0.694	-0.121	
11.265	0.417	-0.173	
11.270	-0.045	-0.162	
11.275	-0.764	-0.147	
11.280	-0.060	-0.188	
11.285	0.438	-0.194	
11.290	-0.677	-0.155	
11.295	-0.425	-0.169	
11.300	0.702	-0.182	
11.305	-0.309	-0.125	
11.310	-0.497	-0.092	
11.315	1.045	-0.071	
11.320	0.643	0.056	
11.325	-0.466	0.194	
11.330	0.345	0.228	
11.335	0.524	0.238	
11.340	-0.786	0.226	
11.345	-0.637	0.101	
11.350	0.156	-0.067	
11.355	-0.598	-0.180	
11.360	-0.804	-0.287	
11.365	0.313	-0.374	
11.370	-0.068	-0.359	
11.375	-0.743	-0.312	
11.380	0.032	-0.301	
11.385	0.574	-0.245	
11.390	-0.590	-0.145	
11.395	-0.315	-0.112	
11.400	0.883	-0.090	
11.405	-0.275	-0.009	
11.410	-0.541	0.023	
11.415	0.764	0.007	
11.420	0.287	0.057	
11.425	-0.569	0.106	
11.430	0.379	0.089	
11.435	0.927	0.116	
11.440	-0.442	0.190	
11.445	-0.139	0.187	
11.450	1.256	0.176	
11.455	-0.049	0.245	
11.460	-0.333	0.272	
11.465	1.216	0.258	
11.470	0.707	0.333	
11.475	-0.417	0.410	
11.480	0.680	0.398	
11.485	1.176	0.417	
11.490	-0.355	0.472	
11.495	-0.113	0.429	
11.500	1.164	0.355	
11.505	-0.199	0.346	
11.510	-0.532	0.289	
11.515	0.745	0.183	
11.520	0.142	0.149	
11.525	-0.698	0.119	
11.530	0.055	0.027	
11.535	0.504	-0.027	
11.540	-0.676	-0.031	
11.545	-0.436	-0.086	
11.550	0.625	-0.140	
11.555	-0.398	-0.121	
11.560	-0.634	-0.127	
11.565	0.603	-0.155	
11.570	0.108	-0.109	
11.575	-0.668	-0.059	
11.580	0.194	-0.072	
11.585	0.707	-0.045	
11.590	-0.564	0.025	
11.595	-0.306	0.021	
11.600	0.878	0.002	
11.605	-0.301	0.045	
11.610	-0.546	0.045	
11.615	0.790	0.009	
11.620	0.259	0.050	
11.625	-0.613	0.092	
11.630	0.302	0.066	
11.635	0.800	0.077	
11.640	-0.537	0.131	
11.645	-0.300	0.107	
11.650	0.838	0.062	
11.655	-0.356	0.075	
11.660	-0.634	0.045	
11.665	0.573	-0.027	
11.670	0.035	-0.032	
11.675	-0.717	-0.032	
11.680	0.090	-0.087	
11.685	0.588	-0.095	
11.690	-0.619	-0.052	
11.695	-0.339	-0.067	
11.700	0.823	-0.084	
11.705	-0.307	-0.030	
11.710	-0.494	-0.012	
11.715	1.113	-0.009	
11.720	0.701	0.107	
11.725	-0.436	0.240	
11.730	0.531	0.277	
11.735	0.753	0.309	
11.740	-0.691	0.329	
11.745	-0.515	0.226	
11.750	0.353	0.070	
11.755	-0.547	-0.036	
11.760	-0.746	-0.150	
11.765	0.466	-0.251	
11.770	0.049	-0.244	
11.775	-0.650	-0.199	
11.780	0.304	-0.184	
11.785	0.802	-0.108	
11.790	-0.517	0.014	
11.795	-0.202	0.051	
11.800	1.055	0.066	
11.805	-0.225	0.139	
11.810	-0.478	0.155	
11.815	0.901	0.121	
11.820	0.331	0.159	
11.825	-0.566	0.194	
11.830	0.421	0.158	
11.835	0.919	0.166	
11.840	-0.449	0.223	
11.845	-0.104	0.206	
11.850	1.298	0.189	
11.855	-0.052	0.259	
11.860	-0.307	0.286	
11.865	1.327	0.277	
11.870	0.805	0.367	
11.875	-0.339	0.463	
11.880	0.883	0.472	
11.885	1.304	0.515	
11.890	-0.306	0.588	
11.895	0.038	0.549	
11.900	1.346	0.480	
11.905	-0.113	0.478	
11.910	-0.417	0.422	
11.915	0.967	0.317	
11.920	0.310	0.291	
11.925	-0.604	0.270	
11.930	0.299	0.182	
11.935	0.687	0.137	
11.940	-0.613	0.138	
11.945	-0.350	0.072	
11.950	0.719	-0.001	
11.955	-0.407	-0.005	
11.960	-0.643	-0.040	
11.965	0.585	-0.101	
11.970	0.052	-0.086	
11.975	-0.691	-0.063	
11.980	0.162	-0.094	
11.985	0.614	-0.080	
11.990	-0.607	-0.023	
11.995	-0.301	-0.032	
12.000	0.864	-0.046	
12.005	-0.332	0.006	
12.010	-0.559	0.014	
12.015	0.825	-0.014	
12.020	0.233	0.036	
12.025	-0.616	0.085	
12.030	0.316	0.062	
12.035	0.724	0.074	
12.040	-0.581	0.120	
12.045	-0.307	0.086	
12.050	0.779	0.035	
12.055	-0.408	0.042	
12.060	-0.659	0.005	
12.065	0.499	-0.070	
12.070	-0.101	-0.083	
12.075	-0.798	-0.097	
12.080	-0.054	-0.167	
12.085	0.368	-0.195	
12.090	-0.709	-0.175	
12.095	-0.388	-0.198	
12.100	0.715	-0.209	
12.105	-0.385	-0.146	
12.110	-0.569	-0.116	
12.115	0.870	-0.110	
12.120	0.421	-0.014	
12.125	-0.466	0.094	
12.130	0.571	0.132	
12.135	0.805	0.195	
12.140	-0.614	0.262	
12.145	-0.408	0.208	
12.150	0.504	0.101	
12.155	-0.532	0.032	
12.160	-0.738	-0.067	
12.165	0.447	-0.176	
12.170	-0.049	-0.192	
12.175	-0.689	-0.180	
12.180	0.261	-0.195	
12.185	0.718	-0.141	
12.190	-0.544	-0.035	
12.195	-0.199	-0.003	
12.200	1.023	0.017	
12.205	-0.272	0.097	
12.210	-0.489	0.117	
12.215	0.897	0.090	
12.220	0.270	0.132	
12.225	-0.579	0.168	
12.230	0.460	0.135	
12.235	0.895	0.151	
12.240	-0.465	0.213	
12.245	-0.109	0.198	
12.250	1.214	0.178	
12.255	-0.150	0.236	
12.260	-0.361	0.246	
12.265	1.205	0.221	
12.270	0.603	0.291	
12.275	-0.408	0.363	
12.280	0.809	0.360	
12.285	1.210	0.403	
12.290	-0.339	0.483	
12.295	0.041	0.460	
12.300	1.306	0.412	
12.305	-0.162	0.427	
12.310	-0.420	0.382	
12.315	0.944	0.286	
12.320	0.203	0.264	
12.325	-0.636	0.237	
12.330	0.266	0.143	
12.335	0.588	0.092	
12.340	-0.651	0.087	
12.345	-0.335	0.020	
12.350	0.712	-0.045	
12.355	-0.434	-0.038	
12.360	-0.640	-0.065	
12.365	0.556	-0.119	
12.370	-0.081	-0.106	
12.375	-0.735	-0.096	
12.380	0.133	-0.139	
12.385	0.545	-0.131	
12.390	-0.628	-0.075	
12.395	-0.275	-0.079	
12.400	0.866	-0.081	
12.405	-0.344	-0.016	
12.410	-0.541	0.002	
12.415	0.800	-0.018	
12.420	0.134	0.030	
12.425	-0.633	0.069	
12.430	0.360	0.039	
12.435	0.736	0.056	
12.440	-0.558	0.112	
12.445	-0.217	0.092	
12.450	0.910	0.061	
12.455	-0.365	0.092	
12.460	-0.552	0.073	
12.465	0.741	0.016	
12.470	0.044	0.031	
12.475	-0.676	0.039	
12.480	0.256	-0.013	
12.485	0.592	-0.016	
12.490	-0.619	0.024	
12.495	-0.265	-0.003	
12.500	0.893	-0.028	
12.505	-0.323	0.021	
12.510	-0.492	0.029	
12.515	0.958	0.012	
12.520	0.406	0.086	
12.525	-0.407	0.169	
12.530	0.929	0.203	
12.535	1.207	0.305	
12.540	-0.393	0.435	
12.545	-0.130	0.432	
12.550	0.808	0.358	
12.555	-0.489	0.301	
12.560	-0.705	0.178	
12.565	0.440	0.017	
12.570	-0.122	-0.063	
12.575	-0.711	-0.114	
12.580	0.278	-0.177	
12.585	0.678	-0.151	
12.590	-0.552	-0.060	
12.595	-0.168	-0.032	
12.600	1.039	-0.005	
12.605	-0.268	0.085	
12.610	-0.433	0.116	
12.615	1.005	0.105	
12.620	0.318	0.167	
12.625	-0.527	0.218	
12.630	0.586	0.196	
12.635	0.955	0.223	
12.640	-0.433	0.290	
12.645	-0.002	0.274	
12.650	1.285	0.254	
12.655	-0.130	0.310	
12.660	-0.280	0.315	
12.665	1.375	0.291	
12.670	0.724	0.372	
12.675	-0.307	0.460	
12.680	1.080	0.473	
12.685	1.450	0.544	
12.690	-0.194	0.654	
12.695	0.415	0.655	
12.700	1.663	0.641	
12.705	0.119	0.694	
12.710	-0.181	0.671	
12.715	1.411	0.590	
12.720	0.594	0.591	
12.725	-0.439	0.582	
12.730	0.675	0.488	
12.735	0.906	0.436	
12.740	-0.503	0.421	
12.745	-0.164	0.324	
12.750	0.938	0.221	
12.755	-0.339	0.193	
12.760	-0.515	0.132	
12.765	0.803	0.051	
12.770	0.047	0.055	
12.775	-0.647	0.058	
12.780	0.316	0.006	
12.785	0.632	0.008	
12.790	-0.592	0.053	
12.795	-0.214	0.030	
12.800	0.903	0.008	
12.805	-0.352	0.053	
12.810	-0.511	0.051	
12.815	0.823	0.015	
12.820	0.119	0.052	
12.825	-0.604	0.082	
12.830	0.427	0.051	
12.835	0.741	0.072	
12.840	-0.553	0.132	
12.845	-0.165	0.112	
12.850	0.948	0.085	
12.855	-0.347	0.120	
12.860	-0.520	0.102	
12.865	0.728	0.045	
12.870	-0.038	0.050	
12.875	-0.697	0.041	
12.880	0.227	-0.027	
12.885	0.504	-0.043	
12.890	-0.665	-0.017	
12.895	-0.294	-0.052	
12.900	0.745	-0.084	
12.905	-0.436	-0.048	
12.910	-0.576	-0.055	
12.915	0.731	-0.087	
12.920	0.030	-0.045	
12.925	-0.585	-0.006	
12.930	0.678	-0.007	
12.935	1.127	0.081	
12.940	-0.347	0.229	
12.945	0.084	0.283	
12.950	1.109	0.300	
12.955	-0.430	0.340	
12.960	-0.700	0.276	
12.965	0.288	0.122	
12.970	-0.297	0.005	
12.975	-0.859	-0.107	
12.980	0.010	-0.235	
12.985	0.379	-0.276	
12.990	-0.677	-0.241	
12.995	-0.260	-0.236	
13.000	0.811	-0.208	
13.005	-0.410	-0.112	
13.010	-0.544	-0.069	
13.015	0.806	-0.068	
13.020	0.084	-0.001	
13.025	-0.614	0.048	
13.030	0.479	0.033	
13.035	0.761	0.070	
13.040	-0.537	0.143	
13.045	-0.112	0.133	
13.050	1.087	0.119	
13.055	-0.268	0.173	
13.060	-0.387	0.175	
13.065	1.158	0.149	
13.070	0.438	0.218	
13.075	-0.423	0.286	
13.080	0.910	0.290	
13.085	1.191	0.358	
13.090	-0.318	0.462	
13.095	0.311	0.468	
13.100	1.518	0.469	
13.105	-0.060	0.535	
13.110	-0.254	0.521	
13.115	1.292	0.452	
13.120	0.409	0.460	
13.125	-0.500	0.454	
13.130	0.625	0.369	
13.135	0.776	0.329	
13.140	-0.581	0.323	
13.145	-0.211	0.232	
13.150	0.791	0.135	
13.155	-0.457	0.105	
13.160	-0.599	0.037	
13.165	0.608	-0.051	
13.170	-0.147	-0.064	
13.175	-0.755	-0.078	
13.180	0.168	-0.140	
13.185	0.389	-0.146	
13.190	-0.718	-0.111	
13.195	-0.309	-0.136	
13.200	0.681	-0.154	
13.205	-0.489	-0.108	
13.210	-0.610	-0.107	
13.215	0.672	-0.135	
13.220	-0.078	-0.093	
13.225	-0.689	-0.064	
13.230	0.314	-0.090	
13.235	0.554	-0.064	
13.240	-0.631	-0.002	
13.245	-0.211	-0.014	
13.250	0.860	-0.026	
13.255	-0.410	0.023	
13.260	-0.535	0.021	
13.265	0.771	-0.017	
13.270	-0.060	0.011	
13.275	-0.717	0.020	
13.280	0.217	-0.038	
13.285	0.417	-0.054	
13.290	-0.709	-0.036	
13.295	-0.286	-0.080	
13.300	0.728	-0.112	
13.305	-0.477	-0.075	
13.310	-0.590	-0.081	
13.315	0.672	-0.114	
13.320	-0.116	-0.080	
13.325	-0.706	-0.061	
13.330	0.343	-0.095	
13.335	0.628	-0.066	
13.340	-0.535	0.009	
13.345	0.081	0.028	
13.350	1.376	0.078	
13.355	-0.199	0.210	
13.360	-0.411	0.262	
13.365	0.727	0.226	
13.370	-0.252	0.203	
13.375	-0.897	0.123	
13.380	-0.136	-0.040	
13.385	0.004	-0.166	
13.390	-0.859	-0.243	
13.395	-0.396	-0.334	
13.400	0.589	-0.365	
13.405	-0.495	-0.300	
13.410	-0.562	-0.257	
13.415	0.779	-0.228	
13.420	-0.028	-0.126	
13.425	-0.653	-0.050	
13.430	0.408	-0.046	
13.435	0.600	-0.000	
13.440	-0.602	0.069	
13.445	-0.147	0.055	
13.450	0.956	0.041	
13.455	-0.358	0.092	
13.460	-0.431	0.091	
13.465	1.060	0.066	
13.470	0.255	0.132	
13.475	-0.495	0.189	
13.480	0.819	0.186	
13.485	1.060	0.252	
13.490	-0.370	0.356	
13.495	0.327	0.372	
13.500	1.509	0.393	
13.505	-0.064	0.483	
13.510	-0.185	0.493	
13.515	1.462	0.454	
13.520	0.551	0.503	
13.525	-0.384	0.535	
13.530	0.936	0.485	
13.535	1.019	0.487	
13.540	-0.451	0.514	
13.545	0.026	0.439	
13.550	1.106	0.354	
13.555	-0.333	0.335	
13.560	-0.465	0.262	
13.565	0.845	0.159	
13.570	-0.054	0.133	
13.575	-0.665	0.099	
13.580	0.403	0.019	
13.585	0.565	0.008	
13.590	-0.637	0.043	
13.595	-0.193	0.011	
13.600	0.825	-0.017	
13.605	-0.431	0.021	
13.610	-0.504	0.010	
13.615	0.872	-0.023	
13.620	0.021	0.023	
13.625	-0.605	0.056	
13.630	0.562	0.032	
13.635	0.719	0.072	
13.640	-0.558	0.145	
13.645	-0.090	0.132	
13.650	0.991	0.112	
13.655	-0.352	0.153	
13.660	-0.428	0.139	
13.665	1.016	0.097	
13.670	0.122	0.138	
13.675	-0.555	0.165	
13.680	0.620	0.131	
13.685	0.699	0.154	
13.690	-0.582	0.203	
13.695	-0.121	0.163	
13.700	0.921	0.117	
13.705	-0.399	0.134	
13.710	-0.469	0.102	
13.715	0.880	0.046	
13.720	-0.013	0.069	
13.725	-0.613	0.079	
13.730	0.512	0.035	
13.735	0.617	0.055	
13.740	-0.592	0.108	
13.745	-0.087	0.084	
13.750	1.055	0.070	
13.755	-0.254	0.132	
13.760	-0.232	0.152	
13.765	1.347	0.163	
13.770	0.290	0.266	
13.775	-0.559	0.330	
13.780	0.392	0.281	
13.785	0.372	0.232	
13.790	-0.720	0.185	
13.795	-0.248	0.067	
13.800	0.745	-0.025	
13.805	-0.433	-0.029	
13.810	-0.436	-0.051	
13.815	1.051	-0.064	
13.820	0.172	0.026	
13.825	-0.504	0.107	
13.830	0.753	0.123	
13.835	0.869	0.194	
13.840	-0.469	0.287	
13.845	0.101	0.281	
13.850	1.199	0.269	
13.855	-0.240	0.318	
13.860	-0.281	0.303	
13.865	1.251	0.261	
13.870	0.301	0.308	
13.875	-0.433	0.340	
13.880	0.929	0.310	
13.885	1.026	0.351	
13.890	-0.385	0.426	
13.895	0.314	0.411	
13.900	1.414	0.404	
13.905	-0.113	0.466	
13.910	-0.147	0.458	
13.915	1.531	0.422	
13.920	0.603	0.488	
13.925	-0.295	0.544	
13.930	1.150	0.524	
13.935	1.187	0.565	
13.940	-0.338	0.628	
13.945	0.304	0.581	
13.950	1.249	0.520	
13.955	-0.284	0.511	
13.960	-0.364	0.426	
13.965	0.991	0.305	
13.970	-0.045	0.262	
13.975	-0.636	0.205	
13.980	0.424	0.098	
13.985	0.434	0.057	
13.990	-0.668	0.055	
13.995	-0.190	-0.006	
14.000	0.730	-0.050	
14.005	-0.486	-0.026	
14.010	-0.514	-0.044	
14.015	0.741	-0.081	
14.020	-0.139	-0.046	
14.025	-0.662	-0.029	
14.030	0.434	-0.063	
14.035	0.481	-0.037	
14.040	-0.616	0.019	
14.045	-0.107	0.004	
14.050	0.892	-0.002	
14.055	-0.396	0.055	
14.060	-0.411	0.058	
14.065	0.959	0.037	
14.070	0.017	0.090	
14.075	-0.538	0.121	
14.080	0.707	0.097	
14.085	0.716	0.141	
14.090	-0.527	0.211	
14.095	0.026	0.192	
14.100	0.982	0.171	
14.105	-0.393	0.202	
14.110	-0.428	0.170	
14.115	0.867	0.105	
14.120	-0.097	0.109	
14.125	-0.631	0.094	
14.130	0.443	0.026	
14.135	0.411	0.019	
14.140	-0.671	0.039	
14.145	-0.161	-0.008	
14.150	0.753	-0.041	
14.155	-0.469	-0.009	
14.160	-0.448	-0.021	
14.165	0.959	-0.042	
14.170	0.108	0.029	
14.175	-0.431	0.092	
14.180	0.893	0.113	
14.185	0.765	0.200	
14.190	-0.604	0.290	
14.195	-0.236	0.250	
14.200	0.362	0.151	
14.205	-0.735	0.063	
14.210	-0.758	-0.078	
14.215	0.264	-0.225	
14.220	-0.352	-0.282	
14.225	-0.784	-0.315	
14.230	0.261	-0.349	
14.235	0.295	-0.300	
14.240	-0.708	-0.214	
14.245	-0.190	-0.193	
14.250	0.701	-0.164	
14.255	-0.514	-0.088	
14.260	-0.500	-0.072	
14.265	0.811	-0.084	
14.270	-0.124	-0.028	
14.275	-0.636	0.002	
14.280	0.519	-0.025	
14.285	0.527	0.010	
14.290	-0.604	0.070	
14.295	-0.031	0.053	
14.300	0.991	0.051	
14.305	-0.356	0.113	
14.310	-0.333	0.121	
14.315	1.167	0.109	
14.320	0.175	0.183	
14.325	-0.442	0.236	
14.330	0.938	0.229	
14.335	0.906	0.291	
14.340	-0.439	0.374	
14.345	0.249	0.359	
14.350	1.176	0.342	
14.355	-0.332	0.376	
14.360	-0.356	0.330	
14.365	0.939	0.242	
14.370	-0.119	0.218	
14.375	-0.662	0.168	
14.380	0.371	0.063	
14.385	0.266	0.016	
14.390	-0.750	-0.003	
14.395	-0.257	-0.081	
14.400	0.482	-0.140	
14.405	-0.643	-0.141	
14.410	-0.636	-0.181	
14.415	0.469	-0.235	
14.420	-0.339	-0.219	
14.425	-0.801	-0.218	
14.430	0.183	-0.258	
14.435	0.160	-0.243	
14.440	-0.761	-0.203	
14.445	-0.226	-0.219	
14.450	0.597	-0.215	
14.455	-0.573	-0.155	
14.460	-0.544	-0.147	
14.465	0.673	-0.162	
14.470	-0.223	-0.113	
14.475	-0.697	-0.089	
14.480	0.386	-0.118	
14.485	0.322	-0.092	
14.490	-0.695	-0.047	
14.495	-0.155	-0.072	
14.500	0.706	-0.085	
14.505	-0.532	-0.043	
14.510	-0.514	-0.054	
14.515	0.667	-0.091	
14.520	-0.268	-0.067	
14.525	-0.746	-0.071	
14.530	0.285	-0.128	
14.535	0.208	-0.131	
14.540	-0.758	-0.111	
14.545	-0.229	-0.151	
14.550	0.576	-0.173	
14.555	-0.590	-0.136	
14.560	-0.562	-0.147	
14.565	0.638	-0.175	
14.570	-0.249	-0.135	
14.575	-0.689	-0.116	
14.580	0.583	-0.133	
14.585	0.713	-0.062	
14.590	-0.442	0.057	
14.595	0.325	0.112	
14.600	1.115	0.179	
14.605	-0.469	0.276	
14.610	-0.581	0.253	
14.615	0.342	0.136	
14.620	-0.468	0.037	
14.625	-0.906	-0.088	
14.630	0.056	-0.236	
14.635	0.073	-0.298	
14.640	-0.769	-0.300	
14.645	-0.176	-0.321	
14.650	0.686	-0.292	
14.655	-0.538	-0.194	
14.660	-0.477	-0.150	
14.665	0.831	-0.131	
14.670	-0.170	-0.051	
14.675	-0.636	-0.009	
14.680	0.592	-0.025	
14.685	0.495	0.019	
14.690	-0.605	0.083	
14.695	0.070	0.069	
14.700	0.999	0.074	
14.705	-0.394	0.140	
14.710	-0.312	0.142	
14.715	1.197	0.125	
14.720	0.139	0.196	
14.725	-0.425	0.243	
14.730	1.078	0.239	
14.735	1.014	0.319	
14.740	-0.346	0.427	
14.745	0.594	0.444	
14.750	1.485	0.477	
14.755	-0.176	0.562	
14.760	-0.129	0.546	
14.765	1.428	0.484	
14.770	0.243	0.501	
14.775	-0.431	0.485	
14.780	0.910	0.401	
14.785	0.692	0.382	
14.790	-0.558	0.382	
14.795	0.047	0.294	
14.800	0.845	0.214	
14.805	-0.523	0.191	
14.810	-0.475	0.114	
14.815	0.756	0.021	
14.820	-0.252	0.008	
14.825	-0.721	-0.022	
14.830	0.377	-0.093	
14.835	0.252	-0.098	
14.840	-0.717	-0.075	
14.845	-0.115	-0.109	
14.850	0.715	-0.117	
14.855	-0.549	-0.064	
14.860	-0.477	-0.065	
14.865	0.803	-0.086	
14.870	-0.207	-0.038	
14.875	-0.647	-0.019	
14.880	0.557	-0.050	
14.885	0.412	-0.015	
14.890	-0.648	0.039	
14.895	0.009	0.018	
14.900	0.892	0.016	
14.905	-0.456	0.074	
14.910	-0.364	0.071	
14.915	1.007	0.049	
14.920	-0.110	0.099	
14.925	-0.572	0.116	
14.930	0.680	0.076	
14.935	0.443	0.099	
14.940	-0.666	0.134	
14.945	-0.069	0.082	
14.950	0.750	0.039	
14.955	-0.544	0.051	
14.960	-0.462	0.011	
14.965	0.806	-0.041	
14.970	-0.225	-0.017	
14.975	-0.656	-0.015	
14.980	0.573	-0.056	
14.985	0.409	-0.025	
14.990	-0.640	0.030	
14.995	0.113	0.017	
15.000	1.126	0.040	
15.005	-0.246	0.141	
15.010	-0.045	0.192	
15.015	1.538	0.238	
15.020	0.203	0.365	
15.025	-0.547	0.425	
15.030	0.464	0.356	
15.035	0.059	0.277	
15.040	-0.850	0.175	
15.045	-0.246	0.005	
15.050	0.557	-0.116	
15.055	-0.569	-0.140	
15.060	-0.428	-0.172	
15.065	0.938	-0.179	
15.070	-0.144	-0.089	
15.075	-0.562	-0.024	
15.080	0.797	-0.010	
15.085	0.621	0.075	
15.090	-0.535	0.173	
15.095	0.288	0.181	
15.100	1.147	0.207	
15.105	-0.344	0.285	
15.110	-0.219	0.281	
15.115	1.303	0.252	
15.120	0.143	0.308	
15.125	-0.393	0.334	
15.130	1.173	0.309	
15.135	1.011	0.377	
15.140	-0.338	0.472	
15.145	0.750	0.482	
15.150	1.644	0.528	
15.155	-0.048	0.637	
15.160	0.220	0.654	
15.165	1.876	0.647	
15.170	0.655	0.737	
15.175	-0.155	0.786	
15.180	1.535	0.751	
15.185	1.245	0.787	
15.190	-0.271	0.833	
15.195	0.730	0.768	
15.200	1.443	0.716	
15.205	-0.265	0.713	
15.210	-0.197	0.613	
15.215	1.202	0.475	
15.220	-0.075	0.419	
15.225	-0.552	0.336	
15.230	0.725	0.213	
15.235	0.444	0.175	
15.240	-0.637	0.169	
15.245	0.044	0.099	
15.250	0.840	0.059	
15.255	-0.511	0.085	
15.260	-0.373	0.056	
15.265	0.952	0.018	
15.270	-0.164	0.059	
15.275	-0.567	0.070	
15.280	0.761	0.039	
15.285	0.512	0.083	
15.290	-0.573	0.146	
15.295	0.232	0.131	
15.300	1.043	0.143	
15.305	-0.410	0.210	
15.310	-0.263	0.203	
15.315	1.188	0.173	
15.320	-0.035	0.223	
15.325	-0.468	0.236	
15.330	0.967	0.199	
15.335	0.669	0.242	
15.340	-0.526	0.301	
15.345	0.266	0.269	
15.350	0.987	0.249	
15.355	-0.454	0.276	
15.360	-0.330	0.227	
15.365	0.993	0.155	
15.370	-0.168	0.160	
15.375	-0.561	0.137	
15.380	0.786	0.077	
15.385	0.501	0.103	
15.390	-0.585	0.153	
15.395	0.211	0.128	
15.400	1.000	0.130	
15.405	-0.417	0.190	
15.410	-0.229	0.182	
15.415	1.361	0.166	
15.420	0.299	0.257	
15.425	-0.200	0.335	
15.430	1.465	0.375	
15.435	0.990	0.497	
15.440	-0.489	0.601	
15.445	0.073	0.546	
15.450	0.573	0.428	
15.455	-0.692	0.316	
15.460	-0.552	0.139	
15.465	0.626	-0.027	
15.470	-0.300	-0.086	
15.475	-0.601	-0.125	
15.480	0.823	-0.153	
15.485	0.577	-0.063	
15.490	-0.523	0.060	
15.495	0.380	0.105	
15.500	1.133	0.171	
15.505	-0.359	0.278	
15.510	-0.177	0.290	
15.515	1.315	0.270	
15.520	0.041	0.325	
15.525	-0.402	0.339	
15.530	1.091	0.298	
15.535	0.753	0.339	
15.540	-0.423	0.398	
15.545	0.614	0.377	
15.550	1.402	0.399	
15.555	-0.202	0.484	
15.560	0.055	0.486	
15.565	1.644	0.468	
15.570	0.400	0.546	
15.575	-0.182	0.588	
15.580	1.549	0.573	
15.585	1.213	0.650	
15.590	-0.237	0.741	
15.595	0.915	0.725	
15.600	1.558	0.729	
15.605	-0.196	0.773	
15.610	-0.037	0.704	
15.615	1.411	0.593	
15.620	0.020	0.558	
15.625	-0.443	0.485	
15.630	0.892	0.360	
15.635	0.420	0.314	
15.640	-0.628	0.284	
15.645	0.094	0.183	
15.650	0.724	0.112	
15.655	-0.566	0.102	
15.660	-0.381	0.042	
15.665	0.849	-0.018	
15.670	-0.240	0.006	
15.675	-0.575	0.007	
15.680	0.722	-0.024	
15.685	0.353	0.021	
15.690	-0.610	0.077	
15.695	0.214	0.060	
15.700	0.869	0.073	
15.705	-0.492	0.133	
15.710	-0.291	0.119	
15.715	1.017	0.088	
15.720	-0.181	0.128	
15.725	-0.508	0.131	
15.730	0.892	0.095	
15.735	0.505	0.141	
15.740	-0.552	0.201	
15.745	0.308	0.179	
15.750	0.921	0.181	
15.755	-0.480	0.226	
15.760	-0.297	0.191	
15.765	0.941	0.132	
15.770	-0.262	0.140	
15.775	-0.613	0.109	
15.780	0.628	0.034	
15.785	0.197	0.030	
15.790	-0.682	0.038	
15.795	0.075	-0.016	
15.800	0.706	-0.031	
15.805	-0.567	0.009	
15.810	-0.352	-0.008	
15.815	0.886	-0.033	
15.820	-0.252	0.014	
15.825	-0.550	0.027	
15.830	0.883	0.007	
15.835	0.626	0.081	
15.840	-0.393	0.182	
15.845	0.701	0.224	
15.850	1.168	0.303	
15.855	-0.463	0.405	
15.860	-0.413	0.373	
15.865	0.466	0.250	
15.870	-0.524	0.143	
15.875	-0.830	-0.001	
15.880	0.233	-0.162	
15.885	-0.055	-0.230	
15.890	-0.744	-0.250	
15.895	0.047	-0.283	
15.900	0.706	-0.244	
15.905	-0.546	-0.138	
15.910	-0.301	-0.092	
15.915	0.974	-0.060	
15.920	-0.232	0.032	
15.925	-0.547	0.069	
15.930	0.783	0.050	
15.935	0.357	0.095	
15.940	-0.584	0.141	
15.945	0.328	0.116	
15.950	0.930	0.128	
15.955	-0.453	0.191	
15.960	-0.197	0.178	
15.965	1.179	0.155	
15.970	-0.112	0.209	
15.975	-0.404	0.223	
15.980	1.149	0.199	
15.985	0.738	0.272	
15.990	-0.382	0.361	
15.995	0.782	0.373	
16.000	1.349	0.427	
16.005	-0.275	0.522	
16.010	-0.017	0.509	
16.015	1.369	0.457	
16.020	-0.048	0.471	
16.025	-0.416	0.430	
16.030	0.981	0.335	
16.035	0.397	0.317	
16.040	-0.604	0.303	
16.045	0.218	0.213	
16.050	0.686	0.153	
16.055	-0.602	0.141	
16.060	-0.378	0.068	
16.065	0.707	-0.011	
16.070	-0.391	-0.018	
16.075	-0.668	-0.052	
16.080	0.525	-0.115	
16.085	-0.002	-0.107	
16.090	-0.761	-0.094	
16.095	-0.013	-0.142	
16.100	0.507	-0.152	
16.105	-0.654	-0.113	
16.110	-0.393	-0.128	
16.115	0.741	-0.144	
16.120	-0.364	-0.092	
16.125	-0.643	-0.078	
16.130	0.583	-0.107	
16.135	0.087	-0.073	
16.140	-0.694	-0.040	
16.145	0.134	-0.070	
16.150	0.652	-0.061	
16.155	-0.599	-0.007	
16.160	-0.339	-0.020	
16.165	0.806	-0.044	
16.170	-0.344	-0.005	
16.175	-0.634	-0.009	
16.180	0.548	-0.058	
16.185	-0.025	-0.051	
16.190	-0.778	-0.052	
16.195	-0.043	-0.117	
16.200	0.440	-0.147	
16.205	-0.727	-0.130	
16.210	-0.503	-0.167	
16.215	0.452	-0.214	
16.220	-0.532	-0.204	
16.225	-0.795	-0.226	
16.230	0.292	-0.279	
16.235	-0.129	-0.270	
16.240	-0.805	-0.251	
16.245	0.015	-0.275	
16.250	0.689	-0.240	
16.255	-0.537	-0.139	
16.260	-0.295	-0.095	
16.265	0.756	-0.073	
16.270	-0.478	-0.015	
16.275	-0.842	-0.031	
16.280	0.020	-0.133	
16.285	-0.338	-0.211	
16.290	-0.993	-0.286	
16.295	-0.292	-0.391	
16.300	0.119	-0.438	
16.305	-0.810	-0.420	
16.310	-0.508	-0.426	
16.315	0.557	-0.409	
16.320	-0.462	-0.319	
16.325	-0.700	-0.264	
16.330	0.476	-0.253	
16.335	-0.058	-0.192	
16.340	-0.752	-0.144	
16.345	0.113	-0.161	
16.350	0.675	-0.133	
16.355	-0.556	-0.053	
16.360	-0.232	-0.034	
16.365	1.043	-0.018	
16.370	-0.211	0.069	
16.375	-0.443	0.107	
16.380	1.040	0.104	
16.385	0.522	0.182	
16.390	-0.446	0.263	
16.395	0.750	0.272	
16.400	1.277	0.333	
16.405	-0.269	0.442	
16.410	0.206	0.458	
16.415	1.587	0.461	
16.420	0.142	0.540	
16.425	-0.234	0.554	
16.430	1.364	0.507	
16.435	0.721	0.539	
16.440	-0.416	0.565	
16.445	0.657	0.499	
16.450	1.036	0.464	
16.455	-0.433	0.466	
16.460	-0.142	0.383	
16.465	1.074	0.288	
16.470	-0.254	0.269	
16.475	-0.504	0.213	
16.480	0.809	0.125	
16.485	0.148	0.117	
16.490	-0.665	0.112	
16.495	0.201	0.043	
16.500	0.638	0.019	
16.505	-0.602	0.044	
16.510	-0.297	0.008	
16.515	0.855	-0.026	
16.520	-0.335	0.011	
16.525	-0.544	0.011	
16.530	0.805	-0.020	
16.535	0.189	0.027	
16.540	-0.624	0.071	
16.545	0.330	0.045	
16.550	0.756	0.061	
16.555	-0.537	0.118	
16.560	-0.210	0.100	
16.565	1.000	0.074	
16.570	-0.280	0.118	
16.575	-0.500	0.115	
16.580	0.855	0.073	
16.585	0.194	0.103	
16.590	-0.636	0.127	
16.595	0.261	0.078	
16.600	0.612	0.062	
16.605	-0.619	0.083	
16.610	-0.298	0.035	
16.615	0.782	-0.015	
16.620	-0.401	0.003	
16.625	-0.592	-0.017	
16.630	0.670	-0.065	
16.635	0.041	-0.041	
16.640	-0.671	-0.018	
16.645	0.252	-0.051	
16.650	0.647	-0.036	
16.655	-0.518	0.025	
16.660	-0.032	0.031	
16.665	1.469	0.070	
16.670	0.075	0.213	
16.675	-0.217	0.309	
16.680	1.280	0.341	
16.685	0.388	0.420	
16.690	-0.582	0.450	
16.695	0.394	0.363	
16.700	0.838	0.302	
16.705	-0.373	0.294	
16.710	0.397	0.259	
16.715	2.027	0.307	
16.720	0.867	0.519	
16.725	0.744	0.735	
16.730	2.626	0.936	
16.735	2.018	1.231	
16.740	0.764	1.492	
16.745	2.276	1.614	
16.750	2.594	1.740	
16.755	0.898	1.867	
16.760	1.644	1.864	
16.765	2.867	1.843	
16.770	1.402	1.898	
16.775	1.071	1.886	
16.780	2.753	1.822	
16.785	1.981	1.850	
16.790	0.672	1.862	
16.795	2.139	1.777	
16.800	2.355	1.744	
16.805	0.562	1.748	
16.810	1.292	1.648	
16.815	2.498	1.554	
16.820	0.996	1.558	
16.825	0.654	1.509	
16.830	2.317	1.420	
16.835	1.506	1.428	
16.840	0.172	1.422	
16.845	1.611	1.316	
16.850	1.734	1.258	
16.855	-0.103	1.227	
16.860	0.412	1.075	
16.865	1.442	0.901	
16.870	-0.127	0.796	
16.875	-0.350	0.636	
16.880	0.942	0.445	
16.885	0.087	0.344	
16.890	-0.630	0.253	
16.895	0.249	0.119	
16.900	0.437	0.045	
16.905	-0.689	0.021	
16.910	-0.350	-0.055	
16.915	0.473	-0.124	
16.920	-0.569	-0.134	
16.925	-0.715	-0.178	
16.930	0.324	-0.244	
16.935	-0.248	-0.246	
16.940	-0.839	-0.248	
16.945	-0.083	-0.296	
16.950	0.084	-0.308	
16.955	-0.830	-0.291	
16.960	-0.453	-0.322	
16.965	0.313	-0.344	
16.970	-0.639	-0.313	
16.975	-0.764	-0.319	
16.980	0.236	-0.353	
16.985	-0.317	-0.332	
16.990	-0.920	-0.321	
16.995	-0.173	-0.364	
17.000	-0.071	-0.380	
17.005	-0.937	-0.375	
17.010	-0.578	-0.420	
17.015	0.036	-0.459	
17.020	-0.776	-0.453	
17.025	-0.891	-0.477	
17.030	-0.019	-0.520	
17.035	-0.443	-0.509	
17.040	-0.993	-0.497	
17.045	-0.237	-0.522	
17.050	-0.110	-0.511	
17.055	-0.929	-0.475	
17.060	-0.500	-0.484	
17.065	0.371	-0.471	
17.070	-0.526	-0.390	
17.075	-0.578	-0.337	
17.080	0.594	-0.299	
17.085	-0.220	-0.207	
17.090	-0.918	-0.159	
17.095	-0.310	-0.215	
17.100	-0.333	-0.289	
17.105	-0.995	-0.364	
17.110	-0.786	-0.476	
17.115	-0.176	-0.570	
17.120	-0.871	-0.604	
17.125	-0.925	-0.640	
17.130	-0.008	-0.666	
17.135	-0.426	-0.619	
17.140	-0.958	-0.565	
17.145	-0.156	-0.550	
17.150	-0.017	-0.500	
17.155	-0.870	-0.432	
17.160	-0.443	-0.421	
17.165	0.359	-0.402	
17.170	-0.627	-0.335	
17.175	-0.709	-0.314	
17.180	0.441	-0.320	
17.185	-0.220	-0.266	
17.190	-0.779	-0.226	
17.195	0.169	-0.239	
17.200	0.382	-0.204	
17.205	-0.679	-0.138	
17.210	-0.211	-0.134	
17.215	0.890	-0.117	
17.220	-0.367	-0.032	
17.225	-0.431	0.003	
17.230	1.010	0.010	
17.235	0.157	0.092	
17.240	-0.544	0.151	
17.245	0.612	0.138	
17.250	0.728	0.171	
17.255	-0.566	0.225	
17.260	-0.145	0.185	
17.265	0.806	0.128	
17.270	-0.494	0.122	
17.275	-0.617	0.060	
17.280	0.489	-0.039	
17.285	-0.272	-0.077	
17.290	-0.856	-0.123	
17.295	-0.060	-0.217	
17.300	0.029	-0.267	
17.305	-0.873	-0.283	
17.310	-0.446	-0.338	
17.315	0.295	-0.371	
17.320	-0.691	-0.344	
17.325	-0.761	-0.352	
17.330	0.272	-0.381	
17.335	-0.350	-0.351	
17.340	-0.879	-0.332	
17.345	-0.023	-0.359	
17.350	0.122	-0.344	
17.355	-0.815	-0.300	
17.360	-0.358	-0.309	
17.365	0.510	-0.304	
17.370	-0.579	-0.241	
17.375	-0.628	-0.225	
17.380	0.585	-0.233	
17.385	-0.185	-0.178	
17.390	-0.729	-0.141	
17.395	0.284	-0.160	
17.400	0.372	-0.130	
17.405	-0.721	-0.077	
17.410	-0.283	-0.099	
17.415	0.562	-0.125	
17.420	-0.579	-0.103	
17.425	-0.651	-0.130	
17.430	0.478	-0.185	
17.435	-0.275	-0.176	
17.440	-0.804	-0.180	
17.445	0.157	-0.228	
17.450	0.250	-0.221	
17.455	-0.758	-0.181	
17.460	-0.275	-0.199	
17.465	0.664	-0.201	
17.470	-0.494	-0.139	
17.475	-0.472	-0.120	
17.480	1.081	-0.104	
17.485	0.310	0.015	
17.490	-0.454	0.128	
17.495	0.747	0.167	
17.500	0.576	0.230	
17.505	-0.772	0.270	
17.510	-0.416	0.176	
17.515	0.186	0.032	
17.520	-0.764	-0.082	
17.525	-0.760	-0.220	
17.530	0.397	-0.334	
17.535	-0.268	-0.339	
17.540	-0.743	-0.320	
17.545	0.331	-0.317	
17.550	0.429	-0.241	
17.555	-0.660	-0.135	
17.560	-0.150	-0.106	
17.565	0.855	-0.077	
17.570	-0.436	0.004	
17.575	-0.462	0.020	
17.580	0.907	0.004	
17.585	-0.040	0.056	
17.590	-0.588	0.082	
17.595	0.638	0.053	
17.600	0.696	0.093	
17.605	-0.538	0.164	
17.610	0.084	0.155	
17.615	1.155	0.159	
17.620	-0.277	0.228	
17.625	-0.262	0.236	
17.630	1.335	0.221	
17.635	0.382	0.302	
17.640	-0.364	0.366	
17.645	1.084	0.364	
17.650	1.097	0.429	
17.655	-0.358	0.517	
17.660	0.380	0.500	
17.665	1.321	0.479	
17.670	-0.254	0.508	
17.675	-0.318	0.451	
17.680	1.060	0.348	
17.685	-0.023	0.315	
17.690	-0.614	0.259	
17.695	0.482	0.148	
17.700	0.427	0.102	
17.705	-0.695	0.090	
17.710	-0.202	0.014	
17.715	0.655	-0.046	
17.720	-0.553	-0.042	
17.725	-0.552	-0.078	
17.730	0.681	-0.127	
17.735	-0.200	-0.099	
17.740	-0.672	-0.085	
17.745	0.440	-0.114	
17.750	0.426	-0.078	
17.755	-0.657	-0.016	
17.760	-0.121	-0.030	
17.765	0.803	-0.035	
17.770	-0.475	0.015	
17.775	-0.454	0.009	
17.780	0.892	-0.018	
17.785	-0.081	0.030	
17.790	-0.584	0.054	
17.795	0.651	0.029	
17.800	0.609	0.072	
17.805	-0.564	0.140	
17.810	0.041	0.126	
17.815	0.952	0.117	
17.820	-0.431	0.161	
17.825	-0.436	0.137	
17.830	0.864	0.080	
17.835	-0.135	0.090	
17.840	-0.633	0.077	
17.845	0.533	0.016	
17.850	0.476	0.025	
17.855	-0.628	0.065	
17.860	-0.037	0.034	
17.865	0.907	0.023	
17.870	-0.417	0.075	
17.875	-0.379	0.073	
17.880	1.031	0.052	
17.885	0.055	0.112	
17.890	-0.437	0.153	
17.895	1.126	0.160	
17.900	1.042	0.265	
17.905	-0.433	0.396	
17.910	0.174	0.403	
17.915	0.838	0.367	
17.920	-0.585	0.340	
17.925	-0.611	0.221	
17.930	0.479	0.060	
17.935	-0.329	-0.030	
17.940	-0.750	-0.111	
17.945	0.411	-0.196	
17.950	0.423	-0.179	
17.955	-0.619	-0.108	
17.960	0.029	-0.089	
17.965	0.988	-0.044	
17.970	-0.401	0.060	
17.975	-0.349	0.093	
17.980	1.084	0.091	
17.985	0.017	0.158	
17.990	-0.508	0.190	
17.995	0.831	0.163	
18.000	0.742	0.207	
18.005	-0.497	0.274	
18.010	0.233	0.256	
18.015	1.153	0.252	
18.020	-0.318	0.305	
18.025	-0.239	0.288	
18.030	1.343	0.252	
18.035	0.285	0.314	
18.040	-0.359	0.358	
18.045	1.168	0.347	
18.050	1.091	0.420	
18.055	-0.327	0.517	
18.060	0.589	0.517	
18.065	1.466	0.529	
18.070	-0.179	0.591	
18.075	-0.135	0.557	
18.080	1.393	0.482	
18.085	0.183	0.486	
18.090	-0.457	0.459	
18.095	0.861	0.367	
18.100	0.654	0.342	
18.105	-0.573	0.341	
18.110	0.042	0.256	
18.115	0.900	0.186	
18.120	-0.471	0.181	
18.125	-0.426	0.123	
18.130	0.857	0.051	
18.135	-0.182	0.056	
18.140	-0.643	0.042	
18.145	0.544	-0.016	
18.150	0.423	-0.001	
18.155	-0.636	0.041	
18.160	0.009	0.015	
18.165	0.900	0.013	
18.170	-0.449	0.072	
18.175	-0.382	0.070	
18.180	0.961	0.045	
18.185	-0.116	0.089	
18.190	-0.561	0.103	
18.195	0.733	0.067	
18.200	0.583	0.106	
18.205	-0.572	0.167	
18.210	0.133	0.146	
18.215	0.988	0.140	
18.220	-0.422	0.190	
18.225	-0.349	0.169	
18.230	0.973	0.121	
18.235	-0.138	0.143	
18.240	-0.592	0.132	
18.245	0.657	0.071	
18.250	0.463	0.083	
18.255	-0.622	0.118	
18.260	0.032	0.079	
18.265	0.855	0.059	
18.270	-0.480	0.096	
18.275	-0.388	0.074	
18.280	0.942	0.035	
18.285	-0.139	0.072	
18.290	-0.552	0.082	
18.295	0.817	0.052	
18.300	0.747	0.112	
18.305	-0.398	0.209	
18.310	0.637	0.246	
18.315	1.401	0.323	
18.320	-0.277	0.448	
18.325	-0.265	0.453	
18.330	0.890	0.376	
18.335	-0.281	0.326	
18.340	-0.721	0.223	
18.345	0.368	0.068	
18.350	0.221	-0.009	
18.355	-0.671	-0.039	
18.360	0.068	-0.095	
18.365	0.971	-0.085	
18.370	-0.375	0.011	
18.375	-0.254	0.055	
18.380	1.141	0.078	
18.385	-0.061	0.166	
18.390	-0.508	0.202	
18.395	0.854	0.172	
18.400	0.623	0.210	
18.405	-0.506	0.263	
18.410	0.365	0.240	
18.415	1.161	0.248	
18.420	-0.330	0.315	
18.425	-0.185	0.304	
18.430	1.315	0.271	
18.435	0.128	0.324	
18.440	-0.368	0.345	
18.445	1.165	0.318	
18.450	0.948	0.380	
18.455	-0.342	0.466	
18.460	0.733	0.468	
18.465	1.511	0.504	
18.470	-0.159	0.595	
18.475	0.012	0.585	
18.480	1.540	0.537	
18.485	0.272	0.570	
18.490	-0.324	0.562	
18.495	1.141	0.489	
18.500	0.771	0.489	
18.505	-0.485	0.500	
18.510	0.308	0.419	
18.515	0.961	0.352	
18.520	-0.460	0.335	
18.525	-0.346	0.251	
18.530	0.890	0.152	
18.535	-0.232	0.130	
18.540	-0.624	0.086	
18.545	0.551	0.006	
18.550	0.215	-0.002	
18.555	-0.691	0.007	
18.560	-0.011	-0.044	
18.565	0.690	-0.062	
18.570	-0.553	-0.022	
18.575	-0.393	-0.035	
18.580	0.831	-0.059	
18.585	-0.242	-0.012	
18.590	-0.596	0.002	
18.595	0.658	-0.028	
18.600	0.333	0.011	
18.605	-0.634	0.060	
18.610	0.094	0.035	
18.615	0.794	0.032	
18.620	-0.494	0.079	
18.625	-0.326	0.064	
18.630	0.933	0.035	
18.635	-0.217	0.075	
18.640	-0.584	0.077	
18.645	0.626	0.029	
18.650	0.244	0.042	
18.655	-0.682	0.061	
18.660	0.003	0.007	
18.665	0.646	-0.022	
18.670	-0.587	0.000	
18.675	-0.407	-0.032	
18.680	0.764	-0.071	
18.685	-0.297	-0.039	
18.690	-0.633	-0.038	
18.695	0.573	-0.076	
18.700	0.233	-0.046	
18.705	-0.639	-0.004	
18.710	0.221	-0.021	
18.715	1.032	0.013	
18.720	-0.300	0.119	
18.725	-0.009	0.169	
18.730	1.402	0.212	
18.735	-0.042	0.321	
18.740	-0.552	0.351	
18.745	0.449	0.269	
18.750	-0.086	0.191	
18.755	-0.857	0.090	
18.760	-0.202	-0.068	
18.765	0.385	-0.174	
18.770	-0.656	-0.198	
18.775	-0.419	-0.235	
18.780	0.776	-0.243	
18.785	-0.292	-0.164	
18.790	-0.593	-0.113	
18.795	0.676	-0.104	
18.800	0.295	-0.032	
18.805	-0.614	0.040	
18.810	0.243	0.036	
18.815	0.852	0.060	
18.820	-0.475	0.129	
18.825	-0.248	0.123	
18.830	1.071	0.102	
18.835	-0.148	0.154	
18.840	-0.456	0.165	
18.845	0.973	0.136	
18.850	0.602	0.194	
18.855	-0.449	0.266	
18.860	0.615	0.267	
18.865	1.253	0.312	
18.870	-0.272	0.408	
18.875	0.033	0.414	
18.880	1.492	0.400	
18.885	0.156	0.466	
18.890	-0.291	0.482	
18.895	1.242	0.439	
18.900	0.730	0.471	
18.905	-0.448	0.504	
18.910	0.470	0.441	
18.915	0.927	0.395	
18.920	-0.503	0.383	
18.925	-0.313	0.288	
18.930	0.803	0.173	
18.935	-0.347	0.129	
18.940	-0.660	0.057	
18.945	0.452	-0.044	
18.950	-0.054	-0.077	
18.955	-0.796	-0.100	
18.960	-0.119	-0.174	
18.965	0.363	-0.210	
18.970	-0.726	-0.194	
18.975	-0.491	-0.223	
18.980	0.513	-0.251	
18.985	-0.465	-0.216	
18.990	-0.734	-0.211	
18.995	0.380	-0.242	
19.000	-0.054	-0.213	
19.005	-0.770	-0.183	
19.010	-0.055	-0.210	
19.015	0.481	-0.203	
19.020	-0.665	-0.151	
19.025	-0.422	-0.156	
19.030	0.672	-0.169	
19.035	-0.379	-0.119	
19.040	-0.643	-0.106	
19.045	0.574	-0.130	
19.050	0.046	-0.093	
19.055	-0.740	-0.061	
19.060	-0.002	-0.100	
19.065	0.498	-0.112	
19.070	-0.686	-0.083	
19.075	-0.466	-0.116	
19.080	0.533	-0.160	
19.085	-0.482	-0.147	
19.090	-0.749	-0.168	
19.095	0.334	-0.223	
19.100	-0.124	-0.218	
19.105	-0.822	-0.210	
19.110	-0.113	-0.254	
19.115	0.340	-0.261	
19.120	-0.732	-0.224	
19.125	-0.459	-0.238	
19.130	0.663	-0.246	
19.135	-0.342	-0.180	
19.140	-0.509	-0.139	
19.145	1.026	-0.109	
19.150	0.476	0.019	
19.155	-0.585	0.143	
19.160	0.122	0.151	
19.165	0.288	0.125	
19.170	-0.871	0.081	
19.175	-0.663	-0.053	
19.180	0.120	-0.205	
19.185	-0.647	-0.292	
19.190	-0.828	-0.372	
19.195	0.327	-0.435	
19.200	-0.090	-0.397	
19.205	-0.757	-0.334	
19.210	0.068	-0.312	
19.215	0.585	-0.245	
19.220	-0.624	-0.139	
19.225	-0.341	-0.107	
19.230	0.835	-0.093	
19.235	-0.333	-0.023	
19.240	-0.569	-0.003	
19.245	0.758	-0.026	
19.250	0.178	0.020	
19.255	-0.637	0.061	
19.260	0.293	0.033	
19.265	0.785	0.047	
19.270	-0.520	0.107	
19.275	-0.200	0.096	
19.280	1.133	0.082	
19.285	-0.167	0.148	
19.290	-0.393	0.172	
19.295	1.197	0.163	
19.300	0.647	0.251	
19.305	-0.411	0.344	
19.310	0.768	0.354	
19.315	1.202	0.400	
19.320	-0.362	0.479	
19.325	-0.068	0.448	
19.330	1.182	0.382	
19.335	-0.219	0.375	
19.340	-0.492	0.314	
19.345	0.829	0.209	
19.350	0.143	0.179	
19.355	-0.695	0.151	
19.360	0.105	0.056	
19.365	0.473	-0.001	
19.370	-0.715	-0.014	
19.375	-0.433	-0.081	
19.380	0.600	-0.145	
19.385	-0.478	-0.136	
19.390	-0.697	-0.155	
19.395	0.504	-0.199	
19.400	-0.066	-0.173	
19.405	-0.761	-0.146	
19.410	0.070	-0.176	
19.415	0.519	-0.163	
19.420	-0.650	-0.105	
19.425	-0.333	-0.109	
19.430	0.808	-0.114	
19.435	-0.381	-0.054	
19.440	-0.598	-0.040	
19.445	0.716	-0.065	
19.450	0.110	-0.022	
19.455	-0.653	0.016	
19.460	0.316	-0.008	
19.465	0.735	0.014	
19.470	-0.576	0.078	
19.475	-0.255	0.064	
19.480	0.927	0.038	
19.485	-0.349	0.076	
19.490	-0.585	0.064	
19.495	0.683	0.008	
19.500	0.012	0.015	
19.505	-0.726	0.015	
19.510	0.149	-0.047	
19.515	0.550	-0.063	
19.520	-0.660	-0.033	
19.525	-0.339	-0.063	
19.530	0.773	-0.092	
19.535	-0.404	-0.052	
19.540	-0.602	-0.053	
19.545	0.736	-0.083	
19.550	0.125	-0.037	
19.555	-0.625	0.009	
19.560	0.521	0.002	
19.565	1.104	0.069	
19.570	-0.336	0.199	
19.575	0.062	0.249	
19.580	1.185	0.273	
19.585	-0.327	0.331	
19.590	-0.645	0.294	
19.595	0.426	0.166	
19.600	-0.205	0.073	
19.605	-0.847	-0.025	
19.610	-0.023	-0.157	
19.615	0.449	-0.213	
19.620	-0.650	-0.191	
19.625	-0.255	-0.196	
19.630	0.968	-0.171	
19.635	-0.312	-0.064	
19.640	-0.486	-0.006	
19.645	0.970	0.009	
19.650	0.288	0.095	
19.655	-0.559	0.165	
19.660	0.525	0.155	
19.665	0.874	0.185	
19.670	-0.495	0.247	
19.675	-0.104	0.222	
19.680	1.184	0.191	
19.685	-0.203	0.235	
19.690	-0.378	0.232	
19.695	1.179	0.198	
19.700	0.527	0.260	
19.705	-0.414	0.327	
19.710	0.895	0.327	
19.715	1.272	0.388	
19.720	-0.281	0.493	
19.725	0.322	0.501	
19.730	1.601	0.503	
19.735	0.075	0.577	
19.740	-0.184	0.579	
19.745	1.476	0.528	
19.750	0.690	0.565	
19.755	-0.381	0.593	
19.760	0.848	0.533	
19.765	1.071	0.515	
19.770	-0.430	0.530	
19.775	-0.035	0.447	
19.780	1.126	0.353	
19.785	-0.278	0.331	
19.790	-0.445	0.265	
19.795	0.965	0.174	
19.800	0.203	0.175	
19.805	-0.558	0.181	
19.810	0.574	0.135	
19.815	0.877	0.155	
19.820	-0.468	0.222	
19.825	-0.014	0.211	
19.830	1.191	0.198	
19.835	-0.214	0.255	
19.840	-0.336	0.256	
19.845	1.214	0.224	
19.850	0.487	0.286	
19.855	-0.394	0.346	
19.860	0.919	0.341	
19.865	1.161	0.395	
19.870	-0.329	0.483	
19.875	0.263	0.473	
19.880	1.439	0.456	
19.885	-0.057	0.506	
19.890	-0.202	0.489	
19.895	1.404	0.434	
19.900	0.585	0.474	
19.905	-0.358	0.508	
19.910	0.930	0.468	
19.915	1.091	0.482	
19.920	-0.390	0.525	
19.925	0.085	0.468	
19.930	1.210	0.399	
19.935	-0.220	0.397	
19.940	-0.346	0.342	
19.945	1.094	0.261	
19.950	0.267	0.270	
19.955	-0.485	0.277	
19.960	0.698	0.229	
19.965	0.874	0.246	
19.970	-0.445	0.301	
19.975	0.094	0.276	
19.980	1.285	0.260	
19.985	-0.097	0.323	
19.990	-0.098	0.340	
19.995	1.685	0.350	
20.000	0.816	0.479	
20.005	-0.268	0.594	
20.010	0.929	0.597	
20.015	0.790	0.598	
20.020	-0.602	0.576	
20.025	-0.237	0.429	
20.030	0.680	0.259	
20.035	-0.451	0.159	
20.040	-0.480	0.048	
20.045	0.878	-0.040	
20.050	0.041	-0.015	
20.055	-0.572	0.018	
20.060	0.542	0.005	
20.065	0.673	0.052	
20.070	-0.532	0.129	
20.075	-0.054	0.122	
20.080	1.023	0.114	
20.085	-0.317	0.166	
20.090	-0.381	0.162	
20.095	1.023	0.127	
20.100	0.156	0.171	
20.105	-0.511	0.199	
20.110	0.695	0.168	
20.115	0.855	0.202	
20.120	-0.436	0.272	
20.125	0.185	0.264	
20.130	1.330	0.270	
20.135	-0.124	0.348	
20.140	-0.159	0.365	
20.145	1.497	0.355	
20.150	0.621	0.444	
20.155	-0.272	0.519	
20.160	1.167	0.518	
20.165	1.240	0.574	
20.170	-0.295	0.650	
20.175	0.392	0.616	
20.180	1.382	0.572	
20.185	-0.196	0.581	
20.190	-0.312	0.510	
20.195	1.036	0.391	
20.200	0.041	0.343	
20.205	-0.588	0.281	
20.210	0.460	0.167	
20.215	0.486	0.118	
20.220	-0.648	0.108	
20.225	-0.203	0.037	
20.230	0.680	-0.023	
20.235	-0.501	-0.017	
20.240	-0.543	-0.052	
20.245	0.657	-0.102	
20.250	-0.171	-0.080	
20.255	-0.702	-0.072	
20.260	0.295	-0.114	
20.265	0.354	-0.103	
20.270	-0.688	-0.064	
20.275	-0.214	-0.090	
20.280	0.673	-0.106	
20.285	-0.503	-0.066	
20.290	-0.529	-0.073	
20.295	0.664	-0.105	
20.300	-0.176	-0.072	
20.305	-0.686	-0.060	
20.310	0.342	-0.099	
20.315	0.385	-0.082	
20.320	-0.666	-0.038	
20.325	-0.184	-0.062	
20.330	0.683	-0.078	
20.335	-0.523	-0.041	
20.340	-0.576	-0.059	
20.345	0.518	-0.110	
20.350	-0.287	-0.107	
20.355	-0.798	-0.125	
20.360	0.084	-0.194	
20.365	0.088	-0.217	
20.370	-0.815	-0.214	
20.375	-0.347	-0.260	
20.380	0.386	-0.286	
20.385	-0.653	-0.257	
20.390	-0.666	-0.268	
20.395	0.411	-0.297	
20.400	-0.298	-0.263	
20.405	-0.747	-0.241	
20.410	0.376	-0.251	
20.415	0.577	-0.183	
20.420	-0.498	-0.068	
20.425	0.107	-0.013	
20.430	0.938	0.046	
20.435	-0.527	0.134	
20.440	-0.697	0.115	
20.445	0.062	-0.001	
20.450	-0.570	-0.111	
20.455	-0.993	-0.240	
20.460	-0.207	-0.387	
20.465	-0.150	-0.459	
20.470	-0.911	-0.476	
20.475	-0.393	-0.505	
20.480	0.324	-0.490	
20.485	-0.672	-0.411	
20.490	-0.663	-0.374	
20.495	0.450	-0.358	
20.500	-0.309	-0.288	
20.505	-0.787	-0.244	
20.510	0.181	-0.256	
20.515	0.156	-0.227	
20.520	-0.781	-0.184	
20.525	-0.268	-0.206	
20.530	0.565	-0.214	
20.535	-0.584	-0.165	
20.540	-0.559	-0.164	
20.545	0.678	-0.181	
20.550	-0.200	-0.128	
20.555	-0.666	-0.097	
20.560	0.512	-0.110	
20.565	0.545	-0.055	
20.570	-0.578	0.029	
20.575	0.038	0.039	
20.580	0.988	0.059	
20.585	-0.408	0.132	
20.590	-0.405	0.133	
20.595	0.907	0.094	
20.600	-0.145	0.116	
20.605	-0.686	0.102	
20.610	0.327	0.022	
20.615	0.151	-0.016	
20.620	-0.831	-0.042	
20.625	-0.365	-0.133	
20.630	0.259	-0.213	
20.635	-0.755	-0.241	
20.640	-0.760	-0.303	
20.645	0.165	-0.375	
20.650	-0.503	-0.384	
20.655	-0.961	-0.401	
20.660	-0.122	-0.453	
20.665	-0.167	-0.458	
20.670	-0.955	-0.441	
20.675	-0.425	-0.467	
20.680	0.220	-0.467	
20.685	-0.757	-0.415	
20.690	-0.720	-0.405	
20.695	0.325	-0.412	
20.700	-0.404	-0.361	
20.705	-0.850	-0.331	
20.710	0.130	-0.346	
20.715	0.091	-0.313	
20.720	-0.811	-0.262	
20.725	-0.269	-0.271	
20.730	0.518	-0.264	
20.735	-0.643	-0.206	
20.740	-0.613	-0.204	
20.745	0.617	-0.223	
20.750	-0.265	-0.174	
20.755	-0.757	-0.149	
20.760	0.275	-0.179	
20.765	0.204	-0.160	
20.770	-0.744	-0.125	
20.775	-0.205	-0.153	
20.780	0.534	-0.167	
20.785	-0.676	-0.134	
20.790	-0.677	-0.163	
20.795	0.383	-0.222	
20.800	-0.381	-0.224	
20.805	-0.743	-0.235	
20.810	0.466	-0.262	
20.815	0.314	-0.204	
20.820	-0.749	-0.121	
20.825	-0.205	-0.123	
20.830	0.605	-0.126	
20.835	-0.595	-0.086	
20.840	-0.501	-0.100	
20.845	0.936	-0.119	
20.850	-0.002	-0.043	
20.855	-0.540	0.020	
20.860	0.620	0.026	
20.865	0.275	0.069	
20.870	-0.853	0.092	
20.875	-0.399	0.002	
20.880	0.152	-0.112	
20.885	-0.802	-0.188	
20.890	-0.712	-0.291	
20.895	0.420	-0.371	
20.900	-0.339	-0.352	
20.905	-0.721	-0.323	
20.910	0.479	-0.309	
20.915	0.350	-0.218	
20.920	-0.671	-0.110	
20.925	-0.013	-0.083	
20.930	0.892	-0.045	
20.935	-0.466	0.042	
20.940	-0.388	0.057	
20.945	1.005	0.043	
20.950	-0.100	0.099	
20.955	-0.538	0.120	
20.960	0.864	0.094	
20.965	0.745	0.153	
20.970	-0.482	0.240	
20.975	0.389	0.247	
20.980	1.230	0.275	
20.985	-0.281	0.356	
20.990	-0.161	0.354	
20.995	1.425	0.326	
21.000	0.325	0.390	
21.005	-0.329	0.431	
21.010	1.225	0.413	
21.015	1.028	0.473	
21.020	-0.385	0.549	
21.025	0.495	0.519	
21.030	1.318	0.498	
21.035	-0.281	0.527	
21.040	-0.223	0.468	
21.045	1.196	0.375	
21.050	-0.040	0.358	
21.055	-0.535	0.310	
21.060	0.762	0.214	
21.065	0.492	0.195	
21.070	-0.634	0.201	
21.075	0.026	0.132	
21.080	0.817	0.085	
21.085	-0.529	0.098	
21.090	-0.430	0.056	
21.095	0.912	0.002	
21.100	-0.173	0.032	
21.105	-0.590	0.040	
21.110	0.759	0.009	
21.115	0.582	0.062	
21.120	-0.570	0.139	
21.125	0.230	0.136	
21.130	1.081	0.154	
21.135	-0.396	0.227	
21.140	-0.268	0.222	
21.145	1.236	0.192	
21.150	0.053	0.247	
21.155	-0.449	0.269	
21.160	1.023	0.238	
21.165	0.806	0.290	
21.170	-0.454	0.363	
21.175	0.512	0.351	
21.180	1.359	0.369	
21.185	-0.271	0.446	
21.190	-0.150	0.433	
21.195	1.388	0.384	
21.200	0.125	0.416	
21.205	-0.431	0.411	
21.210	1.072	0.348	
21.215	0.820	0.370	
21.220	-0.480	0.415	
21.225	0.403	0.373	
21.230	1.194	0.354	
21.235	-0.368	0.391	
21.240	-0.236	0.347	
21.245	1.256	0.281	
21.250	0.007	0.302	
21.255	-0.451	0.294	
21.260	1.084	0.245	
21.265	0.890	0.296	
21.270	-0.356	0.382	
21.275	0.906	0.404	
21.280	1.870	0.494	
21.285	0.044	0.663	
21.290	0.175	0.722	
21.295	1.630	0.712	
21.300	0.124	0.739	
21.305	-0.506	0.680	
21.310	0.774	0.520	
21.315	0.437	0.413	
21.320	-0.610	0.333	
21.325	0.267	0.208	
21.330	1.124	0.156	
21.335	-0.356	0.202	
21.340	-0.167	0.198	
21.345	1.404	0.193	
21.350	0.160	0.284	
21.355	-0.356	0.339	
21.360	1.256	0.336	
21.365	0.979	0.417	
21.370	-0.352	0.512	
21.375	0.748	0.512	
21.380	1.511	0.539	
21.385	-0.197	0.618	
21.390	0.010	0.595	
21.395	1.598	0.539	
21.400	0.325	0.575	
21.405	-0.257	0.579	
21.410	1.450	0.532	
21.415	1.185	0.587	
21.420	-0.200	0.673	
21.425	1.094	0.678	
21.430	1.851	0.732	
21.435	0.070	0.848	
21.440	0.403	0.859	
21.445	1.894	0.834	
21.450	0.539	0.886	
21.455	-0.170	0.877	
21.460	1.430	0.786	
21.465	1.031	0.768	
21.470	-0.248	0.767	
21.475	0.962	0.694	
21.480	1.662	0.684	
21.485	-0.016	0.750	
21.490	0.369	0.736	
21.495	1.816	0.711	
21.500	0.507	0.775	
21.505	-0.124	0.789	
21.510	1.523	0.732	
21.515	1.106	0.755	
21.520	-0.226	0.789	
21.525	0.942	0.733	
21.530	1.515	0.717	
21.535	-0.127	0.754	
21.540	0.243	0.703	
21.545	1.688	0.642	
21.550	0.431	0.681	
21.555	-0.089	0.687	
21.560	1.593	0.649	
21.565	1.141	0.706	
21.570	-0.203	0.773	
21.575	0.955	0.741	
21.580	1.485	0.736	
21.585	-0.144	0.772	
21.590	0.195	0.711	
21.595	1.526	0.632	
21.600	0.208	0.636	
21.605	-0.220	0.600	
21.610	1.312	0.521	
21.615	0.831	0.535	
21.620	-0.342	0.565	
21.625	0.681	0.514	
21.630	1.138	0.493	
21.635	-0.347	0.512	
21.640	-0.135	0.441	
21.645	1.116	0.348	
21.650	-0.133	0.329	
21.655	-0.423	0.278	
21.660	0.924	0.199	
21.665	0.443	0.210	
21.670	-0.517	0.236	
21.675	0.356	0.195	
21.680	0.890	0.188	
21.685	-0.420	0.230	
21.690	-0.161	0.202	
21.695	1.156	0.171	
21.700	-0.003	0.223	
21.705	-0.207	0.251	
21.710	1.491	0.268	
21.715	0.952	0.399	
21.720	-0.326	0.531	
21.725	0.467	0.534	
21.730	0.643	0.494	
21.735	-0.660	0.434	
21.740	-0.483	0.271	
21.745	0.461	0.087	
21.750	-0.408	-0.018	
21.755	-0.611	-0.111	
21.760	0.605	-0.184	
21.765	0.142	-0.151	
21.770	-0.622	-0.095	
21.775	0.136	-0.095	
21.780	0.579	-0.066	
21.785	-0.599	-0.008	
21.790	-0.402	-0.025	
21.795	0.499	-0.071	
21.800	-0.451	-0.073	
21.805	-0.695	-0.112	
21.810	0.336	-0.179	
21.815	-0.103	-0.185	
21.820	-0.813	-0.186	
21.825	-0.217	-0.241	
21.830	0.072	-0.278	
21.835	-0.763	-0.284	
21.840	-0.460	-0.322	
21.845	0.560	-0.334	
21.850	-0.346	-0.263	
21.855	-0.514	-0.210	
21.860	0.803	-0.171	
21.865	0.386	-0.052	
21.870	-0.456	0.068	
21.875	0.524	0.114	
21.880	0.944	0.187	
21.885	-0.396	0.281	
21.890	-0.139	0.276	
21.895	1.005	0.238	
21.900	-0.219	0.251	
21.905	-0.468	0.216	
21.910	0.702	0.138	
21.915	0.076	0.121	
21.920	-0.657	0.099	
21.925	0.049	0.016	
21.930	0.408	-0.036	
21.935	-0.654	-0.045	
21.940	-0.411	-0.101	
21.945	0.438	-0.158	
21.950	-0.483	-0.158	
21.955	-0.672	-0.184	
21.960	0.354	-0.231	
21.965	-0.122	-0.215	
21.970	-0.731	-0.197	
21.975	-0.029	-0.226	
21.980	0.368	-0.218	
21.985	-0.633	-0.170	
21.990	-0.338	-0.172	
21.995	0.667	-0.171	
22.000	-0.356	-0.110	
22.005	-0.555	-0.087	
22.010	0.560	-0.101	
22.015	-0.028	-0.065	
22.020	-0.677	-0.043	
22.025	0.113	-0.083	
22.030	0.603	-0.080	
22.035	-0.460	-0.024	
22.040	-0.112	-0.012	
22.045	0.990	0.010	
22.050	-0.229	0.095	
22.055	-0.454	0.122	
22.060	0.585	0.088	
22.065	-0.057	0.085	
22.070	-0.645	0.060	
22.075	0.134	-0.019	
22.080	0.453	-0.051	
22.085	-0.559	-0.035	
22.090	-0.222	-0.062	
22.095	0.809	-0.072	
22.100	-0.283	-0.013	
22.105	-0.445	0.010	
22.110	0.725	-0.002	
22.115	0.091	0.043	
22.120	-0.544	0.075	
22.125	0.362	0.047	
22.130	0.767	0.068	
22.135	-0.301	0.140	
22.140	0.319	0.171	
22.145	1.433	0.237	
22.150	0.009	0.373	
22.155	-0.304	0.424	
22.160	0.631	0.372	
22.165	-0.171	0.314	
22.170	-0.822	0.203	
22.175	-0.260	0.015	
22.180	-0.158	-0.149	
22.185	-0.772	-0.265	
22.190	-0.456	-0.372	
22.195	0.206	-0.424	
22.200	-0.509	-0.397	
22.205	-0.570	-0.374	
22.210	0.221	-0.360	
22.215	-0.393	-0.310	
22.220	-0.983	-0.300	
22.225	-0.475	-0.370	
22.230	-0.471	-0.448	
22.235	-0.995	-0.514	
22.240	-0.980	-0.611	
22.245	-0.585	-0.709	
22.250	-0.995	-0.771	
22.255	-0.993	-0.824	
22.260	-0.604	-0.864	
22.265	-0.818	-0.863	
22.270	-0.993	-0.852	
22.275	-0.504	-0.843	
22.280	-0.313	-0.789	
22.285	-0.833	-0.708	
22.290	-0.417	-0.648	
22.295	0.379	-0.558	
22.300	-0.364	-0.412	
22.305	-0.401	-0.299	
22.310	0.641	-0.212	
22.315	0.027	-0.088	
22.320	-0.533	-0.004	
22.325	0.130	-0.003	
22.330	0.273	-0.003	
22.335	-0.508	0.006	
22.340	-0.145	-0.032	
22.345	0.644	-0.052	
22.350	-0.287	-0.012	
22.355	-0.391	-0.006	
22.360	0.449	-0.030	
22.365	-0.170	-0.021	
22.370	-0.599	-0.035	
22.375	0.026	-0.098	
22.380	0.087	-0.132	
22.385	-0.621	-0.143	
22.390	-0.323	-0.191	
22.395	0.261	-0.225	
22.400	-0.462	-0.213	
22.405	-0.489	-0.221	
22.410	0.405	-0.231	
22.415	-0.090	-0.183	
22.420	-0.547	-0.141	
22.425	-0.240	-0.160	
22.430	-0.291	-0.200	
22.435	-0.802	-0.258	
22.440	-0.445	-0.347	
22.445	0.061	-0.402	
22.450	-0.518	-0.394	
22.455	-0.559	-0.388	
22.460	0.032	-0.387	
22.465	-0.408	-0.357	
22.470	-0.824	-0.351	
22.475	-0.390	-0.396	
22.480	-0.402	-0.437	
22.485	-0.889	-0.473	
22.490	-0.546	-0.529	
22.495	-0.103	-0.555	
22.500	-0.462	-0.522	
22.505	-0.335	-0.472	
22.510	0.634	-0.383	
22.515	0.148	-0.219	
22.520	-0.251	-0.066	
22.525	0.628	0.033	
22.530	0.541	0.148	
22.535	-0.355	0.239	
22.540	-0.087	0.228	
22.545	0.417	0.175	
22.550	-0.344	0.136	
22.555	-0.352	0.062	
22.560	0.421	-0.014	
22.565	0.055	-0.024	
22.570	-0.188	-0.009	
22.575	0.770	0.021	
22.580	0.673	0.125	
22.585	-0.271	0.239	
22.590	-0.025	0.255	
22.595	0.421	0.221	
22.600	-0.295	0.187	
22.605	-0.248	0.117	
22.610	0.611	0.053	
22.615	0.127	0.062	
22.620	-0.211	0.085	
22.625	0.712	0.100	
22.630	0.641	0.175	
22.635	-0.307	0.257	
22.640	-0.219	0.241	
22.645	-0.379	0.137	
22.650	-0.993	-0.031	
22.655	-0.993	-0.262	
22.660	-0.830	-0.503	
22.665	-0.995	-0.697	
22.670	-0.995	-0.840	
22.675	-0.607	-0.921	
22.680	-0.489	-0.915	
22.685	-0.763	-0.852	
22.690	-0.356	-0.773	
22.695	0.114	-0.654	
22.700	-0.349	-0.497	
22.705	-0.203	-0.364	
22.710	0.823	-0.229	
22.715	0.505	-0.030	
22.720	0.229	0.169	
22.725	1.338	0.341	
22.730	1.483	0.566	
22.735	0.802	0.807	
22.740	1.541	0.990	
22.745	2.116	1.175	
22.750	1.286	1.374	
22.755	1.398	1.499	
22.760	2.320	1.580	
22.765	1.770	1.688	
22.770	1.289	1.759	
22.775	2.238	1.774	
22.780	2.177	1.820	
22.785	1.263	1.869	
22.790	1.815	1.849	
22.795	2.236	1.827	
22.800	1.300	1.829	
22.805	1.381	1.779	
22.810	2.290	1.719	
22.815	1.731	1.728	
22.820	1.294	1.738	
22.825	2.304	1.728	
22.830	2.267	1.781	
22.835	1.417	1.859	
22.840	2.148	1.889	
22.845	2.701	1.943	
22.850	1.786	2.042	
22.855	1.825	2.087	
22.860	2.721	2.101	
22.865	1.995	2.147	
22.870	1.298	2.143	
22.875	2.184	2.058	
22.880	2.058	1.993	
22.885	1.100	1.935	
22.890	1.818	1.829	
22.895	2.383	1.768	
22.900	1.416	1.781	
22.905	1.561	1.771	
22.910	2.591	1.768	
22.915	1.885	1.839	
22.920	1.249	1.885	
22.925	2.275	1.867	
22.930	2.081	1.877	
22.935	0.898	1.874	
22.940	1.535	1.776	
22.945	2.048	1.678	
22.950	0.826	1.618	
22.955	0.831	1.499	
22.960	1.822	1.363	
22.965	0.809	1.288	
22.970	-0.040	1.170	
22.975	1.112	0.982	
22.980	1.129	0.860	
22.985	0.046	0.800	
22.990	0.959	0.723	
22.995	1.766	0.724	
23.000	0.640	0.827	
23.005	0.563	0.892	
23.010	1.633	0.916	
23.015	0.702	0.968	
23.020	-0.141	0.949	
23.025	0.877	0.824	
23.030	0.712	0.718	
23.035	-0.338	0.624	
23.040	0.194	0.473	
23.045	0.945	0.357	
23.050	-0.196	0.322	
23.055	-0.193	0.261	
23.060	0.936	0.200	
23.065	0.076	0.214	
23.070	-0.426	0.212	
23.075	0.383	0.153	
23.080	0.285	0.125	
23.085	-0.530	0.108	
23.090	-0.084	0.040	
23.095	0.625	-0.005	
23.100	-0.384	0.011	
23.105	-0.405	-0.009	
23.110	0.423	-0.053	
23.115	-0.291	-0.058	
23.120	-0.666	-0.087	
23.125	0.238	-0.150	
23.130	0.389	-0.144	
23.135	-0.431	-0.087	
23.140	0.208	-0.055	
23.145	1.116	0.021	
23.150	-0.165	0.160	
23.155	-0.182	0.226	
23.160	1.051	0.241	
23.165	0.108	0.298	
23.170	-0.433	0.309	
23.175	0.582	0.250	
23.180	0.460	0.229	
23.185	-0.579	0.219	
23.190	-0.182	0.133	
23.195	0.398	0.041	
23.200	-0.611	-0.011	
23.205	-0.683	-0.105	
23.210	0.029	-0.221	
23.215	-0.517	-0.290	
23.220	-0.992	-0.363	
23.225	-0.324	-0.462	
23.230	-0.356	-0.517	
23.235	-0.993	-0.543	
23.240	-0.695	-0.595	
23.245	-0.265	-0.634	
23.250	-0.980	-0.637	
23.255	-0.975	-0.669	
23.260	-0.226	-0.707	
23.265	-0.669	-0.692	
23.270	-0.993	-0.675	
23.275	-0.352	-0.680	
23.280	-0.347	-0.652	
23.285	-0.992	-0.612	
23.290	-0.642	-0.616	
23.295	-0.197	-0.619	
23.300	-0.944	-0.597	
23.305	-0.955	-0.617	
23.310	-0.216	-0.654	
23.315	-0.665	-0.647	
23.320	-0.995	-0.641	
23.325	-0.339	-0.658	
23.330	-0.317	-0.636	
23.335	-0.993	-0.599	
23.340	-0.556	-0.602	
23.345	-0.068	-0.593	
23.350	-0.841	-0.550	
23.355	-0.845	-0.547	
23.360	-0.038	-0.563	
23.365	-0.533	-0.534	
23.370	-0.980	-0.517	
23.375	-0.197	-0.538	
23.380	-0.196	-0.521	
23.385	-0.932	-0.487	
23.390	-0.449	-0.496	
23.395	0.102	-0.489	
23.400	-0.750	-0.441	
23.405	-0.731	-0.434	
23.410	0.183	-0.444	
23.415	-0.402	-0.403	
23.420	-0.784	-0.373	
23.425	0.331	-0.365	
23.430	0.481	-0.277	
23.435	-0.585	-0.150	
23.440	-0.130	-0.098	
23.445	0.402	-0.075	
23.450	-0.775	-0.054	
23.455	-0.862	-0.127	
23.460	-0.121	-0.260	
23.465	-0.590	-0.356	
23.470	-0.975	-0.442	
23.475	-0.115	-0.525	
23.480	-0.080	-0.529	
23.485	-0.819	-0.483	
23.490	-0.289	-0.464	
23.495	0.450	-0.413	
23.500	-0.607	-0.311	
23.505	-0.575	-0.266	
23.510	0.536	-0.250	
23.515	-0.268	-0.186	
23.520	-0.712	-0.153	
23.525	0.279	-0.174	
23.530	0.233	-0.148	
23.535	-0.706	-0.106	
23.540	-0.179	-0.129	
23.545	0.655	-0.135	
23.550	-0.512	-0.085	
23.555	-0.468	-0.083	
23.560	0.817	-0.096	
23.565	-0.081	-0.034	
23.570	-0.527	0.008	
23.575	0.771	0.011	
23.580	0.761	0.092	
23.585	-0.457	0.199	
23.590	0.250	0.220	
23.595	1.152	0.245	
23.600	-0.283	0.316	
23.605	-0.271	0.308	
23.610	1.083	0.259	
23.615	-0.022	0.273	
23.620	-0.561	0.252	
23.625	0.560	0.168	
23.630	0.400	0.140	
23.635	-0.682	0.132	
23.640	-0.187	0.050	
23.645	0.545	-0.022	
23.650	-0.604	-0.040	
23.655	-0.578	-0.099	
23.660	0.544	-0.166	
23.665	-0.292	-0.158	
23.670	-0.743	-0.161	
23.675	0.256	-0.203	
23.680	0.177	-0.189	
23.685	-0.743	-0.153	
23.690	-0.207	-0.177	
23.695	0.567	-0.183	
23.700	-0.575	-0.136	
23.705	-0.526	-0.139	
23.710	0.675	-0.159	
23.715	-0.237	-0.112	
23.720	-0.676	-0.090	
23.725	0.431	-0.116	
23.730	0.334	-0.084	
23.735	-0.656	-0.032	
23.740	-0.075	-0.049	
23.745	0.794	-0.049	
23.750	-0.463	0.009	
23.755	-0.399	0.011	
23.760	0.929	-0.005	
23.765	-0.107	0.050	
23.770	-0.579	0.074	
23.775	0.577	0.041	
23.780	0.391	0.061	
23.785	-0.663	0.092	
23.790	-0.116	0.042	
23.795	0.683	-0.001	
23.800	-0.546	0.011	
23.805	-0.483	-0.026	
23.810	0.748	-0.075	
23.815	-0.225	-0.049	
23.820	-0.666	-0.044	
23.825	0.473	-0.083	
23.830	0.354	-0.058	
23.835	-0.643	-0.010	
23.840	-0.031	-0.029	
23.845	0.878	-0.025	
23.850	-0.378	0.044	
23.855	-0.210	0.065	
23.860	1.434	0.093	
23.865	0.281	0.226	
23.870	-0.436	0.321	
23.875	0.712	0.314	
23.880	0.261	0.311	
23.885	-0.799	0.271	
23.890	-0.295	0.127	
23.895	0.336	-0.016	
23.900	-0.674	-0.097	
23.905	-0.543	-0.191	
23.910	0.718	-0.250	
23.915	-0.202	-0.201	
23.920	-0.596	-0.153	
23.925	0.680	-0.134	
23.930	0.542	-0.040	
23.935	-0.561	0.070	
23.940	0.124	0.089	
23.945	0.967	0.113	
23.950	-0.398	0.180	
23.955	-0.303	0.174	
23.960	1.091	0.143	
23.965	-0.003	0.188	
23.970	-0.472	0.203	
23.975	0.869	0.170	
23.980	0.715	0.213	
23.985	-0.469	0.280	
23.990	0.357	0.267	
23.995	1.239	0.280	
24.000	-0.245	0.354	
24.005	-0.116	0.354	
24.010	1.454	0.334	
24.015	0.368	0.408	
24.020	-0.274	0.458	
24.025	1.257	0.447	
24.030	1.031	0.511	
24.035	-0.347	0.585	
24.040	0.533	0.553	
24.045	1.280	0.528	
24.050	-0.292	0.547	
24.055	-0.232	0.477	
24.060	1.097	0.370	
24.065	-0.087	0.336	
24.070	-0.556	0.274	
24.075	0.615	0.166	
24.080	0.362	0.130	
24.085	-0.660	0.120	
24.090	-0.064	0.045	
24.095	0.698	-0.004	
24.100	-0.546	0.009	
24.105	-0.456	-0.026	
24.110	0.735	-0.071	
24.115	-0.248	-0.045	
24.120	-0.653	-0.043	
24.125	0.499	-0.083	
24.130	0.293	-0.057	
24.135	-0.662	-0.015	
24.140	-0.020	-0.040	
24.145	0.782	-0.041	
24.150	-0.501	0.014	
24.155	-0.398	0.010	
24.160	0.851	-0.014	
24.165	-0.199	0.027	
24.170	-0.587	0.037	
24.175	0.676	0.002	
24.180	0.461	0.042	
24.185	-0.584	0.100	
24.190	0.122	0.083	
24.195	0.881	0.085	
24.200	-0.460	0.135	
24.205	-0.364	0.117	
24.210	0.861	0.071	
24.215	-0.217	0.088	
24.220	-0.621	0.071	
24.225	0.544	0.008	
24.230	0.288	0.010	
24.235	-0.660	0.030	
24.240	-0.016	-0.014	
24.245	0.762	-0.029	
24.250	-0.503	0.015	
24.255	-0.382	0.005	
24.260	0.887	-0.019	
24.265	-0.173	0.030	
24.270	-0.552	0.047	
24.275	0.768	0.024	
24.280	0.635	0.083	
24.285	-0.416	0.171	
24.290	0.602	0.202	
24.295	1.286	0.275	
24.300	-0.330	0.392	
24.305	-0.301	0.392	
24.310	0.774	0.312	
24.315	-0.338	0.257	
24.320	-0.740	0.153	
24.325	0.301	0.004	
24.330	0.099	-0.072	
24.335	-0.688	-0.105	
24.340	0.056	-0.158	
24.345	0.861	-0.142	
24.350	-0.437	-0.046	
24.355	-0.280	-0.004	
24.360	1.089	0.022	
24.365	-0.068	0.115	
24.370	-0.462	0.162	
24.375	0.919	0.152	
24.380	0.660	0.213	
24.385	-0.471	0.285	
24.390	0.394	0.273	
24.395	1.133	0.284	
24.400	-0.313	0.345	
24.405	-0.145	0.328	
24.410	1.335	0.293	
24.415	0.165	0.346	
24.420	-0.315	0.370	
24.425	1.237	0.349	
24.430	0.981	0.420	
24.435	-0.292	0.511	
24.440	0.826	0.518	
24.445	1.587	0.562	
24.450	-0.074	0.661	
24.455	0.197	0.663	
24.460	1.694	0.635	
24.465	0.452	0.690	
24.470	-0.208	0.700	
24.475	1.321	0.638	
24.480	0.932	0.646	
24.485	-0.370	0.660	
24.490	0.521	0.578	
24.495	1.136	0.514	
24.500	-0.362	0.500	
24.505	-0.228	0.410	
24.510	1.068	0.301	
24.515	-0.133	0.274	
24.520	-0.520	0.223	
24.525	0.744	0.137	
24.530	0.412	0.133	
24.535	-0.587	0.152	
24.540	0.169	0.106	
24.545	0.849	0.091	
24.550	-0.462	0.132	
24.555	-0.295	0.111	
24.560	1.005	0.078	
24.565	-0.133	0.120	
24.570	-0.480	0.131	
24.575	0.872	0.102	
24.580	0.563	0.153	
24.585	-0.497	0.219	
24.590	0.374	0.209	
24.595	1.040	0.225	
24.600	-0.371	0.287	
24.605	-0.181	0.270	
24.610	1.205	0.234	
24.615	-0.023	0.275	
24.620	-0.404	0.279	
24.625	1.007	0.238	
24.630	0.640	0.277	
24.635	-0.471	0.329	
24.640	0.369	0.297	
24.645	0.971	0.284	
24.650	-0.419	0.312	
24.655	-0.251	0.263	
24.660	1.026	0.195	
24.665	-0.153	0.202	
24.670	-0.494	0.178	
24.675	0.814	0.119	
24.680	0.441	0.140	
24.685	-0.547	0.178	
24.690	0.295	0.147	
24.695	0.955	0.151	
24.700	-0.405	0.208	
24.705	-0.173	0.196	
24.710	1.327	0.181	
24.715	0.233	0.265	
24.720	-0.190	0.332	
24.725	1.376	0.360	
24.730	0.881	0.466	
24.735	-0.453	0.557	
24.740	0.180	0.505	
24.745	0.605	0.411	
24.750	-0.631	0.323	
24.755	-0.443	0.170	
24.760	0.707	0.026	
24.765	-0.275	-0.018	
24.770	-0.553	-0.054	
24.775	0.756	-0.091	
24.780	0.398	-0.030	
24.785	-0.547	0.052	
24.790	0.313	0.065	
24.795	0.935	0.106	
24.800	-0.423	0.188	
24.805	-0.219	0.188	
24.810	1.060	0.162	
24.815	-0.129	0.201	
24.820	-0.440	0.200	
24.825	0.936	0.159	
24.830	0.542	0.201	
24.835	-0.472	0.256	
24.840	0.475	0.239	
24.845	1.091	0.259	
24.850	-0.329	0.328	
24.855	-0.057	0.319	
24.860	1.425	0.301	
24.865	0.206	0.375	
24.870	-0.219	0.417	
24.875	1.381	0.414	
24.880	0.956	0.497	
24.885	-0.286	0.585	
24.890	0.800	0.575	
24.895	1.318	0.585	
24.900	-0.269	0.629	
24.905	-0.078	0.566	
24.910	1.208	0.467	
24.915	-0.122	0.434	
24.920	-0.488	0.360	
24.925	0.730	0.240	
24.930	0.221	0.192	
24.935	-0.665	0.156	
24.940	0.003	0.059	
24.945	0.522	-0.006	
24.950	-0.643	-0.019	
24.955	-0.443	-0.077	
24.960	0.588	-0.135	
24.965	-0.394	-0.123	
24.970	-0.679	-0.135	
24.975	0.429	-0.177	
24.980	-0.006	-0.157	
24.985	-0.741	-0.133	
24.990	-0.066	-0.169	
24.995	0.453	-0.174	
25.000	-0.648	-0.136	
25.005	-0.423	-0.151	
25.010	0.641	-0.169	
25.015	-0.371	-0.125	
25.020	-0.650	-0.114	
25.025	0.501	-0.142	
25.030	0.039	-0.112	
25.035	-0.709	-0.082	
25.040	0.021	-0.115	
25.045	0.556	-0.115	
25.050	-0.607	-0.070	
25.055	-0.388	-0.083	
25.060	0.683	-0.106	
25.065	-0.368	-0.070	
25.070	-0.669	-0.073	
25.075	0.398	-0.121	
25.080	-0.077	-0.120	
25.085	-0.786	-0.122	
25.090	-0.122	-0.183	
25.095	0.319	-0.211	
25.100	-0.720	-0.196	
25.105	-0.495	-0.227	
25.110	0.478	-0.257	
25.115	-0.457	-0.224	
25.120	-0.720	-0.220	
25.125	0.388	-0.247	
25.130	-0.038	-0.214	
25.135	-0.729	-0.177	
25.140	0.120	-0.190	
25.145	0.857	-0.144	
25.150	-0.365	-0.028	
25.155	-0.071	0.038	
25.160	1.181	0.094	
25.165	-0.237	0.199	
25.170	-0.689	0.215	
25.175	0.114	0.114	
25.180	-0.317	0.007	
25.185	-0.990	-0.116	
25.190	-0.309	-0.276	
25.195	0.117	-0.372	
25.200	-0.760	-0.389	
25.205	-0.489	-0.413	
25.210	0.541	-0.404	
25.215	-0.417	-0.317	
25.220	-0.660	-0.259	
25.225	0.507	-0.240	
25.230	0.017	-0.169	
25.235	-0.721	-0.112	
25.240	0.012	-0.128	
25.245	0.542	-0.119	
25.250	-0.605	-0.071	
25.255	-0.341	-0.080	
25.260	0.813	-0.092	
25.265	-0.303	-0.035	
25.270	-0.537	-0.016	
25.275	0.796	-0.031	
25.280	0.324	0.031	
25.285	-0.543	0.098	
25.290	0.464	0.099	
25.295	1.002	0.145	
25.300	-0.379	0.237	
25.305	-0.069	0.247	
25.310	1.288	0.242	
25.315	-0.080	0.306	
25.320	-0.384	0.316	
25.325	1.039	0.271	
25.330	0.440	0.298	
25.335	-0.561	0.318	
25.340	0.290	0.252	
25.345	0.707	0.206	
25.350	-0.590	0.197	
25.355	-0.379	0.117	
25.360	0.608	0.022	
25.365	-0.459	-0.012	
25.370	-0.744	-0.075	
25.375	0.249	-0.170	
25.380	-0.199	-0.206	
25.385	-0.891	-0.234	
25.390	-0.219	-0.306	
25.395	0.137	-0.340	
25.400	-0.821	-0.329	
25.405	-0.581	-0.359	
25.410	0.270	-0.387	
25.415	-0.596	-0.358	
25.420	-0.836	-0.359	
25.425	0.171	-0.390	
25.430	-0.203	-0.366	
25.435	-0.873	-0.337	
25.440	-0.177	-0.359	
25.445	0.232	-0.350	
25.450	-0.775	-0.303	
25.455	-0.515	-0.309	
25.460	0.458	-0.317	
25.465	-0.500	-0.267	
25.470	-0.732	-0.252	
25.475	0.379	-0.271	
25.480	-0.115	-0.235	
25.485	-0.810	-0.204	
25.490	-0.100	-0.236	
25.495	0.334	-0.239	
25.500	-0.758	-0.205	
25.505	-0.515	-0.229	
25.510	0.434	-0.261	
25.515	-0.532	-0.237	
25.520	-0.787	-0.247	
25.525	0.267	-0.291	
25.530	-0.176	-0.279	
25.535	-0.848	-0.264	
25.540	-0.132	-0.301	
25.545	0.319	-0.300	
25.550	-0.747	-0.255	
25.555	-0.483	-0.263	
25.560	0.556	-0.271	
25.565	-0.445	-0.217	
25.570	-0.650	-0.196	
25.575	0.722	-0.196	
25.580	0.363	-0.107	
25.585	-0.529	-0.001	
25.590	0.408	0.038	
25.595	0.731	0.097	
25.600	-0.672	0.164	
25.605	-0.521	0.114	
25.610	0.282	0.002	
25.615	-0.634	-0.080	
25.620	-0.868	-0.192	
25.625	0.221	-0.310	
25.630	-0.153	-0.338	
25.635	-0.779	-0.329	
25.640	0.099	-0.338	
25.645	0.657	-0.277	
25.650	-0.593	-0.158	
25.655	-0.295	-0.108	
25.660	0.932	-0.076	
25.665	-0.294	0.013	
25.670	-0.530	0.046	
25.675	0.851	0.030	
25.680	0.281	0.084	
25.685	-0.598	0.132	
25.690	0.417	0.109	
25.695	0.924	0.131	
25.700	-0.466	0.200	
25.705	-0.150	0.190	
25.710	1.188	0.170	
25.715	-0.133	0.225	
25.720	-0.378	0.236	
25.725	1.197	0.212	
25.730	0.669	0.285	
25.735	-0.394	0.367	
25.740	0.845	0.373	
25.745	1.323	0.428	
25.750	-0.275	0.524	
25.755	0.148	0.517	
25.760	1.492	0.488	
25.765	0.010	0.529	
25.770	-0.327	0.506	
25.775	1.167	0.425	
25.780	0.515	0.424	
25.785	-0.523	0.422	
25.790	0.472	0.340	
25.795	0.855	0.296	
25.800	-0.533	0.296	
25.805	-0.265	0.219	
25.810	0.897	0.133	
25.815	-0.341	0.121	
25.820	-0.569	0.077	
25.825	0.744	0.007	
25.830	0.157	0.021	
25.835	-0.647	0.043	
25.840	0.298	0.007	
25.845	0.751	0.020	
25.850	-0.546	0.081	
25.855	-0.225	0.070	
25.860	1.007	0.052	
25.865	-0.272	0.104	
25.870	-0.480	0.109	
25.875	0.936	0.078	
25.880	0.324	0.127	
25.885	-0.570	0.175	
25.890	0.455	0.149	
25.895	0.907	0.167	
25.900	-0.471	0.228	
25.905	-0.150	0.207	
25.910	1.124	0.175	
25.915	-0.217	0.214	
25.920	-0.453	0.204	
25.925	0.977	0.155	
25.930	0.340	0.187	
25.935	-0.587	0.218	
25.940	0.386	0.172	
25.945	0.802	0.164	
25.950	-0.532	0.196	
25.955	-0.222	0.154	
25.960	0.981	0.105	
25.965	-0.291	0.128	
25.970	-0.508	0.111	
25.975	0.857	0.061	
25.980	0.215	0.091	
25.985	-0.607	0.120	
25.990	0.408	0.085	
25.995	0.843	0.101	
26.000	-0.500	0.163	
26.005	-0.093	0.152	
26.010	1.375	0.151	
26.015	0.107	0.249	
26.020	-0.170	0.317	
26.025	1.463	0.349	
26.030	0.676	0.459	
26.035	-0.508	0.534	
26.040	0.363	0.474	
26.045	0.606	0.395	
26.050	-0.640	0.326	
26.055	-0.298	0.188	
26.060	0.918	0.070	
26.065	-0.266	0.058	
26.070	-0.411	0.040	
26.075	1.139	0.026	
26.080	0.533	0.125	
26.085	-0.431	0.233	
26.090	0.802	0.264	
26.095	1.204	0.341	
26.100	-0.304	0.450	
26.105	0.195	0.456	
26.110	1.517	0.450	
26.115	0.056	0.515	
26.120	-0.210	0.517	
26.125	1.468	0.474	
26.130	0.803	0.528	
26.135	-0.310	0.585	
26.140	1.039	0.561	
26.145	1.445	0.594	
26.150	-0.176	0.674	
26.155	0.486	0.661	
26.160	1.836	0.655	
26.165	0.392	0.741	
26.170	0.049	0.769	
26.175	1.865	0.750	
26.180	1.197	0.832	
26.185	-0.100	0.910	
26.190	1.350	0.889	
26.195	1.647	0.911	
26.200	-0.132	0.962	
26.205	0.421	0.892	
26.210	1.605	0.800	
26.215	0.012	0.776	
26.220	-0.281	0.683	
26.225	1.205	0.541	
26.230	0.435	0.490	
26.235	-0.509	0.447	
26.240	0.518	0.340	
26.245	0.805	0.286	
26.250	-0.530	0.280	
26.255	-0.188	0.205	
26.260	0.933	0.132	
26.265	-0.335	0.133	
26.270	-0.515	0.098	
26.275	0.819	0.037	
26.280	0.136	0.058	
26.285	-0.605	0.080	
26.290	0.417	0.046	
26.295	0.750	0.066	
26.300	-0.537	0.127	
26.305	-0.173	0.111	
26.310	0.971	0.087	
26.315	-0.320	0.125	
26.320	-0.494	0.114	
26.325	0.858	0.067	
26.330	0.157	0.095	
26.335	-0.595	0.118	
26.340	0.431	0.080	
26.345	0.765	0.094	
26.350	-0.521	0.150	
26.355	-0.148	0.130	
26.360	1.000	0.105	
26.365	-0.321	0.144	
26.370	-0.517	0.129	
26.375	0.764	0.071	
26.380	0.021	0.077	
26.385	-0.665	0.072	
26.390	0.290	0.009	
26.395	0.574	-0.001	
26.400	-0.628	0.032	
26.405	-0.265	-0.002	
26.410	0.796	-0.034	
26.415	-0.402	-0.002	
26.420	-0.549	-0.011	
26.425	0.774	-0.047	
26.430	0.067	-0.007	
26.435	-0.611	0.028	
26.440	0.542	0.012	
26.445	1.042	0.071	
26.450	-0.313	0.194	
26.455	0.238	0.249	
26.460	1.346	0.299	
26.465	-0.242	0.393	
26.470	-0.555	0.381	
26.475	0.449	0.263	
26.480	-0.268	0.160	
26.485	-0.877	0.035	
26.490	-0.061	-0.129	
26.495	0.298	-0.218	
26.500	-0.709	-0.230	
26.505	-0.295	-0.258	
26.510	0.774	-0.249	
26.515	-0.404	-0.159	
26.520	-0.529	-0.112	
26.525	0.800	-0.098	
26.530	0.032	-0.022	
26.535	-0.636	0.029	
26.540	0.403	0.011	
26.545	0.693	0.040	
26.550	-0.562	0.103	
26.555	-0.155	0.088	
26.560	0.997	0.070	
26.565	-0.307	0.119	
26.570	-0.437	0.119	
26.575	1.005	0.089	
26.580	0.270	0.142	
26.585	-0.508	0.190	
26.590	0.709	0.177	
26.595	1.026	0.227	
26.600	-0.382	0.320	
26.605	0.181	0.327	
26.610	1.437	0.335	
26.615	-0.087	0.415	
26.620	-0.248	0.424	
26.625	1.338	0.385	
26.630	0.495	0.430	
26.635	-0.451	0.459	
26.640	0.709	0.403	
26.645	0.870	0.385	
26.650	-0.521	0.395	
26.655	-0.141	0.312	
26.660	0.907	0.219	
26.665	-0.405	0.191	
26.670	-0.567	0.120	
26.675	0.651	0.022	
26.680	-0.118	-0.001	
26.685	-0.760	-0.029	
26.690	0.088	-0.108	
26.695	0.299	-0.141	
26.700	-0.752	-0.134	
26.705	-0.353	-0.177	
26.710	0.600	-0.206	
26.715	-0.508	-0.166	
26.720	-0.622	-0.164	
26.725	0.576	-0.187	
26.730	-0.144	-0.146	
26.735	-0.741	-0.120	
26.740	0.186	-0.151	
26.745	0.415	-0.137	
26.750	-0.703	-0.090	
26.755	-0.291	-0.109	
26.760	0.706	-0.125	
26.765	-0.468	-0.080	
26.770	-0.581	-0.080	
26.775	0.706	-0.108	
26.780	-0.051	-0.066	
26.785	-0.665	-0.036	
26.790	0.363	-0.061	
26.795	0.580	-0.033	
26.800	-0.637	0.028	
26.805	-0.255	0.009	
26.810	0.707	-0.022	
26.815	-0.508	-0.004	
26.820	-0.657	-0.038	
26.825	0.473	-0.110	
26.830	-0.231	-0.123	
26.835	-0.833	-0.144	
26.840	-0.020	-0.217	
26.845	0.218	-0.242	
26.850	-0.781	-0.227	
26.855	-0.376	-0.257	
26.860	0.521	-0.271	
26.865	-0.564	-0.223	
26.870	-0.656	-0.217	
26.875	0.592	-0.233	
26.880	-0.074	-0.177	
26.885	-0.611	-0.124	
26.890	0.635	-0.106	
26.895	0.796	-0.010	
26.900	-0.602	0.114	
26.905	-0.287	0.121	
26.910	0.460	0.070	
26.915	-0.698	0.028	
26.920	-0.854	-0.080	
26.925	0.088	-0.225	
26.930	-0.398	-0.305	
26.935	-0.920	-0.363	
26.940	-0.052	-0.430	
26.945	0.263	-0.419	
26.950	-0.741	-0.348	
26.955	-0.313	-0.320	
26.960	0.699	-0.278	
26.965	-0.471	-0.178	
26.970	-0.567	-0.133	
26.975	0.739	-0.126	
26.980	-0.072	-0.061	
26.985	-0.682	-0.022	
26.990	0.385	-0.047	
26.995	0.615	-0.018	
27.000	-0.616	0.046	
27.005	-0.159	0.033	
27.010	0.987	0.023	
27.015	-0.342	0.081	
27.020	-0.419	0.090	
27.025	1.113	0.074	
27.030	0.299	0.150	
27.035	-0.480	0.217	
27.040	0.860	0.219	
27.045	1.106	0.287	
27.050	-0.378	0.392	
27.055	0.243	0.399	
27.060	1.398	0.398	
27.065	-0.171	0.456	
27.070	-0.323	0.435	
27.075	1.139	0.359	
27.080	0.151	0.352	
27.085	-0.628	0.322	
27.090	0.369	0.213	
27.095	0.449	0.146	
27.100	-0.726	0.112	
27.105	-0.333	0.012	
27.110	0.519	-0.079	
27.115	-0.617	-0.106	
27.120	-0.731	-0.166	
27.125	0.339	-0.245	
27.130	-0.321	-0.256	
27.135	-0.880	-0.269	
27.140	-0.019	-0.322	
27.145	0.154	-0.324	
27.150	-0.818	-0.290	
27.155	-0.376	-0.305	
27.160	0.537	-0.304	
27.165	-0.564	-0.241	
27.170	-0.633	-0.222	
27.175	0.623	-0.227	
27.180	-0.156	-0.167	
27.185	-0.727	-0.126	
27.190	0.308	-0.142	
27.195	0.481	-0.107	
27.200	-0.669	-0.042	
27.205	-0.208	-0.052	
27.210	0.849	-0.058	
27.215	-0.431	-0.001	
27.220	-0.504	0.003	
27.225	0.864	-0.022	
27.230	0.017	0.027	
27.235	-0.613	0.059	
27.240	0.510	0.032	
27.245	0.623	0.060	
27.250	-0.627	0.115	
27.255	-0.152	0.085	
27.260	0.962	0.056	
27.265	-0.376	0.096	
27.270	-0.446	0.087	
27.275	0.999	0.054	
27.280	0.133	0.105	
27.285	-0.562	0.144	
27.290	0.654	0.120	
27.295	0.805	0.158	
27.300	-0.527	0.228	
27.305	0.017	0.209	
27.310	1.182	0.193	
27.315	-0.236	0.249	
27.320	-0.225	0.252	
27.325	1.628	0.251	
27.330	0.808	0.381	
27.335	-0.268	0.512	
27.340	1.110	0.546	
27.345	0.973	0.597	
27.350	-0.576	0.626	
27.355	-0.196	0.508	
27.360	0.751	0.346	
27.365	-0.475	0.241	
27.370	-0.491	0.113	
27.375	1.000	0.008	
27.380	0.197	0.034	
27.385	-0.469	0.083	
27.390	0.915	0.100	
27.395	1.077	0.202	
27.400	-0.368	0.340	
27.405	0.334	0.376	
27.410	1.472	0.406	
27.415	-0.086	0.493	
27.420	-0.122	0.499	
27.425	1.587	0.468	
27.430	0.710	0.540	
27.435	-0.232	0.604	
27.440	1.320	0.596	
27.445	1.414	0.658	
27.450	-0.190	0.750	
27.455	0.680	0.736	
27.460	1.770	0.729	
27.465	0.192	0.794	
27.470	0.174	0.787	
27.475	1.948	0.754	
27.480	1.055	0.834	
27.485	-0.006	0.907	
27.490	1.679	0.901	
27.495	1.732	0.966	
27.500	-0.017	1.056	
27.505	0.921	1.027	
27.510	1.902	0.995	
27.515	0.192	1.022	
27.520	0.044	0.954	
27.525	1.677	0.835	
27.530	0.632	0.809	
27.535	-0.320	0.767	
27.540	1.042	0.653	
27.545	1.020	0.605	
27.550	-0.416	0.592	
27.555	0.188	0.494	
27.560	1.170	0.407	
27.565	-0.307	0.391	
27.570	-0.365	0.320	
27.575	1.040	0.226	
27.580	0.068	0.221	
27.585	-0.535	0.207	
27.590	0.698	0.148	
27.595	0.750	0.166	
27.600	-0.521	0.221	
27.605	0.039	0.196	
27.610	1.087	0.177	
27.615	-0.317	0.223	
27.620	-0.333	0.210	
27.625	1.121	0.171	
27.630	0.134	0.215	
27.635	-0.500	0.237	
27.640	0.761	0.200	
27.645	0.779	0.228	
27.650	-0.501	0.283	
27.655	0.090	0.252	
27.660	1.129	0.227	
27.665	-0.301	0.268	
27.670	-0.333	0.247	
27.675	1.098	0.197	
27.680	0.094	0.227	
27.685	-0.550	0.233	
27.690	0.579	0.174	
27.695	0.551	0.166	
27.700	-0.614	0.181	
27.705	-0.116	0.118	
27.710	0.803	0.063	
27.715	-0.475	0.072	
27.720	-0.500	0.033	
27.725	0.747	-0.026	
27.730	-0.159	-0.012	
27.735	-0.676	-0.014	
27.740	0.440	-0.062	
27.745	0.472	-0.043	
27.750	-0.622	0.010	
27.755	-0.020	-0.003	
27.760	1.167	0.015	
27.765	-0.196	0.118	
27.770	-0.197	0.174	
27.775	1.257	0.200	
27.780	0.064	0.286	
27.785	-0.683	0.308	
27.790	0.116	0.207	
27.795	-0.019	0.097	
27.800	-0.882	-0.011	
27.805	-0.352	-0.161	
27.810	0.508	-0.255	
27.815	-0.559	-0.249	
27.820	-0.530	-0.253	
27.825	0.770	-0.247	
27.830	-0.132	-0.158	
27.835	-0.645	-0.092	
27.840	0.505	-0.084	
27.845	0.525	-0.024	
27.850	-0.604	0.054	
27.855	-0.045	0.049	
27.860	0.965	0.050	
27.865	-0.385	0.110	
27.870	-0.379	0.111	
27.875	1.051	0.087	
27.880	0.065	0.141	
27.885	-0.506	0.173	
27.890	0.813	0.151	
27.895	0.840	0.202	
27.900	-0.440	0.285	
27.905	0.333	0.286	
27.910	1.370	0.308	
27.915	-0.173	0.396	
27.920	-0.145	0.406	
27.925	1.508	0.385	
27.930	0.505	0.459	
27.935	-0.298	0.513	
27.940	1.171	0.495	
27.945	1.066	0.538	
27.950	-0.393	0.594	
27.955	0.292	0.539	
27.960	1.194	0.476	
27.965	-0.338	0.465	
27.970	-0.378	0.381	
27.975	0.907	0.260	
27.980	-0.139	0.213	
27.985	-0.680	0.148	
27.990	0.353	0.036	
27.995	0.292	-0.011	
28.000	-0.715	-0.022	
28.005	-0.202	-0.085	
28.010	0.603	-0.125	
28.015	-0.588	-0.102	
28.020	-0.575	-0.125	
28.025	0.592	-0.166	
28.030	-0.271	-0.140	
28.035	-0.764	-0.134	
28.040	0.186	-0.181	
28.045	0.085	-0.185	
28.050	-0.819	-0.174	
28.055	-0.301	-0.222	
28.060	0.417	-0.251	
28.065	-0.672	-0.225	
28.070	-0.660	-0.245	
28.075	0.417	-0.282	
28.080	-0.359	-0.256	
28.085	-0.827	-0.249	
28.090	0.133	-0.286	
28.095	0.073	-0.274	
28.100	-0.818	-0.242	
28.105	-0.280	-0.267	
28.110	0.479	-0.271	
28.115	-0.647	-0.222	
28.120	-0.634	-0.223	
28.125	0.464	-0.250	
28.130	-0.364	-0.220	
28.135	-0.859	-0.217	
28.140	-0.003	-0.271	
28.145	-0.078	-0.291	
28.150	-0.911	-0.297	
28.155	-0.398	-0.351	
28.160	0.253	-0.380	
28.165	-0.747	-0.353	
28.170	-0.723	-0.366	
28.175	0.275	-0.393	
28.180	-0.437	-0.362	
28.185	-0.886	-0.348	
28.190	0.032	-0.378	
28.195	0.030	-0.359	
28.200	-0.776	-0.315	
28.205	-0.138	-0.312	
28.210	0.950	-0.258	
28.215	-0.401	-0.121	
28.220	-0.428	-0.044	
28.225	0.673	-0.025	
28.230	-0.410	0.013	
28.235	-0.972	-0.023	
28.240	-0.208	-0.154	
28.245	-0.269	-0.267	
28.250	-0.995	-0.353	
28.255	-0.451	-0.456	
28.260	0.244	-0.498	
28.265	-0.695	-0.457	
28.270	-0.625	-0.435	
28.275	0.513	-0.410	
28.280	-0.318	-0.318	
28.285	-0.737	-0.254	
28.290	0.365	-0.241	
28.295	0.264	-0.179	
28.300	-0.718	-0.107	
28.305	-0.141	-0.112	
28.310	0.744	-0.106	
28.315	-0.515	-0.045	
28.320	-0.475	-0.042	
28.325	0.802	-0.063	
28.330	-0.161	-0.018	
28.335	-0.596	0.003	
28.340	0.690	-0.018	
28.345	0.641	0.041	
28.350	-0.518	0.129	
28.355	0.258	0.143	
28.360	1.219	0.179	
28.365	-0.240	0.277	
28.370	-0.081	0.305	
28.375	1.642	0.319	
28.380	0.586	0.442	
28.385	-0.228	0.540	
28.390	1.291	0.555	
28.395	1.101	0.619	
28.400	-0.329	0.682	
28.405	0.484	0.630	
28.410	1.228	0.574	
28.415	-0.320	0.562	
28.420	-0.301	0.465	
28.425	0.997	0.335	
28.430	-0.124	0.282	
28.435	-0.590	0.211	
28.440	0.542	0.102	
28.445	0.356	0.069	
28.450	-0.663	0.067	
28.455	-0.110	0.004	
28.460	0.626	-0.040	
28.465	-0.575	-0.028	
28.470	-0.523	-0.065	
28.475	0.571	-0.120	
28.480	-0.310	-0.110	
28.485	-0.712	-0.120	
28.490	0.333	-0.168	
28.495	0.178	-0.154	
28.500	-0.726	-0.121	
28.505	-0.176	-0.149	
28.510	0.524	-0.161	
28.515	-0.608	-0.125	
28.520	-0.523	-0.140	
28.525	0.617	-0.170	
28.530	-0.283	-0.133	
28.535	-0.683	-0.120	
28.540	0.394	-0.149	
28.545	0.212	-0.121	
28.550	-0.712	-0.080	
28.555	-0.161	-0.109	
28.560	0.547	-0.125	
28.565	-0.596	-0.095	
28.570	-0.530	-0.116	
28.575	0.496	-0.159	
28.580	-0.376	-0.147	
28.585	-0.784	-0.162	
28.590	0.165	-0.221	
28.595	-0.006	-0.231	
28.600	-0.798	-0.223	
28.605	-0.219	-0.262	
28.610	0.469	-0.268	
28.615	-0.631	-0.218	
28.620	-0.549	-0.215	
28.625	0.518	-0.229	
28.630	-0.332	-0.187	
28.635	-0.694	-0.171	
28.640	0.463	-0.189	
28.645	0.408	-0.134	
28.650	-0.517	-0.047	
28.655	0.258	-0.012	
28.660	0.922	0.049	
28.665	-0.482	0.145	
28.670	-0.501	0.141	
28.675	0.409	0.063	
28.680	-0.451	0.007	
28.685	-0.839	-0.083	
28.690	0.125	-0.205	
28.695	0.067	-0.251	
28.700	-0.689	-0.247	
28.705	0.003	-0.260	
28.710	0.863	-0.210	
28.715	-0.399	-0.085	
28.720	-0.236	-0.016	
28.725	1.239	0.038	
28.730	0.169	0.169	
28.735	-0.350	0.258	
28.740	1.139	0.283	
28.745	0.955	0.376	
28.750	-0.332	0.478	
28.755	0.658	0.483	
28.760	1.414	0.507	
28.765	-0.165	0.579	
28.770	-0.003	0.557	
28.775	1.521	0.506	
28.780	0.389	0.545	
28.785	-0.236	0.560	
28.790	1.370	0.523	
28.795	1.182	0.578	
28.800	-0.216	0.661	
28.805	0.881	0.655	
28.810	1.668	0.680	
28.815	0.023	0.762	
28.820	0.233	0.752	
28.825	1.702	0.709	
28.830	0.524	0.749	
28.835	-0.203	0.748	
28.840	1.295	0.675	
28.845	0.967	0.669	
28.850	-0.387	0.674	
28.855	0.408	0.579	
28.860	1.060	0.495	
28.865	-0.398	0.460	
28.870	-0.321	0.356	
28.875	0.906	0.232	
28.880	-0.194	0.189	
28.885	-0.601	0.129	
28.890	0.547	0.036	
28.895	0.301	0.021	
28.900	-0.634	0.033	
28.905	0.033	-0.010	
28.910	0.797	-0.019	
28.915	-0.475	0.033	
28.920	-0.367	0.029	
28.925	0.877	0.006	
28.930	-0.179	0.049	
28.935	-0.562	0.060	
28.940	0.680	0.025	
28.945	0.467	0.061	
28.950	-0.553	0.117	
28.955	0.208	0.103	
28.960	0.979	0.116	
28.965	-0.379	0.183	
28.970	-0.243	0.181	
28.975	1.150	0.160	
28.980	0.021	0.216	
28.985	-0.411	0.240	
28.990	0.976	0.215	
28.995	0.727	0.268	
29.000	-0.440	0.336	
29.005	0.431	0.321	
29.010	1.144	0.326	
29.015	-0.329	0.379	
29.020	-0.216	0.347	
29.025	1.123	0.284	
29.030	-0.072	0.291	
29.035	-0.454	0.265	
29.040	0.878	0.199	
29.045	0.596	0.217	
29.050	-0.494	0.258	
29.055	0.287	0.226	
29.060	1.013	0.219	
29.065	-0.371	0.265	
29.070	-0.205	0.241	
29.075	1.268	0.208	
29.080	0.152	0.267	
29.085	-0.283	0.307	
29.090	1.450	0.317	
29.095	1.341	0.447	
29.100	-0.126	0.613	
29.105	0.961	0.676	
29.110	1.485	0.733	
29.115	-0.291	0.794	
29.120	-0.255	0.708	
29.125	0.938	0.541	
29.130	-0.184	0.425	
29.135	-0.535	0.291	
29.140	0.826	0.152	
29.145	0.615	0.136	
29.150	-0.462	0.176	
29.155	0.463	0.171	
29.160	1.204	0.213	
29.165	-0.294	0.314	
29.170	-0.144	0.327	
29.175	1.256	0.304	
