Vernier Format 2
ecg3.txt 10/18/2025 9:51:59
Run 1
Time	Potential	EKG	
T	P	E	
s	mV	mV	

0.000	-0.352	-0.016	
0.005	-0.008	-0.054	
0.010	-0.482	-0.102	
0.015	-0.570	-0.178	
0.020	0.029	-0.256	
0.025	-0.205	-0.280	
0.030	-0.570	-0.284	
0.035	-0.113	-0.301	
0.040	0.064	-0.288	
0.045	-0.508	-0.251	
0.050	-0.306	-0.244	
0.055	0.232	-0.237	
0.060	-0.350	-0.198	
0.065	-0.449	-0.185	
0.070	0.238	-0.191	
0.075	-0.095	-0.162	
0.080	-0.485	-0.138	
0.085	0.061	-0.147	
0.090	0.330	-0.126	
0.095	-0.375	-0.076	
0.100	-0.138	-0.063	
0.105	0.588	-0.048	
0.110	-0.165	0.008	
0.115	-0.252	0.035	
0.120	0.696	0.043	
0.125	0.345	0.107	
0.130	-0.255	0.171	
0.135	0.516	0.187	
0.140	0.701	0.229	
0.145	-0.242	0.284	
0.150	0.001	0.269	
0.155	0.686	0.233	
0.160	-0.184	0.227	
0.165	-0.353	0.180	
0.170	0.360	0.100	
0.175	-0.084	0.055	
0.180	-0.509	0.008	
0.185	-0.042	-0.069	
0.190	0.151	-0.115	
0.195	-0.491	-0.127	
0.200	-0.271	-0.160	
0.205	0.311	-0.180	
0.210	-0.347	-0.156	
0.215	-0.454	-0.155	
0.220	0.238	-0.172	
0.225	-0.110	-0.153	
0.230	-0.497	-0.137	
0.235	0.046	-0.153	
0.240	0.253	-0.140	
0.245	-0.425	-0.102	
0.250	-0.193	-0.100	
0.255	0.475	-0.097	
0.260	-0.260	-0.054	
0.265	-0.364	-0.042	
0.270	0.453	-0.053	
0.275	0.013	-0.023	
0.280	-0.442	-0.002	
0.285	0.136	-0.025	
0.290	0.304	-0.026	
0.295	-0.457	-0.008	
0.300	-0.262	-0.038	
0.305	0.278	-0.078	
0.310	-0.393	-0.088	
0.315	-0.501	-0.123	
0.320	0.142	-0.176	
0.325	-0.216	-0.189	
0.330	-0.616	-0.202	
0.335	-0.122	-0.244	
0.340	0.039	-0.257	
0.345	-0.561	-0.244	
0.350	-0.335	-0.258	
0.355	0.282	-0.261	
0.360	-0.310	-0.218	
0.365	-0.341	-0.188	
0.370	0.574	-0.158	
0.375	0.059	-0.074	
0.380	-0.482	-0.009	
0.385	-0.107	-0.022	
0.390	-0.132	-0.063	
0.395	-0.740	-0.122	
0.400	-0.529	-0.228	
0.405	-0.101	-0.325	
0.410	-0.546	-0.372	
0.415	-0.605	-0.409	
0.420	0.032	-0.432	
0.425	-0.234	-0.399	
0.430	-0.608	-0.357	
0.435	-0.078	-0.341	
0.440	0.117	-0.300	
0.445	-0.530	-0.242	
0.450	-0.284	-0.225	
0.455	0.328	-0.211	
0.460	-0.364	-0.165	
0.465	-0.448	-0.151	
0.470	0.321	-0.159	
0.475	-0.078	-0.129	
0.480	-0.482	-0.105	
0.485	0.168	-0.114	
0.490	0.371	-0.087	
0.495	-0.423	-0.035	
0.500	-0.165	-0.033	
0.505	0.568	-0.034	
0.510	-0.240	0.005	
0.515	-0.324	0.013	
0.520	0.640	0.003	
0.525	0.168	0.049	
0.530	-0.394	0.089	
0.535	0.296	0.078	
0.540	0.463	0.088	
0.545	-0.410	0.115	
0.550	-0.148	0.083	
0.555	0.568	0.046	
0.560	-0.265	0.052	
0.565	-0.378	0.030	
0.570	0.443	-0.013	
0.575	-0.071	-0.011	
0.580	-0.532	-0.019	
0.585	-0.008	-0.072	
0.590	0.127	-0.104	
0.595	-0.556	-0.115	
0.600	-0.320	-0.160	
0.605	0.191	-0.198	
0.610	-0.465	-0.199	
0.615	-0.564	-0.223	
0.620	0.108	-0.262	
0.625	-0.252	-0.261	
0.630	-0.650	-0.260	
0.635	-0.135	-0.290	
0.640	0.010	-0.293	
0.645	-0.602	-0.273	
0.650	-0.335	-0.284	
0.655	0.208	-0.286	
0.660	-0.451	-0.251	
0.665	-0.538	-0.244	
0.670	0.181	-0.258	
0.675	-0.216	-0.235	
0.680	-0.624	-0.221	
0.685	-0.092	-0.245	
0.690	0.061	-0.246	
0.695	-0.584	-0.227	
0.700	-0.347	-0.242	
0.705	0.185	-0.256	
0.710	-0.463	-0.236	
0.715	-0.540	-0.241	
0.720	0.175	-0.263	
0.725	-0.237	-0.244	
0.730	-0.617	-0.232	
0.735	-0.049	-0.254	
0.740	0.165	-0.243	
0.745	-0.489	-0.202	
0.750	-0.132	-0.189	
0.755	0.776	-0.146	
0.760	-0.188	-0.041	
0.765	-0.362	0.020	
0.770	0.372	0.021	
0.775	-0.254	0.024	
0.780	-0.752	-0.020	
0.785	-0.292	-0.133	
0.790	-0.207	-0.235	
0.795	-0.743	-0.308	
0.800	-0.442	-0.386	
0.805	0.154	-0.421	
0.810	-0.457	-0.388	
0.815	-0.532	-0.359	
0.820	0.235	-0.339	
0.825	-0.174	-0.277	
0.830	-0.572	-0.227	
0.835	0.033	-0.220	
0.840	0.169	-0.191	
0.845	-0.555	-0.150	
0.850	-0.287	-0.159	
0.855	0.376	-0.169	
0.860	-0.361	-0.138	
0.865	-0.422	-0.132	
0.870	0.484	-0.139	
0.875	-0.034	-0.093	
0.880	-0.477	-0.056	
0.885	0.276	-0.060	
0.890	0.504	-0.024	
0.895	-0.376	0.040	
0.900	-0.060	0.050	
0.905	0.761	0.057	
0.910	-0.196	0.109	
0.915	-0.283	0.118	
0.920	0.722	0.099	
0.925	0.149	0.132	
0.930	-0.417	0.152	
0.935	0.324	0.117	
0.940	0.447	0.109	
0.945	-0.454	0.121	
0.950	-0.208	0.073	
0.955	0.482	0.018	
0.960	-0.370	0.006	
0.965	-0.472	-0.035	
0.970	0.377	-0.092	
0.975	-0.142	-0.096	
0.980	-0.579	-0.103	
0.985	0.067	-0.145	
0.990	0.250	-0.147	
0.995	-0.532	-0.120	
1.000	-0.219	-0.132	
1.005	0.570	-0.132	
1.010	-0.310	-0.079	
1.015	-0.394	-0.059	
1.020	0.588	-0.062	
1.025	0.067	-0.013	
1.030	-0.465	0.025	
1.035	0.351	0.016	
1.040	0.554	0.045	
1.045	-0.420	0.099	
1.050	-0.141	0.087	
1.055	0.667	0.064	
1.060	-0.269	0.083	
1.065	-0.361	0.067	
1.070	0.592	0.028	
1.075	-0.031	0.040	
1.080	-0.546	0.038	
1.085	0.134	-0.015	
1.090	0.339	-0.036	
1.095	-0.506	-0.026	
1.100	-0.220	-0.057	
1.105	0.537	-0.081	
1.110	-0.327	-0.053	
1.115	-0.431	-0.055	
1.120	0.507	-0.077	
1.125	0.007	-0.047	
1.130	-0.497	-0.022	
1.135	0.347	-0.035	
1.140	0.647	0.004	
1.145	-0.310	0.084	
1.150	0.227	0.119	
1.155	1.087	0.171	
1.160	-0.118	0.271	
1.165	-0.317	0.295	
1.170	0.528	0.242	
1.175	-0.168	0.197	
1.180	-0.682	0.117	
1.185	-0.064	-0.018	
1.190	0.165	-0.111	
1.195	-0.585	-0.151	
1.200	-0.266	-0.201	
1.205	0.496	-0.218	
1.210	-0.344	-0.168	
1.215	-0.423	-0.141	
1.220	0.531	-0.132	
1.225	-0.051	-0.076	
1.230	-0.514	-0.038	
1.235	0.181	-0.054	
1.240	0.282	-0.046	
1.245	-0.562	-0.025	
1.250	-0.268	-0.061	
1.255	0.533	-0.094	
1.260	-0.262	-0.068	
1.265	-0.283	-0.055	
1.270	0.938	-0.034	
1.275	0.567	0.083	
1.280	-0.109	0.215	
1.285	1.089	0.307	
1.290	1.230	0.448	
1.295	-0.139	0.592	
1.300	0.079	0.601	
1.305	0.715	0.528	
1.310	-0.310	0.450	
1.315	-0.501	0.310	
1.320	0.065	0.126	
1.325	-0.350	-0.021	
1.330	-0.761	-0.153	
1.335	-0.341	-0.293	
1.340	-0.352	-0.390	
1.345	-0.905	-0.456	
1.350	-0.697	-0.536	
1.355	-0.425	-0.602	
1.360	-0.920	-0.637	
1.365	-0.987	-0.687	
1.370	-0.506	-0.742	
1.375	-0.726	-0.757	
1.380	-0.995	-0.762	
1.385	-0.506	-0.772	
1.390	-0.382	-0.744	
1.395	-0.813	-0.690	
1.400	-0.482	-0.651	
1.405	0.010	-0.593	
1.410	-0.440	-0.496	
1.415	-0.303	-0.412	
1.420	0.898	-0.301	
1.425	0.612	-0.094	
1.430	0.131	0.130	
1.435	1.245	0.313	
1.440	1.425	0.532	
1.445	0.489	0.753	
1.450	1.065	0.883	
1.455	1.734	0.984	
1.460	0.825	1.100	
1.465	0.754	1.145	
1.470	1.732	1.143	
1.475	1.199	1.181	
1.480	0.473	1.194	
1.485	1.333	1.141	
1.490	1.355	1.112	
1.495	0.368	1.095	
1.500	0.999	1.028	
1.505	1.899	1.002	
1.510	1.295	1.085	
1.515	1.460	1.200	
1.520	2.559	1.348	
1.525	2.183	1.576	
1.530	1.688	1.795	
1.535	2.690	1.952	
1.540	2.855	2.126	
1.545	1.870	2.294	
1.550	2.172	2.357	
1.555	2.528	2.357	
1.560	1.425	2.321	
1.565	1.205	2.179	
1.570	1.943	1.973	
1.575	1.337	1.805	
1.580	0.733	1.635	
1.585	1.613	1.454	
1.590	1.641	1.355	
1.595	0.713	1.315	
1.600	1.246	1.251	
1.605	1.778	1.219	
1.610	0.869	1.240	
1.615	0.800	1.221	
1.620	1.691	1.178	
1.625	1.190	1.187	
1.630	0.649	1.190	
1.635	1.560	1.159	
1.640	1.601	1.177	
1.645	0.710	1.222	
1.650	1.251	1.215	
1.655	1.810	1.219	
1.660	0.967	1.266	
1.665	0.974	1.273	
1.670	1.880	1.262	
1.675	1.392	1.307	
1.680	0.851	1.342	
1.685	1.729	1.334	
1.690	1.737	1.363	
1.695	0.851	1.405	
1.700	1.381	1.389	
1.705	1.874	1.377	
1.710	0.953	1.398	
1.715	0.904	1.367	
1.720	1.734	1.306	
1.725	1.113	1.289	
1.730	0.392	1.243	
1.735	1.054	1.127	
1.740	0.826	1.016	
1.745	-0.171	0.891	
1.750	-0.023	0.686	
1.755	0.194	0.457	
1.760	-0.477	0.256	
1.765	-0.520	0.050	
1.770	-0.023	-0.131	
1.775	-0.330	-0.238	
1.780	-0.608	-0.306	
1.785	-0.089	-0.358	
1.790	-0.074	-0.358	
1.795	-0.587	-0.329	
1.800	-0.278	-0.325	
1.805	0.244	-0.304	
1.810	-0.335	-0.244	
1.815	-0.262	-0.201	
1.820	0.809	-0.145	
1.825	0.350	-0.012	
1.830	-0.262	0.113	
1.835	0.181	0.154	
1.840	-0.219	0.141	
1.845	-0.986	0.051	
1.850	-0.816	-0.142	
1.855	-0.523	-0.355	
1.860	-0.993	-0.526	
1.865	-0.995	-0.675	
1.870	-0.497	-0.784	
1.875	-0.755	-0.820	
1.880	-0.993	-0.824	
1.885	-0.468	-0.822	
1.890	-0.361	-0.775	
1.895	-0.871	-0.704	
1.900	-0.492	-0.659	
1.905	0.000	-0.601	
1.910	-0.566	-0.510	
1.915	-0.579	-0.450	
1.920	0.165	-0.410	
1.925	-0.258	-0.338	
1.930	-0.587	-0.283	
1.935	0.241	-0.259	
1.940	0.314	-0.190	
1.945	-0.520	-0.105	
1.950	-0.190	-0.085	
1.955	0.316	-0.087	
1.960	-0.556	-0.077	
1.965	-0.643	-0.125	
1.970	0.024	-0.209	
1.975	-0.341	-0.255	
1.980	-0.677	-0.292	
1.985	0.055	-0.332	
1.990	0.206	-0.307	
1.995	-0.524	-0.241	
2.000	-0.106	-0.208	
2.005	0.692	-0.155	
2.010	-0.280	-0.054	
2.015	-0.295	-0.002	
2.020	0.838	0.022	
2.025	0.186	0.102	
2.030	-0.358	0.162	
2.035	0.647	0.167	
2.040	0.751	0.217	
2.045	-0.304	0.286	
2.050	0.212	0.284	
2.055	1.011	0.283	
2.060	-0.139	0.326	
2.065	-0.155	0.314	
2.070	1.118	0.281	
2.075	0.437	0.329	
2.080	-0.210	0.374	
2.085	0.956	0.372	
2.090	1.032	0.429	
2.095	-0.188	0.508	
2.100	0.406	0.502	
2.105	1.204	0.491	
2.110	-0.106	0.520	
2.115	-0.199	0.475	
2.120	0.878	0.382	
2.125	0.091	0.342	
2.130	-0.422	0.289	
2.135	0.431	0.194	
2.140	0.435	0.153	
2.145	-0.482	0.142	
2.150	-0.119	0.080	
2.155	0.592	0.029	
2.160	-0.396	0.030	
2.165	-0.442	-0.005	
2.170	0.466	-0.059	
2.175	-0.167	-0.060	
2.180	-0.596	-0.070	
2.185	0.159	-0.118	
2.190	0.230	-0.122	
2.195	-0.575	-0.099	
2.200	-0.187	-0.121	
2.205	0.541	-0.128	
2.210	-0.408	-0.085	
2.215	-0.439	-0.082	
2.220	0.530	-0.100	
2.225	-0.130	-0.067	
2.230	-0.547	-0.052	
2.235	0.264	-0.079	
2.240	0.285	-0.066	
2.245	-0.558	-0.034	
2.250	-0.181	-0.059	
2.255	0.455	-0.082	
2.260	-0.475	-0.066	
2.265	-0.509	-0.093	
2.270	0.321	-0.143	
2.275	-0.277	-0.148	
2.280	-0.700	-0.166	
2.285	-0.038	-0.223	
2.290	-0.011	-0.247	
2.295	-0.694	-0.248	
2.300	-0.326	-0.282	
2.305	0.243	-0.298	
2.310	-0.543	-0.268	
2.315	-0.520	-0.267	
2.320	0.467	-0.269	
2.325	-0.115	-0.206	
2.330	-0.530	-0.151	
2.335	0.255	-0.138	
2.340	0.189	-0.099	
2.345	-0.682	-0.063	
2.350	-0.390	-0.106	
2.355	0.000	-0.175	
2.360	-0.692	-0.227	
2.365	-0.692	-0.306	
2.370	0.047	-0.382	
2.375	-0.379	-0.394	
2.380	-0.749	-0.395	
2.385	-0.074	-0.412	
2.390	-0.029	-0.387	
2.395	-0.694	-0.342	
2.400	-0.295	-0.335	
2.405	0.302	-0.316	
2.410	-0.533	-0.258	
2.415	-0.533	-0.242	
2.420	0.383	-0.246	
2.425	-0.213	-0.201	
2.430	-0.616	-0.172	
2.435	0.214	-0.183	
2.440	0.256	-0.152	
2.445	-0.566	-0.101	
2.450	-0.144	-0.104	
2.455	0.625	-0.097	
2.460	-0.362	-0.041	
2.465	-0.344	-0.027	
2.470	0.793	-0.027	
2.475	0.059	0.038	
2.480	-0.425	0.086	
2.485	0.585	0.084	
2.490	0.599	0.129	
2.495	-0.419	0.191	
2.500	0.046	0.177	
2.505	0.820	0.160	
2.510	-0.329	0.185	
2.515	-0.364	0.154	
2.520	0.647	0.091	
2.525	-0.142	0.080	
2.530	-0.590	0.049	
2.535	0.185	-0.027	
2.540	0.142	-0.064	
2.545	-0.645	-0.078	
2.550	-0.249	-0.135	
2.555	0.360	-0.174	
2.560	-0.532	-0.164	
2.565	-0.523	-0.186	
2.570	0.376	-0.217	
2.575	-0.255	-0.194	
2.580	-0.640	-0.183	
2.585	0.178	-0.206	
2.590	0.192	-0.184	
2.595	-0.610	-0.141	
2.600	-0.185	-0.150	
2.605	0.518	-0.148	
2.610	-0.460	-0.102	
2.615	-0.433	-0.099	
2.620	0.620	-0.112	
2.625	-0.132	-0.066	
2.630	-0.556	-0.041	
2.635	0.322	-0.063	
2.640	0.275	-0.046	
2.645	-0.592	-0.016	
2.650	-0.173	-0.048	
2.655	0.515	-0.075	
2.660	-0.480	-0.057	
2.665	-0.488	-0.080	
2.670	0.464	-0.123	
2.675	-0.231	-0.111	
2.680	-0.625	-0.114	
2.685	0.233	-0.152	
2.690	0.211	-0.140	
2.695	-0.608	-0.106	
2.700	-0.153	-0.123	
2.705	0.621	-0.123	
2.710	-0.362	-0.066	
2.715	-0.242	-0.042	
2.720	1.113	-0.010	
2.725	0.243	0.110	
2.730	-0.396	0.205	
2.735	0.545	0.213	
2.740	0.276	0.223	
2.745	-0.676	0.206	
2.750	-0.303	0.096	
2.755	0.285	-0.022	
2.760	-0.550	-0.089	
2.765	-0.486	-0.165	
2.770	0.554	-0.217	
2.775	-0.173	-0.182	
2.780	-0.555	-0.147	
2.785	0.426	-0.142	
2.790	0.420	-0.080	
2.795	-0.511	-0.000	
2.800	0.032	0.013	
2.805	0.848	0.035	
2.810	-0.310	0.105	
2.815	-0.262	0.119	
2.820	0.968	0.110	
2.825	0.119	0.168	
2.830	-0.378	0.203	
2.835	0.811	0.192	
2.840	0.799	0.245	
2.845	-0.323	0.322	
2.850	0.409	0.326	
2.855	1.228	0.348	
2.860	-0.097	0.422	
2.865	-0.011	0.428	
2.870	1.385	0.410	
2.875	0.533	0.478	
2.880	-0.181	0.528	
2.885	1.141	0.515	
2.890	1.075	0.561	
2.895	-0.205	0.622	
2.900	0.568	0.594	
2.905	1.295	0.574	
2.910	-0.127	0.597	
2.915	-0.135	0.541	
2.920	1.081	0.445	
2.925	0.113	0.414	
2.930	-0.433	0.363	
2.935	0.582	0.263	
2.940	0.470	0.221	
2.945	-0.506	0.206	
2.950	0.036	0.138	
2.955	0.835	0.097	
2.960	-0.336	0.122	
2.965	-0.298	0.106	
2.970	0.857	0.075	
2.975	-0.020	0.110	
2.980	-0.454	0.124	
2.985	0.635	0.094	
2.990	0.576	0.127	
2.995	-0.433	0.182	
3.000	0.200	0.171	
3.005	0.974	0.178	
3.010	-0.268	0.235	
3.015	-0.226	0.230	
3.020	0.994	0.197	
3.025	0.070	0.229	
3.030	-0.413	0.236	
3.035	0.678	0.192	
3.040	0.551	0.204	
3.045	-0.472	0.233	
3.050	0.058	0.188	
3.055	0.794	0.152	
3.060	-0.379	0.164	
3.065	-0.339	0.126	
3.070	0.782	0.071	
3.075	-0.103	0.083	
3.080	-0.508	0.077	
3.085	0.530	0.032	
3.090	0.435	0.050	
3.095	-0.492	0.091	
3.100	0.142	0.076	
3.105	1.040	0.093	
3.110	-0.168	0.179	
3.115	-0.115	0.215	
3.120	1.066	0.224	
3.125	-0.022	0.279	
3.130	-0.530	0.278	
3.135	0.327	0.191	
3.140	0.157	0.126	
3.145	-0.631	0.071	
3.150	-0.121	-0.026	
3.155	0.660	-0.078	
3.160	-0.381	-0.052	
3.165	-0.275	-0.047	
3.170	0.942	-0.035	
3.175	0.058	0.054	
3.180	-0.373	0.119	
3.185	0.831	0.136	
3.190	0.738	0.213	
3.195	-0.344	0.302	
3.200	0.417	0.311	
3.205	1.184	0.336	
3.210	-0.156	0.407	
3.215	-0.064	0.404	
3.220	1.285	0.374	
3.225	0.383	0.424	
3.230	-0.226	0.454	
3.235	1.087	0.432	
3.240	0.971	0.476	
3.245	-0.228	0.539	
3.250	0.643	0.524	
3.255	1.399	0.534	
3.260	-0.013	0.598	
3.265	0.131	0.588	
3.270	1.469	0.555	
3.275	0.496	0.600	
3.280	-0.164	0.618	
3.285	1.176	0.575	
3.290	0.997	0.594	
3.295	-0.248	0.629	
3.300	0.512	0.577	
3.305	1.123	0.532	
3.310	-0.243	0.528	
3.315	-0.205	0.449	
3.320	0.909	0.338	
3.325	-0.077	0.293	
3.330	-0.480	0.229	
3.335	0.519	0.131	
3.340	0.327	0.100	
3.345	-0.547	0.095	
3.350	-0.025	0.038	
3.355	0.646	0.006	
3.360	-0.434	0.027	
3.365	-0.352	0.006	
3.370	0.698	-0.026	
3.375	-0.177	0.003	
3.380	-0.533	0.008	
3.385	0.447	-0.028	
3.390	0.279	-0.011	
3.395	-0.561	0.020	
3.400	-0.029	-0.009	
3.405	0.640	-0.020	
3.410	-0.440	0.015	
3.415	-0.353	0.002	
3.420	0.676	-0.026	
3.425	-0.210	0.001	
3.430	-0.578	-0.000	
3.435	0.313	-0.050	
3.440	0.093	-0.058	
3.445	-0.662	-0.059	
3.450	-0.155	-0.113	
3.455	0.431	-0.143	
3.460	-0.543	-0.124	
3.465	-0.456	-0.143	
3.470	0.449	-0.172	
3.475	-0.312	-0.149	
3.480	-0.633	-0.147	
3.485	0.278	-0.179	
3.490	0.130	-0.159	
3.495	-0.584	-0.122	
3.500	0.056	-0.127	
3.505	0.805	-0.090	
3.510	-0.388	0.003	
3.515	-0.346	0.034	
3.520	0.536	0.018	
3.525	-0.370	0.023	
3.530	-0.766	-0.023	
3.535	-0.064	-0.133	
3.540	-0.187	-0.212	
3.545	-0.816	-0.269	
3.550	-0.298	-0.346	
3.555	0.221	-0.374	
3.560	-0.619	-0.341	
3.565	-0.508	-0.332	
3.570	0.386	-0.324	
3.575	-0.338	-0.264	
3.580	-0.648	-0.229	
3.585	0.243	-0.233	
3.590	0.036	-0.198	
3.595	-0.666	-0.161	
3.600	-0.150	-0.179	
3.605	0.429	-0.180	
3.610	-0.540	-0.140	
3.615	-0.420	-0.143	
3.620	0.544	-0.157	
3.625	-0.284	-0.117	
3.630	-0.604	-0.105	
3.635	0.372	-0.131	
3.640	0.209	-0.104	
3.645	-0.561	-0.061	
3.650	0.049	-0.068	
3.655	0.728	-0.047	
3.660	-0.405	0.023	
3.665	-0.278	0.036	
3.670	0.834	0.030	
3.675	-0.133	0.080	
3.680	-0.498	0.093	
3.685	0.482	0.052	
3.690	0.139	0.050	
3.695	-0.685	0.044	
3.700	-0.251	-0.036	
3.705	0.068	-0.120	
3.710	-0.770	-0.180	
3.715	-0.703	-0.277	
3.720	-0.090	-0.378	
3.725	-0.624	-0.427	
3.730	-0.928	-0.477	
3.735	-0.234	-0.539	
3.740	-0.347	-0.550	
3.745	-0.940	-0.540	
3.750	-0.423	-0.558	
3.755	-0.083	-0.550	
3.760	-0.784	-0.508	
3.765	-0.654	-0.500	
3.770	0.072	-0.497	
3.775	-0.512	-0.451	
3.780	-0.799	-0.426	
3.785	-0.040	-0.434	
3.790	-0.167	-0.406	
3.795	-0.779	-0.371	
3.800	-0.251	-0.376	
3.805	0.236	-0.358	
3.810	-0.654	-0.302	
3.815	-0.537	-0.294	
3.820	0.269	-0.302	
3.825	-0.465	-0.272	
3.830	-0.781	-0.274	
3.835	-0.028	-0.319	
3.840	-0.203	-0.330	
3.845	-0.825	-0.333	
3.850	-0.298	-0.372	
3.855	0.140	-0.382	
3.860	-0.691	-0.349	
3.865	-0.558	-0.351	
3.870	0.273	-0.358	
3.875	-0.425	-0.316	
3.880	-0.712	-0.296	
3.885	0.174	-0.309	
3.890	0.024	-0.274	
3.895	-0.610	-0.224	
3.900	0.029	-0.212	
3.905	0.573	-0.166	
3.910	-0.535	-0.083	
3.915	-0.471	-0.072	
3.920	0.319	-0.106	
3.925	-0.471	-0.118	
3.930	-0.781	-0.166	
3.935	0.018	-0.253	
3.940	-0.150	-0.290	
3.945	-0.750	-0.302	
3.950	-0.199	-0.338	
3.955	0.356	-0.329	
3.960	-0.596	-0.269	
3.965	-0.451	-0.248	
3.970	0.499	-0.239	
3.975	-0.321	-0.179	
3.980	-0.605	-0.152	
3.985	0.392	-0.163	
3.990	0.091	-0.126	
3.995	-0.642	-0.087	
4.000	-0.060	-0.110	
4.005	0.548	-0.111	
4.010	-0.506	-0.066	
4.015	-0.333	-0.069	
4.020	0.797	-0.075	
4.025	-0.158	-0.013	
4.030	-0.431	0.022	
4.035	0.822	0.026	
4.040	0.599	0.107	
4.045	-0.378	0.203	
4.050	0.545	0.230	
4.055	1.190	0.289	
4.060	-0.199	0.390	
4.065	0.015	0.405	
4.070	1.277	0.389	
4.075	0.169	0.436	
4.080	-0.300	0.439	
4.085	0.974	0.385	
4.090	0.632	0.392	
4.095	-0.422	0.407	
4.100	0.348	0.346	
4.105	0.867	0.305	
4.110	-0.399	0.306	
4.115	-0.263	0.241	
4.120	0.829	0.160	
4.125	-0.203	0.146	
4.130	-0.547	0.106	
4.135	0.447	0.028	
4.140	0.107	0.005	
4.145	-0.640	-0.006	
4.150	-0.046	-0.067	
4.155	0.498	-0.095	
4.160	-0.579	-0.074	
4.165	-0.454	-0.102	
4.170	0.458	-0.144	
4.175	-0.373	-0.134	
4.180	-0.643	-0.148	
4.185	0.339	-0.188	
4.190	0.062	-0.168	
4.195	-0.647	-0.136	
4.200	-0.011	-0.153	
4.205	0.596	-0.136	
4.210	-0.503	-0.071	
4.215	-0.339	-0.061	
4.220	0.680	-0.068	
4.225	-0.283	-0.025	
4.230	-0.572	-0.020	
4.235	0.507	-0.056	
4.240	0.212	-0.034	
4.245	-0.584	-0.000	
4.250	0.110	-0.023	
4.255	0.699	-0.014	
4.260	-0.448	0.041	
4.265	-0.255	0.040	
4.270	0.929	0.031	
4.275	-0.110	0.090	
4.280	-0.379	0.117	
4.285	1.034	0.116	
4.290	0.926	0.215	
4.295	-0.152	0.350	
4.300	0.950	0.425	
4.305	1.442	0.530	
4.310	-0.188	0.652	
4.315	-0.150	0.634	
4.320	0.840	0.525	
4.325	-0.242	0.433	
4.330	-0.530	0.300	
4.335	0.660	0.150	
4.340	0.440	0.105	
4.345	-0.440	0.114	
4.350	0.472	0.099	
4.355	1.100	0.147	
4.360	-0.243	0.256	
4.365	0.023	0.291	
4.370	1.332	0.307	
4.375	0.236	0.393	
4.380	-0.207	0.437	
4.385	1.246	0.427	
4.390	0.932	0.492	
4.395	-0.222	0.566	
4.400	0.860	0.560	
4.405	1.431	0.589	
4.410	-0.049	0.664	
4.415	0.369	0.657	
4.420	1.674	0.641	
4.425	0.573	0.713	
4.430	0.053	0.749	
4.435	1.662	0.737	
4.440	1.375	0.814	
4.445	0.108	0.910	
4.450	1.307	0.923	
4.455	1.885	0.972	
4.460	0.359	1.067	
4.465	0.702	1.070	
4.470	1.922	1.043	
4.475	0.735	1.082	
4.480	0.124	1.063	
4.485	1.607	0.977	
4.490	1.173	0.963	
4.495	-0.130	0.954	
4.500	0.935	0.859	
4.505	1.405	0.799	
4.510	-0.122	0.789	
4.515	0.159	0.699	
4.520	1.381	0.599	
4.525	0.181	0.582	
4.530	-0.236	0.536	
4.535	1.167	0.455	
4.540	0.800	0.465	
4.545	-0.291	0.498	
4.550	0.707	0.465	
4.555	1.226	0.472	
4.560	-0.182	0.525	
4.565	0.120	0.500	
4.570	1.370	0.461	
4.575	0.198	0.498	
4.580	-0.219	0.496	
4.585	1.204	0.448	
4.590	0.835	0.481	
4.595	-0.263	0.529	
4.600	0.739	0.503	
4.605	1.257	0.512	
4.610	-0.188	0.563	
4.615	0.062	0.528	
4.620	1.249	0.468	
4.625	0.027	0.471	
4.630	-0.318	0.432	
4.635	0.985	0.350	
4.640	0.603	0.349	
4.645	-0.370	0.368	
4.650	0.554	0.329	
4.655	1.069	0.332	
4.660	-0.292	0.383	
4.665	-0.066	0.357	
4.670	1.184	0.313	
4.675	0.047	0.342	
4.680	-0.236	0.341	
4.685	1.298	0.318	
4.690	1.034	0.405	
4.695	-0.165	0.520	
4.700	0.870	0.554	
4.705	1.216	0.597	
4.710	-0.335	0.645	
4.715	-0.223	0.564	
4.720	0.748	0.419	
4.725	-0.274	0.316	
4.730	-0.514	0.193	
4.735	0.695	0.069	
4.740	0.391	0.053	
4.745	-0.437	0.084	
4.750	0.490	0.084	
4.755	1.043	0.141	
4.760	-0.269	0.250	
4.765	0.015	0.281	
4.770	1.278	0.293	
4.775	0.105	0.368	
4.780	-0.226	0.395	
4.785	1.202	0.375	
4.790	0.819	0.434	
4.795	-0.245	0.503	
4.800	0.828	0.497	
4.805	1.341	0.530	
4.810	-0.098	0.605	
4.815	0.339	0.599	
4.820	1.616	0.587	
4.825	0.476	0.659	
4.830	0.021	0.693	
4.835	1.584	0.678	
4.840	1.184	0.748	
4.845	-0.038	0.824	
4.850	1.170	0.815	
4.855	1.645	0.842	
4.860	0.085	0.910	
4.865	0.487	0.881	
4.870	1.619	0.828	
4.875	0.322	0.836	
4.880	-0.156	0.783	
4.885	1.175	0.667	
4.890	0.651	0.618	
4.895	-0.375	0.577	
4.900	0.479	0.468	
4.905	0.907	0.397	
4.910	-0.368	0.377	
4.915	-0.142	0.299	
4.920	0.961	0.220	
4.925	-0.176	0.214	
4.930	-0.443	0.180	
4.935	0.702	0.113	
4.940	0.223	0.114	
4.945	-0.546	0.121	
4.950	0.180	0.070	
4.955	0.615	0.052	
4.960	-0.495	0.076	
4.965	-0.254	0.045	
4.970	0.776	0.011	
4.975	-0.240	0.041	
4.980	-0.465	0.040	
4.985	0.678	0.010	
4.990	0.253	0.046	
4.995	-0.506	0.086	
5.000	0.310	0.070	
5.005	0.735	0.088	
5.010	-0.453	0.142	
5.015	-0.232	0.123	
5.020	0.751	0.084	
5.025	-0.274	0.095	
5.030	-0.518	0.069	
5.035	0.539	0.007	
5.040	0.053	0.004	
5.045	-0.602	0.004	
5.050	0.076	-0.047	
5.055	0.475	-0.062	
5.060	-0.549	-0.036	
5.065	-0.304	-0.059	
5.070	0.649	-0.083	
5.075	-0.297	-0.047	
5.080	-0.477	-0.041	
5.085	0.744	-0.053	
5.090	0.434	0.017	
5.095	-0.402	0.104	
5.100	0.427	0.131	
5.105	0.727	0.174	
5.110	-0.518	0.226	
5.115	-0.364	0.179	
5.120	0.415	0.084	
5.125	-0.456	0.023	
5.130	-0.656	-0.065	
5.135	0.295	-0.164	
5.140	-0.069	-0.189	
5.145	-0.624	-0.187	
5.150	0.133	-0.207	
5.155	0.574	-0.168	
5.160	-0.482	-0.081	
5.165	-0.226	-0.052	
5.170	0.761	-0.036	
5.175	-0.255	0.026	
5.180	-0.449	0.043	
5.185	0.681	0.021	
5.190	0.183	0.057	
5.195	-0.521	0.089	
5.200	0.287	0.061	
5.205	0.730	0.073	
5.210	-0.404	0.127	
5.215	-0.124	0.121	
5.220	0.950	0.109	
5.225	-0.159	0.158	
5.230	-0.350	0.166	
5.235	0.910	0.141	
5.240	0.429	0.191	
5.245	-0.379	0.244	
5.250	0.573	0.236	
5.255	0.962	0.269	
5.260	-0.310	0.336	
5.265	-0.031	0.321	
5.270	1.049	0.286	
5.275	-0.145	0.305	
5.280	-0.388	0.275	
5.285	0.715	0.200	
5.290	0.127	0.180	
5.295	-0.575	0.155	
5.300	0.090	0.071	
5.305	0.409	0.017	
5.310	-0.590	0.002	
5.315	-0.346	-0.057	
5.320	0.457	-0.114	
5.325	-0.431	-0.114	
5.330	-0.614	-0.141	
5.335	0.314	-0.190	
5.340	-0.132	-0.184	
5.345	-0.698	-0.177	
5.350	-0.040	-0.214	
5.355	0.310	-0.214	
5.360	-0.611	-0.176	
5.365	-0.339	-0.182	
5.370	0.516	-0.188	
5.375	-0.396	-0.142	
5.380	-0.564	-0.132	
5.385	0.432	-0.153	
5.390	-0.066	-0.125	
5.395	-0.636	-0.103	
5.400	0.053	-0.133	
5.405	0.362	-0.130	
5.410	-0.607	-0.097	
5.415	-0.342	-0.118	
5.420	0.435	-0.146	
5.425	-0.465	-0.130	
5.430	-0.656	-0.151	
5.435	0.214	-0.206	
5.440	-0.194	-0.214	
5.445	-0.737	-0.221	
5.450	-0.106	-0.265	
5.455	0.145	-0.275	
5.460	-0.702	-0.253	
5.465	-0.430	-0.273	
5.470	0.347	-0.289	
5.475	-0.468	-0.253	
5.480	-0.613	-0.244	
5.485	0.434	-0.252	
5.490	0.039	-0.197	
5.495	-0.504	-0.132	
5.500	0.353	-0.105	
5.505	0.600	-0.035	
5.510	-0.535	0.053	
5.515	-0.347	0.048	
5.520	0.267	-0.007	
5.525	-0.585	-0.051	
5.530	-0.757	-0.140	
5.535	0.050	-0.253	
5.540	-0.255	-0.303	
5.545	-0.761	-0.329	
5.550	-0.084	-0.366	
5.555	0.218	-0.350	
5.560	-0.634	-0.291	
5.565	-0.326	-0.271	
5.570	0.519	-0.247	
5.575	-0.405	-0.175	
5.580	-0.549	-0.146	
5.585	0.490	-0.152	
5.590	-0.043	-0.109	
5.595	-0.605	-0.077	
5.600	0.191	-0.096	
5.605	0.527	-0.074	
5.610	-0.512	-0.015	
5.615	-0.205	-0.016	
5.620	0.770	-0.021	
5.625	-0.274	0.030	
5.630	-0.404	0.041	
5.635	0.813	0.026	
5.640	0.307	0.085	
5.645	-0.411	0.145	
5.650	0.547	0.149	
5.655	0.823	0.193	
5.660	-0.362	0.263	
5.665	-0.037	0.252	
5.670	0.973	0.225	
5.675	-0.211	0.248	
5.680	-0.402	0.221	
5.685	0.663	0.150	
5.690	0.004	0.131	
5.695	-0.607	0.100	
5.700	0.082	0.014	
5.705	0.304	-0.037	
5.710	-0.640	-0.053	
5.715	-0.365	-0.113	
5.720	0.382	-0.167	
5.725	-0.489	-0.167	
5.730	-0.634	-0.193	
5.735	0.275	-0.239	
5.740	-0.217	-0.231	
5.745	-0.744	-0.226	
5.750	-0.083	-0.265	
5.755	0.195	-0.268	
5.760	-0.662	-0.236	
5.765	-0.365	-0.246	
5.770	0.414	-0.251	
5.775	-0.468	-0.207	
5.780	-0.598	-0.199	
5.785	0.388	-0.217	
5.790	-0.130	-0.184	
5.795	-0.656	-0.158	
5.800	0.088	-0.178	
5.805	0.371	-0.161	
5.810	-0.593	-0.111	
5.815	-0.286	-0.117	
5.820	0.537	-0.128	
5.825	-0.451	-0.093	
5.830	-0.616	-0.105	
5.835	0.295	-0.155	
5.840	-0.214	-0.162	
5.845	-0.738	-0.176	
5.850	-0.075	-0.232	
5.855	0.149	-0.251	
5.860	-0.698	-0.235	
5.865	-0.393	-0.260	
5.870	0.368	-0.276	
5.875	-0.497	-0.240	
5.880	-0.610	-0.235	
5.885	0.423	-0.249	
5.890	-0.069	-0.202	
5.895	-0.541	-0.153	
5.900	0.498	-0.131	
5.905	0.805	-0.038	
5.910	-0.417	0.093	
5.915	-0.162	0.131	
5.920	0.530	0.116	
5.925	-0.541	0.104	
5.930	-0.737	0.019	
5.935	0.041	-0.117	
5.940	-0.329	-0.208	
5.945	-0.795	-0.279	
5.950	-0.083	-0.355	
5.955	0.188	-0.363	
5.960	-0.669	-0.317	
5.965	-0.335	-0.304	
5.970	0.508	-0.280	
5.975	-0.433	-0.205	
5.980	-0.544	-0.172	
5.985	0.527	-0.170	
5.990	-0.058	-0.117	
5.995	-0.598	-0.078	
6.000	0.259	-0.090	
6.005	0.545	-0.058	
6.010	-0.509	0.007	
6.015	-0.161	0.009	
6.020	0.826	0.008	
6.025	-0.286	0.061	
6.030	-0.396	0.070	
6.035	0.881	0.052	
6.040	0.275	0.109	
6.045	-0.426	0.164	
6.050	0.672	0.165	
6.055	0.948	0.221	
6.060	-0.338	0.310	
6.065	0.081	0.314	
6.070	1.106	0.300	
6.075	-0.182	0.336	
6.080	-0.335	0.310	
6.085	0.897	0.242	
6.090	0.157	0.239	
6.095	-0.547	0.223	
6.100	0.307	0.146	
6.105	0.486	0.106	
6.110	-0.588	0.099	
6.115	-0.269	0.033	
6.120	0.567	-0.032	
6.125	-0.460	-0.039	
6.130	-0.585	-0.079	
6.135	0.414	-0.140	
6.140	-0.173	-0.141	
6.145	-0.697	-0.144	
6.150	0.068	-0.189	
6.155	0.330	-0.186	
6.160	-0.627	-0.146	
6.165	-0.272	-0.154	
6.170	0.625	-0.155	
6.175	-0.402	-0.101	
6.180	-0.523	-0.087	
6.185	0.570	-0.105	
6.190	-0.071	-0.070	
6.195	-0.610	-0.048	
6.200	0.296	-0.074	
6.205	0.545	-0.049	
6.210	-0.524	0.012	
6.215	-0.147	0.010	
6.220	0.846	0.008	
6.225	-0.303	0.063	
6.230	-0.430	0.070	
6.235	0.735	0.041	
6.240	0.007	0.067	
6.245	-0.585	0.075	
6.250	0.322	0.026	
6.255	0.547	0.026	
6.260	-0.533	0.061	
6.265	-0.173	0.035	
6.270	0.767	0.011	
6.275	-0.361	0.043	
6.280	-0.469	0.031	
6.285	0.739	-0.006	
6.290	0.058	0.026	
6.295	-0.517	0.052	
6.300	0.620	0.039	
6.305	0.996	0.105	
6.310	-0.283	0.225	
6.315	0.256	0.275	
6.320	1.207	0.314	
6.325	-0.237	0.388	
6.330	-0.472	0.365	
6.335	0.531	0.256	
6.340	-0.177	0.174	
6.345	-0.712	0.077	
6.350	0.142	-0.052	
6.355	0.455	-0.105	
6.360	-0.537	-0.088	
6.365	-0.103	-0.096	
6.370	0.953	-0.073	
6.375	-0.262	0.023	
6.380	-0.336	0.070	
6.385	1.010	0.084	
6.390	0.310	0.167	
6.395	-0.422	0.233	
6.400	0.727	0.231	
6.405	0.964	0.280	
6.410	-0.333	0.359	
6.415	0.226	0.356	
6.420	1.269	0.353	
6.425	-0.092	0.409	
6.430	-0.203	0.402	
6.435	1.233	0.358	
6.440	0.533	0.400	
6.445	-0.295	0.439	
6.450	0.988	0.420	
6.455	1.230	0.467	
6.460	-0.187	0.555	
6.465	0.508	0.559	
6.470	1.552	0.567	
6.475	0.117	0.639	
6.480	-0.083	0.635	
6.485	1.404	0.578	
6.490	0.620	0.598	
6.495	-0.307	0.605	
6.500	0.829	0.535	
6.505	0.918	0.507	
6.510	-0.394	0.504	
6.515	0.024	0.417	
6.520	0.999	0.327	
6.525	-0.274	0.303	
6.530	-0.388	0.238	
6.535	0.813	0.152	
6.540	0.024	0.139	
6.545	-0.562	0.121	
6.550	0.394	0.057	
6.555	0.559	0.051	
6.560	-0.524	0.085	
6.565	-0.130	0.057	
6.570	0.826	0.034	
6.575	-0.324	0.072	
6.580	-0.399	0.068	
6.585	0.858	0.040	
6.590	0.142	0.087	
6.595	-0.488	0.124	
6.600	0.573	0.107	
6.605	0.742	0.144	
6.610	-0.433	0.210	
6.615	0.020	0.199	
6.620	1.055	0.188	
6.625	-0.220	0.235	
6.630	-0.315	0.229	
6.635	0.984	0.190	
6.640	0.188	0.221	
6.645	-0.489	0.235	
6.650	0.510	0.186	
6.655	0.657	0.182	
6.660	-0.489	0.208	
6.665	-0.071	0.165	
6.670	0.893	0.125	
6.675	-0.307	0.147	
6.680	-0.391	0.126	
6.685	0.828	0.080	
6.690	0.067	0.104	
6.695	-0.517	0.117	
6.700	0.522	0.082	
6.705	0.716	0.106	
6.710	-0.404	0.171	
6.715	0.217	0.176	
6.720	1.303	0.208	
6.725	-0.113	0.310	
6.730	-0.252	0.341	
6.735	0.900	0.307	
6.740	-0.060	0.302	
6.745	-0.656	0.249	
6.750	0.122	0.120	
6.755	0.266	0.027	
6.760	-0.627	-0.022	
6.765	-0.207	-0.097	
6.770	0.741	-0.130	
6.775	-0.346	-0.079	
6.780	-0.388	-0.055	
6.785	0.852	-0.046	
6.790	0.097	0.032	
6.795	-0.482	0.091	
6.800	0.570	0.090	
6.805	0.724	0.136	
6.810	-0.428	0.207	
6.815	0.049	0.200	
6.820	1.025	0.192	
6.825	-0.217	0.239	
6.830	-0.287	0.232	
6.835	1.023	0.197	
6.840	0.267	0.236	
6.845	-0.401	0.266	
6.850	0.761	0.241	
6.855	0.938	0.280	
6.860	-0.300	0.355	
6.865	0.339	0.358	
6.870	1.333	0.372	
6.875	-0.057	0.446	
6.880	-0.141	0.450	
6.885	1.292	0.413	
6.890	0.519	0.455	
6.895	-0.301	0.486	
6.900	0.880	0.448	
6.905	0.933	0.457	
6.910	-0.349	0.488	
6.915	0.175	0.432	
6.920	1.075	0.374	
6.925	-0.255	0.372	
6.930	-0.342	0.313	
6.935	0.814	0.220	
6.940	-0.003	0.193	
6.945	-0.543	0.156	
6.950	0.389	0.077	
6.955	0.470	0.057	
6.960	-0.550	0.072	
6.965	-0.133	0.031	
6.970	0.747	0.002	
6.975	-0.371	0.033	
6.980	-0.414	0.023	
6.985	0.759	-0.006	
6.990	-0.008	0.031	
6.995	-0.515	0.054	
7.000	0.508	0.031	
7.005	0.588	0.064	
7.010	-0.492	0.124	
7.015	-0.045	0.110	
7.020	0.890	0.097	
7.025	-0.300	0.139	
7.030	-0.335	0.132	
7.035	0.893	0.101	
7.040	0.068	0.137	
7.045	-0.485	0.155	
7.050	0.519	0.117	
7.055	0.551	0.128	
7.060	-0.515	0.161	
7.065	-0.090	0.121	
7.070	0.774	0.083	
7.075	-0.365	0.099	
7.080	-0.401	0.072	
7.085	0.730	0.026	
7.090	-0.055	0.044	
7.095	-0.546	0.049	
7.100	0.438	0.009	
7.105	0.522	0.027	
7.110	-0.494	0.077	
7.115	0.003	0.066	
7.120	0.996	0.072	
7.125	-0.171	0.145	
7.130	-0.127	0.179	
7.135	1.283	0.202	
7.140	0.392	0.307	
7.145	-0.355	0.381	
7.150	0.635	0.361	
7.155	0.498	0.351	
7.160	-0.567	0.330	
7.165	-0.139	0.223	
7.170	0.730	0.124	
7.175	-0.338	0.097	
7.180	-0.323	0.054	
7.185	0.936	0.021	
7.190	0.143	0.079	
7.195	-0.420	0.130	
7.200	0.690	0.130	
7.205	0.716	0.184	
7.210	-0.416	0.255	
7.215	0.116	0.243	
7.220	0.988	0.229	
7.225	-0.252	0.265	
7.230	-0.268	0.244	
7.235	0.991	0.198	
7.240	0.137	0.224	
7.245	-0.404	0.235	
7.250	0.744	0.201	
7.255	0.826	0.235	
7.260	-0.336	0.303	
7.265	0.313	0.303	
7.270	1.214	0.316	
7.275	-0.121	0.385	
7.280	-0.119	0.387	
7.285	1.286	0.360	
7.290	0.452	0.414	
7.295	-0.266	0.453	
7.300	0.981	0.430	
7.305	0.985	0.463	
7.310	-0.298	0.516	
7.315	0.269	0.477	
7.320	1.061	0.430	
7.325	-0.252	0.426	
7.330	-0.306	0.357	
7.335	0.806	0.255	
7.340	-0.086	0.214	
7.345	-0.572	0.157	
7.350	0.304	0.057	
7.355	0.305	0.014	
7.360	-0.588	0.005	
7.365	-0.152	-0.048	
7.370	0.600	-0.078	
7.375	-0.445	-0.051	
7.380	-0.456	-0.063	
7.385	0.557	-0.093	
7.390	-0.184	-0.070	
7.395	-0.610	-0.064	
7.400	0.302	-0.101	
7.405	0.284	-0.087	
7.410	-0.616	-0.053	
7.415	-0.184	-0.078	
7.420	0.518	-0.098	
7.425	-0.503	-0.073	
7.430	-0.511	-0.094	
7.435	0.466	-0.135	
7.440	-0.239	-0.122	
7.445	-0.660	-0.125	
7.450	0.174	-0.166	
7.455	0.142	-0.164	
7.460	-0.671	-0.143	
7.465	-0.257	-0.173	
7.470	0.356	-0.194	
7.475	-0.573	-0.174	
7.480	-0.584	-0.196	
7.485	0.275	-0.238	
7.490	-0.361	-0.233	
7.495	-0.790	-0.245	
7.500	-0.084	-0.299	
7.505	-0.089	-0.318	
7.510	-0.786	-0.318	
7.515	-0.355	-0.352	
7.520	0.203	-0.363	
7.525	-0.624	-0.328	
7.530	-0.569	-0.325	
7.535	0.490	-0.322	
7.540	-0.142	-0.249	
7.545	-0.526	-0.181	
7.550	0.450	-0.149	
7.555	0.325	-0.074	
7.560	-0.700	-0.004	
7.565	-0.385	-0.037	
7.570	-0.026	-0.115	
7.575	-0.786	-0.189	
7.580	-0.761	-0.299	
7.585	0.017	-0.404	
7.590	-0.440	-0.435	
7.595	-0.815	-0.447	
7.600	-0.048	-0.468	
7.605	-0.040	-0.436	
7.610	-0.747	-0.380	
7.615	-0.291	-0.367	
7.620	0.337	-0.338	
7.625	-0.587	-0.271	
7.630	-0.561	-0.253	
7.635	0.395	-0.257	
7.640	-0.280	-0.215	
7.645	-0.679	-0.193	
7.650	0.214	-0.212	
7.655	0.206	-0.185	
7.660	-0.621	-0.137	
7.665	-0.133	-0.142	
7.670	0.676	-0.128	
7.675	-0.407	-0.060	
7.680	-0.368	-0.039	
7.685	0.820	-0.036	
7.690	-0.013	0.030	
7.695	-0.457	0.073	
7.700	0.644	0.067	
7.705	0.585	0.117	
7.710	-0.471	0.182	
7.715	0.052	0.167	
7.720	0.826	0.149	
7.725	-0.384	0.174	
7.730	-0.391	0.139	
7.735	0.669	0.073	
7.740	-0.184	0.062	
7.745	-0.639	0.030	
7.750	0.186	-0.050	
7.755	0.073	-0.089	
7.760	-0.726	-0.110	
7.765	-0.301	-0.178	
7.770	0.290	-0.226	
7.775	-0.631	-0.224	
7.780	-0.621	-0.256	
7.785	0.227	-0.300	
7.790	-0.399	-0.292	
7.795	-0.805	-0.298	
7.800	-0.077	-0.342	
7.805	-0.118	-0.350	
7.810	-0.804	-0.341	
7.815	-0.350	-0.370	
7.820	0.206	-0.375	
7.825	-0.663	-0.336	
7.830	-0.634	-0.336	
7.835	0.250	-0.352	
7.840	-0.367	-0.318	
7.845	-0.747	-0.299	
7.850	0.076	-0.317	
7.855	0.035	-0.293	
7.860	-0.717	-0.254	
7.865	-0.252	-0.264	
7.870	0.372	-0.259	
7.875	-0.611	-0.215	
7.880	-0.599	-0.220	
7.885	0.261	-0.253	
7.890	-0.405	-0.245	
7.895	-0.807	-0.259	
7.900	-0.064	-0.314	
7.905	-0.106	-0.331	
7.910	-0.801	-0.328	
7.915	-0.350	-0.361	
7.920	0.220	-0.370	
7.925	-0.656	-0.332	
7.930	-0.617	-0.331	
7.935	0.295	-0.343	
7.940	-0.359	-0.304	
7.945	-0.709	-0.280	
7.950	0.325	-0.284	
7.955	0.443	-0.216	
7.960	-0.488	-0.109	
7.965	0.049	-0.059	
7.970	0.744	-0.007	
7.975	-0.503	0.068	
7.980	-0.592	0.052	
7.985	0.148	-0.036	
7.990	-0.495	-0.109	
7.995	-0.899	-0.205	
8.000	-0.161	-0.328	
8.005	-0.150	-0.391	
8.010	-0.792	-0.407	
8.015	-0.286	-0.434	
8.020	0.414	-0.410	
8.025	-0.566	-0.324	
8.030	-0.520	-0.279	
8.035	0.501	-0.256	
8.040	-0.257	-0.188	
8.045	-0.653	-0.150	
8.050	0.295	-0.162	
8.055	0.249	-0.130	
8.060	-0.621	-0.082	
8.065	-0.092	-0.093	
8.070	0.715	-0.086	
8.075	-0.420	-0.024	
8.080	-0.373	-0.012	
8.085	0.842	-0.019	
8.090	-0.035	0.040	
8.095	-0.465	0.076	
8.100	0.730	0.068	
8.105	0.713	0.131	
8.110	-0.393	0.219	
8.115	0.330	0.234	
8.120	1.115	0.262	
8.125	-0.252	0.333	
8.130	-0.220	0.325	
8.135	1.045	0.277	
8.140	0.067	0.292	
8.145	-0.453	0.279	
8.150	0.649	0.212	
8.155	0.504	0.202	
8.160	-0.533	0.212	
8.165	-0.046	0.150	
8.170	0.666	0.093	
8.175	-0.485	0.085	
8.180	-0.457	0.030	
8.185	0.583	-0.040	
8.190	-0.245	-0.045	
8.195	-0.651	-0.066	
8.200	0.282	-0.122	
8.205	0.206	-0.121	
8.210	-0.648	-0.097	
8.215	-0.153	-0.124	
8.220	0.580	-0.132	
8.225	-0.486	-0.087	
8.230	-0.425	-0.087	
8.235	0.699	-0.100	
8.240	-0.173	-0.051	
8.245	-0.569	-0.028	
8.250	0.507	-0.048	
8.255	0.438	-0.008	
8.260	-0.533	0.052	
8.265	0.068	0.046	
8.270	0.840	0.055	
8.275	-0.373	0.113	
8.280	-0.327	0.110	
8.285	0.861	0.080	
8.290	-0.083	0.111	
8.295	-0.508	0.115	
8.300	0.567	0.071	
8.305	0.432	0.085	
8.310	-0.553	0.117	
8.315	-0.023	0.079	
8.320	0.716	0.051	
8.325	-0.448	0.072	
8.330	-0.388	0.043	
8.335	0.738	-0.002	
8.340	-0.155	0.020	
8.345	-0.556	0.021	
8.350	0.522	-0.017	
8.355	0.435	0.010	
8.360	-0.523	0.062	
8.365	0.169	0.055	
8.370	1.081	0.083	
8.375	-0.187	0.181	
8.380	-0.107	0.223	
8.385	1.170	0.238	
8.390	0.053	0.307	
8.395	-0.520	0.319	
8.400	0.417	0.240	
8.405	0.209	0.181	
8.410	-0.662	0.126	
8.415	-0.145	0.018	
8.420	0.657	-0.052	
8.425	-0.431	-0.043	
8.430	-0.335	-0.056	
8.435	0.897	-0.061	
8.440	-0.028	0.014	
8.445	-0.463	0.065	
8.450	0.719	0.068	
8.455	0.635	0.131	
8.460	-0.436	0.209	
8.465	0.282	0.211	
8.470	1.072	0.229	
8.475	-0.269	0.295	
8.480	-0.187	0.289	
8.485	1.126	0.255	
8.490	0.180	0.295	
8.495	-0.341	0.313	
8.500	0.984	0.286	
8.505	0.909	0.337	
8.510	-0.287	0.416	
8.515	0.603	0.421	
8.520	1.417	0.454	
8.525	-0.031	0.543	
8.530	0.134	0.556	
8.535	1.540	0.541	
8.540	0.553	0.608	
8.545	-0.174	0.643	
8.550	1.239	0.608	
8.555	1.060	0.633	
8.560	-0.258	0.672	
8.565	0.568	0.619	
8.570	1.283	0.578	
8.575	-0.196	0.587	
8.580	-0.150	0.517	
8.585	1.132	0.417	
8.590	0.091	0.392	
8.595	-0.428	0.349	
8.600	0.744	0.262	
8.605	0.589	0.247	
8.610	-0.472	0.261	
8.615	0.172	0.211	
8.620	0.930	0.185	
8.625	-0.332	0.216	
8.630	-0.255	0.192	
8.635	0.987	0.152	
8.640	-0.003	0.183	
8.645	-0.434	0.190	
8.650	0.791	0.154	
8.655	0.684	0.193	
8.660	-0.407	0.257	
8.665	0.331	0.251	
8.670	1.098	0.264	
8.675	-0.245	0.327	
8.680	-0.141	0.319	
8.685	1.208	0.288	
8.690	0.206	0.334	
8.695	-0.336	0.354	
8.700	0.939	0.321	
8.705	0.780	0.352	
8.710	-0.367	0.401	
8.715	0.382	0.371	
8.720	1.089	0.356	
8.725	-0.278	0.388	
8.730	-0.213	0.347	
8.735	1.046	0.279	
8.740	0.047	0.283	
8.745	-0.413	0.266	
8.750	0.800	0.210	
8.755	0.649	0.228	
8.760	-0.433	0.272	
8.765	0.299	0.247	
8.770	1.058	0.246	
8.775	-0.266	0.299	
8.780	-0.145	0.287	
8.785	1.274	0.262	
8.790	0.415	0.331	
8.795	-0.150	0.394	
8.800	1.318	0.418	
8.805	1.094	0.518	
8.810	-0.286	0.620	
8.815	0.322	0.595	
8.820	0.867	0.529	
8.825	-0.433	0.474	
8.830	-0.371	0.343	
8.835	0.776	0.196	
8.840	-0.115	0.137	
8.845	-0.469	0.086	
8.850	0.741	0.031	
8.855	0.634	0.074	
8.860	-0.420	0.155	
8.865	0.299	0.170	
8.870	1.046	0.203	
8.875	-0.275	0.279	
8.880	-0.173	0.280	
8.885	1.146	0.253	
8.890	0.139	0.297	
8.895	-0.358	0.313	
8.900	0.933	0.280	
8.905	0.793	0.318	
8.910	-0.327	0.379	
8.915	0.525	0.370	
8.920	1.291	0.390	
8.925	-0.133	0.465	
8.930	0.023	0.464	
8.935	1.448	0.441	
8.940	0.464	0.504	
8.945	-0.167	0.544	
8.950	1.300	0.530	
8.955	1.133	0.589	
8.960	-0.181	0.666	
8.965	0.764	0.652	
8.970	1.451	0.653	
8.975	-0.097	0.698	
8.980	-0.002	0.650	
8.985	1.309	0.561	
8.990	0.217	0.545	
8.995	-0.349	0.501	
9.000	0.861	0.404	
9.005	0.631	0.375	
9.010	-0.445	0.368	
9.015	0.211	0.295	
9.020	0.907	0.245	
9.025	-0.359	0.252	
9.030	-0.271	0.206	
9.035	0.921	0.145	
9.040	-0.069	0.158	
9.045	-0.454	0.151	
9.050	0.713	0.107	
9.055	0.542	0.136	
9.060	-0.474	0.186	
9.065	0.206	0.167	
9.070	0.913	0.166	
9.075	-0.355	0.212	
9.080	-0.252	0.194	
9.085	0.938	0.152	
9.090	-0.075	0.175	
9.095	-0.463	0.169	
9.100	0.702	0.121	
9.105	0.521	0.143	
9.110	-0.475	0.185	
9.115	0.186	0.161	
9.120	0.887	0.155	
9.125	-0.381	0.197	
9.130	-0.306	0.173	
9.135	0.802	0.120	
9.140	-0.187	0.123	
9.145	-0.584	0.095	
9.150	0.421	0.020	
9.155	0.227	0.002	
9.160	-0.619	0.005	
9.165	-0.066	-0.044	
9.170	0.623	-0.066	
9.175	-0.485	-0.033	
9.180	-0.378	-0.044	
9.185	0.718	-0.065	
9.190	-0.188	-0.023	
9.195	-0.538	-0.008	
9.200	0.623	-0.028	
9.205	0.551	0.025	
9.210	-0.381	0.109	
9.215	0.600	0.148	
9.220	1.384	0.241	
9.225	-0.147	0.391	
9.230	-0.101	0.439	
9.235	0.958	0.409	
9.240	-0.220	0.392	
9.245	-0.659	0.305	
9.250	0.220	0.145	
9.255	0.042	0.032	
9.260	-0.680	-0.047	
9.265	-0.090	-0.142	
9.270	0.655	-0.172	
9.275	-0.459	-0.120	
9.280	-0.346	-0.100	
9.285	0.809	-0.088	
9.290	-0.141	-0.013	
9.295	-0.501	0.027	
9.300	0.649	0.019	
9.305	0.446	0.069	
9.310	-0.508	0.128	
9.315	0.175	0.116	
9.320	0.892	0.122	
9.325	-0.358	0.177	
9.330	-0.229	0.168	
9.335	1.043	0.144	
9.340	0.006	0.191	
9.345	-0.394	0.209	
9.350	0.895	0.185	
9.355	0.748	0.238	
9.360	-0.342	0.314	
9.365	0.530	0.321	
9.370	1.277	0.358	
9.375	-0.159	0.444	
9.380	-0.019	0.448	
9.385	1.343	0.420	
9.390	0.221	0.462	
9.395	-0.333	0.465	
9.400	0.945	0.403	
9.405	0.696	0.402	
9.410	-0.422	0.416	
9.415	0.278	0.352	
9.420	0.933	0.305	
9.425	-0.384	0.307	
9.430	-0.310	0.244	
9.435	0.808	0.159	
9.440	-0.197	0.139	
9.445	-0.579	0.096	
9.450	0.469	0.016	
9.455	0.220	0.001	
9.460	-0.634	0.005	
9.465	-0.063	-0.045	
9.470	0.632	-0.067	
9.475	-0.495	-0.033	
9.480	-0.390	-0.045	
9.485	0.663	-0.070	
9.490	-0.243	-0.038	
9.495	-0.590	-0.034	
9.500	0.495	-0.069	
9.505	0.284	-0.042	
9.510	-0.596	0.001	
9.515	-0.017	-0.021	
9.520	0.683	-0.026	
9.525	-0.468	0.018	
9.530	-0.352	0.008	
9.535	0.780	-0.017	
9.540	-0.179	0.022	
9.545	-0.541	0.031	
9.550	0.556	-0.002	
9.555	0.299	0.022	
9.560	-0.598	0.055	
9.565	-0.019	0.019	
9.570	0.632	-0.002	
9.575	-0.518	0.021	
9.580	-0.413	-0.009	
9.585	0.632	-0.055	
9.590	-0.278	-0.041	
9.595	-0.637	-0.052	
9.600	0.386	-0.102	
9.605	0.160	-0.094	
9.610	-0.654	-0.071	
9.615	-0.069	-0.102	
9.620	0.625	-0.106	
9.625	-0.492	-0.057	
9.630	-0.347	-0.055	
9.635	0.913	-0.056	
9.640	0.018	0.022	
9.645	-0.361	0.084	
9.650	0.880	0.107	
9.655	0.536	0.188	
9.660	-0.576	0.256	
9.665	-0.145	0.208	
9.670	0.313	0.120	
9.675	-0.683	0.045	
9.680	-0.573	-0.075	
9.685	0.347	-0.189	
9.690	-0.373	-0.221	
9.695	-0.679	-0.246	
9.700	0.360	-0.276	
9.705	0.160	-0.231	
9.710	-0.640	-0.164	
9.715	-0.035	-0.154	
9.720	0.672	-0.123	
9.725	-0.474	-0.046	
9.730	-0.338	-0.028	
9.735	0.834	-0.029	
9.740	-0.158	0.030	
9.745	-0.483	0.055	
9.750	0.764	0.041	
9.755	0.586	0.101	
9.760	-0.428	0.182	
9.765	0.418	0.195	
9.770	1.162	0.238	
9.775	-0.214	0.332	
9.780	-0.022	0.349	
9.785	1.367	0.345	
9.790	0.275	0.417	
9.795	-0.255	0.452	
9.800	1.168	0.429	
9.805	0.913	0.476	
9.810	-0.295	0.537	
9.815	0.597	0.509	
9.820	1.248	0.501	
9.825	-0.228	0.537	
9.830	-0.119	0.486	
9.835	1.135	0.403	
9.840	-0.029	0.385	
9.845	-0.465	0.333	
9.850	0.618	0.231	
9.855	0.295	0.187	
9.860	-0.601	0.159	
9.865	-0.025	0.073	
9.870	0.608	0.015	
9.875	-0.532	0.014	
9.880	-0.428	-0.030	
9.885	0.586	-0.083	
9.890	-0.295	-0.073	
9.895	-0.637	-0.084	
9.900	0.353	-0.130	
9.905	0.114	-0.121	
9.910	-0.662	-0.097	
9.915	-0.078	-0.127	
9.920	0.576	-0.130	
9.925	-0.526	-0.082	
9.930	-0.398	-0.083	
9.935	0.658	-0.099	
9.940	-0.262	-0.059	
9.945	-0.587	-0.049	
9.950	0.505	-0.078	
9.955	0.267	-0.046	
9.960	-0.587	-0.001	
9.965	0.068	-0.017	
9.970	0.741	-0.009	
9.975	-0.449	0.048	
9.980	-0.332	0.044	
9.985	0.753	0.018	
9.990	-0.237	0.045	
9.995	-0.602	0.035	
10.000	0.398	-0.025	
10.005	0.143	-0.034	
10.010	-0.645	-0.030	
10.015	-0.060	-0.078	
10.020	0.582	-0.096	
10.025	-0.533	-0.061	
10.030	-0.399	-0.073	
10.035	0.654	-0.097	
10.040	-0.266	-0.061	
10.045	-0.592	-0.054	
10.050	0.469	-0.086	
10.055	0.232	-0.059	
10.060	-0.569	-0.018	
10.065	0.240	-0.025	
10.070	1.039	0.020	
10.075	-0.307	0.131	
10.080	-0.207	0.171	
10.085	0.918	0.169	
10.090	-0.234	0.201	
10.095	-0.656	0.170	
10.100	0.224	0.062	
10.105	-0.042	-0.013	
10.110	-0.724	-0.075	
10.115	-0.127	-0.166	
10.120	0.553	-0.200	
10.125	-0.498	-0.158	
10.130	-0.332	-0.143	
10.135	0.829	-0.125	
10.140	-0.164	-0.040	
10.145	-0.488	0.010	
10.150	0.716	0.014	
10.155	0.446	0.077	
10.160	-0.498	0.145	
10.165	0.259	0.138	
10.170	0.935	0.154	
10.175	-0.356	0.214	
10.180	-0.208	0.206	
10.185	1.029	0.175	
10.190	-0.055	0.211	
10.195	-0.404	0.213	
10.200	0.901	0.177	
10.205	0.664	0.221	
10.210	-0.376	0.288	
10.215	0.531	0.288	
10.220	1.207	0.322	
10.225	-0.205	0.406	
10.230	0.003	0.409	
10.235	1.361	0.389	
10.240	0.221	0.443	
10.245	-0.280	0.458	
10.250	1.066	0.415	
10.255	0.736	0.436	
10.260	-0.382	0.466	
10.265	0.424	0.413	
10.270	0.994	0.378	
10.275	-0.359	0.386	
10.280	-0.239	0.320	
10.285	0.869	0.230	
10.290	-0.197	0.204	
10.295	-0.541	0.150	
10.300	0.537	0.062	
10.305	0.250	0.043	
10.310	-0.585	0.047	
10.315	0.049	-0.000	
10.320	0.660	-0.015	
10.325	-0.489	0.021	
10.330	-0.335	0.004	
10.335	0.774	-0.022	
10.340	-0.213	0.015	
10.345	-0.532	0.022	
10.350	0.606	-0.009	
10.355	0.339	0.024	
10.360	-0.526	0.071	
10.365	0.212	0.058	
10.370	0.845	0.075	
10.375	-0.396	0.139	
10.380	-0.234	0.136	
10.385	0.959	0.114	
10.390	-0.109	0.155	
10.395	-0.439	0.161	
10.400	0.773	0.124	
10.405	0.469	0.155	
10.410	-0.478	0.199	
10.415	0.261	0.173	
10.420	0.857	0.170	
10.425	-0.419	0.209	
10.430	-0.286	0.177	
10.435	0.806	0.120	
10.440	-0.203	0.122	
10.445	-0.514	0.095	
10.450	0.597	0.035	
10.455	0.278	0.043	
10.460	-0.566	0.066	
10.465	0.091	0.030	
10.470	0.684	0.021	
10.475	-0.465	0.058	
10.480	-0.295	0.041	
10.485	0.840	0.015	
10.490	-0.139	0.057	
10.495	-0.382	0.075	
10.500	1.016	0.076	
10.505	0.712	0.171	
10.510	-0.376	0.281	
10.515	0.382	0.299	
10.520	0.718	0.304	
10.525	-0.555	0.308	
10.530	-0.449	0.215	
10.535	0.431	0.082	
10.540	-0.385	0.003	
10.545	-0.643	-0.082	
10.550	0.397	-0.168	
10.555	0.124	-0.166	
10.560	-0.611	-0.133	
10.565	0.053	-0.141	
10.570	0.646	-0.112	
10.575	-0.482	-0.037	
10.580	-0.310	-0.023	
10.585	0.779	-0.026	
10.590	-0.205	0.025	
10.595	-0.509	0.039	
10.600	0.621	0.011	
10.605	0.311	0.043	
10.610	-0.530	0.084	
10.615	0.191	0.063	
10.620	0.794	0.071	
10.625	-0.402	0.125	
10.630	-0.208	0.119	
10.635	0.977	0.101	
10.640	-0.092	0.150	
10.645	-0.391	0.165	
10.650	0.887	0.142	
10.655	0.597	0.196	
10.660	-0.398	0.264	
10.665	0.440	0.260	
10.670	0.968	0.277	
10.675	-0.349	0.328	
10.680	-0.184	0.296	
10.685	0.918	0.235	
10.690	-0.190	0.230	
10.695	-0.524	0.185	
10.700	0.490	0.094	
10.705	0.058	0.056	
10.710	-0.691	0.023	
10.715	-0.141	-0.065	
10.720	0.269	-0.129	
10.725	-0.689	-0.150	
10.730	-0.541	-0.209	
10.735	0.223	-0.271	
10.740	-0.515	-0.279	
10.745	-0.811	-0.307	
10.750	-0.052	-0.365	
10.755	-0.260	-0.380	
10.760	-0.882	-0.385	
10.765	-0.329	-0.424	
10.770	0.007	-0.436	
10.775	-0.779	-0.412	
10.780	-0.605	-0.424	
10.785	0.143	-0.436	
10.790	-0.537	-0.402	
10.795	-0.805	-0.390	
10.800	-0.017	-0.413	
10.805	-0.223	-0.397	
10.810	-0.837	-0.375	
10.815	-0.268	-0.396	
10.820	0.108	-0.391	
10.825	-0.741	-0.353	
10.830	-0.550	-0.358	
10.835	0.246	-0.368	
10.840	-0.503	-0.331	
10.845	-0.776	-0.323	
10.850	-0.003	-0.354	
10.855	-0.269	-0.353	
10.860	-0.908	-0.354	
10.865	-0.375	-0.402	
10.870	-0.100	-0.433	
10.875	-0.863	-0.435	
10.880	-0.706	-0.472	
10.885	-0.066	-0.511	
10.890	-0.657	-0.505	
10.895	-0.929	-0.516	
10.900	-0.196	-0.551	
10.905	-0.368	-0.544	
10.910	-0.961	-0.528	
10.915	-0.384	-0.546	
10.920	0.003	-0.534	
10.925	-0.734	-0.480	
10.930	-0.509	-0.457	
10.935	0.331	-0.426	
10.940	-0.500	-0.349	
10.945	-0.837	-0.316	
10.950	-0.240	-0.352	
10.955	-0.541	-0.391	
10.960	-0.995	-0.445	
10.965	-0.683	-0.538	
10.970	-0.408	-0.612	
10.975	-0.995	-0.650	
10.980	-0.879	-0.701	
10.985	-0.255	-0.735	
10.990	-0.787	-0.716	
10.995	-0.993	-0.705	
11.000	-0.307	-0.712	
11.005	-0.492	-0.681	
11.010	-0.995	-0.645	
11.015	-0.540	-0.648	
11.020	-0.275	-0.638	
11.025	-0.993	-0.612	
11.030	-0.830	-0.628	
11.035	-0.211	-0.653	
11.040	-0.763	-0.637	
11.045	-0.995	-0.638	
11.050	-0.268	-0.660	
11.055	-0.425	-0.639	
11.060	-0.993	-0.608	
11.065	-0.411	-0.611	
11.070	-0.077	-0.587	
11.075	-0.827	-0.531	
11.080	-0.630	-0.514	
11.085	0.180	-0.499	
11.090	-0.540	-0.437	
11.095	-0.811	-0.405	
11.100	0.029	-0.413	
11.105	-0.239	-0.386	
11.110	-0.885	-0.363	
11.115	-0.327	-0.393	
11.120	-0.003	-0.406	
11.125	-0.851	-0.392	
11.130	-0.709	-0.425	
11.135	-0.095	-0.471	
11.140	-0.720	-0.482	
11.145	-0.986	-0.514	
11.150	-0.260	-0.572	
11.155	-0.466	-0.585	
11.160	-0.995	-0.585	
11.165	-0.521	-0.614	
11.170	-0.254	-0.621	
11.175	-0.986	-0.603	
11.180	-0.815	-0.623	
11.185	-0.179	-0.646	
11.190	-0.752	-0.628	
11.195	-0.993	-0.626	
11.200	-0.254	-0.648	
11.205	-0.434	-0.628	
11.210	-0.995	-0.600	
11.215	-0.460	-0.609	
11.220	-0.161	-0.596	
11.225	-0.909	-0.558	
11.230	-0.718	-0.561	
11.235	-0.009	-0.567	
11.240	-0.639	-0.529	
11.245	-0.886	-0.513	
11.250	-0.061	-0.525	
11.255	-0.281	-0.493	
11.260	-0.883	-0.456	
11.265	-0.271	-0.461	
11.270	0.188	-0.435	
11.275	-0.747	-0.372	
11.280	-0.567	-0.359	
11.285	0.301	-0.359	
11.290	-0.533	-0.316	
11.295	-0.810	-0.309	
11.300	0.078	-0.344	
11.305	-0.228	-0.339	
11.310	-0.860	-0.331	
11.315	-0.265	-0.368	
11.320	0.211	-0.373	
11.325	-0.734	-0.333	
11.330	-0.530	-0.334	
11.335	0.409	-0.337	
11.340	-0.462	-0.284	
11.345	-0.705	-0.262	
11.350	0.391	-0.271	
11.355	0.139	-0.216	
11.360	-0.561	-0.144	
11.365	0.461	-0.106	
11.370	1.031	-0.003	
11.375	-0.393	0.146	
11.380	-0.223	0.193	
11.385	0.829	0.181	
11.390	-0.332	0.192	
11.395	-0.624	0.141	
11.400	0.470	0.039	
11.405	0.136	0.002	
11.410	-0.593	-0.009	
11.415	0.307	-0.048	
11.420	0.904	-0.015	
11.425	-0.390	0.083	
11.430	-0.107	0.117	
11.435	1.205	0.140	
11.440	0.046	0.234	
11.445	-0.320	0.282	
11.450	1.086	0.276	
11.455	0.683	0.339	
11.460	-0.379	0.403	
11.465	0.672	0.388	
11.470	1.234	0.410	
11.475	-0.237	0.479	
11.480	0.124	0.466	
11.485	1.419	0.439	
11.490	0.255	0.493	
11.495	-0.188	0.509	
11.500	1.359	0.480	
11.505	1.025	0.541	
11.510	-0.150	0.622	
11.515	1.136	0.633	
11.520	1.708	0.698	
11.525	0.169	0.819	
11.530	0.609	0.850	
11.535	1.873	0.859	
11.540	0.638	0.935	
11.545	0.047	0.947	
11.550	1.595	0.886	
11.555	1.150	0.895	
11.560	-0.171	0.906	
11.565	0.945	0.825	
11.570	1.385	0.776	
11.575	-0.205	0.771	
11.580	0.068	0.674	
11.585	1.275	0.558	
11.590	0.039	0.520	
11.595	-0.344	0.453	
11.600	1.029	0.353	
11.605	0.628	0.347	
11.610	-0.404	0.367	
11.615	0.571	0.327	
11.620	1.103	0.332	
11.625	-0.292	0.388	
11.630	0.030	0.369	
11.635	1.335	0.343	
11.640	0.128	0.397	
11.645	-0.281	0.411	
11.650	1.156	0.375	
11.655	0.761	0.417	
11.660	-0.327	0.469	
11.665	0.736	0.447	
11.670	1.292	0.466	
11.675	-0.176	0.535	
11.680	0.236	0.524	
11.685	1.541	0.507	
11.690	0.368	0.575	
11.695	-0.112	0.602	
11.700	1.485	0.580	
11.705	1.092	0.644	
11.710	-0.168	0.718	
11.715	0.970	0.702	
11.720	1.445	0.712	
11.725	-0.118	0.759	
11.730	0.250	0.709	
11.735	1.508	0.641	
11.740	0.290	0.653	
11.745	-0.181	0.627	
11.750	1.337	0.556	
11.755	0.939	0.577	
11.760	-0.231	0.619	
11.765	0.921	0.590	
11.770	1.460	0.608	
11.775	-0.061	0.679	
11.780	0.386	0.669	
11.785	1.717	0.652	
11.790	0.625	0.728	
11.795	0.246	0.780	
11.800	1.911	0.801	
11.805	1.451	0.918	
11.810	0.030	1.030	
11.815	1.083	1.014	
11.820	1.381	0.985	
11.825	-0.229	0.955	
11.830	0.006	0.807	
11.835	1.228	0.632	
11.840	0.041	0.545	
11.845	-0.260	0.450	
11.850	1.271	0.357	
11.855	0.930	0.393	
11.860	-0.219	0.473	
11.865	0.947	0.491	
11.870	1.492	0.556	
11.875	-0.040	0.664	
11.880	0.400	0.679	
11.885	1.682	0.673	
11.890	0.513	0.744	
11.895	0.012	0.767	
11.900	1.566	0.733	
11.905	1.150	0.780	
11.910	-0.103	0.832	
11.915	1.098	0.799	
11.920	1.556	0.803	
11.925	0.003	0.852	
11.930	0.467	0.812	
11.935	1.729	0.766	
11.940	0.554	0.808	
11.945	0.076	0.814	
11.950	1.663	0.777	
11.955	1.259	0.830	
11.960	-0.002	0.895	
11.965	1.216	0.877	
11.970	1.696	0.896	
11.975	0.143	0.959	
11.980	0.531	0.929	
11.985	1.729	0.878	
11.990	0.507	0.899	
11.995	-0.025	0.868	
12.000	1.451	0.781	
12.005	0.958	0.771	
12.010	-0.222	0.769	
12.015	0.822	0.688	
12.020	1.271	0.645	
12.025	-0.188	0.651	
12.030	0.117	0.581	
12.035	1.332	0.503	
12.040	0.149	0.507	
12.045	-0.199	0.481	
12.050	1.263	0.427	
12.055	0.869	0.469	
12.060	-0.232	0.530	
12.065	0.867	0.522	
12.070	1.382	0.554	
12.075	-0.078	0.632	
12.080	0.356	0.626	
12.085	1.611	0.612	
12.090	0.457	0.678	
12.095	0.007	0.702	
12.100	1.560	0.678	
12.105	1.153	0.739	
12.110	-0.055	0.808	
12.115	1.144	0.794	
12.120	1.647	0.819	
12.125	0.127	0.891	
12.130	0.536	0.874	
12.135	1.726	0.840	
12.140	0.498	0.875	
12.145	-0.049	0.854	
12.150	1.376	0.768	
12.155	0.864	0.748	
12.160	-0.239	0.733	
12.165	0.805	0.645	
12.170	1.277	0.605	
12.175	-0.159	0.621	
12.180	0.143	0.565	
12.185	1.327	0.501	
12.190	0.114	0.511	
12.195	-0.237	0.482	
12.200	1.165	0.417	
12.205	0.793	0.440	
12.210	-0.252	0.486	
12.215	0.829	0.470	
12.220	1.392	0.505	
12.225	-0.023	0.594	
12.230	0.544	0.616	
12.235	1.821	0.646	
12.240	0.580	0.761	
12.245	-0.029	0.814	
12.250	1.266	0.772	
12.255	0.594	0.752	
12.260	-0.451	0.696	
12.265	0.259	0.537	
12.270	0.702	0.396	
12.275	-0.420	0.311	
12.280	-0.155	0.198	
12.285	1.013	0.119	
12.290	-0.077	0.141	
12.295	-0.339	0.150	
12.300	0.913	0.134	
12.305	0.499	0.193	
12.310	-0.404	0.256	
12.315	0.470	0.247	
12.320	0.976	0.267	
12.325	-0.277	0.327	
12.330	-0.014	0.314	
12.335	1.191	0.291	
12.340	0.050	0.338	
12.345	-0.252	0.346	
12.350	1.087	0.316	
12.355	0.669	0.362	
12.360	-0.310	0.416	
12.365	0.661	0.398	
12.370	1.133	0.415	
12.375	-0.208	0.472	
12.380	0.110	0.451	
12.385	1.346	0.420	
12.390	0.189	0.466	
12.395	-0.176	0.473	
12.400	1.188	0.437	
12.405	0.747	0.475	
12.410	-0.284	0.516	
12.415	0.655	0.480	
12.420	1.086	0.471	
12.425	-0.280	0.497	
12.430	-0.087	0.438	
12.435	0.958	0.352	
12.440	-0.174	0.321	
12.445	-0.457	0.253	
12.450	0.605	0.151	
12.455	0.148	0.114	
12.460	-0.576	0.090	
12.465	0.056	0.018	
12.470	0.492	-0.020	
12.475	-0.533	-0.011	
12.480	-0.326	-0.046	
12.485	0.594	-0.083	
12.490	-0.329	-0.060	
12.495	-0.569	-0.068	
12.500	0.440	-0.106	
12.505	0.038	-0.089	
12.510	-0.602	-0.068	
12.515	0.059	-0.097	
12.520	0.537	-0.090	
12.525	-0.495	-0.041	
12.530	-0.263	-0.042	
12.535	0.730	-0.048	
12.540	-0.258	0.001	
12.545	-0.500	0.012	
12.550	0.568	-0.017	
12.555	0.166	0.009	
12.560	-0.540	0.037	
12.565	0.171	0.009	
12.570	0.620	0.014	
12.575	-0.477	0.056	
12.580	-0.277	0.039	
12.585	0.651	0.005	
12.590	-0.323	0.020	
12.595	-0.584	-0.003	
12.600	0.345	-0.066	
12.605	-0.063	-0.083	
12.610	-0.695	-0.098	
12.615	-0.112	-0.160	
12.620	0.267	-0.191	
12.625	-0.642	-0.181	
12.630	-0.425	-0.209	
12.635	0.457	-0.232	
12.640	-0.364	-0.195	
12.645	-0.585	-0.180	
12.650	0.438	-0.190	
12.655	0.116	-0.141	
12.660	-0.508	-0.084	
12.665	0.372	-0.064	
12.670	0.816	0.006	
12.675	-0.426	0.112	
12.680	-0.287	0.128	
12.685	0.414	0.086	
12.690	-0.526	0.050	
12.695	-0.834	-0.045	
12.700	-0.119	-0.190	
12.705	-0.307	-0.290	
12.710	-0.850	-0.359	
12.715	-0.234	-0.430	
12.720	0.124	-0.440	
12.725	-0.688	-0.396	
12.730	-0.469	-0.380	
12.735	0.351	-0.361	
12.740	-0.422	-0.294	
12.745	-0.656	-0.259	
12.750	0.252	-0.263	
12.755	-0.089	-0.227	
12.760	-0.691	-0.196	
12.765	-0.068	-0.216	
12.770	0.394	-0.205	
12.775	-0.562	-0.155	
12.780	-0.335	-0.151	
12.785	0.649	-0.148	
12.790	-0.274	-0.087	
12.795	-0.491	-0.059	
12.800	0.675	-0.061	
12.805	0.321	0.003	
12.810	-0.451	0.074	
12.815	0.455	0.090	
12.820	0.993	0.148	
12.825	-0.277	0.249	
12.830	0.000	0.273	
12.835	1.220	0.278	
12.840	0.033	0.343	
12.845	-0.275	0.359	
12.850	1.026	0.324	
12.855	0.571	0.355	
12.860	-0.405	0.386	
12.865	0.406	0.338	
12.870	0.783	0.307	
12.875	-0.462	0.305	
12.880	-0.291	0.227	
12.885	0.657	0.130	
12.890	-0.323	0.090	
12.895	-0.593	0.027	
12.900	0.405	-0.060	
12.905	-0.005	-0.082	
12.910	-0.647	-0.089	
12.915	0.006	-0.136	
12.920	0.495	-0.140	
12.925	-0.549	-0.096	
12.930	-0.347	-0.100	
12.935	0.625	-0.112	
12.940	-0.309	-0.070	
12.945	-0.556	-0.062	
12.950	0.516	-0.088	
12.955	0.131	-0.057	
12.960	-0.595	-0.022	
12.965	0.093	-0.046	
12.970	0.582	-0.041	
12.975	-0.506	0.004	
12.980	-0.280	-0.008	
12.985	0.782	-0.025	
12.990	-0.239	0.019	
12.995	-0.489	0.029	
13.000	0.646	0.002	
13.005	0.232	0.036	
13.010	-0.556	0.072	
13.015	0.156	0.043	
13.020	0.602	0.037	
13.025	-0.520	0.066	
13.030	-0.332	0.033	
13.035	0.626	-0.016	
13.040	-0.326	-0.009	
13.045	-0.573	-0.032	
13.050	0.467	-0.083	
13.055	0.067	-0.074	
13.060	-0.621	-0.056	
13.065	0.059	-0.089	
13.070	0.556	-0.086	
13.075	-0.517	-0.038	
13.080	-0.280	-0.043	
13.085	0.860	-0.047	
13.090	-0.126	0.020	
13.095	-0.315	0.063	
13.100	1.138	0.090	
13.105	0.702	0.210	
13.110	-0.393	0.329	
13.115	0.336	0.339	
13.120	0.574	0.320	
13.125	-0.608	0.292	
13.130	-0.466	0.174	
13.135	0.357	0.029	
13.140	-0.428	-0.056	
13.145	-0.634	-0.140	
13.150	0.447	-0.213	
13.155	0.117	-0.192	
13.160	-0.576	-0.141	
13.165	0.172	-0.130	
13.170	0.725	-0.078	
13.175	-0.434	0.017	
13.180	-0.220	0.044	
13.185	0.900	0.050	
13.190	-0.171	0.109	
13.195	-0.428	0.124	
13.200	0.773	0.096	
13.205	0.357	0.133	
13.210	-0.495	0.172	
13.215	0.353	0.147	
13.220	0.933	0.160	
13.225	-0.333	0.224	
13.230	-0.083	0.223	
13.235	1.220	0.214	
13.240	0.096	0.284	
13.245	-0.240	0.320	
13.250	1.202	0.316	
13.255	0.838	0.394	
13.260	-0.272	0.480	
13.265	0.739	0.482	
13.270	1.251	0.507	
13.275	-0.217	0.565	
13.280	0.032	0.529	
13.285	1.236	0.463	
13.290	-0.028	0.460	
13.295	-0.365	0.411	
13.300	0.875	0.316	
13.305	0.420	0.295	
13.310	-0.511	0.285	
13.315	0.197	0.209	
13.320	0.687	0.160	
13.325	-0.483	0.156	
13.330	-0.301	0.099	
13.335	0.738	0.036	
13.340	-0.257	0.041	
13.345	-0.541	0.021	
13.350	0.512	-0.031	
13.355	0.111	-0.023	
13.360	-0.616	-0.010	
13.365	0.055	-0.050	
13.370	0.574	-0.058	
13.375	-0.540	-0.021	
13.380	-0.338	-0.037	
13.385	0.701	-0.062	
13.390	-0.268	-0.026	
13.395	-0.529	-0.021	
13.400	0.583	-0.048	
13.405	0.211	-0.014	
13.410	-0.576	0.026	
13.415	0.145	0.003	
13.420	0.721	0.012	
13.425	-0.445	0.066	
13.430	-0.237	0.062	
13.435	0.887	0.047	
13.440	-0.196	0.093	
13.445	-0.480	0.099	
13.450	0.663	0.061	
13.455	0.240	0.081	
13.460	-0.596	0.101	
13.465	0.085	0.052	
13.470	0.638	0.029	
13.475	-0.514	0.051	
13.480	-0.329	0.019	
13.485	0.707	-0.021	
13.490	-0.284	-0.000	
13.495	-0.572	-0.010	
13.500	0.515	-0.055	
13.505	0.127	-0.040	
13.510	-0.621	-0.019	
13.515	0.078	-0.052	
13.520	0.701	-0.048	
13.525	-0.425	0.011	
13.530	-0.164	0.024	
13.535	1.057	0.040	
13.540	-0.142	0.124	
13.545	-0.489	0.155	
13.550	0.498	0.113	
13.555	-0.042	0.093	
13.560	-0.770	0.050	
13.565	-0.210	-0.063	
13.570	0.204	-0.153	
13.575	-0.682	-0.191	
13.580	-0.454	-0.249	
13.585	0.551	-0.279	
13.590	-0.323	-0.228	
13.595	-0.579	-0.191	
13.600	0.531	-0.182	
13.605	0.174	-0.114	
13.610	-0.598	-0.046	
13.615	0.088	-0.047	
13.620	0.646	-0.029	
13.625	-0.495	0.026	
13.630	-0.295	0.019	
13.635	0.817	-0.000	
13.640	-0.211	0.042	
13.645	-0.483	0.051	
13.650	0.715	0.025	
13.655	0.366	0.068	
13.660	-0.501	0.120	
13.665	0.325	0.109	
13.670	0.930	0.134	
13.675	-0.333	0.206	
13.680	-0.118	0.211	
13.685	1.161	0.201	
13.690	0.000	0.261	
13.695	-0.335	0.281	
13.700	0.993	0.253	
13.705	0.608	0.297	
13.710	-0.410	0.347	
13.715	0.437	0.318	
13.720	0.939	0.310	
13.725	-0.384	0.337	
13.730	-0.219	0.287	
13.735	0.861	0.211	
13.740	-0.229	0.193	
13.745	-0.546	0.142	
13.750	0.521	0.054	
13.755	0.110	0.029	
13.760	-0.648	0.015	
13.765	-0.035	-0.051	
13.770	0.469	-0.085	
13.775	-0.588	-0.072	
13.780	-0.394	-0.103	
13.785	0.573	-0.137	
13.790	-0.361	-0.110	
13.795	-0.668	-0.114	
13.800	0.235	-0.163	
13.805	-0.104	-0.170	
13.810	-0.749	-0.176	
13.815	-0.145	-0.227	
13.820	0.420	-0.239	
13.825	-0.570	-0.195	
13.830	-0.391	-0.188	
13.835	0.559	-0.187	
13.840	-0.352	-0.135	
13.845	-0.625	-0.120	
13.850	0.415	-0.145	
13.855	0.059	-0.118	
13.860	-0.654	-0.089	
13.865	-0.022	-0.117	
13.870	0.522	-0.117	
13.875	-0.555	-0.074	
13.880	-0.378	-0.084	
13.885	0.554	-0.108	
13.890	-0.370	-0.083	
13.895	-0.654	-0.094	
13.900	0.299	-0.146	
13.905	-0.052	-0.150	
13.910	-0.714	-0.148	
13.915	-0.113	-0.193	
13.920	0.376	-0.206	
13.925	-0.608	-0.173	
13.930	-0.413	-0.182	
13.935	0.557	-0.194	
13.940	-0.324	-0.146	
13.945	-0.575	-0.127	
13.950	0.522	-0.138	
13.955	0.235	-0.085	
13.960	-0.500	-0.021	
13.965	0.441	-0.000	
13.970	1.036	0.075	
13.975	-0.321	0.200	
13.980	-0.165	0.234	
13.985	0.809	0.216	
13.990	-0.326	0.219	
13.995	-0.657	0.157	
14.000	0.247	0.033	
14.005	-0.068	-0.044	
14.010	-0.668	-0.100	
14.015	0.044	-0.172	
14.020	0.686	-0.170	
14.025	-0.411	-0.092	
14.030	-0.136	-0.049	
14.035	1.155	0.003	
14.040	0.046	0.130	
14.045	-0.277	0.214	
14.050	1.086	0.242	
14.055	0.728	0.332	
14.060	-0.323	0.418	
14.065	0.641	0.416	
14.070	1.188	0.438	
14.075	-0.223	0.496	
14.080	0.003	0.468	
14.085	1.233	0.415	
14.090	0.047	0.428	
14.095	-0.289	0.403	
14.100	1.091	0.343	
14.105	0.764	0.372	
14.110	-0.291	0.425	
14.115	0.721	0.415	
14.120	1.259	0.444	
14.125	-0.170	0.518	
14.130	0.114	0.507	
14.135	1.358	0.473	
14.140	0.172	0.507	
14.145	-0.254	0.498	
14.150	1.055	0.434	
14.155	0.586	0.436	
14.160	-0.426	0.439	
14.165	0.331	0.363	
14.170	0.771	0.305	
14.175	-0.462	0.285	
14.180	-0.306	0.202	
14.185	0.640	0.103	
14.190	-0.329	0.066	
14.195	-0.619	0.006	
14.200	0.330	-0.082	
14.205	-0.042	-0.110	
14.210	-0.705	-0.125	
14.215	-0.119	-0.181	
14.220	0.348	-0.203	
14.225	-0.610	-0.178	
14.230	-0.419	-0.192	
14.235	0.489	-0.208	
14.240	-0.376	-0.169	
14.245	-0.637	-0.160	
14.250	0.353	-0.186	
14.255	0.006	-0.161	
14.260	-0.653	-0.132	
14.265	-0.040	-0.156	
14.270	0.484	-0.150	
14.275	-0.547	-0.102	
14.280	-0.350	-0.104	
14.285	0.646	-0.113	
14.290	-0.297	-0.067	
14.295	-0.569	-0.056	
14.300	0.466	-0.085	
14.305	0.088	-0.063	
14.310	-0.630	-0.039	
14.315	-0.031	-0.076	
14.320	0.463	-0.091	
14.325	-0.579	-0.067	
14.330	-0.408	-0.093	
14.335	0.492	-0.131	
14.340	-0.382	-0.117	
14.345	-0.663	-0.131	
14.350	0.259	-0.181	
14.355	-0.071	-0.182	
14.360	-0.723	-0.177	
14.365	-0.138	-0.218	
14.370	0.345	-0.228	
14.375	-0.617	-0.194	
14.380	-0.416	-0.202	
14.385	0.588	-0.208	
14.390	-0.248	-0.149	
14.395	-0.434	-0.108	
14.400	0.893	-0.079	
14.405	0.518	0.037	
14.410	-0.475	0.154	
14.415	0.136	0.169	
14.420	0.411	0.155	
14.425	-0.686	0.132	
14.430	-0.561	0.026	
14.435	0.197	-0.105	
14.440	-0.488	-0.181	
14.445	-0.711	-0.253	
14.450	0.263	-0.318	
14.455	-0.022	-0.301	
14.460	-0.663	-0.257	
14.465	-0.034	-0.252	
14.470	0.519	-0.213	
14.475	-0.532	-0.133	
14.480	-0.336	-0.109	
14.485	0.701	-0.101	
14.490	-0.266	-0.041	
14.495	-0.540	-0.021	
14.500	0.545	-0.045	
14.505	0.226	-0.012	
14.510	-0.555	0.027	
14.515	0.198	0.009	
14.520	0.776	0.027	
14.525	-0.401	0.093	
14.530	-0.203	0.098	
14.535	0.964	0.090	
14.540	-0.095	0.144	
14.545	-0.371	0.163	
14.550	0.912	0.145	
14.555	0.602	0.205	
14.560	-0.382	0.276	
14.565	0.512	0.276	
14.570	1.042	0.303	
14.575	-0.307	0.366	
14.580	-0.144	0.342	
14.585	0.994	0.286	
14.590	-0.135	0.284	
14.595	-0.463	0.243	
14.600	0.617	0.158	
14.605	0.174	0.130	
14.610	-0.622	0.108	
14.615	-0.055	0.026	
14.620	0.406	-0.035	
14.625	-0.605	-0.051	
14.630	-0.445	-0.107	
14.635	0.434	-0.164	
14.640	-0.407	-0.161	
14.645	-0.686	-0.179	
14.650	0.232	-0.226	
14.655	-0.068	-0.221	
14.660	-0.703	-0.206	
14.665	-0.104	-0.233	
14.670	0.418	-0.226	
14.675	-0.584	-0.174	
14.680	-0.407	-0.170	
14.685	0.542	-0.176	
14.690	-0.341	-0.131	
14.695	-0.619	-0.120	
14.700	0.402	-0.146	
14.705	0.088	-0.120	
14.710	-0.634	-0.087	
14.715	-0.003	-0.110	
14.720	0.554	-0.105	
14.725	-0.509	-0.055	
14.730	-0.339	-0.058	
14.735	0.696	-0.071	
14.740	-0.271	-0.028	
14.745	-0.559	-0.021	
14.750	0.484	-0.055	
14.755	0.096	-0.038	
14.760	-0.653	-0.022	
14.765	-0.064	-0.069	
14.770	0.444	-0.095	
14.775	-0.579	-0.078	
14.780	-0.410	-0.108	
14.785	0.537	-0.142	
14.790	-0.346	-0.118	
14.795	-0.622	-0.120	
14.800	0.386	-0.155	
14.805	0.046	-0.134	
14.810	-0.653	-0.107	
14.815	-0.005	-0.133	
14.820	0.588	-0.124	
14.825	-0.456	-0.064	
14.830	-0.197	-0.047	
14.835	1.063	-0.020	
14.840	-0.075	0.083	
14.845	-0.457	0.139	
14.850	0.545	0.120	
14.855	0.000	0.118	
14.860	-0.760	0.085	
14.865	-0.249	-0.028	
14.870	0.137	-0.130	
14.875	-0.703	-0.188	
14.880	-0.498	-0.263	
14.885	0.464	-0.308	
14.890	-0.349	-0.270	
14.895	-0.605	-0.240	
14.900	0.449	-0.232	
14.905	0.178	-0.164	
14.910	-0.593	-0.090	
14.915	0.075	-0.080	
14.920	0.649	-0.051	
14.925	-0.478	0.014	
14.930	-0.298	0.015	
14.935	0.791	0.000	
14.940	-0.213	0.042	
14.945	-0.504	0.049	
14.950	0.629	0.015	
14.955	0.322	0.046	
14.960	-0.520	0.087	
14.965	0.244	0.070	
14.970	0.857	0.086	
14.975	-0.361	0.152	
14.980	-0.179	0.154	
14.985	1.017	0.141	
14.990	-0.057	0.191	
14.995	-0.368	0.205	
15.000	0.912	0.180	
15.005	0.574	0.228	
15.010	-0.433	0.284	
15.015	0.348	0.262	
15.020	0.877	0.256	
15.025	-0.398	0.284	
15.030	-0.265	0.237	
15.035	0.765	0.163	
15.040	-0.257	0.143	
15.045	-0.595	0.091	
15.050	0.353	-0.002	
15.055	0.001	-0.042	
15.060	-0.708	-0.070	
15.065	-0.156	-0.144	
15.070	0.314	-0.186	
15.075	-0.653	-0.180	
15.080	-0.503	-0.213	
15.085	0.379	-0.249	
15.090	-0.411	-0.228	
15.095	-0.697	-0.228	
15.100	0.201	-0.260	
15.105	-0.081	-0.245	
15.110	-0.727	-0.224	
15.115	-0.158	-0.251	
15.120	0.359	-0.249	
15.125	-0.619	-0.205	
15.130	-0.462	-0.207	
15.135	0.473	-0.220	
15.140	-0.367	-0.180	
15.145	-0.657	-0.169	
15.150	0.307	-0.196	
15.155	0.006	-0.175	
15.160	-0.682	-0.149	
15.165	-0.090	-0.176	
15.170	0.475	-0.174	
15.175	-0.564	-0.128	
15.180	-0.408	-0.130	
15.185	0.542	-0.146	
15.190	-0.361	-0.112	
15.195	-0.668	-0.114	
15.200	0.256	-0.160	
15.205	-0.057	-0.163	
15.210	-0.723	-0.161	
15.215	-0.171	-0.208	
15.220	0.342	-0.226	
15.225	-0.628	-0.198	
15.230	-0.477	-0.212	
15.235	0.434	-0.233	
15.240	-0.393	-0.200	
15.245	-0.666	-0.194	
15.250	0.310	-0.221	
15.255	0.047	-0.193	
15.260	-0.622	-0.154	
15.265	0.119	-0.156	
15.270	0.822	-0.108	
15.275	-0.414	-0.002	
15.280	-0.301	0.036	
15.285	0.660	0.032	
15.290	-0.387	0.053	
15.295	-0.758	0.013	
15.300	-0.017	-0.097	
15.305	-0.222	-0.180	
15.310	-0.833	-0.248	
15.315	-0.248	-0.334	
15.320	0.292	-0.362	
15.325	-0.622	-0.323	
15.330	-0.448	-0.308	
15.335	0.537	-0.289	
15.340	-0.321	-0.213	
15.345	-0.607	-0.169	
15.350	0.411	-0.168	
15.355	0.120	-0.121	
15.360	-0.634	-0.075	
15.365	0.023	-0.090	
15.370	0.692	-0.076	
15.375	-0.422	-0.010	
15.380	-0.243	0.006	
15.385	0.950	0.015	
15.390	-0.087	0.089	
15.395	-0.399	0.126	
15.400	0.900	0.122	
15.405	0.652	0.192	
15.410	-0.361	0.276	
15.415	0.560	0.289	
15.420	1.202	0.333	
15.425	-0.171	0.422	
15.430	0.094	0.431	
15.435	1.370	0.421	
15.440	0.253	0.480	
15.445	-0.246	0.496	
15.450	1.095	0.452	
15.455	0.736	0.470	
15.460	-0.376	0.494	
15.465	0.417	0.433	
15.470	0.945	0.387	
15.475	-0.375	0.383	
15.480	-0.252	0.307	
15.485	0.822	0.211	
15.490	-0.216	0.179	
15.495	-0.550	0.123	
15.500	0.479	0.034	
15.505	0.152	0.010	
15.510	-0.648	0.002	
15.515	-0.081	-0.058	
15.520	0.478	-0.093	
15.525	-0.566	-0.078	
15.530	-0.430	-0.107	
15.535	0.541	-0.142	
15.540	-0.326	-0.118	
15.545	-0.631	-0.119	
15.550	0.356	-0.154	
15.555	0.105	-0.134	
15.560	-0.630	-0.103	
15.565	-0.005	-0.122	
15.570	0.621	-0.110	
15.575	-0.491	-0.049	
15.580	-0.349	-0.043	
15.585	0.712	-0.054	
15.590	-0.229	-0.010	
15.595	-0.543	-0.000	
15.600	0.521	-0.032	
15.605	0.255	-0.007	
15.610	-0.573	0.028	
15.615	0.065	0.002	
15.620	0.644	-0.002	
15.625	-0.501	0.036	
15.630	-0.378	0.014	
15.635	0.631	-0.028	
15.640	-0.280	-0.016	
15.645	-0.590	-0.031	
15.650	0.460	-0.079	
15.655	0.223	-0.062	
15.660	-0.584	-0.028	
15.665	0.050	-0.047	
15.670	0.684	-0.039	
15.675	-0.446	0.018	
15.680	-0.274	0.020	
15.685	0.903	0.013	
15.690	-0.095	0.073	
15.695	-0.378	0.105	
15.700	1.052	0.111	
15.705	0.907	0.214	
15.710	-0.258	0.346	
15.715	0.651	0.395	
15.720	1.129	0.447	
15.725	-0.402	0.505	
15.730	-0.416	0.436	
15.735	0.359	0.282	
15.740	-0.472	0.146	
15.745	-0.789	-0.011	
15.750	0.065	-0.178	
15.755	-0.118	-0.263	
15.760	-0.766	-0.299	
15.765	-0.210	-0.348	
15.770	0.330	-0.347	
15.775	-0.636	-0.291	
15.780	-0.500	-0.276	
15.785	0.455	-0.273	
15.790	-0.365	-0.218	
15.795	-0.682	-0.196	
15.800	0.269	-0.216	
15.805	0.030	-0.191	
15.810	-0.682	-0.160	
15.815	-0.081	-0.180	
15.820	0.594	-0.169	
15.825	-0.498	-0.104	
15.830	-0.336	-0.087	
15.835	0.860	-0.077	
15.840	-0.092	0.002	
15.845	-0.373	0.054	
15.850	1.071	0.081	
15.855	0.971	0.205	
15.860	-0.196	0.359	
15.865	0.857	0.434	
15.870	1.502	0.530	
15.875	-0.014	0.657	
15.880	0.212	0.676	
15.885	1.476	0.648	
15.890	0.337	0.676	
15.895	-0.268	0.652	
15.900	1.032	0.558	
15.905	0.692	0.524	
15.910	-0.426	0.502	
15.915	0.287	0.405	
15.920	0.854	0.328	
15.925	-0.416	0.303	
15.930	-0.315	0.221	
15.935	0.768	0.127	
15.940	-0.222	0.104	
15.945	-0.572	0.062	
15.950	0.458	-0.012	
15.955	0.195	-0.022	
15.960	-0.642	-0.013	
15.965	-0.089	-0.060	
15.970	0.586	-0.083	
15.975	-0.498	-0.052	
15.980	-0.370	-0.063	
15.985	0.695	-0.082	
15.990	-0.248	-0.041	
15.995	-0.599	-0.031	
16.000	0.414	-0.068	
16.005	0.171	-0.056	
16.010	-0.631	-0.033	
16.015	-0.052	-0.069	
16.020	0.602	-0.080	
16.025	-0.512	-0.041	
16.030	-0.385	-0.052	
16.035	0.715	-0.074	
16.040	-0.228	-0.033	
16.045	-0.562	-0.021	
16.050	0.524	-0.050	
16.055	0.287	-0.019	
16.060	-0.602	0.023	
16.065	-0.048	-0.006	
16.070	0.606	-0.023	
16.075	-0.517	0.003	
16.080	-0.414	-0.024	
16.085	0.640	-0.065	
16.090	-0.268	-0.046	
16.095	-0.633	-0.052	
16.100	0.382	-0.099	
16.105	0.188	-0.089	
16.110	-0.634	-0.062	
16.115	-0.003	-0.087	
16.120	0.797	-0.076	
16.125	-0.358	-0.000	
16.130	-0.171	0.033	
16.135	1.332	0.073	
16.140	0.499	0.217	
16.145	-0.081	0.351	
16.150	1.387	0.432	
16.155	1.019	0.563	
16.160	-0.362	0.665	
16.165	0.174	0.614	
16.170	0.655	0.505	
16.175	-0.537	0.402	
16.180	-0.439	0.238	
16.185	0.690	0.080	
16.190	-0.164	0.023	
16.195	-0.483	-0.015	
16.200	0.761	-0.047	
16.205	0.628	0.022	
16.210	-0.416	0.126	
16.215	0.388	0.162	
16.220	1.103	0.218	
16.225	-0.272	0.312	
16.230	-0.167	0.319	
16.235	1.132	0.287	
16.240	0.119	0.321	
16.245	-0.365	0.325	
16.250	0.944	0.282	
16.255	0.774	0.315	
16.260	-0.367	0.371	
16.265	0.492	0.355	
16.270	1.254	0.367	
16.275	-0.165	0.437	
16.280	-0.017	0.432	
16.285	1.411	0.406	
16.290	0.423	0.467	
16.295	-0.199	0.506	
16.300	1.295	0.493	
16.305	1.142	0.558	
16.310	-0.168	0.645	
16.315	0.811	0.643	
16.320	1.512	0.660	
16.325	-0.035	0.722	
16.330	0.108	0.691	
16.335	1.460	0.624	
16.340	0.354	0.632	
16.345	-0.294	0.605	
16.350	0.988	0.516	
16.355	0.738	0.488	
16.360	-0.422	0.479	
16.365	0.266	0.393	
16.370	0.927	0.326	
16.375	-0.371	0.314	
16.380	-0.298	0.244	
16.385	0.843	0.160	
16.390	-0.145	0.146	
16.395	-0.532	0.113	
16.400	0.603	0.048	
16.405	0.499	0.061	
16.410	-0.469	0.109	
16.415	0.308	0.106	
16.420	1.126	0.144	
16.425	-0.216	0.244	
16.430	-0.078	0.277	
16.435	1.359	0.287	
16.440	0.374	0.378	
16.445	-0.236	0.440	
16.450	1.144	0.437	
16.455	0.950	0.494	
16.460	-0.304	0.557	
16.465	0.531	0.525	
16.470	1.272	0.507	
16.475	-0.171	0.538	
16.480	-0.058	0.494	
16.485	1.332	0.430	
16.490	0.285	0.452	
16.495	-0.313	0.453	
16.500	0.979	0.399	
16.505	0.764	0.410	
16.510	-0.396	0.437	
16.515	0.348	0.385	
16.520	1.061	0.351	
16.525	-0.292	0.370	
16.530	-0.217	0.323	
16.535	1.058	0.256	
16.540	0.035	0.265	
16.545	-0.425	0.253	
16.550	0.802	0.199	
16.555	0.675	0.222	
16.560	-0.414	0.272	
16.565	0.327	0.255	
16.570	1.133	0.262	
16.575	-0.190	0.329	
16.580	0.018	0.336	
16.585	1.520	0.341	
16.590	0.440	0.442	
16.595	-0.298	0.507	
16.600	0.860	0.478	
16.605	0.495	0.464	
16.610	-0.576	0.430	
16.615	-0.071	0.300	
16.620	0.658	0.178	
16.625	-0.454	0.122	
16.630	-0.344	0.045	
16.635	0.903	-0.013	
16.640	-0.029	0.027	
16.645	-0.439	0.061	
16.650	0.793	0.061	
16.655	0.692	0.134	
16.660	-0.410	0.227	
16.665	0.308	0.239	
16.670	1.091	0.261	
16.675	-0.252	0.327	
16.680	-0.174	0.318	
16.685	1.173	0.281	
16.690	0.189	0.320	
16.695	-0.344	0.336	
16.700	0.968	0.303	
16.705	0.851	0.344	
16.710	-0.329	0.409	
16.715	0.492	0.397	
16.720	1.291	0.407	
16.725	-0.119	0.474	
16.730	0.013	0.468	
16.735	1.488	0.443	
16.740	0.536	0.512	
16.745	-0.153	0.562	
16.750	1.292	0.553	
16.755	1.123	0.611	
16.760	-0.222	0.679	
16.765	0.597	0.647	
16.770	1.283	0.615	
16.775	-0.194	0.623	
16.780	-0.167	0.546	
16.785	1.039	0.430	
16.790	-0.029	0.381	
16.795	-0.508	0.308	
16.800	0.501	0.191	
16.805	0.328	0.135	
16.810	-0.579	0.110	
16.815	-0.058	0.036	
16.820	0.663	-0.008	
16.825	-0.449	0.009	
16.830	-0.384	-0.013	
16.835	0.718	-0.044	
16.840	-0.153	-0.010	
16.845	-0.546	0.003	
16.850	0.458	-0.028	
16.855	0.345	-0.005	
16.860	-0.564	0.034	
16.865	-0.026	0.010	
16.870	0.738	0.002	
16.875	-0.402	0.046	
16.880	-0.323	0.041	
16.885	0.831	0.021	
16.890	-0.087	0.065	
16.895	-0.500	0.082	
16.900	0.567	0.051	
16.905	0.473	0.078	
16.910	-0.483	0.124	
16.915	0.125	0.107	
16.920	0.919	0.110	
16.925	-0.317	0.168	
16.930	-0.263	0.166	
16.935	0.918	0.138	
16.940	-0.061	0.169	
16.945	-0.498	0.166	
16.950	0.525	0.110	
16.955	0.400	0.106	
16.960	-0.546	0.120	
16.965	-0.040	0.071	
16.970	0.683	0.037	
16.975	-0.433	0.054	
16.980	-0.370	0.027	
16.985	0.728	-0.011	
16.990	-0.138	0.015	
16.995	-0.533	0.022	
17.000	0.512	-0.011	
17.005	0.423	0.017	
17.010	-0.488	0.068	
17.015	0.198	0.064	
17.020	1.121	0.098	
17.025	-0.162	0.201	
17.030	-0.118	0.247	
17.035	1.120	0.257	
17.040	0.000	0.312	
17.045	-0.561	0.307	
17.050	0.215	0.207	
17.055	0.009	0.113	
17.060	-0.731	0.024	
17.065	-0.246	-0.103	
17.070	0.402	-0.185	
17.075	-0.524	-0.189	
17.080	-0.446	-0.207	
17.085	0.643	-0.213	
17.090	-0.153	-0.145	
17.095	-0.533	-0.094	
17.100	0.522	-0.084	
17.105	0.476	-0.018	
17.110	-0.474	0.064	
17.115	0.125	0.077	
17.120	0.909	0.100	
17.125	-0.294	0.169	
17.130	-0.223	0.177	
17.135	1.032	0.161	
17.140	0.136	0.215	
17.145	-0.353	0.246	
17.150	0.883	0.230	
17.155	0.840	0.284	
17.160	-0.295	0.362	
17.165	0.484	0.368	
17.170	1.266	0.392	
17.175	-0.119	0.466	
17.180	-0.060	0.460	
17.185	1.285	0.421	
17.190	0.348	0.456	
17.195	-0.280	0.467	
17.200	0.945	0.421	
17.205	0.809	0.432	
17.210	-0.358	0.459	
17.215	0.250	0.404	
17.220	0.973	0.354	
17.225	-0.306	0.351	
17.230	-0.300	0.288	
17.235	0.796	0.198	
17.240	-0.109	0.172	
17.245	-0.538	0.130	
17.250	0.420	0.049	
17.255	0.307	0.029	
17.260	-0.599	0.034	
17.265	-0.156	-0.019	
17.270	0.481	-0.061	
17.275	-0.501	-0.056	
17.280	-0.445	-0.088	
17.285	0.592	-0.125	
17.290	-0.153	-0.092	
17.295	-0.537	-0.071	
17.300	0.460	-0.083	
17.305	0.388	-0.038	
17.310	-0.546	0.023	
17.315	-0.037	0.015	
17.320	0.741	0.013	
17.325	-0.387	0.059	
17.330	-0.344	0.053	
17.335	0.848	0.030	
17.340	0.013	0.076	
17.345	-0.430	0.105	
17.350	0.655	0.091	
17.355	0.527	0.133	
17.360	-0.520	0.183	
17.365	-0.080	0.147	
17.370	0.596	0.098	
17.375	-0.504	0.084	
17.380	-0.518	0.019	
17.385	0.374	-0.071	
17.390	-0.329	-0.106	
17.395	-0.749	-0.152	
17.400	-0.008	-0.231	
17.405	-0.068	-0.265	
17.410	-0.789	-0.276	
17.415	-0.341	-0.322	
17.420	0.223	-0.343	
17.425	-0.637	-0.315	
17.430	-0.622	-0.320	
17.435	0.250	-0.338	
17.440	-0.350	-0.307	
17.445	-0.740	-0.290	
17.450	0.122	-0.307	
17.455	0.241	-0.270	
17.460	-0.541	-0.199	
17.465	0.038	-0.165	
17.470	0.838	-0.100	
17.475	-0.398	0.011	
17.480	-0.486	0.043	
17.485	0.285	0.001	
17.490	-0.431	-0.036	
17.495	-0.877	-0.115	
17.500	-0.165	-0.240	
17.505	-0.139	-0.320	
17.510	-0.796	-0.358	
17.515	-0.317	-0.404	
17.520	0.347	-0.403	
17.525	-0.562	-0.336	
17.530	-0.529	-0.302	
17.535	0.490	-0.281	
17.540	-0.236	-0.209	
17.545	-0.654	-0.165	
17.550	0.264	-0.171	
17.555	0.267	-0.136	
17.560	-0.610	-0.085	
17.565	-0.132	-0.095	
17.570	0.673	-0.091	
17.575	-0.413	-0.035	
17.580	-0.391	-0.026	
17.585	0.773	-0.037	
17.590	-0.052	0.016	
17.595	-0.492	0.047	
17.600	0.637	0.035	
17.605	0.701	0.091	
17.610	-0.393	0.178	
17.615	0.256	0.196	
17.620	1.146	0.227	
17.625	-0.179	0.309	
17.630	-0.181	0.321	
17.635	1.138	0.295	
17.640	0.233	0.335	
17.645	-0.388	0.349	
17.650	0.724	0.300	
17.655	0.654	0.300	
17.660	-0.480	0.316	
17.665	-0.031	0.250	
17.670	0.741	0.180	
17.675	-0.430	0.160	
17.680	-0.471	0.093	
17.685	0.499	0.003	
17.690	-0.249	-0.029	
17.695	-0.700	-0.072	
17.700	0.108	-0.151	
17.705	0.110	-0.179	
17.710	-0.714	-0.178	
17.715	-0.278	-0.218	
17.720	0.394	-0.238	
17.725	-0.562	-0.206	
17.730	-0.567	-0.213	
17.735	0.395	-0.236	
17.740	-0.275	-0.207	
17.745	-0.708	-0.194	
17.750	0.140	-0.223	
17.755	0.156	-0.209	
17.760	-0.674	-0.174	
17.765	-0.237	-0.190	
17.770	0.479	-0.194	
17.775	-0.514	-0.151	
17.780	-0.518	-0.151	
17.785	0.504	-0.171	
17.790	-0.210	-0.137	
17.795	-0.639	-0.120	
17.800	0.281	-0.145	
17.805	0.348	-0.119	
17.810	-0.587	-0.065	
17.815	-0.141	-0.072	
17.820	0.680	-0.071	
17.825	-0.434	-0.021	
17.830	-0.478	-0.023	
17.835	0.542	-0.059	
17.840	-0.208	-0.048	
17.845	-0.659	-0.058	
17.850	0.229	-0.112	
17.855	0.292	-0.114	
17.860	-0.622	-0.085	
17.865	-0.181	-0.107	
17.870	0.641	-0.114	
17.875	-0.439	-0.066	
17.880	-0.448	-0.062	
17.885	0.699	-0.077	
17.890	-0.061	-0.030	
17.895	-0.517	0.002	
17.900	0.655	-0.003	
17.905	0.900	0.073	
17.910	-0.269	0.198	
17.915	0.417	0.259	
17.920	1.231	0.324	
17.925	-0.239	0.418	
17.930	-0.398	0.403	
17.935	0.559	0.300	
17.940	-0.245	0.216	
17.945	-0.711	0.105	
17.950	0.149	-0.039	
17.955	0.302	-0.108	
17.960	-0.575	-0.113	
17.965	-0.087	-0.138	
17.970	0.851	-0.120	
17.975	-0.310	-0.029	
17.980	-0.330	0.016	
17.985	0.929	0.034	
17.990	0.140	0.113	
17.995	-0.436	0.167	
18.000	0.701	0.161	
18.005	0.796	0.210	
18.010	-0.378	0.283	
18.015	0.229	0.280	
18.020	1.161	0.284	
18.025	-0.167	0.343	
18.030	-0.199	0.338	
18.035	1.210	0.303	
18.040	0.432	0.352	
18.045	-0.291	0.394	
18.050	1.022	0.382	
18.055	1.164	0.440	
18.060	-0.188	0.533	
18.065	0.567	0.543	
18.070	1.527	0.562	
18.075	0.097	0.639	
18.080	-0.005	0.638	
18.085	1.451	0.591	
18.090	0.623	0.621	
18.095	-0.240	0.635	
18.100	0.999	0.577	
18.105	1.002	0.569	
18.110	-0.329	0.584	
18.115	0.214	0.509	
18.120	1.086	0.433	
18.125	-0.246	0.414	
18.130	-0.329	0.341	
18.135	0.851	0.239	
18.140	0.006	0.209	
18.145	-0.547	0.170	
18.150	0.394	0.087	
18.155	0.470	0.063	
18.160	-0.550	0.076	
18.165	-0.130	0.033	
18.170	0.756	0.003	
18.175	-0.367	0.035	
18.180	-0.439	0.025	
18.185	0.684	-0.011	
18.190	-0.068	0.014	
18.195	-0.564	0.022	
18.200	0.402	-0.014	
18.205	0.522	0.006	
18.210	-0.524	0.057	
18.215	-0.101	0.043	
18.220	0.840	0.033	
18.225	-0.321	0.080	
18.230	-0.364	0.081	
18.235	0.895	0.059	
18.240	0.124	0.109	
18.245	-0.463	0.145	
18.250	0.617	0.127	
18.255	0.741	0.165	
18.260	-0.433	0.230	
18.265	0.026	0.215	
18.270	0.965	0.195	
18.275	-0.289	0.226	
18.280	-0.358	0.201	
18.285	0.831	0.143	
18.290	0.042	0.151	
18.295	-0.523	0.145	
18.300	0.452	0.090	
18.305	0.570	0.090	
18.310	-0.498	0.124	
18.315	-0.064	0.095	
18.320	0.869	0.074	
18.325	-0.300	0.114	
18.330	-0.358	0.108	
18.335	0.906	0.080	
18.340	0.215	0.129	
18.345	-0.375	0.173	
18.350	0.953	0.183	
18.355	1.110	0.275	
18.360	-0.287	0.403	
18.365	0.169	0.424	
18.370	0.968	0.403	
18.375	-0.352	0.400	
18.380	-0.475	0.314	
18.385	0.580	0.181	
18.390	-0.115	0.108	
18.395	-0.588	0.042	
18.400	0.400	-0.040	
18.405	0.629	-0.034	
18.410	-0.428	0.032	
18.415	0.102	0.053	
18.420	1.121	0.095	
18.425	-0.165	0.198	
18.430	-0.232	0.238	
18.435	1.115	0.237	
18.440	0.369	0.301	
18.445	-0.356	0.346	
18.450	0.776	0.325	
18.455	0.909	0.351	
18.460	-0.332	0.404	
18.465	0.212	0.376	
18.470	1.205	0.353	
18.475	-0.113	0.392	
18.480	-0.193	0.375	
18.485	1.214	0.331	
18.490	0.516	0.375	
18.495	-0.275	0.418	
18.500	0.981	0.406	
18.505	1.181	0.457	
18.510	-0.185	0.544	
18.515	0.482	0.546	
18.520	1.448	0.549	
18.525	0.020	0.606	
18.530	-0.126	0.585	
18.535	1.259	0.514	
18.540	0.469	0.516	
18.545	-0.338	0.508	
18.550	0.754	0.435	
18.555	0.858	0.413	
18.560	-0.393	0.422	
18.565	-0.005	0.351	
18.570	0.915	0.275	
18.575	-0.291	0.258	
18.580	-0.401	0.199	
18.585	0.727	0.116	
18.590	-0.014	0.102	
18.595	-0.566	0.082	
18.600	0.313	0.019	
18.605	0.463	0.009	
18.610	-0.552	0.034	
18.615	-0.174	0.002	
18.620	0.724	-0.022	
18.625	-0.350	0.013	
18.630	-0.440	0.008	
18.635	0.686	-0.021	
18.640	0.000	0.012	
18.645	-0.537	0.033	
18.650	0.382	0.005	
18.655	0.548	0.026	
18.660	-0.501	0.077	
18.665	-0.126	0.061	
18.670	0.780	0.043	
18.675	-0.333	0.077	
18.680	-0.414	0.066	
18.685	0.742	0.029	
18.690	0.020	0.055	
18.695	-0.535	0.070	
18.700	0.372	0.033	
18.705	0.524	0.042	
18.710	-0.532	0.080	
18.715	-0.196	0.050	
18.720	0.615	0.012	
18.725	-0.422	0.019	
18.730	-0.524	-0.016	
18.735	0.479	-0.075	
18.740	-0.159	-0.078	
18.745	-0.668	-0.089	
18.750	0.078	-0.143	
18.755	0.275	-0.154	
18.760	-0.636	-0.131	
18.765	-0.294	-0.156	
18.770	0.493	-0.173	
18.775	-0.449	-0.138	
18.780	-0.532	-0.139	
18.785	0.579	-0.156	
18.790	0.029	-0.106	
18.795	-0.442	-0.053	
18.800	0.646	-0.027	
18.805	0.820	0.068	
18.810	-0.413	0.189	
18.815	-0.147	0.206	
18.820	0.562	0.170	
18.825	-0.489	0.143	
18.830	-0.608	0.057	
18.835	0.325	-0.060	
18.840	-0.188	-0.113	
18.845	-0.647	-0.151	
18.850	0.204	-0.200	
18.855	0.450	-0.178	
18.860	-0.532	-0.107	
18.865	-0.168	-0.089	
18.870	0.735	-0.070	
18.875	-0.342	-0.003	
18.880	-0.451	0.012	
18.885	0.649	-0.011	
18.890	-0.011	0.019	
18.895	-0.558	0.033	
18.900	0.304	-0.004	
18.905	0.498	0.004	
18.910	-0.520	0.043	
18.915	-0.170	0.021	
18.920	0.738	0.001	
18.925	-0.327	0.036	
18.930	-0.420	0.031	
18.935	0.764	0.004	
18.940	0.149	0.048	
18.945	-0.457	0.089	
18.950	0.559	0.083	
18.955	0.783	0.131	
18.960	-0.399	0.211	
18.965	-0.023	0.209	
18.970	0.958	0.193	
18.975	-0.243	0.226	
18.980	-0.376	0.205	
18.985	0.754	0.145	
18.990	0.030	0.143	
18.995	-0.575	0.127	
19.000	0.206	0.053	
19.005	0.366	0.016	
19.010	-0.608	0.011	
19.015	-0.297	-0.047	
19.020	0.461	-0.101	
19.025	-0.488	-0.102	
19.030	-0.624	-0.137	
19.035	0.261	-0.196	
19.040	-0.251	-0.206	
19.045	-0.775	-0.219	
19.050	-0.121	-0.274	
19.055	0.108	-0.292	
19.060	-0.695	-0.275	
19.065	-0.341	-0.291	
19.070	0.547	-0.283	
19.075	-0.396	-0.211	
19.080	-0.532	-0.172	
19.085	0.525	-0.164	
19.090	-0.057	-0.109	
19.095	-0.610	-0.071	
19.100	0.169	-0.090	
19.105	0.366	-0.078	
19.110	-0.637	-0.046	
19.115	-0.350	-0.080	
19.120	0.371	-0.126	
19.125	-0.521	-0.132	
19.130	-0.660	-0.172	
19.135	0.233	-0.234	
19.140	-0.234	-0.241	
19.145	-0.766	-0.246	
19.150	-0.116	-0.290	
19.155	0.072	-0.301	
19.160	-0.758	-0.284	
19.165	-0.471	-0.312	
19.170	0.162	-0.339	
19.175	-0.616	-0.325	
19.180	-0.750	-0.342	
19.185	0.056	-0.382	
19.190	-0.315	-0.376	
19.195	-0.816	-0.367	
19.200	-0.162	-0.393	
19.205	0.052	-0.383	
19.210	-0.737	-0.344	
19.215	-0.410	-0.346	
19.220	0.382	-0.337	
19.225	-0.471	-0.276	
19.230	-0.549	-0.246	
19.235	0.693	-0.227	
19.240	0.264	-0.124	
19.245	-0.456	-0.016	
19.250	0.444	0.031	
19.255	0.606	0.097	
19.260	-0.607	0.159	
19.265	-0.370	0.116	
19.270	0.424	0.030	
19.275	-0.442	-0.016	
19.280	-0.538	-0.081	
19.285	0.667	-0.138	
19.290	0.169	-0.096	
19.295	-0.491	-0.033	
19.300	0.481	-0.012	
19.305	0.805	0.060	
19.310	-0.402	0.162	
19.315	-0.080	0.178	
19.320	0.970	0.173	
19.325	-0.211	0.214	
19.330	-0.379	0.203	
19.335	0.835	0.153	
19.340	0.252	0.172	
19.345	-0.482	0.189	
19.350	0.460	0.151	
19.355	0.799	0.161	
19.360	-0.405	0.213	
19.365	-0.072	0.195	
19.370	1.028	0.172	
19.375	-0.152	0.214	
19.380	-0.301	0.214	
19.385	1.054	0.189	
19.390	0.518	0.249	
19.395	-0.344	0.313	
19.400	0.739	0.313	
19.405	1.065	0.356	
19.410	-0.291	0.431	
19.415	0.090	0.415	
19.420	1.173	0.379	
19.425	-0.118	0.399	
19.430	-0.344	0.362	
19.435	0.857	0.280	
19.440	0.209	0.260	
19.445	-0.556	0.236	
19.450	0.208	0.148	
19.455	0.473	0.093	
19.460	-0.590	0.075	
19.465	-0.317	0.005	
19.470	0.533	-0.062	
19.475	-0.433	-0.069	
19.480	-0.621	-0.104	
19.485	0.348	-0.163	
19.490	-0.139	-0.165	
19.495	-0.712	-0.165	
19.500	-0.045	-0.209	
19.505	0.308	-0.215	
19.510	-0.634	-0.181	
19.515	-0.362	-0.192	
19.520	0.515	-0.201	
19.525	-0.408	-0.156	
19.530	-0.581	-0.146	
19.535	0.460	-0.165	
19.540	-0.048	-0.131	
19.545	-0.639	-0.103	
19.550	0.065	-0.128	
19.555	0.314	-0.126	
19.560	-0.691	-0.101	
19.565	-0.457	-0.141	
19.570	0.293	-0.195	
19.575	-0.526	-0.204	
19.580	-0.700	-0.238	
19.585	0.203	-0.290	
19.590	-0.210	-0.286	
19.595	-0.772	-0.276	
19.600	-0.136	-0.308	
19.605	0.174	-0.307	
19.610	-0.714	-0.273	
19.615	-0.453	-0.284	
19.620	0.337	-0.297	
19.625	-0.504	-0.261	
19.630	-0.677	-0.258	
19.635	0.261	-0.282	
19.640	-0.170	-0.257	
19.645	-0.737	-0.235	
19.650	-0.068	-0.260	
19.655	0.304	-0.250	
19.660	-0.631	-0.203	
19.665	-0.336	-0.203	
19.670	0.637	-0.196	
19.675	-0.303	-0.127	
19.680	-0.405	-0.087	
19.685	1.042	-0.054	
19.690	0.617	0.077	
19.695	-0.375	0.216	
19.700	0.512	0.261	
19.705	0.667	0.296	
19.710	-0.578	0.317	
19.715	-0.367	0.230	
19.720	0.457	0.105	
19.725	-0.457	0.028	
19.730	-0.627	-0.065	
19.735	0.473	-0.156	
19.740	0.073	-0.153	
19.745	-0.569	-0.122	
19.750	0.305	-0.119	
19.755	0.785	-0.057	
19.760	-0.382	0.053	
19.765	-0.035	0.096	
19.770	1.201	0.134	
19.775	0.020	0.238	
19.780	-0.258	0.291	
19.785	1.091	0.290	
19.790	0.586	0.352	
19.795	-0.364	0.405	
19.800	0.663	0.381	
19.805	1.116	0.394	
19.810	-0.205	0.452	
19.815	0.345	0.446	
19.820	1.627	0.458	
19.825	0.440	0.566	
19.830	0.052	0.632	
19.835	1.641	0.649	
19.840	1.201	0.747	
19.845	0.010	0.844	
19.850	1.245	0.850	
19.855	1.636	0.887	
19.860	0.046	0.952	
19.865	0.470	0.909	
19.870	1.616	0.841	
19.875	0.342	0.839	
19.880	-0.124	0.783	
19.885	1.294	0.675	
19.890	0.754	0.646	
19.895	-0.323	0.627	
19.900	0.614	0.535	
19.905	1.002	0.479	
19.910	-0.338	0.469	
19.915	-0.112	0.387	
19.920	0.959	0.293	
19.925	-0.210	0.267	
19.930	-0.454	0.209	
19.935	0.747	0.124	
19.940	0.337	0.124	
19.945	-0.474	0.144	
19.950	0.414	0.118	
19.955	0.874	0.141	
19.960	-0.373	0.208	
19.965	-0.118	0.203	
19.970	1.103	0.186	
19.975	-0.006	0.239	
19.980	-0.255	0.260	
19.985	1.197	0.253	
19.990	0.846	0.341	
19.995	-0.228	0.444	
20.000	0.863	0.471	
20.005	1.341	0.528	
20.010	-0.127	0.616	
20.015	0.319	0.611	
20.020	1.561	0.591	
20.025	0.356	0.647	
20.030	-0.121	0.655	
20.035	1.291	0.603	
20.040	0.797	0.616	
20.045	-0.294	0.628	
20.050	0.664	0.559	
20.055	1.072	0.519	
20.060	-0.307	0.519	
20.065	-0.072	0.441	
20.070	1.098	0.351	
20.075	-0.058	0.337	
20.080	-0.330	0.298	
20.085	0.939	0.234	
20.090	0.515	0.255	
20.095	-0.394	0.290	
20.100	0.487	0.264	
20.105	0.967	0.274	
20.110	-0.318	0.325	
20.115	-0.089	0.301	
20.120	1.146	0.264	
20.125	0.111	0.304	
20.130	-0.181	0.322	
20.135	1.171	0.314	
20.140	0.634	0.381	
20.145	-0.416	0.437	
20.150	0.255	0.387	
20.155	0.592	0.322	
20.160	-0.540	0.273	
20.165	-0.370	0.158	
20.170	0.541	0.039	
20.175	-0.313	-0.009	
20.180	-0.518	-0.058	
20.185	0.582	-0.108	
20.190	0.238	-0.071	
20.195	-0.512	-0.015	
20.200	0.230	-0.010	
20.205	0.730	0.025	
20.210	-0.404	0.098	
20.215	-0.199	0.102	
20.220	0.892	0.090	
20.225	-0.145	0.134	
20.230	-0.408	0.139	
20.235	0.751	0.107	
20.240	0.368	0.139	
20.245	-0.466	0.176	
20.250	0.324	0.150	
20.255	0.866	0.159	
20.260	-0.324	0.213	
20.265	-0.095	0.206	
20.270	1.101	0.192	
20.275	0.012	0.247	
20.280	-0.274	0.268	
20.285	1.043	0.252	
20.290	0.687	0.313	
20.295	-0.304	0.383	
20.300	0.654	0.380	
20.305	1.196	0.410	
20.310	-0.161	0.482	
20.315	0.108	0.474	
20.320	1.278	0.444	
20.325	0.113	0.476	
20.330	-0.280	0.460	
20.335	0.924	0.389	
20.340	0.516	0.379	
20.345	-0.433	0.374	
20.350	0.267	0.299	
20.355	0.724	0.245	
20.360	-0.434	0.232	
20.365	-0.271	0.164	
20.370	0.724	0.089	
20.375	-0.240	0.078	
20.380	-0.517	0.046	
20.385	0.510	-0.013	
20.390	0.186	-0.008	
20.395	-0.547	0.011	
20.400	0.108	-0.018	
20.405	0.632	-0.015	
20.410	-0.449	0.031	
20.415	-0.278	0.023	
20.420	0.725	0.002	
20.425	-0.219	0.035	
20.430	-0.498	0.036	
20.435	0.547	-0.002	
20.440	0.218	0.018	
20.445	-0.549	0.044	
20.450	0.081	0.012	
20.455	0.626	0.005	
20.460	-0.443	0.042	
20.465	-0.269	0.028	
20.470	0.750	0.005	
20.475	-0.200	0.040	
20.480	-0.486	0.044	
20.485	0.541	0.009	
20.490	0.192	0.026	
20.495	-0.576	0.046	
20.500	-0.038	0.001	
20.505	0.437	-0.031	
20.510	-0.544	-0.028	
20.515	-0.390	-0.069	
20.520	0.489	-0.115	
20.525	-0.338	-0.105	
20.530	-0.613	-0.118	
20.535	0.295	-0.161	
20.540	-0.006	-0.154	
20.545	-0.657	-0.139	
20.550	-0.083	-0.171	
20.555	0.440	-0.173	
20.560	-0.520	-0.129	
20.565	-0.326	-0.126	
20.570	0.774	-0.120	
20.575	-0.095	-0.043	
20.580	-0.371	0.013	
20.585	0.738	0.033	
20.590	0.342	0.104	
20.595	-0.588	0.158	
20.600	-0.159	0.109	
20.605	0.125	0.029	
20.610	-0.721	-0.045	
20.615	-0.578	-0.160	
20.620	0.200	-0.265	
20.625	-0.420	-0.295	
20.630	-0.674	-0.316	
20.635	0.188	-0.341	
20.640	-0.052	-0.307	
20.645	-0.672	-0.260	
20.650	-0.121	-0.259	
20.655	0.386	-0.236	
20.660	-0.559	-0.176	
20.665	-0.417	-0.167	
20.670	0.502	-0.173	
20.675	-0.301	-0.131	
20.680	-0.581	-0.118	
20.685	0.371	-0.140	
20.690	0.099	-0.113	
20.695	-0.599	-0.080	
20.700	-0.003	-0.100	
20.705	0.589	-0.092	
20.710	-0.451	-0.038	
20.715	-0.295	-0.032	
20.720	0.773	-0.036	
20.725	-0.150	0.020	
20.730	-0.449	0.044	
20.735	0.669	0.031	
20.740	0.431	0.079	
20.745	-0.443	0.139	
20.750	0.278	0.134	
20.755	0.834	0.151	
20.760	-0.368	0.204	
20.765	-0.255	0.185	
20.770	0.770	0.137	
20.775	-0.196	0.138	
20.780	-0.544	0.105	
20.785	0.360	0.027	
20.790	0.033	-0.007	
20.795	-0.677	-0.033	
20.800	-0.176	-0.110	
20.805	0.272	-0.162	
20.810	-0.642	-0.170	
20.815	-0.537	-0.214	
20.820	0.252	-0.264	
20.825	-0.439	-0.262	
20.830	-0.740	-0.275	
20.835	0.035	-0.318	
20.840	-0.133	-0.317	
20.845	-0.758	-0.304	
20.850	-0.236	-0.328	
20.855	0.258	-0.325	
20.860	-0.617	-0.278	
20.865	-0.497	-0.272	
20.870	0.379	-0.276	
20.875	-0.352	-0.231	
20.880	-0.648	-0.211	
20.885	0.238	-0.227	
20.890	0.003	-0.201	
20.895	-0.682	-0.172	
20.900	-0.165	-0.196	
20.905	0.403	-0.199	
20.910	-0.550	-0.160	
20.915	-0.430	-0.164	
20.920	0.539	-0.175	
20.925	-0.281	-0.132	
20.930	-0.598	-0.114	
20.935	0.333	-0.138	
20.940	0.067	-0.118	
20.945	-0.685	-0.096	
20.950	-0.196	-0.137	
20.955	0.322	-0.166	
20.960	-0.601	-0.157	
20.965	-0.506	-0.188	
20.970	0.348	-0.226	
20.975	-0.375	-0.212	
20.980	-0.691	-0.216	
20.985	0.181	-0.251	
20.990	-0.003	-0.237	
20.995	-0.692	-0.210	
21.000	-0.168	-0.230	
21.005	0.450	-0.224	
21.010	-0.483	-0.168	
21.015	-0.283	-0.147	
21.020	0.999	-0.111	
21.025	0.059	0.009	
21.030	-0.396	0.099	
21.035	0.641	0.121	
21.040	0.226	0.161	
21.045	-0.705	0.169	
21.050	-0.300	0.073	
21.055	0.101	-0.043	
21.060	-0.682	-0.128	
21.065	-0.556	-0.230	
21.070	0.377	-0.303	
21.075	-0.313	-0.289	
21.080	-0.628	-0.269	
21.085	0.334	-0.266	
21.090	0.201	-0.205	
21.095	-0.592	-0.130	
21.100	-0.045	-0.117	
21.105	0.647	-0.090	
21.110	-0.423	-0.022	
21.115	-0.323	-0.009	
21.120	0.786	-0.014	
21.125	-0.116	0.039	
21.130	-0.475	0.061	
21.135	0.625	0.040	
21.140	0.527	0.083	
21.145	-0.445	0.145	
21.150	0.230	0.143	
21.155	0.959	0.161	
21.160	-0.263	0.226	
21.165	-0.145	0.230	
21.170	1.170	0.218	
21.175	0.259	0.285	
21.180	-0.287	0.330	
21.185	0.993	0.323	
21.190	0.869	0.378	
21.195	-0.283	0.448	
21.200	0.495	0.437	
21.205	1.161	0.437	
21.210	-0.213	0.476	
21.215	-0.167	0.434	
21.220	1.014	0.355	
21.225	-0.009	0.336	
21.230	-0.468	0.289	
21.235	0.544	0.194	
21.240	0.353	0.156	
21.245	-0.556	0.141	
21.250	-0.057	0.070	
21.255	0.612	0.019	
21.260	-0.454	0.024	
21.265	-0.408	-0.011	
21.270	0.606	-0.057	
21.275	-0.203	-0.041	
21.280	-0.578	-0.043	
21.285	0.368	-0.082	
21.290	0.244	-0.067	
21.295	-0.590	-0.036	
21.300	-0.089	-0.061	
21.305	0.620	-0.069	
21.310	-0.443	-0.027	
21.315	-0.376	-0.031	
21.320	0.735	-0.049	
21.325	-0.129	-0.004	
21.330	-0.512	0.017	
21.335	0.533	-0.004	
21.340	0.438	0.032	
21.345	-0.498	0.086	
21.350	0.084	0.075	
21.355	0.849	0.079	
21.360	-0.326	0.134	
21.365	-0.257	0.134	
21.370	0.950	0.114	
21.375	0.027	0.160	
21.380	-0.419	0.180	
21.385	0.686	0.151	
21.390	0.524	0.177	
21.395	-0.491	0.215	
21.400	0.041	0.174	
21.405	0.765	0.139	
21.410	-0.373	0.151	
21.415	-0.327	0.115	
21.420	0.825	0.066	
21.425	-0.048	0.089	
21.430	-0.471	0.096	
21.435	0.597	0.063	
21.440	0.512	0.093	
21.445	-0.468	0.143	
21.450	0.137	0.128	
21.455	0.968	0.133	
21.460	-0.208	0.197	
21.465	-0.061	0.215	
21.470	1.410	0.234	
21.475	0.473	0.349	
21.480	-0.269	0.437	
21.485	0.826	0.435	
21.490	0.551	0.443	
21.495	-0.538	0.430	
21.500	-0.110	0.314	
21.505	0.571	0.191	
21.510	-0.453	0.122	
21.515	-0.375	0.033	
21.520	0.803	-0.036	
21.525	-0.017	-0.007	
21.530	-0.439	0.024	
21.535	0.707	0.026	
21.540	0.687	0.099	
21.545	-0.379	0.195	
21.550	0.253	0.215	
21.555	1.043	0.239	
21.560	-0.216	0.305	
21.565	-0.174	0.301	
21.570	1.115	0.269	
21.575	0.236	0.309	
21.580	-0.327	0.330	
21.585	0.901	0.302	
21.590	0.893	0.342	
21.595	-0.272	0.409	
21.600	0.475	0.405	
21.605	1.294	0.419	
21.610	-0.048	0.488	
21.615	0.004	0.487	
21.620	1.404	0.460	
21.625	0.589	0.518	
21.630	-0.152	0.564	
21.635	1.193	0.550	
21.640	1.158	0.599	
21.645	-0.161	0.666	
21.650	0.602	0.643	
21.655	1.364	0.624	
21.660	-0.046	0.651	
21.665	-0.069	0.600	
21.670	1.208	0.511	
21.675	0.287	0.495	
21.680	-0.341	0.462	
21.685	0.733	0.376	
21.690	0.664	0.347	
21.695	-0.419	0.344	
21.700	0.099	0.276	
21.705	0.852	0.221	
21.710	-0.317	0.221	
21.715	-0.323	0.176	
21.720	0.777	0.113	
21.725	-0.054	0.115	
21.730	-0.498	0.103	
21.735	0.484	0.052	
21.740	0.475	0.061	
21.745	-0.482	0.098	
21.750	0.065	0.079	
21.755	0.947	0.082	
21.760	-0.236	0.148	
21.765	-0.223	0.165	
21.770	1.020	0.158	
21.775	0.186	0.218	
21.780	-0.373	0.255	
21.785	0.727	0.233	
21.790	0.725	0.263	
21.795	-0.362	0.313	
21.800	0.217	0.290	
21.805	1.029	0.276	
21.810	-0.202	0.313	
21.815	-0.205	0.294	
21.820	1.020	0.249	
21.825	0.189	0.274	
21.830	-0.381	0.283	
21.835	0.641	0.238	
21.840	0.565	0.240	
21.845	-0.459	0.257	
21.850	-0.017	0.201	
21.855	0.753	0.148	
21.860	-0.361	0.147	
21.865	-0.352	0.105	
21.870	0.756	0.050	
21.875	-0.023	0.067	
21.880	-0.480	0.073	
21.885	0.473	0.039	
21.890	0.443	0.057	
21.895	-0.524	0.094	
21.900	-0.095	0.062	
21.905	0.820	0.040	
21.910	-0.263	0.081	
21.915	-0.254	0.088	
21.920	0.910	0.082	
21.925	0.007	0.136	
21.930	-0.566	0.154	
21.935	0.065	0.086	
21.940	-0.068	0.013	
21.945	-0.850	-0.067	
21.950	-0.524	-0.200	
21.955	-0.113	-0.321	
21.960	-0.793	-0.393	
21.965	-0.810	-0.471	
21.970	-0.093	-0.539	
21.975	-0.486	-0.541	
21.980	-0.903	-0.533	
21.985	-0.208	-0.546	
21.990	-0.153	-0.520	
21.995	-0.833	-0.473	
22.000	-0.423	-0.466	
22.005	0.166	-0.447	
22.010	-0.613	-0.387	
22.015	-0.621	-0.364	
22.020	0.325	-0.356	
22.025	-0.254	-0.297	
22.030	-0.683	-0.253	
22.035	0.152	-0.252	
22.040	0.270	-0.210	
22.045	-0.585	-0.146	
22.050	-0.159	-0.136	
22.055	0.696	-0.116	
22.060	-0.378	-0.045	
22.065	-0.411	-0.024	
22.070	0.758	-0.029	
22.075	0.032	0.026	
22.080	-0.478	0.064	
22.085	0.544	0.053	
22.090	0.629	0.095	
22.095	-0.460	0.160	
22.100	-0.032	0.148	
22.105	0.802	0.127	
22.110	-0.346	0.150	
22.115	-0.417	0.119	
22.120	0.599	0.056	
22.125	-0.162	0.042	
22.130	-0.654	0.011	
22.135	0.093	-0.071	
22.140	0.131	-0.113	
22.145	-0.714	-0.130	
22.150	-0.350	-0.190	
22.155	0.302	-0.236	
22.160	-0.581	-0.230	
22.165	-0.656	-0.254	
22.170	0.200	-0.298	
22.175	-0.336	-0.291	
22.180	-0.799	-0.293	
22.185	-0.090	-0.333	
22.190	0.029	-0.336	
22.195	-0.740	-0.310	
22.200	-0.361	-0.324	
22.205	0.362	-0.322	
22.210	-0.546	-0.270	
22.215	-0.605	-0.256	
22.220	0.362	-0.266	
22.225	-0.245	-0.228	
22.230	-0.708	-0.206	
22.235	0.078	-0.230	
22.240	0.235	-0.214	
22.245	-0.648	-0.171	
22.250	-0.265	-0.180	
22.255	0.551	-0.180	
22.260	-0.445	-0.128	
22.265	-0.512	-0.119	
22.270	0.531	-0.135	
22.275	-0.144	-0.100	
22.280	-0.662	-0.083	
22.285	0.110	-0.122	
22.290	0.232	-0.129	
22.295	-0.671	-0.113	
22.300	-0.312	-0.149	
22.305	0.457	-0.179	
22.310	-0.509	-0.156	
22.315	-0.593	-0.169	
22.320	0.391	-0.205	
22.325	-0.211	-0.185	
22.330	-0.695	-0.175	
22.335	0.128	-0.206	
22.340	0.313	-0.189	
22.345	-0.628	-0.140	
22.350	-0.236	-0.144	
22.355	0.756	-0.136	
22.360	-0.277	-0.060	
22.365	-0.318	-0.017	
22.370	0.936	0.008	
22.375	0.145	0.097	
22.380	-0.584	0.153	
22.385	0.072	0.108	
22.390	0.067	0.049	
22.395	-0.786	-0.016	
22.400	-0.428	-0.134	
22.405	0.325	-0.228	
22.410	-0.532	-0.247	
22.415	-0.604	-0.272	
22.420	0.444	-0.294	
22.425	-0.153	-0.245	
22.430	-0.656	-0.199	
22.435	0.175	-0.199	
22.440	0.389	-0.159	
22.445	-0.595	-0.093	
22.450	-0.220	-0.091	
22.455	0.693	-0.088	
22.460	-0.391	-0.035	
22.465	-0.495	-0.030	
22.470	0.649	-0.055	
22.475	-0.005	-0.021	
22.480	-0.566	0.003	
22.485	0.376	-0.020	
22.490	0.614	0.008	
22.495	-0.486	0.073	
22.500	-0.084	0.070	
22.505	0.968	0.071	
22.510	-0.216	0.133	
22.515	-0.306	0.150	
22.520	1.072	0.142	
22.525	0.438	0.217	
22.530	-0.361	0.287	
22.535	0.750	0.290	
22.540	0.953	0.334	
22.545	-0.359	0.401	
22.550	0.053	0.372	
22.555	1.046	0.326	
22.560	-0.240	0.332	
22.565	-0.399	0.281	
22.570	0.744	0.190	
22.575	0.018	0.162	
22.580	-0.608	0.126	
22.585	0.195	0.039	
22.590	0.403	-0.003	
22.595	-0.621	-0.005	
22.600	-0.307	-0.058	
22.605	0.522	-0.106	
22.610	-0.463	-0.098	
22.615	-0.579	-0.121	
22.620	0.461	-0.164	
22.625	-0.147	-0.145	
22.630	-0.686	-0.133	
22.635	0.099	-0.169	
22.640	0.394	-0.159	
22.645	-0.575	-0.111	
22.650	-0.217	-0.111	
22.655	0.771	-0.102	
22.660	-0.321	-0.032	
22.665	-0.442	-0.007	
22.670	0.767	-0.013	
22.675	0.143	0.043	
22.680	-0.535	0.087	
22.685	0.388	0.067	
22.690	0.670	0.087	
22.695	-0.469	0.139	
22.700	-0.119	0.121	
22.705	0.927	0.100	
22.710	-0.236	0.140	
22.715	-0.376	0.138	
22.720	0.867	0.106	
22.725	0.226	0.144	
22.730	-0.509	0.173	
22.735	0.366	0.136	
22.740	0.606	0.131	
22.745	-0.537	0.152	
22.750	-0.228	0.103	
22.755	0.727	0.047	
22.760	-0.349	0.052	
22.765	-0.500	0.023	
22.770	0.625	-0.029	
22.775	0.013	-0.014	
22.780	-0.630	-0.003	
22.785	0.082	-0.051	
22.790	0.302	-0.072	
22.795	-0.663	-0.069	
22.800	-0.341	-0.117	
22.805	0.670	-0.150	
22.810	-0.274	-0.106	
22.815	-0.378	-0.076	
22.820	0.848	-0.056	
22.825	0.162	0.033	
22.830	-0.625	0.096	
22.835	-0.064	0.055	
22.840	0.052	-0.007	
22.845	-0.793	-0.071	
22.850	-0.500	-0.183	
22.855	0.308	-0.273	
22.860	-0.475	-0.284	
22.865	-0.579	-0.293	
22.870	0.560	-0.293	
22.875	0.046	-0.212	
22.880	-0.572	-0.129	
22.885	0.327	-0.100	
22.890	0.721	-0.030	
22.895	-0.437	0.071	
22.900	-0.095	0.096	
22.905	1.042	0.110	
22.910	-0.153	0.181	
22.915	-0.324	0.202	
22.920	1.031	0.185	
22.925	0.519	0.247	
22.930	-0.356	0.311	
22.935	0.745	0.310	
22.940	1.155	0.358	
22.945	-0.207	0.447	
22.950	0.296	0.456	
22.955	1.471	0.462	
22.960	0.247	0.541	
22.965	-0.066	0.567	
22.970	1.486	0.549	
22.975	0.981	0.618	
22.980	-0.135	0.691	
22.985	1.112	0.684	
22.990	1.474	0.718	
22.995	-0.075	0.786	
23.000	0.405	0.754	
23.005	1.492	0.702	
23.010	0.178	0.712	
23.015	-0.185	0.662	
23.020	1.171	0.560	
23.025	0.550	0.532	
23.030	-0.401	0.506	
23.035	0.534	0.413	
23.040	0.890	0.363	
23.045	-0.391	0.360	
23.050	-0.116	0.292	
23.055	0.961	0.220	
23.060	-0.203	0.218	
23.065	-0.407	0.183	
23.070	0.837	0.124	
23.075	0.350	0.147	
23.080	-0.460	0.181	
23.085	0.473	0.159	
23.090	0.881	0.183	
23.095	-0.364	0.247	
23.100	-0.064	0.237	
23.105	1.095	0.216	
23.110	-0.100	0.259	
23.115	-0.323	0.259	
23.120	0.991	0.223	
23.125	0.499	0.263	
23.130	-0.390	0.308	
23.135	0.606	0.289	
23.140	1.014	0.311	
23.145	-0.303	0.372	
23.150	0.029	0.353	
23.155	1.211	0.323	
23.160	-0.025	0.361	
23.165	-0.287	0.353	
23.170	1.039	0.305	
23.175	0.515	0.331	
23.180	-0.420	0.358	
23.185	0.493	0.314	
23.190	0.897	0.301	
23.195	-0.368	0.328	
23.200	-0.104	0.283	
23.205	1.031	0.230	
23.210	-0.148	0.245	
23.215	-0.385	0.223	
23.220	0.866	0.169	
23.225	0.409	0.192	
23.230	-0.459	0.224	
23.235	0.418	0.195	
23.240	0.890	0.203	
23.245	-0.338	0.255	
23.250	0.027	0.245	
23.255	1.364	0.245	
23.260	0.240	0.337	
23.265	-0.182	0.397	
23.270	1.115	0.399	
23.275	0.473	0.443	
23.280	-0.524	0.453	
23.285	0.136	0.355	
23.290	0.522	0.253	
23.295	-0.541	0.186	
23.300	-0.284	0.080	
23.305	0.822	-0.001	
23.310	-0.185	0.014	
23.315	-0.402	0.021	
23.320	0.832	0.013	
23.325	0.452	0.086	
23.330	-0.384	0.169	
23.335	0.626	0.192	
23.340	1.155	0.262	
23.345	-0.193	0.374	
23.350	0.175	0.404	
23.355	1.370	0.415	
23.360	0.194	0.487	
23.365	-0.188	0.505	
23.370	1.217	0.468	
23.375	0.783	0.504	
23.380	-0.248	0.545	
23.385	0.860	0.518	
23.390	1.343	0.539	
23.395	-0.095	0.609	
23.400	0.357	0.601	
23.405	1.610	0.588	
23.410	0.467	0.661	
23.415	-0.011	0.691	
23.420	1.500	0.668	
23.425	1.107	0.723	
23.430	-0.095	0.783	
23.435	1.048	0.759	
23.440	1.550	0.771	
23.445	0.046	0.828	
23.450	0.452	0.800	
23.455	1.595	0.756	
23.460	0.337	0.778	
23.465	-0.167	0.743	
23.470	1.155	0.642	
23.475	0.667	0.603	
23.480	-0.355	0.571	
23.485	0.464	0.470	
23.490	0.890	0.401	
23.495	-0.370	0.379	
23.500	-0.190	0.297	
23.505	0.863	0.207	
23.510	-0.190	0.187	
23.515	-0.460	0.143	
23.520	0.634	0.073	
23.525	0.244	0.074	
23.530	-0.533	0.088	
23.535	0.178	0.049	
23.540	0.669	0.043	
23.545	-0.451	0.082	
23.550	-0.255	0.063	
23.555	0.790	0.034	
23.560	-0.213	0.065	
23.565	-0.477	0.063	
23.570	0.623	0.025	
23.575	0.259	0.050	
23.580	-0.520	0.081	
23.585	0.192	0.054	
23.590	0.731	0.059	
23.595	-0.402	0.108	
23.600	-0.194	0.100	
23.605	1.002	0.087	
23.610	-0.032	0.147	
23.615	-0.318	0.178	
23.620	0.977	0.174	
23.625	0.565	0.242	
23.630	-0.426	0.308	
23.635	0.324	0.286	
23.640	0.864	0.272	
23.645	-0.352	0.293	
23.650	-0.171	0.249	
23.655	0.984	0.195	
23.660	-0.098	0.211	
23.665	-0.420	0.196	
23.670	0.684	0.141	
23.675	0.250	0.144	
23.680	-0.581	0.146	
23.685	0.056	0.081	
23.690	0.678	0.043	
23.695	-0.398	0.064	
23.700	-0.145	0.050	
23.705	1.222	0.059	
23.710	0.203	0.167	
23.715	-0.262	0.253	
23.720	0.932	0.277	
23.725	0.328	0.326	
23.730	-0.671	0.333	
23.735	-0.236	0.217	
23.740	0.076	0.071	
23.745	-0.714	-0.051	
23.750	-0.509	-0.187	
23.755	0.476	-0.278	
23.760	-0.269	-0.263	
23.765	-0.527	-0.234	
23.770	0.597	-0.210	
23.775	0.360	-0.113	
23.780	-0.489	-0.005	
23.785	0.240	0.031	
23.790	0.863	0.082	
23.795	-0.347	0.167	
23.800	-0.190	0.177	
23.805	0.990	0.161	
23.810	-0.069	0.203	
23.815	-0.394	0.207	
23.820	0.811	0.169	
23.825	0.528	0.200	
23.830	-0.425	0.245	
23.835	0.342	0.223	
23.840	0.945	0.226	
23.845	-0.330	0.274	
23.850	-0.200	0.251	
23.855	0.900	0.201	
23.860	-0.138	0.207	
23.865	-0.474	0.178	
23.870	0.611	0.110	
23.875	0.345	0.106	
23.880	-0.517	0.121	
23.885	0.128	0.080	
23.890	0.730	0.067	
23.895	-0.416	0.102	
23.900	-0.266	0.084	
23.905	0.855	0.055	
23.910	-0.135	0.091	
23.915	-0.483	0.097	
23.920	0.574	0.057	
23.925	0.281	0.071	
23.930	-0.576	0.091	
23.935	-0.034	0.042	
23.940	0.519	0.004	
23.945	-0.541	0.006	
23.950	-0.436	-0.040	
23.955	0.458	-0.099	
23.960	-0.347	-0.104	
23.965	-0.679	-0.129	
23.970	0.201	-0.187	
23.975	-0.014	-0.195	
23.980	-0.695	-0.186	
23.985	-0.170	-0.221	
23.990	0.331	-0.229	
23.995	-0.595	-0.196	
24.000	-0.463	-0.204	
24.005	0.534	-0.216	
24.010	-0.272	-0.167	
24.015	-0.602	-0.140	
24.020	0.382	-0.151	
24.025	0.180	-0.113	
24.030	-0.604	-0.067	
24.035	-0.038	-0.082	
24.040	0.640	-0.075	
24.045	-0.456	-0.022	
24.050	-0.332	-0.020	
24.055	0.758	-0.032	
24.060	-0.173	0.015	
24.065	-0.532	0.030	
24.070	0.499	-0.003	
24.075	0.273	0.016	
24.080	-0.585	0.044	
24.085	-0.035	0.006	
24.090	0.617	-0.015	
24.095	-0.471	0.010	
24.100	-0.365	-0.011	
24.105	0.698	-0.042	
24.110	-0.193	-0.011	
24.115	-0.546	-0.005	
24.120	0.505	-0.037	
24.125	0.333	-0.009	
24.130	-0.553	0.035	
24.135	0.020	0.015	
24.140	0.758	0.014	
24.145	-0.361	0.065	
24.150	-0.179	0.071	
24.155	1.257	0.086	
24.160	0.296	0.199	
24.165	-0.301	0.289	
24.170	0.877	0.306	
24.175	0.435	0.345	
24.180	-0.647	0.352	
24.185	-0.243	0.239	
24.190	0.218	0.097	
24.195	-0.654	-0.012	
24.200	-0.541	-0.138	
24.205	0.434	-0.235	
24.210	-0.295	-0.238	
24.215	-0.639	-0.232	
24.220	0.343	-0.243	
24.225	0.221	-0.191	
24.230	-0.613	-0.123	
24.235	-0.080	-0.116	
24.240	0.634	-0.098	
24.245	-0.451	-0.037	
24.250	-0.370	-0.030	
24.255	0.739	-0.041	
24.260	-0.150	0.005	
24.265	-0.529	0.022	
24.270	0.560	-0.003	
24.275	0.498	0.035	
24.280	-0.440	0.099	
24.285	0.284	0.108	
24.290	1.095	0.148	
24.295	-0.217	0.245	
24.300	-0.119	0.272	
24.305	1.239	0.272	
24.310	0.314	0.345	
24.315	-0.265	0.391	
24.320	1.061	0.380	
24.325	0.935	0.434	
24.330	-0.287	0.502	
24.335	0.472	0.481	
24.340	1.159	0.466	
24.345	-0.237	0.490	
24.350	-0.222	0.433	
24.355	0.948	0.337	
24.360	-0.072	0.302	
24.365	-0.535	0.241	
24.370	0.420	0.134	
24.375	0.250	0.082	
24.380	-0.642	0.054	
24.385	-0.182	-0.026	
24.390	0.437	-0.087	
24.395	-0.569	-0.095	
24.400	-0.540	-0.139	
24.405	0.400	-0.192	
24.410	-0.321	-0.186	
24.415	-0.721	-0.193	
24.420	0.102	-0.237	
24.425	0.035	-0.238	
24.430	-0.717	-0.219	
24.435	-0.248	-0.246	
24.440	0.366	-0.252	
24.445	-0.578	-0.213	
24.450	-0.544	-0.216	
24.455	0.388	-0.237	
24.460	-0.310	-0.207	
24.465	-0.705	-0.197	
24.470	0.137	-0.229	
24.475	0.085	-0.218	
24.480	-0.697	-0.191	
24.485	-0.246	-0.214	
24.490	0.350	-0.224	
24.495	-0.584	-0.194	
24.500	-0.544	-0.206	
24.505	0.405	-0.233	
24.510	-0.297	-0.204	
24.515	-0.708	-0.194	
24.520	0.107	-0.227	
24.525	0.027	-0.223	
24.530	-0.737	-0.206	
24.535	-0.291	-0.240	
24.540	0.281	-0.260	
24.545	-0.630	-0.239	
24.550	-0.610	-0.257	
24.555	0.249	-0.293	
24.560	-0.373	-0.279	
24.565	-0.772	-0.279	
24.570	-0.008	-0.316	
24.575	-0.025	-0.314	
24.580	-0.746	-0.292	
24.585	-0.283	-0.310	
24.590	0.389	-0.304	
24.595	-0.540	-0.247	
24.600	-0.480	-0.228	
24.605	0.699	-0.213	
24.610	-0.019	-0.125	
24.615	-0.469	-0.050	
24.620	0.475	-0.026	
24.625	0.304	0.027	
24.630	-0.705	0.065	
24.635	-0.373	0.004	
24.640	0.033	-0.092	
24.645	-0.758	-0.172	
24.650	-0.753	-0.282	
24.655	0.058	-0.386	
24.660	-0.394	-0.414	
24.665	-0.744	-0.419	
24.670	0.093	-0.427	
24.675	0.107	-0.373	
24.680	-0.691	-0.295	
24.685	-0.234	-0.272	
24.690	0.492	-0.241	
24.695	-0.495	-0.170	
24.700	-0.482	-0.149	
24.705	0.579	-0.151	
24.710	-0.167	-0.101	
24.715	-0.596	-0.074	
24.720	0.362	-0.093	
24.725	0.389	-0.061	
24.730	-0.552	-0.007	
24.735	-0.063	-0.015	
24.740	0.819	-0.010	
24.745	-0.336	0.052	
24.750	-0.330	0.064	
24.755	0.927	0.055	
24.760	0.136	0.117	
24.765	-0.408	0.162	
24.770	0.762	0.158	
24.775	0.819	0.217	
24.780	-0.367	0.299	
24.785	0.217	0.298	
24.790	1.058	0.295	
24.795	-0.237	0.335	
24.800	-0.271	0.308	
24.805	0.919	0.244	
24.810	0.026	0.241	
24.815	-0.523	0.216	
24.820	0.409	0.135	
24.825	0.392	0.103	
24.830	-0.599	0.095	
24.835	-0.199	0.027	
24.840	0.550	-0.032	
24.845	-0.494	-0.036	
24.850	-0.535	-0.076	
24.855	0.457	-0.133	
24.860	-0.229	-0.130	
24.865	-0.679	-0.136	
24.870	0.165	-0.179	
24.875	0.241	-0.172	
24.880	-0.640	-0.137	
24.885	-0.217	-0.152	
24.890	0.582	-0.154	
24.895	-0.462	-0.105	
24.900	-0.488	-0.099	
24.905	0.599	-0.117	
24.910	-0.141	-0.078	
24.915	-0.610	-0.058	
24.920	0.304	-0.086	
24.925	0.397	-0.066	
24.930	-0.540	-0.018	
24.935	-0.069	-0.026	
24.940	0.817	-0.018	
24.945	-0.333	0.045	
24.950	-0.358	0.059	
24.955	0.869	0.046	
24.960	0.090	0.099	
24.965	-0.492	0.133	
24.970	0.490	0.106	
24.975	0.556	0.122	
24.980	-0.491	0.158	
24.985	-0.038	0.125	
24.990	0.863	0.100	
24.995	-0.307	0.132	
25.000	-0.358	0.119	
25.005	0.816	0.081	
25.010	0.017	0.107	
25.015	-0.524	0.115	
25.020	0.423	0.069	
25.025	0.521	0.073	
25.030	-0.509	0.106	
25.035	-0.092	0.075	
25.040	0.796	0.051	
25.045	-0.330	0.083	
25.050	-0.358	0.074	
25.055	0.913	0.049	
25.060	0.295	0.110	
25.065	-0.327	0.173	
25.070	0.799	0.193	
25.075	0.790	0.262	
25.080	-0.460	0.336	
25.085	-0.168	0.297	
25.090	0.521	0.210	
25.095	-0.515	0.145	
25.100	-0.575	0.036	
25.105	0.429	-0.081	
25.110	-0.174	-0.119	
25.115	-0.610	-0.140	
25.120	0.296	-0.175	
25.125	0.449	-0.140	
25.130	-0.523	-0.066	
25.135	-0.100	-0.050	
25.140	0.820	-0.028	
25.145	-0.313	0.045	
25.150	-0.376	0.064	
25.155	0.820	0.050	
25.160	0.087	0.096	
25.165	-0.483	0.125	
25.170	0.513	0.099	
25.175	0.658	0.123	
25.180	-0.425	0.177	
25.185	0.023	0.163	
25.190	0.976	0.154	
25.195	-0.225	0.202	
25.200	-0.291	0.199	
25.205	1.020	0.170	
25.210	0.366	0.223	
25.215	-0.344	0.272	
25.220	0.802	0.269	
25.225	0.984	0.321	
25.230	-0.274	0.402	
25.235	0.281	0.401	
25.240	1.211	0.396	
25.245	-0.118	0.439	
25.250	-0.228	0.414	
25.255	1.055	0.348	
25.260	0.299	0.351	
25.265	-0.431	0.345	
25.270	0.539	0.277	
25.275	0.644	0.252	
25.280	-0.472	0.256	
25.285	-0.113	0.191	
25.290	0.785	0.128	
25.295	-0.324	0.126	
25.300	-0.413	0.089	
25.305	0.712	0.034	
25.310	0.042	0.049	
25.315	-0.524	0.060	
25.320	0.392	0.026	
25.325	0.603	0.045	
25.330	-0.459	0.098	
25.335	-0.046	0.089	
25.340	1.026	0.091	
25.345	-0.138	0.161	
25.350	-0.219	0.190	
25.355	1.147	0.196	
25.360	0.496	0.281	
25.365	-0.320	0.355	
25.370	0.779	0.355	
25.375	0.933	0.390	
25.380	-0.317	0.443	
25.385	0.120	0.406	
25.390	1.074	0.359	
25.395	-0.176	0.366	
25.400	-0.309	0.321	
25.405	0.918	0.246	
25.410	0.252	0.245	
25.415	-0.446	0.245	
25.420	0.482	0.192	
25.425	0.687	0.186	
25.430	-0.440	0.214	
25.435	-0.106	0.175	
25.440	0.802	0.130	
25.445	-0.317	0.139	
25.450	-0.462	0.104	
25.455	0.596	0.038	
25.460	-0.046	0.030	
25.465	-0.599	0.016	
25.470	0.195	-0.042	
25.475	0.420	-0.053	
25.480	-0.555	-0.027	
25.485	-0.217	-0.051	
25.490	0.675	-0.067	
25.495	-0.346	-0.027	
25.500	-0.471	-0.025	
25.505	0.640	-0.049	
25.510	0.111	-0.009	
25.515	-0.445	0.031	
25.520	0.739	0.044	
25.525	1.138	0.142	
25.530	-0.202	0.294	
25.535	0.304	0.362	
25.540	1.165	0.401	
25.545	-0.194	0.459	
25.550	-0.417	0.419	
25.555	0.683	0.307	
25.560	0.081	0.242	
25.565	-0.512	0.181	
25.570	0.437	0.094	
25.575	0.744	0.085	
25.580	-0.411	0.135	
25.585	-0.087	0.127	
25.590	0.897	0.114	
25.595	-0.257	0.153	
25.600	-0.414	0.143	
25.605	0.745	0.096	
25.610	0.133	0.111	
25.615	-0.529	0.120	
25.620	0.299	0.073	
25.625	0.551	0.066	
25.630	-0.527	0.090	
25.635	-0.222	0.052	
25.640	0.722	0.012	
25.645	-0.318	0.032	
25.650	-0.469	0.018	
25.655	0.680	-0.018	
25.660	0.160	0.015	
25.665	-0.498	0.052	
25.670	0.437	0.042	
25.675	0.793	0.083	
25.680	-0.381	0.164	
25.685	-0.054	0.172	
25.690	1.023	0.169	
25.695	-0.168	0.221	
25.700	-0.358	0.220	
25.705	0.832	0.177	
25.710	0.220	0.194	
25.715	-0.514	0.201	
25.720	0.307	0.144	
25.725	0.577	0.121	
25.730	-0.529	0.130	
25.735	-0.269	0.076	
25.740	0.563	0.012	
25.745	-0.428	-0.002	
25.750	-0.617	-0.050	
25.755	0.310	-0.127	
25.760	-0.179	-0.150	
25.765	-0.743	-0.170	
25.770	-0.104	-0.230	
25.775	0.180	-0.253	
25.780	-0.692	-0.237	
25.785	-0.422	-0.261	
25.790	0.385	-0.278	
25.795	-0.471	-0.240	
25.800	-0.639	-0.233	
25.805	0.304	-0.253	
25.810	-0.156	-0.225	
25.815	-0.723	-0.203	
25.820	-0.071	-0.232	
25.825	0.266	-0.231	
25.830	-0.645	-0.197	
25.835	-0.373	-0.208	
25.840	0.475	-0.217	
25.845	-0.426	-0.175	
25.850	-0.611	-0.167	
25.855	0.372	-0.192	
25.860	-0.100	-0.167	
25.865	-0.663	-0.146	
25.870	0.036	-0.173	
25.875	0.414	-0.163	
25.880	-0.588	-0.115	
25.885	-0.333	-0.121	
25.890	0.536	-0.134	
25.895	-0.430	-0.102	
25.900	-0.643	-0.112	
25.905	0.288	-0.162	
25.910	-0.159	-0.167	
25.915	-0.732	-0.174	
25.920	-0.092	-0.224	
25.925	0.266	-0.238	
25.930	-0.666	-0.211	
25.935	-0.413	-0.227	
25.940	0.458	-0.241	
25.945	-0.434	-0.200	
25.950	-0.637	-0.191	
25.955	0.339	-0.215	
25.960	-0.083	-0.189	
25.965	-0.650	-0.163	
25.970	0.197	-0.175	
25.975	0.793	-0.124	
25.980	-0.332	-0.009	
25.985	-0.037	0.053	
25.990	1.029	0.103	
25.995	-0.263	0.190	
26.000	-0.625	0.192	
26.005	0.122	0.093	
26.010	-0.286	-0.003	
26.015	-0.856	-0.110	
26.020	-0.231	-0.246	
26.025	0.171	-0.320	
26.030	-0.660	-0.322	
26.035	-0.382	-0.335	
26.040	0.617	-0.317	
26.045	-0.315	-0.224	
26.050	-0.506	-0.162	
26.055	0.654	-0.132	
26.060	0.232	-0.045	
26.065	-0.524	0.033	
26.070	0.295	0.041	
26.075	0.738	0.075	
26.080	-0.440	0.139	
26.085	-0.200	0.129	
26.090	0.906	0.103	
26.095	-0.188	0.137	
26.100	-0.423	0.133	
26.105	0.805	0.096	
26.110	0.409	0.134	
26.115	-0.440	0.182	
26.120	0.470	0.172	
26.125	0.947	0.202	
26.130	-0.309	0.275	
26.135	-0.013	0.274	
26.140	1.175	0.262	
26.145	-0.026	0.314	
26.150	-0.324	0.319	
26.155	0.955	0.275	
26.160	0.473	0.298	
26.165	-0.462	0.320	
26.170	0.353	0.268	
26.175	0.779	0.240	
26.180	-0.449	0.249	
26.185	-0.255	0.190	
26.190	0.731	0.116	
26.195	-0.317	0.099	
26.200	-0.604	0.049	
26.205	0.347	-0.039	
26.210	-0.084	-0.075	
26.215	-0.727	-0.104	
26.220	-0.150	-0.177	
26.225	0.244	-0.216	
26.230	-0.692	-0.212	
26.235	-0.489	-0.246	
26.240	0.353	-0.278	
26.245	-0.459	-0.254	
26.250	-0.691	-0.253	
26.255	0.255	-0.279	
26.260	-0.109	-0.254	
26.265	-0.740	-0.227	
26.270	-0.148	-0.252	
26.275	0.325	-0.251	
26.280	-0.625	-0.209	
26.285	-0.419	-0.212	
26.290	0.518	-0.218	
26.295	-0.370	-0.170	
26.300	-0.627	-0.154	
26.305	0.398	-0.174	
26.310	0.033	-0.142	
26.315	-0.650	-0.109	
26.320	0.003	-0.131	
26.325	0.518	-0.123	
26.330	-0.538	-0.074	
26.335	-0.336	-0.077	
26.340	0.721	-0.087	
26.345	-0.284	-0.038	
26.350	-0.576	-0.027	
26.355	0.452	-0.061	
26.360	0.061	-0.049	
26.365	-0.653	-0.038	
26.370	-0.026	-0.084	
26.375	0.508	-0.100	
26.380	-0.553	-0.069	
26.385	-0.382	-0.087	
26.390	0.574	-0.114	
26.395	-0.335	-0.086	
26.400	-0.601	-0.089	
26.405	0.463	-0.123	
26.410	0.131	-0.096	
26.415	-0.599	-0.060	
26.420	0.189	-0.071	
26.425	0.927	-0.031	
26.430	-0.298	0.075	
26.435	-0.122	0.123	
26.440	0.997	0.145	
26.445	-0.196	0.206	
26.450	-0.595	0.199	
26.455	0.269	0.107	
26.460	-0.100	0.035	
26.465	-0.755	-0.039	
26.470	-0.161	-0.149	
26.475	0.469	-0.204	
26.480	-0.532	-0.182	
26.485	-0.335	-0.181	
26.490	0.788	-0.166	
26.495	-0.203	-0.080	
26.500	-0.503	-0.029	
26.505	0.678	-0.023	
26.510	0.389	0.042	
26.515	-0.506	0.110	
26.520	0.311	0.108	
26.525	0.933	0.136	
26.530	-0.356	0.209	
26.535	-0.185	0.208	
26.540	1.058	0.184	
26.545	-0.046	0.225	
26.550	-0.391	0.231	
26.555	0.884	0.193	
26.560	0.625	0.232	
26.565	-0.391	0.288	
26.570	0.513	0.279	
26.575	1.187	0.307	
26.580	-0.184	0.389	
26.585	0.105	0.400	
26.590	1.460	0.400	
26.595	0.371	0.483	
26.600	-0.170	0.529	
26.605	1.286	0.514	
26.610	0.997	0.569	
26.615	-0.236	0.631	
26.620	0.704	0.602	
26.625	1.278	0.590	
26.630	-0.210	0.616	
26.635	-0.049	0.552	
26.640	1.223	0.461	
26.645	0.067	0.445	
26.650	-0.376	0.400	
26.655	0.825	0.311	
26.660	0.505	0.292	
26.665	-0.488	0.290	
26.670	0.221	0.225	
26.675	0.848	0.188	
26.680	-0.388	0.206	
26.685	-0.262	0.168	
26.690	0.901	0.118	
26.695	-0.107	0.137	
26.700	-0.456	0.132	
26.705	0.724	0.092	
26.710	0.489	0.123	
26.715	-0.472	0.173	
26.720	0.282	0.157	
26.725	0.941	0.168	
26.730	-0.327	0.227	
26.735	-0.182	0.219	
26.740	1.086	0.193	
26.745	0.042	0.238	
26.750	-0.368	0.254	
26.755	0.898	0.224	
26.760	0.684	0.265	
26.765	-0.390	0.323	
26.770	0.429	0.307	
26.775	1.132	0.317	
26.780	-0.225	0.377	
26.785	-0.098	0.364	
26.790	1.197	0.326	
26.795	0.114	0.358	
26.800	-0.364	0.357	
26.805	0.854	0.302	
26.810	0.614	0.309	
26.815	-0.413	0.333	
26.820	0.391	0.291	
26.825	1.101	0.285	
26.830	-0.239	0.338	
26.835	-0.112	0.325	
26.840	1.199	0.293	
26.845	0.160	0.336	
26.850	-0.317	0.350	
26.855	0.997	0.317	
26.860	0.802	0.357	
26.865	-0.315	0.416	
26.870	0.602	0.404	
26.875	1.395	0.429	
26.880	0.053	0.521	
26.885	0.385	0.557	
26.890	1.721	0.589	
26.895	0.617	0.701	
26.900	-0.177	0.755	
26.905	0.993	0.700	
26.910	0.602	0.655	
26.915	-0.478	0.591	
26.920	0.130	0.440	
26.925	0.838	0.313	
26.930	-0.347	0.261	
26.935	-0.210	0.183	
26.940	1.081	0.126	
26.945	0.110	0.170	
26.950	-0.339	0.204	
26.955	0.953	0.201	
26.960	0.799	0.272	
26.965	-0.330	0.359	
26.970	0.507	0.365	
26.975	1.228	0.389	
26.980	-0.177	0.457	
26.985	-0.078	0.443	
26.990	1.271	0.398	
26.995	0.295	0.429	
27.000	-0.248	0.440	
27.005	1.116	0.406	
27.010	0.979	0.451	
27.015	-0.234	0.521	
27.020	0.667	0.514	
27.025	1.422	0.532	
27.030	-0.017	0.604	
27.035	0.175	0.600	
27.040	1.586	0.576	
27.045	0.615	0.640	
27.050	-0.100	0.679	
27.055	1.343	0.654	
27.060	1.185	0.695	
27.065	-0.159	0.751	
27.070	0.728	0.713	
27.075	1.439	0.690	
27.080	-0.048	0.715	
27.085	0.021	0.658	
27.090	1.309	0.569	
27.095	0.244	0.553	
27.100	-0.327	0.511	
27.105	0.872	0.417	
27.110	0.695	0.392	
27.115	-0.404	0.393	
27.120	0.253	0.327	
27.125	0.968	0.284	
27.130	-0.306	0.297	
27.135	-0.254	0.254	
27.140	0.921	0.190	
27.145	-0.042	0.195	
27.150	-0.453	0.180	
27.155	0.657	0.125	
27.160	0.547	0.140	
27.165	-0.457	0.182	
27.170	0.151	0.158	
27.175	0.918	0.153	
27.180	-0.306	0.200	
27.185	-0.243	0.189	
27.190	0.971	0.157	
27.195	0.035	0.192	
27.200	-0.414	0.203	
27.205	0.722	0.168	
27.210	0.618	0.195	
27.215	-0.426	0.244	
27.220	0.229	0.222	
27.225	1.008	0.219	
27.230	-0.266	0.268	
27.235	-0.210	0.255	
27.240	1.049	0.218	
27.245	0.084	0.251	
27.250	-0.407	0.258	
27.255	0.690	0.212	
27.260	0.539	0.220	
27.265	-0.492	0.242	
27.270	0.015	0.189	
27.275	0.776	0.142	
27.280	-0.382	0.147	
27.285	-0.344	0.108	
27.290	0.771	0.054	
27.295	-0.113	0.068	
27.300	-0.541	0.063	
27.305	0.437	0.013	
27.310	0.372	0.019	
27.315	-0.537	0.048	
27.320	-0.013	0.021	
27.325	0.822	0.015	
27.330	-0.292	0.072	
27.335	-0.174	0.089	
27.340	1.156	0.105	
27.345	0.188	0.201	
27.350	-0.390	0.263	
27.355	0.602	0.246	
27.360	0.342	0.245	
27.365	-0.642	0.230	
27.370	-0.229	0.125	
27.375	0.391	0.018	
27.380	-0.544	-0.037	
27.385	-0.486	-0.113	
27.390	0.565	-0.173	
27.395	-0.184	-0.149	
27.400	-0.584	-0.128	
27.405	0.385	-0.138	
27.410	0.343	-0.094	
27.415	-0.562	-0.031	
27.420	-0.074	-0.034	
27.425	0.710	-0.029	
27.430	-0.393	0.023	
27.435	-0.362	0.024	
27.440	0.738	0.002	
27.445	-0.107	0.038	
27.450	-0.535	0.048	
27.455	0.458	0.011	
27.460	0.441	0.028	
27.465	-0.514	0.070	
27.470	-0.022	0.050	
27.475	0.800	0.042	
27.480	-0.338	0.087	
27.485	-0.315	0.085	
27.490	0.863	0.063	
27.495	0.024	0.107	
27.500	-0.446	0.130	
27.505	0.640	0.107	
27.510	0.621	0.143	
27.515	-0.453	0.200	
27.520	0.050	0.181	
27.525	0.831	0.160	
27.530	-0.358	0.183	
27.535	-0.385	0.148	
27.540	0.638	0.081	
27.545	-0.187	0.065	
27.550	-0.636	0.029	
27.555	0.183	-0.054	
27.560	0.139	-0.090	
27.565	-0.698	-0.102	
27.570	-0.281	-0.161	
27.575	0.299	-0.204	
27.580	-0.622	-0.202	
27.585	-0.651	-0.237	
27.590	0.099	-0.295	
27.595	-0.433	-0.310	
27.600	-0.863	-0.335	
27.605	-0.162	-0.393	
27.610	-0.148	-0.410	
27.615	-0.853	-0.404	
27.620	-0.446	-0.432	
27.625	0.046	-0.445	
27.630	-0.705	-0.418	
27.635	-0.703	-0.423	
27.640	0.068	-0.441	
27.645	-0.425	-0.415	
27.650	-0.824	-0.399	
27.655	-0.101	-0.418	
27.660	-0.077	-0.401	
27.665	-0.786	-0.367	
27.670	-0.370	-0.375	
27.675	0.236	-0.370	
27.680	-0.604	-0.322	
27.685	-0.614	-0.312	
27.690	0.307	-0.320	
27.695	-0.312	-0.279	
27.700	-0.761	-0.258	
27.705	-0.058	-0.287	
27.710	-0.054	-0.291	
27.715	-0.787	-0.283	
27.720	-0.385	-0.320	
27.725	0.181	-0.343	
27.730	-0.651	-0.322	
27.735	-0.685	-0.335	
27.740	0.154	-0.366	
27.745	-0.371	-0.348	
27.750	-0.810	-0.340	
27.755	-0.097	-0.369	
27.760	-0.054	-0.364	
27.765	-0.772	-0.340	
27.770	-0.353	-0.355	
27.775	0.356	-0.349	
27.780	-0.504	-0.288	
27.785	-0.462	-0.256	
27.790	0.710	-0.227	
27.795	-0.097	-0.131	
27.800	-0.596	-0.063	
27.805	0.204	-0.068	
27.810	0.062	-0.064	
27.815	-0.811	-0.072	
27.820	-0.468	-0.156	
27.825	0.049	-0.247	
27.830	-0.685	-0.295	
27.835	-0.695	-0.357	
27.840	0.203	-0.408	
27.845	-0.326	-0.386	
27.850	-0.767	-0.360	
27.855	-0.005	-0.367	
27.860	0.113	-0.333	
27.865	-0.702	-0.277	
27.870	-0.297	-0.272	
27.875	0.457	-0.258	
27.880	-0.506	-0.198	
27.885	-0.552	-0.183	
27.890	0.472	-0.195	
27.895	-0.187	-0.155	
27.900	-0.656	-0.132	
27.905	0.223	-0.156	
27.910	0.357	-0.132	
27.915	-0.595	-0.080	
27.920	-0.179	-0.086	
27.925	0.724	-0.084	
27.930	-0.367	-0.026	
27.935	-0.408	-0.012	
27.940	0.820	-0.019	
27.945	0.091	0.041	
27.950	-0.475	0.088	
27.955	0.594	0.083	
27.960	0.741	0.132	
27.965	-0.428	0.207	
27.970	0.020	0.202	
27.975	0.953	0.188	
27.980	-0.277	0.223	
27.985	-0.371	0.200	
27.990	0.791	0.141	
27.995	-0.019	0.141	
28.000	-0.588	0.123	
28.005	0.282	0.049	
28.010	0.402	0.021	
28.015	-0.599	0.026	
28.020	-0.228	-0.024	
28.025	0.577	-0.066	
28.030	-0.468	-0.053	
28.035	-0.550	-0.079	
28.040	0.464	-0.128	
28.045	-0.182	-0.120	
28.050	-0.683	-0.120	
28.055	0.127	-0.164	
28.060	0.293	-0.162	
28.065	-0.647	-0.127	
28.070	-0.266	-0.146	
28.075	0.571	-0.156	
28.080	-0.443	-0.112	
28.085	-0.517	-0.108	
28.090	0.585	-0.128	
28.095	-0.087	-0.087	
28.100	-0.610	-0.061	
28.105	0.295	-0.083	
28.110	0.492	-0.057	
28.115	-0.547	-0.000	
28.120	-0.162	-0.007	
28.125	0.779	-0.014	
28.130	-0.347	0.034	
28.135	-0.422	0.036	
28.140	0.768	0.010	
28.145	0.056	0.050	
28.150	-0.544	0.076	
28.155	0.372	0.044	
28.160	0.519	0.054	
28.165	-0.552	0.088	
28.170	-0.194	0.053	
28.175	0.721	0.016	
28.180	-0.373	0.035	
28.185	-0.475	0.015	
28.190	0.667	-0.028	
28.195	-0.028	-0.006	
28.200	-0.590	0.007	
28.205	0.319	-0.029	
28.210	0.542	-0.014	
28.215	-0.518	0.037	
28.220	-0.124	0.027	
28.225	0.962	0.026	
28.230	-0.165	0.096	
28.235	-0.194	0.133	
28.240	1.321	0.162	
28.245	0.579	0.286	
28.250	-0.352	0.392	
28.255	0.571	0.393	
28.260	0.548	0.382	
28.265	-0.614	0.355	
28.270	-0.309	0.231	
28.275	0.519	0.094	
28.280	-0.449	0.022	
28.285	-0.532	-0.059	
28.290	0.617	-0.130	
28.295	-0.014	-0.109	
28.300	-0.579	-0.078	
28.305	0.353	-0.086	
28.310	0.606	-0.041	
28.315	-0.506	0.038	
28.320	-0.132	0.045	
28.325	0.926	0.047	
28.330	-0.257	0.107	
28.335	-0.370	0.119	
28.340	0.945	0.100	
28.345	0.325	0.158	
28.350	-0.431	0.211	
28.355	0.625	0.202	
28.360	0.927	0.241	
28.365	-0.332	0.315	
28.370	0.188	0.314	
28.375	1.326	0.318	
28.380	0.059	0.396	
28.385	-0.104	0.423	
28.390	1.466	0.419	
28.395	0.893	0.511	
28.400	-0.138	0.606	
28.405	1.197	0.625	
28.410	1.488	0.691	
28.415	-0.068	0.786	
28.420	0.545	0.775	
28.425	1.582	0.747	
28.430	0.191	0.775	
28.435	-0.107	0.732	
28.440	1.298	0.634	
28.445	0.600	0.612	
28.450	-0.342	0.587	
28.455	0.684	0.494	
28.460	0.909	0.447	
28.465	-0.388	0.438	
28.470	-0.060	0.357	
28.475	0.991	0.273	
28.480	-0.228	0.260	
28.485	-0.391	0.212	
28.490	0.852	0.142	
28.495	0.272	0.154	
28.500	-0.456	0.175	
28.505	0.554	0.149	
28.510	0.887	0.180	
28.515	-0.358	0.253	
28.520	0.030	0.251	
28.525	1.158	0.244	
28.530	-0.103	0.299	
28.535	-0.275	0.302	
28.540	1.107	0.269	
28.545	0.512	0.316	
28.550	-0.368	0.362	
28.555	0.698	0.340	
28.560	1.029	0.361	
28.565	-0.292	0.418	
28.570	0.154	0.397	
28.575	1.303	0.374	
28.580	-0.008	0.421	
28.585	-0.237	0.415	
28.590	1.132	0.365	
28.595	0.508	0.390	
28.600	-0.408	0.411	
28.605	0.544	0.356	
28.610	0.842	0.334	
28.615	-0.402	0.345	
28.620	-0.083	0.285	
28.625	0.993	0.222	
28.630	-0.203	0.229	
28.635	-0.385	0.199	
28.640	0.861	0.143	
28.645	0.284	0.163	
28.650	-0.488	0.187	
28.655	0.444	0.152	
28.660	0.823	0.164	
28.665	-0.399	0.217	
28.670	-0.055	0.202	
28.675	1.193	0.189	
28.680	0.104	0.260	
28.685	-0.124	0.306	
28.690	1.280	0.324	
28.695	0.565	0.412	
28.700	-0.469	0.469	
28.705	0.206	0.402	
28.710	0.431	0.313	
28.715	-0.611	0.232	
28.720	-0.327	0.098	
28.725	0.621	-0.016	
28.730	-0.336	-0.042	
28.735	-0.489	-0.072	
28.740	0.707	-0.102	
28.745	0.189	-0.046	
28.750	-0.521	0.016	
28.755	0.386	0.022	
28.760	0.820	0.070	
28.765	-0.405	0.156	
28.770	-0.130	0.164	
28.775	0.959	0.151	
28.780	-0.216	0.189	
28.785	-0.445	0.177	
28.790	0.725	0.121	
28.795	0.229	0.128	
28.800	-0.518	0.138	
28.805	0.386	0.099	
28.810	0.867	0.113	
28.815	-0.371	0.179	
28.820	-0.069	0.182	
28.825	1.139	0.178	
28.830	-0.054	0.243	
28.835	-0.301	0.264	
28.840	1.016	0.242	
28.845	0.478	0.288	
28.850	-0.436	0.329	
28.855	0.443	0.290	
28.860	0.843	0.278	
28.865	-0.401	0.300	
28.870	-0.121	0.252	
28.875	1.092	0.202	
28.880	-0.057	0.233	
28.885	-0.278	0.238	
28.890	1.094	0.218	
28.895	0.606	0.284	
28.900	-0.390	0.353	
28.905	0.461	0.335	
28.910	0.811	0.326	
28.915	-0.440	0.337	
28.920	-0.208	0.268	
28.925	0.835	0.183	
28.930	-0.231	0.165	
28.935	-0.445	0.122	
28.940	0.823	0.065	
28.945	0.481	0.102	
28.950	-0.355	0.168	
28.955	0.695	0.191	
28.960	1.184	0.269	
28.965	-0.202	0.390	
28.970	0.168	0.421	
28.975	1.382	0.429	
28.980	0.154	0.496	
28.985	-0.205	0.506	
28.990	1.149	0.458	
28.995	0.623	0.476	
29.000	-0.384	0.489	
29.005	0.518	0.423	
29.010	0.996	0.388	
29.015	-0.286	0.402	
29.020	-0.017	0.353	
29.025	1.170	0.304	
29.030	-0.026	0.329	
29.035	-0.320	0.317	
29.040	0.874	0.263	
29.045	0.391	0.271	
29.050	-0.480	0.280	
29.055	0.266	0.218	
29.060	0.718	0.183	
29.065	-0.443	0.190	
29.070	-0.242	0.140	
29.075	0.751	0.081	
29.080	-0.254	0.084	
29.085	-0.503	0.057	
29.090	0.589	0.003	
29.095	0.172	0.015	
29.100	-0.559	0.035	
29.105	0.168	0.003	
29.110	0.707	0.009	
