Time	Potential	EKG	Unnamed: 3
0.0	0.108	0.004927806054230936	
0.005	-0.037	0.014040154892334327	
0.01	-0.005	0.01866361920434976	
0.015	-0.005	0.014586617353141186	
0.02	-0.046	0.005926665657933353	
0.025	-0.040	-0.003949868241594005	
0.03	0.079	-0.009897087023627705	
0.035	0.056	-0.005726038041640917	
0.04	-0.014	0.00731432509711119	
0.045	0.124	0.020190881535497796	
0.05	0.075	0.035967062749537634	
0.055	0.024	0.04978128013700388	
0.06	0.197	0.06479871707909685	
0.065	0.189	0.08677282127524588	
0.07	0.079	0.11069843787747412	
0.075	0.097	0.12399966889950169	
0.08	0.159	0.1283187802878788	
0.085	0.050	0.126172064437718	
0.09	0.024	0.11515366216442964	
0.095	0.185	0.10436479191814457	
0.1	0.050	0.0970286783065086	
0.105	-0.028	0.08759270316003231	
0.11	-0.006	0.06882060789785928	
0.115	0.001	0.04391098962160464	
0.12	-0.020	0.02061037669387567	
0.125	-0.045	0.002943372719078632	
0.13	0.000	-0.00954879493421898	
0.135	0.053	-0.016831294230763315	
0.14	0.304	0.003072684118071141	
0.145	0.771	0.08050483906057682	
0.15	0.771	0.22212895976134006	
0.155	0.689	0.3884416325309463	
0.16	0.748	0.534778736761556	
0.165	0.790	0.645034456850998	
0.17	0.799	0.7215393754822635	
0.175	0.811	0.7758129304938239	
0.18	1.016	0.8195653575816736	
0.185	0.952	0.861236886583902	
0.19	0.806	0.8958850492919909	
0.195	0.936	0.9114132353162065	
0.2	0.828	0.9102256110260357	
0.205	0.761	0.8954307801195932	
0.21	0.803	0.8707171786212885	
0.215	0.748	0.8411213889377094	
0.22	0.615	0.8035923691460507	
0.225	0.490	0.7527178837455075	
0.23	0.467	0.685548063527452	
0.235	0.363	0.605318753379977	
0.24	0.192	0.5188629399804063	
0.245	0.183	0.42536464264337104	
0.25	0.116	0.3302940382090278	
0.255	0.052	0.24347083082181348	
0.26	0.065	0.1706686218621693	
0.265	0.096	0.11614176177367905	
0.27	0.062	0.0806609443166262	
0.275	0.032	0.06171022756653841	
0.28	0.128	0.05352994416996393	
0.285	0.081	0.054359012171232936	
0.29	-0.019	0.057876351034432366	
0.295	0.027	0.05432159834865892	
0.3	0.049	0.0442875556171403	
0.305	0.091	0.04051285298847012	
0.31	0.172	0.05166403618043838	
0.315	-0.009	0.06708438310973935	
0.32	-0.277	0.05462421474742479	
0.325	-0.482	-0.008316755710665136	
0.33	-0.549	-0.11850971445321037	
0.335	-0.495	-0.24963527361567275	
0.34	-0.385	-0.3560608704130453	
0.345	-0.193	-0.40761852766844764	
0.35	-0.089	-0.39969416536112656	
0.355	-0.122	-0.34550470085976404	
0.36	-0.086	-0.2723464358608657	
0.365	-0.046	-0.20190272961122527	
0.37	-0.023	-0.14135539227206964	
0.375	-0.058	-0.09127401735744448	
0.38	-0.069	-0.05748920351174134	
0.385	-0.054	-0.044699921524418595	
0.39	0.055	-0.03510013437921851	
0.395	0.255	-0.007575732467702148	
0.4	0.301	0.04527160958681789	
0.405	0.156	0.10840936146984777	
0.41	0.175	0.1586914540790063	
0.415	0.273	0.18913934892241477	
0.42	0.246	0.2115794130239155	
0.425	0.175	0.22873738361143642	
0.43	0.229	0.23457911685859562	
0.435	0.195	0.22925164114101557	
0.44	0.128	0.21987157836361515	
0.445	0.385	0.21547397697548873	
0.45	0.334	0.22823461654471347	
0.455	0.230	0.25039029032269117	
0.46	0.287	0.26776813212876155	
0.465	0.246	0.2751107617215989	
0.47	0.107	0.2655111797305849	
0.475	-0.019	0.2347904976486882	
0.48	-0.046	0.17858054471040075	
0.485	-0.136	0.10318473362361633	
0.49	-0.174	0.025925790488286155	
0.495	-0.081	-0.0414873299857172	
0.5	-0.161	-0.09184940506090863	
0.505	-0.246	-0.13059133220302233	
0.51	-0.219	-0.1631413633830322	
0.515	-0.251	-0.19294322895023802	
0.52	-0.300	-0.22152233322928533	
0.525	-0.278	-0.24409442446316573	
0.53	-0.236	-0.25940176888172856	
0.535	-0.286	-0.269900639176515	
0.54	-0.352	-0.2780356255419075	
0.545	-0.271	-0.2864465568030474	
0.55	-0.266	-0.29393561642859495	
0.555	-0.295	-0.2945907910326934	
0.56	-0.252	-0.289051042424839	
0.565	-0.229	-0.2809953212142214	
0.57	-0.271	-0.27358984810384523	
0.575	-0.272	-0.26400678440010017	
0.58	-0.171	-0.2563937453105163	
0.585	-0.217	-0.2460078003024199	
0.59	-0.283	-0.23597892146893998	
0.595	-0.239	-0.23137141697735691	
0.6	-0.329	-0.240066025017586	
0.605	-0.408	-0.26062314856365165	
0.61	-0.390	-0.2899157221480946	
0.615	-0.448	-0.32805863870363994	
0.62	-0.546	-0.37270648549674895	
0.625	-0.590	-0.4218761062133164	
0.63	-0.642	-0.47635681621742787	
0.635	-0.805	-0.5421843894631939	
0.64	-0.853	-0.6159321575844209	
0.645	-0.773	-0.6882069907787124	
0.65	-0.793	-0.747166874206755	
0.655	-0.839	-0.7856800715548791	
0.66	-0.767	-0.8057381892434498	
0.665	-0.737	-0.8120743537413853	
0.67	-0.714	-0.803846481279767	
0.675	-0.625	-0.7777421197337986	
0.68	-0.453	-0.7312566521601902	
0.685	-0.384	-0.6663363096954983	
0.69	-0.324	-0.5798953063837817	
0.695	-0.168	-0.484053073609677	
0.7	-0.333	-0.39633372092191305	
0.705	-0.674	-0.3508304943015409	
0.71	-0.746	-0.37161057015732574	
0.715	-0.781	-0.4511223003590124	
0.72	-0.781	-0.5520007067435264	
0.725	-0.622	-0.6325847415558448	
0.73	-0.338	-0.6651555962507686	
0.735	-0.262	-0.6334953151492051	
0.74	-0.171	-0.5468289632790531	
0.745	0.124	-0.42289973639801215	
0.75	0.079	-0.28047140195009534	
0.755	0.157	-0.13882753528507435	
0.76	0.698	0.010639162280805763	
0.765	0.583	0.17884261385732028	
0.77	0.539	0.3368190377568955	
0.775	0.324	0.44744169621398094	
0.78	0.175	0.4827903452824012	
0.785	0.042	0.44031580109082824	
0.79	0.206	0.3611879799376154	
0.795	0.759	0.3142432589462594	
0.8	0.515	0.3335456185553718	
0.805	-0.005	0.3630789318310019	
0.81	-0.055	0.3345243580082596	
0.815	-0.058	0.2488490511670748	
0.82	-0.055	0.1479632821333484	
0.825	0.038	0.06846663584331278	
0.83	0.322	0.03277124092907924	
0.835	0.453	0.05853592549782655	
0.84	0.652	0.14827842506907646	
0.845	0.796	0.2859576930589769	
0.85	0.524	0.42449609925859283	
0.855	0.493	0.5223245216444875	
0.86	0.661	0.5774512775143228	
0.865	0.385	0.5977032238295132	
0.87	0.227	0.571091438579385	
0.875	0.359	0.5114059842797688	
0.88	0.264	0.443604167608632	
0.885	0.020	0.366648250678445	
0.89	-0.103	0.27221315880370567	
0.895	-0.081	0.16574811884945273	
0.9	-0.132	0.06174152527300055	
0.905	-0.203	-0.026511595457858354	
0.91	-0.185	-0.09583760260155168	
0.915	-0.148	-0.14719416940066138	
0.92	-0.113	-0.17456006337784769	
0.925	-0.068	-0.1738234354517392	
0.93	-0.043	-0.15356220183300281	
0.935	-0.097	-0.13000569906220444	
0.94	-0.028	-0.10581343690027545	
0.945	0.351	-0.06252941110594601	
0.95	0.791	0.035017073928982845	
0.955	1.063	0.21469431377491832	
0.96	1.188	0.4548444766487205	
0.965	1.373	0.7107907371443182	
0.97	1.393	0.9486810156429326	
0.975	1.055	1.1339366543430454	
0.98	0.533	1.2021608151676277	
0.985	-0.014	1.109113238846497	
0.99	-0.217	0.8721520994783387	
0.995	-0.298	0.5622732479180037	
1.0	-0.362	0.25009269890801	
1.005	-0.349	-0.013240910480081833	
1.01	-0.177	-0.1952383376635282	
1.015	-0.239	-0.2930814796551389	
1.02	-0.375	-0.3362078660539429	
1.025	-0.422	-0.35918434610062105	
1.03	-0.411	-0.3776938047153542	
1.035	-0.423	-0.3965725969650361	
1.04	-0.448	-0.4109596954307144	
1.045	-0.396	-0.4198661246718506	
1.05	-0.381	-0.42269274554568337	
1.055	-0.407	-0.41929822834377484	
1.06	-0.396	-0.41154642683869347	
1.065	-0.371	-0.4039673941625377	
1.07	-0.309	-0.39505404300557306	
1.075	0.151	-0.35438535527908854	
1.08	0.692	-0.23660272414441053	
1.085	0.249	-0.4109596954307144	
1.09	-0.419	-0.4109596954307144	
1.095	-0.666	-0.4039673941625377	
1.1	-0.776	-0.0573875926947499	
1.105	-0.761	-0.2521733834185892	
1.11	-0.636	-0.4339183551192002	
1.115	-0.453	-0.5578126476494436	
1.12	-0.330	-0.6046208711106966	
1.125	-0.294	-0.5797081009672962	
1.13	-0.199	-0.5109340246553298	
1.135	-0.097	-0.41987137845413636	
1.14	-0.087	-0.3211070209730259	
1.145	-0.043	-0.22551344249401067	
1.15	-0.055	-0.14820620861876482	
1.155	0.038	-0.08995848634212861	
1.16	0.298	-0.0282527183102679	
1.165	0.174	0.0451272578882199	
1.17	0.042	0.102610336337598	
1.175	0.084	0.12801587373594853	
1.18	0.146	0.13490661794254183	
1.185	0.461	0.1515192573310677	
1.19	0.725	0.2128498215054805	
1.195	0.793	0.3302015866584688	
1.2	0.735	0.46811718311277	
1.205	0.545	0.576107745574536	
1.21	0.453	0.6292498301974383	
1.215	0.366	0.6252757790774286	
1.22	0.333	0.5759838910886842	
1.225	0.290	0.5056338461609657	
1.23	0.496	0.44482332049821277	
1.235	1.179	0.4460398885323891	
1.24	1.042	0.5416834691534725	
1.245	0.680	0.6727816042480002	
1.25	0.863	0.7644215085999677	
1.255	0.594	0.8042564765804969	
1.26	0.321	0.7859207977196022	
1.265	0.061	0.6933269283080176	
1.27	-0.009	0.5381620644819747	
1.275	-0.043	0.36149830777766107	
1.28	0.501	0.22884839799103562	
1.285	0.710	0.19816746133953647	
1.29	0.192	0.24154823625169125	
1.295	-0.048	0.2686976035805998	
1.3	-0.122	0.23251891492797494	
1.305	-0.213	0.14527828676701401	
1.31	-0.194	0.041920309486120404	
1.315	-0.161	-0.04859099552727421	
1.32	-0.086	-0.11476317259222231	
1.325	-0.063	-0.14549688940470007	
1.33	0.421	-0.12122743453820889	
1.335	0.702	-0.018870380110092264	
1.34	0.311	0.13063204116465643	
1.345	0.108	0.24868129903919423	
1.35	-0.003	0.2863886028502892	
1.355	-0.031	0.25234337750004804	
1.36	-0.046	0.1840109841915638	
1.365	-0.058	0.11124587064862528	
1.37	-0.083	0.04119891494689269	
1.375	-0.104	-0.017322006275252187	
1.38	-0.112	-0.05834795487202477	
1.385	-0.152	-0.09109462477700192	
1.39	-0.216	-0.12120084062455934	
1.395	-0.217	-0.14914068648597456	
1.4	-0.216	-0.17372669175123032	
1.405	-0.254	-0.198651410117933	
1.41	-0.252	-0.21784474747419935	
1.415	-0.217	-0.23082028001198968	
1.42	-0.254	-0.23989237841315889	
1.425	-0.234	-0.24422897735383234	
1.43	-0.165	-0.24032937515247596	
1.435	-0.127	-0.22718422706327918	
1.44	-0.162	-0.20716108951222453	
1.445	-0.058	-0.18107921818047717	
1.45	0.194	-0.1377796163279542	
1.455	0.372	-0.06062694341762486	
1.46	0.435	0.05224619039714766	
1.465	0.308	0.1711057605127948	
1.47	0.099	0.24999093800721475	
1.475	-0.234	0.25378881765878974	
1.48	-0.304	0.18064191898029483	
1.485	-0.443	0.05071476376394544	
1.49	-0.552	-0.1041191031844075	
1.495	-0.523	-0.25500290041272367	
1.5	-0.381	-0.3728403236530356	
1.505	-0.287	-0.43663545855032854	
1.51	-0.258	-0.4426577119327565	
1.515	-0.187	-0.4078961556618812	
1.52	-0.126	-0.3520135120505843	
1.525	-0.150	-0.2880742285447472	
1.53	-0.156	-0.22731307566937187	
1.535	-0.057	-0.18038943857164458	
1.54	0.020	-0.13708363819251446	
1.545	0.152	-0.0828998115713841	
1.55	0.392	-0.00694485524922565	
1.555	0.372	0.08925975776735946	
1.56	0.372	0.191428858784018	
1.565	0.443	0.27908222619853196	
1.57	0.446	0.3478411372425898	
1.575	0.475	0.40099768509111355	
1.58	0.580	0.44579303505033885	
1.585	0.628	0.48948836312907934	
1.59	0.571	0.5298914777452326	
1.595	0.579	0.5622134439003477	
1.6	0.574	0.5809473128715881	
1.605	0.482	0.5831513409604749	
1.61	0.550	0.573579524518666	
1.615	0.609	0.5661193267879693	
1.62	0.600	0.5647182066721612	
1.625	0.475	0.5650662936663455	
1.63	0.478	0.5568632520054337	
1.635	0.460	0.5363586955813063	
1.64	0.226	0.49988779686227436	
1.645	0.215	0.4443244841640901	
1.65	0.175	0.3728723492492827	
1.655	0.107	0.2981113622349182	
1.66	0.143	0.2327186536088436	
1.665	0.082	0.18008954309922484	
1.67	0.053	0.13559196955720657	
1.675	-0.035	0.09617918859413006	
1.68	-0.013	0.05994230131657566	
1.685	0.047	0.02822096113615312	
1.69	-0.005	0.010931265028607542	
1.695	0.113	0.008498408125707489	
1.7	0.154	0.022774299852917432	
1.705	0.146	0.050016271129429406	
1.71	0.240	0.08787686812911612	
1.715	0.192	0.1280760018388915	
1.72	0.084	0.1554073382377073	
1.725	0.042	0.1592592029120674	
1.73	0.097	0.14504356703923088	
1.735	0.149	0.12806960205686146	
1.74	0.108	0.11892099968116149	
1.745	0.189	0.11964128457199938	
1.75	0.134	0.1256803453614304	
1.755	0.081	0.12891312537283967	
1.76	0.093	0.12700385190010857	
1.765	0.056	0.11708105708728597	
1.77	0.052	0.10129096900427159	
1.775	0.015	0.08336186674258414	
1.78	0.006	0.06412624191195754	
1.785	-0.025	0.041915622271661644	
1.79	-0.061	0.0179104948542679	
1.795	0.175	0.005798972560228779	
1.8	0.282	0.02463792174414661	
1.805	0.438	0.08185021818508029	
1.81	0.716	0.18315352887392541	
1.815	0.883	0.32712861233605817	
1.82	0.991	0.4951741477262721	
1.825	0.988	0.6653843283667893	
1.83	0.965	0.8091815557685265	
1.835	0.913	0.9058015966202104	
1.84	0.716	0.9468435180870874	
1.845	0.805	0.9408544487588464	
1.85	0.716	0.9025825592237128	
1.855	0.050	0.8217202662478118	
1.86	-0.237	0.6590977713189374	
1.865	-0.382	0.4200738868178555	
1.87	-0.478	0.15518178911828334	
1.875	-0.388	-0.08248738044689571	
1.88	-0.182	-0.2487750618951098	
1.885	0.075	-0.3181521159184872	
1.89	0.279	-0.2819428940549257	
1.895	0.386	-0.16311304716267458	
1.9	0.276	-0.014590508065931231	
1.905	0.162	0.11081616280295026	
1.91	0.296	0.1952776954713885	
1.915	0.276	0.24794839469194804	
1.92	0.130	0.2720886611477513	
1.925	-0.040	0.2575821007235217	
1.93	-0.061	0.20309335454277302	
1.935	-0.071	0.12668325203017283	
1.94	-0.100	0.05113314244233819	
1.945	-0.092	-0.010113408234407264	
1.95	-0.103	-0.05668930406455818	
1.955	-0.164	-0.09205345295722307	
1.96	-0.142	-0.11661965910682585	
1.965	-0.098	-0.13319117433154398	
1.97	0.081	-0.12986817559781572	
1.975	0.218	-0.09018704608863293	
1.98	0.186	-0.02096029505166813	
1.985	0.120	0.04851920621346685	
1.99	0.032	0.09422332721947489	
1.995	0.085	0.11393477227779193	
2.0	0.023	0.11215310605370607	
2.005	0.017	0.09594259451708326	
2.01	0.431	0.09452844841829235	
2.015	0.466	0.13780059262887576	
2.02	0.114	0.20002718383883705	
2.025	-0.051	0.22474421681334034	
2.03	-0.133	0.19100224035429625	
2.035	0.006	0.1225855445687907	
2.04	0.424	0.08131455864818896	
2.045	0.797	0.12295267236031737	
2.05	0.918	0.25524528937369984	
2.055	0.913	0.4359980842763679	
2.06	0.941	0.6163468904054106	
2.065	0.585	0.7466995674897412	
2.07	0.001	0.7690963817727895	
2.075	-0.237	0.6556269269515236	
2.08	-0.315	0.4429289449332542	
2.085	-0.330	0.19979753681564383	
2.09	-0.335	-0.016729532235523085	
2.095	-0.051	-0.16730352517615413	
2.1	0.363	-0.2145432553629782	
2.105	0.204	-0.1587483302084689	
2.11	-0.069	-0.0679541854748855	
2.115	-0.187	-0.016403042529320434	
2.12	-0.101	-0.014470718327522633	
2.125	-0.098	-0.03230467848867398	
2.13	-0.217	-0.05838204424904761	
2.135	-0.338	-0.10110546286890588	
2.14	-0.423	-0.1645557596401061	
2.145	-0.454	-0.24059079994813157	
2.15	-0.465	-0.3157140221807227	
2.155	-0.509	-0.38353918922247054	
2.16	-0.443	-0.433932222412741	
2.165	-0.440	-0.4624989395478527	
2.17	-0.423	-0.47332244065758167	
2.175	-0.431	-0.470269231442753	
2.18	-0.420	-0.4595337713033414	
2.185	-0.381	-0.44700684390634043	
2.19	-0.396	-0.4314327172959042	
2.195	-0.358	-0.4137460144110767	
2.2	-0.342	-0.39573349069234304	
2.205	-0.336	-0.3783906281563303	
2.21	-0.249	-0.3580312210889887	
2.215	-0.167	-0.32759910994876057	
2.22	-0.200	-0.2891740572432837	
2.225	-0.355	-0.2592932429975533	
2.23	-0.504	-0.26172813771660886	
2.235	-0.637	-0.3069378026999044	
2.24	-0.639	-0.3843361160472159	
2.245	-0.512	-0.46288244510342624	
2.25	-0.153	-0.49968626330930094	
2.255	0.441	-0.4441420259140754	
2.26	0.816	-0.26303330438820816	
2.265	0.806	0.008302443156833678	
2.27	0.545	0.2758658079965199	
2.275	0.180	0.4526206279190247	
2.28	-0.025	0.49713433935832135	
2.285	-0.077	0.43014001084822906	
2.29	-0.132	0.30269951409873386	
2.295	-0.074	0.1650115979830839	
2.3	-0.058	0.05233877602206363	
2.305	-0.077	-0.02614190766918922	
2.31	-0.060	-0.07222115327696974	
2.315	-0.068	-0.09269591270957694	
2.32	0.039	-0.0939108657943502	
2.325	0.156	-0.06933042796951916	
2.33	0.417	-0.008853177679978796	
2.335	0.875	0.10834371940544356	
2.34	1.107	0.29676253625547105	
2.345	1.022	0.5248596215431898	
2.35	0.696	0.7172809440854331	
2.355	0.394	0.8088059856226932	
2.36	0.304	0.787635771633469	
2.365	0.183	0.6863040466533249	
2.37	0.084	0.5451416553238915	
2.375	-0.017	0.3895728303829612	
2.38	-0.038	0.2421192201675244	
2.385	-0.095	0.11641427761730445	
2.39	-0.136	0.015665922137882014	
2.395	-0.022	-0.05419276595435391	
2.4	0.467	-0.06445273994937062	
2.405	0.455	0.0040073489404463935	
2.41	0.172	0.10850965648975489	
2.415	0.218	0.18822936883350835	
2.42	0.673	0.25129832238053706	
2.425	0.935	0.3506621341735411	
2.43	0.680	0.4840026610333801	
2.435	0.275	0.5792687340755943	
2.44	-0.052	0.5726385071595215	
2.445	-0.179	0.4638014800515857	
2.45	-0.229	0.2954102821042035	
2.455	-0.284	0.1149132979586937	
2.46	-0.274	-0.044324963990175006	
2.465	-0.243	-0.1636309453334525	
2.47	-0.214	-0.23683983962401423	
2.475	-0.228	-0.27142002562038026	
2.48	-0.185	-0.27684290680069656	
2.485	-0.161	-0.2636465841752069	
2.49	-0.207	-0.2423784719376207	
2.495	-0.174	-0.22111383104210314	
2.5	-0.177	-0.20254642787988195	
2.505	-0.222	-0.19218854195241813	
2.51	-0.242	-0.19135645506199472	
2.515	-0.232	-0.1975910141682776	
2.52	-0.242	-0.20890537472122556	
2.525	-0.283	-0.22248125530654597	
2.53	-0.278	-0.23678981661942977	
2.535	-0.103	-0.24463671537420362	
2.54	-0.118	-0.2314166095734242	
2.545	0.133	-0.1910541198417628	
2.55	0.316	-0.11448981076123911	
2.555	0.285	-0.008222396072796092	
2.56	-0.028	0.08562530624600168	
2.565	-0.219	0.11735983791848577	
2.57	-0.281	0.07600529453178123	
2.575	-0.211	-0.0044224227665239	
2.58	0.163	-0.06769297556944975	
2.585	0.669	-0.04966409645011179	
2.59	0.632	0.06564393010779133	
2.595	0.486	0.2229968993704213	
2.6	0.047	0.3352643499059944	
2.605	-0.306	0.34063174877917385	
2.61	-0.504	0.23081597937985993	
2.615	-0.637	0.04537319232520751	
2.62	-0.634	-0.16612099130850233	
2.625	-0.373	-0.34523783580910855	
2.63	0.056	-0.4295632513128723	
2.635	0.647	-0.3748404374927107	
2.64	0.968	-0.17130734366747175	
2.645	0.967	0.12421992287147189	
2.65	0.822	0.4181533649968701	
2.655	0.788	0.6425259239827747	
2.66	1.014	0.7920432841124323	
2.665	0.990	0.8944031106074197	
2.67	0.964	0.9626304679345191	
2.675	0.987	0.9987714636708299	
2.68	0.909	1.0094989571882025	
2.685	0.857	0.9968763300082143	
2.69	0.754	0.9625237029188518	
2.695	0.767	0.9134145485603957	
2.7	0.825	0.864225333354321	
2.705	0.727	0.8244409941539758	
2.71	0.698	0.7911430233523999	
2.715	0.596	0.754480447876161	
2.72	0.502	0.7065196948448078	
2.725	0.513	0.6507981946690182	
2.73	0.531	0.5986336515807172	
2.735	0.496	0.5568202830637963	
2.74	0.398	0.5224738892827284	
2.745	0.386	0.4875213303385389	
2.75	0.313	0.44819913052738775	
2.755	0.214	0.4023263964981153	
2.76	0.160	0.3482146173346202	
2.765	0.076	0.2855405503178497	
2.77	-0.086	0.2104167762279654	
2.775	-0.228	0.12179527602091107	
2.78	-0.280	0.017705264382776437	
2.785	-0.413	-0.09325442402290533	
2.79	-0.390	-0.19955339688957813	
2.795	-0.390	-0.2863552882970428	
2.8	-0.468	-0.3528063011660914	
2.805	-0.567	-0.40876683259915814	
2.81	-0.515	-0.45670829796055173	
2.815	-0.459	-0.4913788245474931	
2.82	-0.456	-0.5056542058488027	
2.825	-0.422	-0.5011928108125063	
2.83	-0.362	-0.48219138215574464	
2.835	-0.349	-0.45429676296545063	
2.84	-0.346	-0.4216301090958442	
2.845	-0.252	-0.38630011967477523	
2.85	-0.228	-0.34779288839289313	
2.855	-0.255	-0.3098391150412094	
2.86	-0.190	-0.275692835783959	
2.865	-0.211	-0.24735061608321943	
2.87	-0.265	-0.2297300592026852	
2.875	-0.237	-0.22222186529424337	
2.88	-0.182	-0.21913155620536384	
2.885	-0.185	-0.21530995222420302	
2.89	-0.208	-0.20868132823232033	
2.895	-0.184	-0.20126408102747023	
2.9	-0.194	-0.1977716131656912	
2.905	-0.255	-0.19789365857967756	
2.91	-0.190	-0.2016823413881642	
2.915	-0.152	-0.2022898743113806	
2.92	-0.155	-0.19674944566824	
2.925	-0.158	-0.1852429410481971	
2.93	-0.110	-0.1710895062366832	
2.935	-0.104	-0.156318784695598	
2.94	-0.133	-0.1417213260289884	
2.945	-0.072	-0.12623039901600575	
2.95	-0.060	-0.11274995114604344	
2.955	-0.037	-0.09593164029936085	
2.96	0.093	-0.0706610352161644	
2.965	0.221	-0.02824159833956555	
2.97	0.218	0.031215730375987617	
2.975	0.201	0.09573116576482753	
2.98	-0.080	0.1349258107874351	
2.985	-0.309	0.11560418788406786	
2.99	-0.454	0.03219668640265027	
2.995	-0.408	-0.08816063662969982	
3.0	-0.355	-0.20769606880459354	
3.005	-0.329	-0.2949892781645752	
3.01	-0.158	-0.33662574703695186	
3.015	0.033	-0.32314475869190584	
3.02	0.157	-0.25482158747975187	
3.025	0.253	-0.14629247393184466	
3.03	0.369	-0.016958753104927202	
3.035	0.336	0.10964801600543131	
3.04	0.423	0.2191362206148437	
3.045	0.510	0.31185846159765357	
3.05	0.489	0.38832412739350297	
3.055	0.435	0.4419029323402023	
3.06	0.475	0.4733034870433158	
3.065	0.475	0.48689494349605394	
3.07	0.460	0.48913452440251737	
3.075	0.453	0.485614299379526	
3.08	0.507	0.48210601127701264	
3.085	0.530	0.4817238863871653	
3.09	0.510	0.4890628537882671	
3.095	0.617	0.5038603695898685	
3.1	0.658	0.5274350852014682	
3.105	0.521	0.553874856631069	
3.11	0.583	0.5722344139062435	
3.115	0.565	0.5789675242216739	
3.12	0.519	0.5771619990813616	
3.125	0.432	0.5645275653104345	
3.13	0.406	0.5381062731161161	
3.135	0.464	0.5027794744853515	
3.14	0.322	0.46902979307213793	
3.145	0.304	0.43282142367174503	
3.15	0.243	0.3884506156589852	
3.155	0.108	0.33487853426459435	
3.16	0.111	0.2752354965419867	
3.165	0.059	0.212978127583815	
3.17	-0.016	0.15115488440966868	
3.175	-0.042	0.09354756890729984	
3.18	-0.040	0.04214262513014483	
3.185	-0.038	0.0007581169148973212	
3.19	-0.055	-0.027979951264375778	
3.195	-0.022	-0.04312418637735881	
3.2	-0.014	-0.04854305031792963	
3.205	-0.069	-0.04916043253619164	
3.21	-0.009	-0.045733596050337014	
3.215	0.050	-0.03798882236929457	
3.22	0.001	-0.023888225561296453	
3.225	-0.022	-0.010463393231244875	
3.23	0.319	0.01218627322512856	
3.235	0.649	0.07778417192367158	
3.24	0.811	0.20705895747420697	
3.245	0.918	0.3818875479587834	
3.25	0.936	0.5613824418861277	
3.255	0.770	0.07778417192367158	
3.26	0.730	0.08932697438464061	
3.265	0.353	0.8168957105208026	
3.27	-0.022	0.7380013206127187	
3.275	-0.147	0.5715859836323323	
3.28	-0.252	0.3591867097239094	
3.285	-0.313	0.14167573075526166	
3.29	-0.200	-0.04093649622231857	
3.295	0.111	-0.1489853422997508	
3.3	0.435	-0.15452639139495242	
3.305	0.486	-0.06314861728473564	
3.31	0.620	0.08932697438464061	
3.315	0.673	0.2589650841864063	
3.32	0.631	0.41205230366528994	
3.325	0.608	0.5295661997249703	
3.33	0.663	0.6071476543754781	
3.335	0.667	0.6506734098879465	
3.34	0.655	0.6750282782660609	
3.345	0.719	0.6889124206383657	
3.35	0.489	0.6863870058121335	
3.355	0.128	0.6407906930445353	
3.36	-0.089	0.5332544053999251	
3.365	-0.213	0.36895433671843536	
3.37	-0.266	0.1831276162477408	
3.375	-0.232	0.013617506661625714	
3.38	-0.142	-0.11182876738843166	
3.385	-0.025	-0.17925219389816452	
3.39	0.116	-0.18291183638247827	
3.395	0.388	-0.12209048717270349	
3.4	0.484	-0.006567398290866442	
3.405	0.402	0.13087150624997862	
3.41	0.382	0.253234492552566	
3.415	0.389	0.33890957975288066	
3.42	0.324	0.3841521501994626	
3.425	0.275	0.3975725325546769	
3.43	0.383	0.39006567791658986	
3.435	0.460	0.381765835828671	
3.44	0.435	0.38711851196710434	
3.445	0.490	0.40479592292921	
3.45	0.420	0.4213763686651569	
3.455	0.424	0.4319667541227442	
3.46	0.522	0.4422651345107415	
3.465	0.553	0.45887202983318215	
3.47	0.443	0.4762042525923344	
3.475	0.429	0.48360983344661046	
3.48	0.379	0.47700196220521285	
3.485	0.334	0.4537485154787392	
3.49	0.276	0.42014529178274573	
3.495	0.347	0.3847685442154093	
3.5	0.362	0.3563879876512104	
3.505	0.232	0.33601771517528534	
3.51	0.140	0.3102120963245113	
3.515	0.075	0.26680927611996164	
3.52	0.029	0.2102675541646019	
3.525	0.055	0.15265341344685163	
3.53	0.113	0.10895930218970794	
3.535	-0.019	0.07777466186998348	
3.54	-0.109	0.046192422263455865	
3.545	-0.104	0.008701526267465527	
3.55	-0.124	-0.03264014701641783	
3.555	-0.127	-0.07090265593422618	
3.56	-0.115	-0.09678646560804584	
3.565	-0.141	-0.11522533191055997	
3.57	-0.158	-0.1296794168266791	
3.575	-0.153	-0.1403477523978628	
3.58	-0.087	-0.14410464450669397	
3.585	-0.116	-0.14118926849954774	
3.59	-0.170	-0.13676800294784922	
3.595	-0.113	-0.1333502598977903	
3.6	-0.127	-0.13263834002238903	
3.605	-0.185	-0.13386437243428478	
3.61	-0.139	-0.13783737178784095	
3.615	-0.107	-0.14024468370272572	
3.62	-0.161	-0.1416128281151161	
3.625	-0.174	-0.14237408939234908	
3.63	-0.141	-0.14617489170190417	
3.635	-0.153	-0.15013219978212866	
3.64	-0.246	-0.15673266539506364	
3.645	-0.225	-0.1694366842488927	
3.65	-0.246	-0.18863389188490876	
3.655	-0.275	-0.21077827354436818	
3.66	-0.226	-0.22788094405911719	
3.665	-0.234	-0.2382955373295441	
3.67	-0.257	-0.24553713670903982	
3.675	-0.249	-0.24836572543346677	
3.68	-0.222	-0.2482435522556678	
3.685	-0.254	-0.2470931982850759	
3.69	-0.304	-0.24969619695776935	
3.695	-0.283	-0.2554963092459285	
3.7	-0.294	-0.2656198185340479	
3.705	-0.344	-0.27873060677256656	
3.71	-0.318	-0.292940154259303	
3.715	-0.275	-0.30330864088154785	
3.72	-0.269	-0.30646059029611183	
3.725	-0.352	-0.30439764162817223	
3.73	-0.448	-0.311317233644406	
3.735	-0.561	-0.3420549302019412	
3.74	-0.634	-0.3966858408463332	
3.745	-0.611	-0.46054755001570796	
3.75	-0.559	-0.5195775364286113	
3.755	-0.497	-0.5566751501453673	
3.76	-0.353	-0.5589627085899347	
3.765	-0.265	-0.5242856288759703	
3.77	-0.242	-0.4634265205272391	
3.775	-0.170	-0.3904451499435144	
3.78	-0.118	-0.3133001959156465	
3.785	-0.126	-0.2429783786771328	
3.79	-0.213	-0.19074410749709803	
3.795	-0.171	-0.16261786410630985	
3.8	-0.145	-0.1505077364759716	
3.805	-0.153	-0.14668418836589506	
3.81	-0.054	-0.14008453388645936	
3.815	-0.040	-0.1242499840209736	
3.82	-0.069	-0.10434727366285257	
3.825	-0.075	-0.08655350754429994	
3.83	-0.019	-0.07133385993407199	
3.835	0.021	-0.055832609523891866	
3.84	0.052	-0.035759653324198976	
3.845	0.174	-0.0037084840907255006	
3.85	0.443	0.051627259602119877	
3.855	0.502	0.13939172508457107	
3.86	0.472	0.2467634922627468	
3.865	0.505	0.34473585112448657	
3.87	0.573	0.42275949783925865	
3.875	0.597	0.486382210643654	
3.88	0.626	0.5406060143103899	
3.885	0.658	0.5812376931135533	
3.89	0.574	0.6102191857217081	
3.895	0.625	0.6252174316780627	
3.9	0.568	0.6276397476275397	
3.905	0.330	0.6073576866846551	
3.91	0.243	0.5546928919766929	
3.915	0.122	0.4697831400859739	
3.92	0.075	0.3668041840387809	
3.925	-0.029	0.2593265694507494	
3.93	-0.038	0.1586178804297532	
3.935	0.301	0.08833822744435138	
3.94	0.088	0.06625276578975886	
3.945	0.032	0.06817663237188014	
3.95	0.001	0.06361421920332921	
3.955	-0.074	0.04640386462935563	
3.96	-0.038	0.021763993313353002	
3.965	-0.055	-0.0032516918879884954	
3.97	-0.089	-0.027247227421493114	
3.975	-0.060	-0.04758374136155961	
3.98	-0.046	-0.05936183442067486	
3.985	-0.031	-0.0628123393019801	
3.99	-0.135	-0.06575787875855332	
3.995	-0.121	-0.0727100215487419	
4.0	-0.081	-0.08443544795221301	
4.005	-0.097	-0.09264933177072511	
4.01	-0.046	-0.0941338119454348	
4.015	0.029	-0.08424772651337681	
4.02	-0.014	-0.06533503933575181	
4.025	-0.048	-0.04553308859051606	
4.03	-0.037	-0.03333590246322078	
4.035	-0.081	-0.030913008919484404	
4.04	-0.103	-0.03873234383246753	
4.045	-0.078	-0.05162465812159857	
4.05	-0.110	-0.06551227293529524	
4.055	-0.155	-0.0816879154676408	
4.06	-0.133	-0.09904971704488498	
4.065	-0.115	-0.1142806589214654	
4.07	-0.129	-0.12440006128158632	
4.075	-0.122	-0.12845138016861146	
4.08	-0.078	-0.1273064025537381	
4.085	-0.032	-0.11798266535382976	
4.09	-0.071	-0.10168738255215344	
4.095	-0.133	-0.08857889194401679	
4.1	-0.370	-0.09862049326867735	
4.105	-0.602	-0.15373323083536852	
4.11	-0.671	-0.2559892324729765	
4.115	-0.596	-0.12845138016861146	
4.12	-0.504	-0.12845138016861146	
4.125	-0.367	-0.12845138016861146	
4.13	-0.213	-0.1273064025537381	
4.135	-0.107	-0.11798266535382976	
4.14	-0.046	-0.11570129549377646	
4.145	-0.035	-0.2695479342714465	
4.15	-0.077	-0.17767871937144375	
4.155	-0.129	-0.11570129549377646	
4.16	-0.092	-0.08192426578299486	
4.165	-0.121	-0.0703795212986617	
4.17	-0.119	-0.07348801826090628	
4.175	-0.118	-0.08332459751485385	
4.18	-0.095	-0.09230593705899526	
4.185	-0.077	-0.09910478366810876	
4.19	-0.083	-0.0996231134933979	
4.195	-0.022	-0.09149040497858196	
4.2	-0.009	-0.07868229424463802	
4.205	-0.023	-0.06070866930934378	
4.21	0.009	-0.04187190851932328	
4.215	0.020	-0.024367113566269617	
4.22	-0.009	-0.010534547738121637	
4.225	0.055	0.0016934092463365678	
4.23	0.174	0.020741799163662866	
4.235	0.259	0.055868992190544024	
4.24	0.269	0.10636217963569806	
4.245	0.347	0.1665459233464292	
4.25	0.343	0.22429651705016335	
4.255	0.256	0.27024562026305043	
4.26	0.232	0.29414169975851073	
4.265	0.136	0.2916280203804126	
4.27	0.047	0.26041986385183313	
4.275	0.039	0.2096983616750483	
4.28	0.064	0.15676767048699902	
4.285	-0.002	0.10783898387258858	
4.29	-0.158	0.059329580605477085	
4.295	-0.141	0.0045635658107220905	
4.3	-0.113	-0.04967976093499096	
4.305	-0.170	-0.0927426365288508	
4.31	-0.086	-0.11983266057515984	
4.315	-0.043	-0.12933735171429264	
4.32	-0.089	-0.12355435684752093	
4.325	-0.138	-0.11330541470384199	
4.33	-0.110	-0.108269674353487	
4.335	-0.061	-0.10716243667602611	
4.34	-0.107	-0.10161548147028168	
4.345	-0.045	-0.09444312701133903	
4.35	-0.042	-0.0847417268555796	
4.355	-0.068	-0.07471556065688119	
4.36	0.001	-0.061797572447496896	
4.365	-0.038	-0.04941638662710497	
4.37	-0.075	-0.04258103431361447	
4.375	-0.051	-0.04122349720871345	
4.38	-0.074	-0.0442842121496475	
4.385	-0.118	-0.053237771951133384	
4.39	-0.156	-0.0685760968169093	
4.395	-0.121	-0.08840567245535098	
4.4	-0.185	-0.10980099498143137	
4.405	-0.271	-0.13572378463621637	
4.41	-0.229	-0.1657524527084397	
4.415	-0.188	-0.1924315394593693	
4.42	-0.188	-0.20858370546433294	
4.425	-0.168	-0.2101762744218267	
4.43	-0.136	-0.20229343650184956	
4.435	-0.126	-0.18826127338086285	
4.44	-0.135	-0.1705333116561242	
4.445	-0.061	-0.1503997834041991	
4.45	0.053	-0.12283945379682769	
4.455	0.099	-0.08067619137331092	
4.46	0.185	-0.023704390094030733	
4.465	-0.026	0.02848555783947603	
4.47	-0.338	0.038334320318033674	
4.475	-0.573	-0.021179818786372876	
4.48	-0.631	-0.144329568564558	
4.485	-0.575	-0.29027982497028004	
4.49	-0.489	-0.41344849816130197	
4.495	-0.278	-0.4803499215139646	
4.5	-0.098	-0.47885859765557914	
4.505	-0.016	-0.4126344569339149	
4.51	0.090	-0.3046709975859851	
4.515	0.107	-0.18356091701156874	
4.52	0.134	-0.07062446213958815	
4.525	0.130	0.021930494534313883	
4.53	0.068	0.08562478884526123	
4.535	0.142	0.1186186176007927	
4.54	0.105	0.13458760722231664	
4.545	0.152	0.14164265800098166	
4.55	0.183	0.1449964860659761	
4.555	0.174	0.15235252024405874	
4.56	0.209	0.16243366408593204	
4.565	0.223	0.17538008703297092	
4.57	0.243	0.18931037898619596	
4.575	0.337	0.21007002339937023	
4.58	0.420	0.24468076327628904	
4.585	0.438	0.28850727366875295	
4.59	0.412	0.3366266779528505	
4.595	0.516	0.3817382261273453	
4.6	0.504	0.42189843124498905	
4.605	0.343	0.4492959389473853	
4.61	0.372	0.45352003958431836	
4.615	0.253	0.4333390851405688	
4.62	0.072	0.3862162874833438	
4.625	0.127	0.31712327267109747	
4.63	0.024	0.24069798582106655	
4.635	-0.104	0.1604332748518122	
4.64	-0.129	0.07765196086275064	
4.645	-0.135	0.0007911739528025023	
4.65	-0.194	-0.06612737442633806	
4.655	-0.258	-0.12269447235109368	
4.66	-0.223	-0.16942811198586083	
4.665	-0.263	-0.2066473704829619	
4.67	-0.271	-0.23477481861709074	
4.675	-0.266	-0.2538583564659803	
4.68	-0.284	-0.2663038528157513	
4.685	-0.323	-0.27756956774477115	
4.69	-0.312	-0.28934605521928575	
4.695	-0.242	-0.2952116961037606	
4.7	-0.214	-0.2911212246275907	
4.705	-0.222	-0.27669484471022	
4.71	-0.174	-0.2554437251073537	
4.715	-0.207	-0.23464772037713308	
4.72	-0.226	-0.2197803835074244	
4.725	-0.190	-0.2098843294870939	
4.73	-0.155	-0.20029182045635285	
4.735	-0.179	-0.19254588680020024	
4.74	-0.231	-0.18638020737194017	
4.745	-0.196	-0.18623167024594445	
4.75	-0.203	-0.1910958896253661	
4.755	-0.228	-0.19671234711484759	
4.76	-0.181	-0.20046518109914807	
4.765	-0.257	-0.20561252864677995	
4.77	-0.318	-0.21778431363712664	
4.775	-0.300	-0.23692433797694612	
4.78	-0.263	-0.2572609577952055	
4.785	-0.252	-0.27051398677015726	
4.79	-0.268	-0.2744122118089649	
4.795	-0.193	-0.27022188563092575	
4.8	-0.174	-0.2570495610691117	
4.805	-0.171	-0.23673588991359698	
4.81	-0.115	-0.2104930955970813	
4.815	-0.045	-0.18056815634090495	
4.82	-0.003	-0.1427611330138425	
4.825	0.018	-0.09795238280564511	
4.83	0.027	-0.05526704036013924	
4.835	-0.048	-0.023518522533175268	
4.84	-0.245	-0.018452732798734963	
4.845	-0.469	-0.05726573429892919	
4.85	-0.611	-0.15008760084587522	
4.855	-0.630	-0.2757450275822325	
4.86	-0.532	-0.39543760877890505	
4.865	-0.402	-0.47853100962737327	
4.87	-0.207	-0.5037754805896006	
4.875	-0.014	-0.4598900150601245	
4.88	0.160	-0.35717909999047553	
4.885	0.232	-0.21656521223144815	
4.89	0.211	-0.06847683823678195	
4.895	0.293	0.061845699043497605	
4.9	0.276	0.16191061940166407	
4.905	0.204	0.23014192043382	
4.91	0.232	0.2645789061961833	
4.915	0.267	0.2754716874781723	
4.92	0.238	0.2750970441754064	
4.925	0.319	0.27408894964787844	
4.93	0.328	0.27987324749592823	
4.935	0.292	0.2873676387723662	
4.94	0.259	0.2925023592346546	
4.945	0.397	0.29795037530109536	
4.95	0.363	0.30992376179562187	
4.955	0.334	0.325094308987123	
4.96	0.450	0.34263910921506996	
4.965	0.481	0.3665253131329707	
4.97	0.508	0.39804648557248573	
4.975	0.585	0.4380727825281294	
4.98	0.617	0.482921945828495	
4.985	0.524	0.5223529172032251	
4.99	0.441	0.5424423040140058	
4.995	0.490	0.541954431869452	
5.0	0.402	0.5239495161295111	
5.005	0.244	0.489053806315829	
5.01	0.209	0.4335967942890352	
5.015	0.128	0.3625514026455464	
5.02	-0.003	0.28005452207462644	
5.025	-0.038	0.19402226196708805	
5.03	-0.049	0.10992983657563171	
5.035	-0.048	0.03842767817732944	
5.04	-0.060	-0.01354337635056677	
5.045	0.013	-0.04206252809766518	
5.05	0.036	-0.04899995677391598	
5.055	0.068	-0.03690452065965049	
5.06	0.079	-0.011425330223659517	
5.065	0.033	0.015553395098671012	
5.07	0.030	0.0320709762724891	
5.075	0.101	0.04500163332339432	
5.08	0.195	0.06293970918667986	
5.085	0.162	0.08844332650542779	
5.09	0.125	0.1153980578909118	
5.095	0.181	0.135910816869926	
5.1	0.140	0.1480367771039953	
5.105	0.053	0.15005280843028085	
5.11	0.133	0.14252162074239577	
5.115	0.082	0.13062198670590253	
5.12	0.062	0.11610206994202713	
5.125	0.131	0.10392360675681656	
5.13	-0.005	0.09494802779821908	
5.135	-0.095	0.07149239338563834	
5.14	-0.156	0.03131967552585904	
5.145	-0.080	-0.0150988936016813	
5.15	-0.071	-0.05383517029083535	
5.155	-0.171	-0.08198214777321738	
5.16	-0.139	-0.10457813611877911	
5.165	-0.034	-0.1192576159928405	
5.17	-0.034	-0.11683532187336154	
5.175	-0.034	-0.09921851906600601	
5.18	0.032	-0.07502629190272803	
5.185	0.079	-0.045359532931568566	
5.19	0.009	-0.013750280366179951	
5.195	0.146	0.017807935577354786	
5.2	0.127	0.04825990315813623	
5.205	-0.016	0.07103137658782736	
5.21	-0.187	0.06728737079575217	
5.215	-0.420	0.014714641664039695	
5.22	-0.581	-0.0888034204987844	
5.225	-0.683	-0.22727913276672193	
5.23	-0.672	-0.3730385257079613	
5.235	-0.642	-0.5012767294348441	
5.24	-0.569	-0.5877310141207803	
5.245	-0.431	-0.6221953892438952	
5.25	-0.384	-0.6096823675893921	
5.255	-0.356	-0.5629509272077211	
5.26	-0.298	-0.4987134449848403	
5.265	-0.350	-0.43621970058063836	
5.27	-0.465	-0.39379526494686956	
5.275	-0.537	-0.3823508790856913	
5.28	-0.613	-0.4050377751473346	
5.285	-0.631	-0.4532741370865352	
5.29	-0.691	-0.5118185140003124	
5.295	-0.636	-0.5662152693554727	
5.3	-0.599	-0.608633838726127	
5.305	-0.648	-0.6319893432491945	
5.31	-0.613	-0.64073684407375	
5.315	-0.575	-0.640149127029815	
5.32	-0.569	-0.6307802926209453	
5.325	-0.488	-0.6103607131103526	
5.33	-0.407	-0.5759660944616041	
5.335	-0.353	-0.5312564445665322	
5.34	-0.318	-0.47687585892287404	
5.345	-0.298	-0.42019223704715514	
5.35	-0.255	-0.36962104293327663	
5.355	-0.298	-0.32907311282759844	
5.36	-0.257	-0.29773374276605136	
5.365	-0.231	-0.27508584520718116	
5.37	-0.277	-0.2608512609272215	
5.375	-0.052	-0.243403296854143	
5.38	0.292	-0.19283929398071764	
5.385	0.464	-0.08821403407227635	
5.39	0.486	0.058030153542398114	
5.395	0.589	0.21482321953056582	
5.4	0.634	0.3564433953775935	
5.405	0.589	0.4728594389721574	
5.41	0.686	0.5592114892779095	
5.415	0.819	0.6269814493873964	
5.42	0.864	0.6901786057768184	
5.425	0.950	0.7555314107010098	
5.43	1.086	0.8281179998037156	
5.435	1.130	0.9047885403465923	
5.44	1.083	0.9800127258515503	
5.445	1.123	1.0417985978765358	
5.45	1.089	1.0824590751846128	
5.455	0.959	1.0978821926799596	
5.46	1.017	1.0911957886413366	
5.465	1.043	1.0719735485908077	
5.47	0.958	1.050203763913077	
5.475	0.898	1.0255207519115013	
5.48	0.936	0.9950758689028383	
5.485	0.822	0.9608043215468722	
5.49	0.606	0.9130412346430078	
5.495	0.577	0.8437489090574415	
5.5	0.570	0.7604543688528054	
5.505	0.424	0.6769861794462968	
5.51	0.342	0.5931894265924393	
5.515	0.194	0.5028629327873645	
5.52	0.110	0.4032585458665825	
5.525	0.094	0.30361587501825826	
5.53	0.087	0.2179894569895233	
5.535	0.047	0.14778837307055254	
5.54	-0.016	0.09418169090387069	
5.545	0.000	0.052736685518363864	
5.55	0.010	0.021361074785328008	
5.555	-0.049	-0.0009370950035484672	
5.56	0.026	-0.01275581482804257	
5.565	0.130	-0.010208847626322898	
5.57	0.127	0.010294138002506574	
5.575	0.137	0.043685644507183076	
5.58	-0.028	0.06988388783463265	
5.585	-0.184	0.06370412339307567	
5.59	-0.287	0.017243920361708735	
5.595	-0.330	-0.057278109845863935	
5.6	-0.307	-0.14271550332745567	
5.605	-0.307	-0.2168788726550029	
5.61	-0.220	-0.2646900264485245	
5.615	-0.124	-0.2792672430190951	
5.62	-0.040	-0.25971685939742833	
5.625	0.097	-0.2062298431316439	
5.63	0.201	-0.1250960331862096	
5.635	0.166	-0.032316930253827855	
5.64	-0.086	0.04026985438052755	
5.645	-0.217	0.05868802466736566	
5.65	-0.317	0.018191395365718937	
5.655	-0.422	-0.0648678916866445	
5.66	-0.399	-0.16366121835811792	
5.665	-0.402	-0.2573441374099294	
5.67	-0.388	-0.33072167045568024	
5.675	-0.335	-0.3751473262368114	
5.68	-0.393	-0.3931450319891162	
5.685	-0.385	-0.4003782760536415	
5.69	-0.342	-0.3996098889370602	
5.695	-0.225	-0.38421368479716134	
5.7	-0.197	-0.35185304751582674	
5.705	-0.159	-0.3078630387471616	
5.71	-0.078	-0.25559741346708964	
5.715	-0.057	-0.1993781176844221	
5.72	-0.066	-0.1487974004433027	
5.725	-0.026	-0.10514432151610564	
5.73	-0.016	-0.07012127883309582	
5.735	-0.031	-0.045412706017335824	
5.74	-0.075	-0.031646863227760766	
5.745	-0.022	-0.027200223671156133	
5.75	-0.032	-0.027850608667022138	
5.755	-0.130	-0.03390203054181758	
5.76	-0.132	-0.048606836973998924	
5.765	-0.132	-0.07135217167478304	
5.77	-0.170	-0.0967987768665788	
5.775	-0.184	-0.12015091622686874	
5.78	-0.170	-0.14210186775490252	
5.785	-0.145	-0.15840074278506622	
5.79	-0.142	-0.16563715747328817	
5.795	-0.098	-0.16118208159803415	
5.8	-0.023	-0.14685430839554325	
5.805	-0.058	-0.1228994706503656	
5.81	0.038	-0.09157302462762212	
5.815	0.125	-0.05335238808552856	
5.82	0.223	-0.0018173706712613508	
5.825	0.249	0.061884559986224066	
5.83	0.137	0.12289669842746494	
5.835	0.101	0.1565089506035739	
5.84	0.134	0.1673518631209169	
5.845	0.230	0.16989763480346215	
5.85	0.263	0.17911228472571605	
5.855	0.246	0.1950268585681128	
5.86	0.383	0.22150426184091512	
5.865	0.383	0.2576953356932047	
5.87	0.256	0.29105679152468933	
5.875	0.261	0.3088480702580888	
5.88	0.226	0.30701781447507587	
5.885	0.152	0.28850372645720634	
5.89	-0.005	0.2502482027966306	
5.895	0.064	0.19593389038943299	
5.9	0.052	0.14017937789366208	
5.905	-0.020	0.09296906135430603	
5.91	0.085	0.058472493941434875	
5.915	0.124	0.04376911126620843	
5.92	0.064	0.044085279628956885	
5.925	0.502	0.07282284781807068	
5.93	1.051	0.1721152899274355	
5.935	1.456	0.374674359468571	
5.94	1.700	0.6662411836712315	
5.945	1.911	1.0008324797733423	
5.95	1.853	1.3192225843383585	
5.955	1.622	1.56594523217028	
5.96	1.450	1.7022367687727087	
5.965	1.274	1.7217078713297047	
5.97	1.332	1.6582204885061491	
5.975	1.508	1.57373954147738	
5.98	1.613	1.5169709399001214	
5.985	1.818	1.5097588605540824	
5.99	1.873	1.5562650816289392	
5.995	1.938	1.6397346592298045	
6.0	1.925	1.731303649258927	
6.005	1.807	1.8060601834294667	
6.01	1.809	1.850209787616623	
6.015	1.747	1.8617600539940535	
6.02	1.608	1.8402916143291779	
6.025	1.531	1.791621415483631	
6.03	1.547	1.723900887388639	
6.035	1.622	1.6598429000763248	
6.04	1.469	1.6102273284162978	
6.045	1.378	1.5646304207343393	
6.05	1.277	1.5063642222677025	
6.055	1.094	1.430121520735868	
6.06	1.071	1.340150145272089	
6.065	1.104	1.248780041436921	
6.07	0.950	1.1663923624025752	
6.075	0.837	1.0886068446990391	
6.08	0.864	1.0118379747374657	
6.085	0.845	0.9428860020565587	
6.09	0.660	0.8832641448033356	
6.095	0.585	0.8195605857847879	
6.1	0.505	0.743351596166144	
6.105	0.353	0.6582161239432767	
6.11	0.380	0.569140493432267	
6.115	0.221	0.481683323987099	
6.12	0.020	0.38743063660071075	
6.125	-0.008	0.2826641261817095	
6.13	-0.060	0.1767576345078388	
6.135	-0.066	0.08188225931383038	
6.14	-0.118	0.005364195012331267	
6.145	-0.104	-0.0504666763770383	
6.15	-0.135	-0.09068244412921947	
6.155	-0.182	-0.1196969038345691	
6.16	-0.167	-0.14187410680972457	
6.165	-0.177	-0.15839129805964453	
6.17	-0.165	-0.17048610572788603	
6.175	-0.159	-0.174285238354698	
6.18	-0.118	-0.1713404150714145	
6.185	-0.100	-0.1621159904682865	
6.19	-0.168	-0.15056769798195108	
6.195	-0.199	-0.14454672168879928	
6.2	-0.171	-0.14974396014809005	
6.205	-0.193	-0.15961070135710137	
6.21	-0.190	-0.16786630600231728	
6.215	-0.271	-0.1804860853689812	
6.22	-0.356	-0.20447311488171824	
6.225	-0.359	-0.2392312791513225	
6.23	-0.387	-0.2793939464152489	
6.235	-0.378	-0.31814725769997243	
6.24	-0.382	-0.34849684102413125	
6.245	-0.359	-0.36752377869186176	
6.25	-0.414	-0.37979187710746964	
6.255	-0.486	-0.39360720553554013	
6.26	-0.419	-0.4098357595709165	
6.265	-0.413	-0.4224929122987056	
6.27	-0.436	-0.4294653002532499	
6.275	-0.451	-0.4322095982052294	
6.28	-0.573	-0.4424170332095378	
6.285	-0.602	-0.4671782148033461	
6.29	-0.529	-0.5004885042996469	
6.295	-0.407	-0.5184988116328952	
6.3	-0.307	-0.5087694097617452	
6.305	-0.265	-0.4695978196770111	
6.31	-0.208	-0.4108364130096679	
6.315	-0.179	-0.3464911457771288	
6.32	-0.347	-0.2934911097482783	
6.325	-0.579	-0.27926460117908136	
6.33	-0.763	-0.3254431411981845	
6.335	-0.804	-0.4231683679558908	
6.34	-0.720	-0.5354760041528873	
6.345	-0.504	-0.6174840812674451	
6.35	-0.535	-0.6497580650054458	
6.355	-0.562	-0.6446060853262826	
6.36	-0.471	-0.6198464175652113	
6.365	-0.309	-0.577468038326751	
6.37	-0.202	-0.510437629073087	
6.375	-0.287	-0.429229833001592	
6.38	-0.541	-0.369453432238013	
6.385	-0.718	-0.3702072731813241	
6.39	-0.793	-0.4295225461032154	
6.395	-0.778	-0.5205128763570079	
6.4	-0.776	-0.6137704351236204	
6.405	-0.744	-0.6896094522233078	
6.41	-0.669	-0.7338096500475353	
6.415	-0.546	-0.7414386579842618	
6.42	-0.423	-0.709480925256982	
6.425	-0.269	-0.6392163316859096	
6.43	-0.122	-0.536324274579722	
6.435	0.084	-0.40715860677294824	
6.44	0.377	-0.24955297331703552	
6.445	0.649	-0.056440412025722544	
6.45	0.706	0.15826534547236393	
6.455	0.550	0.35424043453254433	
6.46	0.544	0.49509800903919493	
6.465	0.559	0.5736116008852656	
6.47	0.466	0.6034584531155299	
6.475	0.372	0.593654136885681	
6.48	0.359	0.5527063260862688	
6.485	0.340	0.49489122152761417	
6.49	0.119	0.4283483761994396	
6.495	0.168	0.35249426056624467	
6.5	0.044	0.2723380774041146	
6.505	-0.246	0.18229157004093266	
6.51	-0.433	0.06506043068741427	
6.515	-0.489	-0.07838874419692587	
6.52	-0.517	-0.2244431145209511	
6.525	-0.497	-0.3472826491818722	
6.53	-0.414	-0.4323305221513328	
6.535	-0.317	-0.47007350265586956	
6.54	-0.306	-0.465538816204252	
6.545	-0.167	-0.426539512553057	
6.55	0.017	-0.35772510069715024	
6.555	0.148	-0.2575732653846474	
6.56	0.327	-0.13085900605062156	
6.565	0.388	0.010488806931013641	
6.57	0.391	0.14654356463097892	
6.575	0.321	0.25477536999111694	
6.58	0.405	0.32852544050088045	
6.585	0.472	0.37684025170263147	
6.59	0.412	0.4125832608748115	
6.595	0.156	0.42139423217749383	
6.6	-0.199	0.37205433677610844	
6.605	-0.232	0.25646176363543366	
6.61	-0.106	0.11825468138656794	
6.615	-0.043	0.0054208194849761126	
6.62	-0.022	-0.06144265973650931	
6.625	0.078	-0.08307125240286589	
6.63	0.122	-0.0654588651347008	
6.635	0.160	-0.024227310086330448	
6.64	0.085	0.025616651966874127	
6.645	0.152	0.06845107729496903	
6.65	0.130	0.10007898829232735	
6.655	0.068	0.11848695445256793	
6.66	0.198	0.12822605614656785	
6.665	0.264	0.14336908199898502	
6.67	0.246	0.16757156207371257	
6.675	0.331	0.19991533422004767	
6.68	0.221	0.2314671565689691	
6.685	0.212	0.24877714090004854	
6.69	-0.054	0.23863978833698665	
6.695	-0.430	0.17536255599649336	
6.7	-0.721	0.03601097846561497	
6.705	-0.839	-0.1644721802471503	
6.71	-0.753	-0.3777389410038741	
6.715	-0.662	-0.5516208231884707	
6.72	-0.593	-0.6593873887922219	
6.725	-0.533	-0.7000390812520672	
6.73	-0.535	-0.6915122612627724	
6.735	-0.393	-0.6532173049020606	
6.74	-0.130	-0.5803159321069987	
6.745	0.240	-0.45550665113708116	
6.75	0.441	-0.2748845798073385	
6.755	0.550	-0.05851317521734934	
6.76	0.822	0.16920244961354525	
6.765	0.898	0.39238934950048354	
6.77	0.919	0.591533922703008	
6.775	0.635	0.7368064535909022	
6.78	0.372	0.7904450525260247	
6.785	0.201	0.743764381389993	
6.79	0.042	0.620572239661513	
6.795	0.172	0.4684546371791953	
6.8	0.550	0.3492028972137407	
6.805	0.754	0.319555478793156	
6.81	0.979	0.3862365439791585	
6.815	1.086	0.5234094005794023	
6.82	0.987	0.6845351024416904	
6.825	0.984	0.8238469905040163	
6.83	1.007	0.9244962948178803	
6.835	0.993	0.9857794646275317	
6.84	0.881	1.0125944855715976	
6.845	0.788	1.003423605896165	
6.85	0.707	0.9590787584467351	
6.855	0.576	0.8884844725370025	
6.86	0.574	0.8022294825238545	
6.865	0.530	0.7163668861822104	
6.87	0.446	0.6365496315426066	
6.875	0.084	0.5499202477621122	
6.88	-0.190	0.4254434993017623	
6.885	-0.263	0.25970934082740527	
6.89	-0.228	0.08672579138413239	
6.895	-0.077	-0.05045687034981951	
6.9	-0.100	-0.1309829046372521	
6.905	-0.112	-0.16549253481730514	
6.91	-0.112	-0.1706532180877316	
6.915	-0.176	-0.16570630623092203	
6.92	-0.194	-0.16355114415202088	
6.925	-0.106	-0.16295149633681497	
6.93	-0.194	-0.1594599281168239	
6.935	-0.214	-0.162397715528018	
6.94	-0.170	-0.17031840358162723	
6.945	0.032	-0.16537864680016728	
6.95	0.240	-0.12800556420582543	
6.955	0.311	-0.047562580120157204	
6.96	0.342	0.05740032996915775	
6.965	0.357	0.16031968650382666	
6.97	0.241	0.24034979885642882	
6.975	0.236	0.2860288004474375	
6.98	0.255	0.30059649098068675	
6.985	0.212	0.29556336605305594	
6.99	0.139	0.27665034012016765	
6.995	0.093	0.24364545566197252	
7.0	0.084	0.20092713358544184	
7.005	0.082	0.15838852576486795	
7.01	0.146	0.12748347315209957	
7.015	0.110	0.11034026500431857	
7.02	0.023	0.09930118343558544	
7.025	0.113	0.08809263462181685	
7.03	0.088	0.08265738632005254	
7.035	0.140	0.08350773696836221	
7.04	0.223	0.09565618790682413	
7.045	0.431	0.13274547591248403	
7.05	0.455	0.19593477247034172	
7.055	0.267	0.26430346584453956	
7.06	-0.005	0.29643890927088956	
7.065	-0.281	0.2553129415915428	
7.07	-0.394	0.14324335064275273	
7.075	-0.379	-0.0039032591629573066	
7.08	-0.309	-0.1432746621657058	
7.085	-0.254	-0.2444862694775403	
7.09	-0.193	-0.2943558380306043	
7.095	-0.026	-0.295207681093292	
7.1	0.197	-0.24405715683842472	
7.105	0.284	-0.14469177346724424	
7.11	0.365	-0.015456204179437182	
7.115	0.417	0.1163631125395906	
7.12	0.269	0.22618097563578776	
7.125	0.365	0.3010916722708178	
7.13	0.467	0.3497283207115761	
7.135	0.446	0.3884344639299808	
7.14	0.366	0.415612968784266	
7.145	0.426	0.42778616191573865	
7.15	0.389	0.42786790069212266	
7.155	0.224	0.41428240513765463	
7.16	0.284	0.384562061353937	
7.165	0.116	0.3403319645782381	
7.17	0.136	0.28421361765414604	
7.175	-0.034	0.22216046935030126	
7.18	-0.184	0.14566466564407815	
7.185	-0.214	0.05138430008838055	
7.19	-0.075	-0.03527599919583842	
7.195	-0.040	-0.08914443856737915	
7.2	-0.181	-0.11620495750437042	
7.205	-0.246	-0.1377369259864932	
7.21	-0.280	-0.16535105138994785	
7.215	-0.342	-0.20266516532319148	
7.22	-0.449	-0.24987874706661983	
7.225	-0.352	-0.298807419599067	
7.23	-0.135	-0.3272006072967568	
7.235	-0.020	-0.31161316327112876	
7.24	-0.032	-0.2553581940067925	
7.245	-0.006	-0.18413885590125015	
7.25	0.117	-0.11318324678596528	
7.255	0.082	-0.04275505792247576	
7.26	0.026	0.015650375869096442	
7.265	0.004	0.04630830271063879	
7.27	-0.093	0.04909208335419912	
7.275	-0.089	0.031236183990219116	
7.28	-0.251	-0.008250431276382501	
7.285	-0.387	-0.0727629814099557	
7.29	-0.310	-0.15131102920895922	
7.295	-0.110	-0.21299663840882785	
7.3	-0.179	-0.23825040807555622	
7.305	-0.141	-0.23481607005196442	
7.31	0.111	-0.2042045260628117	
7.315	0.270	-0.1366147151691092	
7.32	0.316	-0.03397741001327927	
7.325	0.348	0.08124139229155682	
7.33	0.259	0.18180305692407303	
7.335	0.198	0.24520201147176796	
7.34	0.145	0.26962617451654053	
7.345	0.215	0.26498644014541034	
7.35	0.130	0.24474313391121538	
7.355	0.015	0.2121561842829311	
7.36	0.114	0.17176187599781362	
7.365	0.111	0.13537562006677398	
7.37	0.015	0.10702897116535434	
7.375	0.107	0.087235914613058	
7.38	0.146	0.07883126578292719	
7.385	0.139	0.08227784259755666	
7.39	0.127	0.0956364564537032	
7.395	0.227	0.11494326063771307	
7.4	0.212	0.13778641471004155	
7.405	0.124	0.1592001609631558	
7.41	0.206	0.17268785889294996	
7.415	0.281	0.18435683076685308	
7.42	0.299	0.20411929010252144	
7.425	0.290	0.23120968460215324	
7.43	0.036	0.24471876509575657	
7.435	-0.148	0.21428089101586428	
7.44	-0.300	0.13464951706755027	
7.445	-0.298	0.023876660657335284	
7.45	-0.294	-0.09219399869879685	
7.455	-0.307	-0.18671598888497218	
7.46	-0.147	-0.24631419770427182	
7.465	-0.029	-0.25964314229847407	
7.47	0.027	-0.227825177879799	
7.475	0.204	-0.15778914068357602	
7.48	0.273	-0.061275767507440876	
7.485	0.313	0.044364715093010765	
7.49	0.318	0.14566459009097357	
7.495	0.365	0.2298052503492723	
7.5	0.337	0.29180456659371307	
7.505	0.287	0.32928847204819134	
7.51	0.359	0.3465948605079292	
7.515	0.298	0.3513193732968135	
7.52	0.175	0.33920181280393924	
7.525	0.175	0.3101396898039924	
7.53	0.177	0.27167957686568145	
7.535	0.180	0.23345944004788488	
7.54	0.191	0.20567646125192943	
7.545	0.238	0.19274333687094414	
7.55	0.272	0.19189200706212284	
7.555	0.224	0.20235306158971755	
7.56	0.191	0.2134965697591993	
7.565	0.050	0.20931472581654065	
7.57	-0.013	0.18028167774560644	
7.575	0.003	0.13609218262974557	
7.58	0.007	0.08865379366903836	
7.585	0.001	0.04853129931964864	
7.59	-0.037	0.019648752411941396	
7.595	-0.043	-0.0033144484300340208	
7.6	-0.037	-0.022058216438615354	
7.605	-0.040	-0.03463786642481604	
7.61	0.023	-0.03754312774335608	
7.615	0.039	-0.03062404169578263	
7.62	-0.064	-0.020674348672735307	
7.625	-0.122	-0.020983280623972575	
7.63	-0.193	-0.03937109782283397	
7.635	-0.173	-0.07442190617725965	
7.64	-0.179	-0.11037449508683721	
7.645	-0.158	-0.13833656389565768	
7.65	-0.165	-0.15801233895861574	
7.655	-0.205	-0.1706490122334834	
7.66	-0.150	-0.17758622656862194	
7.665	-0.080	-0.1755866757034576	
7.67	-0.049	-0.1596448785504842	
7.675	-0.020	-0.1310009407420391	
7.68	0.017	-0.09534164127430635	
7.685	-0.016	-0.061403043627485304	
7.69	-0.025	-0.03542829291380717	
7.695	-0.023	-0.01834961560739333	
7.7	-0.029	-0.01298091133228992	
7.705	-0.138	-0.017682206489590024	
7.71	-0.107	-0.034621382982254374	
7.715	-0.100	-0.0585580114859034	
7.72	-0.168	-0.08164908847916552	
7.725	-0.139	-0.1040408239436108	
7.73	-0.121	-0.12132111245528532	
7.735	-0.103	-0.1313636459468972	
7.74	-0.109	-0.13143885819171897	
7.745	-0.084	-0.12535675960781295	
7.75	-0.068	-0.11595385445232652	
7.755	-0.100	-0.10466861191726984	
7.76	-0.075	-0.09463393538283349	
7.765	-0.106	-0.08856467673030785	
7.77	-0.066	-0.08664290214046355	
7.775	-0.011	-0.08003360235208368	
7.78	0.085	-0.06231511358603094	
7.785	0.159	-0.028364575543453105	
7.79	0.263	0.024565478713700115	
7.795	0.267	0.09065906068723645	
7.8	0.027	0.14401829352418644	
7.805	-0.266	0.14524556242408043	
7.81	-0.430	0.07732499925581882	
7.815	-0.480	-0.04452768141262676	
7.82	-0.422	-0.18063260704260656	
7.825	-0.242	-0.28604148461485723	
7.83	-0.080	-0.3292426981378205	
7.835	-0.052	-0.31231506147579646	
7.84	-0.089	-0.25851392374795645	
7.845	-0.057	-0.19636842341722194	
7.85	-0.052	-0.1428800384048139	
7.855	-0.097	-0.10172340617443551	
7.86	-0.020	-0.07470518409981086	
7.865	0.010	-0.052465966076790174	
7.87	-0.025	-0.034615863633064466	
7.875	-0.002	-0.020168557557784496	
7.88	0.039	-0.0082931993805615	
7.885	0.079	0.004747770523236307	
7.89	-0.016	0.01945381666393805	
7.895	-0.003	0.025566779163394344	
7.9	0.046	0.024182651737742634	
7.905	0.067	0.026331724944185664	
7.91	0.174	0.03924677616448968	
7.915	0.168	0.06553218653448425	
7.92	0.174	0.0964393569825116	
7.925	0.278	0.13181533272069884	
7.93	0.258	0.17067593184704122	
7.935	0.288	0.2067737476016558	
7.94	0.273	0.23845214066338838	
7.945	0.314	0.26354732694416444	
7.95	0.299	0.2822084582176834	
7.955	0.151	0.2873094586326027	
7.96	0.116	0.27117423000807905	
7.965	0.090	0.2355499044740374	
7.97	0.055	0.1884795960377887	
7.975	-0.003	0.14076609094286008	
7.98	-0.090	0.09065982498654593	
7.985	-0.136	0.03282192779073584	
7.99	-0.162	-0.025560212168822576	
7.995	-0.119	-0.07546539611604165	
8.0	-0.132	-0.11173644445932165	
8.005	-0.144	-0.13367919518969845	
8.01	-0.086	-0.14183345908106626	
8.015	-0.031	-0.1353926121345056	
8.02	-0.126	-0.12152170740342527	
8.025	-0.092	-0.10830012313693899	
8.03	-0.064	-0.09830077857471917	
8.035	-0.037	-0.08911973822676866	
8.04	-0.037	-0.0756253758464028	
8.045	0.024	-0.05749365112958775	
8.05	0.075	-0.03567040897750868	
8.055	0.018	-0.009704794907714602	
8.06	0.038	0.013094294611007423	
8.065	-0.011	0.025636203555717718	
8.07	-0.052	0.023492695040544322	
8.075	-0.090	0.009649196466153712	
8.08	-0.122	-0.014286265721256106	
8.085	-0.109	-0.0450940381782056	
8.09	-0.127	-0.07366426266664239	
8.095	-0.126	-0.09548204973468839	
8.1	-0.145	-0.11363630181859859	
8.105	-0.177	-0.12975226551443542	
8.11	-0.153	-0.14290185062468322	
8.115	-0.182	-0.15328635124231665	
8.12	-0.211	-0.16454222301903387	
8.125	-0.124	-0.17339533369276278	
8.13	-0.069	-0.1691832629178427	
8.135	-0.104	-0.15407235197129987	
8.14	-0.130	-0.13678854878956234	
8.145	-0.014	-0.11945206123819793	
8.15	0.156	-0.08951160042317502	
8.155	0.180	-0.03781538083934252	
8.16	0.241	0.03102812925545599	
8.165	0.105	0.09480615910189703	
8.17	-0.242	0.11742227365889546	
8.175	-0.468	0.0674164478737032	
8.18	-0.527	-0.04617405524194367	
8.185	-0.459	-0.18694713431739773	
8.19	-0.423	-0.30783052667734007	
8.195	-0.268	-0.3814776167896952	
8.2	-0.064	-0.39538676200825906	
8.205	0.068	-0.34580122649318956	
8.21	0.113	-0.24705254831014256	
8.215	0.217	-0.12912818535888484	
8.22	0.232	-0.013491150215866879	
8.225	0.152	0.08539451829213075	
8.23	0.233	0.15482881271395352	
8.235	0.252	0.19905343430114916	
8.24	0.238	0.22910643745085688	
8.245	0.296	0.25049679349817716	
8.25	0.397	0.27058711334283025	
8.255	0.195	0.2881283718666454	
8.26	0.217	0.29193851973935014	
8.265	0.342	0.28488931261063166	
8.27	0.366	0.2855100356291916	
8.275	0.409	0.3024554862319129	
8.28	0.486	0.33285547160252077	
8.285	0.530	0.3740092275653521	
8.29	0.562	0.42115435626756026	
8.295	0.670	0.4755399917189834	
8.3	0.727	0.5355056803105823	
8.305	0.476	0.5851327104815349	
8.31	0.391	0.5979944727840771	
8.315	0.293	0.5657802916789896	
8.32	0.233	0.5004569769792098	
8.325	0.191	0.41956141203145914	
8.33	0.159	0.3398142972573459	
8.335	-0.016	0.258914847629502	
8.34	-0.104	0.17224393143891548	
8.345	-0.071	0.08555688949194755	
8.35	-0.040	0.013412163536123305	
8.355	-0.136	-0.03876782375001571	
8.36	-0.110	-0.075896299966898	
8.365	-0.055	-0.09830161367889291	
8.37	-0.115	-0.10851735904935245	
8.375	-0.142	-0.11233946581388538	
8.38	-0.138	-0.11729146701527629	
8.385	-0.118	-0.12412386874067839	
8.39	-0.142	-0.12860013258728134	
8.395	-0.121	-0.12949313766422965	
8.4	-0.075	-0.1287414146562305	
8.405	-0.097	-0.12164823405345564	
8.41	-0.110	-0.11182421673063486	
8.415	-0.124	-0.10749346830203632	
8.42	-0.136	-0.10851558132790365	
8.425	-0.115	-0.11215687875845842	
8.43	-0.086	-0.11338796052546914	
8.435	-0.097	-0.11224756458416815	
8.44	-0.170	-0.11143561626695872	
8.445	-0.361	-0.12648547383595238	
8.45	-0.532	-0.17697105061114907	
8.455	-0.585	-0.2615947251149161	
8.46	-0.524	-0.35764792369738113	
8.465	-0.666	-0.4446162034140977	
8.47	-0.787	-0.5285972541545041	
8.475	-0.604	-0.6019910799710193	
8.48	-0.394	-0.637353439053638	
8.485	-0.283	-0.6153237327691983	
8.49	-0.197	-0.5443544466263286	
8.495	-0.126	-0.44441691595382615	
8.5	-0.037	-0.3370099281304626	
8.505	-0.066	-0.2345763102348657	
8.51	-0.031	-0.14864902620891074	
8.515	-0.025	-0.08669307800862147	
8.52	0.024	-0.04357535264550422	
8.525	0.192	-0.0029407563411709588	
8.53	0.290	0.04955509576935577	
8.535	0.056	0.10359950610553183	
8.54	-0.214	0.119652193906883	
8.545	-0.471	0.06749762021436082	
8.55	-0.517	-0.04808157239782325	
8.555	-0.475	-0.1884712223882975	
8.56	-0.341	-0.3045781838262812	
8.565	-0.213	-0.36972195657181695	
8.57	-0.072	-0.3724981568533645	
8.575	0.232	-0.3098585785818692	
8.58	0.301	-0.1905068956615825	
8.585	0.366	-0.04140265105847503	
8.59	0.400	0.10575935581817658	
8.595	0.441	0.23351200050411355	
8.6	0.427	0.3308746691833414	
8.605	0.188	0.386515052096808	
8.61	-0.150	0.3733253376075062	
8.615	-0.283	0.2791387536277473	
8.62	-0.217	0.13750348256943337	
8.625	-0.136	0.004200545524984901	
8.63	-0.313	-0.09956327626106845	
8.635	-0.399	-0.18645930301715846	
8.64	-0.437	-0.26515331067995296	
8.645	-0.437	-0.3344146437484675	
8.65	-0.448	-0.38818532253953025	
8.655	-0.466	-0.4264612059199126	
8.66	-0.401	-0.44749578352564034	
8.665	-0.336	-0.4498131104627921	
8.67	-0.184	-0.4265974152106003	
8.675	0.208	-0.35875576689204725	
8.68	0.625	-0.21943012956194147	
8.685	0.842	-0.005475623376663626	
8.69	0.773	0.24377888672192957	
8.695	0.730	0.4655739083007245	
8.7	0.767	0.6257551006836998	
8.705	0.660	0.7244750966885767	
8.71	0.669	0.7675066332826754	
8.715	0.643	0.7681403033213836	
8.72	0.521	0.7403466890916939	
8.725	0.519	0.6922539387338243	
8.73	0.516	0.6374874597298895	
8.735	0.559	0.5884322373528925	
8.74	0.499	0.5549001268212974	
8.745	0.457	0.5296638643961913	
8.75	0.172	0.4916507448501349	
8.755	0.214	0.42849974289043685	
8.76	0.423	0.3676695780170113	
8.765	0.434	0.3371414745577223	
8.77	0.366	0.3362892762533134	
8.775	0.391	0.3463134130979318	
8.78	0.343	0.3565120334337022	
8.785	0.362	0.3603623974490191	
8.79	0.460	0.36788305564882473	
8.795	0.501	0.3857281541037488	
8.8	0.541	0.4146895926370568	
8.805	0.450	0.44646633415990955	
8.81	0.467	0.4686229619569264	
8.815	0.356	0.47312302183444926	
8.82	0.169	0.44926173056568947	
8.825	0.130	0.3932779776957691	
8.83	0.119	0.31852991734213987	
8.835	0.090	0.2434032200323204	
8.84	0.053	0.17786027091060758	
8.845	0.059	0.12569299872311987	
8.85	0.067	0.08673290814169018	
8.855	-0.075	0.05649685190408445	
8.86	-0.173	0.021566904239728582	
8.865	-0.200	-0.0298820754332135	
8.87	-0.382	-0.09465751811855336	
8.875	-0.488	-0.1737224888497401	
8.88	-0.549	-0.26954744250459384	
8.885	-0.561	-0.3665740052966678	
8.89	-0.451	-0.4440535925142619	
8.895	-0.286	-0.48032527767299277	
8.9	-0.387	-0.47530791808134853	
8.905	-0.561	-0.46045434202728863	
8.91	-0.763	-0.47145068558027464	
8.915	-0.960	-0.5309801540941317	
8.92	-0.993	-0.6326264517262672	
8.925	-0.993	-0.7466409200519312	
8.93	-0.938	-0.845576638760001	
8.935	-0.854	-0.91157402933986	
8.94	-0.764	-0.9319913205425923	
8.945	-0.636	-0.908359729145828	
8.95	-0.500	-0.848357973259605	
8.955	-0.417	-0.7553714048356099	
8.96	-0.315	-0.6463714491915835	
8.965	-0.295	-0.5360245130048813	
8.97	-0.303	-0.43864416240222986	
8.975	-0.292	-0.36359724732998966	
8.98	-0.265	-0.3136434093667992	
8.985	-0.252	-0.28166874941699005	
8.99	-0.177	-0.25594290071256415	
8.995	-0.127	-0.2303513950297111	
9.0	0.076	-0.19246199050612967	
9.005	0.175	-0.12832565238583038	
9.01	0.336	-0.0372652654782316	
9.015	0.189	0.060876053670892966	
9.02	0.110	0.13628573929608845	
9.025	0.440	0.18853480084457983	
9.03	0.758	0.2594089630974108	
9.035	0.813	0.37328382042473557	
9.04	0.466	0.4930734926676366	
9.045	0.185	0.5495664049022732	
9.05	0.194	0.5223993045420021	
9.055	0.353	0.4557519302263433	
9.06	0.605	0.40982371636811377	
9.065	0.177	0.3897763138019824	
9.07	-0.188	0.3432672024230058	
9.075	-0.300	0.23558137458546474	
9.08	-0.365	0.08529060696727352	
9.085	-0.341	-0.06876283960683963	
9.09	-0.268	-0.19075295836341113	
9.095	-0.284	-0.26932639195238356	
9.1	-0.138	-0.30460857700600463	
9.105	-0.155	-0.2982252517737437	
9.11	-0.207	-0.2692042200517353	
9.115	-0.139	-0.2392817074867425	
9.12	0.072	-0.1996265577705917	
9.125	0.357	-0.12525850344898476	
9.13	0.093	-0.025768682972110876	
9.135	-0.145	0.04505962977635199	
9.14	-0.242	0.05322770367760666	
9.145	-0.268	0.005723996366775561	
9.15	-0.029	-0.057693811509464746	
9.155	0.397	-0.07324716800381588	
9.16	0.574	-0.005002875188530209	
9.165	0.553	0.1247633835247472	
9.17	0.652	0.27313934258674516	
9.175	0.901	0.42474280291838734	
9.18	0.988	0.5784540869055348	
9.185	1.020	0.725971067327858	
9.19	1.107	0.8571063815569632	
9.195	1.156	0.9659548169082455	
9.2	0.854	1.037286876210098	
9.205	0.249	1.0243252026843845	
9.21	0.085	0.8969295654155537	
9.215	0.479	0.7090159409691336	
9.22	0.629	0.5621212800310733	
9.225	0.799	0.5056845685459266	
9.23	0.924	0.5285951876704702	
9.235	0.799	0.5999978621241604	
9.24	1.208	0.6980540104189789	
9.245	1.694	0.844047918397255	
9.25	1.874	1.0574071150399644	
9.255	1.914	1.306387702596398	
9.26	1.977	1.5439453735988167	
9.265	2.006	1.7379444516486529	
9.27	2.004	1.880017938477882	
9.275	2.062	1.977600437304822	
9.28	1.702	2.0215281920584687	
9.285	1.190	1.9749470333852797	
9.29	0.875	1.8189434512549414	
9.295	0.741	1.5759332606438101	
9.3	0.727	1.3064483992639808	
9.305	0.716	1.0674735957014168	
9.31	0.890	0.894967303263278	
9.315	0.974	0.8040487788361672	
9.32	1.101	0.7921427271061505	
9.325	1.159	0.8415714285394347	
9.33	0.742	0.9025186321251525	
9.335	0.211	0.8960254023634608	
9.34	-0.003	0.7818921128599885	
9.345	0.232	0.6028990473051654	
9.35	0.512	0.8214852865556319	
9.355	0.663	0.8214852865556319	
9.36	0.893	0.8214852865556319	
9.365	0.958	0.4931033166115147	
9.37	0.881	0.6182184713866535	
9.375	0.906	0.7343489209394267	
9.38	0.912	0.8214852865556319	
9.385	0.851	0.8773346984843586	
9.39	0.846	0.902896314412912	
9.395	0.890	0.9076528482225222	
9.4	0.919	0.9056994481476738	
9.405	0.765	0.8985709923459312	
9.41	0.342	0.8584935182640236	
9.415	0.146	0.7539967001139848	
9.42	0.233	0.6024531225802218	
9.425	0.240	0.45735263775843793	
9.43	0.272	0.3463772848018044	
9.435	0.253	0.2754863123989252	
9.44	0.151	0.23298818527631998	
9.445	-0.239	0.18450896566954794	
9.45	-0.439	0.08962709345155412	
9.455	-0.495	-0.047362257909475465	
9.46	-0.291	-0.1844103325970675	
9.465	-0.165	-0.2759107292088424	
9.47	-0.115	-0.3045422318603652	
9.475	-0.069	-0.28268999410630413	
9.48	-0.298	-0.24561478182632446	
9.485	-0.512	-0.236581382096528	
9.49	-0.645	-0.2791312038127665	
9.495	-0.672	-0.3624089584504963	
9.5	-0.727	-0.4622323663067275	
9.505	-0.776	-0.5604483785566088	
9.51	-0.757	-0.6444908164282082	
9.515	-0.769	-0.7078151391892267	
9.52	-0.764	-0.750579539808773	
9.525	-0.694	-0.7698206849136076	
9.53	-0.665	-0.7674908130506544	
9.535	-0.653	-0.7494436604688115	
9.54	-0.637	-0.7212442019651224	
9.545	-0.628	-0.6924138717388929	
9.55	-0.643	-0.6680967907438407	
9.555	-0.776	-0.6565518925037829	
9.56	-0.993	-0.6766284784031821	
9.565	-0.993	-0.7347237460611464	
9.57	-0.995	-0.8125732875668356	
9.575	-0.995	-0.8829259011744979	
9.58	-0.993	-0.9384290659010628	
9.585	-0.859	-0.9703898601144537	
9.59	-0.688	-0.9632966186322637	
9.595	-0.579	-0.911339839147197	
9.6	-0.564	-0.8300423459583436	
9.605	-0.779	-0.7516642584940572	
9.61	-0.873	-0.7116120901213054	
9.615	-0.870	-0.717629143998987	
9.62	-0.912	-0.7516755067290986	
9.625	-0.911	-0.7949736182558463	
9.63	-0.866	-0.8353129227920703	
9.635	-0.813	-0.8614372522885101	
9.64	-0.764	-0.8654003373769857	
9.645	-0.703	-0.8472596494696369	
9.65	-0.705	-0.8150286750088329	
9.655	-0.796	-0.7837472254666746	
9.66	-0.700	-0.76051877487216	
9.665	-0.599	-0.7385379439464829	
9.67	-0.462	-0.700759914182707	
9.675	-0.359	-0.6389551979437023	
9.68	-0.361	-0.5612188527368029	
9.685	-0.376	-0.48854482067275845	
9.69	-0.103	-0.4174785478323876	
9.695	0.429	-0.31209537474826027	
9.7	0.560	-0.1429568444671753	
9.705	0.160	0.04510672171021493	
9.71	-0.055	0.16839810409224581	
9.715	0.142	0.20648430809775042	
9.72	0.457	0.21825583168660811	
9.725	0.785	0.26906986374690567	
9.73	0.950	0.38280275368361844	
9.735	0.964	0.5344771721629075	
9.74	1.089	0.6935363061374109	
9.745	1.133	0.8427987759993256	
9.75	1.173	0.9679247638637283	
9.755	1.228	1.0682044360381786	
9.76	1.338	1.1505483055184258	
9.765	1.281	1.2174362543402157	
9.77	1.277	1.2631441620889834	
9.775	1.411	1.2960668253819476	
9.78	1.372	1.325819128181559	
9.785	1.358	1.3484239977158567	
9.79	1.439	1.3665123703126312	
9.795	1.433	1.3858807219735594	
9.8	1.402	1.400959566250715	
9.805	1.234	1.402109910250899	
9.81	1.193	1.379540346469382	
9.815	1.126	1.3315357876158767	
9.82	0.854	1.2600944762265407	
9.825	0.864	1.1639694553351956	
9.83	0.842	1.059912329779016	
9.835	0.744	0.9634960566976862	
9.84	0.744	0.8804134757398036	
9.845	0.762	0.8168813941507904	
9.85	0.736	0.7720884882030115	
9.855	0.644	0.7400890560541782	
9.86	0.611	0.7104583902727497	
9.865	0.809	0.6876365026143691	
9.87	1.281	0.710219500472103	
9.875	1.547	0.8189744786890054	
9.88	1.802	1.0069387975841495	
9.885	1.807	1.2325073196489704	
9.89	1.607	1.4403198165814564	
9.895	1.773	1.591825861878652	
9.9	1.909	1.6970951235811567	
9.905	2.003	1.785084676876012	
9.91	2.076	1.8694808384401929	
9.915	2.116	1.9476121278726846	
9.92	1.877	2.0020950267733033	
9.925	1.665	2.008881511264317	
9.93	1.508	1.9518840454953468	
9.935	1.292	1.837466174564644	
9.94	1.248	1.6883948758487508	
9.945	1.286	1.5399207096361205	
9.95	1.249	1.415069410067583	
9.955	1.107	1.3170766813003438	
9.96	1.084	1.23753762352378	
9.965	1.037	1.1686017169864629	
9.97	0.858	1.1030900609700727	
9.975	0.837	1.033963922294007	
9.98	0.817	0.9649269822347424	
9.985	0.702	0.8974613106109947	
9.99	0.643	0.8314169454460617	
9.995	0.669	0.7689019443585949	
10.0	0.522	0.7110257823933459	
10.005	0.426	0.6490877516778513	
10.01	0.481	0.5865303247254744	
10.015	0.340	0.5265809546934819	
10.02	0.007	0.4521107023749516	
10.025	-0.202	0.3409097670978703	
10.03	-0.291	0.19185711158871455	
10.035	-0.317	0.030550618039084952	
10.04	-0.269	-0.10852494367545122	
10.045	-0.210	-0.20517622903914595	
10.05	-0.107	-0.2519144363942317	
10.055	-0.066	-0.2527839204383273	
10.06	0.035	-0.21354862048383194	
10.065	0.151	-0.14847015814312176	
10.07	0.094	-0.07074353058115063	
10.075	0.065	0.0009274990342484829	
10.08	0.018	0.047730350876558816	
10.085	-0.087	0.060570501377743016	
10.09	-0.129	0.04350318442620717	
10.095	-0.138	0.005693785735192121	
10.1	-0.129	-0.039951876179277875	
10.105	-0.138	-0.07969859949678973	
10.11	-0.115	-0.10759624879825282	
10.115	-0.098	-0.12254627613541551	
10.12	-0.127	-0.12866116018193974	
10.125	-0.101	-0.12802707642147487	
10.13	-0.164	-0.12633315227684755	
10.135	-0.155	-0.13039318283305648	
10.14	-0.122	-0.135419051913996	
10.145	-0.101	-0.13534522179198813	
10.15	-0.069	-0.1289766941077097	
10.155	-0.037	-0.11565296866450878	
10.16	0.035	-0.09160815563668745	
10.165	0.010	-0.0605776382916382	
10.17	-0.084	-0.03665425248803766	
10.175	-0.087	-0.02905198619166253	
10.18	-0.078	-0.034343237142689526	
10.185	-0.074	-0.047350842546468916	
10.19	-0.060	-0.05743730092712152	
10.195	-0.035	-0.0613793712323828	
10.2	-0.051	-0.06092924176443714	
10.205	-0.164	-0.06466379140905104	
10.21	-0.171	-0.07769099622936115	
10.215	-0.122	-0.09954011233096693	
10.22	-0.177	-0.12058055992187368	
10.225	-0.112	-0.13509665531919351	
10.23	-0.132	-0.14135326681195726	
10.235	-0.196	-0.1452864001306302	
10.24	-0.341	-0.16048483316813097	
10.245	-0.570	-0.20446965522455995	
10.25	-0.711	-0.2899023287324788	
10.255	-0.824	-0.4086414968778569	
10.26	-0.851	-0.5387283539985441	
10.265	-0.857	-0.6595049353629473	
10.27	-0.894	-0.757534074246984	
10.275	-0.870	-0.8281321337609776	
10.28	-0.831	-0.868341446261597	
10.285	-0.847	-0.8852240382290052	
10.29	-0.873	-0.8865028274578903	
10.295	-0.859	-0.8824675962236317	
10.3	-0.822	-0.8748125147653496	
10.305	-0.847	-0.8656404486741843	
10.31	-0.813	-0.8538009994455685	
10.315	-0.755	-0.8384743886948076	
10.32	-0.769	-0.8205074211064114	
10.325	-0.776	-0.8012203478292128	
10.33	-0.709	-0.7833638648554817	
10.335	-0.676	-0.7631590523131888	
10.34	-0.628	-0.736529295876718	
10.345	-0.569	-0.7015095596203574	
10.35	-0.509	-0.660756408755256	
10.355	-0.512	-0.6166330704364674	
10.36	-0.533	-0.5748646362286172	
10.365	-0.477	-0.5434624631259048	
10.37	-0.439	-0.5174760872443376	
10.375	-0.185	-0.47923499909281675	
10.38	0.270	-0.3963123123369382	
10.385	0.502	-0.24407051037524535	
10.39	0.360	-0.04856055031845172	
10.395	0.035	0.11536853683091891	
10.4	-0.129	0.18816949700721325	
10.405	-0.298	0.16436944477361282	
10.41	-0.416	0.07113130163239836	
10.415	-0.417	-0.05950788060543247	
10.42	-0.390	-0.1894529044381201	
10.425	-0.295	-0.2861468609539325	
10.43	-0.284	-0.339369965556007	
10.435	-0.284	-0.3562066070736045	
10.44	-0.239	-0.3494728237509276	
10.445	-0.202	-0.32545576956207345	
10.45	-0.147	-0.2898522501968709	
10.455	-0.139	-0.24964341462050563	
10.46	-0.075	-0.2047313284624335	
10.465	-0.049	-0.1615141995084175	
10.47	-0.069	-0.12259584294348963	
10.475	-0.022	-0.08912488442645355	
10.48	0.046	-0.059314130867714525	
10.485	0.013	-0.031314006334576504	
10.49	0.049	-0.005504730153744297	
10.495	0.023	0.01563821262939515	
10.5	-0.003	0.026093704142728665	
10.505	-0.013	0.02626598724188519	
10.51	0.062	0.02436703332836422	
10.515	0.203	0.03253637457809793	
10.52	0.181	0.06031353557945086	
10.525	0.232	0.09991157302241675	
10.53	0.266	0.1437613206560316	
10.535	0.218	0.1825968484695583	
10.54	0.192	0.20946312283274068	
10.545	0.226	0.22373025576253788	
10.55	0.172	0.22606468754678333	
10.555	-0.002	0.21119436124397717	
10.56	-0.049	0.17140559438136793	
10.565	-0.080	0.11152139047479048	
10.57	-0.179	0.043247962714414764	
10.575	-0.167	-0.02604549306825855	
10.58	-0.176	-0.08620378675664044	
10.585	-0.196	-0.13443881991714499	
10.59	-0.207	-0.1684992998455365	
10.595	-0.165	-0.18822232473005984	
10.6	-0.132	-0.19597160227055638	
10.605	-0.182	-0.19178190745979884	
10.61	-0.086	-0.17951973134492122	
10.615	-0.064	-0.1605095441207614	
10.62	-0.129	-0.13878814848529125	
10.625	-0.090	-0.11999665533836414	
10.63	-0.016	-0.10321839466213757	
10.635	-0.095	-0.08749825016030027	
10.64	-0.055	-0.07546959608007076	
10.645	0.017	-0.06220931451256663	
10.65	0.010	-0.047023825042371965	
10.655	-0.011	-0.029768170153223573	
10.66	0.055	-0.012495476747075816	
10.665	0.087	0.0064486229126614	
10.67	-0.020	0.023218220576166054	
10.675	-0.008	0.030029794028733382	
10.68	-0.089	0.022730540051868326	
10.685	-0.165	-0.0035126718159452087	
10.69	-0.203	-0.04342632793895351	
10.695	-0.226	-0.09123816575043657	
10.7	-0.194	-0.13805113832723764	
10.705	-0.150	-0.1707036530439564	
10.71	-0.112	-0.1824741984683646	
10.715	-0.049	-0.17459783761299658	
10.72	-0.058	-0.15175442827770688	
10.725	-0.028	-0.11991383347675781	
10.73	-0.003	-0.08729906913298624	
10.735	-0.011	-0.059535658058813196	
10.74	0.093	-0.030366993201699107	
10.745	0.217	0.008784827017936741	
10.75	0.324	0.06390211913232687	
10.755	0.328	0.13429732614438505	
10.76	0.186	0.19953945088379801	
10.765	-0.187	0.21730112564114246	
10.77	-0.475	0.1541304648974546	
10.775	-0.544	0.019115704003770637	
10.78	-0.466	-0.14423329831757467	
10.785	-0.353	-0.2845537967000147	
10.79	-0.171	-0.36133495460729226	
10.795	0.093	-0.3601049558207766	
10.8	0.299	-0.2790950234697386	
10.805	0.420	-0.13775247330708884	
10.81	0.582	0.03861762525001094	
10.815	0.641	0.22038545342642984	
10.82	0.478	0.37609704450225906	
10.825	0.559	0.48409376427705897	
10.83	0.502	0.5447741274891005	
10.835	0.460	0.5653702719194481	
10.84	0.432	0.5585685341143464	
10.845	0.383	0.5308683295941756	
10.85	0.467	0.49488216108707794	
10.855	0.446	0.46721158098808246	
10.86	0.556	0.45763949533420617	
10.865	0.661	0.4694299137993931	
10.87	0.623	0.5031194172465939	
10.875	0.744	0.5511408871350492	
10.88	0.799	0.6068099635041111	
10.885	0.809	0.6663548759458742	
10.89	0.776	0.720584507383887	
10.895	0.701	0.756883804384861	
10.9	0.654	0.7638150306776164	
10.905	0.563	0.7451811788975198	
10.91	0.559	0.7076776227185284	
10.915	0.534	0.6603854590782362	
10.92	0.379	0.6060616448598332	
10.925	0.391	0.5471949106541928	
10.93	0.201	0.47981580618876585	
10.935	0.088	0.39726546549369013	
10.94	0.108	0.30661577184780064	
10.945	0.085	0.22499920571724305	
10.95	0.079	0.15779633913272306	
10.955	-0.020	0.10613387053857337	
10.96	-0.003	0.06475994201229125	
10.965	0.035	0.031419888237710726	
10.97	0.020	0.0119848517876057	
10.975	0.131	0.011235275924141492	
10.98	0.140	0.028917122786322247	
10.985	0.029	0.05019927436901592	
10.99	0.003	0.0615450283514994	
10.995	0.082	0.0630750100566407	
11.0	0.072	0.060794605243436745	
11.005	0.021	0.060040632991433036	
11.01	0.055	0.057799054998523974	
11.015	0.047	0.05347287553297031	
11.02	0.023	0.047896588101953325	
11.025	0.133	0.04921147716246522	
11.03	0.255	0.0650100093535163	
11.035	0.131	0.0951884608866519	
11.04	0.116	0.12247917705564794	
11.045	0.091	0.13511093427078172	
11.05	-0.013	0.1288099956760546	
11.055	-0.052	0.10197180588053648	
11.06	-0.020	0.06580265526154891	
11.065	-0.006	0.029542107201510726	
11.07	-0.087	-0.00012393983994989956	
11.075	-0.035	-0.022846164111925693	
11.08	0.120	-0.030951037109313077	
11.085	0.087	-0.018760087810582183	
11.09	0.108	0.011447032396396058	
11.095	0.195	0.04810558532096377	
11.1	0.316	0.0928796796846018	
11.105	0.383	0.1529964048121289	
11.11	0.702	0.23877716590010867	
11.115	1.110	0.3705843393321998	
11.12	1.298	0.5599604803652551	
11.125	1.495	0.7911364553050112	
11.13	1.514	1.0269519850239743	
11.135	1.210	1.2162032862770773	
11.14	0.863	1.3064028308846125	
11.145	0.531	1.2719579766851203	
11.15	0.343	1.122813816640662	
11.155	0.188	0.9070676894590901	
11.16	0.327	0.6837566234716013	
11.165	0.470	0.5065224393744985	
11.17	0.534	0.40905287773103416	
11.175	0.632	0.38620009817345635	
11.18	0.670	0.4188872968491771	
11.185	0.589	0.47327971415093245	
11.19	0.547	0.5245712606481955	
11.195	0.580	0.5589473955580826	
11.2	0.589	0.5768004301758904	
11.205	0.530	0.5841805689464266	
11.21	0.495	0.5806982024826732	
11.215	0.412	0.5603396514256951	
11.22	0.333	0.5220677619750864	
11.225	0.388	0.4762401647638893	
11.23	0.368	0.43377637112526124	
11.235	0.233	0.39328207360687295	
11.24	0.128	0.34667466919211	
11.245	0.029	0.28488727345706444	
11.25	-0.025	0.2077380386146165	
11.255	-0.038	0.12828279187626007	
11.26	0.021	0.06373409708355683	
11.265	-0.002	0.01928451647381249	
11.27	-0.080	-0.009882281148713938	
11.275	-0.025	-0.0297180825269899	
11.28	-0.002	-0.04029001093616861	
11.285	-0.080	-0.04370849118738562	
11.29	-0.118	-0.050261431453876425	
11.295	-0.194	-0.06615711666429654	
11.3	-0.275	-0.09929196123199717	
11.305	-0.361	-0.14867452183108693	
11.31	-0.385	-0.2073094892403716	
11.315	-0.462	-0.2727698923913717	
11.32	-0.529	-0.3398276828459011	
11.325	-0.475	-0.40070782760438245	
11.33	-0.436	-0.44533789858678297	
11.335	-0.413	-0.4676611533956544	
11.34	-0.422	-0.46921271066079856	
11.345	-0.388	-0.45819733464618845	
11.35	-0.358	-0.4412791838050368	
11.355	-0.353	-0.4186130058751554	
11.36	-0.321	-0.39333695421404996	
11.365	-0.303	-0.36880689055625077	
11.37	-0.346	-0.34778350737447605	
11.375	-0.362	-0.33471359368393916	
11.38	-0.352	-0.3324192871138138	
11.385	-0.385	-0.3376612337881052	
11.39	-0.379	-0.34716615676688767	
11.395	-0.460	-0.3602431804926635	
11.4	-0.518	-0.38532620665712514	
11.405	-0.474	-0.4175672015201881	
11.41	-0.465	-0.4443117782827017	
11.415	-0.518	-0.46484331657356903	
11.42	-0.569	-0.48578839378819594	
11.425	-0.561	-0.5066768184067033	
11.43	-0.529	-0.5264025885592307	
11.435	-0.598	-0.5426846703619775	
11.44	-0.573	-0.5551761012889278	
11.445	-0.514	-0.562196796702612	
11.45	-0.495	-0.5603011034115166	
11.455	-0.494	-0.5476049937552563	
11.46	-0.423	-0.5273140412234745	
11.465	-0.353	-0.49880405083252105	
11.47	-0.339	-0.46179509133893437	
11.475	-0.292	-0.4176949473671032	
11.48	-0.237	-0.37238775810246016	
11.485	-0.243	-0.3296897491779983	
11.49	-0.203	-0.2891938734363832	
11.495	-0.165	-0.2531905888725946	
11.5	-0.092	-0.21931149884847445	
11.505	-0.107	-0.18261942066402564	
11.51	-0.286	-0.1573067680631723	
11.515	-0.468	-0.16986291855930094	
11.52	-0.616	-0.22987645906598705	
11.525	-0.567	-0.3196411424343435	
11.53	-0.439	-0.40632113855382923	
11.535	-0.361	-0.4587370739338057	
11.54	-0.202	-0.46115295858376526	
11.545	-0.072	-0.41607371686818384	
11.55	-0.009	-0.33436902916305133	
11.555	0.151	-0.22968214121014763	
11.56	0.302	-0.10717063215186465	
11.565	0.330	0.02219421757778718	
11.57	0.214	0.13501140791407085	
11.575	0.249	0.21335637155485	
11.58	0.362	0.26173082724226415	
11.585	0.166	0.2881606161022591	
11.59	0.139	0.2877453653569275	
11.595	0.130	0.2619546472201486	
11.6	0.463	0.23865906016232508	
11.605	1.054	0.28034566164596963	
11.61	1.618	0.44494775052530783	
11.615	2.081	0.7352850448603072	
11.62	2.178	1.108991986205622	
11.625	2.271	1.4913472526544478	
11.63	2.297	1.8207188331946995	
11.635	2.275	2.06606616150719	
11.64	2.256	2.226718898640622	
11.645	2.194	2.3100093751413917	
11.65	2.061	2.324553024432114	
11.655	1.893	2.2811600811260258	
11.66	1.778	2.192909688222649	
11.665	1.450	2.061230626057704	
11.67	1.210	1.8868610119875187	
11.675	1.146	1.6864210443782535	
11.68	1.173	1.4919100327314938	
11.685	0.901	1.3220597837035464	
11.69	0.820	1.170685866111826	
11.695	0.741	1.0331564704434095	
11.7	0.369	0.8956165016403272	
11.705	-0.135	0.7250288777945091	
11.71	-0.339	0.49787736100285007	
11.715	-0.466	0.23436598812359588	
11.72	-0.576	-0.025082027661864438	
11.725	-0.601	-0.24864010523204547	
11.73	-0.569	-0.4210718520502748	
11.735	-0.605	-0.5378416360816892	
11.74	-0.573	-0.603322232942457	
11.745	-0.555	-0.6299094070535873	
11.75	-0.595	-0.6333179593920175	
11.755	-0.639	-0.6278718586316245	
11.76	-0.685	-0.626154069859213	
11.765	-0.578	-0.6296702514695838	
11.77	-0.546	-0.6260338889533142	
11.775	-0.482	-0.6066567568177303	
11.78	-0.439	-0.5751649853437106	
11.785	-0.443	-0.5378563003036312	
11.79	-0.390	-0.49829523539753573	
11.795	-0.359	-0.4589607988509362	
11.8	-0.361	-0.42436075075007934	
11.805	-0.375	-0.3968247498476828	
11.81	-0.362	-0.37513494750933474	
11.815	-0.371	-0.3647276930916993	
11.82	-0.401	-0.36305360209919796	
11.825	-0.317	-0.36161944546274594	
11.83	-0.266	-0.35416554294966274	
11.835	-0.320	-0.34089049431766427	
11.84	-0.278	-0.3252839802115088	
11.845	-0.294	-0.3099297491080416	
11.85	-0.294	-0.30138513816965656	
11.855	-0.260	-0.2928454356318596	
11.86	-0.207	-0.28108006995027	
11.865	-0.126	-0.260702619138617	
11.87	-0.054	-0.22709540868028372	
11.875	0.046	-0.17559370209536676	
11.88	-0.011	-0.11712520670307405	
11.885	-0.185	-0.07597814614543444	
11.89	-0.287	-0.07134487048741692	
11.895	-0.333	-0.10485831133207417	
11.9	-0.329	-0.163391592600914	
11.905	-0.300	-0.22191808609852404	
11.91	-0.199	-0.25900227702819756	
11.915	-0.086	-0.2676335968047719	
11.92	-0.049	-0.24219200395202983	
11.925	0.244	-0.18058340860251576	
11.93	0.276	-0.08398660134360618	
11.935	0.120	0.01897317100135687	
11.94	0.131	0.09755546548166653	
11.945	0.226	0.14725573468711292	
11.95	0.275	0.18266728897406292	
11.955	0.492	0.22394548639549677	
11.96	1.187	0.31803795408156205	
11.965	1.848	0.5226035707085889	
11.97	2.117	0.8478072478632687	
11.975	2.244	1.2372189732994578	
11.98	2.456	1.6190248774981875	
11.985	2.783	1.9640944549787989	
11.99	3.061	2.28449574150578	
11.995	3.083	2.5741791399015765	
12.0	3.084	2.8076975608662185	
12.005	3.000	2.9698822815603676	
12.01	2.947	3.0588800881023204	
12.015	2.860	3.0784856713969493	
12.02	2.525	3.0357164051821055	
12.025	2.369	2.9302059270063787	
12.03	2.249	2.7770899830841502	
12.035	1.940	2.5930766249883144	
12.04	1.786	2.390447676870907	
12.045	1.682	2.183257147074897	
12.05	1.439	1.979789348408983	
12.055	1.147	1.7778763657293022	
12.06	1.086	1.5748947494753116	
12.065	1.007	1.3825836831879803	
12.07	0.657	1.2047811550697531	
12.075	0.551	1.0291752901204856	
12.08	0.458	0.8560915136335714	
12.085	0.324	0.6931733626441879	
12.09	0.266	0.5494655485297708	
12.095	0.203	0.4271743008070583	
12.1	0.151	0.3248327732545388	
12.105	0.085	0.24097562639571993	
12.11	0.091	0.17682313346974873	
12.115	0.070	0.1265258369334697	
12.12	-0.046	0.08587913462110669	
12.125	-0.084	0.04717452839774602	
12.13	-0.078	0.005991950430402587	
12.135	-0.231	-0.03878874004427665	
12.14	-0.283	-0.09150010623506712	
12.145	-0.324	-0.14992859393286387	
12.15	-0.407	-0.21517596818875237	
12.155	-0.465	-0.28094727137505326	
12.16	-0.448	-0.3422375261859819	
12.165	-0.454	-0.3945227716106589	
12.17	-0.532	-0.4350253643628216	
12.175	-0.535	-0.46782474529348783	
12.18	-0.515	-0.49509429068227523	
12.185	-0.541	-0.5167226756919682	
12.19	-0.533	-0.5284289518648679	
12.195	-0.506	-0.5340119533638383	
12.2	-0.509	-0.5341847399050746	
12.205	-0.520	-0.5298510686689282	
12.21	-0.498	-0.5232838677517813	
12.215	-0.509	-0.5176096866708473	
12.22	-0.526	-0.5149540770750689	
12.225	-0.420	-0.5077869170802476	
12.23	-0.347	-0.49017314454885696	
12.235	-0.333	-0.45870183917012974	
12.24	-0.265	-0.4173638953005163	
12.245	-0.222	-0.369073535184679	
12.25	-0.341	-0.32722060250243334	
12.255	-0.547	-0.3128154462781413	
12.26	-0.691	-0.344353810861895	
12.265	-0.720	-0.4196712464489885	
12.27	-0.705	-0.5108645395288065	
12.275	-0.558	-0.5837542557559382	
12.28	-0.375	-0.6132336567832295	
12.285	-0.274	-0.5896364899722901	
12.29	-0.170	-0.518283000664147	
12.295	-0.148	-0.42115488751186125	
12.3	-0.159	-0.32625424154036253	
12.305	-0.168	-0.24870855575790327	
12.31	-0.158	-0.19333857872613447	
12.315	-0.210	-0.16374705950106472	
12.32	-0.217	-0.1558523170711516	
12.325	-0.150	-0.15873694052686732	
12.33	-0.138	-0.1613114553363319	
12.335	-0.225	-0.1636869421110173	
12.34	-0.184	-0.1692662899351749	
12.345	-0.118	-0.17315318254477324	
12.35	-0.089	-0.16824300099595257	
12.355	-0.083	-0.15167006417150675	
12.36	-0.035	-0.12733397746747818	
12.365	0.023	-0.099743564554727	
12.37	-0.023	-0.06881477682567397	
12.375	0.114	-0.034743974807807956	
12.38	0.217	0.007659044155426168	
12.385	0.166	0.05835396763529926	
12.39	0.223	0.10875134488611489	
12.395	0.149	0.1497738759465066	
12.4	0.070	0.16773363223814602	
12.405	0.047	0.16136044522785836	
12.41	0.056	0.14063208669558103	
12.415	0.049	0.11223751099557137	
12.42	-0.060	0.08122580769039535	
12.425	-0.028	0.048234768401836485	
12.43	-0.031	0.015622123011458757	
12.435	-0.063	-0.010603653023213387	
12.44	-0.107	-0.033235178191539684	
12.445	-0.136	-0.05726314948843119	
12.45	-0.116	-0.08222671027044537	
12.455	-0.118	-0.10157825897319085	
12.46	-0.110	-0.11240225270870581	
12.465	-0.071	-0.11678934083720158	
12.47	-0.081	-0.11371421914457899	
12.475	-0.055	-0.10275066950990405	
12.48	-0.038	-0.08943981067947945	
12.485	-0.106	-0.07860418200034139	
12.49	-0.084	-0.07318943680657214	
12.495	-0.122	-0.07428804947154044	
12.5	-0.164	-0.0852701465796881	
12.505	-0.174	-0.10355675237934976	
12.51	-0.158	-0.12338462990507497	
12.515	-0.132	-0.13981941231971584	
12.52	-0.152	-0.14871805622975443	
12.525	-0.122	-0.15072142786312198	
12.53	-0.092	-0.1464452731340965	
12.535	-0.141	-0.13861953194803017	
12.54	-0.136	-0.13216998100586017	
12.545	-0.147	-0.1302821580111559	
12.55	-0.158	-0.13328655694656572	
12.555	-0.168	-0.13954341191165065	
12.56	-0.167	-0.14537389235378703	
12.565	-0.158	-0.15284715343375346	
12.57	-0.182	-0.15972427988287508	
12.575	-0.127	-0.16269590367144277	
12.58	-0.116	-0.15945126784385083	
12.585	-0.190	-0.15464252443586357	
12.59	-0.207	-0.15616148191957263	
12.595	-0.219	-0.16426975412731706	
12.6	-0.223	-0.1802996054543643	
12.605	-0.158	-0.1915443898331078	
12.61	-0.037	-0.18833869920430601	
12.615	0.128	-0.15681937633658943	
12.62	0.152	-0.09572654665330035	
12.625	-0.008	-0.16269590367144277	
12.63	-0.287	0.003496572509422267	
12.635	-0.530	-0.033715831338537276	
12.64	-0.566	-0.13316041565112344	
12.645	-0.520	-0.25821422597385724	
12.65	-0.365	-0.36329323948570785	
12.655	-0.214	-0.4155287556266332	
12.66	-0.054	-0.40227000239896005	
12.665	0.009	-0.3378340613094381	
12.67	0.012	-0.24480311383847575	
12.675	0.183	-0.14266010433672197	
12.68	0.227	-0.03839391745903932	
12.685	0.145	0.05426971958166308	
12.69	0.116	0.12079535304020662	
12.695	0.168	0.15681018591289042	
12.7	0.174	0.17267663247228554	
12.705	0.197	0.18237708703276762	
12.71	0.224	0.19070998677274947	
12.715	0.250	0.20018802406552777	
12.72	0.217	0.21017116554576443	
12.725	0.264	0.2223262234956038	
12.73	0.267	0.23363257445144175	
12.735	0.203	0.2402733742381686	
12.74	0.244	0.24280287398537037	
12.745	0.400	0.2508590602457412	
12.75	0.431	0.27469571600533227	
12.755	0.470	0.31535339103826915	
12.76	0.453	0.36371573530158	
12.765	0.435	0.40219462857187527	
12.77	0.227	0.41812392232110257	
12.775	0.191	0.40029356159186336	
12.78	0.250	0.3566531725047547	
12.785	0.166	0.3072916715400149	
12.79	0.162	0.262800942737094	
12.795	0.056	0.21783583753719316	
12.8	-0.074	0.16265715163246824	
12.805	-0.115	0.0973565850075788	
12.81	-0.141	0.027743524030549967	
12.815	-0.136	-0.03781301558809123	
12.82	-0.194	-0.0908479014039579	
12.825	-0.190	-0.13263310840719267	
12.83	-0.214	-0.16436396320959346	
12.835	-0.275	-0.19276477000300415	
12.84	-0.260	-0.21715484345025518	
12.845	-0.234	-0.2361234579581664	
12.85	-0.199	-0.24638209110898468	
12.855	-0.199	-0.24362402188443438	
12.86	-0.165	-0.23120330474314693	
12.865	-0.139	-0.21486681348767117	
12.87	-0.156	-0.19488802941644412	
12.875	-0.121	-0.17456893094369458	
12.88	-0.078	-0.15437475161935915	
12.885	-0.130	-0.13583670939226136	
12.89	-0.092	-0.12110704774786936	
12.895	-0.066	-0.10808943577733442	
12.9	-0.129	-0.09947304343479926	
12.905	-0.158	-0.09863325597303126	
12.91	-0.142	-0.10613689796982705	
12.915	-0.147	-0.11791268854138251	
12.92	-0.239	-0.13392887808583143	
12.925	-0.225	-0.15451051710218777	
12.93	-0.242	-0.17938094431584645	
12.935	-0.309	-0.20688586357244576	
12.94	-0.223	-0.23106188975870842	
12.945	-0.152	-0.241050095453764	
12.95	-0.127	-0.23350216479119024	
12.955	-0.122	-0.21061576880878785	
12.96	-0.110	-0.18110082312192982	
12.965	-0.078	-0.1539479896749963	
12.97	-0.093	-0.12994402928976054	
12.975	-0.043	-0.10646174516502345	
12.98	0.029	-0.08238369095484507	
12.985	0.035	-0.05492503026150847	
12.99	0.152	-0.018029331242236185	
12.995	0.119	0.02496759592876751	
13.0	-0.210	0.04840299513975217	
13.005	-0.381	0.019309953328142244	
13.01	-0.523	-0.06506936892760018	
13.015	-0.575	-0.1889363915557803	
13.02	-0.578	-0.3189841088126652	
13.025	-0.460	-0.423421277809073	
13.03	-0.254	-0.4782870420733123	
13.035	-0.109	-0.46791931115242547	
13.04	0.053	-0.3940526216534087	
13.045	0.143	-0.27797363579643386	
13.05	0.021	-0.1555676003187984	
13.055	0.049	-0.05472592754956784	
13.06	0.099	0.016968134005121826	
13.065	0.162	0.06610653734385229	
13.07	0.018	0.09793671376753038	
13.075	0.067	0.10951330743306367	
13.08	0.209	0.11073107783045825	
13.085	0.278	0.12505389303688946	
13.09	0.389	0.1638967244188128	
13.095	0.434	0.22204472203050107	
13.1	0.365	0.28245761117287216	
13.105	0.362	0.3312677803690206	
13.11	0.383	0.3629713773991308	
13.115	0.345	0.3781075308156723	
13.12	0.270	0.3779360217375962	
13.125	0.391	0.36853483233484385	
13.13	0.479	0.36574215611696254	
13.135	0.324	0.37303020455952923	
13.14	0.354	0.3768568513554087	
13.145	0.372	0.37503231111273966	
13.15	0.290	0.36750132887266207	
13.155	0.191	0.348275796016292	
13.16	0.130	0.3139064337092794	
13.165	0.072	0.2611290538876622	
13.17	-0.064	0.1960117196590857	
13.175	-0.089	0.12346808164132755	
13.18	-0.090	0.04868044451884372	
13.185	-0.132	-0.016866142576713403	
13.19	-0.139	-0.06710933429677648	
13.195	-0.155	-0.10505939556492938	
13.2	-0.207	-0.13646619623651574	
13.205	-0.255	-0.16363369837815012	
13.21	-0.272	-0.1911450627243444	
13.215	-0.303	-0.22191137383475132	
13.22	-0.307	-0.25090150365234964	
13.225	-0.292	-0.2735132538444608	
13.23	-0.298	-0.28939778877093036	
13.235	-0.350	-0.30185512135799153	
13.24	-0.347	-0.31306295887500357	
13.245	-0.287	-0.3221084403789882	
13.25	-0.297	-0.3244851942515965	
13.255	-0.255	-0.318567489365979	
13.26	-0.254	-0.3041505343399207	
13.265	-0.249	-0.2889643441739098	
13.27	-0.300	-0.2768739657706399	
13.275	-0.266	-0.26949716818430686	
13.28	-0.286	-0.2684519371656434	
13.285	-0.378	-0.27585605201717356	
13.29	-0.388	-0.2930274858365791	
13.295	-0.384	-0.31814269618617813	
13.3	-0.436	-0.34651269128342166	
13.305	-0.469	-0.37553323765144486	
13.31	-0.420	-0.4021539981456963	
13.315	-0.401	-0.4209873558420439	
13.32	-0.411	-0.42883036135867225	
13.325	-0.361	-0.4244747662703111	
13.33	-0.312	-0.41148949108496014	
13.335	-0.390	-0.3938346690123342	
13.34	-0.442	-0.38199116365274177	
13.345	-0.478	-0.386201748682206	
13.35	-0.506	-0.40653991949842366	
13.355	-0.475	-0.43146252196973806	
13.36	-0.419	-0.4491555938223661	
13.365	-0.341	-0.4530495254837288	
13.37	-0.378	-0.43978716182269	
13.375	-0.451	-0.42143772824725606	
13.38	-0.553	-0.4205934992164056	
13.385	-0.712	-0.44787659522763346	
13.39	-0.717	-0.5018918309638746	
13.395	-0.695	-0.5662011658559589	
13.4	-0.585	-0.6196040004432621	
13.405	-0.449	-0.63736674452614	
13.41	-0.287	-0.6090769022411198	
13.415	-0.147	-0.5381514172012978	
13.42	-0.101	-0.4357935642028427	
13.425	-0.035	-0.32131653485552414	
13.43	-0.017	-0.21464322828979968	
13.435	-0.057	-0.1299618328156527	
13.44	-0.003	-0.06878653328788242	
13.445	0.024	-0.028185734264730308	
13.45	0.027	-0.0007597047902271404	
13.455	0.137	0.023648143459986837	
13.46	0.072	0.050007509306843646	
13.465	0.039	0.06570788832292294	
13.47	-0.017	0.06812359376839472	
13.475	0.024	0.0598382687842068	
13.48	0.050	0.04736658177161311	
13.485	0.003	0.03690871304698985	
13.49	0.033	0.03132062124993989	
13.495	0.128	0.0319294378775367	
13.5	0.151	0.04409823222105879	
13.505	0.276	0.07664481307734525	
13.51	0.376	0.12918896290759904	
13.515	0.347	0.19263200136743666	
13.52	0.284	0.24999888168540144	
13.525	0.374	0.2939851057009072	
13.53	0.272	0.3203830796490574	
13.535	0.221	0.325716689214924	
13.54	1.196	0.35842529609545937	
13.545	2.174	0.5292421549894059	
13.55	2.589	0.888140331958211	
13.555	2.947	1.3774981955630539	
13.56	3.046	1.8971806669042799	
13.565	3.025	2.3566856589172573	
13.57	2.973	2.7048573021037927	
13.575	2.860	2.9247976395983626	
13.58	2.731	3.0184558542737565	
13.585	2.549	3.008785249912479	
13.59	2.382	2.9211666484890086	
13.595	2.275	2.782019494898833	
13.6	2.038	2.611178479710942	
13.605	1.903	2.427469613044531	
13.61	1.789	2.243128271588608	
13.615	1.641	2.064856740251403	
13.62	1.440	1.895987339046362	
13.625	1.260	1.7317578725360443	
13.63	1.243	1.5705455795233014	
13.635	1.060	1.421938368462726	
13.64	1.017	1.2901330471709336	
13.645	0.903	1.1719911995054981	
13.65	0.753	1.0602744930411236	
13.655	0.649	0.9524629906518357	
13.66	0.570	0.8450481267347647	
13.665	0.525	0.7418980107119462	
13.67	0.453	0.6490377283389416	
13.675	0.452	0.572714690607746	
13.68	0.414	0.5105434346659627	
13.685	0.259	0.4549681310184801	
13.69	0.220	0.399086585244032	
13.695	0.191	0.3389661617735801	
13.7	0.072	0.2763203715578286	
13.705	-0.020	0.2094501996247773	
13.71	0.041	0.14300719933011505	
13.715	0.125	0.09094942285763408	
13.72	0.105	0.06607830698497218	
13.725	0.097	0.06365465777854092	
13.73	0.093	0.0685199445189681	
13.735	-0.003	0.06902004851880586	
13.74	0.013	0.06307750157396362	
13.745	0.003	0.04991690398362835	
13.75	-0.141	0.027343464071153123	
13.755	-0.278	-0.014533141881620255	
13.76	-0.398	-0.08105978020120061	
13.765	-0.428	-0.17008760634265244	
13.77	-0.491	-0.2628882641883753	
13.775	-0.382	-0.34133790481984005	
13.78	-0.263	-0.014533141881620255	
13.785	-0.167	-0.014533141881620255	
13.79	-0.034	-0.3458776548022943	
13.795	0.062	-0.2691103028530791	
13.8	0.035	-0.1766553521797507	
13.805	0.084	-0.08848569381081252	
13.81	0.108	-0.01306625758039539	
13.815	0.096	0.04287444564904672	
13.82	-0.026	0.07511227751449412	
13.825	-0.029	0.07963444818057328	
13.83	-0.017	0.06145117713905955	
13.835	-0.086	0.03307162960459294	
13.84	-0.046	0.004133225761607645	
13.845	-0.061	-0.022154018663277847	
13.85	-0.093	-0.044658257070611794	
13.855	-0.071	-0.06142199404610374	
13.86	-0.063	-0.07106725173198428	
13.865	-0.023	-0.07415388833688344	
13.87	0.009	-0.06682141280218223	
13.875	0.116	-0.04430701614601773	
13.88	0.145	-0.0075882235295834065	
13.885	0.018	0.030053524855711087	
13.89	0.055	0.0551573766047251	
13.895	0.065	0.06682084843484813	
13.9	-0.006	0.06631769480834879	
13.905	-0.032	0.055592688660075634	
13.91	-0.020	0.03791762096394319	
13.915	-0.113	0.010825363420291256	
13.92	-0.187	-0.023817031137054055	
13.925	-0.194	-0.06633303588181792	
13.93	-0.200	-0.11160576214410779	
13.935	-0.194	-0.15089876359765522	
13.94	-0.130	-0.17381024285576613	
13.945	-0.116	-0.17919242242603065	
13.95	-0.211	-0.17667491620110712	
13.955	-0.193	-0.1763944627613142	
13.96	-0.182	-0.1780913373750956	
13.965	-0.170	-0.18116438126677958	
13.97	-0.187	-0.18180098289130997	
13.975	-0.145	-0.17934057408812754	
13.98	-0.130	-0.17360089526153955	
13.985	-0.216	-0.16890109119745317	
13.99	-0.194	-0.1678533784938453	
13.995	-0.167	-0.17220118138443213	
14.0	-0.219	-0.17863826388815773	
14.005	-0.182	-0.18440275538539458	
14.01	-0.104	-0.18411061297920966	
14.015	-0.112	-0.17412767606734475	
14.02	-0.159	-0.15979515769386105	
14.025	-0.155	-0.14839433167507698	
14.03	-0.121	-0.1435941932974636	
14.035	-0.144	-0.14085170634397182	
14.04	-0.126	-0.1368767063411514	
14.045	-0.084	-0.13122888235019572	
14.05	-0.139	-0.12559536759654177	
14.055	-0.170	-0.12340332921416894	
14.06	-0.181	-0.1291744360771836	
14.065	-0.179	-0.1421211539884542	
14.07	-0.168	-0.15574550785313598	
14.075	-0.173	-0.16340957959894153	
14.08	-0.202	-0.1706182813824219	
14.085	-0.265	-0.18283369790567916	
14.09	-0.231	-0.19787525615011886	
14.095	-0.208	-0.21224046132602364	
14.1	-0.211	-0.22058269520870374	
14.105	-0.185	-0.22138943158696767	
14.11	-0.142	-0.21316450881142365	
14.115	-0.081	-0.19611039743744052	
14.12	-0.103	-0.17075503600260708	
14.125	-0.153	-0.14542195896149696	
14.13	-0.301	-0.13962620124642655	
14.135	-0.517	-0.170870435107302	
14.14	-0.512	-0.23890271062586677	
14.145	-0.448	-0.3192083580179307	
14.15	-0.431	-0.386555922401672	
14.155	-0.333	-0.4234047329453829	
14.16	-0.234	-0.42314165560447004	
14.165	-0.150	-0.39106655308622496	
14.17	-0.092	-0.33177972078083384	
14.175	-0.045	-0.2574338845277039	
14.18	0.033	-0.1805594523648474	
14.185	0.030	-0.10884790562123785	
14.19	0.084	-0.04293476406651857	
14.195	0.133	0.01180079288249214	
14.2	0.081	0.05542351723230934	
14.205	0.044	0.08252307219273824	
14.21	0.017	0.09084545059769839	
14.215	-0.037	0.07792838662001755	
14.22	-0.045	0.053168489161747816	
14.225	0.058	0.028586084751901268	
14.23	0.053	0.016500254597780345	
14.235	-0.064	0.011116512485210093	
14.24	0.021	0.005032419592577899	
14.245	0.152	0.00787398174183731	
14.25	0.102	0.025465778760824422	
14.255	0.140	0.05347018729168899	
14.26	0.169	0.08385214369595574	
14.265	0.163	0.11200782144038739	
14.27	0.094	0.13113869832367378	
14.275	0.119	0.14049282190193482	
14.28	0.143	0.14054320572275072	
14.285	0.020	0.13217513505231	
14.29	0.027	0.1149432611298844	
14.295	0.036	0.09083806198613678	
14.3	-0.040	0.06355015831467525	
14.305	-0.089	0.0324379461489555	
14.31	-0.071	-0.00022514713189975585	
14.315	-0.068	-0.03190687578417575	
14.32	-0.168	-0.058811077524691883	
14.325	-0.255	-0.09060941635325241	
14.33	-0.217	-0.1314546730646366	
14.335	-0.219	-0.16971514579084307	
14.34	-0.170	-0.19407679451733606	
14.345	-0.139	-0.20222024534093158	
14.35	-0.145	-0.19738368563194986	
14.355	-0.148	-0.1855244272093401	
14.36	-0.127	-0.17029486231520985	
14.365	-0.097	-0.15491418142922608	
14.37	-0.089	-0.1387493768286801	
14.375	-0.046	-0.11861969330455896	
14.38	-0.025	-0.09648572469364783	
14.385	-0.066	-0.07669553481008894	
14.39	-0.042	-0.060091763059546555	
14.395	-0.038	-0.049260129516955437	
14.4	-0.107	-0.0473738834630808	
14.405	-0.113	-0.05352254586969029	
14.41	-0.110	-0.06631755650677004	
14.415	-0.107	-0.08190040180857765	
14.42	-0.229	-0.09974318418720479	
14.425	-0.352	-0.13166073155948932	
14.43	-0.347	-0.18250339634805388	
14.435	-0.352	-0.23966045159764024	
14.44	-0.275	-0.2830602807923807	
14.445	-0.213	-0.30326157138705845	
14.45	-0.208	-0.3003671832137773	
14.455	-0.199	-0.2814857665692082	
14.46	-0.190	-0.25631681166442866	
14.465	-0.177	-0.23194453154545439	
14.47	-0.203	-0.21272872701978443	
14.475	-0.165	-0.19660409334667878	
14.48	-0.129	-0.18351951638223685	
14.485	-0.148	-0.17070097932411327	
14.49	-0.138	-0.15804236388619147	
14.495	-0.237	-0.15227512812020952	
14.5	-0.453	-0.1724484962425511	
14.505	-0.614	-0.23051437180293388	
14.51	-0.619	-0.3222832764257597	
14.515	-0.575	-0.4199410127508122	
14.52	-0.532	-0.4977211145275029	
14.525	-0.352	-0.5345468124772396	
14.53	-0.155	-0.5184793729838064	
14.535	-0.061	-0.44969366063797334	
14.54	0.003	-0.34402897014792616	
14.545	0.108	-0.2262717808818139	
14.55	0.111	-0.11243790503848552	
14.555	0.151	-0.01247334729644844	
14.56	0.137	0.0647032308632021	
14.565	0.168	0.11698802515633976	
14.57	0.120	0.148270309487254	
14.575	0.127	0.16245161983063897	
14.58	0.049	0.15841892722636847	
14.585	0.006	0.13624957859111192	
14.59	0.072	0.1080413829059881	
14.595	0.128	0.0867438689045264	
14.6	0.159	0.08151415425390092	
14.605	0.180	0.09358358456197831	
14.61	0.293	0.12077610446779102	
14.615	0.408	0.1639519805768778	
14.62	0.394	0.22427470511315076	
14.625	0.486	0.291524487338935	
14.63	0.458	0.35438886236288775	
14.635	0.382	0.4011968835461872	
14.64	0.464	0.42908871474932925	
14.645	0.484	0.4467348511662456	
14.65	0.400	0.4554364496111154	
14.655	0.331	0.4515994856825817	
14.66	0.269	0.42878804051789277	
14.665	0.091	0.38086701479293705	
14.67	0.067	0.31125614888386377	
14.675	0.056	0.23358706038087101	
14.68	0.007	0.16038959812717518	
14.685	-0.109	0.09217830656644647	
14.69	-0.052	0.031127200503983633	
14.695	-0.051	-0.017237015750072162	
14.7	-0.122	-0.05157403258151168	
14.705	-0.060	-0.07439178123569218	
14.71	-0.034	-0.08416922132417502	
14.715	-0.034	-0.08209829469024149	
14.72	-0.026	-0.07175463471546371	
14.725	-0.006	-0.05643524714542218	
14.73	0.062	-0.03758835623976135	
14.735	0.007	-0.016809177254537698	
14.74	0.061	0.004083651177984378	
14.745	0.093	0.02375138456400961	
14.75	0.024	0.040455302985846556	
14.755	0.067	0.051576711307910666	
14.76	0.053	0.05778944815964262	
14.765	0.015	0.05793314276018061	
14.77	-0.026	0.04924455361745181	
14.775	-0.028	0.03451110233461026	
14.78	0.049	0.01943988594233561	
14.785	-0.061	0.0072356773637481595	
14.79	-0.046	-0.004974025508991491	
14.795	-0.031	-0.017263605210529758	
14.8	-0.068	-0.03046830256007341	
14.805	-0.045	-0.040441692335308796	
14.81	-0.043	-0.04526420014775779	
14.815	-0.038	-0.0490005053520647	
14.82	-0.075	-0.050728545341661616	
14.825	-0.074	-0.05356212333088992	
14.83	-0.071	-0.058543371649142986	
14.835	-0.092	-0.06571389021446156	
14.84	-0.097	-0.072023551526045	
14.845	-0.068	-0.07727214067457383	
14.85	-0.101	-0.0834157340595737	
14.855	-0.051	-0.08447255527117697	
14.86	0.120	-0.07227950795421115	
14.865	0.226	-0.034922903374319796	
14.87	0.128	0.021269752216096064	
14.875	-0.135	0.06334909116714395	
14.88	-0.339	0.049427555002012305	
14.885	-0.518	-0.029723444875555047	
14.89	-0.509	-0.1480482851542565	
14.895	-0.407	-0.26823831370720097	
14.9	-0.303	-0.3543685452363039	
14.905	-0.110	-0.38245287503607384	
14.91	0.107	-0.3442417990541998	
14.915	0.276	-0.2449159619709569	
14.92	0.272	-0.10875899208930098	
14.925	0.238	0.02838776190121294	
14.93	0.246	0.13647614713093045	
14.935	0.275	0.20925064638180713	
14.94	0.360	0.2609525151554968	
14.945	0.453	0.30578403254983777	
14.95	0.405	0.3465557030887609	
14.955	0.403	0.3804681118146528	
14.96	0.486	0.4057680535511194	
14.965	0.522	0.43005793847461643	
14.97	0.450	0.4531890082153002	
14.975	0.405	0.4674348937272646	
14.98	0.455	0.46652086046724917	
14.985	0.310	0.4532138227424246	
14.99	0.368	0.4309562395224012	
14.995	0.516	0.41382316802226343	
15.0	0.432	0.41155361415497604	
15.005	0.464	0.4194757583488125	
15.01	0.473	0.432777666394524	
15.015	0.429	0.4420327674701246	
15.02	0.392	0.4451928066508533	
15.025	0.440	0.44145984461747495	
15.03	0.441	0.4375162959815021	
15.035	0.284	0.4272179676029598	
15.04	0.204	0.40094710516097776	
15.045	0.171	0.35377166376334984	
15.05	0.013	0.28954861188111936	
15.055	-0.052	0.2125002988345174	
15.06	-0.086	0.1277421383024019	
15.065	-0.126	0.045033349410934384	
15.07	-0.159	-0.026732676802366673	
15.075	-0.132	-0.08255204362329158	
15.08	-0.104	-0.11953094134314447	
15.085	-0.142	-0.13870396790464445	
15.09	-0.083	-0.14299968678394742	
15.095	-0.025	-0.13429149027554738	
15.1	-0.028	-0.1134230305452461	
15.105	-0.046	-0.08741923711619738	
15.11	-0.035	-0.06533194440361623	
15.115	-0.074	-0.05202410370291077	
15.12	-0.077	-0.04765028845270168	
15.125	-0.080	-0.05057883931693365	
15.13	-0.037	-0.054634240028472156	
15.135	-0.022	-0.05663479847002288	
15.14	-0.003	-0.048944351727009255	
15.145	0.000	-0.03740500907686825	
15.15	-0.043	-0.028434471056812464	
15.155	-0.078	-0.02632224505898924	
15.16	-0.086	-0.0323820398379348	
15.165	-0.074	-0.04508369360120763	
15.17	-0.129	-0.06055965110387704	
15.175	-0.133	-0.07656303390679488	
15.18	-0.138	-0.09572846365083854	
15.185	-0.176	-0.11560848772959106	
15.19	-0.173	-0.13287708212498212	
15.195	-0.156	-0.14846903295935746	
15.2	-0.152	-0.15945806500374948	
15.205	-0.116	-0.16122213476456712	
15.21	-0.109	-0.15438229576080587	
15.215	-0.083	-0.1431687497278603	
15.22	-0.049	-0.1255066206653075	
15.225	-0.069	-0.10449284896093766	
15.23	0.003	-0.08381658246247725	
15.235	0.047	-0.059633659093904945	
15.24	0.186	-0.022754769357016022	
15.245	0.221	0.029516106920453943	
15.25	-0.048	0.07541440148816404	
15.255	-0.278	0.07778465306484361	
15.26	-0.471	0.015621880744292042	
15.265	-0.550	-0.10127251433881325	
15.27	-0.523	-0.23548161125199113	
15.275	-0.437	-0.3513790849149597	
15.28	-0.254	-0.42084041599360233	
15.285	-0.061	-0.42363278741731314	
15.29	0.206	-0.35363440182678096	
15.295	0.321	-0.22349378002123071	
15.3	0.307	-0.06565594335369425	
15.305	0.447	0.08789574716148624	
15.31	0.516	0.22770529397780018	
15.315	0.499	0.34462712506742155	
15.32	0.461	0.4294752629590397	
15.325	0.408	0.4776470689328227	
15.33	0.345	0.48706329384293695	
15.335	0.270	0.46425735822030767	
15.34	0.285	0.4223713428368413	
15.345	0.293	0.3765112028802594	
15.35	0.270	0.33531616820582333	
15.355	0.302	0.3069291705606682	
15.36	0.412	0.29576010034804556	
15.365	0.400	0.3056306748367556	
15.37	0.411	0.3284887487322651	
15.375	0.435	0.35669466877462985	
15.38	0.482	0.38507910203829876	
15.385	0.408	0.4112522638931584	
15.39	0.383	0.4263733211129369	
15.395	0.441	0.4294913188871467	
15.4	0.290	0.42230380718824423	
15.405	0.310	0.40393326811645275	
15.41	0.290	0.3757181787548862	
15.415	0.206	0.3416041425826646	
15.42	0.134	0.3005290581486181	
15.425	0.088	0.25267778147658926	
15.43	0.044	0.19702714942839145	
15.435	-0.005	0.14130779702848079	
15.44	0.026	0.0914220216231835	
15.445	-0.017	0.051437049386691004	
15.45	-0.078	0.017314103550245395	
15.455	-0.051	-0.011996556999328561	
15.46	-0.115	-0.037313479149117805	
15.465	-0.101	-0.06243318635245259	
15.47	-0.083	-0.08040678952241205	
15.475	-0.097	-0.09029507973056422	
15.48	-0.122	-0.09802828740618592	
15.485	-0.101	-0.10469482976074612	
15.49	0.012	-0.10152435297117349	
15.495	0.076	-0.08156576245700947	
15.5	-0.025	-0.0517299477418954	
15.505	0.052	-0.022990168988682683	
15.51	0.039	0.001717772814033577	
15.515	-0.005	0.017539572092815273	
15.52	-0.040	0.022544989346391688	
15.525	-0.032	0.01572027638143951	
15.53	0.007	0.00500696681826673	
15.535	-0.029	-0.004719823410722971	
15.54	0.003	-0.009559208947138999	
15.545	-0.006	-0.011545695098663905	
15.55	-0.118	-0.017722393537980153	
15.555	-0.124	-0.03302871115400621	
15.56	-0.136	-0.05727713962739334	
15.565	-0.075	-0.0814130609792377	
15.57	-0.052	-0.09445102354943877	
15.575	-0.121	-0.09528931988261083	
15.58	-0.087	-0.09698220160414919	
15.585	-0.118	-0.09973494537613325	
15.59	-0.075	-0.09956142556586106	
15.595	-0.019	-0.09451462686740122	
15.6	-0.063	-0.08373580271867674	
15.605	-0.032	-0.07003478165900043	
15.61	0.020	-0.055230356335689346	
15.615	0.055	-0.036435347513240415	
15.62	0.079	-0.010500327151966827	
15.625	-0.009	0.014756245317212962	
15.63	-0.194	0.017008459231637664	
15.635	-0.378	-0.02084373718790182	
15.64	-0.431	-0.09855297415862219	
15.645	-0.428	-0.19544678336934707	
15.65	-0.436	-0.2877869161550989	
15.655	-0.324	-0.35403806510867686	
15.66	-0.176	-0.37911268549637767	
15.665	-0.083	-0.3574333728926957	
15.67	0.006	-0.29657219532606327	
15.675	0.117	-0.2081683952605824	
15.68	0.226	-0.10590982404614799	
15.685	0.226	0.00010660628049638868	
15.69	0.301	0.09844729972581488	
15.695	0.386	0.18460859378769975	
15.7	0.264	0.2531473615573657	
15.705	0.264	0.29587243947474395	
15.71	0.333	0.3148972677310261	
15.715	0.302	0.3205545772359393	
15.72	0.330	0.32337100741460006	
15.725	0.337	0.32683876609126694	
15.73	0.345	0.32911207332131387	
15.735	0.273	0.3280814787792905	
15.74	0.359	0.32745331236033404	
15.745	0.408	0.3306515760395928	
15.75	0.331	0.33915130570076996	
15.755	0.426	0.3508726404693769	
15.76	0.446	0.3679371575176432	
15.765	0.412	0.38655771589704785	
15.77	0.400	0.40132508025123215	
15.775	0.418	0.41184645399380965	
15.78	0.402	0.41515157786175705	
15.785	0.278	0.4080442150618622	
15.79	0.229	0.3864069632486905	
15.795	0.282	0.3506869069296917	
15.8	0.166	0.3111654802267393	
15.805	0.145	0.2708258599853812	
15.81	0.122	0.22793913379075703	
15.815	0.033	0.1825903078826112	
15.82	-0.055	0.13330792765052688	
15.825	-0.045	0.07983028346029493	
15.83	-0.029	0.030181089159290568	
15.835	-0.100	-0.009923559869234688	
15.84	-0.077	-0.0405920270247409	
15.845	-0.026	-0.061320634547837795	
15.85	-0.126	-0.07281295148295719	
15.855	-0.103	-0.08216390933775175	
15.86	-0.052	-0.08809195695893808	
15.865	-0.061	-0.08939303313626643	
15.87	-0.040	-0.08264108438120385	
15.875	-0.011	-0.06920279850313941	
15.88	0.047	-0.05285654922944122	
15.885	-0.043	-0.032874826969200605	
15.89	-0.009	-0.018600243751982812	
15.895	0.020	-0.009397525644256886	
15.9	-0.046	-0.005780180873823002	
15.905	-0.005	-0.005108966768737251	
15.91	-0.034	-0.007165430160045712	
15.915	-0.083	-0.016425559482461372	
15.92	-0.110	-0.03156975921463756	
15.925	-0.147	-0.052228872276783425	
15.93	-0.141	-0.07892723735663128	
15.935	-0.177	-0.10681546956120416	
15.94	-0.129	-0.1275499990096536	
15.945	-0.130	-0.14045418999586456	
15.95	-0.147	-0.14778329443773994	
15.955	-0.060	-0.14404298034242596	
15.96	-0.013	-0.12916738403398315	
15.965	-0.095	-0.107464727669743	
15.97	-0.130	-0.09155364442812522	
15.975	-0.144	-0.08921298137296052	
15.98	-0.092	-0.09595372056051242	
15.985	-0.089	-0.10181325610530587	
15.99	0.006	-0.09551938580356564	
15.995	0.073	-0.07646366690405904	
16.0	0.053	-0.04479912756499218	
16.005	-0.052	-0.013032957622133003	
16.01	-0.203	-0.007212296508414841	
16.015	-0.364	-0.04153450145955065	
16.02	-0.440	-0.11451883554934404	
16.025	-0.449	-0.20515966658813478	
16.03	-0.387	-0.29400116547745925	
16.035	-0.339	-0.35481058644099595	
16.04	-0.177	-0.37541830742141447	
16.045	-0.058	-0.3514760249986201	
16.05	-0.043	-0.2918672109367095	
16.055	0.156	-0.20694513717179364	
16.06	0.276	-0.10112564610847294	
16.065	0.223	0.01040843485435618	
16.07	0.261	0.10946753589287783	
16.075	0.263	0.18589027327672922	
16.08	0.269	0.23594165711617268	
16.085	0.180	0.26210320307570223	
16.09	0.247	0.26858683212115403	
16.095	0.224	0.26351874723242763	
16.1	-0.022	0.2420693942351554	
16.105	0.047	0.1980200010051626	
16.11	0.085	0.14789709310331234	
16.115	0.097	0.10945225179825789	
16.12	0.136	0.08948140548987117	
16.125	0.178	0.08988501221047514	
16.13	0.311	0.10899826713263423	
16.135	0.233	0.14615773953067734	
16.14	0.258	0.18652717136791314	
16.145	0.307	0.22048958126094673	
16.15	0.212	0.24516330537015618	
16.155	0.223	0.257021354605365	
16.16	0.241	0.2577888147772261	
16.165	0.159	0.24847421515351176	
16.17	0.116	0.229540907706337	
16.175	0.007	0.19778186458453426	
16.18	0.013	0.15093846484538773	
16.185	-0.077	0.09725772651625755	
16.19	-0.086	0.044529267414192705	
16.195	-0.152	-0.008597207992243325	
16.2	-0.202	-0.061779440410876886	
16.205	-0.170	-0.10890245162700117	
16.21	-0.118	-0.14226561897697154	
16.215	-0.121	-0.15752841346458885	
16.22	-0.081	-0.15637169401579723	
16.225	-0.064	-0.14122306443120658	
16.23	-0.100	-0.12411041585467458	
16.235	-0.132	-0.11071227063857839	
16.24	-0.080	-0.10245570457438205	
16.245	-0.077	-0.0976338521522406	
16.25	-0.106	-0.09377105541682573	
16.255	-0.064	-0.08988485371575441	
16.26	-0.038	-0.08330081642755248	
16.265	-0.048	-0.07454408618926456	
16.27	0.004	-0.06235383026515889	
16.275	-0.034	-0.04723421082533554	
16.28	-0.040	-0.03712618424452864	
16.285	-0.130	-0.036703238047705304	
16.29	-0.086	-0.04645705093777351	
16.295	-0.103	-0.061640878856984445	
16.3	-0.136	-0.07876444193083157	
16.305	-0.095	-0.09288462403973702	
16.31	-0.071	-0.10029794463825348	
16.315	-0.115	-0.10353649197064715	
16.32	-0.132	-0.10537104560300141	
16.325	-0.104	-0.10824074696070692	
16.33	-0.075	-0.11009323861008288	
16.335	-0.103	-0.10669196054718	
16.34	-0.109	-0.10247785657655045	
16.345	-0.092	-0.10063673143121529	
16.35	-0.095	-0.10075001824681593	
16.355	-0.086	-0.09789493644591502	
16.36	-0.156	-0.09731282761786866	
16.365	-0.145	-0.1055461088233303	
16.37	-0.071	-0.11336088490689192	
16.375	0.072	-0.1051996658716169	
16.38	0.114	-0.07408716020255096	
16.385	-0.038	-0.033736209768464996	
16.39	-0.205	-0.01348970498727064	
16.395	-0.356	-0.03964614562268277	
16.4	-0.472	-0.10981070218222354	
16.405	-0.419	-0.20188973235662352	
16.41	-0.341	-0.28623202423450494	
16.415	-0.280	-0.3395394062013053	
16.42	-0.144	-0.3513782491386199	
16.425	-0.009	-0.3171490918847651	
16.43	0.027	-0.25008766202147653	
16.435	0.047	-0.16678514207511141	
16.44	0.168	-0.08042671093328947	
16.445	0.230	0.005440596507587556	
16.45	0.140	0.08013900614690225	
16.455	0.162	0.13504918971543162	
16.46	0.208	0.16780015866977321	
16.465	0.172	0.1864401831850443	
16.47	0.183	0.1955270211882723	
16.475	0.217	0.19984234020263777	
16.48	0.208	0.20195620887054538	
16.485	0.108	0.19917826190095228	
16.49	0.224	0.19253616933474424	
16.495	0.263	0.19149947128565298	
16.5	0.117	0.19417592044809395	
16.505	0.143	0.1899939878940216	
16.51	0.203	0.18180297197325632	
16.515	0.284	0.18053308289298878	
16.52	0.319	0.19752374590615726	
16.525	0.372	0.23077330872213647	
16.53	0.385	0.2700087891982337	
16.535	0.276	0.30422566493942194	
16.54	0.266	0.3224367785955089	
16.545	0.258	0.3204638737163802	
16.55	0.140	0.30126187939529814	
16.555	0.124	0.2679740062935826	
16.56	0.029	0.22172250879166658	
16.565	-0.060	0.1625650762651085	
16.57	-0.129	0.09353881287787254	
16.575	-0.145	0.02270493154192461	
16.58	-0.136	-0.04396693129580363	
16.585	-0.129	-0.09369184310769789	
16.59	-0.087	-0.1215746036551976	
16.595	-0.075	-0.13154610935791405	
16.6	-0.101	-0.1276816081271872	
16.605	-0.058	-0.11702088327414625	
16.61	-0.008	-0.10030398573543473	
16.615	-0.068	-0.08140112117908374	
16.62	-0.092	-0.06744923873924069	
16.625	-0.148	-0.06534801526454156	
16.63	-0.104	-0.07597689695089091	
16.635	-0.126	-0.09066601014101074	
16.64	-0.193	-0.10460831025735697	
16.645	-0.153	-0.12358579090486653	
16.65	-0.133	-0.1396511835167601	
16.655	-0.110	-0.14598948410528642	
16.66	-0.107	-0.14233362220265	
16.665	-0.141	-0.13742745670115764	
16.67	-0.126	-0.13240828700176344	
16.675	-0.075	-0.126308821396954	
16.68	-0.060	-0.11701442946578086	
16.685	-0.132	-0.10568701552174406	
16.69	-0.118	-0.0995604537589577	
16.695	-0.112	-0.10159653071491306	
16.7	-0.187	-0.10870834459214772	
16.705	-0.139	-0.11996396123389898	
16.71	-0.121	-0.13030785267038608	
16.715	-0.187	-0.13846942780930271	
16.72	-0.171	-0.14740017716319867	
16.725	-0.150	-0.15527709588959066	
16.73	-0.176	-0.16104885188361767	
16.735	-0.207	-0.167693137570333	
16.74	-0.097	-0.1695151345942319	
16.745	-0.037	-0.16059154051019253	
16.75	-0.078	-0.13871542007444232	
16.755	-0.013	-0.1109528076993129	
16.76	-0.086	-0.08532166158357432	
16.765	-0.260	-0.0784919995896154	
16.77	-0.401	-0.10642412015524683	
16.775	-0.471	-0.17031223828178152	
16.78	-0.440	-0.25403501494198166	
16.785	-0.370	-0.327643402514096	
16.79	-0.176	-0.3645106312550853	
16.795	0.000	-0.3495830969881718	
16.8	0.081	-0.28266073335463754	
16.805	0.145	-0.1829515931451121	
16.81	0.183	-0.07436580057166702	
16.815	0.168	0.023539957430362766	
16.82	0.259	0.10362897685497754	
16.825	0.311	0.17066346264648038	
16.83	0.350	0.22794511047352228	
16.835	0.302	0.2743632684220622	
16.84	0.342	0.30742444543406156	
16.845	0.382	0.3293483029023003	
16.85	0.351	0.3463603512746234	
16.855	0.325	0.35604515410181103	
16.86	0.244	0.35358151468258453	
16.865	0.175	0.3305644681228209	
16.87	0.191	0.29567271096398495	
16.875	0.104	0.25562918598218287	
16.88	0.233	0.21593715071182223	
16.885	0.350	0.19943758118908045	
16.89	0.440	0.21847571991116974	
16.895	0.447	0.26431971401149434	
16.9	0.359	0.31532284034635677	
16.905	0.450	0.35807838287875116	
16.91	0.571	0.3976308175439003	
16.915	0.510	0.43953871667218913	
16.92	0.466	0.47464263414621444	
16.925	0.356	0.487649437033801	
16.93	0.278	0.46990711049572953	
16.935	0.171	0.42436087354792645	
16.94	0.130	0.35946148053689553	
16.945	0.094	0.2853425453918705	
16.95	-0.155	0.20231412980610997	
16.955	-0.156	0.10806276844382544	
16.96	-0.075	0.017644061783680644	
16.965	-0.052	-0.04841984015905638	
16.97	-0.068	-0.08232324486022674	
16.975	-0.074	-0.09535108093250619	
16.98	-0.045	-0.09707309899124887	
16.985	-0.009	-0.08858292098513042	
16.99	0.050	-0.06653949153490908	
16.995	0.073	-0.036694724530301856	
17.0	-0.016	-0.007652625822784685	
17.005	0.006	0.011089181867294441	
17.01	0.015	0.01857419258433307	
17.015	0.000	0.0195403998037919	
17.02	0.044	0.019718008608705314	
17.025	0.010	0.021638114856898132	
17.03	-0.049	0.017873894158997414	
17.035	-0.092	0.004424996640494188	
17.04	-0.087	-0.016527793073439462	
17.045	-0.052	-0.03872189332447341	
17.05	-0.083	-0.05663732765289418	
17.055	-0.052	-0.06586753384973956	
17.06	-0.093	-0.07143661338185958	
17.065	-0.113	-0.0784878950838574	
17.07	-0.132	-0.0872663234572055	
17.075	-0.153	-0.09934564223030982	
17.08	-0.126	-0.11414568513908945	
17.085	-0.130	-0.12456580061222876	
17.09	-0.100	-0.12848373623343035	
17.095	-0.122	-0.12774293039696616	
17.1	-0.228	-0.1316914326398016	
17.105	-0.171	-0.1418407952391728	
17.11	-0.167	-0.15540408903810188	
17.115	-0.222	-0.16752966604062366	
17.12	-0.203	-0.18027123187489053	
17.125	-0.097	-0.18529105441467694	
17.13	-0.017	-0.1741408340717337	
17.135	0.064	-0.13958699760535398	
17.14	0.065	-0.08746449415217883	
17.145	-0.165	-0.04475005424494248	
17.15	-0.440	-0.049766475146881255	
17.155	-0.556	-0.11488579964321063	
17.16	-0.553	-0.22336857960411638	
17.165	-0.474	-0.3345026593432924	
17.17	-0.310	-0.41127150870138135	
17.175	-0.141	-0.4282374357770243	
17.18	0.030	-0.3850945284949143	
17.185	0.120	-0.29163381130672417	
17.19	0.275	-0.16447043704350048	
17.195	0.383	-0.024661826277577157	
17.2	0.345	0.11225396091740317	
17.205	0.424	0.22908280873561646	
17.21	0.513	0.32366260734357044	
17.215	0.533	0.40048638511564877	
17.22	0.554	0.4626286915832252	
17.225	0.631	0.5147240815805391	
17.23	0.651	0.5569175618692972	
17.235	0.649	0.5943155217513544	
17.24	0.701	0.6264943148927758	
17.245	0.762	0.6553789161799866	
17.25	0.669	0.6822690613430276	
17.255	0.693	0.6990572261577568	
17.26	0.615	0.701671733135291	
17.265	0.551	0.6865024187065178	
17.27	0.615	0.6606154922033447	
17.275	0.644	0.6387381923465777	
17.28	0.632	0.6259530543347444	
17.285	0.527	0.616297547849902	
17.29	0.427	0.5964572560892699	
17.295	0.382	0.5573918399550648	
17.3	0.185	0.49827387843601917	
17.305	0.073	0.41601999430023495	
17.31	0.075	0.3176818980847742	
17.315	-0.043	0.21755881552029901	
17.32	-0.156	0.1216071922986639	
17.325	-0.170	0.027682034808603827	
17.33	-0.152	-0.054023760411149584	
17.335	-0.179	-0.11462150893463703	
17.34	-0.197	-0.15455123694257678	
17.345	-0.184	-0.1816526139839823	
17.35	-0.239	-0.19865061441107704	
17.355	-0.207	-0.2099181654978536	
