Time	Potential	EKG	Unnamed: 3
0.0	0.270	0.010157336574012115	
0.005	0.363	0.05931874762904016	
0.01	0.463	0.13827593801559318	
0.015	-0.020	0.20675510336297356	
0.02	-0.081	0.22190426652431317	
0.025	0.165	0.18840597538615012	
0.03	-0.075	0.14059009268867967	
0.035	-0.219	0.08328932691770663	
0.04	-0.013	0.019555415483611133	
0.045	-0.054	-0.03275793139925031	
0.05	-0.252	-0.07183243103170422	
0.055	-0.112	-0.10347875119592015	
0.06	-0.014	-0.12394945695227873	
0.065	-0.202	-0.1318573472357656	
0.07	-0.135	-0.13235721660929467	
0.075	0.191	-0.11876725649420045	
0.08	-0.028	-0.08661019672147133	
0.085	-0.129	-0.052358423167581436	
0.09	0.137	-0.02787524188388261	
0.095	0.049	-0.006507463686202208	
0.1	-0.161	0.006449384195497409	
0.105	-0.028	0.003676382255348964	
0.11	0.117	-0.0033918614051612166	
0.115	-0.190	-0.012346538039089293	
0.12	-0.220	-0.030614621760534005	
0.125	-0.066	-0.06420455582007711	
0.13	-0.214	-0.1017423699707829	
0.135	-0.350	-0.1388031378058754	
0.14	-0.159	-0.17446324370988542	
0.145	-0.240	-0.20733045262470176	
0.15	-0.465	-0.23903675407485825	
0.155	-0.333	-0.27317101657190557	
0.16	-0.216	-0.3020081169076569	
0.165	-0.411	-0.3217175123760002	
0.17	-0.382	-0.3327236033712201	
0.175	-0.158	-0.3337416733990892	
0.18	-0.286	-0.3269006818973826	
0.185	-0.388	-0.3131496698110565	
0.19	-0.222	-0.3000986929660394	
0.195	-0.268	-0.29523146950600715	
0.2	-0.420	-0.2964717366957561	
0.205	-0.243	-0.2959943034458009	
0.21	-0.133	-0.2906767742850209	
0.215	-0.280	-0.2791089643541793	
0.22	-0.199	-0.2558155859282292	
0.225	-0.193	-0.23429030913275378	
0.23	-0.636	-0.24514695938146572	
0.235	-0.934	-0.3145710012169806	
0.24	-0.818	-0.4356766331036393	
0.245	-0.819	-0.5780748280136638	
0.25	-0.879	-0.6989525737889744	
0.255	-0.520	-0.7627771593573691	
0.26	-0.165	-0.7512092572960039	
0.265	-0.208	-0.6645043314932506	
0.27	-0.107	-0.5239807462797879	
0.275	0.250	-0.3617650896036344	
0.28	-0.003	-0.20726930933691826	
0.285	-0.155	-0.08697536069396057	
0.29	0.208	-0.008286995546432177	
0.295	0.198	0.04607370585510753	
0.3	-0.068	0.08452488053876978	
0.305	0.203	0.11029187770365341	
0.31	0.362	0.13312478975870795	
0.315	0.000	0.15311508877576638	
0.32	-0.037	0.15783157906293105	
0.325	0.264	0.14363788955180046	
0.33	0.042	0.12467046587115782	
0.335	-0.058	0.10775327995259454	
0.34	0.347	0.10100709204260887	
0.345	0.512	0.12522070067450425	
0.35	0.211	0.18124579146135708	
0.355	0.487	0.25136987451468973	
0.36	0.710	0.32532409074574276	
0.365	0.287	0.3939182576147283	
0.37	0.350	0.43777518904054596	
0.375	0.631	0.45782607640456835	
0.38	0.230	0.4575818232666175	
0.385	-0.028	0.42361029897595115	
0.39	0.259	0.35809154929297815	
0.395	0.078	0.2792167593399373	
0.4	-0.216	0.1921466196875402	
0.405	-0.156	0.10140008753373322	
0.41	-0.064	0.0093637056970745	
0.415	-0.335	-0.07609202664391922	
0.42	-0.318	-0.14518551472591168	
0.425	-0.093	-0.1961427835551807	
0.43	-0.260	-0.23141820642329627	
0.435	-0.368	-0.2493391935009955	
0.44	-0.101	-0.2528667978775493	
0.445	-0.115	-0.2478232898131157	
0.45	-0.303	-0.2338599079613647	
0.455	-0.097	-0.21053009833845643	
0.46	0.050	-0.18265075738062653	
0.465	-0.223	-0.15517480862945388	
0.47	-0.202	-0.13215709787379398	
0.475	0.062	-0.11810745264084781	
0.48	-0.119	-0.10950774799642826	
0.485	-0.219	-0.10135109963073569	
0.49	0.079	-0.09077873757724506	
0.495	0.006	-0.07887681713057047	
0.5	-0.277	-0.07294007640570224	
0.505	-0.164	-0.07745657402656828	
0.51	-0.077	-0.09964837512867808	
0.515	-0.298	-0.12927067779864493	
0.52	-0.265	-0.15608363613486276	
0.525	-0.054	-0.17602330806592884	
0.53	-0.268	-0.19362446155672128	
0.535	-0.396	-0.21036988609031237	
0.54	-0.150	-0.22564565564453284	
0.545	-0.176	-0.23993737262427933	
0.55	-0.336	-0.2460299153650685	
0.555	-0.118	-0.23729439312506442	
0.56	-0.017	-0.2186018646687831	
0.565	-0.272	-0.19845455155535863	
0.57	-0.223	-0.18003741259181283	
0.575	0.061	-0.1628703475237243	
0.58	-0.136	-0.14676675263087885	
0.585	-0.199	-0.12844500999939754	
0.59	0.137	-0.10444567101037994	
0.595	0.047	-0.07596959717148519	
0.6	-0.339	-0.0572379575706122	
0.605	-0.413	-0.07521544356158016	
0.61	-0.533	-0.15055005385915374	
0.615	-0.854	-0.27765369283863217	
0.62	-0.808	-0.4209901486789951	
0.625	-0.558	-0.548661917516923	
0.63	-0.576	-0.6368835268714492	
0.635	-0.532	-0.6645020323017828	
0.64	-0.158	-0.6271880773281695	
0.645	-0.048	-0.5440006775876244	
0.65	-0.211	-0.4284439814932094	
0.655	0.015	-0.3019770353994497	
0.66	0.243	-0.1833886605126629	
0.665	-0.106	-0.08395835879521854	
0.67	-0.054	-0.01098347568190091	
0.675	0.359	0.038591070854029755	
0.68	0.021	0.07486370547787294	
0.685	-0.122	0.09428494083455166	
0.69	0.178	0.09507031736562871	
0.695	0.065	0.08294718702178788	
0.7	-0.202	0.06128102407321513	
0.705	0.047	0.03822770981860052	
0.71	0.221	0.022768934346692648	
0.715	-0.138	0.015796914377467934	
0.72	-0.119	0.011063777956071533	
0.725	0.261	0.00682362712704989	
0.73	-0.026	0.007702323583681543	
0.735	-0.071	0.01620094728615855	
0.74	0.395	0.038322223915896375	
0.745	0.258	0.07792070093393427	
0.75	-0.078	0.11607881304829536	
0.755	0.261	0.1433499969928655	
0.76	0.415	0.166858292342907	
0.765	-0.055	0.1846257437665837	
0.77	-0.074	0.17904897903600658	
0.775	0.174	0.14792660287705528	
0.78	-0.168	0.09663083262228699	
0.785	-0.275	0.0361412141287228	
0.79	0.017	-0.020614094524048394	
0.795	-0.116	-0.07207851195065461	
0.8	-0.353	-0.11495245189959633	
0.805	-0.165	-0.14760358788011302	
0.81	-0.029	-0.17212591505697478	
0.815	-0.291	-0.1874073446995842	
0.82	-0.269	-0.19089780964574543	
0.825	-0.006	-0.19101353229932133	
0.83	-0.153	-0.18843039211774065	
0.835	-0.228	-0.17486472206481457	
0.84	0.105	-0.14751576390409182	
0.845	0.021	-0.1171325556912392	
0.85	-0.199	-0.0880556150949467	
0.855	0.010	-0.0604963198637616	
0.86	0.186	-0.039091373568475654	
0.865	-0.176	-0.022577753133533877	
0.87	-0.083	-0.01185826492284924	
0.875	0.319	-0.0008582162269801473	
0.88	-0.054	0.015438614211938784	
0.885	-0.188	0.024032387419843065	
0.89	0.073	0.019631123322418714	
0.895	-0.060	-0.0021539478212751623	
0.9	-0.292	-0.0321945198512435	
0.905	-0.089	-0.06238488133781901	
0.91	0.076	-0.08601029746515951	
0.915	-0.202	-0.10071020367264921	
0.92	-0.129	-0.09982554158913848	
0.925	0.253	-0.08472519014197594	
0.93	-0.072	-0.06166985513326893	
0.935	-0.205	-0.04003317888905797	
0.94	0.181	-0.0242044782320696	
0.945	0.047	-0.013167090314206405	
0.95	-0.176	-0.005343402284956129	
0.955	0.159	0.0057185523198570055	
0.96	0.440	0.034090614491934346	
0.965	0.007	0.07814710345073983	
0.97	0.030	0.11813605281605959	
0.975	0.412	0.14337325306295148	
0.98	-0.049	0.15327578253573954	
0.985	-0.306	0.13288656698950235	
0.99	-0.147	0.07282745946092226	
0.995	-0.176	-0.016165896464403348	
1.0	-0.341	-0.10134157631732421	
1.005	-0.126	-0.1552280233199656	
1.01	0.188	-0.1759351607292113	
1.015	0.249	-0.14185407460356597	
1.02	0.835	-0.018684043940217762	
1.025	1.526	0.20947300119469148	
1.03	1.288	0.5081645130061407	
1.035	1.080	0.8038801555811169	
1.04	1.506	1.0409172128513031	
1.045	1.396	1.2077248701373346	
1.05	0.967	1.3045255983914434	
1.055	1.164	1.332806642445017	
1.06	1.164	1.303023474299272	
1.065	0.567	1.2230053768203752	
1.07	0.486	1.0972474745055267	
1.075	0.640	0.9384024933188573	
1.08	0.001	0.7551302086083456	
1.085	-0.188	0.5499730934540764	
1.09	0.099	0.3459676356933267	
1.095	-0.022	0.17075137467442056	
1.1	-0.249	0.03965954816313904	
1.105	-0.045	-0.0451407102818364	
1.11	0.119	-0.09200954827290427	
1.115	-0.190	-0.10888905301655868	
1.12	-0.097	-0.10368313237368733	
1.125	0.331	-0.07868114695521103	
1.13	-0.006	-0.04082090335430085	
1.135	-0.150	-0.002931934786265831	
1.14	0.172	0.021833796113331888	
1.145	-0.019	0.027660110047772142	
1.15	-0.283	0.012752451800914402	
1.155	-0.150	-0.016202531414821	
1.16	-0.028	-0.060143276580039914	
1.165	-0.291	-0.1037935157545105	
1.17	-0.254	-0.13562023319553845	
1.175	-0.022	-0.1598209623927405	
1.18	-0.240	-0.17982499550795825	
1.185	-0.306	-0.19078735241133687	
1.19	0.038	-0.18718865834873832	
1.195	-0.080	-0.17542129531980846	
1.2	-0.309	-0.16216522828409496	
1.205	-0.048	-0.14613993163422767	
1.21	0.137	-0.12722083859631267	
1.215	-0.152	-0.10281004099704202	
1.22	-0.095	-0.07255272568756911	
1.225	0.249	-0.04484849364988153	
1.23	-0.043	-0.018885650625902105	
1.235	-0.077	0.004252780278615623	
1.24	0.449	0.0378393717595116	
1.245	0.324	0.08954094811186979	
1.25	-0.112	0.13983845031718373	
1.255	0.114	0.16184410939423155	
1.26	0.181	0.15271094468664254	
1.265	-0.255	0.11921812313071675	
1.27	-0.205	0.0664736380094275	
1.275	0.090	0.006068011785977609	
1.28	-0.171	-0.04683758900306284	
1.285	-0.252	-0.08363659187094319	
1.29	0.055	-0.10428285794593534	
1.295	-0.080	-0.11552603201215354	
1.3	-0.284	-0.12297885980687326	
1.305	-0.060	-0.1231449129814023	
1.31	0.131	-0.11641979930598867	
1.315	-0.226	-0.10366498545860614	
1.32	-0.211	-0.09244059277538522	
1.325	0.023	-0.09410595295542895	
1.33	-0.193	-0.10785276269460049	
1.335	-0.258	-0.11948402531007465	
1.34	0.085	-0.12135932613135922	
1.345	-0.014	-0.11462944080852662	
1.35	-0.223	-0.10184796416674094	
1.355	-0.095	-0.0901230008167628	
1.36	-0.226	-0.10059736137872159	
1.365	-0.624	-0.1516678359871321	
1.37	-0.622	-0.23532359949993478	
1.375	-0.381	-0.3321538776786145	
1.38	-0.475	-0.41789946642111864	
1.385	-0.430	-0.4593667850486794	
1.39	0.110	-0.44129542573118097	
1.395	0.314	-0.35668484624655633	
1.4	0.102	-0.21481573016158534	
1.405	0.599	-0.04003518753868326	
1.41	0.777	0.14437099695270714	
1.415	0.319	0.31229789546946174	
1.42	0.531	0.437722623640258	
1.425	1.113	0.5378141337982618	
1.43	1.106	0.6530741946677772	
1.435	1.100	0.7977004319415782	
1.44	1.411	0.9485995174543506	
1.445	1.055	1.0681328166673922	
1.45	0.547	1.1132270910780693	
1.455	0.904	1.0839460624535369	
1.46	1.266	1.0322489868575242	
1.465	1.043	1.0125013590911458	
1.47	1.271	1.0398946528729534	
1.475	1.697	1.108577103832359	
1.48	1.463	1.208063495237204	
1.485	1.535	1.322945033386541	
1.49	2.148	1.4524396977900498	
1.495	2.056	1.6020515085229488	
1.5	1.656	1.7415901293342515	
1.505	1.833	1.8338486835620864	
1.51	1.848	1.8668456294242513	
1.515	1.307	1.8447324582023208	
1.52	1.512	1.7790291532358875	
1.525	1.992	1.7131501922936725	
1.53	1.561	1.678217146003845	
1.535	1.190	1.6473227622448077	
1.54	1.436	1.5839311816801727	
1.545	1.361	1.5018747499000904	
1.55	1.531	1.4433093525273466	
1.555	3.037	1.503823833479681	
1.56	3.067	1.7444883737288883	
1.565	3.055	2.096322401463869	
1.57	3.049	2.4560781653019426	
1.575	3.041	2.744346366020264	
1.58	3.041	2.9315016248067556	
1.585	3.044	3.0478300768471187	
1.59	3.041	3.1112726247858142	
1.595	3.046	3.1217845046221573	
1.6	3.055	3.1109459032533247	
1.605	3.057	3.1043228268290513	
1.61	3.063	3.088903742590893	
1.615	3.072	3.069941909108133	
1.62	3.078	3.0682837895170194	
1.625	2.844	3.060810303869833	
1.63	1.379	2.9506307311441136	
1.635	0.235	2.6249925732075816	
1.64	-0.135	2.066756487902043	
1.645	-0.556	1.3758353250888873	
1.65	-0.948	0.6784622393363602	
1.655	-0.993	0.06106451447498713	
1.66	-0.993	-0.4392648802031427	
1.665	-0.993	-0.7934521560767948	
1.67	-0.995	-0.9977096294087475	
1.675	-0.995	-1.095653869924825	
1.68	-0.993	-1.1328776849515076	
1.685	-0.993	-1.1224300685668582	
1.69	-0.993	-1.0876260207640032	
1.695	-0.995	-1.060319525341201	
1.7	-0.993	-1.0361361390143933	
1.705	-0.786	-0.9981027146615333	
1.71	-0.549	-0.9426666637976153	
1.715	-0.576	-0.861279641128263	
1.72	-0.504	-0.7566216742652574	
1.725	-0.240	-0.6479795946785631	
1.73	0.421	-0.5088531033258643	
1.735	1.437	-0.24905450918557198	
1.74	2.271	0.18743064631760667	
1.745	2.169	0.735501790712453	
1.75	1.842	1.2588252512555034	
1.755	2.096	1.6578634959634584	
1.76	2.275	1.9281927621218444	
1.765	2.250	2.109662596998879	
1.77	2.647	2.2514316730556576	
1.775	3.078	2.397061707172939	
1.78	2.913	2.559104412806956	
1.785	2.618	2.7017251703831704	
1.79	2.708	2.780171282253292	
1.795	2.436	2.7815579687854473	
1.8	2.464	2.7310511198474954	
1.805	3.080	2.6918854236250715	
1.81	3.077	2.7122445549553897	
1.815	3.078	2.7838551037249237	
1.82	3.081	2.8803438104437564	
1.825	3.080	2.965877119443323	
1.83	2.802	3.009228762173839	
1.835	2.365	2.9877520318823336	
1.84	2.426	2.8909993894563497	
1.845	2.003	2.7286819211359274	
1.85	1.630	2.515162220491761	
1.855	1.755	2.2776162434993577	
1.86	1.601	2.0482113984053014	
1.865	0.733	1.8140842815424814	
1.87	0.457	1.5331290078249609	
1.875	0.449	1.2106798240776047	
1.88	-0.020	0.8826391610449902	
1.885	-0.216	0.5708732464632581	
1.89	-0.130	0.289631499553911	
1.895	-0.367	0.0539367554351196	
1.9	-0.671	-0.14442530153745473	
1.905	-0.657	-0.31783410777012827	
1.91	-0.672	-0.46996438996043877	
1.915	-0.854	-0.5942839439332185	
1.92	-0.920	-0.6929401719138922	
1.925	-0.967	-0.7808449782667441	
1.93	-0.995	-0.8639674570390166	
1.935	-0.993	-0.9248312042236038	
1.94	-0.993	-0.9629385773191212	
1.945	-0.993	-0.9930705630329468	
1.95	-0.993	-1.0089217026422663	
1.955	-0.943	-1.0051179247064248	
1.96	-0.801	-0.9902773518337701	
1.965	-0.876	-0.9618757590048096	
1.97	-0.760	-0.9189012477065098	
1.975	-0.592	-0.864229760089575	
1.98	-0.697	-0.8057862222149041	
1.985	-0.753	-0.7516222546355511	
1.99	-0.708	-0.9548537685506284	
1.995	-0.879	-0.9548537685506284	
2.0	-0.993	-0.7396257099776742	
2.005	-0.993	-0.7893021054375807	
2.01	-0.992	-0.8534936250458083	
2.015	-0.995	-0.9145848220049172	
2.02	-0.995	-0.9548537685506284	
2.025	-0.995	-0.9805250630224372	
2.03	-0.995	-1.0016649948659762	
2.035	-0.995	-1.0083955008050713	
2.04	-0.993	-1.005472055403628	
2.045	-0.995	-1.0061878606026076	
2.05	-0.995	-1.0053955054147048	
2.055	-0.995	-0.9983151305555892	
2.06	-0.995	-0.9956628002928889	
2.065	-0.995	-0.9985252860920378	
2.07	-0.993	-0.9947595668082246	
2.075	-0.995	-0.9916127508690306	
2.08	-0.993	-0.9957411417866666	
2.085	-0.993	-0.995316567177646	
2.09	-0.822	-0.9834033739930134	
2.095	-0.799	-0.9582684204580312	
2.1	-0.831	-0.9204347771216083	
2.105	-0.567	-0.8671907605408137	
2.11	-0.468	-0.7946395784922314	
2.115	-0.682	-0.717655416464255	
2.12	-0.786	-0.6627537532066137	
2.125	-0.802	-0.6535544548004204	
2.13	-0.993	-0.6898445647980642	
2.135	-0.993	-0.7523550426081109	
2.14	-0.769	-0.8142966464546948	
2.145	-0.672	-0.8462745804584535	
2.15	-0.569	-0.8304734728290237	
2.155	-0.251	-0.7590962101236831	
2.16	-0.116	-0.6416229518278622	
2.165	-0.280	-0.5037388316079048	
2.17	-0.249	-0.38170425311154654	
2.175	-0.187	-0.29449321492927877	
2.18	-0.379	-0.2489202414278247	
2.185	-0.451	-0.24237944456208024	
2.19	-0.300	-0.2642615566598094	
2.195	-0.423	-0.29833908259265135	
2.2	-0.518	-0.3375356361365494	
2.205	-0.368	-0.37408309496709663	
2.21	-0.416	-0.40264087240575575	
2.215	-0.567	-0.4267498842072246	
2.22	-0.500	-0.45065526161975555	
2.225	-0.393	-0.46846204958720455	
2.23	-0.578	-0.48190175798014434	
2.235	-0.689	-0.5003611538673063	
2.24	-0.552	-0.5292853531992181	
2.245	-0.650	-0.5633311999842495	
2.25	-0.808	-0.5994951173866018	
2.255	-0.773	-0.6421369317909426	
2.26	-0.877	-0.6956905189306921	
2.265	-0.996	-0.7596792947735616	
2.27	-0.995	-0.8246474661306701	
2.275	-0.995	-0.8875456386368861	
2.28	-0.995	-0.9428605610400602	
2.285	-0.995	-0.9772652123385515	
2.29	-0.995	-0.9943246877781535	
2.295	-0.996	-1.0073888989152568	
2.3	-0.996	-1.0124344066364546	
2.305	-0.995	-1.0070761600190279	
2.31	-0.995	-1.003747465199966	
2.315	-0.995	-1.00473074110448	
2.32	-0.995	-0.9985551553791776	
2.325	-0.987	-0.9935086171079065	
2.33	-0.993	-0.9960188996917848	
2.335	-0.920	-0.99026588973093	
2.34	-0.593	-0.9591167469176201	
2.345	-0.556	-0.8944530529423541	
2.35	-0.556	-0.8026060545452653	
2.355	-0.312	-0.6958961186758283	
2.36	-0.295	-0.5856565658596473	
2.365	-0.453	-0.488989389871044	
2.37	-0.326	-0.4165466580146952	
2.375	-0.147	-0.361282412170455	
2.38	-0.283	-0.3151541919771779	
2.385	-0.330	-0.27942672896804566	
2.39	-0.165	-0.25696038265001286	
2.395	-0.240	-0.24546091038884496	
2.4	-0.356	-0.24179531830290163	
2.405	-0.194	-0.24280829361794967	
2.41	-0.196	-0.2445383318649957	
2.415	-0.420	-0.25012101932796876	
2.42	-0.373	-0.2665566680460574	
2.425	-0.216	-0.28914357097691157	
2.43	-0.347	-0.3052070441502093	
2.435	-0.359	-0.3124873448304112	
2.44	-0.219	-0.31384887218380075	
2.445	-0.324	-0.3134584803318714	
2.45	-0.426	-0.31588714129003526	
2.455	-0.251	-0.31875114387889336	
2.46	-0.228	-0.31748664824845146	
2.465	-0.448	-0.31619236709391213	
2.47	-0.385	-0.32055281593440516	
2.475	-0.237	-0.3300843486870166	
2.48	-0.384	-0.33724995156383514	
2.485	-0.428	-0.3415218479870771	
2.49	-0.208	-0.3438006908872072	
2.495	-0.281	-0.33844980182388135	
2.5	-0.584	-0.3369203361226669	
2.505	-0.744	-0.36878456183876623	
2.51	-0.995	-0.46155550033134346	
2.515	-0.993	-0.5971986875968829	
2.52	-0.995	-0.732449496564005	
2.525	-0.995	-0.8460824484979287	
2.53	-0.995	-0.9353411169783495	
2.535	-0.995	-0.987431298282543	
2.54	-0.995	-1.0106851851130325	
2.545	-0.995	-1.0246089238824114	
2.55	-0.996	-1.0259734944511054	
2.555	-0.995	-1.0154944424299646	
2.56	-0.995	-1.0095450965926562	
2.565	-0.995	-1.008484225521653	
2.57	-0.996	-0.9992884311651234	
2.575	-0.995	-0.9938766545403217	
2.58	-0.995	-0.9977123369189771	
2.585	-0.995	-0.9954984201038014	
2.59	-0.900	-0.9852486399735899	
2.595	-0.973	-0.9788203898278479	
2.6	-0.995	-0.9733576340529702	
2.605	-0.995	-0.9660379586113248	
2.61	-0.993	-0.971410637552427	
2.615	-0.995	-0.9830788419865508	
2.62	-0.995	-0.9840621494561866	
2.625	-0.995	-0.9863565928524106	
2.63	-0.995	-0.996284639799773	
2.635	-0.995	-0.996705822819792	
2.64	-0.993	-0.9914921319371127	
2.645	-0.993	-0.9970823393013035	
2.65	-0.995	-0.9990187572968541	
2.655	-0.770	-0.9813047019001013	
2.66	-0.624	-0.9411004854239104	
2.665	-0.767	-0.8830187210290217	
2.67	-0.642	-0.8107984942585864	
2.675	-0.419	-0.7395293037260857	
2.68	-0.540	-0.6710747595537963	
2.685	-0.478	-0.5990817927310386	
2.69	-0.171	-0.523440601736407	
2.695	-0.251	-0.44933786988230306	
2.7	-0.327	-0.3759407353304476	
2.705	0.194	-0.2934901279283759	
2.71	0.461	-0.1806643603996465	
2.715	0.282	-0.03408213954167572	
2.72	0.567	0.1284331615851847	
2.725	0.939	0.2933863003292481	
2.73	0.567	0.44812118206738955	
2.735	0.469	0.5654565088453378	
2.74	0.663	0.6265345872678328	
2.745	-0.384	0.5943854368896685	
2.75	-0.871	0.42307615036337687	
2.755	-0.850	0.13615328712966834	
2.76	-0.863	-0.19620895687914017	
2.765	-0.995	-0.49595975640874673	
2.77	-0.865	-0.7113885857529476	
2.775	-0.576	-0.8377303753529628	
2.78	-0.625	-0.8794334935260381	
2.785	-0.559	-0.8409155361484039	
2.79	-0.165	-0.7465176668421682	
2.795	-0.193	-0.6246406807469371	
2.8	-0.284	-0.4886339563815232	
2.805	0.307	-0.33915671782278456	
2.81	0.544	-0.17081598389874103	
2.815	0.172	0.007046508875471446	
2.82	0.603	0.17568642900052142	
2.825	1.222	0.34707536425363117	
2.83	0.929	0.5358979310806834	
2.835	1.049	0.7285992259503402	
2.84	1.692	0.9163264149794382	
2.845	1.521	1.1002659860347366	
2.85	1.205	1.2605800518313939	
2.855	1.723	1.3823221814729734	
2.86	1.896	1.4815546107572448	
2.865	1.466	1.5683577814568679	
2.87	1.781	1.6417606941245166	
2.875	2.166	1.7076470440440632	
2.88	1.751	1.7724524303420561	
2.885	1.903	1.8343316746396974	
2.89	2.427	1.905920169108947	
2.895	1.938	1.9751720684536727	
2.9	1.141	1.9870420799107351	
2.905	1.312	1.8976173016872788	
2.91	1.335	1.729781148654852	
2.915	0.938	1.5439558314645434	
2.92	1.404	1.3968764183192683	
2.925	2.065	1.3350754502768516	
2.93	1.874	1.3842630112814813	
2.935	2.114	1.5272127650392213	
2.94	2.748	1.7352294093166654	
2.945	2.540	1.970112468881097	
2.95	2.268	2.1858656810368307	
2.955	2.783	2.360878175745709	
2.96	2.774	2.490833622439531	
2.965	2.203	2.570641143376003	
2.97	2.343	2.5908666550025097	
2.975	2.676	2.5651557907918217	
2.98	2.238	2.520038395585433	
2.985	2.166	2.4721433012852625	
2.99	2.664	2.429382097674941	
2.995	2.307	2.3960555553027065	
3.0	1.974	2.363809146812455	
3.005	2.420	2.3280237969056934	
3.01	2.375	2.295847452462258	
3.015	1.919	2.2645872760514427	
3.02	2.195	2.234986240920042	
3.025	2.482	2.215200025234993	
3.03	2.019	2.2029488339055208	
3.035	1.932	2.19016518505304	
3.04	2.296	2.167410242599287	
3.045	1.948	2.1309846720893977	
3.05	1.584	2.077814074501304	
3.055	1.974	2.0120629173095685	
3.06	1.775	1.9357974190817702	
3.065	1.176	1.839563277123971	
3.07	1.321	1.7200019226251966	
3.075	1.586	1.5941746693765142	
3.08	1.051	1.4769671513989682	
3.085	0.863	1.366200703641904	
3.09	1.254	1.2563639789026966	
3.095	1.010	1.1570122426539218	
3.1	0.728	1.077923000705583	
3.105	1.095	1.0210155574577175	
3.11	1.005	0.9767367537345872	
3.115	0.461	0.9276839129120343	
3.12	0.733	0.8720162994943188	
3.125	0.997	0.81904876658014	
3.13	0.637	0.7800395695304456	
3.135	0.541	0.7563007992825856	
3.14	0.991	0.7412393679105445	
3.145	0.654	0.7269786939261107	
3.15	0.307	0.7060270488303865	
3.155	0.735	0.6729240798262747	
3.16	0.695	0.6376590242357124	
3.165	0.339	0.6058478299084685	
3.17	0.568	0.5840259031746569	
3.175	0.901	0.5758857758929072	
3.18	0.486	0.5811308019617814	
3.185	0.446	0.5924010631248944	
3.19	0.767	0.5980570444034446	
3.195	0.440	0.585959770436056	
3.2	0.181	0.5562079720616941	
3.205	0.570	0.5178341279150838	
3.21	0.585	0.4825462986158211	
3.215	0.061	0.4490088882810913	
3.22	0.236	0.40801018016676827	
3.225	0.551	0.36369792764572073	
3.23	0.189	0.3292598219461555	
3.235	0.218	0.3135362223946455	
3.24	0.702	0.31987950815371036	
3.245	0.299	0.3369810099739335	
3.25	-0.032	0.34139707999929525	
3.255	0.449	0.32766263625591485	
3.26	0.515	0.31444265503232705	
3.265	0.119	0.314287180408798	
3.27	0.383	0.3239728312581819	
3.275	0.785	0.34644206091066576	
3.28	0.464	0.3894841596336195	
3.285	0.252	0.4386608712781104	
3.29	0.284	0.4494707196192686	
3.295	-0.223	0.3839501574713131	
3.3	-0.463	0.25174549014569064	
3.305	-0.266	0.09048266738228687	
3.31	-0.176	-0.06879128650577966	
3.315	-0.181	-0.18036843533917568	
3.32	0.295	-0.19886950042551638	
3.325	0.768	-0.11681871146993036	
3.33	0.472	0.03654486728840933	
3.335	0.646	0.2228811193404177	
3.34	1.205	0.4193695788211432	
3.345	1.016	0.611930131418188	
3.35	0.744	0.7779087425570583	
3.355	1.182	0.8993687937310727	
3.36	1.161	0.9820553119697378	
3.365	0.710	1.0267302274367482	
3.37	1.003	1.0390179869225564	
3.375	1.365	1.0419478267398765	
3.38	0.938	1.05172822250947	
3.385	0.843	1.0599810404503742	
3.39	1.220	1.055055560322768	
3.395	1.005	1.04100180158333	
3.4	0.788	1.027254512188927	
3.405	1.219	1.0201574195475456	
3.41	1.097	1.0198910667060836	
3.415	0.620	1.0081044433191115	
3.42	0.936	0.9819773490716424	
3.425	1.214	0.9585948427180357	
3.43	0.802	0.9490116125668764	
3.435	0.751	0.9421774637676947	
3.44	1.106	0.9306383707044436	
3.445	0.783	0.9120753359702376	
3.45	0.408	0.8776277019845539	
3.455	0.623	0.8137747150990093	
3.46	0.406	0.7196776625508423	
3.465	-0.032	0.596618926950381	
3.47	0.122	0.46088016647633023	
3.475	0.402	0.3371311560264638	
3.48	-0.068	0.24142768475129062	
3.485	-0.135	0.16342533377788096	
3.49	0.142	0.09306704692059511	
3.495	-0.068	0.03319696022205193	
3.5	-0.211	-0.01180706037345753	
3.505	0.032	-0.040632282976607224	
3.51	0.017	-0.06158659792005284	
3.515	-0.208	-0.0737476779749382	
3.52	-0.080	-0.07620112648859213	
3.525	0.204	-0.07146667856303529	
3.53	-0.054	-0.054161029931245094	
3.535	-0.013	-0.02523324385802995	
3.54	0.409	0.016463386519037483	
3.545	0.195	0.06822302600779591	
3.55	-0.043	0.11675166112160427	
3.555	0.233	0.1459485181541123	
3.56	0.185	0.15405553008577502	
3.565	-0.113	0.145859450196826	
3.57	0.044	0.12576078236577454	
3.575	0.304	0.10492049739110251	
3.58	-0.042	0.09325425428594171	
3.585	-0.077	0.0841296083011312	
3.59	0.203	0.06978220719454088	
3.595	-0.083	0.05124162800675808	
3.6	-0.202	0.025437509261569576	
3.605	0.038	-0.002469443528373848	
3.61	-0.011	-0.029351432632249083	
3.615	-0.294	-0.054429723066806074	
3.62	-0.207	-0.08525400950132667	
3.625	-0.055	-0.11980629501965057	
3.63	1.051	-0.09022935876596794	
3.635	2.989	0.17987060286336162	
3.64	3.072	0.7503756092765488	
3.645	3.071	1.4460341491316273	
3.65	3.077	2.088742371744947	
3.655	3.077	2.596315640248799	
3.66	3.077	2.928368856124002	
3.665	3.086	3.113631738127456	
3.67	3.083	3.2087458508760616	
3.675	3.081	3.2322276073252527	
3.68	3.012	3.2036005282355546	
3.685	2.811	3.154384295380966	
3.69	2.620	3.072380539412842	
3.695	1.566	2.8992331688517945	
3.7	0.707	2.5774050052195183	
3.705	0.728	2.124339947203549	
3.71	0.600	1.6309381381733619	
3.715	0.258	1.1825484493520921	
3.72	0.698	0.8365025806192615	
3.725	1.054	0.6377846073908513	
3.73	0.646	0.5718303527318529	
3.735	0.626	0.5758282797688251	
3.74	0.936	0.6094982655114847	
3.745	0.554	0.644875474335252	
3.75	0.240	0.6481483196697179	
3.755	1.337	0.6489869477257617	
3.76	3.046	0.7996315590893623	
3.765	3.078	1.2039159654891658	
3.77	3.074	1.755734120113455	
3.775	3.074	2.2714691142131125	
3.78	3.081	2.6643329598814125	
3.785	2.653	2.919649868400354	
3.79	2.647	3.020836182996565	
3.795	2.081	2.968091370705663	
3.8	1.460	2.774580175421141	
3.805	1.338	2.4684585245728274	
3.81	0.872	2.089106068752686	
3.815	0.232	1.6642296786818176	
3.82	0.223	1.2278511073779073	
3.825	0.259	0.8312205242247468	
3.83	-0.167	0.5006786302112343	
3.835	-0.359	0.2299995046529168	
3.84	-0.457	-0.0014615798733584179	
3.845	-0.761	-0.2168072681672643	
3.85	-0.993	-0.42093676530787566	
3.855	-0.984	-0.6077651486359126	
3.86	-0.995	-0.7740963428507204	
3.865	-0.993	-0.9012887508570276	
3.87	-0.995	-0.9731427862011689	
3.875	-0.993	-1.0122515178183433	
3.88	-0.995	-1.036143342167899	
3.885	-0.995	-1.0357277936732425	
3.89	-0.938	-1.0197892164580815	
3.895	-0.918	-1.006900711147728	
3.9	-0.903	-0.9846190075161007	
3.905	-0.561	-0.9358164847961241	
3.91	-0.350	-0.8533171910809632	
3.915	-0.243	-0.7291551434389743	
3.92	0.403	-0.5460145673930354	
3.925	1.152	-0.27634112977760417	
3.93	1.144	0.07789603680603885	
3.935	1.365	0.46334180141587206	
3.94	1.706	0.8300618021807167	
3.945	1.266	1.1280328856329727	
3.95	0.761	1.2973926478536297	
3.955	0.848	1.3159292136372334	
3.96	0.615	1.219567097930486	
3.965	-0.045	1.037050728380181	
3.97	-0.220	0.776774994457113	
3.975	-0.342	0.4672955589502298	
3.98	-0.622	0.1512144209063122	
3.985	-0.744	-0.13544799817045627	
3.99	-0.879	-0.3853356427634255	
3.995	-0.993	-0.6048009681414896	
4.0	-0.995	-0.7790218262313073	
4.005	-0.995	-0.8982646248611971	
4.01	-0.995	-0.9786658904308069	
4.015	-0.995	-1.0244632773221465	
4.02	-0.996	-1.0361158084494282	
4.025	-0.996	-1.0341128321712074	
4.03	-0.996	-1.0326679700485808	
4.035	-0.996	-1.0211866908467158	
4.04	-0.995	-1.0076097400767539	
4.045	-0.995	-1.0039490518715541	
4.05	-0.995	-1.0007855988476457	
4.055	-0.995	-0.9923056269479623	
4.06	-0.996	-0.9919103680918914	
4.065	-0.995	-0.9963880537466915	
4.07	-0.995	-0.9919612463452518	
4.075	-0.995	-0.9912458630948887	
4.08	-0.995	-0.9967850572965096	
4.085	-0.995	-0.9950224650315497	
4.09	-0.995	-0.9915353572833724	
4.095	-0.995	-0.9961560634708457	
4.1	-0.995	-0.9977861525821863	
4.105	-0.995	-0.9920573234915013	
4.11	-0.996	-0.994026610816765	
4.115	-0.995	-0.9986231255767685	
4.12	-0.996	-0.9936947312585391	
4.125	-0.995	-0.9921161798434835	
4.13	-0.995	-0.9981734141659225	
4.135	-0.995	-0.9959470910550597	
4.14	-0.995	-0.9911288524080771	
4.145	-0.995	-0.996487077247407	
4.15	-0.993	-0.9980525255032268	
4.155	-0.993	-0.991517172410457	
4.16	-0.990	-0.9930552454288476	
4.165	-0.993	-0.9972140861997358	
4.17	-0.825	-0.9832892527937475	
4.175	-0.605	-0.9456708672657587	
4.18	-0.747	-0.8888422017532016	
4.185	-0.588	-0.8150030278271091	
4.19	-0.181	-0.7213618485758297	
4.195	-0.231	-0.604845297414797	
4.2	-0.271	-0.4776096668375153	
4.205	0.204	-0.3448235671183427	
4.21	0.365	-0.19888695235232176	
4.215	0.081	-0.047980467565247646	
4.22	0.574	0.09496721066990617	
4.225	0.994	0.2488794795489259	
4.23	0.539	0.4135864776994811	
4.235	0.643	0.5497674647394319	
4.24	1.202	0.6592017468740247	
4.245	0.855	0.7629955045390517	
4.25	0.499	0.8309513776067503	
4.255	1.028	0.853460593131016	
4.26	0.962	0.8622673366532799	
4.265	0.455	0.859734224130251	
4.27	0.730	0.8299622974130301	
4.275	1.036	0.7970221277573492	
4.28	0.589	0.7815798930421832	
4.285	0.641	0.767756255764205	
4.29	1.201	0.7661645348173265	
4.295	0.822	0.7920731842204349	
4.3	0.478	0.8140999541386749	
4.305	0.994	0.8102643097207775	
4.31	0.991	0.8121867094093895	
4.315	0.623	0.8251199491035471	
4.32	1.042	0.838862677330559	
4.325	1.324	0.8756257648251734	
4.33	1.841	0.980039921975136	
4.335	3.080	1.2291353817962931	
4.34	3.063	1.6396691574796387	
4.345	3.060	2.096064314092585	
4.35	3.057	2.499497388415611	
4.355	3.049	2.807880235026447	
4.36	3.046	2.9989144035763085	
4.365	3.052	3.0974753093830065	
4.37	3.054	3.145772933908646	
4.375	3.052	3.151342885543735	
4.38	3.060	3.129161875286785	
4.385	3.066	3.111021745356525	
4.39	3.066	3.0964305836642563	
4.395	3.072	3.0762604551945865	
4.4	3.080	3.066646920991403	
4.405	3.083	3.0718198672792805	
4.41	2.740	3.055002831401791	
4.415	1.914	2.961441191048332	
4.42	1.938	2.7706083797941137	
4.425	1.948	2.5204849443740187	
4.43	1.340	2.2562663336227864	
4.435	1.181	1.9837902363092823	
4.44	1.485	1.7264575335041807	
4.445	1.089	1.5155695482837557	
4.45	0.660	1.3315126517755604	
4.455	0.929	1.1575266488105207	
4.46	0.690	1.000321132804244	
4.465	0.217	0.8517593115075137	
4.47	0.279	0.6932468748268156	
4.475	0.463	0.5443987215315659	
4.48	0.013	0.4197827758722923	
4.485	-0.052	0.30564829509507296	
4.49	0.041	0.19493420518583088	
4.495	-0.346	0.08295061013396822	
4.5	-0.757	-0.052208019989411956	
4.505	-0.775	-0.224129635446015	
4.51	-0.984	-0.422665446457552	
4.515	-0.995	-0.6185582552045126	
4.52	-0.993	-0.7781057305007589	
4.525	-0.995	-0.8960341947272106	
4.53	-0.995	-0.9785793180159104	
4.535	-0.995	-1.0182700409400676	
4.54	-0.996	-1.029698998200296	
4.545	-0.996	-1.0347281940072697	
4.55	-0.996	-1.030764167498757	
4.555	-0.996	-1.016624856092712	
4.56	-0.996	-1.0087297774398438	
4.565	-0.996	-1.006090175436054	
4.57	-0.996	-0.9983891808002751	
4.575	-0.996	-0.9933373558769366	
4.58	-0.996	-0.9972057590868905	
4.585	-0.995	-0.9952952266723806	
4.59	-0.995	-0.9910420783938549	
4.595	-0.995	-0.9945044676416691	
4.6	-0.995	-0.996626968139975	
4.605	-0.995	-0.9929114372015384	
4.61	-0.993	-0.9936501664669586	
4.615	-0.995	-0.9978982911269376	
4.62	-0.995	-0.9935902909853231	
4.625	-0.801	-0.9833405435939663	
4.63	-0.963	-0.9650023559275296	
4.635	-0.816	-0.9394388434053192	
4.64	-0.498	-0.8921051656236576	
4.645	-0.642	-0.8222629780374988	
4.65	-0.729	-0.7537248023268184	
4.655	-0.445	-0.692132128544789	
4.66	-0.468	-0.6334060430317139	
4.665	-0.630	-0.583809965027674	
4.67	-0.396	-0.5449389142934472	
4.675	-0.129	-0.4962408714617659	
4.68	-0.344	-0.4316521115252142	
4.685	-0.277	-0.3687561482223448	
4.69	0.017	-0.30635370127119094	
4.695	-0.213	-0.24480841929955044	
4.7	-0.315	-0.2037397737164096	
4.705	-0.104	-0.18464764570321057	
4.71	-0.291	-0.18010666172608597	
4.715	-0.587	-0.20744852469917602	
4.72	-0.382	-0.26452186218276696	
4.725	-0.222	-0.3142982969078386	
4.73	-0.468	-0.3449592975147703	
4.735	-0.448	-0.3701056161200716	
4.74	0.212	-0.36286817391794984	
4.745	3.074	-0.15386684658471145	
4.75	3.064	0.4088632470641229	
4.755	3.052	1.1795158758854805	
4.76	3.049	1.9046346036968018	
4.765	3.054	2.4692155965758085	
4.77	3.051	2.8562737782656544	
4.775	3.046	3.084946071666465	
4.78	3.038	3.1862814692615684	
4.785	3.029	3.2094495983827622	
4.79	3.028	3.190627035218217	
4.795	3.029	3.1494417336629805	
4.8	3.026	3.105124642345111	
4.805	3.026	3.0717877229443245	
4.81	3.026	3.047347692963372	
4.815	3.026	3.0273669880074547	
4.82	3.026	3.0207408174295596	
4.825	3.029	3.0197929734748166	
4.83	3.029	3.017094624048089	
4.835	3.029	3.0188081912068405	
4.84	3.028	3.0246837730417964	
4.845	3.026	3.0250909002943858	
4.85	3.026	3.025248546191971	
4.855	3.028	3.028055668577181	
4.86	3.026	3.0280731251403123	
4.865	3.029	3.026228260577846	
4.87	3.029	3.02807763330842	
4.875	3.029	3.029747419162547	
4.88	3.034	3.0277717098663723	
4.885	3.044	3.0290275499171786	
4.89	3.043	3.0348975372517346	
4.895	3.054	3.0367500266976686	
4.9	3.063	3.0402176359401722	
4.905	3.069	3.0494304125798983	
4.91	3.078	3.0558991231810584	
4.915	2.410	3.0289017273042917	
4.92	2.201	2.926322745556624	
4.925	2.079	2.746798955609126	
4.93	1.575	2.513422270370697	
4.935	1.529	2.2491515931677126	
4.94	1.787	2.0021632700087486	
4.945	1.337	1.8055515305810088	
4.95	0.967	1.6251605140363203	
4.955	0.974	1.436590140569833	
4.96	0.409	1.229788998710466	
4.965	-0.034	0.9798726134270905	
4.97	-0.009	0.6954869812522326	
4.975	-0.016	0.42380190174961074	
4.98	-0.251	0.19548722713090796	
4.985	-0.298	0.011245001722769973	
4.99	-0.284	-0.1310062950290552	
4.995	-0.547	-0.24544404960832536	
5.0	-0.755	-0.3556534754276408	
5.005	-0.702	-0.46757370628132616	
5.01	-0.822	-0.5762653178518229	
5.015	-0.993	-0.6788068811243566	
5.02	-0.990	-0.7766060606288604	
5.025	-0.967	-0.8624902087027356	
5.03	-0.993	-0.9302597004600579	
5.035	-0.995	-0.97164564636756	
5.04	-0.995	-0.9943730866989243	
5.045	-0.995	-1.0083542343806706	
5.05	-0.995	-1.013335039135697	
5.055	-0.995	-1.0088355772902609	
5.06	-0.995	-1.0064227896798221	
5.065	-0.995	-1.0044778739139075	
5.07	-0.998	-0.9996525494821189	
5.075	-0.995	-0.9957828373353704	
5.08	-0.995	-0.9970867211377756	
5.085	-0.995	-0.9955159011213095	
5.09	-0.995	-0.9936248396903603	
5.095	-0.996	-0.9943439403408113	
5.1	-0.995	-0.9961319365065533	
5.105	-0.993	-0.9939662702809563	
5.11	-0.995	-0.9945274919856374	
5.115	-0.995	-0.9963059539583827	
5.12	-0.995	-0.9946587880939007	
5.125	-0.995	-0.9939241419169357	
5.13	-0.995	-0.9960020459798995	
5.135	-0.995	-0.9954437206446476	
5.14	-0.995	-0.9937321689163535	
5.145	-0.995	-0.9953458616466699	
5.15	-0.995	-0.996046434529508	
5.155	-0.996	-0.9940048821407984	
5.16	-0.996	-0.9945740446753093	
5.165	-0.996	-0.9962610733978842	
5.17	-0.996	-0.9956419462691505	
5.175	-0.996	-0.9949568560795566	
5.18	-0.996	-0.9970097476774726	
5.185	-0.996	-0.9964208558663442	
5.19	-0.996	-0.9947184456517586	
5.195	-0.996	-0.9963751600822432	
5.2	-0.995	-0.9970635203308928	
5.205	-0.995	-0.9949536716890143	
5.21	-0.996	-0.9955741076440202	
5.215	-0.996	-0.9973327603584483	
5.22	-0.996	-0.9955983862408513	
5.225	-0.996	-0.9948898299709229	
5.23	-0.996	-0.9971088536769384	
5.235	-0.996	-0.9964413752876713	
5.24	-0.996	-0.9945830514915659	
5.245	-0.996	-0.9964381197136684	
5.25	-0.996	-0.997184217348236	
5.255	-0.996	-0.9948010964543728	
5.26	-0.996	-0.9955323632416013	
5.265	-0.996	-0.9975362034227845	
5.27	-0.996	-0.9955143655521707	
5.275	-0.996	-0.9947125373171063	
5.28	-0.996	-0.9973187408378752	
5.285	-0.996	-0.9965052720025315	
5.29	-0.996	-0.9943065225297072	
5.295	-0.996	-0.9965453909966258	
5.3	-0.996	-0.997422426244579	
5.305	-0.996	-0.9945286315268853	
5.31	-0.996	-0.995444847233289	
5.315	-0.996	-0.9978926638474733	
5.32	-0.996	-0.9953810691447718	
5.325	-0.996	-0.994407590439036	
5.33	-0.995	-0.9976606045988676	
5.335	-0.996	-0.9966184474041382	
5.34	-0.995	-0.9938613070584951	
5.345	-0.995	-0.9967081436753792	
5.35	-0.995	-0.9968005876321306	
5.355	-0.995	-0.9931090564958148	
5.36	-0.995	-0.9943064092542037	
5.365	-0.995	-0.9974355234364636	
5.37	-0.993	-0.9941807232818476	
5.375	-0.850	-0.9859439944712544	
5.38	-0.859	-0.9681503864122388	
5.385	-0.653	-0.926769377480572	
5.39	-0.391	-0.9826519749337586	
5.395	-0.576	-0.9826519749337586	
5.4	-0.993	-0.9826519749337586	
5.405	-0.996	-0.9681503864122388	
5.41	-0.996	-0.7430904074619038	
5.415	-0.996	-0.8220427561770474	
5.42	-0.996	-0.887995304966629	
5.425	-0.996	-0.9404435774021107	
5.43	-0.996	-0.9826519749337586	
5.435	-0.995	-1.0019542203064251	
5.44	-0.995	-1.0065983776434204	
5.445	-0.995	-1.0131604362694813	
5.45	-0.995	-1.011818220083951	
5.455	1.887	-0.8698501827677315	
5.46	3.064	-0.37351217527898256	
5.465	3.049	0.4464606050754078	
5.47	3.043	1.3358135666525475	
5.475	3.043	2.088758172866046	
5.48	3.051	2.6291290747854794	
5.485	3.057	2.976767613294828	
5.49	3.054	3.1653912306045715	
5.495	3.060	3.2319091707724015	
5.5	3.060	3.233202134764298	
5.505	3.061	3.207821495280072	
5.51	3.064	3.163998651597603	
5.515	3.071	3.1205316546294903	
5.52	3.071	3.096220069002499	
5.525	3.071	3.078742432898188	
5.53	3.075	3.0630266192984927	
5.535	3.075	3.0621280387810836	
5.54	3.074	3.066586690773739	
5.545	3.078	3.064595301386599	
5.55	3.081	3.0662402533920003	
5.555	3.080	3.0762047753107633	
5.56	3.080	3.076772658739542	
5.565	3.019	3.0712108107069476	
5.57	3.086	3.072627179132369	
5.575	3.040	3.0688571896810632	
5.58	2.521	3.033468891742354	
5.585	2.424	2.946218051204612	
5.59	2.600	2.8230495227243684	
5.595	2.271	2.6902328963651554	
5.6	2.033	2.552977170954321	
5.605	2.285	2.4197077065261787	
5.61	2.061	2.300769679747704	
5.615	1.608	2.184755650795549	
5.62	1.709	2.0548590236956814	
5.625	1.685	1.9191226320380343	
5.63	1.094	1.7761563219055279	
5.635	0.936	1.6062128225323171	
5.64	0.977	1.4113246444215317	
5.645	0.599	1.2080737175383298	
5.65	0.356	1.0038544327473735	
5.655	0.695	0.8169250010669521	
5.66	0.589	0.6767768343609848	
5.665	0.252	0.5776549751442362	
5.67	0.461	0.501964731119249	
5.675	0.519	0.44814433865144243	
5.68	0.131	0.4081073243436657	
5.685	0.229	0.36528446032934164	
5.69	0.455	0.3283192243338613	
5.695	0.067	0.2970472508595029	
5.7	-0.019	0.254908915223632	
5.705	0.348	0.2118320901751512	
5.71	0.247	0.18772679228978198	
5.715	0.030	0.17879880217293562	
5.72	0.229	0.17386879584473802	
5.725	0.070	0.1629837017372172	
5.73	-0.417	0.11928648770996994	
5.735	-0.562	0.0202489695042811	
5.74	-0.471	-0.12196742799663578	
5.745	-0.508	-0.26973457654765187	
5.75	-0.504	-0.382838932419609	
5.755	-0.164	-0.439473932401598	
5.76	-0.022	-0.43027394413472797	
5.765	-0.037	-0.3608074093968244	
5.77	0.369	-0.24030829106856166	
5.775	0.623	-0.07724311033352652	
5.78	0.321	0.10069202813397347	
5.785	0.499	0.2562877502568767	
5.79	1.318	0.4096287873860648	
5.795	2.180	0.6486011694764966	
5.8	3.074	1.0506016846416828	
5.805	3.074	1.5870626508303687	
5.81	3.071	2.1194498973048	
5.815	3.074	2.5545407345964106	
5.82	3.077	2.8705030602112673	
5.825	3.075	3.062309199630532	
5.83	3.075	3.153929591002729	
5.835	3.075	3.1895203377176253	
5.84	3.072	3.187302161289871	
5.845	3.072	3.1593914874584144	
5.85	3.075	3.13069703618294	
5.855	3.071	3.1120590180160237	
5.86	3.072	3.09040660944184	
5.865	3.077	3.073674895995982	
5.87	3.078	3.0726856241262683	
5.875	3.078	3.0713106974341486	
5.88	2.959	3.0608379672178554	
5.885	2.820	3.041619053851454	
5.89	2.905	3.003415916982996	
5.895	2.345	2.930202172534966	
5.9	1.885	2.792567021007952	
5.905	1.880	2.5842166695270903	
5.91	1.492	2.328375367152983	
5.915	0.904	2.0374809150910256	
5.92	0.877	1.7167670829939936	
5.925	0.742	1.3984262820307776	
5.93	0.203	1.0957569945419303	
5.935	0.059	0.8056097693122316	
5.94	0.053	0.5344999606417903	
5.945	-0.161	0.29526707211100944	
5.95	-0.303	0.09965543277654007	
5.955	-0.249	-0.056753778516368925	
5.96	-0.370	-0.1826351511265936	
5.965	-0.527	-0.2824276132917687	
5.97	-0.431	-0.3591958578819734	
5.975	-0.443	-0.4166724872568883	
5.98	-0.677	-0.46523280503364	
5.985	-0.654	-0.5113114032244463	
5.99	-0.546	-0.5545792751367196	
5.995	-0.697	-0.5918040715520183	
6.0	-0.799	-0.6262829504921322	
6.005	-0.692	-0.6597853697658713	
6.01	-0.753	-0.6947231377488705	
6.015	-0.863	-0.7273730181971314	
6.02	-0.731	-0.7511689018761727	
6.025	-0.698	-0.7657569559681054	
6.03	-0.865	-0.7742087588497395	
6.035	-0.795	-0.7792423640996466	
6.04	-0.656	-0.7796435330436484	
6.045	-0.802	-0.7758316314438508	
6.05	-0.879	-0.7742119001068883	
6.055	-0.749	-0.7778148415996184	
6.06	-0.773	-0.7867786227686397	
6.065	-0.879	-0.7943092173965489	
6.07	-0.770	-0.7971599092223087	
6.075	-0.743	-0.7998400018760082	
6.08	-0.863	-0.8021786016269351	
6.085	-0.793	-0.8011771926850046	
6.09	-0.630	-0.7927053396458403	
6.095	-0.746	-0.7778570357990755	
6.1	-0.790	-0.7591309201182346	
6.105	-0.628	-0.740824330547079	
6.11	-0.688	-0.7268500794450756	
6.115	-0.769	-0.7152699869240932	
6.12	-0.569	-0.7001150798713713	
6.125	-0.456	-0.6748872284570407	
6.13	-0.598	-0.6381745700386117	
6.135	-0.607	-0.6021365011887987	
6.14	-0.645	-0.584774441263405	
6.145	-0.987	-0.6069272365867897	
6.15	-0.993	-0.6710956712996474	
6.155	-0.995	-0.7568128015781214	
6.16	-0.993	-0.8478804821622277	
6.165	-0.995	-0.9212362594836775	
6.17	-0.935	-0.9620665501634366	
6.175	-0.822	-0.9769087423573402	
6.18	-0.987	-0.9732078614705607	
6.185	-0.993	-0.9621001779299282	
6.19	-0.963	-0.9587282392231999	
6.195	-0.995	-0.9669510369517942	
6.2	-0.993	-0.9720774044607521	
6.205	-0.925	-0.9707277631356521	
6.21	-0.928	-0.9699412534071727	
6.215	-0.914	-0.9633370926569492	
6.22	-0.697	-0.934949913638836	
6.225	-0.592	-0.8838588620539406	
6.23	-0.741	-0.8223870909169819	
6.235	-0.683	-0.7620686088537534	
6.24	-0.512	-0.7105446492189804	
6.245	-0.610	-0.6680895544439616	
6.25	-0.596	-0.6282049378551625	
6.255	-0.379	-0.5885139638661363	
6.26	-0.359	-0.5449284849156242	
6.265	-0.459	-0.4965647892937214	
6.27	-0.284	-0.44685344915478353	
6.275	-0.205	-0.39873069746220724	
6.28	-0.347	-0.35458895509505983	
6.285	-0.321	-0.3190756563325563	
6.29	-0.232	-0.2963428745532283	
6.295	-0.420	-0.293226494148602	
6.3	-0.526	-0.30934694630585685	
6.305	-0.492	-0.345317355123759	
6.31	-0.697	-0.4069502314466756	
6.315	-0.943	-0.494802160171912	
6.32	-0.821	-0.5957139025936116	
6.325	-0.692	-0.6895580278530552	
6.33	-0.793	-0.7527825877213079	
6.335	-0.734	-0.778059833130071	
6.34	-0.517	-0.7720845279342272	
6.345	-0.579	-0.7433420127888897	
6.35	-0.550	-0.6914764166443568	
6.355	-0.283	-0.6230558341499087	
6.36	-0.231	-0.5429300053253208	
6.365	-0.266	-0.4520282423346058	
6.37	-0.008	-0.3515440752959971	
6.375	0.238	-0.24243314792286286	
6.38	0.015	-0.12808186728668763	
6.385	0.180	-0.020063520250015527	
6.39	0.597	0.08316058777413778	
6.395	0.427	0.19347842882030816	
6.4	0.455	0.30337569884361126	
6.405	0.854	0.4081719997560261	
6.41	0.773	0.5140409349173772	
6.415	0.548	0.6037583553633874	
6.42	0.864	0.671560394069975	
6.425	1.014	0.7296472001675738	
6.43	0.637	0.779782448563068	
6.435	0.712	0.8059354769406641	
6.44	0.941	0.8112174699768822	
6.445	0.583	0.8014267963578596	
6.45	0.402	0.7683587175189408	
6.455	0.608	0.70815787126221	
6.46	0.322	0.6310219107290713	
6.465	-0.031	0.5308239937559553	
6.47	0.009	0.4035224623952324	
6.475	-0.080	0.25955144073824166	
6.48	-0.350	0.11191442868724455	
6.485	-0.459	-0.03198934711127493	
6.49	-0.517	-0.17695498759286157	
6.495	-0.715	-0.3255286557521841	
6.5	-0.744	-0.4594307736349371	
6.505	-0.533	-0.5609253674655965	
6.51	-0.508	-0.6210465620560234	
6.515	-0.543	-0.6339544692286664	
6.52	-0.312	-0.6034298352847789	
6.525	-0.034	-0.5356053107567279	
6.53	0.377	-0.408972839594156	
6.535	1.136	-0.17976149330462735	
6.54	1.847	0.1760238960176126	
6.545	1.689	0.6114040148457092	
6.55	1.483	1.0245623361529472	
6.555	1.544	1.3309135827796847	
6.56	1.249	1.4977832287437123	
6.565	0.944	1.5320430687653828	
6.57	1.197	1.4735162631669394	
6.575	1.405	1.3893297819860564	
6.58	1.498	1.3391256257367357	
6.585	1.938	1.3662042934953404	
6.59	2.369	1.4868587033458054	
6.595	2.331	1.6795352559929588	
6.6	2.296	1.8977370294691325	
6.605	2.539	2.0967968516758324	
6.61	2.504	2.256833900017644	
6.615	2.424	2.378289181530506	
6.62	2.539	2.4624006442335746	
6.625	2.311	2.499121473707655	
6.63	1.877	2.4672141192023185	
6.635	1.747	2.363116131295249	
6.64	1.677	2.2025852592611868	
6.645	1.405	2.0106360947356507	
6.65	1.291	1.8139017989314943	
6.655	1.489	1.6406592256353538	
6.66	1.320	1.5048901650458042	
6.665	0.938	1.3924973425166236	
6.67	0.999	1.2802496210660508	
6.675	1.074	1.1710654631718411	
6.68	0.935	1.0845563725467888	
6.685	1.054	1.0321401517985447	
6.69	1.213	1.0133496365965735	
6.695	0.921	1.0138360057886162	
6.7	0.652	1.0000236773734807	
6.705	0.686	0.9482702233660081	
6.71	0.342	0.8518573525731832	
6.715	-0.009	0.707820907571646	
6.72	0.036	0.5290309638547863	
6.725	-0.002	0.34484717291144784	
6.73	-0.133	0.1809263385738908	
6.735	-0.207	0.050135450674078146	
6.74	-0.181	-0.05605051341108365	
6.745	-0.249	-0.14091394530293375	
6.75	-0.240	-0.1966584001476489	
6.755	-0.090	-0.22206383074403552	
6.76	-0.101	-0.2221490811720784	
6.765	-0.173	-0.2037475064457692	
6.77	-0.104	-0.1771500772941475	
6.775	-0.098	-0.15546446260334626	
6.78	-0.190	-0.142769782851091	
6.785	-0.045	-0.12979541558662558	
6.79	0.227	-0.10039540790691323	
6.795	0.171	-0.045761021297452575	
6.8	0.152	0.024571163699247372	
6.805	0.287	0.0935914270522731	
6.81	0.169	0.14777066427170865	
6.815	-0.003	0.1745803030253536	
6.82	0.078	0.17166476113161377	
6.825	-0.037	0.14128505735978836	
6.83	-0.266	0.08555778480826208	
6.835	-0.315	0.005218221818653467	
6.84	-0.315	-0.09079477026029102	
6.845	-0.477	-0.19057090653174	
6.85	-0.647	-0.29116227424618857	
6.855	-0.712	-0.39877780365576626	
6.86	-0.833	-0.5152652118270907	
6.865	-0.902	-0.629980530723192	
6.87	-0.880	-0.7274929873001383	
6.875	-0.931	-0.809989029829033	
6.88	-0.995	-0.8750621409373731	
6.885	-0.993	-0.9236758896974245	
6.89	-0.993	-0.9591826507697281	
6.895	-0.993	-0.9874310976967323	
6.9	-0.993	-0.9998555021397412	
6.905	-0.995	-1.003056659288446	
6.91	-0.995	-1.006379013161412	
6.915	-0.995	-1.0056590671955967	
6.92	-0.993	-0.9995799252473196	
6.925	-0.995	-0.9982684527260317	
6.93	-0.995	-0.9988630858499473	
6.935	-0.993	-0.994539477988348	
6.94	-0.995	-0.9924501207011031	
6.945	-0.993	-0.9954459284582636	
6.95	-0.993	-0.9946191202439303	
6.955	-0.993	-0.9911617246889229	
6.96	-0.995	-0.9935569321479519	
6.965	-0.995	-0.9954876035559871	
6.97	-0.995	-0.9924877335124762	
6.975	-0.993	-0.9934694469533291	
6.98	-0.929	-0.9928636829808711	
6.985	-0.679	-0.9693199239309972	
6.99	-0.494	-0.9064837758852273	
6.995	-0.471	-0.8105880734712467	
7.0	-0.384	-0.6955025072381065	
7.005	-0.281	-0.5790784859713768	
7.01	-0.252	-0.47372075748328907	
7.015	-0.232	-0.3805094016618108	
7.02	-0.127	-0.30033787104504833	
7.025	-0.121	-0.23654369655803698	
7.03	-0.156	-0.18699597329970125	
7.035	-0.051	-0.14721880715052443	
7.04	0.081	-0.10847180427776103	
7.045	0.055	-0.06574662879106033	
7.05	0.151	-0.014435472547414533	
7.055	0.279	0.04505750597969093	
7.06	0.249	0.1061510409770169	
7.065	0.288	0.1664438152764238	
7.07	0.554	0.23284402774923083	
7.075	0.664	0.3144455862525317	
7.08	0.664	0.41288200686485166	
7.085	0.828	0.5188891957907669	
7.09	0.959	0.6255833372288655	
7.095	0.900	0.7271009721212016	
7.1	1.020	0.8205772707726415	
7.105	1.202	0.9081728300256592	
7.11	1.103	0.988057979014887	
7.115	0.967	1.0473689877758794	
7.12	1.063	1.0759182335896946	
7.125	0.846	1.0703907855337658	
7.13	0.562	1.0217656048979298	
7.135	0.565	0.9299295139397689	
7.14	0.609	0.8186248975534218	
7.145	0.492	0.714074064197805	
7.15	0.460	0.6286085512670971	
7.155	0.498	0.5601945811887217	
7.16	0.389	0.5040400930655835	
7.165	0.305	0.4574193565550209	
7.17	0.385	0.41795705423204776	
7.175	0.363	0.38436727080473215	
7.18	0.270	0.35882469810595874	
7.185	0.431	0.34600985062284856	
7.19	0.505	0.35057247498420663	
7.195	0.322	0.36603008874506754	
7.2	0.340	0.3776513134486055	
7.205	0.513	0.3851688547877314	
7.21	0.522	0.40100850125943505	
7.215	0.492	0.43048618720963683	
7.22	0.615	0.4669427759799621	
7.225	0.599	0.5022873081525763	
7.23	0.565	0.5348818955010148	
7.235	0.588	0.5640362448644254	
7.24	0.576	0.5794433874606861	
7.245	0.402	0.5760292484590157	
7.25	0.438	0.5547667381098111	
7.255	0.372	0.5190941467566921	
7.26	0.046	0.4588893910236035	
7.265	0.024	0.3675502442716361	
7.27	0.177	0.27099130298651253	
7.275	0.119	0.19324804812611074	
7.28	-0.013	0.1369059312172236	
7.285	0.015	0.09205814547937466	
7.29	0.003	0.05343213810231223	
7.295	-0.101	0.017075559237435867	
7.3	-0.106	-0.01423082070054153	
7.305	-0.032	-0.04194333706044737	
7.31	-0.112	-0.06502911091915012	
7.315	-0.194	-0.08339975444383964	
7.32	-0.141	-0.10411829158794071	
7.325	-0.170	-0.12777925075146543	
7.33	-0.232	-0.15000243476850378	
7.335	-0.153	-0.16597072542667135	
7.34	-0.060	-0.17163313832676116	
7.345	-0.038	-0.15984306471798365	
7.35	0.091	-0.12417925469822791	
7.355	0.113	-0.07002446598640005	
7.36	-0.225	-0.03005753449772597	
7.365	-0.497	-0.04239525350847949	
7.37	-0.584	-0.12120197096837781	
7.375	-0.599	-0.24379357909226854	
7.38	-0.524	-0.36790946729870694	
7.385	-0.310	-0.4469604354233371	
7.39	-0.112	-0.46263977135933615	
7.395	-0.008	-0.4127693149202679	
7.4	0.215	-0.3051794640400895	
7.405	0.464	-0.15406288827930198	
7.41	0.444	0.01802352951841127	
7.415	0.482	0.18566401093281565	
7.42	0.611	0.32975102175353727	
7.425	0.586	0.4422056161599339	
7.43	0.473	0.5190819338222864	
7.435	0.460	0.5569126193270597	
7.44	0.426	0.5552843002991845	
7.445	0.185	0.5182524663621352	
7.45	0.236	0.4547558806416718	
7.455	0.357	0.38787362974278083	
7.46	0.270	0.3361234406425638	
7.465	0.253	0.30271450579587583	
7.47	0.403	0.287674392282094	
7.475	0.418	0.29227599286693684	
7.48	0.357	0.3132090932333935	
7.485	0.457	0.3428323475522004	
7.49	0.507	0.37525756403646837	
7.495	0.423	0.4064134948419263	
7.5	0.411	0.43072111871105856	
7.505	0.400	0.439707023045189	
7.51	0.313	0.43020246481392466	
7.515	0.240	0.40578457503569654	
7.52	0.229	0.36851051898244136	
7.525	0.133	0.3182538373763175	
7.53	-0.058	0.25333529730700727	
7.535	-0.063	0.17574707963074385	
7.54	-0.048	0.0941741037962121	
7.545	-0.135	0.020560535235063817	
7.55	-0.145	-0.03925072004966631	
7.555	-0.130	-0.08541108340377968	
7.56	-0.174	-0.12171129697243153	
7.565	-0.199	-0.14811342895180718	
7.57	-0.162	-0.1656046403959621	
7.575	-0.181	-0.17774965815691698	
7.58	-0.223	-0.18652287739157608	
7.585	-0.208	-0.1923103674186451	
7.59	-0.200	-0.1989213755227371	
7.595	-0.179	-0.20434139807444024	
7.6	-0.147	-0.19922880173139607	
7.605	-0.106	-0.18651541955647427	
7.61	-0.194	-0.17368507881263812	
7.615	-0.295	-0.1710675522541512	
7.62	-0.278	-0.18469093575025083	
7.625	-0.330	-0.21377042594093215	
7.63	-0.399	-0.25145233446564424	
7.635	-0.344	-0.28933464782819973	
7.64	-0.301	-0.31895657621116974	
7.645	-0.359	-0.33728170392998613	
7.65	-0.361	-0.3452304933745093	
7.655	-0.336	-0.3505829977190075	
7.66	-0.378	-0.3556459724088066	
7.665	-0.442	-0.3630093119143013	
7.67	-0.382	-0.37274135244886114	
7.675	-0.364	-0.38377840314209605	
7.68	-0.375	-0.3873759836609062	
7.685	-0.333	-0.3823515679382527	
7.69	-0.294	-0.3710259153206624	
7.695	-0.312	-0.3562449915642347	
7.7	-0.320	-0.3381905838256586	
7.705	-0.281	-0.3226439631898037	
7.71	-0.341	-0.314666575915035	
7.715	-0.271	-0.30894518999074644	
7.72	-0.145	-0.29473303558038133	
7.725	-0.083	-0.2648166946787758	
7.73	-0.063	-0.21935479127237817	
7.735	0.050	-0.1613242486507437	
7.74	0.197	-0.09305145595853194	
7.745	0.230	-0.013246740211843317	
7.75	0.249	0.0718392819662911	
7.755	0.310	0.14933445895304187	
7.76	-0.037	0.19628591151133762	
7.765	-0.304	0.18001916234687176	
7.77	-0.430	0.0911978617878337	
7.775	-0.514	-0.04785146556600901	
7.78	-0.552	-0.20129547759450622	
7.785	-0.469	-0.333309180141441	
7.79	-0.300	-0.4200767783912016	
7.795	-0.176	-0.4441614680537104	
7.8	-0.003	-0.4030890037927103	
7.805	0.212	-0.3057091766153625	
7.81	0.183	-0.1766642675028836	
7.815	0.209	-0.04285927850328312	
7.82	0.374	0.07716491250633303	
7.825	0.372	0.18209969608505971	
7.83	0.295	0.26376198189210975	
7.835	0.247	0.3136198882158867	
7.84	0.337	0.33177743702499884	
7.845	0.269	0.3318812051614458	
7.85	0.318	0.3279319013912192	
7.855	0.466	0.329147517681148	
7.86	0.475	0.346371276966136	
7.865	0.605	0.3853049270910797	
7.87	0.806	0.4490896778362077	
7.875	0.890	0.5400357029548938	
7.88	0.945	0.6469421289084046	
7.885	0.968	0.7556308246339654	
7.89	0.872	0.8416031098110633	
7.895	0.936	0.8959494662448722	
7.9	1.046	0.9330381260097437	
7.905	1.139	0.9730164320002157	
7.91	1.115	1.015339206648905	
7.915	1.116	1.0564053300439418	
7.92	1.230	1.0950119389524982	
7.925	1.136	1.1269533299877845	
7.93	0.985	1.1420108599690428	
7.935	0.893	1.124605662817872	
7.94	0.811	1.0735391659179405	
7.945	0.686	0.9960355417749811	
7.95	0.470	0.8980426618595061	
7.955	0.236	0.7708770735726649	
7.96	0.093	0.6123584058057367	
7.965	-0.071	0.43750875070932277	
7.97	-0.113	0.2649477270197965	
7.975	-0.199	0.10691740713133623	
7.98	-0.252	-0.025850640541669433	
7.985	-0.234	-0.12833786791659219	
7.99	-0.301	-0.20252517016067748	
7.995	-0.312	-0.25592372025437954	
8.0	-0.298	-0.28986882315058926	
8.005	-0.341	-0.3101384652418506	
8.01	-0.390	-0.32866247465897847	
8.015	-0.398	-0.3454530400473155	
8.02	-0.393	-0.3620527755552846	
8.025	-0.463	-0.3811347414334128	
8.03	-0.506	-0.40387557192578327	
8.035	-0.480	-0.42932693331013055	
8.04	-0.509	-0.4545357764024447	
8.045	-0.575	-0.47996243909076725	
8.05	-0.569	-0.504872189166895	
8.055	-0.596	-0.5301118842506545	
8.06	-0.621	-0.5566782473924128	
8.065	-0.599	-0.5784708771647282	
8.07	-0.566	-0.5910107267659215	
8.075	-0.621	-0.5981225998377164	
8.08	-0.711	-0.6079273898711541	
8.085	-0.729	-0.6263220280332361	
8.09	-0.708	-0.6534950357889155	
8.095	-0.737	-0.6799953177578234	
8.1	-0.714	-0.6998839678570012	
8.105	-0.656	-0.7100514280374068	
8.11	-0.636	-0.7086864470872454	
8.115	-0.688	-0.6975170139336326	
8.12	-0.698	-0.6859832582536328	
8.125	-0.709	-0.6851254700967495	
8.13	-0.706	-0.6889666115497539	
8.135	-0.614	-0.687260431415846	
8.14	-0.492	-0.6724541190679855	
8.145	-0.393	-0.6350624457174212	
8.15	-0.297	-0.5698495347635937	
8.155	-0.312	-0.4919798316106925	
8.16	-0.535	-0.4328180259778695	
8.165	-0.758	-0.4206132377289953	
8.17	-0.793	-0.4678749053660956	
8.175	-0.753	-0.5491364278837189	
8.18	-0.683	-0.6250558845481298	
8.185	-0.451	-0.6641339860076252	
8.19	-0.205	-0.6443756784417732	
8.195	-0.022	-0.558174727614108	
8.2	0.097	-0.4178067949964428	
8.205	0.250	-0.2518805183064452	
8.21	0.253	-0.08691320945698833	
8.215	0.285	0.06040405085886891	
8.22	0.537	0.18527693093986458	
8.225	0.522	0.297776480434371	
8.23	0.434	0.39081869977511036	
8.235	0.507	0.4539299464081853	
8.24	0.457	0.48755623827897604	
8.245	0.475	0.5006729830286107	
8.25	0.651	0.5112750517207223	
8.255	0.779	0.5401963016983025	
8.26	0.640	0.5839985683787788	
8.265	0.676	0.6254204565331658	
8.27	0.938	0.66635748528338	
8.275	0.915	0.7217550173619296	
8.28	0.855	0.7828207999813609	
8.285	0.991	0.8369613490307832	
8.29	1.098	0.890557232765725	
8.295	1.078	0.946718494053878	
8.3	1.066	1.0022515350534342	
8.305	0.964	1.036071311051169	
8.31	0.733	1.0320225261675198	
8.315	0.563	0.9784818674381528	
8.32	0.377	0.8762097237289375	
8.325	0.088	0.7276849727918249	
8.33	-0.129	0.5389465929444132	
8.335	-0.182	0.3329331272525894	
8.34	-0.239	0.13547004936000234	
8.345	-0.352	-0.03516025225182012	
8.35	-0.457	-0.17469333557807645	
8.355	-0.456	-0.29101867246749735	
8.36	-0.526	-0.3828786358776493	
8.365	-0.544	-0.45137592304703966	
8.37	-0.508	-0.4988710540925365	
8.375	-0.524	-0.5273119165295203	
8.38	-0.520	-0.5398862101195141	
8.385	-0.446	-0.5381168161833386	
8.39	-0.419	-0.5226666355103629	
8.395	-0.349	-0.4960562320329647	
8.4	-0.262	-0.4526418023936435	
8.405	-0.213	-0.3981669557898363	
8.41	-0.272	-0.3438724391995583	
8.415	-0.275	-0.30029242796114325	
8.42	-0.239	-0.2709837516408048	
8.425	-0.237	-0.2543655526744626	
8.43	-0.194	-0.24077707424603076	
8.435	-0.126	-0.22314699954424347	
8.44	-0.116	-0.199757123210778	
8.445	-0.194	-0.1779921974671333	
8.45	-0.242	-0.16763818377231154	
8.455	-0.260	-0.17427798863949795	
8.46	-0.271	-0.1948293175846751	
8.465	-0.236	-0.21619481126849585	
8.47	-0.173	-0.22804401401178734	
8.475	-0.142	-0.2263832129856695	
8.48	-0.145	-0.21168437115267705	
8.485	-0.130	-0.19018230827290744	
8.49	-0.124	-0.1698377111846346	
8.495	-0.090	-0.15091614437594816	
8.5	-0.042	-0.1275800952586843	
8.505	0.044	-0.09934294321880804	
8.51	0.047	-0.06382100268029495	
8.515	0.032	-0.026131788362374196	
8.52	0.064	0.005892308713419214	
8.525	-0.017	0.02554745437853882	
8.53	-0.066	0.02937216955174108	
8.535	0.065	0.023830088501746553	
8.54	0.122	0.02310711703095261	
8.545	0.156	0.040136740908813945	
8.55	0.180	0.07046664260486382	
8.555	-0.025	0.09455459841453837	
8.56	-0.232	0.08312861406490957	
8.565	-0.384	0.022918022143233085	
8.57	-0.495	-0.07914799318602483	
8.575	-0.541	-0.20448921672984735	
8.58	-0.501	-0.3245341097986656	
8.585	-0.382	-0.4101241643044609	
8.59	-0.223	-0.44693620247410265	
8.595	-0.103	-0.42682906694959943	
8.6	0.137	-0.3494585075684043	
8.605	0.264	-0.22743578516351187	
8.61	0.165	-0.0878641555934282	
8.615	0.133	0.030942213896173472	
8.62	0.351	0.12083868028039421	
8.625	0.305	0.19351029606647266	
8.63	0.285	0.25146607447202274	
8.635	0.357	0.2917840489033241	
8.64	0.259	0.3150030225795798	
8.645	0.090	0.3122014665177256	
8.65	0.136	0.28144874148231636	
8.655	0.316	0.24447256541677456	
8.66	0.331	0.2313146347442822	
8.665	0.256	0.24002788192909297	
8.67	0.324	0.25463773541055074	
8.675	0.397	0.2735573982091119	
8.68	0.453	0.3047053362655249	
8.685	0.519	0.34964435073855293	
8.69	0.464	0.39585534157759084	
8.695	0.505	0.43546042085800574	
8.7	0.605	0.4714944116065798	
8.705	0.840	0.5202075340142776	
8.71	1.181	0.6064359848863674	
8.715	1.508	0.7562807260186037	
8.72	1.547	0.9544559690440214	
8.725	1.495	1.1564193711522321	
8.73	1.518	1.3228687527688894	
8.735	1.527	1.4405863991757264	
8.74	1.327	1.5036642321189313	
8.745	1.298	1.5105495584422233	
8.75	1.266	1.4755566672769234	
8.755	1.133	1.4140490894587265	
8.76	1.100	1.3363962268728418	
8.765	1.124	1.2583332564712721	
8.77	1.153	1.1954070881890058	
8.775	1.190	1.1554524012702228	
8.78	1.069	1.1359795956127428	
8.785	1.045	1.1185583068239175	
8.79	0.979	1.0936451597127328	
8.795	1.013	1.065665758541112	
8.8	1.026	1.0415790507688347	
8.805	0.936	1.0209687996218488	
8.81	0.915	0.9984360845762918	
8.815	0.783	0.9683820593552283	
8.82	0.718	0.921296916061387	
8.825	0.704	0.8623984420412125	
8.83	0.741	0.8080923681157559	
8.835	0.748	0.7675806770605145	
8.84	0.617	0.7365500224518768	
8.845	0.512	0.7006880136199757	
8.85	0.501	0.6536361124908319	
8.855	0.482	0.6008999005690161	
8.86	0.343	0.5474211329166385	
8.865	0.233	0.4854642068971541	
8.87	0.124	0.4082601298186683	
8.875	0.059	0.31933829312761963	
8.88	0.032	0.2301649182704209	
8.885	-0.022	0.14858199503567115	
8.89	-0.071	0.07646966736528696	
8.895	-0.066	0.01676554886776186	
8.9	-0.019	-0.025279969831876956	
8.905	-0.038	-0.049192977500664294	
8.91	-0.100	-0.060590808271876136	
8.915	-0.058	-0.06741846843563788	
8.92	-0.087	-0.07277017930792337	
8.925	-0.112	-0.0787391865083604	
8.93	-0.110	-0.08576254750184517	
8.935	-0.122	-0.09440268482671804	
8.94	-0.086	-0.10262388288920599	
8.945	-0.042	-0.10219817317360883	
8.95	-0.042	-0.0922178217464664	
8.955	-0.159	-0.08529654611721689	
8.96	-0.341	-0.09764336790902532	
8.965	-0.411	-0.1423400720633604	
8.97	-0.451	-0.21380822966944082	
8.975	-0.449	-0.29080746563623094	
8.98	-0.388	-0.3546554324060385	
8.985	-0.257	-0.3883492276965114	
8.99	-0.118	-0.3827074373294822	
8.995	0.088	-0.3261363448953093	
9.0	0.322	-0.2201070529221772	
9.005	0.287	-0.08137501935291663	
9.01	0.292	0.05632496999931994	
9.015	0.541	0.18077744359135411	
9.02	0.617	0.2991843710621669	
9.025	0.544	0.40809525989216805	
9.03	0.638	0.4963480820152749	
9.035	0.600	0.5596446387144721	
9.04	0.397	0.5892049979571419	
9.045	0.380	0.5777899048729768	
9.05	0.304	0.5338620967657566	
9.055	0.217	0.46764616757075683	
9.06	0.178	0.3913524829080425	
9.065	0.174	0.31774841541329346	
9.07	0.183	0.2541978241562083	
9.075	0.221	0.2101687771909282	
9.08	0.319	0.19535600480466814	
9.085	0.337	0.20664973012311458	
9.09	0.197	0.22826913992519368	
9.095	0.137	0.23678016690833373	
9.1	0.149	0.22782054871717888	
9.105	0.114	0.20470160532944426	
9.11	-0.009	0.1723625778375275	
9.115	-0.064	0.12765983606234385	
9.12	-0.133	0.06920389336734929	
9.125	-0.228	0.00021277788069513394	
9.13	-0.268	-0.07172809238021544	
9.135	-0.342	-0.14438976502637096	
9.14	-0.514	-0.22264265883117637	
9.145	-0.653	-0.31223101392975194	
9.15	-0.715	-0.41525103634880234	
9.155	-0.738	-0.520231028835537	
9.16	-0.839	-0.6155778536730905	
9.165	-0.883	-0.7004027032481008	
9.17	-0.876	-0.7737836687536792	
9.175	-0.868	-0.8296945960400675	
9.18	-0.822	-0.8607468114787684	
9.185	-0.795	-0.8704356972776548	
9.19	-0.841	-0.8655772512055911	
9.195	-0.808	-0.8541927122931312	
9.2	-0.763	-0.8383058026476304	
9.205	-0.737	-0.8192313355026544	
9.21	-0.711	-0.7945358573078891	
9.215	-0.653	-0.7644323816675069	
9.22	-0.666	-0.7328157441266383	
9.225	-0.633	-0.7036802293591244	
9.23	-0.530	-0.6717644996174201	
9.235	-0.501	-0.6334568284838615	
9.24	-0.524	-0.5935588551091531	
9.245	-0.521	-0.5592099246551601	
9.25	-0.478	-0.5333340002920786	
9.255	-0.456	-0.5122024780958955	
9.26	-0.433	-0.49153597424820894	
9.265	-0.320	-0.46446778146982276	
9.27	-0.202	-0.4257732410683393	
9.275	-0.139	-0.36863553557247486	
9.28	-0.061	-0.29581304886706156	
9.285	0.039	-0.21647413691474343	
9.29	0.211	-0.1274986284997701	
9.295	0.440	-0.018186243013651338	
9.3	0.791	0.12666575781254327	
9.305	0.988	0.31184128565817815	
9.31	1.179	0.5274840436459307	
9.315	1.584	0.7645002424444974	
9.32	2.056	1.0352467000859735	
9.325	2.382	1.3494306054820204	
9.33	2.705	1.6951640713458598	
9.335	3.083	2.0534659237997603	
9.34	3.080	2.401536263641143	
9.345	3.071	2.6977709959894893	
9.35	3.061	2.9134556403508	
9.355	3.048	3.0447959663259363	
9.36	3.037	3.1106028083016133	
9.365	3.031	3.1303845615496635	
9.37	3.028	3.121082957797684	
9.375	3.028	3.099561466222946	
9.38	3.029	3.076211636709095	
9.385	3.029	3.0562835716791725	
9.39	3.032	3.0406136328641105	
9.395	3.038	3.0319978111860273	
9.4	3.035	3.0293849357031526	
9.405	3.040	3.0277431943111877	
9.41	3.046	3.030802087354947	
9.415	3.049	3.0343934878237495	
9.42	3.048	3.0389241589277556	
9.425	3.043	3.04165851638908	
9.43	3.037	3.0443115819924698	
9.435	3.041	3.0441237824339726	
9.44	3.046	3.043596730141018	
9.445	3.049	3.0441575691423406	
9.45	3.055	3.04530361516312	
9.455	3.060	3.0466264781545322	
9.46	3.067	3.050950892652703	
9.465	3.071	3.056424796836592	
9.47	3.077	3.060754081915315	
9.475	3.077	3.0657258506041396	
9.48	3.078	3.071449546609501	
9.485	3.083	3.0739754806106925	
9.49	2.887	3.0685308427699303	
9.495	2.631	3.029304528901754	
9.5	2.174	2.927185147266159	
9.505	1.480	2.726395158622018	
9.51	0.970	2.407025228580367	
9.515	0.579	1.9904484717859683	
9.52	0.146	1.5215872902611514	
9.525	-0.020	1.0508143861265187	
9.53	-0.093	0.6266235139270623	
9.535	-0.260	0.27889872627292933	
9.54	-0.416	0.009556587095630939	
9.545	-0.466	-0.1955019438198945	
9.55	-0.569	-0.34980325539969603	
9.555	-0.695	-0.4675803648575813	
9.56	-0.715	-0.5617779278290472	
9.565	-0.399	-0.6205156658543074	
9.57	-0.257	-0.6174526490500652	
9.575	-0.364	-0.5610785527571123	
9.58	-0.404	-0.49246702890355704	
9.585	-0.546	-0.44834387043471113	
9.59	-0.622	-0.44136769705805046	
9.595	-0.440	-0.45842794655977914	
9.6	-0.173	-0.4600080545361918	
9.605	0.140	-0.40649303632000844	
9.61	0.880	-0.2584933604685514	
9.615	1.579	0.022358303879458256	
9.62	2.123	0.4394580808415745	
9.625	3.025	0.9731986983875849	
9.63	3.074	1.5745274028955802	
9.635	3.069	2.143402992426605	
9.64	3.067	2.5946644923717366	
9.645	3.067	2.904582200419755	
9.65	3.069	3.0857675881529527	
9.655	3.080	3.17242498896042	
9.66	2.802	3.1854936902759547	
9.665	2.294	3.110138459352361	
9.67	1.575	2.9122276951519313	
9.675	0.903	2.571118765584594	
9.68	0.531	2.109505069347327	
9.685	0.217	1.5924747888818838	
9.69	-0.042	1.0878554265835545	
9.695	-0.089	0.641714209899235	
9.7	-0.214	0.28281961430353864	
9.705	-0.367	0.013544252754422795	
9.71	-0.440	-0.18441161214152543	
9.715	-0.532	-0.3308526967416558	
9.72	-0.674	-0.44263345665142917	
9.725	-0.786	-0.537703574113944	
9.73	-0.842	-0.6275556035023704	
9.735	-0.984	-0.7165920725112318	
9.74	-0.993	-0.8030503307596816	
9.745	-0.993	-0.8793572978188946	
9.75	-0.995	-0.9393483810144766	
9.755	-0.995	-0.9783830376173606	
9.76	-0.995	-1.000366453283085	
9.765	-0.995	-1.0110172348241004	
9.77	-0.995	-1.0126177792486435	
9.775	-0.995	-1.009561731944606	
9.78	-0.993	-1.0056634755631644	
9.785	-0.995	-1.002673689489789	
9.79	-0.995	-0.9978920065848054	
9.795	-0.995	-0.995382618836143	
9.8	-0.995	-0.9955295021112192	
9.805	-0.995	-0.9942819918023562	
9.81	-0.995	-0.9932613946605927	
9.815	-0.995	-0.9942051631933126	
9.82	0.220	-0.9385759060726175	
9.825	1.983	-0.6711114089883946	
9.83	2.545	-0.10544277706203907	
9.835	2.279	0.6220697314252501	
9.84	1.615	1.2688345758286719	
9.845	0.984	1.652583574304148	
9.85	0.288	1.7133471042796293	
9.855	-0.232	1.488371790218392	
9.86	-0.349	1.0807119700546963	
9.865	-0.304	0.6221464644180958	
9.87	-0.346	0.22132853833534777	
9.875	-0.368	-0.07760632463302188	
9.88	-0.356	-0.2774240579928017	
9.885	-0.465	-0.3965900655771283	
9.89	-0.631	-0.4701554312905903	
9.895	-0.789	-0.5343289397702098	
9.9	-0.952	-0.6152587869365154	
9.905	-0.995	-0.7105343651537271	
9.91	-0.995	-0.8074436095655805	
9.915	-0.993	-0.8897690704975468	
9.92	-0.993	-0.9506430706328821	
9.925	-0.995	-0.986827400227965	
9.93	-0.995	-1.0064370851479139	
9.935	-0.995	-1.0144744269885069	
9.94	-0.995	-1.0142773348278395	
9.945	-0.995	-1.010364163309696	
9.95	-0.995	-1.0060859931189485	
9.955	-0.995	-1.0025873952790605	
9.96	-0.995	-0.9975773960382059	
9.965	-0.995	-0.9956535875002743	
9.97	-0.995	-0.9956292432192523	
9.975	-0.996	-0.9939875298358499	
9.98	-0.995	-0.9933670612308119	
9.985	-0.995	-0.9943827196668664	
9.99	-0.995	-0.9944240198793031	
9.995	-0.995	-0.9943586688291592	
10.0	-0.995	-0.9949420669927418	
10.005	-0.995	-0.9956937434106371	
10.01	-0.995	-0.9946483878145105	
10.015	-0.995	-0.9944925788286076	
10.02	-0.995	-0.9956664498177761	
10.025	-0.996	-0.9951275692630452	
10.03	-0.996	-0.9942312512863221	
10.035	-0.996	-0.9953295762932708	
10.04	-0.996	-0.9966033806620445	
10.045	-0.996	-0.9952915603122218	
10.05	-0.998	-0.9957966779476518	
10.055	-0.996	-0.9978659833989323	
10.06	-0.996	-0.9966878676754626	
10.065	-0.998	-0.9962787231934873	
10.07	-0.996	-0.9977681301855937	
10.075	-0.996	-0.9972909964107407	
10.08	-0.996	-0.9960115264307455	
10.085	-0.996	-0.9972995013155083	
10.09	-0.996	-0.9978600453851372	
10.095	-0.996	-0.9951522185232767	
10.1	-0.995	-0.9956135419578386	
10.105	-0.995	-0.9971385816286537	
10.11	-0.996	-0.9957033431386677	
10.115	-0.996	-0.9949759976509502	
10.12	-0.995	-0.996952601916602	
10.125	-0.995	-0.9964933988753168	
10.13	-0.993	-0.9936789865997881	
10.135	-0.993	-0.9953014488525691	
10.14	-0.893	-0.9912123182287124	
10.145	-0.647	-0.9618910956009588	
10.15	-0.445	-0.8923361675409841	
10.155	-0.332	-0.7815168149662993	
10.16	-0.072	-0.6347079177440134	
10.165	0.449	-0.44652477619776	
10.17	0.875	-0.19612944467349303	
10.175	1.506	0.13628266389764793	
10.18	1.986	0.5467619584043731	
10.185	2.129	0.9967258123008305	
10.19	2.119	1.4192861371121628	
10.195	2.241	1.7652201830041285	
10.2	2.194	2.013876600067187	
10.205	2.019	2.1610346044989717	
10.21	2.317	2.232175335078463	
10.215	3.081	2.304912243594634	
10.22	3.078	2.4447658195783566	
10.225	3.074	2.6319001426351836	
10.23	3.074	2.808909952061809	
10.235	3.078	2.9408544694412346	
10.24	3.080	3.03108391246953	
10.245	3.083	3.0872935883892145	
10.25	3.083	3.113096601088513	
10.255	2.800	3.1039490122312605	
10.26	2.835	3.0611078769672497	
10.265	3.077	3.008992749170946	
10.27	3.028	2.978688372759158	
10.275	3.025	2.975853295051574	
10.28	3.023	2.9870602728856177	
10.285	2.681	2.9798499621451358	
10.29	2.256	2.9169294594271378	
10.295	1.992	2.7753108294961644	
10.3	1.688	2.5571508078489043	
10.305	1.260	2.280878236979267	
10.31	1.095	1.9721092524119397	
10.315	1.106	1.6680687074949105	
10.32	0.892	1.3996669800361379	
10.325	0.826	1.1828328249981603	
10.33	0.930	1.0211431161866664	
10.335	0.837	0.9119217991028922	
10.34	0.782	0.8459683889987062	
10.345	0.887	0.8123848696971032	
10.35	0.845	0.8012097809948397	
10.355	0.637	0.7938753495982267	
10.36	0.623	0.7730807966158157	
10.365	0.683	0.7400458513180757	
10.37	0.441	0.694645482191931	
10.375	0.241	0.629770161241429	
10.38	0.227	0.5370588010737087	
10.385	0.081	0.4249196377425044	
10.39	-0.054	0.30599745682005197	
10.395	0.033	0.19532728506074953	
10.4	0.046	0.10620078467846865	
10.405	-0.032	0.04398712502834857	
10.41	0.085	0.011093142577195124	
10.415	0.223	0.010984804317535589	
10.42	0.151	0.03673129988790819	
10.425	0.287	0.0808397904980594	
10.43	0.571	0.15099713231802964	
10.435	0.621	0.24897544655025233	
10.44	0.414	0.35306275832755707	
10.445	0.337	0.425152607948219	
10.45	0.236	0.4421113426760441	
10.455	0.065	0.4061071439392705	
10.46	0.107	0.3390152941797546	
10.465	0.194	0.26584379509372835	
10.47	0.046	0.20187925155254177	
10.475	-0.045	0.1458874708612451	
10.48	0.001	0.0917770950408776	
10.485	-0.034	0.04201080292757629	
10.49	-0.161	-0.0017340375846876105	
10.495	-0.104	-0.0409457641053621	
10.5	-0.118	-0.07594407487628119	
10.505	-0.243	-0.10866871902763237	
10.51	-0.255	-0.14201355755227635	
10.515	-0.320	-0.180371771849608	
10.52	-0.448	-0.23099621129966857	
10.525	-0.430	-0.28799699924852207	
10.53	-0.297	-0.3344079931780458	
10.535	-0.312	-0.3599546279091739	
10.54	-0.407	-0.367550220054669	
10.545	-0.498	-0.376107613580129	
10.55	-0.718	-0.4090668392427187	
10.555	-0.993	-0.48750234068920556	
10.56	-0.992	-0.6040701772608299	
10.565	-0.993	-0.7325125282171835	
10.57	-0.993	-0.8467947519081027	
10.575	-0.993	-0.9289236583669818	
10.58	-0.893	-0.9746201868532459	
10.585	-0.723	-0.980867847384379	
10.59	-0.660	-0.9413544659278246	
10.595	-0.616	-0.8692609308176871	
10.6	-0.598	-0.7881119203735468	
10.605	-0.662	-0.7192782047748096	
10.61	-0.465	-0.6611204271232036	
10.615	0.134	-0.5766505634871203	
10.62	1.344	-0.37753461944076727	
10.625	2.036	0.014316359394695902	
10.63	2.131	0.554211032731141	
10.635	1.734	1.0859175586776861	
10.64	1.217	1.4615728282300453	
10.645	0.893	1.611608028574317	
10.65	0.492	1.5487287366474525	
10.655	0.035	1.3186889841096145	
10.66	-0.003	0.9899223269820595	
10.665	0.311	0.6613501030662858	
10.67	0.704	0.4374141836668852	
10.675	1.226	0.3822888250332509	
10.68	1.825	0.5173078755498066	
10.685	2.010	0.8031426205208937	
10.69	1.833	1.1497189449668266	
10.695	1.657	1.4485600871232882	
10.7	1.262	1.6227175221783368	
10.705	0.594	1.627759394095551	
10.71	0.033	1.4457712168717969	
10.715	-0.197	1.1121046343232006	
10.72	-0.489	0.7014351416517391	
10.725	-0.700	0.2832811106416448	
10.73	-0.819	-0.09695593575497748	
10.735	-0.993	-0.4218624477744518	
10.74	-0.995	-0.6799908069976632	
10.745	-0.993	-0.8624132704617321	
10.75	-0.995	-0.9772970686593013	
10.755	-0.995	-1.0389185140559254	
10.76	-0.995	-1.0590605711194478	
10.765	-0.995	-1.0570364362419402	
10.77	-0.995	-1.0455202144239584	
10.775	-0.995	-1.0306147839154685	
10.78	-0.993	-1.0151147552515587	
10.785	-0.993	-1.0049511202594004	
10.79	-0.995	-0.9979019416408651	
10.795	-0.993	-0.9924940504379736	
10.8	-0.995	-0.990432279585555	
10.805	-0.995	-0.991852583455227	
10.81	-0.995	-0.9910298533192647	
10.815	-0.995	-0.9911398947030788	
10.82	-0.993	-0.9935077653715814	
10.825	-0.993	-0.9945356824535649	
10.83	-0.995	-0.993158883741514	
10.835	-0.993	-0.9939922818737157	
10.84	-0.995	-0.9948451551072802	
10.845	-0.993	-0.993477738068499	
10.85	-0.995	-0.993480063339505	
10.855	-0.993	-0.9948516011982717	
10.86	-0.995	-0.9939880805261372	
10.865	-0.993	-0.9931481479693777	
10.87	-0.995	-0.9945486904290471	
10.875	-0.995	-0.9945170302662247	
10.88	-0.937	-0.9911148750471719	
10.885	-0.889	-0.9810214791850751	
10.89	-0.911	-0.9628695086952139	
10.895	-0.828	-0.9374213782405079	
10.9	-0.782	-0.9074758389482049	
10.905	-0.815	-0.8749112292599954	
10.91	-0.732	-0.8409569122168878	
10.915	-0.657	-0.804101065574668	
10.92	-0.706	-0.7656028717868681	
10.925	-0.706	-0.7335383152540907	
10.93	-0.630	-0.7080704182682627	
10.935	-0.588	-0.6840413262482248	
10.94	-0.537	-0.6538982026085425	
10.945	-0.552	-0.6193870642792653	
10.95	-0.763	-0.5994964150840637	
10.955	-0.993	-0.6219973226386626	
10.96	-0.993	-0.6899692708598474	
10.965	-0.995	-0.7780493362300277	
10.97	-0.993	-0.8636012359342323	
10.975	-0.995	-0.9285564647854252	
10.98	-0.868	-0.9660155270205629	
10.985	-0.868	-0.9729941353256297	
10.99	-0.923	-0.9609570248495308	
10.995	-0.925	-0.9434183359663914	
11.0	-0.989	-0.9344098753304774	
11.005	-0.993	-0.9389626639628827	
11.01	-0.987	-0.9490183359439149	
11.015	-0.717	-0.949009723973413	
11.02	-0.537	-0.9115291272726227	
11.025	-0.439	-0.8275895997916465	
11.03	-0.338	-0.7120565875508688	
11.035	-0.295	-0.5909841958459914	
11.04	-0.240	-0.4769736294901985	
11.045	-0.188	-0.37543148670527293	
11.05	-0.185	-0.29339738473830373	
11.055	-0.315	-0.24099149243629217	
11.06	-0.408	-0.22605374111112791	
11.065	-0.396	-0.24602300125095847	
11.07	-0.428	-0.28758396772733064	
11.075	-0.381	-0.3296250309504144	
11.08	-0.217	-0.3529941556250248	
11.085	-0.152	-0.34594321427097746	
11.09	-0.119	-0.3080004936970144	
11.095	-0.078	-0.2524083525402153	
11.1	-0.187	-0.20036234155710364	
11.105	-0.425	-0.18003848359285013	
11.11	-0.523	-0.20707900518765923	
11.115	-0.573	-0.27597476911214047	
11.12	-0.712	-0.3705879391720047	
11.125	-0.857	-0.47968563224183186	
11.13	-0.923	-0.5980034254622397	
11.135	-0.993	-0.7179312861932647	
11.14	-0.995	-0.8250229233000314	
11.145	-0.993	-0.9073972975765978	
11.15	-0.995	-0.9643032700262647	
11.155	-0.995	-0.9990044869985912	
11.16	-0.993	-1.0140516080443842	
11.165	-0.995	-1.0169346989582113	
11.17	-0.995	-1.0166023588390476	
11.175	-0.995	-1.0117018002274212	
11.18	-0.954	-1.0019459113864042	
11.185	-0.900	-0.9899356770811562	
11.19	-0.885	-0.9701035060966546	
11.195	-0.767	-0.9373599034857082	
11.2	-0.711	-0.8932518332906066	
11.205	-0.743	-0.8441096168582225	
11.21	-0.702	-0.7960781723111998	
11.215	-0.614	-0.7518261403247148	
11.22	-0.639	-0.7126549514849647	
11.225	-0.596	-0.6757963384371282	
11.23	-0.518	-0.6388378845614611	
11.235	-0.497	-0.6039079878464824	
11.24	-0.520	-0.569246746396237	
11.245	-0.436	-0.5353214827046926	
11.25	-0.362	-0.5021472954912141	
11.255	-0.346	-0.46421866959870806	
11.26	-0.225	-0.41709897530979495	
11.265	-0.101	-0.3576723438843357	
11.27	-0.138	-0.2907108358013631	
11.275	-0.064	-0.2239159075784133	
11.28	0.223	-0.14970234794834164	
11.285	0.418	-0.05083250045268827	
11.29	0.424	0.07462724469398309	
11.295	0.733	0.217704032558036	
11.3	0.953	0.3779729686392899	
11.305	0.932	0.5497123677242636	
11.31	1.156	0.7178125877429458	
11.315	1.480	0.8873976692990705	
11.32	1.624	1.0693489795982691	
11.325	1.923	1.268037213319059	
11.33	2.577	1.506284917711106	
11.335	3.086	1.8122736856805717	
11.34	3.083	2.1726687708671184	
11.345	3.077	2.5205301085331904	
11.35	3.075	2.7938478358386902	
11.355	3.077	2.9778132570175364	
11.36	3.075	3.088801173943155	
11.365	3.075	3.141204201769355	
11.37	3.078	3.1533766573048583	
11.375	3.077	3.145177188963067	
11.38	3.077	3.131126432343833	
11.385	3.074	3.11209725931122	
11.39	3.072	3.094823171470761	
11.395	3.071	3.0846590075529168	
11.4	3.074	3.0757589614230705	
11.405	3.075	3.0698620038708695	
11.41	3.072	3.0689731969743645	
11.415	3.069	3.0701615725268674	
11.42	3.061	3.068281759261957	
11.425	3.057	3.0662879731253208	
11.43	3.055	3.066180566778267	
11.435	3.054	3.0619625386372915	
11.44	3.058	3.0578264137203206	
11.445	3.058	3.057792783947571	
11.45	3.061	3.0576893610835367	
11.455	3.064	3.0557497125382738	
11.46	3.066	3.05909858417033	
11.465	3.069	3.0622198120886774	
11.47	3.071	3.0621150717570287	
11.475	3.071	3.0653133765533904	
11.48	3.069	3.0693543979388553	
11.485	3.069	3.0688358287400725	
11.49	3.074	3.0687026451690462	
11.495	3.074	3.0720068175399415	
11.5	3.075	3.072698879489371	
11.505	3.074	3.0715020921324756	
11.51	3.074	3.0732362526627575	
11.515	3.077	3.075409618765618	
11.52	3.083	3.0738475790664666	
11.525	3.084	3.0762696804330325	
11.53	2.887	3.0716663568955296	
11.535	2.360	3.0166349725838746	
11.54	1.790	2.8663365071196063	
11.545	1.466	2.608251834842258	
11.55	1.094	2.266810560258607	
11.555	0.487	1.8691108222208133	
11.56	0.310	1.4422983663775075	
11.565	0.389	1.0347834066504669	
11.57	0.333	0.7056963024171914	
11.575	0.354	0.48016006005397116	
11.58	0.528	0.35602294270649215	
11.585	0.528	0.3147126199809823	
11.59	0.594	0.33720531741962234	
11.595	0.770	0.4034934027365506	
11.6	0.724	0.49193259885926516	
11.605	0.550	0.5698723763055866	
11.61	0.637	0.6203312015405242	
11.615	0.771	0.64992712670105	
11.62	0.597	0.6694480187416034	
11.625	0.625	0.6769939086520063	
11.63	0.788	0.6801892025941879	
11.635	0.675	0.6846625419969583	
11.64	0.524	0.68299025165822	
11.645	0.727	0.6735695580220509	
11.65	0.643	0.6630525332298722	
11.655	0.246	0.636756605786308	
11.66	0.073	0.5662596543609053	
11.665	0.001	0.4449991529145023	
11.67	-0.203	0.29445803734205395	
11.675	-0.309	0.1339486851453156	
11.68	-0.294	-0.01779829748449845	
11.685	-0.300	-0.14828197724124256	
11.69	-0.401	-0.24497034812973534	
11.695	-0.382	-0.3114454026710315	
11.7	-0.388	-0.3609716518147492	
11.705	-0.506	-0.3981811640509755	
11.71	-0.480	-0.42565398009098754	
11.715	-0.396	-0.44601953562637614	
11.72	-0.477	-0.45857310774262555	
11.725	-0.495	-0.4629889843337715	
11.73	-0.390	-0.4627961268922527	
11.735	-0.443	-0.4603850753263874	
11.74	-0.414	-0.45296413107193084	
11.745	-0.304	-0.4343669927037094	
11.75	-0.419	-0.41303818730899444	
11.755	-0.743	-0.4162735853857212	
11.76	-0.853	-0.4646254553850116	
11.765	-0.841	-0.5540231447593668	
11.77	-0.932	-0.6596288258084564	
11.775	-0.868	-0.752945254423072	
11.78	-0.679	-0.8107265039277038	
11.785	-0.723	-0.8304021873548977	
11.79	-0.856	-0.8239849034520235	
11.795	-0.915	-0.8193660724274012	
11.8	-0.995	-0.8380688534757534	
11.805	-0.995	-0.8752533516198624	
11.81	-0.995	-0.9115260433079986	
11.815	-0.993	-0.9450170281649062	
11.82	-0.672	-0.958699929803285	
11.825	-0.068	-0.8978391411077472	
11.83	1.087	-0.6865232403274353	
11.835	1.396	-0.29839896089079976	
11.84	1.254	0.18392160641139266	
11.845	1.301	0.6316235312921353	
11.85	0.874	0.9508580249750277	
11.855	-0.026	1.0695542282236632	
11.86	-0.336	0.9562988916212436	
11.865	-0.434	0.6729479892050108	
11.87	-0.468	0.32741885664741516	
11.875	-0.239	0.025142591152877605	
11.88	0.217	-0.15873974020606915	
11.885	0.603	-0.18731515077494684	
11.89	0.962	-0.05677251619454785	
11.895	1.544	0.209607032865636	
11.9	1.867	0.572886112865587	
11.905	1.634	0.9619339091788147	
11.91	1.346	1.2783040729931716	
11.915	0.912	1.4395718890640659	
11.92	0.091	1.4004243918675012	
11.925	-0.326	1.1601459242932652	
11.93	-0.585	0.7768252257528755	
11.935	-0.992	0.3276076865721551	
11.94	-0.995	-0.11849975506245417	
11.945	-0.996	-0.4966055290637211	
11.95	-0.996	-0.7762569706259529	
11.955	-0.995	-0.9566342322165828	
11.96	-0.996	-1.0495940972110875	
11.965	-0.995	-1.084593988919079	
11.97	-0.995	-1.0891969408221747	
11.975	-0.995	-1.071597852129912	
11.98	-0.995	-1.047473451116984	
11.985	-0.996	-1.0283594980746833	
11.99	-0.995	-1.0132633170671896	
11.995	-0.995	-0.9998857898080263	
12.0	-0.995	-0.9934644787906153	
12.005	-0.995	-0.9924156509172947	
12.01	-0.993	-0.98965546673962	
12.015	-0.995	-0.9888338251093658	
12.02	-0.995	-0.992053948982311	
12.025	-0.995	-0.9924924026749606	
12.03	-0.995	-0.9916641371191542	
12.035	-0.995	-0.9943399646199257	
12.04	-0.995	-0.9961039382118322	
12.045	-0.993	-0.9939823099174604	
12.05	-0.995	-0.9945381030960533	
12.055	-0.995	-0.996293167315523	
12.06	-0.995	-0.994657440221139	
12.065	-0.995	-0.9939271537095128	
12.07	-0.995	-0.9960067456194073	
12.075	-0.995	-0.9954451731457449	
12.08	-0.995	-0.9937167784232849	
12.085	-0.995	-0.9953526114392178	
12.09	-0.995	-0.9960683125768796	
12.095	-0.995	-0.9939792956378286	
12.1	-0.995	-0.9945605341007457	
12.105	-0.993	-0.996305027635366	
12.11	-0.995	-0.9946285936787252	
12.115	-0.993	-0.9929088150257841	
12.12	-0.995	-0.9950601780880534	
12.125	-0.995	-0.9944476430569434	
12.13	-0.995	-0.9926387420336754	
12.135	-0.995	-0.9943954983627178	
12.14	-0.995	-0.9961459672172239	
12.145	-0.995	-0.9938759456694667	
12.15	-0.993	-0.9945270851106903	
12.155	-0.995	-0.9964530807381062	
12.16	-0.995	-0.9935744589703591	
12.165	-0.995	-0.9937682211918314	
12.17	-0.995	-0.99621654510385	
12.175	-0.993	-0.995507609142071	
12.18	-0.995	-0.9924165325933432	
12.185	-0.995	-0.9944734728326433	
12.19	-0.993	-0.9953491856756772	
12.195	-0.960	-0.9916524180297731	
12.2	-0.886	-0.9834355489509278	
12.205	-0.975	-0.9707485775314783	
12.21	-0.879	-0.953481843209722	
12.215	-0.746	-0.929500614541791	
12.22	-0.605	-0.8874550384095148	
12.225	-0.229	-0.8005782701864019	
12.23	0.366	-0.6410126856098388	
12.235	0.347	-0.4085200191189718	
12.24	0.191	-0.1606901342120026	
12.245	0.328	0.04250784213958658	
12.25	0.305	0.18568522383999592	
12.255	0.151	0.2699497121182509	
12.26	0.120	0.29849778512662706	
12.265	-0.020	0.27469365566418913	
12.27	-0.135	0.20636748691341122	
12.275	-0.011	0.12326442032534053	
12.28	0.281	0.06716006466011185	
12.285	0.360	0.06549888373691938	
12.29	0.305	0.1131989038274588	
12.295	0.545	0.1896651898716948	
12.3	0.455	0.27480534683886204	
12.305	0.084	0.3347861995302875	
12.31	-0.005	0.33446021895637223	
12.315	-0.182	0.26783423681983143	
12.32	-0.434	0.1453218830130357	
12.325	-0.474	-0.010859002380111761	
12.33	-0.440	-0.16678990722949302	
12.335	-0.506	-0.30245842685785496	
12.34	-0.631	-0.4088886712017228	
12.345	-0.653	-0.4943478647347329	
12.35	-0.727	-0.5701069685248152	
12.355	-0.833	-0.6402007586466245	
12.36	-0.807	-0.7005299498576352	
12.365	-0.769	-0.7490583275479767	
12.37	-0.850	-0.7856476828640779	
12.375	-0.834	-0.8089202164092728	
12.38	-0.811	-0.8227605045277111	
12.385	-0.850	-0.8334463709242573	
12.39	-0.883	-0.8419798526148577	
12.395	-0.813	-0.8453249886060441	
12.4	-0.761	-0.8440252758335375	
12.405	-0.850	-0.8372813667893824	
12.41	-0.743	-0.8225692004130178	
12.415	-0.640	-0.8009502591362285	
12.42	-0.743	-0.7746884714936491	
12.425	-0.779	-0.7500320719614735	
12.43	-0.685	-0.734674595203852	
12.435	-0.677	-0.7264056269923074	
12.44	-0.711	-0.7150936498260516	
12.445	-0.657	-0.7002857406786684	
12.45	-0.636	-0.6889494786785625	
12.455	-0.727	-0.6813954427197847	
12.46	-0.688	-0.6765802715650229	
12.465	-0.627	-0.6748379047832997	
12.47	-0.715	-0.6757732857790042	
12.475	-0.727	-0.6780911949847346	
12.48	-0.588	-0.6785230401378226	
12.485	-0.584	-0.6724238847762909	
12.49	-0.665	-0.6572302621979014	
12.495	-0.572	-0.6391768229244245	
12.5	-0.518	-0.6218802884830137	
12.505	-0.515	-0.5995398341591703	
12.51	-0.376	-0.5625273100939001	
12.515	-0.226	-0.5086911176160405	
12.52	-0.274	-0.4439016323912213	
12.525	-0.263	-0.37615240168732383	
12.53	-0.135	-0.3123597988127719	
12.535	-0.207	-0.26249546981384986	
12.54	-0.269	-0.2273963572008687	
12.545	-0.159	-0.2050243034344823	
12.55	-0.064	-0.18880762080289148	
12.555	-0.199	-0.17174626697951584	
12.56	-0.263	-0.16050152734904177	
12.565	-0.307	-0.17255785704936655	
12.57	-0.417	-0.21108171503162648	
12.575	-0.350	-0.2571966278946979	
12.58	-0.069	-0.28410160115165517	
12.585	0.145	-0.2655259286801456	
12.59	0.357	-0.18151954922587937	
12.595	0.768	-0.025773904104753446	
12.6	0.916	0.18225952035856743	
12.605	0.774	0.4029675731641809	
12.61	0.913	0.5975669843639904	
12.615	1.054	0.7526612893860775	
12.62	0.910	0.8657033455925044	
12.625	1.278	0.9556864643775382	
12.63	1.945	1.077181697077303	
12.635	1.974	1.2624760136725146	
12.64	1.751	1.4721704989436808	
12.645	1.981	1.6532092186318943	
12.65	2.099	1.7954041504633178	
12.655	2.048	1.90889015386084	
12.66	2.166	2.003484372498174	
12.665	2.296	2.0817822232862273	
12.67	2.239	2.144781098765015	
12.675	2.255	2.1995722609348016	
12.68	2.386	2.246087245149747	
12.685	2.336	2.2815098623018413	
12.69	2.259	2.30619512644515	
12.695	2.440	2.3282114004214574	
12.7	2.536	2.352452591778585	
12.705	2.265	2.376896127875191	
12.71	2.194	2.383432917144157	
12.715	2.207	2.3557823665831625	
12.72	1.972	2.297798447041788	
12.725	1.876	2.2185478415360738	
12.73	2.047	2.132087795461274	
12.735	1.919	2.055555731088523	
12.74	1.818	1.992216161147099	
12.745	2.041	1.9501915948557524	
12.75	2.035	1.9324625257739123	
12.755	1.848	1.930942245081089	
12.76	1.897	1.9304277886588284	
12.765	2.055	1.9297731725602982	
12.77	1.925	1.9338756740150647	
12.775	1.885	1.9405609963511103	
12.78	2.059	1.9479936981039558	
12.785	1.966	1.9545830763690009	
12.79	1.859	1.9582837105492725	
12.795	2.064	1.9620827640330798	
12.8	2.201	1.9764250731412254	
12.805	2.120	2.011092877747016	
12.81	2.212	2.0614067886765617	
12.815	2.331	2.1156324380796425	
12.82	2.226	2.1669658207356712	
12.825	2.311	2.2136418603820687	
12.83	2.455	2.2618528979381183	
12.835	2.288	2.301580666550361	
12.84	2.065	2.3153949180818927	
12.845	2.132	2.294957269599612	
12.85	2.106	2.2473312259794342	
12.855	1.885	2.186230918403451	
12.86	1.860	2.1133725231103737	
12.865	1.876	2.0344901574844614	
12.87	1.644	1.94909626386852	
12.875	1.625	1.8637114924597893	
12.88	1.734	1.786678626226593	
12.885	1.668	1.7266545107272027	
12.89	1.466	1.6795977217607656	
12.895	1.399	1.6278076030061832	
12.9	1.307	1.5562201521708674	
12.905	1.120	1.4684412589162108	
12.91	1.139	1.3743666235106025	
12.915	1.233	1.288305356452005	
12.92	1.098	1.2212481427436146	
12.925	1.022	1.1698406105088788	
12.93	1.138	1.1294503087631278	
12.935	1.213	1.1056465346355078	
12.94	1.347	1.115862537562719	
12.945	1.660	1.1757472635689272	
12.95	1.854	1.2871007608220792	
12.955	1.838	1.4336584601324003	
12.96	1.804	1.5833735388764953	
12.965	1.752	1.6980142348941831	
12.97	1.552	1.7522882733641942	
12.975	1.541	1.7539919955965424	
12.98	1.711	1.726267446154402	
12.985	1.691	1.6965879131681558	
12.99	1.718	1.683049091811598	
12.995	2.024	1.6996580437365962	
13.0	2.077	1.753952170901536	
13.005	1.966	1.8298227100438693	
13.01	2.058	1.9054042440964172	
13.015	2.062	1.9668583516376323	
13.02	1.943	2.0054283720797197	
13.025	2.146	2.030120866187904	
13.03	2.942	2.093116757489722	
13.035	3.081	2.246713328237467	
13.04	3.080	2.4702564635404167	
13.045	3.075	2.6953297989199236	
13.05	3.069	2.874773949595385	
13.055	3.064	2.996171667503765	
13.06	3.060	3.0723118210402953	
13.065	3.057	3.1074959711499757	
13.07	3.060	3.112738960340918	
13.075	3.058	3.10632717947343	
13.08	3.057	3.0966186155683157	
13.085	3.052	3.081641450778244	
13.09	3.041	3.0686687125165535	
13.095	3.028	3.0591739062427044	
13.1	3.026	3.0485523657647153	
13.105	3.028	3.037525954082529	
13.11	3.028	3.0323904695025004	
13.115	3.029	3.029184954632063	
13.12	3.029	3.0248834332603787	
13.125	3.031	3.025553681175798	
13.13	3.029	3.028367004887845	
13.135	3.037	3.027574184814696	
13.14	3.046	3.028935545566509	
13.145	3.054	3.0350920524472045	
13.15	3.063	3.040355692004909	
13.155	3.074	3.045703717380949	
13.16	3.083	3.0554733021956895	
13.165	2.524	3.038953809040648	
13.17	1.697	2.9217932848209758	
13.175	1.211	2.6545579231875784	
13.18	1.120	2.2762630079898454	
13.185	0.854	1.8666310898814003	
13.19	0.580	1.4780499169465933	
13.195	0.776	1.1449994855269923	
13.2	0.883	0.9074454120422139	
13.205	0.893	0.7809651439439608	
13.21	1.132	0.7513422128024759	
13.215	1.526	0.81488497217244	
13.22	1.847	0.97129611318894	
13.225	2.734	1.237758070296361	
13.23	3.077	1.6199629787495542	
13.235	3.066	2.0597652297794777	
13.24	3.055	2.4611895115621896	
13.245	3.044	2.7695017763960124	
13.25	3.032	2.971310536202208	
13.255	3.028	3.0812644878307456	
13.26	3.028	3.127009684404027	
13.265	3.029	3.1315961822165472	
13.27	3.029	3.1136716743481667	
13.275	3.029	3.0896181225812565	
13.28	3.031	3.067475029318296	
13.285	3.032	3.0491335761199085	
13.29	3.031	3.0365187908264764	
13.295	3.029	3.0300925201722597	
13.3	3.029	3.0264123156296017	
13.305	3.029	3.0247447246815744	
13.31	3.031	3.0247085623961505	
13.315	3.032	3.0263730131545854	
13.32	3.031	3.028141419837233	
13.325	3.031	3.0285527474333245	
13.33	3.028	3.030044834825233	
13.335	3.031	3.030461836541814	
13.34	3.029	3.029731569131842	
13.345	3.028	3.0296208375147886	
13.35	3.032	3.0304934294305452	
13.355	3.032	3.0301645696673822	
13.36	3.032	3.0293564747569373	
13.365	3.032	3.031173150848073	
13.37	3.031	3.031625343937681	
13.375	3.031	3.0314447363626247	
13.38	3.046	3.0316240525871243	
13.385	2.844	3.0258353891362813	
13.39	-0.547	2.840735373532271	
13.395	-0.993	2.2596059918518194	
13.4	-0.996	1.396458911180801	
13.405	-0.995	0.5302937913823526	
13.41	-0.995	-0.17883400281574807	
13.415	-0.996	-0.6777092699698409	
13.42	-0.995	-0.9794297542028596	
13.425	-0.996	-1.1327707680283736	
13.43	-0.996	-1.1847249848399466	
13.435	-0.995	-1.172235036757876	
13.44	1.424	-1.021326157394073	
13.445	0.487	-0.6544377759672638	
13.45	0.236	-0.22981007408408224	
13.455	3.067	0.20993437452911196	
13.46	3.031	0.8178949115213534	
13.465	3.032	1.5264078646171384	
13.47	3.032	2.155924087550087	
13.475	3.032	2.6256311407857034	
13.48	3.032	2.9295343721382094	
13.485	3.031	3.1011421755509536	
13.49	3.029	3.1720866383272224	
13.495	3.029	3.178105048482988	
13.5	3.031	3.155551897595645	
13.505	3.032	3.1220689435907993	
13.51	3.032	3.087714993799371	
13.515	3.034	3.0602492243299064	
13.52	3.034	3.043757283644144	
13.525	3.040	3.033169921502545	
13.53	3.055	3.0282272329819113	
13.535	2.904	3.0253842214880495	
13.54	0.958	2.9173042516908767	
13.545	-0.038	2.5460282651711355	
13.55	-0.775	1.8988779967712555	
13.555	-0.993	1.1127630558525787	
13.56	-0.996	0.3457161869664878	
13.565	-0.996	-0.27930353361305255	
13.57	-0.996	-0.717285877734474	
13.575	-0.996	-0.9858949583023139	
13.58	-0.995	-1.1195192705519776	
13.585	-0.995	-1.1616632757903755	
13.59	-0.996	-1.1516577806714814	
13.595	-0.995	-1.1184720132584294	
13.6	-0.995	-1.0790251847833234	
13.605	-0.996	-1.043572965988718	
13.61	-0.995	-1.0182383315998815	
13.615	-0.995	-1.0012516171464407	
13.62	-0.996	-0.9916577270556667	
13.625	-0.996	-0.9879848637027248	
13.63	-0.995	-0.9873065985723863	
13.635	-0.996	-0.9888424823218678	
13.64	-0.996	-0.9908331577006176	
13.645	-0.996	-0.9932210671411665	
13.65	-0.996	-0.9940119191692218	
13.655	-0.995	-0.9948196932662801	
13.66	-0.996	-0.9960869785816133	
13.665	-0.996	-0.9960858446718764	
13.67	-0.995	-0.9958954238041142	
13.675	-0.996	-0.9959962405325444	
13.68	-0.996	-0.996061008184235	
13.685	-0.995	-0.9959770328000771	
13.69	-0.996	-0.9959920611266819	
13.695	-0.995	-0.9959929039254708	
13.7	-0.996	-0.9959951333199716	
13.705	-0.996	-0.9960557447304251	
13.71	-0.995	-0.9959593597295399	
13.715	-0.996	-0.9959303778297538	
13.72	-0.996	-0.9961190168913289	
13.725	-0.996	-0.9960134199083235	
13.73	-0.996	-0.9958261689981692	
13.735	-0.996	-0.9961054192177045	
13.74	-0.996	-0.996148757219559	
13.745	-0.996	-0.9957660419656218	
13.75	-0.995	-0.9959778917361586	
13.755	-0.996	-0.9962961728848339	
13.76	-0.996	-0.9958270218769882	
13.765	-0.995	-0.9957685797057799	
13.77	-0.996	-0.9963547678777708	
13.775	-0.996	-0.9960311382577237	
13.78	-0.995	-0.9955742032070996	
13.785	-0.996	-0.996244998495189	
13.79	-0.996	-0.996319648916344	
13.795	-0.995	-0.9955155580316283	
13.8	-0.995	-0.99595928023469	
13.805	-0.995	-0.9965659081556448	
13.81	-0.995	-0.9946757346963955	
13.815	-0.995	-0.9945846202554594	
13.82	-0.993	-0.9956292546971924	
13.825	-0.995	-0.9950489399617325	
13.83	-0.993	-0.9932750797704433	
13.835	-0.995	-0.994415971827547	
13.84	-0.995	-0.9945263788783117	
13.845	-0.995	-0.993205069115814	
13.85	-0.993	-0.993937705611593	
13.855	-0.995	-0.994906763053203	
13.86	-0.995	-0.9934839052764716	
13.865	-0.993	-0.9933467590848842	
13.87	-0.995	-0.9949801697858862	
13.875	-0.995	-0.994077869007466	
13.88	-0.993	-0.9928890194309896	
13.885	-0.995	-0.9946292731268497	
13.89	-0.993	-0.9947960210365344	
13.895	-0.993	-0.9928101940715306	
13.9	-0.992	-0.9939049787855201	
13.905	-0.993	-0.9943416297249666	
13.91	-0.975	-0.991240900665327	
13.915	-0.828	-0.9820361751297383	
13.92	-0.940	-0.9624103352565119	
13.925	-0.883	-0.9391189640051021	
13.93	-0.804	-0.915426105405937	
13.935	-0.925	-0.8948813230431417	
13.94	-0.958	-0.8861196641474757	
13.945	-0.844	-0.8853775176608489	
13.95	-0.873	-0.8858516946135769	
13.955	-0.993	-0.8897964595305309	
13.96	-0.871	-0.8960288623312529	
13.965	-0.746	-0.8947275903530034	
13.97	-0.799	-0.8787866813976395	
13.975	-0.702	-0.8461734869507349	
13.98	-0.494	-0.7970099314628016	
13.985	-0.550	-0.7330467974126524	
13.99	-0.494	-0.6613920657580232	
13.995	-0.335	-0.587039776326725	
14.0	-0.408	-0.5177953922147402	
14.005	-0.587	-0.4701833994502595	
14.01	-0.509	-0.45189617740337634	
14.015	-0.462	-0.4564786228619343	
14.02	-0.665	-0.4741025851236369	
14.025	-0.604	-0.5032656731512237	
14.03	-0.477	-0.5306816185393639	
14.035	-0.643	-0.5521573702342113	
14.04	-0.705	-0.574648286256404	
14.045	-0.459	-0.5907956671497163	
14.05	-0.431	-0.587655760969723	
14.055	-0.566	-0.5674201391894546	
14.06	-0.451	-0.5408458518500138	
14.065	-0.375	-0.513261350107334	
14.07	-0.547	-0.49024727186874456	
14.075	-0.596	-0.4803911153294561	
14.08	-0.527	-0.48951611684015883	
14.085	-0.647	-0.5141653128323842	
14.09	-0.703	-0.5468027012949296	
14.095	-0.602	-0.5807074982003666	
14.1	-0.654	-0.6115906005088405	
14.105	-0.796	-0.6405665324442383	
14.11	-0.734	-0.6698272838257604	
14.115	-0.697	-0.698132446552558	
14.12	-0.836	-0.7233341127517279	
14.125	-0.807	-0.7464372048612425	
14.13	-0.656	-0.7603646748881647	
14.135	-0.763	-0.7651692589765378	
14.14	-0.853	-0.7649253760205292	
14.145	-0.692	-0.7656371674792596	
14.15	-0.650	-0.7615166121839672	
14.155	-0.720	-0.7456563369514408	
14.16	-0.614	-0.7208264263869677	
14.165	-0.540	-0.6910494481021051	
14.17	-0.708	-0.6633898630770879	
14.175	-0.776	-0.6505002784614777	
14.18	-0.824	-0.6643312922459188	
14.185	-0.993	-0.7112035745500915	
14.19	-0.996	-0.7769711444427454	
14.195	-0.993	-0.8455678318560704	
14.2	-0.899	-0.9065088223518898	
14.205	-0.854	-0.9387197259896534	
14.21	-0.628	-0.9257344376578348	
14.215	-0.492	-0.8699654231122399	
14.22	-0.584	-0.7875033073800106	
14.225	-0.546	-0.6994961752818101	
14.23	-0.472	-0.6241795564809118	
14.235	-0.660	-0.5762913849170568	
14.24	-0.688	-0.5601033652013856	
14.245	-0.384	-0.5554152080663866	
14.25	-0.251	-0.5334459933027773	
14.255	-0.300	-0.48089741217232806	
14.26	-0.124	-0.4057300335633215	
14.265	0.018	-0.3198523541947921	
14.27	-0.107	-0.23160642872427684	
14.275	0.101	-0.14655414756848859	
14.28	0.467	-0.049022858799527724	
14.285	0.272	0.06274964853479573	
14.29	0.214	0.16377530328436404	
14.295	0.680	0.25158215207087553	
14.3	0.635	0.346646258265512	
14.305	0.369	0.43304353042075183	
14.31	0.621	0.4941130478634499	
14.315	0.768	0.5412130522266483	
14.32	0.362	0.5765571969154554	
14.325	0.319	0.5742545250136348	
14.33	0.530	0.5407748391211231	
14.335	0.180	0.4910374065706827	
14.34	-0.100	0.4128535219074433	
14.345	-0.054	0.29915432325691227	
14.35	-0.184	0.16774920853955144	
14.355	-0.413	0.03048235131505369	
14.36	-0.402	-0.10321455531398838	
14.365	-0.405	-0.2250413199739833	
14.37	-0.659	-0.33388939807630613	
14.375	-0.787	-0.438741994311268	
14.38	-0.804	-0.5467712964438849	
14.385	-0.993	-0.659617765633167	
14.39	-0.993	-0.767746535384791	
14.395	-0.995	-0.8593616314986333	
14.4	-0.995	-0.9312733134694556	
14.405	-0.993	-0.9799459912048608	
14.41	-0.993	-1.0035140095934305	
14.415	-0.993	-1.0134159997006176	
14.42	-0.995	-1.0173792015511838	
14.425	-0.995	-1.0136901894479662	
14.43	-0.995	-1.0062809359951599	
14.435	-0.995	-1.0033496023268436	
14.44	-0.995	-1.0004354848965222	
14.445	-0.993	-0.9948293905681888	
14.45	-0.993	-0.9933133474949999	
14.455	-0.995	-0.9945212521398674	
14.46	-0.995	-0.9927731802297817	
14.465	-0.995	-0.9916736443620116	
14.47	-0.995	-0.9949887457532439	
14.475	-0.996	-0.9947020928528998	
14.48	-0.995	-0.9936397718549342	
14.485	-0.996	-0.9951105843181002	
14.49	-0.996	-0.9962506580269159	
14.495	-0.995	-0.9951695900186391	
14.5	-0.996	-0.9952674070785228	
14.505	-0.996	-0.9972290360010332	
14.51	-0.996	-0.9960033224203693	
14.515	-0.996	-0.994799882927452	
14.52	-0.996	-0.9966888835372923	
14.525	-0.996	-0.996778341459365	
14.53	-0.996	-0.9948746549194031	
14.535	-0.995	-0.9958827919085927	
14.54	-0.996	-0.9971785114735375	
14.545	-0.996	-0.9954355697274994	
14.55	-0.996	-0.9951564498397082	
14.555	-0.996	-0.9970496626390254	
14.56	-0.996	-0.9962340774318427	
14.565	-0.996	-0.9948137169284546	
14.57	-0.996	-0.9964540107477384	
14.575	-0.996	-0.9969297976583329	
14.58	-0.996	-0.994999864466188	
14.585	-0.996	-0.99564322351519	
14.59	-0.996	-0.9972236173081035	
14.595	-0.996	-0.995645065590337	
14.6	-0.996	-0.9949608127712094	
14.605	-0.996	-0.9969755622625528	
14.61	-0.996	-0.9964882964626048	
14.615	-0.996	-0.994708563770677	
14.62	-0.996	-0.9962647940549757	
14.625	-0.996	-0.9971743980623711	
14.63	-0.996	-0.9950246361694591	
14.635	-0.996	-0.9953681533576513	
14.64	-0.996	-0.9973914212551984	
14.645	-0.995	-0.9958185926287126	
14.65	-0.995	-0.9946612491302386	
14.655	-0.996	-0.9969995701451648	
14.66	-0.995	-0.996790932651927	
14.665	0.913	-0.9053859609360844	
14.67	2.336	-0.5497707165082374	
14.675	2.290	0.08874055144203592	
14.68	1.876	0.7946928133663289	
14.685	1.349	1.3344946601757477	
14.69	0.927	1.6065397714887428	
14.695	0.817	1.6310923655754224	
14.7	0.651	1.491144043250615	
14.705	0.537	1.2670236737676435	
14.71	0.582	1.0304868080492415	
14.715	0.476	0.8263778068365839	
14.72	-0.014	0.6406520502157218	
14.725	-0.193	0.4438162315390408	
14.73	-0.052	0.2460974905636093	
14.735	-0.141	0.08153543555190812	
14.74	-0.211	-0.040358092236398906	
14.745	0.105	-0.1116024521812686	
14.75	0.368	-0.10980146841612737	
14.755	0.548	-0.026009876082502107	
14.76	1.025	0.13557102546235109	
14.765	1.457	0.3783715569896397	
14.77	1.410	0.6726643154301324	
14.775	1.343	0.9528560400940178	
14.78	1.283	1.1649029393811325	
14.785	0.858	1.2724003696219492	
14.79	0.243	1.2386907755271055	
14.795	-0.023	1.0571643345247361	
14.8	-0.063	0.77899069799817	
14.805	-0.127	0.48324767485860276	
14.81	0.255	0.24760541484608728	
14.815	1.138	0.15713557670563752	
14.82	2.142	0.29704909805124563	
14.825	3.080	0.7033359702818222	
14.83	3.060	1.299636105199878	
14.835	3.044	1.9162576224305372	
14.84	3.026	2.427061359543099	
14.845	3.025	2.79109043600356	
14.85	3.025	3.0126343417510992	
14.855	3.023	3.1233672621427617	
14.86	3.026	3.159664872925091	
14.865	3.026	3.1537487194419542	
14.87	3.026	3.1258419457081894	
14.875	3.028	3.0943702714912975	
14.88	3.025	3.0675403507618593	
14.885	3.025	3.04528889753283	
14.89	3.028	3.0303130605962307	
14.895	3.037	3.024150374575491	
14.9	3.040	3.0225820762155817	
14.905	3.046	3.024503758995218	
14.91	3.044	3.029742675139561	
14.915	3.040	3.0356408900186587	
14.92	3.037	3.0378530048055676	
14.925	3.028	3.0384612160744773	
14.93	3.025	3.0384738556597117	
14.935	3.025	3.0352324791087764	
14.94	3.025	3.031389290746908	
14.945	3.026	3.029151369902564	
14.95	3.026	3.0275095346546683	
14.955	3.028	3.0255344552731307	
14.96	3.028	3.025787487439067	
14.965	3.029	3.0265950218430087	
14.97	3.028	3.0268393600768917	
14.975	3.026	3.0265083317147043	
14.98	3.026	3.027466980378845	
14.985	3.026	3.0271982246351654	
14.99	3.028	3.026409360471491	
14.995	3.029	3.027171647463595	
15.0	3.029	3.027484822499388	
15.005	3.031	3.027524088303859	
15.01	3.031	3.0288121488317827	
15.015	3.028	3.0295965800080475	
15.02	3.028	3.0288121674996473	
15.025	3.028	3.028516135073992	
15.03	3.028	3.029496614244521	
15.035	3.031	3.029176013334668	
15.04	3.031	3.0283836646160895	
15.045	3.031	3.0292119744249693	
15.05	3.031	3.0304950808627518	
15.055	3.028	3.029469168112099	
15.06	3.029	3.0298284554730817	
15.065	3.029	3.030653451788943	
15.07	3.026	3.0287615705362887	
15.075	3.031	3.0284777693212437	
15.08	3.031	3.0295791382979846	
15.085	3.031	3.0291721791906485	
15.09	3.029	3.029290536692877	
15.095	3.029	3.0302735982356617	
15.1	3.029	3.030561308036682	
15.105	3.029	3.0293572563354703	
15.11	3.031	3.0298267550067672	
15.115	3.037	3.0307800331634436	
15.12	3.048	3.0316842163954343	
15.125	3.060	3.0343913652108316	
15.13	3.066	3.0427226379742867	
15.135	3.057	3.0481768626692123	
15.14	1.932	3.0010761520505307	
15.145	1.330	2.8061834532728263	
15.15	0.510	2.427507229420444	
15.155	-0.174	1.8922374995078188	
15.16	-0.480	1.2668515735908885	
15.165	-0.706	0.6408560373214816	
15.17	-0.993	0.07970453620324562	
15.175	-0.993	-0.3805006980771168	
15.18	-0.993	-0.7182025950300092	
15.185	-0.993	-0.9368245537165281	
15.19	-0.995	-1.0547462471355098	
15.195	-0.995	-1.1005927515972536	
15.2	-0.995	-1.1034558520593443	
15.205	-0.995	-1.0867202500276567	
15.21	-0.992	-1.0600720510919928	
15.215	-0.995	-1.034237048793458	
15.22	-0.995	-1.0154240577189655	
15.225	-0.996	-1.0015033544143517	
15.23	-0.993	-0.9932609434123649	
15.235	-0.995	-0.9899742800133775	
15.24	-0.995	-0.9897643966245365	
15.245	-0.995	-0.9895375426165688	
15.25	-0.995	-0.9905259155324407	
15.255	-0.995	-0.9927720579615338	
15.26	-0.995	-0.9929838444951125	
15.265	-0.995	-0.9932266660267973	
15.27	-0.995	-0.9955142151123757	
15.275	-0.995	-0.9954561145968591	
15.28	-0.995	-0.9941796001985547	
15.285	-0.995	-0.9950627592877519	
15.29	-0.995	-0.9958015058270111	
15.295	-0.995	-0.9944175003670157	
15.3	-0.995	-0.9945508375777875	
15.305	-0.995	-0.9958913074510225	
15.31	-0.995	-0.994888244740622	
15.315	-0.993	-0.9941495922807335	
15.32	-0.995	-0.9956652389435606	
15.325	-0.995	-0.9944522103782704	
15.33	-0.995	-0.9930159938995683	
15.335	-0.995	-0.9951676835830928	
15.34	-0.995	-0.9959178814225742	
15.345	-0.995	-0.9942284734408328	
15.35	-0.995	-0.9945398077823763	
15.355	-0.995	-0.9961071144262419	
15.36	-0.993	-0.9947650548381877	
15.365	-0.993	-0.9939897081429462	
15.37	-0.995	-0.9949000552017417	
15.375	-0.995	-0.9944798204287614	
15.38	-0.995	-0.9927444808135223	
15.385	-0.993	-0.9943060979429375	
15.39	-0.995	-0.9951235787833976	
15.395	-0.995	-0.9929529872063706	
15.4	-0.993	-0.9934910519128565	
15.405	-0.993	-0.9954319101787713	
15.41	-0.995	-0.9936146933389898	
15.415	-0.993	-0.9927365008512085	
15.42	-0.993	-0.9952200313149845	
15.425	-0.993	-0.994550378852235	
15.43	-0.993	-0.9923562849855018	
15.435	-0.993	-0.9934733622059811	
15.44	-0.995	-0.9944347093806242	
15.445	-0.860	-0.9855736955144985	
15.45	-0.741	-0.9613694792383547	
15.455	-0.844	-0.9208739184321507	
15.46	-0.767	-0.8744607119509171	
15.465	-0.668	-0.831384174859302	
15.47	-0.769	-0.7926010522622144	
15.475	-0.755	-0.7616820518454551	
15.48	-0.679	-0.7399086491267501	
15.485	-0.848	-0.7336383855560972	
15.49	-0.978	-0.7488091538309848	
15.495	-0.870	-0.7842238050720931	
15.5	-0.827	-0.8232531490873585	
15.505	-0.888	-0.8502946653509721	
15.51	-0.761	-0.8572890475226875	
15.515	-0.688	-0.8460428727734395	
15.52	-0.804	-0.8239565617792441	
15.525	-0.752	-0.7987850141824473	
15.53	-0.579	-0.7694784165511415	
15.535	-0.611	-0.7337681163097343	
15.54	-0.685	-0.6961113345175958	
15.545	-0.553	-0.6608846853735444	
15.55	-0.572	-0.6341689682540042	
15.555	-0.714	-0.6177172978435997	
15.56	-0.622	-0.6111625161838354	
15.565	-0.555	-0.6117419333981656	
15.57	-0.604	-0.6112810872074812	
15.575	0.110	-0.5718434453060499	
15.58	1.682	-0.38392792630117456	
15.585	2.320	0.04133945991332079	
15.59	2.487	0.6496187451875547	
15.595	2.773	1.2981986314823704	
15.6	2.660	1.8678812360346877	
15.605	2.067	2.2689950813401767	
15.61	1.880	2.4526531645513163	
15.615	1.535	2.4292618718459895	
15.62	0.647	2.223677739392066	
15.625	0.105	1.8499499174775904	
15.63	-0.090	1.3637573996760626	
15.635	-0.550	0.8392755096056576	
15.64	-0.870	0.3307768049836722	
15.645	-0.882	-0.12083458142117699	
15.65	-0.993	-0.4920353453987247	
15.655	-0.995	-0.7645653621219747	
15.66	-0.993	-0.9362062721163508	
15.665	-0.995	-1.030855529280685	
15.67	-0.993	-1.0760344650700988	
15.675	-0.995	-1.079794400382481	
15.68	-0.993	-1.063465971424592	
15.685	-0.993	-1.046788801266151	
15.69	-0.993	-1.0290229565079896	
15.695	-0.995	-1.008953651915586	
15.7	-0.993	-0.9992744646422377	
15.705	-0.995	-0.9965069034245676	
15.71	-0.993	-0.990156341108471	
15.715	-0.993	-0.9880185294266476	
15.72	-0.995	-0.9920965527653607	
15.725	-0.995	-0.991676225719679	
15.73	-0.993	-0.9894585913796871	
15.735	-0.995	-0.9939191987749576	
15.74	-0.995	-0.995994002777089	
15.745	-0.995	-0.9918066032703694	
15.75	-0.995	-0.9943586875748053	
15.755	-0.995	-0.9976412292137032	
15.76	-0.995	-0.9939812725445077	
15.765	-0.918	-0.9889396445427235	
15.77	-0.992	-0.9853417273856477	
15.775	-0.957	-0.9766275838658022	
15.78	-0.796	-0.9601955133440443	
15.785	-0.847	-0.9361096174949545	
15.79	-0.842	-0.9051616481863234	
15.795	-0.648	-0.8644932238988936	
15.8	-0.576	-0.8143471598520862	
15.805	-0.653	-0.7549590006399833	
15.81	-0.604	-0.6958070324617794	
15.815	-0.508	-0.6477423698007596	
15.82	-0.555	-0.6106604865759349	
15.825	-0.521	-0.5736373458322878	
15.83	-0.509	-0.5448776843921305	
15.835	-0.773	-0.5423526359456174	
15.84	-0.935	-0.5784150999868181	
15.845	-0.827	-0.6441463174784487	
15.85	-0.752	-0.7153271189431805	
15.855	-0.712	-0.7623074024129555	
15.86	-0.431	-0.7585343073454168	
15.865	-0.158	-0.6974382223143678	
15.87	-0.190	-0.5880314060304014	
15.875	-0.127	-0.45168068961518326	
15.88	0.082	-0.31446835599678447	
15.885	-0.016	-0.19454749157428586	
15.89	0.006	-0.09668175191952597	
15.895	0.391	-0.006752241305439612	
15.9	0.458	0.09172553686775906	
15.905	0.249	0.19224051430415345	
15.91	0.301	0.27057663933306686	
15.915	0.363	0.3137850735438168	
15.92	0.084	0.3225981432820561	
15.925	0.302	0.31025810602182796	
15.93	0.647	0.3119390549186946	
15.935	0.368	0.339350294213436	
15.94	0.261	0.3670402872326392	
15.945	0.551	0.3854777278001186	
15.95	0.565	0.4078371937250538	
15.955	0.420	0.4369947770295001	
15.96	0.710	0.47564424114846227	
15.965	0.788	0.5270333992960383	
15.97	0.379	0.5714751965660951	
15.975	0.403	0.5820697031228914	
15.98	0.689	0.5710570867156435	
15.985	0.473	0.5564449362301126	
15.99	0.223	0.5328957598948739	
15.995	0.377	0.4894157312943472	
16.0	0.160	0.42596928299832537	
16.005	-0.260	0.3319685623329388	
16.01	-0.271	0.2024413390808219	
16.015	-0.203	0.05508937116414671	
16.02	-0.373	-0.08329948753997092	
16.025	-0.349	-0.19100013342583697	
16.03	-0.242	-0.26506182155216335	
16.035	-0.402	-0.31737832460194615	
16.04	-0.440	-0.3520475815540739	
16.045	-0.252	-0.3687434989006906	
16.05	-0.260	-0.3689312630664261	
16.055	-0.391	-0.35787109739983686	
16.06	-0.284	-0.34169485724233006	
16.065	-0.135	-0.3209442236729839	
16.07	-0.251	-0.29515068180251625	
16.075	-0.263	-0.2651077709414839	
16.08	-0.124	-0.2391989018226883	
16.085	-0.255	-0.224235841564942	
16.09	-0.312	-0.21904189177019864	
16.095	-0.124	-0.21591907899839974	
16.1	-0.092	-0.20884589657824676	
16.105	-0.219	-0.19475668634313792	
16.11	-0.061	-0.17284636762183064	
16.115	0.096	-0.1419538917565344	
16.12	-0.170	-0.10799519952848854	
16.125	-0.187	-0.08722083142632875	
16.13	-0.020	-0.08331500839461872	
16.135	-0.141	-0.08904661727110184	
16.14	-0.246	-0.10102146598827211	
16.145	-0.109	-0.11613127048967256	
16.15	-0.116	-0.1327540692720002	
16.155	-0.225	-0.14659525410098023	
16.16	-0.187	-0.15403794560753925	
16.165	-0.136	-0.16402129974168905	
16.17	-0.321	-0.18078080047335127	
16.175	-0.301	-0.20127139331411806	
16.18	-0.122	-0.21845942990482758	
16.185	-0.228	-0.2288798893569217	
16.19	-0.307	-0.23297070521840132	
16.195	-0.185	-0.23231325626565544	
16.2	-0.199	-0.23368421926170266	
16.205	-0.375	-0.23947792881969418	
16.21	-0.378	-0.2532040545448369	
16.215	-0.341	-0.2810466504109317	
16.22	-0.503	-0.3206105735478294	
16.225	-0.514	-0.36335407980764833	
16.23	-0.381	-0.4015678370119737	
16.235	-0.474	-0.43273074735614736	
16.24	-0.501	-0.45295853369607536	
16.245	-0.376	-0.45844762397344313	
16.25	-0.449	-0.45859150234841023	
16.255	-0.705	-0.4694184122812953	
16.26	-0.818	-0.5063676011401785	
16.265	-0.833	-0.5760269738233235	
16.27	-0.969	-0.6694782282960234	
16.275	-0.918	-0.7594575345538748	
16.28	-0.627	-0.8175877787393564	
16.285	-0.544	-0.8265408014300475	
16.29	-0.495	-0.7809970757979724	
16.295	-0.339	-0.694570855850877	
16.3	-0.414	-0.600465250822377	
16.305	-0.752	-0.5364119377652239	
16.31	-0.993	-0.5345570483199871	
16.315	-0.993	-0.6059714941465835	
16.32	-0.995	-0.7193635054708216	
16.325	-0.834	-0.8145652367827383	
16.33	0.143	-0.8235422332541247	
16.335	1.112	-0.6552894346447453	
16.34	1.315	-0.2829434886255625	
16.345	1.566	0.2033096363445686	
16.35	1.447	0.6744680650661227	
16.355	1.248	1.039589640650854	
16.36	1.466	1.2834630762634902	
16.365	1.502	1.4289853542711333	
16.37	1.086	1.4875543511218483	
16.375	1.112	1.4654013350822097	
16.38	1.694	1.4193794410746847	
16.385	1.885	1.4235911236094423	
16.39	1.912	1.5020263457882392	
16.395	2.261	1.6373233907937486	
16.4	2.261	1.8005504347492483	
16.405	1.854	1.9427243674438166	
16.41	1.766	2.0163759329141904	
16.415	1.685	2.006859656785682	
16.42	1.127	1.9157557551795226	
16.425	0.657	1.7314380379430618	
16.43	0.527	1.4630179881484584	
16.435	0.006	1.134587037459224	
16.44	-0.371	0.7702595938626351	
16.445	-0.517	0.39706358500988453	
16.45	-0.795	0.036428720952035455	
16.455	-0.993	-0.294836036198969	
16.46	-0.995	-0.5725846854281731	
16.465	-0.995	-0.786389732759488	
16.47	-0.995	-0.9348952741477863	
16.475	-0.996	-1.0162937931595477	
16.48	-0.995	-1.0492832365105245	
16.485	-0.995	-1.060360377591671	
16.49	-0.995	-1.0544234024120196	
16.495	-0.995	-1.0351419873520495	
16.5	-0.715	-1.0077443028124793	
16.505	-0.459	-0.9445574260519511	
16.51	0.021	-0.8095534685631876	
16.515	0.669	-0.581601384157115	
16.52	0.762	-0.2687846862040689	
16.525	0.979	0.0837967497911409	
16.53	1.310	0.4304835129006679	
16.535	0.921	0.7255803660176497	
16.54	0.321	0.8966448193218165	
16.545	-0.075	0.8885713162218715	
16.55	-0.639	0.6970453777848606	
16.555	-0.995	0.3626154066179673	
16.56	-0.996	-0.03165215048566064	
16.565	-0.996	-0.403850950055251	
16.57	-0.996	-0.699522722482616	
16.575	-0.996	-0.8980132173936932	
16.58	-0.996	-1.0107725402668684	
16.585	-0.996	-1.0672858393720814	
16.59	-0.996	-1.0829411694040818	
16.595	-0.996	-1.0704957920597342	
16.6	-0.996	-1.0520078219990467	
16.605	-0.996	-1.036086962237933	
16.61	-0.996	-1.0166975182184514	
16.615	-0.996	-1.00313486100166	
16.62	-0.996	-0.9994563359691805	
16.625	-0.996	-0.9949539575378565	
16.63	-0.995	-0.9899674775010143	
16.635	-0.996	-0.9923105191425181	
16.64	-0.996	-0.9948362641643409	
16.645	-0.996	-0.9925518340733966	
16.65	-0.996	-0.9940592365676265	
16.655	-0.996	-0.9970362536280843	
16.66	-0.996	-0.9956800541167554	
16.665	-0.996	-0.994148920990555	
16.67	-0.996	-0.9974741463632135	
16.675	-0.996	-0.9979528918031692	
16.68	-0.996	-0.994914499997289	
16.685	-0.996	-0.9963316397732054	
16.69	-0.996	-0.9979111628797359	
16.695	-0.996	-0.9944724110358527	
16.7	-0.996	-0.9950056204006547	
16.705	-0.996	-0.9981793159336944	
16.71	-0.996	-0.995655347911952	
16.715	-0.996	-0.9939838622220093	
16.72	-0.996	-0.9976149234851923	
16.725	-0.996	-0.9970600955229789	
16.73	-0.996	-0.9936738649256665	
16.735	-0.996	-0.9963664089328128	
16.74	-0.996	-0.9981709282971484	
16.745	-0.996	-0.9942575793703818	
16.75	-0.996	-0.9948481787257469	
16.755	-0.996	-0.9985305950029855	
16.76	0.809	-0.9125204075605777	
16.765	2.085	-0.5763099581134263	
16.77	0.926	-0.9125204075605777	
16.775	-0.313	-0.9125204075605777	
16.78	-0.553	-0.9125204075605777	
16.785	-0.731	-0.9125204075605777	
16.79	-0.905	-0.9125204075605777	
16.795	-0.885	-0.9125204075605777	
16.8	-0.819	-0.46949018132459447	
16.805	-0.912	-0.6840116494222196	
16.81	-0.966	-0.8261477216989647	
16.815	-0.993	-0.9189221144163694	
16.82	-0.995	-0.9810405581283235	
16.825	-0.995	-1.013330247234416	
16.83	-0.995	-1.0221854974457303	
16.835	-0.995	-1.0247840032174853	
16.84	-0.996	-1.02186328259645	
16.845	-0.996	-1.0121001157291585	
16.85	-0.995	-1.0047389376218736	
16.855	-0.996	-1.0026182677693354	
16.86	-0.996	-0.9982630708339043	
16.865	-0.995	-0.9942799401891991	
16.87	-0.996	-0.9957641861841492	
16.875	-0.996	-0.9952182584426549	
16.88	-0.995	-0.9935371927739768	
16.885	-0.996	-0.9946802947146068	
16.89	-0.995	-0.9966147369408799	
16.895	-0.995	-0.9943556839349508	
16.9	-0.833	-0.9867954175626932	
16.905	-0.647	-0.9553092233113799	
16.91	-0.394	-0.8783352482180271	
16.915	0.307	-0.7294158148753849	
16.92	1.078	-0.4634432688886524	
16.925	1.857	-0.048052124650559414	
16.93	2.794	0.5172922695997422	
16.935	3.086	1.1844167945847894	
16.94	3.080	1.8474955757051066	
16.945	3.075	2.40430915099918	
16.95	3.071	2.801021889809004	
16.955	3.071	3.0438701224752154	
16.96	3.069	3.1705079872054602	
16.965	3.069	3.214263860508094	
16.97	3.071	3.2076562356208456	
16.975	3.074	3.1789493225612198	
16.98	3.072	3.146950697698996	
16.985	3.074	3.116461770252657	
16.99	3.077	3.0928136511967663	
16.995	3.075	3.079267016601631	
17.0	3.077	3.072007232402596	
17.005	3.077	3.068149359331197	
17.01	3.072	3.0675246760881962	
17.015	3.066	3.0701146263362435	
17.02	3.061	3.0688043596164416	
17.025	3.058	3.0660190103102836	
17.03	3.043	3.064770901363473	
17.035	3.028	3.0595086112216947	
17.04	3.026	3.0499326004625424	
17.045	3.028	3.043126237281919	
17.05	3.026	3.0369887631408448	
17.055	3.025	3.0302913993779064	
17.06	3.025	3.0264343998878056	
17.065	3.025	3.0260470511016404	
17.07	3.025	3.0239480974017123	
17.075	3.026	3.021978008946504	
17.08	3.028	3.024661414391007	
17.085	3.028	3.0256415356065145	
17.09	3.028	3.0249462816531163	
17.095	3.026	3.0259755010925087	
17.1	3.026	3.028088629669226	
17.105	3.025	3.026373730658703	
17.11	3.026	3.0262601240032625	
17.115	3.026	3.0270854775786855	
17.12	3.028	3.026107772597342	
17.125	3.028	3.0248190801676444	
17.13	3.029	3.0276027653803066	
17.135	3.029	3.0278543961091984	
17.14	3.026	3.026857854120024	
17.145	3.026	3.027809446201467	
17.15	3.026	3.0293003810097847	
17.155	3.026	3.026402562125278	
17.16	3.028	3.0260130349058443	
17.165	3.029	3.028229420810334	
17.17	3.029	3.0272738542443207	
17.175	3.029	3.026546986963782	
17.18	3.026	3.0286111042663038	
17.185	3.028	3.0291419623924614	
17.19	3.026	3.026651740134388	
17.195	3.026	3.0276400257098115	
17.2	3.029	3.0286377109088987	
17.205	3.029	3.026357920073415	
17.21	3.029	3.0266820024308103	
17.215	3.031	3.0294985673865407	
17.22	3.028	3.0294477006908815	
17.225	3.028	3.0271428611937004	
17.23	3.028	3.0296923185451883	
17.235	3.028	3.03052159624945	
17.24	3.031	3.02631439581711	
17.245	3.031	3.028455139099186	
17.25	3.032	3.0311235076387426	
17.255	3.031	3.029237779255684	
17.26	3.028	3.02823552119556	
17.265	3.029	3.031918535360428	
17.27	3.028	3.030655379513725	
17.275	3.028	3.0265553125258853	
17.28	3.044	3.0308515507212315	
17.285	2.510	3.0090299474475826	
17.29	-0.541	2.785586482454051	
17.295	-0.666	2.199758182004524	
17.3	0.169	2.785586482454051	
17.305	0.603	2.785586482454051	
17.31	0.806	2.785586482454051	
17.315	1.650	2.785586482454051	
17.32	3.074	2.785586482454051	
17.325	3.032	2.785586482454051	
17.33	3.029	1.6970333628484962	
17.335	3.029	2.243960046217432	
17.34	3.031	2.6535881224196345	
17.345	3.031	2.9257871556616415	
17.35	3.032	3.082885364343431	
17.355	3.032	3.1468886286110616	
17.36	3.029	3.1562062585802844	
17.365	3.029	3.1411408363918665	
17.37	3.031	3.111998705734401	
17.375	3.029	3.080322267570149	
17.38	3.032	3.058068896505385	
17.385	3.032	3.042558605551763	
17.39	3.032	3.030009984412569	
17.395	3.031	3.0261248183832983	
17.4	3.031	3.02646874243432	
17.405	3.029	3.0249493776860543	
17.41	3.029	3.024637566500381	
17.415	3.032	3.0278684009123484	
17.42	3.032	3.0297725777937328	
17.425	3.032	3.028709170101104	
17.43	3.035	3.031040511231415	
17.435	3.031	3.033204888391289	
17.44	3.031	3.032237084899818	
17.445	3.032	3.0323084416353154	
17.45	3.031	3.0331419276825153	
17.455	3.032	3.0319744502988013	
17.46	3.037	3.0309261945771997	
17.465	3.048	3.0336702177512267	
17.47	3.069	3.037627793652729	
17.475	2.091	2.9979434557925537	
17.48	1.130	2.812827314227863	
17.485	0.145	2.410739245611272	
17.49	-0.396	1.8144117104354565	
17.495	-0.743	1.1225439976355394	
17.5	-0.993	0.44385633457866774	
17.505	-0.992	-0.1449639543520889	
17.51	-0.993	-0.5916014294282419	
17.515	-0.995	-0.8834224425921174	
17.52	-0.996	-1.0486109238008172	
17.525	-0.996	-1.1206542681734102	
17.53	-0.995	-1.131861388904513	
17.535	-0.995	-1.1124289542496455	
17.54	-0.996	-1.0824853912982446	
17.545	-0.996	-1.0512249772230176	
17.55	-0.996	-1.0244015898296817	
17.555	-0.996	-1.0071918147319785	
17.56	-0.996	-0.9974555701902494	
17.565	-0.996	-0.9905217105656566	
17.57	-0.996	-0.9898864965368129	
17.575	-0.996	-0.9905411194499562	
17.58	-0.996	-0.9907454526390272	
17.585	-0.996	-0.9926463571201366	
17.59	-0.995	-0.9944909436117275	
17.595	-0.995	-0.9950092985452963	
17.6	-0.996	-0.9955080748136573	
17.605	-0.996	-0.9963316796860149	
17.61	-0.996	-0.9962590703511741	
