Time	Potential	EKG	Unnamed: 3
0.0	0.441	0.025159787930375772	
0.005	0.097	0.07190345500253165	
0.01	-0.294	0.0943704300946572	
0.015	0.198	0.08573329124155513	
0.02	0.351	0.08267448649836279	
0.025	-0.257	0.08560680473603441	
0.03	-0.040	0.07316705153621393	
0.035	0.568	0.06672816060951804	
0.04	-0.115	0.08353318982664254	
0.045	-0.203	0.08772111693540763	
0.05	0.429	0.0804319644284264	
0.055	0.062	0.08277324176369993	
0.06	-0.321	0.07533142789809766	
0.065	0.171	0.05408803341233654	
0.07	0.369	0.08267448649836279	
0.075	-0.258	0.051677302779801745	
0.08	-0.040	0.049262837781808455	
0.085	0.562	0.05348086704870583	
0.09	-0.106	0.07439850608489965	
0.095	-0.208	0.083748613570149	
0.1	0.461	0.08307161416691211	
0.105	0.116	0.09071544019169865	
0.11	-0.251	0.09383809060441613	
0.115	0.354	0.09503819795270542	
0.12	0.518	0.11565076408394395	
0.125	-0.213	0.14528714897661912	
0.13	-0.008	0.152258714365363	
0.135	0.571	0.14774576776295384	
0.14	-0.121	0.14665060675415936	
0.145	-0.223	0.13100829833140576	
0.15	0.382	0.10518963499939957	
0.155	0.056	0.08374931874909053	
0.16	-0.341	0.06079113750994578	
0.165	0.091	0.03260874887524998	
0.17	0.288	0.012264447631309731	
0.175	-0.278	0.001404119888560526	
0.18	-0.097	-0.0027513779325168946	
0.185	0.434	-0.0013922632070891808	
0.19	-0.177	0.006152310545998361	
0.195	-0.274	0.007497048403533431	
0.2	0.337	0.004978595385106796	
0.205	0.061	0.0067664916630927	
0.21	-0.313	0.0070269529526472505	
0.215	0.143	0.00805429574943178	
0.22	0.357	0.014733460866561273	
0.225	-0.255	0.025686974709482637	
0.23	-0.042	0.03621185258857604	
0.235	0.568	0.05031497507215126	
0.24	-0.020	0.07577736643166336	
0.245	-0.074	0.10305470454719624	
0.25	0.834	0.14562089691149535	
0.255	0.620	0.2228581629820258	
0.26	-0.077	0.30639203063252973	
0.265	0.233	0.34526974289292417	
0.27	0.085	0.31506810475095104	
0.275	-0.535	0.21819073836581238	
0.28	-0.445	0.08314552014724388	
0.285	-0.118	-0.06320942294880555	
0.29	-0.425	-0.19844068167573425	
0.295	-0.413	-0.283197525423172	
0.3	0.230	-0.30192349661042805	
0.305	0.030	-0.27114734352212055	
0.31	-0.318	-0.21305641491137461	
0.315	0.226	-0.13935808250420909	
0.32	0.434	-0.059558505682669585	
0.325	-0.211	0.012668898329834515	
0.33	-0.019	0.06509869539565558	
0.335	0.657	0.10435056286557418	
0.34	-0.014	0.13924948059294293	
0.345	-0.159	0.16133638937107048	
0.35	0.557	0.1715280333859897	
0.355	0.270	0.1809616674759928	
0.36	-0.219	0.18641211603359736	
0.365	0.327	0.18681529576232697	
0.37	0.562	0.18983170069934607	
0.375	-0.177	0.1953041320400909	
0.38	-0.005	0.1919644872406338	
0.385	0.602	0.18076647073849603	
0.39	-0.055	0.17014196114164992	
0.395	-0.155	0.15703445452192044	
0.4	0.551	0.14982030653425815	
0.405	0.218	0.15209204448805586	
0.41	-0.274	0.15107399491326706	
0.415	0.266	0.14487470248597947	
0.42	0.537	0.14311245637205922	
0.425	-0.174	0.15011285644079886	
0.43	0.032	0.15681952778060299	
0.435	0.690	0.16402613148304668	
0.44	0.047	0.1801551330368089	
0.445	-0.126	0.19379486489304942	
0.45	0.618	0.2039080115516875	
0.455	0.305	0.21525162157515562	
0.46	-0.222	0.22092285100342132	
0.465	0.327	0.21679517996896586	
0.47	0.576	0.21226956907380687	
0.475	-0.135	0.2131178640903282	
0.48	0.073	0.21267608742749103	
0.485	0.721	0.21407283325065132	
0.49	-0.017	0.21927237786998155	
0.495	-0.173	0.21369401839270497	
0.5	0.545	0.19881197169466364	
0.505	0.232	0.18840252693126222	
0.51	-0.272	0.17497581432659448	
0.515	0.149	0.15360009393907337	
0.52	0.328	0.12229092120409157	
0.525	-0.336	0.08731385053089288	
0.53	-0.184	0.04954238848069966	
0.535	0.362	0.012927379783647419	
0.54	-0.211	-0.01649245267551299	
0.545	-0.361	-0.03925768368355935	
0.55	0.119	-0.061446863432674054	
0.555	-0.115	-0.09151327687654989	
0.56	-0.468	-0.12382045982503757	
0.565	-0.093	-0.14457203775148297	
0.57	0.093	-0.16277519745203478	
0.575	-0.402	-0.17447646447999593	
0.58	-0.252	-0.17350257071790198	
0.585	0.229	-0.16421498313616706	
0.59	-0.265	-0.157382573163519	
0.595	-0.381	-0.14822477954860447	
0.6	0.149	-0.1375454832078217	
0.605	-0.064	-0.13346435317261668	
0.61	-0.416	-0.13179328217047148	
0.615	-0.031	-0.12563922532381044	
0.62	0.191	-0.11973563992915812	
0.625	-0.336	-0.11446740111113747	
0.63	-0.187	-0.10157397682045943	
0.635	0.305	-0.08715374361217812	
0.64	-0.202	-0.07836046841494759	
0.645	-0.315	-0.07133578457076964	
0.65	0.333	-0.05747118279084906	
0.655	0.102	-0.039363176808397286	
0.66	-0.336	-0.021951859943669244	
0.665	0.085	-0.00665747303645709	
0.67	0.363	0.0034490607139232962	
0.675	-0.252	0.013426828055557779	
0.68	-0.107	0.024287411217864808	
0.685	0.498	0.03504505096484142	
0.69	-0.113	0.04466457152260772	
0.695	-0.260	0.04844007903695545	
0.7	0.365	0.04962617996687864	
0.705	0.107	0.047790791025274296	
0.71	-0.310	0.04185089058329475	
0.715	0.110	0.0383139417767659	
0.72	0.360	0.03367615656353195	
0.725	-0.248	0.032319961758048604	
0.73	-0.101	0.03412417529742766	
0.735	0.522	0.04026150077041189	
0.74	-0.080	0.050707236030276624	
0.745	-0.232	0.06020037371719103	
0.75	0.417	0.06773219685781334	
0.755	0.189	0.07597128481659202	
0.76	-0.292	0.08063739729181554	
0.765	0.217	0.08525888035835788	
0.77	0.502	0.0939244020664914	
0.775	-0.216	0.10623577104807318	
0.78	-0.109	0.11191461034830003	
0.785	0.513	0.10543401813328943	
0.79	-0.092	0.0957993713465373	
0.795	-0.240	0.08498753491592995	
0.8	0.432	0.07776981162626237	
0.805	0.172	0.07716194316213908	
0.81	-0.313	0.07550271731557341	
0.815	0.067	0.06814278086196202	
0.82	0.379	0.05409615120659041	
0.825	-0.229	0.04324861496794581	
0.83	-0.101	0.04177214571974848	
0.835	0.527	0.04653266410515701	
0.84	-0.071	0.0558889551304046	
0.845	-0.271	0.061836356020408885	
0.85	0.340	0.061757569592396394	
0.855	0.140	0.056294748969583155	
0.86	-0.306	0.048430478980450206	
0.865	0.152	0.04707959506700098	
0.87	0.427	0.050228247233777105	
0.875	-0.231	0.05722712850302472	
0.88	-0.095	0.06363689346892143	
0.885	0.553	0.0706263135079715	
0.89	-0.063	0.07896561013365569	
0.895	-0.242	0.08369500585245158	
0.9	0.372	0.08376694266870532	
0.905	0.181	0.08043591585370127	
0.91	-0.304	0.07433662673221594	
0.915	0.114	0.06898464987004715	
0.92	0.418	0.06236784940026184	
0.925	-0.248	0.05923812867793432	
0.93	-0.127	0.0564965347499384	
0.935	0.521	0.055698910844336716	
0.94	-0.046	0.059063442852188223	
0.945	-0.237	0.06457623541900162	
0.95	0.385	0.07175173319631697	
0.955	0.157	0.07356032863434124	
0.96	-0.324	0.0682661299542008	
0.965	0.099	0.06089972619463559	
0.97	0.446	0.054494517025654776	
0.975	-0.202	0.05625280098597458	
0.98	-0.086	0.06436948069898854	
0.985	0.585	0.07576709469904039	
0.99	-0.057	0.08914337847265287	
0.995	-0.236	0.09644628082534104	
1.0	0.415	0.09873975068927698	
1.005	0.215	0.09970038290076932	
1.01	-0.274	0.09820822346161205	
1.015	0.169	0.09779874850458906	
1.02	0.528	0.10060918424826024	
1.025	-0.181	0.1092884230282726	
1.03	-0.069	0.1182267122247976	
1.035	0.565	0.12179509948758725	
1.04	-0.084	0.12026002834913872	
1.045	-0.255	0.11035143262789265	
1.05	0.420	0.09867895378567475	
1.055	0.194	0.09083850513015107	
1.06	-0.304	0.08419991655923209	
1.065	0.046	0.0736574060433819	
1.07	0.337	0.054675993698891895	
1.075	-0.274	0.03437961229671496	
1.08	-0.158	0.020117874181207397	
1.085	0.460	0.013788633295987465	
1.09	-0.115	0.012389632524344718	
1.095	-0.298	0.011291500528100355	
1.1	0.252	0.010590329183748989	
1.105	0.084	0.0019382721423207405	
1.11	-0.330	-0.008792204908492949	
1.115	0.058	-0.010425772308018864	
1.12	0.376	-0.008240106679011837	
1.125	-0.255	-0.0015927133507417377	
1.13	-0.141	0.007999221008089669	
1.135	0.502	0.01984284109602669	
1.14	-0.051	0.03447075679309444	
1.145	-0.210	0.049171018483088955	
1.15	0.570	0.07460530482824519	
1.155	0.550	0.12210209627208189	
1.16	-0.023	0.18812726912218763	
1.165	0.609	0.26345605953758944	
1.17	0.712	0.333892449992624	
1.175	-0.306	0.36439977751608277	
1.18	-0.367	0.3187449352748286	
1.185	-0.089	0.19685174960619933	
1.19	-0.436	0.02866053446472412	
1.195	-0.576	-0.123922078000094	
1.2	-0.089	-0.2314723046069052	
1.205	-0.078	-0.29972359368005796	
1.21	-0.375	-0.3168779467986511	
1.215	0.119	-0.27363185011619956	
1.22	0.515	-0.18994645059273985	
1.225	-0.173	-0.09056287543475336	
1.23	-0.066	-0.0023522531966347375	
1.235	0.644	0.0690136654069338	
1.24	0.039	0.12369537871459865	
1.245	-0.182	0.15781338616563015	
1.25	0.510	0.17656688142377003	
1.255	0.345	0.18845248326744218	
1.26	-0.216	0.19389554552429705	
1.265	0.229	0.19321987570136906	
1.27	0.585	0.19129013744088297	
1.275	-0.153	0.18843730772218018	
1.28	-0.060	0.1824276697618706	
1.285	0.640	0.17315392526288914	
1.29	0.023	0.16886555219631422	
1.295	-0.211	0.16161439036255654	
1.3	0.490	0.15552670263232637	
1.305	0.380	0.15769050369376508	
1.31	-0.226	0.16583129244272465	
1.315	0.186	0.17002260557243726	
1.32	0.626	0.17244904068170439	
1.325	-0.121	0.17855786584589656	
1.33	-0.042	0.1842195103939997	
1.335	0.660	0.18513334917585778	
1.34	0.039	0.18607374094404866	
1.345	-0.193	0.18152905635051958	
1.35	0.507	0.17735921724990056	
1.355	0.409	0.17985841877642866	
1.36	-0.217	0.18791565406164196	
1.365	0.209	0.1908071266011775	
1.37	0.577	0.18946912149275907	
1.375	-0.141	0.1867630591875064	
1.38	-0.054	0.18008413889804936	
1.385	0.707	0.17699885793855932	
1.39	0.177	0.18831590969236783	
1.395	-0.158	0.20455912357607672	
1.4	0.501	0.2140745737433383	
1.405	0.366	0.2179578968610112	
1.41	-0.240	0.21314598085757636	
1.415	0.163	0.19856239415033955	
1.42	0.513	0.17936112091061418	
1.425	-0.216	0.15909030113939887	
1.43	-0.187	0.13200647973635896	
1.435	0.350	0.0956756025476817	
1.44	-0.177	0.05055288914224955	
1.445	-0.407	0.003739904617911057	
1.45	0.033	-0.04226466901824804	
1.455	-0.074	-0.09301382994822335	
1.46	-0.465	-0.13951936466225556	
1.465	-0.161	-0.16562382868209247	
1.47	0.151	-0.18081381934192498	
1.475	-0.341	-0.18662101204823292	
1.48	-0.295	-0.17597916622112886	
1.485	0.191	-0.16055719744007607	
1.49	-0.239	-0.15432515392005525	
1.495	-0.430	-0.15315301098306985	
1.5	0.046	-0.1504204335391196	
1.505	-0.026	-0.15499868980746637	
1.51	-0.436	-0.16143172268604644	
1.515	-0.112	-0.15670648070598747	
1.52	0.244	-0.14781430909935242	
1.525	-0.317	-0.13557542140553613	
1.53	-0.258	-0.11804944141222087	
1.535	0.325	-0.0985264276978795	
1.54	-0.132	-0.0832633095915071	
1.545	-0.341	-0.07025171011217142	
1.55	0.211	-0.05640380313107299	
1.555	0.055	-0.04989004143426787	
1.56	-0.378	-0.05155248232881164	
1.565	-0.031	-0.05276094840460952	
1.57	0.366	-0.04963748864421842	
1.575	-0.251	-0.0406313657917428	
1.58	-0.165	-0.026208084780740618	
1.585	0.512	-0.00435304165844298	
1.59	-0.005	0.02081092548247248	
1.595	-0.243	0.045517658544975845	
1.6	0.362	0.0656544537886718	
1.605	0.263	0.08031508792720454	
1.61	-0.280	0.088265817573194	
1.615	0.081	0.09113291816295699	
1.62	0.518	0.09059756378540232	
1.625	-0.179	0.09432802104710689	
1.63	-0.147	0.09657747229557453	
1.635	0.444	0.09079386076083162	
1.64	-0.071	0.07690665780866553	
1.645	-0.278	0.060315054728474066	
1.65	0.347	0.05070541528944817	
1.655	0.224	0.04950376772889937	
1.66	-0.310	0.04911216753204796	
1.665	0.036	0.04804594319277691	
1.67	0.440	0.04580521325795372	
1.675	-0.196	0.046286996592290394	
1.68	-0.135	0.050398924156429346	
1.685	0.547	0.05996447442079489	
1.69	-0.032	0.07100527002540621	
1.695	-0.281	0.07507651707589574	
1.7	0.351	0.0757237896903426	
1.705	0.295	0.0777250062630703	
1.71	-0.275	0.08196837505468364	
1.715	0.085	0.08690974113268404	
1.72	0.492	0.08802574436583518	
1.725	-0.197	0.08928890871567338	
1.73	-0.150	0.08716877907601298	
1.735	0.531	0.08608724853898367	
1.74	-0.038	0.08416087747807477	
1.745	-0.312	0.07686693387530596	
1.75	0.241	0.06268803985437744	
1.755	0.258	0.08414162592960156	
1.76	-0.265	0.08414162592960156	
1.765	0.088	0.08414162592960156	
1.77	0.534	0.05921346928041623	
1.775	-0.208	0.07432330301648186	
1.78	-0.144	0.08395812144862363	
1.785	0.545	0.08917165718989925	
1.79	0.000	0.0933150105225716	
1.795	-0.272	0.0926961097476519	
1.8	0.319	0.08864275404402672	
1.805	0.281	0.08414162592960156	
1.81	-0.291	0.07980127307432541	
1.815	0.018	0.07459705646841036	
1.82	0.499	0.0683739716355643	
1.825	-0.208	0.06540027484804412	
1.83	-0.161	0.06476981381001723	
1.835	0.548	0.06821475259821738	
1.84	-0.005	0.07448298873725653	
1.845	-0.272	0.07755924738026565	
1.85	0.273	0.0765531526316486	
1.855	0.266	0.07032320714838672	
1.86	-0.278	0.06478189447734109	
1.865	0.046	0.06343742898519783	
1.87	0.502	0.06449649322984827	
1.875	-0.193	0.0684828690266156	
1.88	-0.179	0.0705911433221957	
1.885	0.528	0.07223390659730139	
1.89	0.030	0.07664709595637449	
1.895	-0.295	0.07944599927890006	
1.9	0.267	0.07645861325565334	
1.905	0.255	0.06848624409764953	
1.91	-0.321	0.05777684020547533	
1.915	-0.006	0.04927693987257421	
1.92	0.484	0.041591043913048895	
1.925	-0.184	0.04159108532428949	
1.93	-0.170	0.04745106550377893	
1.935	0.519	0.05621621572227771	
1.94	0.017	0.06578666952992152	
1.945	-0.268	0.07237864540430622	
1.95	0.334	0.07837184053919599	
1.955	0.319	0.08361218304225942	
1.96	-0.268	0.08878766285546925	
1.965	0.065	0.09314465825882505	
1.97	0.565	0.09665489534988835	
1.975	-0.118	0.10668050753669639	
1.98	-0.119	0.11633101794072546	
1.985	0.553	0.1241868456364973	
1.99	0.009	0.12591224796603334	
1.995	-0.263	0.11832775101082431	
2.0	0.365	0.11027274782421942	
2.005	0.343	0.10773023179932469	
2.01	-0.272	0.10783028854304019	
2.015	-0.005	0.10299162792079042	
2.02	0.412	0.08768072403351007	
2.025	-0.225	0.06680734774374414	
2.03	-0.217	0.04722752733441691	
2.035	0.406	0.03313229917566394	
2.04	-0.086	0.018064690698023363	
2.045	-0.339	0.0032971987761260314	
2.05	0.230	-0.004850608821595765	
2.055	0.211	-0.008155565435822361	
2.06	-0.309	-0.007124368329705205	
2.065	-0.013	-0.00013997611673132986	
2.07	0.467	0.008752998001939192	
2.075	-0.190	0.020905162784242447	
2.08	-0.185	0.034081181365548496	
2.085	0.475	0.04512312450855224	
2.09	-0.017	0.052213184830884864	
2.095	-0.283	0.05319884759267085	
2.1	0.363	0.05905762058222183	
2.105	0.489	0.07801614382587786	
2.11	-0.121	0.11388205614864629	
2.115	0.463	0.16870068706513705	
2.12	1.031	0.24887542194378637	
2.125	0.052	0.3360165367451616	
2.13	-0.216	0.3748241662870109	
2.135	0.010	0.3230023067936324	
2.14	-0.379	0.1864112754564731	
2.145	-0.671	0.020177814620831565	
2.15	-0.246	-0.13209921037955935	
2.155	-0.119	-0.25685500040936804	
2.16	-0.414	-0.3270010531387312	
2.165	-0.048	-0.3233930054960371	
2.17	0.524	-0.2601102674924478	
2.175	-0.138	-0.16690674103652497	
2.18	-0.136	-0.06917439445109638	
2.185	0.557	0.013095101833912593	
2.19	0.088	0.07644971816473439	
2.195	-0.252	0.11503989057201776	
2.2	0.374	0.13590695007781947	
2.205	0.391	0.14723124107175276	
2.21	-0.229	0.15184465583562673	
2.215	0.070	0.15148711754808494	
2.22	0.585	0.147013603255402	
2.225	-0.110	0.14409840048583222	
2.23	-0.130	0.14170368032814884	
2.235	0.602	0.14118151926018466	
2.24	0.091	0.14355491885692148	
2.245	-0.251	0.14293127709466782	
2.25	0.398	0.13988537356104835	
2.255	0.486	0.1463707300585655	
2.26	-0.197	0.15981897648218218	
2.265	0.122	0.17137076727971612	
2.27	0.652	0.17908760078822114	
2.275	-0.086	0.18617776289691051	
2.28	-0.101	0.18758865835798266	
2.285	0.618	0.1851394745614074	
2.29	0.110	0.18268846487013413	
2.295	-0.231	0.17491548603910817	
2.3	0.383	0.16474635444293417	
2.305	0.402	0.15844932004640971	
2.31	-0.213	0.15492365363588084	
2.315	0.116	0.15323162430895937	
2.32	0.631	0.15506262507594704	
2.325	-0.124	0.16035434460915793	
2.33	-0.116	0.1595120869155379	
2.335	0.647	0.15999178150332713	
2.34	0.227	0.17088019094920104	
2.345	-0.152	0.187985441999281	
2.35	0.516	0.20649915995066045	
2.355	0.548	0.2295184795794007	
2.36	-0.193	0.24814671531093044	
2.365	0.094	0.24699189185920334	
2.37	0.606	0.22992036362983367	
2.375	-0.139	0.20868907235171041	
2.38	-0.211	0.1784734004314291	
2.385	0.371	0.13763291279903717	
2.39	-0.086	0.09010114143504983	
2.395	-0.393	0.03922521906718644	
2.4	0.007	-0.0088756683185744	
2.405	0.006	-0.061519268610250304	
2.41	-0.430	-0.11043963740278706	
2.415	-0.165	-0.13815838500607452	
2.42	0.215	-0.15033765612557223	
2.425	-0.332	-0.1549934430073983	
2.43	-0.346	-0.15246221827867068	
2.435	0.185	-0.14567552117074864	
2.44	-0.161	-0.14475920648765916	
2.445	-0.426	-0.14559189268069112	
2.45	-0.011	-0.1421120331037668	
2.455	0.013	-0.14752661025725028	
2.46	-0.411	-0.15724827210712544	
2.465	-0.185	-0.1552977340813806	
2.47	0.224	-0.15041500187599838	
2.475	-0.287	-0.14483616881624184	
2.48	-0.306	-0.1325178839695117	
2.485	0.275	-0.11575382156544087	
2.49	-0.095	-0.10164377353662027	
2.495	-0.373	-0.09063132529639156	
2.5	0.084	-0.08019010930600401	
2.505	0.166	-0.07440735312714788	
2.51	-0.313	-0.06926923793843981	
2.515	-0.049	-0.05441045493554342	
2.52	0.443	-0.034293005048563974	
2.525	-0.200	-0.012808479276856462	
2.53	-0.268	0.0033092607787755927	
2.535	0.345	0.008317195538984343	
2.54	-0.003	0.005476144293737923	
2.545	-0.291	0.0032152672275198696	
2.55	0.264	0.010811378674077382	
2.555	0.316	0.025773080643906453	
2.56	-0.265	0.04060845463329516	
2.565	-0.019	0.05346384966065108	
2.57	0.496	0.05989504117864112	
2.575	-0.153	0.06619311798199684	
2.58	-0.199	0.06912451622555646	
2.585	0.476	0.07144784590420258	
2.59	0.052	0.07259399397270014	
2.595	-0.301	0.0710054279402163	
2.6	0.206	0.06580002680985665	
2.605	0.342	0.05897185720673084	
2.61	-0.242	0.05750567843256508	
2.615	0.033	0.06535439855869223	
2.62	0.580	0.07707869247584209	
2.625	-0.122	0.09419203611966329	
2.63	-0.190	0.1049445901783923	
2.635	0.449	0.10454439498576808	
2.64	-0.005	0.09468895585008437	
2.645	-0.313	0.07584861688245514	
2.65	0.212	0.057812089674576836	
2.655	0.330	0.04612697126187901	
2.66	-0.263	0.04240676814023628	
2.665	-0.016	0.0462603797492077	
2.67	0.525	0.05322508933454015	
2.675	-0.150	0.06319659278819537	
2.68	-0.190	0.06980286737862697	
2.685	0.479	0.0756355972718251	
2.69	0.049	0.07879192782501047	
2.695	-0.274	0.07670205081305245	
2.7	0.285	0.07679240909685606	
2.705	0.388	0.08228740661382894	
2.71	-0.252	0.08932667945836535	
2.715	0.009	0.0941248052755854	
2.72	0.525	0.09637349048700236	
2.725	-0.177	0.09524747577112486	
2.73	-0.225	0.08661186571800163	
2.735	0.406	0.07368466440933735	
2.74	0.012	0.05796378322967289	
2.745	-0.294	0.04356073424923912	
2.75	0.238	0.0377072235728878	
2.755	0.337	0.03948908745076847	
2.76	-0.263	0.045296265613326996	
2.765	-0.029	0.05293974424336127	
2.77	0.510	0.05852156344220949	
2.775	-0.156	0.06434973595776819	
2.78	-0.210	0.06640324506302187	
2.785	0.476	0.068716434610638	
2.79	0.119	0.07416550142595718	
2.795	-0.271	0.0794060300366436	
2.8	0.232	0.0845816465892966	
2.805	0.350	0.08369965548500305	
2.81	-0.272	0.08128357113840534	
2.815	-0.060	0.07573438325936313	
2.82	0.512	0.06865616179656234	
2.825	-0.136	0.06547740139158478	
2.83	-0.196	0.06520570847948813	
2.835	0.486	0.069716769571308	
2.84	0.105	0.07635775083005976	
2.845	-0.287	0.08028410706077102	
2.85	0.188	0.08046196116019938	
2.855	0.350	0.07388960794540214	
2.86	-0.263	0.06728880028724872	
2.865	-0.038	0.06455452453497318	
2.87	0.522	0.06376966318460033	
2.875	-0.130	0.06658259296536398	
2.88	-0.207	0.07002300470013571	
2.885	0.432	0.07172035882791869	
2.89	0.059	0.0695238927680436	
2.895	-0.287	0.06417205910674859	
2.9	0.255	0.06238338421272591	
2.905	0.389	0.0670717470481392	
2.91	-0.260	0.07425903240128313	
2.915	-0.066	0.07737686274309982	
2.92	0.484	0.07389198654227952	
2.925	-0.158	0.06667726652532754	
2.93	-0.199	0.060841804207243944	
2.935	0.515	0.06374989231605535	
2.94	0.192	0.0777158767620801	
2.945	-0.242	0.0960410196804275	
2.95	0.273	0.11225676063087453	
2.955	0.427	0.12225723692479382	
2.96	-0.210	0.1282642727201434	
2.965	0.032	0.13219271685402662	
2.97	0.596	0.13500740801920064	
2.975	-0.101	0.13779772736760823	
2.98	-0.205	0.13364487365327604	
2.985	0.432	0.12171876409379703	
2.99	0.090	0.10590351048072603	
2.995	-0.301	0.0879539478459507	
3.0	0.183	0.07313044006113492	
3.005	0.357	0.06043214538461146	
3.01	-0.281	0.053300044329769744	
3.015	-0.103	0.04800607507333267	
3.02	0.435	0.03907771318761447	
3.025	-0.161	0.02993497690586998	
3.03	-0.245	0.024510354180260173	
3.035	0.398	0.024691939822480788	
3.04	0.015	0.024057124246635787	
3.045	-0.359	0.016871912633281885	
3.05	0.140	0.01002517336921025	
3.055	0.324	0.005585024903370411	
3.06	-0.275	0.0073079961363239345	
3.065	-0.075	0.014849632449339732	
3.07	0.504	0.02518324189203638	
3.075	-0.153	0.03503082519242239	
3.08	-0.242	0.04232555220521074	
3.085	0.449	0.04869896075133229	
3.09	0.224	0.06125245744891287	
3.095	-0.181	0.08377000621388056	
3.1	0.559	0.12391859100314426	
3.105	0.805	0.1917865051157399	
3.11	-0.058	0.2673120110360325	
3.115	-0.002	0.30858677829037195	
3.12	0.240	0.28621283583000545	
3.125	-0.402	0.20018071443878138	
3.13	-0.540	0.08016924431729593	
3.135	-0.133	-0.04837056560709114	
3.14	-0.274	-0.17555497798684522	
3.145	-0.514	-0.2662499351669112	
3.15	-0.011	-0.29618297004175204	
3.155	0.334	-0.2760755210059328	
3.16	-0.249	-0.21566560865081597	
3.165	-0.023	-0.1324812125434508	
3.17	0.609	-0.046615029605497627	
3.175	-0.081	0.02920454217606994	
3.18	-0.162	0.08497659646702238	
3.185	0.577	0.12373811284493325	
3.19	0.226	0.15455580242182831	
3.195	-0.271	0.16949009335242374	
3.2	0.266	0.16974567323162165	
3.205	0.470	0.16212838175959024	
3.21	-0.217	0.15423391053277585	
3.215	0.000	0.1453446480271698	
3.22	0.664	0.1415742599703485	
3.225	-0.005	0.1483072943784077	
3.23	-0.132	0.1577799379495906	
3.235	0.615	0.16976119086242747	
3.24	0.340	0.1887552427775549	
3.245	-0.185	0.20739308630821174	
3.25	0.362	0.22061324012112482	
3.255	0.533	0.22528650741957895	
3.26	-0.182	0.22427685076374088	
3.265	0.018	0.2121542884530085	
3.27	0.618	0.1956095070640384	
3.275	-0.061	0.18046812811770374	
3.28	-0.190	0.16365778489996324	
3.285	0.461	0.14565452075954555	
3.29	0.209	0.1319296443371128	
3.295	-0.217	0.20851095072323134	
3.3	0.388	0.20851095072323134	
3.305	0.631	0.15638980354218596	
3.31	-0.136	0.18841698378819788	
3.315	0.055	0.21096421931661044	
3.32	0.706	0.2215550555813721	
3.325	-0.017	0.22569063177499044	
3.33	-0.142	0.2205768122487904	
3.335	0.602	0.21145647412633775	
3.34	0.307	0.2091361858107111	
3.345	-0.216	0.20851095072323134	
3.35	0.284	0.20314444425346406	
3.355	0.463	0.19142459548943797	
3.36	-0.266	0.17370087268059148	
3.365	-0.101	0.14676625746300148	
3.37	0.464	0.112377689328051	
3.375	-0.196	0.07901225379103682	
3.38	-0.344	0.0435888718608039	
3.385	0.206	0.00711718551176942	
3.39	-0.031	-0.030688424126298797	
3.395	-0.408	-0.06324383161130458	
3.4	-0.048	-0.0841539378854201	
3.405	0.128	-0.10462560364630956	
3.41	-0.405	-0.12396819404112555	
3.415	-0.272	-0.13436089042939148	
3.42	0.180	-0.14284082057488812	
3.425	-0.278	-0.154741599858423	
3.43	-0.398	-0.1593589699970571	
3.435	0.128	-0.15611349369433664	
3.44	-0.097	-0.15658880177052742	
3.445	-0.451	-0.15913125947095147	
3.45	-0.100	-0.15732141804512118	
3.455	0.079	-0.16160727575451628	
3.46	-0.390	-0.16885483478882063	
3.465	-0.214	-0.1634611095783656	
3.47	0.321	-0.14582868592815557	
3.475	-0.213	-0.12564638974153036	
3.48	-0.329	-0.10447927112259103	
3.485	0.336	-0.0791165268229839	
3.49	0.090	-0.052436809025209655	
3.495	-0.342	-0.029253500428717875	
3.5	0.056	-0.01241672522397419	
3.505	0.337	-0.004408379008174387	
3.51	-0.294	0.00010895238572622399	
3.515	-0.156	0.0033324268854133896	
3.52	0.458	0.006321866107360955	
3.525	-0.116	0.010465394226171123	
3.53	-0.263	0.016300985552989068	
3.535	0.339	0.02290583078464735	
3.54	0.070	0.023757199754027347	
3.545	-0.330	0.018593433053107317	
3.55	0.114	0.016499802992290633	
3.555	0.441	0.01982741698864186	
3.56	-0.213	0.03406317830243409	
3.565	-0.075	0.05213116924750197	
3.57	0.548	0.06749358343269952	
3.575	-0.068	0.0815510648552048	
3.58	-0.228	0.08906517677744333	
3.585	0.458	0.09496119216411841	
3.59	0.215	0.10096578625233572	
3.595	-0.283	0.10542317573816996	
3.6	0.151	0.10438694192221631	
3.605	0.438	0.09803617410715022	
3.61	-0.232	0.09303673306485866	
3.615	-0.110	0.08694202022610209	
3.62	0.489	0.07862650667392873	
3.625	-0.132	0.06765599797961053	
3.63	-0.283	0.05488159279667394	
3.635	0.368	0.04397448454610298	
3.64	0.151	0.038140487245749366	
3.645	-0.291	0.03731728559128279	
3.65	0.157	0.043298853743486874	
3.655	0.463	0.0532079454644158	
3.66	-0.210	0.067023345909978	
3.665	-0.052	0.08178037311320013	
3.67	0.582	0.09474093407316315	
3.675	-0.054	0.1067489030672296	
3.68	-0.220	0.11170598731139435	
3.685	0.417	0.11197529866982382	
3.69	0.157	0.1062994914252548	
3.695	-0.327	0.09320244634251434	
3.7	0.111	0.07819261221126592	
3.705	0.359	0.06037931161181549	
3.71	-0.263	0.04602518802928586	
3.715	-0.133	0.03561149967030881	
3.72	0.530	0.033855512946193905	
3.725	-0.069	0.03986810751953483	
3.73	-0.249	0.04953073567782629	
3.735	0.374	0.0569674079226742	
3.74	0.162	0.06148318239889625	
3.745	-0.318	0.06010151551886791	
3.75	0.097	0.05707108638875138	
3.755	0.461	0.053555091408101996	
3.76	-0.211	0.05804778127659429	
3.765	-0.098	0.06642723884222723	
3.77	0.559	0.0749296636978184	
3.775	-0.066	0.08298662533578294	
3.78	-0.258	0.0863799164542377	
3.785	0.394	0.08493701921959967	
3.79	0.192	0.08164703836352341	
3.795	-0.291	0.07804432690706148	
3.8	0.131	0.07595507237262433	
3.805	0.467	0.07467560644257074	
3.81	-0.208	0.07808439334995201	
3.815	-0.104	0.08228717720520234	
3.82	0.571	0.08697359793367762	
3.825	-0.035	0.09309969137611462	
3.83	-0.210	0.09827977427574006	
3.835	0.470	0.1058936230877485	
3.84	0.249	0.11577762023137043	
3.845	-0.277	0.121008028698359	
3.85	0.185	0.1218323264460629	
3.855	0.490	0.11977615385392383	
3.86	-0.234	0.11814943038714672	
3.865	-0.127	0.11013615881487387	
3.87	0.508	0.09697986726838301	
3.875	-0.118	0.08224954328188044	
3.88	-0.303	0.064187379806017	
3.885	0.290	0.04578372607805036	
3.89	0.136	0.02793250997541549	
3.895	-0.317	0.01504606478860563	
3.9	0.049	0.010674666810101274	
3.905	0.362	0.00783825603973327	
3.91	-0.258	0.00626861233382174	
3.915	-0.164	0.009014342433963023	
3.92	0.420	0.010953698876861356	
3.925	-0.116	0.010380841099584984	
3.93	-0.286	0.009123855085085748	
3.935	0.328	0.01271308899478624	
3.94	0.122	0.015046086814706566	
3.945	-0.327	0.015015467597247886	
3.95	0.145	0.019572647769316383	
3.955	0.528	0.0359626638579628	
3.96	-0.129	0.06430910421561581	
3.965	0.062	0.1008597815519855	
3.97	0.852	0.15002803507407192	
3.975	0.269	0.2145306381263032	
3.98	-0.144	0.2699524012053832	
3.985	0.319	0.28358586587413104	
3.99	-0.109	0.23619280917593624	
3.995	-0.587	0.13598533962503415	
4.0	-0.303	0.014404790205435818	
4.005	-0.118	-0.11293069871333176	
4.01	-0.508	-0.22659103955549642	
4.015	-0.352	-0.28925175277772497	
4.02	0.259	-0.29991078470136323	
4.025	-0.121	-0.2733677260673816	
4.03	-0.246	-0.21615960578154175	
4.035	0.486	-0.13031220878807248	
4.04	0.372	-0.032602840765601354	
4.045	-0.242	0.05578325693869328	
4.05	0.227	0.12030927741609652	
4.055	0.670	0.16533866827074137	
4.06	-0.100	0.20229787567636673	
4.065	-0.014	0.22344156495812922	
4.07	0.684	0.22927552446711819	
4.075	0.091	0.2307604527027326	
4.08	-0.176	0.22554288469205236	
4.085	0.541	0.21667987701460087	
4.09	0.426	0.215666215537932	
4.095	-0.217	0.21768148826490333	
4.1	0.208	0.2141399914074092	
4.105	0.609	0.2055282690169672	
4.11	-0.126	0.1993804619237708	
4.115	-0.040	0.19425055758587495	
4.12	0.661	0.18830780209161302	
4.125	0.076	0.18693791622001688	
4.13	-0.194	0.18443759837886153	
4.135	0.435	0.17855849679003466	
4.14	0.321	0.16981084820179687	
4.145	-0.210	0.1627222537962622	
4.15	0.281	0.1629998848380464	
4.155	0.631	0.1745873024938307	
4.16	-0.124	0.18949215995307256	
4.165	0.001	0.19911593322806587	
4.17	0.713	0.2052610515059621	
4.175	0.081	0.21510692613060933	
4.18	-0.179	0.21538206465348522	
4.185	0.545	0.21239956252003647	
4.19	0.392	0.2129756751414442	
4.195	-0.216	0.21380815546817133	
4.2	0.212	0.2077425690063359	
4.205	0.649	0.20261614189313315	
4.21	-0.142	0.2027657853436461	
4.215	-0.086	0.19593312381096925	
4.22	0.614	0.18205196683286543	
4.225	0.013	0.17042359443890204	
4.23	-0.251	0.1544397781603798	
4.235	0.296	0.13202091712438163	
4.24	0.125	0.10111087019214807	
4.245	-0.364	0.06312077496406478	
4.25	-0.046	0.028428115622054863	
4.255	0.282	-0.005515581233847236	
4.26	-0.338	-0.03583593138768911	
4.265	-0.292	-0.058158012475751204	
4.27	0.208	-0.07927069433746678	
4.275	-0.226	-0.10429605589662622	
4.28	-0.446	-0.12642067404979954	
4.285	0.001	-0.14230863117545206	
4.29	-0.058	-0.16480399773900345	
4.295	-0.463	-0.1836254651419254	
4.3	-0.170	-0.18778620988965503	
4.305	0.113	-0.19059712937678658	
4.31	-0.375	-0.19361478609880528	
4.315	-0.307	-0.1862305551766616	
4.32	0.226	-0.17138552363546972	
4.325	-0.208	-0.15915712557537248	
4.33	-0.413	-0.1494469773936981	
4.335	0.130	-0.13540387007145757	
4.34	0.070	-0.12468639130504805	
4.345	-0.362	-0.11264811830109547	
4.35	-0.052	-0.09390358116486103	
4.355	0.365	-0.0754678959834445	
4.36	-0.257	-0.05559406621437234	
4.365	-0.210	-0.03540461429990511	
4.37	0.406	-0.01829080276327346	
4.375	-0.109	-0.009050413425718579	
4.38	-0.318	-0.005634127846686318	
4.385	0.259	-0.0023859131279641388	
4.39	0.194	0.0005013468878107613	
4.395	-0.332	0.004202580313463043	
4.4	-0.008	0.007994126831019185	
4.405	0.414	0.008747896984497915	
4.41	-0.245	0.010367173802987935	
4.415	-0.184	0.014403274382891483	
4.42	0.513	0.021884566905687467	
4.425	-0.038	0.0340498944976021	
4.43	-0.281	0.0431343357962303	
4.435	0.380	0.052655111218282716	
4.44	0.314	0.0677125202401324	
4.445	-0.258	0.08404242264207992	
4.45	0.067	0.09487112028494059	
4.455	0.464	0.09696316269006244	
4.46	-0.210	0.09235663144154749	
4.465	-0.171	0.0841892794089335	
4.47	0.522	0.07600842091365716	
4.475	0.004	0.07419322216417015	
4.48	-0.263	0.07394170447167114	
4.485	0.350	0.07562503278006405	
4.49	0.259	0.07791019701211838	
4.495	-0.313	0.07695177678509421	
4.5	-0.008	0.06972756667519897	
4.505	0.437	0.05613862876205587	
4.51	-0.205	0.07390765186970691	
4.515	-0.148	0.04400689001249924	
4.52	0.547	0.05007274257188548	
4.525	-0.005	0.06233355994478565	
4.53	-0.274	0.07078943170272878	
4.535	0.324	0.0755655380560879	
4.54	0.259	0.07608746834807467	
4.545	-0.298	0.07390765186970691	
4.55	0.009	0.06958601333976404	
4.555	0.461	0.06026911102449305	
4.56	-0.184	0.05547099749851911	
4.565	-0.138	0.05784278856508675	
4.57	0.553	0.06610933408378436	
4.575	-0.019	0.07646454737453132	
4.58	-0.268	0.08066964533891331	
4.585	0.330	0.08151209192746546	
4.59	0.267	0.0812417703071482	
4.595	-0.301	0.07786742854837686	
4.6	-0.003	0.07145546269378801	
4.605	0.447	0.05938618896259615	
4.61	-0.208	0.05052918248997895	
4.615	-0.155	0.04768921199113254	
4.62	0.516	0.05114323163838338	
4.625	-0.017	0.05860100468101279	
4.63	-0.295	0.06055669511199636	
4.635	0.243	0.05844081754442149	
4.64	0.236	0.049389835368031806	
4.645	-0.287	0.0418496972340136	
4.65	0.042	0.04133905163269564	
4.655	0.504	0.04649619948485368	
4.66	-0.168	0.056578344713976124	
4.665	-0.141	0.06853850618157925	
4.67	0.522	0.07917883864243627	
4.675	-0.019	0.08571805858934692	
4.68	-0.292	0.08343750928903025	
4.685	0.330	0.07840275745753697	
4.69	0.328	0.0775507888555814	
4.695	-0.277	0.08079749057233208	
4.7	0.068	0.0851967150676452	
4.705	0.563	0.09062196547983176	
4.71	-0.153	0.09964922848777406	
4.715	-0.147	0.10736911965980189	
4.72	0.525	0.1091941336028601	
4.725	0.033	0.10787800818726977	
4.73	-0.243	0.1043457577393857	
4.735	0.342	0.10330482727869468	
4.74	0.307	0.10168956746651325	
4.745	-0.272	0.09880315958569569	
4.75	0.020	0.09405365875464063	
4.755	0.499	0.08669683166332476	
4.76	-0.177	0.08073932785162016	
4.765	-0.161	0.0782473549659241	
4.77	0.481	0.07619405325386304	
4.775	-0.049	0.07099913519467996	
4.78	-0.318	0.05925861628830857	
4.785	0.236	0.04623360245857201	
4.79	0.214	0.032823986770157534	
4.795	-0.339	0.019791522637193054	
4.8	-0.057	0.01093244559302197	
4.805	0.394	0.0007943146813546349	
4.81	-0.237	-0.005201182757384324	
4.815	-0.211	-0.005888364133881199	
4.82	0.441	0.0002334677470771922	
4.825	-0.045	0.007120940165082957	
4.83	-0.295	0.0121410711288866	
4.835	0.253	0.019192134863744284	
4.84	0.252	0.024975555290470706	
4.845	-0.289	0.029726574941817095	
4.85	0.088	0.04081898108228369	
4.855	0.721	0.06596141567942342	
4.86	-0.002	0.11284104492650433	
4.865	0.116	0.1679193550720189	
4.87	0.993	0.23630697672606268	
4.875	0.313	0.31229122752985194	
4.88	-0.330	0.35193680115542797	
4.885	-0.066	0.3119984806541401	
4.89	-0.164	0.19114357983832547	
4.895	-0.614	0.03378941185314985	
4.9	-0.356	-0.1053522715957658	
4.905	0.000	-0.2149869292253906	
4.91	-0.332	-0.28600165290642676	
4.915	-0.239	-0.29514766104775325	
4.92	0.475	-0.24470908609813802	
4.925	0.027	-0.16561016720146882	
4.93	-0.275	-0.0850966933595571	
4.935	0.402	-0.009939439683267258	
4.94	0.402	0.056295812033016326	
4.945	-0.266	0.1066320252577099	
4.95	0.099	0.1345080406690942	
4.955	0.647	0.15121020546404823	
4.96	-0.095	0.16596913193477755	
4.965	-0.118	0.1735604538490247	
4.97	0.625	0.17437534774329785	
4.975	0.140	0.17659352651300586	
4.98	-0.217	0.17571658249627925	
4.985	0.424	0.17496327669007322	
4.99	0.464	0.17754309206332064	
4.995	-0.223	0.18163201764203257	
5.0	0.087	0.18028931658042024	
5.005	0.680	0.1763314904768776	
5.01	-0.054	0.18013624666978817	
5.015	-0.116	0.1853714727213348	
5.02	0.562	0.1823047492517473	
5.025	0.082	0.17280082244392808	
5.03	-0.242	0.1576755043454455	
5.035	0.362	0.14478587848042745	
5.04	0.388	0.1366776888724769	
5.045	-0.211	0.13474123428147272	
5.05	0.148	0.13811531591415588	
5.055	0.681	0.15133557411300122	
5.06	-0.089	0.16930831677449604	
5.065	-0.097	0.18025292280064453	
5.07	0.672	0.18719493856157013	
5.075	0.221	0.19901347574692993	
5.08	-0.164	0.21068067686822062	
5.085	0.527	0.2225472023260275	
5.09	0.542	0.2388083427808074	
5.095	-0.171	0.2529182136848325	
5.1	0.148	0.25283911188993047	
5.105	0.599	0.2412647884869238	
5.11	-0.109	0.22363222007107558	
5.115	-0.167	0.19714135476884503	
5.12	0.498	0.1669109855297083	
5.125	0.017	0.13629414577383012	
5.13	-0.330	0.1038122902914629	
5.135	0.152	0.0701685990301537	
5.14	0.226	0.03689149012474967	
5.145	-0.352	0.009272316836133977	
5.15	-0.141	-0.011427978732836243	
5.155	0.282	-0.03391370889948602	
5.16	-0.284	-0.05698635831539037	
5.165	-0.330	-0.07289267190187312	
5.17	0.180	-0.08642466919577345	
5.175	-0.162	-0.10648103707099149	
5.18	-0.449	-0.12600916521339978	
5.185	-0.032	-0.13813155541937544	
5.19	0.021	-0.15509087264070684	
5.195	-0.443	-0.17048589615312876	
5.2	-0.205	-0.17358430217243304	
5.205	0.230	-0.16900212928425482	
5.21	-0.309	-0.16279501697748103	
5.215	-0.326	-0.14995393719673164	
5.22	0.226	-0.1335367728564084	
5.225	-0.119	-0.12334248224555117	
5.23	-0.394	-0.11603060054574241	
5.235	0.073	-0.10624657122194145	
5.24	0.165	-0.09796662835164868	
5.245	-0.356	-0.0904781820772764	
5.25	-0.135	-0.07873548466615352	
5.255	0.340	-0.06889987161861696	
5.26	-0.263	-0.06272718507445108	
5.265	-0.294	-0.05813022010772007	
5.27	0.356	-0.05047761570734973	
5.275	0.033	-0.04018218722251381	
5.28	-0.301	-0.024194114130306983	
5.285	0.233	-0.003295011820929024	
5.29	0.325	0.01824083907787467	
5.295	-0.272	0.03642668729847123	
5.3	-0.022	0.05009971459173562	
5.305	0.533	0.06130202761506794	
5.31	-0.135	0.07231958733950766	
5.315	-0.188	0.08063508556828232	
5.32	0.415	0.08160725187499554	
5.325	-0.008	0.0739794753462536	
5.33	-0.339	0.056599503418955574	
5.335	0.152	0.0376568044146187	
5.34	0.343	0.023483340671392162	
5.345	-0.274	0.02035113308135732	
5.35	-0.051	0.02692796789683788	
5.355	0.469	0.032486459737442075	
5.36	-0.173	0.03736802838227953	
5.365	-0.223	0.040425071803009666	
5.37	0.440	0.043703952996327365	
5.375	0.081	0.048141330368543366	
5.38	-0.257	0.054418445890238046	
5.385	0.340	0.0676264778382921	
5.39	0.418	0.08868660412207482	
5.395	-0.255	0.10723515972913787	
5.4	-0.002	0.11576248447550735	
5.405	0.560	0.11568648465919885	
5.41	-0.150	0.11341908381991934	
5.415	-0.223	0.10519146647303115	
5.42	0.487	0.09477728859354301	
5.425	0.087	0.08733694090201208	
5.43	-0.295	0.08124038903222552	
5.435	0.208	0.0745169371935765	
5.44	0.324	0.06590596858536915	
5.445	-0.281	0.05822611025189495	
5.45	-0.071	0.0525736885913808	
5.455	0.443	0.044813409799829756	
5.46	-0.161	0.037531088054754684	
5.465	-0.203	0.03501538577090786	
5.47	0.492	0.04179521779703471	
5.475	0.087	0.05450502056180398	
5.48	-0.295	0.06410835160973433	
5.485	0.259	0.07042520600466182	
5.49	0.438	0.08010371188686999	
5.495	-0.243	0.09220452859730793	
5.5	-0.025	0.10137800676335046	
5.505	0.560	0.10394123898179769	
5.51	-0.104	0.10565302351994606	
5.515	-0.207	0.10581032291656164	
5.52	0.441	0.10076780529544416	
5.525	0.101	0.09270509374578156	
5.53	-0.277	0.08402834661414468	
5.535	0.209	0.07928969556199361	
5.54	0.340	0.07225303176825532	
5.545	-0.295	0.06523514099027566	
5.55	-0.097	0.056222582052582584	
5.555	0.486	0.046016195510102456	
5.56	-0.124	0.040760779916482436	
5.565	-0.213	0.04368651327472736	
5.57	0.434	0.05076113713110405	
5.575	0.038	0.05382720029763892	
5.58	-0.307	0.049939598247222675	
5.585	0.272	0.0502273288768127	
5.59	0.467	0.06240547313624493	
5.595	-0.229	0.0832196309247733	
5.6	-0.045	0.09907258502299432	
5.605	0.541	0.1041056293719536	
5.61	-0.126	0.10284119904319719	
5.615	-0.207	0.09853218631587451	
5.62	0.449	0.09276096686341487	
5.625	0.072	0.08598697370697277	
5.63	-0.313	0.07385482376464293	
5.635	0.151	0.06210845591866655	
5.64	0.308	0.04753657454515314	
5.645	-0.312	0.033244683339137326	
5.65	-0.064	0.02494082396449471	
5.655	0.567	0.028201125097795782	
5.66	-0.129	0.04094555542304596	
5.665	-0.217	0.05537148678411527	
5.67	0.487	0.0677490931815144	
5.675	0.172	0.08216645855419345	
5.68	-0.245	0.09476445592476063	
5.685	0.321	0.10998020515603676	
5.69	0.490	0.12771355302699508	
5.695	-0.202	0.14427495500174253	
5.7	-0.016	0.15071724534311154	
5.705	0.585	0.14826141286441552	
5.71	-0.092	0.14312085282214043	
5.715	-0.210	0.13320667050398202	
5.72	0.380	0.11665502304480768	
5.725	0.050	0.0933742552034594	
5.73	-0.320	0.06573574405971416	
5.735	0.125	0.044792176371606915	
5.74	0.343	0.02885958834083427	
5.745	-0.263	0.021388482492903895	
5.75	-0.107	0.02253018518455578	
5.755	0.443	0.023284651701400063	
5.76	-0.181	0.021286579710899454	
5.765	-0.277	0.017074958115390407	
5.77	0.371	0.014594662911566572	
5.775	0.085	0.014562632567814518	
5.78	-0.313	0.015675578198814467	
5.785	0.146	0.021642272983155516	
5.79	0.340	0.02500998716297267	
5.795	-0.283	0.027419483107738	
5.8	-0.107	0.030344959905568507	
5.805	0.450	0.030375988387422236	
5.81	-0.159	0.028413965258549286	
5.815	-0.258	0.025898554056793262	
5.82	0.441	0.02858907001396807	
5.825	0.220	0.04175737309181701	
5.83	-0.171	0.0665685090432448	
5.835	0.583	0.1145408159042952	
5.84	0.866	0.1922337586367835	
5.845	-0.008	0.2824173591077913	
5.85	0.017	0.33606894096567397	
5.855	0.296	0.321422597323602	
5.86	-0.381	0.23956248720568993	
5.865	-0.567	0.11771488815759391	
5.87	-0.133	-0.020482866243324908	
5.875	-0.223	-0.1550346857746937	
5.88	-0.459	-0.2474433299953899	
5.885	0.055	-0.2715692147157184	
5.89	0.328	-0.24264484086412796	
5.895	-0.275	-0.18455680812793188	
5.9	-0.077	-0.11399995042703034	
5.905	0.580	-0.0444140629686695	
5.91	-0.077	0.01861263601532354	
5.915	-0.207	0.06553303712286493	
5.92	0.493	0.0965970149580691	
5.925	0.220	0.11908690348566396	
5.93	-0.236	0.13331730673016312	
5.935	0.334	0.14533890234280933	
5.94	0.530	0.15956948817132538	
5.945	-0.216	0.17137016564660562	
5.95	-0.020	0.1707955754174883	
5.955	0.669	0.16475487052004634	
5.96	-0.016	0.16574681783173617	
5.965	-0.168	0.16632846458689066	
5.97	0.518	0.16358272517188327	
5.975	0.292	0.16430920632024731	
5.98	-0.234	0.16724175064854063	
5.985	0.249	0.16715678282111304	
5.99	0.524	0.163717324632153	
5.995	-0.185	0.16248511377765787	
6.0	-0.026	0.15861530035089583	
6.005	0.596	0.1527305059341651	
6.01	-0.064	0.1449240133920422	
6.015	-0.188	0.13626063906162444	
6.02	0.547	0.1324532361440534	
6.025	0.267	0.13945913349669298	
6.03	-0.228	0.14829371984859874	
6.035	0.296	0.15597164921219273	
6.04	0.562	0.16577525750716338	
6.045	-0.162	0.17665186427549984	
6.05	0.033	0.18344980846059178	
6.055	0.713	0.18964882768387065	
6.06	0.020	0.1991616659612464	
6.065	-0.141	0.20420742221653743	
6.07	0.571	0.2032066594980904	
6.075	0.333	0.20664720989729932	
6.08	-0.214	0.2094509204200869	
6.085	0.290	0.20667181504504661	
6.09	0.515	0.19976817753835863	
6.095	-0.213	0.18997178992252828	
6.1	-0.075	0.1712658606741796	
6.105	0.489	0.14440180891956222	
6.11	-0.133	0.11449080136938497	
6.115	-0.300	0.08227853461619992	
6.12	0.206	0.0478258050647846	
6.125	-0.058	0.004785558956907046	
6.13	-0.428	-0.041254250635138816	
6.135	-0.098	-0.07762497813558702	
6.14	0.088	-0.11332486448009792	
6.145	-0.382	-0.14467734492533096	
6.15	-0.266	-0.15682738143048294	
6.155	0.178	-0.15982711513094522	
6.16	-0.278	-0.16528224871395442	
6.165	-0.391	-0.1656667702073214	
6.17	0.175	-0.1553782823123585	
6.175	-0.055	-0.1461037915229848	
6.18	-0.419	-0.139171086165612	
6.185	-0.052	-0.1287911335801677	
6.19	0.214	-0.12126538418345444	
6.195	-0.344	-0.11458677412437207	
6.2	-0.222	-0.10198565532824477	
6.205	0.313	-0.09079637291020193	
6.21	-0.203	-0.08415071741351379	
6.215	-0.330	-0.07781738449118322	
6.22	0.279	-0.0664033593491577	
6.225	0.030	-0.05692463253168699	
6.23	-0.370	-0.051286991542303505	
6.235	0.046	-0.04489954143005939	
6.24	0.340	-0.03705422781720364	
6.245	-0.303	-0.027617184082857404	
6.25	-0.179	-0.01919890832131154	
6.255	0.423	-0.013625655327995964	
6.26	-0.132	-0.009033509913380262	
6.265	-0.274	-0.0030676127372606787	
6.27	0.415	0.008636488061622066	
6.275	0.152	0.02631733244464168	
6.28	-0.332	0.03852576602090052	
6.285	0.082	0.042952690908626606	
6.29	0.426	0.04321147696427735	
6.295	-0.214	0.04637760479639034	
6.3	-0.113	0.054547516790319876	
6.305	0.475	0.05853140246389249	
6.31	-0.084	0.059118012186671835	
6.315	-0.254	0.057680183303775605	
6.32	0.369	0.05763335784132499	
6.325	0.181	0.057559721522675675	
6.33	-0.306	0.05738298296069211	
6.335	0.134	0.05882184813599262	
6.34	0.463	0.06144598399869879	
6.345	-0.255	0.06735372814065255	
6.35	-0.144	0.06831916322405843	
6.355	0.499	0.06369084811001402	
6.36	-0.097	0.05925080078944143	
6.365	-0.265	0.054449725398834976	
6.37	0.395	0.05264159826728261	
6.375	0.258	0.058787586346131473	
6.38	-0.265	0.07125746471672105	
6.385	0.149	0.08367343107153818	
6.39	0.475	0.09263699041690204	
6.395	-0.229	0.0973802196527157	
6.4	-0.119	0.0971209573561306	
6.405	0.525	0.0907770476475892	
6.41	-0.063	0.08639334112851527	
6.415	-0.254	0.08028838767756813	
6.42	0.369	0.07559065095985681	
6.425	0.181	0.0699592193363914	
6.43	-0.272	0.06620003552403655	
6.435	0.101	0.06554545427918579	
6.44	0.394	0.06177294268857993	
6.445	-0.232	0.05742374171170254	
6.45	-0.126	0.05397229912300851	
6.455	0.531	0.05584358063390249	
6.46	-0.064	0.060504630705238996	
6.465	-0.260	0.06414617416285676	
6.47	0.342	0.06456540068583813	
6.475	0.163	0.061113731568758545	
6.48	-0.277	0.056119943333690636	
6.485	0.140	0.0564423746338274	
6.49	0.481	0.06393655422285882	
6.495	-0.207	0.07443757383324502	
6.5	-0.122	0.0827872193034547	
6.505	0.528	0.08592736358417538	
6.51	-0.064	0.08563125043878698	
6.515	-0.254	0.08198002837045329	
6.52	0.411	0.07954430328963516	
6.525	0.212	0.0813097004699027	
6.53	-0.303	0.08002555158556558	
6.535	0.120	0.07828377379263896	
6.54	0.482	0.07711689160013219	
6.545	-0.210	0.08049593957672213	
6.55	-0.155	0.0815723264535784	
6.555	0.513	0.07799141868215972	
6.56	-0.069	0.07281421852939005	
6.565	-0.272	0.06681522836624201	
6.57	0.353	0.06245513910848581	
6.575	0.218	0.059522844653129674	
6.58	-0.292	0.058995540032646884	
6.585	0.139	0.06310124341448316	
6.59	0.501	0.07125857728011115	
6.595	-0.211	0.08259007985487593	
6.6	-0.144	0.0883716207651069	
6.605	0.516	0.08701244130351371	
6.61	-0.052	0.08299910066303495	
6.615	-0.254	0.07768555724204354	
6.62	0.356	0.07434810205066415	
6.625	0.192	0.06971197328280127	
6.63	-0.312	0.0639836167600777	
6.635	0.068	0.05691195689653062	
6.64	0.446	0.05237745620146364	
6.645	-0.220	0.05071042424420725	
6.65	-0.165	0.052192085017480995	
6.655	0.444	0.05001036064828977	
6.66	-0.052	0.0451771498005126	
6.665	-0.275	0.04157794880302765	
6.67	0.351	0.043247373995456306	
6.675	0.276	0.050890988524449496	
6.68	-0.249	0.06298032134758563	
6.685	0.140	0.07974580348215835	
6.69	0.508	0.0934819973217497	
6.695	-0.207	0.10379076722305043	
6.7	-0.138	0.1060234175463908	
6.705	0.499	0.10003151130875404	
6.71	-0.046	0.09132876214715796	
6.715	-0.280	0.07945933890122553	
6.72	0.339	0.0701639601192004	
6.725	0.258	0.0640556435250088	
6.73	-0.269	0.06496485670742223	
6.735	0.107	0.07059680464441143	
6.74	0.502	0.0775898633303781	
6.745	-0.190	0.0858801921871571	
6.75	-0.129	0.09187496363490974	
6.755	0.505	0.09203611768470216	
6.76	-0.040	0.08946869323970344	
6.765	-0.229	0.08337144412275382	
6.77	0.431	0.08608748017104081	
6.775	0.334	0.09719907878858373	
6.78	-0.269	0.11095057291452112	
6.785	0.157	0.12044285817056212	
6.79	0.512	0.12568575365616275	
6.795	-0.216	0.12597645630222587	
6.8	-0.168	0.11670707967734859	
6.805	0.470	0.09902668880262575	
6.81	-0.061	0.0796541206615672	
6.815	-0.310	0.06027893953753881	
6.82	0.233	0.04193998888929284	
6.825	0.149	0.022360564265783863	
6.83	-0.335	0.005004073851437937	
6.835	0.003	-0.003730730642153167	
6.84	0.389	-0.007244848374927847	
6.845	-0.243	-0.005882324076214699	
6.85	-0.188	-0.00042946619593513323	
6.855	0.429	0.006993819100082958	
6.86	-0.093	0.00980714775010372	
6.865	-0.309	0.010197741951507917	
6.87	0.316	0.012846569321943072	
6.875	0.178	0.017516409575975042	
6.88	-0.303	0.020985567154421327	
6.885	0.149	0.031112115905475704	
6.89	0.644	0.0578983065831288	
6.895	-0.043	0.10021326572047017	
6.9	0.119	0.151361168496214	
6.905	0.985	0.21603642298396789	
6.91	0.372	0.2960390787166268	
6.915	-0.211	0.3540042011001829	
6.92	0.056	0.34059828106638856	
6.925	-0.162	0.2417038009740838	
6.93	-0.617	0.09506111298863296	
6.935	-0.335	-0.04910968241775951	
6.94	-0.043	-0.17504350377581368	
6.945	-0.379	-0.26559252379073583	
6.95	-0.252	-0.2927241967025995	
6.955	0.421	-0.2599976075123416	
6.96	-0.054	-0.19585245361193582	
6.965	-0.291	-0.12503160818216544	
6.97	0.333	-0.057348398574859606	
6.975	0.356	0.0028633309143048465	
6.98	-0.220	0.056935292747069786	
6.985	0.148	0.10078244366235059	
6.99	0.547	0.1311236895929432	
6.995	-0.136	0.14833060171351609	
7.0	-0.080	0.15503154321901225	
7.005	0.655	0.1601340103984018	
7.01	0.111	0.17027405348651972	
7.015	-0.226	0.1747523194348879	
7.02	0.406	0.1726450888677985	
7.025	0.377	0.16708304066816793	
7.03	-0.222	0.16283168910693113	
7.035	0.171	0.16064210353927053	
7.04	0.612	0.16232766880051466	
7.045	-0.144	0.1663828839952391	
7.05	-0.130	0.16380973985888408	
7.055	0.542	0.1521874604482357	
7.06	0.023	0.13844975849150026	
7.065	-0.239	0.12361272046794075	
7.07	0.418	0.11657100489169285	
7.075	0.409	0.12128443282614117	
7.08	-0.217	0.1338067323631269	
7.085	0.194	0.1484523319054057	
7.09	0.649	0.1644508833921372	
7.095	-0.103	0.18250683853513858	
7.1	-0.077	0.19061617318245894	
7.105	0.640	0.19116354260987048	
7.11	0.127	0.19266665443456604	
7.115	-0.182	0.19152290746937783	
7.12	0.512	0.19238276830826806	
7.125	0.472	0.20247139391823143	
7.13	-0.210	0.21290004149304942	
7.135	0.128	0.21218379521755365	
7.14	0.603	0.2014729028585134	
7.145	-0.139	0.18977844762134052	
7.15	-0.101	0.17545663173183934	
7.155	0.618	0.16297584255945002	
7.16	0.012	0.1549501976108332	
7.165	-0.300	0.13955665499580355	
7.17	0.227	0.11303838060587396	
7.175	0.209	0.08060836965435954	
7.18	-0.332	0.050184566593867844	
7.185	-0.060	0.02590318168469396	
7.19	0.356	0.004365479819502916	
7.195	-0.280	-0.01386255223107368	
7.2	-0.281	-0.026639867949834185	
7.205	0.186	-0.04433308490049945	
7.21	-0.179	-0.07279481710607777	
7.215	-0.433	-0.10129189100562605	
7.22	-0.019	-0.12125897851437498	
7.225	-0.048	-0.14834621355112193	
7.23	-0.469	-0.17458958867931385	
7.235	-0.190	-0.18626322334609316	
7.24	0.191	-0.18870365885437212	
7.245	-0.329	-0.18468104178507422	
7.25	-0.317	-0.16970162242056747	
7.255	0.261	-0.1494131504432963	
7.26	-0.139	-0.13167021868018336	
7.265	-0.382	-0.11733735991292041	
7.27	0.143	-0.10034318484786696	
7.275	0.140	-0.08621849682881194	
7.28	-0.356	-0.07461599868350205	
7.285	-0.083	-0.06140048890967757	
7.29	0.377	-0.050585147744393835	
7.295	-0.236	-0.03963766696496711	
7.3	-0.220	-0.026874468520343843	
7.305	0.423	-0.012339842411471713	
7.31	-0.071	-0.0015384325704389736	
7.315	-0.347	0.0014852477070470057	
7.32	0.188	-0.00037284312783625616	
7.325	0.240	-0.0030126500791386127	
7.33	-0.310	-0.00271024043231231	
7.335	-0.016	0.0034567866072696867	
7.34	0.444	0.01060810485464365	
7.345	-0.200	0.019386427338381196	
7.35	-0.182	0.02791033780520379	
7.355	0.463	0.03776956759678618	
7.36	0.000	0.04561467034324661	
7.365	-0.284	0.049283812903035656	
7.37	0.318	0.05460668011379906	
7.375	0.348	0.06421528668506193	
7.38	-0.254	0.07716953566322832	
7.385	0.035	0.08728640671624618	
7.39	0.539	0.09382250822761792	
7.395	-0.170	0.09842679154870054	
7.4	-0.190	0.09766398108619652	
7.405	0.473	0.09086240169118649	
7.41	0.018	0.08280357085436534	
7.415	-0.291	0.073090043110543	
7.42	0.295	0.06653505934363865	
7.425	0.376	0.06844863328738324	
7.43	-0.228	0.07811641587304496	
7.435	0.017	0.09009646537105581	
7.44	0.493	0.09397706962239902	
7.445	-0.190	0.09151229163620862	
7.45	-0.228	0.08246365524043302	
7.455	0.434	0.06889999531367266	
7.46	0.007	0.05497672118174195	
7.465	-0.318	0.04295537753944227	
7.47	0.221	0.03545218892634921	
7.475	0.348	0.032622666591762675	
7.48	-0.251	0.040088355407312926	
7.485	0.044	0.0549600093933613	
7.49	0.541	0.07110215552752061	
7.495	-0.150	0.08657250336323441	
7.5	-0.177	0.0943073314403355	
7.505	0.492	0.09693438426249984	
7.51	0.030	0.09510070187241645	
7.515	-0.277	0.08683631536658831	
7.52	0.324	0.08339765145409979	
7.525	0.353	0.08577955396244318	
7.53	-0.274	0.08904079653321087	
7.535	-0.037	0.08780234532548778	
7.54	0.461	0.0782286344227947	
7.545	-0.193	0.0656605905464071	
7.55	-0.207	0.05513520641736702	
7.555	0.446	0.04896501539547704	
7.56	0.017	0.04527267611973619	
7.565	-0.303	0.0417049773224219	
7.57	0.272	0.042303770059433435	
7.575	0.360	0.048970653968722806	
7.58	-0.249	0.06102286273859149	
7.585	0.032	0.07463182700692758	
7.59	0.562	0.08636258317024811	
7.595	-0.152	0.09775361423999385	
7.6	-0.205	0.10093135908145173	
7.605	0.467	0.09697136727407046	
7.61	0.017	0.08746069082491163	
7.615	-0.307	0.07358475093944386	
7.62	0.255	0.06218205950800576	
7.625	0.330	0.0561602633219534	
7.63	-0.263	0.056036473063921614	
7.635	-0.008	0.06043729464451641	
7.64	0.516	0.06446581531205997	
7.645	-0.164	0.06888958057741501	
7.65	-0.219	0.06975177795200571	
7.655	0.429	0.06694974948798985	
7.66	0.032	0.060657362079645165	
7.665	-0.307	0.052489111506233935	
7.67	0.246	0.04804630287909995	
7.675	0.304	0.046336713412244705	
7.68	-0.301	0.046054874084642344	
7.685	-0.057	0.04424026852857396	
7.69	0.473	0.04056532557454205	
7.695	-0.121	0.0410314715429653	
7.7	-0.147	0.05058291710550941	
7.705	0.576	0.07093748606908792	
7.71	0.128	0.09684984657899798	
7.715	-0.266	0.11437295865419388	
7.72	0.325	0.12389989771855305	
7.725	0.437	0.13053354952794588	
7.73	-0.223	0.13708721266814475	
7.735	0.000	0.13801598214807803	
7.74	0.533	0.13065270779097088	
7.745	-0.138	0.12019700555588766	
7.75	-0.182	0.10838410604747607	
7.755	0.467	0.09886903964080136	
7.76	0.032	0.08908314935179369	
7.765	-0.333	0.07331028740447605	
7.77	0.133	0.05470915236122576	
7.775	0.304	0.03371174399485643	
7.78	-0.277	0.021179989650452022	
7.785	-0.055	0.01980924411760434	
7.79	0.452	0.021710759961228857	
7.795	-0.190	0.024368039458401387	
7.8	-0.237	0.02521575879191887	
7.805	0.412	0.027807072576778266	
7.81	-0.002	0.02728693366021663	
7.815	-0.330	0.022238336539057317	
7.82	0.143	0.016559870602706393	
7.825	0.275	0.00988489191170192	
7.83	-0.297	0.005205248831901299	
7.835	-0.075	0.006605646963692408	
7.84	0.498	0.011821622936549918	
7.845	-0.184	0.02151132385398121	
7.85	-0.231	0.02900848057947616	
7.855	0.464	0.037791009831601226	
7.86	0.183	0.052520208299050894	
7.865	-0.158	0.07713285229193617	
7.87	0.577	0.12041821290906789	
7.875	0.813	0.19212037887250924	
7.88	-0.042	0.2732331904649712	
7.885	0.032	0.32029483182589596	
7.89	0.278	0.30285041566198245	
7.895	-0.378	0.2227051338715213	
7.9	-0.512	0.10782428234642165	
7.905	-0.109	-0.02031271544418737	
7.91	-0.294	-0.14924870597335932	
7.915	-0.512	-0.2448763946690584	
7.92	-0.025	-0.2837311505109826	
7.925	0.224	-0.2767392794116479	
7.93	-0.298	-0.23570777896458187	
7.935	-0.058	-0.16879349994799614	
7.94	0.551	-0.09399091354764427	
7.945	-0.112	-0.02223279476990671	
7.95	-0.173	0.03562967667169569	
7.955	0.544	0.0797718046840442	
7.96	0.272	0.11889046298808419	
7.965	-0.179	0.1528819714828159	
7.97	0.403	0.18218537249106195	
7.975	0.499	0.20347036902218404	
7.98	-0.184	0.21418027077686905	
7.985	0.050	0.21100972769789586	
7.99	0.635	0.20020537656548015	
7.995	-0.058	0.19085652611291792	
8.0	-0.139	0.1794121003763915	
8.005	0.614	0.1728282315435328	
8.01	0.252	0.17609532348216603	
8.015	-0.231	0.18172909327898093	
8.02	0.333	0.18206308648036632	
8.025	0.486	0.1806884495702492	
8.03	-0.234	0.17620533008086534	
8.035	-0.058	0.16278919019625926	
8.04	0.631	0.14429067530471662	
8.045	-0.029	0.13704695200370443	
8.05	-0.159	0.1372523844268862	
8.055	0.544	0.14071411221817176	
8.06	0.223	0.14729575265591427	
8.065	-0.223	0.15274183289507784	
8.07	0.347	0.1588630346890668	
8.075	0.574	0.17078751882872073	
8.08	-0.147	0.1873716245169108	
8.085	0.110	0.2016114670424369	
8.09	0.721	0.21321494277201067	
8.095	0.004	0.22626092040012633	
8.1	-0.107	0.2291873639767326	
8.105	0.646	0.22850497735935826	
8.11	0.288	0.23149001668638133	
8.115	-0.228	0.2308581135261632	
8.12	0.281	0.21856355349593592	
8.125	0.415	0.1968078369564793	
8.13	-0.251	0.16966961590508756	
8.135	-0.086	0.13941295550985033	
8.14	0.421	0.10401095300407953	
8.145	-0.199	0.06859009398724125	
8.15	-0.295	0.035220417630327294	
8.155	0.285	0.008163092107720357	
8.16	-0.066	-0.018340472387821535	
8.165	-0.434	-0.0469018967507639	
8.17	-0.058	-0.07273310062451896	
8.175	0.116	-0.10222907408218815	
8.18	-0.396	-0.12700865658112392	
8.185	-0.237	-0.13672647872651655	
8.19	0.220	-0.14018361374658062	
8.195	-0.268	-0.1441580546110193	
8.2	-0.378	-0.141762268058566	
8.205	0.114	-0.13807519913704852	
8.21	-0.138	-0.1442198179728426	
8.215	-0.466	-0.155785479152873	
8.22	-0.072	-0.16090039090843355	
8.225	0.096	-0.1662029791305697	
8.23	-0.391	-0.16989951576997503	
8.235	-0.223	-0.16183915041600158	
8.24	0.296	-0.14617755412377031	
8.245	-0.219	-0.13005781767718802	
8.25	-0.327	-0.1098694949507056	
8.255	0.229	-0.09108248091351928	
8.26	-0.003	-0.07908995769480404	
8.265	-0.353	-0.07189238931282468	
8.27	0.099	-0.05795681786678704	
8.275	0.336	-0.041027481818484576	
8.28	-0.278	-0.0219726665996269	
8.285	-0.112	-0.002997623947045149	
8.29	0.473	0.011997768628706714	
8.295	-0.164	0.02297889032173428	
8.3	-0.263	0.027906285223274374	
8.305	0.385	0.03102418158812554	
8.31	0.139	0.03508842964315375	
8.315	-0.330	0.03889285398476775	
8.32	0.113	0.03998336917709566	
8.325	0.354	0.03620888078171494	
8.33	-0.283	0.03293825300141726	
8.335	-0.126	0.02982743954843707	
8.34	0.510	0.029199095002052262	
8.345	-0.089	0.03504383502173122	
8.35	-0.217	0.0456895875352927	
8.355	0.434	0.05809874857548631	
8.36	0.124	0.0682454323259539	
8.365	-0.298	0.07171493298508101	
8.37	0.174	0.07093648459115562	
8.375	0.356	0.06841571819468428	
8.38	-0.266	0.06285834150992953	
8.385	-0.072	0.057665702601836816	
8.39	0.567	0.05938185845073091	
8.395	-0.084	0.06810458974223235	
8.4	-0.213	0.07746029244663877	
8.405	0.464	0.08616319392082906	
8.41	0.154	0.09344602921996745	
8.415	-0.297	0.09453590045566651	
8.42	0.166	0.08982986187644304	
8.425	0.412	0.08365925874369035	
8.43	-0.254	0.07883532881900235	
8.435	-0.086	0.07443385726336188	
8.44	0.515	0.07052694876356558	
8.445	-0.109	0.06824447269498131	
8.45	-0.257	0.06423207740980051	
8.455	0.376	0.0601551889597423	
8.46	0.146	0.055681368086241495	
8.465	-0.309	0.05141520276160122	
8.47	0.097	0.0486774796598294	
8.475	0.328	0.039868460323048624	
8.48	-0.286	0.029849171426565388	
8.485	-0.087	0.024221808386138372	
8.49	0.600	0.0316676158845756	
8.495	-0.072	0.051388664462031115	
8.5	-0.239	0.07000112058615242	
8.505	0.431	0.0811398107900774	
8.51	0.189	0.08891465843772145	
8.515	-0.291	0.09128603749482901	
8.52	0.146	0.09051278377457353	
8.525	0.423	0.08509335385147573	
8.53	-0.232	0.08089045091583047	
8.535	-0.081	0.0789719554815218	
8.54	0.545	0.07875183696869661	
8.545	-0.107	0.07956813611271488	
8.55	-0.265	0.07580936881081109	
8.555	0.360	0.06908158587737288	
8.56	0.120	0.05814195120192825	
8.565	-0.336	0.04620845343262857	
8.57	0.104	0.036344022579082494	
8.575	0.417	0.03128802300968254	
8.58	-0.249	0.03294967344719352	
8.585	-0.145	0.03774228091856209	
8.59	0.495	0.03982555315285323	
8.595	-0.061	0.04374914646912412	
8.6	-0.225	0.05164038075159494	
8.605	0.418	0.06302190939114015	
8.61	0.209	0.07434608036611637	
8.615	-0.286	0.08313922084318848	
8.62	0.154	0.0881814411854952	
8.625	0.469	0.09044074212738457	
8.63	-0.214	0.09300253446713777	
8.635	-0.095	0.09556009861233578	
8.64	0.541	0.09388460669737507	
8.645	-0.072	0.09288478916104313	
8.65	-0.249	0.08849330892319392	
8.655	0.356	0.08196855163755606	
8.66	0.128	0.07051244762317091	
8.665	-0.317	0.05609121422571777	
8.67	0.159	0.04906285980269269	
8.675	0.466	0.05058215634878982	
8.68	-0.225	0.06104508606846006	
8.685	-0.118	0.06939141148125631	
8.69	0.534	0.07394033470997216	
8.695	-0.032	0.07902233514660952	
8.7	-0.200	0.08536124723755022	
8.705	0.490	0.09792125450654836	
8.71	0.314	0.11669182891163526	
8.715	-0.246	0.13403961998828515	
8.72	0.188	0.14489021016654957	
8.725	0.499	0.14569975730374768	
8.73	-0.196	0.1431327592694947	
8.735	-0.078	0.13622302889332363	
8.74	0.524	0.12595078418393085	
8.745	-0.107	0.11117821891420845	
8.75	-0.297	0.0902472971716115	
8.755	0.279	0.06581704320872976	
8.76	0.136	0.0408557524788838	
8.765	-0.338	0.02005278916052011	
8.77	0.003	0.007745406994335563	
8.775	0.330	-0.006207616632138781	
8.78	-0.274	-0.015777965289239828	
8.785	-0.162	-0.015904903475989423	
8.79	0.486	-0.008027302744237495	
8.795	-0.100	0.004297791568159223	
8.8	-0.280	0.015149685945561401	
8.805	0.348	0.025775049065684685	
8.81	0.165	0.03397967904492219	
8.815	-0.310	0.03799197006041766	
8.82	0.096	0.042648799049461256	
8.825	0.431	0.04492099428717754	
8.83	-0.222	0.050233890899206664	
8.835	-0.061	0.05894497686582682	
8.84	0.754	0.08206070524271138	
8.845	0.243	0.13043054178061148	
8.85	-0.002	0.19201158846922375	
8.855	0.780	0.2567237460563173	
8.86	0.406	0.31313526777777656	
8.865	-0.391	0.3269135387919011	
8.87	-0.225	0.272426857799115	
8.875	-0.133	0.14399638551431754	
8.88	-0.556	-0.015632499341533178	
8.885	-0.422	-0.14916287075703533	
8.89	0.097	-0.2369535190105458	
8.895	-0.219	-0.2824343715423383	
8.9	-0.323	-0.2780209447644816	
8.905	0.400	-0.22329648587317077	
8.91	0.269	-0.1407498886516285	
8.915	-0.258	-0.05311001627316551	
8.92	0.185	0.022425371530598707	
8.925	0.574	0.08214808286314469	
8.93	-0.145	0.1282854860508788	
8.935	-0.049	0.15765242194050755	
8.94	0.651	0.17215699376944382	
8.945	-0.008	0.1796078797480294	
8.95	-0.211	0.17375414660065858	
8.955	0.484	0.16470255178460702	
8.96	0.314	0.16043342539782207	
8.965	-0.268	0.15579769184750522	
8.97	0.119	0.14630251748255502	
8.975	0.513	0.13231424630842992	
8.98	-0.171	0.1223504013880609	
8.985	-0.049	0.12049106354319788	
8.99	0.596	0.12320500227163193	
8.995	-0.031	0.12675723563154495	
9.0	-0.217	0.12463202848303119	
9.005	0.501	0.12562885521872877	
9.01	0.372	0.1366079292620636	
9.015	-0.229	0.15278113047570763	
9.02	0.226	0.16513768717997956	
9.025	0.608	0.1744243915204166	
9.03	-0.155	0.1824514642223709	
9.035	-0.060	0.18329995838988516	
9.04	0.670	0.1791843510651282	
9.045	0.049	0.17997298557723115	
9.05	-0.207	0.17755074141366828	
9.055	0.461	0.17043322109201353	
9.06	0.319	0.16477591763249222	
9.065	-0.248	0.15989528960480354	
9.07	0.226	0.15590704909933692	
9.075	0.576	0.15643797543082308	
9.08	-0.145	0.1617005065201726	
9.085	-0.077	0.1621523615541263	
9.09	0.605	0.15899936448663177	
9.095	0.059	0.1572333447850561	
9.1	-0.210	0.15459965811702558	
9.105	0.409	0.15013282410027667	
9.11	0.279	0.14389865566120713	
9.115	-0.281	0.13312949458860607	
9.12	0.039	0.1176283584491652	
9.125	0.366	0.09234279055980185	
9.13	-0.304	0.06102532425519316	
9.135	-0.246	0.030057577273691193	
9.14	0.292	-0.002259044083728465	
9.145	-0.205	-0.03652152268050472	
9.15	-0.411	-0.06729553274106294	
9.155	0.055	-0.09315445223488114	
9.16	-0.051	-0.1220240915387001	
9.165	-0.469	-0.14864548855570114	
9.17	-0.171	-0.16355509685531167	
9.175	0.078	-0.17872605775280426	
9.18	-0.405	-0.19476783183088653	
9.185	-0.349	-0.19900143930233272	
9.19	0.188	-0.19537340776144044	
9.195	-0.200	-0.189392656156183	
9.2	-0.382	-0.1762951351646489	
9.205	0.146	-0.15224414591544394	
9.21	0.039	-0.13194431596415432	
9.215	-0.381	-0.11666248242528567	
9.22	-0.052	-0.09863758536741199	
9.225	0.353	-0.08061716960890558	
9.23	-0.260	-0.06177138520365284	
9.235	-0.194	-0.040142769163135965	
9.24	0.438	-0.020268003283181537	
9.245	-0.090	-0.004324909017726392	
9.25	-0.281	0.006514322936003368	
9.255	0.322	0.018801315299812466	
9.26	0.238	0.031237217324123975	
9.265	-0.310	0.04217440986775704	
9.27	0.013	0.04726829259573574	
9.275	0.411	0.04459669079922793	
9.28	-0.255	0.03818021991695672	
9.285	-0.162	0.03366953266265319	
9.29	0.499	0.033909233087041614	
9.295	-0.014	0.04077146896869964	
9.3	-0.243	0.049287369104206766	
9.305	0.408	0.06384921080571745	
9.31	0.331	0.08344282401098387	
9.315	-0.263	0.10300596892530957	
9.32	0.110	0.11415968878420323	
9.325	0.519	0.11782677054360514	
9.33	-0.207	0.11815553204195484	
9.335	-0.153	0.1114469351363443	
9.34	0.519	0.10104178860137072	
9.345	-0.034	0.09090648634769852	
9.35	-0.280	0.08008136456995554	
9.355	0.337	0.0718266541572198	
9.36	0.226	0.06564985854208853	
9.365	-0.306	0.05991460674712914	
9.37	0.023	0.054019517962140884	
9.375	0.431	0.04700735226779295	
9.38	-0.211	0.04219829966153582	
9.385	-0.141	0.043258537698715835	
9.39	0.533	0.05013010549146247	
9.395	-0.003	0.06204887661579716	
9.4	-0.262	0.07090157671439934	
9.405	0.408	0.08078745350663426	
9.41	0.334	0.09385795063753742	
9.415	-0.265	0.10783172894702753	
9.42	0.079	0.11484982816653246	
9.425	0.515	0.11317604894758661	
9.43	-0.194	0.11026325189360411	
9.435	-0.161	0.10304471961192738	
9.44	0.458	0.09216800481511277	
9.445	-0.025	0.07822559011782579	
9.45	-0.263	0.06477034562905493	
9.455	0.336	0.06070296766524006	
9.46	0.278	0.06304183291947937	
9.465	-0.289	0.065805319252034	
9.47	0.053	0.06969034572008621	
9.475	0.490	0.07031412683667732	
9.48	-0.194	0.07234253663322035	
9.485	-0.158	0.07385569093504898	
9.49	0.541	0.07721714853046327	
9.495	0.029	0.08239847088461527	
9.5	-0.237	0.08860958637279828	
9.505	0.380	0.09661656351945425	
9.51	0.342	0.1052485517197463	
9.515	-0.260	0.11376198751034654	
9.52	0.029	0.11550449302080279	
9.525	0.492	0.10645438993578317	
9.53	-0.179	0.09643368230772684	
9.535	-0.135	0.0906745730719703	
9.54	0.542	0.08924593554598301	
9.545	0.010	0.09155289191471602	
9.55	-0.262	0.09048475519765387	
9.555	0.356	0.09054110115935371	
9.56	0.334	0.09341599996927388	
9.565	-0.251	0.09974183258494307	
9.57	0.087	0.10536386646883909	
9.575	0.545	0.10956947640021802	
9.58	-0.174	0.11250807915165681	
9.585	-0.171	0.11150303133948619	
9.59	0.479	0.10225021158631353	
9.595	-0.002	0.090710270507738	
9.6	-0.287	0.07739494086701385	
9.605	0.337	0.07044589210124741	
9.61	0.330	0.07056494332786299	
9.615	-0.266	0.07675430880668418	
9.62	0.059	0.08421248511052473	
9.625	0.527	0.0886428729209929	
9.63	-0.193	0.09261313875340801	
9.635	-0.182	0.09137173400642115	
9.64	0.476	0.08522450669638634	
9.645	-0.017	0.07585595810521147	
9.65	-0.277	0.06533539303547517	
9.655	0.328	0.06233699492460256	
9.66	0.281	0.06368722666944901	
9.665	-0.298	0.06477998585290037	
9.67	0.012	0.06406540132537394	
9.675	0.490	0.06171030790191534	
9.68	-0.210	0.06072762316112429	
9.685	-0.188	0.05923535774956702	
9.69	0.489	0.05820050289061582	
9.695	0.004	0.058020789914172255	
9.7	-0.283	0.05825780989033516	
9.705	0.255	0.05820572588351521	
9.71	0.253	0.053832102611208174	
9.715	-0.281	0.048819437139343926	
9.72	0.020	0.04890889531653162	
9.725	0.512	0.051779618741107813	
9.73	-0.176	0.05883944146358797	
9.735	-0.162	0.0670976648365521	
9.74	0.495	0.0731787399099672	
9.745	-0.006	0.07616072215714458	
9.75	-0.284	0.0731783478727524	
9.755	0.290	0.06911793747069514	
9.76	0.256	0.06497501426011709	
9.765	-0.338	0.05681444296288787	
9.77	-0.074	0.04475125206952289	
9.775	0.377	0.02486591723599234	
9.78	-0.242	0.006939493203276698	
9.785	-0.255	-0.005041903382472012	
9.79	0.347	-0.01382360838710055	
9.795	-0.069	-0.022695617909654117	
9.8	-0.333	-0.028901391036492807	
9.805	0.214	-0.025953097859381272	
9.81	0.232	-0.019890579567578507	
9.815	-0.321	-0.012205595857510788	
9.82	-0.045	-0.0023562967493198457	
9.825	0.460	0.004974278319511844	
9.83	-0.171	0.015970244868600568	
9.835	-0.167	0.030821494056002458	
9.84	0.524	0.049243523518885265	
9.845	0.082	0.06839989647687199	
9.85	-0.203	0.08795849855310373	
9.855	0.592	0.11804389731216906	
9.86	0.716	0.17428491005846825	
9.865	-0.003	0.24772456677619753	
9.87	0.397	0.313499656432463	
9.875	0.652	0.35507932879327975	
9.88	-0.266	0.35099310063484634	
9.885	-0.396	0.286608698237234	
9.89	-0.037	0.16723303547745189	
9.895	-0.291	0.018577757425143452	
9.9	-0.488	-0.1100939751245071	
9.905	0.072	-0.18303546192688325	
9.91	0.246	-0.20456780006141706	
9.915	-0.280	-0.18025864978438522	
9.92	0.070	-0.12159834970676348	
9.925	0.626	-0.04679108679172457	
9.93	-0.106	0.029065654256262063	
9.935	-0.092	0.09049212549274425	
9.94	0.661	0.13731876483850242	
9.945	0.175	0.1756758305921846	
9.95	-0.222	0.19769725977602473	
9.955	0.400	0.2028767251694939	
9.96	0.418	0.19959271344702245	
9.965	-0.234	0.19067131089506495	
9.97	0.088	0.1782249739958371	
9.975	0.644	0.16734347956800916	
9.98	-0.087	0.16518758918814347	
9.985	-0.089	0.16532657488142843	
9.99	0.690	0.17130409692414508	
9.995	0.181	0.18587675232135464	
10.0	-0.236	0.19563180924145104	
10.005	0.356	0.19170544422584673	
10.01	0.392	0.1807456747372698	
10.015	-0.248	0.16677874904781864	
10.02	0.020	0.1500123140499951	
10.025	0.573	0.13133323419889512	
10.03	-0.126	0.12141492213469149	
10.035	-0.162	0.11522345330293043	
10.04	0.489	0.10911256333299635	
10.045	0.029	0.10106802200380999	
10.05	-0.272	0.08972676450149475	
10.055	0.343	0.08448448637279023	
10.06	0.411	0.09080666485160618	
10.065	-0.226	0.10398704770901102	
10.07	0.072	0.1158270247564309	
10.075	0.579	0.1252237751295564	
10.08	-0.150	0.13166193121344055	
10.085	-0.167	0.12916341362504602	
10.09	0.577	0.12488056817092308	
10.095	0.136	0.1282952569604577	
10.1	-0.251	0.13184626770029723	
10.105	0.325	0.13214936960281823	
10.11	0.385	0.13085929043279038	
10.115	-0.284	0.12630006444356795	
10.12	-0.054	0.11356974193042041	
10.125	0.398	0.08903352628375924	
10.13	-0.246	0.059042690633136594	
10.135	-0.298	0.028144690871186723	
10.14	0.253	-0.0034963785889225085	
10.145	-0.127	-0.03747453349000185	
10.15	-0.440	-0.06991543806232016	
10.155	-0.037	-0.09620673709216804	
10.16	-0.003	-0.12916081520501765	
10.165	-0.459	-0.160347365223973	
10.17	-0.236	-0.17658851833563222	
10.175	0.140	-0.18616082490562097	
10.18	-0.339	-0.19469006382074483	
10.185	-0.394	-0.19283742536966758	
10.19	0.096	-0.18772389250745702	
10.195	-0.170	-0.1903581776101756	
10.2	-0.465	-0.19181376965471225	
10.205	-0.064	-0.18635151619873358	
10.21	-0.014	-0.1901417332146407	
10.215	-0.439	-0.1972775241343449	
10.22	-0.203	-0.1926588193882871	
10.225	0.227	-0.1811302090705464	
10.23	-0.277	-0.16666666948095343	
10.235	-0.310	-0.14592228776036098	
10.24	0.310	-0.11964625294893433	
10.245	-0.051	-0.09530536320166438	
10.25	-0.373	-0.0759748737767596	
10.255	0.079	-0.06130720941657253	
10.26	0.282	-0.051980800656631514	
10.265	-0.287	-0.03843190110631134	
10.27	-0.037	-0.01672974217888237	
10.275	0.486	0.005075585315899824	
10.28	-0.176	0.025256273718486443	
10.285	-0.226	0.03889641572237704	
10.29	0.414	0.04553573013987297	
10.295	-0.049	0.04274617070060407	
10.3	-0.339	0.02979683635820249	
10.305	0.194	0.017796543724485872	
10.31	0.276	0.011205666183080288	
10.315	-0.326	0.008347418127028591	
10.32	-0.048	0.00920418714003085	
10.325	0.533	0.015344534350705362	
10.33	-0.129	0.03218554392567773	
10.335	-0.176	0.05168410926614251	
10.34	0.498	0.06973608900429415	
10.345	0.082	0.08384817404747787	
10.35	-0.266	0.09054569885882	
10.355	0.302	0.09583716497467559	
10.36	0.441	0.10442318531059416	
10.365	-0.226	0.11518216735448704	
10.37	0.033	0.12408057617691447	
10.375	0.577	0.12755833297882913	
10.38	-0.142	0.12916338615312817	
10.385	-0.193	0.12347504460348296	
10.39	0.466	0.11187014002527873	
10.395	0.050	0.09897801563668583	
10.4	-0.300	0.08335192438376779	
10.405	0.206	0.06982610153071468	
10.41	0.267	0.05561149502669341	
10.415	-0.283	0.04107856782459142	
10.42	-0.008	0.03596982466324773	
10.425	0.599	0.043758220074934566	
10.43	-0.135	0.06318053069046163	
10.435	-0.210	0.07826591367309746	
10.44	0.501	0.08697020001173145	
10.445	0.094	0.09313216127600815	
10.45	-0.291	0.09315810813263786	
10.455	0.308	0.09377450143990673	
10.46	0.460	0.10084705979034414	
10.465	-0.242	0.11301369492008452	
10.47	-0.025	0.11874858982324239	
10.475	0.502	0.11389746664856382	
10.48	-0.159	0.10229981228669921	
10.485	-0.219	0.08806731046604255	
10.49	0.463	0.0769752918541036	
10.495	0.076	0.07033964696334429	
10.5	-0.295	0.06504633186244471	
10.505	0.194	0.060632719033109815	
10.51	0.339	0.05602839401259363	
10.515	-0.246	0.05304167497612915	
10.52	-0.017	0.05756944369810894	
10.525	0.585	0.06700931645547165	
10.53	-0.113	0.08142832486166358	
10.535	-0.222	0.09187263811400079	
10.54	0.461	0.09394826701190506	
10.545	0.088	0.09053217311443917	
10.55	-0.295	0.08394937497094722	
10.555	0.243	0.07950456200325731	
10.56	0.467	0.0812110979676868	
10.565	-0.246	0.0910686474361648	
10.57	-0.049	0.09836549502901708	
10.575	0.519	0.0970727031932597	
10.58	-0.136	0.09157403910693979	
10.585	-0.210	0.08573877845426306	
10.59	0.460	0.08089960220368107	
10.595	0.084	0.07769680612773605	
10.6	-0.292	0.07190543997459398	
10.605	0.229	0.06937001691037085	
10.61	0.395	0.07032737728708133	
10.615	-0.243	0.07412568233576713	
10.62	-0.031	0.08021994681219344	
10.625	0.504	0.08211625741245238	
10.63	-0.124	0.08169545209450368	
10.635	-0.225	0.07861360400560383	
10.64	0.443	0.07585344498451789	
10.645	0.088	0.07185192212976264	
10.65	-0.306	0.06685218254975883	
10.655	0.220	0.06324705451137327	
10.66	0.389	0.06345886208812994	
10.665	-0.239	0.06716621272412435	
10.67	-0.043	0.07406440038092235	
10.675	0.553	0.07917721637387495	
10.68	-0.101	0.08481748436670355	
10.685	-0.203	0.09047994855540484	
10.69	0.470	0.09381366420639432	
10.695	0.087	0.09300220443181564	
10.7	-0.315	0.0857906666194036	
10.705	0.177	0.07512963045065937	
10.71	0.377	0.06458599989005051	
10.715	-0.249	0.060205060072325844	
10.72	-0.043	0.0609237041552946	
10.725	0.606	0.0682335435859317	
10.73	-0.081	0.08393403440571576	
10.735	-0.187	0.09835930101981344	
10.74	0.519	0.10976076313301511	
10.745	0.195	0.12115601455009936	
10.75	-0.254	0.12876920843956532	
10.755	0.314	0.13498710820837578	
10.76	0.496	0.14268404889117775	
10.765	-0.210	0.1512955968515731	
10.77	-0.025	0.15275474897645808	
10.775	0.544	0.1442022746158056	
10.78	-0.138	0.13010651614784075	
10.785	-0.236	0.11029057719879547	
10.79	0.372	0.08962207382542739	
10.795	0.041	0.06530551364902429	
10.8	-0.338	0.041826749684642894	
10.805	0.088	0.02281134935366327	
10.81	0.313	0.005734724545505626	
10.815	-0.268	-0.0025545447194441967	
10.82	-0.100	0.0016439159720583428	
10.825	0.458	0.008154173882625564	
10.83	-0.148	0.015243846619921632	
10.835	-0.239	0.022252373997391654	
10.84	0.421	0.031532738711014224	
10.845	0.075	0.039399234642328085	
10.85	-0.317	0.041834896395442966	
10.855	0.105	0.04070856537678125	
10.86	0.288	0.030783209363237224	
10.865	-0.275	0.019487394400172463	
10.87	-0.074	0.016560752240335597	
10.875	0.531	0.0231889120431997	
10.88	-0.086	0.03831673777627915	
10.885	-0.119	0.05916891843959392	
10.89	0.788	0.09953881767192833	
10.895	0.565	0.1725390927815548	
10.9	-0.104	0.25377558274759526	
10.905	0.252	0.3015557792533303	
10.91	0.067	0.2798288873448992	
10.915	-0.514	0.19251546605712241	
10.92	-0.398	0.07343898625138709	
10.925	-0.055	-0.055793274437212374	
10.93	-0.382	-0.17557324187741716	
10.935	-0.408	-0.24886439132710378	
10.94	0.273	-0.26246118817299385	
10.945	0.052	-0.2334058487089823	
10.95	-0.300	-0.1792852119883237	
10.955	0.252	-0.10737315332123804	
10.96	0.490	-0.029990301017864655	
10.965	-0.225	0.040399356289955723	
10.97	-0.032	0.09032571263498326	
10.975	0.596	0.11839737899569788	
10.98	-0.089	0.13338941842924307	
10.985	-0.200	0.13586942742234115	
10.99	0.525	0.13363197864659054	
10.995	0.226	0.135745202149196	
11.0	-0.239	0.1395101253973165	
11.005	0.308	0.14356969237234746	
11.01	0.516	0.15122843710512557	
11.015	-0.162	0.1613554141131769	
11.02	0.065	0.17017006427503956	
11.025	0.696	0.1805515217441256	
11.03	-0.028	0.1924848405350832	
11.035	-0.173	0.1936744286700468	
11.04	0.533	0.18562431236363724	
11.045	0.258	0.1789369306778011	
11.05	-0.257	0.17242518050331596	
11.055	0.259	0.163413847912295	
11.06	0.495	0.15438353376683786	
11.065	-0.194	0.15044087013368856	
11.07	-0.003	0.14697594757510996	
11.075	0.617	0.14355666470976364	
11.08	-0.068	0.14368086694523646	
11.085	-0.181	0.13958323441468135	
11.09	0.534	0.13748381387152017	
11.095	0.235	0.1411133235994847	
11.1	-0.243	0.14547878163699923	
11.105	0.330	0.1502005306038291	
11.11	0.594	0.1624556503665045	
11.115	-0.145	0.18163674972856741	
11.12	0.010	0.19277479601364628	
11.125	0.649	0.19443848252279478	
11.13	-0.026	0.19295802315738125	
11.135	-0.165	0.18454962969250155	
11.14	0.542	0.1761985409186706	
11.145	0.221	0.17031185356281192	
11.15	-0.265	0.16266644831161586	
11.155	0.201	0.14886731073317044	
11.16	0.402	0.13143404193295494	
11.165	-0.284	0.11098837601194614	
11.17	-0.170	0.08658922759430356	
11.175	0.331	0.0521879665582553	
11.18	-0.229	0.012297350352069547	
11.185	-0.359	-0.023389492107669232	
11.19	0.122	-0.05516627489428423	
11.195	-0.126	-0.091539504147611	
11.2	-0.478	-0.12807144311007035	
11.205	-0.098	-0.15240636483363862	
11.21	0.085	-0.17062346826479283	
11.215	-0.408	-0.1837158559532346	
11.22	-0.292	-0.1835204700835617	
11.225	0.186	-0.1789799258931398	
11.23	-0.236	-0.17549215795071843	
11.235	-0.373	-0.16438362690356817	
11.24	0.152	-0.1463435696441459	
11.245	-0.060	-0.13642075055052413	
11.25	-0.407	-0.13202293216079533	
11.255	-0.019	-0.1215560403347798	
11.26	0.249	-0.11054641322398898	
11.265	-0.332	-0.09765356105999404	
11.27	-0.185	-0.08166649107669174	
11.275	0.386	-0.06492026552650275	
11.28	-0.161	-0.05039044055300403	
11.285	-0.313	-0.03754830161346073	
11.29	0.261	-0.028340001075916776	
11.295	0.073	-0.02624737485455297	
11.3	-0.353	-0.02514788521427371	
11.305	0.033	-0.022648972373763628	
11.31	0.318	-0.02336023598128511	
11.315	-0.260	-0.020691799745723178	
11.32	-0.139	-0.011820550420982916	
11.325	0.469	0.0002340621232076904	
11.33	-0.103	0.01265726386223426	
11.335	-0.254	0.024262154478356696	
11.34	0.405	0.036752691320494434	
11.345	0.208	0.050894688733199404	
11.35	-0.266	0.06566569169322659	
11.355	0.226	0.08233038915631102	
11.36	0.457	0.09684466035149022	
11.365	-0.245	0.10718758651829734	
11.37	-0.100	0.10602105272025056	
11.375	0.537	0.09843259248803012	
11.38	-0.078	0.09269835505488914	
11.385	-0.245	0.08704921379663089	
11.39	0.424	0.08183382784960627	
11.395	0.183	0.0800540557398903	
11.4	-0.294	0.07950122508154481	
11.405	0.139	0.0772661361471339	
11.41	0.421	0.07403237505168786	
11.415	-0.231	0.07215673605672882	
11.42	-0.107	0.07087996135584576	
11.425	0.512	0.06954836642187602	
11.43	-0.092	0.06776400033634988	
11.435	-0.254	0.0648981304213943	
11.44	0.348	0.06185701509638423	
11.445	0.160	0.05618000288459599	
11.45	-0.274	0.052399485886990275	
11.455	0.152	0.055217817988116556	
11.46	0.452	0.06217766717863858	
11.465	-0.228	0.07111098597566955	
11.47	-0.077	0.07875632286327255	
11.475	0.563	0.08467412314956405	
11.48	-0.078	0.09181080072751796	
11.485	-0.242	0.09273589272932216	
11.49	0.424	0.0909032369890631	
11.495	0.212	0.09132036657616383	
11.5	-0.284	0.09127439370083561	
11.505	0.174	0.09213774857662217	
11.51	0.446	0.09233656786486477	
11.515	-0.254	0.09110107769659559	
11.52	-0.115	0.08559971894508764	
11.525	0.513	0.0777651090338955	
11.53	-0.080	0.07192133280109014	
11.535	-0.255	0.06759458308644586	
11.54	0.363	0.06387811525592693	
11.545	0.113	0.05746980752892673	
11.55	-0.315	0.0462028743281006	
11.555	0.128	0.0410341119537789	
11.56	0.460	0.042488534519985785	
11.565	-0.217	0.052128077002426984	
11.57	-0.095	0.06343604653499643	
11.575	0.563	0.07484252675789911	
11.58	-0.055	0.08503766325032183	
11.585	-0.239	0.0914325204764394	
11.59	0.406	0.0928501356734329	
11.595	0.204	0.09265398645823042	
11.6	-0.298	0.0901249586137437	
11.605	0.090	0.08388472618543663	
11.61	0.408	0.07263072597551296	
11.615	-0.254	0.06117932866566674	
11.62	-0.153	0.05327036815941191	
11.625	0.482	0.04489372798378419	
11.63	-0.112	0.03916802018244964	
11.635	-0.281	0.034314653337122955	
11.64	0.337	0.03180798894842779	
11.645	0.180	0.03179764723554712	
11.65	-0.294	0.03408303384763652	
11.655	0.114	0.04178653420467282	
11.66	0.414	0.047742362849986945	
11.665	-0.225	0.0531985579199313	
11.67	-0.090	0.05914359386621914	
11.675	0.577	0.06996377402357754	
11.68	-0.026	0.08425635381495498	
11.685	-0.217	0.09517880136299615	
11.69	0.481	0.10679649661580262	
11.695	0.263	0.11894682365250316	
11.7	-0.286	0.12699377510761006	
11.705	0.154	0.12566239607763194	
11.71	0.512	0.12089830721967296	
11.715	-0.193	0.119248273806171	
11.72	-0.100	0.11695774769674946	
11.725	0.516	0.11099935232275492	
11.73	-0.058	0.10141265689378116	
11.735	-0.245	0.09106096669194144	
11.74	0.417	0.08571409780736511	
11.745	0.230	0.085115821776866	
11.75	-0.300	0.08598859066926809	
11.755	0.075	0.08250607705582026	
11.76	0.389	0.07098826436865587	
11.765	-0.248	0.058338513744583834	
11.77	-0.144	0.04882112927979898	
11.775	0.498	0.04400992851903581	
11.78	-0.100	0.042550665042441496	
11.785	-0.284	0.03996551820060015	
11.79	0.287	0.03562639929683728	
11.795	0.122	0.02724802902177843	
11.8	-0.333	0.015985707052266797	
11.805	0.044	0.010391195916995593	
11.81	0.414	0.008088098468301564	
11.815	-0.242	0.01240003473212896	
11.82	-0.144	0.020679481389339272	
11.825	0.441	0.02803369237931948	
11.83	-0.115	0.029663551200618404	
11.835	-0.275	0.02685618432712967	
11.84	0.469	0.034601576334567494	
11.845	0.460	0.06442267222213482	
11.85	-0.080	0.11694022209362111	
11.855	0.537	0.1852577659752724	
11.86	0.822	0.263221875844418	
11.865	-0.164	0.3234325746372437	
11.87	-0.274	0.3224247851355492	
11.875	-0.022	0.24000676628648318	
11.88	-0.426	0.09484985048677509	
11.885	-0.599	-0.057222226565163556	
11.89	-0.133	-0.1794994812615942	
11.895	-0.116	-0.27042427222360527	
11.9	-0.401	-0.31203401120745844	
11.905	0.035	-0.28982616951491824	
11.91	0.486	-0.22266787846773242	
11.915	-0.176	-0.13353227591260713	
11.92	-0.107	-0.04462970691710793	
11.925	0.586	0.027161261860579825	
11.93	-0.002	0.08086632244232388	
11.935	-0.196	0.11456038409589327	
11.94	0.527	0.1395737498887508	
11.945	0.366	0.16370740304500614	
11.95	-0.223	0.1817246219761514	
11.955	0.208	0.18907051268818892	
11.96	0.631	0.1905466989568939	
11.965	-0.106	0.19642395632410076	
11.97	-0.026	0.1991946060962702	
11.975	0.673	0.20031299514200013	
11.98	0.088	0.20198287684758998	
11.985	-0.181	0.20138542483060895	
11.99	0.498	0.1975593558036701	
11.995	0.366	0.19487643036196384	
12.0	-0.222	0.19266557307134924	
12.005	0.246	0.18895770734694534	
12.01	0.625	0.18966703896719006	
12.015	-0.130	0.19447695030469958	
12.02	-0.049	0.19404840056650122	
12.025	0.663	0.19032541268300712	
12.03	0.001	0.18612357367204604	
12.035	-0.220	0.17430071748402215	
12.04	0.498	0.16245135154447432	
12.045	0.374	0.16103558547296276	
12.05	-0.254	0.16471619637083543	
12.055	0.208	0.164750426031386	
12.06	0.638	0.16771279843200343	
12.065	-0.115	0.1776902109909254	
12.07	-0.032	0.18588909202642956	
12.075	0.687	0.19117515803739585	
12.08	0.134	0.20038792380424975	
12.085	-0.145	0.2093318596322657	
12.09	0.589	0.2181469903274793	
12.095	0.437	0.2321630081593089	
12.1	-0.222	0.24096020321293427	
12.105	0.201	0.23545430213163884	
12.11	0.568	0.2206011097113154	
12.115	-0.187	0.20205924871622927	
12.12	-0.170	0.17478086016045724	
12.125	0.405	0.13583111872448794	
12.13	-0.145	0.08869037802039981	
12.135	-0.370	0.04150988091708484	
12.14	0.096	-0.003269019943364803	
12.145	-0.011	-0.05077923976650663	
12.15	-0.423	-0.09264520089176614	
12.155	-0.141	-0.11779055062473155	
12.16	0.130	-0.13860600999280853	
12.165	-0.353	-0.15558191600406612	
12.17	-0.295	-0.15921108650903026	
12.175	0.227	-0.152459869605294	
12.18	-0.203	-0.14713349945302384	
12.185	-0.416	-0.14234883649628402	
12.19	0.059	-0.13550619317161056	
12.195	-0.026	-0.13975875364548734	
12.2	-0.445	-0.14748220405736479	
12.205	-0.152	-0.1499265077828743	
12.21	0.226	-0.1496475479819583	
12.215	-0.313	-0.14544307644054189	
12.22	-0.277	-0.13128347062835385	
12.225	0.253	-0.11552909913443325	
12.23	-0.156	-0.10803303960541792	
12.235	-0.355	-0.10037896049526379	
12.24	0.189	-0.08655159564800034	
12.245	0.124	-0.07366697806614352	
12.25	-0.349	-0.06252489769810848	
12.255	-0.035	-0.04899551277084631	
12.26	0.350	-0.03953931403306282	
12.265	-0.245	-0.030472038238627062	
12.27	-0.148	-0.017398602438112306	
12.275	0.531	0.004608654708355811	
12.28	-0.028	0.031019618263924867	
12.285	-0.294	0.04942329262949309	
12.29	0.282	0.05649134725350288	
12.295	0.197	0.0544974586851674	
12.3	-0.312	0.047324606453477164	
12.305	0.023	0.041928084400506924	
12.31	0.466	0.03766794751538769	
12.315	-0.211	0.03949142667960426	
12.32	-0.174	0.044414837097028176	
12.325	0.431	0.04473773060699028	
12.33	-0.029	0.043108445222627384	
12.335	-0.243	0.04225593286980399	
12.34	0.382	0.051545931719407266	
12.345	0.293	0.06665555823904534	
12.35	-0.278	0.08117234310039209	
12.355	0.070	0.08885484600549137	
12.36	0.518	0.09185292777678453	
12.365	-0.181	0.09544191220725712	
12.37	-0.158	0.09625581441281403	
12.375	0.495	0.09187921367985441	
12.38	-0.019	0.0851812399524916	
12.385	-0.278	0.07707154979411189	
12.39	0.333	0.07057147260482971	
12.395	0.273	0.06881163813971858	
12.4	-0.284	0.06906571074901945	
12.405	0.062	0.07077996121182198	
12.41	0.507	0.07200411905575806	
12.415	-0.188	0.07742916915519832	
12.42	-0.159	0.08112293199976121	
12.425	0.499	0.08096877392288025	
12.43	-0.022	0.07825506632740116	
12.435	-0.283	0.07294364486234908	
12.44	0.313	0.06757167244115225	
12.445	0.247	0.06292680800982385	
12.45	-0.287	0.059997278603388965	
12.455	0.056	0.05971449390717915	
12.46	0.489	0.06110967657123501	
12.465	-0.193	0.06542824328046018	
12.47	-0.153	0.07002359724698859	
12.475	0.513	0.07303369421152482	
12.48	-0.034	0.07531528017809658	
12.485	-0.283	0.07184102124258121	
12.49	0.336	0.06857001461068772	
12.495	0.298	0.069034327481453	
12.5	-0.269	0.07394386052073137	
12.505	0.055	0.07863462042305121	
12.51	0.452	0.07819471389607043	
12.515	-0.190	0.07545045466740541	
12.52	-0.152	0.07292862969606412	
12.525	0.495	0.07207087410395863	
12.53	-0.029	0.07038931101351686	
12.535	-0.268	0.06676291244719505	
12.54	0.360	0.06654983790146043	
12.545	0.293	0.07212876831839463	
12.55	-0.298	0.07790073561438601	
12.555	0.021	0.07855481324163377	
12.56	0.502	0.07328486460873598	
12.565	-0.171	0.07348926157454597	
12.57	-0.126	0.07782614051131616	
12.575	0.556	0.08509014868034173	
12.58	0.001	0.09448076367742389	
12.585	-0.232	0.09769473179346747	
12.59	0.392	0.10148669608564274	
12.595	0.340	0.11022628991781665	
12.6	-0.272	0.11691673477438025	
12.605	0.009	0.1144397101560941	
12.61	0.476	0.10131675225946503	
12.615	-0.168	0.08858837722054952	
12.62	-0.130	0.0827419659749554	
12.625	0.512	0.08203639209870803	
12.63	-0.037	0.08159856217017177	
12.635	-0.306	0.07367932702625109	
12.64	0.259	0.06236743226733743	
12.645	0.226	0.049302802512090835	
12.65	-0.332	0.03699309839085069	
12.655	-0.040	0.027336487515330393	
12.66	0.354	0.013319461162704589	
12.665	-0.237	-0.0003159249523760759	
12.67	-0.194	-0.00532364282325477	
12.675	0.449	-0.0010030146910091349	
12.68	-0.043	0.00769660728590711	
12.685	-0.310	0.013654338383056588	
12.69	0.233	0.018294569411245076	
12.695	0.201	0.01737562482639645	
12.7	-0.317	0.01500183294801706	
12.705	-0.020	0.014258148438334907	
12.71	0.493	0.01638127235738708	
12.715	-0.132	0.02973463364118889	
12.72	-0.037	0.05458612997331519	
12.725	0.835	0.10101850436833058	
12.73	0.417	0.17481035345516294	
12.735	-0.046	0.25458956442012814	
12.74	0.541	0.3111856663637251	
12.745	0.163	0.3204265622338737	
12.75	-0.492	0.2690019649517775	
12.755	-0.323	0.16612538295539248	
12.76	-0.098	0.027389433805736888	
12.765	-0.500	-0.11715605797678245	
12.77	-0.436	-0.22144795225066227	
12.775	0.108	-0.2760092885323786	
12.78	-0.118	-0.2921224316288913	
12.785	-0.289	-0.26440742095077835	
12.79	0.334	-0.19475972316980966	
12.795	0.292	-0.10947520849877641	
12.8	-0.284	-0.032079619748738665	
12.805	0.072	0.027121033454184224	
12.81	0.628	0.07255274295551319	
12.815	-0.089	0.11473406204585997	
12.82	-0.072	0.14736351423889593	
12.825	0.680	0.17113425768315188	
12.83	0.145	0.19291687545628786	
12.835	-0.216	0.20335276555125023	
12.84	0.457	0.2032534393964734	
12.845	0.417	0.20171262317248723	
12.85	-0.217	0.19783390444270732	
12.855	0.101	0.18801025446018102	
12.86	0.606	0.17569113298081895	
12.865	-0.106	0.16778786975890886	
12.87	-0.095	0.16322978366592905	
12.875	0.618	0.16015436815513845	
12.88	0.110	0.16204569165982569	
12.885	-0.203	0.16229066070190168	
12.89	0.437	0.16417029022066282	
12.895	0.434	0.16982276489704368	
12.9	-0.220	0.17586878606915993	
12.905	0.101	0.17588012374151318	
12.91	0.567	0.1687137992106569	
12.915	-0.126	0.15990123793525227	
12.92	-0.068	0.1531437592286734	
12.925	0.704	0.15709334968447441	
12.93	0.113	0.17218627109569362	
12.935	-0.219	0.18127220639813368	
12.94	0.437	0.18200731806204362	
12.945	0.501	0.18593081246236118	
12.95	-0.164	0.19800229957642929	
12.955	0.236	0.21069894215683999	
12.96	0.727	0.22567930252758503	
12.965	-0.061	0.2421307115192846	
12.97	-0.069	0.2450328138811014	
12.975	0.654	0.23785944073013532	
12.98	0.105	0.2274198260442643	
12.985	-0.258	0.20839681056360526	
12.99	0.278	0.1786754131095516	
12.995	0.266	0.14197226024946444	
13.0	-0.318	0.10532367956099367	
13.005	-0.074	0.07146472758145533	
13.01	0.331	0.03547588737899603	
13.015	-0.281	0.0014952926862264152	
13.02	-0.315	-0.02594864083594065	
13.025	0.180	-0.05349619986643921	
13.03	-0.171	-0.08639450916750899	
13.035	-0.442	-0.11535496726700982	
13.04	-0.020	-0.1336087895463285	
13.045	-0.029	-0.15608418469362165	
13.05	-0.457	-0.17839537379063308	
13.055	-0.188	-0.18462895412527952	
13.06	0.180	-0.18368800448507286	
13.065	-0.327	-0.18033790584229276	
13.07	-0.332	-0.16791709997353244	
13.075	0.204	-0.1526279023300519	
13.08	-0.153	-0.14334140215615537	
13.085	-0.402	-0.1363171643128655	
13.09	0.081	-0.1246696617877554	
13.095	0.101	-0.11604988947258238	
13.1	-0.378	-0.11039934794864206	
13.105	-0.121	-0.09868319069607762	
13.11	0.293	-0.0906265874292905	
13.115	-0.265	-0.08334845049302034	
13.12	-0.266	-0.07400325813399306	
13.125	0.322	-0.06253568571846835	
13.13	-0.089	-0.05530519217016659	
13.135	-0.336	-0.051462898427843115	
13.14	0.208	-0.04160270618815705	
13.145	0.246	-0.027914078111006768	
13.15	-0.338	-0.014565262065042148	
13.155	-0.063	-0.004736136820004143	
13.16	0.478	0.002584031779956213	
13.165	-0.171	0.014584793038511139	
13.17	-0.185	0.029822002816814394	
13.175	0.508	0.045638098588455085	
13.18	0.018	0.06076973217684552	
13.185	-0.291	0.06731364521603914	
13.19	0.295	0.07043888238639975	
13.195	0.319	0.0732725417546864	
13.2	-0.306	0.07428736513192663	
13.205	-0.028	0.07016496599976624	
13.21	0.470	0.060777671536886305	
13.215	-0.177	0.054568028397304846	
13.22	-0.190	0.05264644632385501	
13.225	0.502	0.05475858130345121	
13.23	0.059	0.06187954481751358	
13.235	-0.269	0.07014896107006358	
13.24	0.299	0.07643377502076959	
13.245	0.319	0.08142636815057688	
13.25	-0.269	0.08420218578585283	
13.255	-0.006	0.08307428537033795	
13.26	0.505	0.07891186692730714	
13.265	-0.148	0.07757488887700298	
13.27	-0.170	0.0775141167243084	
13.275	0.504	0.08082366215412137	
13.28	0.026	0.08296124054498985	
13.285	-0.292	0.08003066392516725	
13.29	0.247	0.07341722652683863	
13.295	0.299	0.06655407624054979	
13.3	-0.286	0.06015130138770833	
13.305	-0.046	0.05498313003742408	
13.31	0.470	0.04801845460991707	
13.315	-0.182	0.0775141167243084	
13.32	-0.170	0.04439396482806748	
13.325	0.547	0.05387807784431964	
13.33	0.049	0.07006137717232336	
13.335	-0.280	0.07991753360823714	
13.34	0.279	0.08437502395615795	
13.345	0.343	0.08569003327766239	
13.35	-0.272	0.08611473211884758	
13.355	-0.028	0.08386039267913695	
13.36	0.519	0.07812069132493851	
13.365	-0.152	0.07567146465968239	
13.37	-0.197	0.0742493967734108	
13.375	0.420	0.07087131232469582	
13.38	-0.008	0.06118886153536037	
13.385	-0.306	0.04885343118306433	
13.39	0.209	0.039306026289483126	
13.395	0.235	0.02980013877337609	
13.4	-0.301	0.020109806409058874	
13.405	0.015	0.01977002120504052	
13.41	0.614	0.03321854713096999	
13.415	-0.087	0.06171936897467114	
13.42	-0.139	0.0921148741956547	
13.425	0.542	0.11490064594946092	
13.43	0.082	0.12830261074555888	
13.435	-0.260	0.1297404704604297	
13.44	0.331	0.12724489990226687	
13.445	0.421	0.12595350449787912	
13.45	-0.217	0.1300929188565046	
13.455	0.035	0.1326155086473158	
13.46	0.507	0.12828481351385007	
13.465	-0.148	0.11880145350506335	
13.47	-0.194	0.10599799817174599	
13.475	0.472	0.09390015025525802	
13.48	-0.017	0.08143406806522388	
13.485	-0.336	0.061672173696189964	
13.49	0.180	0.043156921885397645	
13.495	0.295	0.02707899750224818	
13.5	-0.275	0.02011150941886533	
13.505	-0.057	0.022489965840727082	
13.51	0.460	0.024360125298534673	
13.515	-0.168	0.027889016211378105	
13.52	-0.211	0.03387238689676376	
13.525	0.403	0.03889578337837814	
13.53	-0.049	0.03554963332843731	
13.535	-0.344	0.023588678344381317	
13.54	0.154	0.011103608021111877	
13.545	0.264	0.00019965461842796824	
13.55	-0.307	-0.004929733061429166	
13.555	-0.045	-0.0006043891301858693	
13.56	0.499	0.008481289802964875	
13.565	-0.159	0.022908471665404363	
13.57	-0.181	0.0387290302238521	
13.575	0.614	0.060980067264539584	
13.58	0.304	0.09967977120727826	
13.585	-0.104	0.14845958448201785	
13.59	0.698	0.20706402668848403	
13.595	0.686	0.27635883460345856	
13.6	-0.280	0.3239983452428825	
13.605	-0.222	0.307165173635235	
13.61	-0.034	0.21052363111017347	
13.615	-0.497	0.06203821855385585	
13.62	-0.529	-0.08136827827799135	
13.625	-0.017	-0.19205383737010376	
13.63	-0.177	-0.2681757922727233	
13.635	-0.396	-0.2945467310418359	
13.64	0.171	-0.26499121292472827	
13.645	0.328	-0.20154932156240857	
13.65	-0.248	-0.12399355734172393	
13.655	0.032	-0.04583117518260293	
13.66	0.625	0.024676676450227263	
13.665	-0.092	0.08398542823521508	
13.67	-0.167	0.12344673954546737	
13.675	0.528	0.1420457190523032	
13.68	0.133	0.14887776475897085	
13.685	-0.237	0.14722942734474537	
13.69	0.348	0.14500324258108027	
13.695	0.482	0.14762716347832666	
13.7	-0.193	0.1559031141087696	
13.705	0.131	0.16506174166480872	
13.71	0.741	0.17984786632653257	
13.715	-0.048	0.15689856923373674	
13.72	-0.136	0.15689856923373674	
13.725	0.560	0.15689856923373674	
13.73	0.156	0.19302251583593702	
13.735	-0.237	0.1781299533896245	
13.74	0.345	0.1649068537120278	
13.745	0.470	0.15776859338751137	
13.75	-0.203	0.15694140684665078	
13.755	0.047	0.15689856923373674	
13.76	0.602	0.1538718704244149	
13.765	-0.090	0.15117115198017117	
13.77	-0.127	0.1481980269210813	
13.775	0.586	0.14901413310560763	
13.78	0.200	0.15516938992266194	
13.785	-0.199	0.1631341942979481	
13.79	0.461	0.17375448317019032	
13.795	0.568	0.19485471538985716	
13.8	-0.170	0.21705028349969654	
13.805	0.108	0.22672384697334874	
13.81	0.701	0.22783747533671225	
13.815	-0.054	0.22838411081076324	
13.82	-0.119	0.2201081000876535	
13.825	0.609	0.20780977974082615	
13.83	0.204	0.200383015110223	
13.835	-0.251	0.1922439697183386	
13.84	0.253	0.1754358396078648	
13.845	0.377	0.15188552943635164	
13.85	-0.278	0.12837563470968102	
13.855	-0.063	0.10452532064584767	
13.86	0.438	0.07961887745596577	
13.865	-0.220	0.05472164675173735	
13.87	-0.318	0.029148210743976877	
13.875	0.223	-0.0005585202559251262	
13.88	-0.098	-0.03545801610296006	
13.885	-0.422	-0.0684797948262709	
13.89	-0.043	-0.09285685578515199	
13.895	0.033	-0.12119936003943133	
13.9	-0.425	-0.14829888862161406	
13.905	-0.208	-0.15956814285163534	
13.91	0.171	-0.16260093931608927	
13.915	-0.320	-0.16706854059000706	
13.92	-0.393	-0.16778678938967678	
13.925	0.110	-0.16475836149344497	
13.93	-0.161	-0.17038883994705348	
13.935	-0.482	-0.17838269573469095	
13.94	-0.048	-0.17797167178656692	
13.945	0.191	-0.17417179068522973	
13.95	-0.333	-0.15822361593724693	
13.955	-0.136	-0.1266534350791947	
13.96	0.389	-0.09459136067812794	
13.965	-0.202	-0.06501436893367042	
13.97	-0.266	-0.040865197532855224	
13.975	0.336	-0.021744857347876758	
13.98	-0.016	-0.01232272840431492	
13.985	-0.355	-0.012471672403749143	
13.99	0.101	-0.013982358752717736	
13.995	0.292	-0.017073181026643666	
14.0	-0.303	-0.015302835831892847	
14.005	-0.097	-0.008718187179512945	
14.01	0.467	-0.00046120347784175866	
14.015	-0.170	0.008973572064489801	
14.02	-0.262	0.0170113177285307	
14.025	0.397	0.02235425556578948	
14.03	0.030	0.024748903644616807	
14.035	-0.324	0.02338977936898495	
14.04	0.181	0.023039743807336595	
14.045	0.354	0.02505618673529861	
14.05	-0.249	0.03359601076091675	
14.055	-0.031	0.04521539135778085	
14.06	0.592	0.06068019330906098	
14.065	-0.106	0.07995785590766152	
14.07	-0.196	0.09388063866733604	
14.075	0.487	0.1014360222485412	
14.08	0.133	0.10682674793236704	
14.085	-0.280	0.10627179344465118	
14.09	0.188	0.10102057962751465	
14.095	0.330	0.08815963923961315	
14.1	-0.272	0.07354826802859463	
14.105	-0.057	0.06314457736748029	
14.11	0.556	0.058768948222699825	
14.115	-0.115	0.06398351717683981	
14.12	-0.203	0.07079321305470976	
14.125	0.450	0.07646867073707413	
14.13	0.078	0.0788902878882121	
14.135	-0.298	0.07520074239616054	
14.14	0.194	0.06900488366043644	
14.145	0.339	0.06224821728943527	
14.15	-0.268	0.057520269075355505	
14.155	-0.002	0.057073146879307764	
14.16	0.556	0.06483617304861139	
14.165	-0.110	0.07701587119141137	
14.17	-0.177	0.08669727943191491	
14.175	0.478	0.0954855643866958	
14.18	0.128	0.10098710128553867	
14.185	-0.281	0.10112797515025487	
14.19	0.186	0.0969389235087807	
14.195	0.321	0.08435591910824919	
14.2	-0.258	0.07051687174083736	
14.205	-0.051	0.061961869189056905	
14.21	0.528	0.05891071029631532	
14.215	-0.116	0.062082724639907355	
14.22	-0.205	0.06658271728399563	
14.225	0.469	0.07349968386017916	
14.23	0.097	0.07909761951498753	
14.235	-0.336	0.07703737486324497	
14.24	0.111	0.0658774650660495	
14.245	0.359	0.04948840045591202	
14.25	-0.255	0.03951008993203503	
14.255	-0.057	0.039844488559310644	
14.26	0.542	0.0459874627468934	
14.265	-0.124	0.05714772882514484	
14.27	-0.190	0.06646620679134636	
14.275	0.501	0.07850421725469836	
14.28	0.122	0.09021088049499207	
14.285	-0.297	0.09496853899680138	
14.29	0.152	0.09080622767381587	
14.295	0.362	0.07859415741396249	
14.3	-0.252	0.06751026604904359	
14.305	-0.057	0.06273207424178415	
14.31	0.536	0.06205168815732562	
14.315	-0.132	0.0652216452834227	
14.32	-0.225	0.06735743696245913	
14.325	0.423	0.06849239347946807	
14.33	0.114	0.06732048837500436	
14.335	-0.312	0.0649198235039851	
14.34	0.101	0.0587431738670289	
14.345	0.308	0.04367945878218291	
14.35	-0.249	0.030509810350424195	
14.355	-0.022	0.03066372361757214	
14.36	0.651	0.04712154824826313	
14.365	-0.061	0.07725410756230097	
14.37	-0.173	0.1042652475529479	
14.375	0.518	0.1225089301018059	
14.38	0.181	0.13538923351959387	
14.385	-0.242	0.13985614695272966	
14.39	0.308	0.14271481383965995	
14.395	0.441	0.14476984821796052	
14.4	-0.262	0.1434885407231372	
14.405	-0.049	0.1315474070646686	
14.41	0.553	0.11616057648795461	
14.415	-0.100	0.10634813329688297	
14.42	-0.216	0.0971893296073997	
14.425	0.426	0.0904573909494781	
14.43	0.079	0.08050648032107087	
14.435	-0.320	0.06785473353207722	
14.44	0.131	0.05459129246533104	
14.445	0.336	0.04084043237125063	
14.45	-0.272	0.03158936575306001	
14.455	-0.107	0.02844109097827404	
14.46	0.447	0.02613318504059329	
14.465	-0.164	0.02345917551546673	
14.47	-0.274	0.020139123857920188	
14.475	0.343	0.017384851581251092	
14.48	0.065	0.013603072697264337	
14.485	-0.307	0.0108653296729307	
14.49	0.122	0.012502470554145809	
14.495	0.305	0.012890923496931113	
14.5	-0.268	0.012627169089400215	
14.505	-0.063	0.018362258284415015	
14.51	0.560	0.032168840837439164	
14.515	-0.043	0.05352766134408894	
14.52	-0.055	0.08306067200754937	
14.525	0.858	0.13439967137528624	
14.53	0.657	0.22073756021114874	
14.535	-0.063	0.3127890285178483	
14.54	0.278	0.36333606539334873	
14.545	0.120	0.3399394985315758	
14.55	-0.521	0.24566506944940814	
14.555	-0.434	0.11322757589054655	
14.56	-0.092	-0.03482857853402761	
14.565	-0.411	-0.17433956946282667	
14.57	-0.440	-0.26396124758628253	
14.575	0.240	-0.28763101751570685	
14.58	0.107	-0.261195671618208	
14.585	-0.292	-0.19922318553025414	
14.59	0.232	-0.11761381261879872	
14.595	0.415	-0.03792384985226425	
14.6	-0.236	0.026582751016167878	
14.605	-0.038	0.07015224069680631	
14.61	0.591	0.09833084238347638	
14.615	-0.048	0.11860914159902936	
14.62	-0.196	0.12980735442563143	
14.625	0.482	0.13345013887246887	
14.63	0.230	0.13490409340399556	
14.635	-0.232	0.13758772788264234	
14.64	0.311	0.14237663230713377	
14.645	0.557	0.15327330247104515	
14.65	-0.185	0.16651162497807775	
14.655	0.024	0.1750300042165947	
14.66	0.683	0.17847674795071297	
14.665	-0.037	0.18365663296123724	
14.67	-0.168	0.18165442245724417	
14.675	0.527	0.17448355789175424	
14.68	0.236	0.16903290534601076	
14.685	-0.240	0.16349922952750645	
14.69	0.295	0.1582903297085917	
14.695	0.499	0.15739155040773972	
14.7	-0.190	0.15754502778757723	
14.705	-0.009	0.15590079155131828	
14.71	0.606	0.15150382814705227	
14.715	-0.064	0.14777782144928503	
14.72	-0.197	0.14057028081024495	
14.725	0.481	0.1324050547253815	
14.73	0.192	0.12716664969654856	
14.735	-0.260	0.121509931578774	
14.74	0.273	0.11914316146785033	
14.745	0.594	0.1284739761601993	
14.75	-0.148	0.1496749250387918	
14.755	0.039	0.16874343532587435	
14.76	0.758	0.18644559660038523	
14.765	0.056	0.2089881548013026	
14.77	-0.139	0.22351873624731575	
14.775	0.576	0.2261814889789418	
14.78	0.275	0.22433064229504124	
14.785	-0.275	0.21365936136061442	
14.79	0.159	0.18885456646196924	
14.795	0.360	0.152429880516017	
14.8	-0.300	0.11299019032374774	
14.805	-0.159	0.07461680269524822	
14.81	0.321	0.03618718355598489	
14.815	-0.248	-0.0037368976576036606	
14.82	-0.396	-0.0413653642353534	
14.825	0.061	-0.07714298558535418	
14.83	-0.109	-0.11858965845350952	
14.835	-0.465	-0.15305760232688465	
14.84	-0.119	-0.17033895571962948	
14.845	0.042	-0.18568828338194612	
14.85	-0.394	-0.1987694213675572	
14.855	-0.223	-0.1934017142876579	
14.86	0.267	-0.1739694462559619	
14.865	-0.252	-0.15463171669908332	
14.87	-0.381	-0.13632636398274456	
14.875	0.146	-0.12324178287788744	
14.88	-0.068	-0.12155673080096216	
14.885	-0.428	-0.12404567677675299	
14.89	-0.046	-0.12238957767768445	
14.895	0.203	-0.12163559448067421	
14.9	-0.349	-0.11878027989939693	
14.905	-0.185	-0.1064751651025299	
14.91	0.391	-0.08789292734862836	
14.915	-0.170	-0.06861409706913833	
14.92	-0.310	-0.04943396593303079	
14.925	0.324	-0.03316697608112189	
14.93	0.052	-0.021478974642737465	
14.935	-0.371	-0.016191039603804414	
14.94	0.041	-0.0163871469288815	
14.945	0.357	-0.017484485616207614	
14.95	-0.246	-0.011875888995493761	
14.955	-0.077	0.003434781445795649	
14.96	0.545	0.025262193378700424	
14.965	-0.095	0.0483770438788019	
14.97	-0.248	0.06340793081365637	
14.975	0.380	0.06992714764058633	
14.98	0.140	0.06961594007981556	
14.985	-0.295	0.06566447463032885	
14.99	0.186	0.06461863700416803	
14.995	0.473	0.07066827515412458	
15.0	-0.220	0.08102690441831747	
15.005	-0.098	0.08931994213298153	
15.01	0.533	0.09040191002511441	
15.015	-0.074	0.0894032174360122	
15.02	-0.216	0.08826957405978841	
15.025	0.406	0.08799959536954186	
15.03	0.113	0.08371302975796081	
15.035	-0.283	0.07352933016753728	
15.04	0.221	0.0706058486542734	
15.045	0.519	0.07882390306173381	
15.05	-0.200	0.09695278215096552	
15.055	-0.055	0.11120508588042023	
15.06	0.545	0.11654112983213433	
15.065	-0.084	0.11643222896040759	
15.07	-0.242	0.1081018738189131	
15.075	0.411	0.09805871113095727	
15.08	0.156	0.08885605641149148	
15.085	-0.298	0.07840164224181936	
15.09	0.160	0.07152796278383877	
15.095	0.466	0.06997999342319094	
15.1	-0.217	0.0759426777858801	
15.105	-0.089	0.08206323360822448	
15.11	0.496	0.08363539694917937	
15.115	-0.083	0.08052335828609547	
15.12	-0.219	0.0769636279573567	
15.125	0.438	0.07806025362719007	
15.13	0.224	0.08500173786301111	
15.135	-0.275	0.09231542663751008	
15.14	0.145	0.09642531165194795	
15.145	0.466	0.0951082085761642	
15.15	-0.184	0.09695736354675621	
15.155	-0.061	0.10193651093790901	
15.16	0.536	0.10470511119216158	
15.165	-0.100	0.10360102260004164	
15.17	-0.240	0.09484031689148803	
15.175	0.421	0.08805214352835092	
15.18	0.180	0.08312341586385286	
15.185	-0.303	0.07924925014548004	
15.19	0.139	0.07535116539008391	
15.195	0.469	0.07222827658579511	
15.2	-0.257	0.07396274715827955	
15.205	-0.127	0.0738061916510647	
15.21	0.522	0.06976920848959794	
15.215	-0.071	0.06770300145013547	
15.22	-0.234	0.0677368150975358	
15.225	0.434	0.07201554610289432	
15.23	0.208	0.07924023770579937	
15.235	-0.294	0.08522010006895403	
15.24	0.117	0.08624933549081093	
15.245	0.420	0.0802961136689844	
15.25	-0.234	0.07401535150363955	
15.255	-0.109	0.07072151689167254	
15.26	0.490	0.06677425052627273	
15.265	-0.092	0.06277479556325906	
15.27	-0.255	0.05868515028473706	
15.275	0.369	0.05597768732926722	
15.28	0.116	0.05230463241419196	
15.285	-0.313	0.04521004607356244	
15.29	0.105	0.040205628742546476	
15.295	0.388	0.03635213899715713	
15.3	-0.245	0.03602506608862638	
15.305	-0.098	0.039656741893209016	
15.31	0.554	0.048817464297599034	
15.315	-0.077	0.06182466093044975	
15.32	-0.278	0.06859867099425679	
15.325	0.342	0.06796019472392917	
15.33	0.165	0.06139906049562772	
15.335	-0.309	0.05417627093123745	
15.34	0.148	0.05213416190901877	
15.345	0.501	0.05743664823289484	
15.35	-0.211	0.07105817811395604	
15.355	-0.106	0.08354718328850233	
15.36	0.544	0.08882311474703342	
15.365	-0.063	0.09191705304824521	
15.37	-0.234	0.09155156633068467	
15.375	0.479	0.09391045495344684	
15.38	0.241	0.10248764301756014	
15.385	-0.281	0.10918387594535524	
15.39	0.169	0.11102201519094661	
15.395	0.478	0.11046674973384289	
15.4	-0.213	0.10915200231044904	
15.405	-0.112	0.10646273697254988	
15.41	0.455	0.09476773481693226	
15.415	-0.129	0.07703299022285703	
15.42	-0.292	0.05654203454726246	
15.425	0.256	0.03679460088952515	
15.43	0.038	0.011550836992979329	
15.435	-0.358	-0.01274473209292552	
15.44	0.061	-0.026054354303483518	
15.445	0.400	-0.025521038844711415	
15.45	-0.262	-0.015775054901592582	
15.455	-0.156	-0.0005910460288345916	
15.46	0.446	0.0107501461920623	
15.465	-0.124	0.017098426476748165	
15.47	-0.286	0.018501587939628514	
15.475	0.328	0.020761074141087472	
15.48	0.140	0.022628427724884208	
15.485	-0.312	0.023231787105795612	
15.49	0.094	0.026864552460478232	
15.495	0.450	0.032543196109061256	
15.5	-0.171	0.045256830345534654	
15.505	0.050	0.0703311383037606	
15.51	0.869	0.11580754412340787	
15.515	0.307	0.1881954207419271	
15.52	-0.023	0.26240292036063717	
15.525	0.600	0.31167826684146516	
15.53	0.075	0.3167009424449886	
15.535	-0.517	0.2621947175161208	
15.54	-0.286	0.15472496608773734	
15.545	-0.145	0.010590834990020188	
15.55	-0.537	-0.1356370348498579	
15.555	-0.370	-0.23572682087286462	
15.56	0.236	-0.28020044243965414	
15.565	-0.133	-0.27671177478858155	
15.57	-0.243	-0.23161160523037355	
15.575	0.431	-0.15229920519109236	
15.58	0.258	-0.06519150509493091	
15.585	-0.262	0.012143622326836443	
15.59	0.204	0.0707020624939992	
15.595	0.547	0.11172093653354301	
15.6	-0.179	0.1412745946737943	
15.605	-0.069	0.15509118777658765	
15.61	0.562	0.15389587052469955	
15.615	-0.035	0.1473285153570143	
15.62	-0.217	0.13419982731978258	
15.625	0.427	0.12372185325071947	
15.63	0.299	0.11997454379391714	
15.635	-0.207	0.12306413648224919	
15.64	0.293	0.13562698323469313	
15.645	0.594	0.15687486926058117	
15.65	-0.145	0.17728555626474596	
15.655	-0.051	0.18593408291380498	
15.66	0.635	0.18397145450379293	
15.665	0.012	0.18045821706574852	
15.67	-0.205	0.17105525710514763	
15.675	0.486	0.1616577729247214	
15.68	0.327	0.15815682322787214	
15.685	-0.226	0.1590337721815962	
15.69	0.215	0.1604395955819532	
15.695	0.539	0.15998708202050033	
15.7	-0.176	0.15941951173384436	
15.705	-0.064	0.15476179665057638	
15.71	0.663	0.15094119325753766	
15.715	0.050	0.15566837430787644	
15.72	-0.187	0.1609842228936019	
15.725	0.495	0.16447564214342258	
15.73	0.366	0.17132191641053052	
15.735	-0.205	0.17913098058164023	
15.74	0.276	0.186211856010329	
15.745	0.660	0.19701475634140334	
15.75	-0.106	0.21165620851818764	
15.755	0.000	0.2195983408576351	
15.76	0.699	0.22076419613142298	
15.765	0.020	0.22092920800344434	
15.77	-0.229	0.2090098658304199	
15.775	0.421	0.18516044222760142	
15.78	0.266	0.16146939951071673	
15.785	-0.295	0.14039228331530015	
15.79	-0.009	0.11289601796031308	
15.795	0.238	0.07088802212486281	
15.8	-0.346	0.020040547995510628	
15.805	-0.278	-0.023474949995933803	
15.81	0.243	-0.06055996772813021	
15.815	-0.188	-0.09179715508456211	
15.82	-0.384	-0.108797401751187	
15.825	0.079	-0.11617556322919732	
15.83	-0.081	-0.13052690468265424	
15.835	-0.459	-0.14932357171212046	
15.84	-0.121	-0.1582463102313048	
15.845	0.201	-0.16023504637915448	
15.85	-0.338	-0.1567506418139114	
15.855	-0.254	-0.14149429068339092	
15.86	0.256	-0.12472093826530199	
15.865	-0.193	-0.11470492001686737	
15.87	-0.381	-0.10775973191355973	
15.875	0.072	-0.10328209078672149	
15.88	-0.029	-0.1124855938021683	
15.885	-0.419	-0.12528403699738147	
15.89	-0.087	-0.12830461350132505	
15.895	0.259	-0.12620282450486128	
15.9	-0.291	-0.11674358459850373	
15.905	-0.194	-0.0965463215768946	
15.91	0.418	-0.0706510117677531	
15.915	-0.127	-0.044694391637842334	
15.92	-0.306	-0.02686945231917294	
15.925	0.302	-0.011208912900226457	
15.93	0.188	0.0036106450530277805	
15.935	-0.301	0.016575171391722904	
15.94	0.046	0.026663064447081556	
15.945	0.446	0.033949249955967646	
15.95	-0.208	0.043189734493304904	
15.955	-0.135	0.05232540141418029	
15.96	0.475	0.05847539733622177	
15.965	-0.081	0.05935212802868837	
15.97	-0.266	0.054980918954096535	
15.975	0.324	0.05184103807491165	
15.98	0.180	0.04873181838612252	
15.985	-0.298	0.044450592906359034	
15.99	0.097	0.04462575922860605	
15.995	0.499	0.05011554868280192	
16.0	-0.205	0.06313463150166267	
16.005	-0.152	0.0721832947194139	
16.01	0.463	0.07260635346132137	
16.015	-0.045	0.068416257101424	
16.02	-0.246	0.06382099112469697	
16.025	0.383	0.06488078889022626	
16.03	0.259	0.07187275131864782	
16.035	-0.263	0.07933290329638652	
16.04	0.088	0.08554976632060714	
16.045	0.501	0.08825750756105714	
16.05	-0.222	0.09011337740018327	
16.055	-0.177	0.08705684764362598	
16.06	0.476	0.07670497511247609	
16.065	-0.075	0.0644842668780837	
16.07	-0.297	0.05168612856877885	
16.075	0.307	0.04188978488124484	
16.08	0.266	0.038995730515911965	
16.085	-0.266	0.044265049670513555	
16.09	0.131	0.05748969107778275	
16.095	0.539	0.07436522346510543	
16.1	-0.194	0.09311013768679496	
16.105	-0.147	0.10295489526403984	
16.11	0.482	0.10075576426058425	
16.115	-0.040	0.09154222414855512	
16.12	-0.251	0.0806067875626958	
16.125	0.348	0.07488381793821075	
16.13	0.185	0.06906599119393333	
16.135	-0.338	0.05920884022574242	
16.14	0.015	0.046436778755462246	
16.145	0.389	0.03144431448437946	
16.15	-0.216	0.023120035876259	
16.155	-0.138	0.02289635124156616	
16.16	0.541	0.03382092632635621	
16.165	-0.031	0.049584109302551756	
16.17	-0.251	0.06250748009933574	
16.175	0.374	0.0728866364329111	
16.18	0.255	0.08116371180688714	
16.185	-0.272	0.08715230683226578	
16.19	0.110	0.09037133379593412	
16.195	0.519	0.0935404215163492	
16.2	-0.173	0.10013051095880282	
16.205	-0.127	0.10377672949797548	
16.21	0.507	0.10284993708585605	
16.215	-0.048	0.09667220487231858	
16.22	-0.272	0.08542921742976123	
16.225	0.313	0.07484610033859782	
16.23	0.172	0.062266568582161536	
16.235	-0.332	0.04713347818191961	
16.24	0.017	0.03428254388600002	
16.245	0.385	0.022619358041596836	
16.25	-0.203	0.01617405977484482	
16.255	-0.093	0.02268392874633829	
16.26	0.615	0.04390435569893156	
16.265	0.047	0.07576270553497082	
16.27	-0.237	0.10230907337841261	
16.275	0.391	0.11780821531278687	
16.28	0.313	0.12640507966662884	
16.285	-0.246	0.13008693105710417	
16.29	0.133	0.1311627860574009	
16.295	0.550	0.1307302863637602	
16.3	-0.165	0.13222782813376746	
16.305	-0.122	0.13052270128527507	
16.31	0.559	0.12490465714762698	
16.315	-0.026	0.11890535582114986	
16.32	-0.291	0.10623605039014222	
16.325	0.238	0.08671011703674575	
16.33	0.136	0.059529840591524455	
16.335	-0.321	0.030119300591595337	
16.34	0.012	0.01303918954587127	
16.345	0.458	0.006794186962714059	
16.35	-0.213	0.012327331985508035	
16.355	-0.182	0.022407198948562967	
16.36	0.457	0.030882334554243076	
16.365	-0.061	0.0350294913110558	
16.37	-0.297	0.03517616742435776	
16.375	0.290	0.03463901591011727	
16.38	0.220	0.034652180390513765	
16.385	-0.312	0.0351122710275171	
16.39	0.007	0.03490479220239932	
16.395	0.406	0.03085941511389874	
16.4	-0.225	0.027400312094458815	
16.405	-0.179	0.027296999346203842	
16.41	0.447	0.02888833647098873	
16.415	-0.013	0.03214038303283871	
16.42	-0.173	0.04111272326468819	
16.425	0.660	0.07560707403159425	
16.43	0.690	0.14679677277664635	
16.435	-0.066	0.23208791995333752	
16.44	0.345	0.29773733294349347	
16.445	0.473	0.32391844367060785	
16.45	-0.346	0.2974700648355613	
16.455	-0.420	0.2161036646799072	
16.46	-0.087	0.09084297439863986	
16.465	-0.350	-0.0556584952030209	
16.47	-0.537	-0.17692959518389903	
16.475	-0.057	-0.24853050948412153	
16.48	0.047	-0.28206728348778576	
16.485	-0.321	-0.27284635591342654	
16.49	0.018	-0.22033523241909447	
16.495	0.475	-0.1469666814969986	
16.5	-0.158	-0.06947890883740501	
16.505	-0.113	8.94262435245023e-06	
16.51	0.626	0.05895074083547127	
16.515	0.111	0.10938075422746588	
16.52	-0.196	0.1458506231118089	
16.525	0.463	0.1694826080221207	
16.53	0.423	0.18607701845247537	
16.535	-0.199	0.19797876542306836	
16.54	0.186	0.20155152728286457	
16.545	0.621	0.20122509010777523	
16.55	-0.119	0.20052132267595474	
16.555	-0.116	0.19183339837434127	
16.56	0.567	0.17604236214435498	
16.565	0.029	0.15850708656131401	
16.57	-0.225	0.140723291446899	
16.575	0.412	0.12945425341820416	
16.58	0.403	0.13023821122096596	
16.585	-0.211	0.13894740067756345	
16.59	0.156	0.14842147879558185	
16.595	0.583	0.1563223791899464	
16.6	-0.122	0.16260075986789124	
16.605	-0.075	0.16369818898722685	
16.61	0.664	0.1660426198589675	
16.615	0.125	0.17566152208134722	
16.62	-0.200	0.18164218846062496	
16.625	0.458	0.18431404257370254	
16.63	0.443	0.18838027740725002	
16.635	-0.202	0.19401455456798222	
16.64	0.146	0.19422529315542575	
16.645	0.632	0.19134953056747328	
16.65	-0.097	0.19080423659693713	
16.655	-0.066	0.18856710849433786	
16.66	0.664	0.18689271429546966	
16.665	0.130	0.19088088475302034	
16.67	-0.190	0.19268423466143259	
16.675	0.463	0.1920580774335794	
16.68	0.421	0.19347909041942207	
16.685	-0.229	0.1942307287156192	
16.69	0.053	0.18398778538066274	
16.695	0.478	0.16023850792309546	
16.7	-0.210	0.13210847306495838	
16.705	-0.225	0.1015085900528098	
16.71	0.324	0.06660213164724946	
16.715	-0.135	0.026092907197631042	
16.72	-0.411	-0.014142217233140653	
16.725	0.046	-0.05024355860406469	
16.73	0.021	-0.08752073480106712	
16.735	-0.431	-0.11947150291133475	
16.74	-0.193	-0.13714778243605596	
16.745	0.102	-0.15393172142843098	
16.75	-0.361	-0.17367162699808195	
16.755	-0.359	-0.1814566574664943	
16.76	0.148	-0.18057592533121963	
16.765	-0.197	-0.1828290558752384	
16.77	-0.419	-0.18005502446052613	
16.775	0.061	-0.16733431051983955	
16.78	0.061	-0.15551820765973848	
16.785	-0.398	-0.14544497685990146	
16.79	-0.121	-0.12918328860897257	
16.795	0.285	-0.11488916720116757	
16.8	-0.286	-0.10168676120342462	
16.805	-0.271	-0.0875319596186957	
16.81	0.310	-0.0744934433529715	
16.815	-0.109	-0.06680786880744383	
16.82	-0.344	-0.06119052109976604	
16.825	0.221	-0.051265721421565325	
16.83	0.131	-0.040405239401683515	
16.835	-0.368	-0.03660888391964719	
16.84	-0.069	-0.03621722649694212	
16.845	0.427	-0.03268418042889787	
16.85	-0.217	-0.022761662371183825	
16.855	-0.222	-0.008698820530901716	
16.86	0.402	0.001682932747981558	
16.865	-0.042	0.008258781775028532	
16.87	-0.295	0.010586494783510803	
16.875	0.295	0.018798770383788622	
16.88	0.284	0.030791195643818978	
16.885	-0.278	0.04321824653078852	
16.89	0.027	0.053690871493759104	
16.895	0.530	0.06354043986525035	
16.9	-0.161	0.07518630303354554	
16.905	-0.167	0.08409734623641645	
16.91	0.533	0.08885450203986262	
16.915	0.042	0.09436871488553406	
16.92	-0.272	0.09635518146857627	
16.925	0.287	0.09280924820459316	
16.93	0.293	0.0869939566011515	
16.935	-0.291	0.08009392309919973	
16.94	0.003	0.07257227667198422	
16.945	0.522	0.06672546264309437	
16.95	-0.187	0.06720132783294899	
16.955	-0.205	0.06692213654799187	
16.96	0.415	0.060932021682366784	
16.965	-0.028	0.05048037021791646	
16.97	-0.307	0.038223921003976556	
16.975	0.319	0.03479735960408359	
16.98	0.350	0.04314972097216108	
16.985	-0.266	0.0580297483999506	
16.99	0.032	0.0724556068866874	
16.995	0.554	0.08284409703330448	
17.0	-0.145	0.09423978393429702	
17.005	-0.158	0.10178120410340151	
17.01	0.505	0.103973638457742	
17.015	0.029	0.1025969920955522	
17.02	-0.268	0.09611524550962483	
17.025	0.275	0.08872813977972	
17.03	0.276	0.08027319710885897	
17.035	-0.281	0.07101748374137626	
17.04	-0.006	0.06334573679487834	
17.045	0.527	0.05993069229769688	
17.05	-0.170	0.06230925955365023	
17.055	-0.199	0.06666053241003775	
17.06	0.405	0.06397471024126264	
17.065	-0.058	0.05270810209601734	
17.07	-0.310	0.03504219125688675	
17.075	0.281	0.026675698849668004	
17.08	0.362	0.031406487245097536	
17.085	-0.258	0.046005424913218296	
17.09	-0.003	0.062216115084004465	
17.095	0.493	0.07000539310596665	
17.1	-0.138	0.07537416720826368	
17.105	-0.158	0.08054375671955719	
17.11	0.531	0.08799853601687518	
17.115	0.073	0.09682797714974054	
17.12	-0.275	0.09994625098755583	
17.125	0.313	0.10059564348096986	
17.13	0.348	0.100525757341422	
17.135	-0.266	0.0999982907358496	
17.14	-0.009	0.0960967652384587	
17.145	0.504	0.08808675403593341	
17.15	-0.136	0.08245577008354057	
17.155	-0.167	0.08242321515261167	
17.16	0.512	0.0839874522797576	
17.165	0.033	0.08695096604162028	
17.17	-0.284	0.08488806916107916	
17.175	0.296	0.08151136425011496	
17.18	0.374	0.08263569387080212	
17.185	-0.254	0.08802819901239367	
17.19	0.039	0.09397866152756854	
17.195	0.557	0.09912558576343944	
17.2	-0.133	0.10455052157593918	
17.205	-0.190	0.10732063898992869	
17.21	0.434	0.10092965203596005	
17.215	-0.026	0.0860716487327631	
17.22	-0.315	0.06387621989162143	
17.225	0.217	0.045403234915745605	
17.23	0.263	0.03271513513898026	
17.235	-0.306	0.02308784575101915	
17.24	-0.089	0.01886488163453513	
17.245	0.365	0.009137821388025475	
17.25	-0.205	-0.0023532663956122124	
17.255	-0.231	-0.006745480466120335	
17.26	0.434	-0.0020838996008389183	
17.265	-0.037	0.005171268393214077	
17.27	-0.352	0.005811428688615349	
17.275	0.227	0.00633746226509982	
17.28	0.324	0.011833510634651502	
17.285	-0.265	0.024076902753678738	
17.29	0.088	0.04375101041138587	
17.295	0.797	0.08025379179594229	
17.3	0.145	0.14274329482200618	
17.305	0.142	0.21709219276105812	
17.31	0.880	0.2908845844721599	
17.315	0.192	0.34632658903390595	
17.32	-0.390	0.34770087241319303	
17.325	-0.118	0.27712006653362264	
17.33	-0.150	0.14194763057600748	
17.335	-0.576	-0.013800328365642297	
17.34	-0.323	-0.13839253530011617	
17.345	0.032	-0.2277468125183718	
17.35	-0.323	-0.2811102342114852	
