Vernier Format 2
ecg5.txt 10/20/2025 9:18:38
Run 1
Time	Potential	EKG	
T	P	E	
s	mV	mV	

0.000	0.156	0.007	
0.005	0.151	0.031	
0.010	0.046	0.060	
0.015	0.102	0.079	
0.020	0.046	0.087	
0.025	-0.049	0.082	
0.030	-0.089	0.058	
0.035	-0.104	0.020	
0.040	-0.109	-0.021	
0.045	-0.121	-0.058	
0.050	-0.162	-0.089	
0.055	-0.118	-0.114	
0.060	-0.064	-0.126	
0.065	-0.054	-0.123	
0.070	0.055	-0.104	
0.075	0.064	-0.070	
0.080	0.128	-0.026	
0.085	0.261	0.027	
0.090	0.250	0.090	
0.095	0.270	0.152	
0.100	0.345	0.207	
0.105	0.464	0.261	
0.110	0.453	0.319	
0.115	0.403	0.371	
0.120	0.484	0.408	
0.125	0.501	0.438	
0.130	0.576	0.466	
0.135	0.686	0.502	
0.140	0.762	0.552	
0.145	0.699	0.609	
0.150	0.675	0.656	
0.155	0.638	0.681	
0.160	0.542	0.683	
0.165	0.560	0.664	
0.170	0.635	0.637	
0.175	0.634	0.621	
0.180	0.589	0.613	
0.185	0.492	0.602	
0.190	0.478	0.580	
0.195	0.553	0.555	
0.200	0.634	0.542	
0.205	0.684	0.551	
0.210	0.722	0.580	
0.215	0.715	0.618	
0.220	0.745	0.656	
0.225	0.712	0.689	
0.230	0.803	0.715	
0.235	0.930	0.745	
0.240	1.002	0.792	
0.245	0.831	0.842	
0.250	0.481	0.857	
0.255	0.142	0.795	
0.260	-0.048	0.651	
0.265	-0.032	0.461	
0.270	0.088	0.281	
0.275	0.258	0.159	
0.280	0.585	0.125	
0.285	0.842	0.190	
0.290	0.990	0.337	
0.295	1.061	0.526	
0.300	1.115	0.717	
0.305	1.010	0.877	
0.310	0.965	0.983	
0.315	0.909	1.031	
0.320	0.858	1.033	
0.325	0.867	1.004	
0.330	0.846	0.963	
0.335	0.872	0.924	
0.340	0.892	0.895	
0.345	1.017	0.885	
0.350	1.104	0.902	
0.355	1.087	0.944	
0.360	1.026	0.988	
0.365	1.042	1.021	
0.370	1.135	1.044	
0.375	1.158	1.069	
0.380	1.202	1.099	
0.385	1.179	1.129	
0.390	1.231	1.157	
0.395	1.269	1.184	
0.400	1.165	1.206	
0.405	1.031	1.208	
0.410	0.906	1.177	
0.415	0.788	1.112	
0.420	0.602	1.017	
0.425	0.408	0.893	
0.430	0.366	0.750	
0.435	0.241	0.605	
0.440	0.036	0.463	
0.445	0.007	0.322	
0.450	-0.011	0.195	
0.455	-0.003	0.096	
0.460	0.033	0.030	
0.465	0.041	-0.003	
0.470	0.067	-0.010	
0.475	0.082	-0.000	
0.480	0.020	0.016	
0.485	-0.066	0.024	
0.490	-0.118	0.013	
0.495	-0.100	-0.014	
0.500	-0.098	-0.043	
0.505	-0.101	-0.068	
0.510	-0.060	-0.084	
0.515	-0.057	-0.090	
0.520	-0.055	-0.086	
0.525	-0.049	-0.079	
0.530	-0.046	-0.070	
0.535	-0.031	-0.060	
0.540	-0.081	-0.053	
0.545	-0.075	-0.052	
0.550	-0.119	-0.058	
0.555	-0.116	-0.071	
0.560	-0.141	-0.086	
0.565	-0.208	-0.106	
0.570	-0.223	-0.132	
0.575	-0.269	-0.163	
0.580	-0.262	-0.196	
0.585	-0.219	-0.222	
0.590	-0.207	-0.236	
0.595	-0.199	-0.237	
0.600	-0.200	-0.232	
0.605	-0.219	-0.224	
0.610	-0.184	-0.216	
0.615	-0.145	-0.207	
0.620	-0.078	-0.189	
0.625	-0.042	-0.162	
0.630	0.015	-0.125	
0.635	-0.032	-0.086	
0.640	-0.196	-0.062	
0.645	-0.355	-0.075	
0.650	-0.471	-0.131	
0.655	-0.521	-0.218	
0.660	-0.501	-0.314	
0.665	-0.428	-0.393	
0.670	-0.301	-0.436	
0.675	-0.139	-0.430	
0.680	0.142	-0.369	
0.685	0.936	-0.220	
0.690	1.778	0.068	
0.695	2.458	0.518	
0.700	2.744	1.079	
0.705	2.965	1.659	
0.710	3.083	2.181	
0.715	2.909	2.590	
0.720	2.501	2.839	
0.725	2.085	2.899	
0.730	1.793	2.784	
0.735	1.546	2.547	
0.740	1.332	2.247	
0.745	1.243	1.936	
0.750	1.133	1.655	
0.755	1.087	1.423	
0.760	1.039	1.247	
0.765	0.973	1.121	
0.770	0.936	1.033	
0.775	0.898	0.972	
0.780	0.880	0.929	
0.785	0.710	0.892	
0.790	0.574	0.842	
0.795	0.446	0.768	
0.800	0.096	0.662	
0.805	-0.089	0.513	
0.810	-0.164	0.334	
0.815	-0.254	0.153	
0.820	-0.306	-0.009	
0.825	-0.326	-0.142	
0.830	-0.315	-0.240	
0.835	-0.376	-0.305	
0.840	-0.405	-0.349	
0.845	-0.425	-0.380	
0.850	-0.457	-0.405	
0.855	-0.475	-0.426	
0.860	-0.474	-0.444	
0.865	-0.468	-0.459	
0.870	-0.454	-0.467	
0.875	-0.423	-0.468	
0.880	-0.457	-0.463	
0.885	-0.512	-0.461	
0.890	-0.503	-0.466	
0.895	-0.445	-0.473	
0.900	-0.449	-0.474	
0.905	-0.425	-0.469	
0.910	-0.402	-0.458	
0.915	-0.430	-0.445	
0.920	-0.469	-0.436	
0.925	-0.451	-0.435	
0.930	-0.404	-0.436	
0.935	-0.462	-0.436	
0.940	-0.489	-0.439	
0.945	-0.449	-0.446	
0.950	-0.475	-0.454	
0.955	-0.514	-0.462	
0.960	-0.523	-0.474	
0.965	-0.533	-0.489	
0.970	-0.523	-0.504	
0.975	-0.527	-0.515	
0.980	-0.509	-0.522	
0.985	-0.477	-0.522	
0.990	-0.488	-0.516	
0.995	-0.460	-0.506	
1.000	-0.433	-0.493	
1.005	-0.425	-0.476	
1.010	-0.378	-0.456	
1.015	-0.341	-0.433	
1.020	-0.304	-0.404	
1.025	-0.269	-0.372	
1.030	-0.297	-0.340	
1.035	-0.469	-0.323	
1.040	-0.680	-0.343	
1.045	-0.734	-0.408	
1.050	-0.727	-0.497	
1.055	-0.665	-0.581	
1.060	-0.471	-0.632	
1.065	-0.272	-0.627	
1.070	-0.147	-0.562	
1.075	-0.045	-0.455	
1.080	0.056	-0.326	
1.085	0.020	-0.199	
1.090	-0.016	-0.096	
1.095	0.062	-0.025	
1.100	0.059	0.022	
1.105	0.143	0.056	
1.110	0.244	0.090	
1.115	0.233	0.130	
1.120	0.235	0.169	
1.125	0.282	0.203	
1.130	0.293	0.232	
1.135	0.250	0.255	
1.140	0.284	0.270	
1.145	0.427	0.284	
1.150	0.409	0.310	
1.155	0.391	0.341	
1.160	0.450	0.369	
1.165	0.446	0.395	
1.170	0.431	0.417	
1.175	0.385	0.428	
1.180	0.450	0.431	
1.185	0.379	0.430	
1.190	0.244	0.417	
1.195	0.191	0.382	
1.200	0.055	0.326	
1.205	-0.023	0.251	
1.210	-0.064	0.165	
1.215	-0.116	0.080	
1.220	-0.164	0.002	
1.225	-0.152	-0.064	
1.230	-0.176	-0.114	
1.235	-0.219	-0.151	
1.240	-0.248	-0.181	
1.245	-0.229	-0.206	
1.250	-0.188	-0.222	
1.255	-0.152	-0.223	
1.260	-0.107	-0.210	
1.265	-0.112	-0.187	
1.270	-0.104	-0.162	
1.275	-0.055	-0.136	
1.280	-0.048	-0.111	
1.285	-0.092	-0.089	
1.290	-0.103	-0.077	
1.295	-0.083	-0.075	
1.300	-0.054	-0.075	
1.305	-0.008	-0.070	
1.310	0.036	-0.056	
1.315	-0.016	-0.037	
1.320	-0.046	-0.022	
1.325	-0.071	-0.019	
1.330	-0.049	-0.025	
1.335	-0.037	-0.033	
1.340	-0.081	-0.040	
1.345	-0.097	-0.050	
1.350	-0.202	-0.067	
1.355	-0.217	-0.097	
1.360	-0.171	-0.131	
1.365	-0.147	-0.156	
1.370	-0.124	-0.167	
1.375	-0.142	-0.166	
1.380	-0.133	-0.160	
1.385	-0.152	-0.153	
1.390	-0.119	-0.148	
1.395	-0.100	-0.140	
1.400	-0.158	-0.132	
1.405	-0.130	-0.129	
1.410	-0.052	-0.126	
1.415	0.062	-0.109	
1.420	0.159	-0.070	
1.425	0.036	-0.018	
1.430	-0.236	0.010	
1.435	-0.506	-0.021	
1.440	-0.605	-0.118	
1.445	-0.555	-0.249	
1.450	-0.477	-0.368	
1.455	-0.280	-0.442	
1.460	-0.035	-0.446	
1.465	0.146	-0.375	
1.470	0.197	-0.250	
1.475	0.281	-0.104	
1.480	0.252	0.033	
1.485	0.149	0.138	
1.490	0.149	0.196	
1.495	0.377	0.227	
1.500	0.447	0.262	
1.505	0.484	0.312	
1.510	0.512	0.368	
1.515	0.507	0.421	
1.520	0.545	0.464	
1.525	0.597	0.501	
1.530	0.640	0.537	
1.535	0.634	0.571	
1.540	0.673	0.602	
1.545	0.750	0.631	
1.550	0.719	0.663	
1.555	0.805	0.694	
1.560	0.867	0.729	
1.565	0.829	0.767	
1.570	0.748	0.795	
1.575	0.568	0.796	
1.580	0.343	0.752	
1.585	0.191	0.658	
1.590	0.191	0.533	
1.595	0.084	0.403	
1.600	-0.054	0.279	
1.605	-0.086	0.162	
1.610	-0.095	0.059	
1.615	-0.122	-0.021	
1.620	-0.199	-0.081	
1.625	-0.210	-0.129	
1.630	-0.193	-0.167	
1.635	-0.211	-0.191	
1.640	-0.199	-0.206	
1.645	-0.136	-0.209	
1.650	-0.150	-0.201	
1.655	-0.167	-0.188	
1.660	-0.171	-0.177	
1.665	-0.177	-0.170	
1.670	-0.187	-0.169	
1.675	-0.152	-0.169	
1.680	-0.107	-0.166	
1.685	-0.133	-0.156	
1.690	-0.126	-0.146	
1.695	-0.087	-0.136	
1.700	-0.115	-0.125	
1.705	-0.071	-0.114	
1.710	-0.068	-0.103	
1.715	-0.080	-0.092	
1.720	-0.046	-0.082	
1.725	-0.061	-0.072	
1.730	-0.037	-0.064	
1.735	-0.080	-0.058	
1.740	-0.156	-0.061	
1.745	-0.184	-0.077	
1.750	-0.202	-0.105	
1.755	-0.205	-0.135	
1.760	-0.249	-0.165	
1.765	-0.263	-0.194	
1.770	-0.277	-0.221	
1.775	-0.269	-0.243	
1.780	-0.271	-0.260	
1.785	-0.344	-0.273	
1.790	-0.449	-0.294	
1.795	-0.483	-0.330	
1.800	-0.477	-0.374	
1.805	-0.365	-0.410	
1.810	-0.284	-0.421	
1.815	-0.271	-0.404	
1.820	-0.361	-0.376	
1.825	-0.575	-0.365	
1.830	-0.770	-0.398	
1.835	-0.850	-0.477	
1.840	-0.848	-0.581	
1.845	-0.766	-0.678	
1.850	-0.624	-0.739	
1.855	-0.463	-0.747	
1.860	-0.298	-0.698	
1.865	-0.177	-0.602	
1.870	-0.135	-0.481	
1.875	-0.084	-0.356	
1.880	-0.019	-0.244	
1.885	-0.087	-0.154	
1.890	-0.103	-0.095	
1.895	0.012	-0.061	
1.900	0.079	-0.033	
1.905	0.197	0.004	
1.910	0.342	0.059	
1.915	0.325	0.130	
1.920	0.339	0.203	
1.925	0.385	0.265	
1.930	0.438	0.318	
1.935	0.411	0.363	
1.940	0.447	0.396	
1.945	0.486	0.422	
1.950	0.594	0.450	
1.955	0.741	0.492	
1.960	0.840	0.556	
1.965	0.797	0.634	
1.970	0.817	0.705	
1.975	0.828	0.760	
1.980	0.754	0.796	
1.985	0.559	0.800	
1.990	0.403	0.760	
1.995	0.447	0.683	
2.000	0.447	0.600	
2.005	0.421	0.530	
2.010	0.400	0.475	
2.015	0.325	0.432	
2.020	0.244	0.391	
2.025	0.198	0.345	
2.030	0.284	0.302	
2.035	0.208	0.270	
2.040	0.156	0.243	
2.045	0.273	0.222	
2.050	0.236	0.214	
2.055	0.191	0.214	
2.060	0.261	0.215	
2.065	0.247	0.220	
2.070	0.217	0.227	
2.075	0.180	0.228	
2.080	0.191	0.222	
2.085	0.125	0.210	
2.090	0.133	0.191	
2.095	0.188	0.174	
2.100	0.172	0.164	
2.105	0.178	0.162	
2.110	0.056	0.158	
2.115	-0.136	0.134	
2.120	-0.283	0.075	
2.125	-0.344	-0.017	
2.130	-0.517	-0.127	
2.135	-0.611	-0.250	
2.140	-0.662	-0.375	
2.145	-0.619	-0.485	
2.150	-0.637	-0.567	
2.155	-0.657	-0.620	
2.160	-0.631	-0.651	
2.165	-0.628	-0.664	
2.170	-0.663	-0.665	
2.175	-0.671	-0.664	
2.180	-0.631	-0.663	
2.185	-0.648	-0.659	
2.190	-0.601	-0.652	
2.195	-0.457	-0.635	
2.200	-0.356	-0.595	
2.205	-0.236	-0.531	
2.210	-0.162	-0.447	
2.215	-0.225	-0.359	
2.220	-0.390	-0.296	
2.225	-0.474	-0.279	
2.230	-0.478	-0.302	
2.235	-0.480	-0.346	
2.240	-0.402	-0.389	
2.245	-0.223	-0.408	
2.250	-0.031	-0.382	
2.255	0.226	-0.302	
2.260	0.537	-0.163	
2.265	0.666	0.027	
2.270	0.870	0.241	
2.275	1.165	0.467	
2.280	1.101	0.690	
2.285	0.869	0.868	
2.290	0.835	0.965	
2.295	0.777	0.988	
2.300	0.620	0.955	
2.305	0.533	0.881	
2.310	0.580	0.786	
2.315	0.673	0.704	
2.320	0.713	0.655	
2.325	0.774	0.643	
2.330	0.869	0.663	
2.335	0.903	0.708	
2.340	0.953	0.767	
2.345	0.990	0.829	
2.350	0.947	0.886	
2.355	0.922	0.926	
2.360	0.955	0.948	
2.365	0.855	0.954	
2.370	0.710	0.936	
2.375	0.623	0.889	
2.380	0.560	0.817	
2.385	0.365	0.729	
2.390	0.324	0.625	
2.395	0.343	0.521	
2.400	0.250	0.432	
2.405	0.212	0.357	
2.410	0.201	0.295	
2.415	0.140	0.245	
2.420	0.110	0.202	
2.425	0.110	0.166	
2.430	0.171	0.140	
2.435	0.154	0.130	
2.440	0.097	0.127	
2.445	0.163	0.126	
2.450	0.247	0.133	
2.455	0.334	0.158	
2.460	0.461	0.204	
2.465	0.518	0.271	
2.470	0.597	0.351	
2.475	1.029	0.452	
2.480	1.459	0.608	
2.485	1.780	0.836	
2.490	2.032	1.120	
2.495	2.218	1.424	
2.500	2.210	1.712	
2.505	2.206	1.945	
2.510	2.326	2.114	
2.515	2.223	2.226	
2.520	2.003	2.275	
2.525	1.770	2.248	
2.530	1.553	2.148	
2.535	1.431	1.993	
2.540	1.396	1.817	
2.545	1.358	1.653	
2.550	1.219	1.513	
2.555	1.103	1.391	
2.560	1.069	1.282	
2.565	0.901	1.182	
2.570	0.741	1.082	
2.575	0.603	0.971	
2.580	0.492	0.849	
2.585	0.426	0.726	
2.590	0.374	0.610	
2.595	0.360	0.512	
2.600	0.296	0.433	
2.605	0.093	0.363	
2.610	-0.177	0.275	
2.615	-0.393	0.151	
2.620	-0.509	-0.006	
2.625	-0.558	-0.173	
2.630	-0.511	-0.321	
2.635	-0.417	-0.427	
2.640	-0.317	-0.477	
2.645	-0.181	-0.470	
2.650	-0.109	-0.417	
2.655	-0.045	-0.334	
2.660	-0.016	-0.241	
2.665	-0.022	-0.156	
2.670	-0.008	-0.088	
2.675	0.021	-0.039	
2.680	0.075	-0.003	
2.685	0.075	0.027	
2.690	0.067	0.050	
2.695	0.145	0.068	
2.700	0.093	0.085	
2.705	0.085	0.097	
2.710	0.159	0.105	
2.715	0.226	0.118	
2.720	0.223	0.141	
2.725	0.186	0.166	
2.730	0.174	0.183	
2.735	0.127	0.188	
2.740	0.139	0.182	
2.745	0.217	0.174	
2.750	0.156	0.172	
2.755	0.065	0.166	
2.760	0.020	0.147	
2.765	-0.095	0.111	
2.770	-0.119	0.059	
2.775	-0.122	0.002	
2.780	-0.158	-0.051	
2.785	-0.232	-0.098	
2.790	-0.274	-0.145	
2.795	-0.287	-0.190	
2.800	-0.336	-0.232	
2.805	-0.338	-0.270	
2.810	-0.333	-0.301	
2.815	-0.355	-0.323	
2.820	-0.384	-0.340	
2.825	-0.388	-0.356	
2.830	-0.367	-0.368	
2.835	-0.390	-0.376	
2.840	-0.402	-0.382	
2.845	-0.307	-0.384	
2.850	-0.307	-0.375	
2.855	-0.269	-0.356	
2.860	-0.240	-0.331	
2.865	-0.312	-0.307	
2.870	-0.327	-0.293	
2.875	-0.292	-0.291	
2.880	-0.254	-0.289	
2.885	-0.271	-0.285	
2.890	-0.258	-0.279	
2.895	-0.231	-0.271	
2.900	-0.289	-0.264	
2.905	-0.333	-0.264	
2.910	-0.338	-0.276	
2.915	-0.430	-0.297	
2.920	-0.422	-0.327	
2.925	-0.388	-0.358	
2.930	-0.393	-0.381	
2.935	-0.428	-0.396	
2.940	-0.382	-0.405	
2.945	-0.318	-0.405	
2.950	-0.333	-0.392	
2.955	-0.321	-0.374	
2.960	-0.272	-0.354	
2.965	-0.287	-0.331	
2.970	-0.313	-0.313	
2.975	-0.257	-0.300	
2.980	-0.188	-0.285	
2.985	-0.126	-0.260	
2.990	-0.089	-0.224	
2.995	-0.161	-0.187	
3.000	-0.420	-0.172	
3.005	-0.616	-0.208	
3.010	-0.692	-0.295	
3.015	-0.692	-0.408	
3.020	-0.631	-0.513	
3.025	-0.480	-0.582	
3.030	-0.272	-0.595	
3.035	-0.129	-0.545	
3.040	-0.037	-0.445	
3.045	0.094	-0.319	
3.050	0.104	-0.187	
3.055	0.117	-0.068	
3.060	0.266	0.031	
3.065	0.319	0.119	
3.070	0.316	0.196	
3.075	0.339	0.257	
3.080	0.337	0.302	
3.085	0.313	0.329	
3.090	0.395	0.344	
3.095	0.432	0.359	
3.100	0.388	0.376	
3.105	0.351	0.387	
3.110	0.394	0.389	
3.115	0.386	0.389	
3.120	0.392	0.389	
3.125	0.508	0.395	
3.130	0.527	0.414	
3.135	0.487	0.442	
3.140	0.475	0.465	
3.145	0.525	0.481	
3.150	0.371	0.488	
3.155	0.145	0.466	
3.160	-0.028	0.399	
3.165	-0.115	0.291	
3.170	-0.168	0.164	
3.175	-0.223	0.041	
3.180	-0.271	-0.068	
3.185	-0.341	-0.160	
3.190	-0.367	-0.237	
3.195	-0.362	-0.297	
3.200	-0.437	-0.343	
3.205	-0.471	-0.380	
3.210	-0.474	-0.414	
3.215	-0.508	-0.443	
3.220	-0.498	-0.468	
3.225	-0.472	-0.484	
3.230	-0.456	-0.491	
3.235	-0.466	-0.489	
3.240	-0.532	-0.486	
3.245	-0.547	-0.491	
3.250	-0.572	-0.504	
3.255	-0.527	-0.520	
3.260	-0.440	-0.527	
3.265	-0.405	-0.517	
3.270	-0.359	-0.491	
3.275	-0.303	-0.453	
3.280	-0.297	-0.409	
3.285	-0.303	-0.367	
3.290	-0.222	-0.331	
3.295	-0.164	-0.294	
3.300	-0.176	-0.255	
3.305	-0.213	-0.222	
3.310	-0.187	-0.202	
3.315	-0.188	-0.190	
3.320	-0.182	-0.183	
3.325	-0.179	-0.180	
3.330	-0.168	-0.178	
3.335	-0.182	-0.176	
3.340	-0.145	-0.174	
3.345	-0.113	-0.168	
3.350	-0.121	-0.157	
3.355	-0.135	-0.145	
3.360	-0.115	-0.136	
3.365	-0.130	-0.129	
3.370	-0.089	-0.123	
3.375	-0.026	-0.113	
3.380	0.064	-0.091	
3.385	0.093	-0.054	
3.390	0.096	-0.010	
3.395	-0.060	0.024	
3.400	-0.324	0.020	
3.405	-0.520	-0.042	
3.410	-0.601	-0.156	
3.415	-0.616	-0.290	
3.420	-0.524	-0.412	
3.425	-0.401	-0.491	
3.430	-0.202	-0.510	
3.435	-0.077	-0.465	
3.440	0.013	-0.374	
3.445	0.180	-0.253	
3.450	0.204	-0.121	
3.455	0.223	0.004	
3.460	0.282	0.108	
3.465	0.348	0.191	
3.470	0.432	0.262	
3.475	0.507	0.328	
3.480	0.505	0.390	
3.485	0.492	0.441	
3.490	0.495	0.476	
3.495	0.599	0.502	
3.500	0.516	0.523	
3.505	0.389	0.531	
3.510	0.446	0.517	
3.515	0.461	0.495	
3.520	0.534	0.481	
3.525	0.693	0.487	
3.530	0.764	0.525	
3.535	0.728	0.582	
3.540	0.643	0.635	
3.545	0.641	0.667	
3.550	0.605	0.676	
3.555	0.597	0.668	
3.560	0.534	0.649	
3.565	0.360	0.613	
3.570	0.232	0.551	
3.575	0.067	0.460	
3.580	-0.023	0.346	
3.585	-0.060	0.224	
3.590	-0.087	0.112	
3.595	-0.097	0.021	
3.600	-0.135	-0.046	
3.605	-0.135	-0.094	
3.610	-0.089	-0.123	
3.615	-0.115	-0.134	
3.620	-0.104	-0.135	
3.625	-0.058	-0.127	
3.630	-0.063	-0.114	
3.635	-0.084	-0.098	
3.640	0.009	-0.083	
3.645	0.122	-0.057	
3.650	0.107	-0.018	
3.655	0.105	0.025	
3.660	0.197	0.066	
3.665	0.201	0.106	
3.670	0.177	0.142	
3.675	0.194	0.168	
3.680	0.157	0.183	
3.685	0.117	0.185	
3.690	0.102	0.175	
3.695	0.172	0.161	
3.700	0.078	0.148	
3.705	0.036	0.131	
3.710	0.042	0.108	
3.715	0.000	0.082	
3.720	-0.022	0.055	
3.725	-0.042	0.028	
3.730	-0.077	0.001	
3.735	-0.097	-0.026	
3.740	-0.057	-0.049	
3.745	0.000	-0.062	
3.750	-0.040	-0.061	
3.755	-0.089	-0.057	
3.760	-0.048	-0.057	
3.765	-0.058	-0.057	
3.770	-0.083	-0.058	
3.775	-0.048	-0.061	
3.780	-0.071	-0.062	
3.785	-0.055	-0.063	
3.790	0.047	-0.057	
3.795	-0.028	-0.044	
3.800	-0.320	-0.044	
3.805	-0.590	-0.094	
3.810	-0.702	-0.203	
3.815	-0.747	-0.345	
3.820	-0.811	-0.490	
3.825	-0.790	-0.617	
3.830	-0.665	-0.707	
3.835	-0.569	-0.744	
3.840	-0.550	-0.734	
3.845	-0.486	-0.693	
3.850	-0.517	-0.639	
3.855	-0.587	-0.592	
3.860	-0.569	-0.563	
3.865	-0.584	-0.552	
3.870	-0.541	-0.550	
3.875	-0.433	-0.544	
3.880	-0.446	-0.526	
3.885	-0.407	-0.500	
3.890	-0.352	-0.470	
3.895	-0.291	-0.432	
3.900	-0.317	-0.392	
3.905	-0.362	-0.359	
3.910	-0.364	-0.341	
3.915	-0.373	-0.337	
3.920	-0.313	-0.339	
3.925	-0.258	-0.335	
3.930	-0.211	-0.319	
3.935	-0.141	-0.291	
3.940	-0.116	-0.251	
3.945	-0.068	-0.206	
3.950	-0.081	-0.161	
3.955	-0.098	-0.124	
3.960	-0.063	-0.099	
3.965	-0.130	-0.085	
3.970	-0.165	-0.084	
3.975	-0.187	-0.099	
3.980	-0.181	-0.121	
3.985	-0.171	-0.142	
3.990	-0.240	-0.162	
3.995	-0.266	-0.184	
4.000	-0.274	-0.209	
4.005	-0.274	-0.233	
4.010	-0.320	-0.255	
4.015	-0.303	-0.274	
4.020	-0.234	-0.287	
4.025	-0.258	-0.287	
4.030	-0.286	-0.283	
4.035	-0.310	-0.281	
4.040	-0.249	-0.281	
4.045	-0.196	-0.276	
4.050	-0.194	-0.261	
4.055	-0.122	-0.238	
4.060	-0.019	-0.204	
4.065	0.000	-0.157	
4.070	0.072	-0.102	
4.075	0.166	-0.042	
4.080	0.243	0.025	
4.085	0.253	0.095	
4.090	0.278	0.159	
4.095	0.363	0.216	
4.100	0.414	0.269	
4.105	0.400	0.319	
4.110	0.466	0.362	
4.115	0.470	0.400	
4.120	0.516	0.433	
4.125	0.541	0.464	
4.130	0.547	0.492	
4.135	0.556	0.516	
4.140	0.568	0.536	
4.145	0.594	0.552	
4.150	0.574	0.565	
4.155	0.628	0.577	
4.160	0.707	0.593	
4.165	0.735	0.620	
4.170	0.754	0.654	
4.175	0.764	0.689	
4.180	0.819	0.722	
4.185	0.929	0.758	
4.190	1.028	0.807	
4.195	1.091	0.870	
4.200	0.877	0.929	
4.205	0.576	0.945	
4.210	0.414	0.890	
4.215	0.362	0.781	
4.220	0.501	0.658	
4.225	0.822	0.578	
4.230	1.104	0.581	
4.235	1.228	0.672	
4.240	1.459	0.824	
4.245	1.729	1.018	
4.250	1.769	1.234	
4.255	1.688	1.433	
4.260	1.677	1.581	
4.265	1.566	1.667	
4.270	1.474	1.692	
4.275	1.476	1.668	
4.280	1.393	1.617	
4.285	1.307	1.550	
4.290	1.253	1.474	
4.295	1.210	1.396	
4.300	1.142	1.323	
4.305	1.173	1.257	
4.310	1.248	1.212	
4.315	1.220	1.191	
4.320	1.188	1.187	
4.325	1.165	1.185	
4.330	1.034	1.175	
4.335	0.973	1.148	
4.340	0.952	1.104	
4.345	0.938	1.055	
4.350	0.814	1.004	
4.355	0.721	0.945	
4.360	0.745	0.880	
4.365	0.571	0.814	
4.370	0.513	0.742	
4.375	0.539	0.669	
4.380	0.482	0.605	
4.385	0.322	0.546	
4.390	0.241	0.479	
4.395	0.255	0.407	
4.400	0.208	0.340	
4.405	0.146	0.283	
4.410	0.114	0.230	
4.415	0.039	0.181	
4.420	0.023	0.134	
4.425	0.107	0.094	
4.430	0.068	0.072	
4.435	0.036	0.060	
4.440	0.041	0.052	
4.445	0.166	0.051	
4.450	0.142	0.065	
4.455	0.163	0.088	
4.460	0.252	0.117	
4.465	0.156	0.147	
4.470	0.124	0.166	
4.475	0.127	0.170	
4.480	0.128	0.163	
4.485	0.097	0.152	
4.490	0.024	0.135	
4.495	-0.003	0.108	
4.500	-0.038	0.074	
4.505	-0.089	0.035	
4.510	-0.086	-0.004	
4.515	-0.133	-0.041	
4.520	-0.159	-0.075	
4.525	-0.116	-0.104	
4.530	-0.089	-0.121	
4.535	-0.106	-0.126	
4.540	-0.130	-0.125	
4.545	-0.136	-0.124	
4.550	-0.161	-0.127	
4.555	-0.153	-0.133	
4.560	-0.133	-0.139	
4.565	-0.127	-0.142	
4.570	-0.132	-0.141	
4.575	-0.068	-0.135	
4.580	-0.002	-0.120	
4.585	-0.034	-0.095	
4.590	-0.060	-0.072	
4.595	-0.164	-0.061	
4.600	-0.349	-0.079	
4.605	-0.488	-0.135	
4.610	-0.483	-0.221	
4.615	-0.495	-0.313	
4.620	-0.488	-0.390	
4.625	-0.379	-0.442	
4.630	-0.329	-0.458	
4.635	-0.254	-0.441	
4.640	-0.171	-0.398	
4.645	-0.110	-0.336	
4.650	-0.092	-0.266	
4.655	-0.043	-0.198	
4.660	-0.009	-0.136	
4.665	-0.074	-0.087	
4.670	-0.103	-0.059	
4.675	-0.107	-0.052	
4.680	-0.135	-0.060	
4.685	-0.155	-0.077	
4.690	-0.121	-0.097	
4.695	-0.066	-0.111	
4.700	-0.116	-0.114	
4.705	-0.115	-0.114	
4.710	-0.126	-0.114	
4.715	-0.100	-0.115	
4.720	-0.051	-0.111	
4.725	0.050	-0.096	
4.730	0.087	-0.064	
4.735	0.062	-0.024	
4.740	0.044	0.012	
4.745	0.097	0.039	
4.750	-0.005	0.056	
4.755	-0.032	0.057	
4.760	-0.011	0.043	
4.765	-0.057	0.023	
4.770	-0.095	-0.001	
4.775	-0.072	-0.028	
4.780	-0.060	-0.049	
4.785	-0.106	-0.065	
4.790	-0.187	-0.081	
4.795	-0.222	-0.107	
4.800	-0.248	-0.140	
4.805	-0.258	-0.176	
4.810	-0.228	-0.207	
4.815	-0.213	-0.226	
4.820	-0.171	-0.232	
4.825	-0.116	-0.223	
4.830	-0.106	-0.201	
4.835	-0.110	-0.174	
4.840	-0.100	-0.147	
4.845	-0.072	-0.125	
4.850	-0.071	-0.105	
4.855	-0.042	-0.088	
4.860	-0.019	-0.071	
4.865	-0.100	-0.058	
4.870	-0.145	-0.058	
4.875	0.079	-0.061	
4.880	1.025	-0.004	
4.885	1.694	0.202	
4.890	2.018	0.562	
4.895	2.048	0.994	
4.900	1.864	1.392	
4.905	1.729	1.676	
4.910	1.608	1.827	
4.915	1.408	1.857	
4.920	1.254	1.791	
4.925	1.086	1.659	
4.930	0.889	1.487	
4.935	0.779	1.296	
4.940	0.806	1.113	
4.945	0.809	0.965	
4.950	0.640	0.856	
4.955	0.510	0.764	
4.960	0.516	0.678	
4.965	0.481	0.604	
4.970	0.409	0.543	
4.975	0.411	0.492	
4.980	0.279	0.446	
4.985	-0.060	0.383	
4.990	-0.335	0.273	
4.995	-0.515	0.111	
5.000	-0.596	-0.079	
5.005	-0.564	-0.263	
5.010	-0.439	-0.405	
5.015	-0.338	-0.482	
5.020	-0.200	-0.491	
5.025	-0.092	-0.444	
5.030	-0.034	-0.358	
5.035	-0.022	-0.258	
5.040	0.006	-0.164	
5.045	0.088	-0.084	
5.050	0.226	-0.011	
5.055	0.347	0.068	
5.060	0.415	0.156	
5.065	0.350	0.241	
5.070	0.308	0.304	
5.075	0.302	0.337	
5.080	0.293	0.347	
5.085	0.185	0.337	
5.090	0.104	0.306	
5.095	0.125	0.257	
5.100	0.117	0.208	
5.105	0.160	0.169	
5.110	0.258	0.151	
5.115	0.261	0.157	
5.120	0.275	0.180	
5.125	0.305	0.210	
5.130	0.198	0.235	
5.135	0.070	0.240	
5.140	0.032	0.215	
5.145	-0.014	0.169	
5.150	-0.089	0.111	
5.155	-0.141	0.047	
5.160	-0.161	-0.018	
5.165	-0.242	-0.079	
5.170	-0.295	-0.138	
5.175	-0.309	-0.194	
5.180	-0.376	-0.245	
5.185	-0.385	-0.292	
5.190	-0.394	-0.332	
5.195	-0.405	-0.363	
5.200	-0.423	-0.387	
5.205	-0.420	-0.404	
5.210	-0.355	-0.413	
5.215	-0.338	-0.409	
5.220	-0.323	-0.394	
5.225	-0.268	-0.371	
5.230	-0.266	-0.344	
5.235	-0.269	-0.316	
5.240	-0.262	-0.293	
5.245	-0.234	-0.275	
5.250	-0.240	-0.260	
5.255	-0.211	-0.248	
5.260	-0.188	-0.235	
5.265	-0.269	-0.225	
5.270	-0.289	-0.225	
5.275	-0.284	-0.236	
5.280	-0.320	-0.252	
5.285	-0.347	-0.272	
5.290	-0.356	-0.295	
5.295	-0.339	-0.316	
5.300	-0.341	-0.332	
5.305	-0.338	-0.341	
5.310	-0.291	-0.343	
5.315	-0.342	-0.339	
5.320	-0.384	-0.337	
5.325	-0.339	-0.341	
5.330	-0.326	-0.344	
5.335	-0.307	-0.342	
5.340	-0.272	-0.334	
5.345	-0.232	-0.318	
5.350	-0.236	-0.297	
5.355	-0.176	-0.272	
5.360	-0.095	-0.241	
5.365	-0.080	-0.202	
5.370	-0.074	-0.161	
5.375	-0.161	-0.129	
5.380	-0.408	-0.126	
5.385	-0.616	-0.175	
5.390	-0.700	-0.275	
5.395	-0.666	-0.397	
5.400	-0.540	-0.502	
5.405	-0.336	-0.558	
5.410	-0.106	-0.543	
5.415	0.024	-0.459	
5.420	0.140	-0.330	
5.425	0.236	-0.180	
5.430	0.285	-0.032	
5.435	0.327	0.099	
5.440	0.440	0.209	
5.445	0.476	0.302	
5.450	0.363	0.373	
5.455	0.285	0.408	
5.460	0.342	0.409	
5.465	0.392	0.396	
5.470	0.473	0.391	
5.475	0.530	0.402	
5.480	0.551	0.430	
5.485	0.588	0.467	
5.490	0.634	0.507	
5.495	0.649	0.549	
5.500	0.588	0.585	
5.505	0.635	0.608	
5.510	0.739	0.627	
5.515	0.621	0.647	
5.520	0.499	0.652	
5.525	0.429	0.628	
5.530	0.379	0.581	
5.535	0.214	0.515	
5.540	0.093	0.429	
5.545	0.006	0.326	
5.550	-0.052	0.218	
5.555	-0.106	0.115	
5.560	-0.116	0.026	
5.565	-0.142	-0.045	
5.570	-0.159	-0.098	
5.575	-0.168	-0.134	
5.580	-0.223	-0.161	
5.585	-0.280	-0.185	
5.590	-0.318	-0.214	
5.595	-0.291	-0.244	
5.600	-0.329	-0.271	
5.605	-0.347	-0.294	
5.610	-0.347	-0.314	
5.615	-0.390	-0.332	
5.620	-0.459	-0.353	
5.625	-0.517	-0.382	
5.630	-0.543	-0.420	
5.635	-0.540	-0.460	
5.640	-0.543	-0.494	
5.645	-0.485	-0.517	
5.650	-0.472	-0.525	
5.655	-0.456	-0.519	
5.660	-0.420	-0.503	
5.665	-0.425	-0.482	
5.670	-0.428	-0.461	
5.675	-0.428	-0.444	
5.680	-0.439	-0.434	
5.685	-0.451	-0.430	
5.690	-0.457	-0.431	
5.695	-0.472	-0.437	
5.700	-0.463	-0.445	
5.705	-0.440	-0.452	
5.710	-0.436	-0.454	
5.715	-0.489	-0.454	
5.720	-0.509	-0.459	
5.725	-0.544	-0.472	
5.730	-0.587	-0.491	
5.735	-0.581	-0.517	
5.740	-0.553	-0.540	
5.745	-0.486	-0.552	
5.750	-0.477	-0.548	
5.755	-0.443	-0.532	
5.760	-0.359	-0.506	
5.765	-0.475	-0.475	
5.770	-0.689	-0.464	
5.775	-0.795	-0.496	
5.780	-0.818	-0.562	
5.785	-0.720	-0.637	
5.790	-0.578	-0.687	
5.795	-0.402	-0.690	
5.800	-0.229	-0.638	
5.805	0.012	-0.534	
5.810	0.293	-0.380	
5.815	0.350	-0.191	
5.820	0.288	-0.003	
5.825	0.178	0.140	
5.830	0.185	0.224	
5.835	0.418	0.268	
5.840	0.631	0.316	
5.845	0.825	0.397	
5.850	0.739	0.503	
5.855	0.758	0.604	
5.860	0.904	0.687	
5.865	0.872	0.760	
5.870	0.855	0.817	
5.875	0.918	0.856	
5.880	0.898	0.883	
5.885	0.892	0.899	
5.890	0.973	0.910	
5.895	1.013	0.925	
5.900	1.043	0.948	
5.905	1.075	0.977	
5.910	1.063	1.007	
5.915	0.906	1.026	
5.920	0.730	1.012	
5.925	0.629	0.957	
5.930	0.493	0.867	
5.935	0.292	0.751	
5.940	0.163	0.613	
5.945	-0.066	0.457	
5.950	-0.398	0.279	
5.955	-0.592	0.073	
5.960	-0.669	-0.145	
5.965	-0.741	-0.349	
5.970	-0.758	-0.519	
5.975	-0.743	-0.646	
5.980	-0.700	-0.724	
5.985	-0.660	-0.759	
5.990	-0.624	-0.758	
5.995	-0.573	-0.732	
6.000	-0.537	-0.690	
6.005	-0.445	-0.639	
6.010	-0.375	-0.579	
6.015	-0.387	-0.516	
6.020	-0.373	-0.459	
6.025	-0.262	-0.411	
6.030	-0.196	-0.362	
6.035	-0.124	-0.307	
6.040	-0.032	-0.245	
6.045	0.015	-0.178	
6.050	0.055	-0.109	
6.055	0.017	-0.049	
6.060	0.020	-0.005	
6.065	0.001	0.020	
6.070	0.027	0.031	
6.075	0.124	0.039	
6.080	0.175	0.056	
6.085	0.128	0.082	
6.090	0.110	0.105	
6.095	0.134	0.119	
6.100	0.151	0.128	
6.105	0.252	0.141	
6.110	0.292	0.165	
6.115	0.209	0.194	
6.120	0.152	0.213	
6.125	0.224	0.217	
6.130	0.333	0.222	
6.135	0.446	0.245	
6.140	0.525	0.292	
6.145	0.559	0.356	
6.150	0.330	0.413	
6.155	-0.066	0.418	
6.160	-0.202	0.343	
6.165	-0.283	0.208	
6.170	-0.226	0.057	
6.175	-0.086	-0.065	
6.180	-0.005	-0.132	
6.185	0.197	-0.136	
6.190	0.496	-0.072	
6.195	0.837	0.066	
6.200	1.057	0.271	
6.205	1.162	0.511	
6.210	1.436	0.757	
6.215	1.411	0.990	
6.220	1.344	1.180	
6.225	1.289	1.304	
6.230	1.269	1.364	
6.235	1.256	1.377	
6.240	1.236	1.360	
6.245	1.106	1.324	
6.250	1.005	1.267	
6.255	1.022	1.196	
6.260	1.115	1.133	
6.265	1.065	1.092	
6.270	1.022	1.067	
6.275	1.141	1.054	
6.280	1.060	1.054	
6.285	0.984	1.056	
6.290	0.941	1.045	
6.295	0.935	1.022	
6.300	0.927	0.994	
6.305	0.855	0.966	
6.310	0.800	0.932	
6.315	0.629	0.886	
6.320	0.573	0.821	
6.325	0.544	0.744	
6.330	0.476	0.668	
6.335	0.423	0.596	
6.340	0.366	0.528	
6.345	0.383	0.468	
6.350	0.296	0.419	
6.355	0.201	0.371	
6.360	0.140	0.318	
6.365	0.073	0.259	
6.370	0.125	0.201	
6.375	0.318	0.165	
6.380	0.261	0.164	
6.385	0.233	0.183	
6.390	0.285	0.205	
6.395	0.319	0.230	
6.400	0.221	0.253	
6.405	0.220	0.262	
6.410	0.295	0.263	
6.415	0.301	0.266	
6.420	0.299	0.273	
6.425	0.334	0.283	
6.430	0.287	0.294	
6.435	0.229	0.297	
6.440	0.137	0.285	
6.445	0.117	0.255	
6.450	0.094	0.214	
6.455	0.039	0.171	
6.460	-0.026	0.125	
6.465	-0.078	0.075	
6.470	-0.071	0.025	
6.475	-0.008	-0.015	
6.480	0.015	-0.035	
6.485	0.001	-0.037	
6.490	0.004	-0.031	
6.495	0.056	-0.019	
6.500	0.073	-0.000	
6.505	0.128	0.024	
6.510	0.163	0.054	
6.515	0.156	0.087	
6.520	0.159	0.116	
6.525	0.211	0.141	
6.530	0.128	0.160	
6.535	-0.107	0.156	
6.540	-0.297	0.108	
6.545	-0.384	0.014	
6.550	-0.422	-0.103	
6.555	-0.410	-0.217	
6.560	-0.336	-0.306	
6.565	-0.254	-0.355	
6.570	-0.170	-0.360	
6.575	-0.038	-0.326	
6.580	0.116	-0.254	
6.585	0.224	-0.153	
6.590	0.295	-0.036	
6.595	0.337	0.082	
6.600	0.287	0.183	
6.605	0.224	0.251	
6.610	0.198	0.281	
6.615	0.145	0.279	
6.620	0.116	0.255	
6.625	0.119	0.219	
6.630	0.099	0.181	
6.635	0.093	0.148	
6.640	0.064	0.121	
6.645	0.046	0.097	
6.650	0.061	0.078	
6.655	0.110	0.067	
6.660	0.267	0.074	
6.665	0.233	0.104	
6.670	0.172	0.142	
6.675	0.209	0.171	
6.680	0.096	0.185	
6.685	0.036	0.178	
6.690	0.046	0.152	
6.695	0.042	0.118	
6.700	-0.055	0.084	
6.705	-0.089	0.044	
6.710	-0.113	0.000	
6.715	-0.187	-0.044	
6.720	-0.254	-0.092	
6.725	-0.248	-0.142	
6.730	-0.291	-0.189	
6.735	-0.312	-0.229	
6.740	-0.313	-0.264	
6.745	-0.280	-0.288	
6.750	-0.271	-0.300	
6.755	-0.248	-0.299	
6.760	-0.193	-0.288	
6.765	-0.217	-0.269	
6.770	-0.199	-0.248	
6.775	-0.148	-0.227	
6.780	-0.147	-0.204	
6.785	-0.165	-0.184	
6.790	-0.176	-0.170	
6.795	-0.176	-0.164	
6.800	-0.182	-0.163	
6.805	-0.181	-0.166	
6.810	-0.171	-0.170	
6.815	-0.257	-0.176	
6.820	-0.306	-0.193	
6.825	-0.277	-0.218	
6.830	-0.300	-0.244	
6.835	-0.323	-0.267	
6.840	-0.277	-0.285	
6.845	-0.222	-0.292	
6.850	-0.232	-0.286	
6.855	-0.226	-0.272	
6.860	-0.188	-0.255	
6.865	-0.190	-0.237	
6.870	-0.194	-0.219	
6.875	-0.174	-0.204	
6.880	-0.148	-0.192	
6.885	-0.168	-0.179	
6.890	-0.177	-0.171	
6.895	-0.167	-0.167	
6.900	-0.138	-0.164	
6.905	-0.086	-0.157	
6.910	0.029	-0.137	
6.915	-0.084	-0.108	
6.920	-0.300	-0.093	
6.925	-0.459	-0.122	
6.930	-0.530	-0.194	
6.935	-0.527	-0.288	
6.940	-0.448	-0.375	
6.945	-0.330	-0.429	
6.950	-0.220	-0.438	
6.955	-0.103	-0.402	
6.960	0.078	-0.326	
6.965	0.181	-0.218	
6.970	0.215	-0.094	
6.975	0.350	0.029	
6.980	1.770	0.207	
6.985	2.979	0.574	
6.990	3.081	1.147	
6.995	3.084	1.781	
7.000	2.991	2.329	
7.005	2.710	2.712	
7.010	2.441	2.901	
7.015	2.085	2.904	
7.020	1.815	2.759	
7.025	1.663	2.519	
7.030	1.463	2.241	
7.035	1.329	1.963	
7.040	1.327	1.716	
7.045	1.314	1.522	
7.050	1.223	1.385	
7.055	1.124	1.287	
7.060	1.068	1.211	
7.065	0.878	1.141	
7.070	0.701	1.058	
7.075	0.641	0.957	
7.080	0.450	0.843	
7.085	0.224	0.713	
7.090	0.047	0.561	
7.095	-0.051	0.395	
7.100	-0.144	0.232	
7.105	-0.190	0.084	
7.110	-0.194	-0.037	
7.115	-0.274	-0.129	
7.120	-0.280	-0.198	
7.125	-0.136	-0.240	
7.130	-0.034	-0.243	
7.135	-0.011	-0.210	
7.140	0.026	-0.156	
7.145	0.070	-0.096	
7.150	-0.003	-0.041	
7.155	-0.023	-0.005	
7.160	-0.042	0.010	
7.165	-0.107	0.005	
7.170	-0.162	-0.017	
7.175	-0.121	-0.051	
7.180	-0.132	-0.082	
7.185	-0.182	-0.109	
7.190	-0.161	-0.132	
7.195	-0.176	-0.151	
7.200	-0.245	-0.167	
7.205	-0.234	-0.185	
7.210	-0.229	-0.204	
7.215	-0.272	-0.220	
7.220	-0.292	-0.236	
7.225	-0.298	-0.254	
7.230	-0.341	-0.273	
7.235	-0.379	-0.294	
7.240	-0.371	-0.318	
7.245	-0.341	-0.339	
7.250	-0.373	-0.352	
7.255	-0.378	-0.362	
7.260	-0.356	-0.368	
7.265	-0.388	-0.371	
7.270	-0.361	-0.373	
7.275	-0.303	-0.371	
7.280	-0.297	-0.359	
7.285	-0.268	-0.341	
7.290	-0.249	-0.319	
7.295	-0.344	-0.300	
7.300	-0.556	-0.305	
7.305	-0.740	-0.352	
7.310	-0.801	-0.441	
7.315	-0.775	-0.547	
7.320	-0.659	-0.637	
7.325	-0.449	-0.681	
7.330	-0.269	-0.661	
7.335	-0.190	-0.584	
7.340	-0.141	-0.475	
7.345	-0.098	-0.359	
7.350	-0.095	-0.256	
7.355	-0.057	-0.174	
7.360	0.093	-0.107	
7.365	0.223	-0.038	
7.370	0.264	0.040	
7.375	0.278	0.118	
7.380	0.212	0.183	
7.385	0.238	0.224	
7.390	0.311	0.249	
7.395	0.328	0.270	
7.400	0.337	0.291	
7.405	0.395	0.312	
7.410	0.466	0.338	
7.415	0.398	0.368	
7.420	0.427	0.393	
7.425	0.489	0.413	
7.430	0.464	0.433	
7.435	0.379	0.446	
7.440	0.357	0.442	
7.445	0.385	0.427	
7.450	0.243	0.404	
7.455	0.097	0.363	
7.460	0.065	0.299	
7.465	-0.011	0.222	
7.470	-0.055	0.143	
7.475	-0.063	0.069	
7.480	-0.133	0.006	
7.485	-0.207	-0.051	
7.490	-0.232	-0.106	
7.495	-0.236	-0.155	
7.500	-0.258	-0.195	
7.505	-0.266	-0.226	
7.510	-0.223	-0.246	
7.515	-0.217	-0.253	
7.520	-0.210	-0.250	
7.525	-0.167	-0.240	
7.530	-0.200	-0.224	
7.535	-0.207	-0.211	
7.540	-0.170	-0.202	
7.545	-0.145	-0.192	
7.550	-0.193	-0.182	
7.555	-0.190	-0.177	
7.560	-0.153	-0.175	
7.565	-0.176	-0.173	
7.570	-0.187	-0.172	
7.575	-0.161	-0.172	
7.580	-0.190	-0.173	
7.585	-0.220	-0.176	
7.590	-0.249	-0.186	
7.595	-0.258	-0.202	
7.600	-0.274	-0.220	
7.605	-0.254	-0.237	
7.610	-0.217	-0.248	
7.615	-0.258	-0.251	
7.620	-0.303	-0.254	
7.625	-0.275	-0.262	
7.630	-0.269	-0.269	
7.635	-0.262	-0.272	
7.640	-0.225	-0.270	
7.645	-0.200	-0.262	
7.650	-0.228	-0.249	
7.655	-0.211	-0.236	
7.660	-0.159	-0.224	
7.665	-0.113	-0.206	
7.670	-0.005	-0.177	
7.675	0.084	-0.132	
7.680	-0.187	-0.087	
7.685	-0.504	-0.085	
7.690	-0.709	-0.156	
7.695	-0.735	-0.285	
7.700	-0.657	-0.427	
7.705	-0.504	-0.535	
7.710	-0.315	-0.582	
7.715	-0.145	-0.556	
7.720	0.001	-0.469	
7.725	0.142	-0.339	
7.730	0.142	-0.193	
7.735	0.157	-0.059	
7.740	0.192	0.048	
7.745	0.273	0.129	
7.750	0.316	0.194	
7.755	0.307	0.246	
7.760	0.340	0.285	
7.765	0.310	0.311	
7.770	0.353	0.327	
7.775	0.460	0.343	
7.780	0.443	0.366	
7.785	0.397	0.391	
7.790	0.440	0.408	
7.795	0.492	0.423	
7.800	0.515	0.441	
7.805	0.594	0.467	
7.810	0.672	0.502	
7.815	0.525	0.541	
7.820	0.386	0.557	
7.825	0.426	0.542	
7.830	0.392	0.510	
7.835	0.362	0.472	
7.840	0.299	0.432	
7.845	0.152	0.384	
7.850	-0.048	0.315	
7.855	-0.115	0.220	
7.860	-0.119	0.115	
7.865	-0.190	0.017	
7.870	-0.185	-0.066	
7.875	-0.170	-0.128	
7.880	-0.205	-0.169	
7.885	-0.265	-0.197	
7.890	-0.347	-0.224	
7.895	-0.402	-0.259	
7.900	-0.454	-0.302	
7.905	-0.491	-0.351	
7.910	-0.593	-0.404	
7.915	-0.676	-0.464	
7.920	-0.660	-0.528	
7.925	-0.636	-0.583	
7.930	-0.599	-0.620	
7.935	-0.512	-0.632	
7.940	-0.462	-0.617	
7.945	-0.411	-0.581	
7.950	-0.388	-0.533	
7.955	-0.381	-0.484	
7.960	-0.344	-0.439	
7.965	-0.350	-0.402	
7.970	-0.391	-0.375	
7.975	-0.413	-0.364	
7.980	-0.428	-0.368	
7.985	-0.384	-0.378	
7.990	-0.358	-0.385	
7.995	-0.320	-0.382	
8.000	-0.333	-0.372	
8.005	-0.358	-0.360	
8.010	-0.359	-0.353	
8.015	-0.364	-0.351	
8.020	-0.349	-0.351	
8.025	-0.294	-0.349	
8.030	-0.287	-0.340	
8.035	-0.272	-0.325	
8.040	-0.228	-0.307	
8.045	-0.196	-0.284	
8.050	-0.130	-0.255	
8.055	-0.074	-0.218	
8.060	-0.109	-0.177	
8.065	-0.359	-0.155	
8.070	-0.598	-0.181	
8.075	-0.702	-0.264	
8.080	-0.692	-0.381	
8.085	-0.588	-0.491	
8.090	-0.454	-0.562	
8.095	-0.306	-0.576	
8.100	-0.190	-0.535	
8.105	-0.016	-0.448	
8.110	0.156	-0.326	
8.115	0.177	-0.184	
8.120	0.259	-0.044	
8.125	0.411	0.083	
8.130	0.438	0.201	
8.135	0.533	0.306	
8.140	0.673	0.401	
8.145	0.735	0.495	
8.150	0.779	0.584	
8.155	0.828	0.664	
8.160	0.881	0.734	
8.165	0.741	0.787	
8.170	0.681	0.808	
8.175	0.793	0.803	
8.180	0.825	0.795	
8.185	0.897	0.798	
8.190	1.040	0.821	
8.195	1.046	0.867	
8.200	1.005	0.920	
8.205	1.028	0.965	
8.210	1.051	0.999	
8.215	0.895	1.017	
8.220	0.805	1.006	
8.225	0.808	0.968	
8.230	0.576	0.909	
8.235	0.325	0.817	
8.240	0.220	0.688	
8.245	0.168	0.541	
8.250	0.065	0.397	
8.255	-0.005	0.267	
8.260	-0.019	0.155	
8.265	-0.060	0.067	
8.270	-0.098	0.000	
8.275	-0.037	-0.046	
8.280	-0.017	-0.069	
8.285	0.023	-0.070	
8.290	-0.003	-0.056	
8.295	-0.051	-0.041	
8.300	-0.080	-0.034	
8.305	-0.078	-0.038	
8.310	-0.055	-0.046	
8.315	-0.098	-0.055	
8.320	-0.106	-0.066	
8.325	-0.089	-0.077	
8.330	-0.122	-0.087	
8.335	-0.170	-0.099	
8.340	-0.223	-0.119	
8.345	-0.368	-0.152	
8.350	-0.569	-0.210	
8.355	-0.708	-0.303	
8.360	-0.718	-0.417	
8.365	-0.727	-0.528	
8.370	-0.731	-0.620	
8.375	-0.663	-0.682	
8.380	-0.639	-0.711	
8.385	-0.637	-0.713	
8.390	-0.604	-0.699	
8.395	-0.587	-0.675	
8.400	-0.514	-0.644	
8.405	-0.483	-0.607	
8.410	-0.440	-0.565	
8.415	-0.401	-0.522	
8.420	-0.347	-0.478	
8.425	-0.280	-0.431	
8.430	-0.284	-0.384	
8.435	-0.257	-0.340	
8.440	-0.205	-0.303	
8.445	-0.199	-0.268	
8.450	-0.284	-0.243	
8.455	-0.425	-0.240	
8.460	-0.449	-0.268	
8.465	-0.388	-0.311	
8.470	-0.258	-0.343	
8.475	-0.064	-0.341	
8.480	0.169	-0.286	
8.485	0.423	-0.175	
8.490	0.739	-0.007	
8.495	0.952	0.209	
8.500	1.080	0.448	
8.505	1.211	0.682	
8.510	1.246	0.891	
8.515	1.130	1.052	
8.520	1.214	1.155	
8.525	1.272	1.215	
8.530	1.155	1.247	
8.535	1.110	1.249	
8.540	1.168	1.230	
8.545	1.259	1.210	
8.550	1.376	1.211	
8.555	1.359	1.235	
8.560	1.307	1.269	
8.565	1.274	1.293	
8.570	1.251	1.302	
8.575	1.245	1.298	
8.580	1.162	1.282	
8.585	1.107	1.254	
8.590	1.078	1.214	
8.595	0.994	1.167	
8.600	0.915	1.112	
8.605	0.842	1.049	
8.610	0.771	0.980	
8.615	0.600	0.903	
8.620	0.453	0.810	
8.625	0.429	0.704	
8.630	0.287	0.596	
8.635	0.191	0.488	
8.640	0.143	0.382	
8.645	0.049	0.284	
8.650	-0.017	0.193	
8.655	-0.005	0.114	
8.660	-0.054	0.050	
8.665	-0.098	-0.001	
8.670	-0.014	-0.037	
8.675	0.191	-0.046	
8.680	0.143	-0.018	
8.685	0.175	0.029	
8.690	0.299	0.084	
8.695	0.308	0.145	
8.700	0.233	0.201	
8.705	0.220	0.238	
8.710	0.217	0.253	
8.715	0.114	0.249	
8.720	0.059	0.224	
8.725	0.160	0.189	
8.730	0.146	0.161	
8.735	0.091	0.143	
8.740	0.130	0.128	
8.745	0.073	0.117	
8.750	0.068	0.106	
8.755	0.094	0.095	
8.760	0.124	0.090	
8.765	0.012	0.087	
8.770	0.073	0.079	
8.775	0.224	0.079	
8.780	0.136	0.094	
8.785	0.107	0.112	
8.790	0.171	0.124	
8.795	0.221	0.138	
8.800	0.180	0.156	
8.805	0.188	0.172	
8.810	0.171	0.181	
8.815	0.221	0.187	
8.820	0.318	0.198	
8.825	0.334	0.222	
8.830	0.072	0.242	
8.835	-0.156	0.222	
8.840	-0.254	0.148	
8.845	-0.260	0.042	
8.850	-0.295	-0.067	
8.855	-0.269	-0.160	
8.860	-0.110	-0.220	
8.865	0.018	-0.230	
8.870	0.252	-0.185	
8.875	0.388	-0.086	
8.880	0.452	0.046	
8.885	0.437	0.183	
8.890	0.392	0.295	
8.895	0.359	0.369	
8.900	0.311	0.403	
8.905	0.337	0.406	
8.910	0.452	0.399	
8.915	0.478	0.401	
8.920	0.453	0.414	
8.925	0.389	0.426	
8.930	0.287	0.423	
8.935	0.337	0.404	
8.940	0.402	0.383	
8.945	0.424	0.374	
8.950	0.427	0.378	
8.955	0.411	0.388	
8.960	0.495	0.402	
8.965	0.513	0.423	
8.970	0.501	0.448	
8.975	0.467	0.470	
8.980	0.438	0.480	
8.985	0.351	0.474	
8.990	0.279	0.450	
8.995	0.200	0.406	
9.000	0.067	0.344	
9.005	-0.002	0.265	
9.010	-0.005	0.180	
9.015	-0.019	0.104	
9.020	-0.072	0.042	
9.025	-0.061	-0.007	
9.030	-0.098	-0.043	
9.035	-0.118	-0.070	
9.040	-0.156	-0.093	
9.045	-0.185	-0.116	
9.050	-0.156	-0.137	
9.055	-0.097	-0.149	
9.060	-0.074	-0.148	
9.065	-0.089	-0.135	
9.070	-0.072	-0.119	
9.075	-0.054	-0.102	
9.080	-0.068	-0.086	
9.085	-0.074	-0.075	
9.090	0.013	-0.065	
9.095	-0.016	-0.051	
9.100	-0.100	-0.040	
9.105	-0.148	-0.044	
9.110	-0.174	-0.064	
9.115	-0.167	-0.093	
9.120	-0.148	-0.120	
9.125	-0.135	-0.139	
9.130	-0.205	-0.151	
9.135	-0.280	-0.168	
9.140	-0.240	-0.191	
9.145	-0.197	-0.211	
9.150	-0.141	-0.218	
9.155	-0.122	-0.209	
9.160	-0.101	-0.188	
9.165	-0.112	-0.164	
9.170	-0.115	-0.142	
9.175	-0.069	-0.123	
9.180	-0.084	-0.107	
9.185	-0.104	-0.095	
9.190	-0.066	-0.088	
9.195	-0.055	-0.082	
9.200	-0.051	-0.074	
9.205	-0.017	-0.065	
9.210	-0.072	-0.055	
9.215	-0.281	-0.061	
9.220	-0.451	-0.103	
9.225	-0.471	-0.180	
9.230	-0.480	-0.272	
9.235	-0.459	-0.354	
9.240	-0.356	-0.410	
9.245	-0.257	-0.427	
9.250	-0.142	-0.404	
9.255	-0.032	-0.344	
9.260	0.029	-0.260	
9.265	0.007	-0.169	
9.270	-0.031	-0.092	
9.275	-0.011	-0.041	
9.280	-0.043	-0.012	
9.285	-0.064	-0.003	
9.290	-0.031	-0.008	
9.295	-0.060	-0.017	
9.300	-0.090	-0.030	
9.305	-0.078	-0.045	
9.310	0.067	-0.053	
9.315	0.061	-0.041	
9.320	0.081	-0.016	
9.325	0.151	0.017	
9.330	0.131	0.054	
9.335	0.152	0.088	
9.340	0.204	0.118	
9.345	0.240	0.148	
9.350	0.250	0.179	
9.355	0.255	0.207	
9.360	0.247	0.229	
9.365	0.134	0.238	
9.370	0.064	0.226	
9.375	0.091	0.194	
9.380	-0.037	0.152	
9.385	-0.119	0.099	
9.390	-0.138	0.036	
9.395	-0.150	-0.027	
9.400	-0.176	-0.082	
9.405	-0.182	-0.125	
9.410	-0.176	-0.156	
9.415	-0.173	-0.175	
9.420	-0.162	-0.184	
9.425	-0.084	-0.181	
9.430	-0.107	-0.166	
9.435	-0.084	-0.146	
9.440	-0.072	-0.125	
9.445	-0.089	-0.107	
9.450	-0.115	-0.095	
9.455	-0.106	-0.091	
9.460	-0.078	-0.091	
9.465	-0.115	-0.091	
9.470	-0.087	-0.093	
9.475	-0.017	-0.091	
9.480	-0.064	-0.082	
9.485	-0.119	-0.074	
9.490	-0.142	-0.077	
9.495	-0.174	-0.091	
9.500	-0.217	-0.114	
9.505	-0.231	-0.143	
9.510	-0.200	-0.171	
9.515	-0.211	-0.193	
9.520	-0.194	-0.205	
9.525	-0.145	-0.208	
9.530	-0.184	-0.202	
9.535	-0.213	-0.195	
9.540	-0.190	-0.192	
9.545	-0.170	-0.191	
9.550	-0.176	-0.187	
9.555	-0.155	-0.182	
9.560	-0.112	-0.174	
9.565	-0.098	-0.159	
9.570	-0.042	-0.139	
9.575	0.003	-0.112	
9.580	-0.054	-0.082	
9.585	-0.020	-0.058	
9.590	0.068	-0.036	
9.595	0.293	-0.000	
9.600	0.565	0.074	
9.605	0.843	0.201	
9.610	1.016	0.377	
9.615	1.158	0.580	
9.620	1.309	0.787	
9.625	1.544	0.989	
9.630	1.610	1.183	
9.635	1.584	1.353	
9.640	1.570	1.480	
9.645	1.413	1.552	
9.650	1.225	1.561	
9.655	1.410	1.520	
9.660	1.712	1.485	
9.665	1.706	1.496	
9.670	1.578	1.534	
9.675	1.492	1.563	
9.680	1.324	1.560	
9.685	1.210	1.518	
9.690	1.153	1.443	
9.695	1.005	1.348	
9.700	0.922	1.241	
9.705	0.906	1.133	
9.710	0.811	1.034	
9.715	0.702	0.944	
9.720	0.689	0.859	
9.725	0.754	0.790	
9.730	0.640	0.741	
9.735	0.519	0.698	
9.740	0.447	0.646	
9.745	0.379	0.584	
9.750	0.201	0.511	
9.755	0.113	0.422	
9.760	0.026	0.321	
9.765	-0.068	0.217	
9.770	-0.101	0.116	
9.775	-0.118	0.027	
9.780	-0.196	-0.046	
9.785	-0.266	-0.110	
9.790	-0.297	-0.168	
9.795	-0.323	-0.220	
9.800	-0.379	-0.266	
9.805	-0.394	-0.308	
9.810	-0.361	-0.342	
9.815	-0.344	-0.363	
9.820	-0.297	-0.368	
9.825	-0.234	-0.357	
9.830	-0.262	-0.333	
9.835	-0.291	-0.308	
9.840	-0.251	-0.289	
9.845	-0.295	-0.277	
9.850	-0.303	-0.272	
9.855	-0.280	-0.274	
9.860	-0.242	-0.276	
9.865	-0.295	-0.274	
9.870	-0.344	-0.277	
9.875	-0.342	-0.289	
9.880	-0.390	-0.306	
9.885	-0.422	-0.330	
9.890	-0.417	-0.357	
9.895	-0.442	-0.382	
9.900	-0.469	-0.406	
9.905	-0.433	-0.427	
9.910	-0.396	-0.438	
9.915	-0.398	-0.437	
9.920	-0.396	-0.430	
9.925	-0.326	-0.416	
9.930	-0.324	-0.396	
9.935	-0.310	-0.373	
9.940	-0.295	-0.349	
9.945	-0.307	-0.329	
9.950	-0.309	-0.315	
9.955	-0.284	-0.305	
9.960	-0.254	-0.297	
9.965	-0.266	-0.286	
9.970	-0.257	-0.277	
9.975	-0.310	-0.271	
9.980	-0.524	-0.283	
9.985	-0.729	-0.333	
9.990	-0.795	-0.424	
9.995	-0.773	-0.533	
10.000	-0.639	-0.626	
10.005	-0.433	-0.671	
10.010	-0.214	-0.648	
10.015	-0.106	-0.562	
10.020	-0.005	-0.436	
10.025	0.142	-0.292	
10.030	0.113	-0.150	
10.035	0.149	-0.028	
10.040	0.342	0.072	
10.045	0.464	0.167	
10.050	0.437	0.262	
10.055	0.411	0.341	
10.060	0.427	0.395	
10.065	0.371	0.424	
10.070	0.405	0.432	
10.075	0.501	0.434	
10.080	0.486	0.443	
10.085	0.515	0.457	
10.090	0.620	0.478	
10.095	0.579	0.507	
10.100	0.476	0.533	
10.105	0.486	0.540	
10.110	0.542	0.535	
10.115	0.489	0.529	
10.120	0.427	0.519	
10.125	0.440	0.500	
10.130	0.301	0.473	
10.135	0.250	0.431	
10.140	0.256	0.380	
10.145	0.108	0.325	
10.150	0.015	0.261	
10.155	-0.040	0.185	
10.160	-0.072	0.108	
10.165	-0.121	0.036	
10.170	-0.121	-0.026	
10.175	-0.100	-0.073	
10.180	-0.152	-0.105	
10.185	-0.203	-0.129	
10.190	-0.162	-0.150	
10.195	-0.185	-0.166	
10.200	-0.268	-0.180	
10.205	-0.265	-0.199	
10.210	-0.226	-0.219	
10.215	-0.190	-0.230	
10.220	-0.127	-0.227	
10.225	-0.052	-0.206	
10.230	-0.110	-0.174	
10.235	-0.127	-0.144	
10.240	-0.058	-0.123	
10.245	-0.066	-0.104	
10.250	-0.116	-0.089	
10.255	-0.122	-0.085	
10.260	-0.130	-0.090	
10.265	-0.182	-0.102	
10.270	-0.217	-0.122	
10.275	-0.179	-0.146	
10.280	-0.229	-0.168	
10.285	-0.272	-0.190	
10.290	-0.248	-0.213	
10.295	-0.225	-0.230	
10.300	-0.223	-0.239	
10.305	-0.194	-0.239	
10.310	-0.147	-0.230	
10.315	-0.141	-0.212	
10.320	-0.133	-0.190	
10.325	-0.103	-0.168	
10.330	-0.136	-0.148	
10.335	-0.147	-0.135	
10.340	-0.136	-0.130	
10.345	-0.093	-0.127	
10.350	0.044	-0.115	
10.355	0.301	-0.074	
10.360	0.343	0.005	
10.365	-0.093	0.084	
10.370	-0.477	0.093	
10.375	-0.633	0.003	
10.380	-0.665	-0.153	
10.385	-0.547	-0.318	
10.390	-0.350	-0.437	
10.395	-0.176	-0.481	
10.400	-0.032	-0.447	
10.405	0.177	-0.351	
10.410	0.255	-0.213	
10.415	0.285	-0.060	
10.420	0.354	0.080	
10.425	0.359	0.197	
10.430	0.292	0.281	
10.435	0.357	0.330	
10.440	0.443	0.360	
10.445	0.473	0.388	
10.450	0.458	0.415	
10.455	0.458	0.437	
10.460	0.475	0.453	
10.465	0.389	0.460	
10.470	0.340	0.452	
10.475	0.414	0.433	
10.480	0.372	0.415	
10.485	0.342	0.399	
10.490	0.476	0.388	
10.495	0.518	0.395	
10.500	0.421	0.414	
10.505	0.354	0.427	
10.510	0.233	0.417	
10.515	0.065	0.376	
10.520	0.013	0.304	
10.525	-0.008	0.216	
10.530	-0.141	0.127	
10.535	-0.205	0.036	
10.540	-0.202	-0.049	
10.545	-0.277	-0.123	
10.550	-0.295	-0.185	
10.555	-0.275	-0.234	
10.560	-0.268	-0.267	
10.565	-0.315	-0.285	
10.570	-0.335	-0.299	
10.575	-0.324	-0.310	
10.580	-0.393	-0.322	
10.585	-0.451	-0.341	
10.590	-0.462	-0.368	
10.595	-0.472	-0.399	
10.600	-0.413	-0.424	
10.605	-0.358	-0.435	
10.610	-0.335	-0.427	
10.615	-0.346	-0.408	
10.620	-0.326	-0.386	
10.625	-0.265	-0.362	
10.630	-0.262	-0.335	
10.635	-0.245	-0.307	
10.640	-0.297	-0.285	
10.645	-0.367	-0.278	
10.650	-0.378	-0.287	
10.655	-0.365	-0.308	
10.660	-0.404	-0.331	
10.665	-0.469	-0.357	
10.670	-0.465	-0.387	
10.675	-0.410	-0.414	
10.680	-0.420	-0.430	
10.685	-0.396	-0.434	
10.690	-0.341	-0.428	
10.695	-0.326	-0.410	
10.700	-0.326	-0.387	
10.705	-0.321	-0.364	
10.710	-0.266	-0.342	
10.715	-0.257	-0.320	
10.720	-0.188	-0.294	
10.725	-0.168	-0.265	
10.730	-0.222	-0.235	
10.735	-0.216	-0.216	
10.740	-0.173	-0.205	
10.745	-0.257	-0.199	
10.750	-0.407	-0.210	
10.755	-0.850	-0.265	
10.760	-0.995	-0.386	
10.765	-0.993	-0.552	
10.770	-0.996	-0.715	
10.775	-0.993	-0.846	
10.780	-0.996	-0.939	
10.785	-0.977	-0.994	
10.790	-0.753	-1.008	
10.795	-0.581	-0.971	
10.800	-0.428	-0.881	
10.805	-0.300	-0.755	
10.810	-0.231	-0.611	
10.815	-0.214	-0.473	
10.820	-0.170	-0.356	
10.825	-0.046	-0.260	
10.830	0.035	-0.176	
10.835	0.240	-0.090	
10.840	0.518	0.017	
10.845	0.654	0.155	
10.850	0.654	0.309	
10.855	0.750	0.452	
10.860	0.837	0.578	
10.865	0.883	0.685	
10.870	0.997	0.778	
10.875	1.094	0.863	
10.880	1.075	0.942	
10.885	1.039	1.005	
10.890	1.123	1.047	
10.895	1.197	1.082	
10.900	1.133	1.114	
10.905	1.161	1.137	
10.910	1.110	1.150	
10.915	0.926	1.142	
10.920	0.805	1.102	
10.925	0.782	1.031	
10.930	0.657	0.946	
10.935	0.556	0.852	
10.940	0.539	0.755	
10.945	0.486	0.665	
10.950	0.457	0.590	
10.955	0.339	0.524	
10.960	0.287	0.460	
10.965	0.151	0.393	
10.970	0.224	0.325	
10.975	0.431	0.279	
10.980	0.400	0.274	
10.985	0.365	0.294	
10.990	0.405	0.321	
10.995	0.438	0.349	
11.000	0.408	0.376	
11.005	0.472	0.400	
11.010	0.502	0.423	
11.015	0.472	0.447	
11.020	0.505	0.466	
11.025	0.589	0.485	
11.030	0.516	0.506	
11.035	0.525	0.522	
11.040	0.551	0.532	
11.045	0.521	0.537	
11.050	0.437	0.534	
11.055	0.470	0.520	
11.060	0.431	0.501	
11.065	0.343	0.476	
11.070	0.347	0.444	
11.075	0.372	0.411	
11.080	0.305	0.383	
11.085	0.266	0.357	
11.090	0.333	0.332	
11.095	0.305	0.315	
11.100	0.259	0.304	
11.105	0.324	0.296	
11.110	0.330	0.294	
11.115	0.227	0.295	
11.120	0.252	0.289	
11.125	0.324	0.281	
11.130	0.421	0.286	
11.135	0.502	0.313	
11.140	0.482	0.356	
11.145	0.211	0.389	
11.150	-0.097	0.371	
11.155	-0.211	0.285	
11.160	-0.232	0.155	
11.165	-0.225	0.021	
11.170	-0.115	-0.086	
11.175	0.134	-0.137	
11.180	0.333	-0.114	
11.185	0.521	-0.021	
11.190	0.669	0.123	
11.195	0.722	0.290	
11.200	0.776	0.452	
11.205	0.901	0.595	
11.210	0.985	0.720	
11.215	0.892	0.822	
11.220	0.854	0.888	
11.225	0.852	0.915	
11.230	0.808	0.915	
11.235	0.837	0.899	
11.240	0.893	0.881	
11.245	0.785	0.866	
11.250	0.736	0.847	
11.255	0.736	0.819	
11.260	0.748	0.791	
11.265	0.809	0.771	
11.270	0.860	0.768	
11.275	0.854	0.781	
11.280	0.761	0.797	
11.285	0.785	0.803	
11.290	0.826	0.804	
11.295	0.719	0.801	
11.300	0.617	0.785	
11.305	0.583	0.749	
11.310	0.567	0.702	
11.315	0.411	0.647	
11.320	0.264	0.577	
11.325	0.119	0.485	
11.330	0.007	0.374	
11.335	0.035	0.258	
11.340	0.044	0.159	
11.345	-0.042	0.084	
11.350	-0.043	0.029	
11.355	0.004	-0.010	
11.360	0.046	-0.026	
11.365	-0.009	-0.026	
11.370	-0.019	-0.020	
11.375	0.001	-0.016	
11.380	-0.002	-0.012	
11.385	-0.023	-0.009	
11.390	0.012	-0.007	
11.395	-0.014	-0.006	
11.400	-0.110	-0.010	
11.405	-0.122	-0.027	
11.410	-0.122	-0.052	
11.415	-0.141	-0.078	
11.420	-0.101	-0.100	
11.425	-0.013	-0.109	
11.430	-0.042	-0.101	
11.435	-0.058	-0.085	
11.440	-0.057	-0.072	
11.445	-0.077	-0.063	
11.450	-0.092	-0.062	
11.455	-0.089	-0.065	
11.460	-0.130	-0.074	
11.465	-0.177	-0.088	
11.470	-0.171	-0.110	
11.475	-0.129	-0.130	
11.480	-0.168	-0.143	
11.485	-0.190	-0.154	
11.490	-0.177	-0.164	
11.495	-0.203	-0.173	
11.500	-0.177	-0.181	
11.505	-0.148	-0.184	
11.510	-0.116	-0.179	
11.515	-0.121	-0.166	
11.520	0.068	-0.143	
11.525	0.308	-0.090	
11.530	0.314	-0.001	
11.535	0.174	0.094	
11.540	-0.035	0.152	
11.545	-0.216	0.148	
11.550	-0.300	0.083	
11.555	-0.281	-0.015	
11.560	-0.228	-0.111	
11.565	-0.121	-0.177	
11.570	0.006	-0.198	
11.575	0.143	-0.170	
11.580	0.156	-0.105	
11.585	0.224	-0.022	
11.590	0.345	0.067	
11.595	0.296	0.154	
11.600	0.253	0.223	
11.605	0.253	0.265	
11.610	0.284	0.285	
11.615	0.149	0.287	
11.620	0.120	0.267	
11.625	0.229	0.237	
11.630	0.250	0.216	
11.635	0.318	0.215	
11.640	0.426	0.235	
11.645	0.356	0.272	
11.650	0.299	0.306	
11.655	0.391	0.328	
11.660	0.371	0.346	
11.665	0.293	0.356	
11.670	0.325	0.355	
11.675	0.328	0.347	
11.680	0.232	0.336	
11.685	0.249	0.316	
11.690	0.279	0.294	
11.695	0.180	0.275	
11.700	0.036	0.246	
11.705	-0.048	0.196	
11.710	-0.080	0.129	
11.715	-0.139	0.056	
11.720	-0.168	-0.015	
11.725	-0.188	-0.077	
11.730	-0.239	-0.130	
11.735	-0.229	-0.173	
11.740	-0.177	-0.203	
11.745	-0.211	-0.217	
11.750	-0.222	-0.221	
11.755	-0.184	-0.222	
11.760	-0.152	-0.215	
11.765	-0.164	-0.202	
11.770	-0.179	-0.189	
11.775	-0.145	-0.178	
11.780	-0.176	-0.170	
11.785	-0.156	-0.165	
11.790	-0.101	-0.159	
11.795	-0.139	-0.150	
11.800	-0.130	-0.141	
11.805	-0.107	-0.134	
11.810	-0.148	-0.129	
11.815	-0.200	-0.130	
11.820	-0.161	-0.140	
11.825	-0.168	-0.150	
11.830	-0.277	-0.164	
11.835	-0.239	-0.184	
11.840	-0.165	-0.203	
11.845	-0.200	-0.210	
11.850	-0.223	-0.211	
11.855	-0.228	-0.213	
11.860	-0.236	-0.217	
11.865	-0.275	-0.224	
11.870	-0.240	-0.233	
11.875	-0.208	-0.239	
11.880	-0.214	-0.238	
11.885	-0.194	-0.232	
11.890	-0.165	-0.222	
11.895	-0.185	-0.208	
11.900	-0.173	-0.196	
11.905	-0.110	-0.183	
11.910	-0.080	-0.165	
11.915	-0.066	-0.141	
11.920	-0.028	-0.114	
11.925	-0.084	-0.090	
11.930	-0.341	-0.086	
11.935	-0.482	-0.126	
11.940	-0.492	-0.205	
11.945	-0.501	-0.297	
11.950	-0.471	-0.378	
11.955	-0.339	-0.430	
11.960	-0.211	-0.439	
11.965	-0.098	-0.403	
11.970	-0.019	-0.330	
11.975	0.180	-0.231	
11.980	0.188	-0.115	
11.985	0.143	-0.005	
11.990	0.186	0.081	
11.995	0.091	0.136	
12.000	0.065	0.158	
12.005	0.108	0.155	
12.010	0.157	0.145	
12.015	0.110	0.138	
12.020	0.116	0.132	
12.025	0.188	0.129	
12.030	0.171	0.134	
12.035	0.233	0.147	
12.040	0.376	0.173	
12.045	1.063	0.248	
12.050	2.102	0.452	
12.055	2.650	0.834	
12.060	2.770	1.337	
12.065	2.710	1.841	
12.070	2.656	2.249	
12.075	2.465	2.519	
12.080	2.136	2.635	
12.085	1.857	2.603	
12.090	1.685	2.454	
12.095	1.424	2.235	
12.100	1.201	1.979	
12.105	1.019	1.712	
12.110	0.835	1.452	
12.115	0.676	1.212	
12.120	0.556	0.997	
12.125	0.443	0.810	
12.130	0.247	0.646	
12.135	0.125	0.496	
12.140	0.160	0.360	
12.145	0.039	0.250	
12.150	0.024	0.161	
12.155	0.104	0.097	
12.160	0.065	0.061	
12.165	0.009	0.043	
12.170	0.056	0.033	
12.175	0.056	0.030	
12.180	-0.084	0.027	
12.185	-0.124	0.010	
12.190	-0.100	-0.021	
12.195	-0.174	-0.055	
12.200	-0.243	-0.093	
12.205	-0.297	-0.139	
12.210	-0.361	-0.191	
12.215	-0.437	-0.249	
12.220	-0.468	-0.310	
12.225	-0.478	-0.368	
12.230	-0.504	-0.418	
12.235	-0.527	-0.458	
12.240	-0.512	-0.489	
12.245	-0.555	-0.511	
12.250	-0.578	-0.529	
12.255	-0.549	-0.545	
12.260	-0.564	-0.555	
12.265	-0.610	-0.563	
12.270	-0.585	-0.573	
12.275	-0.514	-0.577	
12.280	-0.517	-0.571	
12.285	-0.511	-0.558	
12.290	-0.483	-0.542	
12.295	-0.475	-0.524	
12.300	-0.443	-0.505	
12.305	-0.379	-0.483	
12.310	-0.478	-0.460	
12.315	-0.656	-0.456	
12.320	-0.807	-0.490	
12.325	-0.868	-0.561	
12.330	-0.853	-0.649	
12.335	-0.712	-0.724	
12.340	-0.509	-0.756	
12.345	-0.323	-0.727	
12.350	-0.203	-0.641	
12.355	-0.176	-0.522	
12.360	-0.150	-0.400	
12.365	-0.136	-0.294	
12.370	-0.069	-0.211	
12.375	0.082	-0.140	
12.380	0.140	-0.068	
12.385	0.214	0.006	
12.390	0.371	0.085	
12.395	0.334	0.168	
12.400	0.321	0.240	
12.405	0.369	0.293	
12.410	0.279	0.327	
12.415	0.270	0.339	
12.420	0.354	0.336	
12.425	0.412	0.337	
12.430	0.402	0.348	
12.435	0.487	0.368	
12.440	0.563	0.399	
12.445	0.453	0.436	
12.450	0.402	0.460	
12.455	0.446	0.466	
12.460	0.392	0.460	
12.465	0.285	0.443	
12.470	0.360	0.413	
12.475	0.507	0.392	
12.480	0.472	0.395	
12.485	0.472	0.412	
12.490	0.455	0.431	
12.495	0.246	0.435	
12.500	0.099	0.406	
12.505	0.090	0.341	
12.510	0.035	0.260	
12.515	-0.051	0.178	
12.520	-0.122	0.096	
12.525	-0.139	0.018	
12.530	-0.223	-0.053	
12.535	-0.242	-0.116	
12.540	-0.197	-0.167	
12.545	-0.232	-0.202	
12.550	-0.251	-0.224	
12.555	-0.179	-0.235	
12.560	-0.177	-0.234	
12.565	-0.223	-0.225	
12.570	-0.252	-0.219	
12.575	-0.214	-0.220	
12.580	-0.232	-0.221	
12.585	-0.208	-0.222	
12.590	-0.162	-0.219	
12.595	-0.185	-0.210	
12.600	-0.202	-0.201	
12.605	-0.194	-0.195	
12.610	-0.223	-0.194	
12.615	-0.269	-0.200	
12.620	-0.249	-0.212	
12.625	-0.226	-0.225	
12.630	-0.243	-0.233	
12.635	-0.269	-0.240	
12.640	-0.269	-0.247	
12.645	-0.286	-0.256	
12.650	-0.277	-0.264	
12.655	-0.236	-0.269	
12.660	-0.255	-0.268	
12.665	-0.266	-0.265	
12.670	-0.220	-0.261	
12.675	-0.193	-0.252	
12.680	-0.210	-0.239	
12.685	-0.113	-0.222	
12.690	0.078	-0.189	
12.695	0.042	-0.134	
12.700	-0.103	-0.080	
12.705	-0.304	-0.060	
12.710	-0.590	-0.099	
12.715	-0.757	-0.203	
12.720	-0.750	-0.349	
12.725	-0.640	-0.490	
12.730	-0.547	-0.587	
12.735	-0.361	-0.624	
12.740	-0.176	-0.593	
12.745	-0.133	-0.508	
12.750	-0.152	-0.399	
12.755	-0.074	-0.296	
12.760	-0.032	-0.206	
12.765	-0.129	-0.136	
12.770	-0.173	-0.098	
12.775	-0.196	-0.092	
12.780	-0.174	-0.106	
12.785	-0.119	-0.124	
12.790	-0.023	-0.130	
12.795	-0.017	-0.118	
12.800	0.033	-0.091	
12.805	0.116	-0.053	
12.810	0.110	-0.008	
12.815	0.079	0.035	
12.820	0.122	0.068	
12.825	0.269	0.099	
12.830	0.314	0.141	
12.835	0.276	0.189	
12.840	0.253	0.230	
12.845	0.168	0.252	
12.850	0.140	0.249	
12.855	0.201	0.232	
12.860	0.085	0.210	
12.865	-0.038	0.176	
12.870	-0.064	0.124	
12.875	-0.068	0.065	
12.880	-0.161	0.007	
12.885	-0.231	-0.051	
12.890	-0.236	-0.110	
12.895	-0.252	-0.163	
12.900	-0.262	-0.205	
12.905	-0.243	-0.235	
12.910	-0.283	-0.254	
12.915	-0.332	-0.269	
12.920	-0.304	-0.284	
12.925	-0.280	-0.296	
12.930	-0.286	-0.300	
12.935	-0.234	-0.297	
12.940	-0.155	-0.282	
12.945	-0.147	-0.255	
12.950	-0.127	-0.221	
12.955	-0.071	-0.185	
12.960	-0.061	-0.149	
12.965	-0.087	-0.116	
12.970	-0.090	-0.094	
12.975	-0.064	-0.081	
12.980	-0.107	-0.075	
12.985	-0.130	-0.077	
12.990	-0.133	-0.087	
12.995	-0.167	-0.102	
13.000	-0.184	-0.120	
13.005	-0.168	-0.139	
13.010	-0.197	-0.156	
13.015	-0.229	-0.172	
13.020	-0.232	-0.189	
13.025	-0.194	-0.204	
13.030	-0.200	-0.211	
13.035	-0.187	-0.212	
13.040	-0.138	-0.206	
13.045	-0.161	-0.194	
13.050	-0.190	-0.182	
13.055	-0.158	-0.175	
13.060	-0.159	-0.170	
13.065	-0.173	-0.166	
13.070	-0.141	-0.163	
13.075	-0.058	-0.155	
13.080	-0.031	-0.136	
13.085	0.047	-0.105	
13.090	0.391	-0.049	
13.095	0.388	0.043	
13.100	-0.113	0.129	
13.105	-0.440	0.135	
13.110	-0.630	0.038	
13.115	-0.698	-0.127	
13.120	-0.611	-0.307	
13.125	-0.440	-0.448	
13.130	-0.304	-0.517	
13.135	-0.112	-0.509	
13.140	0.038	-0.434	
13.145	-0.006	-0.319	
13.150	-0.026	-0.204	
13.155	0.018	-0.111	
13.160	0.012	-0.044	
13.165	0.033	0.000	
13.170	0.067	0.029	
13.175	0.152	0.052	
13.180	0.142	0.078	
13.185	0.249	0.108	
13.190	0.377	0.149	
13.195	0.321	0.203	
13.200	0.249	0.251	
13.205	0.334	0.281	
13.210	0.307	0.301	
13.215	0.357	0.315	
13.220	0.443	0.331	
13.225	0.571	0.362	
13.230	0.643	0.413	
13.235	0.731	0.481	
13.240	0.777	0.559	
13.245	0.647	0.630	
13.250	0.527	0.668	
13.255	0.498	0.665	
13.260	0.353	0.627	
13.265	0.033	0.550	
13.270	-0.058	0.427	
13.275	-0.135	0.278	
13.280	-0.237	0.127	
13.285	-0.248	-0.010	
13.290	-0.219	-0.119	
13.295	-0.226	-0.193	
13.300	-0.184	-0.233	
13.305	-0.167	-0.245	
13.310	-0.200	-0.239	
13.315	-0.179	-0.226	
13.320	-0.155	-0.211	
13.325	-0.098	-0.192	
13.330	-0.107	-0.168	
13.335	-0.058	-0.142	
13.340	0.056	-0.111	
13.345	0.111	-0.068	
13.350	0.197	-0.012	
13.355	0.304	0.055	
13.360	0.238	0.126	
13.365	0.204	0.183	
13.370	0.249	0.219	
13.375	0.282	0.241	
13.380	0.343	0.261	
13.385	0.376	0.285	
13.390	0.400	0.313	
13.395	0.376	0.340	
13.400	0.331	0.360	
13.405	0.276	0.363	
13.410	0.236	0.350	
13.415	0.160	0.321	
13.420	0.206	0.282	
13.425	0.288	0.251	
13.430	0.188	0.234	
13.435	0.255	0.225	
13.440	0.334	0.227	
13.445	0.287	0.241	
13.450	0.295	0.260	
13.455	0.403	0.280	
13.460	0.359	0.305	
13.465	0.307	0.327	
13.470	0.343	0.339	
13.475	0.392	0.345	
13.480	0.347	0.353	
13.485	0.331	0.357	
13.490	0.354	0.356	
13.495	0.013	0.338	
13.500	-0.266	0.273	
13.505	-0.426	0.146	
13.510	-0.478	-0.016	
13.515	-0.477	-0.179	
13.520	-0.384	-0.310	
13.525	-0.268	-0.387	
13.530	-0.162	-0.403	
13.535	0.049	-0.362	
13.540	0.336	-0.262	
13.545	0.218	-0.122	
13.550	0.027	0.007	
13.555	-0.063	0.078	
13.560	-0.187	0.086	
13.565	-0.249	0.042	
13.570	0.140	-0.012	
13.575	0.935	0.008	
13.580	1.228	0.166	
13.585	1.343	0.431	
13.590	1.433	0.729	
13.595	1.256	0.993	
13.600	1.191	1.176	
13.605	1.197	1.272	
13.610	1.184	1.305	
13.615	1.197	1.300	
13.620	1.298	1.283	
13.625	1.399	1.277	
13.630	1.399	1.292	
13.635	1.408	1.320	
13.640	1.417	1.350	
13.645	1.329	1.372	
13.650	1.167	1.372	
13.655	1.110	1.339	
13.660	0.955	1.276	
13.665	0.735	1.183	
13.670	0.606	1.058	
13.675	0.504	0.915	
13.680	0.162	0.758	
13.685	0.003	0.579	
13.690	0.036	0.393	
13.695	-0.257	0.221	
13.700	-0.562	0.048	
13.705	-0.715	-0.143	
13.710	-0.760	-0.338	
13.715	-0.772	-0.510	
13.720	-0.708	-0.639	
13.725	-0.639	-0.715	
13.730	-0.608	-0.740	
13.735	-0.592	-0.729	
13.740	-0.521	-0.696	
13.745	-0.508	-0.650	
13.750	-0.457	-0.599	
13.755	-0.385	-0.547	
13.760	-0.350	-0.493	
13.765	-0.329	-0.441	
13.770	-0.281	-0.393	
13.775	-0.236	-0.349	
13.780	-0.210	-0.308	
13.785	-0.203	-0.270	
13.790	-0.141	-0.237	
13.795	-0.174	-0.207	
13.800	-0.223	-0.187	
13.805	-0.237	-0.182	
13.810	-0.269	-0.191	
13.815	-0.260	-0.208	
13.820	-0.208	-0.224	
13.825	-0.187	-0.230	
13.830	-0.226	-0.228	
13.835	-0.161	-0.222	
13.840	-0.092	-0.207	
13.845	-0.124	-0.184	
13.850	-0.119	-0.159	
13.855	-0.035	-0.136	
13.860	-0.017	-0.109	
13.865	0.029	-0.078	
13.870	0.081	-0.042	
13.875	0.188	0.000	
13.880	0.139	0.049	
13.885	0.157	0.092	
13.890	0.036	0.119	
13.895	-0.197	0.112	
13.900	-0.355	0.055	
13.905	-0.394	-0.043	
13.910	-0.370	-0.154	
13.915	-0.371	-0.249	
13.920	-0.271	-0.314	
13.925	-0.090	-0.334	
13.930	0.072	-0.300	
13.935	0.368	-0.208	
13.940	0.556	-0.062	
13.945	0.528	0.114	
13.950	0.541	0.279	
13.955	0.643	0.412	
13.960	0.675	0.517	
13.965	0.626	0.594	
13.970	0.756	0.646	
13.975	0.831	0.690	
13.980	0.744	0.729	
13.985	0.843	0.760	
13.990	0.955	0.791	
13.995	0.929	0.830	
14.000	0.947	0.870	
14.005	1.005	0.905	
14.010	1.071	0.941	
14.015	1.153	0.984	
14.020	1.330	1.040	
14.025	1.416	1.117	
14.030	1.344	1.203	
14.035	1.482	1.281	
14.040	1.633	1.357	
14.045	1.566	1.435	
14.050	1.433	1.495	
14.055	1.309	1.513	
14.060	1.141	1.482	
14.065	0.955	1.403	
14.070	0.803	1.283	
14.075	0.709	1.138	
14.080	0.522	0.983	
14.085	0.417	0.826	
14.090	0.481	0.681	
14.095	0.379	0.565	
14.100	0.322	0.476	
14.105	0.347	0.407	
14.110	0.226	0.356	
14.115	0.218	0.311	
14.120	0.168	0.271	
14.125	0.091	0.230	
14.130	0.064	0.187	
14.135	0.041	0.143	
14.140	0.152	0.109	
14.145	0.076	0.092	
14.150	0.059	0.083	
14.155	0.175	0.080	
14.160	0.183	0.092	
14.165	0.130	0.111	
14.170	0.168	0.129	
14.175	0.191	0.144	
14.180	0.107	0.155	
14.185	0.093	0.155	
14.190	0.101	0.144	
14.195	0.023	0.127	
14.200	-0.035	0.100	
14.205	-0.013	0.066	
14.210	-0.090	0.030	
14.215	-0.078	-0.006	
14.220	-0.078	-0.037	
14.225	-0.043	-0.059	
14.230	-0.040	-0.068	
14.235	-0.068	-0.069	
14.240	-0.009	-0.065	
14.245	-0.097	-0.059	
14.250	-0.142	-0.062	
14.255	-0.132	-0.075	
14.260	-0.165	-0.094	
14.265	-0.196	-0.117	
14.270	-0.187	-0.140	
14.275	-0.119	-0.158	
14.280	-0.103	-0.162	
14.285	-0.167	-0.156	
14.290	-0.280	-0.158	
14.295	-0.454	-0.184	
14.300	-0.566	-0.244	
14.305	-0.550	-0.327	
14.310	-0.474	-0.406	
14.315	-0.417	-0.458	
14.320	-0.272	-0.472	
14.325	-0.196	-0.446	
14.330	-0.155	-0.388	
14.335	-0.064	-0.314	
14.340	0.046	-0.231	
14.345	0.033	-0.145	
14.350	0.015	-0.070	
14.355	0.050	-0.015	
14.360	0.029	0.022	
14.365	-0.028	0.039	
14.370	0.061	0.042	
14.375	0.160	0.048	
14.380	0.046	0.061	
14.385	0.030	0.070	
14.390	0.168	0.073	
14.395	0.145	0.085	
14.400	0.114	0.102	
14.405	0.165	0.116	
14.410	0.232	0.133	
14.415	0.185	0.154	
14.420	0.267	0.176	
14.425	0.365	0.204	
14.430	0.304	0.241	
14.435	0.272	0.271	
14.440	0.246	0.287	
14.445	0.185	0.285	
14.450	0.101	0.265	
14.455	0.090	0.228	
14.460	0.006	0.181	
14.465	-0.118	0.124	
14.470	-0.148	0.055	
14.475	-0.161	-0.015	
14.480	-0.237	-0.080	
14.485	-0.245	-0.137	
14.490	-0.193	-0.183	
14.495	-0.214	-0.210	
14.500	-0.196	-0.223	
14.505	-0.130	-0.222	
14.510	-0.112	-0.206	
14.515	-0.139	-0.184	
14.520	-0.127	-0.162	
14.525	-0.068	-0.143	
14.530	-0.080	-0.123	
14.535	-0.057	-0.104	
14.540	-0.017	-0.085	
14.545	-0.046	-0.066	
14.550	-0.066	-0.053	
14.555	-0.019	-0.046	
14.560	-0.043	-0.040	
14.565	-0.119	-0.041	
14.570	-0.110	-0.051	
14.575	-0.118	-0.068	
14.580	-0.165	-0.088	
14.585	-0.156	-0.109	
14.590	-0.118	-0.127	
14.595	-0.190	-0.139	
14.600	-0.190	-0.151	
14.605	-0.158	-0.163	
14.610	-0.213	-0.171	
14.615	-0.234	-0.182	
14.620	-0.188	-0.193	
14.625	-0.141	-0.198	
14.630	-0.145	-0.192	
14.635	-0.156	-0.181	
14.640	-0.158	-0.170	
14.645	-0.211	-0.165	
14.650	-0.226	-0.169	
14.655	-0.223	-0.181	
14.660	-0.237	-0.195	
14.665	-0.275	-0.211	
14.670	-0.243	-0.228	
14.675	-0.132	-0.235	
14.680	-0.188	-0.227	
14.685	-0.358	-0.221	
14.690	-0.500	-0.242	
14.695	-0.672	-0.302	
14.700	-0.691	-0.392	
14.705	-0.501	-0.482	
14.710	-0.382	-0.533	
14.715	-0.332	-0.534	
14.720	-0.223	-0.494	
14.725	-0.116	-0.425	
14.730	-0.100	-0.338	
14.735	-0.061	-0.250	
14.740	0.039	-0.169	
14.745	0.026	-0.096	
14.750	0.024	-0.037	
14.755	0.085	0.006	
14.760	0.041	0.037	
14.765	-0.048	0.051	
14.770	-0.029	0.045	
14.775	0.023	0.029	
14.780	0.032	0.019	
14.785	0.010	0.014	
14.790	0.055	0.015	
14.795	0.058	0.020	
14.800	0.156	0.034	
14.805	0.226	0.062	
14.810	0.273	0.105	
14.815	0.308	0.157	
14.820	0.336	0.210	
14.825	0.331	0.258	
14.830	0.293	0.293	
14.835	0.310	0.313	
14.840	0.321	0.322	
14.845	0.198	0.320	
14.850	0.099	0.298	
14.855	0.076	0.254	
14.860	-0.009	0.196	
14.865	-0.049	0.132	
14.870	-0.032	0.070	
14.875	-0.095	0.017	
14.880	-0.214	-0.033	
14.885	-0.245	-0.086	
14.890	-0.266	-0.142	
14.895	-0.346	-0.194	
14.900	-0.376	-0.246	
14.905	-0.439	-0.297	
14.910	-0.544	-0.350	
14.915	-0.622	-0.411	
14.920	-0.593	-0.475	
14.925	-0.541	-0.527	
14.930	-0.562	-0.559	
14.935	-0.378	-0.565	
14.940	0.056	-0.523	
14.945	0.423	-0.398	
14.950	0.541	-0.197	
14.955	0.612	0.036	
14.960	0.643	0.255	
14.965	0.614	0.432	
14.970	0.704	0.558	
14.975	0.745	0.644	
14.980	0.635	0.699	
14.985	0.594	0.717	
14.990	0.588	0.705	
14.995	0.574	0.677	
15.000	0.568	0.645	
15.005	0.481	0.611	
15.010	0.388	0.570	
15.015	0.299	0.516	
15.020	0.348	0.456	
15.025	0.412	0.408	
15.030	0.240	0.373	
15.035	0.099	0.333	
15.040	0.105	0.277	
15.045	0.020	0.214	
15.050	0.062	0.152	
15.055	0.178	0.109	
15.060	0.105	0.092	
15.065	0.081	0.088	
15.070	-0.019	0.081	
15.075	-0.197	0.056	
15.080	-0.423	-0.005	
15.085	-0.514	-0.107	
15.090	-0.471	-0.225	
15.095	-0.414	-0.328	
15.100	-0.286	-0.392	
15.105	-0.074	-0.399	
15.110	0.156	-0.342	
15.115	0.339	-0.224	
15.120	0.450	-0.066	
15.125	0.388	0.099	
15.130	0.255	0.231	
15.135	0.263	0.306	
15.140	0.402	0.341	
15.145	0.347	0.361	
15.150	0.403	0.373	
15.155	0.570	0.389	
15.160	0.596	0.424	
15.165	0.643	0.474	
15.170	0.715	0.531	
15.175	0.719	0.590	
15.180	0.548	0.634	
15.185	0.527	0.647	
15.190	0.657	0.638	
15.195	0.651	0.631	
15.200	0.684	0.633	
15.205	0.761	0.645	
15.210	0.719	0.667	
15.215	0.673	0.687	
15.220	0.699	0.698	
15.225	0.596	0.698	
15.230	0.423	0.675	
15.235	0.392	0.624	
15.240	0.368	0.557	
15.245	0.287	0.486	
15.250	0.148	0.412	
15.255	0.183	0.335	
15.260	0.165	0.266	
15.265	0.091	0.211	
15.270	0.027	0.163	
15.275	-0.046	0.113	
15.280	-0.100	0.060	
15.285	-0.071	0.009	
15.290	-0.017	-0.030	
15.295	-0.054	-0.051	
15.300	-0.040	-0.059	
15.305	0.029	-0.058	
15.310	-0.013	-0.046	
15.315	-0.068	-0.034	
15.320	-0.038	-0.031	
15.325	0.001	-0.030	
15.330	-0.019	-0.027	
15.335	-0.029	-0.023	
15.340	0.007	-0.020	
15.345	-0.032	-0.017	
15.350	-0.035	-0.017	
15.355	0.012	-0.018	
15.360	-0.035	-0.017	
15.365	-0.098	-0.021	
15.370	-0.100	-0.034	
15.375	-0.107	-0.053	
15.380	-0.167	-0.075	
15.385	-0.159	-0.099	
15.390	-0.109	-0.120	
15.395	-0.161	-0.133	
15.400	-0.223	-0.145	
15.405	-0.205	-0.162	
15.410	-0.176	-0.177	
15.415	-0.161	-0.185	
15.420	-0.138	-0.184	
15.425	-0.132	-0.176	
15.430	-0.153	-0.165	
15.435	-0.161	-0.157	
15.440	-0.106	-0.151	
15.445	-0.086	-0.141	
15.450	-0.043	-0.125	
15.455	0.056	-0.099	
15.460	0.107	-0.060	
15.465	-0.028	-0.019	
15.470	-0.251	-0.004	
15.475	-0.518	-0.045	
15.480	-0.686	-0.147	
15.485	-0.668	-0.289	
15.490	-0.530	-0.423	
15.495	-0.388	-0.508	
15.500	-0.219	-0.527	
15.505	-0.049	-0.479	
15.510	0.013	-0.381	
15.515	0.012	-0.263	
15.520	0.127	-0.149	
15.525	0.148	-0.046	
15.530	0.072	0.035	
15.535	0.124	0.088	
15.540	0.243	0.124	
15.545	0.175	0.155	
15.550	0.204	0.178	
15.555	0.308	0.198	
15.560	0.275	0.222	
15.565	0.218	0.242	
15.570	0.215	0.250	
15.575	0.269	0.250	
15.580	0.278	0.252	
15.585	0.314	0.258	
15.590	0.458	0.277	
15.595	0.391	0.310	
15.600	0.414	0.345	
15.605	0.478	0.377	
15.610	0.418	0.406	
15.615	0.264	0.418	
15.620	0.244	0.401	
15.625	0.188	0.363	
15.630	0.058	0.308	
15.635	0.027	0.239	
15.640	-0.022	0.166	
15.645	-0.104	0.093	
15.650	-0.132	0.024	
15.655	-0.147	-0.038	
15.660	-0.185	-0.090	
15.665	-0.232	-0.134	
15.670	-0.278	-0.173	
15.675	-0.274	-0.210	
15.680	-0.315	-0.242	
15.685	-0.327	-0.269	
15.690	-0.277	-0.291	
15.695	-0.286	-0.302	
15.700	-0.268	-0.303	
15.705	-0.231	-0.296	
15.710	-0.216	-0.282	
15.715	-0.202	-0.262	
15.720	-0.161	-0.241	
15.725	-0.130	-0.216	
15.730	-0.162	-0.190	
15.735	-0.148	-0.171	
15.740	-0.090	-0.155	
15.745	-0.127	-0.140	
15.750	-0.133	-0.128	
15.755	-0.110	-0.122	
15.760	-0.133	-0.119	
15.765	-0.210	-0.123	
15.770	-0.226	-0.138	
15.775	-0.236	-0.161	
15.780	-0.243	-0.186	
15.785	-0.262	-0.210	
15.790	-0.210	-0.227	
15.795	-0.237	-0.237	
15.800	-0.271	-0.241	
15.805	-0.213	-0.245	
15.810	-0.210	-0.243	
15.815	-0.228	-0.237	
15.820	-0.255	-0.233	
15.825	-0.240	-0.233	
15.830	-0.239	-0.235	
15.835	-0.220	-0.236	
15.840	-0.155	-0.231	
15.845	-0.118	-0.216	
15.850	-0.042	-0.189	
15.855	0.111	-0.145	
15.860	0.046	-0.086	
15.865	-0.213	-0.041	
15.870	-0.508	-0.053	
15.875	-0.692	-0.137	
15.880	-0.770	-0.276	
15.885	-0.688	-0.429	
15.890	-0.521	-0.547	
15.895	-0.356	-0.601	
15.900	-0.122	-0.579	
15.905	0.120	-0.484	
15.910	0.185	-0.333	
15.915	0.181	-0.167	
15.920	0.197	-0.020	
15.925	0.174	0.090	
15.930	0.240	0.164	
15.935	0.359	0.217	
15.940	0.508	0.270	
15.945	0.536	0.335	
15.950	0.495	0.401	
15.955	0.547	0.455	
15.960	0.502	0.494	
15.965	0.484	0.516	
15.970	0.548	0.524	
15.975	0.574	0.531	
15.980	0.501	0.538	
15.985	0.481	0.537	
15.990	0.582	0.532	
15.995	0.638	0.536	
16.000	0.655	0.556	
16.005	0.649	0.582	
16.010	0.611	0.606	
16.015	0.521	0.617	
16.020	0.524	0.608	
16.025	0.467	0.586	
16.030	0.313	0.548	
16.035	0.198	0.488	
16.040	0.169	0.409	
16.045	-0.020	0.319	
16.050	-0.122	0.216	
16.055	-0.150	0.106	
16.060	-0.234	0.002	
16.065	-0.315	-0.092	
16.070	-0.330	-0.177	
16.075	-0.332	-0.246	
16.080	-0.398	-0.299	
16.085	-0.388	-0.340	
16.090	-0.362	-0.368	
16.095	-0.365	-0.382	
16.100	-0.336	-0.385	
16.105	-0.277	-0.375	
16.110	-0.260	-0.355	
16.115	-0.258	-0.328	
16.120	-0.232	-0.301	
16.125	-0.219	-0.275	
16.130	-0.161	-0.250	
16.135	-0.106	-0.222	
16.140	-0.019	-0.185	
16.145	-0.083	-0.143	
16.150	-0.116	-0.110	
16.155	-0.165	-0.095	
16.160	-0.211	-0.101	
16.165	-0.239	-0.123	
16.170	-0.245	-0.155	
16.175	-0.304	-0.189	
16.180	-0.376	-0.228	
16.185	-0.422	-0.273	
16.190	-0.393	-0.319	
16.195	-0.365	-0.356	
16.200	-0.338	-0.375	
16.205	-0.321	-0.379	
16.210	-0.344	-0.371	
16.215	-0.362	-0.363	
16.220	-0.341	-0.356	
16.225	-0.320	-0.351	
16.230	-0.277	-0.341	
16.235	-0.226	-0.324	
16.240	-0.165	-0.297	
16.245	-0.188	-0.264	
16.250	-0.155	-0.230	
16.255	-0.089	-0.199	
16.260	-0.153	-0.169	
16.265	-0.298	-0.155	
16.270	-0.430	-0.174	
16.275	-0.511	-0.228	
16.280	-0.517	-0.303	
16.285	-0.407	-0.374	
16.290	-0.278	-0.414	
16.295	-0.211	-0.412	
16.300	-0.061	-0.370	
16.305	0.266	-0.284	
16.310	0.452	-0.147	
16.315	0.553	0.027	
16.320	0.631	0.209	
16.325	0.667	0.374	
16.330	0.606	0.505	
16.335	0.596	0.590	
16.340	0.744	0.641	
16.345	0.758	0.678	
16.350	0.952	0.720	
16.355	1.191	0.785	
16.360	1.197	0.881	
16.365	1.071	0.981	
16.370	1.126	1.055	
16.375	1.107	1.101	
16.380	1.054	1.123	
16.385	1.084	1.125	
16.390	1.265	1.126	
16.395	1.291	1.144	
16.400	1.289	1.179	
16.405	1.245	1.215	
16.410	1.121	1.234	
16.415	1.058	1.226	
16.420	0.984	1.190	
16.425	0.806	1.130	
16.430	0.519	1.035	
16.435	0.392	0.901	
16.440	0.244	0.740	
16.445	0.001	0.565	
16.450	-0.086	0.382	
16.455	-0.121	0.208	
16.460	-0.158	0.062	
16.465	-0.240	-0.053	
16.470	-0.248	-0.140	
16.475	-0.255	-0.203	
16.480	-0.254	-0.243	
16.485	-0.231	-0.264	
16.490	-0.187	-0.267	
16.495	-0.260	-0.259	
16.500	-0.249	-0.252	
16.505	-0.208	-0.246	
16.510	-0.222	-0.239	
16.515	-0.225	-0.232	
16.520	-0.174	-0.224	
16.525	-0.162	-0.213	
16.530	-0.170	-0.199	
16.535	-0.126	-0.185	
16.540	-0.055	-0.165	
16.545	-0.148	-0.143	
16.550	-0.190	-0.131	
16.555	-0.127	-0.131	
16.560	-0.141	-0.134	
16.565	-0.203	-0.139	
16.570	-0.202	-0.150	
16.575	-0.184	-0.164	
16.580	-0.202	-0.177	
16.585	-0.161	-0.185	
16.590	-0.104	-0.184	
16.595	-0.115	-0.171	
16.600	-0.060	-0.152	
16.605	0.017	-0.124	
16.610	-0.048	-0.091	
16.615	-0.057	-0.064	
16.620	-0.045	-0.049	
16.625	0.006	-0.039	
16.630	0.039	-0.026	
16.635	0.094	-0.007	
16.640	0.157	0.022	
16.645	0.209	0.060	
16.650	0.307	0.109	
16.655	0.397	0.169	
16.660	0.302	0.232	
16.665	0.041	0.268	
16.670	-0.057	0.252	
16.675	-0.074	0.190	
16.680	-0.089	0.112	
16.685	-0.013	0.040	
16.690	0.331	0.008	
16.695	0.621	0.049	
16.700	0.842	0.172	
16.705	1.204	0.362	
16.710	1.266	0.597	
16.715	1.175	0.829	
16.720	1.230	1.014	
16.725	1.152	1.138	
16.730	1.013	1.199	
16.735	1.045	1.203	
16.740	1.078	1.175	
16.745	0.981	1.138	
16.750	0.933	1.093	
16.755	0.918	1.043	
16.760	0.739	0.987	
16.765	0.628	0.917	
16.770	0.644	0.836	
16.775	0.638	0.759	
16.780	0.583	0.697	
16.785	0.670	0.652	
16.790	0.748	0.633	
16.795	0.537	0.631	
16.800	0.482	0.620	
16.805	0.544	0.595	
16.810	0.481	0.567	
16.815	0.369	0.536	
16.820	0.301	0.491	
16.825	0.255	0.435	
16.830	0.116	0.370	
16.835	0.136	0.299	
16.840	0.140	0.233	
16.845	-0.016	0.176	
16.850	-0.011	0.120	
16.855	0.029	0.070	
16.860	0.010	0.035	
16.865	-0.008	0.013	
16.870	0.004	0.000	
16.875	-0.011	-0.007	
16.880	-0.055	-0.012	
16.885	-0.019	-0.019	
16.890	0.087	-0.019	
16.895	0.030	-0.007	
16.900	0.010	0.007	
16.905	0.056	0.018	
16.910	0.044	0.028	
16.915	-0.042	0.032	
16.920	-0.071	0.023	
16.925	-0.063	0.003	
16.930	-0.078	-0.020	
16.935	-0.063	-0.041	
16.940	-0.057	-0.055	
16.945	-0.118	-0.066	
16.950	-0.145	-0.079	
16.955	-0.113	-0.095	
16.960	-0.170	-0.110	
16.965	-0.245	-0.130	
16.970	-0.207	-0.155	
16.975	-0.196	-0.179	
16.980	-0.205	-0.194	
16.985	-0.181	-0.202	
16.990	-0.129	-0.201	
16.995	-0.181	-0.192	
17.000	-0.211	-0.184	
17.005	-0.156	-0.181	
17.010	-0.179	-0.179	
17.015	-0.217	-0.179	
17.020	-0.194	-0.183	
17.025	-0.213	-0.189	
17.030	-0.252	-0.197	
17.035	-0.200	-0.207	
17.040	-0.141	-0.211	
17.045	-0.174	-0.204	
17.050	-0.164	-0.193	
17.055	-0.129	-0.181	
17.060	-0.284	-0.174	
17.065	-0.457	-0.192	
17.070	-0.572	-0.247	
17.075	-0.617	-0.331	
17.080	-0.607	-0.422	
17.085	-0.533	-0.498	
17.090	-0.408	-0.540	
17.095	-0.350	-0.539	
17.100	-0.237	-0.501	
17.105	-0.060	-0.431	
17.110	0.010	-0.333	
17.115	0.017	-0.224	
17.120	0.070	-0.124	
17.125	0.039	-0.043	
17.130	-0.087	0.008	
17.135	-0.104	0.020	
17.140	-0.116	0.004	
17.145	-0.174	-0.029	
17.150	-0.156	-0.068	
17.155	-0.072	-0.101	
17.160	-0.089	-0.116	
17.165	-0.098	-0.118	
17.170	-0.014	-0.111	
17.175	0.035	-0.092	
17.180	0.088	-0.058	
17.185	0.188	-0.013	
17.190	0.287	0.047	
17.195	0.270	0.115	
17.200	0.284	0.178	
17.205	0.347	0.231	
17.210	0.340	0.276	
17.215	0.299	0.308	
17.220	0.285	0.323	
17.225	0.318	0.326	
17.230	0.172	0.317	
17.235	0.101	0.290	
17.240	0.189	0.249	
17.245	0.061	0.208	
17.250	0.070	0.167	
17.255	0.145	0.132	
17.260	0.082	0.111	
17.265	0.039	0.096	
17.270	0.114	0.084	
17.275	0.120	0.080	
17.280	0.061	0.083	
17.285	0.350	0.096	
17.290	0.756	0.155	
17.295	0.897	0.282	
17.300	1.046	0.459	
17.305	1.249	0.657	
17.310	1.303	0.856	
17.315	1.324	1.035	
17.320	1.300	1.175	
17.325	1.181	1.262	
17.330	1.032	1.288	
17.335	0.897	1.255	
17.340	0.779	1.173	
17.345	0.596	1.057	
17.350	0.508	0.919	
17.355	0.499	0.779	
17.360	0.343	0.652	
17.365	0.209	0.533	
17.370	0.223	0.422	
17.375	0.223	0.330	
17.380	0.134	0.261	
17.385	0.110	0.206	
17.390	0.136	0.164	
17.395	0.023	0.132	
17.400	0.015	0.100	
17.405	0.094	0.073	
17.410	0.053	0.058	
17.415	-0.005	0.049	
17.420	-0.035	0.036	
17.425	-0.051	0.017	
17.430	-0.110	-0.007	
17.435	-0.034	-0.031	
17.440	0.024	-0.045	
17.445	-0.019	-0.043	
17.450	-0.028	-0.036	
17.455	-0.129	-0.036	
17.460	-0.356	-0.058	
17.465	-0.538	-0.122	
17.470	-0.588	-0.224	
17.475	-0.570	-0.339	
17.480	-0.483	-0.434	
17.485	-0.332	-0.487	
17.490	-0.133	-0.483	
17.495	-0.054	-0.421	
17.500	-0.013	-0.325	
17.505	0.084	-0.218	
17.510	0.085	-0.113	
17.515	-0.029	-0.031	
17.520	-0.051	0.014	
17.525	-0.002	0.028	
17.530	-0.022	0.026	
17.535	-0.034	0.016	
17.540	0.064	0.008	
17.545	0.000	0.006	
17.550	-0.009	0.007	
17.555	0.094	0.009	
17.560	0.033	0.019	
17.565	0.012	0.028	
17.570	0.093	0.034	
17.575	0.174	0.048	
17.580	0.172	0.074	
17.585	0.273	0.110	
17.590	0.420	0.160	
17.595	0.386	0.224	
17.600	0.360	0.286	
17.605	0.348	0.331	
17.610	0.230	0.351	
17.615	0.149	0.340	
17.620	0.120	0.302	
17.625	0.041	0.248	
17.630	-0.086	0.181	
17.635	-0.103	0.103	
17.640	-0.103	0.028	
17.645	-0.210	-0.038	
17.650	-0.150	-0.094	
17.655	-0.129	-0.134	
17.660	-0.152	-0.155	
17.665	-0.177	-0.164	
17.670	-0.155	-0.169	
17.675	-0.142	-0.170	
17.680	-0.196	-0.168	
17.685	-0.213	-0.170	
17.690	-0.144	-0.175	
17.695	-0.147	-0.175	
17.700	-0.153	-0.170	
17.705	-0.107	-0.162	
17.710	-0.127	-0.151	
17.715	-0.152	-0.141	
17.720	-0.156	-0.138	
17.725	-0.138	-0.138	
17.730	-0.115	-0.138	
17.735	-0.086	-0.133	
17.740	-0.063	-0.123	
17.745	-0.139	-0.111	
17.750	-0.119	-0.106	
17.755	-0.124	-0.107	
17.760	-0.199	-0.114	
17.765	-0.246	-0.132	
17.770	-0.234	-0.159	
17.775	-0.229	-0.186	
17.780	-0.257	-0.209	
17.785	-0.249	-0.228	
17.790	-0.210	-0.239	
17.795	-0.208	-0.241	
17.800	-0.217	-0.237	
17.805	-0.184	-0.229	
17.810	-0.217	-0.220	
17.815	-0.228	-0.214	
17.820	-0.138	-0.209	
17.825	-0.098	-0.196	
17.830	-0.139	-0.175	
17.835	-0.110	-0.155	
17.840	-0.016	-0.134	
17.845	-0.025	-0.106	
17.850	0.072	-0.073	
17.855	0.076	-0.034	
17.860	-0.222	-0.009	
17.865	-0.508	-0.035	
17.870	-0.637	-0.128	
17.875	-0.614	-0.260	
17.880	-0.575	-0.390	
17.885	-0.362	-0.480	
17.890	-0.107	-0.501	
17.895	0.032	-0.444	
17.900	0.136	-0.329	
17.905	0.295	-0.185	
17.910	0.290	-0.033	
17.915	0.241	0.099	
17.920	0.347	0.198	
17.925	0.424	0.272	
17.930	0.386	0.332	
17.935	0.444	0.375	
17.940	0.527	0.411	
17.945	0.426	0.441	
17.950	0.392	0.456	
17.955	0.490	0.458	
17.960	0.464	0.459	
17.965	0.362	0.457	
17.970	0.371	0.444	
17.975	0.478	0.428	
17.980	0.496	0.426	
17.985	0.533	0.438	
17.990	0.585	0.463	
17.995	0.501	0.491	
18.000	0.525	0.512	
18.005	0.563	0.525	
18.010	0.449	0.532	
18.015	0.334	0.520	
18.020	0.301	0.483	
18.025	0.263	0.431	
18.030	0.059	0.367	
18.035	-0.058	0.283	
18.040	-0.097	0.182	
18.045	-0.159	0.080	
18.050	-0.214	-0.014	
18.055	-0.231	-0.095	
18.060	-0.277	-0.162	
18.065	-0.278	-0.214	
18.070	-0.272	-0.251	
18.075	-0.298	-0.274	
18.080	-0.350	-0.292	
18.085	-0.309	-0.307	
18.090	-0.252	-0.314	
18.095	-0.260	-0.309	
18.100	-0.225	-0.295	
18.105	-0.185	-0.276	
18.110	-0.219	-0.253	
18.115	-0.255	-0.235	
18.120	-0.269	-0.229	
18.125	-0.257	-0.233	
18.130	-0.324	-0.242	
18.135	-0.287	-0.257	
18.140	-0.226	-0.269	
18.145	-0.226	-0.270	
18.150	-0.220	-0.262	
18.155	-0.211	-0.250	
18.160	-0.240	-0.239	
18.165	-0.304	-0.235	
18.170	-0.309	-0.243	
18.175	-0.280	-0.258	
18.180	-0.326	-0.273	
18.185	-0.323	-0.287	
18.190	-0.271	-0.299	
18.195	-0.355	-0.306	
18.200	-0.332	-0.313	
18.205	-0.301	-0.320	
18.210	-0.309	-0.321	
18.215	-0.344	-0.321	
18.220	-0.324	-0.323	
18.225	-0.307	-0.324	
18.230	-0.379	-0.326	
18.235	-0.416	-0.335	
18.240	-0.373	-0.350	
18.245	-0.335	-0.363	
18.250	-0.266	-0.362	
18.255	-0.139	-0.341	
18.260	-0.167	-0.301	
18.265	-0.402	-0.266	
18.270	-0.683	-0.276	
18.275	-0.870	-0.352	
18.280	-0.929	-0.479	
18.285	-0.845	-0.618	
18.290	-0.672	-0.724	
18.295	-0.514	-0.767	
18.300	-0.355	-0.742	
18.305	-0.291	-0.662	
18.310	-0.307	-0.558	
18.315	-0.303	-0.460	
18.320	-0.358	-0.385	
18.325	-0.430	-0.344	
18.330	-0.492	-0.339	
18.335	-0.428	-0.359	
18.340	-0.350	-0.381	
18.345	-0.312	-0.388	
18.350	-0.255	-0.377	
18.355	-0.216	-0.349	
18.360	-0.179	-0.311	
18.365	-0.142	-0.268	
18.370	-0.112	-0.224	
18.375	-0.083	-0.182	
18.380	-0.083	-0.144	
18.385	0.000	-0.110	
18.390	0.180	-0.069	
18.395	0.229	-0.009	
18.400	0.325	0.067	
18.405	0.470	0.154	
18.410	0.434	0.247	
18.415	0.385	0.326	
18.420	0.405	0.379	
18.425	0.325	0.406	
18.430	0.230	0.403	
18.435	0.229	0.374	
18.440	0.159	0.330	
18.445	-0.003	0.272	
18.450	-0.069	0.198	
18.455	-0.086	0.114	
18.460	-0.107	0.036	
18.465	-0.135	-0.029	
18.470	-0.127	-0.079	
18.475	-0.112	-0.112	
18.480	-0.121	-0.130	
18.485	-0.110	-0.136	
18.490	-0.086	-0.133	
18.495	-0.103	-0.125	
18.500	-0.130	-0.118	
18.505	-0.106	-0.114	
18.510	-0.089	-0.111	
18.515	-0.081	-0.106	
18.520	-0.064	-0.098	
18.525	0.033	-0.085	
18.530	0.064	-0.059	
18.535	0.075	-0.025	
18.540	0.146	0.013	
18.545	0.127	0.052	
18.550	0.160	0.088	
18.555	0.145	0.116	
18.560	0.081	0.133	
18.565	0.064	0.134	
18.570	-0.048	0.117	
18.575	-0.161	0.078	
18.580	-0.255	0.016	
18.585	-0.249	-0.060	
18.590	-0.271	-0.134	
18.595	-0.390	-0.200	
18.600	-0.483	-0.266	
18.605	-0.498	-0.335	
18.610	-0.543	-0.401	
18.615	-0.584	-0.459	
18.620	-0.576	-0.508	
18.625	-0.570	-0.545	
18.630	-0.552	-0.567	
18.635	-0.512	-0.574	
18.640	-0.416	-0.564	
18.645	-0.379	-0.534	
18.650	-0.321	-0.490	
18.655	-0.231	-0.435	
18.660	-0.199	-0.374	
18.665	-0.210	-0.313	
18.670	-0.249	-0.265	
18.675	-0.346	-0.242	
18.680	-0.520	-0.253	
18.685	-0.619	-0.304	
18.690	-0.570	-0.380	
18.695	-0.511	-0.453	
18.700	-0.387	-0.496	
18.705	-0.226	-0.495	
18.710	-0.060	-0.445	
18.715	0.259	-0.342	
18.720	0.473	-0.186	
18.725	0.594	0.009	
18.730	0.670	0.210	
18.735	0.770	0.395	
18.740	0.843	0.554	
18.745	0.820	0.681	
18.750	0.913	0.775	
18.755	1.149	0.853	
18.760	1.138	0.934	
18.765	1.141	1.013	
18.770	1.243	1.080	
18.775	1.292	1.140	
18.780	1.164	1.190	
18.785	1.132	1.214	
18.790	1.161	1.213	
18.795	1.089	1.199	
18.800	1.066	1.174	
18.805	1.196	1.148	
18.810	1.208	1.139	
18.815	1.171	1.145	
18.820	1.150	1.154	
18.825	1.138	1.158	
18.830	0.930	1.147	
18.835	0.777	1.104	
18.840	0.808	1.031	
18.845	0.689	0.947	
18.850	0.571	0.858	
18.855	0.519	0.765	
18.860	0.371	0.669	
18.865	0.175	0.565	
18.870	0.114	0.448	
18.875	0.090	0.330	
18.880	0.056	0.228	
18.885	-0.005	0.144	
18.890	0.185	0.087	
18.895	0.345	0.076	
18.900	0.467	0.118	
18.905	0.718	0.209	
18.910	0.762	0.338	
18.915	0.758	0.478	
18.920	0.748	0.598	
18.925	0.707	0.683	
18.930	0.651	0.729	
18.935	0.615	0.738	
18.940	0.690	0.725	
18.945	0.551	0.702	
18.950	0.550	0.669	
18.955	0.695	0.638	
18.960	0.738	0.628	
18.965	0.739	0.642	
18.970	0.738	0.666	
18.975	0.754	0.692	
18.980	0.673	0.712	
18.985	0.536	0.712	
18.990	0.450	0.682	
18.995	0.293	0.621	
19.000	0.318	0.539	
19.005	0.369	0.459	
19.010	0.394	0.402	
19.015	0.299	0.367	
19.020	0.267	0.340	
19.025	0.279	0.315	
19.030	0.194	0.292	
19.035	0.175	0.266	
19.040	0.243	0.240	
19.045	0.148	0.220	
19.050	0.030	0.196	
19.055	0.145	0.164	
19.060	0.252	0.145	
19.065	0.255	0.150	
19.070	0.232	0.171	
19.075	0.201	0.192	
19.080	-0.038	0.194	
19.085	-0.210	0.156	
19.090	-0.269	0.075	
19.095	-0.396	-0.032	
19.100	-0.401	-0.146	
19.105	-0.295	-0.244	
19.110	-0.225	-0.303	
19.115	-0.104	-0.315	
19.120	-0.035	-0.285	
19.125	0.146	-0.219	
19.130	0.261	-0.122	
19.135	0.287	-0.008	
19.140	0.414	0.108	
19.145	0.382	0.213	
19.150	0.374	0.298	
19.155	0.484	0.359	
19.160	0.418	0.404	
19.165	0.357	0.429	
19.170	0.339	0.430	
19.175	0.406	0.417	
19.180	0.285	0.401	
19.185	0.304	0.378	
19.190	0.331	0.353	
19.195	0.288	0.334	
19.200	0.229	0.315	
19.205	0.292	0.296	
19.210	0.307	0.283	
19.215	0.350	0.283	
19.220	0.394	0.295	
19.225	0.424	0.318	
19.230	0.343	0.344	
19.235	0.316	0.360	
19.240	0.357	0.362	
19.245	0.188	0.353	
19.250	0.023	0.318	
19.255	0.056	0.255	
19.260	0.009	0.184	
19.265	-0.095	0.114	
19.270	-0.158	0.043	
19.275	-0.155	-0.026	
19.280	-0.251	-0.088	
19.285	-0.248	-0.144	
19.290	-0.156	-0.187	
19.295	-0.205	-0.209	
19.300	-0.202	-0.216	
19.305	-0.110	-0.213	
19.310	-0.074	-0.195	
19.315	-0.037	-0.164	
19.320	0.145	-0.119	
19.325	0.266	-0.050	
19.330	0.276	0.036	
19.335	0.328	0.125	
19.340	0.405	0.207	
19.345	0.311	0.276	
19.350	0.272	0.319	
19.355	0.301	0.335	
19.360	0.223	0.331	
19.365	0.058	0.305	
19.370	0.049	0.254	
19.375	0.067	0.192	
19.380	-0.008	0.134	
19.385	-0.034	0.082	
19.390	-0.029	0.036	
19.395	-0.095	-0.002	
19.400	-0.136	-0.036	
19.405	-0.103	-0.068	
19.410	-0.113	-0.093	
19.415	-0.156	-0.110	
19.420	-0.202	-0.127	
19.425	-0.199	-0.147	
19.430	-0.258	-0.169	
19.435	-0.246	-0.193	
19.440	-0.171	-0.212	
19.445	-0.216	-0.219	
19.450	-0.269	-0.223	
19.455	-0.239	-0.229	
19.460	-0.295	-0.238	
19.465	-0.303	-0.251	
19.470	-0.234	-0.263	
19.475	-0.214	-0.266	
19.480	-0.222	-0.259	
19.485	-0.219	-0.248	
19.490	-0.327	-0.243	
19.495	-0.508	-0.259	
19.500	-0.573	-0.307	
19.505	-0.543	-0.376	
19.510	-0.500	-0.440	
19.515	-0.460	-0.482	
19.520	-0.324	-0.495	
19.525	-0.213	-0.471	
19.530	-0.187	-0.415	
19.535	-0.087	-0.342	
19.540	0.116	-0.255	
19.545	0.122	-0.152	
19.550	0.108	-0.052	
19.555	0.142	0.029	
19.560	0.081	0.085	
19.565	0.108	0.116	
19.570	0.247	0.135	
19.575	0.301	0.161	
19.580	0.168	0.191	
19.585	0.212	0.210	
19.590	0.269	0.220	
19.595	0.322	0.234	
19.600	0.377	0.257	
19.605	0.455	0.292	
19.610	0.437	0.334	
19.615	0.432	0.375	
19.620	0.530	0.410	
19.625	0.596	0.448	
19.630	0.539	0.488	
19.635	0.508	0.519	
19.640	0.562	0.536	
19.645	0.481	0.543	
19.650	0.443	0.537	
19.655	0.453	0.519	
19.660	0.290	0.490	
19.665	0.090	0.437	
19.670	0.082	0.356	
19.675	0.143	0.269	
19.680	0.003	0.193	
19.685	-0.045	0.125	
19.690	-0.025	0.064	
19.695	-0.048	0.015	
19.700	-0.026	-0.018	
19.705	0.023	-0.035	
19.710	0.024	-0.035	
19.715	0.003	-0.025	
19.720	0.082	-0.010	
19.725	0.180	0.015	
19.730	0.101	0.050	
19.735	0.119	0.080	
19.740	0.232	0.107	
19.745	0.195	0.136	
19.750	0.165	0.162	
19.755	0.259	0.181	
19.760	0.221	0.198	
19.765	0.146	0.210	
19.770	0.180	0.208	
19.775	0.321	0.208	
19.780	0.203	0.216	
19.785	0.072	0.217	
19.790	0.148	0.200	
19.795	0.078	0.176	
19.800	-0.016	0.144	
19.805	0.020	0.105	
19.810	0.046	0.070	
19.815	0.049	0.047	
19.820	0.067	0.037	
19.825	0.146	0.040	
19.830	0.310	0.065	
19.835	0.518	0.125	
19.840	0.742	0.227	
19.845	0.673	0.359	
19.850	0.683	0.486	
19.855	0.744	0.587	
19.860	0.654	0.658	
19.865	0.603	0.694	
19.870	0.675	0.701	
19.875	0.716	0.698	
19.880	0.570	0.691	
19.885	0.582	0.673	
19.890	0.684	0.651	
19.895	0.435	0.630	
19.900	0.021	0.576	
19.905	-0.173	0.458	
19.910	-0.268	0.287	
19.915	-0.257	0.106	
19.920	-0.158	-0.046	
19.925	-0.022	-0.140	
19.930	0.058	-0.167	
19.935	0.249	-0.133	
19.940	0.423	-0.047	
19.945	0.325	0.069	
19.950	0.308	0.178	
19.955	0.330	0.257	
19.960	0.292	0.306	
19.965	0.292	0.330	
19.970	0.385	0.339	
19.975	0.386	0.347	
19.980	0.295	0.354	
19.985	0.284	0.351	
19.990	0.307	0.338	
19.995	0.223	0.321	
20.000	0.174	0.296	
20.005	0.198	0.265	
20.010	0.145	0.234	
20.015	0.160	0.205	
20.020	0.301	0.188	
20.025	0.391	0.199	
20.030	0.385	0.235	
20.035	0.482	0.285	
20.040	0.557	0.345	
20.045	0.525	0.409	
20.050	0.450	0.460	
20.055	0.342	0.481	
20.060	0.178	0.464	
20.065	0.075	0.405	
20.070	0.088	0.321	
20.075	0.056	0.234	
20.080	-0.061	0.155	
20.085	-0.110	0.079	
20.090	-0.095	0.010	
20.095	-0.132	-0.046	
20.100	-0.159	-0.089	
20.105	-0.126	-0.120	
20.110	-0.156	-0.139	
20.115	-0.211	-0.153	
20.120	-0.188	-0.167	
20.125	-0.179	-0.178	
20.130	-0.222	-0.186	
20.135	-0.226	-0.195	
20.140	-0.162	-0.202	
20.145	-0.150	-0.201	
20.150	-0.152	-0.191	
20.155	-0.153	-0.179	
20.160	-0.181	-0.170	
20.165	-0.217	-0.167	
20.170	-0.216	-0.174	
20.175	-0.197	-0.184	
20.180	-0.208	-0.193	
20.185	-0.193	-0.199	
20.190	-0.159	-0.200	
20.195	-0.208	-0.196	
20.200	-0.231	-0.196	
20.205	-0.199	-0.200	
20.210	-0.246	-0.205	
20.215	-0.320	-0.216	
20.220	-0.321	-0.238	
20.225	-0.301	-0.263	
20.230	-0.313	-0.283	
20.235	-0.324	-0.299	
20.240	-0.283	-0.309	
20.245	-0.306	-0.312	
20.250	-0.321	-0.312	
20.255	-0.255	-0.310	
20.260	-0.232	-0.301	
20.265	-0.236	-0.285	
20.270	-0.200	-0.266	
20.275	-0.202	-0.247	
20.280	-0.223	-0.230	
20.285	-0.171	-0.217	
20.290	-0.075	-0.200	
20.295	-0.072	-0.173	
20.300	-0.133	-0.144	
20.305	-0.289	-0.132	
20.310	-0.514	-0.158	
20.315	-0.689	-0.235	
20.320	-0.677	-0.347	
20.325	-0.599	-0.461	
20.330	-0.498	-0.541	
20.335	-0.280	-0.567	
20.340	-0.081	-0.528	
20.345	-0.058	-0.434	
20.350	-0.013	-0.318	
20.355	0.091	-0.202	
20.360	0.097	-0.095	
20.365	0.090	-0.007	
20.370	0.178	0.058	
20.375	0.287	0.113	
20.380	0.292	0.168	
20.385	0.321	0.218	
20.390	0.369	0.263	
20.395	0.328	0.301	
20.400	0.348	0.327	
20.405	0.409	0.346	
20.410	0.394	0.363	
20.415	0.331	0.375	
20.420	0.423	0.380	
20.425	0.537	0.391	
20.430	0.479	0.416	
20.435	0.504	0.444	
20.440	0.626	0.473	
20.445	0.522	0.505	
20.450	0.464	0.526	
20.455	0.508	0.530	
20.460	0.467	0.524	
20.465	0.316	0.505	
20.470	0.229	0.464	
20.475	0.154	0.401	
20.480	0.006	0.321	
20.485	-0.080	0.227	
20.490	-0.098	0.127	
20.495	-0.162	0.034	
20.500	-0.170	-0.045	
20.505	-0.184	-0.108	
20.510	-0.223	-0.153	
20.515	-0.271	-0.189	
20.520	-0.272	-0.220	
20.525	-0.310	-0.246	
20.530	-0.375	-0.272	
20.535	-0.353	-0.300	
20.540	-0.274	-0.321	
20.545	-0.286	-0.327	
20.550	-0.295	-0.322	
20.555	-0.210	-0.310	
20.560	-0.200	-0.289	
20.565	-0.208	-0.264	
20.570	-0.199	-0.240	
20.575	-0.194	-0.221	
20.580	-0.223	-0.208	
20.585	-0.203	-0.202	
20.590	-0.118	-0.197	
20.595	-0.155	-0.185	
20.600	-0.214	-0.175	
20.605	-0.232	-0.175	
20.610	-0.277	-0.187	
20.615	-0.292	-0.208	
20.620	-0.332	-0.235	
20.625	-0.399	-0.267	
20.630	-0.417	-0.305	
20.635	-0.385	-0.342	
20.640	-0.371	-0.369	
20.645	-0.373	-0.384	
20.650	-0.365	-0.388	
20.655	-0.323	-0.385	
20.660	-0.332	-0.374	
20.665	-0.361	-0.362	
20.670	-0.347	-0.354	
20.675	-0.309	-0.347	
20.680	-0.332	-0.340	
20.685	-0.342	-0.334	
20.690	-0.275	-0.329	
20.695	-0.258	-0.319	
20.700	-0.269	-0.304	
20.705	-0.158	-0.285	
20.710	-0.145	-0.256	
20.715	-0.373	-0.233	
20.720	-0.659	-0.250	
20.725	-0.827	-0.328	
20.730	-0.902	-0.455	
20.735	-0.831	-0.592	
20.740	-0.679	-0.701	
20.745	-0.511	-0.749	
20.750	-0.358	-0.729	
20.755	-0.207	-0.651	
20.760	-0.141	-0.535	
20.765	-0.112	-0.406	
20.770	-0.064	-0.288	
20.775	-0.023	-0.189	
20.780	-0.049	-0.113	
20.785	-0.014	-0.061	
20.790	0.072	-0.024	
20.795	0.009	0.005	
20.800	-0.003	0.022	
20.805	0.172	0.034	
20.810	0.157	0.057	
20.815	0.023	0.081	
20.820	-0.008	0.087	
20.825	-0.040	0.072	
20.830	-0.097	0.043	
20.835	-0.049	0.008	
20.840	0.070	-0.017	
20.845	0.049	-0.019	
20.850	0.056	-0.007	
20.855	0.061	0.011	
20.860	0.009	0.026	
20.865	-0.116	0.027	
20.870	-0.184	0.004	
20.875	-0.216	-0.041	
20.880	-0.320	-0.098	
20.885	-0.359	-0.164	
20.890	-0.350	-0.231	
20.895	-0.428	-0.289	
20.900	-0.463	-0.342	
20.905	-0.460	-0.388	
20.910	-0.482	-0.425	
20.915	-0.533	-0.456	
20.920	-0.540	-0.483	
20.925	-0.538	-0.506	
20.930	-0.562	-0.525	
20.935	-0.483	-0.536	
20.940	-0.411	-0.532	
20.945	-0.391	-0.510	
20.950	-0.346	-0.476	
20.955	-0.318	-0.437	
20.960	-0.327	-0.397	
20.965	-0.333	-0.364	
20.970	-0.326	-0.342	
20.975	-0.263	-0.325	
20.980	-0.226	-0.307	
20.985	-0.185	-0.283	
20.990	-0.133	-0.252	
20.995	-0.156	-0.219	
21.000	-0.145	-0.189	
21.005	-0.078	-0.164	
21.010	-0.074	-0.139	
21.015	-0.136	-0.117	
21.020	-0.164	-0.109	
21.025	-0.127	-0.112	
21.030	-0.159	-0.119	
21.035	-0.173	-0.129	
21.040	-0.135	-0.140	
21.045	-0.207	-0.149	
21.050	-0.213	-0.161	
21.055	-0.177	-0.175	
21.060	-0.167	-0.183	
21.065	-0.182	-0.185	
21.070	-0.156	-0.184	
21.075	-0.129	-0.178	
21.080	-0.174	-0.169	
21.085	-0.179	-0.164	
21.090	-0.197	-0.165	
21.095	-0.287	-0.175	
21.100	-0.301	-0.197	
21.105	-0.312	-0.227	
21.110	-0.269	-0.255	
21.115	-0.258	-0.273	
21.120	-0.236	-0.278	
21.125	-0.300	-0.277	
21.130	-0.518	-0.288	
21.135	-0.671	-0.333	
21.140	-0.695	-0.411	
21.145	-0.708	-0.502	
21.150	-0.621	-0.580	
21.155	-0.462	-0.622	
21.160	-0.339	-0.615	
21.165	-0.171	-0.559	
21.170	0.127	-0.454	
21.175	0.369	-0.297	
21.180	0.424	-0.106	
21.185	0.472	0.085	
21.190	0.592	0.254	
21.195	0.585	0.394	
21.200	0.599	0.499	
21.205	0.799	0.577	
21.210	1.048	0.659	
21.215	1.168	0.765	
21.220	1.310	0.893	
21.225	1.445	1.032	
21.230	1.396	1.168	
21.235	1.456	1.283	
21.240	1.447	1.367	
21.245	1.356	1.420	
21.250	1.436	1.442	
21.255	1.584	1.455	
21.260	1.656	1.481	
21.265	1.738	1.527	
21.270	1.934	1.594	
21.275	2.071	1.687	
21.280	2.042	1.796	
21.285	2.106	1.899	
21.290	2.172	1.988	
21.295	1.986	2.054	
21.300	1.821	2.075	
21.305	1.682	2.040	
21.310	1.436	1.951	
21.315	1.168	1.812	
21.320	1.055	1.631	
21.325	0.962	1.437	
21.330	0.626	1.243	
21.335	0.411	1.039	
21.340	0.501	0.837	
21.345	0.372	0.666	
21.350	0.284	0.529	
21.355	0.353	0.424	
21.360	0.371	0.357	
21.365	0.204	0.318	
21.370	0.264	0.288	
21.375	0.360	0.271	
21.380	0.307	0.272	
21.385	0.296	0.281	
21.390	0.360	0.291	
21.395	0.255	0.302	
21.400	0.181	0.299	
21.405	0.247	0.283	
21.410	0.241	0.265	
21.415	0.125	0.247	
21.420	0.017	0.216	
21.425	-0.034	0.166	
21.430	-0.112	0.104	
21.435	-0.164	0.034	
21.440	-0.158	-0.034	
21.445	-0.197	-0.092	
21.450	-0.087	-0.133	
21.455	0.101	-0.142	
21.460	0.142	-0.108	
21.465	0.049	-0.051	
21.470	0.059	-0.000	
21.475	0.064	0.036	
21.480	-0.020	0.054	
21.485	-0.066	0.052	
21.490	-0.066	0.031	
21.495	-0.084	0.002	
21.500	-0.110	-0.029	
21.505	-0.051	-0.055	
21.510	-0.061	-0.070	
21.515	-0.080	-0.076	
21.520	-0.034	-0.077	
21.525	0.127	-0.064	
21.530	0.067	-0.033	
21.535	-0.005	0.000	
21.540	-0.098	0.015	
21.545	-0.336	-0.006	
21.550	-0.466	-0.072	
21.555	-0.446	-0.170	
21.560	-0.472	-0.272	
21.565	-0.508	-0.359	
21.570	-0.453	-0.425	
21.575	-0.272	-0.457	
21.580	-0.130	-0.440	
21.585	0.046	-0.373	
21.590	0.301	-0.259	
21.595	0.348	-0.110	
21.600	0.319	0.045	
21.605	0.440	0.178	
21.610	0.458	0.288	
21.615	0.437	0.371	
21.620	0.489	0.427	
21.625	0.655	0.472	
21.630	0.689	0.521	
21.635	0.774	0.579	
21.640	0.809	0.641	
21.645	0.631	0.693	
21.650	0.579	0.713	
21.655	0.678	0.705	
21.660	0.654	0.690	
21.665	0.539	0.672	
21.670	0.589	0.646	
21.675	0.646	0.623	
21.680	0.486	0.606	
21.685	0.423	0.580	
21.690	0.486	0.544	
21.695	0.398	0.509	
21.700	0.263	0.469	
21.705	0.267	0.417	
21.710	0.224	0.362	
21.715	0.149	0.308	
21.720	0.056	0.251	
21.725	-0.016	0.189	
21.730	-0.121	0.118	
21.735	-0.135	0.044	
21.740	-0.129	-0.025	
21.745	-0.176	-0.080	
21.750	-0.190	-0.124	
21.755	-0.168	-0.155	
21.760	-0.187	-0.175	
21.765	-0.190	-0.187	
21.770	-0.156	-0.191	
21.775	-0.087	-0.185	
21.780	-0.098	-0.168	
21.785	-0.081	-0.145	
21.790	-0.017	-0.120	
21.795	-0.023	-0.092	
21.800	-0.035	-0.066	
21.805	-0.017	-0.046	
21.810	-0.066	-0.034	
21.815	-0.095	-0.033	
21.820	-0.013	-0.039	
21.825	0.049	-0.038	
21.830	0.039	-0.025	
21.835	-0.003	-0.008	
21.840	0.134	0.009	
21.845	0.070	0.032	
21.850	0.035	0.051	
21.855	0.067	0.061	
21.860	0.078	0.066	
21.865	-0.016	0.065	
21.870	-0.037	0.054	
21.875	-0.017	0.033	
21.880	-0.093	0.009	
21.885	-0.083	-0.017	
21.890	-0.042	-0.041	
21.895	-0.101	-0.058	
21.900	-0.106	-0.071	
21.905	-0.121	-0.085	
21.910	-0.119	-0.097	
21.915	-0.136	-0.108	
21.920	-0.075	-0.115	
21.925	0.017	-0.110	
21.930	-0.017	-0.090	
21.935	0.085	-0.060	
21.940	0.285	-0.014	
21.945	0.273	0.054	
21.950	0.050	0.118	
21.955	-0.141	0.139	
21.960	-0.310	0.098	
21.965	-0.381	0.007	
21.970	-0.359	-0.105	
21.975	-0.307	-0.205	
21.980	-0.320	-0.277	
21.985	-0.257	-0.316	
21.990	-0.032	-0.317	
21.995	0.122	-0.268	
22.000	0.233	-0.174	
22.005	0.351	-0.053	
22.010	0.307	0.074	
22.015	0.218	0.178	
22.020	0.308	0.244	
22.025	0.446	0.291	
22.030	0.388	0.333	
22.035	0.376	0.367	
22.040	0.460	0.389	
22.045	0.447	0.409	
22.050	0.394	0.423	
22.055	0.473	0.431	
22.060	0.508	0.441	
22.065	0.473	0.455	
22.070	0.574	0.472	
22.075	0.669	0.498	
22.080	0.576	0.534	
22.085	0.618	0.566	
22.090	0.692	0.593	
22.095	0.544	0.614	
22.100	0.411	0.612	
22.105	0.432	0.581	
22.110	0.331	0.533	
22.115	0.154	0.468	
22.120	0.154	0.387	
22.125	0.209	0.306	
22.130	-0.005	0.236	
22.135	-0.034	0.166	
22.140	0.015	0.098	
22.145	-0.072	0.043	
22.150	-0.112	-0.003	
22.155	-0.069	-0.042	
22.160	-0.074	-0.068	
22.165	-0.142	-0.085	
22.170	-0.145	-0.101	
22.175	-0.115	-0.115	
22.180	-0.174	-0.127	
22.185	-0.176	-0.138	
22.190	-0.084	-0.147	
22.195	-0.129	-0.146	
22.200	-0.179	-0.142	
22.205	-0.155	-0.144	
22.210	-0.075	-0.144	
22.215	-0.097	-0.136	
22.220	-0.083	-0.123	
22.225	-0.064	-0.109	
22.230	-0.121	-0.098	
22.235	-0.106	-0.093	
22.240	-0.014	-0.089	
22.245	-0.072	-0.081	
22.250	-0.135	-0.075	
22.255	-0.126	-0.080	
22.260	-0.147	-0.092	
22.265	-0.231	-0.111	
22.270	-0.281	-0.141	
22.275	-0.266	-0.179	
22.280	-0.362	-0.218	
22.285	-0.381	-0.261	
22.290	-0.318	-0.300	
22.295	-0.338	-0.327	
22.300	-0.321	-0.340	
22.305	-0.275	-0.342	
22.310	-0.303	-0.334	
22.315	-0.352	-0.325	
22.320	-0.339	-0.323	
22.325	-0.300	-0.324	
22.330	-0.333	-0.323	
22.335	-0.330	-0.323	
22.340	-0.272	-0.322	
22.345	-0.242	-0.313	
22.350	-0.251	-0.298	
22.355	-0.210	-0.279	
22.360	-0.229	-0.260	
22.365	-0.338	-0.249	
22.370	-0.515	-0.263	
22.375	-0.587	-0.312	
22.380	-0.634	-0.385	
22.385	-0.579	-0.463	
22.390	-0.422	-0.518	
22.395	-0.280	-0.528	
22.400	-0.171	-0.488	
22.405	-0.063	-0.411	
22.410	0.030	-0.309	
22.415	0.027	-0.201	
22.420	0.084	-0.103	
22.425	0.194	-0.018	
22.430	0.160	0.057	
22.435	0.449	0.127	
22.440	0.799	0.224	
22.445	0.846	0.364	
22.450	0.843	0.519	
22.455	0.866	0.657	
22.460	0.814	0.759	
22.465	0.712	0.818	
22.470	0.754	0.833	
22.475	0.987	0.835	
22.480	1.008	0.855	
22.485	1.065	0.894	
22.490	1.234	0.950	
22.495	1.202	1.021	
22.500	1.116	1.086	
22.505	1.204	1.132	
22.510	1.179	1.163	
22.515	1.000	1.174	
22.520	0.944	1.153	
22.525	0.921	1.105	
22.530	0.702	1.039	
22.535	0.625	0.951	
22.540	0.686	0.854	
22.545	0.528	0.765	
22.550	0.452	0.681	
22.555	0.444	0.601	
22.560	0.336	0.528	
22.565	0.169	0.454	
22.570	0.104	0.370	
22.575	0.088	0.281	
22.580	-0.019	0.198	
22.585	-0.026	0.122	
22.590	0.029	0.060	
22.595	-0.097	0.015	
22.600	-0.083	-0.021	
22.605	0.006	-0.047	
22.610	0.111	-0.049	
22.615	0.108	-0.025	
22.620	0.117	0.011	
22.625	0.178	0.051	
22.630	0.079	0.087	
22.635	0.070	0.107	
22.640	0.165	0.115	
22.645	0.131	0.122	
22.650	0.114	0.128	
22.655	0.177	0.132	
22.660	0.178	0.140	
22.665	0.107	0.147	
22.670	0.099	0.146	
22.675	0.015	0.134	
22.680	-0.101	0.104	
22.685	-0.138	0.055	
22.690	-0.107	-0.001	
22.695	-0.124	-0.051	
22.700	-0.129	-0.088	
22.705	-0.080	-0.111	
22.710	-0.092	-0.120	
22.715	-0.142	-0.121	
22.720	-0.104	-0.121	
22.725	-0.019	-0.116	
22.730	-0.046	-0.101	
22.735	-0.034	-0.081	
22.740	-0.042	-0.064	
22.745	-0.098	-0.053	
22.750	-0.139	-0.056	
22.755	-0.037	-0.066	
22.760	0.059	-0.066	
22.765	0.030	-0.048	
22.770	0.130	-0.019	
22.775	0.117	0.017	
22.780	-0.176	0.041	
22.785	-0.408	0.015	
22.790	-0.515	-0.070	
22.795	-0.553	-0.191	
22.800	-0.506	-0.313	
22.805	-0.335	-0.403	
22.810	-0.133	-0.433	
22.815	-0.057	-0.399	
22.820	0.127	-0.314	
22.825	0.264	-0.193	
22.830	0.165	-0.060	
22.835	0.122	0.050	
22.840	0.188	0.122	
22.845	0.333	0.173	
22.850	0.479	0.228	
22.855	0.560	0.298	
22.860	0.559	0.377	
22.865	0.466	0.446	
22.870	0.475	0.488	
22.875	0.533	0.508	
22.880	0.382	0.513	
22.885	0.333	0.496	
22.890	0.412	0.463	
22.895	0.405	0.434	
22.900	0.282	0.409	
22.905	0.371	0.383	
22.910	0.414	0.366	
22.915	0.400	0.364	
22.920	0.499	0.374	
22.925	0.515	0.399	
22.930	0.305	0.422	
22.935	0.249	0.419	
22.940	0.241	0.388	
22.945	0.078	0.339	
22.950	-0.023	0.269	
22.955	-0.051	0.184	
22.960	-0.087	0.099	
22.965	-0.208	0.019	
22.970	-0.281	-0.061	
22.975	-0.307	-0.138	
22.980	-0.350	-0.208	
22.985	-0.346	-0.267	
22.990	-0.283	-0.307	
22.995	-0.269	-0.325	
23.000	-0.304	-0.326	
23.005	-0.254	-0.318	
23.010	-0.229	-0.304	
23.015	-0.255	-0.285	
23.020	-0.249	-0.269	
23.025	-0.182	-0.255	
23.030	-0.208	-0.239	
23.035	-0.232	-0.225	
23.040	-0.182	-0.216	
23.045	-0.211	-0.209	
23.050	-0.255	-0.207	
23.055	-0.263	-0.213	
23.060	-0.258	-0.225	
23.065	-0.291	-0.238	
23.070	-0.269	-0.252	
23.075	-0.191	-0.260	
23.080	-0.213	-0.255	
23.085	-0.213	-0.244	
23.090	-0.170	-0.231	
23.095	-0.222	-0.218	
23.100	-0.268	-0.211	
23.105	-0.249	-0.216	
23.110	-0.277	-0.226	
23.115	-0.350	-0.243	
23.120	-0.349	-0.267	
23.125	-0.332	-0.294	
23.130	-0.382	-0.317	
23.135	-0.390	-0.338	
23.140	-0.362	-0.357	
23.145	-0.355	-0.368	
23.150	-0.405	-0.373	
23.155	-0.371	-0.378	
23.160	-0.352	-0.380	
23.165	-0.378	-0.378	
23.170	-0.333	-0.373	
23.175	-0.237	-0.361	
23.180	-0.223	-0.336	
23.185	-0.162	-0.301	
23.190	-0.032	-0.255	
23.195	-0.156	-0.203	
23.200	-0.468	-0.177	
23.205	-0.672	-0.213	
23.210	-0.790	-0.312	
23.215	-0.822	-0.445	
23.220	-0.714	-0.573	
23.225	-0.550	-0.660	
23.230	-0.434	-0.684	
23.235	-0.313	-0.650	
23.240	-0.196	-0.571	
23.245	-0.182	-0.468	
23.250	-0.174	-0.365	
23.255	-0.144	-0.278	
23.260	-0.139	-0.211	
23.265	-0.141	-0.166	
23.270	-0.013	-0.133	
23.275	0.191	-0.091	
23.280	0.125	-0.031	
23.285	0.038	0.027	
23.290	0.099	0.064	
23.295	-0.022	0.080	
23.300	-0.083	0.072	
23.305	-0.097	0.042	
23.310	-0.046	0.004	
23.315	-0.009	-0.024	
23.320	0.162	-0.029	
23.325	0.372	0.005	
23.330	0.351	0.079	
23.335	0.409	0.170	
23.340	0.524	0.261	
23.345	0.461	0.346	
23.350	0.365	0.408	
23.355	0.385	0.435	
23.360	0.307	0.435	
23.365	0.101	0.405	
23.370	-0.052	0.337	
23.375	-0.119	0.236	
23.380	-0.239	0.118	
23.385	-0.292	-0.003	
23.390	-0.271	-0.112	
23.395	-0.347	-0.200	
23.400	-0.456	-0.271	
23.405	-0.477	-0.337	
23.410	-0.512	-0.395	
23.415	-0.592	-0.448	
23.420	-0.605	-0.497	
23.425	-0.576	-0.539	
23.430	-0.636	-0.571	
23.435	-0.634	-0.596	
23.440	-0.555	-0.611	
23.445	-0.555	-0.612	
23.450	-0.561	-0.602	
23.455	-0.509	-0.587	
23.460	-0.500	-0.567	
23.465	-0.524	-0.547	
23.470	-0.474	-0.529	
23.475	-0.398	-0.509	
23.480	-0.390	-0.482	
23.485	-0.365	-0.450	
23.490	-0.294	-0.417	
23.495	-0.295	-0.382	
23.500	-0.281	-0.347	
23.505	-0.216	-0.316	
23.510	-0.226	-0.285	
23.515	-0.291	-0.262	
23.520	-0.280	-0.252	
23.525	-0.236	-0.251	
23.530	-0.260	-0.251	
23.535	-0.240	-0.250	
23.540	-0.202	-0.247	
23.545	-0.208	-0.240	
23.550	-0.213	-0.230	
23.555	-0.176	-0.220	
23.560	-0.147	-0.207	
23.565	-0.138	-0.191	
23.570	-0.069	-0.170	
23.575	0.010	-0.141	
23.580	-0.063	-0.106	
23.585	-0.061	-0.077	
23.590	0.047	-0.055	
23.595	0.017	-0.032	
23.600	0.030	-0.009	
23.605	0.212	0.017	
23.610	0.194	0.056	
23.615	-0.006	0.093	
23.620	-0.170	0.094	
23.625	-0.321	0.047	
23.630	-0.417	-0.042	
23.635	-0.405	-0.150	
23.640	-0.274	-0.245	
23.645	-0.197	-0.299	
23.650	-0.092	-0.306	
23.655	0.186	-0.262	
23.660	0.431	-0.159	
23.665	0.487	-0.008	
23.670	0.655	0.162	
23.675	0.771	0.335	
23.680	0.673	0.490	
23.685	0.602	0.602	
23.690	0.730	0.666	
23.695	0.731	0.703	
23.700	0.718	0.726	
23.705	0.790	0.740	
23.710	0.881	0.757	
23.715	0.872	0.783	
23.720	0.895	0.814	
23.725	1.023	0.849	
23.730	1.118	0.897	
23.735	1.318	0.966	
23.740	1.575	1.068	
23.745	1.688	1.205	
23.750	1.740	1.358	
23.755	1.870	1.508	
23.760	1.902	1.644	
23.765	1.888	1.756	
23.770	1.996	1.841	
23.775	1.995	1.907	
23.780	1.964	1.954	
23.785	2.012	1.983	
23.790	2.099	2.004	
23.795	2.108	2.028	
23.800	2.255	2.061	
23.805	2.493	2.118	
23.810	2.537	2.205	
23.815	2.322	2.298	
23.820	2.137	2.349	
23.825	2.120	2.343	
23.830	1.999	2.294	
23.835	1.876	2.216	
23.840	1.833	2.118	
23.845	1.726	2.014	
23.850	1.556	1.907	
23.855	1.526	1.796	
23.860	1.349	1.685	
23.865	1.107	1.565	
23.870	1.029	1.430	
23.875	1.066	1.294	
23.880	0.930	1.178	
23.885	0.874	1.078	
23.890	0.950	0.998	
23.895	0.880	0.943	
23.900	0.791	0.903	
23.905	0.748	0.865	
23.910	0.695	0.824	
23.915	0.544	0.776	
23.920	0.541	0.716	
23.925	0.498	0.652	
23.930	0.340	0.587	
23.935	0.327	0.516	
23.940	0.311	0.446	
23.945	0.162	0.381	
23.950	0.094	0.312	
23.955	0.097	0.241	
23.960	0.148	0.182	
23.965	0.036	0.139	
23.970	-0.045	0.101	
23.975	-0.051	0.058	
23.980	-0.109	0.015	
23.985	-0.098	-0.026	
23.990	-0.058	-0.058	
23.995	-0.113	-0.078	
24.000	-0.170	-0.095	
24.005	-0.144	-0.113	
24.010	-0.138	-0.128	
24.015	-0.194	-0.141	
24.020	-0.196	-0.154	
24.025	-0.103	-0.164	
24.030	-0.071	-0.160	
24.035	0.012	-0.140	
24.040	-0.045	-0.108	
24.045	-0.317	-0.091	
24.050	-0.588	-0.124	
24.055	-0.712	-0.219	
24.060	-0.724	-0.352	
24.065	-0.695	-0.484	
24.070	-0.556	-0.583	
24.075	-0.353	-0.624	
24.080	-0.287	-0.600	
24.085	-0.251	-0.532	
24.090	-0.153	-0.444	
24.095	-0.156	-0.352	
24.100	-0.181	-0.271	
24.105	-0.161	-0.213	
24.110	-0.135	-0.174	
24.115	-0.144	-0.150	
24.120	-0.078	-0.133	
24.125	-0.005	-0.114	
24.130	-0.045	-0.090	
24.135	-0.028	-0.067	
24.140	0.023	-0.047	
24.145	0.017	-0.027	
24.150	-0.034	-0.011	
24.155	-0.034	-0.005	
24.160	-0.002	-0.006	
24.165	-0.032	-0.009	
24.170	0.012	-0.011	
24.175	0.090	-0.006	
24.180	0.093	0.010	
24.185	0.120	0.035	
24.190	0.165	0.064	
24.195	0.076	0.090	
24.200	0.012	0.102	
24.205	-0.049	0.091	
24.210	-0.087	0.061	
24.215	-0.202	0.015	
24.220	-0.248	-0.044	
24.225	-0.274	-0.110	
24.230	-0.362	-0.175	
24.235	-0.425	-0.241	
24.240	-0.428	-0.304	
24.245	-0.443	-0.359	
24.250	-0.472	-0.402	
24.255	-0.478	-0.435	
24.260	-0.492	-0.460	
24.265	-0.475	-0.476	
24.270	-0.408	-0.482	
24.275	-0.368	-0.473	
24.280	-0.410	-0.452	
24.285	-0.407	-0.433	
24.290	-0.379	-0.417	
24.295	-0.401	-0.404	
24.300	-0.394	-0.396	
24.305	-0.347	-0.390	
24.310	-0.320	-0.380	
24.315	-0.367	-0.367	
24.320	-0.333	-0.357	
24.325	-0.301	-0.348	
24.330	-0.350	-0.339	
24.335	-0.341	-0.333	
24.340	-0.271	-0.329	
24.345	-0.327	-0.322	
24.350	-0.365	-0.319	
24.355	-0.335	-0.323	
24.360	-0.336	-0.328	
24.365	-0.423	-0.336	
24.370	-0.425	-0.353	
24.375	-0.399	-0.373	
24.380	-0.453	-0.391	
24.385	-0.456	-0.409	
24.390	-0.408	-0.424	
24.395	-0.376	-0.429	
24.400	-0.382	-0.424	
24.405	-0.364	-0.412	
24.410	-0.320	-0.397	
24.415	-0.339	-0.378	
24.420	-0.304	-0.359	
24.425	-0.248	-0.338	
24.430	-0.326	-0.318	
24.435	-0.313	-0.305	
24.440	-0.225	-0.297	
24.445	-0.187	-0.282	
24.450	-0.161	-0.257	
24.455	-0.084	-0.225	
24.460	-0.016	-0.184	
24.465	-0.165	-0.142	
24.470	-0.399	-0.130	
24.475	-0.588	-0.172	
24.480	-0.749	-0.268	
24.485	-0.734	-0.396	
24.490	-0.640	-0.517	
24.495	-0.526	-0.599	
24.500	-0.353	-0.623	
24.505	-0.220	-0.587	
24.510	-0.156	-0.504	
24.515	-0.132	-0.402	
24.520	-0.116	-0.302	
24.525	-0.104	-0.218	
24.530	-0.168	-0.160	
24.535	-0.118	-0.127	
24.540	0.078	-0.103	
24.545	0.148	-0.063	
24.550	0.094	-0.011	
24.555	0.094	0.037	
24.560	-0.025	0.066	
24.565	-0.109	0.065	
24.570	-0.113	0.036	
24.575	-0.074	-0.004	
24.580	-0.115	-0.040	
24.585	-0.142	-0.071	
24.590	-0.084	-0.095	
24.595	-0.083	-0.108	
24.600	-0.049	-0.108	
24.605	0.085	-0.093	
24.610	0.139	-0.056	
24.615	0.052	-0.008	
24.620	0.000	0.028	
24.625	0.041	0.045	
24.630	-0.072	0.045	
24.635	-0.133	0.026	
24.640	-0.155	-0.011	
24.645	-0.205	-0.057	
24.650	-0.262	-0.107	
24.655	-0.327	-0.161	
24.660	-0.399	-0.218	
24.665	-0.474	-0.280	
24.670	-0.501	-0.344	
24.675	-0.474	-0.402	
24.680	-0.517	-0.447	
24.685	-0.549	-0.481	
24.690	-0.501	-0.507	
24.695	-0.469	-0.519	
24.700	-0.511	-0.520	
24.705	-0.466	-0.514	
24.710	-0.466	-0.505	
24.715	-0.492	-0.494	
24.720	-0.417	-0.484	
24.725	-0.342	-0.467	
24.730	-0.349	-0.439	
24.735	-0.344	-0.408	
24.740	-0.304	-0.380	
24.745	-0.310	-0.354	
24.750	-0.309	-0.333	
24.755	-0.242	-0.315	
24.760	-0.174	-0.293	
24.765	-0.187	-0.264	
24.770	-0.155	-0.233	
24.775	-0.107	-0.203	
24.780	-0.118	-0.173	
24.785	-0.081	-0.146	
24.790	-0.077	-0.122	
24.795	-0.150	-0.106	
24.800	-0.171	-0.103	
24.805	-0.150	-0.113	
24.810	-0.107	-0.123	
24.815	-0.133	-0.129	
24.820	-0.110	-0.130	
24.825	-0.025	-0.124	
24.830	-0.061	-0.108	
24.835	-0.038	-0.089	
24.840	0.004	-0.070	
24.845	-0.046	-0.051	
24.850	-0.061	-0.039	
24.855	0.000	-0.034	
24.860	0.133	-0.022	
24.865	0.056	0.003	
24.870	0.139	0.032	
24.875	0.287	0.069	
24.880	0.188	0.116	
24.885	0.194	0.157	
24.890	0.227	0.186	
24.895	-0.087	0.191	
24.900	-0.320	0.146	
24.905	-0.365	0.047	
24.910	-0.370	-0.076	
24.915	-0.339	-0.189	
24.920	-0.214	-0.268	
24.925	0.023	-0.292	
24.930	0.191	-0.249	
24.935	0.333	-0.148	
24.940	0.603	-0.003	
24.945	0.715	0.172	
24.950	0.709	0.353	
24.955	0.826	0.514	
24.960	0.903	0.648	
24.965	0.722	0.750	
24.970	0.678	0.801	
24.975	0.788	0.810	
24.980	0.751	0.804	
24.985	0.735	0.792	
24.990	0.858	0.782	
24.995	0.829	0.784	
25.000	0.848	0.796	
25.005	0.857	0.811	
25.010	0.933	0.830	
25.015	0.953	0.855	
25.020	1.045	0.889	
25.025	1.208	0.938	
25.030	1.167	1.002	
25.035	1.162	1.066	
25.040	1.171	1.116	
25.045	1.052	1.145	
25.050	0.903	1.140	
25.055	0.893	1.101	
25.060	0.887	1.043	
25.065	0.692	0.977	
25.070	0.637	0.899	
25.075	0.580	0.812	
25.080	0.290	0.715	
25.085	0.145	0.596	
25.090	0.192	0.463	
25.095	0.156	0.344	
25.100	0.091	0.249	
25.105	0.156	0.179	
25.110	0.191	0.139	
25.115	0.096	0.123	
25.120	0.099	0.115	
25.125	0.166	0.111	
25.130	0.088	0.112	
25.135	0.068	0.111	
25.140	0.223	0.111	
25.145	0.250	0.126	
25.150	0.181	0.151	
25.155	0.235	0.175	
25.160	0.229	0.195	
25.165	0.094	0.205	
25.170	0.064	0.195	
25.175	0.252	0.175	
25.180	0.110	0.165	
25.185	0.013	0.151	
25.190	0.140	0.130	
25.195	0.227	0.119	
25.200	0.084	0.123	
25.205	0.088	0.125	
25.210	0.140	0.121	
25.215	0.081	0.118	
25.220	0.081	0.112	
25.225	0.110	0.105	
25.230	0.007	0.096	
25.235	-0.031	0.078	
25.240	0.030	0.054	
25.245	-0.002	0.033	
25.250	-0.051	0.016	
25.255	-0.005	-0.000	
25.260	0.000	-0.011	
25.265	-0.077	-0.018	
25.270	-0.045	-0.028	
25.275	0.049	-0.032	
25.280	0.062	-0.024	
25.285	0.087	-0.003	
25.290	0.178	0.027	
25.295	0.208	0.067	
25.300	0.244	0.113	
25.305	0.310	0.161	
25.310	0.311	0.209	
25.315	0.067	0.240	
25.320	-0.220	0.222	
25.325	-0.304	0.140	
25.330	-0.349	0.020	
25.335	-0.323	-0.104	
25.340	-0.239	-0.202	
25.345	-0.179	-0.259	
25.350	-0.040	-0.268	
25.355	0.263	-0.223	
25.360	0.431	-0.117	
25.365	0.429	0.028	
25.370	0.478	0.176	
25.375	0.620	0.308	
25.380	0.620	0.425	
25.385	0.611	0.517	
25.390	0.609	0.581	
25.395	0.516	0.613	
25.400	0.450	0.612	
25.405	0.556	0.590	
25.410	0.615	0.570	
25.415	0.563	0.564	
25.420	0.609	0.565	
25.425	0.738	0.578	
25.430	0.683	0.605	
25.435	0.632	0.633	
25.440	0.719	0.653	
25.445	0.702	0.670	
25.450	0.588	0.680	
25.455	0.704	0.679	
25.460	0.858	0.684	
25.465	0.771	0.708	
25.470	0.673	0.731	
25.475	0.585	0.732	
25.480	0.359	0.699	
25.485	0.353	0.630	
25.490	0.392	0.547	
25.495	0.285	0.471	
25.500	0.136	0.397	
25.505	0.220	0.324	
25.510	0.215	0.264	
25.515	0.088	0.220	
25.520	0.094	0.180	
25.525	0.177	0.148	
25.530	0.073	0.129	
25.535	0.050	0.113	
25.540	0.124	0.098	
25.545	0.059	0.089	
25.550	0.018	0.080	
25.555	0.090	0.070	
25.560	0.148	0.067	
25.565	0.036	0.073	
25.570	0.081	0.077	
25.575	0.212	0.083	
25.580	0.122	0.100	
25.585	0.101	0.115	
25.590	0.223	0.127	
25.595	0.177	0.142	
25.600	0.030	0.152	
25.605	0.020	0.140	
25.610	0.136	0.118	
25.615	0.038	0.101	
25.620	0.012	0.084	
25.625	0.020	0.064	
25.630	-0.097	0.040	
25.635	-0.129	0.007	
25.640	-0.087	-0.031	
25.645	-0.095	-0.062	
25.650	-0.162	-0.086	
25.655	-0.179	-0.110	
25.660	-0.145	-0.132	
25.665	-0.220	-0.150	
25.670	-0.281	-0.172	
25.675	-0.237	-0.197	
25.680	-0.255	-0.220	
25.685	-0.252	-0.237	
25.690	-0.173	-0.245	
25.695	-0.197	-0.240	
25.700	-0.228	-0.230	
25.705	-0.219	-0.223	
25.710	-0.147	-0.216	
25.715	-0.170	-0.204	
25.720	-0.095	-0.187	
25.725	0.070	-0.158	
25.730	-0.009	-0.113	
25.735	-0.138	-0.074	
25.740	-0.277	-0.067	
25.745	-0.451	-0.104	
25.750	-0.562	-0.183	
25.755	-0.527	-0.285	
25.760	-0.413	-0.377	
25.765	-0.344	-0.430	
25.770	-0.223	-0.438	
25.775	-0.052	-0.400	
25.780	0.029	-0.322	
25.785	0.065	-0.220	
25.790	0.156	-0.115	
25.795	0.145	-0.018	
25.800	0.035	0.055	
25.805	0.116	0.096	
25.810	0.217	0.121	
25.815	0.197	0.145	
25.820	0.272	0.171	
25.825	0.386	0.204	
25.830	0.247	0.242	
25.835	0.252	0.269	
25.840	0.347	0.283	
25.845	0.318	0.296	
25.850	0.255	0.304	
25.855	0.342	0.307	
25.860	0.515	0.318	
25.865	0.496	0.351	
25.870	0.492	0.395	
25.875	0.553	0.437	
25.880	0.443	0.471	
25.885	0.385	0.485	
25.890	0.472	0.480	
25.895	0.423	0.470	
25.900	0.308	0.453	
25.905	0.321	0.424	
25.910	0.290	0.389	
25.915	0.108	0.346	
25.920	0.096	0.289	
25.925	0.223	0.232	
25.930	0.214	0.196	
25.935	0.133	0.178	
25.940	0.097	0.163	
25.945	-0.037	0.139	
25.950	-0.121	0.097	
25.955	-0.061	0.043	
25.960	0.023	-0.002	
25.965	-0.003	-0.025	
25.970	0.015	-0.030	
25.975	0.049	-0.023	
25.980	-0.031	-0.012	
25.985	-0.045	-0.007	
25.990	0.030	-0.007	
25.995	0.010	-0.005	
26.000	-0.057	-0.003	
26.005	-0.048	-0.009	
26.010	-0.002	-0.017	
26.015	-0.103	-0.025	
26.020	-0.112	-0.039	
26.025	-0.035	-0.055	
26.030	-0.078	-0.065	
26.035	-0.132	-0.073	
26.040	-0.045	-0.081	
26.045	-0.029	-0.082	
26.050	-0.144	-0.078	
26.055	-0.177	-0.085	
26.060	-0.148	-0.102	
26.065	-0.214	-0.124	
26.070	-0.229	-0.149	
26.075	-0.181	-0.173	
26.080	-0.222	-0.190	
26.085	-0.187	-0.201	
26.090	-0.153	-0.204	
26.095	-0.170	-0.198	
26.100	-0.237	-0.192	
26.105	-0.197	-0.193	
26.110	-0.115	-0.192	
26.115	-0.159	-0.183	
26.120	-0.135	-0.171	
26.125	-0.058	-0.156	
26.130	-0.075	-0.135	
26.135	-0.054	-0.112	
26.140	0.050	-0.086	
26.145	0.116	-0.050	
26.150	0.021	-0.009	
26.155	-0.147	0.013	
26.160	-0.342	-0.007	
26.165	-0.552	-0.079	
26.170	-0.549	-0.192	
26.175	-0.428	-0.308	
26.180	-0.336	-0.389	
26.185	-0.208	-0.417	
26.190	0.023	-0.388	
26.195	0.056	-0.306	
26.200	-0.009	-0.204	
26.205	0.039	-0.113	
26.210	0.087	-0.040	
26.215	-0.022	0.012	
26.220	0.035	0.039	
26.225	0.434	0.067	
26.230	0.629	0.140	
26.235	0.647	0.257	
26.240	0.690	0.388	
26.245	0.693	0.507	
26.250	0.588	0.594	
26.255	0.536	0.639	
26.260	0.534	0.644	
26.265	0.385	0.619	
26.270	0.368	0.570	
26.275	0.553	0.518	
26.280	0.600	0.492	
26.285	0.641	0.499	
26.290	0.785	0.534	
26.295	0.808	0.591	
26.300	0.733	0.655	
26.305	0.707	0.703	
26.310	0.747	0.731	
26.315	0.547	0.736	
26.320	0.423	0.707	
26.325	0.417	0.646	
26.330	0.284	0.568	
26.335	0.140	0.476	
26.340	0.148	0.376	
26.345	0.061	0.281	
26.350	-0.052	0.192	
26.355	-0.037	0.109	
26.360	-0.040	0.041	
26.365	-0.147	-0.013	
26.370	-0.162	-0.060	
26.375	-0.132	-0.099	
26.380	-0.196	-0.129	
26.385	-0.203	-0.154	
26.390	-0.181	-0.173	
26.395	-0.181	-0.186	
26.400	-0.187	-0.191	
26.405	-0.152	-0.191	
26.410	-0.113	-0.183	
26.415	-0.122	-0.169	
26.420	-0.089	-0.151	
26.425	-0.037	-0.130	
26.430	-0.066	-0.106	
26.435	-0.100	-0.087	
26.440	-0.081	-0.078	
26.445	-0.083	-0.075	
26.450	-0.132	-0.077	
26.455	-0.097	-0.084	
26.460	-0.054	-0.090	
26.465	-0.153	-0.092	
26.470	-0.203	-0.103	
26.475	-0.138	-0.121	
26.480	-0.174	-0.138	
26.485	-0.188	-0.152	
26.490	-0.184	-0.164	
26.495	-0.229	-0.177	
26.500	-0.280	-0.193	
26.505	-0.239	-0.212	
26.510	-0.197	-0.227	
26.515	-0.268	-0.234	
26.520	-0.275	-0.240	
26.525	-0.182	-0.246	
26.530	-0.210	-0.242	
26.535	-0.210	-0.233	
26.540	-0.158	-0.222	
26.545	-0.155	-0.207	
26.550	-0.165	-0.190	
26.555	-0.107	-0.174	
26.560	-0.035	-0.154	
26.565	-0.052	-0.126	
26.570	0.030	-0.094	
26.575	0.085	-0.056	
26.580	-0.176	-0.027	
26.585	-0.460	-0.040	
26.590	-0.588	-0.118	
26.595	-0.648	-0.239	
26.600	-0.654	-0.372	
26.605	-0.486	-0.481	
26.610	-0.284	-0.534	
26.615	-0.161	-0.518	
26.620	-0.037	-0.444	
26.625	0.117	-0.331	
26.630	0.053	-0.203	
26.635	0.021	-0.091	
26.640	0.099	-0.010	
26.645	0.188	0.050	
26.650	0.272	0.105	
26.655	0.420	0.166	
26.660	0.522	0.240	
26.665	0.423	0.320	
26.670	0.522	0.387	
26.675	0.684	0.448	
26.680	0.567	0.509	
26.685	0.351	0.545	
26.690	0.397	0.539	
26.695	0.450	0.510	
26.700	0.386	0.479	
26.705	0.489	0.455	
26.710	0.640	0.451	
26.715	0.626	0.477	
26.720	0.545	0.514	
26.725	0.652	0.546	
26.730	0.527	0.571	
26.735	0.376	0.574	
26.740	0.374	0.546	
26.745	0.263	0.495	
26.750	0.052	0.423	
26.755	-0.026	0.325	
26.760	-0.063	0.214	
26.765	-0.185	0.104	
26.770	-0.243	-0.000	
26.775	-0.234	-0.093	
26.780	-0.315	-0.169	
26.785	-0.401	-0.234	
26.790	-0.361	-0.290	
26.795	-0.384	-0.334	
26.800	-0.416	-0.365	
26.805	-0.382	-0.387	
26.810	-0.339	-0.396	
26.815	-0.425	-0.396	
26.820	-0.423	-0.398	
26.825	-0.349	-0.400	
26.830	-0.368	-0.396	
26.835	-0.419	-0.390	
26.840	-0.370	-0.388	
26.845	-0.344	-0.385	
26.850	-0.401	-0.379	
26.855	-0.390	-0.378	
26.860	-0.342	-0.377	
26.865	-0.352	-0.373	
26.870	-0.336	-0.366	
26.875	-0.306	-0.357	
26.880	-0.349	-0.346	
26.885	-0.402	-0.342	
26.890	-0.407	-0.348	
26.895	-0.436	-0.364	
26.900	-0.494	-0.386	
26.905	-0.483	-0.413	
26.910	-0.478	-0.440	
26.915	-0.564	-0.464	
26.920	-0.593	-0.492	
26.925	-0.575	-0.522	
26.930	-0.637	-0.550	
26.935	-0.714	-0.581	
26.940	-0.743	-0.618	
26.945	-0.772	-0.660	
26.950	-0.816	-0.701	
26.955	-0.842	-0.742	
26.960	-0.802	-0.778	
26.965	-0.844	-0.803	
26.970	-0.825	-0.821	
26.975	-0.746	-0.827	
26.980	-0.726	-0.818	
26.985	-0.653	-0.794	
26.990	-0.526	-0.754	
26.995	-0.416	-0.693	
27.000	-0.371	-0.615	
27.005	-0.440	-0.536	
27.010	-0.608	-0.485	
27.015	-0.819	-0.484	
27.020	-0.865	-0.538	
27.025	-0.775	-0.619	
27.030	-0.674	-0.687	
27.035	-0.538	-0.716	
27.040	-0.280	-0.692	
27.045	-0.086	-0.607	
27.050	0.038	-0.472	
27.055	0.215	-0.310	
27.060	0.385	-0.133	
27.065	0.360	0.040	
27.070	0.360	0.186	
27.075	0.495	0.296	
27.080	0.481	0.380	
27.085	0.571	0.444	
27.090	0.718	0.502	
27.095	0.750	0.565	
27.100	0.655	0.624	
27.105	0.637	0.663	
27.110	0.748	0.683	
27.115	0.693	0.697	
27.120	0.686	0.706	
27.125	0.880	0.715	
27.130	0.880	0.742	
27.135	0.930	0.782	
27.140	0.990	0.830	
27.145	0.994	0.880	
27.150	0.916	0.922	
27.155	0.909	0.945	
27.160	0.950	0.952	
27.165	0.860	0.949	
27.170	0.783	0.931	
27.175	0.774	0.899	
27.180	0.580	0.851	
27.185	0.400	0.778	
27.190	0.414	0.682	
27.195	0.385	0.583	
27.200	0.238	0.492	
27.205	0.108	0.401	
27.210	0.151	0.311	
27.215	0.055	0.230	
27.220	0.065	0.163	
27.225	0.082	0.112	
27.230	0.111	0.082	
27.235	0.134	0.073	
27.240	0.217	0.082	
27.245	0.229	0.108	
27.250	0.149	0.139	
27.255	0.204	0.162	
27.260	0.308	0.184	
27.265	0.244	0.210	
27.270	0.224	0.231	
27.275	0.345	0.246	
27.280	0.328	0.266	
27.285	0.287	0.286	
27.290	0.295	0.298	
27.295	0.172	0.298	
27.300	-0.025	0.271	
27.305	0.091	0.217	
27.310	0.221	0.169	
27.315	0.078	0.142	
27.320	0.027	0.121	
27.325	0.081	0.098	
27.330	-0.016	0.077	
27.335	-0.057	0.052	
27.340	0.041	0.026	
27.345	0.081	0.013	
27.350	0.032	0.015	
27.355	0.076	0.024	
27.360	0.159	0.039	
27.365	0.044	0.060	
27.370	0.032	0.072	
27.375	0.204	0.079	
27.380	0.223	0.098	
27.385	0.104	0.125	
27.390	0.162	0.142	
27.395	0.204	0.153	
27.400	0.133	0.163	
27.405	0.157	0.167	
27.410	0.288	0.172	
27.415	0.227	0.187	
27.420	0.388	0.212	
27.425	0.573	0.258	
27.430	0.435	0.324	
27.435	0.055	0.365	
27.440	-0.133	0.337	
27.445	-0.265	0.239	
27.450	-0.356	0.100	
27.455	-0.335	-0.047	
27.460	-0.185	-0.167	
27.465	-0.122	-0.233	
27.470	-0.002	-0.243	
27.475	0.321	-0.194	
27.480	0.389	-0.086	
27.485	0.359	0.050	
27.490	0.476	0.180	
27.495	0.576	0.298	
27.500	0.568	0.403	
27.505	0.620	0.487	
27.510	0.567	0.548	
27.515	0.408	0.577	
27.520	0.441	0.569	
27.525	0.602	0.547	
27.530	0.553	0.537	
27.535	0.528	0.536	
27.540	0.632	0.540	
27.545	0.657	0.555	
27.550	0.499	0.573	
27.555	0.547	0.578	
27.560	0.620	0.575	
27.565	0.556	0.576	
27.570	0.554	0.576	
27.575	0.669	0.577	
27.580	0.579	0.585	
27.585	0.501	0.588	
27.590	0.586	0.581	
27.595	0.583	0.575	
27.600	0.441	0.567	
27.605	0.394	0.544	
27.610	0.411	0.508	
27.615	0.220	0.463	
27.620	0.130	0.400	
27.625	0.145	0.325	
27.630	0.055	0.249	
27.635	0.021	0.179	
27.640	0.149	0.123	
27.645	0.134	0.093	
27.650	-0.003	0.081	
27.655	0.056	0.068	
27.660	0.124	0.060	
27.665	0.001	0.059	
27.670	0.015	0.054	
27.675	0.110	0.048	
27.680	0.142	0.054	
27.685	0.128	0.071	
27.690	0.236	0.095	
27.695	0.316	0.132	
27.700	0.272	0.178	
27.705	0.366	0.225	
27.710	0.467	0.274	
27.715	0.357	0.324	
27.720	0.400	0.362	
27.725	0.481	0.389	
27.730	0.475	0.416	
27.735	0.397	0.436	
27.740	0.504	0.448	
27.745	0.489	0.458	
27.750	0.408	0.466	
27.755	0.388	0.462	
27.760	0.441	0.449	
27.765	0.331	0.434	
27.770	0.275	0.410	
27.775	0.279	0.376	
27.780	0.233	0.339	
27.785	0.218	0.303	
27.790	0.235	0.271	
27.795	0.067	0.240	
27.800	-0.055	0.195	
27.805	-0.051	0.133	
27.810	0.087	0.074	
27.815	0.006	0.038	
27.820	-0.028	0.016	
27.825	0.059	0.003	
27.830	-0.003	-0.000	
27.835	-0.035	-0.001	
27.840	0.036	-0.003	
27.845	0.107	0.004	
27.850	0.094	0.022	
27.855	0.130	0.046	
27.860	0.068	0.069	
27.865	-0.202	0.071	
27.870	-0.359	0.026	
27.875	-0.413	-0.062	
27.880	-0.495	-0.171	
27.885	-0.509	-0.282	
27.890	-0.376	-0.371	
27.895	-0.240	-0.416	
27.900	-0.184	-0.409	
27.905	-0.084	-0.362	
27.910	0.064	-0.286	
27.915	0.050	-0.191	
27.920	0.059	-0.099	
27.925	0.223	-0.017	
27.930	0.186	0.058	
27.935	0.020	0.113	
27.940	0.036	0.131	
27.945	0.070	0.123	
27.950	0.026	0.106	
27.955	0.036	0.085	
27.960	0.177	0.072	
27.965	0.061	0.073	
27.970	-0.006	0.074	
27.975	0.018	0.063	
27.980	-0.049	0.046	
27.985	-0.090	0.021	
27.990	-0.060	-0.009	
27.995	-0.054	-0.034	
28.000	-0.112	-0.053	
28.005	-0.087	-0.069	
28.010	-0.043	-0.080	
28.015	-0.074	-0.082	
28.020	-0.112	-0.081	
28.025	-0.104	-0.085	
28.030	-0.199	-0.095	
28.035	-0.255	-0.117	
28.040	-0.237	-0.150	
28.045	-0.272	-0.185	
28.050	-0.310	-0.218	
28.055	-0.284	-0.249	
28.060	-0.240	-0.269	
28.065	-0.283	-0.278	
28.070	-0.246	-0.280	
28.075	-0.153	-0.272	
28.080	-0.200	-0.252	
28.085	-0.228	-0.232	
28.090	-0.171	-0.218	
28.095	-0.153	-0.204	
28.100	-0.182	-0.190	
28.105	-0.145	-0.178	
28.110	-0.086	-0.166	
28.115	-0.071	-0.147	
28.120	-0.081	-0.125	
28.125	0.001	-0.101	
28.130	0.026	-0.074	
28.135	-0.002	-0.044	
28.140	0.076	-0.017	
28.145	0.091	0.011	
28.150	0.038	0.036	
28.155	0.056	0.052	
28.160	0.136	0.064	
28.165	0.050	0.075	
28.170	0.009	0.078	
28.175	0.029	0.070	
28.180	-0.023	0.055	
28.185	-0.026	0.035	
28.190	-0.023	0.014	
28.195	-0.032	-0.003	
28.200	-0.121	-0.021	
28.205	-0.092	-0.043	
28.210	-0.009	-0.060	
28.215	-0.054	-0.065	
28.220	-0.006	-0.061	
28.225	0.124	-0.045	
28.230	0.006	-0.018	
28.235	-0.061	0.002	
28.240	0.015	0.007	
28.245	0.096	0.011	
28.250	0.024	0.022	
28.255	-0.011	0.029	
28.260	0.143	0.034	
28.265	0.146	0.050	
28.270	0.249	0.080	
28.275	0.340	0.125	
28.280	0.343	0.183	
28.285	0.215	0.235	
28.290	0.068	0.256	
28.295	-0.182	0.227	
28.300	-0.346	0.141	
28.305	-0.350	0.017	
28.310	-0.231	-0.107	
28.315	-0.147	-0.192	
28.320	-0.029	-0.224	
28.325	0.292	-0.194	
28.330	0.423	-0.099	
28.335	0.414	0.038	
28.340	0.524	0.180	
28.345	0.530	0.308	
28.350	0.386	0.406	
28.355	0.444	0.459	
28.360	0.597	0.487	
28.365	0.637	0.516	
28.370	0.874	0.561	
28.375	1.071	0.640	
28.380	0.981	0.744	
28.385	0.895	0.840	
28.390	0.967	0.904	
28.395	0.997	0.945	
28.400	0.831	0.966	
28.405	0.843	0.960	
28.410	1.013	0.942	
28.415	1.061	0.941	
28.420	1.136	0.964	
28.425	1.312	1.012	
28.430	1.283	1.081	
28.435	1.171	1.149	
28.440	1.112	1.189	
28.445	0.974	1.190	
28.450	0.819	1.151	
28.455	0.754	1.074	
28.460	0.667	0.976	
28.465	0.408	0.863	
28.470	0.334	0.732	
28.475	0.356	0.599	
28.480	0.240	0.482	
28.485	0.056	0.377	
28.490	0.007	0.272	
28.495	-0.051	0.171	
28.500	-0.156	0.079	
28.505	-0.245	-0.010	
28.510	-0.232	-0.092	
28.515	-0.245	-0.159	
28.520	-0.265	-0.208	
28.525	-0.252	-0.242	
28.530	-0.298	-0.263	
28.535	-0.355	-0.280	
28.540	-0.321	-0.298	
28.545	-0.283	-0.311	
28.550	-0.317	-0.316	
28.555	-0.297	-0.316	
28.560	-0.237	-0.310	
28.565	-0.269	-0.298	
28.570	-0.263	-0.285	
28.575	-0.246	-0.274	
28.580	-0.284	-0.266	
28.585	-0.295	-0.264	
28.590	-0.298	-0.269	
28.595	-0.281	-0.275	
28.600	-0.312	-0.282	
28.605	-0.323	-0.290	
28.610	-0.274	-0.297	
28.615	-0.341	-0.302	
28.620	-0.350	-0.308	
28.625	-0.306	-0.317	
28.630	-0.335	-0.323	
28.635	-0.384	-0.328	
28.640	-0.358	-0.338	
28.645	-0.338	-0.347	
28.650	-0.388	-0.353	
28.655	-0.370	-0.359	
28.660	-0.332	-0.363	
28.665	-0.356	-0.362	
28.670	-0.355	-0.360	
28.675	-0.312	-0.355	
28.680	-0.298	-0.347	
28.685	-0.329	-0.336	
28.690	-0.245	-0.323	
28.695	-0.155	-0.303	
28.700	-0.159	-0.270	
28.705	-0.080	-0.229	
28.710	0.101	-0.177	
28.715	-0.042	-0.115	
28.720	-0.266	-0.075	
28.725	-0.439	-0.088	
28.730	-0.587	-0.158	
28.735	-0.653	-0.268	
28.740	-0.550	-0.385	
28.745	-0.402	-0.471	
28.750	-0.287	-0.502	
28.755	-0.086	-0.474	
28.760	0.137	-0.387	
28.765	0.137	-0.258	
28.770	0.215	-0.118	
28.775	0.264	0.011	
28.780	0.215	0.117	
28.785	0.327	0.194	
28.790	0.683	0.268	
28.795	0.935	0.376	
28.800	0.953	0.521	
28.805	0.929	0.671	
28.810	0.956	0.794	
28.815	0.817	0.877	
28.820	0.756	0.910	
28.825	0.796	0.903	
28.830	0.698	0.873	
28.835	0.667	0.829	
28.840	0.747	0.783	
28.845	0.817	0.753	
28.850	0.837	0.748	
28.855	0.939	0.765	
28.860	0.994	0.804	
28.865	0.802	0.847	
28.870	0.735	0.865	
28.875	0.793	0.856	
28.880	0.631	0.830	
28.885	0.455	0.779	
28.890	0.504	0.705	
28.895	0.412	0.625	
28.900	0.178	0.540	
28.905	0.079	0.437	
28.910	0.136	0.328	
28.915	-0.045	0.228	
28.920	-0.135	0.133	
28.925	-0.147	0.040	
28.930	-0.190	-0.042	
28.935	-0.200	-0.107	
28.940	-0.145	-0.154	
28.945	-0.158	-0.178	
28.950	-0.266	-0.191	
