Time	Potential	EKG	Unnamed: 3
0.0	0.340	0.016277478630183827	
0.005	-0.306	0.027614982876520592	
0.01	0.261	0.04725450551476387	
0.015	0.519	0.075866082642051	
0.02	-0.310	0.1052007791469907	
0.025	-0.173	0.1046285715853552	
0.03	0.524	0.08536421826911025	
0.035	-0.205	0.06925693248497389	
0.04	-0.365	0.0435022873061819	
0.045	0.444	0.01863886479220649	
0.05	0.085	0.01245422017322166	
0.055	-0.417	0.008766163264045349	
0.06	0.119	0.0001697325492211652	
0.065	0.431	7.916569115385373e-05	
0.07	-0.352	0.009624646474960308	
0.075	-0.173	0.011443843290454257	
0.08	0.563	0.01200199855576749	
0.085	-0.173	0.020468693995269592	
0.09	-0.326	0.02441159651555204	
0.095	0.496	0.027037542527037425	
0.1	0.192	0.04265496548506468	
0.105	-0.364	0.057305997470584416	
0.11	0.215	0.06584461214221465	
0.115	0.536	0.07806565934765217	
0.12	-0.306	0.0923836897487586	
0.125	-0.147	0.09422958250367477	
0.13	0.596	0.08630327791643272	
0.135	-0.130	0.08089117340636484	
0.14	-0.320	0.07251412445699845	
0.145	0.560	0.06813130139408015	
0.15	0.247	0.07886745989525307	
0.155	-0.341	0.09413978259814398	
0.16	0.236	0.1033384985203062	
0.165	0.548	0.11187787305502211	
0.17	-0.262	0.12142272866733489	
0.175	-0.049	0.12503848605018358	
0.18	0.808	0.1343577549588028	
0.185	-0.009	0.15646572998654185	
0.19	-0.210	0.17375919398905892	
0.195	0.709	0.18796502947855304	
0.2	0.426	0.2110845907207127	
0.205	-0.240	0.235221344742992	
0.21	0.452	0.2516662604769474	
0.215	0.713	0.26855272371900274	
0.22	-0.210	0.27871891661348114	
0.225	-0.042	0.2687861088913891	
0.23	0.739	0.24412844945071147	
0.235	-0.069	0.22024314957068403	
0.24	-0.281	0.19117003893956058	
0.245	0.553	0.16351503562629893	
0.25	0.250	0.14432060667963045	
0.255	-0.349	0.13057826791710514	
0.26	0.157	0.11782516109543983	
0.265	0.495	0.10206448156859316	
0.27	-0.309	0.08827707053208717	
0.275	-0.139	0.07759661945185672	
0.28	0.658	0.0726983411792256	
0.285	-0.106	0.07409335286503194	
0.29	-0.298	0.07671129234443408	
0.295	0.577	0.08494621478814224	
0.3	0.304	0.10151012096027208	
0.305	-0.329	0.11903324968693728	
0.31	0.292	0.13496164763041035	
0.315	0.599	0.14851964631894266	
0.32	-0.283	0.15686512482511114	
0.325	-0.115	0.15336960999034815	
0.33	0.790	0.14721612203574952	
0.335	0.090	0.15702621407455025	
0.34	-0.098	0.18127730857006008	
0.345	1.005	0.22828215120850848	
0.35	0.599	0.2997566664633625	
0.355	-0.313	0.35556427151071734	
0.36	-0.029	0.34689381326225976	
0.365	0.088	0.25686125927913805	
0.37	-0.562	0.11867705319142148	
0.375	-0.453	-0.013804305857900132	
0.38	0.068	-0.1294638641368641	
0.385	-0.326	-0.22500431940756876	
0.39	-0.422	-0.2679790697438377	
0.395	0.507	-0.24242524463406875	
0.4	0.402	-0.16512159022555464	
0.405	-0.213	-0.05779153095726651	
0.41	0.534	0.0621316333555147	
0.415	0.961	0.18525259163402627	
0.42	-0.049	0.2942216323209848	
0.425	0.168	0.3669976179524438	
0.43	1.057	0.4100490902765796	
0.435	0.223	0.4368357944876474	
0.44	-0.126	0.4415053835843936	
0.445	0.890	0.43089065645241775	
0.45	0.615	0.42411400029874036	
0.455	-0.152	0.4217592362990558	
0.46	0.599	0.4181392390646865	
0.465	0.961	0.42365934873628364	
0.47	-0.051	0.43303626437667364	
0.475	0.191	0.43276535153354767	
0.48	1.162	0.4343687679753703	
0.485	0.379	0.45393871030400024	
0.49	-0.003	0.4772134999759674	
0.495	1.066	0.4949378500273837	
0.5	0.843	0.5243565215208408	
0.505	-0.020	0.5546265270385373	
0.51	0.806	0.5759522709526572	
0.515	1.191	0.599834400445455	
0.52	0.096	0.6241628002305697	
0.525	0.304	0.6245284156453402	
0.53	1.176	0.6092819117686725	
0.535	0.313	0.5922107619367227	
0.54	-0.107	0.5601756479772166	
0.545	0.822	0.5126146431547614	
0.55	0.531	0.4645465798253577	
0.555	-0.251	0.4179028194485378	
0.56	0.253	0.36358573672003985	
0.565	0.541	0.29970873450046004	
0.57	-0.287	0.23263335278653602	
0.575	-0.187	0.17143318466455024	
0.58	0.568	0.11887994503455414	
0.585	-0.132	0.0755668010316993	
0.59	-0.353	0.045413779382165294	
0.595	0.411	0.031161829225930256	
0.6	0.189	0.023597902667886955	
0.605	-0.388	0.02131664263582289	
0.61	0.059	0.024301056995637123	
0.615	0.420	0.021497373650650076	
0.62	-0.324	0.014028650535425038	
0.625	-0.199	0.01238686487418322	
0.63	0.574	0.015536197862747595	
0.635	-0.115	0.020810082894609748	
0.64	-0.329	0.026563430849840013	
0.645	0.492	0.0398282152024353	
0.65	0.263	0.057665657737829966	
0.655	-0.391	0.07057674223966016	
0.66	0.041	0.07504509127895176	
0.665	0.472	0.06339672009131327	
0.67	-0.295	0.050342790178424954	
0.675	-0.193	0.0442920108807756	
0.68	0.548	0.039287398076332095	
0.685	-0.144	0.03304635613284232	
0.69	-0.350	0.026656161983529113	
0.695	0.460	0.028549387262532443	
0.7	0.229	0.03674879167252129	
0.705	-0.376	0.046798125332544585	
0.71	0.110	0.05484680264115094	
0.715	0.492	0.05832137653200545	
0.72	-0.317	0.05757784202090201	
0.725	-0.185	0.0542009788806922	
0.73	0.606	0.05210987746929137	
0.735	-0.121	0.05226181483067426	
0.74	-0.341	0.04969472964921625	
0.745	0.498	0.053295229927224345	
0.75	0.331	0.06687919401260609	
0.755	-0.339	0.08598800557083211	
0.76	0.133	0.10058548282102409	
0.765	0.631	0.10928242874896163	
0.77	-0.202	0.12088526801389543	
0.775	-0.097	0.13306281033859588	
0.78	0.733	0.143868594553622	
0.785	-0.034	0.15254171565462255	
0.79	-0.298	0.1517689295162432	
0.795	0.460	0.14294155569528955	
0.8	0.241	0.12898526370526128	
0.805	-0.407	0.11027367028816248	
0.81	-0.037	0.08330376167558591	
0.815	0.363	0.04314802754579759	
0.82	-0.359	0.004243551775712265	
0.825	-0.268	-0.02299686321613162	
0.83	0.369	-0.04243388318454764	
0.835	-0.229	-0.06322087489552397	
0.84	-0.474	-0.08306769133875888	
0.845	0.226	-0.09435464027220548	
0.85	0.084	-0.10097601023794414	
0.855	-0.433	-0.10146151507944787	
0.86	-0.009	-0.08886080648334732	
0.865	0.403	-0.07396279888057594	
0.87	-0.361	-0.059543564349549064	
0.875	-0.274	-0.04705897069499351	
0.88	0.443	-0.04060487063610542	
0.885	-0.150	-0.03805717734919329	
0.89	-0.361	-0.03501801630495832	
0.895	0.476	-0.018531088107964153	
0.9	0.386	0.016114951076730888	
0.905	-0.237	0.06365940283493149	
0.91	0.267	0.1139579702669205	
0.915	0.441	0.14600317102409696	
0.92	-0.521	0.1375994716221226	
0.925	-0.588	0.0747973123327642	
0.93	-0.225	-0.04573881213715031	
0.935	-0.585	-0.2008763139147806	
0.94	-0.731	-0.3329773502640118	
0.945	-0.095	-0.408646218373722	
0.95	-0.058	-0.43779404334570643	
0.955	-0.433	-0.41327123933440274	
0.96	0.076	-0.3350840659928741	
0.965	0.614	-0.22391601061646754	
0.97	-0.222	-0.10537832850952294	
0.975	-0.122	-0.003257470307855017	
0.98	0.745	0.07337225438863039	
0.985	0.027	0.13212634805878912	
0.99	-0.263	0.16681868356437182	
0.995	0.519	0.180363924888779	
1.0	0.302	0.18230774931301108	
1.005	-0.349	0.1715712796055312	
1.01	0.047	0.14880621398576788	
1.015	0.476	0.11522021335843084	
1.02	-0.294	0.08365081941374569	
1.025	-0.177	0.060645961794974224	
1.03	0.631	0.050445405396555	
1.035	-0.043	0.0552264610178502	
1.04	-0.291	0.06274009410659379	
1.045	0.570	0.080344975586065	
1.05	0.424	0.11143441205791539	
1.055	-0.284	0.14455180904193618	
1.06	0.269	0.16968841151287445	
1.065	0.777	0.19330629727114093	
1.07	-0.148	0.21974558593378762	
1.075	-0.075	0.2324776381937254	
1.08	0.796	0.23237060858378228	
1.085	0.064	0.23242935485253968	
1.09	-0.262	0.22471579495524735	
1.095	0.557	0.21110132656867003	
1.1	0.314	0.19856324760408187	
1.105	-0.388	0.1777495860320701	
1.11	-0.002	0.14342446137213094	
1.115	0.389	0.09521254403231048	
1.12	-0.379	0.046083306001524396	
1.125	-0.315	0.0024113209916105504	
1.13	0.299	-0.03892287052625273	
1.135	-0.266	-0.07932394886927327	
1.14	-0.521	-0.1161180858891089	
1.145	0.064	-0.14322392240408977	
1.15	-0.035	-0.17040096999568705	
1.155	-0.546	-0.1919450767982333	
1.16	-0.187	-0.19874803631929863	
1.165	0.178	-0.2029346803920095	
1.17	-0.431	-0.20667518445254454	
1.175	-0.361	-0.19760237925733165	
1.18	0.259	-0.18510978153593963	
1.185	-0.266	-0.17720763144216195	
1.19	-0.511	-0.1740593204193589	
1.195	0.130	-0.16635592884396405	
1.2	0.007	-0.16435860512603945	
1.205	-0.520	-0.16389524115484022	
1.21	-0.144	-0.15883588548763883	
1.215	0.180	-0.15990090849667787	
1.22	-0.446	-0.16764596232577766	
1.225	-0.368	-0.1706909122397791	
1.23	0.318	-0.16604269287131465	
1.235	-0.196	-0.15914238152907387	
1.24	-0.446	-0.14619115917294975	
1.245	0.235	-0.12631234078011713	
1.25	0.117	-0.10622499105786418	
1.255	-0.449	-0.09005483871637901	
1.26	-0.074	-0.07588429526138699	
1.265	0.366	-0.06968686619817002	
1.27	-0.381	-0.06773932886692235	
1.275	-0.323	-0.06686864214460282	
1.28	0.406	-0.06883618340057054	
1.285	-0.162	-0.0701009669354282	
1.29	-0.440	-0.07144070734266349	
1.295	0.285	-0.0671950158846522	
1.3	0.186	-0.058037353944601966	
1.305	-0.417	-0.04628479474397039	
1.31	-0.017	-0.03292139888276337	
1.315	0.452	-0.02442588368344094	
1.32	-0.312	-0.015862974232881112	
1.325	-0.234	-0.008049723431028286	
1.33	0.628	0.005409965545008189	
1.335	-0.029	0.027943306671929038	
1.34	-0.338	0.04728756155068114	
1.345	0.402	0.06190415924088367	
1.35	0.243	0.07015185170728605	
1.355	-0.394	0.06849189176922553	
1.36	-0.042	0.05800695132668151	
1.365	0.391	0.034820862391049576	
1.37	-0.370	0.006058170190446688	
1.375	-0.330	-0.020243829620967924	
1.38	0.333	-0.04640028549453796	
1.385	-0.219	-0.07499722319535565	
1.39	-0.491	-0.0999405569090172	
1.395	0.156	-0.11397837927281652	
1.4	0.097	-0.1236650021954273	
1.405	-0.456	-0.1257378603581365	
1.41	-0.083	-0.11499581140796361	
1.415	0.400	-0.10189738459088621	
1.42	-0.344	-0.08812538535853368	
1.425	-0.291	-0.07042623681332175	
1.43	0.498	-0.05307451542532335	
1.435	-0.109	-0.03801965889658964	
1.44	-0.394	-0.025285878694526996	
1.445	0.331	-0.01173999157423712	
1.45	0.278	0.0015344384065213374	
1.455	-0.333	0.016872482507031408	
1.46	0.226	0.04504592102852482	
1.465	0.825	0.0905035734565748	
1.47	-0.119	0.1486031261403108	
1.475	-0.161	0.1903106615469059	
1.48	0.290	0.18428491508638986	
1.485	-0.413	0.11692540955473779	
1.49	-0.787	0.0043167633594238825	
1.495	-0.310	-0.12846298502375608	
1.5	-0.304	-0.2702454645336385	
1.505	-0.686	-0.3805221916931192	
1.51	-0.167	-0.4188276046733345	
1.515	0.560	-0.38406073762742876	
1.52	-0.199	-0.29075500009665467	
1.525	-0.118	-0.16785495283867358	
1.53	0.861	-0.040134280945359736	
1.535	0.208	0.08181305781990152	
1.54	-0.203	0.17881672004897525	
1.545	0.765	0.24995978251684248	
1.55	0.672	0.30998785241138826	
1.555	-0.214	0.3518539905493875	
1.56	0.340	0.3671677035760149	
1.565	0.840	0.36438611480190014	
1.57	-0.159	0.3508958310057454	
1.575	-0.139	0.3188675202121681	
1.58	0.799	0.27831618154546556	
1.585	0.068	0.24484085688887425	
1.59	-0.265	0.21644343482280076	
1.595	0.638	0.20218719222986548	
1.6	0.589	0.2102527717258033	
1.605	-0.213	0.23155501772591833	
1.61	0.414	0.258124884361168	
1.615	0.994	0.29571893725429393	
1.62	-0.013	0.3387959994640418	
1.625	0.065	0.3666140265521941	
1.63	1.104	0.38752280192523353	
1.635	0.427	0.41798872577861773	
1.64	-0.132	0.44217694269220575	
1.645	0.822	0.4491114874608622	
1.65	0.747	0.45249294579411115	
1.655	-0.194	0.45051953021931934	
1.66	0.313	0.42987080824327994	
1.665	0.828	0.39680755386589345	
1.67	-0.164	0.3590153265155819	
1.675	-0.171	0.3104424882142182	
1.68	0.664	0.2553560965642736	
1.685	-0.045	0.19923841094618114	
1.69	-0.381	0.14624687097975145	
1.695	0.359	0.10384352159282606	
1.7	0.247	0.06959152111487257	
1.705	-0.433	0.04076110741668347	
1.71	-0.078	0.019657615497340478	
1.715	0.437	-0.0032849964632315565	
1.72	-0.344	-0.02470650174776498	
1.725	-0.326	-0.035615136365005615	
1.73	0.368	-0.045852352003045896	
1.735	-0.174	-0.06358912807493101	
1.74	-0.468	-0.07968387497920584	
1.745	0.232	-0.08234410464318728	
1.75	0.212	-0.07934455010182187	
1.755	-0.443	-0.07213236157181871	
1.76	-0.055	-0.056467807709992615	
1.765	0.498	-0.04227450994443513	
1.77	-0.323	-0.03061888375916182	
1.775	-0.304	-0.01871770987586992	
1.78	0.519	-0.01085074212436963	
1.785	-0.051	-0.004479084587448822	
1.79	-0.361	0.002221354374293353	
1.795	0.386	0.01961212778471303	
1.8	0.275	0.03478315969903385	
1.805	-0.405	0.04179063594204212	
1.81	-0.046	0.04342616189595598	
1.815	0.548	0.03687972122448446	
1.82	-0.269	0.03138714620445675	
1.825	-0.251	0.03212190071799964	
1.83	0.609	0.03827323316810066	
1.835	-0.009	0.046616247384697856	
1.84	-0.350	0.054015794715692636	
1.845	0.435	0.06664201586896143	
1.85	0.372	0.08098588020674086	
1.855	-0.356	0.09263540364042701	
1.86	0.062	0.10031986312978154	
1.865	0.680	0.10511381363989623	
1.87	-0.199	0.11335435361224608	
1.875	-0.170	0.12189555803618844	
1.88	0.770	0.13343633312446634	
1.885	0.134	0.15175412795380316	
1.89	-0.263	0.1687757556017883	
1.895	0.541	0.18463255330182587	
1.9	0.505	0.1992198888263729	
1.905	-0.300	0.20851273624785877	
1.91	0.177	0.21015409656884865	
1.915	0.840	0.21332563042438096	
1.92	-0.115	0.2234135184461602	
1.925	-0.150	0.2286515848171584	
1.93	0.773	0.22548290703795212	
1.935	0.104	0.21895511960205738	
1.94	-0.303	0.20662304308269963	
1.945	0.481	0.1935104302309457	
1.95	0.395	0.18043718342945325	
1.955	-0.382	0.16152523704537985	
1.96	-0.045	0.13592589112789302	
1.965	0.533	0.10042153687214883	
1.97	-0.271	0.06757996699194549	
1.975	-0.275	0.045482679497442044	
1.98	0.525	0.03244872381683796	
1.985	-0.040	0.022153981865486984	
1.99	-0.379	0.015539655337724771	
1.995	0.304	0.01938683801147276	
2.0	0.340	0.023608858557754388	
2.005	-0.358	0.030531837283325598	
2.01	-0.008	0.04277402146135714	
2.015	0.605	0.05154342873358537	
2.02	-0.232	0.058631487888746184	
2.025	-0.236	0.06729849502989912	
2.03	0.706	0.07852605427743711	
2.035	0.185	0.1002973537379224	
2.04	-0.213	0.13236991531807826	
2.045	0.794	0.18137091231229874	
2.05	0.922	0.25882535405982354	
2.055	-0.103	0.3454368312574244	
2.06	0.186	0.39856735917204317	
2.065	0.342	0.3796354984687438	
2.07	-0.541	0.28266167083636173	
2.075	-0.657	0.13812523298334367	
2.08	-0.161	-0.03043755640342976	
2.085	-0.393	-0.2035802835353014	
2.09	-0.582	-0.32269697779645634	
2.095	0.253	-0.34856277813399206	
2.1	0.539	-0.29604165838270957	
2.105	-0.200	-0.18370113466795246	
2.11	0.405	-0.03637694690556336	
2.115	1.045	0.11892891563038542	
2.12	0.009	0.25648914424364155	
2.125	-0.046	0.34290331415476527	
2.13	1.003	0.3858626087187099	
2.135	0.443	0.41344455421080406	
2.14	-0.121	0.4319012874035666	
2.145	0.858	0.4434912465630575	
2.15	0.864	0.4611861060604805	
2.155	-0.127	0.47705785285339414	
2.16	0.383	0.4754684512937499	
2.165	1.046	0.4651775951964816	
2.17	0.023	0.45655458405461014	
2.175	-0.003	0.4377244918621692	
2.18	1.028	0.4169159858047403	
2.185	0.441	0.41262881787935335	
2.19	-0.133	0.41482136037197787	
2.195	0.837	0.41933537763616474	
2.2	0.870	0.43632786962047554	
2.205	-0.110	0.456194732423264	
2.21	0.450	0.4652563210614596	
2.215	1.118	0.47311959591000374	
2.22	0.131	0.4868461433184688	
2.225	0.088	0.49064355651457786	
2.23	1.121	0.48860624835714117	
2.235	0.498	0.4958876159067852	
2.24	-0.121	0.4990192016485336	
2.245	0.790	0.4888946825633125	
2.25	0.745	0.4773361859571969	
2.255	-0.208	0.4576771265643858	
2.26	0.105	0.41493958853623186	
2.265	0.670	0.3497363828133183	
2.27	-0.223	0.2774027169825404	
2.275	-0.277	0.20674229227625174	
2.28	0.470	0.13996856012894754	
2.285	-0.133	0.07515930436726873	
2.29	-0.511	0.013526019942229649	
2.295	0.038	-0.03865981258271546	
2.3	0.058	-0.09283224773764956	
2.305	-0.498	-0.13865446200210235	
2.31	-0.188	-0.15722518015473097	
2.315	0.322	-0.16073667483820497	
2.32	-0.358	-0.16014292363076277	
2.325	-0.373	-0.14808834641609975	
2.33	0.371	-0.12753856992722304	
2.335	-0.106	-0.11269462886803402	
2.34	-0.448	-0.09912525797509449	
2.345	0.175	-0.08100249643914398	
2.35	0.253	-0.06792981751271548	
2.355	-0.410	-0.056315280104768925	
2.36	-0.109	-0.04138320231025526	
2.365	0.481	-0.031963259892130155	
2.37	-0.268	-0.0248787590796487	
2.375	-0.295	-0.016061655586200527	
2.38	0.490	-0.00479424217276229	
2.385	-0.045	0.0014369961513670466	
2.39	-0.411	0.001013930573531714	
2.395	0.178	-0.00021398847677306073	
2.4	0.264	-0.007924277930454245	
2.405	-0.416	-0.017130190044269005	
2.41	-0.122	-0.020501954465580223	
2.415	0.463	-0.026044473832712137	
2.42	-0.262	-0.029716593888430533	
2.425	-0.291	-0.02508886494048721	
2.43	0.536	-0.011904587354445707	
2.435	0.035	0.004545715178774603	
2.44	-0.339	0.022043888362377896	
2.445	0.371	0.044682904992118716	
2.45	0.443	0.07013630376503938	
2.455	-0.317	0.09291784773095006	
2.46	0.027	0.10838572626729832	
2.465	0.712	0.11897835703390992	
2.47	-0.155	0.13138438345288717	
2.475	-0.211	0.1388068318998621	
2.48	0.647	0.14002704268909844	
2.485	0.122	0.14168596295983069	
2.49	-0.301	0.14103786211370767	
2.495	0.482	0.14553568755458351	
2.5	0.521	0.15923064339186396	
2.505	-0.295	0.1720334755786741	
2.51	0.010	0.17321164705738842	
2.515	0.644	0.16193447274614375	
2.52	-0.197	0.14659097785546632	
2.525	-0.263	0.12773789976032845	
2.53	0.522	0.10584870131362761	
2.535	-0.025	0.08186432561833805	
2.54	-0.390	0.05611946891921421	
2.545	0.264	0.03830065912840623	
2.55	0.327	0.028289301530343904	
2.555	-0.391	0.021245378130805855	
2.56	-0.113	0.017039438183967175	
2.565	0.450	0.005842888600278766	
2.57	-0.300	-0.007178915515940555	
2.575	-0.346	-0.020314240415929736	
2.58	0.394	-0.02933355816356623	
2.585	-0.063	-0.03996107448068911	
2.59	-0.439	-0.047815367436790344	
2.595	0.157	-0.04891006930853682	
2.6	0.264	-0.05064516890864064	
2.605	-0.401	-0.048605860875285595	
2.61	-0.135	-0.04110938117046453	
2.615	0.464	-0.0371884315309828	
2.62	-0.242	-0.03202276311369072	
2.625	-0.229	-0.020381517966089946	
2.63	0.770	0.013599229479171403	
2.635	0.325	0.07419093495284003	
2.64	-0.255	0.1411611407153237	
2.645	0.259	0.18190966159984723	
2.65	0.001	0.16439443700372308	
2.655	-0.657	0.087442787342079	
2.66	-0.477	-0.02123602527167246	
2.665	-0.158	-0.14916781384610217	
2.67	-0.614	-0.27991802728617615	
2.675	-0.617	-0.36944138478442085	
2.68	0.093	-0.4053796018597303	
2.685	-0.097	-0.4007328699167738	
2.69	-0.365	-0.3499164426342505	
2.695	0.386	-0.24997542341541856	
2.7	0.544	-0.12640915775300607	
2.705	-0.237	-0.0057620247013096615	
2.71	0.120	0.09168577702515002	
2.715	0.835	0.16412599202924386	
2.72	-0.072	0.2189442647599882	
2.725	-0.142	0.24622763238060524	
2.73	0.823	0.2568527519339189	
2.735	0.292	0.2683988968939116	
2.74	-0.236	0.27571655919660176	
2.745	0.557	0.27601395571750903	
2.75	0.652	0.28090345144408824	
2.755	-0.225	0.28510789800804326	
2.76	0.094	0.2774789037455141	
2.765	0.776	0.26035573354483277	
2.77	-0.097	0.24406131849833285	
2.775	-0.184	0.22499772052481057	
2.78	0.764	0.20886750649143498	
2.785	0.316	0.21163478400288285	
2.79	-0.217	0.22362511603802293	
2.795	0.608	0.24183418328549416	
2.8	0.744	0.27108295236517954	
2.805	-0.165	0.30322071751358703	
2.81	0.208	0.3202357188556946	
2.815	0.913	0.3273421147945771	
2.82	-0.023	0.33233148039604576	
2.825	-0.139	0.32186523789068155	
2.83	0.762	0.2996052537331161	
2.835	0.236	0.2808974218755548	
2.84	-0.315	0.25776041240438285	
2.845	0.311	0.22544066613260155	
2.85	0.371	0.18512200234466197	
2.855	-0.419	0.13861814230394714	
2.86	-0.205	0.08697571088582849	
2.865	0.296	0.025072510116024606	
2.87	-0.364	-0.039237354940246466	
2.875	-0.456	-0.09007390842279779	
2.88	0.166	-0.12882328747173716	
2.885	-0.182	-0.16490630187666871	
2.89	-0.543	-0.19093166900639041	
2.895	-0.066	-0.19988494375631458	
2.9	0.082	-0.20894908616350125	
2.905	-0.478	-0.21304275270528525	
2.91	-0.225	-0.2001278601949943	
2.915	0.345	-0.17912083700192288	
2.92	-0.315	-0.15803915594350754	
2.925	-0.401	-0.13705981446905602	
2.93	0.321	-0.11700746781872005	
2.935	-0.081	-0.10481336159289903	
2.94	-0.459	-0.09787222052797975	
2.945	0.090	-0.08902185228007761	
2.95	0.250	-0.08289981829229068	
2.955	-0.466	-0.07997217111254282	
2.96	-0.228	-0.07926037713816195	
2.965	0.360	-0.08510965772882419	
2.97	-0.312	-0.09392476729951094	
2.975	-0.407	-0.0981504605608491	
2.98	0.301	-0.09903871831676916	
2.985	-0.095	-0.10269330371549736	
2.99	-0.482	-0.10793063252085437	
2.995	0.068	-0.10708995558776196	
3.0	0.253	-0.10377665626980251	
3.005	-0.430	-0.09799005703487855	
3.01	-0.205	-0.08736574674286958	
3.015	0.394	-0.08200012734332796	
3.02	-0.284	-0.07990097954212427	
3.025	-0.373	-0.07629498354868772	
3.03	0.400	-0.06795176032698491	
3.035	0.000	-0.05859201802839146	
3.04	-0.422	-0.04909755642318406	
3.045	0.160	-0.0370842350637406	
3.05	0.345	-0.026607567664990346	
3.055	-0.355	-0.015120523586370782	
3.06	-0.141	-0.003458846081251705	
3.065	0.504	0.002199600405676002	
3.07	-0.242	0.003058489739644331	
3.075	-0.347	0.0015172921007001504	
3.08	0.382	-0.0037945888599021267	
3.085	-0.043	-0.014515778389635837	
3.09	-0.436	-0.02931885940803372	
3.095	0.122	-0.03800996637812702	
3.1	0.304	-0.042414958012924275	
3.105	-0.401	-0.044321682495348	
3.11	-0.182	-0.0415263269088916	
3.115	0.472	-0.04053562360891097	
3.12	-0.234	-0.03803302017518733	
3.125	-0.332	-0.03269392824903043	
3.13	0.466	-0.020548310121501937	
3.135	0.046	-0.008437367410025496	
3.14	-0.382	0.0013730058289448464	
3.145	0.247	0.015097595953212537	
3.15	0.434	0.030838030180739474	
3.155	-0.333	0.046402565769321856	
3.16	-0.124	0.056369395728786166	
3.165	0.599	0.057800195266452845	
3.17	-0.179	0.05786181618412584	
3.175	-0.277	0.05902674720839122	
3.18	0.649	0.06773108763375846	
3.185	0.337	0.09469459315616405	
3.19	-0.203	0.13604814739976578	
3.195	0.594	0.18717560931884641	
3.2	0.588	0.2370977688774057	
3.205	-0.417	0.25613436787474575	
3.21	-0.339	0.21919705477388163	
3.215	-0.005	0.11606621420233999	
3.22	-0.518	-0.02718662987889563	
3.225	-0.616	-0.15618629675724358	
3.23	-0.008	-0.24802970409632874	
3.235	-0.156	-0.31221899204800974	
3.24	-0.456	-0.3282354990645707	
3.245	0.288	-0.27963208181334165	
3.25	0.649	-0.18161863919524995	
3.255	-0.200	-0.06020229394369278	
3.26	0.128	0.05619116461171985	
3.265	0.921	0.15453436621336358	
3.27	-0.046	0.2305442591619162	
3.275	-0.176	0.2694070829330186	
3.28	0.785	0.2803929558780737	
3.285	0.402	0.2888826195746145	
3.29	-0.216	0.2962313779671113	
3.295	0.545	0.30147596326464365	
3.3	0.730	0.30874213288184593	
3.305	-0.187	0.31546862619845784	
3.31	0.134	0.3110380033624921	
3.315	0.938	0.30593495721112585	
3.32	0.050	0.30851783346721134	
3.325	-0.101	0.31011612187882553	
3.33	0.918	0.31360402610542015	
3.335	0.499	0.33205861121773506	
3.34	-0.173	0.35296459017448356	
3.345	0.661	0.36843764350585995	
3.35	0.901	0.3899973577836381	
3.355	-0.083	0.4134053036719282	
3.36	0.293	0.42483040674732897	
3.365	1.086	0.4320624876266323	
3.37	0.093	0.4416647119590374	
3.375	-0.127	0.42991663281533254	
3.38	0.831	0.4014868910474104	
3.385	0.405	0.37429914166631834	
3.39	-0.243	0.34799899858657424	
3.395	0.437	0.3211546376443358	
3.4	0.597	0.2920849385189662	
3.405	-0.303	0.26067236761874724	
3.41	-0.115	0.21859190057747035	
3.415	0.557	0.16688900633791282	
3.42	-0.217	0.11401664891850405	
3.425	-0.362	0.06893901752451687	
3.43	0.395	0.033153585140881264	
3.435	-0.020	0.0004782070372148329	
3.44	-0.460	-0.02777518855468981	
3.445	0.036	-0.04614227859770025	
3.45	0.246	-0.06494810480605115	
3.455	-0.436	-0.08302086154813326	
3.46	-0.243	-0.08953759645237791	
3.465	0.421	-0.09128273353721236	
3.47	-0.234	-0.09075497803050529	
3.475	-0.364	-0.08005753160999701	
3.48	0.389	-0.06204674157185319	
3.485	0.017	-0.04940287519841134	
3.49	-0.404	-0.04070460827638472	
3.495	0.149	-0.026297637733941958	
3.5	0.418	-0.011886932509566505	
3.505	-0.352	0.0020629948102457666	
3.51	-0.158	0.015320477398837929	
3.515	0.542	0.02073486898229945	
3.52	-0.190	0.021352507310069213	
3.525	-0.333	0.021822642738780842	
3.53	0.505	0.02693551458376858	
3.535	0.143	0.034746517047086325	
3.54	-0.370	0.0442124491773393	
3.545	0.233	0.05560608914861927	
3.55	0.435	0.06425807026878413	
3.555	-0.379	0.0640487578505505	
3.56	-0.153	0.05817040703997765	
3.565	0.609	0.048857545582545285	
3.57	-0.141	0.04544528605890222	
3.575	-0.265	0.05064962363844171	
3.58	0.608	0.06596008741421175	
3.585	0.238	0.08891524372233345	
3.59	-0.306	0.11107919493259066	
3.595	0.340	0.13250896937462892	
3.6	0.599	0.15245596316711774	
3.605	-0.249	0.1670347768981681	
3.61	-0.020	0.17497680236746496	
3.615	0.758	0.17698173370954423	
3.62	-0.080	0.17755919315666818	
3.625	-0.257	0.17243521754091973	
3.63	0.580	0.16294407227160335	
3.635	0.203	0.1521291766118083	
3.64	-0.355	0.13897047829036763	
3.645	0.211	0.12635731137051937	
3.65	0.435	0.1076504021765258	
3.655	-0.368	0.08607075025353736	
3.66	-0.187	0.06477257374155757	
3.665	0.505	0.040078444307147326	
3.67	-0.199	0.016701776193018887	
3.675	-0.347	0.0022674748413853184	
3.68	0.478	0.0009453719199367044	
3.685	0.125	0.007312063497654689	
3.69	-0.390	0.015845599617930282	
3.695	0.149	0.026261306280485126	
3.7	0.450	0.03184751097051812	
3.705	-0.330	0.03603253344864073	
3.71	-0.141	0.042600083605995	
3.715	0.568	0.04524012859521524	
3.72	-0.161	0.043758572251069605	
3.725	-0.301	0.0430442287326556	
3.73	0.631	0.05503675065528453	
3.735	0.376	0.08550076434993434	
3.74	-0.203	0.1296461125236534	
3.745	0.658	0.1892154694680307	
3.75	0.947	0.26811669600833343	
3.755	-0.207	0.33892134858383105	
3.76	-0.210	0.3533050327667362	
3.765	0.232	0.28638359463984586	
3.77	-0.445	0.15888561830010128	
3.775	-0.657	0.01681827126391639	
3.78	-0.072	-0.11395629803971345	
3.785	-0.203	-0.2302920309152647	
3.79	-0.524	-0.30145256993756275	
3.795	0.114	-0.2998238626387699	
3.8	0.570	-0.24168156531782464	
3.805	-0.251	-0.14914749438230343	
3.81	0.004	-0.04575601798765928	
3.815	0.916	0.05466522439604785	
3.82	0.078	0.14884111301983607	
3.825	-0.153	0.22052361071221477	
3.83	0.831	0.27023202137918867	
3.835	0.510	0.3108536773494353	
3.84	-0.223	0.3381904213208129	
3.845	0.490	0.34810443727597573	
3.85	0.764	0.34858796744086984	
3.855	-0.203	0.3407241528419864	
3.86	-0.022	0.3170303488557772	
3.865	0.863	0.2858742011933052	
3.87	0.020	0.262959868433283	
3.875	-0.176	0.2473250461184606	
3.88	0.800	0.24325615316566615	
3.885	0.510	0.25806432667366974	
3.89	-0.208	0.28110886106445665	
3.895	0.545	0.3039593696858053	
3.9	0.935	0.3327475087524404	
3.905	-0.058	0.36682349661652114	
3.91	0.221	0.39083621036242344	
3.915	1.087	0.4088517035179345	
3.92	0.218	0.4301714842674698	
3.925	-0.092	0.43622711778030193	
3.93	0.903	0.43002214830245755	
3.935	0.553	0.4252612166481839	
3.94	-0.223	0.41526103950490134	
3.945	0.403	0.3916323534556716	
3.95	0.660	0.3547210478141789	
3.955	-0.274	0.31118715768086935	
3.96	-0.177	0.2556573489263323	
3.965	0.475	0.1845412333215924	
3.97	-0.231	0.10752830317812459	
3.975	-0.422	0.04038019177456914	
3.98	0.307	-0.00838355494725955	
3.985	0.006	-0.047639193494601745	
3.99	-0.478	-0.07637996522940543	
3.995	-0.014	-0.08863137923595511	
4.0	0.304	-0.0964329106094224	
4.005	-0.413	-0.10146362200925363	
4.01	-0.258	-0.09538170203086091	
4.015	0.444	-0.08571443655974065	
4.02	-0.210	-0.07827604205772681	
4.025	-0.385	-0.06853489377497035	
4.03	0.377	-0.051621869482734624	
4.035	0.062	-0.039576870095263963	
4.04	-0.463	-0.03524743301839119	
4.045	0.013	-0.03380333353920785	
4.05	0.342	-0.040443424675918827	
4.055	-0.378	-0.04831502376753122	
4.06	-0.242	-0.047482983816806226	
4.065	0.469	-0.045769632506734534	
4.07	-0.200	-0.04614731388336063	
4.075	-0.390	-0.043587714354057935	
4.08	0.400	-0.033692146543276576	
4.085	0.122	-0.024463006550245917	
4.09	-0.423	-0.016269158235757964	
4.095	0.078	-0.005885654322737002	
4.1	0.447	-0.001341549170630741	
4.105	-0.330	0.004680248499250049	
4.11	-0.181	0.01340531751665705	
4.115	0.606	0.023327226876696888	
4.12	-0.144	0.03189842041544643	
4.125	-0.344	0.03826452931852805	
4.13	0.476	0.044356584764681406	
4.135	0.171	0.04965508302762414	
4.14	-0.375	0.05259662913635287	
4.145	0.180	0.05808409308939157	
4.15	0.592	0.06883119688354204	
4.155	-0.272	0.08361138825300374	
4.16	-0.138	0.09726278952452011	
4.165	0.681	0.10347057181438546	
4.17	-0.063	0.10895286914222321	
4.175	-0.252	0.1130943739013733	
4.18	0.680	0.1274152058324065	
4.185	0.383	0.1538114914386487	
4.19	-0.306	0.17945686839573458	
4.195	0.258	0.19298338190767655	
4.2	0.585	0.19198972081149263	
4.205	-0.297	0.18160486734253897	
4.21	-0.188	0.15809960410823382	
4.215	0.531	0.1235520793961189	
4.22	-0.205	0.08206527073714225	
4.225	-0.416	0.040955387535184996	
4.23	0.382	0.010379308300168005	
4.235	0.090	-0.011033999553927228	
4.24	-0.442	-0.026588088412367893	
4.245	0.044	-0.031112684052018034	
4.25	0.427	-0.0318692226674891	
4.255	-0.356	-0.029368124638112357	
4.26	-0.216	-0.021044316326110667	
4.265	0.589	-0.00934850220981288	
4.27	-0.116	0.004166585972373208	
4.275	-0.330	0.018776475944331253	
4.28	0.486	0.03738377087361144	
4.285	0.233	0.05513990310834907	
4.29	-0.376	0.06726857853105521	
4.295	0.189	0.07877956921379181	
4.3	0.644	0.09234991837417546	
4.305	-0.226	0.11060745184337943	
4.31	-0.032	0.1327396138326682	
4.315	0.948	0.16181471493799388	
4.32	0.052	0.2013041756168838	
4.325	-0.401	0.2215095060595942	
4.33	0.001	0.1843079444958907	
4.335	-0.283	0.07532479047923529	
4.34	-0.757	-0.06581388181743036	
4.345	-0.327	-0.18830162368425743	
4.35	-0.013	-0.28647216847203727	
4.355	-0.442	-0.3474068835683194	
4.36	-0.194	-0.33833204107257997	
4.365	0.712	-0.26398090106448757	
4.37	0.013	-0.15473325537244798	
4.375	-0.216	-0.04069841534342892	
4.38	0.744	0.06659489383487768	
4.385	0.519	0.16449270804125332	
4.39	-0.240	0.2397721759941088	
4.395	0.383	0.28569633529944594	
4.4	0.806	0.30989096361376955	
4.405	-0.152	0.3203041161431468	
4.41	-0.003	0.3153461101605698	
4.415	0.915	0.30236707970222176	
4.42	0.041	0.29333767680119127	
4.425	-0.246	0.2759253335052908	
4.43	0.715	0.2587330266357859	
4.435	0.507	0.25480564954519747	
4.44	-0.246	0.2605339800440508	
4.445	0.397	0.26756726370236705	
4.45	0.860	0.2802123673221473	
4.455	-0.130	0.2962970616330265	
4.46	0.010	0.3030539810293974	
4.465	0.999	0.30550938767830493	
4.47	0.272	0.32156778139502407	
4.475	-0.093	0.3437071074061343	
4.48	0.907	0.36660953383441053	
4.485	0.683	0.39606009305943113	
4.49	-0.181	0.4195250856179155	
4.495	0.478	0.4242857637135395	
4.5	0.897	0.4193203719342369	
4.505	-0.152	0.40753044056794907	
4.51	-0.083	0.3748182203982313	
4.515	0.758	0.32434657224616414	
4.52	-0.046	0.2698787149525562	
4.525	-0.313	0.2157148716405789	
4.53	0.510	0.17127637449290137	
4.535	0.259	0.13824868642470212	
4.54	-0.405	0.11079488724588424	
4.545	0.029	0.08595578070376872	
4.55	0.440	0.05624395937684454	
4.555	-0.388	0.025925595751201742	
4.56	-0.313	-0.00030835433959009264	
4.565	0.418	-0.02594011603872077	
4.57	-0.194	-0.051812774328021054	
4.575	-0.451	-0.0681876554893178	
4.58	0.232	-0.07407540886524801	
4.585	0.085	-0.08264664956100518	
4.59	-0.453	-0.08895590026450229	
4.595	-0.043	-0.08227442765234873	
4.6	0.403	-0.07582088028034831	
4.605	-0.367	-0.069839062037783	
4.61	-0.286	-0.058403260635060676	
4.615	0.475	-0.0490728636752087	
4.62	-0.150	-0.04465729648473164	
4.625	-0.398	-0.03820093858301237	
4.63	0.333	-0.027195551340987893	
4.635	0.188	-0.019545696330504233	
4.64	-0.399	-0.012944030192556986	
4.645	0.047	-0.000381924902799234	
4.65	0.495	0.009259261786201754	
4.655	-0.332	0.015186842123913372	
4.66	-0.249	0.0194787633658959	
4.665	0.553	0.020000846926730827	
4.67	-0.121	0.018412926298044988	
4.675	-0.379	0.015657334956482288	
4.68	0.424	0.019838018925369082	
4.685	0.252	0.02859926981521168	
4.69	-0.391	0.03692041308067652	
4.695	0.062	0.045544010306741795	
4.7	0.518	0.04744661592945419	
4.705	-0.320	0.04614167658968531	
4.71	-0.245	0.043312782590028596	
4.715	0.562	0.03815822226022597	
4.72	-0.084	0.03148578144634942	
4.725	-0.361	0.029451076733572872	
4.73	0.437	0.03590446812787566	
4.735	0.288	0.04576864829329058	
4.74	-0.346	0.057736598445984694	
4.745	0.163	0.07450019335938382	
4.75	0.661	0.09368321892763153	
4.755	-0.220	0.11403823572936311	
4.76	-0.124	0.13113099854671867	
4.765	0.793	0.14638204156723464	
4.77	0.013	0.16153402629978642	
4.775	-0.283	0.16817674745440314	
4.78	0.640	0.17500099770029517	
4.785	0.512	0.19199660636939211	
4.79	-0.283	0.21252229999913427	
4.795	0.223	0.2253742838159414	
4.8	0.707	0.2249322622185521	
4.805	-0.242	0.21701535080806847	
4.81	-0.179	0.19889655251464655	
4.815	0.683	0.1735168198872787	
4.82	-0.077	0.14568523620422164	
4.825	-0.396	0.11697902119510953	
4.83	0.366	0.0879653483220922	
4.835	0.247	0.06118870276993087	
4.84	-0.408	0.04145027427594272	
4.845	0.013	0.03226463070289903	
4.85	0.508	0.02309017526969019	
4.855	-0.313	0.01603203555419242	
4.86	-0.231	0.017758185970200693	
4.865	0.600	0.023620800134170138	
4.87	-0.095	0.028750718595703283	
4.875	-0.382	0.03181822763812357	
4.88	0.417	0.03802071466558926	
4.885	0.261	0.043320876109978035	
4.89	-0.404	0.04627621975971344	
4.895	0.047	0.0492252362003579	
4.9	0.599	0.05130372577265743	
4.905	-0.231	0.05793511538302144	
4.91	-0.110	0.07559822623590882	
4.915	0.968	0.11084493945571033	
4.92	0.389	0.1758197993119437	
4.925	-0.042	0.2585866440181436	
4.93	0.870	0.3370873189346689	
4.935	0.281	0.3814528136326971	
4.94	-0.608	0.35403012465066597	
4.945	-0.384	0.24811691315481962	
4.95	-0.173	0.07450451536475405	
4.955	-0.677	-0.12111854719844951	
4.96	-0.506	-0.2645115090132563	
4.965	0.363	-0.33091765576055104	
4.97	-0.054	-0.3291507315224539	
4.975	-0.272	-0.26364598819889173	
4.98	0.699	-0.1466952959791819	
4.985	0.632	-0.004321356955281975	
4.99	-0.193	0.13072758770734394	
4.995	0.447	0.239154255996898	
5.0	0.993	0.3228910563610447	
5.005	-0.042	0.3825970226408907	
5.01	0.013	0.40812886961004124	
5.015	1.023	0.4094165906658148	
5.02	0.267	0.4069013857500702	
5.025	-0.182	0.3979108859568272	
5.03	0.793	0.38440973227288666	
5.035	0.696	0.3800096750348475	
5.04	-0.200	0.3814893903384095	
5.045	0.426	0.38000681021421456	
5.05	1.007	0.38221428425342263	
5.055	-0.016	0.3916223659161544	
5.06	0.085	0.3968674326786683	
5.065	1.098	0.40154079395964	
5.07	0.383	0.4181079417708296	
5.075	-0.092	0.4347183525780824	
5.08	1.020	0.45129642106122086	
5.085	0.916	0.48525228037698176	
5.09	-0.078	0.5215080810659736	
5.095	0.621	0.5417266134799901	
5.1	1.170	0.5562909503962482	
5.105	0.058	0.5678879001531278	
5.11	0.067	0.5536335175375794	
5.115	1.031	0.5193107312575402	
5.12	0.290	0.4844724228760931	
5.125	-0.193	0.4457918278047701	
5.13	0.690	0.40483355947340216	
5.135	0.547	0.36640599698605286	
5.14	-0.310	0.3299334115107532	
5.145	0.035	0.28332386424887723	
5.15	0.547	0.21904796095366308	
5.155	-0.295	0.15445284855585986	
5.16	-0.260	0.10161700249800297	
5.165	0.534	0.06279912641514532	
5.17	-0.104	0.030800530952067653	
5.175	-0.407	0.008121505259293898	
5.18	0.325	0.00034361430560558956	
5.185	0.263	-0.0026184494914435427	
5.19	-0.410	-0.0015814517216665527	
5.195	-0.071	0.004079233076277276	
5.2	0.469	-0.00024631564233317264	
5.205	-0.294	-0.0071483996309151115	
5.21	-0.257	-0.005357583132109829	
5.215	0.541	0.002410048676713413	
5.22	-0.074	0.007994511230555907	
5.225	-0.370	0.01234218778190459	
5.23	0.412	0.02502806978294018	
5.235	0.348	0.04237168671840703	
5.24	-0.364	0.05870385573047823	
5.245	0.053	0.07390368313454632	
5.25	0.602	0.08160495920800548	
5.255	-0.254	0.08510842095960877	
5.26	-0.226	0.0865995935431499	
5.265	0.640	0.08618009157008699	
5.27	-0.034	0.08418648442460855	
5.275	-0.353	0.08044166304190781	
5.28	0.421	0.0797692888087955	
5.285	0.327	0.08143407518373734	
5.29	-0.368	0.08191826423759123	
5.295	0.009	0.08070726625411848	
5.3	0.588	0.07351891819409093	
5.305	-0.255	0.06936481116727193	
5.31	-0.248	0.06753607186874384	
5.315	0.602	0.06496753198696625	
5.32	-0.022	0.06237778458239538	
5.325	-0.338	0.0625423129951902	
5.33	0.476	0.07053059334968625	
5.335	0.424	0.08948783320801555	
5.34	-0.323	0.11012924120778016	
5.345	0.093	0.12552350389628	
5.35	0.655	0.13240908127337223	
5.355	-0.228	0.13560860793326254	
5.36	-0.219	0.13148721529977642	
5.365	0.612	0.11973423770735091	
5.37	-0.046	0.10556550996352423	
5.375	-0.359	0.08766462176550516	
5.38	0.406	0.07625298509321748	
5.385	0.406	0.07653256480300893	
5.39	-0.370	0.08340124882677347	
5.395	0.007	0.08731423344926795	
5.4	0.646	0.08525403219340523	
5.405	-0.202	0.08893436374097621	
5.41	-0.181	0.097473698175598	
5.415	0.715	0.1084192093960234	
5.42	0.042	0.12177611960787653	
5.425	-0.303	0.13086455134130806	
5.43	0.530	0.13890336959960647	
5.435	0.504	0.15652568614214385	
5.44	-0.284	0.17576827141080614	
5.445	0.140	0.187092374818954	
5.45	0.678	0.1879930422331558	
5.455	-0.228	0.1823127782646905	
5.46	-0.240	0.16448930680353605	
5.465	0.544	0.13598432805320262	
5.47	-0.097	0.1010183220583014	
5.475	-0.414	0.06317426004480431	
5.48	0.194	0.02846368001795145	
5.485	0.117	-0.008535129509821797	
5.49	-0.469	-0.044754402458184815	
5.495	-0.136	-0.06811185683614143	
5.5	0.311	-0.08832300934768521	
5.505	-0.375	-0.10528224244623213	
5.51	-0.375	-0.11342981402479063	
5.515	0.356	-0.1144166754451241	
5.52	-0.152	-0.11480027783115285	
5.525	-0.454	-0.11156174322765008	
5.53	0.189	-0.10085584210589105	
5.535	0.140	-0.09257738650310926	
5.54	-0.453	-0.08744867250371322	
5.545	-0.126	-0.08127772260497713	
5.55	0.368	-0.07950915373452223	
5.555	-0.312	-0.07802278850862615	
5.56	-0.239	-0.06842296109204385	
5.565	0.670	-0.038639211288435574	
5.57	0.130	0.011368321423736692	
5.575	-0.313	0.06254119517846161	
5.58	0.227	0.09186911339683208	
5.585	-0.092	0.07342642108584313	
5.59	-0.755	0.0017379423220558019	
5.595	-0.540	-0.10445926807304427	
5.6	-0.292	-0.23659989381468333	
5.605	-0.772	-0.3727940520572528	
5.61	-0.692	-0.47045044339154246	
5.615	-0.052	-0.515768250999578	
5.62	-0.249	-0.5194840352761458	
5.625	-0.445	-0.4714047147529754	
5.63	0.345	-0.36916626205094216	
5.635	0.408	-0.23843670646409323	
5.64	-0.329	-0.10928475639187472	
5.645	0.042	-0.006582267745898346	
5.65	0.652	0.06353278665894638	
5.655	-0.199	0.11120278396011364	
5.66	-0.225	0.13330596244045012	
5.665	0.641	0.13628401941183982	
5.67	-0.017	0.13265073547403058	
5.675	-0.393	0.1163790104969338	
5.68	0.324	0.09272336627283968	
5.685	0.327	0.07378735004602449	
5.69	-0.370	0.06073338844416791	
5.695	-0.011	0.052236190241960995	
5.7	0.579	0.04665105817554489	
5.705	-0.248	0.04937364762616032	
5.71	-0.243	0.05113940629267981	
5.715	0.626	0.05521840772051836	
5.72	0.064	0.0678807534403933	
5.725	-0.321	0.08135045333153432	
5.73	0.481	0.09750994028107716	
5.735	0.522	0.122938144848125	
5.74	-0.304	0.15187724247405607	
5.745	0.085	0.16597220362234366	
5.75	0.719	0.16960787301261204	
5.755	-0.187	0.17367387472136003	
5.76	-0.231	0.16601422149196982	
5.765	0.576	0.1459317762749584	
5.77	-0.057	0.12115246140494904	
5.775	-0.462	0.08650052754860357	
5.78	0.110	0.04110924623676076	
5.785	0.119	-0.011026147412732756	
5.79	-0.515	-0.05971461982061234	
5.795	-0.225	-0.0982633925879876	
5.8	0.172	-0.13465478158594107	
5.805	-0.465	-0.1709311943046518	
5.81	-0.503	-0.19993462978336388	
5.815	0.099	-0.22245601838521967	
5.82	-0.300	-0.2476574431776929	
5.825	-0.627	-0.26723092106504037	
5.83	-0.118	-0.27719460461952955	
5.835	-0.081	-0.29007814414039	
5.84	-0.604	-0.3014228627950632	
5.845	-0.313	-0.2983889463677821	
5.85	0.108	-0.29281955977707586	
5.855	-0.491	-0.29073570989549824	
5.86	-0.518	-0.28392958727631723	
5.865	0.090	-0.27761413809637847	
5.87	-0.280	-0.27757070060642014	
5.875	-0.581	-0.27618143262741907	
5.88	-0.017	-0.2642831068180115	
5.885	0.006	-0.25403693000465666	
5.89	-0.546	-0.24440964954509864	
5.895	-0.246	-0.2294554927935953	
5.9	0.218	-0.2167559596058562	
5.905	-0.410	-0.20773194804809686	
5.91	-0.431	-0.19702479545053947	
5.915	0.282	-0.18352042605490188	
5.92	-0.165	-0.17051881188842494	
5.925	-0.517	-0.1603443461493984	
5.93	0.029	-0.1522409270884244	
5.935	0.070	-0.15389583807234708	
5.94	-0.512	-0.15956682680173923	
5.945	-0.229	-0.16150279876389168	
5.95	0.206	-0.1655460281008001	
5.955	-0.414	-0.17582938048668578	
5.96	-0.442	-0.18219147111312622	
5.965	0.227	-0.18228919434074237	
5.97	-0.176	-0.18348864540427212	
5.975	-0.492	-0.18061991418125517	
5.98	0.143	-0.16406271175625659	
5.985	0.186	-0.1426759045778601	
5.99	-0.471	-0.12190499137665359	
5.995	-0.161	-0.10453932519549111	
6.0	0.435	-0.09115804992130859	
6.005	-0.310	-0.0780287278362001	
6.01	-0.339	-0.06548037371627122	
6.015	0.452	-0.05290943681393541	
6.02	-0.081	-0.04242921873131972	
6.025	-0.431	-0.03805965915645873	
6.03	0.288	-0.029872043218091983	
6.035	0.391	-0.011341443103823113	
6.04	-0.388	0.011717776328345803	
6.045	-0.081	0.027345980129259834	
6.05	0.496	0.029265714737714537	
6.055	-0.304	0.023822286151390665	
6.06	-0.359	0.011183210287814821	
6.065	0.415	-0.0055720074059545915	
6.07	-0.130	-0.02530015967255119	
6.075	-0.489	-0.048461296774493824	
6.08	0.145	-0.06475624772683364	
6.085	0.252	-0.07502043579301361	
6.09	-0.465	-0.07758981938070583	
6.095	-0.184	-0.0757662600673201	
6.1	0.377	-0.0793407592468865	
6.105	-0.347	-0.08630556854110355	
6.11	-0.378	-0.0901235169190705	
6.115	0.437	-0.08522548540756592	
6.12	-0.051	-0.07518978881495161	
6.125	-0.422	-0.06288180797073574	
6.13	0.261	-0.04460256903853123	
6.135	0.316	-0.023691187212758487	
6.14	-0.411	-0.00797376679355482	
6.145	-0.158	0.00011393162667542938	
6.15	0.513	-0.003881849743654244	
6.155	-0.205	-0.004460451789001031	
6.16	-0.190	0.007523003333867991	
6.165	0.921	0.049178948281726836	
6.17	0.389	0.12496414176872382	
6.175	-0.268	0.20263396308266246	
6.18	0.276	0.24046551036796837	
6.185	0.047	0.21362604048813058	
6.19	-0.643	0.12768514458523314	
6.195	-0.448	0.012986177936385047	
6.2	-0.086	-0.11747027159471811	
6.205	-0.533	-0.24458870611177105	
6.21	-0.537	-0.32376867664949704	
6.215	0.272	-0.34243574655241427	
6.22	-0.046	-0.3209686116248056	
6.225	-0.358	-0.2618004594455647	
6.23	0.476	-0.16619026534406245	
6.235	0.709	-0.04395688482361132	
6.24	-0.193	0.08013527684702682	
6.245	0.188	0.17989627700826333	
6.25	0.886	0.24914523866648253	
6.255	-0.049	0.2920731585090559	
6.26	-0.127	0.3066956944143827	
6.265	0.909	0.3081081430431625	
6.27	0.357	0.3151824382328	
6.275	-0.228	0.3215386721333386	
6.28	0.621	0.32197839660820676	
6.285	0.748	0.3285363447089441	
6.29	-0.203	0.335706125957107	
6.295	0.185	0.33269553303579075	
6.3	0.895	0.32268720990885424	
6.305	-0.046	0.3140063680375449	
6.31	-0.126	0.2992643825208487	
6.315	0.927	0.2894203240711829	
6.32	0.478	0.30243924182101845	
6.325	-0.150	0.32814265832142075	
6.33	0.776	0.35795499634148464	
6.335	0.947	0.3989169607546713	
6.34	-0.103	0.4395429970230669	
6.345	0.282	0.45740616556368013	
6.35	1.023	0.45394645142880136	
6.355	0.068	0.44614989771218677	
6.36	-0.060	0.42695966998696566	
6.365	0.935	0.40239774455101707	
6.37	0.351	0.3857159641566501	
6.375	-0.281	0.3640303040813618	
6.38	0.417	0.32870008381519233	
6.385	0.460	0.28210553333477867	
6.39	-0.365	0.2277100781006538	
6.395	-0.109	0.17216237360945125	
6.4	0.556	0.11692831911487794	
6.405	-0.266	0.06843293655971856	
6.41	-0.367	0.031853533524889135	
6.415	0.418	0.005193033389433189	
6.42	-0.032	-0.019062092210039468	
6.425	-0.433	-0.03689269118774848	
6.43	0.168	-0.03851794132760945	
6.435	0.314	-0.03779433018952008	
6.44	-0.420	-0.03714749807250457	
6.445	-0.162	-0.031024456726719628	
6.45	0.530	-0.027067472844924296	
6.455	-0.219	-0.022407736131499118	
6.46	-0.329	-0.011284674451376675	
6.465	0.479	0.0021417319887616065	
6.47	-0.017	0.006097222437327645	
6.475	-0.456	0.0009978232924913785	
6.48	0.192	-0.0016163263772015425	
6.485	0.418	-0.0026006491017718093	
6.49	-0.353	0.004816868888826789	
6.495	-0.113	0.018806461797420553	
6.5	0.594	0.02909440367884873	
6.505	-0.203	0.03463795307622207	
6.51	-0.291	0.04150053900886577	
6.515	0.620	0.05425538739321872	
6.52	0.154	0.07126556390880516	
6.525	-0.355	0.0867769393150579	
6.53	0.350	0.10335710050930721	
6.535	0.522	0.11663639333001677	
6.54	-0.321	0.12666920860066666	
6.545	-0.066	0.1296367370892403	
6.55	0.686	0.12434654888770581	
6.555	-0.155	0.11765687449825181	
6.56	-0.265	0.1132370474331984	
6.565	0.689	0.11439894162869751	
6.57	0.156	0.12244313578737553	
6.575	-0.364	0.12652472804947495	
6.58	0.368	0.13032832716310253	
6.585	0.560	0.13691058339722356	
6.59	-0.306	0.14354694456096462	
6.595	-0.017	0.1474393207511733	
6.6	0.819	0.15159186103107355	
6.605	-0.072	0.16172921287908698	
6.61	-0.205	0.17395240737943451	
6.615	0.790	0.18747536282327842	
6.62	0.342	0.20768311503358566	
6.625	-0.278	0.2283252842954104	
6.63	0.455	0.2411944969782947	
6.635	0.621	0.24715799694405707	
6.64	-0.286	0.2435303937685421	
6.645	-0.074	0.2261958720572559	
6.65	0.611	0.19071085133874344	
6.655	-0.185	0.14787470070821046	
6.66	-0.310	0.11076568578728223	
6.665	0.521	0.08445939178969095	
6.67	0.078	0.06387020857044766	
6.675	-0.390	0.047228322359661935	
6.68	0.278	0.04610414606704058	
6.685	0.527	0.05435089608163224	
6.69	-0.335	0.06851039193679583	
6.695	-0.081	0.08303034987749357	
6.7	0.702	0.09086943160539768	
6.705	-0.136	0.09894882291565073	
6.71	-0.277	0.10554012784837284	
6.715	0.641	0.11251410112558714	
6.72	0.215	0.12205884001278114	
6.725	-0.312	0.1310485758407685	
6.73	0.490	0.15101846304297845	
6.735	0.805	0.18658982976347052	
6.74	-0.130	0.23346584566413028	
6.745	0.276	0.28181984398052695	
6.75	0.987	0.3270371163489383	
6.755	-0.141	0.3500450322381358	
6.76	-0.425	0.32423895074534376	
6.765	0.133	0.23848521184855767	
6.77	-0.219	0.10430907012428585	
6.775	-0.653	-0.0330787756371663	
6.78	-0.144	-0.13611580311473828	
6.785	0.198	-0.20916352540110103	
6.79	-0.373	-0.23952953317700532	
6.795	-0.055	-0.20734355062912252	
6.8	0.802	-0.1307439437283481	
6.805	-0.032	-0.03389257411562792	
6.81	-0.156	0.06001379816029505	
6.815	0.881	0.14669226917398162	
6.82	0.482	0.22848580816880215	
6.825	-0.220	0.29355018355639323	
6.83	0.589	0.33585095148412797	
6.835	0.881	0.3661682408930206	
6.84	-0.156	0.38723085896904463	
6.845	0.114	0.38834898638858034	
6.85	0.961	0.37355618010672786	
6.855	0.064	0.3582120500938467	
6.86	-0.129	0.34269131000979564	
6.865	0.915	0.3317747730010696	
6.87	0.521	0.33777016908110696	
6.875	-0.187	0.3513749420033434	
6.88	0.602	0.36370155177157837	
6.885	0.867	0.3764150278290355	
6.89	-0.121	0.3872668829905528	
6.895	0.246	0.39211712001490817	
6.9	1.139	0.4006555269679083	
6.905	0.194	0.42041434192048455	
6.91	-0.042	0.43449237335354607	
6.915	1.098	0.44464021214631644	
6.92	0.693	0.469036038257764	
6.925	-0.141	0.4933891886326317	
6.93	0.683	0.5003822855777723	
6.935	0.959	0.4995342074196383	
6.94	-0.147	0.49256022487445794	
6.945	0.038	0.45981496214373285	
6.95	0.791	0.4024309995627773	
6.955	-0.113	0.3338321989269185	
6.96	-0.327	0.26152048915292064	
6.965	0.536	0.1941803481050161	
6.97	0.134	0.13726126525421586	
6.975	-0.414	0.09176612021143646	
6.98	0.154	0.06297270622963312	
6.985	0.369	0.03741364767292584	
6.99	-0.416	0.012055473733027587	
6.995	-0.226	-0.005323926547662336	
7.0	0.455	-0.02192037224998187	
7.005	-0.197	-0.038799913425053616	
7.01	-0.292	-0.03835338467120127	
7.015	0.544	-0.015208780358426837	
7.02	0.108	0.012388361390783958	
7.025	-0.425	0.028995705046577138	
7.03	0.110	0.037666548537597835	
7.035	0.386	0.031388485170877604	
7.04	-0.381	0.01833781890685722	
7.045	-0.200	0.010501396305021232	
7.05	0.551	0.00394841086405442	
7.055	-0.171	-0.0005449087119055644	
7.06	-0.367	0.0005710841480976659	
7.065	0.449	0.007576609161831457	
7.07	0.128	0.01259843230107884	
7.075	-0.401	0.016065599913368363	
7.08	0.162	0.02544653494098476	
7.085	0.473	0.03249803698482533	
7.09	-0.356	0.0374732476427839	
7.095	-0.181	0.04129055154924541	
7.1	0.597	0.040957728256596534	
7.105	-0.168	0.037646847466954896	
7.11	-0.342	0.03541726771074957	
7.115	0.521	0.040496790714150244	
7.12	0.160	0.047819644504425496	
7.125	-0.407	0.05198883492286082	
7.13	0.166	0.05626225791424115	
7.135	0.466	0.05469853407958822	
7.14	-0.341	0.05152583122061653	
7.145	-0.144	0.05205477946956273	
7.15	0.667	0.05407598796708774	
7.155	-0.106	0.06182131620116497	
7.16	-0.286	0.07218304590245385	
7.165	0.643	0.09047255877035804	
7.17	0.343	0.1170823300413935	
7.175	-0.329	0.1438527903262768	
7.18	0.339	0.1660768395900083	
7.185	0.673	0.18294587550315983	
7.19	-0.240	0.196561971089887	
7.195	-0.077	0.19976947707636783	
7.2	0.758	0.19218061388611155	
7.205	-0.068	0.1820331710504249	
7.21	-0.312	0.1679535127939627	
7.215	0.513	0.14937423542112804	
7.22	0.171	0.12634048073510273	
7.225	-0.423	0.10079962398689427	
7.23	0.111	0.07786789902575882	
7.235	0.466	0.054125999766361205	
7.24	-0.353	0.0366700457409536	
7.245	-0.203	0.027560122853696675	
7.25	0.525	0.019226148670905944	
7.255	-0.200	0.006201123808073517	
7.26	-0.390	-0.0031971670072327334	
7.265	0.440	-0.0036604089725519057	
7.27	0.175	-0.0004689076097562307	
7.275	-0.399	0.0077015134960800365	
7.28	0.125	0.02175467074162565	
7.285	0.499	0.03130890522356882	
7.29	-0.339	0.03763087433950886	
7.295	-0.171	0.04538166001233609	
7.3	0.669	0.051401651536738514	
7.305	-0.133	0.0582684822110048	
7.31	-0.309	0.06456561359920196	
7.315	0.686	0.08143268930126109	
7.32	0.489	0.11973895163326452	
7.325	-0.184	0.1714937968713842	
7.33	0.666	0.23668020140005147	
7.335	0.897	0.3105820278407602	
7.34	-0.324	0.35853066941016953	
7.345	-0.371	0.33705291158288825	
7.35	0.024	0.22953790690758458	
7.355	-0.495	0.061436693319356195	
7.36	-0.677	-0.0996574248940392	
7.365	-0.005	-0.21654445124897534	
7.37	-0.009	-0.29300953856643086	
7.375	-0.382	0.21690705475847508	
7.38	0.337	0.22953790690758458	
7.385	0.809	-0.12512831611595052	
7.39	-0.148	0.0094182284181868	
7.395	0.047	0.12788746346498223	
7.4	0.959	0.21690705475847508	
7.405	0.056	0.27842095369007247	
7.41	-0.217	0.305880353791882	
7.415	0.770	0.31065903913558185	
7.42	0.544	0.3142764973782697	
7.425	-0.207	0.3208969567513822	
7.43	0.452	0.32748674853360804	
7.435	0.852	0.3333057329730357	
7.44	-0.182	0.33528691659144083	
7.445	-0.014	0.32355566436207406	
7.45	0.970	0.30724439005250037	
7.455	0.169	0.3026127381499777	
7.46	-0.142	0.3075262326095383	
7.465	0.918	0.3197091604691161	
7.47	0.699	0.3506055006938821	
7.475	-0.145	0.38768881275617745	
7.48	0.629	0.41727106135372477	
7.485	1.039	0.44660023727850645	
7.49	-0.063	0.46935586854575073	
7.495	0.108	0.4682287471393933	
7.5	1.094	0.4533040067313862	
7.505	0.272	0.4449046785424401	
7.51	-0.127	0.43632962496634053	
7.515	0.890	0.42347431794064744	
7.52	0.625	0.41789991542695437	
7.525	-0.217	0.4127957288351333	
7.53	0.392	0.3958976865776834	
7.535	0.793	0.369654905161785	
7.54	-0.214	0.3397317507526916	
7.545	-0.126	0.2989981606482164	
7.55	0.667	0.24803168882796717	
7.555	-0.132	0.1912790397686488	
7.56	-0.378	0.13740690024072777	
7.565	0.377	0.09206079997457903	
7.57	0.055	0.04705802864444975	
7.575	-0.477	0.002113935117314133	
7.58	-0.025	-0.028420182614079335	
7.585	0.409	-0.05042305777193093	
7.59	-0.362	-0.06289192713374323	
7.595	-0.251	-0.05713415923885873	
7.6	0.537	-0.04520029365372859	
7.605	-0.138	-0.033439597296765655	
7.61	-0.375	-0.0195745487621564	
7.615	0.420	-0.0012132307214637317	
7.62	0.246	0.016226784949175434	
7.625	-0.381	0.031244851769552984	
7.63	0.097	0.048317842571147476	
7.635	0.571	0.05861238447343184	
7.64	-0.280	0.06730426007910485	
7.645	-0.191	0.07567638584285175	
7.65	0.614	0.0787257517393778	
7.655	-0.115	0.073776389843447	
7.66	-0.365	0.06433930175942426	
7.665	0.447	0.06064012655347897	
7.67	0.307	0.060420518733903084	
7.675	-0.350	0.0672644680300882	
7.68	0.154	0.08112752308944379	
7.685	0.615	0.09373270713652923	
7.69	-0.257	0.10440636906198338	
7.695	-0.155	0.11248175157856145	
7.7	0.712	0.11776237658648403	
7.705	-0.052	0.11995578866281656	
7.71	-0.320	0.11818149726612853	
7.715	0.536	0.11956055048341263	
7.72	0.379	0.12463200981189432	
7.725	-0.329	0.13420359262098006	
7.73	0.175	0.14294256301744207	
7.735	0.644	0.14590198603433382	
7.74	-0.258	0.14548333813725595	
7.745	-0.176	0.14126438457984225	
7.75	0.736	0.13381921008812409	
7.755	-0.028	0.13014361395555873	
7.76	-0.278	0.1280242413213365	
7.765	0.690	0.1394826310564607	
7.77	0.533	0.169854982477241	
7.775	-0.266	0.20716290488206893	
7.78	0.319	0.23572734282274266	
7.785	0.793	0.25505060050477435	
7.79	-0.155	0.26662063659466206	
7.795	-0.038	0.26802905113438025	
7.8	0.926	0.2677992629706403	
7.805	0.116	0.27240841181518605	
7.81	-0.242	0.27189512084699413	
7.815	0.678	0.2672418487305288	
7.82	0.427	0.2620920429763449	
7.825	-0.341	0.25026894264600985	
7.83	0.058	0.22340607790162068	
7.835	0.551	0.17910891847238308	
7.84	-0.286	0.13393004825873986	
7.845	-0.237	0.0988242184886731	
7.85	0.560	0.06961882145070522	
7.855	-0.113	0.0447129240535611	
7.86	-0.371	0.026910758415173312	
7.865	0.441	0.024968421107129393	
7.87	0.310	0.0332589888695899	
7.875	-0.365	0.047443396595394635	
7.88	0.094	0.0641679004921904	
7.885	0.588	0.07511349622193479	
7.89	-0.263	0.08214652821485288	
7.895	-0.207	0.08765975518630292	
7.9	0.631	0.08750166026551237	
7.905	-0.063	0.08393540941067335	
7.91	-0.332	0.0788664807369528	
7.915	0.495	0.08177007996694684	
7.92	0.391	0.09342623314157968	
7.925	-0.291	0.11153119251621713	
7.93	0.369	0.14095875727108712	
7.935	0.993	0.1921996462637974	
7.94	-0.077	0.25534123873251785	
7.945	-0.153	0.2944208147365519	
7.95	0.310	0.27235217094003517	
7.955	-0.402	0.18116577344435558	
7.96	-0.744	0.049815687248555174	
7.965	-0.207	-0.09045007415668416	
7.97	-0.177	-0.22639182291721294	
7.975	-0.546	-0.319326203450737	
7.98	-0.017	-0.3331932333948343	
7.985	0.661	-0.27774006717455124	
7.99	-0.205	-0.17953824748197686	
7.995	-0.126	-0.06968335992074447	
8.0	0.854	0.03242510160366332	
8.005	0.131	0.12231146050546479	
8.01	-0.239	0.18865167621195128	
8.015	0.655	0.23149427316903273	
8.02	0.573	0.2627865579714607	
8.025	-0.249	0.28454526361108523	
8.03	0.278	0.2915614411766857	
8.035	0.816	0.290390762675565	
8.04	-0.158	0.28557332763925347	
8.045	-0.130	0.27010865330697953	
8.05	0.780	0.24640967965620741	
8.055	0.124	0.22855204819293953	
8.06	-0.223	0.21760181237954737	
8.065	0.730	0.22132557668225097	
8.07	0.625	0.24697042173640787	
8.075	-0.228	0.2766580924495407	
8.08	0.293	0.294304945298562	
8.085	0.866	0.30239787747530167	
8.09	-0.115	0.3078531344093868	
8.095	-0.054	0.3029509926908135	
8.1	0.958	0.2951926507246003	
8.105	0.244	0.3018622673567984	
8.11	-0.190	0.30966695953560913	
8.115	0.783	0.3179150663473809	
8.12	0.680	0.3361106044182463	
8.125	-0.234	0.3540299229120206	
8.13	0.243	0.34992348111509364	
8.135	0.756	0.3281889785261666	
8.14	-0.237	0.2963870448811058	
8.145	-0.220	0.24986135668382267	
8.15	0.557	0.19264767083000006	
8.155	-0.101	0.13426317149716926	
8.16	-0.433	0.0790098496724804	
8.165	0.188	0.03129510348464183	
8.17	0.041	-0.01888667163697239	
8.175	-0.518	-0.06833797308105247	
8.18	-0.188	-0.10441621661780892	
8.185	0.211	-0.1361876085310521	
8.19	-0.436	-0.1650312462313647	
8.195	-0.393	-0.17809541519843403	
8.2	0.299	-0.17688845326942704	
8.205	-0.193	-0.1734367569456054	
8.21	-0.498	-0.1646856338325185	
8.215	0.062	-0.15317366467453314	
8.22	0.023	-0.15488529399251977	
8.225	-0.503	-0.16193151581746623	
8.23	-0.162	-0.1586726271887686	
8.235	0.295	-0.1543870590501233	
8.24	-0.396	-0.15069071942594126	
8.245	-0.365	-0.1421517491687507	
8.25	0.330	-0.1311637506612367	
8.255	-0.207	-0.12722708229254098	
8.26	-0.488	-0.12659848937763424	
8.265	0.191	-0.12040761465661393	
8.27	0.166	-0.11077407340413775	
8.275	-0.456	-0.09978683054217177	
8.28	-0.110	-0.08589199329343392	
8.285	0.372	-0.0783793926848097	
8.29	-0.382	-0.07749563928686481	
8.295	-0.376	-0.07931137173159397	
8.3	0.377	-0.08324660468445745	
8.305	-0.142	-0.08800357235693956	
8.31	-0.468	-0.09066205070829711	
8.315	0.181	-0.08758240059627682	
8.32	0.183	-0.0855988402303384	
8.325	-0.439	-0.08073932828596354	
8.33	-0.092	-0.07008712653476921	
8.335	0.426	-0.06228246467720246	
8.34	-0.329	-0.055369099718265466	
8.345	-0.330	-0.04948849686282722	
8.35	0.411	-0.04624530818510521	
8.355	-0.133	-0.04984192882429842	
8.36	-0.436	-0.05478834626907308	
8.365	0.255	-0.05264721946882915	
8.37	0.247	-0.04541361513513521	
8.375	-0.442	-0.03680734455656499	
8.38	-0.133	-0.03224440917475193	
8.385	0.385	-0.03911956923135025	
8.39	-0.344	-0.05132802938789872	
8.395	-0.329	-0.05867628379355432	
8.4	0.453	-0.05813743904944185	
8.405	-0.100	-0.05570638947361368	
8.41	-0.396	-0.049989555737508025	
8.415	0.363	-0.03264464326982814	
8.42	0.365	-0.005194432948185449	
8.425	-0.368	0.025044548435118073	
8.43	-0.016	0.04761877302591691	
8.435	0.573	0.057121464701720526	
8.44	-0.280	0.060656390219893504	
8.445	-0.272	0.05807235355500366	
8.45	0.582	0.05301671447172647	
8.455	-0.009	0.05145030145594352	
8.46	-0.349	0.05176739609760015	
8.465	0.450	0.059337853650971106	
8.47	0.357	0.07604732010652729	
8.475	-0.417	0.0869163986965779	
8.48	-0.100	0.07843647212484471	
8.485	0.403	0.0503326568147085	
8.49	-0.358	0.013719233516917475	
8.495	-0.355	-0.01915664891072994	
8.5	0.414	-0.0439012304656968	
8.505	-0.122	-0.061360091879456014	
8.51	-0.443	-0.07141878492299233	
8.515	0.241	-0.06873600756361439	
8.52	0.261	-0.058719822034837825	
8.525	-0.426	-0.04714580860526135	
8.53	-0.098	-0.03373005835353975	
8.535	0.460	-0.02846679923449585	
8.54	-0.315	-0.02723994339028579	
8.545	-0.335	-0.02740164536249011	
8.55	0.476	-0.02578897845681084	
8.555	-0.074	-0.026193080002280537	
8.56	-0.417	-0.02566163140920793	
8.565	0.281	-0.019756636991114237	
8.57	0.345	-0.008457413577027121	
8.575	-0.339	0.008705283542037017	
8.58	0.082	0.03411021034645507	
8.585	0.811	0.06981672781327165	
8.59	-0.066	0.1197725554310677	
8.595	-0.132	0.16530524682414566	
8.6	0.585	0.18834091807768907	
8.605	-0.239	0.17195767839900275	
8.61	-0.703	0.10404274886197881	
8.615	-0.280	-0.006806067444763203	
8.62	-0.278	-0.14919211108675007	
8.625	-0.741	-0.2844096268249774	
8.63	-0.349	-0.36501107184836784	
8.635	0.278	-0.38990041269218767	
8.64	-0.274	-0.36424010789952543	
8.645	-0.222	-0.28891807492327176	
8.65	0.796	-0.17537858646311233	
8.655	0.206	-0.04489529137238116	
8.66	-0.260	0.07068905293696486	
8.665	0.597	0.1583003116149267	
8.67	0.631	0.2261339977204421	
8.675	-0.257	0.2722335099415182	
8.68	0.134	0.2857438594191589	
8.685	0.803	0.27946771595664954	
8.69	-0.113	0.2677130186975578	
8.695	-0.171	0.24968230278996673	
8.7	0.771	0.22981167693720483	
8.705	0.203	0.21936943777938656	
8.71	-0.278	0.213414202564952	
8.715	0.493	0.20923416223999525	
8.72	0.596	0.21145672144321942	
8.725	-0.225	0.21917515562565357	
8.73	0.201	0.22951830661710795	
8.735	0.893	0.24367250648506675	
8.74	-0.051	0.2638392856625627	
8.745	-0.109	0.2734173204730128	
8.75	0.930	0.2798123710051207	
8.755	0.409	0.300636920646258	
8.76	-0.153	0.32629208272066135	
8.765	0.788	0.3520160325603285	
8.77	0.834	0.38668538892262444	
8.775	-0.171	0.41628845616013277	
8.78	0.166	0.4141730552675603	
8.785	0.754	0.3826537936874398	
8.79	-0.167	0.3331928964170837	
8.795	-0.219	0.2742592443189046	
8.8	0.615	0.21651672353766202	
8.805	0.042	0.166964098616337	
8.81	-0.414	0.12142486107505757	
8.815	0.211	0.08259488090536898	
8.82	0.299	0.04478540330072962	
8.825	-0.423	0.015681205180877487	
8.83	-0.167	-0.0061049182945480795	
8.835	0.342	-0.03152444194069294	
8.84	-0.362	-0.06240836965130218	
8.845	-0.411	-0.08579136167751594	
8.85	0.316	-0.1008192851705236	
8.855	-0.112	-0.11378979939370967	
8.86	-0.489	-0.12041789553217115	
8.865	0.097	-0.11671763549016388	
8.87	0.177	-0.11416373501105975	
8.875	-0.463	-0.11408947751838384	
8.88	-0.174	-0.10630431750437673	
8.885	0.415	-0.09758030390480293	
8.89	-0.317	-0.09118615691532289	
8.895	-0.382	-0.08291065970071324	
8.9	0.363	-0.07494924545489676	
8.905	-0.078	-0.07459602318552339	
8.91	-0.449	-0.07445673594377666	
8.915	0.177	-0.06687660449878868	
8.92	0.293	-0.056993053808153005	
8.925	-0.404	-0.047061100070210415	
8.93	-0.144	-0.03450723932990274	
8.935	0.460	-0.029464978329592037	
8.94	-0.275	-0.029075123147390497	
8.945	-0.347	-0.029115374963173936	
8.95	0.429	-0.02590364808274817	
8.955	-0.046	-0.02740971517455297	
8.96	-0.451	-0.03264787200176174	
8.965	0.156	-0.03394332221777864	
8.97	0.325	-0.035744351670721035	
8.975	-0.390	-0.03216338000119496	
8.98	-0.119	-0.02268861854584788	
8.985	0.521	-0.014219693635240352	
8.99	-0.249	-0.008050144228239452	
8.995	-0.315	-0.0013920532604512386	
9.0	0.554	0.009261909910972293	
9.005	0.084	0.02377937344883625	
9.01	-0.371	0.039063189688236015	
9.015	0.319	0.05504962030439236	
9.02	0.472	0.07155238075858118	
9.025	-0.335	0.08664682034272173	
9.03	-0.071	0.09511207104639526	
9.035	0.608	0.09207723386744526	
9.04	-0.217	0.0849606000407376	
9.045	-0.309	0.0743056939155537	
9.05	0.525	0.06342833004651921	
9.055	0.067	0.054969678711554934	
9.06	-0.358	0.04978987463363054	
9.065	0.392	0.058046814046295026	
9.07	0.599	0.08384967895715434	
9.075	-0.272	0.11848988697780964	
9.08	0.012	0.1459111545316366	
9.085	0.761	0.1613431864994183	
9.09	-0.113	0.17200489431048413	
9.095	-0.188	0.1770188064244688	
9.1	0.783	0.18254549537995463	
9.105	0.331	0.20219843863841147	
9.11	-0.281	0.2225596585213764	
9.115	0.432	0.2329118713962199	
9.12	0.534	0.23208770035478563	
9.125	-0.330	0.21947264719437765	
9.13	-0.122	0.19068456471126324	
9.135	0.496	0.14245964925344534	
9.14	-0.262	0.08916010149334745	
9.145	-0.350	0.042851395326894665	
9.15	0.464	0.012505284536656393	
9.155	0.013	-0.005620283120201922	
9.16	-0.407	-0.015497968141327097	
9.165	0.264	-0.010193693167927856	
9.17	0.434	0.006250832737811469	
9.175	-0.341	0.025495777560339036	
9.18	-0.092	0.04352113920233277	
9.185	0.612	0.054566729986656216	
9.19	-0.200	0.06026439706163305	
9.195	-0.310	0.06164688789241461	
9.2	0.512	0.06049984277252977	
9.205	0.068	0.055574082879081374	
9.21	-0.381	0.04936395466463052	
9.215	0.311	0.05268503017960421	
9.22	0.592	0.06847556338485916	
9.225	-0.199	0.09949249562325556	
9.23	0.185	0.1433175892483704	
9.235	0.974	0.19672598109300438	
9.24	-0.054	0.2503838246714005	
9.245	-0.339	0.2683712672090769	
9.25	0.137	0.22444770973300945	
9.255	-0.263	0.11778167878108069	
9.26	-0.711	-0.01374560749526866	
9.265	-0.278	-0.1334364953852565	
9.27	-0.147	-0.24734305282853572	
9.275	-0.599	-0.3355149568333263	
9.28	-0.263	-0.3627838201925301	
9.285	0.582	-0.32707548716768775	
9.29	-0.107	-0.2455942691395664	
9.295	-0.196	-0.13879301881973638	
9.3	0.846	-0.020307278038305662	
9.305	0.420	0.10191579969614666	
9.31	-0.228	0.2028937288839829	
9.315	0.580	0.27358246724984014	
9.32	0.819	0.3249773983110619	
9.325	-0.161	0.3602229556566171	
9.33	0.146	0.3699211816997655	
9.335	0.916	0.36220685469404024	
9.34	-0.014	0.34846759663840177	
9.345	-0.177	0.32386726871500504	
9.35	0.793	0.2967746490179584	
9.355	0.382	0.2822098501391283	
9.36	-0.246	0.2757254812548381	
9.365	0.551	0.2754310929042162	
9.37	0.791	0.28725191053927424	
9.375	-0.176	0.305278268358025	
9.38	0.136	0.3126441674247319	
9.385	0.947	0.3152935903350871	
9.39	0.062	0.320725820179586	
9.395	-0.100	0.3216648062177033	
9.4	0.932	0.3256063330802035	
9.405	0.516	0.34351280312774635	
9.41	-0.179	0.3637465509925364	
9.415	0.586	0.3740680908799363	
9.42	0.828	0.3813918507860659	
9.425	-0.171	0.38458499230808363	
9.43	0.091	0.37031727022150496	
9.435	0.863	0.34312533140024887	
9.44	-0.077	0.3141659636836609	
9.445	-0.258	0.2745957536358785	
9.45	0.577	0.22915281381065983	
9.455	0.111	0.18282383692312723	
9.46	-0.420	0.1360467294562745	
9.465	0.041	0.08857476531985582	
9.47	0.249	0.03336646560340835	
9.475	-0.449	-0.021886841496309123	
9.48	-0.268	-0.05992787331195269	
9.485	0.318	-0.08921108960457409	
9.49	-0.327	-0.11838281167778304	
9.495	-0.469	-0.1363391188979678	
9.5	0.263	-0.14127788361521199	
9.505	-0.037	-0.1439582727738843	
9.51	-0.475	-0.1396962516472247	
9.515	0.013	-0.12476576503981594	
9.52	0.272	-0.11463080738981254	
9.525	-0.423	-0.10659966567636285	
9.53	-0.243	-0.09413922483554511	
9.535	0.409	-0.08533627217879167	
9.54	-0.260	-0.0821251213946314	
9.545	-0.414	-0.07942049539215619	
9.55	0.342	-0.07246246213455286	
9.555	0.032	-0.06776297402917683	
9.56	-0.456	-0.06468112927620624	
9.565	0.047	-0.05696745499173169	
9.57	0.324	-0.05549615648105583	
9.575	-0.413	-0.05750985952337249	
9.58	-0.234	-0.054340197456969226	
9.585	0.458	-0.05426583869263057	
9.59	-0.216	-0.0539715345334818	
9.595	-0.358	-0.048601952347743255	
9.6	0.447	-0.034468876401816534	
9.605	0.075	-0.01856469776356848	
9.61	-0.416	-0.008832311455208134	
9.615	0.143	0.0019279395198454263	
9.62	0.450	0.010747216909781296	
9.625	-0.346	0.01943532550859024	
9.63	-0.167	0.028434392727407443	
9.635	0.563	0.030937459626195936	
9.64	-0.202	0.03012345271932382	
9.645	-0.371	0.02410933104993126	
9.65	0.458	0.02060589511244351	
9.655	0.154	0.02068917803976111	
9.66	-0.381	0.024945291042055867	
9.665	0.249	0.0388251237288318	
9.67	0.577	0.06005183618552439	
9.675	-0.284	0.08435472424167687	
9.68	-0.101	0.10316769240474825	
9.685	0.695	0.11317482286533997	
9.69	-0.097	0.11924943683122449	
9.695	-0.268	0.1217966310676843	
9.7	0.664	0.12766912754571647	
9.705	0.293	0.1439727916829865	
9.71	-0.347	0.15571033525719494	
9.715	0.261	0.15964681679025094	
9.72	0.541	0.15535966814510033	
9.725	-0.356	0.1433471199331226	
9.73	-0.240	0.11785459771907852	
9.735	0.440	0.07634417552577137	
9.74	-0.234	0.027461920637882886	
9.745	-0.394	-0.011475405704301363	
9.75	0.438	-0.028355268204780328	
9.755	0.130	-0.02972574738218997	
9.76	-0.437	-0.02343980719237134	
9.765	0.052	-0.01554502423261445	
9.77	0.398	-0.014361648327610256	
9.775	-0.368	-0.016639776356928197	
9.78	-0.203	-0.013409474290261266	
9.785	0.560	-0.00845401629973257	
9.79	-0.170	-0.002391224338111785	
9.795	-0.367	0.003199662209727965	
9.8	0.476	0.01268104634048038	
9.805	0.220	0.026562868747917752	
9.81	-0.375	0.04232613884433907	
9.815	0.177	0.05831310727163406	
9.82	0.626	0.07497701307872215	
9.825	-0.202	0.09830345576914706	
9.83	0.082	0.1312948267857908	
9.835	1.061	0.18280476073957136	
9.84	0.125	0.24777423682828922	
9.845	-0.332	0.28881883597276314	
9.85	0.122	0.2636301028644155	
9.855	-0.225	0.16282896129531113	
9.86	-0.743	0.02115431870654935	
9.865	-0.350	-0.11382161609016248	
9.87	-0.095	-0.2387453314889617	
9.875	-0.537	-0.3337246434855678	
9.88	-0.297	-0.36088077543258323	
9.885	0.625	-0.3179309120907427	
9.89	-0.026	-0.23018685319523213	
9.895	-0.216	-0.11845356061858206	
9.9	0.785	0.0009215443930166295	
9.905	0.545	0.12207480850146088	
9.91	-0.229	0.22169894973829962	
9.915	0.470	0.29014503992162344	
9.92	0.887	0.33469599496962654	
9.925	-0.126	0.3639771760884967	
9.93	0.013	0.3677181142361775	
9.935	0.916	0.3524458953665862	
9.94	0.084	0.33391436840020505	
9.945	-0.220	0.3121079024953865	
9.95	0.725	0.2900487425192452	
9.955	0.482	0.2784262701838808	
9.96	-0.248	0.27444048766137363	
9.965	0.440	0.27601109766213605	
9.97	0.867	0.28704988896036066	
9.975	-0.145	0.3039498483308892	
9.98	0.033	0.31042256753426656	
9.985	0.985	0.3116371154098704	
9.99	0.195	0.3211153497129204	
9.995	-0.104	0.3338394248651256	
10.0	0.985	0.35199092414142863	
10.005	0.739	0.39072527554069103	
10.01	-0.133	0.4313594783077471	
10.015	0.644	0.4577180578427321	
10.02	1.061	0.48123630067532025	
10.025	-0.051	0.4991633605848386	
10.03	0.039	0.4881047465621659	
10.035	0.910	0.44951404166650427	
10.04	0.035	0.40049340219497886	
10.045	-0.269	0.342773901162612	
10.05	0.585	0.28459348540024865	
10.055	0.319	0.233992117083473	
10.06	-0.384	0.19065306412348926	
10.065	0.015	0.14828915450617366	
10.07	0.360	0.09316036544535895	
10.075	-0.405	0.034646758974919034	
10.08	-0.315	-0.011039472235029763	
10.085	0.374	-0.0478156084979664	
10.09	-0.234	-0.08115020560889	
10.095	-0.436	-0.10110134386722809	
10.1	0.310	-0.09877817491640234	
10.105	0.075	-0.0928937746531661	
10.11	-0.465	-0.08710604737187302	
10.115	-0.023	-0.07495894575833152	
10.12	0.424	-0.06586317881988074	
10.125	-0.365	-0.05711753413637795	
10.13	-0.271	-0.0452029113890786	
10.135	0.516	-0.03392333706223265	
10.14	-0.141	-0.02693157081801072	
10.145	-0.394	-0.020186826183314535	
10.15	0.379	-0.008948812140398056	
10.155	0.165	-0.0016977961511424398	
10.16	-0.428	0.0009082269900638404	
10.165	0.006	0.002829602162948761	
10.17	0.438	-0.0007282194932115578	
10.175	-0.344	-0.008009387699342497	
10.18	-0.249	-0.008416362819166941	
10.185	0.562	-0.005864928423977254	
10.19	-0.138	-0.0017474309658339698	
10.195	-0.391	0.0006157540970149369	
10.2	0.427	0.009002166680313542	
10.205	0.269	0.021556613790140903	
10.21	-0.404	0.03379230175424448	
10.215	0.050	0.04464081646852264	
10.22	0.551	0.047516237619968274	
10.225	-0.304	0.050024704319453585	
10.23	-0.222	0.05230563866042865	
10.235	0.592	0.05226818661649709	
10.24	-0.071	0.050442866708456574	
10.245	-0.333	0.050364612610313705	
10.25	0.496	0.060980988461147766	
10.255	0.333	0.07582541040635805	
10.26	-0.349	0.09163662862634248	
10.265	0.181	0.10747428846212195	
10.27	0.649	0.12079125966422832	
10.275	-0.240	0.13201550979790944	
10.28	-0.158	0.13701948120013907	
10.285	0.761	0.13945659301764413	
10.29	0.070	0.14762896457368388	
10.295	-0.242	0.16006581060820185	
10.3	0.693	0.17996953819616035	
10.305	0.501	0.2081329563094956	
10.31	-0.300	0.2324670357643852	
10.315	0.212	0.24024243682379093	
10.32	0.683	0.23206234677835422	
10.325	-0.254	0.2160862238435191	
10.33	-0.217	0.1897138729326891	
10.335	0.576	0.1525406636447831	
10.34	-0.118	0.11086400155867493	
10.345	-0.426	0.06985016136476686	
10.35	0.316	0.03786225028481776	
10.355	0.206	0.010400483456822466	
10.36	-0.401	-0.006568259612411222	
10.365	0.035	-0.005944581359887252	
10.37	0.515	0.0002570600445648541	
10.375	-0.310	0.006150772925638845	
10.38	-0.248	0.015486472139139349	
10.385	0.626	0.025660556001066114	
10.39	-0.038	0.0370252474417603	
10.395	-0.330	0.04960509227886603	
10.4	0.525	0.06986568178308063	
10.405	0.415	0.09565966812125332	
10.41	-0.317	0.12223594358508619	
10.415	0.188	0.14488145266942487	
10.42	0.823	0.16655610263303894	
10.425	-0.097	0.19515129750775512	
10.43	0.041	0.22719215878533583	
10.435	1.170	0.2718462018722232	
10.44	0.443	0.34024266377577694	
10.445	-0.229	0.39830218022186537	
10.45	0.188	0.39271607760945926	
10.455	-0.181	0.2938618563911989	
10.46	-0.772	0.12916798683821962	
10.465	-0.416	-0.04025828286896452	
10.47	-0.046	-0.19526179536938143	
10.475	-0.469	-0.3127993557094594	
10.48	-0.303	-0.3489093660830348	
10.485	0.716	-0.3009764606616694	
10.49	0.139	-0.197728519968347	
10.495	-0.200	-0.07091331383607409	
10.5	0.805	0.0619631201967479	
10.505	0.744	0.19211743284476696	
10.51	-0.153	0.3017936700155891	
10.515	0.453	0.37465309272926556	
10.52	0.987	0.419115544469505	
10.525	-0.064	0.4399758547290014	
10.53	-0.013	0.43068042809622453	
10.535	0.950	0.40530863754554053	
10.54	0.247	0.3814355829685619	
10.545	-0.194	0.36071123793232274	
10.55	0.686	0.34099564662230897	
10.555	0.614	0.328463229552747	
10.56	-0.205	0.3216291689153663	
10.565	0.380	0.3204714480904659	
10.57	0.968	0.32841877378827816	
10.575	-0.042	0.34403818003111564	
10.58	0.009	0.35239155103553965	
10.585	1.075	0.3584137589130303	
10.59	0.427	0.38067778985038425	
10.595	-0.075	0.4085012812483423	
10.6	0.996	0.43885800648005874	
10.605	0.924	0.48173963388340524	
10.61	-0.075	0.5216361631797304	
10.615	0.594	0.543148867984358	
10.62	1.159	0.5555227123638774	
10.625	-0.005	0.5613191592874948	
10.63	-0.023	0.5341168224420643	
10.635	0.947	0.483192137120269	
10.64	0.166	0.42806702037734556	
10.645	-0.284	0.37053729589060375	
10.65	0.525	0.31139501004436276	
10.655	0.440	0.25894483492150655	
10.66	-0.349	0.21504739485120739	
10.665	0.003	0.17572776259254766	
10.67	0.504	0.12933182756226871	
10.675	-0.320	0.08287784299269138	
10.68	-0.312	0.04504623536719472	
10.685	0.443	0.01372418080302067	
10.69	-0.144	-0.01658013035288296	
10.695	-0.442	-0.0412074812139353	
10.7	0.266	-0.04807167281809337	
10.705	0.258	-0.048007949324507235	
10.71	-0.423	-0.04155019696727334	
10.715	-0.060	-0.027561593331078264	
10.72	0.492	-0.019856226284858718	
10.725	-0.292	-0.014743113184420105	
10.73	-0.304	-0.007029264689009331	
10.735	0.512	-0.0005856425007456324	
10.74	-0.068	-0.0003262257366864195	
10.745	-0.396	-9.66014943363952e-05	
10.75	0.328	0.007616405641325458	
10.755	0.311	0.016077430917764934	
10.76	-0.368	0.024667748081643737	
10.765	-0.025	0.03621732292823029	
10.77	0.531	0.03908671203125551	
10.775	-0.280	0.0374881558464428	
10.78	-0.263	0.03586745700628256	
10.785	0.582	0.03727997430391701	
10.79	-0.057	0.0378682873379278	
10.795	-0.375	0.036892775582402546	
10.8	0.379	0.040434932403580676	
10.805	0.325	0.048217075168160706	
10.81	-0.370	0.053747636021481145	
10.815	-0.011	0.059016449181881446	
10.82	0.574	0.05914836454738308	
10.825	-0.236	0.05765866114522605	
10.83	-0.263	0.0586898854057659	
10.835	0.614	0.061224317225400365	
10.84	0.021	0.06508926160979203	
10.845	-0.346	0.06880533731437372	
10.85	0.443	0.0792701526737761	
10.855	0.473	0.09742075434501529	
10.86	-0.327	0.11778890320146097	
10.865	0.046	0.13077660059919016	
10.87	0.683	0.13424558032002293	
10.875	-0.177	0.13583918261796116	
10.88	-0.177	0.13848410574244743	
10.885	0.764	0.14416672420826726	
10.89	0.131	0.15733791939331104	
10.895	-0.283	0.16872106031291223	
10.9	0.545	0.18005512936144408	
10.905	0.524	0.19461807007566567	
10.91	-0.274	0.20689273311090153	
10.915	0.137	0.21151475032793474	
10.92	0.739	0.2092907052955213	
10.925	-0.187	0.2040853850357472	
10.93	-0.234	0.18828108067560875	
10.935	0.617	0.16400182981669126	
10.94	-0.002	0.13763218472463862	
10.945	-0.373	0.10872381961569419	
10.95	0.336	0.08775458060813987	
10.955	0.322	0.07079997174798627	
10.96	-0.402	0.05610003911621056	
10.965	-0.092	0.043213059479439125	
10.97	0.478	0.024269488756174254	
10.975	-0.313	0.00540601262212661	
10.98	-0.332	-0.009878266263045218	
10.985	0.467	-0.01819073076319704	
10.99	-0.066	-0.02507735332552915	
10.995	-0.422	-0.02927283649852692	
11.0	0.211	-0.026531245089509436	
11.005	0.290	-0.02502316074119646	
11.01	-0.407	-0.022745171512463642	
11.015	-0.092	-0.015054167405388268	
11.02	0.512	-0.010693361084740458	
11.025	-0.291	-0.008364725247944852	
11.03	-0.326	-0.006079676506808668	
11.035	0.573	-0.00027921732070109443	
11.04	0.143	0.016189963997676242	
11.045	-0.199	0.05065716809339751	
11.05	0.845	0.11629261263631194	
11.055	0.854	0.21821939298544332	
11.06	-0.275	0.31228330723153347	
11.065	-0.197	0.3355653528792794	
11.07	-0.028	0.2553274557727918	
11.075	-0.647	0.0958887178235275	
11.08	-0.720	-0.07726559050591987	
11.085	-0.121	-0.22938427370082184	
11.09	-0.281	-0.34852829480138847	
11.095	-0.480	-0.3993534234926905	
11.1	0.347	-0.3598697904177905	
11.105	0.531	0.16192929021918484	
11.11	-0.263	-0.1276695467670518	
11.115	0.088	-0.005540961606722517	
11.12	0.794	0.09052808648687698	
11.125	-0.107	0.16192929021918484	
11.13	-0.156	0.20345888915260527	
11.135	0.809	0.22570008858479854	
11.14	0.247	0.24364050850807484	
11.145	-0.280	0.25234692185630575	
11.15	0.502	0.24997963815244256	
11.155	0.605	0.247662913640459	
11.16	-0.266	0.246308935239178	
11.165	0.076	0.23621724397813829	
11.17	0.748	0.2206895856809152	
11.175	-0.148	0.20612927342556236	
11.18	-0.184	0.1892456131899183	
11.185	0.802	0.18163747087552165	
11.19	0.258	0.190921789948425	
11.195	-0.269	0.2062972391109172	
11.2	0.579	0.2207229219610467	
11.205	0.699	0.24385719265611283	
11.21	-0.197	0.2714910052094873	
11.215	0.217	0.2879095183337862	
11.22	0.942	0.300653183631569	
11.225	-0.019	0.31649106320867326	
11.23	-0.104	0.31807758482175563	
11.235	0.889	0.31329920888034973	
11.24	0.313	0.31427567479585794	
11.245	-0.260	0.31246523273277493	
11.25	0.472	0.2962166149353884	
11.255	0.504	0.2729327443275864	
11.26	-0.342	0.2429866456265987	
11.265	-0.097	0.19853390155159162	
11.27	0.475	0.1413232978178224	
11.275	-0.309	0.08107808958734258	
11.28	-0.413	0.026104609524240784	
11.285	0.252	-0.025306780790026465	
11.29	-0.162	-0.07740284193722174	
11.295	-0.566	-0.1221019842004242	
11.3	-0.068	-0.15332074862359044	
11.305	0.058	-0.18515375343639698	
11.31	-0.526	-0.2104295768945699	
11.315	-0.260	-0.21368168708218493	
11.32	0.243	-0.20905088123964527	
11.325	-0.373	-0.20450120102572134	
11.33	-0.440	-0.1938143558256055	
11.335	0.258	-0.17772451679193207	
11.34	-0.132	-0.16722571463979605	
11.345	-0.504	-0.15886405534078923	
11.35	0.024	-0.14663461157075616	
11.355	0.134	-0.1431701940595168	
11.36	-0.512	-0.14617132230801966	
11.365	-0.254	-0.1458639751376905	
11.37	0.324	-0.14716573229772997	
11.375	-0.336	-0.14726377623152603	
11.38	-0.417	-0.1418746703903631	
11.385	0.285	-0.13289305296335074	
11.39	-0.136	-0.13005711319109842	
11.395	-0.506	-0.13183921640338633	
11.4	0.049	-0.12880278950415264	
11.405	0.215	-0.1270545348993185	
11.41	-0.439	-0.12208772331572211	
11.415	-0.185	-0.10902852785167724	
11.42	0.446	-0.09511480206353151	
11.425	-0.277	-0.0801443179648366	
11.43	-0.358	-0.06602796353708378	
11.435	0.398	-0.05290371663738129	
11.44	-0.049	-0.045892668140743234	
11.445	-0.462	-0.045953946210351274	
11.45	0.124	-0.046896649019331355	
11.455	0.287	-0.04887126670445094	
11.46	-0.445	-0.05112189073263394	
11.465	-0.217	-0.05320656434163585	
11.47	0.383	-0.06297356246978279	
11.475	-0.283	-0.07306190920968927	
11.48	-0.344	-0.07621548240071285	
11.485	0.467	-0.06483541352102173	
11.49	0.039	-0.044720511047746825	
11.495	-0.381	-0.024127944502378217	
11.5	0.308	0.0010464164164113313	
11.505	0.484	0.03335878152369075	
11.51	-0.341	0.06379223671787967	
11.515	-0.103	0.08058725544456644	
11.52	0.620	0.08222218022866853	
11.525	-0.139	0.0840354397472453	
11.53	-0.251	0.08652608252661376	
11.535	0.596	0.09219329422853507	
11.54	0.090	0.09850691435864137	
11.545	-0.405	0.09470700295608628	
11.55	0.172	0.08088833552303124	
11.555	0.272	0.055579812444152624	
11.56	-0.436	0.023816428507988124	
11.565	-0.200	-0.006621341047530317	
11.57	0.409	-0.03465034346949617	
11.575	-0.306	-0.0578220915199654	
11.58	-0.408	-0.07368687454960268	
11.585	0.325	-0.08180958013401204	
11.59	-0.064	-0.09027126140398814	
11.595	-0.486	-0.09642474914244738	
11.6	0.042	-0.09722193069966092	
11.605	0.269	-0.09818755936494263	
11.61	-0.425	-0.0962206170735602	
11.615	-0.211	-0.08782685259892063	
11.62	0.402	-0.08147039779816648	
11.625	-0.284	-0.07975495696891527	
11.63	-0.404	-0.0779376780830944	
11.635	0.394	-0.07170329174169976	
11.64	-0.009	-0.06508112978830019	
11.645	-0.416	-0.05767341647386262	
11.65	0.275	-0.03924471947871959	
11.655	0.652	0.0011231411640787294	
11.66	-0.177	0.06163311437450248	
11.665	0.134	0.1269449244732453	
11.67	0.712	0.17980234838213066	
11.675	-0.318	0.19827006582676343	
11.68	-0.599	0.15968459238951743	
11.685	-0.150	0.0573855338331929	
11.69	-0.405	-0.09083161356490517	
11.695	-0.766	-0.23290499744015408	
11.7	-0.239	-0.3292857801978417	
11.705	-0.034	-0.3875820103321719	
11.71	-0.486	-0.4045097034108043	
11.715	-0.155	-0.36418885822933844	
11.72	0.718	-0.2748302045213999	
11.725	-0.077	-0.15574719669061562	
11.73	-0.220	-0.03962033765129616	
11.735	0.719	0.05769768160017315	
11.74	0.366	0.14033574877922877	
11.745	-0.237	0.20462063989229695	
11.75	0.531	0.24973941619023557	
11.755	0.736	0.28479788993351574	
11.76	-0.216	0.30816812801619475	
11.765	0.044	0.3065140720680465	
11.77	0.846	0.28953113388850404	
11.775	-0.032	0.27429607465657113	
11.78	-0.205	0.25503496157698824	
11.785	0.745	0.23686102152743083	
11.79	0.366	0.23360756636601282	
11.795	-0.260	0.2363805814403199	
11.8	0.486	0.2426312380933659	
11.805	0.738	0.25508896136266423	
11.81	-0.194	0.27116053881584956	
11.815	0.093	0.2762640774384715	
11.82	0.919	0.2786619590139131	
11.825	0.042	0.2864906069674048	
11.83	-0.133	0.28981875774655896	
11.835	0.936	0.2957573852450507	
11.84	0.536	0.3218871233653036	
11.845	-0.194	0.3503628786330443	
11.85	0.562	0.3653126727026437	
11.855	0.738	0.37022972283528216	
11.86	-0.229	0.3624226792135384	
11.865	-0.034	0.32995440314115776	
11.87	0.718	0.2815086125997337	
11.875	-0.145	0.23090577019860542	
11.88	-0.339	0.17976731252496786	
11.885	0.408	0.12632677723973446	
11.89	-0.005	0.07215565123415771	
11.895	-0.495	0.019658239492804333	
11.9	-0.054	-0.02711130682322572	
11.905	0.195	-0.07480469725292262	
11.91	-0.468	-0.11510160572099865	
11.915	-0.280	-0.13422891727388286	
11.92	0.328	-0.14279479551781663	
11.925	-0.313	-0.1487337218197238	
11.93	-0.466	-0.14916308071268128	
11.935	0.223	-0.14403519849371266	
11.94	-0.098	-0.1466903982910225	
11.945	-0.526	-0.15212695469164822	
11.95	-0.049	-0.15138102222966263	
11.955	0.230	-0.1518150431743222	
11.96	-0.437	-0.1488698539729815	
11.965	-0.269	-0.13739282290294788	
11.97	0.305	-0.1279030411937383	
11.975	-0.278	-0.1275344903764452	
11.98	-0.436	-0.12622076634707563	
11.985	0.293	-0.11615821928258589	
11.99	-0.011	-0.10953286065982706	
11.995	-0.454	-0.10314232753632675	
12.0	0.059	-0.08951716082169839	
12.005	0.365	-0.07567588349410836	
12.01	-0.375	-0.05985370739215216	
12.015	-0.208	-0.04356995889056825	
12.02	0.478	-0.03277920576888209	
12.025	-0.225	-0.028437000762126838	
12.03	-0.378	-0.026434864080369522	
12.035	0.403	-0.023112916369021186	
12.04	0.044	-0.020338288242151337	
12.045	-0.460	-0.023330685030245973	
12.05	0.061	-0.026605199657749944	
12.055	0.394	-0.031426259722342635	
12.06	-0.387	-0.03092190575600042	
12.065	-0.194	-0.026775070100797417	
12.07	0.559	-0.019565705702890013	
12.075	-0.190	-0.010349267981551606	
12.08	-0.364	-0.002704217502910121	
12.085	0.525	0.008964796706562977	
12.09	0.240	0.030902082107136408	
12.095	-0.344	0.05646560804225553	
12.1	0.288	0.08227709559749907	
12.105	0.625	0.10984321133515677	
12.11	-0.268	0.13603723319113728	
12.115	-0.098	0.1489560872067932	
12.12	0.687	0.14859237878677628	
12.125	-0.122	0.1418194337460268	
12.13	-0.344	0.12704475538739107	
12.135	0.405	0.10291245183629084	
12.14	0.027	0.07014666084310703	
12.145	-0.459	0.030368502914748158	
12.15	0.001	-0.0039042139962229875	
12.155	0.314	-0.035951004299589466	
12.16	-0.426	-0.0618963029328419	
12.165	-0.262	-0.07425326380557166	
12.17	0.455	-0.07929943715902096	
12.175	-0.217	-0.0790247685150797	
12.18	-0.385	-0.07215528034490104	
12.185	0.400	-0.05607701462924668	
12.19	0.078	-0.04063165175567287	
12.195	-0.434	-0.030803631252802874	
12.2	0.073	-0.021027312101619903	
12.205	0.402	-0.01669055252183949	
12.21	-0.375	-0.013962185075748618	
12.215	-0.217	-0.011504410940584131	
12.22	0.542	-0.009073146392013978	
12.225	-0.135	-0.004917003728109997	
12.23	-0.280	0.006535158512968137	
12.235	0.736	0.040030877663182626	
12.24	0.553	0.10366929311214	
12.245	-0.242	0.1789327515932747	
12.25	0.177	0.225794348007739	
12.255	0.165	0.2115840220513953	
12.26	-0.617	0.13394919018950496	
12.265	-0.543	0.021223733180930047	
12.27	-0.100	-0.1098349732712931	
12.275	-0.500	-0.24280301646191674	
12.28	-0.634	-0.33574133084755875	
12.285	0.065	-0.3708249842611064	
12.29	0.024	-0.36611675962020346	
12.295	-0.378	-0.32136476809832404	
12.3	0.301	-0.22710658198329609	
12.305	0.780	-0.0999636000463728	
12.31	-0.207	0.028634449998670757	
12.315	-0.074	0.12593497726806874	
12.32	0.826	0.18466499066855693	
12.325	0.006	0.21914517260975436	
12.33	-0.239	0.2316781530203727	
12.335	0.699	0.23347452827627202	
12.34	0.467	0.2412297643596046	
12.345	-0.284	0.2500898187502056	
12.35	0.345	0.2527871696719074	
12.355	0.758	0.25355624940144217	
12.36	-0.187	0.2554485340375331	
12.365	-0.045	0.25059246941776603	
12.37	0.855	0.2410765310146496	
12.375	0.047	0.23828409372386292	
12.38	-0.197	0.23425056012291937	
12.385	0.797	0.23959732916292242	
12.39	0.586	0.2635859403066188	
12.395	-0.202	0.2947976281043308	
12.4	0.515	0.3216020852998559	
12.405	0.973	0.3519328527854765	
12.41	-0.106	0.38043847879797055	
12.415	0.062	0.388214564828068	
12.42	1.025	0.3822476766916471	
12.425	0.215	0.3815753671867177	
12.43	-0.164	0.37794654697851016	
12.435	0.768	0.3664238037445107	
12.44	0.504	0.35393822267401176	
12.445	-0.294	0.33779349108579226	
12.45	0.201	0.3062348497804799	
12.455	0.603	0.2600843338339738	
12.46	-0.301	0.211731781776832	
12.465	-0.216	0.16295067609053107	
12.47	0.530	0.11410845707179595	
12.475	-0.182	0.06590447814011687	
12.48	-0.448	0.02391761632859142	
12.485	0.253	-0.009858967496525118	
12.49	0.041	-0.044870324167005794	
12.495	-0.508	-0.07604018199221317	
12.5	-0.097	-0.09300452207470514	
12.505	0.299	-0.1088884585171894	
12.51	-0.449	-0.1240656362368577	
12.515	-0.349	-0.1282024332982436	
12.52	0.402	-0.1259471917428309	
12.525	-0.203	-0.12391642633055515	
12.53	-0.439	-0.11417839187569606	
12.535	0.321	-0.0939406467685642	
12.54	0.124	-0.07570116039220519	
12.545	-0.437	-0.06112180119801436	
12.55	0.026	-0.04313584472823923	
12.555	0.479	-0.027691455294782667	
12.56	-0.323	-0.014084948830882495	
12.565	-0.219	0.0015786510240136846	
12.57	0.600	0.016229648152001883	
12.575	-0.104	0.02818736970243326	
12.58	-0.371	0.03453664975205433	
12.585	0.426	0.042126788262834	
12.59	0.255	0.04855849805432427	
12.595	-0.405	0.0516378659286478	
12.6	0.052	0.05374143880876499	
12.605	0.498	0.04863133837034371	
12.61	-0.330	0.039830385475865024	
12.615	-0.262	0.03329837378094448	
12.62	0.567	0.025499819872146078	
12.625	-0.071	0.020307830657449892	
12.63	-0.303	0.025201036141179307	
12.635	0.620	0.05125692979965404	
12.64	0.496	0.09585228787258127	
12.645	-0.283	0.1463268091180209	
12.65	0.266	0.18662948461845127	
12.655	0.761	0.21400267029003242	
12.66	-0.187	0.2307014935050684	
12.665	-0.110	0.23298671799062712	
12.67	0.837	0.2267980598818311	
12.675	0.094	0.22444002350853534	
12.68	-0.232	0.22382842323459404	
12.685	0.687	0.22731352012642186	
12.69	0.505	0.23915625008390606	
12.695	-0.313	0.2480990407192187	
12.7	0.157	0.2434588924290743	
12.705	0.609	0.21930184835309563	
12.71	-0.286	0.18570044324429136	
12.715	-0.245	0.1497218271419844	
12.72	0.562	0.11095938126357172	
12.725	-0.116	0.07259343523714043	
12.73	-0.375	0.04258837612329344	
12.735	0.460	0.03233543468240814	
12.74	0.345	0.03939629816799395	
12.745	-0.356	0.0549378195207657	
12.75	0.096	0.07434790531984212	
12.755	0.612	0.08656230778823652	
12.76	-0.262	0.09364793198192889	
12.765	-0.187	0.09948654690101152	
12.77	0.712	0.10417243061996066	
12.775	-0.016	0.10969974673975919	
12.78	-0.321	0.11228415117025946	
12.785	0.544	0.12039424553415673	
12.79	0.374	0.13064955512404847	
12.795	-0.332	0.13769886914618049	
12.8	0.272	0.15023507941801278	
12.805	0.890	0.17591082425038498	
12.81	-0.043	0.2155886500066982	
12.815	0.157	0.26417598155357264	
12.82	1.152	0.3224291937730014	
12.825	0.119	0.37587270492305386	
12.83	-0.451	0.37985550473510715	
12.835	0.013	0.3083277935865101	
12.84	-0.144	0.16700510958972617	
12.845	-0.671	0.004534694540459568	
12.85	-0.258	-0.12197451370718346	
12.855	0.282	-0.20674136112846048	
12.86	-0.312	-0.24337434978353076	
12.865	-0.170	-0.2161250319454549	
12.87	0.831	-0.13632254750236816	
12.875	0.195	-0.028939712923324742	
12.88	-0.200	0.07952361795768474	
12.885	0.819	0.1794833582161718	
12.89	0.774	0.2733684404184766	
12.895	-0.165	0.3521356893131722	
12.9	0.389	0.3998014499206046	
12.905	0.958	0.4186851546667577	
12.91	-0.080	0.4204920256669297	
12.915	-0.043	0.40141795119162915	
12.92	0.979	0.3749664624964868	
12.925	0.336	0.3613136152136197	
12.93	-0.156	0.35914249079670946	
12.935	0.840	0.3654735603763427	
12.94	0.765	0.383747899580358	
12.945	-0.161	0.40397700659744673	
12.95	0.469	0.41756264350207195	
12.955	1.061	0.4289905384852429	
12.96	0.009	0.4415948336979375	
12.965	0.079	0.4430893219631658	
12.97	1.146	0.44203120885285074	
12.975	0.476	0.4566058856136189	
12.98	-0.077	0.4739321422530188	
12.985	0.970	0.48926117138882164	
12.99	0.893	0.5100496933558201	
12.995	-0.098	0.5290507349177991	
13.0	0.531	0.5332036253048653	
13.005	1.077	0.5290720896833174	
13.01	-0.032	0.5179279809337131	
13.015	-0.049	0.483819386122946	
13.02	0.930	0.43478581568077124	
13.025	0.171	0.3870084980415811	
13.03	-0.271	0.33997691902957716	
13.035	0.557	0.2958067116210564	
13.04	0.452	0.257260294681288	
13.045	-0.359	0.2224255194311906	
13.05	-0.011	0.18477859848152994	
13.055	0.544	0.13892815462338637	
13.06	-0.312	0.09246279851657485	
13.065	-0.330	0.05569671694208472	
13.07	0.435	0.022355425100835234	
13.075	-0.130	-0.013619790037099636	
13.08	-0.445	-0.039821201907899506	
13.085	0.261	-0.04764425341532798	
13.09	0.227	-0.04965246720486237	
13.095	-0.422	-0.04821393710367079	
13.1	-0.037	-0.034504750216159355	
13.105	0.574	-0.019198066776956516	
13.11	-0.330	-0.005205586154189189	
13.115	-0.330	0.004571724010827591	
13.12	0.496	0.006119710903385162	
13.125	-0.086	-0.0013574535723364228	
13.13	-0.414	-0.008794867228464901	
13.135	0.334	-0.003916856467588612	
13.14	0.345	0.005510369855760852	
13.145	-0.371	0.018931280970831136	
13.15	-0.003	0.037231029403642646	
13.155	0.585	0.04883169433718003	
13.16	-0.280	0.05301493916845637	
13.165	-0.283	0.054390767361119016	
13.17	0.618	0.0540487192161017	
13.175	-0.029	0.053882322826214385	
13.18	-0.371	0.05310496376117977	
13.185	0.434	0.059907652005532844	
13.19	0.423	0.07373294693134755	
13.195	-0.338	0.08995684820507294	
13.2	0.026	0.10397864290466731	
13.205	0.634	0.10796427458047649	
13.21	-0.232	0.10618610557389052	
13.215	-0.220	0.10315129413979779	
13.22	0.751	0.10703874948792476	
13.225	0.136	0.12114943043959443	
13.23	-0.291	0.13995700828477609	
13.235	0.504	0.15871896635094535	
13.24	0.515	0.17598016866692537	
13.245	-0.317	0.1869835676992077	
13.25	0.076	0.1887054179882738	
13.255	0.753	0.18310160130387404	
13.26	-0.158	0.17839186151185354	
13.265	-0.174	0.1748991339975295	
13.27	0.761	0.1739709703544678	
13.275	0.087	0.17442729825384046	
13.28	-0.336	0.16984955094197582	
13.285	0.432	0.16249521182657622	
13.29	0.431	0.15322160182507966	
13.295	-0.375	0.14107288933610274	
13.3	-0.069	0.1244149393747541	
13.305	0.507	0.09417981134215356	
13.31	-0.301	0.057620494237180936	
13.315	-0.324	0.02968684957571914	
13.32	0.499	0.010896580844743858	
13.325	-0.066	-0.005314421162287691	
13.33	-0.428	-0.01623969369207947	
13.335	0.316	-0.01266683184202995	
13.34	0.395	-0.0005557450840990867	
13.345	-0.376	0.018082691854696915	
13.35	-0.035	0.038196822949826265	
13.355	0.580	0.04833756477292668	
13.36	-0.260	0.05072189108879101	
13.365	-0.287	0.05143611904125482	
13.37	0.635	0.05496009338096783	
13.375	0.084	0.06290035354083075	
13.38	-0.313	0.07654986023569366	
13.385	0.556	0.10325515881436897	
13.39	0.735	0.14872063111592956	
13.395	-0.110	0.21000017642865315	
13.4	0.426	0.27798096926964033	
13.405	0.860	0.3355563797490547	
13.41	-0.350	0.3507613178418496	
13.415	-0.567	0.2940773544685272	
13.42	-0.116	0.1600029317416904	
13.425	-0.417	-0.02384686381257163	
13.43	-0.689	-0.1876326752967468	
13.435	0.003	-0.28278579924028674	
13.44	0.334	-0.3119786746274408	
13.445	-0.344	-0.2761043359754238	
13.45	0.061	-0.18818424354060925	
13.455	0.840	-0.07915184599200695	
13.46	-0.080	0.030772449936063997	
13.465	-0.112	0.1248492517158589	
13.47	0.961	0.20127534604930708	
13.475	0.431	0.27127036581763997	
13.48	-0.174	0.32995798913834884	
13.485	0.724	0.3692261912190927	
13.49	0.779	0.39628210063770114	
13.495	-0.202	0.40961432029860423	
13.5	0.203	0.39962961080046866	
13.505	0.948	0.3771542082028241	
13.51	-0.045	0.3567849203752618	
13.515	-0.119	0.3335983395705593	
13.52	0.903	0.31240997038870766	
13.525	0.304	0.3034502649322899	
13.53	-0.225	0.29878429543751706	
13.535	0.678	0.3011722717644134	
13.54	0.747	0.31449604923203417	
13.545	-0.185	0.3316022548823979	
13.55	0.318	0.34345052298629897	
13.555	1.061	0.3592629875006044	
13.56	0.088	0.3819330378141851	
13.565	0.029	0.3994128705804753	
13.57	1.162	0.4183304932445741	
13.575	0.568	0.4526981533753071	
13.58	-0.127	0.4827456374251771	
13.585	0.788	0.4938738176331651	
13.59	0.838	0.4956502648201588	
13.595	-0.199	0.4858415360168894	
13.6	0.181	0.45312716692375277	
13.605	0.805	0.4011275545377845	
13.61	-0.165	0.34234385750554863	
13.615	-0.255	0.2783381370682379	
13.62	0.592	0.21492069635397	
13.625	0.010	0.15499681705362442	
13.63	-0.417	0.1030218084667264	
13.635	0.189	0.06244468234397049	
13.64	0.276	0.025648473556523537	
13.645	-0.448	-0.007703369275427486	
13.65	-0.190	-0.028098750620004054	
13.655	0.426	-0.0481407925853789	
13.66	-0.281	-0.06526326429437221	
13.665	-0.349	-0.06662485358028988	
13.67	0.469	-0.05544042052923625	
13.675	-0.019	-0.04482191707308875	
13.68	-0.417	-0.03478533850869458	
13.685	0.249	-0.016840416289543664	
13.69	0.356	-0.0023438920144989495	
13.695	-0.391	0.008521930781099113	
13.7	-0.087	0.01973055456847641	
13.705	0.615	0.027773825423796108	
13.71	-0.210	0.0359405732527113	
13.715	-0.283	0.046289848570500586	
13.72	0.573	0.05641351697286417	
13.725	0.049	0.062353017293592994	
13.73	-0.362	0.06322375156104977	
13.735	0.351	0.07098405901877695	
13.74	0.496	0.0837831864447291	
13.745	-0.347	0.09661615382222936	
13.75	-0.069	0.10452968559625803	
13.755	0.635	0.09979998873892734	
13.76	-0.194	0.09211619476265845	
13.765	-0.257	0.08714960169673125	
13.77	0.666	0.09034337523839203	
13.775	0.166	0.10155968475248336	
13.78	-0.332	0.11417188248251782	
13.785	0.388	0.12780187023812956	
13.79	0.560	0.14193693016805578	
13.795	-0.280	0.154701388635622	
13.8	0.032	0.16533068216281926	
13.805	0.793	0.17084664428025675	
13.81	-0.135	0.17729490623582056	
13.815	-0.252	0.1759830828310055	
13.82	0.672	0.1682335793498751	
13.825	0.165	0.16077767212824084	
13.83	-0.326	0.15315986047585578	
13.835	0.402	0.15159398739619465	
13.84	0.567	0.15507576353353075	
13.845	-0.271	0.1628413523882285	
13.85	0.027	0.16911224796903998	
13.855	0.823	0.17382989566011586	
13.86	-0.087	0.18453673213705574	
13.865	-0.181	0.19187193850991896	
13.87	0.799	0.2010559230275276	
13.875	0.350	0.21900891685075385	
13.88	-0.217	0.24222303407277648	
13.885	0.579	0.26430781285596655	
13.89	0.706	0.2871577813159513	
13.895	-0.225	0.3030856811326771	
13.9	0.052	0.2988606444928803	
13.905	0.747	0.27567859756257884	
13.91	-0.159	0.24487278544975552	
13.915	-0.286	0.20583473384779036	
13.92	0.487	0.16070917813953545	
13.925	0.001	0.11122861299409152	
13.93	-0.410	0.0644510562185068	
13.935	0.250	0.036970617272561734	
13.94	0.449	0.026160150556206997	
13.945	-0.346	0.029456751410394198	
13.95	-0.110	0.038668097084526114	
13.955	0.557	0.041451621460168356	
13.96	-0.226	0.03820301192466727	
13.965	-0.320	0.03385669616120219	
13.97	0.536	0.03439504870440448	
13.975	0.174	0.0414228072288019	
13.98	-0.240	0.06164450848757611	
13.985	0.466	0.09966520847814553	
13.99	0.458	0.13914332978545232	
13.995	-0.382	0.15570360812691214	
14.0	-0.148	0.14246365676632522	
14.005	0.649	0.11432704465542956	
14.01	-0.106	0.09551882621769925	
14.015	-0.167	0.09480984696975787	
14.02	0.932	0.1231360640146297	
14.025	0.391	0.18267981542869344	
14.03	-0.407	0.23173512194620427	
14.035	-0.116	0.22120921348856387	
14.04	-0.174	0.12316833551101872	
14.045	-0.789	-0.02889302753326455	
14.05	-0.570	-0.17673717305560993	
14.055	-0.119	-0.3058907842420019	
14.06	-0.475	-0.40413589329131433	
14.065	-0.454	-0.43412787817148085	
14.07	0.478	0.1231360640146297	
14.075	0.163	-0.2901913840675815	
14.08	-0.317	-0.1721076460039573	
14.085	0.408	-0.053890906821317704	
14.09	0.602	0.05124266639869482	
14.095	-0.303	0.13116487337102944	
14.1	-0.060	0.17106745250947689	
14.105	0.727	0.17911218870196027	
14.11	-0.135	0.1769958131551653	
14.115	-0.252	0.1656782991830717	
14.12	0.676	0.15472278993578997	
14.125	0.230	0.15502595073256786	
14.13	-0.329	0.15692148510675724	
14.135	0.328	0.1558568262655452	
14.14	0.544	0.15435519592801944	
14.145	-0.297	0.15241972228819878	
14.15	-0.049	0.1468644677914756	
14.155	0.719	0.13799377994774342	
14.16	-0.118	0.13630759412329843	
14.165	-0.242	0.13364158597347403	
14.17	0.681	0.13441126949765783	
14.175	0.240	0.14624548600444323	
14.18	-0.298	0.15812688082779752	
14.185	0.440	0.16950096994746852	
14.19	0.669	0.1893581012589685	
14.195	-0.239	0.21181338633172464	
14.2	-0.006	0.21860832572644998	
14.205	0.767	0.21269489481370132	
14.21	-0.116	0.20475811904161095	
14.215	-0.284	0.18668307667996026	
14.22	0.541	0.15987323011432425	
14.225	0.065	0.130507179149877	
14.23	-0.439	0.09653967688452642	
14.235	0.049	0.055962283305651714	
14.24	0.223	0.00922414992245018	
14.245	-0.498	-0.03854838379163388	
14.25	-0.326	-0.0806089749580367	
14.255	0.175	-0.12380242952202128	
14.26	-0.423	-0.1707222058143828	
14.265	-0.559	-0.20711582218668256	
14.27	0.046	-0.23372373975947142	
14.275	-0.205	-0.2593184553828502	
14.28	-0.628	-0.2769844221967686	
14.285	-0.165	-0.2804556790605488	
14.29	0.004	-0.28595380641303075	
14.295	-0.575	-0.2910653413407489	
14.3	-0.358	-0.28472887893122495	
14.305	0.148	-0.27514982766589946	
14.31	-0.396	-0.2694121139964878	
14.315	-0.537	-0.26101012959338504	
14.32	0.094	-0.24906550773156916	
14.325	-0.161	-0.2452127476818245	
14.33	-0.575	-0.24277511778446767	
14.335	-0.107	-0.23268333783813328	
14.34	0.062	-0.22898631554384308	
14.345	-0.541	-0.23186927187750223	
14.35	-0.335	-0.22784425922041227	
14.355	0.191	-0.2242258501021573	
14.36	-0.367	-0.22426466913348558	
14.365	-0.495	-0.2200664372193905	
14.37	0.128	-0.21213428981811341	
14.375	-0.145	-0.2110967213744537	
14.38	-0.566	-0.21283132883140812	
14.385	-0.092	-0.20875221656642912	
14.39	0.169	-0.20484074378907796	
14.395	-0.468	-0.1979117263896904	
14.4	-0.286	-0.18297098242082332	
14.405	0.295	-0.16806712034608542	
14.41	-0.321	-0.15925269634892908	
14.415	-0.465	-0.15327165411793087	
14.42	0.240	-0.14599740231968006	
14.425	-0.075	-0.14195882307247212	
14.43	-0.511	-0.14108172041993497	
14.435	-0.022	-0.13773562863656963	
14.44	0.256	-0.13357818671555782	
14.445	-0.448	-0.1281072264266958	
14.45	-0.254	-0.1191316956115479	
14.455	0.409	-0.10975407179899316	
14.46	-0.255	-0.09927421969177032	
14.465	-0.393	-0.08957990720454227	
14.47	0.380	-0.07477643259672413	
14.475	0.055	-0.058770209280889815	
14.48	-0.419	-0.04542562796966942	
14.485	0.131	-0.030720411588056204	
14.49	0.449	-0.014232665573336727	
14.495	-0.344	0.004667828061162432	
14.5	-0.156	0.01864323611158366	
14.505	0.554	0.02659572556151284	
14.51	-0.197	0.030736169364686837	
14.515	-0.362	0.027054189113921417	
14.52	0.441	0.022419057821428518	
14.525	0.065	0.01847765564926652	
14.53	-0.474	0.008233646881064519	
14.535	-0.002	-0.008781118811289611	
14.54	0.249	-0.035879275964768934	
14.545	-0.448	-0.06448643006914165	
14.55	-0.278	-0.08459830010632124	
14.555	0.406	-0.09707826731248184	
14.56	-0.271	-0.10420490542284017	
14.565	-0.451	-0.10529709657006237	
14.57	0.292	-0.10340821012182647	
14.575	-0.009	-0.10127693464179692	
14.58	-0.475	-0.10109856051585997	
14.585	0.029	-0.0947963876785582	
14.59	0.369	-0.08550249249980396	
14.595	-0.396	-0.07270705942408665	
14.6	-0.226	-0.05885652985689302	
14.605	0.487	-0.04770395669988069	
14.61	-0.223	-0.04019319032186723	
14.615	-0.411	-0.03670125147419612	
14.62	0.406	-0.03217165623384556	
14.625	0.208	-0.02100288923027008	
14.63	-0.339	0.0005099455647880593	
14.635	0.383	0.038187039594297104	
14.64	0.780	0.0959240585469229	
14.645	-0.229	0.16006153036565493	
14.65	-0.222	0.19181501568251735	
14.655	0.149	0.15861790533185355	
14.66	-0.478	0.06283662184861838	
14.665	-0.700	-0.05706512159497847	
14.67	-0.168	-0.17295727061651894	
14.675	-0.294	-0.28477638675697525	
14.68	-0.647	-0.3628397420560236	
14.685	-0.106	-0.3797332120800919	
14.69	0.354	-0.3506983643028554	
14.695	-0.326	-0.2852642323187532	
14.7	-0.119	-0.19428857214312337	
14.705	0.751	-0.09380697994629675	
14.71	-0.026	0.0026596907808675535	
14.715	-0.242	0.08043205792439592	
14.72	0.699	0.13952455349925602	
14.725	0.447	0.19041775323696963	
14.73	-0.245	0.2314813561637765	
14.735	0.452	0.26138112644182915	
14.74	0.806	0.2858189582118402	
14.745	-0.176	0.3052551676129117	
14.75	0.009	0.3054340358827391	
14.755	0.860	0.2937764305262279	
14.76	-0.006	0.279591094862059	
14.765	-0.249	0.2569426225893386	
14.77	0.672	0.23488989333075463	
14.775	0.438	0.22470135834857796	
14.78	-0.242	0.22701486673335938	
14.785	0.496	0.24040594247258917	
14.79	0.889	0.2692702132243481	
14.795	-0.110	0.30600731461285424	
14.8	0.108	0.3291530414663911	
14.805	1.029	0.3441590957188907	
14.81	0.189	0.36366235762792665	
14.815	-0.132	0.3725536272511621	
14.82	0.912	0.37600570001975586	
14.825	0.641	0.3899986868140947	
14.83	-0.187	0.40476090146977517	
14.835	0.484	0.4062089135593342	
14.84	0.803	0.3965493480848304	
14.845	-0.213	0.3760531208589296	
14.85	-0.103	0.3358598015942603	
14.855	0.670	0.27822472580796487	
14.86	-0.118	0.21691148947884947	
14.865	-0.379	0.15639194225647446	
14.87	0.408	0.1058539310140808	
14.875	0.065	0.058232031172110926	
14.88	-0.460	0.01478823803849128	
14.885	0.007	-0.014004591187223879	
14.89	0.409	-0.03531155370961001	
14.895	-0.356	-0.04679263577306758	
14.9	-0.219	-0.0423312369243646	
14.905	0.582	-0.02874793305603183	
14.91	-0.119	-0.012903479443996887	
14.915	-0.339	0.005219431199603881	
14.92	0.481	0.027787001878527527	
14.925	0.249	0.048455397677865365	
14.93	-0.368	0.06467627080919769	
14.935	0.146	0.0788186812155302	
14.94	0.620	0.08791048448556686	
14.945	-0.257	0.10022109198788291	
14.95	-0.135	0.11141103843467635	
14.955	0.673	0.11638482964749491	
14.96	-0.098	0.11525188953659203	
14.965	-0.326	0.10797599223676818	
14.97	0.513	0.10278421662298243	
14.975	0.252	0.09970487670267172	
14.98	-0.375	0.09552897224916584	
14.985	0.160	0.0946692920553712	
14.99	0.599	0.09415971095677969	
14.995	-0.263	0.0972178030174832	
15.0	-0.155	0.10316338994044819	
15.005	0.698	0.10655197789440377	
15.01	-0.052	0.10940670211345814	
15.015	-0.292	0.11171604094956092	
15.02	0.602	0.11979802076544926	
15.025	0.377	0.13596721647061374	
15.03	-0.339	0.15135408101662817	
15.035	0.180	0.15949956816452682	
15.04	0.628	0.15741702194447377	
15.045	-0.266	0.1512189544295373	
15.05	-0.167	0.14190218733614657	
15.055	0.669	0.1297039975003662	
15.06	-0.048	0.11657527271694343	
15.065	-0.281	0.10847168103652688	
15.07	0.687	0.11879494149152314	
15.075	0.493	0.14923507230523114	
15.08	-0.292	0.1862072850184569	
15.085	0.270	0.21231390948773224	
15.09	0.722	0.22466474414751628	
15.095	-0.216	0.22725245456848747	
15.1	-0.112	0.22062633684268987	
15.105	0.834	0.2098257345703125	
15.11	0.079	0.2067927499617096	
15.115	-0.251	0.2072347334067058	
15.12	0.670	0.21168646665277166	
15.125	0.476	0.22149842032108663	
15.13	-0.303	0.23116557821522737	
15.135	0.198	0.23108254526805339	
15.14	0.632	0.21582723909750212	
15.145	-0.287	0.19239077197385335	
15.15	-0.220	0.16240035109739126	
15.155	0.559	0.12480954311551884	
15.16	-0.121	0.08500359032778496	
15.165	-0.375	0.05313500971808489	
15.17	0.406	0.03656361955426811	
15.175	0.232	0.027672378035966998	
15.18	-0.382	0.026178776106771072	
15.185	0.064	0.03293841099158392	
15.19	0.510	0.03593606411349207	
15.195	-0.326	0.03545427026787812	
15.2	-0.217	0.036255903390998614	
15.205	0.654	0.04087786190777501	
15.21	-0.100	0.047109976567184686	
15.215	-0.378	0.04996348419161412	
15.22	0.414	0.05354927129226822	
15.225	0.261	0.052847097508571375	
15.23	-0.336	0.055060168037324296	
15.235	0.304	0.07484663487549002	
15.24	0.927	0.1211743193972678	
15.245	-0.014	0.18944443338075956	
15.25	0.197	0.2630167065503646	
15.255	1.080	0.3340209685828574	
15.26	-0.060	0.37824005656117954	
15.265	-0.521	0.35664326177079986	
15.27	-0.063	0.2574688385483731	
15.275	-0.205	0.0971328704309225	
15.28	-0.709	-0.07003504592606649	
15.285	-0.246	-0.19134421971008916	
15.29	0.305	-0.26156529083082947	
15.295	-0.320	-0.27748251806607216	
15.3	-0.190	-0.2342213303891231	
15.305	0.779	-0.14880726087079552	
15.31	0.122	-0.04557035267292849	
15.315	-0.228	0.05441501102325004	
15.32	0.738	0.14455962140933942	
15.325	0.629	0.2244040401722252	
15.33	-0.214	0.2876637989583518	
15.335	0.417	0.3284616415944505	
15.34	0.956	0.35675867065040556	
15.345	-0.101	0.37542433438032025	
15.35	-0.023	0.3733952941240176	
15.355	0.976	0.35840685235006664	
15.36	0.197	0.3486691927333653	
15.365	-0.228	0.3360970818089877	
15.37	0.643	0.3184938891456994	
15.375	0.577	0.301753315266278	
15.38	-0.222	0.2935937328771389	
15.385	0.369	0.29320605683639706	
15.39	0.927	0.30198145811029664	
15.395	-0.068	0.31658299566402726	
15.4	0.030	0.3281238350268787	
15.405	1.052	0.3384063258886256	
15.41	0.366	0.3619459810935689	
15.415	-0.083	0.3889666949177898	
15.42	0.984	0.417294506939389	
15.425	0.864	0.4579988674414394	
15.43	-0.110	0.49466605440743505	
15.435	0.482	0.5088651847468642	
15.44	0.997	0.5040263507269369	
15.445	-0.071	0.48690104780472465	
15.45	-0.029	0.44989254572059284	
15.455	0.938	0.4041615195318631	
15.46	0.140	0.3643228439447169	
15.465	-0.283	0.32402601516906415	
15.47	0.473	0.27883621755251503	
15.475	0.330	0.2281692542944737	
15.48	-0.385	0.17705904883684476	
15.485	-0.023	0.13249884263315376	
15.49	0.461	0.08386640152914743	
15.495	-0.350	0.03838868468870278	
15.5	-0.315	0.005808270687219095	
15.505	0.415	-0.01923573900698831	
15.51	-0.164	-0.04537058771489495	
15.515	-0.437	-0.06377978846568946	
15.52	0.324	-0.061524234921158424	
15.525	0.250	-0.05075707185810341	
15.53	-0.422	-0.03466146759922351	
15.535	-0.026	-0.016750219149652967	
15.54	0.536	-0.004227025675223384	
15.545	-0.277	0.006666289179979324	
15.55	-0.258	0.019694667761079646	
15.555	0.537	0.029571442925522207	
15.56	-0.072	0.029848492483849347	
15.565	-0.393	0.026232678975408683	
15.57	0.398	0.03024622558051748	
15.575	0.328	0.03937840431824578	
15.58	-0.390	0.04845844944037232	
15.585	0.001	0.05603285567949813	
15.59	0.570	0.05580329184551144	
15.595	-0.260	0.05485466869506394	
15.6	-0.219	0.057538711922662	
15.605	0.635	0.06350516392123873	
15.61	-0.034	0.0690619958197016	
15.615	-0.378	0.07015498405063203	
15.62	0.382	0.07007083633702749	
15.625	0.331	0.06855821371697302	
15.63	-0.368	0.06851637157078566	
15.635	0.039	0.07182878985229799	
15.64	0.621	0.0728872798331121	
15.645	-0.266	0.07600403176084485	
15.65	-0.257	0.07635299553739353	
15.655	0.605	0.07346285510693117	
15.66	-0.011	0.06926796499874169	
15.665	-0.349	0.06607855808473624	
15.67	0.429	0.07193271855577993	
15.675	0.386	0.08172959198894071	
15.68	-0.320	0.09354326935629452	
15.685	0.154	0.10964177627062802	
15.69	0.733	0.12898846558721921	
15.695	-0.176	0.15013132159517276	
15.7	-0.182	0.16315853398451402	
15.705	0.709	0.16544373186573375	
15.71	0.064	0.16347326293819267	
15.715	-0.298	0.15896668827876964	
15.72	0.544	0.15878551422142673	
15.725	0.560	0.17193983694116016	
15.73	-0.252	0.19258630938578167	
15.735	0.203	0.2113956492195116	
15.74	0.771	0.22306055417564588	
15.745	-0.173	0.2283303725281184	
15.75	-0.188	0.22097106972796166	
15.755	0.640	0.19933784550337114	
15.76	-0.037	0.16871644236663774	
15.765	-0.393	0.1309335833775311	
15.77	0.328	0.0975518007699446	
15.775	0.325	0.06910015767893286	
15.78	-0.376	0.051729596804779635	
15.785	-0.052	0.04316795015609137	
15.79	0.447	0.0290623995117286	
15.795	-0.327	0.008546689929231879	
15.8	-0.315	-0.007143755652351187	
15.805	0.518	-0.013752537529549632	
15.81	-0.092	-0.01809306873460874	
15.815	-0.428	-0.021107287213250767	
15.82	0.293	-0.016593903563946764	
15.825	0.353	-0.007753501160550673	
15.83	-0.365	0.007753338427056433	
15.835	-0.005	0.02799765874439355	
15.84	0.589	0.04216823104055104	
15.845	-0.234	0.05364441808859371	
15.85	-0.177	0.0666736932917335	
15.855	0.881	0.09328144684641755	
15.86	0.388	0.14810440053757434	
15.865	-0.066	0.22176858502497054	
15.87	0.970	0.3052922300123231	
15.875	0.654	0.3864201081235547	
15.88	-0.482	0.418700130082413	
15.885	-0.368	0.3577016768496041	
15.89	-0.167	0.19822040506037153	
15.895	-0.682	-0.013150809759289086	
15.9	-0.634	-0.19444489924282415	
15.905	0.072	-0.3147736788224925	
15.91	-0.182	-0.37870065587951074	
15.915	-0.416	-0.373246866913055	
15.92	0.427	-0.29677822593691483	
15.925	0.547	-0.17842739729758	
15.93	-0.257	-0.049289631506901355	
15.935	0.189	0.06566796436725061	
15.94	0.832	0.1544061513135648	
15.945	-0.119	0.21778180047118179	
15.95	-0.141	0.2482889901913728	
15.955	0.825	0.25734035693553764	
15.96	0.214	0.26240520084764585	
15.965	-0.242	0.26247284155095624	
15.97	0.628	0.26216418130760094	
15.975	0.638	0.27081957431907366	
15.98	-0.239	0.2816388380078101	
15.985	0.134	0.2804722073566447	
15.99	0.764	0.2655789784960066	
15.995	-0.147	0.24692408217994757	
16.0	-0.167	0.22509928641804203	
16.005	0.820	0.20932522456268907	
16.01	0.264	0.21063154438556211	
16.015	-0.223	0.22440734320926206	
16.02	0.669	0.243975806480783	
16.025	0.728	0.2749756617162929	
16.03	-0.174	0.3087608024605979	
16.035	0.347	0.3332543236534651	
16.04	0.993	0.35456957571612946	
16.045	-0.026	0.37417337345811263	
16.05	-0.057	0.3739589223501628	
16.055	0.964	0.36308706644293043	
16.06	0.313	0.3609037961043474	
16.065	-0.246	0.3535117784041335	
16.07	0.521	0.33257065849066236	
16.075	0.504	0.3020529163992124	
16.08	-0.321	0.2671613504506392	
16.085	-0.016	0.22393761535764697	
16.09	0.536	0.17130528453361069	
16.095	-0.294	0.11767142692132534	
16.1	-0.336	0.06998444705067983	
16.105	0.403	0.027579895196717528	
16.11	-0.133	-0.012831122999531291	
16.115	-0.494	-0.04912569086211129	
16.12	0.042	-0.07587287684660139	
16.125	0.061	-0.10902490362987663	
16.13	-0.515	-0.14136496930762837	
16.135	-0.222	-0.15623795671123003	
16.14	0.249	-0.16599583601529422	
16.145	-0.384	-0.17599091989124052	
16.15	-0.398	-0.17294946227162072	
16.155	0.392	-0.1557347590899853	
16.16	-0.089	-0.13468947897224154	
16.165	-0.469	-0.1129616045337716	
16.17	0.157	-0.09110451636989497	
16.175	0.246	-0.07601220659652849	
16.18	-0.431	-0.06518840207126697	
16.185	-0.144	-0.05339089339439065	
16.19	0.388	-0.051063427920887985	
16.195	-0.330	-0.056826882182097506	
16.2	-0.365	-0.06202097949006635	
16.205	0.406	-0.06284266757323033	
16.21	-0.087	-0.06455725150211926	
16.215	-0.448	-0.06596302836328877	
16.22	0.220	-0.058209303177582994	
16.225	0.269	-0.04890914923739352	
16.23	-0.434	-0.04116864671609409	
16.235	-0.130	-0.033517334945592836	
16.24	0.487	-0.030971907318801194	
16.245	-0.300	-0.0297520527357757	
16.25	-0.347	-0.028177476575978935	
16.255	0.457	-0.026812419454728485	
16.26	-0.068	-0.027416209292266028	
16.265	-0.430	-0.030099813949385892	
16.27	0.246	-0.026265465785505038	
16.275	0.327	-0.018723938386903442	
16.28	-0.398	-0.008229652782167031	
16.285	-0.100	0.0013333284383313978	
16.29	0.513	0.004186435697646611	
16.295	-0.284	0.003291743941593531	
16.3	-0.338	0.001629339270788841	
16.305	0.484	-0.0017304176919356736	
16.31	-0.029	-0.004271183674464923	
16.315	-0.394	-0.006272785089289233	
16.32	0.305	0.0017060625646234458	
16.325	0.421	0.017475461102508454	
16.33	-0.352	0.03867440412072978	
16.335	-0.042	0.056191330202936	
16.34	0.652	0.06736986841117037	
16.345	-0.196	0.07832393311666438	
16.35	-0.268	0.08542836583518834	
16.355	0.615	0.08935251619331269	
16.36	0.073	0.09287461681576224	
16.365	-0.353	0.09355846559853018	
16.37	0.417	0.09765145094000803	
16.375	0.536	0.11266854607997145	
16.38	-0.310	0.13162683579227352	
16.385	-0.026	0.14202179310817076	
16.39	0.643	0.13648809636556247	
16.395	-0.217	0.12541833012300008	
16.4	-0.286	0.10926601679489055	
16.405	0.525	0.09034446437394647	
16.41	-0.043	0.06803301366852058	
16.415	-0.431	0.042482241115014266	
16.42	0.201	0.020537126355021102	
16.425	0.296	0.0017960533634190814	
16.43	-0.423	-0.01133604043994124	
16.435	-0.141	-0.01910084711952174	
16.44	0.450	-0.02744770298593798	
16.445	-0.318	-0.03749443656181999	
16.45	-0.378	-0.04585084263704435	
16.455	0.391	-0.050652179821026974	
16.46	-0.054	-0.05784463883167777	
16.465	-0.443	-0.0606039730974472	
16.47	0.177	-0.054513703025150344	
16.475	0.296	-0.04807522949370112	
16.48	-0.414	-0.041395613860677194	
16.485	-0.098	-0.030199030299872563	
16.49	0.539	-0.019299413143507856	
16.495	-0.237	-0.007496650144140701	
16.5	-0.257	0.006986007044617267	
16.505	0.780	0.03648548972818782	
16.51	0.389	0.09228020479335988	
16.515	-0.150	0.16419719191544563	
16.52	0.709	0.23747169897989873	
16.525	0.560	0.2981083687020778	
16.53	-0.508	0.3124541430856598	
16.535	-0.416	0.2505817637616282	
16.54	-0.161	0.10883305372400762	
16.545	-0.672	-0.07741789910813848	
16.55	-0.688	-0.24115435986073036	
16.555	-0.057	-0.3514408297771853	
16.56	-0.196	-0.41659221936117163	
16.565	-0.442	-0.41691798316823325	
16.57	0.351	-0.34145220722923575	
16.575	0.585	-0.21868840137688117	
16.58	-0.254	-0.08171187501567216	
16.585	0.084	0.03856148349809761	
16.59	0.854	0.12915315313662243	
16.595	-0.060	0.19741654521583213	
16.6	-0.141	0.23852321358275919	
16.605	0.890	0.2618300956168833	
16.61	0.363	0.28849439633378193	
16.615	-0.254	0.306668421054196	
16.62	0.482	0.30656127169764774	
16.625	0.594	0.2945854650580567	
16.63	-0.275	0.2761118896004444	
16.635	0.047	0.2504339564979433	
16.64	0.761	0.22240387470070655	
16.645	-0.119	0.20144677374824915	
16.65	-0.203	0.1843381922350541	
16.655	0.809	0.17892381708585686	
16.66	0.334	0.19363661891827194	
16.665	-0.222	0.21854856374618564	
16.67	0.661	0.24851635494199817	
16.675	0.796	0.28974435893137096	
16.68	-0.173	0.32910170763268465	
16.685	0.235	0.3492635790928952	
16.69	0.994	0.35845961670055637	
16.695	0.021	0.3686024910451419	
16.7	-0.103	0.36319395252495434	
16.705	0.930	0.3517708115835867	
16.71	0.330	0.34785449668432095	
16.715	-0.278	0.3366065477634931	
16.72	0.463	0.31319497297153664	
16.725	0.541	0.2828178609443398	
16.73	-0.321	0.24943269582016994	
16.735	-0.084	0.20800941441721904	
16.74	0.516	0.15523644323162522	
16.745	-0.265	0.10000803513303617	
16.75	-0.388	0.050221074133420564	
16.755	0.314	0.006351206722132425	
16.76	-0.104	-0.0389340637168851	
16.765	-0.501	-0.07708594337340194	
16.77	0.030	-0.10015055911649151	
16.775	0.181	-0.11925035517107217	
16.78	-0.469	-0.13319491492340166	
16.785	-0.223	-0.13211911124601394	
16.79	0.362	-0.1269930401376606	
16.795	-0.350	-0.12674344632595652	
16.8	-0.440	-0.12374524530065607	
16.805	0.316	-0.11988290510307983	
16.81	-0.072	-0.11781562912293388	
16.815	-0.483	-0.11497686352423322	
16.82	0.075	-0.10533291942421258	
16.825	0.255	-0.09922710332149012	
16.83	-0.437	-0.09407157376171622	
16.835	-0.199	-0.08323932215050839	
16.84	0.420	-0.07601667689905836	
16.845	-0.281	-0.0736279170535167	
16.85	-0.361	-0.06781330967626206	
16.855	0.447	-0.05591800046633769	
16.86	-0.006	-0.042715250335596346	
16.865	-0.423	-0.03404269558005362	
16.87	0.194	-0.02138939812973987	
16.875	0.371	-0.010098127465778449	
16.88	-0.390	-0.0011153047172842484	
16.885	-0.155	0.006635803383022158	
16.89	0.486	0.004117333385275662	
16.895	-0.262	-0.0035913672464634753	
16.9	-0.364	-0.01098996984234784	
16.905	0.453	-0.014836471739304727	
16.91	0.030	-0.015580714313134219	
16.915	-0.405	-0.013212780164562557	
16.92	0.189	-0.00540542858456803	
16.925	0.394	0.0020904650103853624	
16.93	-0.347	0.011773421766142328	
16.935	-0.078	0.024528190846537134	
16.94	0.635	0.03932341460500566	
16.945	-0.188	0.052391166006081506	
16.95	-0.306	0.06180010920319433	
16.955	0.550	0.06630472090124685	
16.96	0.114	0.07053633894738198	
16.965	-0.344	0.07256289140477006	
16.97	0.406	0.08562012279694325	
16.975	0.612	0.11132593811616473	
16.98	-0.300	0.14161521804378707	
16.985	-0.087	0.1553537511043398	
16.99	0.617	0.14653857611219695	
16.995	-0.170	0.12742437505809825	
17.0	-0.281	0.10858303906907353	
17.005	0.571	0.09541216134048562	
17.01	0.075	0.08569282768198402	
17.015	-0.402	0.07336604876503705	
17.02	0.224	0.06356943769271628	
17.025	0.417	0.05452765550402129	
17.03	-0.398	0.04653805847811683	
17.035	-0.181	0.036223462529662874	
17.04	0.510	0.019725540827026523	
17.045	-0.240	0.003454053657075484	
17.05	-0.361	-0.007618961951974559	
17.055	0.489	-0.008485053131373647	
17.06	0.058	-0.005162158727709123	
17.065	-0.417	-0.0008285108904705454	
17.07	0.194	0.00754883014816907	
17.075	0.455	0.0167411524562764	
17.08	-0.344	0.028421755462297492	
17.085	-0.116	0.04108487300716618	
17.09	0.637	0.04994088567767255	
17.095	-0.138	0.05845564924027556	
17.1	-0.194	0.07315593106744175	
17.105	0.901	0.10967465906428601	
17.11	0.573	0.17901149075926007	
17.115	-0.171	0.25893053881440153	
17.12	0.484	0.3174828102849197	
17.125	0.337	0.3259313118610384	
17.13	-0.538	0.27327967206985426	
17.135	-0.404	0.17390709839566304	
17.14	-0.008	0.037139838069561365	
17.145	-0.498	-0.11250718948836458	
17.15	-0.569	-0.22402846900684698	
17.155	0.192	-0.27916923118446807	
17.16	-0.008	-0.2928788044699542	
17.165	-0.346	-0.2602997314759484	
17.17	0.426	-0.17535057749665936	
17.175	0.761	-0.05575323599056299	
17.18	-0.168	0.06897344807169058	
17.185	0.185	0.17580152699113835	
17.19	1.020	0.2595797205773094	
17.195	0.088	0.3253153153617532	
17.2	-0.104	0.3615170072929954	
17.205	0.970	0.3781634886566384	
17.21	0.583	0.3983178401412638	
17.215	-0.156	0.4182081146489398	
17.22	0.640	0.42764116249277706	
17.225	0.823	0.42964184889592655	
17.23	-0.167	0.4227574543575159	
17.235	0.130	0.39956212218529097	
17.24	0.974	0.37191770465668844	
17.245	0.053	0.353404842349446	
17.25	-0.148	0.33521472560271504	
17.255	0.887	0.32025382570617544	
17.26	0.551	0.325568607655235	
17.265	-0.162	0.34303496698682523	
17.27	0.725	0.36750681410487657	
17.275	1.040	0.4058878734311191	
17.28	-0.019	0.45181224488299393	
17.285	0.351	0.4833029675751834	
17.29	1.179	0.5039513924462737	
17.295	0.252	0.522645027113428	
17.3	-0.055	0.5240575421926372	
17.305	0.953	0.5050244153206718	
17.31	0.533	0.48280869108532776	
17.315	-0.210	0.458154633956001	
17.32	0.504	0.4241596474548983	
17.325	0.704	0.38589995763738294	
