Time	Potential	EKG	Unnamed: 3
0.0	-0.061	-0.002566602856085553	
0.005	-0.024	-0.009011919843731665	
0.01	-0.134	-0.02510667726176355	
0.015	-0.142	-0.046348500727419494	
0.02	-0.072	-0.06960958388910449	
0.025	-0.140	-0.09051542949526621	
0.03	-0.188	-0.10813146324930793	
0.035	-0.107	-0.12373303340866976	
0.04	-0.116	-0.13361137967082065	
0.045	-0.197	-0.14056805791430524	
0.05	-0.148	-0.14540853458865574	
0.055	-0.095	-0.14773380906187877	
0.06	-0.169	-0.14841566161192138	
0.065	-0.148	-0.14541984106604725	
0.07	-0.050	-0.14025452365056126	
0.075	-0.107	-0.13066152706120354	
0.08	-0.140	-0.12039380458629612	
0.085	-0.047	-0.11043371242906092	
0.09	-0.043	-0.09954284872398776	
0.095	-0.130	-0.08991125854502605	
0.1	-0.067	-0.08227224263087127	
0.105	-0.002	-0.075484382365197	
0.11	-0.099	-0.0697062518600654	
0.115	-0.089	-0.06449279817011448	
0.12	0.017	-0.06093154212669953	
0.125	-0.056	-0.05579176256654848	
0.13	-0.105	-0.052633410771762756	
0.135	-0.003	-0.05016203134983358	
0.14	-0.005	-0.04747401061331399	
0.145	-0.104	-0.045218045425242645	
0.15	-0.060	-0.04415149146135196	
0.155	-0.008	-0.046259544032034694	
0.16	-0.110	-0.05096678706069713	
0.165	-0.114	-0.05755552069059065	
0.17	-0.029	-0.06463511728735488	
0.175	-0.093	-0.07291330933872794	
0.18	-0.154	-0.07985223902007077	
0.185	-0.082	-0.08690131714953729	
0.19	-0.098	-0.09641944792121211	
0.195	-0.180	-0.10651935064472096	
0.2	-0.137	-0.11501264319451548	
0.205	-0.084	-0.12303265094163598	
0.21	-0.160	-0.13024677349918679	
0.215	-0.157	-0.13260322659349566	
0.22	-0.070	-0.13130776925945048	
0.225	-0.122	-0.13107013315014182	
0.23	-0.166	-0.12809341985081102	
0.235	-0.079	-0.12358204236463774	
0.24	-0.078	-0.12036732264598081	
0.245	-0.165	-0.1178855521332533	
0.25	-0.139	-0.11483778686371234	
0.255	-0.110	-0.11776878778262856	
0.26	-0.162	-0.12660930762593295	
0.265	-0.047	-0.1266492981736284	
0.27	0.300	-0.09786226780743307	
0.275	0.514	-0.022225874601371473	
0.28	0.779	0.11663662763709737	
0.285	1.155	0.31784485610315993	
0.29	1.122	0.5487054435293575	
0.295	0.707	0.7465864090050822	
0.3	0.256	0.8412482275085815	
0.305	-0.085	0.784485331246849	
0.31	-0.322	0.5949365349443198	
0.315	-0.392	0.3442651781673777	
0.32	-0.337	0.09463424980018102	
0.325	-0.340	-0.11746177970166527	
0.33	-0.337	-0.2617358967811015	
0.335	-0.223	-0.3346521872106709	
0.34	-0.186	-0.3591929965962417	
0.345	-0.233	-0.34592498690949647	
0.35	-0.169	-0.3063244683270025	
0.355	-0.102	-0.2629741532665778	
0.36	-0.165	-0.2246582236022483	
0.365	-0.146	-0.18483648869663166	
0.37	-0.046	-0.15167653971228828	
0.375	-0.090	-0.12987852936687877	
0.38	-0.131	-0.1103153937331207	
0.385	-0.032	-0.09095078859496117	
0.39	-0.011	-0.08012044350700243	
0.395	-0.101	-0.07077421300331806	
0.4	-0.024	-0.0558894187124777	
0.405	0.076	-0.04236508130311617	
0.41	-0.014	-0.03149848624827979	
0.415	0.020	-0.00992844933067254	
0.42	0.194	0.016282380079499066	
0.425	0.155	0.04262754007198006	
0.43	0.108	0.0780099585868799	
0.435	0.261	0.11900567679629258	
0.44	0.270	0.1509780291259038	
0.445	0.142	0.17815514466295973	
0.45	0.206	0.2036776736946537	
0.455	0.262	0.21437522747095958	
0.46	0.107	0.20941402165768364	
0.465	0.076	0.20197005165224413	
0.47	0.163	0.18546362552513523	
0.475	0.044	0.15195610009808375	
0.48	-0.064	0.11818260162876842	
0.485	0.009	0.08723103694330472	
0.49	-0.027	0.04306399514453931	
0.495	-0.134	-0.00018116282418981396	
0.5	-0.102	-0.026537132604977868	
0.0	0.029	0.0063715396971737075	
0.005	-0.517	-0.02600634738989163	
0.01	-0.502	-0.09734258065069293	
0.015	0.015	-0.17690360518875947	
0.02	-0.335	-0.23555500180501712	
0.025	-0.613	-0.2771752466485296	
0.03	-0.032	-0.3054967708115369	
0.035	-0.049	-0.30819905475355136	
0.04	-0.566	-0.29182792651516576	
0.045	-0.223	-0.27941806394195157	
0.05	0.102	-0.2651161341381667	
0.055	-0.473	-0.24692633931273136	
0.06	-0.448	-0.24120199323839422	
0.065	0.101	-0.2435175006007552	
0.07	-0.253	-0.23958433269314303	
0.075	-0.558	-0.23650480055641748	
0.08	-0.026	-0.238705548043653	
0.085	-0.076	-0.24043915857026893	
0.09	-0.614	-0.24206588699195095	
0.095	-0.288	-0.25341435138831775	
0.1	0.015	-0.2689385517954276	
0.105	-0.537	-0.28063818405512136	
0.11	-0.540	-0.29589101017092145	
0.115	-0.026	-0.3144072648302799	
0.12	-0.367	-0.3285968003315413	
0.125	-0.663	-0.3395654720926544	
0.13	-0.111	-0.34703327614125934	
0.135	-0.125	-0.3458089819402517	
0.14	-0.643	-0.3390923900540337	
0.145	-0.303	-0.33238853622906406	
0.15	0.014	-0.32594821890755193	
0.155	-0.549	-0.32027235872954984	
0.16	-0.538	-0.31947798511570996	
0.165	0.020	-0.3234296954313691	
0.17	-0.303	-0.3226172464602992	
0.175	-0.526	-0.31350460460986135	
0.18	0.194	-0.2844183763715541	
0.185	0.373	-0.22022070905524724	
0.19	-0.363	-0.13401816728610894	
0.195	-0.197	-0.0704299976686076	
0.2	-0.145	-0.0691234297869885	
0.205	-0.831	-0.1368492867967442	
0.21	-0.922	-0.2569954998965419	
0.215	-0.427	-0.3995726105044528	
0.22	-0.646	-0.5296298475398411	
0.225	-0.814	-0.6112764974908196	
0.23	-0.127	-0.628845705498806	
0.235	0.001	-0.5837775425516026	
0.24	-0.488	-0.1368492867967442	
0.245	-0.114	-0.38828970711911703	
0.25	0.447	-0.27727935043803653	
0.255	-0.328	-0.17341551819188727	
0.26	-0.367	-0.10244650719854828	
0.265	0.340	-0.06776401846158393	
0.27	-0.157	-0.05474105728061536	
0.275	-0.500	-0.059087527199003065	
0.28	0.123	-0.07536554046167313	
0.285	0.111	-0.09038606213187467	
0.29	-0.499	-0.10259459015354712	
0.295	-0.157	-0.11423643743980307	
0.3	0.337	-0.12059865717969044	
0.305	-0.334	-0.1168466361573803	
0.31	-0.310	-0.10877840567017093	
0.315	0.508	-0.09008463614221135	
0.32	-0.029	-0.05677281151395395	
0.325	-0.352	-0.02569223769087886	
0.33	0.442	0.005026852121295081	
0.335	0.492	0.05198177867641689	
0.34	-0.285	0.1018363841550902	
0.345	0.108	0.13470805306136474	
0.35	0.751	0.1569279756132221	
0.355	-0.168	0.1809130995259831	
0.36	-0.182	0.18484550296601515	
0.365	0.710	0.1772788652879258	
0.37	0.030	0.1743664547854974	
0.375	-0.370	0.15892320725897274	
0.38	0.285	0.12705118704985055	
0.385	0.227	0.09327222566102944	
0.39	-0.462	0.055697159822117974	
0.395	-0.180	0.01152189483684347	
0.4	0.224	-0.03887536944887525	
0.405	-0.419	-0.08898737080499017	
0.41	-0.436	-0.1303467191562803	
0.415	0.219	-0.16069987027593002	
0.42	-0.207	-0.17944187130137584	
0.425	-0.567	-0.1921720151375826	
0.43	-0.066	-0.20205920491796808	
0.435	-0.085	-0.22057294977036654	
0.44	-0.665	-0.24730384254418092	
0.445	-0.387	-0.2726214333364478	
0.45	-0.082	-0.3047659354587472	
0.455	-0.645	-0.34393532158913076	
0.46	-0.657	-0.3795136920929608	
0.465	-0.130	-0.4066293264115826	
0.47	-0.450	-0.43332629020103464	
0.475	-0.788	-0.45034957674856285	
0.48	-0.261	-0.4560306880119536	
0.485	-0.204	-0.4593674235546722	
0.49	-0.703	-0.4564775874092024	
0.495	-0.354	-0.4356982799906225	
0.5	0.061	-0.406477766908577	
0.505	-0.468	-0.3750436832187115	
0.51	-0.474	-0.3377618692047774	
0.515	0.116	-0.3003384346929693	
0.52	-0.256	-0.27527575728007914	
0.525	-0.589	-0.25874124417953415	
0.53	-0.005	-0.24283871251032915	
0.535	0.114	-0.22706920829194516	
0.54	-0.499	-0.2078893867955478	
0.545	-0.195	-0.1837660288839743	
0.55	0.317	-0.16301374072734243	
0.555	-0.406	-0.14828933551707374	
0.56	-0.445	-0.14110914987034906	
0.565	0.210	-0.1448753978391898	
0.57	-0.221	-0.15721265939487047	
0.575	-0.582	-0.17324595352832667	
0.58	-0.037	-0.18757462385642815	
0.585	0.015	-0.20472773993426607	
0.59	-0.549	-0.21938366822172436	
0.595	-0.227	-0.21978541806175797	
0.6	0.276	-0.21146915152580847	
0.605	-0.387	-0.1986032830159575	
0.61	-0.432	-0.1834575000369325	
0.615	0.271	-0.16831009750596193	
0.62	-0.159	-0.15920435428024243	
0.625	-0.518	-0.1538424521848117	
0.63	0.107	-0.14420254786385547	
0.635	0.314	-0.128328395416074	
0.64	-0.329	-0.09700132015960274	
0.645	0.148	-0.04479551654882121	
0.65	0.921	0.031189618720642513	
0.655	-0.160	0.11901409300308202	
0.66	-0.445	0.16306020114967662	
0.665	-0.105	0.12022368400872332	
0.67	-0.528	-0.005193840333411683	
0.675	-0.918	-0.16441479646888266	
0.68	-0.386	-0.30882218703733144	
0.685	-0.227	-0.42797210966273264	
0.69	-0.637	-0.49556714288421877	
0.695	-0.201	-0.48769858387143916	
0.7	0.564	-0.41321740599851065	
0.705	-0.186	-0.29643805028794973	
0.71	-0.192	-0.16819033088075885	
0.715	0.776	-0.043998535430958566	
0.72	0.207	0.06869579942508466	
0.725	-0.265	0.15085622252110753	
0.73	0.565	0.20566591874888018	
0.735	0.677	0.2494036645310881	
0.74	-0.220	0.2826424681093638	
0.745	0.143	0.29325363319203135	
0.75	0.846	0.28943667501448733	
0.755	-0.096	0.2831673334577076	
0.76	-0.128	0.2684007477347571	
0.765	0.916	0.2596124533516261	
0.77	0.373	0.2727814458964134	
0.775	-0.198	0.29330848690944095	
0.78	0.724	0.31392763597669293	
0.785	0.857	0.3467826453787499	
0.79	-0.122	0.38322906912330273	
0.795	0.376	0.40714696284353347	
0.8	1.119	0.42686703312586416	
0.805	0.073	0.4500575056056452	
0.81	0.000	0.4530669181194155	
0.815	1.094	0.44682914858735867	
0.82	0.506	0.4559660494511408	
0.825	-0.140	0.46304927356311754	
0.83	0.790	0.4608399417934623	
0.835	0.764	0.4590240733853748	
0.84	-0.207	0.4492312492472058	
0.845	0.090	0.41188742197412304	
0.85	0.736	0.35291360914113185	
0.855	-0.197	0.2903177559477714	
0.86	-0.284	0.2249388757101649	
0.865	0.537	0.16260898419275344	
0.87	-0.023	0.10720804619251872	
0.875	-0.419	0.060178349451733656	
0.88	0.265	0.03054275422482453	
0.885	0.378	0.016082609641323336	
0.89	-0.389	0.013540443967264634	
0.895	-0.133	0.014688823251551703	
0.9	0.459	0.007742156753407263	
0.905	-0.302	-0.007384896696283864	
0.91	-0.395	-0.022076443110851458	
0.915	0.256	-0.04167582927017996	
0.92	-0.169	-0.07563306615026887	
0.925	-0.557	-0.11167827675912884	
0.93	-0.014	-0.13669353051557964	
0.935	0.091	-0.16291750171948124	
0.94	-0.528	-0.18327733003669017	
0.945	-0.259	-0.18740321584165587	
0.95	0.296	-0.18530877525780204	
0.955	-0.367	-0.18327916062083335	
0.96	-0.451	-0.1741174995887427	
0.965	0.279	-0.16069164534397806	
0.97	-0.099	-0.15356279490703	
0.975	-0.477	-0.1437527605090074	
0.98	0.102	-0.12469261771456967	
0.985	0.268	-0.10881300911321465	
0.99	-0.425	-0.09239778360306139	
0.995	-0.143	-0.0714539020760806	
1.0	0.497	-0.05412737891599129	
1.005	-0.259	-0.04037270518066641	
1.01	-0.322	-0.02627419392336623	
1.015	0.532	-0.009467080606003132	
1.02	0.009	0.006462675242094835	
1.025	-0.424	0.013966279451603471	
1.03	0.174	0.016442428411426686	
1.035	0.302	0.009387811779517505	
1.04	-0.418	-0.001677004870508326	
1.045	-0.133	-0.007487614283836937	
1.05	0.558	-0.010800904621360845	
1.055	-0.271	-0.010531772665019446	
1.06	-0.351	-0.00751178715035895	
1.065	0.472	-0.005155848942572679	
1.07	-0.017	-0.006493010718667995	
1.075	-0.418	-0.009379190741139295	
1.08	0.245	-0.004359635798530054	
1.085	0.445	0.007648693811138375	
1.09	-0.339	0.024966368244094806	
1.095	-0.038	0.0474672496588021	
1.1	0.800	0.07159215738177865	
1.105	-0.044	0.10727590409978932	
1.11	-0.110	0.1482194658147345	
1.115	0.867	0.19321121997113547	
1.12	0.102	0.22854396964337975	
1.125	-0.532	0.22317947287079054	
1.13	-0.143	0.16276743325171422	
1.135	-0.128	0.0429014676717582	
1.14	-0.694	-0.09835999642688183	
1.145	-0.401	-0.20653798261062412	
1.15	0.158	-0.27900109667337275	
1.155	-0.332	-0.3159452085640219	
1.16	-0.297	-0.2970122616301832	
1.165	0.764	-0.21629253293939937	
1.17	0.383	-0.09343570334964048	
1.175	-0.177	0.04169149044180623	
1.18	0.773	0.1721460546194126	
1.185	1.001	0.2972797260756649	
1.19	-0.070	0.4040130732047766	
1.195	0.425	0.47334569550841527	
1.2	1.184	0.5155915501295094	
1.205	0.145	0.5417513609495073	
1.21	-0.012	0.5384736342123342	
1.215	1.098	0.5191531199215594	
1.22	0.578	0.5087496353550025	
1.225	-0.113	0.5031899506199009	
1.23	0.898	0.5002474903163859	
1.235	1.125	0.5207096855312188	
1.24	0.035	0.555771125850491	
1.245	0.570	0.5831196395201932	
1.25	1.431	0.6159377699334533	
1.255	0.479	0.6628544079160364	
1.26	0.287	0.703157260402868	
1.265	1.445	0.7341783996771775	
1.27	1.001	0.7750351894816375	
1.275	0.163	0.8120647115074623	
1.28	1.178	0.8319715250725187	
1.285	1.323	0.8498982439828128	
1.29	0.078	0.8559688811617073	
1.295	0.469	0.8227839344138433	
1.3	1.197	0.7628042761853104	
1.305	0.110	0.6942688013065409	
1.31	-0.111	0.6080927165271693	
1.315	0.872	0.5137287480042975	
1.32	0.314	0.43135940876119233	
1.325	-0.313	0.36042081036831974	
1.33	0.390	0.2964354751135937	
1.335	0.575	0.24383734338694701	
1.34	-0.288	0.20563273495493495	
1.345	-0.038	0.17752871957431143	
1.35	0.662	0.15030053054953352	
1.355	-0.182	0.12685529638030113	
1.36	-0.297	0.10629124986256329	
1.365	0.550	0.09103025942257668	
1.37	0.094	0.07856651801833286	
1.375	-0.380	0.06798241370575717	
1.38	0.242	0.06388440369196108	
1.385	0.474	0.06260445402200736	
1.39	-0.342	0.06530427422256468	
1.395	-0.099	0.06933525112568038	
1.4	0.529	0.06474203688800571	
1.405	-0.256	0.04936747969832185	
1.41	-0.369	0.030511636614209258	
1.415	0.428	0.014392161716751811	
1.42	0.020	-0.0022589443833126795	
1.425	-0.404	-0.013503622972794272	
1.43	0.197	-0.010587028512119893	
1.435	0.384	-0.0045958128741753574	
1.44	-0.393	0.0018695466620466553	
1.445	-0.157	0.007173190846453853	
1.45	0.543	0.007309898629399083	
1.455	-0.204	0.00780457392452146	
1.46	-0.340	0.009665947095768205	
1.465	0.480	0.01387668735071436	
1.47	0.072	0.01790688497836096	
1.475	-0.413	0.01988435514560153	
1.48	0.149	0.02099202355297788	
1.485	0.492	0.021269942280059455	
1.49	-0.250	0.03538340842334974	
1.495	0.084	0.06703113163564782	
1.5	0.908	0.11391865433563106	
1.505	0.004	0.1731962906610421	
1.51	-0.154	0.2188044924746193	
1.515	0.793	0.24535908924708838	
1.52	0.326	0.26806296668686447	
1.525	-0.273	0.2773217219448155	
1.53	0.456	0.2725417352216779	
1.535	0.651	0.2660712940734289	
1.54	-0.246	0.26197880430744014	
1.545	0.001	0.24483388627303596	
1.55	0.716	0.21934505867630655	
1.555	-0.137	0.19675165626098007	
1.56	-0.259	0.1690991790630508	
1.565	0.666	0.14761075872505985	
1.57	0.256	0.14525415857911778	
1.575	-0.308	0.1510398961790045	
1.58	0.184	0.14689830952558458	
1.585	0.062	0.11166835697729151	
1.59	-0.691	0.03483313086468153	
1.595	-0.602	-0.07331914185779684	
1.6	-0.296	-0.20745621889146715	
1.605	-0.761	-0.35461507396422615	
1.61	-0.834	-0.47145406459055766	
1.615	-0.230	-0.5442148222574823	
1.62	-0.332	-0.5786422194678973	
1.625	-0.651	-0.5661935472178978	
1.63	-0.136	-0.5095734128385903	
1.635	0.038	-0.4396880617785982	
1.64	-0.509	-0.3704723576531008	
1.645	-0.276	-0.3033585895169339	
1.65	0.271	-0.24403337594693886	
1.655	-0.361	-0.2012484304258062	
1.66	-0.496	-0.17621469841045015	
1.665	0.131	-0.16778953533556928	
1.67	-0.146	-0.17259630813069246	
1.675	-0.543	-0.18175624838811183	
1.68	-0.032	-0.18494212449730307	
1.685	0.140	-0.1838909356002498	
1.69	-0.494	-0.1809828370730292	
1.695	-0.279	-0.17546124662197143	
1.7	0.309	-0.16843203842015847	
1.705	-0.297	-0.15887148335029772	
1.71	-0.398	-0.14502504387846085	
1.715	0.315	-0.12824474157773302	
1.72	-0.056	-0.11047825602485793	
1.725	-0.473	-0.09938416225397934	
1.73	0.055	-0.09331163144232463	
1.735	0.279	-0.08703920703650114	
1.74	-0.439	-0.07951681949916667	
1.745	-0.249	-0.07861375335765623	
1.75	0.265	-0.08783110746668998	
1.755	-0.395	-0.10748759512105274	
1.76	-0.546	-0.1368774448792784	
1.765	0.011	-0.17474758309594723	
1.77	-0.264	-0.2193277202696136	
1.775	-0.707	-0.26295776024113726	
1.78	-0.274	-0.3007050926327206	
1.785	-0.168	-0.339223660980731	
1.79	-0.736	-0.3770208794218969	
1.795	-0.558	-0.40571393776954784	
1.8	-0.156	-0.43222444050487185	
1.805	-0.608	-0.4581406080623989	
1.81	-0.752	-0.47468873505999754	
1.815	-0.247	-0.48515797682103307	
1.82	-0.435	-0.4992548461587332	
1.825	-0.836	-0.5106283204366375	
1.83	-0.399	-0.5129576524577015	
1.835	-0.253	-0.5153671995989799	
1.84	-0.776	-0.5177181184442159	
1.845	-0.564	-0.5117649422157525	
1.85	-0.165	-0.5044556295814451	
1.855	-0.642	-0.5029728101099045	
1.86	-0.791	-0.5036100206950289	
1.865	-0.273	-0.5073562991491397	
1.87	-0.445	-0.5182063488638857	
1.875	-0.797	-0.5244950887260627	
1.88	-0.328	-0.5160656283332952	
1.885	-0.172	-0.5003924552638277	
1.89	-0.683	-0.4816198133115576	
1.895	-0.470	-0.4558140778333752	
1.9	-0.017	-0.4284892068719639	
1.905	-0.477	-0.40490940074200144	
1.91	-0.605	-0.38264091824260715	
1.915	-0.029	-0.36237376017594525	
1.92	-0.241	-0.3471509493059071	
1.925	-0.628	-0.33454912414524474	
1.93	-0.166	-0.31910219488177427	
1.935	-0.076	-0.30931284932696695	
1.94	-0.660	-0.3116719874199656	
1.945	-0.480	-0.3208965574099339	
1.95	-0.073	-0.33837697691572777	
1.955	-0.532	-0.3629030700312925	
1.96	-0.660	-0.3817712373035884	
1.965	-0.128	-0.39326423436346725	
1.97	-0.332	-0.404064901080022	
1.975	-0.727	-0.4117353483840023	
1.98	-0.288	-0.41005858825909186	
1.985	-0.145	-0.41011666035339744	
1.99	-0.663	-0.4098477314704217	
1.995	-0.473	-0.4039734855750682	
2.0	-0.070	-0.39710329108624615	
2.005	-0.529	-0.3980072102626373	
2.01	-0.646	-0.39802060073962453	
2.015	-0.075	-0.3929817420539525	
2.02	-0.232	-0.38597310196033285	
2.025	-0.579	-0.3691024575402202	
2.03	-0.066	-0.3349008518121525	
2.035	0.177	-0.2897982567343876	
2.04	-0.543	-0.24622403911203297	
2.045	-0.503	-0.22311156377131483	
2.05	-0.226	-0.24568699603194533	
2.055	-0.736	-0.3152027794456014	
2.06	-0.919	-0.4023652578814785	
2.065	-0.390	-0.48754470130567823	
2.07	-0.506	-0.5628835072744313	
2.075	-0.794	-0.6045966453064053	
2.08	-0.264	-0.5966122912414784	
2.085	-0.027	-0.5534141728108413	
2.09	-0.550	-0.49076417051042237	
2.095	-0.323	-0.41512280139600166	
2.1	0.309	-0.3340125247649314	
2.105	-0.322	-0.26055326177218985	
2.11	-0.450	-0.2038555814290441	
2.115	0.309	-0.15889924928908014	
2.12	0.015	-0.12179835846826226	
2.125	-0.441	-0.09337306938392867	
2.13	0.123	-0.06831633861661426	
2.135	0.427	-0.041861267107088214	
2.14	-0.361	-0.015416406956396659	
2.145	-0.171	0.002684101351993828	
2.15	0.627	0.014727633159643741	
2.155	-0.149	0.033215189559960605	
2.16	-0.325	0.045585485388361234	
2.165	0.567	0.0556656623354033	
2.17	0.242	0.07442629589844907	
2.175	-0.343	0.09497840389938338	
2.18	0.331	0.11084653612216475	
2.185	0.636	0.13265179925454426	
2.19	-0.259	0.1581497377920701	
2.195	-0.014	0.1694514890086164	
2.2	0.803	0.1762451546971557	
2.205	-0.049	0.18914973175979058	
2.21	-0.250	0.19115120206493896	
2.215	0.642	0.18393468071821784	
2.22	0.279	0.18367149140696018	
2.225	-0.354	0.17962103133309532	
2.23	0.194	0.16278525791433268	
2.235	0.486	0.13997341874476144	
2.24	-0.375	0.11505744097904803	
2.245	-0.256	0.08121459249713925	
2.25	0.386	0.03541888795328165	
2.255	-0.306	-0.012726125703233	
2.26	-0.499	-0.05904244553119547	
2.265	0.166	-0.09906740068533731	
2.27	-0.102	-0.13715359970861582	
2.275	-0.541	-0.1664571645777312	
2.28	-0.073	-0.17828873497767195	
2.285	0.259	-0.17987477924920048	
2.29	-0.442	-0.17195881549516953	
2.295	-0.267	-0.1528984765851099	
2.3	0.401	-0.13345298068197264	
2.305	-0.265	-0.11570204647075223	
2.31	-0.418	-0.10221393373381885	
2.315	0.352	-0.08697396423186238	
2.32	0.021	-0.07303669324454339	
2.325	-0.474	-0.0656623808429242	
2.33	-0.002	-0.06331327724194505	
2.335	0.383	-0.0636659452455407	
2.34	-0.389	-0.05907402808176605	
2.345	-0.229	-0.05104735221644394	
2.35	0.485	-0.04424944165143417	
2.355	-0.213	-0.03867577873070294	
2.36	-0.372	-0.03442975865158897	
2.365	0.471	-0.023861695598584687	
2.37	0.155	-0.004875859056729623	
2.375	-0.393	0.014142130665474206	
2.38	0.186	0.029646431137634807	
2.385	0.538	0.04755297401644849	
2.39	-0.323	0.06583921499150572	
2.395	-0.178	0.07376611960390192	
2.4	0.569	0.06791331429224351	
2.405	-0.217	0.05741387178264372	
2.41	-0.424	0.03636079943684722	
2.415	0.312	0.010136040466233944	
2.42	0.026	-0.01869044453471362	
2.425	-0.489	-0.04494303475924583	
2.43	-0.037	-0.06547445143375175	
2.435	0.300	-0.0833006163846948	
2.44	-0.428	-0.09611967428544742	
2.445	-0.277	-0.09936973339769131	
2.45	0.410	-0.09801468619089808	
2.455	-0.252	-0.09648799845813957	
2.46	-0.435	-0.0937659055370457	
2.465	0.308	-0.08785800916344455	
2.47	0.008	-0.08356019651781826	
2.475	-0.482	-0.08405678188689378	
2.48	-0.006	-0.08254198716532386	
2.485	0.421	-0.07812755429354805	
2.49	-0.326	-0.06316017455802377	
2.495	-0.159	-0.03852342908650144	
2.5	0.509	-0.01487446659608144	
2.505	-0.375	-0.008446347563556162	
2.51	-0.703	-0.03899848885138263	
2.515	-0.259	-0.11583079209339071	
2.52	-0.450	-0.2334055924796765	
2.525	-0.864	-0.3511884939904216	
2.53	-0.399	-0.4335450901528123	
2.535	-0.108	-0.48392905911110035	
2.54	-0.547	-0.49827433935033166	
2.545	-0.316	-0.4595977066583178	
2.55	0.451	-0.3785993946838663	
2.555	-0.194	-0.28150554348268	
2.56	-0.361	-0.18723223714816334	
2.565	0.508	-0.09952699401235053	
2.57	0.334	-0.016278215707099742	
2.575	-0.329	0.055378197429674224	
2.58	0.239	0.10750440920003418	
2.585	0.642	0.14141127366895054	
2.59	-0.232	0.1653964958001367	
2.595	-0.070	0.176164856393616	
2.6	0.817	0.18078388166584294	
2.605	0.001	0.1904807647845756	
2.61	-0.253	0.1944218568877296	
2.615	0.680	0.19468303727611544	
2.62	0.433	0.20593781965546865	
2.625	-0.256	0.22110080884166813	
2.63	0.472	0.2374853548116928	
2.635	0.870	0.26570447006797593	
2.64	-0.143	0.29930127534757395	
2.645	0.065	0.31494033155492607	
2.65	0.971	0.3209471709687163	
2.655	0.148	0.3316262790224296	
2.66	-0.177	0.33421924791149693	
2.665	0.770	0.3265980971696118	
2.67	0.442	0.3211583533134453	
2.675	-0.311	0.3101021970364459	
2.68	0.232	0.2802186191414147	
2.685	0.546	0.23977208458246702	
2.69	-0.348	0.19355575495537902	
2.695	-0.274	0.13875815875591976	
2.7	0.378	0.07475728156057454	
2.705	-0.302	0.0069144548696963935	
2.71	-0.526	-0.05571720983941949	
2.715	0.107	-0.106710543352432	
2.72	-0.111	-0.15572171784931294	
2.725	-0.567	-0.19464088837518806	
2.73	-0.153	-0.21099494225343346	
2.735	0.190	-0.21929984582202888	
2.74	-0.486	-0.22119445904130725	
2.745	-0.381	-0.21130964784646794	
2.75	0.242	-0.20239103331794134	
2.755	-0.313	-0.20094473381459582	
2.76	-0.497	-0.19670537752038614	
2.765	0.213	-0.18181878328731096	
2.77	0.033	-0.16664787017058258	
2.775	-0.489	-0.14964226957874122	
2.78	-0.041	-0.12908394170813525	
2.785	0.325	-0.1132278893895749	
2.79	-0.436	-0.10319959895559366	
2.795	-0.305	-0.09541391635049293	
2.8	0.430	-0.08929032114318225	
2.805	-0.220	-0.08589699957629504	
2.81	-0.430	-0.08186369747979957	
2.815	0.364	-0.07076011112627208	
2.82	0.187	-0.05350639366190471	
2.825	-0.398	-0.03179829839146183	
2.83	0.149	-0.005129916822859722	
2.835	0.587	0.024980458398674507	
2.84	-0.299	0.05472663860673086	
2.845	-0.157	0.07540593425306269	
2.85	0.703	0.0878819547419036	
2.855	-0.056	0.10218683569160517	
2.86	-0.319	0.10891318893349972	
2.865	0.520	0.11126014582742708	
2.87	0.300	0.11568936457700614	
2.875	-0.401	0.11707668187337307	
2.88	0.032	0.10572009209699	
2.885	0.430	0.07813962758769002	
2.89	-0.374	0.046786247222682494	
2.895	-0.268	0.019250106565104137	
2.9	0.399	-0.00908477490638668	
2.905	-0.239	-0.038691674338177585	
2.91	-0.444	-0.06417047531738738	
2.915	0.271	-0.07677401960044844	
2.92	0.056	-0.08520485156700747	
2.925	-0.471	-0.0899629671476892	
2.93	-0.049	-0.08832274504860164	
2.935	0.384	-0.08574818357237984	
2.94	-0.361	-0.07924676344929654	
2.945	-0.186	-0.06284555979776452	
2.95	0.756	-0.028946041267727894	
2.955	0.097	0.02735886201730985	
2.96	-0.209	0.09065552693011664	
2.965	0.611	0.14625358117225168	
2.97	0.056	0.17190278017726834	
2.975	-0.656	0.142857424602573	
2.98	-0.375	0.058572908267930185	
2.985	-0.209	-0.0735796136068391	
2.99	-0.723	-0.22327066952025026	
2.995	-0.564	-0.3349718048227802	
3.0	0.097	-0.3947688033278885	
3.005	-0.256	-0.41258348964245856	
3.01	-0.407	-0.37653901657524075	
3.015	0.451	-0.29056727961998297	
3.02	0.317	-0.17988965915067306	
3.025	-0.351	-0.07242730882248057	
3.03	0.218	0.017596563787676954	
3.035	0.713	0.08978884400984478	
3.04	-0.227	0.14646058824279995	
3.045	-0.107	0.17670825326133396	
3.05	0.815	0.1905950492558101	
3.055	0.041	0.20245065812053548	
3.06	-0.261	0.20600055193348404	
3.065	0.631	0.20557120545823804	
3.07	0.444	0.21044279809011077	
3.075	-0.308	0.2152784338050898	
3.08	0.255	0.21445638873439346	
3.085	0.735	0.21215615651900863	
3.09	-0.220	0.2124335324258786	
3.095	-0.120	0.20440408484458164	
3.1	0.815	0.1937888838841787	
3.105	0.122	0.19566115494531494	
3.11	-0.212	0.20473928609519748	
3.115	0.761	0.22251482429373706	
3.12	0.619	0.2557311651707488	
3.125	-0.220	0.2912035476726439	
3.13	0.390	0.314200837779789	
3.135	0.846	0.3273308635156401	
3.14	-0.204	0.33059490101523137	
3.145	-0.148	0.30812916959274816	
3.15	0.707	0.2637181012570658	
3.155	-0.066	0.2169592183242308	
3.16	-0.384	0.16765985839448672	
3.165	0.348	0.11922379319055629	
3.17	0.163	0.07294423011944776	
3.175	-0.486	0.029400022671687485	
3.18	-0.116	-0.008104257550805828	
3.185	0.303	-0.04868859861176463	
3.19	-0.441	-0.08606563400463946	
3.195	-0.386	-0.11099319854880159	
3.2	0.309	-0.1294937410408535	
3.205	-0.261	-0.14679033748137385	
3.21	-0.512	-0.15829004573187222	
3.215	0.137	-0.15801971114668714	
3.22	0.029	-0.1609473432159334	
3.225	-0.514	-0.162467463133108	
3.23	-0.149	-0.15528070770020735	
3.235	0.283	-0.15067220492279465	
3.24	-0.447	-0.1519431717829614	
3.245	-0.374	-0.1471217603277415	
3.25	0.314	-0.143499406802176	
3.255	-0.259	-0.1466741131402502	
3.26	-0.509	-0.1504133803672434	
3.265	0.165	-0.1460326104603908	
3.27	0.056	-0.14478904749358593	
3.275	-0.508	-0.14460209438854454	
3.28	-0.073	-0.13335455290913678	
3.285	0.447	-0.11643263922349925	
3.29	-0.349	-0.09402542756903412	
3.295	-0.268	-0.06833699301283519	
3.3	0.576	-0.04125147307976666	
3.305	-0.096	-0.015598141059125381	
3.31	-0.367	0.004258434704697895	
3.315	0.472	0.02608974975954926	
3.32	0.340	0.052489896797285295	
3.325	-0.354	0.07609877922383237	
3.33	0.149	0.09651780154736163	
3.335	0.649	0.11193008419408411	
3.34	-0.268	0.12387705408131132	
3.345	-0.252	0.12233166243372993	
3.35	0.521	0.10400975177141755	
3.355	-0.149	0.07256202323806535	
3.36	-0.442	0.03790682604409016	
3.365	0.293	0.009148748381572626	
3.37	0.206	-0.012191590059244136	
3.375	-0.450	-0.0261414528839157	
3.38	-0.058	-0.029628852401147508	
3.385	0.456	-0.034728745229566246	
3.39	-0.352	-0.03819167453157578	
3.395	-0.299	-0.03594213749201775	
3.4	0.509	-0.03170165199396069	
3.405	-0.139	-0.029331583831076962	
3.41	-0.439	-0.029463481738774153	
3.415	0.351	-0.02371738442555973	
3.42	0.354	-0.009893793019125801	
3.425	-0.299	0.015528355507045712	
3.43	0.431	0.06729943638581244	
3.435	1.143	0.15571775624009995	
3.44	-0.002	0.2646474768352118	
3.445	-0.204	0.334642935882447	
3.45	0.152	0.3135526965562421	
3.455	-0.499	0.19377112178425124	
3.46	-0.854	0.023146535478356045	
3.465	-0.334	-0.1505794196096621	
3.47	-0.281	-0.3135795636762906	
3.475	-0.634	-0.4247732685966278	
3.48	-0.140	-0.44471063228853736	
3.485	0.561	-0.39187411828611096	
3.49	-0.256	-0.292613359118817	
3.495	-0.191	-0.1735478506229544	
3.5	0.797	-0.056855350292341525	
3.505	0.154	0.0487278952343068	
3.51	-0.273	0.13257596985912004	
3.515	0.654	0.19381261764897956	
3.52	0.593	0.2407218650658826	
3.525	-0.258	0.27353496999534377	
3.53	0.282	0.29025148195226014	
3.535	0.861	0.29669669154170497	
3.54	-0.128	0.29800398039813414	
3.545	-0.053	0.2920935343300649	
3.55	0.983	0.2897332836911619	
3.555	0.319	0.302767884688725	
3.56	-0.172	0.3220361907071072	
3.565	0.867	0.3451231142832747	
3.57	0.863	0.3810924422356712	
3.575	-0.107	0.42406521937792757	
3.58	0.573	0.45818110665918055	
3.585	1.169	0.4901772437224423	
3.59	0.120	0.5218156554043145	
3.595	0.187	0.5367465173842705	
3.6	1.197	0.5440621334810923	
3.605	0.492	0.5528950848557663	
3.61	-0.098	0.5536603527054343	
3.615	1.000	0.5461713480981141	
3.62	1.015	0.5534058249150134	
3.625	-0.029	0.5728972285390128	
3.63	0.588	0.5829701459970489	
3.635	1.104	0.5833992060270188	
3.64	-0.034	0.5689082631894824	
3.645	-0.069	0.5234818475247051	
3.65	0.898	0.4590515623291701	
3.655	0.206	0.39616563430897667	
3.66	-0.276	0.34159063900919706	
3.665	0.591	0.2969411484829872	
3.67	0.555	0.265583247182986	
3.675	-0.297	0.24505558885161297	
3.68	0.143	0.22971623779451777	
3.685	0.745	0.2123817351431158	
3.69	-0.200	0.19720789545640074	
3.695	-0.192	0.18137978225257523	
3.7	0.722	0.16783721819985375	
3.705	0.044	0.15539231542004717	
3.71	-0.346	0.1426591842299262	
3.715	0.511	0.1376638974596675	
3.72	0.474	0.14167978566411446	
3.725	-0.355	0.14726549457253796	
3.73	0.050	0.148469013888702	
3.735	0.633	0.139308941016429	
3.74	-0.255	0.12349607096716717	
3.745	-0.259	0.10826820133581744	
3.75	0.607	0.09361797475135739	
3.755	-0.055	0.07664015439495524	
3.76	-0.409	0.05871571232426375	
3.765	0.386	0.05038340963257219	
3.77	0.442	0.05280947526515816	
3.775	-0.320	0.06747140664563578	
3.78	0.122	0.0922328458818277	
3.785	0.800	0.12128417820232779	
3.79	-0.145	0.1517562323579968	
3.795	-0.165	0.17611542001990377	
3.8	0.794	0.19043816492854734	
3.805	0.154	0.2019014117560179	
3.81	-0.288	0.20773360845724098	
3.815	0.637	0.21609726983437197	
3.82	0.668	0.2359595718137383	
3.825	-0.262	0.25967027964986933	
3.83	0.178	0.2719281712848438	
3.835	0.776	0.2682168159753087	
3.84	-0.191	0.25409631922832676	
3.845	-0.227	0.22898503737112247	
3.85	0.628	0.19415618693367148	
3.855	0.006	0.15620306537277892	
3.86	-0.390	0.1188594361893166	
3.865	0.366	0.09372375771093278	
3.87	0.355	0.07605194605879724	
3.875	-0.413	0.06299094672859348	
3.88	-0.099	0.051658170173844296	
3.885	0.486	0.031079497364346446	
3.89	-0.306	0.00845500481264483	
3.895	-0.319	-0.005075165771298149	
3.9	0.503	-0.010118127072500665	
3.905	-0.102	-0.016563007465684468	
3.91	-0.456	-0.025041806863759536	
3.915	0.346	-0.021560009832623954	
3.92	0.537	0.0001601722590562542	
3.925	-0.229	0.04421564160152971	
3.93	0.372	0.11144146717097558	
3.935	0.937	0.19204433451545472	
3.94	-0.305	0.2526768426343842	
3.945	-0.576	0.24368674516948613	
3.95	-0.201	0.13863148098097022	
3.955	-0.561	-0.04128223177416745	
3.96	-0.886	-0.22597104020052203	
3.965	-0.316	-0.363812195899837	
3.97	-0.182	-0.4617056955916135	
3.975	-0.587	-0.5046081177114016	
3.98	-0.143	-0.4697150330243798	
3.985	0.605	-0.3769115007696078	
3.99	-0.230	-0.25616771877524175	
3.995	-0.259	-0.1353859690012809	
4.0	0.672	-0.03328564222903769	
4.005	0.130	0.046826094436775996	
4.01	-0.316	0.10479579543983046	
4.015	0.501	0.14714447114444912	
4.02	0.518	0.17749463737991555	
4.025	-0.317	0.19419526553194175	
4.03	0.079	0.19706016030791673	
4.035	0.793	0.19331791747841234	
4.04	-0.148	0.19188363811713927	
4.045	-0.180	0.18936311908082532	
4.05	0.812	0.18983727397319206	
4.055	0.283	0.20205394443133218	
4.06	-0.233	0.2215972999477663	
4.065	0.692	0.24705886603066884	
4.07	0.797	0.28576528530051437	
4.075	-0.160	0.32817040557395655	
4.08	0.364	0.3588117674916354	
4.085	1.072	0.3864600245060697	
4.09	0.053	0.41306560378141954	
4.095	-0.050	0.42011029865757465	
4.1	0.957	0.41073010046004405	
4.105	0.389	0.4013534016313954	
4.11	-0.206	0.3915629610917004	
4.115	0.645	0.3767356064758157	
4.12	0.662	0.3619413427490178	
4.125	-0.288	0.3434215200223953	
4.13	0.011	0.3064816332888255	
4.135	0.637	0.25234107583944176	
4.14	-0.271	0.19247328546898207	
4.145	-0.351	0.13304312810139496	
4.15	0.427	0.07637302896950214	
4.155	-0.099	0.021629334964083122	
4.16	-0.479	-0.02321930693862669	
4.165	0.149	-0.050637803750229436	
4.17	0.230	-0.06903629381221776	
4.175	-0.467	-0.08121197214089548	
4.18	-0.175	-0.08172259764676562	
4.185	0.424	-0.08184710381350983	
4.19	-0.345	-0.08521613047350751	
4.195	-0.412	-0.0839802134103027	
4.2	0.344	-0.08489525308457596	
4.205	-0.114	-0.09219296563581565	
4.21	-0.497	-0.10011329889454743	
4.215	0.117	-0.09787331507073574	
4.22	0.223	-0.0979850375457641	
4.225	-0.464	-0.09705784202066522	
4.23	-0.154	-0.0878749409382908	
4.235	0.471	-0.07786519337801903	
4.24	-0.296	-0.06807217186429596	
4.245	-0.355	-0.05607684781037833	
4.25	0.453	-0.0429425139490304	
4.255	-0.058	-0.03706095498614391	
4.26	-0.441	-0.03519022684987023	
4.265	0.293	-0.024946937116918044	
4.27	0.425	-0.005822492943589083	
4.275	-0.366	0.017903624929769508	
4.28	-0.049	0.040962761400608644	
4.285	0.662	0.05727832556439253	
4.29	-0.191	0.07199697287301086	
4.295	-0.227	0.08472062324291214	
4.3	0.748	0.10312285331808538	
4.305	0.241	0.13213413903881388	
4.31	-0.303	0.1606373395978381	
4.315	0.448	0.18193239725794214	
4.32	0.527	0.19438605313322066	
4.325	-0.337	0.19488456949276076	
4.33	-0.067	0.18074714780043963	
4.335	0.584	0.14939883545614677	
4.34	-0.265	0.11113688446731665	
4.345	-0.335	0.07552995411615024	
4.35	0.544	0.04909931217343713	
4.355	0.053	0.033335512961509356	
4.36	-0.396	0.027554199464277757	
4.365	0.303	0.031813078749955134	
4.37	0.453	0.04256578026248308	
4.375	-0.364	0.05590971133003858	
4.38	-0.082	0.06657427873095109	
4.385	0.616	0.06749514762131648	
4.39	-0.223	0.0652490582275374	
4.395	-0.284	0.06236194348908117	
4.4	0.665	0.06708925866662516	
4.405	0.285	0.08851278326510996	
4.41	-0.198	0.12547037684686263	
4.415	0.761	0.18370289060591558	
4.42	0.759	0.2587304257178875	
4.425	-0.378	0.3119023015917716	
4.43	-0.296	0.29730888649668186	
4.435	-0.011	0.19451732992164814	
4.44	-0.570	0.034425601307641426	
4.445	-0.650	-0.11774961658968033	
4.45	-0.089	-0.23796791030421463	
4.455	-0.271	-0.33432761429235963	
4.46	-0.547	-0.37855504237763593	
4.465	0.174	-0.35233570650627266	
4.47	0.485	-0.2771363721938042	
4.475	-0.274	-0.17313642710154392	
4.48	0.117	-0.0566763221912465	
4.485	0.983	0.059760821864843265	
4.49	0.221	0.17831614457801598	
4.495	0.232	0.29602192506453756	
4.5	1.460	0.4222776883935828	
4.505	1.049	0.5697472897568983	
4.51	0.346	0.712074304009962	
4.515	1.341	0.8266561915416287	
4.52	1.460	0.922100552055347	
4.525	0.372	0.9876838086615917	
4.53	0.883	1.0111251323310484	
4.535	1.630	1.0149645549129267	
4.54	0.675	1.0184274597351544	
4.545	0.454	1.0057848958666007	
4.55	1.483	0.979197427470183	
4.555	1.014	0.9599966119201296	
4.56	0.288	0.9430967961476163	
4.565	1.296	0.9274003866890207	
4.57	1.457	0.933239951175565	
4.575	0.401	0.9529958604128635	
4.58	0.846	0.959856595307535	
4.585	1.538	0.9587491797867682	
4.59	0.546	0.9548576936921476	
4.595	0.303	0.9267847501785282	
4.6	1.303	0.8786832223226311	
4.605	0.710	0.83128953957411	
4.61	-0.119	0.7684927978319933	
4.615	0.698	0.6827835135436158	
4.62	0.735	0.593121020018696	
4.625	-0.242	0.5047431865258065	
4.63	-0.003	0.4085375156759232	
4.635	0.658	0.3101305880109133	
4.64	-0.223	0.22260743123385815	
4.645	-0.339	0.14704695495990552	
4.65	0.398	0.082772789211487	
4.655	-0.047	0.02658703838444585	
4.66	-0.459	-0.018708678181517932	
4.665	0.090	-0.04695030076915213	
4.67	0.261	-0.06621360669505821	
4.675	-0.441	-0.07830897564083636	
4.68	-0.213	-0.0806867663653734	
4.685	0.390	-0.08366041400878643	
4.69	-0.274	-0.08670789236919628	
4.695	-0.381	-0.08361162667757344	
4.7	0.308	-0.07911016290004635	
4.705	-0.098	-0.08122991586750443	
4.71	-0.514	-0.09199657428441421	
4.715	-0.035	-0.10458831028151563	
4.72	0.128	-0.12453721421967229	
4.725	-0.508	-0.14651250419285694	
4.73	-0.285	-0.15885829875912483	
4.735	0.273	-0.1673123682253435	
4.74	-0.354	-0.17314289270700522	
4.745	-0.462	-0.1733322540923502	
4.75	0.212	-0.1698199650271368	
4.755	-0.124	-0.16905656797063204	
4.76	-0.520	-0.16841210368849424	
4.765	0.006	-0.16209760214816246	
4.77	0.163	-0.15677483822299718	
4.775	-0.474	-0.15288089660009896	
4.78	-0.235	-0.14502607911034837	
4.785	0.351	-0.13682054058110676	
4.79	-0.335	-0.12867343735443704	
4.795	-0.457	-0.12514523078812043	
4.8	0.178	-0.12940771389358685	
4.805	-0.177	-0.14488885761848647	
4.81	-0.608	-0.16695450120319705	
4.815	-0.178	-0.19255346111247745	
4.82	-0.093	-0.22995615379928536	
4.825	-0.636	-0.2713372391750667	
4.83	-0.419	-0.3011685380359427	
4.835	-0.034	-0.32424064697268035	
4.84	-0.553	-0.3502882348134523	
4.845	-0.669	-0.3709778361402747	
4.85	-0.136	-0.38684113912696816	
4.855	-0.337	-0.4047640528880566	
4.86	-0.704	-0.4146234595352494	
4.865	-0.226	-0.4068326836869997	
4.87	-0.081	-0.3960494661622894	
4.875	-0.637	-0.3850364920484264	
4.88	-0.421	-0.3672857461561602	
4.885	0.120	-0.34742751905735203	
4.89	-0.374	-0.3260660112607609	
4.895	-0.427	-0.2929526994643059	
4.9	0.396	-0.24102247425516748	
4.905	-0.061	-0.1796422802576214	
4.91	-0.643	-0.13958781274155754	
4.915	-0.380	-0.14707886912469179	
4.92	-0.375	-0.21602070357472747	
4.925	-0.944	-0.32588379237187876	
4.93	-0.774	-0.43742759097542105	
4.935	-0.366	-0.5374532571931843	
4.94	-0.709	-0.6158837204856682	
4.945	-0.744	-0.6470099937983704	
4.95	-0.122	-0.6300932753310327	
4.955	-0.270	-0.5865080327466298	
4.96	-0.639	-0.5225925628587231	
4.965	-0.148	-0.4460892881896163	
4.97	0.079	-0.37687824430257366	
4.975	-0.529	-0.31696584573413217	
4.98	-0.322	-0.2665396314067565	
4.985	0.230	-0.22929356856146743	
4.99	-0.377	-0.20694780237671573	
4.995	-0.511	-0.1952443216285642	
5.0	0.160	-0.18994060349720346	
5.005	-0.130	-0.18941488551964228	
5.01	-0.538	-0.1908555336425835	
5.015	-0.041	-0.18702281829896528	
5.02	0.223	-0.1786265853937824	
5.025	-0.454	-0.16517296767403558	
5.03	-0.242	-0.14764879413982118	
5.035	0.444	-0.1279867320270479	
5.04	-0.256	-0.10400006139055801	
5.045	-0.375	-0.08350838521760744	
5.05	0.463	-0.06171912567277389	
5.055	0.117	-0.0322673484385944	
5.06	-0.374	-0.003153009105656794	
5.065	0.248	0.02098914048677451	
5.07	0.463	0.046641721752221865	
5.075	-0.361	0.06666035584760316	
5.08	-0.168	0.06715338760414279	
5.085	0.537	0.05523966691677597	
5.09	-0.235	0.04207146415386066	
5.095	-0.415	0.02224661620037739	
5.1	0.244	-0.008692701609422801	
5.105	-0.108	-0.046072809050130566	
5.11	-0.557	-0.08826964408030398	
5.115	-0.117	-0.12713231303647407	
5.12	0.064	-0.1661869190488754	
5.125	-0.560	-0.20129822876615	
5.13	-0.363	-0.22399043182031841	
5.135	0.117	-0.24068083373637764	
5.14	-0.432	-0.2578380931569051	
5.145	-0.560	-0.268885842462301	
5.15	0.075	-0.27165370438090564	
5.155	-0.169	-0.27193706207556445	
5.16	-0.590	-0.26941272797765425	
5.165	-0.122	-0.2581653441187426	
5.17	0.128	-0.24799475883335897	
5.175	-0.514	-0.23541389819792838	
5.18	-0.329	-0.22013476542919505	
5.185	0.265	-0.2064596253132563	
5.19	-0.346	-0.1958440931304597	
5.195	-0.503	-0.18813279632861565	
5.2	0.171	-0.18149285606561605	
5.205	-0.113	-0.18079713498724279	
5.21	-0.535	-0.18268878303849553	
5.215	-0.061	-0.17913150273513806	
5.22	0.224	-0.1737217453662055	
5.225	-0.479	-0.16562785181816816	
5.23	-0.314	-0.15628438503148037	
5.235	0.285	-0.1521425037016439	
5.24	-0.317	-0.15389958140136867	
5.245	-0.462	-0.15442576580296302	
5.25	0.267	-0.14822785648689177	
5.255	-0.024	-0.1386466899487402	
5.26	-0.464	-0.12905966107630856	
5.265	0.125	-0.10904676586708369	
5.27	0.457	-0.07737194732771603	
5.275	-0.352	-0.038925753191791264	
5.28	-0.160	-0.008474597177510828	
5.285	0.625	0.015269380881569433	
5.29	-0.157	0.038055584446340836	
5.295	-0.337	0.05017809947512309	
5.3	0.477	0.054016244218345624	
5.305	0.097	0.054590741120707345	
5.31	-0.439	0.04756443796362153	
5.315	0.093	0.032907307831451224	
5.32	0.408	0.01698667872116838	
5.325	-0.387	0.00692329725811747	
5.33	-0.235	-0.0037168238367913282	
5.335	0.419	-0.018452684621876388	
5.34	-0.271	-0.036873236536385426	
5.345	-0.450	-0.057115629865931716	
5.35	0.279	-0.0728641602411994	
5.355	0.020	-0.08518276762658161	
5.36	-0.460	-0.0916693951767672	
5.365	0.050	-0.08714569832338209	
5.37	0.349	-0.07873520037897833	
5.375	-0.406	-0.06820678765100113	
5.38	-0.229	-0.05892211047539424	
5.385	0.564	-0.04717838562531236	
5.39	-0.116	-0.02681619091094663	
5.395	-0.227	0.0015848336546309333	
5.4	0.777	0.05028367677489089	
5.405	0.407	0.12006155545613205	
5.41	-0.412	0.17702171436318043	
5.415	-0.149	0.1766840732582995	
5.42	-0.146	0.0955241413430434	
5.425	-0.767	-0.042277199051768015	
5.43	-0.648	-0.18613799423811636	
5.435	-0.153	-0.31494926556645686	
5.44	-0.470	-0.41571818340034183	
5.445	-0.550	-0.4556418549876571	
5.45	0.241	-0.4275662974819844	
5.455	0.101	-0.3577674244682726	
5.46	-0.395	-0.26524184779840865	
5.465	0.183	-0.16319968023030323	
5.47	0.558	-0.06811314066643748	
5.475	-0.300	0.012405764289431185	
5.48	-0.131	0.06564487529211814	
5.485	0.681	0.09647234300614296	
5.49	-0.089	0.11517241447495129	
5.495	-0.299	0.12088528204450785	
5.5	0.588	0.1227182831034467	
5.505	0.317	0.13147151136966792	
5.51	-0.322	0.14231873350647056	
5.515	0.340	0.15381154900006141	
5.52	0.735	0.17231563271388234	
5.525	-0.188	0.1981937355507808	
5.53	0.020	0.21738864707676409	
5.535	0.925	0.2328336646360744	
5.54	0.113	0.25724746912083973	
5.545	-0.165	0.27652845500531814	
5.55	0.837	0.2888234594004506	
5.555	0.544	0.3127436303773832	
5.56	-0.215	0.3340994824452501	
5.565	0.503	0.34264335659201717	
5.57	0.840	0.35156651256692495	
5.575	-0.180	0.3562452848831671	
5.58	-0.023	0.33810905896520693	
5.585	0.825	0.30686197033021	
5.59	-0.018	0.27652146818076995	
5.595	-0.302	0.2413915604666004	
5.6	0.515	0.20157960565180108	
5.605	0.206	0.16299876583272277	
5.61	-0.421	0.12624626399480943	
5.615	0.006	0.0863004256471334	
5.62	0.340	0.04058652483615577	
5.625	-0.444	-0.004396898883773063	
5.63	-0.331	-0.04307127188327544	
5.635	0.325	-0.07837051879897973	
5.64	-0.290	-0.1101600173781664	
5.645	-0.491	-0.13354882865729809	
5.65	0.210	-0.14273779259865377	
5.655	-0.052	-0.14986096890191067	
5.66	-0.541	-0.15754534241497675	
5.665	-0.127	-0.1599540866441588	
5.67	0.218	-0.16543421486016996	
5.675	-0.459	-0.17014915263636254	
5.68	-0.334	-0.16621685988768586	
5.685	0.314	-0.15849547576374595	
5.69	-0.282	-0.15594971878643699	
5.695	-0.508	-0.15360415936259297	
5.7	0.181	-0.14990853786378838	
5.705	-0.024	-0.15069344736871604	
5.71	-0.515	-0.1535146849336327	
5.715	-0.082	-0.14813111454636732	
5.72	0.244	-0.145319922412941	
5.725	-0.459	-0.14607456652159617	
5.73	-0.348	-0.14340635463530008	
5.735	0.308	-0.14242315723649174	
5.74	-0.291	-0.147811378496282	
5.745	-0.509	-0.1517939576554273	
5.75	0.197	-0.15089787621784492	
5.755	0.014	-0.1504853461740375	
5.76	-0.502	-0.1476852956995066	
5.765	-0.043	-0.13622616406254345	
5.77	0.407	-0.12005147060148866	
5.775	-0.363	-0.09815318291368938	
5.78	-0.250	-0.07263478296320969	
5.785	0.546	-0.0481801403720403	
5.79	-0.142	-0.025733200371475896	
5.795	-0.377	-0.00910638308811736	
5.8	0.468	0.008216034121593455	
5.805	0.305	0.03176962214608796	
5.81	-0.349	0.05804567913720315	
5.815	0.216	0.08366876441118361	
5.82	0.645	0.10826641280034593	
5.825	-0.314	0.12775049415932768	
5.83	-0.252	0.12607444310274132	
5.835	0.521	0.10103919140460513	
5.84	-0.195	0.06741447069828134	
5.845	-0.448	0.028609996658678413	
5.85	0.256	-0.005767024218820466	
5.855	0.068	-0.03897460369838612	
5.86	-0.489	-0.06611093184347483	
5.865	-0.069	-0.08046933985199278	
5.87	0.386	-0.09048779963995654	
5.875	-0.398	-0.09224948165626129	
5.88	-0.300	-0.08612333081257309	
5.885	0.439	-0.07878726453508	
5.89	-0.203	-0.07549305951677883	
5.895	-0.438	-0.07263530874770617	
5.9	0.323	-0.06468629237358692	
5.905	0.157	-0.054771145081910826	
5.91	-0.404	-0.043346252427306234	
5.915	0.213	-0.01752420775630143	
5.92	0.815	0.03082498113643401	
5.925	-0.064	0.10263454526515839	
5.93	0.160	0.18162542221073802	
5.935	0.893	0.25347315747198707	
5.94	-0.235	0.2895655553232255	
5.945	-0.694	0.24695026223625832	
5.95	-0.296	0.12034179498192096	
5.955	-0.422	-0.06546525083078013	
5.96	-0.846	-0.25154817202614255	
5.965	-0.393	-0.3796444244140923	
5.97	0.091	-0.44883138393859395	
5.975	-0.404	-0.45740856542736286	
5.98	-0.270	-0.3996215419275253	
5.985	0.553	-0.3012226776373779	
5.99	-0.105	-0.1953169977664678	
5.995	-0.357	-0.10337448746039847	
6.0	0.498	-0.023423831128166702	
6.005	0.361	0.042820341876006425	
6.01	-0.372	0.09096787731102261	
6.015	0.108	0.11824039093326152	
6.02	0.596	0.12562517032902942	
6.025	-0.310	0.12130913081255863	
6.03	-0.239	0.10797113242842973	
6.035	0.616	0.08923833945792772	
6.04	-0.079	0.07280531405232508	
6.045	-0.358	0.060123759180115095	
6.05	0.488	0.05879540831442785	
6.055	0.390	0.07122303265008906	
6.06	-0.334	0.09054777699658917	
6.065	0.244	0.11513352884032484	
6.07	0.773	0.14414124821448354	
6.075	-0.203	0.17512968836552875	
6.08	-0.110	0.19256239960226673	
6.085	0.867	0.20264256490819255	
6.09	0.190	0.2209825183834999	
6.095	-0.242	0.23863198724112175	
6.1	0.697	0.25387378181093545	
6.105	0.559	0.2696296341348696	
6.11	-0.282	0.2822395013694835	
6.115	0.242	0.27988807757707457	
6.12	0.722	0.2665328873738081	
6.125	-0.259	0.2451443695056788	
6.13	-0.255	0.21018802510992804	
6.135	0.529	0.16081481522675237	
6.14	-0.136	0.10322132513092785	
6.145	-0.459	0.05034039018095998	
6.15	0.235	0.008834856049430264	
6.155	0.117	-0.030060477503164335	
6.16	-0.503	-0.06290235671973216	
6.165	-0.130	-0.0802847227907057	
6.17	0.387	-0.09517723610856374	
6.175	-0.380	-0.1038661177585385	
6.18	-0.335	-0.0990658675443819	
6.185	0.447	-0.08894488552509071	
6.19	-0.142	-0.08167684227394098	
6.195	-0.413	-0.07200573677074043	
6.2	0.415	-0.047018371725276856	
6.205	0.329	-0.014773513675189755	
6.21	-0.374	0.017726679052721864	
6.215	0.081	0.04963226456730981	
6.22	0.620	0.07225845818348349	
6.225	-0.244	0.08691153778163586	
6.23	-0.210	0.09758785470466201	
6.235	0.683	0.1044997464564975	
6.24	0.038	0.108402173510284	
6.245	-0.308	0.11447835514663039	
6.25	0.575	0.1292206199175359	
6.255	0.523	0.1526056571492601	
6.26	-0.285	0.1782455530449889	
6.265	0.241	0.20154789142955878	
6.27	0.788	0.21980381492841614	
6.275	-0.178	0.22966016587839255	
6.28	-0.134	0.22918202239669708	
6.285	0.861	0.22499749546171094	
6.29	0.192	0.22852337942598122	
6.295	-0.250	0.23591882964675984	
6.3	0.733	0.2504265058558517	
6.305	0.698	0.27603740665891263	
6.31	-0.210	0.30579706940008844	
6.315	0.372	0.33038224058758753	
6.32	0.976	0.34833198328905	
6.325	-0.024	0.3645251155386836	
6.33	0.078	0.3747599880620234	
6.335	1.137	0.39037782416883654	
6.34	0.497	0.42072651070591904	
6.345	-0.037	0.4564428521639344	
6.35	1.116	0.49548907380428775	
6.355	1.067	0.551462177895109	
6.36	0.004	0.605509966498966	
6.365	0.649	0.6360996646816697	
6.37	1.209	0.648724219298185	
6.375	0.161	0.6485921793883673	
6.38	0.081	0.6263302977181144	
6.385	1.024	0.5834784951473894	
6.39	0.366	0.5330611573130947	
6.395	-0.203	0.4831790100320413	
6.4	0.709	0.4352904528878907	
6.405	0.704	0.39780798084217284	
6.41	-0.209	0.37254689070173774	
6.415	0.354	0.356793744507805	
6.42	0.954	0.34889017168349656	
6.425	-0.070	0.3468262117949032	
6.43	-0.052	0.33906539461018054	
6.435	0.968	0.33142054181658465	
6.44	0.328	0.33238164862332487	
6.445	-0.201	0.33807084224997674	
6.45	0.784	0.3460218114661021	
6.455	0.921	0.3700697872511905	
6.46	0.072	0.4156971340728734	
6.465	0.939	0.4894671547133846	
6.47	1.666	0.6019575532353232	
6.475	0.448	0.7291614764350894	
6.48	-0.063	0.7937357167874586	
6.485	0.357	0.7320442519162609	
6.49	-0.340	0.5467137928948853	
6.495	-0.697	0.30718461319287726	
6.5	-0.165	0.07964743397235861	
6.505	-0.066	-0.11879886272695717	
6.51	-0.476	-0.2509668213145443	
6.515	0.037	-0.2807376478142751	
6.52	0.840	-0.2231388632712255	
6.525	-0.047	-0.11157004000392334	
6.53	-0.035	0.01775559619924208	
6.535	0.991	0.14102040752413939	
6.54	0.392	0.24788319665680233	
6.545	-0.154	0.3290976882024834	
6.55	0.825	0.3854868996273844	
6.555	0.851	0.42933542952381754	
6.56	-0.133	0.4599905333623203	
6.565	0.367	0.4689599059728984	
6.57	0.956	0.45890244417030085	
6.575	-0.063	0.4366196609142255	
6.58	-0.055	0.4015732384993259	
6.585	0.988	0.3699290262629953	
6.59	0.354	0.35717813659130976	
6.595	-0.185	0.35309945220077255	
6.6	0.777	0.35621176165507207	
6.605	0.825	0.37252068532127713	
6.61	-0.119	0.39622258131265997	
6.615	0.466	0.41765538832153537	
6.62	1.136	0.44185247217890045	
6.625	0.145	0.47101389255259407	
6.63	0.140	0.4904077630025238	
6.635	1.168	0.5055761667387867	
6.64	0.591	0.5265460898733212	
6.645	-0.084	0.5432492726466012	
6.65	0.835	0.5436901054141805	
6.655	0.826	0.5356261282356918	
6.66	-0.185	0.5166976134404402	
6.665	0.259	0.47823749321957415	
6.67	0.878	0.42856289604334674	
6.675	-0.154	0.37662282536311026	
6.68	-0.232	0.31736068494642533	
6.685	0.599	0.24995355121255258	
6.69	0.003	0.18295406331287106	
6.695	-0.409	0.12367461083942775	
6.7	0.245	0.07905814445504468	
6.705	0.261	0.03959888180424775	
6.71	-0.439	0.0063772990373804446	
6.715	-0.137	-0.014102789160663706	
6.72	0.434	-0.03287644275910867	
6.725	-0.328	-0.04977498794604565	
6.73	-0.378	-0.05856005840017366	
6.735	0.312	-0.06565117369449965	
6.74	-0.154	-0.08476984987561359	
6.745	-0.492	-0.10294791100743715	
6.75	0.108	-0.10742447072245817	
6.755	0.142	-0.11445646196587954	
6.76	-0.489	-0.12217041245279657	
6.765	-0.172	-0.11933440378392306	
6.77	0.402	-0.11312598069128868	
6.775	-0.331	-0.10842076968121613	
6.78	-0.366	-0.09657549140831681	
6.785	0.410	-0.08193994927673358	
6.79	-0.095	-0.07355753565444555	
6.795	-0.444	-0.06884970372641368	
6.8	0.198	-0.05768978033181557	
6.805	0.270	-0.048354262115478254	
6.81	-0.445	-0.04300746648586855	
6.815	-0.149	-0.037565654239673826	
6.82	0.498	-0.03612048187818387	
6.825	-0.281	-0.03520426673469554	
6.83	-0.335	-0.029741220929268935	
6.835	0.494	-0.020029064691979598	
6.84	-0.008	-0.013322204000175327	
6.845	-0.392	-0.005927805719752441	
6.85	0.354	0.011137091543335104	
6.855	0.483	0.036865024443652174	
6.86	-0.317	0.06702728567820551	
6.865	0.017	0.09418509053138323	
6.87	0.782	0.11600778574843593	
6.875	-0.108	0.14096657544520755	
6.88	-0.180	0.16201298463391364	
6.885	0.733	0.17693518744026582	
6.89	0.151	0.1869372815351129	
6.895	-0.339	0.1869450026426165	
6.9	0.407	0.17892573612468426	
6.905	0.488	0.17008937770229854	
6.91	-0.364	0.15910844224451803	
6.915	-0.090	0.13891032175162077	
6.92	0.534	0.10706314137173173	
6.925	-0.268	0.0712023053712067	
6.93	-0.328	0.04183814957202615	
6.935	0.500	0.02282591126732782	
6.94	0.000	0.0091950695941519	
6.945	-0.410	0.0019197964033073785	
6.95	0.258	0.00471309816685349	
6.955	0.404	0.01226027772592997	
6.96	-0.381	0.02221042961363973	
6.965	-0.102	0.03268933113591169	
6.97	0.532	0.033120086913763114	
6.975	-0.249	0.02737199457749452	
6.98	-0.233	0.026659793543427148	
6.985	0.844	0.04980109012776186	
6.99	0.466	0.11044084031129077	
6.995	-0.191	0.18981489910424676	
7.0	0.335	0.2444882088427302	
7.005	0.073	0.2363860054222486	
7.01	-0.654	0.1582353120636789	
7.015	-0.470	0.04149353596158647	
7.02	-0.114	-0.09778884652178103	
7.025	-0.576	-0.23949027382058663	
7.03	-0.595	-0.33547497027478423	
7.035	0.148	-0.37215809819595025	
7.04	-0.079	-0.3694378391512093	
7.045	-0.386	-0.3223393299569334	
7.05	0.410	-0.22740164219810255	
7.055	0.642	-0.104315143552696	
7.06	-0.252	0.017992506026055913	
7.065	0.082	0.11533996781319499	
7.07	0.866	0.18258765064596133	
7.075	-0.056	0.23039313667994965	
7.08	-0.162	0.2540949201584207	
7.085	0.858	0.2641126464163179	
7.09	0.439	0.28277612923378964	
7.095	-0.171	0.3062275860642481	
7.1	0.747	0.33356748217201776	
7.105	0.921	0.37407868396717575	
7.11	-0.104	0.41482862089831757	
7.115	0.314	0.43706929457621	
7.12	1.075	0.44588688506353974	
7.125	0.151	0.454535087859038	
7.13	-0.002	0.4537741989557942	
7.135	1.139	0.453133448178352	
7.14	0.698	0.47609621943861835	
7.145	-0.046	0.509085217150242	
7.15	0.939	0.5362915925556033	
7.155	1.098	0.5703221675942192	
7.16	-0.015	0.6020160740564703	
7.165	0.410	0.603718311642919	
7.17	1.148	0.5898217715638026	
7.175	0.171	0.5729580127320066	
7.18	-0.066	0.5396382841733909	
7.185	0.887	0.4906932904364918	
7.19	0.354	0.4414447072103971	
7.195	-0.297	0.3893725156298997	
7.2	0.323	0.3287346249914722	
7.205	0.453	0.26130404932573575	
7.21	-0.340	0.1966369310457436	
7.215	-0.122	0.1414307881228809	
7.22	0.518	0.09138113562736179	
7.225	-0.247	0.04852823488389286	
7.23	-0.354	0.016785370947352236	
7.235	0.441	-0.0019217962710980719	
7.24	0.006	-0.01431918929777274	
7.245	-0.439	-0.02315856884351137	
7.25	0.090	-0.027762395577198732	
7.255	0.300	-0.03684141694397117	
7.26	-0.401	-0.043798504987926354	
7.265	-0.171	-0.04277556089331236	
7.27	0.466	-0.041039695653337094	
7.275	-0.252	-0.04003051075903628	
7.28	-0.377	-0.038097244974431066	
7.285	0.317	-0.03943546867950963	
7.29	-0.061	-0.050146207296744925	
7.295	-0.453	-0.03943546867950963	
7.3	0.126	-0.03943546867950963	
7.305	0.341	-0.03943546867950963	
7.31	-0.407	-0.0533817999970263	
7.315	-0.195	-0.042955188063801844	
7.32	0.459	-0.039335286710121924	
7.325	-0.255	-0.03867900670173263	
7.33	-0.358	-0.038035083382463156	
7.335	0.416	-0.03380186065113473	
7.34	0.015	-0.0289577941634019	
7.345	-0.435	-0.027551178216697655	
7.35	0.148	-0.023486732960261963	
7.355	0.384	-0.017963679960773103	
7.36	-0.364	-0.01002375011801804	
7.365	-0.119	0.0008474120053024213	
7.37	0.608	0.013447680881174803	
7.375	-0.175	0.02866613012654757	
7.38	-0.306	0.04095779474152059	
7.385	0.526	0.049843352290940245	
7.39	0.134	0.060272355911004286	
7.395	-0.363	0.06666744193751716	
7.4	0.302	0.07413867161508664	
7.405	0.549	0.08905110080629976	
7.41	-0.299	0.10836208594722985	
7.415	-0.104	0.11557466967253682	
7.42	0.591	0.10917920910398651	
7.425	-0.177	0.09810359650723097	
7.43	-0.296	0.08297716615541034	
7.435	0.549	0.07238037886320561	
7.44	0.181	0.07455186458525132	
7.445	-0.342	0.08100154448095045	
7.45	0.274	0.08763944029236259	
7.455	0.498	0.09699163239656625	
7.46	-0.335	0.10391530676754804	
7.465	-0.139	0.09829689266787547	
7.47	0.573	0.0827735838943082	
7.475	-0.151	0.0706571452652022	
7.48	-0.297	0.06107539299496127	
7.485	0.538	0.05774227916743035	
7.49	0.180	0.0658366025910988	
7.495	-0.372	0.07448993307230213	
7.5	0.189	0.07603215097425325	
7.505	0.524	0.07684360915356131	
7.51	-0.235	0.08765465705819196	
7.515	0.078	0.10603886597539257	
7.52	0.875	0.13919805154149548	
7.525	-0.085	0.18329333936971437	
7.53	-0.416	0.19424350882537972	
7.535	-0.037	0.1398547675180673	
7.54	-0.355	0.027076743688672952	
7.545	-0.794	-0.11177177533450107	
7.55	-0.407	-0.2416291747671217	
7.555	-0.291	-0.35748679791065785	
7.56	-0.764	-0.45045667434673775	
7.565	-0.526	-0.49911713236178956	
7.57	-0.031	-0.5095477159887849	
7.575	-0.447	-0.4940839236207444	
7.58	-0.563	-0.454336259947663	
7.585	-0.003	-0.40386686141078837	
7.59	-0.188	-0.36079891805327685	
7.595	-0.572	-0.32315251808364426	
7.6	-0.146	-0.28813937516962196	
7.605	0.037	-0.2647911811998932	
7.61	-0.512	-0.25084900570144264	
7.615	-0.337	-0.23826607322073942	
7.62	0.099	-0.23108981740856854	
7.625	-0.415	-0.2356742970290115	
7.63	-0.541	-0.24412015630659328	
7.635	-0.006	-0.2533948708820261	
7.64	-0.200	-0.2666724939337276	
7.645	-0.581	-0.27572299714124615	
7.65	-0.142	-0.27449971644876475	
7.655	0.070	-0.2679453296581983	
7.66	-0.485	-0.25739793715836096	
7.665	-0.299	-0.239388599441847	
7.67	0.293	-0.21642102405746566	
7.675	-0.285	-0.18933158202024206	
7.68	-0.433	-0.16601277242119994	
7.685	0.245	-0.1457984023373894	
7.69	-0.046	-0.12852525541408671	
7.695	-0.491	-0.11843065922434742	
7.7	-0.072	-0.11886239730199616	
7.705	0.136	-0.12803808565853636	
7.71	-0.503	-0.14098398981257135	
7.715	-0.395	-0.16156751181348633	
7.72	-0.034	-0.1957643846290607	
7.725	-0.524	-0.24497040232775769	
7.73	-0.675	-0.2978902146752353	
7.735	-0.204	-0.3462180610815052	
7.74	-0.380	-0.3923812382827464	
7.745	-0.776	-0.4300886037544211	
7.75	-0.401	-0.4541723013062835	
7.755	-0.259	-0.47315132469083165	
7.76	-0.735	-0.49061623507935226	
7.765	-0.584	-0.49666841411498214	
7.77	-0.188	-0.49800481712657185	
7.775	-0.593	-0.5007057023889826	
7.78	-0.730	-0.499835484497769	
7.785	-0.213	-0.49348938649688057	
7.79	-0.352	-0.4872562905550055	
7.795	-0.747	-0.47793803993643413	
7.8	-0.357	-0.4643975257865237	
7.805	-0.194	-0.45514784134657316	
7.81	-0.665	-0.44942794303446804	
7.815	-0.566	-0.4428112516957085	
7.82	-0.166	-0.4410910925038408	
7.825	-0.552	-0.4475311346033229	
7.83	-0.703	-0.4528828604987548	
7.835	-0.197	-0.4526086286140498	
7.84	-0.325	-0.45312838157557306	
7.845	-0.710	-0.4489277031445696	
7.85	-0.308	-0.43551272256727375	
7.855	-0.128	-0.42305416577226457	
7.86	-0.651	-0.4123967999996505	
7.865	-0.521	-0.40393717311960076	
7.87	-0.102	-0.400014269164585	
7.875	-0.502	-0.40345988702151026	
7.88	-0.646	-0.4060277023438851	
7.885	-0.117	-0.4015665893636021	
7.89	-0.238	-0.39399380625312624	
7.895	-0.656	-0.3840796461331675	
7.9	-0.282	-0.36955797768343623	
7.905	-0.098	-0.36086094474197017	
7.91	-0.607	-0.359494227766894	
7.915	-0.462	-0.35608064743814394	
7.92	0.038	-0.349788187606353	
7.925	-0.409	-0.3414422371956364	
7.93	-0.567	-0.33028542215049184	
7.935	-0.046	-0.31841916699649553	
7.94	-0.220	-0.31182890545568254	
7.945	-0.639	-0.31136489181003485	
7.95	-0.267	-0.3115528905157312	
7.955	-0.108	-0.3195597592337557	
7.96	-0.625	-0.3357008761205632	
7.965	-0.517	-0.3492667076721242	
7.97	-0.096	-0.36444753650452255	
7.975	-0.505	-0.3844810451828383	
7.98	-0.683	-0.3996282704381686	
7.985	-0.183	-0.40813481502612875	
7.99	-0.300	-0.41763842151523906	
7.995	-0.694	-0.4217894216405853	
8.0	-0.299	-0.41445160954996985	
8.005	-0.137	-0.40614954509546697	
8.01	-0.659	-0.4040836991922553	
8.015	-0.552	-0.402461847337927	
8.02	-0.111	-0.4049093057267298	
8.025	-0.454	-0.41262677960376914	
8.03	-0.558	-0.4071011461923306	
8.035	0.154	-0.373636195019694	
8.04	0.085	-0.3144097190511077	
8.045	-0.425	-0.24144740011542015	
8.05	-0.119	-0.17730358731400572	
8.055	-0.131	-0.155621259837618	
8.06	-0.762	-0.19066036679039744	
8.065	-0.726	-0.26271111329464825	
8.07	-0.363	-0.3591707886553216	
8.075	-0.707	-0.4658425494237775	
8.08	-0.820	-0.5457252565022557	
8.085	-0.209	-0.5799750374407229	
8.09	-0.209	-0.5761516701476475	
8.095	-0.582	-0.5342882127141546	
8.1	-0.156	-0.4589701602290784	
8.105	0.245	-0.37385161864043026	
8.11	-0.424	-0.28942434075547246	
8.115	-0.282	-0.21498239680725864	
8.12	0.433	-0.15418110596024304	
8.125	-0.210	-0.10519861948703647	
8.13	-0.413	-0.07458035401273402	
8.135	0.360	-0.05316689636309855	
8.14	0.165	-0.03185394127273359	
8.145	-0.410	-0.014339041165628697	
8.15	0.079	-0.0006814545535447833	
8.155	0.503	0.010991747084992072	
8.16	-0.303	0.02579032330132783	
8.165	-0.175	0.03767631688299485	
8.17	0.611	0.04580773078088546	
8.175	-0.082	0.056560179585418494	
8.18	-0.294	0.06462336644511149	
8.185	0.617	0.08057301050941791	
8.19	0.471	0.11550558510001872	
8.195	-0.241	0.16074809003089635	
8.2	0.434	0.2025193327343772	
8.205	0.864	0.24875474128282324	
8.21	-0.114	0.2931459942525345	
8.215	0.049	0.3152974722127037	
8.22	0.898	0.3216118622261021	
8.225	0.125	0.32545407042903085	
8.23	-0.233	0.3149181805708945	
8.235	0.625	0.29203419814392595	
8.24	0.361	0.2678707582523553	
8.245	-0.367	0.23810021840339674	
8.25	0.079	0.19752675086570912	
8.255	0.434	0.14533012420746702	
8.26	-0.396	0.09081326530971978	
8.265	-0.328	0.03798370981117255	
8.27	0.329	-0.01386298499546906	
8.275	-0.255	-0.06555233938567953	
8.28	-0.468	-0.10255372054430574	
8.285	0.268	-0.11660772716641267	
8.29	0.120	-0.1158507104018839	
8.295	-0.441	-0.10542554894577476	
8.3	0.018	-0.08338932130462659	
8.305	0.454	-0.06015159037394888	
8.31	-0.334	-0.038607844787406115	
8.315	-0.235	-0.018297262427065544	
8.32	0.556	-0.0022475069063488274	
8.325	-0.107	0.009340585970868297	
8.33	-0.335	0.0188501329344833	
8.335	0.527	0.0378534318211721	
8.34	0.401	0.06846984900239578	
8.345	-0.303	0.10289831803446753	
8.35	0.255	0.1366821569198002	
8.355	0.698	0.16347510922566383	
8.36	-0.230	0.18292857899802514	
8.365	-0.154	0.1863368827428327	
8.37	0.706	0.176419030256895	
8.375	0.046	0.16530515728525527	
8.38	-0.274	0.15922657703546567	
8.385	0.555	0.15926448997737708	
8.39	0.418	0.1638176421682513	
8.395	-0.299	0.17027624337618813	
8.4	0.299	0.18173290894385094	
8.405	0.799	0.19907516233741043	
8.41	-0.140	0.2205294326394824	
8.415	0.001	0.2390085346000691	
8.42	0.947	0.25803401187815594	
8.425	0.288	0.28527003061950834	
8.43	-0.137	0.3156405410822259	
8.435	0.887	0.3446388694542367	
8.44	0.857	0.38617048840754464	
8.445	0.018	0.4397262840759414	
8.45	0.745	0.4957208836199069	
8.455	1.165	0.5495865123971455	
8.46	0.174	0.5922194412888078	
8.465	0.335	0.6146833046122996	
8.47	1.273	0.6264941920735807	
8.475	0.547	0.6393014969173045	
8.48	0.020	0.6431802871119288	
8.485	1.044	0.6338465935395234	
8.49	0.910	0.6264652113164124	
8.495	-0.032	0.621362415498566	
8.5	0.657	0.6086324820468683	
8.505	1.116	0.5959631388348807	
8.51	0.064	0.5831248286341116	
8.515	0.169	0.5594094724793459	
8.52	1.122	0.5327177589747358	
8.525	0.412	0.5154503965184489	
8.53	-0.089	0.5019335465784596	
8.535	0.910	0.4888412315132368	
8.54	0.794	0.4836973296449264	
8.545	-0.041	0.48727603796602725	
8.55	0.800	0.504479359566611	
8.555	1.441	0.554156958132403	
8.56	0.610	0.6412467656976315	
8.565	0.793	0.7502113155206994	
8.57	1.494	0.8526841288866175	
8.575	0.288	0.897578656801284	
8.58	-0.375	0.8367341625051119	
8.585	0.130	0.6696341013754814	
8.59	-0.053	0.43190692263187586	
8.595	-0.502	0.19536052498542011	
8.6	-0.011	0.029294748302956933	
8.605	0.677	-0.05471421306749999	
8.61	-0.107	-0.06159344894931876	
8.615	0.102	-0.003979841668547945	
8.62	1.165	0.10174250855276515	
8.625	0.474	0.23386837046551975	
8.63	-0.027	0.3556274934571213	
8.635	0.995	0.44754164586443507	
8.64	0.927	0.5201546089438274	
8.645	-0.021	0.5712711779767548	
8.65	0.666	0.597948310822215	
8.655	1.178	0.6124101387894565	
8.66	0.152	0.6195774682154394	
8.665	0.258	0.6126928262692534	
8.67	1.238	0.6026435648483617	
8.675	0.565	0.6042413268563076	
8.68	0.027	0.6065670338725508	
8.685	1.046	0.6062118100514505	
8.69	1.018	0.6154374017091078	
8.695	0.058	0.6325219277861156	
8.7	0.729	0.6445385622691409	
8.705	1.265	0.6573797560576098	
8.71	0.273	0.6720521947068351	
8.715	0.390	0.6804727370366663	
8.72	1.384	0.68926003857896	
8.725	0.716	0.7116998843433251	
8.73	0.097	0.7277114723787173	
8.735	1.108	0.727609739293275	
8.74	1.014	0.7236073586244958	
8.745	-0.009	0.7140557313858971	
8.75	0.596	0.6850196385170748	
8.755	1.073	0.6460893676148165	
8.76	-0.034	0.6007738943793433	
8.765	-0.067	0.5323365077865843	
8.77	0.793	0.4475292608046398	
8.775	0.072	0.36426430766048973	
8.78	-0.317	0.2861721912413897	
8.785	0.421	0.21977375955277423	
8.79	0.320	0.16465775921400305	
8.795	-0.406	0.11892300292367392	
8.8	-0.070	0.0804711100349444	
8.805	0.428	0.0395502060161369	
8.81	-0.337	0.0026759083905439447	
8.815	-0.317	-0.02162023524909973	
8.82	0.380	-0.03935433975154174	
8.825	-0.169	-0.059245427779538305	
8.83	-0.460	-0.07627152350991029	
8.835	0.195	-0.08204135090211005	
8.84	0.160	-0.08439307130786222	
8.845	-0.464	-0.08627523968794731	
8.85	-0.156	-0.08297503725109892	
8.855	0.332	-0.08794882729597103	
8.86	-0.374	-0.09660591567110444	
8.865	-0.358	-0.10059837495776172	
8.87	0.351	-0.1000543103580686	
8.875	-0.180	-0.10383492512151593	
8.88	-0.476	-0.10786618238024055	
8.885	0.136	-0.10669110238835036	
8.89	0.090	-0.1103860941497619	
8.895	-0.500	-0.11767406797544955	
8.9	-0.209	-0.12235570383788741	
8.905	0.192	-0.13627919716554637	
8.91	-0.439	-0.1580494551889497	
8.915	-0.448	-0.17463857960636944	
8.92	0.171	-0.18654400475084265	
8.925	-0.296	-0.2054932011644695	
8.93	-0.595	-0.2236330844555654	
8.935	-0.087	-0.23514689152155188	
8.94	-0.072	-0.25430953199225226	
8.945	-0.582	-0.2713112825557752	
8.95	-0.294	-0.27163369183390546	
8.955	0.122	-0.2703944249968203	
8.96	-0.460	-0.27172941220928354	
8.965	-0.457	-0.26275272804506755	
8.97	0.218	-0.2457261579840602	
8.975	-0.213	-0.2312603733575719	
8.98	-0.508	-0.21465244470881473	
8.985	0.050	-0.19233208888952352	
8.99	0.020	-0.18214505502161343	
8.995	-0.540	-0.1813034746185666	
9.0	-0.271	-0.18083083829062624	
9.005	0.064	-0.19324675325924776	
9.01	-0.528	-0.22367710479399228	
9.015	-0.570	-0.25198611194680764	
9.02	-0.026	-0.2795863366825708	
9.025	-0.348	-0.31511750950316675	
9.03	-0.672	-0.33893431655971323	
9.035	-0.180	-0.3452381597473101	
9.04	-0.139	-0.35686667281637463	
9.045	-0.631	-0.36462760881543355	
9.05	-0.314	-0.3518740666720831	
9.055	0.099	-0.3327859882703349	
9.06	-0.464	-0.3189502048741918	
9.065	-0.457	-0.2943157380227368	
9.07	0.215	-0.2630190664645324	
9.075	-0.195	-0.23913589047905512	
9.08	-0.450	-0.2125843066223223	
9.085	0.445	-0.15977122003353322	
9.09	0.768	-0.06638646378447655	
9.095	-0.003	0.06362004241543537	
9.1	0.742	0.21509583417284783	
9.105	1.107	0.3700141529398593	
9.11	-0.311	0.4695279062804849	
9.115	-0.564	0.44597887535498737	
9.12	-0.198	0.2966923349672301	
9.125	-0.502	0.07004712469669833	
9.13	-0.736	-0.14437074112983805	
9.135	-0.095	-0.28741466741556776	
9.14	0.277	-0.35275632935834117	
9.145	-0.288	-0.3320523653175794	
9.15	0.285	-0.23103586391455758	
9.155	1.102	-0.07213804428912148	
9.16	0.201	0.1102382205042801	
9.165	0.184	0.276467871940565	
9.17	1.248	0.4124811741668874	
9.175	0.729	0.528150101871905	
9.18	0.052	0.6137094457415504	
9.185	1.005	0.6598762295578178	
9.19	1.021	0.6848006204451516	
9.195	-0.006	0.689190182967123	
9.2	0.546	0.6677209125207513	
9.205	1.198	0.6416107766753125	
9.21	0.244	0.6240281724648815	
9.215	0.197	0.6049250981177456	
9.22	1.255	0.5940221013851519	
9.225	0.780	0.6074195780928695	
9.23	0.148	0.6361398312779007	
9.235	1.154	0.6699903814262367	
9.24	1.271	0.71630840925178	
9.245	0.280	0.7678612275802116	
9.25	0.869	0.8084454016477114	
9.255	1.598	0.8490525418325068	
9.26	0.608	0.893056050857606	
9.265	0.466	0.9194864916549662	
9.27	1.492	0.9261629197607707	
9.275	0.947	0.9287148960041219	
9.28	0.229	0.9218454518327741	
9.285	1.133	0.9008193666174105	
9.29	1.149	0.8736342162863615	
9.295	0.040	0.8358629501017547	
9.3	0.448	0.7731094911214463	
9.305	1.021	0.6931716433616071	
9.31	0.011	0.6063230168536633	
9.315	-0.108	0.5132601585205975	
9.32	0.814	0.424031024162241	
9.325	0.287	0.3530478584518256	
9.33	-0.262	0.30085620096589427	
9.335	0.532	0.26851374430847474	
9.34	0.613	0.24982130960994786	
9.345	-0.253	0.2411064436144542	
9.35	0.072	0.23181417134768365	
9.355	0.770	0.2191131663637576	
9.36	-0.108	0.20767005203836492	
9.365	-0.188	0.19712879929303784	
9.37	0.719	0.19075682310972236	
9.375	0.227	0.18832276066231643	
9.38	-0.282	0.1899423890985355	
9.385	0.457	0.19516340483919856	
9.39	0.593	0.20092386266612233	
9.395	-0.258	0.20738163310602406	
9.4	0.061	0.20954164284839322	
9.405	0.741	0.20499834747086892	
9.41	-0.143	0.19500161369945276	
9.415	-0.223	0.18103281185091677	
9.42	0.652	0.16748019210519527	
9.425	0.155	0.15658482883276403	
9.43	-0.322	0.1470555755609347	
9.435	0.412	0.14483427065406027	
9.44	0.546	0.15002524018945365	
9.445	-0.291	0.15665630528198105	
9.45	-0.014	0.15926282198325337	
9.455	0.700	0.15389256944965515	
9.46	-0.134	0.1463566148006898	
9.465	-0.213	0.14192816355045731	
9.47	0.692	0.14319595901256804	
9.475	0.270	0.1538764944121769	
9.48	-0.255	0.17016919361625732	
9.485	0.530	0.19346983562968162	
9.49	0.706	0.2241323379961756	
9.495	-0.191	0.2549582349844016	
9.5	0.189	0.27596306516344193	
9.505	0.941	0.2937679651924685	
9.51	-0.002	0.3097483888532614	
9.515	-0.130	0.3127988502851715	
9.52	0.811	0.3058295208233536	
9.525	0.331	0.3002229699962279	
9.53	-0.271	0.29234262546867895	
9.535	0.376	0.27497260483775443	
9.54	0.477	0.24521212881871057	
9.545	-0.313	0.20842073223416596	
9.55	-0.075	0.17061748943249938	
9.555	0.643	0.1345071987028567	
9.56	-0.149	0.10927330285024389	
9.565	-0.252	0.09478912123298426	
9.57	0.645	0.09334120661967461	
9.575	0.216	0.10454174385667073	
9.58	-0.290	0.12165200312996295	
9.585	0.384	0.14048258432064667	
9.59	0.524	0.15621458955231518	
9.595	-0.308	0.1639121506642301	
9.6	-0.064	0.1582955671713126	
9.605	0.674	0.14318521442570672	
9.61	-0.082	0.1327878847460362	
9.615	-0.133	0.1348049399102656	
9.62	0.977	0.1628258618051009	
9.625	0.605	0.2308812962676214	
9.63	-0.192	0.30699471432868186	
9.635	0.160	0.3368552614542594	
9.64	-0.061	0.2800941875898049	
9.645	-0.730	0.14450980362876067	
9.65	-0.593	-0.01896037956694307	
9.655	-0.253	-0.18924190402062352	
9.66	-0.660	-0.3506978802737068	
9.665	-0.685	-0.456040663531924	
9.67	-0.014	-0.4956763912852944	
9.675	-0.124	-0.4889463302997125	
9.68	-0.441	-0.4336353429710371	
9.685	0.180	-0.3343707947572758	
9.69	0.456	-0.2188986410460399	
9.695	-0.296	-0.10822494333225463	
9.7	-0.064	-0.016138900619848556	
9.705	0.675	0.05063733263995772	
9.71	-0.137	0.09548385053022336	
9.715	-0.250	0.11982308126132404	
9.72	0.616	0.1311274627088735	
9.725	0.207	0.14123863294337397	
9.73	-0.308	0.1473663139325525	
9.735	0.376	0.1513689823142581	
9.74	0.631	0.16323541540561914	
9.745	-0.232	0.18099075101376344	
9.75	0.030	0.19161935326931742	
9.755	0.849	0.19957243735392194	
9.76	0.015	0.21682609719968585	
9.765	-0.130	0.2317397224874802	
9.77	0.921	0.2498199694012651	
9.775	0.562	0.2925345796934836	
9.78	-0.145	0.33956894894319956	
9.785	0.640	0.37290749884575636	
9.79	0.852	0.40023649769289976	
9.795	-0.146	0.41848862311604396	
9.8	0.128	0.40730386559696896	
9.805	0.873	0.37916368202722406	
9.81	-0.038	0.350406306847639	
9.815	-0.244	0.30884424957168155	
9.82	0.538	0.2530818475346543	
9.825	0.105	0.19882206156674462	
9.83	-0.406	0.14319391103350992	
9.835	0.084	0.09024015983420873	
9.84	0.251	0.03698786773961588	
9.845	-0.451	-0.011633466124237801	
9.85	-0.285	-0.052920117176280736	
9.855	0.241	-0.09157043212972167	
9.86	-0.380	-0.13091434766284638	
9.865	-0.540	-0.16481066124815974	
9.87	0.018	-0.1957785929152053	
9.875	-0.210	-0.23099579075836532	
9.88	-0.611	-0.2590736375661158	
9.885	-0.209	-0.27435947950481854	
9.89	-0.087	-0.2923543118512302	
9.895	-0.602	-0.3128715293943875	
9.9	-0.425	-0.32305166384235595	
9.905	0.001	-0.3281989097806813	
9.91	-0.465	-0.3374194317598527	
9.915	-0.593	-0.3405283876589089	
9.92	-0.052	-0.3373967424991844	
9.925	-0.239	-0.3388805175129347	
9.93	-0.616	-0.33658831083341306	
9.935	-0.169	-0.3227603977198358	
9.94	-0.020	-0.31054383657429485	
9.945	-0.549	-0.30239806234278865	
9.95	-0.364	-0.290183389338622	
9.955	0.146	-0.2755451741610282	
9.96	-0.387	-0.26408383179033595	
9.965	-0.535	-0.2544377024243868	
9.97	0.029	-0.24877335909829257	
9.975	-0.177	-0.2517315404291469	
9.98	-0.610	-0.2563464378175968	
9.985	-0.198	-0.2600645844496787	
9.99	-0.009	-0.2685810307365788	
9.995	-0.531	-0.2780892351364834	
10.0	-0.383	-0.2773333503367259	
10.005	0.094	-0.2747305585834746	
10.01	-0.399	-0.2748365775852875	
10.015	-0.520	-0.2724205727206921	
10.02	0.102	-0.26298448011852654	
10.025	-0.125	-0.25059417352138347	
10.03	-0.540	-0.23724546234941452	
10.035	-0.125	-0.22325642457133324	
10.04	0.123	-0.21354050235144068	
10.045	-0.464	-0.2059448842329472	
10.05	-0.290	-0.19347920078186504	
10.055	0.308	-0.17876374325584649	
10.06	-0.302	-0.16166660820939066	
10.065	-0.468	-0.15151458863191417	
10.07	0.139	-0.14911452366985722	
10.075	-0.139	-0.15543645660579541	
10.08	-0.564	-0.1702313778289875	
10.085	-0.162	-0.18642692804166366	
10.09	-0.032	-0.21044505395811133	
10.095	-0.595	-0.24184608183452352	
10.1	-0.456	-0.2696471673921904	
10.105	0.001	-0.29474620579326066	
10.11	-0.444	-0.3195081501214887	
10.115	-0.578	-0.33262864704444745	
10.12	-0.050	-0.3331499000259124	
10.125	-0.210	-0.3332668806146983	
10.13	-0.611	-0.3303246794050084	
10.135	-0.203	-0.31751481875328147	
10.14	0.008	-0.3072495457406411	
10.145	-0.534	-0.29890569181201276	
10.15	-0.366	-0.28582011100136406	
10.155	0.300	-0.2625291580784942	
10.16	-0.207	-0.2264580790616722	
10.165	-0.296	-0.17890232526215533	
10.17	0.610	-0.11000561221612558	
10.175	0.253	-0.022036728300708998	
10.18	-0.494	0.04535752748148938	
10.185	-0.281	0.04932447659250381	
10.19	-0.236	-0.024965592255671736	
10.195	-0.796	-0.14998135821573713	
10.2	-0.714	-0.28006737872880383	
10.205	-0.296	-0.40030149422874156	
10.21	-0.605	-0.4993430087422543	
10.215	-0.694	-0.5501529824438867	
10.22	-0.082	-0.5478917882742667	
10.225	-0.137	-0.5118367591292828	
10.23	-0.514	-0.4488586889811358	
10.235	-0.041	-0.3645825886422994	
10.24	0.338	-0.2746292904258308	
10.245	-0.370	-0.19025707905703904	
10.25	-0.241	-0.12226539107342366	
10.255	0.430	-0.07591746696565285	
10.26	-0.220	-0.04745349942822774	
10.265	-0.399	-0.03658397144025427	
10.27	0.361	-0.03260037044035989	
10.275	0.119	-0.02463070084570476	
10.28	-0.393	-0.016308648618895857	
10.285	0.050	-0.011552932689168285	
10.29	0.369	-0.01022462437417491	
10.295	-0.340	-0.009515430271214438	
10.3	-0.183	-0.009480328307847797	
10.305	0.572	-0.003503088547143523	
10.31	-0.146	0.009555603635933574	
10.315	-0.320	0.020033153079606	
10.32	0.503	0.03061515826714532	
10.325	0.293	0.054627218785505256	
10.33	-0.308	0.08235219681167187	
10.335	0.264	0.10538324811974446	
10.34	0.698	0.13313692094761131	
10.345	-0.153	0.16837397534105542	
10.35	0.056	0.19623065470660495	
10.355	0.916	0.2247240287736822	
10.36	0.110	0.2617227603345459	
10.365	-0.203	0.28173673698935076	
10.37	0.669	0.2795425914930148	
10.375	0.341	0.2749152708388388	
10.38	-0.352	0.2572983651531062	
10.385	0.094	0.21608244239267532	
10.39	0.418	0.16128155927405213	
10.395	-0.363	0.10762910025356554	
10.4	-0.285	0.05397311914317023	
10.405	0.279	-0.001437362837427359	
10.41	-0.294	-0.05693021677764773	
10.415	-0.509	-0.10524002687003725	
10.42	0.059	-0.1437848677635557	
10.425	-0.113	-0.17991105324134588	
10.43	-0.553	-0.2084505759098035	
10.435	-0.186	-0.22217667703971108	
10.44	0.094	-0.231769688463293	
10.445	-0.489	-0.2391003084755966	
10.45	-0.377	-0.23714117240339228	
10.455	0.190	-0.23059244287694966	
10.46	-0.311	-0.22472839592240174	
10.465	-0.514	-0.21925181585082057	
10.47	0.062	-0.2109674644569801	
10.475	-0.104	-0.2107832618121045	
10.48	-0.531	-0.21439973877096924	
10.485	-0.133	-0.2093453665901261	
10.49	0.229	-0.1996805389872775	
10.495	-0.439	-0.18700370333679872	
10.5	-0.354	-0.17232050037084246	
10.505	0.235	-0.16456741969588923	
10.51	-0.271	-0.16457767121947675	
10.515	-0.459	-0.1633964693011044	
10.52	0.072	-0.16100473614554967	
10.525	-0.114	-0.17060940455156154	
10.53	-0.555	-0.18751050732488878	
10.535	-0.168	-0.19844527128923817	
10.54	0.165	-0.20648131573604508	
10.545	-0.457	-0.20905255667033779	
10.55	-0.357	-0.20349119517338898	
10.555	0.294	-0.19235954251246126	
10.56	-0.236	-0.17752480378577434	
10.565	-0.438	-0.16166229713397778	
10.57	0.242	-0.13987267965239236	
10.575	0.120	-0.1153890043422875	
10.58	-0.436	-0.0917817617097958	
10.585	-0.024	-0.07151437273200598	
10.59	0.378	-0.05917700496104612	
10.595	-0.339	-0.047185538288088344	
10.6	-0.230	-0.03772771640302659	
10.605	0.477	-0.029090594570589653	
10.61	-0.185	-0.02146160320630927	
10.615	-0.422	-0.023982360795774364	
10.62	0.218	-0.0337632723323497	
10.625	0.018	-0.05015520319064099	
10.63	-0.506	-0.07303588672031902	
10.635	-0.148	-0.09658997651120066	
10.64	0.189	-0.12287177595687085	
10.645	-0.441	-0.14728732795446967	
10.65	-0.360	-0.16095874554160255	
10.655	0.262	-0.16682731936303402	
10.66	-0.255	-0.17138369751354532	
10.665	-0.473	-0.1702897085263247	
10.67	0.165	-0.16061418957378137	
10.675	0.072	-0.1499125219884685	
10.68	-0.416	-0.13434702783040456	
10.685	-0.052	-0.11162267039672553	
10.69	0.283	-0.09551644960811417	
10.695	-0.399	-0.08951852479381153	
10.7	-0.291	-0.08720954168349582	
10.705	0.584	-0.07541179856509589	
10.71	0.024	-0.04236070302651727	
10.715	-0.217	0.005283195074157435	
10.72	0.666	0.06563757788038806	
10.725	0.363	0.1303699594412102	
10.73	-0.468	0.16818834443562514	
10.735	-0.235	0.1462691491211682	
10.74	-0.055	0.058901441787642186	
10.745	-0.611	-0.06469362071732226	
10.75	-0.549	-0.17848653659749714	
10.755	0.012	-0.26504232227872476	
10.76	-0.302	-0.3263067003901921	
10.765	-0.433	-0.33908717963217533	
10.77	0.383	-0.29309652876954023	
10.775	0.366	-0.2043503569173467	
10.78	-0.287	-0.09922285386711302	
10.785	0.274	0.003332811015239384	
10.79	0.785	0.09740254106597684	
10.795	-0.117	0.17895632019498284	
10.8	-0.037	0.23014849259485745	
10.805	0.826	0.2564521862094714	
10.81	0.210	0.27670942382008434	
10.815	-0.191	0.28834639953069574	
10.82	0.683	0.2921093609481408	
10.825	0.637	0.3030066901555869	
10.83	-0.159	0.32038344153945086	
10.835	0.454	0.33522620893222277	
10.84	0.956	0.35582924051161546	
10.845	0.017	0.3828592968242412	
10.85	0.145	0.39784708712553873	
10.855	1.047	0.4097114111516237	
10.86	0.424	0.4328783870097695	
10.865	-0.006	0.4550529625745244	
10.87	1.024	0.47608944354406446	
10.875	0.966	0.5162949151428182	
10.88	0.091	0.5663020678694926	
10.885	0.703	0.6019650903071959	
10.89	1.052	0.6229692692614635	
10.895	0.014	0.6200385640711057	
10.9	0.052	0.5765878284290611	
10.905	0.861	0.5095864879643992	
10.91	0.151	0.44220872330535504	
10.915	-0.281	0.3700364035230943	
10.92	0.431	0.29571669281707014	
10.925	0.261	0.2234890946196289	
10.93	-0.407	0.15660092586175187	
10.935	-0.079	0.09460377448643192	
10.94	0.370	0.03488705838648991	
10.945	-0.348	-0.013475456467955543	
10.95	-0.325	-0.04552673852610085	
10.955	0.337	-0.0677865168612207	
10.96	-0.203	-0.08845188399038878	
10.965	-0.453	-0.10379217493840685	
10.97	0.223	-0.10569066049923703	
10.975	0.081	-0.10341937863401765	
10.98	-0.460	-0.10207988068177941	
10.985	-0.099	-0.09668785228493541	
10.99	0.401	-0.09122859452379291	
10.995	-0.325	-0.08113576513825538	
11.0	-0.296	-0.06765808848216337	
11.005	0.415	-0.056042389878181144	
11.01	-0.131	-0.04916900772337638	
11.015	-0.396	-0.04674335951730453	
11.02	0.305	-0.03800978209243422	
11.025	0.265	-0.023256896683445022	
11.03	-0.392	-0.00686465102562382	
11.035	-0.049	0.004002169221383085	
11.04	0.433	0.004733717717863736	
11.045	-0.305	0.0011822396943819951	
11.05	-0.281	-0.003825938181422406	
11.055	0.453	-0.009252773625581696	
11.06	-0.120	-0.014861961882231036	
11.065	-0.416	-0.022719688989183327	
11.07	0.229	-0.028337685352052618	
11.075	0.149	-0.036091031406599056	
11.08	-0.430	-0.04364647022063281	
11.085	-0.104	-0.0502855011362453	
11.09	0.395	-0.056285577742092655	
11.095	-0.337	-0.05950962528774573	
11.1	-0.328	-0.059994725978273794	
11.105	0.372	-0.06245286291456822	
11.11	-0.145	-0.06657456092601875	
11.115	-0.435	-0.07170106455885275	
11.12	0.210	-0.07162525429548697	
11.125	0.184	-0.06792232608392629	
11.13	-0.435	-0.062464598413043436	
11.135	-0.107	-0.0575680200396553	
11.14	0.404	-0.05729712024378852	
11.145	-0.326	-0.055228743274231176	
11.15	-0.313	-0.053156914495527674	
11.155	0.442	-0.04962763371955488	
11.16	-0.104	-0.044300358520675855	
11.165	-0.401	-0.04069458773407806	
11.17	0.300	-0.03290718879842906	
11.175	0.287	-0.016751466893084047	
11.18	-0.401	-0.00027950563657107123	
11.185	-0.114	0.005129694797780458	
11.19	0.341	-0.006327872166316066	
11.195	-0.354	-0.02791667653640791	
11.2	-0.374	-0.050317304368346666	
11.205	0.203	-0.07785231810217043	
11.21	-0.294	-0.11502068912997078	
11.215	-0.593	-0.15765168587661607	
11.22	-0.114	-0.1962070502916257	
11.225	-0.134	-0.23962098161144704	
11.23	-0.604	-0.279081872396005	
11.235	-0.303	-0.29607041741024376	
11.24	0.079	-0.30231560371024035	
11.245	-0.464	-0.3037275193074842	
11.25	-0.453	-0.2924604696712318	
11.255	0.148	-0.27288627320695336	
11.26	-0.249	-0.25783886614768	
11.265	-0.520	-0.24277897785634434	
11.27	0.067	-0.22127947626184344	
11.275	0.130	-0.19740181976576776	
11.28	-0.409	-0.1691877291226462	
11.285	0.021	-0.12924750068280216	
11.29	0.761	-0.0670525213092484	
11.295	-0.178	0.012305084631611877	
11.3	-0.337	0.06819734546962614	
11.305	-0.005	0.06018038660494442	
11.31	-0.460	-0.01865338101714232	
11.315	-0.814	-0.13401501832647905	
11.32	-0.384	-0.25431862918829246	
11.325	-0.329	-0.3701436100671347	
11.33	-0.715	-0.4572904074967617	
11.335	-0.326	-0.485354268982706	
11.34	0.244	-0.4608084247127089	
11.345	-0.343	-0.39874678035741085	
11.35	-0.326	-0.3149705233707344	
11.355	0.482	-0.2215014956905974	
11.36	-0.006	-0.13257126902124153	
11.365	-0.363	-0.060391761743558946	
11.37	0.370	-0.003179262724827805	
11.375	0.454	0.04815139816987005	
11.38	-0.303	0.09132980541731958	
11.385	0.015	0.11645779305036782	
11.39	0.581	0.12356601874700422	
11.395	-0.241	0.11914835781679184	
11.4	-0.285	0.1016783138067949	
11.405	0.503	0.07877539834374561	
11.41	-0.002	0.05862108632110097	
11.415	-0.366	0.04327058821285431	
11.42	0.319	0.03586121113839763	
11.425	0.408	0.04147619036931242	
11.43	-0.310	0.056133886008527534	
11.435	0.067	0.0732868673293029	
11.44	0.730	0.09588276503399935	
11.445	-0.117	0.12616696587895568	
11.45	-0.134	0.14937505577351456	
11.455	0.790	0.1709198313321049	
11.46	0.265	0.20184505815438147	
11.465	-0.236	0.2280133287143958	
11.47	0.520	0.2407369813919345	
11.475	0.520	0.24875205567389938	
11.48	-0.305	0.24610722142633762	
11.485	-0.003	0.22199344312477576	
11.49	0.579	0.18300535425373124	
11.495	-0.247	0.14440044475027455	
11.5	-0.328	0.10215270952525399	
11.505	0.361	0.05677854516247599	
11.51	-0.143	0.009127121193589554	
11.515	-0.491	-0.03797665797327776	
11.52	0.052	-0.0755285987401977	
11.525	0.133	-0.106088666086615	
11.53	-0.464	-0.12768629289310054	
11.535	-0.212	-0.13423654294069076	
11.54	0.309	-0.13702359419964116	
11.545	-0.360	-0.13935751641713962	
11.55	-0.412	-0.13797390603752152	
11.555	0.294	-0.13335481884980505	
11.56	-0.145	-0.13165746701085962	
11.565	-0.488	-0.13200834004715062	
11.57	0.093	-0.12672070732370588	
11.575	0.192	-0.11992434942030529	
11.58	-0.460	-0.11363209847698498	
11.585	-0.212	-0.10646389586983522	
11.59	0.326	-0.10593026766095585	
11.595	-0.354	-0.11020235949248443	
11.6	-0.418	-0.11518619265637031	
11.605	0.273	-0.11836535726190628	
11.61	-0.128	-0.12443105814590068	
11.615	-0.460	-0.12915384532040453	
11.62	0.116	-0.12184178822508264	
11.625	0.248	-0.10867714156969209	
11.63	-0.436	-0.0936786018380237	
11.635	-0.185	-0.08069403175980114	
11.64	0.384	-0.0747232931950876	
11.645	-0.302	-0.0741038867534321	
11.65	-0.366	-0.07246969796348009	
11.655	0.369	-0.06927255006924005	
11.66	-0.047	-0.06619520744985755	
11.665	-0.425	-0.06341086675744863	
11.67	0.163	-0.05492384384073705	
11.675	0.283	-0.04636766845314814	
11.68	-0.412	-0.03980529022454943	
11.685	-0.174	-0.03492909157561424	
11.69	0.410	-0.03843593510152378	
11.695	-0.287	-0.04505222070845921	
11.7	-0.349	-0.0507978659970887	
11.705	0.448	-0.048101389824351796	
11.71	0.012	-0.037955387828600806	
11.715	-0.412	-0.027738922054360793	
11.72	0.213	-0.01596888927920862	
11.725	0.366	-0.0030048918397457564	
11.73	-0.367	0.009018433070247992	
11.735	-0.105	0.01881106463489563	
11.74	0.573	0.02390536709197179	
11.745	-0.223	0.030010768873150757	
11.75	-0.320	0.032816424988134654	
11.755	0.483	0.03204726878336419	
11.76	0.037	0.03032429015117448	
11.765	-0.401	0.025943889581212173	
11.77	0.229	0.02394608187564501	
11.775	0.390	0.026363506671611917	
11.78	-0.366	0.02988719472983064	
11.785	-0.148	0.03052463828661363	
11.79	0.498	0.023199180629486487	
11.795	-0.261	0.01211186469304694	
11.8	-0.357	0.0004669470013224069	
11.805	0.459	-0.007830767862239837	
11.81	0.067	-0.007386838986465433	
11.815	-0.401	-0.0033406352020342433	
11.82	0.203	0.005833066781885337	
11.825	0.399	0.0137078625878504	
11.83	-0.351	0.023786074404498952	
11.835	-0.102	0.032251386260903736	
11.84	0.625	0.039475408686765086	
11.845	-0.101	0.05322663657148679	
11.85	-0.113	0.0781445342289713	
11.855	1.056	0.1312840747524736	
11.86	0.770	0.23492304202314496	
11.865	-0.075	0.35240369144354544	
11.87	0.384	0.421600145454476	
11.875	0.090	0.4019250228287269	
11.88	-0.681	0.28975936293455273	
11.885	-0.572	0.12298484665214317	
11.89	-0.197	-0.06938926383497421	
11.895	-0.560	-0.25158674030489725	
11.9	-0.547	-0.36801523983563456	
11.905	0.309	-0.3966934510327088	
11.91	0.075	-0.3579018995211478	
11.915	-0.343	-0.2737318997594954	
11.92	0.376	-0.161362655519935	
11.925	0.628	-0.04175971019019939	
11.93	-0.250	0.06561824218853868	
11.935	0.027	0.1407735024291254	
11.94	0.764	0.18389836391666803	
11.945	-0.124	0.20639930245544458	
11.95	-0.273	0.20356208195237818	
11.955	0.546	0.18140194820716463	
11.96	0.091	0.15334267863295198	
11.965	-0.403	0.11797226039793605	
11.97	0.165	0.0855237064150143	
11.975	0.427	0.05758306296995087	
11.98	-0.346	0.04057885950381557	
11.985	-0.137	0.032525732853572895	
11.99	0.582	0.028127824524335408	
11.995	-0.175	0.029549024769417342	
12.0	-0.273	0.03429186935760625	
12.005	0.663	0.05145753379145159	
12.01	0.294	0.08561669925841135	
12.015	-0.303	0.12377316688097399	
12.02	0.410	0.15435317418555397	
12.025	0.672	0.18485969989073817	
12.03	-0.233	0.21158123538825813	
12.035	-0.002	0.2212144197977804	
12.04	0.764	0.21725255034951904	
12.045	-0.134	0.20878683366284617	
12.05	-0.308	0.186028434191501	
12.055	0.479	0.1523057637564328	
12.06	0.044	0.11292715760482205	
12.065	-0.454	0.06976322404201604	
12.07	0.023	0.028048168520525107	
12.075	0.233	-0.016964629939940874	
12.08	-0.473	-0.059198532626700835	
12.085	-0.311	-0.09005139423450657	
12.09	0.248	-0.11977835069203006	
12.095	-0.360	-0.15092946710160204	
12.1	-0.492	-0.1720957014889425	
12.105	0.168	-0.18083845516663027	
12.11	-0.130	-0.19084415022912174	
12.115	-0.538	-0.19826812627029594	
12.12	-0.079	-0.19312752439141573	
12.125	0.210	-0.1877795405051238	
12.13	-0.457	-0.18118237163946113	
12.135	-0.279	-0.1632633466319247	
12.14	0.305	-0.1486139169569246	
12.145	-0.326	-0.14485100613895543	
12.15	-0.477	-0.14437467186972636	
12.155	0.241	-0.13971551677299132	
12.16	-0.049	-0.14062666743831692	
12.165	-0.479	-0.13857969427955916	
12.17	0.020	-0.1261390861588228	
12.175	0.322	-0.11341871173553822	
12.18	-0.410	-0.09943519162438333	
12.185	-0.238	-0.08149163821817706	
12.19	0.472	-0.06817984426868612	
12.195	-0.235	-0.058895279653232435	
12.2	-0.389	-0.050804619216098544	
12.205	0.412	-0.03937679376839216	
12.21	0.116	-0.027394134108192213	
12.215	-0.419	-0.016090559126789514	
12.22	0.143	-0.0020589519472008675	
12.225	0.479	0.011053031697591684	
12.23	-0.352	0.024178581019586167	
12.235	-0.221	0.0312603691642531	
12.24	0.512	0.026355172844267298	
12.245	-0.200	0.014011996113394893	
12.25	-0.352	0.0047185547316449155	
12.255	0.476	0.0060323303230391465	
12.26	0.155	0.013839956946129243	
12.265	-0.395	0.022347955594484815	
12.27	0.192	0.036059641101129324	
12.275	0.518	0.04855136063827313	
12.28	-0.310	0.061742600076676084	
12.285	-0.108	0.0740333026470872	
12.29	0.736	0.08696307886898172	
12.295	-0.040	0.10388332641449516	
12.3	-0.238	0.1231806173079831	
12.305	0.748	0.1484848125673418	
12.31	0.476	0.1861091483768484	
12.315	-0.224	0.2267402589998732	
12.32	0.520	0.26515120706174056	
12.325	0.857	0.3020878332520667	
12.33	-0.134	0.33232820089734516	
12.335	0.134	0.3477335621923464	
12.34	0.997	0.35452201152727547	
12.345	0.134	0.36184671631654053	
12.35	-0.183	0.3586507079408152	
12.355	0.761	0.3437895418310483	
12.36	0.428	0.32741972667829644	
12.365	-0.285	0.3082716410701728	
12.37	0.331	0.286118047194489	
12.375	0.665	0.26054724451078337	
12.38	-0.258	0.23511012041403972	
12.385	-0.113	0.20844343696494105	
12.39	0.719	0.18090665255262445	
12.395	-0.058	0.15590320421062792	
12.4	-0.255	0.14127360939230324	
12.405	0.678	0.14300671611167654	
12.41	0.448	0.1606882942441462	
12.415	-0.255	0.18790632750189762	
12.42	0.466	0.2210889612572853	
12.425	0.869	0.2589420867467342	
12.43	-0.047	0.29890111687398857	
12.435	0.416	0.34618287392777813	
12.44	1.534	0.42531875882370623	
12.445	0.992	0.5559994536116374	
12.45	0.678	0.7208567276849649	
12.455	1.422	0.8731107318828358	
12.46	0.576	0.9478956781969747	
12.465	-0.406	0.8964740810675944	
12.47	-0.082	0.7279356379141702	
12.475	0.155	0.4823429583741705	
12.48	-0.459	0.2308067948074849	
12.485	-0.218	0.04793032985844929	
12.49	0.762	-0.04431533600240512	
12.495	0.226	-0.04692126497169991	
12.5	0.026	0.0264682355201042	
12.505	1.206	0.157391842140493	
12.51	1.037	0.3243015665342698	
12.515	0.160	0.49212261198397844	
12.52	1.008	0.6288924207072633	
12.525	1.399	0.7367938796761007	
12.53	0.334	0.813536192460122	
12.535	0.576	0.8504862962017754	
12.54	1.456	0.8620101944545868	
12.545	0.674	0.8631824930911098	
12.55	0.223	0.8529856329817964	
12.555	1.281	0.8334455138402206	
12.56	1.075	0.8196827708772145	
12.565	0.204	0.8138976058359433	
12.57	1.006	0.8136990953908397	
12.575	1.425	0.8231613320714681	
12.58	0.421	0.8405903377710442	
12.585	0.691	0.8591638427264199	
12.59	1.555	0.8791649470221328	
12.595	0.805	0.9014308336971624	
12.6	0.425	0.9207142048201484	
12.605	1.512	0.9383572804599173	
12.61	1.312	0.9650033309696994	
12.615	0.413	0.995808911787366	
12.62	1.215	1.0184076762128453	
12.625	1.622	1.0403836394845296	
12.63	0.520	1.055750442871442	
12.635	0.657	1.0498242148560741	
12.64	1.485	1.0211374144638738	
12.645	0.662	0.9797689418785804	
12.65	0.134	0.9215544570188633	
12.655	1.096	0.8490684178968485	
12.66	0.844	0.775301708946058	
12.665	-0.107	0.7039530009160756	
12.67	0.547	0.6300276118645128	
12.675	0.951	0.5604445609772666	
12.68	-0.085	0.49913402310614285	
12.685	0.038	0.44158971391460006	
12.69	0.921	0.38991082590535303	
12.695	0.160	0.34917716687000444	
12.7	-0.183	0.3216004391672942	
12.705	0.759	0.30566196797182493	
12.71	0.585	0.3035122670195591	
12.715	-0.186	0.31125856428314563	
12.72	0.450	0.32464255621190274	
12.725	0.866	0.3373575214911135	
12.73	-0.134	0.3435541505957963	
12.735	-0.046	0.33539606357865737	
12.74	0.852	0.3135724144063745	
12.745	0.134	0.29255798350108936	
12.75	-0.185	0.27770883122124024	
12.755	0.713	0.2722067624378257	
12.76	0.492	0.2736662688643181	
12.765	-0.250	0.27561265452394423	
12.77	0.331	0.2752591554485263	
12.775	0.776	0.27322688051480254	
12.78	-0.146	0.2700326541662789	
12.785	-0.029	0.2652578007911316	
12.79	0.873	0.26019214997564427	
12.795	0.145	0.2609405081942142	
12.8	-0.200	0.2638533236472221	
12.805	0.700	0.26771403979272734	
12.81	0.527	0.2748143520534103	
12.815	-0.224	0.2830271060399191	
12.82	0.346	0.2888561593173362	
12.825	0.820	0.29204698815598873	
12.83	-0.140	0.2935520677934008	
12.835	-0.070	0.28711968656960185	
12.84	0.809	0.27072837645075987	
12.845	0.097	0.2543495045308757	
12.85	-0.223	0.24108370321909148	
12.855	0.660	0.23516889722457868	
12.86	0.494	0.2379165953680113	
12.865	-0.244	0.244525225910813	
12.87	0.299	0.2504528290671347	
12.875	0.750	0.2527829202319991	
12.88	-0.160	0.2531207233417486	
12.885	-0.101	0.24504419036059827	
12.89	0.753	0.22919783016835743	
12.895	0.035	0.21274954245300975	
12.9	-0.249	0.1963755826420185	
12.905	0.620	0.18958211809860664	
12.91	0.460	0.19498761490946234	
12.915	-0.267	0.20508431527748713	
12.92	0.216	0.2110277132906762	
12.925	0.680	0.20946575655692062	
12.93	-0.185	0.2047509842766895	
12.935	-0.105	0.19698614681254956	
12.94	0.687	0.18559901306535498	
12.945	0.014	0.173179161816715	
12.95	-0.276	0.1597145307229004	
12.955	0.469	0.14892858646771034	
12.96	0.315	0.14003091921546634	
12.965	-0.343	0.12870468238014376	
12.97	0.079	0.11760669063891785	
12.975	0.572	0.10411515182120046	
12.98	-0.241	0.09539935152238777	
12.985	-0.174	0.09094782773485485	
12.99	0.639	0.08898469598233474	
12.995	-0.038	0.0906028034427111	
13.0	-0.316	0.09006721440823072	
13.005	0.448	0.09028166393927775	
13.01	0.329	0.09507890256562095	
13.015	-0.334	0.10033300372129883	
13.02	0.052	0.10116647379080428	
13.025	0.469	0.09073516734786757	
13.03	-0.305	0.07305900291755146	
13.035	-0.253	0.05291422636370957	
13.04	0.457	0.03133582181659034	
13.045	-0.130	0.011032830270969388	
13.05	-0.399	-0.007541443221290392	
13.055	0.258	-0.019379413710377994	
13.06	0.163	-0.02790438852950374	
13.065	-0.418	-0.03502239542161414	
13.07	-0.061	-0.036233479983815264	
13.075	0.424	-0.03863416775203472	
13.08	-0.311	-0.0373043371994399	
13.085	-0.259	-0.03210532728077915	
13.09	0.457	-0.02627463603797742	
13.095	-0.125	-0.021575684620950632	
13.1	-0.396	-0.02119243027822052	
13.105	0.232	-0.02299232592771137	
13.11	0.134	-0.02888246761220316	
13.115	-0.432	-0.03844088826903003	
13.12	-0.105	-0.04661769450038193	
13.125	0.296	-0.05997646002859474	
13.13	-0.378	-0.07672614627446656	
13.135	-0.332	-0.08912881127320788	
13.14	0.326	-0.09781857463787133	
13.145	-0.174	-0.10420984673288146	
13.15	-0.448	-0.10688039527543393	
13.155	0.183	-0.10452722773247677	
13.16	0.128	-0.0998442988250916	
13.165	-0.433	-0.09293986861804629	
13.17	-0.098	-0.08496109499655483	
13.175	0.341	-0.08025058299572346	
13.18	-0.346	-0.07722164179445615	
13.185	-0.316	-0.07517601277054295	
13.19	0.361	-0.07429336366692157	
13.195	-0.140	-0.07387764811487776	
13.2	-0.406	-0.0736203531163986	
13.205	0.184	-0.07001792143135503	
13.21	0.075	-0.07080679512688984	
13.215	-0.464	-0.07849497960662019	
13.22	-0.145	-0.0882816388983596	
13.225	0.277	-0.10048417586804104	
13.23	-0.416	-0.11275665540577806	
13.235	-0.425	-0.12623923106236026	
13.24	0.134	-0.1477191287170096	
13.245	-0.268	-0.17656248604634453	
13.25	-0.564	-0.2003978707038651	
13.255	-0.067	-0.2194493226608002	
13.26	-0.085	-0.23975625482223734	
13.265	-0.563	-0.2571026806758844	
13.27	-0.268	-0.2615387783678935	
13.275	0.072	-0.2636878187297578	
13.28	-0.451	-0.26740525766994994	
13.285	-0.416	-0.26125033921282953	
13.29	0.352	-0.2389893447018671	
13.295	-0.060	-0.19734776274931937	
13.3	-0.310	-0.14327334228822927	
13.305	0.376	-0.08072487553273659	
13.31	0.099	-0.025699039642283008	
13.315	-0.617	-0.009936128737582671	
13.32	-0.439	-0.04882117016519411	
13.325	-0.256	-0.14076045172247936	
13.33	-0.782	-0.263110432844719	
13.335	-0.787	-0.3803756036600416	
13.34	-0.273	-0.47419529386965564	
13.345	-0.486	-0.5410693704468248	
13.35	-0.671	-0.5622118023287705	
13.355	-0.095	-0.532969597385085	
13.36	-0.032	-0.4775323266967375	
13.365	-0.528	-0.40775280578594997	
13.37	-0.210	-0.3340068513380021	
13.375	0.247	-0.26871618916792833	
13.38	-0.386	-0.21595252766405687	
13.385	-0.375	-0.17656889093467829	
13.39	0.314	-0.14725344122116787	
13.395	-0.153	-0.12589544030048638	
13.4	-0.445	-0.11136121972239911	
13.405	0.140	-0.10212731586836793	
13.41	0.140	-0.09432749206544652	
13.415	-0.451	-0.0897464674903902	
13.42	-0.113	-0.08622516452280118	
13.425	0.381	-0.08357669059851551	
13.43	-0.325	-0.07478916404955499	
13.435	-0.311	-0.0687847649859881	
13.44	0.434	-0.062280045768472354	
13.445	-0.095	-0.04964452328443729	
13.45	-0.389	-0.04146392321953847	
13.455	0.306	-0.03132352120284173	
13.46	0.338	-0.01009483157559225	
13.465	-0.337	0.017350557452255454	
13.47	0.011	0.03646977128534237	
13.475	0.587	0.05247064857906803	
13.48	-0.230	0.07051072327603738	
13.485	-0.279	0.0729889124825074	
13.49	0.418	0.059486365817653375	
13.495	-0.140	0.036704887192529345	
13.5	-0.476	0.0035879218619875274	
13.505	0.064	-0.03774171609999931	
13.51	0.020	-0.07993742099158077	
13.515	-0.566	-0.12230134595699413	
13.52	-0.325	-0.16388579922116742	
13.525	-0.027	-0.21068576297945876	
13.53	-0.544	-0.2610373372669267	
13.535	-0.564	-0.3010933128189701	
13.54	-0.084	-0.33186909607920967	
13.545	-0.386	-0.35997486227873277	
13.55	-0.691	-0.3792440505150535	
13.555	-0.233	-0.3881225923846062	
13.56	-0.213	-0.3978515619990276	
13.565	-0.698	-0.4060080603938003	
13.57	-0.432	-0.4071404509996418	
13.575	-0.107	-0.4087761360908463	
13.58	-0.599	-0.4137517539758284	
13.585	-0.634	-0.41721316680594167	
13.59	-0.140	-0.41905954533022294	
13.595	-0.393	-0.4257478250019404	
13.6	-0.683	-0.42523249661561235	
13.605	-0.215	-0.41533404602245905	
13.61	-0.171	-0.40571093103398387	
13.615	-0.662	-0.39692176884623376	
13.62	-0.413	-0.38534063918201733	
13.625	-0.063	-0.37871173904956246	
13.63	-0.549	-0.37861792773469216	
13.635	-0.576	-0.37638090578521854	
13.64	-0.067	-0.3720518310810988	
13.645	-0.349	-0.3725860848963528	
13.65	-0.653	-0.3703812633538155	
13.655	-0.185	-0.36339059592736167	
13.66	-0.163	-0.3595106002665984	
13.665	-0.651	-0.3610271924813826	
13.67	-0.403	-0.35847939898020537	
13.675	-0.035	-0.35847979807940267	
13.68	-0.540	-0.3626357662114615	
13.685	-0.595	-0.3636263076662153	
13.69	-0.067	-0.36385088255298087	
13.695	-0.355	-0.36946194984119013	
13.7	-0.662	-0.37269488289022684	
13.705	-0.198	-0.3683000333978432	
13.71	-0.149	-0.36622385936204277	
13.715	-0.628	-0.36632627136331863	
13.72	-0.375	-0.35757918187084115	
13.725	0.009	-0.3480731617532816	
13.73	-0.494	-0.3428066006987853	
13.735	-0.535	-0.3339578091299455	
13.74	0.038	-0.32243442410922174	
13.745	-0.230	-0.3113735242568601	
13.75	-0.494	-0.2931992924419631	
13.755	0.084	-0.25804699462819214	
13.76	0.255	-0.20882157044044664	
13.765	-0.416	-0.15584372928009876	
13.77	-0.166	-0.11169572736509427	
13.775	0.398	-0.08249140278431867	
13.78	-0.297	-0.0630647086490527	
13.785	-0.348	-0.05440360139412467	
13.79	0.413	-0.048910718422436605	
13.795	-0.041	-0.041244826123760805	
13.8	-0.433	-0.03680746220687085	
13.805	0.145	-0.03784335136444682	
13.81	0.255	-0.039376382752302874	
13.815	-0.412	-0.03930911992161121	
13.82	-0.159	-0.04183692512910546	
13.825	0.408	-0.04693984866486098	
13.83	-0.326	-0.0512390335567336	
13.835	-0.412	-0.06182444673661532	
13.84	0.258	-0.07749844816957885	
13.845	-0.145	-0.09809443393292287	
13.85	-0.492	-0.11729219386634715	
13.855	0.014	-0.12967690203342014	
13.86	0.145	-0.13999430606390828	
13.865	-0.471	-0.14570893553214498	
13.87	-0.232	-0.14395542881304446	
13.875	0.293	-0.14345559755448972	
13.88	-0.331	-0.14243093330133935	
13.885	-0.410	-0.13818427648757148	
13.89	0.251	-0.13305223373500463	
13.895	-0.142	-0.133014913317441	
13.9	-0.483	-0.136816293872578	
13.905	0.081	-0.13241936240999283	
13.91	0.209	-0.1246098687223551	
13.915	-0.441	-0.11522824204387806	
13.92	-0.195	-0.10303273800756056	
13.925	0.398	-0.09487072964336085	
13.93	-0.299	-0.08672288078109458	
13.935	-0.360	-0.07960969303300926	
13.94	0.401	-0.06948344712659826	
13.945	-0.047	-0.05992417510102812	
13.95	-0.432	-0.05345370637797385	
13.955	0.177	-0.046126552740351934	
13.96	0.380	-0.03314599931852689	
13.965	-0.364	-0.014801011072359068	
13.97	-0.079	0.0028520434739195528	
13.975	0.590	0.01876891026166302	
13.98	-0.201	0.036007434041621	
13.985	-0.293	0.04591393064883943	
13.99	0.523	0.051053544457420455	
13.995	0.084	0.05621948781433562	
14.0	-0.367	0.05894226547501433	
14.005	0.297	0.06209192189330418	
14.01	0.434	0.06930637674318252	
14.015	-0.329	0.07771469793225186	
14.02	-0.073	0.07969161924412001	
14.025	0.565	0.07632410886306354	
14.03	-0.204	0.06883136158123686	
14.035	-0.293	0.06048376480178166	
14.04	0.544	0.05549425707013188	
14.045	0.154	0.059393014096378025	
14.05	-0.329	0.06941979299172238	
14.055	0.404	0.08724277493423309	
14.06	0.680	0.1197427226503585	
14.065	-0.120	0.16733026411282345	
14.07	0.474	0.22952215130312234	
14.075	1.346	0.32385137400180813	
14.08	0.492	0.44775022058551717	
14.085	0.091	0.5510060698384983	
14.09	0.762	0.5897228635210616	
14.095	0.094	0.5515829874238298	
14.1	-0.476	0.4460029669648292	
14.105	-0.107	0.29922222630394757	
14.11	-0.003	0.1270885908936113	
14.115	-0.505	-0.033854360717552344	
14.12	-0.235	-0.13563448546933857	
14.125	0.524	-0.175808942840749	
14.13	-0.143	-0.16328915585089676	
14.135	-0.215	-0.11324390620479413	
14.14	0.747	-0.03590916601639722	
14.145	0.372	0.05676245482374912	
14.15	-0.209	0.14458761529278244	
14.155	0.602	0.21934575623774114	
14.16	0.796	0.28446835973744666	
14.165	-0.136	0.3347490308705513	
14.17	0.267	0.36309782579895256	
14.175	1.009	0.3806162678039453	
14.18	0.142	0.39965964406896554	
14.185	-0.069	0.404310148859088	
14.19	0.912	0.3983155584910705	
14.195	0.535	0.40005126528885443	
14.2	-0.146	0.4042524902440656	
14.205	0.665	0.40625789397201567	
14.21	0.869	0.4138372214873125	
14.215	-0.101	0.4226844933029119	
14.22	0.293	0.4218016033640163	
14.225	1.078	0.42282065512886496	
14.23	0.267	0.43787306335521037	
14.235	0.047	0.45404279254503893	
14.24	1.085	0.46923379348735045	
14.245	0.712	0.4973605301476419	
14.25	-0.052	0.5251991395701101	
14.255	0.797	0.5399445435863027	
14.26	1.003	0.5520187287213438	
14.265	-0.032	0.5589298084805504	
14.27	0.297	0.5444743682041979	
14.275	0.971	0.5146834431212539	
14.28	0.029	0.4782714578678302	
14.285	-0.203	0.42195777442774074	
14.29	0.663	0.3538141254997296	
14.295	0.219	0.29067652425869533	
14.3	-0.370	0.23149268757207403	
14.305	0.148	0.1744483585601018	
14.31	0.357	0.11499644123103644	
14.315	-0.393	0.06248793503558002	
14.32	-0.218	0.021213714597158352	
14.325	0.341	-0.017706255047733772	
14.33	-0.308	-0.05722048540028341	
14.335	-0.427	-0.08691918755797365	
14.34	0.255	-0.10371670975059058	
14.345	-0.063	-0.11812307814039076	
14.35	-0.459	-0.12612904998428998	
14.355	0.072	-0.1179473050716291	
14.36	0.344	-0.10209224908810156	
14.365	-0.389	-0.0820969183263665	
14.37	-0.203	-0.0609829439653973	
14.375	0.456	-0.04697884187564909	
14.38	-0.227	-0.039874486087624686	
14.385	-0.363	-0.034903239139731035	
14.39	0.425	-0.026065738809772088	
14.395	0.078	-0.01691643508470643	
14.4	-0.403	-0.008939321058381256	
14.405	0.152	0.0007100888764688521	
14.41	0.393	0.00792678088797877	
14.415	-0.374	0.012213194232147638	
14.42	-0.213	0.011792462191862559	
14.425	0.418	-0.00014366359071108067	
14.43	-0.267	-0.020554141103823472	
14.435	-0.410	-0.03994345283122689	
14.44	0.332	-0.053343986611923244	
14.445	0.000	-0.06369785207341276	
14.45	-0.448	-0.07080550399114563	
14.455	0.029	-0.07057480437417715	
14.46	0.283	-0.07301643632845906	
14.465	-0.424	-0.07655544435351352	
14.47	-0.264	-0.0773997466618706	
14.475	0.354	-0.08221859163470632	
14.48	-0.274	-0.09232109506273962	
14.485	-0.432	-0.09903072366316695	
14.49	0.236	-0.10150028790866794	
14.495	-0.069	-0.11052049977268597	
14.5	-0.476	-0.11980174012434947	
14.505	0.000	-0.11973585616065147	
14.51	0.259	-0.11688335368243603	
14.515	-0.447	-0.11550593487899062	
14.52	-0.288	-0.1105771436764808	
14.525	0.331	-0.11112085448413055	
14.53	-0.288	-0.1172160081012012	
14.535	-0.441	-0.12022597177311498	
14.54	0.255	-0.11745202178102553	
14.545	-0.020	-0.11733612747098661	
14.55	-0.476	-0.11599767346800258	
14.555	-0.011	-0.10979490237873969	
14.56	0.297	-0.10463099221167427	
14.565	-0.404	-0.09963009771645687	
14.57	-0.232	-0.08775377151612793	
14.575	0.445	-0.07584637157456914	
14.58	-0.220	-0.06621606645938101	
14.585	-0.386	-0.057529297610331515	
14.59	0.386	-0.04524648772296137	
14.595	0.107	-0.033147937674465056	
14.6	-0.406	-0.022344635362933258	
14.605	0.123	-0.008769620576461943	
14.61	0.433	0.0037193932402125734	
14.615	-0.337	0.01311220370847305	
14.62	-0.165	0.022032770184295596	
14.625	0.601	0.02955410188967207	
14.63	-0.136	0.03775836056837156	
14.635	-0.310	0.04507443445907164	
14.64	0.503	0.054023780430293586	
14.645	0.224	0.06609246615888983	
14.65	-0.345	0.07723477786388214	
14.655	0.224	0.08924192565158738	
14.66	0.570	0.10013609223898358	
14.665	-0.259	0.11185103461186695	
14.67	-0.093	0.12077476495439936	
14.675	0.713	0.12596547839553368	
14.68	-0.072	0.1307625915295103	
14.685	-0.262	0.13266298605385787	
14.69	0.582	0.1352658467673709	
14.695	0.312	0.1413532440431851	
14.7	-0.308	0.14984328196103625	
14.705	0.315	0.158222888126354	
14.71	0.684	0.1715350803831423	
14.715	-0.221	0.18663827889891285	
14.72	-0.072	0.19350490604860893	
14.725	0.747	0.18931464958045552	
14.73	-0.006	0.18581900992124734	
14.735	-0.235	0.1813046259064545	
14.74	0.666	0.18142134126947168	
14.745	0.427	0.19261284664169961	
14.75	-0.259	0.20956073656737284	
14.755	0.386	0.22513279812271159	
14.76	0.745	0.24083914421801553	
14.765	-0.185	0.25455220454383665	
14.77	-0.021	0.2562650021226177	
14.775	0.812	0.24852086836733936	
14.78	0.040	0.24193778625340928	
14.785	-0.209	0.23405143650290725	
14.79	0.710	0.2294349371606992	
14.795	0.399	0.23384109887372975	
14.8	-0.282	0.23742850786062278	
14.805	0.367	0.23797227549407465	
14.81	0.784	0.24305135274449444	
14.815	-0.189	0.25362188911900607	
14.82	-0.023	0.25502596855454995	
14.825	0.843	0.24856312198820657	
14.83	0.070	0.24716638031892602	
14.835	-0.197	0.24490372475511338	
14.84	0.706	0.24426291380110965	
14.845	0.468	0.2510763921979716	
14.85	-0.253	0.26050007181149437	
14.855	0.357	0.26368577043647967	
14.86	0.694	0.26210410391777517	
14.865	-0.217	0.2558838450224488	
14.87	-0.085	0.2388282528250958	
14.875	0.704	0.21239004518197066	
14.88	-0.058	0.18746657129680006	
14.885	-0.296	0.16091810422289587	
14.89	0.537	0.14094162761783463	
14.895	0.322	0.13125311923331923	
14.9	-0.339	0.1287439514567359	
14.905	0.180	0.12736521366541964	
14.91	0.581	0.12404411717523772	
14.915	-0.201	0.12426430484976823	
14.92	0.075	0.13769591119371405	
14.925	1.114	0.18013558171096383	
14.93	0.552	0.2678288270421111	
14.935	0.158	0.3780076990324234	
14.94	0.916	0.47248369908169785	
14.945	0.210	0.5093251621590456	
14.95	-0.558	0.4570213787483144	
14.955	-0.317	0.3219869615743124	
14.96	-0.157	0.1269015547715916	
14.965	-0.636	-0.07828452895505746	
14.97	-0.468	-0.22837503341916304	
14.975	0.235	-0.3091878913956827	
14.98	-0.186	-0.3318838497602302	
14.985	-0.332	-0.29684042833911894	
14.99	0.543	-0.21177038754166821	
14.995	0.387	-0.10150775472340262	
15.0	-0.293	0.006259123139314884	
15.005	0.285	0.09277096944062366	
15.01	0.671	0.15589300794660976	
15.015	-0.232	0.1948988560583168	
15.02	-0.157	0.20437282934604556	
15.025	0.584	0.1846352384015608	
15.03	-0.117	0.1523693398780649	
15.035	-0.366	0.1130954306305954	
15.04	0.358	0.07693257226054763	
15.045	0.174	0.04670046254200856	
15.05	-0.409	0.024461363267493052	
15.055	0.047	0.011488160562307274	
15.06	0.471	0.00490057021702358	
15.065	-0.308	0.0052245490309840445	
15.07	-0.200	0.010224045232432892	
15.075	0.582	0.0184470611771604	
15.08	-0.079	0.029659372848472823	
15.085	-0.303	0.04111321985362877	
15.09	0.558	0.059634671175761295	
15.095	0.433	0.09287965059530842	
15.1	-0.261	0.13365826477789566	
15.105	0.340	0.1701627980769535	
15.11	0.764	0.20587585384017154	
15.115	-0.186	0.23656819783288138	
15.12	-0.107	0.2430041836941956	
15.125	0.709	0.22816305047177327	
15.13	-0.047	0.2080489477210411	
15.135	-0.345	0.1771849255324681	
15.14	0.325	0.13614209888124834	
15.145	0.099	0.08905474114771425	
15.15	-0.480	0.03806757744463872	
15.155	-0.134	-0.011260287232743998	
15.16	0.157	-0.0653034516038236	
15.165	-0.499	-0.1208818707287542	
15.17	-0.445	-0.16409564332037835	
15.175	0.072	-0.20327798370819325	
15.18	-0.367	-0.2445792945272019	
15.185	-0.592	-0.27259564043219076	
15.19	-0.049	-0.28429291690480124	
15.195	-0.131	-0.29586654986575844	
15.2	-0.581	-0.3015885288163957	
15.205	-0.235	-0.2905142679224574	
15.21	0.075	-0.28142870902457395	
15.215	-0.494	-0.2766082166579915	
15.22	-0.413	-0.264172885899947	
15.225	0.209	-0.24843833499599563	
15.23	-0.270	-0.23441583320858347	
15.235	-0.502	-0.218605189168061	
15.24	0.073	-0.200431115262602	
15.245	-0.075	-0.1947660765560565	
15.25	-0.540	-0.19758809140839584	
15.255	-0.166	-0.19462543470380875	
15.26	0.236	-0.1913119354699317	
15.265	-0.436	-0.1855884368483678	
15.27	-0.374	-0.17532605599810694	
15.275	0.270	-0.16633329000315705	
15.28	-0.244	-0.1633383477130259	
15.285	-0.491	-0.1607968226310057	
15.29	0.154	-0.15336164512115263	
15.295	0.032	-0.1475828021124535	
15.3	-0.486	-0.14479135323445494	
15.305	-0.116	-0.13568287207703092	
15.31	0.314	-0.12904909351108818	
15.315	-0.392	-0.12271627519626495	
15.32	-0.331	-0.11352967089663658	
15.325	0.349	-0.10705198197869419	
15.33	-0.191	-0.10430815610025629	
15.335	-0.436	-0.10212173981652944	
15.34	0.276	-0.09117018771131657	
15.345	0.151	-0.07735213057215255	
15.35	-0.438	-0.06414599270140844	
15.355	-0.035	-0.051703536641560376	
15.36	0.476	-0.040665978039420056	
15.365	-0.296	-0.026934845175474745	
15.37	-0.224	-0.009784359327114179	
15.375	0.581	0.00733728571560693	
15.38	-0.053	0.025715174211231706	
15.385	-0.319	0.04046505298089061	
15.39	0.492	0.05905251623785371	
15.395	0.346	0.08292835848625138	
15.4	-0.345	0.10346147265792019	
15.405	0.110	0.11323860685934171	
15.41	0.608	0.11574290400369174	
15.415	-0.236	0.11887877605871394	
15.42	-0.168	0.11691784479121448	
15.425	0.677	0.11468267996359004	
15.43	0.000	0.1168132535124224	
15.435	-0.323	0.11608223416371198	
15.44	0.457	0.11416257072568493	
15.445	0.355	0.11422512194788266	
15.45	-0.329	0.11720230304932812	
15.455	0.133	0.1191175300014668	
15.46	0.642	0.12106556492726411	
15.465	-0.220	0.1268190727278052	
15.47	-0.174	0.12864654418795174	
15.475	0.636	0.12388169056439774	
15.48	-0.041	0.1179478386250776	
15.485	-0.346	0.10481543528673301	
15.49	0.402	0.09318571044876098	
15.495	0.317	0.08446861019833315	
15.5	-0.343	0.08104826177200569	
15.505	0.040	0.07997514240342347	
15.51	0.530	0.07428887711683918	
15.515	-0.253	0.06781878105804874	
15.52	-0.195	0.06443830014513655	
15.525	0.607	0.06602689082426885	
15.53	-0.009	0.07007478818610052	
15.535	-0.306	0.07559750113931363	
15.54	0.482	0.08620572258317537	
15.545	0.433	0.10568239184096297	
15.55	-0.255	0.12989352394580325	
15.555	0.288	0.1578565447008698	
15.56	0.806	0.1925331970357014	
15.565	-0.114	0.22680089592655106	
15.57	-0.095	0.24517295516445203	
15.575	0.771	0.24615486668499564	
15.58	0.116	0.24325725665883274	
15.585	-0.246	0.23437101936980095	
15.59	0.555	0.22413083195219285	
15.595	0.476	0.21893704932117172	
15.6	-0.311	0.21483711075232498	
15.605	0.079	0.20061407266780948	
15.61	0.581	0.17367721151095855	
15.615	-0.227	0.1459630771077325	
15.62	-0.200	0.12298603855851103	
15.625	0.575	0.10212371224889746	
15.63	-0.029	0.08546339812436951	
15.635	-0.320	0.07330487021135096	
15.64	0.514	0.07499071275119196	
15.645	0.562	0.10110368186795188	
15.65	-0.137	0.14691218659611094	
15.655	0.623	0.21545203719876213	
15.66	1.195	0.31375803995079493	
15.665	0.076	0.41711180681332244	
15.67	-0.174	0.46572960212788334	
15.675	0.261	0.41894050915184045	
15.68	-0.334	0.28969906040201043	
15.685	-0.653	0.12531157092113027	
15.69	-0.192	-0.034268840660908254	
15.695	-0.195	-0.18276973430885343	
15.7	-0.573	-0.2918858214853244	
15.705	-0.149	-0.33071235457018233	
15.71	0.491	-0.30827231792952087	
15.715	-0.227	-0.2406865623545162	
15.72	-0.162	-0.15025917950568024	
15.725	0.719	-0.05305797040791594	
15.73	0.175	0.04180915921804863	
15.735	-0.218	0.12123498873940132	
15.74	0.602	0.1826459784235145	
15.745	0.509	0.229329255987872	
15.75	-0.249	0.2560471508130645	
15.755	0.210	0.26208401562264305	
15.76	0.739	0.2567918642951236	
15.765	-0.134	0.2504241194334502	
15.77	-0.111	0.23657691955840204	
15.775	0.733	0.22089123318046364	
15.78	0.137	0.21102245442806872	
15.785	-0.244	0.20421011053665553	
15.79	0.590	0.2024627373439086	
15.795	0.605	0.2164961492517816	
15.8	-0.192	0.24120810847708232	
15.805	0.331	0.262846952334338	
15.81	0.880	0.28675692001677355	
15.815	-0.014	0.3127134782848007	
15.82	0.037	0.3274504619652879	
15.825	0.947	0.337631569423238	
15.83	0.360	0.35731649124300824	
15.835	-0.137	0.3713280997628544	
15.84	0.710	0.37603613611943776	
15.845	0.658	0.3795848924958569	
15.85	-0.195	0.3786120231654029	
15.855	0.223	0.35948397274319077	
15.86	0.706	0.32750064371011045	
15.865	-0.200	0.28925386875650494	
15.87	-0.233	0.23840497826618595	
15.875	0.465	0.17706355215276204	
15.88	-0.107	0.11369077290496732	
15.885	-0.433	0.05271361184583348	
15.89	0.107	0.001438998746150946	
15.895	0.043	-0.049442859062900316	
15.9	-0.499	-0.09675228387225973	
15.905	-0.204	-0.12783161379415564	
15.91	0.227	-0.15089550431317983	
15.915	-0.390	-0.1681756756873558	
15.92	-0.410	-0.173533510462746	
15.925	0.149	-0.17649296297897352	
15.93	-0.250	-0.1890346024184576	
15.935	-0.528	-0.20095066192951241	
15.94	0.004	-0.20201356621719216	
15.945	0.037	-0.20446732301114495	
15.95	-0.482	-0.2033360297270168	
15.955	-0.180	-0.1900699662582757	
15.96	0.255	-0.17512391729156507	
15.965	-0.380	-0.16384153756139486	
15.97	-0.370	-0.15256078410667123	
15.975	0.329	-0.1387672399286375	
15.98	-0.136	-0.12581813778980236	
15.985	-0.459	-0.11485053741916404	
15.99	0.120	-0.10529527330737261	
15.995	0.160	-0.0993799181450349	
16.0	-0.454	-0.09513502300079855	
16.005	-0.180	-0.09230451832428194	
16.01	0.299	-0.09718034044105117	
16.015	-0.361	-0.1055807464702932	
16.02	-0.380	-0.11166653377363048	
16.025	0.290	-0.11494842679915375	
16.03	-0.153	-0.11960588075342815	
16.035	-0.441	-0.12180777738693375	
16.04	0.136	-0.11550597489583647	
16.045	0.154	-0.1072730363963448	
16.05	-0.450	-0.10000887321818111	
16.055	-0.156	-0.09449079485145029	
16.06	0.326	-0.09316848111533109	
16.065	-0.332	-0.09440695409679115	
16.07	-0.323	-0.09279960540414142	
16.075	0.398	-0.0840199757882184	
16.08	-0.101	-0.07341483319054376	
16.085	-0.444	-0.06687861124512515	
16.09	0.122	-0.06467437971521205	
16.095	0.166	-0.06910100440236934	
16.1	-0.412	-0.07295193714813444	
16.105	-0.105	-0.07068959566868438	
16.11	0.445	-0.06407711867839164	
16.115	-0.271	-0.051255453000179516	
16.12	-0.302	-0.03899329851273052	
16.125	0.469	-0.02706103195168128	
16.13	-0.002	-0.013199421705471927	
16.135	-0.374	-0.0009639549638241615	
16.14	0.209	0.007167602226694308	
16.145	0.236	0.008074672166635481	
16.15	-0.395	0.0020890643315302593	
16.155	-0.160	-0.007903399817257213	
16.16	0.306	-0.029012276718219376	
16.165	-0.355	-0.056105271860781056	
16.17	-0.393	-0.08114688982268728	
16.175	0.250	-0.10209777324587234	
16.18	-0.188	-0.12302920973561424	
16.185	-0.508	-0.14104208207028018	
16.19	0.009	-0.15292506286652702	
16.195	0.064	-0.16476646518513696	
16.2	-0.508	-0.1749272910328252	
16.205	-0.250	-0.1770328987078233	
16.21	0.213	-0.1808753936997311	
16.215	-0.386	-0.18506865010851786	
16.22	-0.421	-0.1843185361011213	
16.225	0.265	-0.17599782373839973	
16.23	-0.162	-0.16791657455599773	
16.235	-0.460	-0.1582422221168646	
16.24	0.232	-0.1368952671823711	
16.245	0.454	-0.09453539158545127	
16.25	-0.217	-0.03208405465551492	
16.255	0.236	0.04283520798282637	
16.26	0.654	0.11537188380442172	
16.265	-0.383	0.15687534068959558	
16.27	-0.587	0.13034816900755092	
16.275	-0.209	0.03011909733680722	
16.28	-0.509	-0.12072760112326622	
16.285	-0.808	-0.26846459952656865	
16.29	-0.326	-0.37790221087796766	
16.295	-0.206	-0.4532806421649043	
16.3	-0.590	-0.48622236793469287	
16.305	-0.264	-0.4632697618111208	
16.31	0.293	-0.40132814864802896	
16.315	-0.314	-0.3241588958409071	
16.32	-0.343	-0.24385344225038064	
16.325	0.407	-0.1675608742274901	
16.33	-0.021	-0.104655890710807	
16.335	-0.369	-0.05690777070154284	
16.34	0.293	-0.016763845153178424	
16.345	0.422	0.021050631973845803	
16.35	-0.340	0.053350083517586314	
16.355	-0.084	0.06954001049131481	
16.36	0.567	0.07113504763934655	
16.365	-0.194	0.06972392326409013	
16.37	-0.238	0.06775818553697482	
16.375	0.645	0.07280157412842841	
16.38	0.194	0.09254870425474065	
16.385	-0.273	0.1166588817734654	
16.39	0.460	0.1412991579149523	
16.395	0.611	0.17043171562800452	
16.4	-0.203	0.20208946761639418	
16.405	0.175	0.22433912942083375	
16.41	0.898	0.24550460086426193	
16.415	0.043	0.2747309124524828	
16.42	-0.058	0.29540550681425126	
16.425	0.878	0.30794512653040274	
16.43	0.416	0.32878900897215657	
16.435	-0.172	0.34541278389127705	
16.44	0.614	0.35017067594187956	
16.445	0.660	0.3536975254834035	
16.45	-0.255	0.3460938034552562	
16.455	-0.014	0.3120560898087279	
16.46	0.588	0.25557584196753375	
16.465	-0.220	0.19597583062655793	
16.47	-0.325	0.13524274663211322	
16.475	0.355	0.0777727714223578	
16.48	-0.093	0.022039118098989476	
16.485	-0.464	-0.027521010917463253	
16.49	0.043	-0.062090539917668004	
16.495	0.151	-0.09220516141553271	
16.5	-0.471	-0.11668190266260772	
16.505	-0.252	-0.12911954049655175	
16.51	0.280	-0.13848264273417304	
16.515	-0.326	-0.14781658030387115	
16.52	-0.398	-0.1468390183618716	
16.525	0.274	-0.13834279192655496	
16.53	-0.108	-0.13180532667425066	
16.535	-0.496	-0.12955797152683624	
16.54	-0.018	-0.12722981456061447	
16.545	0.172	-0.13207294934211183	
16.55	-0.422	-0.13566546999153206	
16.555	-0.171	-0.12526388071070144	
16.56	0.447	-0.1063626323815908	
16.565	-0.264	-0.08575933298690291	
16.57	-0.343	-0.06603604950070188	
16.575	0.370	-0.0502713985936453	
16.58	-0.035	-0.04265485985105388	
16.585	-0.416	-0.040752685712961104	
16.59	0.160	-0.036245189964032115	
16.595	0.280	-0.03183695799814053	
16.6	-0.398	-0.029817466707956184	
16.605	-0.166	-0.02843906455995412	
16.61	0.457	-0.030104270418709035	
16.615	-0.233	-0.03174843157868498	
16.62	-0.294	-0.027304236504760923	
16.625	0.514	-0.012083380491580002	
16.63	0.128	0.010531049092617538	
16.635	-0.340	0.03394194256728895	
16.64	0.312	0.05775125519305224	
16.645	0.511	0.08248008409196539	
16.65	-0.261	0.10799363339058034	
16.655	0.012	0.12634984975746819	
16.66	0.715	0.140207094039148	
16.665	-0.096	0.15327584105050485	
16.67	-0.220	0.1583569795515148	
16.675	0.630	0.1580592229252435	
16.68	0.226	0.16077024351743596	
16.685	-0.303	0.1616739049680736	
16.69	0.341	0.16166456255422473	
16.695	0.508	0.15977951204828234	
16.7	-0.299	0.15591258859493945	
16.705	-0.104	0.1421010170086859	
16.71	0.552	0.11740975396958374	
16.715	-0.204	0.09040193443575661	
16.72	-0.317	0.06510727013378977	
16.725	0.431	0.0440930535657357	
16.73	0.073	0.027995249870295176	
16.735	-0.345	0.01952038393820551	
16.74	0.235	0.023560032013423226	
16.745	0.427	0.0350074512128827	
16.75	-0.326	0.04687855839168073	
16.755	-0.105	0.05490280740581433	
16.76	0.614	0.058579466944799874	
16.765	-0.107	0.06650381817783653	
16.77	-0.172	0.08088021229153476	
16.775	0.852	0.11414973661189902	
16.78	0.578	0.18023147524885735	
16.785	-0.153	0.25834603864822314	
16.79	0.354	0.308366002266519	
16.795	0.148	0.2971702661125538	
