Time	Potential	EKG	Unnamed: 3
0.0	0.156	0.007172641866700282	
0.005	0.151	0.031165656502806286	
0.01	0.046	0.05971977743965555	
0.015	0.102	0.07898328019946053	
0.02	0.046	0.08728607152548622	
0.025	-0.049	0.08182251866336063	
0.03	-0.089	0.057782492928483135	
0.035	-0.104	0.020291150918993507	
0.04	-0.109	-0.02095710640084622	
0.045	-0.121	-0.058317061400761885	
0.05	-0.162	-0.0888419166065427	
0.055	-0.118	-0.11376146585081674	
0.06	-0.064	-0.1262923205182661	
0.065	-0.054	-0.12303959834278426	
0.07	0.055	-0.10364833420182673	
0.075	0.064	-0.07015617565689672	
0.08	0.128	-0.02624926881401719	
0.085	0.261	0.02732908304426167	
0.09	0.250	0.09006679358298485	
0.095	0.270	0.15162434064866248	
0.1	0.345	0.20714849640555613	
0.105	0.464	0.2612851585798658	
0.11	0.453	0.3186858825080122	
0.115	0.403	0.3709010959030715	
0.12	0.484	0.4083478932380828	
0.125	0.501	0.4378665564534409	
0.13	0.576	0.4657407757850375	
0.135	0.686	0.5023046651106756	
0.14	0.762	0.5520865226828668	
0.145	0.699	0.6086626129022084	
0.15	0.675	0.6561110364560501	
0.155	0.638	0.6812214025703938	
0.16	0.542	0.6827158965735827	
0.165	0.560	0.6639352044141811	
0.17	0.635	0.6373009839086538	
0.175	0.634	0.6208866297033734	
0.18	0.589	0.6128080578954125	
0.185	0.492	0.6022241406437179	
0.19	0.478	0.5800110948300329	
0.195	0.553	0.5547745840249705	
0.2	0.634	0.5421621015561922	
0.205	0.684	0.5511419841136285	
0.21	0.722	0.5797804445357845	
0.215	0.715	0.6180278763600813	
0.22	0.745	0.6561892228344417	
0.225	0.712	0.6888329791888141	
0.23	0.803	0.7149233694578017	
0.235	0.930	0.745216546953287	
0.24	1.002	0.7919501568327418	
0.245	0.831	0.8418472919535266	
0.25	0.481	0.8571047209152796	
0.255	0.142	0.7949376038005251	
0.26	-0.048	0.650798187228274	
0.265	-0.032	0.46113801041153324	
0.27	0.088	0.2811211795954114	
0.275	0.258	0.15886446362227727	
0.28	0.585	0.125121138571409	
0.285	0.842	0.1902148012574801	
0.29	0.990	0.33685547388524845	
0.295	1.061	0.5259534126397594	
0.3	1.115	0.7171816969774926	
0.305	1.010	0.8768652077289932	
0.31	0.965	0.9828226633149075	
0.315	0.909	1.0311680953886675	
0.32	0.858	1.0329867408890014	
0.325	0.867	1.0037905546850225	
0.33	0.846	0.9631415083381483	
0.335	0.872	0.9241206269753506	
0.34	0.892	0.8947874492627788	
0.345	1.017	0.8850500255027918	
0.35	1.104	0.9022286984494227	
0.355	1.087	0.9438368993478599	
0.36	1.026	0.9878848131738268	
0.365	1.042	1.0212165290196988	
0.37	1.135	1.0439504076617034	
0.375	1.158	1.0688216084859214	
0.38	1.202	1.0991853531835856	
0.385	1.179	1.1290530537977368	
0.39	1.231	1.1567653292685587	
0.395	1.269	1.1841078665175986	
0.4	1.165	1.206166638739278	
0.405	1.031	1.2077430736676902	
0.41	0.906	1.1769443415062815	
0.415	0.788	1.112249291140673	
0.42	0.602	1.0168461211205782	
0.425	0.408	0.8927997057303911	
0.43	0.366	0.7502564572555115	
0.435	0.241	0.6050335390035533	
0.44	0.036	0.4627284483348113	
0.445	0.007	0.32214387930760624	
0.45	-0.011	0.19519081118322945	
0.455	-0.003	0.09577937091608346	
0.46	0.033	0.030013005466279007	
0.465	0.041	-0.002744022373437268	
0.47	0.067	-0.010142009180110597	
0.475	0.082	-0.0001297589814680236	
0.48	0.020	0.016234948402893655	
0.485	-0.066	0.023959433518789052	
0.49	-0.118	0.0127634252562444	
0.495	-0.100	-0.013832717417039526	
0.5	-0.098	-0.04287959021759115	
0.505	-0.101	-0.0682307072526811	
0.51	-0.060	-0.08395745537115577	
0.515	-0.057	-0.08978673341984492	
0.52	-0.055	-0.08616179990008277	
0.525	-0.049	-0.07909803365050967	
0.53	-0.046	-0.06978122384342288	
0.535	-0.031	-0.060041916536116645	
0.54	-0.081	-0.05318611765267389	
0.545	-0.075	-0.05185322349485336	
0.55	-0.119	-0.05792613506929187	
0.555	-0.116	-0.07119613861235281	
0.56	-0.141	-0.08595180833284499	
0.565	-0.208	-0.10584556811878723	
0.57	-0.223	-0.1321550558467826	
0.575	-0.269	-0.16306190880097154	
0.58	-0.262	-0.19581045464951896	
0.585	-0.219	-0.2220513497244622	
0.59	-0.207	-0.2361333961264002	
0.595	-0.199	-0.23684153051849763	
0.6	-0.200	-0.23196026283561225	
0.605	-0.219	-0.2241832419623134	
0.61	-0.184	-0.21591891480840228	
0.615	-0.145	-0.20686673749910522	
0.62	-0.078	-0.1891605170554015	
0.625	-0.042	-0.16200880140341914	
0.63	0.015	-0.12481546043085076	
0.635	-0.032	-0.08611133636177132	
0.64	-0.196	-0.06213219268124128	
0.645	-0.355	-0.07485454326567212	
0.65	-0.471	-0.13104179865939636	
0.655	-0.521	-0.21817273133865045	
0.66	-0.501	-0.3138470155345228	
0.665	-0.428	-0.3929024721408262	
0.67	-0.301	-0.4361699155719691	
0.675	-0.139	-0.4299026255635099	
0.68	0.142	-0.36880182307609005	
0.685	0.936	-0.22012067889079606	
0.69	1.778	0.0680916177669379	
0.695	2.458	0.5183540149907043	
0.7	2.744	1.0788619400483026	
0.705	2.965	1.6587317564610276	
0.71	3.083	2.1812216716352575	
0.715	2.909	2.589975038952952	
0.72	2.501	2.838532932042005	
0.725	2.085	2.899016533610455	
0.73	1.793	2.7841984566645186	
0.735	1.546	2.5466644012766313	
0.74	1.332	2.246911768567063	
0.745	1.243	1.9363918804571651	
0.75	1.133	1.6548880807418895	
0.755	1.087	1.4227449811028983	
0.76	1.039	1.247367866622108	
0.765	0.973	1.1211085812786927	
0.77	0.936	1.0326070514664603	
0.775	0.898	0.9721781989494197	
0.78	0.880	0.9293237398917248	
0.785	0.710	0.8916200265582183	
0.79	0.574	0.8418868682092808	
0.795	0.446	0.7684244498092915	
0.8	0.096	0.6617992575603232	
0.805	-0.089	0.5126259583169135	
0.81	-0.164	0.33438348279118363	
0.815	-0.254	0.15313822071309346	
0.82	-0.306	-0.009437411648867593	
0.825	-0.326	-0.1418248103653562	
0.83	-0.315	-0.2396167460417571	
0.835	-0.376	-0.3053587731931791	
0.84	-0.405	-0.349129392844289	
0.845	-0.425	-0.379546154081005	
0.85	-0.457	-0.40513972151799205	
0.855	-0.475	-0.42636259689715783	
0.86	-0.474	-0.44363328550725656	
0.865	-0.468	-0.4588565861802264	
0.87	-0.454	-0.4674483581286335	
0.875	-0.423	-0.4678548882829412	
0.88	-0.457	-0.4626270963103308	
0.885	-0.512	-0.4613805172120703	
0.89	-0.503	-0.4661571564422374	
0.895	-0.445	-0.47252280931118745	
0.9	-0.449	-0.4741224376442423	
0.905	-0.425	-0.4693964456226109	
0.91	-0.402	-0.45762684983768215	
0.915	-0.430	-0.44482158565194835	
0.92	-0.469	-0.4364923104069859	
0.925	-0.451	-0.43489570861266735	
0.93	-0.404	-0.43556988870603847	
0.935	-0.462	-0.43636120078850543	
0.94	-0.489	-0.4392191576406681	
0.945	-0.449	-0.4455122667925343	
0.95	-0.475	-0.4540755561894674	
0.955	-0.514	-0.46244396103406876	
0.96	-0.523	-0.473659644580621	
0.965	-0.533	-0.48876681777040043	
0.97	-0.523	-0.5044857246262955	
0.975	-0.527	-0.5149316288021314	
0.98	-0.509	-0.5215425177157054	
0.985	-0.477	-0.5223426091701098	
0.99	-0.488	-0.5162429264567816	
0.995	-0.460	-0.5054935339089697	
1.0	-0.433	-0.49306371992347797	
1.005	-0.425	-0.47647271913946093	
1.01	-0.378	-0.4556329333716717	
1.015	-0.341	-0.4327408935716333	
1.02	-0.304	-0.40453308076827166	
1.025	-0.269	-0.37192238382046905	
1.03	-0.297	-0.3394997375325425	
1.035	-0.469	-0.3234155790446016	
1.04	-0.680	-0.34330877178484076	
1.045	-0.734	-0.40745532084210395	
1.05	-0.727	-0.4970724518239995	
1.055	-0.665	-0.5814994992007503	
1.06	-0.471	-0.6315554541372568	
1.065	-0.272	-0.6266875629521851	
1.07	-0.147	-0.562554256703766	
1.075	-0.045	-0.45489481270587717	
1.08	0.056	-0.3254745412501938	
1.085	0.020	-0.1994447725859555	
1.09	-0.016	-0.09628541049563463	
1.095	0.062	-0.024421900763237858	
1.1	0.059	0.02187993031933875	
1.105	0.143	0.055475013548610945	
1.11	0.244	0.09045678728843473	
1.115	0.233	0.13025113744955555	
1.12	0.235	0.16837974417065568	
1.125	0.282	0.2031269670611244	
1.13	0.293	0.23253968564317756	
1.135	0.250	0.25452480967438007	
1.14	0.284	0.2697385435557416	
1.145	0.427	0.2846399909668389	
1.15	0.409	0.30988229833536235	
1.155	0.391	0.3404447901204861	
1.16	0.450	0.3694562120448497	
1.165	0.446	0.3952631039913173	
1.17	0.431	0.41637958901523536	
1.175	0.385	0.4281097667396373	
1.18	0.450	0.43152931227917596	
1.185	0.379	0.42955702919054395	
1.19	0.244	0.41674190379050513	
1.195	0.191	0.3825622913602853	
1.2	0.055	0.32586282689988255	
1.205	-0.023	0.25050818613831427	
1.21	-0.064	0.1654290299416613	
1.215	-0.116	0.08021066806174555	
1.22	-0.164	0.0014592615201112586	
1.225	-0.152	-0.06384599521834568	
1.23	-0.176	-0.1135434092806329	
1.235	-0.219	-0.15141770474873256	
1.24	-0.248	-0.18117410896797886	
1.245	-0.229	-0.20547511384969083	
1.25	-0.188	-0.22214802606334147	
1.255	-0.152	-0.22339868928183035	
1.26	-0.107	-0.2095764037676206	
1.265	-0.112	-0.1868620598397538	
1.27	-0.104	-0.16250458938380904	
1.275	-0.055	-0.13581543623238124	
1.28	-0.048	-0.11061556071841272	
1.285	-0.092	-0.08943365813676954	
1.29	-0.103	-0.0771214013056928	
1.295	-0.083	-0.07450780383530979	
1.3	-0.054	-0.075198802875059	
1.305	-0.008	-0.07035358043682405	
1.31	0.036	-0.055558897672532186	
1.315	-0.016	-0.0369205621396103	
1.32	-0.046	-0.022499776061486336	
1.325	-0.071	-0.01877821434500391	
1.33	-0.049	-0.024657766255952267	
1.335	-0.037	-0.03344539376233354	
1.34	-0.081	-0.04005209060233407	
1.345	-0.097	-0.04952090037615882	
1.35	-0.202	-0.06727149700747273	
1.355	-0.217	-0.09732716659702102	
1.36	-0.171	-0.13052459954864176	
1.365	-0.147	-0.1559625333573313	
1.37	-0.124	-0.16747682686015947	
1.375	-0.142	-0.16571203435459186	
1.38	-0.133	-0.15969769436024905	
1.385	-0.152	-0.1534859676357268	
1.39	-0.119	-0.14799463566950238	
1.395	-0.100	-0.1395089790240857	
1.4	-0.158	-0.13231740463151812	
1.405	-0.130	-0.12930164756777857	
1.41	-0.052	-0.12549213798229236	
1.415	0.062	-0.1089979537277897	
1.42	0.159	-0.0704743824721586	
1.425	0.036	-0.017674469708230056	
1.43	-0.236	0.010242574800117572	
1.435	-0.506	-0.02158497237888689	
1.44	-0.605	-0.11798909419504647	
1.445	-0.555	-0.24846567286767454	
1.45	-0.477	-0.3683265440036512	
1.455	-0.280	-0.44226495487307566	
1.46	-0.035	-0.44539492921567003	
1.465	0.146	-0.37498965174204746	
1.47	0.197	-0.2505314402632797	
1.475	0.281	-0.10364916980334937	
1.48	0.252	0.033302228594856195	
1.485	0.149	0.13740739863952672	
1.49	0.149	0.19599074342670317	
1.495	0.377	0.22754954814898692	
1.5	0.447	0.2616772367585599	
1.505	0.484	0.31168806616124456	
1.51	0.512	0.36852501150548	
1.515	0.507	0.42096830527013857	
1.52	0.545	0.46348521165980267	
1.525	0.597	0.5013462488790218	
1.53	0.640	0.5372914946886227	
1.535	0.634	0.570471834857748	
1.54	0.673	0.6020363696279712	
1.545	0.750	0.6314985614393147	
1.55	0.719	0.662654390559823	
1.555	0.805	0.6937240340623347	
1.56	0.867	0.7295178852337285	
1.565	0.829	0.7669567062753194	
1.57	0.748	0.7945047977291446	
1.575	0.568	0.7963077144554336	
1.58	0.343	0.7522288938950606	
1.585	0.191	0.657473402068478	
1.59	0.191	0.5330458243273591	
1.595	0.084	0.40349333439937085	
1.6	-0.054	0.2786683117107445	
1.605	-0.086	0.1617168918738991	
1.61	-0.095	0.05951918385158446	
1.615	-0.122	-0.020992402408069585	
1.62	-0.199	-0.08148726574414936	
1.625	-0.210	-0.12870036995504353	
1.63	-0.193	-0.16668316858923807	
1.635	-0.211	-0.19146625249174964	
1.64	-0.199	-0.2060161645622578	
1.645	-0.136	-0.20851552693193204	
1.65	-0.150	-0.2012573042769315	
1.655	-0.167	-0.18831292948624057	
1.66	-0.171	-0.17656329676910032	
1.665	-0.177	-0.16996266435240218	
1.67	-0.187	-0.16945962765490585	
1.675	-0.152	-0.16876460630555634	
1.68	-0.107	-0.16568228289715986	
1.685	-0.133	-0.15641160760480605	
1.69	-0.126	-0.1460637063514097	
1.695	-0.087	-0.1355605401462438	
1.7	-0.115	-0.12519916748701868	
1.705	-0.071	-0.11430984622117293	
1.71	-0.068	-0.10262040173669609	
1.715	-0.080	-0.091923319631007	
1.72	-0.046	-0.08241916189961127	
1.725	-0.061	-0.07182616147119303	
1.73	-0.037	-0.06369228334678693	
1.735	-0.080	-0.058359552333568404	
1.74	-0.156	-0.06110018869951104	
1.745	-0.184	-0.07660523513188823	
1.75	-0.202	-0.1051586682454111	
1.755	-0.205	-0.13530074804904732	
1.76	-0.249	-0.1646533250383054	
1.765	-0.263	-0.19391069781584436	
1.77	-0.277	-0.22140302732266542	
1.775	-0.269	-0.24283274349662223	
1.78	-0.271	-0.25968556319364244	
1.785	-0.344	-0.2733600307390308	
1.79	-0.449	-0.29410385203341327	
1.795	-0.483	-0.32959536214095464	
1.8	-0.477	-0.37416728183186027	
1.805	-0.365	-0.41029282204716155	
1.81	-0.284	-0.4206026888950709	
1.815	-0.271	-0.4039054716670099	
1.82	-0.361	-0.37644452407032825	
1.825	-0.575	-0.36484171123868947	
1.83	-0.770	-0.3977155875657531	
1.835	-0.850	-0.4774234245324512	
1.84	-0.848	-0.5810652813528894	
1.845	-0.766	-0.6775069845453368	
1.85	-0.624	-0.739190021159186	
1.855	-0.463	-0.7473066805912121	
1.86	-0.298	-0.697515093072862	
1.865	-0.177	-0.6019144858591361	
1.87	-0.135	-0.48151947299987524	
1.875	-0.084	-0.35575476613493673	
1.88	-0.019	-0.2436347490141847	
1.885	-0.087	-0.154523395675134	
1.89	-0.103	-0.09509495349035788	
1.895	0.012	-0.06043844813488517	
1.9	0.079	-0.03327188096363141	
1.905	0.197	0.0036095657585271074	
1.91	0.342	0.05956167796245935	
1.915	0.325	0.13007188143838466	
1.92	0.339	0.20237709866320025	
1.925	0.385	0.26530355205525824	
1.93	0.438	0.3184315611357481	
1.935	0.411	0.3624039185138457	
1.94	0.447	0.39591843389678905	
1.945	0.486	0.4226472757745632	
1.95	0.594	0.44967601163549564	
1.955	0.741	0.4915641515372342	
1.96	0.840	0.5566445084921545	
1.965	0.797	0.6340673904264834	
1.97	0.817	0.7042843977037646	
1.975	0.828	0.7603471810891156	
1.98	0.754	0.796492848626523	
1.985	0.559	0.7992947244795262	
1.99	0.403	0.759857034768912	
1.995	0.447	0.6837477011587327	
2.0	0.447	0.5996732314675959	
2.005	0.421	0.5294666455114903	
2.01	0.400	0.475692123865121	
2.015	0.325	0.4321273633538232	
2.02	0.244	0.3902180155560204	
2.025	0.198	0.3453514856185178	
2.03	0.284	0.30257650607349457	
2.035	0.208	0.2692999865890203	
2.04	0.156	0.24286715670132825	
2.045	0.273	0.22279670730822737	
2.05	0.236	0.21365051682960623	
2.055	0.191	0.21343515353183815	
2.06	0.261	0.2157095927882985	
2.065	0.247	0.22011946487344425	
2.07	0.217	0.22621812396196983	
2.075	0.180	0.22837118019453598	
2.08	0.191	0.2225323202325557	
2.085	0.125	0.209277858221187	
2.09	0.133	0.19092013933777344	
2.095	0.188	0.17477444703064887	
2.1	0.172	0.1635974886874661	
2.105	0.178	0.161494640473901	
2.11	0.056	0.15872819364326965	
2.115	-0.136	0.1340127105222305	
2.12	-0.283	0.07419825279635783	
2.125	-0.344	-0.016555560630966387	
2.13	-0.517	-0.12649825468189352	
2.135	-0.611	-0.2507831500652741	
2.14	-0.662	-0.375021958271726	
2.145	-0.619	-0.48417122282065944	
2.15	-0.637	-0.5674504394621238	
2.155	-0.657	-0.6205112076140473	
2.16	-0.631	-0.6501893172387734	
2.165	-0.628	-0.6639646475251879	
2.17	-0.663	-0.6658261193272689	
2.175	-0.671	-0.6635105566092128	
2.18	-0.631	-0.6624728231519319	
2.185	-0.648	-0.659828488787535	
2.19	-0.601	-0.6520034869752386	
2.195	-0.457	-0.6341415953499522	
2.2	-0.356	-0.5955103955011838	
2.205	-0.236	-0.5315050119409696	
2.21	-0.162	-0.44612584514777676	
2.215	-0.225	-0.3590361475839449	
2.22	-0.390	-0.29690306144831247	
2.225	-0.474	-0.278463913273864	
2.23	-0.478	-0.3014929589130452	
2.235	-0.480	-0.3468984452915923	
2.24	-0.402	-0.3889386225675927	
2.245	-0.223	-0.4070904841378885	
2.25	-0.031	-0.38257427630009855	
2.255	0.226	-0.3024712434122448	
2.26	0.537	-0.16202367281342825	
2.265	0.666	0.026938012614177168	
2.27	0.870	0.2400871183327126	
2.275	1.165	0.46765039638766637	
2.28	1.101	0.6905185343342017	
2.285	0.869	0.8669593149225227	
2.29	0.835	0.964986390452892	
2.295	0.777	0.9889304571188835	
2.3	0.620	0.9543685788817298	
2.305	0.533	0.8803940179574173	
2.31	0.580	0.7869617134698828	
2.315	0.673	0.7040377281348342	
2.32	0.713	0.6540771473537282	
2.325	0.774	0.6435825454033512	
2.33	0.869	0.6636104432418987	
2.335	0.903	0.7070832478712425	
2.34	0.953	0.7669745681069422	
2.345	0.990	0.8299366305255108	
2.35	0.947	0.8854404782904757	
2.355	0.922	0.9253817037424718	
2.36	0.955	0.94891039619011	
2.365	0.855	0.9540364626397194	
2.37	0.710	0.9350337866118443	
2.375	0.623	0.8895084090442915	
2.38	0.560	0.8176153338394405	
2.385	0.365	0.7280905459071625	
2.39	0.324	0.6249218856860295	
2.395	0.343	0.5219496709387745	
2.4	0.250	0.431520321703597	
2.405	0.212	0.3563769052569954	
2.41	0.201	0.2958740610610661	
2.415	0.140	0.24510065945128773	
2.42	0.110	0.20108380990318664	
2.425	0.110	0.16646764048704185	
2.43	0.171	0.14063973588879264	
2.435	0.154	0.1291679742375086	
2.44	0.097	0.126888880622975	
2.445	0.163	0.12689540377410824	
2.45	0.247	0.13256579422247974	
2.455	0.334	0.15740564000126694	
2.46	0.461	0.20483904343055812	
2.465	0.518	0.27110209023555315	
2.47	0.597	0.35011621114889907	
2.475	1.029	0.45247332922051664	
2.48	1.459	0.6086667239212799	
2.485	1.780	0.8352376605295054	
2.49	2.032	1.1199024659560508	
2.495	2.218	1.424843258651103	
2.5	2.210	1.7115449878041173	
2.505	2.206	1.9443674976731218	
2.51	2.326	2.1147347305994897	
2.515	2.223	2.226082726828957	
2.52	2.003	2.27414370839882	
2.525	1.770	2.2483294537548737	
2.53	1.553	2.1485139364937504	
2.535	1.431	1.9922808524057825	
2.54	1.396	1.8169103786055283	
2.545	1.358	1.6537776160266562	
2.55	1.219	1.5126542762907285	
2.555	1.103	1.3904792819191978	
2.56	1.069	1.2826689307516463	
2.565	0.901	1.1821174667343755	
2.57	0.741	1.081279040634547	
2.575	0.603	0.9713028047590051	
2.58	0.492	0.8494988720686338	
2.585	0.426	0.7254011253211945	
2.59	0.374	0.609890894777251	
2.595	0.360	0.5126746802537848	
2.6	0.296	0.4327289843923223	
2.605	0.093	0.362523464366344	
2.61	-0.177	0.2755294500150105	
2.615	-0.393	0.15108043651503072	
2.62	-0.509	-0.0066239165751856175	
2.625	-0.558	-0.17270924902601484	
2.63	-0.511	-0.32053347764938767	
2.635	-0.417	-0.4275103116244382	
2.64	-0.317	-0.4770604993175029	
2.645	-0.181	-0.469366771837979	
2.65	-0.109	-0.4172607016558807	
2.655	-0.045	-0.33442638372704253	
2.66	-0.016	-0.24045863935183054	
2.665	-0.022	-0.1559214854549398	
2.67	-0.008	-0.08862346860838316	
2.675	0.021	-0.03871968779766274	
2.68	0.075	-0.002564775385798205	
2.685	0.075	0.026435071503771876	
2.69	0.067	0.04990541110508363	
2.695	0.145	0.06862159570666321	
2.7	0.093	0.08470258434623298	
2.705	0.085	0.09655477617225679	
2.71	0.159	0.10557125931480982	
2.715	0.226	0.11809410830835246	
2.72	0.223	0.14038446979767438	
2.725	0.186	0.1663021211232555	
2.73	0.174	0.1834132599841672	
2.735	0.127	0.18740950432607814	
2.74	0.139	0.18194366245235447	
2.745	0.217	0.1746297718465717	
2.75	0.156	0.171663684899038	
2.755	0.065	0.1655794290890898	
2.76	0.020	0.1475852145776061	
2.765	-0.095	0.11101941127667483	
2.77	-0.119	0.058373888573099886	
2.775	-0.122	0.00237146740809798	
2.78	-0.158	-0.0505965053217498	
2.785	-0.232	-0.09862150445437587	
2.79	-0.274	-0.14501156139626104	
2.795	-0.287	-0.1893653990078527	
2.8	-0.336	-0.23238518985054696	
2.805	-0.338	-0.27039008323718505	
2.81	-0.333	-0.30035400564783743	
2.815	-0.355	-0.3229997451066063	
2.82	-0.384	-0.34064435687342165	
2.825	-0.388	-0.3555927793196594	
2.83	-0.367	-0.36760165783245735	
2.835	-0.390	-0.37665476162866474	
2.84	-0.402	-0.3819860860938822	
2.845	-0.307	-0.3833429815923042	
2.85	-0.307	-0.3754135768661203	
2.855	-0.269	-0.3563829919856836	
2.86	-0.240	-0.3303294687053926	
2.865	-0.312	-0.30704025222364606	
2.87	-0.327	-0.29366876631473515	
2.875	-0.292	-0.2905557613624994	
2.88	-0.254	-0.28860811586648727	
2.885	-0.271	-0.2856871358610961	
2.89	-0.258	-0.2789599201852768	
2.895	-0.231	-0.2703310836855791	
2.9	-0.289	-0.26446004071933016	
2.905	-0.333	-0.26439640448225976	
2.91	-0.338	-0.275306153567185	
2.915	-0.430	-0.29705180602362913	
2.92	-0.422	-0.3276796721365174	
2.925	-0.388	-0.35752518904621744	
2.93	-0.393	-0.38059829170062504	
2.935	-0.428	-0.3967145750395473	
2.94	-0.382	-0.40495260827354596	
2.945	-0.318	-0.40429661992532334	
2.95	-0.333	-0.3924643699605126	
2.955	-0.321	-0.37440843296581866	
2.96	-0.272	-0.35327948706175316	
2.965	-0.287	-0.3310337974105011	
2.97	-0.313	-0.3137048556425975	
2.975	-0.257	-0.29954215199510403	
2.98	-0.188	-0.2845760425119751	
2.985	-0.126	-0.26070231461235416	
2.99	-0.089	-0.2239717338186588	
2.995	-0.161	-0.1863088245154586	
3.0	-0.420	-0.1724865239670682	
3.005	-0.616	-0.20847296542627827	
3.01	-0.692	-0.29431026678247296	
3.015	-0.692	-0.4079909248015422	
3.02	-0.631	-0.5136793340153334	
3.025	-0.480	-0.5815358542796321	
3.03	-0.272	-0.5945197035522792	
3.035	-0.129	-0.5456618062472716	
3.04	-0.037	-0.44499288096264306	
3.045	0.094	-0.3183011102399646	
3.05	0.104	-0.18743640030342418	
3.055	0.117	-0.06845009290973511	
3.06	0.266	0.03168688481730615	
3.065	0.319	0.1190019745271658	
3.07	0.316	0.19529934574173624	
3.075	0.339	0.25741397715008085	
3.08	0.337	0.30241210558214165	
3.085	0.313	0.32830192430465976	
3.09	0.395	0.3440054902797852	
3.095	0.432	0.3596936316678573	
3.1	0.388	0.3755704056595175	
3.105	0.351	0.386565626372422	
3.11	0.394	0.3896800893115182	
3.115	0.386	0.3890072750781599	
3.12	0.392	0.3883222917137934	
3.125	0.508	0.3954180214508612	
3.13	0.527	0.41443562413944973	
3.135	0.487	0.44133526151161284	
3.14	0.475	0.46496914304713943	
3.145	0.525	0.48165951959112263	
3.15	0.371	0.487616786610407	
3.155	0.145	0.4655498696262534	
3.16	-0.028	0.39957552142046804	
3.165	-0.115	0.2910185109659911	
3.17	-0.168	0.16339955251170035	
3.175	-0.223	0.041362654476038936	
3.18	-0.271	-0.06761132120814131	
3.185	-0.341	-0.16057345258628258	
3.19	-0.367	-0.2370039565888806	
3.195	-0.362	-0.29640696910929176	
3.2	-0.437	-0.34334118027919047	
3.205	-0.471	-0.3803612777738132	
3.21	-0.474	-0.4134340308763926	
3.215	-0.508	-0.44298927171925806	
3.22	-0.498	-0.46855885335654157	
3.225	-0.472	-0.4836513784638837	
3.23	-0.456	-0.4906463522266984	
3.235	-0.466	-0.489553155223955	
3.24	-0.532	-0.4860043077079363	
3.245	-0.547	-0.49045789753959146	
3.25	-0.572	-0.5043524303158231	
3.255	-0.527	-0.5203257662427974	
3.26	-0.440	-0.5264273021048961	
3.265	-0.405	-0.5170056272288293	
3.27	-0.359	-0.49154584109171506	
3.275	-0.303	-0.45263373138642626	
3.28	-0.297	-0.40867090138517115	
3.285	-0.303	-0.367578476628466	
3.29	-0.222	-0.3309808777673816	
3.295	-0.164	-0.2934295527885237	
3.3	-0.176	-0.25536677241581485	
3.305	-0.213	-0.2223536249038039	
3.31	-0.187	-0.20143490351342508	
3.315	-0.188	-0.19001152066213306	
3.32	-0.182	-0.18356353718717142	
3.325	-0.179	-0.17964256157285013	
3.33	-0.168	-0.17766216962568593	
3.335	-0.182	-0.17656810067957956	
3.34	-0.145	-0.17398296504853988	
3.345	-0.113	-0.1674368978828707	
3.35	-0.121	-0.1573594445483127	
3.355	-0.135	-0.1453371400091874	
3.36	-0.115	-0.13543491945401182	
3.365	-0.130	-0.12901993705616713	
3.37	-0.089	-0.12355510684034161	
3.375	-0.026	-0.11262762459991355	
3.38	0.064	-0.09065771549556367	
3.385	0.093	-0.05456282944709199	
3.39	0.096	-0.009977598359462127	
3.395	-0.060	0.024538264010098416	
3.4	-0.324	0.019584235161053523	
3.405	-0.520	-0.04237728099810436	
3.41	-0.601	-0.15543309433912225	
3.415	-0.616	-0.2900048869001425	
3.42	-0.524	-0.41254327541314856	
3.425	-0.401	-0.4905938313026041	
3.43	-0.202	-0.5096107939059599	
3.435	-0.077	-0.4655493150736227	
3.44	0.013	-0.37397704347633515	
3.445	0.180	-0.25242142681964846	
3.45	0.204	-0.12136452333610734	
3.455	0.223	0.0036357706455868288	
3.46	0.282	0.1085579732351766	
3.465	0.348	0.19098203191540877	
3.47	0.432	0.26143177799643524	
3.475	0.507	0.328370357929309	
3.48	0.505	0.3903362621160163	
3.485	0.492	0.4403974592699368	
3.49	0.495	0.47601155720937255	
3.495	0.599	0.5025857239366995	
3.5	0.516	0.5226184113131154	
3.505	0.389	0.5306310303471446	
3.51	0.446	0.5175784441164375	
3.515	0.461	0.49498692222765955	
3.52	0.534	0.48044429450846626	
3.525	0.693	0.4873997232655694	
3.53	0.764	0.5253483291111409	
3.535	0.728	0.5814176280795413	
3.54	0.643	0.6350157244970382	
3.545	0.641	0.6675296639308991	
3.55	0.605	0.6756111501477562	
3.555	0.597	0.6676970589391243	
3.56	0.534	0.6495644413034778	
3.565	0.360	0.612920625324092	
3.57	0.232	0.5504447704891486	
3.575	0.067	0.46038407354956573	
3.58	-0.023	0.3462777221380366	
3.585	-0.060	0.22342416514416918	
3.59	-0.087	0.11210109706348197	
3.595	-0.097	0.021553954163858875	
3.6	-0.135	-0.04641676451806537	
3.605	-0.135	-0.094268497057118	
3.61	-0.089	-0.12237969043904103	
3.615	-0.115	-0.13409094042642383	
3.62	-0.104	-0.13555449241779052	
3.625	-0.058	-0.12654946331027128	
3.63	-0.063	-0.11370942691594942	
3.635	-0.084	-0.09863588071914195	
3.64	0.009	-0.08289969137307454	
3.645	0.122	-0.056404906793768916	
3.65	0.107	-0.018445861434723043	
3.655	0.105	0.024683892072789156	
3.66	0.197	0.06663724707260159	
3.665	0.201	0.10592144638633319	
3.67	0.177	0.14140560210393016	
3.675	0.194	0.16843176025642126	
3.68	0.157	0.18330954386276593	
3.685	0.117	0.18435620562790614	
3.69	0.102	0.175069640944149	
3.695	0.172	0.16159483134877567	
3.7	0.078	0.1475660704059039	
3.705	0.036	0.13066914869744706	
3.71	0.042	0.10862637288279928	
3.715	0.000	0.08193778715198458	
3.72	-0.022	0.05441269995265298	
3.725	-0.042	0.028426022336278618	
3.73	-0.077	0.0013239736187642256	
3.735	-0.097	-0.026628592245194798	
3.74	-0.057	-0.04893120548333371	
3.745	0.000	-0.06139418744564066	
3.75	-0.040	-0.06142238646320349	
3.755	-0.089	-0.05733902921430024	
3.76	-0.048	-0.05637512551718791	
3.765	-0.058	-0.05705226715242577	
3.77	-0.083	-0.05858954611827675	
3.775	-0.048	-0.06058391156238582	
3.78	-0.071	-0.06167115995605035	
3.785	-0.055	-0.06361609766351095	
3.79	0.047	-0.05693879752757078	
3.795	-0.028	-0.04340773120117433	
3.8	-0.320	-0.04443749547250446	
3.805	-0.590	-0.09439986109352719	
3.81	-0.702	-0.2024253089190112	
3.815	-0.747	-0.34500653772503814	
3.82	-0.811	-0.4905575945915664	
3.825	-0.790	-0.6166264515781046	
3.83	-0.665	-0.7066290018272259	
3.835	-0.569	-0.7445106411944966	
3.84	-0.550	-0.7339702626428919	
3.845	-0.486	-0.6924748640146654	
3.85	-0.517	-0.6393392870690041	
3.855	-0.587	-0.592310057667538	
3.86	-0.569	-0.562504994697778	
3.865	-0.584	-0.5520382183863536	
3.87	-0.541	-0.5504733055705155	
3.875	-0.433	-0.5436572255037535	
3.88	-0.446	-0.5257315069413548	
3.885	-0.407	-0.500490742120774	
3.89	-0.352	-0.46995268524657124	
3.895	-0.291	-0.43153873732392845	
3.9	-0.317	-0.39232317663433136	
3.905	-0.362	-0.3592637040018322	
3.91	-0.364	-0.3405472482051545	
3.915	-0.373	-0.33704272630902965	
3.92	-0.313	-0.3394265216518568	
3.925	-0.258	-0.33468656431662236	
3.93	-0.211	-0.31875209547275296	
3.935	-0.141	-0.2914427028185444	
3.94	-0.116	-0.25095765933742215	
3.945	-0.068	-0.2055756002537612	
3.95	-0.081	-0.16130454685316997	
3.955	-0.098	-0.12424858211015799	
3.96	-0.063	-0.0985608189419438	
3.965	-0.130	-0.08504029953091978	
3.97	-0.165	-0.08443250323092197	
3.975	-0.187	-0.09871590869596798	
3.98	-0.181	-0.12076014708635495	
3.985	-0.171	-0.14242793167991674	
3.99	-0.240	-0.1619658393849632	
3.995	-0.266	-0.1836009644028656	
4.0	-0.274	-0.20929154900650018	
4.005	-0.274	-0.233212742191949	
4.01	-0.320	-0.25456794818361606	
4.015	-0.303	-0.2740573033582594	
4.02	-0.234	-0.2873914905097331	
4.025	-0.258	-0.28667302059449623	
4.03	-0.286	-0.2827959171545444	
4.035	-0.310	-0.2814723061698877	
4.04	-0.249	-0.28091767779866017	
4.045	-0.196	-0.27555527082301823	
4.05	-0.194	-0.26134861285341876	
4.055	-0.122	-0.23822684805962396	
4.06	-0.019	-0.2034834324713521	
4.065	0.000	-0.1570687015228125	
4.07	0.072	-0.10247390426985499	
4.075	0.166	-0.041628384514978085	
4.08	0.243	0.025264231531537066	
4.085	0.253	0.09446309112067508	
4.09	0.278	0.1590548050634453	
4.095	0.363	0.2164990509271972	
4.1	0.414	0.2686281024435292	
4.105	0.400	0.3187205654611852	
4.11	0.466	0.36254411819972576	
4.115	0.470	0.39993292737106634	
4.12	0.516	0.43248045033257204	
4.125	0.541	0.46439228544776945	
4.13	0.547	0.49228143652700534	
4.135	0.556	0.5154137146179167	
4.14	0.568	0.536073163624682	
4.145	0.594	0.5525522055815855	
4.15	0.574	0.5645713110605878	
4.155	0.628	0.5766975717697276	
4.16	0.707	0.5936397803285907	
4.165	0.735	0.6199260915944066	
4.17	0.754	0.6534002433323892	
4.175	0.764	0.689454978084977	
4.18	0.819	0.7223268442120339	
4.185	0.929	0.7573258669629642	
4.19	1.028	0.8071077731780144	
4.195	1.091	0.8706584657062552	
4.2	0.877	0.9284719396052541	
4.205	0.576	0.9445862771053076	
4.21	0.414	0.8906903560164687	
4.215	0.362	0.7808917214732611	
4.22	0.501	0.6573357351431319	
4.225	0.822	0.5786012705184547	
4.23	1.104	0.5814380347412484	
4.235	1.228	0.6712469903595449	
4.24	1.459	0.8241230764259154	
4.245	1.729	1.018750501459245	
4.25	1.769	1.2334364655330052	
4.255	1.688	1.4325752763095365	
4.26	1.677	1.581756322218265	
4.265	1.566	1.666845547310817	
4.27	1.474	1.6912420269818078	
4.275	1.476	1.6685649956835222	
4.28	1.393	1.6173605894402097	
4.285	1.307	1.5491802415447058	
4.29	1.253	1.4741454907008191	
4.295	1.210	1.3967294352677682	
4.3	1.142	1.3223960736754456	
4.305	1.173	1.256661155143405	
4.31	1.248	1.2128519273337108	
4.315	1.220	1.190844467187522	
4.32	1.188	1.1862676808201797	
4.325	1.165	1.1856213177171862	
4.33	1.034	1.1753321450832348	
4.335	0.973	1.1471373688094686	
4.34	0.952	1.104179970170788	
4.345	0.938	1.0557481814396144	
4.35	0.814	1.0033513309803062	
4.355	0.721	0.9446403577430299	
4.36	0.745	0.8808634856921931	
4.365	0.571	0.8138234813213353	
4.37	0.513	0.7412376811897303	
4.375	0.539	0.6696418554439225	
4.38	0.482	0.6053808662218159	
4.385	0.322	0.5451385766929182	
4.39	0.241	0.47913600208026386	
4.395	0.255	0.40775842390595085	
4.4	0.208	0.3394091807886135	
4.405	0.146	0.28262916734242427	
4.41	0.114	0.2308229748588624	
4.415	0.039	0.18086099836694022	
4.42	0.023	0.13327160903055996	
4.425	0.107	0.0946003330749044	
4.43	0.068	0.07237799421968694	
4.435	0.036	0.05919236549782807	
4.44	0.041	0.052124396737169267	
4.445	0.166	0.05173003488086201	
4.45	0.142	0.06445379468598347	
4.455	0.163	0.08763292824082057	
4.46	0.252	0.11776847614819938	
4.465	0.156	0.14689264314786699	
4.47	0.124	0.16529643223361035	
4.475	0.127	0.17050735759386615	
4.48	0.128	0.16336412278751306	
4.485	0.097	0.15127611026774201	
4.49	0.024	0.13507786067257938	
4.495	-0.003	0.1086474940625626	
4.5	-0.038	0.07351197868576792	
4.505	-0.089	0.03465759459437032	
4.51	-0.086	-0.0033075855005347187	
4.515	-0.133	-0.041086272131319795	
4.52	-0.159	-0.07562696748726366	
4.525	-0.116	-0.10351984888774952	
4.53	-0.089	-0.12065891109758076	
4.535	-0.106	-0.1266652647458042	
4.54	-0.130	-0.12491641239545699	
4.545	-0.136	-0.12339435309588902	
4.55	-0.161	-0.12746481210424004	
4.555	-0.153	-0.13331917844271374	
4.56	-0.133	-0.13833873783672232	
4.565	-0.127	-0.1420870577174589	
4.57	-0.132	-0.1416006386709086	
4.575	-0.068	-0.13453226735590174	
4.58	-0.002	-0.11967622709181198	
4.585	-0.034	-0.09565390516080768	
4.59	-0.060	-0.07191493874259594	
4.595	-0.164	-0.06041909800878496	
4.6	-0.349	-0.07949080058583585	
4.605	-0.488	-0.13533705023548445	
4.61	-0.483	-0.2203490393247166	
4.615	-0.495	-0.3130775771673514	
4.62	-0.488	-0.3905762630711918	
4.625	-0.379	-0.4415218093816905	
4.63	-0.329	-0.4576716530335262	
4.635	-0.254	-0.4416282677800763	
4.64	-0.171	-0.39789504258766084	
4.645	-0.110	-0.33541226664211177	
4.65	-0.092	-0.26645747556256655	
4.655	-0.043	-0.19830544861934557	
4.66	-0.009	-0.13536452964850124	
4.665	-0.074	-0.08710576493724567	
4.67	-0.103	-0.05960255073388665	
4.675	-0.107	-0.05155802841458503	
4.68	-0.135	-0.05969069961463845	
4.685	-0.155	-0.07764539044379784	
4.69	-0.121	-0.09691943315459231	
4.695	-0.066	-0.11039315376396715	
4.7	-0.116	-0.11443409479337747	
4.705	-0.115	-0.11433466273830918	
4.71	-0.126	-0.11336465125567965	
4.715	-0.100	-0.11505527354037448	
4.72	-0.051	-0.11159660662797728	
4.725	0.050	-0.09556160162484403	
4.73	0.087	-0.06364220625813727	
4.735	0.062	-0.024642999742256352	
4.74	0.044	0.012024624372568895	
4.745	0.097	0.039613931236760214	
4.75	-0.005	0.05558777656822999	
4.755	-0.032	0.05661306290372778	
4.76	-0.011	0.04362185656485338	
4.765	-0.057	0.022998632502197743	
4.77	-0.095	-0.0016219124383526752	
4.775	-0.072	-0.027626536485892934	
4.78	-0.060	-0.048602133182479926	
4.785	-0.106	-0.06559877812175219	
4.79	-0.187	-0.08103291945676211	
4.795	-0.222	-0.10640108913129205	
4.8	-0.248	-0.14034616726781074	
4.805	-0.258	-0.17638805331141832	
4.81	-0.228	-0.20640982292310878	
4.815	-0.213	-0.22595602777909551	
4.82	-0.171	-0.23259492238355908	
4.825	-0.116	-0.22265861110321541	
4.83	-0.106	-0.20059195759164644	
4.835	-0.110	-0.17458192815667384	
4.84	-0.100	-0.14705843408846764	
4.845	-0.072	-0.12438530177772476	
4.85	-0.071	-0.10532101037287582	
4.855	-0.042	-0.08842730518402862	
4.86	-0.019	-0.07041530772525917	
4.865	-0.100	-0.05792819180135543	
4.87	-0.145	-0.058655147086179034	
4.875	0.079	-0.0606895009006062	
4.88	1.025	-0.0034538090419689834	
4.885	1.694	0.20158502277216112	
4.89	2.018	0.5619871987584003	
4.895	2.048	0.9945427647627672	
4.9	1.864	1.3915872332329988	
4.905	1.729	1.675537585275518	
4.91	1.608	1.8275078777618274	
4.915	1.408	1.8569477328215371	
4.92	1.254	1.7903720055794237	
4.925	1.086	1.6593610846222577	
4.93	0.889	1.4873436661379875	
4.935	0.779	1.295379291424262	
4.94	0.806	1.1130599336629796	
4.945	0.809	0.9656523757847292	
4.95	0.640	0.8555897973897015	
4.955	0.510	0.7636258460625909	
4.96	0.516	0.6786527892349248	
4.965	0.481	0.6039808490525733	
4.97	0.409	0.5423815943856447	
4.975	0.411	0.4924247634502155	
4.98	0.279	0.44635861684350564	
4.985	-0.060	0.3823299385827561	
4.99	-0.335	0.2729910111005252	
4.995	-0.515	0.11158047200303492	
5.0	-0.596	-0.07940327556013727	
5.005	-0.564	-0.26330586290076474	
5.01	-0.439	-0.4043427432816036	
5.015	-0.338	-0.482011609404179	
5.02	-0.200	-0.49153506875176817	
5.025	-0.092	-0.4435635488036519	
5.03	-0.034	-0.3576895752687912	
5.035	-0.022	-0.25860563260352765	
5.04	0.006	-0.16393606692083135	
5.045	0.088	-0.08346628353800116	
5.05	0.226	-0.011414539037540998	
5.055	0.347	0.06774407841758251	
5.06	0.415	0.1565954079843097	
5.065	0.350	0.2408739616784038	
5.07	0.308	0.3034475301785734	
5.075	0.302	0.33742743845249346	
5.08	0.293	0.3472462286902446	
5.085	0.185	0.3363900475754348	
5.09	0.104	0.3061076762313935	
5.095	0.125	0.2575111198550143	
5.1	0.117	0.20756275884931707	
5.105	0.160	0.16879012682142008	
5.11	0.258	0.15160351400264457	
5.115	0.261	0.15685910493376262	
5.12	0.275	0.17951609737684027	
5.125	0.305	0.21046235495680435	
5.13	0.198	0.2351791860036675	
5.135	0.070	0.23939186369105722	
5.14	0.032	0.21516254123738932	
5.145	-0.014	0.1694661765620915	
5.15	-0.089	0.1105255462698528	
5.155	-0.141	0.04683120840343557	
5.16	-0.161	-0.017423019356045955	
5.165	-0.242	-0.07919419938382986	
5.17	-0.295	-0.138444371639377	
5.175	-0.309	-0.19352099214433674	
5.18	-0.376	-0.24485611653711403	
5.185	-0.385	-0.292560259118544	
5.19	-0.394	-0.33177867407444334	
5.195	-0.405	-0.36256724072685276	
5.2	-0.423	-0.38748264402348787	
5.205	-0.420	-0.4041194496046381	
5.21	-0.355	-0.41242857936573046	
5.215	-0.338	-0.4092219702167561	
5.22	-0.323	-0.3944140141689412	
5.225	-0.268	-0.37050311153372556	
5.23	-0.266	-0.3438929668671261	
5.235	-0.269	-0.3165671232004912	
5.24	-0.262	-0.29275350946164386	
5.245	-0.234	-0.27459481502032657	
5.25	-0.240	-0.2605126630291609	
5.255	-0.211	-0.24808427655842896	
5.26	-0.188	-0.23442808924852981	
5.265	-0.269	-0.22528133695667915	
5.27	-0.289	-0.2254145453072933	
5.275	-0.284	-0.23547268825751713	
5.28	-0.320	-0.2519236019579624	
5.285	-0.347	-0.2725833144353623	
5.29	-0.356	-0.2947142890010507	
5.295	-0.339	-0.31559129225812776	
5.3	-0.341	-0.3325362189929628	
5.305	-0.338	-0.34106324985240444	
5.31	-0.291	-0.3424078610284642	
5.315	-0.342	-0.33930027213820796	
5.32	-0.384	-0.337410212956921	
5.325	-0.339	-0.3404492609290134	
5.33	-0.326	-0.3439360004682972	
5.335	-0.307	-0.3425846004116585	
5.34	-0.272	-0.3336838067280751	
5.345	-0.232	-0.3176014023658911	
5.35	-0.236	-0.2975616996911806	
5.355	-0.176	-0.2720410607850521	
5.36	-0.095	-0.24039940404407112	
5.365	-0.080	-0.20232501424647703	
5.37	-0.074	-0.16139483418575482	
5.375	-0.161	-0.1284349795885428	
5.38	-0.408	-0.1259998475494114	
5.385	-0.616	-0.17565259886914983	
5.39	-0.700	-0.27467906958486066	
5.395	-0.666	-0.396578988887976	
5.4	-0.540	-0.5025565565949703	
5.405	-0.336	-0.5580002174102069	
5.41	-0.106	-0.5423295872632682	
5.415	0.024	-0.459304332865784	
5.42	0.140	-0.33041532998160084	
5.425	0.236	-0.17941121944163194	
5.43	0.285	-0.03194722605961376	
5.435	0.327	0.09834791395982936	
5.44	0.440	0.2093113734382184	
5.445	0.476	0.3024416025674689	
5.45	0.363	0.3723885041775752	
5.455	0.285	0.4078737362446838	
5.46	0.342	0.4096311331819522	
5.465	0.392	0.3957187500562069	
5.47	0.473	0.3905562529218606	
5.475	0.530	0.4025833535404576	
5.48	0.551	0.43011033925931946	
5.485	0.588	0.4663600433229572	
5.49	0.634	0.5072880455079816	
5.495	0.649	0.5494676622821271	
5.5	0.588	0.5844164650391686	
5.505	0.635	0.6078668437618119	
5.51	0.739	0.6276549727033522	
5.515	0.621	0.6467419272472332	
5.52	0.499	0.6514878326551703	
5.525	0.429	0.6285149650704331	
5.53	0.379	0.5811544566016391	
5.535	0.214	0.514378877422538	
5.54	0.093	0.42919485997670803	
5.545	0.006	0.32645988000731463	
5.55	-0.052	0.21752172663667385	
5.555	-0.106	0.11485262748007055	
5.56	-0.116	0.026578563550950826	
5.565	-0.142	-0.04518187538975964	
5.57	-0.159	-0.09842775265019203	
5.575	-0.168	-0.13353502577378568	
5.58	-0.223	-0.16084778983580558	
5.585	-0.280	-0.18554919942582332	
5.59	-0.318	-0.21382136929737292	
5.595	-0.291	-0.24357167552239492	
5.6	-0.329	-0.271432873235151	
5.605	-0.347	-0.294149441396915	
5.61	-0.347	-0.31347688520100525	
5.615	-0.390	-0.3321715047169078	
5.62	-0.459	-0.3534143768012428	
5.625	-0.517	-0.381587700715224	
5.63	-0.543	-0.41985990140078544	
5.635	-0.540	-0.4605006829903564	
5.64	-0.543	-0.4938175040369822	
5.645	-0.485	-0.5165959031729019	
5.65	-0.472	-0.5254135740352283	
5.655	-0.456	-0.5191233296123292	
5.66	-0.420	-0.5024905804481251	
5.665	-0.425	-0.4821898294427441	
5.67	-0.428	-0.4613948125257147	
5.675	-0.428	-0.44356449430868966	
5.68	-0.439	-0.4338860807739668	
5.685	-0.451	-0.43052559652527606	
5.69	-0.457	-0.43078929028592416	
5.695	-0.472	-0.4366036962115555	
5.7	-0.463	-0.445473568756506	
5.705	-0.440	-0.4521027782422174	
5.71	-0.436	-0.45343886682679835	
5.715	-0.489	-0.45424653522502534	
5.72	-0.509	-0.45942930580790214	
5.725	-0.544	-0.47148784130945015	
5.73	-0.587	-0.4908920266754967	
5.735	-0.581	-0.5176047384035087	
5.74	-0.553	-0.5397306087403393	
5.745	-0.486	-0.5515260962070556	
5.75	-0.477	-0.548548408743803	
5.755	-0.443	-0.5321265394676378	
5.76	-0.359	-0.5053410856485923	
5.765	-0.475	-0.4752720926935021	
5.77	-0.689	-0.4645307336695058	
5.775	-0.795	-0.4954598727095743	
5.78	-0.818	-0.5618624643012187	
5.785	-0.720	-0.6376489424514428	
5.79	-0.578	-0.6866895234211221	
5.795	-0.402	-0.6894588827078587	
5.8	-0.229	-0.6385730002849606	
5.805	0.012	-0.5341108921151294	
5.81	0.293	-0.37926882586210214	
5.815	0.350	-0.1912873368980896	
5.82	0.288	-0.003561432522850726	
5.825	0.178	0.14057468093925227	
5.83	0.185	0.22410475527710638	
5.835	0.418	0.2672803360370862	
5.84	0.631	0.3163573820723953	
5.845	0.825	0.39757184240428445	
5.85	0.739	0.5023192384591616	
5.855	0.758	0.6038323015100526	
5.86	0.904	0.6877641088481914	
5.865	0.872	0.7596747934627843	
5.87	0.855	0.8164138529096506	
5.875	0.918	0.8566642327031349	
5.88	0.898	0.8831518695580531	
5.885	0.892	0.8982250815246802	
5.89	0.973	0.910322136590476	
5.895	1.013	0.9255816646676011	
5.9	1.043	0.9473294019956091	
5.905	1.075	0.9768437443144055	
5.91	1.063	1.0077725161263826	
5.915	0.906	1.0256621399303605	
5.92	0.730	1.0113851251240331	
5.925	0.629	0.957650789337744	
5.93	0.493	0.8671592863231983	
5.935	0.292	0.7502131415747672	
5.94	0.163	0.6132953712276494	
5.945	-0.066	0.45757735049235093	
5.95	-0.398	0.27831600505205156	
5.955	-0.592	0.07280099555136949	
5.96	-0.669	-0.14422025201712743	
5.965	-0.741	-0.3492585071367508	
5.97	-0.758	-0.5195612122681617	
5.975	-0.743	-0.6453309392211855	
5.98	-0.700	-0.7237814310557552	
5.985	-0.660	-0.7597322221779914	
5.99	-0.624	-0.7577131610972173	
5.995	-0.573	-0.7314086944149505	
6.0	-0.537	-0.6906278615247827	
6.005	-0.445	-0.6391916185655616	
6.01	-0.375	-0.5782405937310106	
6.015	-0.387	-0.5162671479845059	
6.02	-0.373	-0.4596077835936866	
6.025	-0.262	-0.41037628251107916	
6.03	-0.196	-0.3617729708671216	
6.035	-0.124	-0.307751112712781	
6.04	-0.032	-0.2447565790045358	
6.045	0.015	-0.17738870729837064	
6.05	0.055	-0.10961612312165536	
6.055	0.017	-0.04924647322595186	
6.06	0.020	-0.004256189880234504	
6.065	0.001	0.019759564825536795	
6.07	0.027	0.030376393527345866	
6.075	0.124	0.03962206710339149	
6.08	0.175	0.05626123693872781	
6.085	0.128	0.08122807996715826	
6.09	0.110	0.10520935489627731	
6.095	0.134	0.11963177403782241	
6.1	0.151	0.1273868778780798	
6.105	0.252	0.140749067260185	
6.11	0.292	0.1657963662804794	
6.115	0.209	0.19377094627734354	
6.12	0.152	0.21231751176045488	
6.125	0.224	0.21762696542156654	
6.13	0.333	0.22230136699987177	
6.135	0.446	0.24420942782132302	
6.14	0.525	0.29222606955435576	
6.145	0.559	0.35668903609983826	
6.15	0.330	0.4123352111648516	
6.155	-0.066	0.4176407089479539	
6.16	-0.202	0.3437635044314274	
6.165	-0.283	0.2077773040544468	
6.17	-0.226	0.05634939172933903	
6.175	-0.086	-0.06431125630198073	
6.18	-0.005	-0.13169170254053097	
6.185	0.197	-0.13679761953621833	
6.19	0.496	-0.07170421230271443	
6.195	0.837	0.06673706981545303	
6.2	1.057	0.27034055251056466	
6.205	1.162	0.5107289304660909	
6.21	1.436	0.7578426409193049	
6.215	1.411	0.9897167314161621	
6.22	1.344	1.1792722512028515	
6.225	1.289	1.304641761133714	
6.23	1.269	1.3642141531468348	
6.235	1.256	1.376149052672266	
6.24	1.236	1.3602896852831763	
6.245	1.106	1.3246408966186594	
6.25	1.005	1.2662664808788353	
6.255	1.022	1.1957965841831584	
6.26	1.115	1.1338788872601362	
6.265	1.065	1.0916883776721331	
6.27	1.022	1.0663407076402276	
6.275	1.141	1.0547405836940873	
6.28	1.060	1.054216026259886	
6.285	0.984	1.0551323611131256	
6.29	0.941	1.0453049477933738	
6.295	0.935	1.0226496761458561	
6.3	0.927	0.9932844399134585	
6.305	0.855	0.9658036155776902	
6.31	0.800	0.9328308640438917	
6.315	0.629	0.8856525650981779	
6.32	0.573	0.8203572923477784	
6.325	0.544	0.7447313712457726	
6.33	0.476	0.6681862667083887	
6.335	0.423	0.5951609834549447	
6.34	0.366	0.5283442598558623	
6.345	0.383	0.4686341287784307	
6.35	0.296	0.41827637845312937	
6.355	0.201	0.3708258229178895	
6.36	0.140	0.3188213318546499	
6.365	0.073	0.2586457848593041	
6.37	0.125	0.20040163601032274	
6.375	0.318	0.1657613586130056	
6.38	0.261	0.16418187531693032	
6.385	0.233	0.18216342556864526	
6.39	0.285	0.20533452881618292	
6.395	0.319	0.23062468462100846	
6.4	0.221	0.2522889284861468	
6.405	0.220	0.261796954485088	
6.41	0.295	0.2638030435778268	
6.415	0.301	0.2657183659454983	
6.42	0.299	0.27239445941342844	
6.425	0.334	0.28364359144694445	
6.43	0.287	0.29420498490329683	
6.435	0.229	0.2962384708518895	
6.44	0.137	0.28523265106407103	
6.445	0.117	0.2555768005838286	
6.45	0.094	0.21340711076480212	
6.455	0.039	0.17078930951917598	
6.46	-0.026	0.1257113804065058	
6.465	-0.078	0.07476749870917637	
6.47	-0.071	0.024432805887253422	
6.475	-0.008	-0.014406960893494731	
6.48	0.015	-0.034764432600217735	
6.485	0.001	-0.037705124442083585	
6.49	0.004	-0.03079298829755609	
6.495	0.056	-0.018418457294481574	
6.5	0.073	-0.0005499607282259452	
6.505	0.128	0.023766432310133704	
6.51	0.163	0.054697549968413	
6.515	0.156	0.08681298044615142	
6.52	0.159	0.11541369571576054	
6.525	0.211	0.14153331162595884	
6.53	0.128	0.16025528849730955	
6.535	-0.107	0.155285386734214	
6.54	-0.297	0.10810652825014033	
6.545	-0.384	0.014569088248144155	
6.55	-0.422	-0.10348662526286159	
6.555	-0.410	-0.21726109485450176	
6.56	-0.336	-0.30531846381075134	
6.565	-0.254	-0.3550952609086259	
6.57	-0.170	-0.3605515083640862	
6.575	-0.038	-0.32550737240145866	
6.58	0.116	-0.2536989568642863	
6.585	0.224	-0.1536280407587876	
6.59	0.295	-0.0358886032251146	
6.595	0.337	0.0825570493992991	
6.6	0.287	0.18252195644848943	
6.605	0.224	0.25068715656752316	
6.61	0.198	0.2816075850224454	
6.615	0.145	0.2788898171866109	
6.62	0.116	0.2544289860365497	
6.625	0.119	0.219443527837284	
6.63	0.099	0.18129512783832374	
6.635	0.093	0.14738226991303605	
6.64	0.064	0.12109612990592813	
6.645	0.046	0.0975662326721631	
6.65	0.061	0.07755600076714828	
6.655	0.110	0.06671770574938671	
6.66	0.267	0.07465062528236487	
6.665	0.233	0.10391798448924376	
6.67	0.172	0.14141334847881104	
6.675	0.209	0.17142851120202485	
6.68	0.096	0.18529586975249854	
6.685	0.036	0.1773599262661995	
6.69	0.046	0.15206724974828584	
6.695	0.042	0.11858337604328434	
6.7	-0.055	0.08357920326331683	
6.705	-0.089	0.04367156458928908	
6.71	-0.113	0.0006056437837024089	
6.715	-0.187	-0.04404218089423017	
6.72	-0.254	-0.09257379865863162	
6.725	-0.248	-0.14162019592544364	
6.73	-0.291	-0.188659069909367	
6.735	-0.312	-0.2295651444076718	
6.74	-0.313	-0.26398869348947174	
6.745	-0.280	-0.28743933950454514	
6.75	-0.271	-0.3003238080193301	
6.755	-0.248	-0.29933865146499083	
6.76	-0.193	-0.2874658414790783	
6.765	-0.217	-0.26897226970513555	
6.77	-0.199	-0.24853847331331883	
6.775	-0.148	-0.22671031959353827	
6.78	-0.147	-0.2036379754704764	
6.785	-0.165	-0.18449968716773318	
6.79	-0.176	-0.17007547169714055	
6.795	-0.176	-0.16347456436197255	
6.8	-0.182	-0.16324047673197462	
6.805	-0.181	-0.16638498791704415	
6.81	-0.171	-0.16953829393043346	
6.815	-0.257	-0.17588837328108103	
6.82	-0.306	-0.1935388818465108	
6.825	-0.277	-0.21781753265191733	
6.83	-0.300	-0.24356733346930556	
6.835	-0.323	-0.26742254914438157	
6.84	-0.277	-0.285186652758579	
6.845	-0.222	-0.2914548034731295	
6.85	-0.232	-0.2860994643437615	
6.855	-0.226	-0.27247995601176755	
6.86	-0.188	-0.2546250823441536	
6.865	-0.190	-0.23672586528655676	
6.87	-0.194	-0.2195355973409449	
6.875	-0.174	-0.20397738091225454	
6.88	-0.148	-0.19147289058270017	
6.885	-0.168	-0.17932551726624124	
6.89	-0.177	-0.17135340143910813	
6.895	-0.167	-0.16647361665658675	
6.9	-0.138	-0.16394615807033522	
6.905	-0.086	-0.15756192544065611	
6.91	0.029	-0.1367113338380274	
6.915	-0.084	-0.10757068874900369	
6.92	-0.300	-0.09356179723065028	
6.925	-0.459	-0.12218687775225742	
6.93	-0.530	-0.19339135615057532	
6.935	-0.527	-0.28819159325472565	
6.94	-0.448	-0.3755014169021502	
6.945	-0.330	-0.428463879813623	
6.95	-0.220	-0.43772174021137206	
6.955	-0.103	-0.4026455566653497	
6.96	0.078	-0.325854186566903	
6.965	0.181	-0.21736512307429115	
6.97	0.215	-0.09449436976846622	
6.975	0.350	0.02862409734843714	
6.98	1.770	0.2077816863462229	
6.985	2.979	0.5742012436833397	
6.99	3.081	1.146476843812241	
6.995	3.084	1.7812302427826712	
7.0	2.991	2.3291720842783783	
7.005	2.710	2.7114108562902364	
7.01	2.441	2.9009535385436656	
7.015	2.085	2.9042896323489105	
7.02	1.815	2.7586035182068707	
7.025	1.663	2.5188756294197856	
7.03	1.463	2.2414163998911203	
7.035	1.329	1.9628134601536154	
7.04	1.327	1.7157805938173991	
7.045	1.314	1.5224394593540773	
7.05	1.223	1.3849860196616715	
7.055	1.124	1.2866302745048157	
7.06	1.068	1.211321694519651	
7.065	0.878	1.1411500683837048	
7.07	0.701	1.0575388612121204	
7.075	0.641	0.9571465843183039	
7.08	0.450	0.8433503822625377	
7.085	0.224	0.7125778604981963	
7.09	0.047	0.5608997286661486	
7.095	-0.051	0.3954781511763158	
7.1	-0.144	0.23177312876882747	
7.105	-0.190	0.08369281863298311	
7.11	-0.194	-0.036510570341700445	
7.115	-0.274	-0.1289731043251173	
7.12	-0.280	-0.1984874917534854	
7.125	-0.136	-0.23965856165069052	
7.13	-0.034	-0.24266718902326898	
7.135	-0.011	-0.21051089364247655	
7.14	0.026	-0.15596653565082008	
7.145	0.070	-0.09549244139669927	
7.15	-0.003	-0.04138086005163068	
7.155	-0.023	-0.005293200702403304	
7.16	-0.042	0.010546888804422743	
7.165	-0.107	0.0049066044212701075	
7.17	-0.162	-0.01752295765000656	
7.175	-0.121	-0.05057878610614453	
7.18	-0.132	-0.0817421286200703	
7.185	-0.182	-0.10958573487701534	
7.19	-0.161	-0.1318740113438233	
7.195	-0.176	-0.15048260472505381	
7.2	-0.245	-0.1674591331536148	
7.205	-0.234	-0.18522881938734215	
7.21	-0.229	-0.2033893893616253	
7.215	-0.272	-0.22015977419105362	
7.22	-0.292	-0.23651221991237673	
7.225	-0.298	-0.2535106610545718	
7.23	-0.341	-0.27280101139150037	
7.235	-0.379	-0.29462630791681965	
7.24	-0.371	-0.31780106456112545	
7.245	-0.341	-0.3384920719912262	
7.25	-0.373	-0.3525163631202858	
7.255	-0.378	-0.36217126067637145	
7.26	-0.356	-0.36736549972140986	
7.265	-0.388	-0.3712315787111969	
7.27	-0.361	-0.37348844002995235	
7.275	-0.303	-0.37044794511374024	
7.28	-0.297	-0.3588466756321419	
7.285	-0.268	-0.3416414959070888	
7.29	-0.249	-0.3187410698718651	
7.295	-0.344	-0.29952045839711244	
7.3	-0.556	-0.3055965276243813	
7.305	-0.740	-0.3521770658061856	
7.31	-0.801	-0.4403579757126751	
7.315	-0.775	-0.5472546702679637	
7.32	-0.659	-0.6374606661170681	
7.325	-0.449	-0.6803793039124216	
7.33	-0.269	-0.6608255808495664	
7.335	-0.190	-0.5846439615607741	
7.34	-0.141	-0.4747191606381178	
7.345	-0.098	-0.35852075962607544	
7.35	-0.095	-0.25660815432517914	
7.355	-0.057	-0.17413420871860597	
7.36	0.093	-0.10632570718679146	
7.365	0.223	-0.03828925160795829	
7.37	0.264	0.03952105678596686	
7.375	0.278	0.11860251687904255	
7.38	0.212	0.18307705408936462	
7.385	0.238	0.22329929084954345	
7.39	0.311	0.24934044034361366	
7.395	0.328	0.2704937070868546	
7.4	0.337	0.2903429493053741	
7.405	0.395	0.311910361389682	
7.41	0.466	0.338732471463651	
7.415	0.398	0.36764072019932226	
7.42	0.427	0.3924725064573785	
7.425	0.489	0.4136824956961038	
7.43	0.464	0.4331115447299139	
7.435	0.379	0.4452334279528477	
7.44	0.357	0.44233469522129454	
7.445	0.385	0.42754323891789714	
7.45	0.243	0.40331963701140283	
7.455	0.097	0.3628534469796473	
7.46	0.065	0.2997318028257462	
7.465	-0.011	0.22166671310002797	
7.47	-0.055	0.1424773465873717	
7.475	-0.063	0.06967123336838825	
7.48	-0.133	0.006116049327943965	
7.485	-0.207	-0.051732765422014805	
7.49	-0.232	-0.10565342720816538	
7.495	-0.236	-0.15447921704302756	
7.5	-0.258	-0.1956580540141488	
7.505	-0.266	-0.22609196195000236	
7.51	-0.223	-0.2452692694663986	
7.515	-0.217	-0.25334775846158797	
7.52	-0.210	-0.25049516156248985	
7.525	-0.167	-0.23933010639735747	
7.53	-0.200	-0.22391804447778213	
7.535	-0.207	-0.21172373421801505	
7.54	-0.170	-0.20163774662780928	
7.545	-0.145	-0.1915023491724523	
7.55	-0.193	-0.18266864647564776	
7.555	-0.190	-0.1770886661807361	
7.56	-0.153	-0.17428554786193778	
7.565	-0.176	-0.1733536162380794	
7.57	-0.187	-0.1724929719664151	
7.575	-0.161	-0.17134450105772805	
7.58	-0.190	-0.17291554491676464	
7.585	-0.220	-0.17671008865692428	
7.59	-0.249	-0.18565288276053382	
7.595	-0.258	-0.2015167448221353	
7.6	-0.274	-0.22065288178107242	
7.605	-0.254	-0.23707368007823104	
7.61	-0.217	-0.2472899784049387	
7.615	-0.258	-0.25135737075684694	
7.62	-0.303	-0.25448635754086635	
7.625	-0.275	-0.261347298336431	
7.63	-0.269	-0.26892373482357695	
7.635	-0.262	-0.27269177815135587	
7.64	-0.225	-0.2696334447377089	
7.645	-0.200	-0.26153003841185346	
7.65	-0.228	-0.24965477494701865	
7.655	-0.211	-0.23605726152920717	
7.66	-0.159	-0.22331074242349652	
7.665	-0.113	-0.20637202918193587	
7.67	-0.005	-0.17743709302334798	
7.675	0.084	-0.1313234688481357	
7.68	-0.187	-0.08698047138723633	
7.685	-0.504	-0.08575241932115756	
7.69	-0.709	-0.1556727976564286	
7.695	-0.735	-0.2845542220554605	
7.7	-0.657	-0.4276206210894202	
7.705	-0.504	-0.5349977249452447	
7.71	-0.315	-0.581285910931006	
7.715	-0.145	-0.5563404675770439	
7.72	0.001	-0.46940002480557386	
7.725	0.142	-0.33834312292634117	
7.73	0.142	-0.1929898613710076	
7.735	0.157	-0.05968235365146887	
7.74	0.192	0.048372752400478516	
7.745	0.273	0.12940672487620875	
7.75	0.316	0.19334748006600563	
7.755	0.307	0.24598775081760293	
7.76	0.340	0.28564190152332164	
7.765	0.310	0.31058423687563375	
7.77	0.353	0.3266018862160105	
7.775	0.460	0.34367012440704126	
7.78	0.443	0.36599043217360183	
7.785	0.397	0.3903368843551895	
7.79	0.440	0.4084152393572651	
7.795	0.492	0.4233945164182603	
7.8	0.515	0.4403421208351002	
7.805	0.594	0.46703376075010006	
7.81	0.672	0.5026524337464477	
7.815	0.525	0.5405613155300423	
7.82	0.386	0.5565960543690918	
7.825	0.426	0.5426334524452505	
7.83	0.392	0.5099696806074578	
7.835	0.362	0.47139420028942924	
7.84	0.299	0.43241143610262617	
7.845	0.152	0.3843228197424833	
7.85	-0.048	0.3143600836507783	
7.855	-0.115	0.2200430193497562	
7.86	-0.119	0.11558089326847203	
7.865	-0.190	0.016608997059801428	
7.87	-0.185	-0.0662969283354454	
7.875	-0.170	-0.12740397876492057	
7.88	-0.205	-0.1690488911097075	
7.885	-0.265	-0.19752826982304372	
7.89	-0.347	-0.2236227788956759	
7.895	-0.402	-0.2587347313248097	
7.9	-0.454	-0.30254859965994796	
7.905	-0.491	-0.35092235291009877	
7.91	-0.593	-0.40351611115528874	
7.915	-0.676	-0.4643912520444172	
7.92	-0.660	-0.5282398319540753	
7.925	-0.636	-0.5824519037871709	
7.93	-0.599	-0.6200740052832542	
7.935	-0.512	-0.6324591601189493	
7.94	-0.462	-0.6165996934023543	
7.945	-0.411	-0.5807572740352847	
7.95	-0.388	-0.5335333782250418	
7.955	-0.381	-0.4839099331902224	
7.96	-0.344	-0.43852938251111756	
7.965	-0.350	-0.4023948277802014	
7.97	-0.391	-0.37524223524440015	
7.975	-0.413	-0.3634739629424154	
7.98	-0.428	-0.3681112653695594	
7.985	-0.384	-0.37847447712646254	
7.99	-0.358	-0.38457977309159086	
7.995	-0.320	-0.38176618239460136	
8.0	-0.333	-0.37256409804645024	
8.005	-0.358	-0.35987976778786945	
8.01	-0.359	-0.3525062516461999	
8.015	-0.364	-0.35144653614652355	
8.02	-0.349	-0.3512272060413377	
8.025	-0.294	-0.34839137414181576	
8.03	-0.287	-0.34014322173039746	
8.035	-0.272	-0.3255257510412267	
8.04	-0.228	-0.3065118155083604	
8.045	-0.196	-0.2837640402012614	
8.05	-0.130	-0.2556443929954563	
8.055	-0.074	-0.21781932947271476	
8.06	-0.109	-0.17644026005885238	
8.065	-0.359	-0.15556531889744515	
8.07	-0.598	-0.18129645582436954	
8.075	-0.702	-0.26332744686594034	
8.08	-0.692	-0.38117875081399133	
8.085	-0.588	-0.49156827809618575	
8.09	-0.454	-0.5613872267831015	
8.095	-0.306	-0.5757131045340169	
8.1	-0.190	-0.5357297307694138	
8.105	-0.016	-0.44776106063518994	
8.11	0.156	-0.3253421055632264	
8.115	0.177	-0.18463374584534079	
8.12	0.259	-0.04427954448270602	
8.125	0.411	0.0838082042240489	
8.13	0.438	0.20075674869478072	
8.135	0.533	0.3053084819114049	
8.14	0.673	0.4016711536016921	
8.145	0.735	0.49527891283479314	
8.15	0.779	0.5831353851897219	
8.155	0.828	0.6642455448348366	
8.16	0.881	0.7347105454065523	
8.165	0.741	0.7862802975680978	
8.17	0.681	0.8076805796004112	
8.175	0.793	0.8038821658181995	
8.18	0.825	0.7947646655008999	
8.185	0.897	0.7972802242729249	
8.19	1.040	0.8217186298847785	
8.195	1.046	0.8673106124197626	
8.2	1.005	0.9190988899283866	
8.205	1.028	0.9652330118507744	
8.21	1.051	0.9997392946738014	
8.215	0.895	1.0162880894580169	
8.22	0.805	1.005658290998067	
8.225	0.808	0.9688740428347486	
8.23	0.576	0.9087727071676319	
8.235	0.325	0.8162293683225683	
8.24	0.220	0.6886335631102094	
8.245	0.168	0.541338666524294	
8.25	0.065	0.396180687552413	
8.255	-0.005	0.267194275399221	
8.26	-0.019	0.15571059757614417	
8.265	-0.060	0.06640540170626179	
8.27	-0.098	-0.00029506258368564833	
8.275	-0.037	-0.045203516937885505	
8.28	-0.017	-0.06917126188390688	
8.285	0.023	-0.07064108484252277	
8.29	-0.003	-0.0554074640889768	
8.295	-0.051	-0.04073550663611158	
8.3	-0.080	-0.03476785522813203	
8.305	-0.078	-0.03779885755616433	
8.31	-0.055	-0.04536994298532194	
8.315	-0.098	-0.05559375455583431	
8.32	-0.106	-0.06625778221980794	
8.325	-0.089	-0.07624982194663754	
8.33	-0.122	-0.08720944163447478	
8.335	-0.170	-0.09961830243188965	
8.34	-0.223	-0.11841647046566203	
8.345	-0.368	-0.15176822559600534	
8.35	-0.569	-0.21076311307122203	
8.355	-0.708	-0.3028094649337649	
8.36	-0.718	-0.4163997096625146	
8.365	-0.727	-0.5285581443181507	
8.37	-0.731	-0.6202105649643089	
8.375	-0.663	-0.6812706500549548	
8.38	-0.639	-0.7111989288993403	
8.385	-0.637	-0.7135540431897418	
8.39	-0.604	-0.6984298122794212	
8.395	-0.587	-0.6747983801423116	
8.4	-0.514	-0.644683149833712	
8.405	-0.483	-0.6067576573841478	
8.41	-0.440	-0.564465572887745	
8.415	-0.401	-0.5225791024505855	
8.42	-0.347	-0.4781675742488794	
8.425	-0.280	-0.43030840345440335	
8.43	-0.284	-0.3842668127294151	
8.435	-0.257	-0.3405337903406822	
8.44	-0.205	-0.30240383473259186	
8.445	-0.199	-0.2678441014678822	
8.45	-0.284	-0.24370901381930438	
8.455	-0.425	-0.2397421014389019	
8.46	-0.449	-0.26750026386925424	
8.465	-0.388	-0.31161025423213684	
8.47	-0.258	-0.3430969686924808	
8.475	-0.064	-0.3402594581801439	
8.48	0.169	-0.2862990500359135	
8.485	0.423	-0.1754731462559913	
8.49	0.739	-0.006300788445378087	
8.495	0.952	0.20910892217163637	
8.5	1.080	0.44725516495170614	
8.505	1.211	0.6823576591909045	
8.51	1.246	0.8914890273411263	
8.515	1.130	1.0512522803182467	
8.52	1.214	1.1548835310304364	
8.525	1.272	1.215761022626004	
8.53	1.155	1.2466024058406142	
8.535	1.110	1.24844021041256	
8.54	1.168	1.230708507556427	
8.545	1.259	1.2101179452919482	
8.55	1.376	1.2102515963478662	
8.555	1.359	1.2353909695534653	
8.56	1.307	1.2695238525006802	
8.565	1.274	1.2922595430945487	
8.57	1.251	1.3019060380169665	
8.575	1.245	1.298791686954166	
8.58	1.162	1.2815845872779463	
8.585	1.107	1.2534330593955796	
8.59	1.078	1.2147597319650538	
8.595	0.994	1.1670926703000493	
8.6	0.915	1.1111556638138953	
8.605	0.842	1.049419835424891	
8.61	0.771	0.9805913299841228	
8.615	0.600	0.9021908388852637	
8.62	0.453	0.8098773891191962	
8.625	0.429	0.7048787275791187	
8.63	0.287	0.5955716844171408	
8.635	0.191	0.48737710508068377	
8.64	0.143	0.38282816030836664	
8.645	0.049	0.2841248244814673	
8.65	-0.017	0.19209305052964942	
8.655	-0.005	0.11445612349288123	
8.66	-0.054	0.05066276526371537	
8.665	-0.098	-0.0018567721225315709	
8.67	-0.014	-0.03712352656496728	
8.675	0.191	-0.04500960347986985	
8.68	0.143	-0.018428536023056764	
8.685	0.175	0.028295082792531585	
8.69	0.299	0.08487497320570934	
8.695	0.308	0.14517990579079865	
8.7	0.233	0.20000500938488627	
8.705	0.220	0.238401367227883	
8.71	0.217	0.25371590949132483	
8.715	0.114	0.24812655258088664	
8.72	0.059	0.22379064181466218	
8.725	0.160	0.18998599809204414	
8.73	0.146	0.16061081176275832	
8.735	0.091	0.14227497785708793	
8.74	0.130	0.1288448319636562	
8.745	0.073	0.11720012910419286	
8.75	0.068	0.10503348676962103	
8.755	0.094	0.0954019638221299	
8.76	0.124	0.09072252458996781	
8.765	0.012	0.08615639034669986	
8.77	0.073	0.07879374114810259	
8.775	0.224	0.07997236977295008	
8.78	0.136	0.09363606013785084	
8.785	0.107	0.11126927882331646	
8.79	0.171	0.12479056722533065	
8.795	0.221	0.138236566833767	
8.8	0.180	0.1550908002712701	
8.805	0.188	0.1723208937179712	
8.81	0.171	0.18168239379901213	
8.815	0.221	0.1862595266908921	
8.82	0.318	0.19779203770948073	
8.825	0.334	0.22287885863098153	
8.83	0.072	0.24166933526159762	
8.835	-0.156	0.22127509202177748	
8.84	-0.254	0.14867012034702162	
8.845	-0.260	0.04225303721619874	
8.85	-0.295	-0.06780422010630498	
8.855	-0.269	-0.15973474283654907	
8.86	-0.110	-0.2193309996003409	
8.865	0.018	-0.23058822044013627	
8.87	0.252	-0.18520676070405154	
8.875	0.388	-0.0852219549304097	
8.88	0.452	0.0457832871044514	
8.885	0.437	0.18237910601538682	
8.89	0.392	0.29554725534694465	
8.895	0.359	0.36921256345012365	
8.9	0.311	0.40227663113547707	
8.905	0.337	0.40618425834577987	
8.91	0.452	0.3995772129944783	
8.915	0.478	0.4004870577873619	
8.92	0.453	0.41377142705640324	
8.925	0.389	0.42663806338105653	
8.93	0.287	0.4228074874735317	
8.935	0.337	0.403464874113451	
8.94	0.402	0.3835121609271183	
8.945	0.424	0.37423549999042016	
8.95	0.427	0.37737566858401084	
8.955	0.411	0.3881554379636707	
8.96	0.495	0.402522645272309	
8.965	0.513	0.4225401542729897	
8.97	0.501	0.4477755336331714	
8.975	0.467	0.4705848202374319	
8.98	0.438	0.47984452844609976	
8.985	0.351	0.4734918745304328	
8.99	0.279	0.45043928178958137	
8.995	0.200	0.4062053847566017	
9.0	0.067	0.34340665977503537	
9.005	-0.002	0.2651364643778979	
9.01	-0.005	0.180496300267744	
9.015	-0.019	0.10356926540819138	
9.02	-0.072	0.04179882073113928	
9.025	-0.061	-0.006424324214037748	
9.03	-0.098	-0.04314316578278659	
9.035	-0.118	-0.07046949254287638	
9.04	-0.156	-0.09255396344465613	
9.045	-0.185	-0.11581325967504602	
9.05	-0.156	-0.13756543234773266	
9.055	-0.097	-0.1488155466768457	
9.06	-0.074	-0.14752339730530917	
9.065	-0.089	-0.1354705293113758	
9.07	-0.072	-0.11917838128911731	
9.075	-0.054	-0.10141183338562218	
9.08	-0.068	-0.08619252889283704	
9.085	-0.074	-0.07548001956622331	
9.09	0.013	-0.06450785969881968	
9.095	-0.016	-0.05081636884124965	
9.1	-0.100	-0.040611191765449695	
9.105	-0.148	-0.04382768388630233	
9.11	-0.174	-0.06352250535454719	
9.115	-0.167	-0.09348476749473114	
9.12	-0.148	-0.12017329455412053	
9.125	-0.135	-0.13838893438051478	
9.13	-0.205	-0.1511955149393232	
9.135	-0.280	-0.16850028690256813	
9.14	-0.240	-0.190506111214839	
9.145	-0.197	-0.21080024717116078	
9.15	-0.141	-0.21859835145276288	
9.155	-0.122	-0.20880264586457825	
9.16	-0.101	-0.18750103095029436	
9.165	-0.112	-0.16450522453204047	
9.17	-0.115	-0.14219559504616425	
9.175	-0.069	-0.12237105381139898	
9.18	-0.084	-0.10719617500192931	
9.185	-0.104	-0.09552374696376816	
9.19	-0.066	-0.08748225227307835	
9.195	-0.055	-0.08179183737028173	
9.2	-0.051	-0.07465379895628586	
9.205	-0.017	-0.06480070193243706	
9.21	-0.072	-0.05445679269683053	
9.215	-0.281	-0.06155976488791502	
9.22	-0.451	-0.10326268885341643	
9.225	-0.471	-0.1793322110543801	
9.23	-0.480	-0.27216962947756373	
9.235	-0.459	-0.354553247651967	
9.24	-0.356	-0.40944359927714513	
9.245	-0.257	-0.42672627613010927	
9.25	-0.142	-0.4046699000104468	
9.255	-0.032	-0.3438052880353918	
9.26	0.029	-0.2594009856944997	
9.265	0.007	-0.16955970850384536	
9.27	-0.031	-0.09228419398495213	
9.275	-0.011	-0.04029506828349026	
9.28	-0.043	-0.012187521612745613	
9.285	-0.064	-0.0036277924416468223	
9.29	-0.031	-0.007438899797665133	
9.295	-0.060	-0.016720463420962135	
9.3	-0.090	-0.03074624043298876	
9.305	-0.078	-0.04482403319478631	
9.31	0.067	-0.052344926516992435	
9.315	0.061	-0.041555011089027045	
9.32	0.081	-0.01628865721525926	
9.325	0.151	0.017748475538285846	
9.33	0.131	0.05382700038132679	
9.335	0.152	0.08735298041626413	
9.34	0.204	0.11857002390215188	
9.345	0.240	0.14829339737410704	
9.35	0.250	0.17824732018372325	
9.355	0.255	0.20717189576537087	
9.36	0.247	0.22963951743942962	
9.365	0.134	0.23740874235819281	
9.37	0.064	0.22569307779628778	
9.375	0.091	0.19475336041274874	
9.38	-0.037	0.15182213261897035	
9.385	-0.119	0.09834292258459006	
9.39	-0.138	0.03657071615462928	
9.395	-0.150	-0.02670209193146476	
9.4	-0.176	-0.08274161197096484	
9.405	-0.182	-0.12481469190501358	
9.41	-0.176	-0.15535538970762508	
9.415	-0.173	-0.1755726370437231	
9.42	-0.162	-0.18427190706573268	
9.425	-0.084	-0.18023646962801843	
9.43	-0.107	-0.16618647442864543	
9.435	-0.084	-0.14664169106971103	
9.44	-0.072	-0.1244111224372737	
9.445	-0.089	-0.10672619928144915	
9.45	-0.115	-0.09577445032248298	
9.455	-0.106	-0.09080480920943447	
9.46	-0.078	-0.09034679006008581	
9.465	-0.115	-0.09160539198381804	
9.47	-0.087	-0.09328269693748582	
9.475	-0.017	-0.09020897714192709	
9.48	-0.064	-0.0821954384014777	
9.485	-0.119	-0.07467382623691504	
9.49	-0.142	-0.07640186652230996	
9.495	-0.174	-0.09071493518888703	
9.5	-0.217	-0.11479239633264242	
9.505	-0.231	-0.14280066439446	
9.51	-0.200	-0.17032635521457884	
9.515	-0.211	-0.193611831693206	
9.52	-0.194	-0.20528200609825392	
9.525	-0.145	-0.2071892929599099	
9.53	-0.184	-0.2022101829710971	
9.535	-0.213	-0.19568609585990837	
9.54	-0.190	-0.1913636947593912	
9.545	-0.170	-0.1907096119616857	
9.55	-0.176	-0.18782356855572008	
9.555	-0.155	-0.18177021457648918	
9.56	-0.112	-0.17330672197087382	
9.565	-0.098	-0.1596636771575352	
9.57	-0.042	-0.13927220061323992	
9.575	0.003	-0.11114332274663008	
9.58	-0.054	-0.08226077443275467	
9.585	-0.020	-0.0587142452606749	
9.59	0.068	-0.035292618012107604	
9.595	0.293	0.0002990960699544909	
9.6	0.565	0.07314967968996655	
9.605	0.843	0.20131873694022526	
9.61	1.016	0.37774809427127515	
9.615	1.158	0.5792427542710368	
9.62	1.309	0.7867134857449097	
9.625	1.544	0.9899468262875493	
9.63	1.610	1.182687207783248	
9.635	1.584	1.352194865559951	
9.64	1.570	1.480759745720852	
9.645	1.413	1.5522583365357705	
9.65	1.225	1.5599628254032547	
9.655	1.410	1.520303562957594	
9.66	1.712	1.4858648212323158	
9.665	1.706	1.4952384315724383	
9.67	1.578	1.533663712327308	
9.675	1.492	1.563949778350127	
9.68	1.324	1.55968205362262	
9.685	1.210	1.5171938697995904	
9.69	1.153	1.4437759001808508	
9.695	1.005	1.3482836935558133	
9.7	0.922	1.2400287931035665	
9.705	0.906	1.1333263174856631	
9.71	0.811	1.034781985402427	
9.715	0.702	0.9431974407930296	
9.72	0.689	0.8587260405816692	
9.725	0.754	0.7909948530063515	
9.73	0.640	0.7406901896491918	
9.735	0.519	0.6972121283300565	
9.74	0.447	0.6467799007931405	
9.745	0.379	0.5842818564775379	
9.75	0.201	0.5100352787205766	
9.755	0.113	0.42229650250574075	
9.76	0.026	0.3217522416218064	
9.765	-0.068	0.2162309899180342	
9.77	-0.101	0.11573944870048244	
9.775	-0.118	0.027945049996854064	
9.78	-0.196	-0.04630579178057775	
9.785	-0.266	-0.11073303512061151	
9.79	-0.297	-0.1672325188087144	
9.795	-0.323	-0.2197403616068419	
9.8	-0.379	-0.2669161919392261	
9.805	-0.394	-0.30768079223248723	
9.81	-0.361	-0.34127562585848453	
9.815	-0.344	-0.3637514056521731	
9.82	-0.297	-0.36822819717919014	
9.825	-0.234	-0.35607974097382183	
9.83	-0.262	-0.33332844447938476	
9.835	-0.291	-0.3087133702441424	
9.84	-0.251	-0.2882351205578242	
9.845	-0.295	-0.27677573621065554	
9.85	-0.303	-0.27291831111756326	
9.855	-0.280	-0.27365963093465595	
9.86	-0.242	-0.2752928903589804	
9.865	-0.295	-0.27477813409479224	
9.87	-0.344	-0.2772244551534171	
9.875	-0.342	-0.2880955215982507	
9.88	-0.390	-0.30635549772811965	
9.885	-0.422	-0.33068835425892945	
9.89	-0.417	-0.35621637847279697	
9.895	-0.442	-0.3818024477558293	
9.9	-0.469	-0.4069052151593574	
9.905	-0.433	-0.4266256975757918	
9.91	-0.396	-0.4373142524914683	
9.915	-0.398	-0.43778460371216893	
9.92	-0.396	-0.43018397760754057	
9.925	-0.326	-0.4150921928503457	
9.93	-0.324	-0.3963734572418249	
9.935	-0.310	-0.37367023720681475	
9.94	-0.295	-0.3482059334115117	
9.945	-0.307	-0.32882784859351355	
9.95	-0.309	-0.31591799731756975	
9.955	-0.284	-0.30460700083060965	
9.96	-0.254	-0.29631852396411734	
9.965	-0.266	-0.2868222620550007	
9.97	-0.257	-0.27717510773722076	
9.975	-0.310	-0.27006131564861885	
9.98	-0.524	-0.2834333681848543	
9.985	-0.729	-0.3337409785289438	
9.99	-0.795	-0.42316882525268534	
9.995	-0.773	-0.5327991157952833	
10.0	-0.639	-0.6269421129281814	
10.005	-0.433	-0.6705398359796471	
10.01	-0.214	-0.647222975325864	
10.015	-0.106	-0.5628505297596791	
10.02	-0.005	-0.43619777461897025	
10.025	0.142	-0.2909880844190567	
10.03	0.113	-0.15043160115268517	
10.035	0.149	-0.02879141354064966	
10.04	0.342	0.07289160907685215	
10.045	0.464	0.16723925729290098	
10.05	0.437	0.2609554988282613	
10.055	0.411	0.3413888858830681	
10.06	0.427	0.3957673372789416	
10.065	0.371	0.4230857158370679	
10.07	0.405	0.43176857148294023	
10.075	0.501	0.4350576272176389	
10.08	0.486	0.44258185995094773	
10.085	0.515	0.45620702676260283	
10.09	0.620	0.4789255076348558	
10.095	0.579	0.5072335742319993	
10.1	0.476	0.531921513555697	
10.105	0.486	0.5404080686936694	
10.11	0.542	0.5358017889493372	
10.115	0.489	0.5280915094939191	
10.12	0.427	0.5187665514225057	
10.125	0.440	0.5010388639702799	
10.13	0.301	0.47256432154434247	
10.135	0.250	0.43021781221279864	
10.14	0.256	0.3809090607633907	
10.145	0.108	0.32520538028582524	
10.15	0.015	0.2599543634744584	
10.155	-0.040	0.18542746110335015	
10.16	-0.072	0.10876951932326398	
10.165	-0.121	0.03510730991079869	
10.17	-0.121	-0.02619625958162806	
10.175	-0.100	-0.07196698160971009	
10.18	-0.152	-0.10542044001868861	
10.185	-0.203	-0.12975696829574956	
10.19	-0.162	-0.14910838731991036	
10.195	-0.185	-0.16579086053612102	
10.2	-0.268	-0.18101456160508378	
10.205	-0.265	-0.19858602296718159	
10.21	-0.226	-0.21825043943785308	
10.215	-0.190	-0.23086715171740738	
10.22	-0.127	-0.22718275857830178	
10.225	-0.052	-0.20499162078702243	
10.23	-0.110	-0.17442787971938967	
10.235	-0.127	-0.14474603863567304	
10.24	-0.058	-0.12212276144815656	
10.245	-0.066	-0.10380584480129496	
10.25	-0.116	-0.08999943899846674	
10.255	-0.122	-0.08458683645392986	
10.26	-0.130	-0.08927830920541904	
10.265	-0.182	-0.10287202058483821	
10.27	-0.217	-0.12218563726088051	
10.275	-0.179	-0.14502220807979174	
10.28	-0.229	-0.1684234149973716	
10.285	-0.272	-0.19070770805277784	
10.29	-0.248	-0.21213715185798906	
10.295	-0.225	-0.22982874149685953	
10.3	-0.223	-0.23995307099301513	
10.305	-0.194	-0.23855868775626077	
10.31	-0.147	-0.22931186386444988	
10.315	-0.141	-0.21286097066323934	
10.32	-0.133	-0.1901391415437942	
10.325	-0.103	-0.1670492392162225	
10.33	-0.136	-0.14846522219247926	
10.335	-0.147	-0.13567092914150952	
10.34	-0.136	-0.12912065863762612	
10.345	-0.093	-0.12688682408479873	
10.35	0.044	-0.11594601161507945	
10.355	0.301	-0.07347216548757743	
10.36	0.343	0.005688810062668127	
10.365	-0.093	0.08304928814153986	
10.37	-0.477	0.09279389268103452	
10.375	-0.633	0.003907331829961825	
10.38	-0.665	-0.15347349081721098	
10.385	-0.547	-0.3186108530729062	
10.39	-0.350	-0.4360683989792095	
10.395	-0.176	-0.4808602728584831	
10.4	-0.032	-0.4478957947167953	
10.405	0.177	-0.35047722444510554	
10.41	0.255	-0.21237246071733853	
10.415	0.285	-0.060896153202107936	
10.42	0.354	0.0799186020157884	
10.425	0.359	0.19790636593127006	
10.43	0.292	0.2804631144930232	
10.435	0.357	0.32937570523767445	
10.44	0.443	0.3608929553999515	
10.445	0.473	0.38806868170305975	
10.45	0.458	0.4140697562248734	
10.455	0.458	0.4374976390067362	
10.46	0.475	0.45360937453969213	
10.465	0.389	0.45911510837481695	
10.47	0.340	0.4519166834450877	
10.475	0.414	0.4339136604986925	
10.48	0.372	0.4145182590326585	
10.485	0.342	0.39839684531823905	
10.49	0.476	0.3888585941868632	
10.495	0.518	0.3950890271898575	
10.5	0.421	0.41312139926624947	
10.505	0.354	0.42745105229430846	
10.51	0.233	0.4175470365535082	
10.515	0.065	0.3751628159800949	
10.52	0.013	0.3039362893805289	
10.525	-0.008	0.21684094798058612	
10.53	-0.141	0.12653706931905823	
10.535	-0.205	0.0354622678171755	
10.54	-0.202	-0.048205776108169	
10.545	-0.277	-0.12294690420661751	
10.55	-0.295	-0.18579314498547103	
10.555	-0.275	-0.23354285296708843	
10.56	-0.268	-0.2664794782697807	
10.565	-0.315	-0.2857473556245694	
10.57	-0.335	-0.2990404734624309	
10.575	-0.324	-0.30924198946913173	
10.58	-0.393	-0.3224282259187607	
10.585	-0.451	-0.3414874978528949	
10.59	-0.462	-0.3672950920043473	
10.595	-0.472	-0.3989637231832544	
10.6	-0.413	-0.4247054892136334	
10.605	-0.358	-0.43457660140209825	
10.61	-0.335	-0.42653775720038967	
10.615	-0.346	-0.40868338473663124	
10.62	-0.326	-0.3860323837969341	
10.625	-0.265	-0.36130571606680145	
10.63	-0.262	-0.33538856501181047	
10.635	-0.245	-0.30744365059534345	
10.64	-0.297	-0.28435147900006563	
10.645	-0.367	-0.27798294559913517	
10.65	-0.378	-0.28768258265082314	
10.655	-0.365	-0.3076132287544089	
10.66	-0.404	-0.3305608454535398	
10.665	-0.469	-0.3576575978367981	
10.67	-0.465	-0.3870421429714854	
10.675	-0.410	-0.41331667398574407	
10.68	-0.420	-0.43035757044953454	
10.685	-0.396	-0.4344418825440738	
10.69	-0.341	-0.42735883657492735	
10.695	-0.326	-0.4099362515265317	
10.7	-0.326	-0.38766602017067675	
10.705	-0.321	-0.36365773640336063	
10.71	-0.266	-0.34155024115067534	
10.715	-0.257	-0.32061489061348547	
10.72	-0.188	-0.29406695403140504	
10.725	-0.168	-0.2643377174750978	
10.73	-0.222	-0.2353377496637425	
10.735	-0.216	-0.21647070853665462	
10.74	-0.173	-0.20439277621122337	
10.745	-0.257	-0.1989040840948199	
10.75	-0.407	-0.210682140604128	
10.755	-0.850	-0.26474753425323405	
10.76	-0.995	-0.38557953046408855	
10.765	-0.993	-0.5525930890473095	
10.77	-0.996	-0.7150510289509252	
10.775	-0.993	-0.8453012037849061	
10.78	-0.996	-0.9393256880830243	
10.785	-0.977	-0.9944640051082695	
10.79	-0.753	-1.0073090560006164	
10.795	-0.581	-0.9708744209424144	
10.8	-0.428	-0.8817106160677132	
10.805	-0.300	-0.7546205266875867	
10.81	-0.231	-0.6104787306647259	
10.815	-0.214	-0.4737315919322089	
10.82	-0.170	-0.3561124438585658	
10.825	-0.046	-0.2592077250937599	
10.83	0.035	-0.17640217120785517	
10.835	0.240	-0.0905647932409388	
10.84	0.518	0.017803535042472167	
10.845	0.654	0.15513303061086323	
10.85	0.654	0.30811678279679466	
10.855	0.750	0.45239733900064216	
10.86	0.837	0.5786251258972983	
10.865	0.883	0.6841748643784664	
10.87	0.997	0.7778525765307729	
10.875	1.094	0.8639262517860176	
10.88	1.075	0.9415659712990105	
10.885	1.039	1.0042986586747076	
10.89	1.123	1.0478465392191216	
10.895	1.197	1.0821727043524145	
10.9	1.133	1.1130304448049468	
10.905	1.161	1.1374196748061873	
10.91	1.110	1.1507035174138522	
10.915	0.926	1.1411055630550413	
10.92	0.805	1.101795130170941	
10.925	0.782	1.0319830705771293	
10.93	0.657	0.9455689301950208	
10.935	0.556	0.8512681554541717	
10.94	0.539	0.755888090857606	
10.945	0.486	0.6651899523304359	
10.95	0.457	0.589008001435088	
10.955	0.339	0.5244526006278121	
10.96	0.287	0.4607186895170755	
10.965	0.151	0.392078056113095	
10.97	0.224	0.3248527619927821	
10.975	0.431	0.2800571869603896	
10.98	0.400	0.2735483706147772	
10.985	0.365	0.29326768105766854	
10.99	0.405	0.3219198858402643	
10.995	0.438	0.34915051870193925	
11.0	0.408	0.3749842719530769	
11.005	0.472	0.40048776672213243	
11.01	0.502	0.4237062911050888	
11.015	0.472	0.44606443343053276	
11.02	0.505	0.4658804109200163	
11.025	0.589	0.48600995608674463	
11.03	0.516	0.5054840769121736	
11.035	0.525	0.5213108346400486	
11.04	0.551	0.5329399839441127	
11.045	0.521	0.5370881626742414	
11.05	0.437	0.5329927298146222	
11.055	0.470	0.520530400770044	
11.06	0.431	0.5016637199941365	
11.065	0.343	0.47504452240642264	
11.07	0.347	0.4439256537144409	
11.075	0.372	0.4119996669896211	
11.08	0.305	0.3824550629544942	
11.085	0.266	0.35634708177769625	
11.09	0.333	0.3329555855523332	
11.095	0.305	0.31506216220783634	
11.1	0.259	0.30301829915032097	
11.105	0.324	0.2965596303572588	
11.11	0.330	0.2946355020599005	
11.115	0.227	0.2940485358467924	
11.12	0.252	0.2889549585237573	
11.125	0.324	0.28196742405050823	
11.13	0.421	0.28545421047588115	
11.135	0.502	0.3124194063435429	
11.14	0.482	0.3569410033692934	
11.145	0.211	0.3889725491034254	
11.15	-0.097	0.3699982302476579	
11.155	-0.211	0.2855433397329502	
11.16	-0.232	0.15558285019505	
11.165	-0.225	0.02009103150539259	
11.17	-0.115	-0.0859614103570061	
11.175	0.134	-0.13603838115076833	
11.18	0.333	-0.11452951140346611	
11.185	0.521	-0.021507455342155354	
11.19	0.669	0.12392502583550037	
11.195	0.722	0.2899527291479788	
11.2	0.776	0.45109943123518786	
11.205	0.901	0.5955840656734022	
11.21	0.985	0.7204995249645236	
11.215	0.892	0.8210726138337107	
11.22	0.854	0.8880344816967619	
11.225	0.852	0.9158357623824964	
11.23	0.808	0.914392165916925	
11.235	0.837	0.8985346553006185	
11.24	0.893	0.881897373687319	
11.245	0.785	0.8658996383161358	
11.25	0.736	0.8461663758958746	
11.255	0.736	0.8196121206519213	
11.26	0.748	0.7914369586895034	
11.265	0.809	0.7701294609581486	
11.27	0.860	0.7681432723023183	
11.275	0.854	0.7818046689424633	
11.28	0.761	0.7963540578182141	
11.285	0.785	0.8025841706051361	
11.29	0.826	0.8048952820474502	
11.295	0.719	0.8008553921121113	
11.3	0.617	0.7841772526156001	
11.305	0.583	0.7496217311677867	
11.31	0.567	0.7024144289891872	
11.315	0.411	0.6461167509831176	
11.32	0.264	0.5771158491000531	
11.325	0.119	0.48577054122665786	
11.33	0.007	0.3733714630042083	
11.335	0.035	0.2576145935063926	
11.34	0.044	0.15989564108493456	
11.345	-0.042	0.08387106338887249	
11.35	-0.043	0.028211691901990122	
11.355	0.004	-0.009360627435648696	
11.36	0.046	-0.025571916354344124	
11.365	-0.009	-0.026873984997353363	
11.37	-0.019	-0.019882639652702372	
11.375	0.001	-0.015202953058846428	
11.38	-0.002	-0.012610968547618506	
11.385	-0.023	-0.009420235795616336	
11.39	0.012	-0.006128597744518164	
11.395	-0.014	-0.00612042547004711	
11.4	-0.110	-0.010807410828927484	
11.405	-0.122	-0.026395295175440668	
11.41	-0.122	-0.05158242828566466	
11.415	-0.141	-0.0788698940038042	
11.42	-0.101	-0.09986685531890913	
11.425	-0.013	-0.10819050265837116	
11.43	-0.042	-0.10161410284617012	
11.435	-0.058	-0.0854123508967212	
11.44	-0.057	-0.07112944001367613	
11.445	-0.077	-0.06314479424841646	
11.45	-0.092	-0.0627927457388835	
11.455	-0.089	-0.06436213174532392	
11.46	-0.130	-0.07361065685402587	
11.465	-0.177	-0.08889898381713496	
11.47	-0.171	-0.10983699343644986	
11.475	-0.129	-0.12919482488415382	
11.48	-0.168	-0.1436592910548915	
11.485	-0.190	-0.15439056155735664	
11.49	-0.177	-0.16309087580718865	
11.495	-0.203	-0.1731773519617329	
11.5	-0.177	-0.18180352212652678	
11.505	-0.148	-0.183308975499201	
11.51	-0.116	-0.1786084596980361	
11.515	-0.121	-0.16693322842193115	
11.52	0.068	-0.14279752128212628	
11.525	0.308	-0.08914169915469974	
11.53	0.314	-0.0016772175447594172	
11.535	0.174	-0.14279752128212628	
11.54	-0.035	0.15288309376358772	
11.545	-0.216	0.1477625517638767	
11.55	-0.300	0.0821648409779996	
11.555	-0.281	-0.014286433991054441	
11.56	-0.228	-0.11060282453629895	
11.565	-0.121	-0.1779224316420151	
11.57	0.006	-0.19774841387289394	
11.575	0.143	-0.16914800432354987	
11.58	0.156	-0.10573243963870108	
11.585	0.224	-0.022376337993005133	
11.59	0.345	0.06798580496218122	
11.595	0.296	0.1537602529676789	
11.6	0.253	0.22212647368270627	
11.605	0.253	0.2657452664857262	
11.61	0.284	0.28538028784281166	
11.615	0.149	0.28598361393458566	
11.62	0.120	0.2672224128173209	
11.625	0.229	0.23786323981989183	
11.63	0.250	0.21524583185698332	
11.635	0.318	0.21464205457767002	
11.64	0.426	0.23602126247059005	
11.645	0.356	0.2717385498249806	
11.65	0.299	0.3051349100287737	
11.655	0.391	0.3287876241940891	
11.66	0.371	0.34636142396443736	
11.665	0.293	0.35497744462353215	
11.67	0.325	0.3552626565062005	
11.675	0.328	0.3478437514302719	
11.68	0.232	0.3352053512500709	
11.685	0.249	0.31564559280271154	
11.69	0.279	0.2950054140018895	
11.695	0.180	0.27473130615217606	
11.7	0.036	0.2451604564984449	
11.705	-0.048	0.19675279458987924	
11.71	-0.080	0.1293308014985205	
11.715	-0.139	0.05504145923334877	
11.72	-0.168	-0.014721971603030803	
11.725	-0.188	-0.07621180970784057	
11.73	-0.239	-0.1307548181586043	
11.735	-0.229	-0.17329581124638743	
11.74	-0.177	-0.2020445023663702	
11.745	-0.211	-0.21727918871251586	
11.75	-0.222	-0.22175946997622625	
11.755	-0.184	-0.2212419494705277	
11.76	-0.152	-0.21471194080655312	
11.765	-0.164	-0.20292175924103162	
11.77	-0.179	-0.18870559821833288	
11.775	-0.145	-0.1772751770868859	
11.78	-0.176	-0.1707538423344495	
11.785	-0.156	-0.16525029747966405	
11.79	-0.101	-0.1580905435901636	
11.795	-0.139	-0.15031810110359872	
11.8	-0.130	-0.1417061976911519	
11.805	-0.107	-0.13324111988535478	
11.81	-0.148	-0.12877556125167908	
11.815	-0.200	-0.1309086005148687	
11.82	-0.161	-0.13966686998263428	
11.825	-0.168	-0.1493042888562537	
11.83	-0.277	-0.16476883197869563	
11.835	-0.239	-0.18422632412980577	
11.84	-0.165	-0.20209406445931333	
11.845	-0.200	-0.21031736249900543	
11.85	-0.223	-0.21168965597975195	
11.855	-0.228	-0.2122612174191636	
11.86	-0.236	-0.2167796525341548	
11.865	-0.275	-0.22487283085974077	
11.87	-0.240	-0.23268018800804036	
11.875	-0.208	-0.23832823628546887	
11.88	-0.214	-0.23872386136361967	
11.885	-0.194	-0.23220852239877676	
11.89	-0.165	-0.22114486659528967	
11.895	-0.185	-0.2083197827433462	
11.9	-0.173	-0.19665318923714098	
11.905	-0.110	-0.1822772555918694	
11.91	-0.080	-0.16479006673853558	
11.915	-0.066	-0.1418396586365417	
11.92	-0.028	-0.11368334554814184	
11.925	-0.084	-0.08936171311359255	
11.93	-0.341	-0.08673914738532516	
11.935	-0.482	-0.12624674483412712	
11.94	-0.492	-0.20418260181345893	
11.945	-0.501	-0.29727975830240017	
11.95	-0.471	-0.3786133548828205	
11.955	-0.339	-0.42930056293667423	
11.96	-0.211	-0.4387622932945088	
11.965	-0.098	-0.4037663473820529	
11.97	-0.019	-0.32970303696935244	
11.975	0.180	-0.2303889003027702	
11.98	0.188	-0.1156494724098166	
11.985	0.143	-0.00520237860045753	
11.99	0.186	0.08172838201395205	
11.995	0.091	0.1356901720302634	
12.0	0.065	0.15742744213059046	
12.005	0.108	0.1556283132503567	
12.01	0.157	0.1451548802427999	
12.015	0.110	0.1372916845490606	
12.02	0.116	0.1323019533791474	
12.025	0.188	0.12950461151664688	
12.03	0.171	0.13339143864955894	
12.035	0.233	0.14691021681037886	
12.04	0.376	0.1736735701192179	
12.045	1.063	0.247711255912919	
12.05	2.102	0.4517068311055726	
12.055	2.650	0.8347876104787411	
12.06	2.770	1.3370078592905363	
12.065	2.710	1.8401784764388431	
12.07	2.656	2.249343066437512	
12.075	2.465	2.519413347680119	
12.08	2.136	2.6341585173608584	
12.085	1.857	2.6028646177826427	
12.09	1.685	2.4547605094351255	
12.095	1.424	2.2345630608459737	
12.1	1.201	1.9784441635550778	
12.105	1.019	1.7127715784866333	
12.11	0.835	1.4521004295627964	
12.115	0.676	1.2111819308255374	
12.12	0.556	0.9974448822745186	
12.125	0.443	0.8106027509499634	
12.13	0.247	0.645207172843635	
12.135	0.125	0.49589723012615633	
12.14	0.160	0.3608926761247079	
12.145	0.039	0.24958617035133718	
12.15	0.024	0.16038782635719026	
12.155	0.104	0.0978351663712948	
12.16	0.065	0.061144706972393104	
12.165	0.009	0.04209713571188676	
12.17	0.056	0.03342179987107455	
12.175	0.056	0.030658935671981743	
12.18	-0.084	0.02617231218013953	
12.185	-0.124	0.009825728404857317	
12.19	-0.100	-0.02008788073175153	
12.195	-0.174	-0.055392024294949375	
12.2	-0.243	-0.09367195440305245	
12.205	-0.297	-0.13820617834330284	
12.21	-0.361	-0.19083147892703906	
12.215	-0.437	-0.24990508096440592	
12.22	-0.468	-0.30961328738556776	
12.225	-0.478	-0.36732991112749885	
12.23	-0.504	-0.41878970479474037	
12.235	-0.527	-0.45816666356845864	
12.24	-0.512	-0.4880885470319409	
12.245	-0.555	-0.5113864400264003	
12.25	-0.578	-0.5296702978720775	
12.255	-0.549	-0.5441907710128905	
12.26	-0.564	-0.5548211948360899	
12.265	-0.610	-0.5639206850910086	
12.27	-0.585	-0.5726105723183574	
12.275	-0.514	-0.5763113144649982	
12.28	-0.517	-0.5718012732007801	
12.285	-0.511	-0.5581805281265252	
12.29	-0.483	-0.5410793972859298	
12.295	-0.475	-0.5243907080422836	
12.3	-0.443	-0.5056808657253401	
12.305	-0.379	-0.48217683012580603	
12.31	-0.478	-0.4598230262007971	
12.315	-0.656	-0.45696400035402723	
12.32	-0.807	-0.4896413423459066	
12.325	-0.868	-0.5603160026223826	
12.33	-0.853	-0.6498139206267466	
12.335	-0.712	-0.7241622669194692	
12.34	-0.509	-0.7550105258659414	
12.345	-0.323	-0.7273558169005148	
12.35	-0.203	-0.6416867733764104	
12.355	-0.176	-0.5211575505374907	
12.36	-0.150	-0.3998281718931165	
12.365	-0.136	-0.2949946444457672	
12.37	-0.069	-0.2105863568636802	
12.375	0.082	-0.139266484528459	
12.38	0.140	-0.06888128660923809	
12.385	0.214	0.005814959840747001	
12.39	0.371	0.08602063218527892	
12.395	0.334	0.167551451989191	
12.4	0.321	0.23923166354417802	
12.405	0.369	0.29390666869494697	
12.41	0.279	0.32717879553766305	
12.415	0.270	0.3379363010597386	
12.42	0.354	0.3364588592210128	
12.425	0.412	0.33779521795002865	
12.43	0.402	0.34706138422481564	
12.435	0.487	0.36779229327796903	
12.44	0.563	0.4000925908363691	
12.445	0.453	0.4355464980857932	
12.45	0.402	0.4591593611447038	
12.455	0.446	0.4669405934771974	
12.46	0.392	0.4602504466840791	
12.465	0.285	0.44188680936310887	
12.47	0.360	0.41341008760481174	
12.475	0.507	0.3928708582208712	
12.48	0.472	0.3940994665690012	
12.485	0.472	0.41171207676735966	
12.49	0.455	0.4320709775656313	
12.495	0.246	0.434608289349816	
12.5	0.099	0.4051254622326471	
12.505	0.090	0.34186394394916464	
12.51	0.035	0.2603120216480508	
12.515	-0.051	0.1769578660266429	
12.52	-0.122	0.09633263931021717	
12.525	-0.139	0.0188282314722544	
12.53	-0.223	-0.053826309946429715	
12.535	-0.242	-0.11629775614184999	
12.54	-0.197	-0.1659825688272854	
12.545	-0.232	-0.20230671681368254	
12.55	-0.251	-0.22479732625137966	
12.555	-0.179	-0.23419026466819323	
12.56	-0.177	-0.2336906893462843	
12.565	-0.223	-0.22597922695042388	
12.57	-0.252	-0.21870635619415682	
12.575	-0.214	-0.21922398047222194	
12.58	-0.232	-0.22177541174150323	
12.585	-0.208	-0.2222834203552892	
12.59	-0.162	-0.2180488139992276	
12.595	-0.185	-0.2103033376218336	
12.6	-0.202	-0.2017525943498763	
12.605	-0.194	-0.19423547538712096	
12.61	-0.223	-0.19373676811135024	
12.615	-0.269	-0.20093533438675912	
12.62	-0.249	-0.21168892881894216	
12.625	-0.226	-0.22426288921026621	
12.63	-0.243	-0.2337632461122206	
12.635	-0.269	-0.24025427423216794	
12.64	-0.269	-0.2460802272460122	
12.645	-0.286	-0.2563249941326221	
12.65	-0.277	-0.26471784857847114	
12.655	-0.236	-0.2682170659218236	
12.66	-0.255	-0.26776052501455516	
12.665	-0.266	-0.2659346270597596	
12.67	-0.220	-0.2606550474400708	
12.675	-0.193	-0.2512668444708769	
12.68	-0.210	-0.23979852708121313	
12.685	-0.113	-0.22223689132430297	
12.69	0.078	-0.18802577129600118	
12.695	0.042	-0.13432791807512567	
12.7	-0.103	-0.08076911329925446	
12.705	-0.304	-0.059248225878562696	
12.71	-0.590	-0.09878986710168995	
12.715	-0.757	-0.2039889414329155	
12.72	-0.750	-0.3486672451698035	
12.725	-0.640	-0.4892059311785881	
12.73	-0.547	-0.5877512081123026	
12.735	-0.361	-0.624236941603502	
12.74	-0.176	-0.5920001242658457	
12.745	-0.133	-0.1369628568834283	
12.75	-0.152	-0.39978610749471166	
12.755	-0.074	-0.2952425708919586	
12.76	-0.032	-0.20570433396800442	
12.765	-0.129	-0.1369628568834283	
12.77	-0.173	-0.09774929589153987	
12.775	-0.196	-0.0912504600027888	
12.78	-0.174	-0.10674466193681932	
12.785	-0.119	-0.12428973241178601	
12.79	-0.023	-0.12905845152814813	
12.795	-0.017	-0.11826419157321011	
12.8	0.033	-0.09175450773982027	
12.805	0.116	-0.05225292478507329	
12.81	0.110	-0.007695037452002215	
12.815	0.079	0.034060402741672366	
12.82	0.122	0.06825806171381182	
12.825	0.269	0.09977473347880902	
12.83	0.314	0.14028024384566207	
12.835	0.276	0.18868780547078176	
12.84	0.253	0.2309030135282169	
12.845	0.168	0.2517168213494263	
12.85	0.140	0.24823234499764554	
12.855	0.201	0.23273841274200918	
12.86	0.085	0.21030824546116367	
12.865	-0.038	0.1750539395151372	
12.87	-0.064	0.12424254638165277	
12.875	-0.068	0.06578330800237801	
12.88	-0.161	0.006283692428464337	
12.885	-0.231	-0.051341908785860056	
12.89	-0.236	-0.1090793618912966	
12.895	-0.252	-0.16321627353431026	
12.9	-0.262	-0.2057682270007956	
12.905	-0.243	-0.23429103138836016	
12.91	-0.283	-0.2536515512618096	
12.915	-0.332	-0.26991858311135697	
12.92	-0.304	-0.28378513845819026	
12.925	-0.280	-0.2952070136388589	
12.93	-0.286	-0.3006919325911775	
12.935	-0.234	-0.2973577401687374	
12.94	-0.155	-0.28106861800041893	
12.945	-0.147	-0.25519307084746307	
12.95	-0.127	-0.22180660022906132	
12.955	-0.071	-0.1843082460671545	
12.96	-0.061	-0.14861273462706595	
12.965	-0.087	-0.11693980994250955	
12.97	-0.090	-0.09382741910821149	
12.975	-0.064	-0.08017539147281752	
12.98	-0.107	-0.07569214636690028	
12.985	-0.130	-0.07741574475516946	
12.99	-0.133	-0.08605744263935731	
12.995	-0.167	-0.10217101767680932	
13.0	-0.184	-0.12085184140797452	
13.005	-0.168	-0.13830026108472676	
13.01	-0.197	-0.15556695717105645	
13.015	-0.229	-0.17297663825804915	
13.02	-0.232	-0.18883595728282465	
13.025	-0.194	-0.2031069683802735	
13.03	-0.200	-0.21171017752671373	
13.035	-0.187	-0.21245494809645504	
13.04	-0.138	-0.2049846920299453	
13.045	-0.161	-0.19415922148079373	
13.05	-0.190	-0.18293396083278435	
13.055	-0.158	-0.1742647634159925	
13.06	-0.159	-0.16951115986604057	
13.065	-0.173	-0.16705441458622577	
13.07	-0.141	-0.16284258458574127	
13.075	-0.058	-0.15401671751774093	
13.08	-0.031	-0.13675669744928942	
13.085	0.047	-0.10551194989242582	
13.09	0.391	-0.04787556971032761	
13.095	0.388	0.04288027184096219	
13.1	-0.113	0.12794500201020825	
13.105	-0.440	0.1356563882225702	
13.11	-0.630	0.03846317539061068	
13.115	-0.698	-0.12806431320672135	
13.12	-0.611	-0.30679665600355205	
13.125	-0.440	-0.4469996241209355	
13.13	-0.304	-0.5177358465608424	
13.135	-0.112	-0.5094069891526214	
13.14	0.038	-0.43289193041745144	
13.145	-0.006	-0.31924159107174954	
13.15	-0.026	-0.2049605336216873	
13.155	0.018	-0.11018125276695502	
13.16	0.012	-0.04359926072522739	
13.165	0.033	-0.0011154487647262277	
13.17	0.067	0.029285349097306127	
13.175	0.152	0.05293582903828134	
13.18	0.142	0.07711684835862156	
13.185	0.249	0.10762589125479563	
13.19	0.377	0.15014885190366373	
13.195	0.321	0.20266671251258586	
13.2	0.249	0.2500475491060623	
13.205	0.334	0.281909621033612	
13.21	0.307	0.30135948152790926	
13.215	0.357	0.31385283788939455	
13.22	0.443	0.33136875630948015	
13.225	0.571	0.36293965985166715	
13.23	0.643	0.41206870299849774	
13.235	0.731	0.48067205788818623	
13.24	0.777	0.5601599931630108	
13.245	0.647	0.6295896018786653	
13.25	0.527	0.6670401709177594	
13.255	0.498	0.6659469144450489	
13.26	0.353	0.627318330792525	
13.265	0.033	0.5487962095077313	
13.27	-0.058	0.42736084184950307	
13.275	-0.135	0.2789301467935523	
13.28	-0.237	0.12606031097810325	
13.285	-0.248	-0.01031543250998885	
13.29	-0.219	-0.11782565997456816	
13.295	-0.226	-0.19336396057653507	
13.3	-0.184	-0.23389153653728983	
13.305	-0.167	-0.2440364541813578	
13.31	-0.200	-0.23868196164278743	
13.315	-0.179	-0.22715557367706413	
13.32	-0.155	-0.210596191667767	
13.325	-0.098	-0.19108430755333775	
13.33	-0.107	-0.16897001392756195	
13.335	-0.058	-0.14231316347360107	
13.34	0.056	-0.10982072889600641	
13.345	0.111	-0.0684035768091846	
13.35	0.197	-0.012915742132423058	
13.355	0.304	0.05599859698705164	
13.36	0.238	0.1263083048781256	
13.365	0.204	0.1817771457874579	
13.37	0.249	0.21941301964395354	
13.375	0.282	0.2419578088999752	
13.38	0.343	0.2599836271714275	
13.385	0.376	0.28466991939746134	
13.39	0.400	0.31424555272673305	
13.395	0.376	0.33955717423975196	
13.4	0.331	0.358995479225655	
13.405	0.276	0.3640569336340757	
13.41	0.236	0.35033535422627765	
13.415	0.160	0.3196843620930604	
13.42	0.206	0.2824670198415915	
13.425	0.288	0.2520621206410063	
13.43	0.188	0.2328836433695294	
13.435	0.255	0.22462801726654247	
13.44	0.334	0.22838357107197996	
13.445	0.287	0.24053643989324727	
13.45	0.295	0.258888096008664	
13.455	0.403	0.2811647818173668	
13.46	0.359	0.3054140116303554	
13.465	0.307	0.32555544751573817	
13.47	0.343	0.33945923185991955	
13.475	0.392	0.34617322644132376	
13.48	0.347	0.35180606156942523	
13.485	0.331	0.35654799814398863	
13.49	0.354	0.3574866226118302	
13.495	0.013	0.33751260329234944	
13.5	-0.266	0.2717237038671652	
13.505	-0.426	0.14718381532032596	
13.51	-0.478	-0.01550632031696885	
13.515	-0.477	-0.18050069793165777	
13.52	-0.384	-0.30951463795583345	
13.525	-0.268	-0.3856983967546085	
13.53	-0.162	-0.4042068543951466	
13.535	0.049	-0.3624822793538044	
13.54	0.336	-0.2603878598157882	
13.545	0.218	-0.12243965092894109	
13.55	0.027	0.005627041694741814	
13.555	-0.063	0.07919593667681787	
13.56	-0.187	0.08654057123647262	
13.565	-0.249	0.04038238739421066	
13.57	0.140	-0.011570250168577777	
13.575	0.935	0.009465577670138278	
13.58	1.228	0.16489487879571182	
13.585	1.343	0.43040772184626325	
13.59	1.433	0.7305074797601645	
13.595	1.256	0.9925873538180828	
13.6	1.191	1.1746365320525527	
13.605	1.197	1.2731190205410896	
13.61	1.184	1.3055578006214645	
13.615	1.197	1.2984910385983215	
13.62	1.298	1.2833655827964305	
13.625	1.399	1.2782889000543838	
13.63	1.399	1.2908727357690735	
13.635	1.408	1.31944092931225	
13.64	1.417	1.3514698357512467	
13.645	1.329	1.3716302461732408	
13.65	1.167	1.3707334342809085	
13.655	1.110	1.3401058796707341	
13.66	0.955	1.2765251131345028	
13.665	0.735	1.1815265910985135	
13.67	0.606	1.0583476219771035	
13.675	0.504	0.9162195649269829	
13.68	0.162	0.7568783717488183	
13.685	0.003	0.5784536098896307	
13.69	0.036	0.39443174668319236	
13.695	-0.257	0.22067882936166633	
13.7	-0.562	0.046798249971723285	
13.705	-0.715	-0.1419777051153631	
13.71	-0.760	-0.3374720390606195	
13.715	-0.772	-0.5112876228631384	
13.72	-0.708	-0.6386458045928552	
13.725	-0.639	-0.7138809752203606	
13.73	-0.608	-0.7409668546989179	
13.735	-0.592	-0.7294358464847917	
13.74	-0.521	-0.6947489365899645	
13.745	-0.508	-0.6503386752310834	
13.75	-0.457	-0.6000078523571588	
13.755	-0.385	-0.5460331700124665	
13.76	-0.350	-0.49261433966291635	
13.765	-0.329	-0.44219567151421746	
13.77	-0.281	-0.39263523632088954	
13.775	-0.236	-0.348055933783438	
13.78	-0.210	-0.30895961525681326	
13.785	-0.203	-0.2703339995295721	
13.79	-0.141	-0.23584350533031104	
13.795	-0.174	-0.2074064581202703	
13.8	-0.223	-0.18790472513650075	
13.805	-0.237	-0.18104514848401193	
13.81	-0.269	-0.19072945622193627	
13.815	-0.260	-0.20913785380797817	
13.82	-0.208	-0.22354311504530816	
13.825	-0.187	-0.22913567919611344	
13.83	-0.226	-0.2289936987720459	
13.835	-0.161	-0.22223082123577217	
13.84	-0.092	-0.20584473157603053	
13.845	-0.124	-0.18448376346743955	
13.85	-0.119	-0.15985227561642085	
13.855	-0.035	-0.1349797790735001	
13.86	-0.017	-0.10878326109887351	
13.865	0.029	-0.07915455860394	
13.87	0.081	-0.041481907354374105	
13.875	0.188	0.0008454719712654614	
13.88	0.139	0.04795309353085868	
13.885	0.157	0.09180514679464737	
13.89	0.036	0.1201543737604622	
13.895	-0.197	0.11141535940717685	
13.9	-0.355	0.054124215952214894	
13.905	-0.394	-0.041927719030366246	
13.91	-0.370	-0.1538111896495439	
13.915	-0.371	-0.25017457357185924	
13.92	-0.271	-0.3133997673593881	
13.925	-0.090	-0.3331260544291411	
13.93	0.072	-0.3010771662207776	
13.935	0.368	-0.20811222408571897	
13.94	0.556	-0.06075082002613891	
13.945	0.528	0.11337478661152975	
13.95	0.541	0.27811049897230417	
13.955	0.643	0.4131354163038643	
13.96	0.675	0.5171403411708251	
13.965	0.626	0.5927280236889172	
13.97	0.756	0.646615813567953	
13.975	0.831	0.6908792970856729	
13.98	0.744	0.72783052723955	
13.985	0.843	0.759833045163768	
13.99	0.955	0.7922727626844348	
13.995	0.929	0.829391307316474	
14.0	0.947	0.869108788600593	
14.005	1.005	0.9061523303145511	
14.01	1.071	0.9411733872004432	
14.015	1.153	0.9827510002047605	
14.02	1.330	1.0406247464747624	
14.025	1.416	1.1178940162613573	
14.03	1.344	1.201838268651694	
14.035	1.482	1.280810662774429	
14.04	1.633	1.3582667011171612	
14.045	1.566	1.4344180348703848	
14.05	1.433	1.4940775123100158	
14.055	1.309	1.5140770550428453	
14.06	1.141	1.4821727830443754	
14.065	0.955	1.4017535386194617	
14.07	0.803	1.2835359035243905	
14.075	0.709	1.138867291538046	
14.08	0.522	0.9819176872572388	
14.085	0.417	0.8258064484097982	
14.09	0.481	0.682211228338769	
14.095	0.379	0.564485492171118	
14.1	0.322	0.47516392871264895	
14.105	0.347	0.4080589669430491	
14.11	0.226	0.35619426294396606	
14.115	0.218	0.30984289253928265	
14.12	0.168	0.2715285308234461	
14.125	0.091	0.2308227595770258	
14.13	0.064	0.18595917888691849	
14.135	0.041	0.1428216780586373	
14.14	0.152	0.11016375379658895	
14.145	0.076	0.09148625545152478	
14.15	0.059	0.0821714512017781	
14.155	0.175	0.08102807861468181	
14.16	0.183	0.09221163067758895	
14.165	0.130	0.10986625844763268	
14.17	0.168	0.12948195105578147	
14.175	0.191	0.14482118201668998	
14.18	0.107	0.1540141428158471	
14.185	0.093	0.15477588565636763	
14.19	0.101	0.14509527440961567	
14.195	0.023	0.12653968587823014	
14.2	-0.035	0.09918641918824803	
14.205	-0.013	0.06694140098532868	
14.21	-0.090	0.030225224639547757	
14.215	-0.078	-0.007069056412947771	
14.22	-0.078	-0.03656295975132181	
14.225	-0.043	-0.058190944381963816	
14.23	-0.040	-0.0689108474124801	
14.235	-0.068	-0.06923284530381926	
14.24	-0.009	-0.0639428142044473	
14.245	-0.097	-0.05941470862179829	
14.25	-0.142	-0.06281070094259805	
14.255	-0.132	-0.07410821283466425	
14.26	-0.165	-0.09374749679707826	
14.265	-0.196	-0.11804841207842744	
14.27	-0.187	-0.13961189671894214	
14.275	-0.119	-0.1571815909274023	
14.28	-0.103	-0.16287032679067467	
14.285	-0.167	-0.15626539630792607	
14.29	-0.280	-0.15696977811178894	
14.295	-0.454	-0.18441258859471088	
14.3	-0.566	-0.24483819849375887	
14.305	-0.550	-0.32610132043395	
14.31	-0.474	-0.4057065985735821	
14.315	-0.417	-0.4590459936559921	
14.32	-0.272	-0.47158477018411676	
14.325	-0.196	-0.44513804146558167	
14.33	-0.155	-0.3889082707061543	
14.335	-0.064	-0.3142822313229564	
14.34	0.046	-0.22989294910739674	
14.345	0.033	-0.14539784152579657	
14.35	0.015	-0.07088808094596144	
14.355	0.050	-0.014077884440618017	
14.36	0.029	0.022295283403191143	
14.365	-0.028	0.037855728902046165	
14.37	0.061	0.042387139344077396	
14.375	0.160	0.048919615039229605	
14.38	0.046	0.06005786286266959	
14.385	0.030	0.06964934041229365	
14.39	0.168	0.07415019762750472	
14.395	0.145	0.0846528119642518	
14.4	0.114	0.1010776686944175	
14.405	0.165	0.11691303436780809	
14.41	0.232	0.13335262088915217	
14.415	0.185	0.15288023305430232	
14.42	0.267	0.17634852397262435	
14.425	0.365	0.20490340677080385	
14.43	0.304	0.24010514623571091	
14.435	0.272	0.2706567435329768	
14.44	0.246	0.28807501226441995	
14.445	0.185	0.28464040205175034	
14.45	0.101	0.26413196499782965	
14.455	0.090	0.22887508379080407	
14.46	0.006	0.1812972800826042	
14.465	-0.118	0.12293111303173432	
14.47	-0.148	0.05535690623322498	
14.475	-0.161	-0.01416841966952277	
14.48	-0.237	-0.08086424486397843	
14.485	-0.245	-0.1372709805272065	
14.49	-0.193	-0.1819565502005495	
14.495	-0.214	-0.21035822777335736	
14.5	-0.196	-0.22378494321710762	
14.505	-0.130	-0.22113372508111862	
14.51	-0.112	-0.205742593587216	
14.515	-0.139	-0.18500681699518884	
14.52	-0.127	-0.16162872204830686	
14.525	-0.068	-0.1422386086518192	
14.53	-0.080	-0.12384466648212228	
14.535	-0.057	-0.10422634793643437	
14.54	-0.017	-0.0840186444613743	
14.545	-0.046	-0.0663913703090816	
14.55	-0.066	-0.053738775191239235	
14.555	-0.019	-0.04515766267242906	
14.56	-0.043	-0.03979517790239895	
14.565	-0.119	-0.04197287154866716	
14.57	-0.110	-0.050612208761788395	
14.575	-0.118	-0.06728564521836272	
14.58	-0.165	-0.08883605059510609	
14.585	-0.156	-0.10919100523196984	
14.59	-0.118	-0.12604223771018916	
14.595	-0.190	-0.1393982775887657	
14.6	-0.190	-0.1517055131043549	
14.605	-0.158	-0.16216475962864624	
14.61	-0.213	-0.17081089311330613	
14.615	-0.234	-0.18295096765918495	
14.62	-0.188	-0.19260454123863735	
14.625	-0.141	-0.1972862596171902	
14.63	-0.145	-0.19281653291140405	
14.635	-0.156	-0.1811986153985017	
14.64	-0.158	-0.16906356657993854	
14.645	-0.211	-0.16538912514119392	
14.65	-0.226	-0.16971163111369514	
14.655	-0.223	-0.18018259647015306	
14.66	-0.237	-0.19479486591969764	
14.665	-0.275	-0.2119485997663489	
14.67	-0.243	-0.22762247224691268	
14.675	-0.132	-0.23426875194319952	
14.68	-0.188	-0.22780348876342407	
14.685	-0.358	-0.2212317724223854	
14.69	-0.500	-0.2410939777140905	
14.695	-0.672	-0.30239894941370926	
14.7	-0.691	-0.39271162377368285	
14.705	-0.501	-0.48115461279409727	
14.71	-0.382	-0.532751351632996	
14.715	-0.332	-0.5349190224657793	
14.72	-0.223	-0.49361267157570826	
14.725	-0.116	-0.4242800510193113	
14.73	-0.100	-0.3388109531526128	
14.735	-0.061	-0.25020959699586975	
14.74	0.039	-0.16807075431795412	
14.745	0.026	-0.09638691056983091	
14.75	0.024	-0.037705028819405004	
14.755	0.085	0.0068040531329997345	
14.76	0.041	0.03717969883911319	
14.765	-0.048	0.050061836281766234	
14.77	-0.029	0.045376900811819304	
14.775	0.023	0.029679774592290938	
14.78	0.032	0.01820699384438993	
14.785	0.010	0.013837782053401805	
14.79	0.055	0.015896829436530244	
14.795	0.058	0.019599626579845642	
14.8	0.156	0.03337173002471397	
14.805	0.226	0.06282093142011133	
14.81	0.273	0.10513346424454251	
14.815	0.308	0.1561059996820142	
14.82	0.336	0.21043380387459307	
14.825	0.331	0.2586164761018299	
14.83	0.293	0.29215297946913055	
14.835	0.310	0.3128886984816759	
14.84	0.321	0.32290900839170444	
14.845	0.198	0.31952497337454455	
14.85	0.099	0.29735091848270395	
14.855	0.076	0.25485108486409264	
14.86	-0.009	0.19609749068697632	
14.865	-0.049	0.13107120148527693	
14.87	-0.032	0.07048886793056033	
14.875	-0.095	0.017646729628827188	
14.88	-0.214	-0.033892336749699194	
14.885	-0.245	-0.08610342013320083	
14.89	-0.266	-0.14103764945287298	
14.895	-0.346	-0.19449150867528178	
14.9	-0.376	-0.24666307604038112	
14.905	-0.439	-0.2960890401188774	
14.91	-0.544	-0.349899036298415	
14.915	-0.622	-0.41199769154545307	
14.92	-0.593	-0.47449130153682817	
14.925	-0.541	-0.5262864766125557	
14.93	-0.562	-0.5599227393579987	
14.935	-0.378	-0.5651155894784397	
14.94	0.056	-0.521927954636745	
14.945	0.423	-0.3984197670285447	
14.95	0.541	-0.19768639899502144	
14.955	0.612	0.036904074918033825	
14.96	0.643	0.2550912397860401	
14.965	0.614	0.43096119310470055	
14.97	0.704	0.5584880768053235	
14.975	0.745	0.6446761453492922	
14.98	0.635	0.698032629990103	
14.985	0.594	0.7168809337557809	
14.99	0.588	0.705997628726092	
14.995	0.574	0.6764588331032565	
15.0	0.568	0.6443383837226218	
15.005	0.481	0.6119690036363734	
15.01	0.388	0.570036997958526	
15.015	0.299	0.5149730004435663	
15.02	0.348	0.45660653101770965	
15.025	0.412	0.4086726397621661	
15.03	0.240	0.3719847302992636	
15.035	0.099	0.3329602322768883	
15.04	0.105	0.27802030717120385	
15.045	0.020	0.21337252725543643	
15.05	0.062	0.15137741368271518	
15.055	0.178	0.11005884885678066	
15.06	0.105	0.09199589009187195	
15.065	0.081	0.08695919007626537	
15.07	-0.019	0.0816585151325814	
15.075	-0.197	0.056604270293721066	
15.08	-0.423	-0.006101321310476634	
15.085	-0.514	-0.1069827842557025	
15.09	-0.471	-0.22393186334885112	
15.095	-0.414	-0.3286616311632766	
15.1	-0.286	-0.3925978472053108	
15.105	-0.074	-0.3978719630653392	
15.11	0.156	-0.34200405097200437	
15.115	0.339	-0.22504228623101197	
15.12	0.450	-0.06527516389417656	
15.125	0.388	0.0996136591901256	
15.13	0.255	0.22982547229049866	
15.135	0.263	0.3060196354132728	
15.14	0.402	0.34210950225333225	
15.145	0.347	0.36026967505236496	
15.15	0.403	0.3723291440013814	
15.155	0.570	0.39015371308860664	
15.16	0.596	0.42398628930783416	
15.165	0.643	0.47288057866412	
15.17	0.715	0.5317165058008153	
15.175	0.719	0.5906786446323262	
15.18	0.548	0.6328453285925141	
15.185	0.527	0.6469837843221466	
15.19	0.657	0.6391213974809768	
15.195	0.651	0.6303290534840771	
15.2	0.684	0.6323200044710457	
15.205	0.761	0.6461008093850178	
15.21	0.719	0.6670079643375755	
15.215	0.673	0.6859032651757523	
15.22	0.699	0.6986529830737664	
15.225	0.596	0.6986678969289877	
15.23	0.423	0.6739110366228396	
15.235	0.392	0.6239583379294276	
15.24	0.368	0.5580768582060489	
15.245	0.287	0.4853832292533228	
15.25	0.148	0.41130723929566027	
15.255	0.183	0.33602536924862225	
15.26	0.165	0.2660697318506162	
15.265	0.091	0.20996749336454157	
15.27	0.027	0.16357769996914212	
15.275	-0.046	0.11366314160724934	
15.28	-0.100	0.059008715522031165	
15.285	-0.071	0.008955845600265966	
15.29	-0.017	-0.028965214856206994	
15.295	-0.054	-0.05156810118160969	
15.3	-0.040	-0.059660179754942505	
15.305	0.029	-0.057011287299163466	
15.31	-0.013	-0.045938297304708955	
15.315	-0.068	-0.035020126096797895	
15.32	-0.038	-0.030446216609392618	
15.325	0.001	-0.02933569434474225	
15.33	-0.019	-0.02795381627267051	
15.335	-0.029	-0.023067182716400174	
15.34	0.007	-0.01901354200543588	
15.345	-0.032	-0.017545363536488636	
15.35	-0.035	-0.017646223462271578	
15.355	0.012	-0.017059306255918772	
15.36	-0.035	-0.016936480109868365	
15.365	-0.098	-0.021980415936241293	
15.37	-0.100	-0.03347301202465668	
15.375	-0.107	-0.052360427641296794	
15.38	-0.167	-0.07592307397071585	
15.385	-0.159	-0.09906956127604147	
15.39	-0.109	-0.11903348176161681	
15.395	-0.161	-0.1335154685441297	
15.4	-0.223	-0.14563970329312018	
15.405	-0.205	-0.16109979909724684	
15.41	-0.176	-0.17692294115430932	
15.415	-0.161	-0.18593059320466654	
15.42	-0.138	-0.18348186332071897	
15.425	-0.132	-0.17538432289813555	
15.43	-0.153	-0.16589814157332522	
15.435	-0.161	-0.15705853371288261	
15.44	-0.106	-0.15006919411330616	
15.445	-0.086	-0.14151937920785446	
15.45	-0.043	-0.1255961297387319	
15.455	0.056	-0.09809046092127224	
15.46	0.107	-0.059952448712391276	
15.465	-0.028	-0.019934735157810694	
15.47	-0.251	-0.003495064225769495	
15.475	-0.518	-0.044467359329978015	
15.48	-0.686	-0.1479516997543784	
15.485	-0.668	-0.28899903947613426	
15.49	-0.530	-0.4220255979853137	
15.495	-0.388	-0.5085383073810188	
15.5	-0.219	-0.5275386230457304	
15.505	-0.049	-0.47801041418912726	
15.51	0.013	-0.38100030256382633	
15.515	0.012	-0.2639714663085164	
15.52	0.127	-0.14839805558270847	
15.525	0.148	-0.045414794561744395	
15.53	0.072	0.033994348360871764	
15.535	0.124	0.08799244196366084	
15.54	0.243	0.12498920700271521	
15.545	0.175	0.15438694177375029	
15.55	0.204	0.17737839071082862	
15.555	0.308	0.19899194660443112	
15.56	0.275	0.22201545733516787	
15.565	0.218	0.2409969523637663	
15.57	0.215	0.2505826412921116	
15.575	0.269	0.2506260133990147	
15.58	0.278	0.2510349843537517	
15.585	0.314	0.2579823010776156	
15.59	0.458	0.27799024968906333	
15.595	0.391	0.30942849748373713	
15.6	0.414	0.34437350706185743	
15.605	0.478	0.3779462304436402	
15.61	0.418	0.4060341819339386	
15.615	0.264	0.41702067193081493	
15.62	0.244	0.401520629306484	
15.625	0.188	0.36360937146130545	
15.63	0.058	0.3070941893852486	
15.635	0.027	0.23893355467778393	
15.64	-0.022	0.16692070693009867	
15.645	-0.104	0.09250900691093604	
15.65	-0.132	0.023398442479297638	
15.655	-0.147	-0.03714195042390953	
15.66	-0.185	-0.08991168631826357	
15.665	-0.232	-0.13488693690097825	
15.67	-0.278	-0.17254279705919298	
15.675	-0.274	-0.20939674435241176	
15.68	-0.315	-0.24281449995662951	
15.685	-0.327	-0.2690937248490038	
15.69	-0.277	-0.29012422895205214	
15.695	-0.286	-0.30242970708608125	
15.7	-0.268	-0.3035911359437391	
15.705	-0.231	-0.29519448728188424	
15.71	-0.216	-0.28189750172040395	
15.715	-0.202	-0.2628602193850106	
15.72	-0.161	-0.24056599575297563	
15.725	-0.130	-0.21540471909049175	
15.73	-0.162	-0.19080047015537815	
15.735	-0.148	-0.17110786224290092	
15.74	-0.090	-0.15414273954131402	
15.745	-0.127	-0.1404219957412352	
15.75	-0.133	-0.12859752947179626	
15.755	-0.110	-0.12121934434057645	
15.76	-0.133	-0.11889293796225579	
15.765	-0.210	-0.12385281399258741	
15.77	-0.226	-0.1375963520943322	
15.775	-0.236	-0.1604140613412334	
15.78	-0.243	-0.1867687530575364	
15.785	-0.262	-0.2101045437570639	
15.79	-0.210	-0.22615787901193493	
15.795	-0.237	-0.23740549460255939	
15.8	-0.271	-0.24158304137495443	
15.805	-0.213	-0.2442295987526758	
15.81	-0.210	-0.24289044282349778	
15.815	-0.228	-0.23783125770632163	
15.82	-0.255	-0.23259123456947184	
15.825	-0.240	-0.2324320423675782	
15.83	-0.239	-0.23577107779746878	
15.835	-0.220	-0.2360826930953224	
15.84	-0.155	-0.23016322546210252	
15.845	-0.118	-0.21642917569298098	
15.85	-0.042	-0.18955481918899464	
15.855	0.111	-0.1441916084251366	
15.86	0.046	-0.08592170685307965	
15.865	-0.213	-0.04187766324354252	
15.87	-0.508	-0.05261550350695306	
15.875	-0.692	-0.13648434783575228	
15.88	-0.770	-0.2768009818327586	
15.885	-0.688	-0.4290312863070198	
15.89	-0.521	-0.5461198683314572	
15.895	-0.356	-0.6014202946246248	
15.9	-0.122	-0.5795042658510393	
15.905	0.120	-0.4831451189711489	
15.91	0.185	-0.3329396854230735	
15.915	0.181	-0.16787269248246983	
15.92	0.197	-0.01955138947084983	
15.925	0.174	0.09053862016022717	
15.93	0.240	0.16315498369047432	
15.935	0.359	0.21694933692449658	
15.94	0.508	0.2708869960289766	
15.945	0.536	0.3345214386704064	
15.95	0.495	0.400407898186217	
15.955	0.547	0.4558297605298274	
15.96	0.502	0.49405383379872964	
15.965	0.484	0.5151061724599758	
15.97	0.548	0.5244806268447997	
15.975	0.574	0.5315964205520137	
15.98	0.501	0.5371514086292399	
15.985	0.481	0.5369169719177231	
15.99	0.582	0.5328893779477974	
15.995	0.638	0.5355443242645572	
16.0	0.655	0.5554224609939502	
16.005	0.649	0.5828310345443162	
16.01	0.611	0.6060500777790763	
16.015	0.521	0.616114327711202	
16.02	0.524	0.6084781890815625	
16.025	0.467	0.5865635774526641	
16.03	0.313	0.5471460529237718	
16.035	0.198	0.4879394948489466	
16.04	0.169	0.40985903845466654	
16.045	-0.020	0.31850431671076074	
16.05	-0.122	0.21543880804868565	
16.055	-0.150	0.10683133288574868	
16.06	-0.234	0.0020440765704952298	
16.065	-0.315	-0.09283347422797293	
16.07	-0.330	-0.17650673788917967	
16.075	-0.332	-0.24546376096855874	
16.08	-0.398	-0.29979703139087477	
16.085	-0.388	-0.34001098601517565	
16.09	-0.362	-0.3671888029110183	
16.095	-0.365	-0.3824761437016748	
16.1	-0.336	-0.38548459937399826	
16.105	-0.277	-0.3742084485651872	
16.11	-0.260	-0.3549985858368274	
16.115	-0.258	-0.32877535021469684	
16.12	-0.232	-0.3005150947704748	
16.125	-0.219	-0.2745371213680728	
16.13	-0.161	-0.2507748903394894	
16.135	-0.106	-0.2219704204635502	
16.14	-0.019	-0.18423125931514917	
16.145	-0.083	-0.1435001520637998	
16.15	-0.116	-0.11046743347311264	
16.155	-0.165	-0.09423951824882054	
16.16	-0.211	-0.10104065515374429	
16.165	-0.239	-0.1237610636218376	
16.17	-0.245	-0.15449711222531812	
16.175	-0.304	-0.18855383923912522	
16.18	-0.376	-0.2287885419219896	
16.185	-0.422	-0.2729679664489125	
16.19	-0.393	-0.31823065135990625	
16.195	-0.365	-0.35649786611751355	
16.2	-0.338	-0.37543638269553736	
16.205	-0.321	-0.3781966368692444	
16.21	-0.344	-0.3710466826906095	
16.215	-0.362	-0.36378295086924084	
16.22	-0.341	-0.35546659992880003	
16.225	-0.320	-0.3505411739293237	
16.23	-0.277	-0.34182513246140145	
16.235	-0.226	-0.323936158500055	
16.24	-0.165	-0.2961824104749915	
16.245	-0.188	-0.2645692147570306	
16.25	-0.155	-0.23047784902131763	
16.255	-0.089	-0.19812094005820477	
16.26	-0.153	-0.16906659922696649	
16.265	-0.298	-0.15587560417024468	
16.27	-0.430	-0.1734327478816924	
16.275	-0.511	-0.22752472490258163	
16.28	-0.517	-0.3039142949447897	
16.285	-0.407	-0.37390131804694604	
16.29	-0.278	-0.413077828678757	
16.295	-0.211	-0.4126137376565488	
16.3	-0.061	-0.37049577644912984	
16.305	0.266	-0.28299758975272493	
16.31	0.452	-0.14704304468584298	
16.315	0.553	0.026069277429045475	
16.32	0.631	0.2096412774639768	
16.325	0.667	0.3745139728472188	
16.33	0.606	0.5039690906268597	
16.335	0.596	0.5900568130166023	
16.34	0.744	0.6419543780225045	
16.345	0.758	0.6773186067604471	
16.35	0.952	0.7194699164338866	
16.355	1.191	0.786063002166201	
16.36	1.197	0.8809194625228354	
16.365	1.071	0.9799882528090181	
16.37	1.126	1.0556717043437538	
16.375	1.107	1.101544750703356	
16.38	1.054	1.121950670651648	
16.385	1.084	1.125084137007741	
16.39	1.265	1.1269899335819544	
16.395	1.291	1.1433230201778124	
16.4	1.289	1.1784700006330961	
16.405	1.245	1.2160136730870936	
16.41	1.121	1.233860192812454	
16.415	1.058	1.225027483516313	
16.42	0.984	1.190714828255591	
16.425	0.806	1.1304897944769965	
16.43	0.519	1.0339215479528434	
16.435	0.392	0.9011221469696917	
16.44	0.244	0.7409631285592415	
16.445	0.001	0.5642556362898045	
16.45	-0.086	0.3814877218876419	
16.455	-0.121	0.20907553359774508	
16.46	-0.158	0.06188713277603329	
16.465	-0.240	-0.053953789582529756	
16.47	-0.248	-0.13925236649470374	
16.475	-0.255	-0.2024751642862209	
16.48	-0.254	-0.2440425987148797	
16.485	-0.231	-0.2638456831251731	
16.49	-0.187	-0.2660218926425756	
16.495	-0.260	-0.2597480405389728	
16.5	-0.249	-0.2525182936902819	
16.505	-0.208	-0.24493028339106937	
16.51	-0.222	-0.2391412879172452	
16.515	-0.225	-0.23298753975421882	
16.52	-0.174	-0.2232442506628518	
16.525	-0.162	-0.21246847650346715	
16.53	-0.170	-0.20008804499477148	
16.535	-0.126	-0.18486079033096967	
16.54	-0.055	-0.16398034389933552	
16.545	-0.148	-0.14376526214426372	
16.55	-0.190	-0.13157054985401648	
16.555	-0.127	-0.12989839840834844	
16.56	-0.141	-0.13411088126145815	
16.565	-0.203	-0.14004013135919302	
16.57	-0.202	-0.1492537625425861	
16.575	-0.184	-0.163422464046265	
16.58	-0.202	-0.17810837347522646	
16.585	-0.161	-0.184886019914208	
16.59	-0.104	-0.182937162197023	
16.595	-0.115	-0.17175858504255587	
16.6	-0.060	-0.15259175610826187	
16.605	0.017	-0.12285401142834806	
16.61	-0.048	-0.09110139288556976	
16.615	-0.057	-0.06510560725224138	
16.62	-0.045	-0.04823503679970624	
16.625	0.006	-0.03836330963889505	
16.63	0.039	-0.027162634234884228	
16.635	0.094	-0.006914771184718739	
16.64	0.157	0.023140919837753893	
16.645	0.209	0.05922139582434487	
16.65	0.307	0.10833652078043696	
16.655	0.397	0.1702235409055048	
16.66	0.302	0.23192741264948746	
16.665	0.041	0.26675971289941036	
16.67	-0.057	0.252755589751801	
16.675	-0.074	0.19071610186191185	
16.68	-0.089	0.11075992033987947	
16.685	-0.013	0.04005973094350162	
16.69	0.331	0.009279268807990508	
16.695	0.621	0.04825005923006233	
16.7	0.842	0.17130629397305433	
16.705	1.204	0.3633058705587663	
16.71	1.266	0.5969462952236404	
16.715	1.175	0.8277107507072097	
16.72	1.230	1.0147933876079938	
16.725	1.152	1.1386992636062514	
16.73	1.013	1.197661076819927	
16.735	1.045	1.203054368532289	
16.74	1.078	1.1762626060027164	
16.745	0.981	1.1371369071018398	
16.75	0.933	1.092269257547818	
16.755	0.918	1.0443175012778512	
16.76	0.739	0.9868952022303892	
16.765	0.628	0.9157223016077873	
16.77	0.644	0.8368870870524288	
16.775	0.638	0.7597319143667899	
16.78	0.583	0.6956750998638614	
16.785	0.670	0.6521232522653946	
16.79	0.748	0.6342905743658849	
16.795	0.537	0.6301014583754558	
16.8	0.482	0.6192548807907974	
16.805	0.544	0.596331220808847	
16.81	0.481	0.5669126090234642	
16.815	0.369	0.5347291711044553	
16.82	0.301	0.4918562003216056	
16.825	0.255	0.43570859489586344	
16.83	0.116	0.36869540196875694	
16.835	0.136	0.2991001077838115	
16.84	0.140	0.2342405422313008	
16.845	-0.016	0.17514462532514152	
16.85	-0.011	0.11930250483201571	
16.855	0.029	0.07128597036511829	
16.86	0.010	0.03491879777609206	
16.865	-0.008	0.011798581398720531	
16.87	0.004	0.0008360821497251838	
16.875	-0.011	-0.006316455237694391	
16.88	-0.055	-0.013250441327333521	
16.885	-0.019	-0.018909131739893288	
16.89	0.087	-0.01780538706394292	
16.895	0.030	-0.007807581522760914	
16.9	0.010	0.006319144374176775	
16.905	0.056	0.019213446757910174	
16.91	0.044	0.027922995553345646	
16.915	-0.042	0.030838754185060768	
16.92	-0.071	0.023774320228682637	
16.925	-0.063	0.003652340744302268	
16.93	-0.078	-0.021178657503646198	
16.935	-0.063	-0.04090997993122499	
16.94	-0.057	-0.05387229909950596	
16.945	-0.118	-0.06678532421461224	
16.95	-0.145	-0.07964120558388392	
16.955	-0.113	-0.0938218926005876	
16.96	-0.170	-0.11009050010924781	
16.965	-0.245	-0.1311265905015735	
16.97	-0.207	-0.15422041574050352	
16.975	-0.196	-0.1783561638762182	
16.98	-0.205	-0.19516658156862063	
16.985	-0.181	-0.20190526320325353	
16.99	-0.129	-0.1998779671112934	
16.995	-0.181	-0.19278216335989207	
17.0	-0.211	-0.18463665118275724	
17.005	-0.156	-0.1798278312777991	
17.01	-0.179	-0.17909720621645633	
17.015	-0.217	-0.1801158833782787	
17.02	-0.194	-0.1822099243893323	
17.025	-0.213	-0.1883784818567191	
17.03	-0.252	-0.19818636233913028	
17.035	-0.200	-0.20688483121225706	
17.04	-0.141	-0.2098705569033759	
17.045	-0.174	-0.20480515926371168	
17.05	-0.164	-0.1936234723804909	
17.055	-0.129	-0.17980007962128475	
17.06	-0.284	-0.17412909759338058	
17.065	-0.457	-0.19316067297894998	
17.07	-0.572	-0.24620797266936867	
17.075	-0.617	-0.3303769841821819	
17.08	-0.607	-0.42319651364426625	
17.085	-0.533	-0.4978532419757691	
17.09	-0.408	-0.5388328732541152	
17.095	-0.350	-0.5398123021750703	
17.1	-0.237	-0.5016099193660051	
17.105	-0.060	-0.4297504906883459	
17.11	0.010	-0.3331251017323549	
17.115	0.017	-0.22516209507514945	
17.12	0.070	-0.1231591753320797	
17.125	0.039	-0.042387664236278946	
17.13	-0.087	0.0067227340402692135	
17.135	-0.104	0.020124230696529296	
17.14	-0.116	0.005161318452555024	
17.145	-0.174	-0.029876048229955054	
17.15	-0.156	-0.0686309935143358	
17.155	-0.072	-0.09971262178922141	
17.16	-0.089	-0.11614078828357104	
17.165	-0.098	-0.11918672966105319	
17.17	-0.014	-0.11010518004267497	
17.175	0.035	-0.09134593421855189	
17.18	0.088	-0.059288006946507	
17.185	0.188	-0.012835184789720509	
17.19	0.287	0.048216961685191476	
17.195	0.270	0.11408898034503778	
17.2	0.284	0.17733294825582088	
17.205	0.347	0.2323168880623222	
17.21	0.340	0.27584002228161036	
17.215	0.299	0.3067532527105238	
17.22	0.285	0.3239116038620573	
17.225	0.318	0.32666991638594767	
17.23	0.172	0.3156459312648077	
17.235	0.101	0.29014220084411757	
17.24	0.189	0.2502534907614775	
17.245	0.061	0.20706971916346825	
17.25	0.070	0.1663241095165627	
17.255	0.145	0.13336899892911006	
17.26	0.082	0.1108422670914418	
17.265	0.039	0.09473441877562248	
17.27	0.114	0.08495299952605173	
17.275	0.120	0.08068685131683673	
17.28	0.061	0.08162535202114028	
17.285	0.350	0.09617988548257085	
17.29	0.756	0.15632708224349975	
17.295	0.897	0.28111080063916394	
17.3	1.046	0.45831481332380947	
17.305	1.249	0.6583346410704105	
17.31	1.303	0.8558487753294877	
17.315	1.324	1.0337421971946736	
17.32	1.300	1.1758738728375275	
17.325	1.181	1.2626234493304749	
17.33	1.032	1.286647134042684	
17.335	0.897	1.2551313910554502	
17.34	0.779	1.1741951142976212	
17.345	0.596	1.0560693769743312	
17.35	0.508	0.9183524352884995	
17.355	0.499	0.7803327882596908	
17.36	0.343	0.6518397214325984	
17.365	0.209	0.5317813642446577	
17.37	0.223	0.4229253750873666	
17.375	0.223	0.3306711027574937	
17.38	0.134	0.2596977274203517	
17.385	0.110	0.20616161442264147	
17.39	0.136	0.16521519226820267	
17.395	0.023	0.13110040999472694	
17.4	0.015	0.09934817486265451	
