Vernier Format 2
reposo.txt 10/20/2025 8:51:45
Run 1
Time	Potential	EKG	
T	P	E	
s	mV	mV	

0.000	0.441	0.020	
0.005	0.097	0.072	
0.010	-0.294	0.100	
0.015	0.198	0.082	
0.020	0.351	0.079	
0.025	-0.257	0.092	
0.030	-0.040	0.073	
0.035	0.568	0.060	
0.040	-0.115	0.088	
0.045	-0.203	0.092	
0.050	0.429	0.073	
0.055	0.062	0.083	
0.060	-0.321	0.083	
0.065	0.171	0.049	
0.070	0.369	0.041	
0.075	-0.258	0.060	
0.080	-0.040	0.049	
0.085	0.562	0.045	
0.090	-0.106	0.080	
0.095	-0.208	0.089	
0.100	0.461	0.074	
0.105	0.116	0.091	
0.110	-0.251	0.103	
0.115	0.354	0.089	
0.120	0.518	0.110	
0.125	-0.213	0.155	
0.130	-0.008	0.152	
0.135	0.571	0.138	
0.140	-0.121	0.153	
0.145	-0.223	0.137	
0.150	0.382	0.095	
0.155	0.056	0.084	
0.160	-0.341	0.071	
0.165	0.091	0.026	
0.170	0.288	0.006	
0.175	-0.278	0.012	
0.180	-0.097	-0.003	
0.185	0.434	-0.012	
0.190	-0.177	0.013	
0.195	-0.274	0.014	
0.200	0.337	-0.006	
0.205	0.061	0.007	
0.210	-0.313	0.018	
0.215	0.143	0.001	
0.220	0.357	0.008	
0.225	-0.255	0.037	
0.230	-0.042	0.036	
0.235	0.568	0.039	
0.240	-0.020	0.083	
0.245	-0.074	0.110	
0.250	0.834	0.134	
0.255	0.620	0.223	
0.260	-0.077	0.318	
0.265	0.233	0.338	
0.270	0.085	0.308	
0.275	-0.535	0.230	
0.280	-0.445	0.083	
0.285	-0.118	-0.075	
0.290	-0.425	-0.191	
0.295	-0.413	-0.276	
0.300	0.230	-0.314	
0.305	0.030	-0.271	
0.310	-0.318	-0.201	
0.315	0.226	-0.147	
0.320	0.434	-0.067	
0.325	-0.211	0.025	
0.330	-0.019	0.065	
0.335	0.657	0.092	
0.340	-0.014	0.147	
0.345	-0.159	0.169	
0.350	0.557	0.159	
0.355	0.270	0.181	
0.360	-0.219	0.199	
0.365	0.327	0.179	
0.370	0.562	0.182	
0.375	-0.177	0.208	
0.380	-0.005	0.192	
0.385	0.602	0.168	
0.390	-0.055	0.178	
0.395	-0.155	0.165	
0.400	0.551	0.137	
0.405	0.218	0.152	
0.410	-0.274	0.164	
0.415	0.266	0.137	
0.420	0.537	0.135	
0.425	-0.174	0.163	
0.430	0.032	0.157	
0.435	0.690	0.151	
0.440	0.047	0.188	
0.445	-0.126	0.202	
0.450	0.618	0.191	
0.455	0.305	0.215	
0.460	-0.222	0.234	
0.465	0.327	0.209	
0.470	0.576	0.204	
0.475	-0.135	0.226	
0.480	0.073	0.213	
0.485	0.721	0.201	
0.490	-0.017	0.227	
0.495	-0.173	0.222	
0.500	0.545	0.186	
0.505	0.232	0.188	
0.510	-0.272	0.188	
0.515	0.149	0.146	
0.520	0.328	0.114	
0.525	-0.336	0.100	
0.530	-0.184	0.050	
0.535	0.362	0.000	
0.540	-0.211	-0.009	
0.545	-0.361	-0.031	
0.550	0.119	-0.074	
0.555	-0.115	-0.092	
0.560	-0.468	-0.111	
0.565	-0.093	-0.152	
0.570	0.093	-0.171	
0.575	-0.402	-0.162	
0.580	-0.252	-0.173	
0.585	0.229	-0.177	
0.590	-0.265	-0.150	
0.595	-0.381	-0.140	
0.600	0.149	-0.150	
0.605	-0.064	-0.134	
0.610	-0.416	-0.119	
0.615	-0.031	-0.133	
0.620	0.191	-0.128	
0.625	-0.336	-0.102	
0.630	-0.187	-0.101	
0.635	0.305	-0.100	
0.640	-0.202	-0.071	
0.645	-0.315	-0.063	
0.650	0.333	-0.070	
0.655	0.102	-0.040	
0.660	-0.336	-0.009	
0.665	0.085	-0.014	
0.670	0.363	-0.005	
0.675	-0.252	0.026	
0.680	-0.107	0.025	
0.685	0.498	0.022	
0.690	-0.113	0.052	
0.695	-0.260	0.057	
0.700	0.365	0.037	
0.705	0.107	0.047	
0.710	-0.310	0.055	
0.715	0.110	0.031	
0.720	0.360	0.025	
0.725	-0.248	0.045	
0.730	-0.101	0.035	
0.735	0.522	0.027	
0.740	-0.080	0.058	
0.745	-0.232	0.069	
0.750	0.417	0.055	
0.755	0.189	0.075	
0.760	-0.292	0.094	
0.765	0.217	0.078	
0.770	0.502	0.085	
0.775	-0.216	0.119	
0.780	-0.109	0.113	
0.785	0.513	0.092	
0.790	-0.092	0.103	
0.795	-0.240	0.094	
0.800	0.432	0.065	
0.805	0.172	0.076	
0.810	-0.313	0.089	
0.815	0.067	0.061	
0.820	0.379	0.045	
0.825	-0.229	0.056	
0.830	-0.101	0.043	
0.835	0.527	0.033	
0.840	-0.071	0.063	
0.845	-0.271	0.071	
0.850	0.340	0.049	
0.855	0.140	0.055	
0.860	-0.306	0.062	
0.865	0.152	0.040	
0.870	0.427	0.041	
0.875	-0.231	0.070	
0.880	-0.095	0.065	
0.885	0.553	0.057	
0.890	-0.063	0.086	
0.895	-0.242	0.093	
0.900	0.372	0.071	
0.905	0.181	0.079	
0.910	-0.304	0.088	
0.915	0.114	0.062	
0.920	0.418	0.053	
0.925	-0.248	0.072	
0.930	-0.127	0.058	
0.935	0.521	0.042	
0.940	-0.046	0.066	
0.945	-0.237	0.074	
0.950	0.385	0.059	
0.955	0.157	0.072	
0.960	-0.324	0.082	
0.965	0.099	0.054	
0.970	0.446	0.045	
0.975	-0.202	0.069	
0.980	-0.086	0.066	
0.985	0.585	0.062	
0.990	-0.057	0.096	
0.995	-0.236	0.106	
1.000	0.415	0.086	
1.005	0.215	0.098	
1.010	-0.274	0.112	
1.015	0.169	0.091	
1.020	0.528	0.091	
1.025	-0.181	0.122	
1.030	-0.069	0.120	
1.035	0.565	0.108	
1.040	-0.084	0.127	
1.045	-0.255	0.120	
1.050	0.420	0.086	
1.055	0.194	0.089	
1.060	-0.304	0.098	
1.065	0.046	0.067	
1.070	0.337	0.045	
1.075	-0.274	0.047	
1.080	-0.158	0.022	
1.085	0.460	-0.000	
1.090	-0.115	0.019	
1.095	-0.298	0.021	
1.100	0.252	-0.002	
1.105	0.084	-0.000	
1.110	-0.330	0.005	
1.115	0.058	-0.017	
1.120	0.376	-0.018	
1.125	-0.255	0.011	
1.130	-0.141	0.010	
1.135	0.502	0.006	
1.140	-0.051	0.041	
1.145	-0.210	0.059	
1.150	0.570	0.062	
1.155	0.550	0.120	
1.160	-0.023	0.202	
1.165	0.609	0.257	
1.170	0.712	0.324	
1.175	-0.306	0.377	
1.180	-0.367	0.321	
1.185	-0.089	0.183	
1.190	-0.436	0.035	
1.195	-0.576	-0.114	
1.200	-0.089	-0.244	
1.205	-0.078	-0.302	
1.210	-0.375	-0.303	
1.215	0.119	-0.280	
1.220	0.515	-0.200	
1.225	-0.173	-0.078	
1.230	-0.066	0.000	
1.235	0.644	0.055	
1.240	0.039	0.130	
1.245	-0.182	0.168	
1.250	0.510	0.164	
1.255	0.345	0.186	
1.260	-0.216	0.208	
1.265	0.229	0.187	
1.270	0.585	0.181	
1.275	-0.153	0.201	
1.280	-0.060	0.185	
1.285	0.640	0.159	
1.290	0.023	0.175	
1.295	-0.211	0.172	
1.300	0.490	0.143	
1.305	0.380	0.155	
1.310	-0.226	0.180	
1.315	0.186	0.164	
1.320	0.626	0.162	
1.325	-0.121	0.191	
1.330	-0.042	0.187	
1.335	0.660	0.171	
1.340	0.039	0.192	
1.345	-0.193	0.192	
1.350	0.507	0.165	
1.355	0.409	0.177	
1.360	-0.217	0.202	
1.365	0.209	0.185	
1.370	0.577	0.179	
1.375	-0.141	0.199	
1.380	-0.054	0.183	
1.385	0.707	0.163	
1.390	0.177	0.194	
1.395	-0.158	0.215	
1.400	0.501	0.202	
1.405	0.366	0.215	
1.410	-0.240	0.227	
1.415	0.163	0.193	
1.420	0.513	0.169	
1.425	-0.216	0.171	
1.430	-0.187	0.135	
1.435	0.350	0.082	
1.440	-0.177	0.056	
1.445	-0.407	0.014	
1.450	0.033	-0.054	
1.455	-0.074	-0.096	
1.460	-0.465	-0.126	
1.465	-0.161	-0.171	
1.470	0.151	-0.191	
1.475	-0.341	-0.175	
1.480	-0.295	-0.173	
1.485	0.191	-0.174	
1.490	-0.239	-0.149	
1.495	-0.430	-0.143	
1.500	0.046	-0.162	
1.505	-0.026	-0.158	
1.510	-0.436	-0.148	
1.515	-0.112	-0.162	
1.520	0.244	-0.158	
1.525	-0.317	-0.124	
1.530	-0.258	-0.115	
1.535	0.325	-0.112	
1.540	-0.132	-0.078	
1.545	-0.341	-0.060	
1.550	0.211	-0.068	
1.555	0.055	-0.053	
1.560	-0.378	-0.038	
1.565	-0.031	-0.058	
1.570	0.366	-0.060	
1.575	-0.251	-0.029	
1.580	-0.165	-0.023	
1.585	0.512	-0.018	
1.590	-0.005	0.026	
1.595	-0.243	0.056	
1.600	0.362	0.054	
1.605	0.263	0.077	
1.610	-0.280	0.102	
1.615	0.081	0.086	
1.620	0.518	0.080	
1.625	-0.179	0.106	
1.630	-0.147	0.100	
1.635	0.444	0.077	
1.640	-0.071	0.082	
1.645	-0.278	0.071	
1.650	0.347	0.039	
1.655	0.224	0.046	
1.660	-0.310	0.063	
1.665	0.036	0.043	
1.670	0.440	0.035	
1.675	-0.196	0.058	
1.680	-0.135	0.054	
1.685	0.547	0.046	
1.690	-0.032	0.076	
1.695	-0.281	0.086	
1.700	0.351	0.064	
1.705	0.295	0.074	
1.710	-0.275	0.096	
1.715	0.085	0.082	
1.720	0.492	0.077	
1.725	-0.197	0.101	
1.730	-0.150	0.091	
1.735	0.531	0.072	
1.740	-0.038	0.089	
1.745	-0.312	0.088	
1.750	0.241	0.051	
1.755	0.258	0.044	
1.760	-0.265	0.055	
1.765	0.088	0.042	
1.770	0.534	0.048	
1.775	-0.208	0.086	
1.780	-0.144	0.088	
1.785	0.545	0.075	
1.790	0.000	0.098	
1.795	-0.272	0.104	
1.800	0.319	0.077	
1.805	0.281	0.080	
1.810	-0.291	0.094	
1.815	0.018	0.070	
1.820	0.499	0.057	
1.825	-0.208	0.077	
1.830	-0.161	0.069	
1.835	0.548	0.054	
1.840	-0.005	0.079	
1.845	-0.272	0.089	
1.850	0.273	0.065	
1.855	0.266	0.066	
1.860	-0.278	0.079	
1.865	0.046	0.059	
1.870	0.502	0.053	
1.875	-0.193	0.080	
1.880	-0.179	0.075	
1.885	0.528	0.058	
1.890	0.030	0.081	
1.895	-0.295	0.091	
1.900	0.267	0.065	
1.905	0.255	0.064	
1.910	-0.321	0.072	
1.915	-0.006	0.045	
1.920	0.484	0.030	
1.925	-0.184	0.053	
1.930	-0.170	0.052	
1.935	0.519	0.042	
1.940	0.017	0.070	
1.945	-0.268	0.084	
1.950	0.334	0.067	
1.955	0.319	0.079	
1.960	-0.268	0.103	
1.965	0.065	0.089	
1.970	0.565	0.085	
1.975	-0.118	0.118	
1.980	-0.119	0.121	
1.985	0.553	0.110	
1.990	0.009	0.130	
1.995	-0.263	0.130	
2.000	0.365	0.099	
2.005	0.343	0.103	
2.010	-0.272	0.122	
2.015	-0.005	0.099	
2.020	0.412	0.076	
2.025	-0.225	0.078	
2.030	-0.217	0.052	
2.035	0.406	0.019	
2.040	-0.086	0.022	
2.045	-0.339	0.015	
2.050	0.230	-0.016	
2.055	0.211	-0.013	
2.060	-0.309	0.007	
2.065	-0.013	-0.004	
2.070	0.467	-0.003	
2.075	-0.190	0.032	
2.080	-0.185	0.039	
2.085	0.475	0.031	
2.090	-0.017	0.056	
2.095	-0.283	0.065	
2.100	0.363	0.048	
2.105	0.489	0.073	
2.110	-0.121	0.128	
2.115	0.463	0.165	
2.120	1.031	0.237	
2.125	0.052	0.347	
2.130	-0.216	0.380	
2.135	0.010	0.309	
2.140	-0.379	0.190	
2.145	-0.671	0.032	
2.150	-0.246	-0.143	
2.155	-0.119	-0.262	
2.160	-0.414	-0.313	
2.165	-0.048	-0.327	
2.170	0.524	-0.272	
2.175	-0.138	-0.156	
2.180	-0.136	-0.064	
2.185	0.557	-0.001	
2.190	0.088	0.080	
2.195	-0.252	0.127	
2.200	0.374	0.125	
2.205	0.391	0.142	
2.210	-0.229	0.166	
2.215	0.070	0.148	
2.220	0.585	0.135	
2.225	-0.110	0.155	
2.230	-0.130	0.147	
2.235	0.602	0.127	
2.240	0.091	0.147	
2.245	-0.251	0.155	
2.250	0.398	0.129	
2.255	0.486	0.141	
2.260	-0.197	0.174	
2.265	0.122	0.168	
2.270	0.652	0.167	
2.275	-0.086	0.197	
2.280	-0.101	0.193	
2.285	0.618	0.171	
2.290	0.110	0.186	
2.295	-0.231	0.187	
2.300	0.383	0.154	
2.305	0.402	0.153	
2.310	-0.213	0.169	
2.315	0.116	0.150	
2.320	0.631	0.143	
2.325	-0.124	0.171	
2.330	-0.116	0.165	
2.335	0.647	0.146	
2.340	0.227	0.174	
2.345	-0.152	0.200	
2.350	0.516	0.196	
2.355	0.548	0.224	
2.360	-0.193	0.262	
2.365	0.094	0.244	
2.370	0.606	0.218	
2.375	-0.139	0.219	
2.380	-0.211	0.184	
2.385	0.371	0.124	
2.390	-0.086	0.093	
2.395	-0.393	0.051	
2.400	0.007	-0.019	
2.405	0.006	-0.067	
2.410	-0.430	-0.097	
2.415	-0.165	-0.141	
2.420	0.215	-0.162	
2.425	-0.332	-0.145	
2.430	-0.346	-0.147	
2.435	0.185	-0.159	
2.440	-0.161	-0.142	
2.445	-0.426	-0.134	
2.450	-0.011	-0.152	
2.455	0.013	-0.153	
2.460	-0.411	-0.144	
2.465	-0.185	-0.158	
2.470	0.224	-0.162	
2.475	-0.287	-0.135	
2.480	-0.306	-0.127	
2.485	0.275	-0.129	
2.490	-0.095	-0.099	
2.495	-0.373	-0.079	
2.500	0.084	-0.090	
2.505	0.166	-0.080	
2.510	-0.313	-0.056	
2.515	-0.049	-0.057	
2.520	0.443	-0.046	
2.525	-0.200	-0.003	
2.530	-0.268	0.009	
2.535	0.345	-0.005	
2.540	-0.003	0.008	
2.545	-0.291	0.015	
2.550	0.264	0.001	
2.555	0.316	0.020	
2.560	-0.265	0.054	
2.565	-0.019	0.051	
2.570	0.496	0.048	
2.575	-0.153	0.076	
2.580	-0.199	0.075	
2.585	0.476	0.058	
2.590	0.052	0.075	
2.595	-0.301	0.083	
2.600	0.206	0.056	
2.605	0.342	0.053	
2.610	-0.242	0.071	
2.615	0.033	0.063	
2.620	0.580	0.065	
2.625	-0.122	0.104	
2.630	-0.190	0.111	
2.635	0.449	0.091	
2.640	-0.005	0.097	
2.645	-0.313	0.088	
2.650	0.212	0.048	
2.655	0.330	0.040	
2.660	-0.263	0.056	
2.665	-0.016	0.044	
2.670	0.525	0.041	
2.675	-0.150	0.073	
2.680	-0.190	0.076	
2.685	0.479	0.062	
2.690	0.049	0.081	
2.695	-0.274	0.089	
2.700	0.285	0.067	
2.705	0.388	0.076	
2.710	-0.252	0.103	
2.715	0.009	0.092	
2.720	0.525	0.084	
2.725	-0.177	0.105	
2.730	-0.225	0.093	
2.735	0.406	0.060	
2.740	0.012	0.060	
2.745	-0.294	0.056	
2.750	0.238	0.028	
2.755	0.337	0.033	
2.760	-0.263	0.059	
2.765	-0.029	0.051	
2.770	0.510	0.046	
2.775	-0.156	0.074	
2.780	-0.210	0.073	
2.785	0.476	0.055	
2.790	0.119	0.076	
2.795	-0.271	0.092	
2.800	0.232	0.075	
2.805	0.350	0.077	
2.810	-0.272	0.095	
2.815	-0.060	0.074	
2.820	0.512	0.056	
2.825	-0.136	0.075	
2.830	-0.196	0.072	
2.835	0.486	0.056	
2.840	0.105	0.078	
2.845	-0.287	0.093	
2.850	0.188	0.071	
2.855	0.350	0.067	
2.860	-0.263	0.081	
2.865	-0.038	0.063	
2.870	0.522	0.051	
2.875	-0.130	0.076	
2.880	-0.207	0.077	
2.885	0.432	0.058	
2.890	0.059	0.071	
2.895	-0.287	0.077	
2.900	0.255	0.053	
2.905	0.389	0.060	
2.910	-0.260	0.088	
2.915	-0.066	0.076	
2.920	0.484	0.061	
2.925	-0.158	0.076	
2.930	-0.199	0.068	
2.935	0.515	0.050	
2.940	0.192	0.079	
2.945	-0.242	0.109	
2.950	0.273	0.103	
2.955	0.427	0.115	
2.960	-0.210	0.142	
2.965	0.032	0.131	
2.970	0.596	0.122	
2.975	-0.101	0.147	
2.980	-0.205	0.141	
2.985	0.432	0.108	
2.990	0.090	0.107	
2.995	-0.301	0.101	
3.000	0.183	0.064	
3.005	0.357	0.053	
3.010	-0.281	0.067	
3.015	-0.103	0.047	
3.020	0.435	0.026	
3.025	-0.161	0.039	
3.030	-0.245	0.032	
3.035	0.398	0.011	
3.040	0.015	0.025	
3.045	-0.359	0.030	
3.050	0.140	0.001	
3.055	0.324	-0.002	
3.060	-0.275	0.021	
3.065	-0.075	0.014	
3.070	0.504	0.012	
3.075	-0.153	0.044	
3.080	-0.242	0.050	
3.085	0.449	0.035	
3.090	0.224	0.062	
3.095	-0.181	0.097	
3.100	0.559	0.115	
3.105	0.805	0.184	
3.110	-0.058	0.281	
3.115	-0.002	0.308	
3.120	0.240	0.273	
3.125	-0.402	0.209	
3.130	-0.540	0.088	
3.135	-0.133	-0.062	
3.140	-0.274	-0.175	
3.145	-0.514	-0.253	
3.150	-0.011	-0.305	
3.155	0.334	-0.284	
3.160	-0.249	-0.202	
3.165	-0.023	-0.133	
3.170	0.609	-0.060	
3.175	-0.081	0.038	
3.180	-0.162	0.093	
3.185	0.577	0.110	
3.190	0.226	0.155	
3.195	-0.271	0.183	
3.200	0.266	0.161	
3.205	0.470	0.154	
3.210	-0.217	0.168	
3.215	0.000	0.145	
3.220	0.664	0.128	
3.225	-0.005	0.157	
3.230	-0.132	0.166	
3.235	0.615	0.156	
3.240	0.340	0.189	
3.245	-0.185	0.221	
3.250	0.362	0.212	
3.255	0.533	0.217	
3.260	-0.182	0.238	
3.265	0.018	0.212	
3.270	0.618	0.182	
3.275	-0.061	0.189	
3.280	-0.190	0.172	
3.285	0.461	0.132	
3.290	0.209	0.132	
3.295	-0.217	0.138	
3.300	0.388	0.123	
3.305	0.631	0.148	
3.310	-0.136	0.202	
3.315	0.055	0.211	
3.320	0.706	0.208	
3.325	-0.017	0.234	
3.330	-0.142	0.229	
3.335	0.602	0.198	
3.340	0.307	0.209	
3.345	-0.216	0.222	
3.350	0.284	0.195	
3.355	0.463	0.183	
3.360	-0.266	0.187	
3.365	-0.101	0.147	
3.370	0.464	0.099	
3.375	-0.196	0.087	
3.380	-0.344	0.052	
3.385	0.206	-0.006	
3.390	-0.031	-0.031	
3.395	-0.408	-0.050	
3.400	-0.048	-0.092	
3.405	0.128	-0.113	
3.410	-0.405	-0.111	
3.415	-0.272	-0.134	
3.420	0.180	-0.156	
3.425	-0.278	-0.147	
3.430	-0.398	-0.151	
3.435	0.128	-0.169	
3.440	-0.097	-0.157	
3.445	-0.451	-0.146	
3.450	-0.100	-0.165	
3.455	0.079	-0.170	
3.460	-0.390	-0.156	
3.465	-0.214	-0.163	
3.470	0.321	-0.159	
3.475	-0.213	-0.118	
3.480	-0.329	-0.096	
3.485	0.336	-0.092	
3.490	0.090	-0.053	
3.495	-0.342	-0.016	
3.500	0.056	-0.020	
3.505	0.337	-0.013	
3.510	-0.294	0.013	
3.515	-0.156	0.004	
3.520	0.458	-0.007	
3.525	-0.116	0.018	
3.530	-0.263	0.025	
3.535	0.339	0.010	
3.540	0.070	0.023	
3.545	-0.330	0.032	
3.550	0.114	0.009	
3.555	0.441	0.011	
3.560	-0.213	0.047	
3.565	-0.075	0.053	
3.570	0.548	0.054	
3.575	-0.068	0.089	
3.580	-0.228	0.098	
3.585	0.458	0.082	
3.590	0.215	0.100	
3.595	-0.283	0.119	
3.600	0.151	0.097	
3.605	0.438	0.089	
3.610	-0.232	0.106	
3.615	-0.110	0.088	
3.620	0.489	0.065	
3.625	-0.132	0.075	
3.630	-0.283	0.064	
3.635	0.368	0.031	
3.640	0.151	0.037	
3.645	-0.291	0.051	
3.650	0.157	0.036	
3.655	0.463	0.044	
3.660	-0.210	0.080	
3.665	-0.052	0.083	
3.670	0.582	0.081	
3.675	-0.054	0.114	
3.680	-0.220	0.121	
3.685	0.417	0.099	
3.690	0.157	0.105	
3.695	-0.327	0.107	
3.700	0.111	0.071	
3.705	0.359	0.051	
3.710	-0.263	0.059	
3.715	-0.133	0.037	
3.720	0.530	0.020	
3.725	-0.069	0.047	
3.730	-0.249	0.059	
3.735	0.374	0.044	
3.740	0.162	0.060	
3.745	-0.318	0.074	
3.750	0.097	0.050	
3.755	0.461	0.044	
3.760	-0.211	0.071	
3.765	-0.098	0.068	
3.770	0.559	0.061	
3.775	-0.066	0.090	
3.780	-0.258	0.096	
3.785	0.394	0.072	
3.790	0.192	0.080	
3.795	-0.291	0.092	
3.800	0.131	0.069	
3.805	0.467	0.065	
3.810	-0.208	0.091	
3.815	-0.104	0.084	
3.820	0.571	0.073	
3.825	-0.035	0.100	
3.830	-0.210	0.108	
3.835	0.470	0.093	
3.840	0.249	0.114	
3.845	-0.277	0.135	
3.850	0.185	0.115	
3.855	0.490	0.110	
3.860	-0.234	0.131	
3.865	-0.127	0.112	
3.870	0.508	0.083	
3.875	-0.118	0.089	
3.880	-0.303	0.074	
3.885	0.290	0.033	
3.890	0.136	0.026	
3.895	-0.317	0.029	
3.900	0.049	0.004	
3.905	0.362	-0.002	
3.910	-0.258	0.019	
3.915	-0.164	0.011	
3.920	0.420	-0.003	
3.925	-0.116	0.017	
3.930	-0.286	0.019	
3.935	0.328	-0.000	
3.940	0.122	0.013	
3.945	-0.327	0.029	
3.950	0.145	0.013	
3.955	0.528	0.026	
3.960	-0.129	0.077	
3.965	0.062	0.103	
3.970	0.852	0.136	
3.975	0.269	0.221	
3.980	-0.144	0.280	
3.985	0.319	0.271	
3.990	-0.109	0.234	
3.995	-0.587	0.150	
4.000	-0.303	0.008	
4.005	-0.118	-0.123	
4.010	-0.508	-0.214	
4.015	-0.352	-0.287	
4.020	0.259	-0.314	
4.025	-0.121	-0.267	
4.030	-0.246	-0.206	
4.035	0.486	-0.143	
4.040	0.372	-0.035	
4.045	-0.242	0.070	
4.050	0.227	0.114	
4.055	0.670	0.155	
4.060	-0.100	0.215	
4.065	-0.014	0.226	
4.070	0.684	0.215	
4.075	0.091	0.237	
4.080	-0.176	0.236	
4.085	0.541	0.204	
4.090	0.426	0.213	
4.095	-0.217	0.232	
4.100	0.208	0.208	
4.105	0.609	0.195	
4.110	-0.126	0.212	
4.115	-0.040	0.197	
4.120	0.661	0.174	
4.125	0.076	0.193	
4.130	-0.194	0.195	
4.135	0.435	0.166	
4.140	0.321	0.167	
4.145	-0.210	0.177	
4.150	0.281	0.157	
4.155	0.631	0.164	
4.160	-0.124	0.202	
4.165	0.001	0.202	
4.170	0.713	0.191	
4.175	0.081	0.221	
4.180	-0.179	0.226	
4.185	0.545	0.200	
4.190	0.392	0.210	
4.195	-0.216	0.228	
4.200	0.212	0.202	
4.205	0.649	0.192	
4.210	-0.142	0.215	
4.215	-0.086	0.199	
4.220	0.614	0.168	
4.225	0.013	0.176	
4.230	-0.251	0.165	
4.235	0.296	0.120	
4.240	0.125	0.098	
4.245	-0.364	0.077	
4.250	-0.046	0.023	
4.255	0.282	-0.016	
4.260	-0.338	-0.024	
4.265	-0.292	-0.055	
4.270	0.208	-0.093	
4.275	-0.226	-0.099	
4.280	-0.446	-0.116	
4.285	0.001	-0.154	
4.290	-0.058	-0.168	
4.295	-0.463	-0.170	
4.300	-0.170	-0.193	
4.305	0.113	-0.201	
4.310	-0.375	-0.182	
4.315	-0.307	-0.183	
4.320	0.226	-0.185	
4.325	-0.208	-0.154	
4.330	-0.413	-0.139	
4.335	0.130	-0.147	
4.340	0.070	-0.128	
4.345	-0.362	-0.099	
4.350	-0.052	-0.099	
4.355	0.365	-0.086	
4.360	-0.257	-0.044	
4.365	-0.210	-0.032	
4.370	0.406	-0.032	
4.375	-0.109	-0.004	
4.380	-0.318	0.005	
4.385	0.259	-0.014	
4.390	0.194	-0.003	
4.395	-0.332	0.018	
4.400	-0.008	0.003	
4.405	0.414	-0.002	
4.410	-0.245	0.022	
4.415	-0.184	0.018	
4.420	0.513	0.008	
4.425	-0.038	0.039	
4.430	-0.281	0.054	
4.435	0.380	0.041	
4.440	0.314	0.064	
4.445	-0.258	0.098	
4.450	0.067	0.090	
4.455	0.464	0.086	
4.460	-0.210	0.104	
4.465	-0.171	0.088	
4.470	0.522	0.062	
4.475	0.004	0.079	
4.480	-0.263	0.085	
4.485	0.350	0.064	
4.490	0.259	0.074	
4.495	-0.313	0.091	
4.500	-0.008	0.065	
4.505	0.437	0.045	
4.510	-0.205	0.058	
4.515	-0.148	0.048	
4.520	0.547	0.036	
4.525	-0.005	0.067	
4.530	-0.274	0.082	
4.535	0.324	0.064	
4.540	0.259	0.072	
4.545	-0.298	0.088	
4.550	0.009	0.065	
4.555	0.461	0.049	
4.560	-0.184	0.067	
4.565	-0.138	0.062	
4.570	0.553	0.052	
4.575	-0.019	0.081	
4.580	-0.268	0.092	
4.585	0.330	0.070	
4.590	0.267	0.077	
4.595	-0.301	0.092	
4.600	-0.003	0.067	
4.605	0.447	0.048	
4.610	-0.208	0.062	
4.615	-0.155	0.052	
4.620	0.516	0.037	
4.625	-0.017	0.063	
4.630	-0.295	0.072	
4.635	0.243	0.047	
4.640	0.236	0.045	
4.645	-0.287	0.056	
4.650	0.042	0.037	
4.655	0.504	0.035	
4.660	-0.168	0.068	
4.665	-0.141	0.073	
4.670	0.522	0.065	
4.675	-0.019	0.090	
4.680	-0.292	0.095	
4.685	0.330	0.067	
4.690	0.328	0.073	
4.695	-0.277	0.095	
4.700	0.068	0.081	
4.705	0.563	0.079	
4.710	-0.153	0.111	
4.715	-0.147	0.112	
4.720	0.525	0.095	
4.725	0.033	0.112	
4.730	-0.243	0.116	
4.735	0.342	0.092	
4.740	0.307	0.097	
4.745	-0.272	0.113	
4.750	0.020	0.090	
4.755	0.499	0.075	
4.760	-0.177	0.092	
4.765	-0.161	0.083	
4.770	0.481	0.062	
4.775	-0.049	0.075	
4.780	-0.318	0.071	
4.785	0.236	0.035	
4.790	0.214	0.028	
4.795	-0.339	0.034	
4.800	-0.057	0.007	
4.805	0.394	-0.011	
4.810	-0.237	0.006	
4.815	-0.211	-0.001	
4.820	0.441	-0.014	
4.825	-0.045	0.011	
4.830	-0.295	0.024	
4.835	0.253	0.008	
4.840	0.252	0.020	
4.845	-0.289	0.044	
4.850	0.088	0.037	
4.855	0.721	0.054	
4.860	-0.002	0.124	
4.865	0.116	0.173	
4.870	0.993	0.222	
4.875	0.313	0.316	
4.880	-0.330	0.364	
4.885	-0.066	0.301	
4.890	-0.164	0.186	
4.895	-0.614	0.048	
4.900	-0.356	-0.109	
4.905	0.000	-0.227	
4.910	-0.332	-0.275	
4.915	-0.239	-0.290	
4.920	0.475	-0.259	
4.925	0.027	-0.162	
4.930	-0.275	-0.073	
4.935	0.402	-0.021	
4.940	0.402	0.051	
4.945	-0.266	0.121	
4.950	0.099	0.131	
4.955	0.647	0.139	
4.960	-0.095	0.177	
4.965	-0.118	0.179	
4.970	0.625	0.160	
4.975	0.140	0.180	
4.980	-0.217	0.188	
4.985	0.424	0.164	
4.990	0.464	0.172	
4.995	-0.223	0.196	
5.000	0.087	0.177	
5.005	0.680	0.164	
5.010	-0.054	0.191	
5.015	-0.116	0.191	
5.020	0.562	0.168	
5.025	0.082	0.176	
5.030	-0.242	0.170	
5.035	0.362	0.134	
5.040	0.388	0.131	
5.045	-0.211	0.149	
5.050	0.148	0.135	
5.055	0.681	0.139	
5.060	-0.089	0.180	
5.065	-0.097	0.186	
5.070	0.672	0.173	
5.075	0.221	0.202	
5.080	-0.164	0.223	
5.085	0.527	0.212	
5.090	0.542	0.233	
5.095	-0.171	0.267	
5.100	0.148	0.250	
5.105	0.599	0.229	
5.110	-0.109	0.234	
5.115	-0.167	0.203	
5.120	0.498	0.153	
5.125	0.017	0.139	
5.130	-0.330	0.116	
5.135	0.152	0.060	
5.140	0.226	0.031	
5.145	-0.352	0.023	
5.150	-0.141	-0.014	
5.155	0.282	-0.046	
5.160	-0.284	-0.047	
5.165	-0.330	-0.067	
5.170	0.180	-0.100	
5.175	-0.162	-0.104	
5.180	-0.449	-0.114	
5.185	-0.032	-0.148	
5.190	0.021	-0.161	
5.195	-0.443	-0.157	
5.200	-0.205	-0.176	
5.205	0.230	-0.181	
5.210	-0.309	-0.153	
5.215	-0.326	-0.144	
5.220	0.226	-0.147	
5.225	-0.119	-0.121	
5.230	-0.394	-0.104	
5.235	0.073	-0.116	
5.240	0.165	-0.104	
5.245	-0.356	-0.077	
5.250	-0.135	-0.081	
5.255	0.340	-0.081	
5.260	-0.263	-0.053	
5.265	-0.294	-0.052	
5.270	0.356	-0.064	
5.275	0.033	-0.038	
5.280	-0.301	-0.012	
5.285	0.233	-0.013	
5.290	0.325	0.012	
5.295	-0.272	0.050	
5.300	-0.022	0.048	
5.305	0.533	0.049	
5.310	-0.135	0.082	
5.315	-0.188	0.087	
5.320	0.415	0.068	
5.325	-0.008	0.076	
5.330	-0.339	0.069	
5.335	0.152	0.028	
5.340	0.343	0.017	
5.345	-0.274	0.034	
5.350	-0.051	0.025	
5.355	0.469	0.020	
5.360	-0.173	0.047	
5.365	-0.223	0.047	
5.370	0.440	0.030	
5.375	0.081	0.050	
5.380	-0.257	0.067	
5.385	0.340	0.058	
5.390	0.418	0.082	
5.395	-0.255	0.121	
5.400	-0.002	0.114	
5.405	0.560	0.103	
5.410	-0.150	0.123	
5.415	-0.223	0.112	
5.420	0.487	0.081	
5.425	0.087	0.089	
5.430	-0.295	0.094	
5.435	0.208	0.065	
5.440	0.324	0.059	
5.445	-0.281	0.072	
5.450	-0.071	0.051	
5.455	0.443	0.032	
5.460	-0.161	0.047	
5.465	-0.203	0.042	
5.470	0.492	0.028	
5.475	0.087	0.056	
5.480	-0.295	0.077	
5.485	0.259	0.061	
5.490	0.438	0.073	
5.495	-0.243	0.106	
5.500	-0.025	0.100	
5.505	0.560	0.091	
5.510	-0.104	0.115	
5.515	-0.207	0.113	
5.520	0.441	0.087	
5.525	0.101	0.094	
5.530	-0.277	0.097	
5.535	0.209	0.070	
5.540	0.340	0.065	
5.545	-0.295	0.079	
5.550	-0.097	0.055	
5.555	0.486	0.033	
5.560	-0.124	0.050	
5.565	-0.213	0.051	
5.570	0.434	0.037	
5.575	0.038	0.055	
5.580	-0.307	0.063	
5.585	0.272	0.041	
5.590	0.467	0.055	
5.595	-0.229	0.097	
5.600	-0.045	0.098	
5.605	0.541	0.091	
5.610	-0.126	0.112	
5.615	-0.207	0.106	
5.620	0.449	0.079	
5.625	0.072	0.087	
5.630	-0.313	0.087	
5.635	0.151	0.053	
5.640	0.308	0.040	
5.645	-0.312	0.047	
5.650	-0.064	0.024	
5.655	0.567	0.015	
5.660	-0.129	0.050	
5.665	-0.217	0.063	
5.670	0.487	0.054	
5.675	0.172	0.083	
5.680	-0.245	0.108	
5.685	0.321	0.101	
5.690	0.490	0.120	
5.695	-0.202	0.158	
5.700	-0.016	0.150	
5.705	0.585	0.135	
5.710	-0.092	0.152	
5.715	-0.210	0.141	
5.720	0.380	0.103	
5.725	0.050	0.094	
5.730	-0.320	0.079	
5.735	0.125	0.036	
5.740	0.343	0.021	
5.745	-0.263	0.035	
5.750	-0.107	0.022	
5.755	0.443	0.010	
5.760	-0.181	0.030	
5.765	-0.277	0.025	
5.770	0.371	0.001	
5.775	0.085	0.015	
5.780	-0.313	0.029	
5.785	0.146	0.013	
5.790	0.340	0.017	
5.795	-0.283	0.041	
5.800	-0.107	0.030	
5.805	0.450	0.017	
5.810	-0.159	0.037	
5.815	-0.258	0.034	
5.820	0.441	0.015	
5.825	0.220	0.042	
5.830	-0.171	0.080	
5.835	0.583	0.106	
5.840	0.866	0.184	
5.845	-0.008	0.296	
5.850	0.017	0.336	
5.855	0.296	0.308	
5.860	-0.381	0.248	
5.865	-0.567	0.126	
5.870	-0.133	-0.034	
5.875	-0.223	-0.155	
5.880	-0.459	-0.234	
5.885	0.055	-0.280	
5.890	0.328	-0.251	
5.895	-0.275	-0.171	
5.900	-0.077	-0.114	
5.905	0.580	-0.058	
5.910	-0.077	0.027	
5.915	-0.207	0.074	
5.920	0.493	0.083	
5.925	0.220	0.119	
5.930	-0.236	0.147	
5.935	0.334	0.137	
5.940	0.530	0.151	
5.945	-0.216	0.185	
5.950	-0.020	0.171	
5.955	0.669	0.151	
5.960	-0.016	0.174	
5.965	-0.168	0.175	
5.970	0.518	0.150	
5.975	0.292	0.164	
5.980	-0.234	0.181	
5.985	0.249	0.159	
5.990	0.524	0.155	
5.995	-0.185	0.176	
6.000	-0.026	0.159	
6.005	0.596	0.139	
6.010	-0.064	0.153	
6.015	-0.188	0.145	
6.020	0.547	0.119	
6.025	0.267	0.139	
6.030	-0.228	0.162	
6.035	0.296	0.148	
6.040	0.562	0.157	
6.045	-0.162	0.190	
6.050	0.033	0.184	
6.055	0.713	0.176	
6.060	0.020	0.207	
6.065	-0.141	0.213	
6.070	0.571	0.190	
6.075	0.333	0.206	
6.080	-0.214	0.223	
6.085	0.290	0.199	
6.090	0.515	0.191	
6.095	-0.213	0.203	
6.100	-0.075	0.172	
6.105	0.489	0.131	
6.110	-0.133	0.122	
6.115	-0.300	0.091	
6.120	0.206	0.035	
6.125	-0.058	0.004	
6.130	-0.428	-0.028	
6.135	-0.098	-0.085	
6.140	0.088	-0.122	
6.145	-0.382	-0.132	
6.150	-0.266	-0.156	
6.155	0.178	-0.173	
6.160	-0.278	-0.158	
6.165	-0.391	-0.157	
6.170	0.175	-0.168	
6.175	-0.055	-0.147	
6.180	-0.419	-0.126	
6.185	-0.052	-0.136	
6.190	0.214	-0.130	
6.195	-0.344	-0.102	
6.200	-0.222	-0.101	
6.205	0.313	-0.104	
6.210	-0.203	-0.077	
6.215	-0.330	-0.069	
6.220	0.279	-0.079	
6.225	0.030	-0.058	
6.230	-0.370	-0.038	
6.235	0.046	-0.052	
6.240	0.340	-0.046	
6.245	-0.303	-0.015	
6.250	-0.179	-0.018	
6.255	0.423	-0.027	
6.260	-0.132	-0.002	
6.265	-0.274	0.006	
6.270	0.415	-0.004	
6.275	0.152	0.025	
6.280	-0.332	0.052	
6.285	0.082	0.036	
6.290	0.426	0.034	
6.295	-0.214	0.059	
6.300	-0.113	0.056	
6.305	0.475	0.045	
6.310	-0.084	0.066	
6.315	-0.254	0.067	
6.320	0.369	0.045	
6.325	0.181	0.056	
6.330	-0.306	0.071	
6.335	0.134	0.052	
6.340	0.463	0.052	
6.345	-0.255	0.080	
6.350	-0.144	0.070	
6.355	0.499	0.050	
6.360	-0.097	0.066	
6.365	-0.265	0.064	
6.370	0.395	0.040	
6.375	0.258	0.057	
6.380	-0.265	0.085	
6.385	0.149	0.077	
6.390	0.475	0.083	
6.395	-0.229	0.110	
6.400	-0.119	0.099	
6.405	0.525	0.077	
6.410	-0.063	0.093	
6.415	-0.254	0.090	
6.420	0.369	0.063	
6.425	0.181	0.068	
6.430	-0.272	0.080	
6.435	0.101	0.059	
6.440	0.394	0.052	
6.445	-0.232	0.070	
6.450	-0.126	0.056	
6.455	0.531	0.042	
6.460	-0.064	0.067	
6.465	-0.260	0.074	
6.470	0.342	0.052	
6.475	0.163	0.059	
6.480	-0.277	0.070	
6.485	0.140	0.050	
6.490	0.481	0.054	
6.495	-0.207	0.087	
6.500	-0.122	0.085	
6.505	0.528	0.072	
6.510	-0.064	0.092	
6.515	-0.254	0.092	
6.520	0.411	0.067	
6.525	0.212	0.079	
6.530	-0.303	0.094	
6.535	0.120	0.072	
6.540	0.482	0.067	
6.545	-0.210	0.093	
6.550	-0.155	0.084	
6.555	0.513	0.064	
6.560	-0.069	0.079	
6.565	-0.272	0.077	
6.570	0.353	0.050	
6.575	0.218	0.057	
6.580	-0.292	0.073	
6.585	0.139	0.057	
6.590	0.501	0.061	
6.595	-0.211	0.095	
6.600	-0.144	0.091	
6.605	0.516	0.073	
6.610	-0.052	0.089	
6.615	-0.254	0.088	
6.620	0.356	0.062	
6.625	0.192	0.067	
6.630	-0.312	0.078	
6.635	0.068	0.051	
6.640	0.446	0.042	
6.645	-0.220	0.063	
6.650	-0.165	0.055	
6.655	0.444	0.036	
6.660	-0.052	0.051	
6.665	-0.275	0.052	
6.670	0.351	0.031	
6.675	0.276	0.048	
6.680	-0.249	0.077	
6.685	0.140	0.074	
6.690	0.508	0.083	
6.695	-0.207	0.116	
6.700	-0.138	0.109	
6.705	0.499	0.086	
6.710	-0.046	0.097	
6.715	-0.280	0.090	
6.720	0.339	0.058	
6.725	0.258	0.061	
6.730	-0.269	0.079	
6.735	0.107	0.065	
6.740	0.502	0.067	
6.745	-0.190	0.098	
6.750	-0.129	0.095	
6.755	0.505	0.078	
6.760	-0.040	0.095	
6.765	-0.229	0.094	
6.770	0.431	0.074	
6.775	0.334	0.094	
6.780	-0.269	0.125	
6.785	0.157	0.115	
6.790	0.512	0.115	
6.795	-0.216	0.138	
6.800	-0.168	0.120	
6.805	0.470	0.085	
6.810	-0.061	0.085	
6.815	-0.310	0.071	
6.820	0.233	0.030	
6.825	0.149	0.019	
6.830	-0.335	0.019	
6.835	0.003	-0.009	
6.840	0.389	-0.018	
6.845	-0.243	0.006	
6.850	-0.188	0.003	
6.855	0.429	-0.007	
6.860	-0.093	0.015	
6.865	-0.309	0.021	
6.870	0.316	0.001	
6.875	0.178	0.014	
6.880	-0.303	0.035	
6.885	0.149	0.026	
6.890	0.644	0.047	
6.895	-0.043	0.112	
6.900	0.119	0.155	
6.905	0.985	0.202	
6.910	0.372	0.301	
6.915	-0.211	0.365	
6.920	0.056	0.329	
6.925	-0.162	0.238	
6.930	-0.617	0.109	
6.935	-0.335	-0.054	
6.940	-0.043	-0.186	
6.945	-0.379	-0.254	
6.950	-0.252	-0.289	
6.955	0.421	-0.274	
6.960	-0.054	-0.191	
6.965	-0.291	-0.114	
6.970	0.333	-0.069	
6.975	0.356	-0.001	
6.980	-0.220	0.071	
6.985	0.148	0.096	
6.990	0.547	0.120	
6.995	-0.136	0.160	
7.000	-0.080	0.159	
7.005	0.655	0.146	
7.010	0.111	0.175	
7.015	-0.226	0.186	
7.020	0.406	0.161	
7.025	0.377	0.163	
7.030	-0.222	0.177	
7.035	0.171	0.156	
7.040	0.612	0.151	
7.045	-0.144	0.178	
7.050	-0.130	0.168	
7.055	0.542	0.138	
7.060	0.023	0.143	
7.065	-0.239	0.135	
7.070	0.418	0.105	
7.075	0.409	0.117	
7.080	-0.217	0.148	
7.085	0.194	0.144	
7.090	0.649	0.153	
7.095	-0.103	0.194	
7.100	-0.077	0.195	
7.105	0.640	0.177	
7.110	0.127	0.197	
7.115	-0.182	0.203	
7.120	0.512	0.181	
7.125	0.472	0.198	
7.130	-0.210	0.227	
7.135	0.128	0.208	
7.140	0.603	0.190	
7.145	-0.139	0.201	
7.150	-0.101	0.180	
7.155	0.618	0.149	
7.160	0.012	0.159	
7.165	-0.300	0.151	
7.170	0.227	0.102	
7.175	0.209	0.076	
7.180	-0.332	0.064	
7.185	-0.060	0.022	
7.190	0.356	-0.007	
7.195	-0.280	-0.003	
7.200	-0.281	-0.022	
7.205	0.186	-0.058	
7.210	-0.179	-0.069	
7.215	-0.433	-0.090	
7.220	-0.019	-0.132	
7.225	-0.048	-0.153	
7.230	-0.469	-0.161	
7.235	-0.190	-0.190	
7.240	0.191	-0.200	
7.245	-0.329	-0.174	
7.250	-0.317	-0.165	
7.255	0.261	-0.163	
7.260	-0.139	-0.128	
7.265	-0.382	-0.106	
7.270	0.143	-0.111	
7.275	0.140	-0.091	
7.280	-0.356	-0.061	
7.285	-0.083	-0.065	
7.290	0.377	-0.062	
7.295	-0.236	-0.029	
7.300	-0.220	-0.022	
7.305	0.423	-0.026	
7.310	-0.071	0.002	
7.315	-0.347	0.013	
7.320	0.188	-0.011	
7.325	0.240	-0.008	
7.330	-0.310	0.011	
7.335	-0.016	0.000	
7.340	0.444	-0.001	
7.345	-0.200	0.030	
7.350	-0.182	0.033	
7.355	0.463	0.024	
7.360	0.000	0.049	
7.365	-0.284	0.061	
7.370	0.318	0.044	
7.375	0.348	0.059	
7.380	-0.254	0.091	
7.385	0.035	0.084	
7.390	0.539	0.082	
7.395	-0.170	0.109	
7.400	-0.190	0.103	
7.405	0.473	0.077	
7.410	0.018	0.086	
7.415	-0.291	0.085	
7.420	0.295	0.056	
7.425	0.376	0.063	
7.430	-0.228	0.092	
7.435	0.017	0.087	
7.440	0.493	0.082	
7.445	-0.190	0.102	
7.450	-0.228	0.088	
7.455	0.434	0.055	
7.460	0.007	0.058	
7.465	-0.318	0.055	
7.470	0.221	0.025	
7.475	0.348	0.027	
7.480	-0.251	0.054	
7.485	0.044	0.052	
7.490	0.541	0.059	
7.495	-0.150	0.097	
7.500	-0.177	0.100	
7.505	0.492	0.083	
7.510	0.030	0.098	
7.515	-0.277	0.099	
7.520	0.324	0.073	
7.525	0.353	0.080	
7.530	-0.274	0.103	
7.535	-0.037	0.085	
7.540	0.461	0.066	
7.545	-0.193	0.076	
7.550	-0.207	0.061	
7.555	0.446	0.035	
7.560	0.017	0.048	
7.565	-0.303	0.054	
7.570	0.272	0.032	
7.575	0.360	0.043	
7.580	-0.249	0.075	
7.585	0.032	0.072	
7.590	0.562	0.074	
7.595	-0.152	0.108	
7.600	-0.205	0.107	
7.605	0.467	0.083	
7.610	0.017	0.090	
7.615	-0.307	0.086	
7.620	0.255	0.052	
7.625	0.330	0.050	
7.630	-0.263	0.070	
7.635	-0.008	0.058	
7.640	0.516	0.052	
7.645	-0.164	0.079	
7.650	-0.219	0.076	
7.655	0.429	0.053	
7.660	0.032	0.063	
7.665	-0.307	0.065	
7.670	0.246	0.038	
7.675	0.304	0.040	
7.680	-0.301	0.060	
7.685	-0.057	0.042	
7.690	0.473	0.028	
7.695	-0.121	0.051	
7.700	-0.147	0.057	
7.705	0.576	0.057	
7.710	0.128	0.099	
7.715	-0.266	0.127	
7.720	0.325	0.114	
7.725	0.437	0.124	
7.730	-0.223	0.151	
7.735	0.000	0.136	
7.740	0.533	0.118	
7.745	-0.138	0.130	
7.750	-0.182	0.115	
7.755	0.467	0.085	
7.760	0.032	0.091	
7.765	-0.333	0.086	
7.770	0.133	0.045	
7.775	0.304	0.027	
7.780	-0.277	0.035	
7.785	-0.055	0.018	
7.790	0.452	0.009	
7.795	-0.190	0.034	
7.800	-0.237	0.032	
7.805	0.412	0.014	
7.810	-0.002	0.029	
7.815	-0.330	0.035	
7.820	0.143	0.007	
7.825	0.275	0.003	
7.830	-0.297	0.019	
7.835	-0.075	0.005	
7.840	0.498	-0.001	
7.845	-0.184	0.031	
7.850	-0.231	0.036	
7.855	0.464	0.024	
7.860	0.183	0.054	
7.865	-0.158	0.090	
7.870	0.577	0.111	
7.875	0.813	0.185	
7.880	-0.042	0.287	
7.885	0.032	0.319	
7.890	0.278	0.290	
7.895	-0.378	0.232	
7.900	-0.512	0.115	
7.905	-0.109	-0.034	
7.910	-0.294	-0.148	
7.915	-0.512	-0.232	
7.920	-0.025	-0.293	
7.925	0.224	-0.284	
7.930	-0.298	-0.222	
7.935	-0.058	-0.170	
7.940	0.551	-0.107	
7.945	-0.112	-0.013	
7.950	-0.173	0.043	
7.955	0.544	0.066	
7.960	0.272	0.120	
7.965	-0.179	0.166	
7.970	0.403	0.173	
7.975	0.499	0.196	
7.980	-0.184	0.228	
7.985	0.050	0.210	
7.990	0.635	0.187	
7.995	-0.058	0.200	
8.000	-0.139	0.187	
8.005	0.614	0.159	
8.010	0.252	0.177	
8.015	-0.231	0.195	
8.020	0.333	0.173	
8.025	0.486	0.173	
8.030	-0.234	0.190	
8.035	-0.058	0.162	
8.040	0.631	0.131	
8.045	-0.029	0.146	
8.050	-0.159	0.145	
8.055	0.544	0.127	
8.060	0.223	0.148	
8.065	-0.223	0.166	
8.070	0.347	0.150	
8.075	0.574	0.163	
8.080	-0.147	0.201	
8.085	0.110	0.201	
8.090	0.721	0.200	
8.095	0.004	0.235	
8.100	-0.107	0.237	
8.105	0.646	0.215	
8.110	0.288	0.232	
8.115	-0.228	0.244	
8.120	0.281	0.210	
8.125	0.415	0.189	
8.130	-0.251	0.183	
8.135	-0.086	0.139	
8.140	0.421	0.091	
8.145	-0.199	0.077	
8.150	-0.295	0.043	
8.155	0.285	-0.005	
8.160	-0.066	-0.018	
8.165	-0.434	-0.034	
8.170	-0.058	-0.081	
8.175	0.116	-0.110	
8.180	-0.396	-0.114	
8.185	-0.237	-0.137	
8.190	0.220	-0.153	
8.195	-0.268	-0.136	
8.200	-0.378	-0.134	
8.205	0.114	-0.151	
8.210	-0.138	-0.144	
8.215	-0.466	-0.143	
8.220	-0.072	-0.169	
8.225	0.096	-0.174	
8.230	-0.391	-0.157	
8.235	-0.223	-0.162	
8.240	0.296	-0.159	
8.245	-0.219	-0.122	
8.250	-0.327	-0.102	
8.255	0.229	-0.104	
8.260	-0.003	-0.079	
8.265	-0.353	-0.059	
8.270	0.099	-0.066	
8.275	0.336	-0.049	
8.280	-0.278	-0.009	
8.285	-0.112	-0.003	
8.290	0.473	-0.001	
8.295	-0.164	0.031	
8.300	-0.263	0.036	
8.305	0.385	0.018	
8.310	0.139	0.035	
8.315	-0.330	0.052	
8.320	0.113	0.032	
8.325	0.354	0.028	
8.330	-0.283	0.046	
8.335	-0.126	0.030	
8.340	0.510	0.016	
8.345	-0.089	0.043	
8.350	-0.217	0.054	
8.355	0.434	0.045	
8.360	0.124	0.068	
8.365	-0.298	0.085	
8.370	0.174	0.063	
8.375	0.356	0.060	
8.380	-0.266	0.076	
8.385	-0.072	0.058	
8.390	0.567	0.046	
8.395	-0.084	0.076	
8.400	-0.213	0.086	
8.405	0.464	0.073	
8.410	0.154	0.093	
8.415	-0.297	0.108	
8.420	0.166	0.082	
8.425	0.412	0.075	
8.430	-0.254	0.092	
8.435	-0.086	0.075	
8.440	0.515	0.057	
8.445	-0.109	0.076	
8.450	-0.257	0.073	
8.455	0.376	0.047	
8.460	0.146	0.055	
8.465	-0.309	0.065	
8.470	0.097	0.041	
8.475	0.328	0.031	
8.480	-0.286	0.043	
8.485	-0.087	0.025	
8.490	0.600	0.018	
8.495	-0.072	0.059	
8.500	-0.239	0.079	
8.505	0.431	0.068	
8.510	0.189	0.088	
8.515	-0.291	0.105	
8.520	0.146	0.083	
8.525	0.423	0.076	
8.530	-0.232	0.094	
8.535	-0.081	0.080	
8.540	0.545	0.065	
8.545	-0.107	0.087	
8.550	-0.265	0.085	
8.555	0.360	0.056	
8.560	0.120	0.057	
8.565	-0.336	0.060	
8.570	0.104	0.029	
8.575	0.417	0.022	
8.580	-0.249	0.046	
8.585	-0.145	0.039	
8.590	0.495	0.026	
8.595	-0.061	0.051	
8.600	-0.225	0.061	
8.605	0.418	0.050	
8.610	0.209	0.073	
8.615	-0.286	0.097	
8.620	0.154	0.081	
8.625	0.469	0.081	
8.630	-0.214	0.106	
8.635	-0.095	0.097	
8.640	0.541	0.080	
8.645	-0.072	0.100	
8.650	-0.249	0.098	
8.655	0.356	0.069	
8.660	0.128	0.069	
8.665	-0.317	0.070	
8.670	0.159	0.042	
8.675	0.466	0.041	
8.680	-0.225	0.074	
8.685	-0.118	0.071	
8.690	0.534	0.060	
8.695	-0.032	0.086	
8.700	-0.200	0.095	
8.705	0.490	0.085	
8.710	0.314	0.115	
8.715	-0.246	0.148	
8.720	0.188	0.138	
8.725	0.499	0.136	
8.730	-0.196	0.156	
8.735	-0.078	0.138	
8.740	0.524	0.112	
8.745	-0.107	0.118	
8.750	-0.297	0.100	
8.755	0.279	0.053	
8.760	0.136	0.039	
8.765	-0.338	0.034	
8.770	0.003	0.001	
8.775	0.330	-0.016	
8.780	-0.274	-0.003	
8.785	-0.162	-0.014	
8.790	0.486	-0.022	
8.795	-0.100	0.011	
8.800	-0.280	0.025	
8.805	0.348	0.013	
8.810	0.165	0.032	
8.815	-0.310	0.052	
8.820	0.096	0.036	
8.825	0.431	0.035	
8.830	-0.222	0.063	
8.835	-0.061	0.061	
8.840	0.754	0.068	
8.845	0.243	0.137	
8.850	-0.002	0.202	
8.855	0.780	0.244	
8.860	0.406	0.311	
8.865	-0.391	0.341	
8.870	-0.225	0.266	
8.875	-0.133	0.134	
8.880	-0.556	-0.003	
8.885	-0.422	-0.147	
8.890	0.097	-0.251	
8.895	-0.219	-0.276	
8.900	-0.323	-0.268	
8.905	0.400	-0.236	
8.910	0.269	-0.143	
8.915	-0.258	-0.039	
8.920	0.185	0.016	
8.925	0.574	0.072	
8.930	-0.145	0.141	
8.935	-0.049	0.160	
8.940	0.651	0.158	
8.945	-0.008	0.186	
8.950	-0.211	0.184	
8.955	0.484	0.152	
8.960	0.314	0.158	
8.965	-0.268	0.170	
8.970	0.119	0.140	
8.975	0.513	0.122	
8.980	-0.171	0.135	
8.985	-0.049	0.123	
8.990	0.596	0.109	
8.995	-0.031	0.133	
9.000	-0.217	0.135	
9.005	0.501	0.113	
9.010	0.372	0.134	
9.015	-0.229	0.167	
9.020	0.226	0.159	
9.025	0.608	0.164	
9.030	-0.155	0.195	
9.035	-0.060	0.186	
9.040	0.670	0.165	
9.045	0.049	0.186	
9.050	-0.207	0.188	
9.055	0.461	0.158	
9.060	0.319	0.162	
9.065	-0.248	0.174	
9.070	0.226	0.150	
9.075	0.576	0.146	
9.080	-0.145	0.174	
9.085	-0.077	0.165	
9.090	0.605	0.145	
9.095	0.059	0.163	
9.100	-0.210	0.165	
9.105	0.409	0.138	
9.110	0.279	0.141	
9.115	-0.281	0.147	
9.120	0.039	0.112	
9.125	0.366	0.082	
9.130	-0.304	0.073	
9.135	-0.246	0.033	
9.140	0.292	-0.016	
9.145	-0.205	-0.031	
9.150	-0.411	-0.057	
9.155	0.055	-0.105	
9.160	-0.051	-0.125	
9.165	-0.469	-0.135	
9.170	-0.171	-0.169	
9.175	0.078	-0.189	
9.180	-0.405	-0.183	
9.185	-0.349	-0.196	
9.190	0.188	-0.209	
9.195	-0.200	-0.184	
9.200	-0.382	-0.166	
9.205	0.146	-0.164	
9.210	0.039	-0.135	
9.215	-0.381	-0.103	
9.220	-0.052	-0.104	
9.225	0.353	-0.091	
9.230	-0.260	-0.050	
9.235	-0.194	-0.037	
9.240	0.438	-0.034	
9.245	-0.090	0.001	
9.250	-0.281	0.017	
9.255	0.322	0.007	
9.260	0.238	0.028	
9.265	-0.310	0.056	
9.270	0.013	0.042	
9.275	0.411	0.034	
9.280	-0.255	0.050	
9.285	-0.162	0.037	
9.290	0.499	0.020	
9.295	-0.014	0.046	
9.300	-0.243	0.060	
9.305	0.408	0.052	
9.310	0.331	0.080	
9.315	-0.263	0.117	
9.320	0.110	0.109	
9.325	0.519	0.107	
9.330	-0.207	0.130	
9.335	-0.153	0.115	
9.340	0.519	0.087	
9.345	-0.034	0.096	
9.350	-0.280	0.091	
9.355	0.337	0.060	
9.360	0.226	0.062	
9.365	-0.306	0.074	
9.370	0.023	0.049	
9.375	0.431	0.036	
9.380	-0.211	0.054	
9.385	-0.141	0.047	
9.390	0.533	0.036	
9.395	-0.003	0.067	
9.400	-0.262	0.082	
9.405	0.408	0.069	
9.410	0.334	0.090	
9.415	-0.265	0.122	
9.420	0.079	0.110	
9.425	0.515	0.102	
9.430	-0.194	0.122	
9.435	-0.161	0.107	
9.440	0.458	0.078	
9.445	-0.025	0.083	
9.450	-0.263	0.076	
9.455	0.336	0.049	
9.460	0.278	0.059	
9.465	-0.289	0.080	
9.470	0.053	0.065	
9.475	0.490	0.059	
9.480	-0.194	0.084	
9.485	-0.158	0.078	
9.490	0.541	0.063	
9.495	0.029	0.087	
9.500	-0.237	0.100	
9.505	0.380	0.085	
9.510	0.342	0.101	
9.515	-0.260	0.128	
9.520	0.029	0.111	
9.525	0.492	0.095	
9.530	-0.179	0.108	
9.535	-0.135	0.095	
9.540	0.542	0.075	
9.545	0.010	0.096	
9.550	-0.262	0.102	
9.555	0.356	0.079	
9.560	0.334	0.089	
9.565	-0.251	0.114	
9.570	0.087	0.101	
9.575	0.545	0.098	
9.580	-0.174	0.124	
9.585	-0.171	0.116	
9.590	0.479	0.088	
9.595	-0.002	0.095	
9.600	-0.287	0.089	
9.605	0.337	0.059	
9.610	0.330	0.066	
9.615	-0.266	0.091	
9.620	0.059	0.080	
9.625	0.527	0.077	
9.630	-0.193	0.104	
9.635	-0.182	0.096	
9.640	0.476	0.071	
9.645	-0.017	0.080	
9.650	-0.277	0.077	
9.655	0.328	0.051	
9.660	0.281	0.059	
9.665	-0.298	0.079	
9.670	0.012	0.060	
9.675	0.490	0.050	
9.680	-0.210	0.072	
9.685	-0.188	0.064	
9.690	0.489	0.044	
9.695	0.004	0.062	
9.700	-0.283	0.070	
9.705	0.255	0.047	
9.710	0.253	0.049	
9.715	-0.281	0.063	
9.720	0.020	0.045	
9.725	0.512	0.040	
9.730	-0.176	0.070	
9.735	-0.162	0.072	
9.740	0.495	0.059	
9.745	-0.006	0.080	
9.750	-0.284	0.085	
9.755	0.290	0.058	
9.760	0.256	0.060	
9.765	-0.338	0.071	
9.770	-0.074	0.041	
9.775	0.377	0.013	
9.780	-0.242	0.018	
9.785	-0.255	-0.000	
9.790	0.347	-0.028	
9.795	-0.069	-0.019	
9.800	-0.333	-0.017	
9.805	0.214	-0.037	
9.810	0.232	-0.025	
9.815	-0.321	0.002	
9.820	-0.045	-0.006	
9.825	0.460	-0.007	
9.830	-0.171	0.027	
9.835	-0.167	0.036	
9.840	0.524	0.035	
9.845	0.082	0.072	
9.850	-0.203	0.100	
9.855	0.592	0.107	
9.860	0.716	0.169	
9.865	-0.003	0.262	
9.870	0.397	0.310	
9.875	0.652	0.343	
9.880	-0.266	0.362	
9.885	-0.396	0.292	
9.890	-0.037	0.153	
9.895	-0.291	0.022	
9.900	-0.488	-0.098	
9.905	0.072	-0.194	
9.910	0.246	-0.210	
9.915	-0.280	-0.166	
9.920	0.070	-0.125	
9.925	0.626	-0.059	
9.930	-0.106	0.040	
9.935	-0.092	0.096	
9.940	0.661	0.123	
9.945	0.175	0.179	
9.950	-0.222	0.210	
9.955	0.400	0.192	
9.960	0.418	0.194	
9.965	-0.234	0.205	
9.970	0.088	0.175	
9.975	0.644	0.155	
9.980	-0.087	0.176	
9.985	-0.089	0.171	
9.990	0.690	0.157	
9.995	0.181	0.189	
10.000	-0.236	0.208	
10.005	0.356	0.181	
10.010	0.392	0.175	
10.015	-0.248	0.181	
10.020	0.020	0.147	
10.025	0.573	0.119	
10.030	-0.126	0.132	
10.035	-0.162	0.121	
10.040	0.489	0.095	
10.045	0.029	0.104	
10.050	-0.272	0.102	
10.055	0.343	0.074	
10.060	0.411	0.085	
10.065	-0.226	0.118	
10.070	0.072	0.113	
10.075	0.579	0.113	
10.080	-0.150	0.142	
10.085	-0.167	0.135	
10.090	0.577	0.111	
10.095	0.136	0.131	
10.100	-0.251	0.144	
10.105	0.325	0.122	
10.110	0.385	0.125	
10.115	-0.284	0.140	
10.120	-0.054	0.111	
10.125	0.398	0.077	
10.130	-0.246	0.069	
10.135	-0.298	0.034	
10.140	0.253	-0.017	
10.145	-0.127	-0.035	
10.150	-0.440	-0.058	
10.155	-0.037	-0.106	
10.160	-0.003	-0.135	
10.165	-0.459	-0.147	
10.170	-0.236	-0.179	
10.175	0.140	-0.198	
10.180	-0.339	-0.185	
10.185	-0.394	-0.187	
10.190	0.096	-0.201	
10.195	-0.170	-0.188	
10.200	-0.465	-0.180	
10.205	-0.064	-0.196	
10.210	-0.014	-0.196	
10.215	-0.439	-0.184	
10.220	-0.203	-0.195	
10.225	0.227	-0.193	
10.230	-0.277	-0.157	
10.235	-0.310	-0.140	
10.240	0.310	-0.133	
10.245	-0.051	-0.093	
10.250	-0.373	-0.064	
10.255	0.079	-0.071	
10.260	0.282	-0.058	
10.265	-0.287	-0.025	
10.270	-0.037	-0.019	
10.275	0.486	-0.007	
10.280	-0.176	0.035	
10.285	-0.226	0.045	
10.290	0.414	0.032	
10.295	-0.049	0.045	
10.300	-0.339	0.042	
10.305	0.194	0.008	
10.310	0.276	0.005	
10.315	-0.326	0.022	
10.320	-0.048	0.007	
10.325	0.533	0.003	
10.330	-0.129	0.042	
10.335	-0.176	0.058	
10.340	0.498	0.056	
10.345	0.082	0.086	
10.350	-0.266	0.103	
10.355	0.302	0.086	
10.360	0.441	0.098	
10.365	-0.226	0.129	
10.370	0.033	0.122	
10.375	0.577	0.115	
10.380	-0.142	0.139	
10.385	-0.193	0.130	
10.390	0.466	0.098	
10.395	0.050	0.101	
10.400	-0.300	0.096	
10.405	0.206	0.060	
10.410	0.267	0.049	
10.415	-0.283	0.055	
10.420	-0.008	0.034	
10.425	0.599	0.031	
10.430	-0.135	0.073	
10.435	-0.210	0.085	
10.440	0.501	0.073	
10.445	0.094	0.095	
10.450	-0.291	0.106	
10.455	0.308	0.084	
10.460	0.460	0.094	
10.465	-0.242	0.127	
10.470	-0.025	0.117	
10.475	0.502	0.101	
10.480	-0.159	0.112	
10.485	-0.219	0.095	
10.490	0.463	0.063	
10.495	0.076	0.072	
10.500	-0.295	0.078	
10.505	0.194	0.051	
10.510	0.339	0.049	
10.515	-0.246	0.067	
10.520	-0.017	0.056	
10.525	0.585	0.054	
10.530	-0.113	0.091	
10.535	-0.222	0.099	
10.540	0.461	0.080	
10.545	0.088	0.092	
10.550	-0.295	0.097	
10.555	0.243	0.070	
10.560	0.467	0.074	
10.565	-0.246	0.105	
10.570	-0.049	0.097	
10.575	0.519	0.084	
10.580	-0.136	0.101	
10.585	-0.210	0.093	
10.590	0.460	0.067	
10.595	0.084	0.079	
10.600	-0.292	0.085	
10.605	0.229	0.060	
10.610	0.395	0.063	
10.615	-0.243	0.088	
10.620	-0.031	0.079	
10.625	0.504	0.069	
10.630	-0.124	0.091	
10.635	-0.225	0.086	
10.640	0.443	0.062	
10.645	0.088	0.073	
10.650	-0.306	0.080	
10.655	0.220	0.054	
10.660	0.389	0.056	
10.665	-0.239	0.081	
10.670	-0.043	0.073	
10.675	0.553	0.066	
10.680	-0.101	0.094	
10.685	-0.203	0.098	
10.690	0.470	0.080	
10.695	0.087	0.094	
10.700	-0.315	0.099	
10.705	0.177	0.066	
10.710	0.377	0.057	
10.715	-0.249	0.074	
10.720	-0.043	0.060	
10.725	0.606	0.055	
10.730	-0.081	0.093	
10.735	-0.187	0.106	
10.740	0.519	0.096	
10.745	0.195	0.122	
10.750	-0.254	0.142	
10.755	0.314	0.126	
10.760	0.496	0.135	
10.765	-0.210	0.165	
10.770	-0.025	0.152	
10.775	0.544	0.131	
10.780	-0.138	0.139	
10.785	-0.236	0.118	
10.790	0.372	0.076	
10.795	0.041	0.066	
10.800	-0.338	0.055	
10.805	0.088	0.014	
10.810	0.313	-0.002	
10.815	-0.268	0.011	
10.820	-0.100	0.001	
10.825	0.458	-0.005	
10.830	-0.148	0.024	
10.835	-0.239	0.030	
10.840	0.421	0.018	
10.845	0.075	0.040	
10.850	-0.317	0.055	
10.855	0.105	0.032	
10.860	0.288	0.023	
10.865	-0.275	0.033	
10.870	-0.074	0.016	
10.875	0.531	0.010	
10.880	-0.086	0.047	
10.885	-0.119	0.067	
10.890	0.788	0.086	
10.895	0.565	0.173	
10.900	-0.104	0.267	
10.905	0.252	0.293	
10.910	0.067	0.272	
10.915	-0.514	0.206	
10.920	-0.398	0.073	
10.925	-0.055	-0.069	
10.930	-0.382	-0.167	
10.935	-0.408	-0.241	
10.940	0.273	-0.276	
10.945	0.052	-0.233	
10.950	-0.300	-0.166	
10.955	0.252	-0.116	
10.960	0.490	-0.038	
10.965	-0.225	0.054	
10.970	-0.032	0.090	
10.975	0.596	0.105	
10.980	-0.089	0.142	
10.985	-0.200	0.144	
10.990	0.525	0.120	
10.995	0.226	0.136	
11.000	-0.239	0.153	
11.005	0.308	0.135	
11.010	0.516	0.143	
11.015	-0.162	0.175	
11.020	0.065	0.170	
11.025	0.696	0.167	
11.030	-0.028	0.201	
11.035	-0.173	0.202	
11.040	0.533	0.172	
11.045	0.258	0.179	
11.050	-0.257	0.186	
11.055	0.259	0.155	
11.060	0.495	0.146	
11.065	-0.194	0.164	
11.070	-0.003	0.147	
11.075	0.617	0.130	
11.080	-0.068	0.152	
11.085	-0.181	0.148	
11.090	0.534	0.124	
11.095	0.235	0.141	
11.100	-0.243	0.159	
11.105	0.330	0.142	
11.110	0.594	0.154	
11.115	-0.145	0.195	
11.120	0.010	0.193	
11.125	0.649	0.181	
11.130	-0.026	0.201	
11.135	-0.165	0.193	
11.140	0.542	0.163	
11.145	0.221	0.170	
11.150	-0.265	0.176	
11.155	0.201	0.141	
11.160	0.402	0.123	
11.165	-0.284	0.124	
11.170	-0.170	0.087	
11.175	0.331	0.039	
11.180	-0.229	0.020	
11.185	-0.359	-0.015	
11.190	0.122	-0.068	
11.195	-0.126	-0.092	
11.200	-0.478	-0.115	
11.205	-0.098	-0.160	
11.210	0.085	-0.179	
11.215	-0.408	-0.171	
11.220	-0.292	-0.183	
11.225	0.186	-0.192	
11.230	-0.236	-0.168	
11.235	-0.373	-0.156	
11.240	0.152	-0.159	
11.245	-0.060	-0.137	
11.250	-0.407	-0.119	
11.255	-0.019	-0.129	
11.260	0.249	-0.119	
11.265	-0.332	-0.085	
11.270	-0.185	-0.081	
11.275	0.386	-0.078	
11.280	-0.161	-0.043	
11.285	-0.313	-0.029	
11.290	0.261	-0.041	
11.295	0.073	-0.027	
11.300	-0.353	-0.012	
11.305	0.033	-0.030	
11.310	0.318	-0.032	
11.315	-0.260	-0.008	
11.320	-0.139	-0.011	
11.325	0.469	-0.013	
11.330	-0.103	0.020	
11.335	-0.254	0.033	
11.340	0.405	0.024	
11.345	0.208	0.050	
11.350	-0.266	0.079	
11.355	0.226	0.075	
11.360	0.457	0.088	
11.365	-0.245	0.120	
11.370	-0.100	0.107	
11.375	0.537	0.085	
11.380	-0.078	0.100	
11.385	-0.245	0.096	
11.390	0.424	0.069	
11.395	0.183	0.079	
11.400	-0.294	0.093	
11.405	0.139	0.070	
11.410	0.421	0.065	
11.415	-0.231	0.085	
11.420	-0.107	0.072	
11.425	0.512	0.056	
11.430	-0.092	0.075	
11.435	-0.254	0.074	
11.440	0.348	0.049	
11.445	0.160	0.055	
11.450	-0.274	0.066	
11.455	0.152	0.048	
11.460	0.452	0.053	
11.465	-0.228	0.084	
11.470	-0.077	0.080	
11.475	0.563	0.071	
11.480	-0.078	0.099	
11.485	-0.242	0.102	
11.490	0.424	0.078	
11.495	0.212	0.090	
11.500	-0.284	0.105	
11.505	0.174	0.085	
11.510	0.446	0.083	
11.515	-0.254	0.104	
11.520	-0.115	0.087	
11.525	0.513	0.064	
11.530	-0.080	0.079	
11.535	-0.255	0.077	
11.540	0.363	0.051	
11.545	0.113	0.056	
11.550	-0.315	0.060	
11.555	0.128	0.034	
11.560	0.460	0.033	
11.565	-0.217	0.065	
11.570	-0.095	0.065	
11.575	0.563	0.061	
11.580	-0.055	0.092	
11.585	-0.239	0.101	
11.590	0.406	0.080	
11.595	0.204	0.091	
11.600	-0.298	0.104	
11.605	0.090	0.077	
11.610	0.408	0.063	
11.615	-0.254	0.074	
11.620	-0.153	0.055	
11.625	0.482	0.031	
11.630	-0.112	0.046	
11.635	-0.281	0.044	
11.640	0.337	0.019	
11.645	0.180	0.030	
11.650	-0.294	0.048	
11.655	0.114	0.035	
11.660	0.414	0.038	
11.665	-0.225	0.066	
11.670	-0.090	0.061	
11.675	0.577	0.056	
11.680	-0.026	0.091	
11.685	-0.217	0.105	
11.690	0.481	0.094	
11.695	0.263	0.117	
11.700	-0.286	0.141	
11.705	0.154	0.119	
11.710	0.512	0.111	
11.715	-0.193	0.132	
11.720	-0.100	0.119	
11.725	0.516	0.097	
11.730	-0.058	0.108	
11.735	-0.245	0.101	
11.740	0.417	0.073	
11.745	0.230	0.083	
11.750	-0.300	0.100	
11.755	0.075	0.076	
11.760	0.389	0.061	
11.765	-0.248	0.071	
11.770	-0.144	0.051	
11.775	0.498	0.030	
11.780	-0.100	0.049	
11.785	-0.284	0.050	
11.790	0.287	0.023	
11.795	0.122	0.025	
11.800	-0.333	0.030	
11.805	0.044	0.004	
11.810	0.414	-0.002	
11.815	-0.242	0.025	
11.820	-0.144	0.023	
11.825	0.441	0.014	
11.830	-0.115	0.036	
11.835	-0.275	0.037	
11.840	0.469	0.022	
11.845	0.460	0.062	
11.850	-0.080	0.131	
11.855	0.537	0.179	
11.860	0.822	0.253	
11.865	-0.164	0.336	
11.870	-0.274	0.325	
11.875	-0.022	0.226	
11.880	-0.426	0.101	
11.885	-0.599	-0.047	
11.890	-0.133	-0.192	
11.895	-0.116	-0.273	
11.900	-0.401	-0.298	
11.905	0.035	-0.296	
11.910	0.486	-0.233	
11.915	-0.176	-0.121	
11.920	-0.107	-0.042	
11.925	0.586	0.013	
11.930	-0.002	0.087	
11.935	-0.196	0.125	
11.940	0.527	0.127	
11.945	0.366	0.161	
11.950	-0.223	0.196	
11.955	0.208	0.183	
11.960	0.631	0.180	
11.965	-0.106	0.209	
11.970	-0.026	0.202	
11.975	0.673	0.186	
11.980	0.088	0.208	
11.985	-0.181	0.212	
11.990	0.498	0.185	
11.995	0.366	0.192	
12.000	-0.222	0.207	
12.005	0.246	0.183	
12.010	0.625	0.179	
12.015	-0.130	0.207	
12.020	-0.049	0.197	
12.025	0.663	0.176	
12.030	0.001	0.192	
12.035	-0.220	0.185	
12.040	0.498	0.150	
12.045	0.374	0.158	
12.050	-0.254	0.179	
12.055	0.208	0.159	
12.060	0.638	0.157	
12.065	-0.115	0.190	
12.070	-0.032	0.189	
12.075	0.687	0.177	
12.080	0.134	0.206	
12.085	-0.145	0.220	
12.090	0.589	0.206	
12.095	0.437	0.229	
12.100	-0.222	0.255	
12.105	0.201	0.230	
12.110	0.568	0.210	
12.115	-0.187	0.214	
12.120	-0.170	0.178	
12.125	0.405	0.122	
12.130	-0.145	0.094	
12.135	-0.370	0.052	
12.140	0.096	-0.015	
12.145	-0.011	-0.054	
12.150	-0.423	-0.079	
12.155	-0.141	-0.123	
12.160	0.130	-0.149	
12.165	-0.353	-0.144	
12.170	-0.295	-0.156	
12.175	0.227	-0.166	
12.180	-0.203	-0.142	
12.185	-0.416	-0.132	
12.190	0.059	-0.147	
12.195	-0.026	-0.143	
12.200	-0.445	-0.134	
12.205	-0.152	-0.155	
12.210	0.226	-0.160	
12.215	-0.313	-0.134	
12.220	-0.277	-0.128	
12.225	0.253	-0.129	
12.230	-0.156	-0.103	
12.235	-0.355	-0.090	
12.240	0.189	-0.098	
12.245	0.124	-0.077	
12.250	-0.349	-0.049	
12.255	-0.035	-0.054	
12.260	0.350	-0.050	
12.265	-0.245	-0.019	
12.270	-0.148	-0.014	
12.275	0.531	-0.009	
12.280	-0.028	0.036	
12.285	-0.294	0.060	
12.290	0.282	0.045	
12.295	0.197	0.051	
12.300	-0.312	0.061	
12.305	0.023	0.037	
12.310	0.466	0.027	
12.315	-0.211	0.051	
12.320	-0.174	0.048	
12.325	0.431	0.031	
12.330	-0.029	0.048	
12.335	-0.243	0.053	
12.340	0.382	0.040	
12.345	0.293	0.063	
12.350	-0.278	0.095	
12.355	0.070	0.084	
12.360	0.518	0.081	
12.365	-0.181	0.107	
12.370	-0.158	0.100	
12.375	0.495	0.078	
12.380	-0.019	0.090	
12.385	-0.278	0.088	
12.390	0.333	0.059	
12.395	0.273	0.065	
12.400	-0.284	0.083	
12.405	0.062	0.066	
12.410	0.507	0.061	
12.415	-0.188	0.089	
12.420	-0.159	0.085	
12.425	0.499	0.067	
12.430	-0.022	0.083	
12.435	-0.283	0.084	
12.440	0.313	0.056	
12.445	0.247	0.059	
12.450	-0.287	0.074	
12.455	0.056	0.055	
12.460	0.489	0.050	
12.465	-0.193	0.077	
12.470	-0.153	0.074	
12.475	0.513	0.059	
12.480	-0.034	0.080	
12.485	-0.283	0.083	
12.490	0.336	0.057	
12.495	0.298	0.065	
12.500	-0.269	0.088	
12.505	0.055	0.074	
12.510	0.452	0.067	
12.515	-0.190	0.087	
12.520	-0.152	0.077	
12.525	0.495	0.058	
12.530	-0.029	0.075	
12.535	-0.268	0.078	
12.540	0.360	0.055	
12.545	0.293	0.068	
12.550	-0.298	0.092	
12.555	0.021	0.074	
12.560	0.502	0.062	
12.565	-0.171	0.085	
12.570	-0.126	0.082	
12.575	0.556	0.071	
12.580	0.001	0.099	
12.585	-0.232	0.109	
12.590	0.392	0.090	
12.595	0.340	0.106	
12.600	-0.272	0.131	
12.605	0.009	0.110	
12.610	0.476	0.090	
12.615	-0.168	0.100	
12.620	-0.130	0.087	
12.625	0.512	0.068	
12.630	-0.037	0.086	
12.635	-0.306	0.085	
12.640	0.259	0.051	
12.645	0.226	0.045	
12.650	-0.332	0.051	
12.655	-0.040	0.023	
12.660	0.354	0.002	
12.665	-0.237	0.011	
12.670	-0.194	-0.001	
12.675	0.449	-0.015	
12.680	-0.043	0.012	
12.685	-0.310	0.025	
12.690	0.233	0.007	
12.695	0.201	0.013	
12.700	-0.317	0.029	
12.705	-0.020	0.010	
12.710	0.493	0.005	
12.715	-0.132	0.041	
12.720	-0.037	0.059	
12.725	0.835	0.087	
12.730	0.417	0.179	
12.735	-0.046	0.266	
12.740	0.541	0.300	
12.745	0.163	0.316	
12.750	-0.492	0.283	
12.755	-0.323	0.162	
12.760	-0.098	0.016	
12.765	-0.500	-0.106	
12.770	-0.436	-0.217	
12.775	0.108	-0.290	
12.780	-0.118	-0.288	
12.785	-0.289	-0.253	
12.790	0.334	-0.206	
12.795	0.292	-0.114	
12.800	-0.284	-0.018	
12.805	0.072	0.023	
12.810	0.628	0.061	
12.815	-0.089	0.126	
12.820	-0.072	0.152	
12.825	0.680	0.157	
12.830	0.145	0.197	
12.835	-0.216	0.215	
12.840	0.457	0.192	
12.845	0.417	0.197	
12.850	-0.217	0.212	
12.855	0.101	0.184	
12.860	0.606	0.164	
12.865	-0.106	0.179	
12.870	-0.095	0.168	
12.875	0.618	0.146	
12.880	0.110	0.166	
12.885	-0.203	0.174	
12.890	0.437	0.153	
12.895	0.434	0.165	
12.900	-0.220	0.190	
12.905	0.101	0.172	
12.910	0.567	0.157	
12.915	-0.126	0.171	
12.920	-0.068	0.158	
12.925	0.704	0.143	
12.930	0.113	0.176	
12.935	-0.219	0.193	
12.940	0.437	0.171	
12.945	0.501	0.181	
12.950	-0.164	0.212	
12.955	0.236	0.207	
12.960	0.727	0.214	
12.965	-0.061	0.253	
12.970	-0.069	0.250	
12.975	0.654	0.224	
12.980	0.105	0.231	
12.985	-0.258	0.220	
12.990	0.278	0.168	
12.995	0.266	0.137	
13.000	-0.318	0.119	
13.005	-0.074	0.068	
13.010	0.331	0.024	
13.015	-0.281	0.012	
13.020	-0.315	-0.021	
13.025	0.180	-0.067	
13.030	-0.171	-0.083	
13.035	-0.442	-0.104	
13.040	-0.020	-0.144	
13.045	-0.029	-0.161	
13.050	-0.457	-0.165	
13.055	-0.188	-0.188	
13.060	0.180	-0.195	
13.065	-0.327	-0.170	
13.070	-0.332	-0.163	
13.075	0.204	-0.166	
13.080	-0.153	-0.140	
13.085	-0.402	-0.125	
13.090	0.081	-0.135	
13.095	0.101	-0.121	
13.100	-0.378	-0.097	
13.105	-0.121	-0.102	
13.110	0.293	-0.102	
13.115	-0.265	-0.073	
13.120	-0.266	-0.069	
13.125	0.322	-0.076	
13.130	-0.089	-0.052	
13.135	-0.336	-0.040	
13.140	0.208	-0.052	
13.145	0.246	-0.033	
13.150	-0.338	-0.001	
13.155	-0.063	-0.008	
13.160	0.478	-0.009	
13.165	-0.171	0.025	
13.170	-0.185	0.035	
13.175	0.508	0.032	
13.180	0.018	0.064	
13.185	-0.291	0.079	
13.190	0.295	0.060	
13.195	0.319	0.068	
13.200	-0.306	0.088	
13.205	-0.028	0.067	
13.210	0.470	0.049	
13.215	-0.177	0.065	
13.220	-0.190	0.058	
13.225	0.502	0.041	
13.230	0.059	0.065	
13.235	-0.269	0.082	
13.240	0.299	0.066	
13.245	0.319	0.076	
13.250	-0.269	0.098	
13.255	-0.006	0.080	
13.260	0.505	0.067	
13.265	-0.148	0.088	
13.270	-0.170	0.083	
13.275	0.504	0.067	
13.280	0.026	0.086	
13.285	-0.292	0.092	
13.290	0.247	0.063	
13.295	0.299	0.061	
13.300	-0.286	0.074	
13.305	-0.046	0.052	
13.310	0.470	0.036	
13.315	-0.182	0.054	
13.320	-0.170	0.050	
13.325	0.547	0.040	
13.330	0.049	0.073	
13.335	-0.280	0.092	
13.340	0.279	0.074	
13.345	0.343	0.080	
13.350	-0.272	0.100	
13.355	-0.028	0.081	
13.360	0.519	0.066	
13.365	-0.152	0.086	
13.370	-0.197	0.080	
13.375	0.420	0.057	
13.380	-0.008	0.064	
13.385	-0.306	0.061	
13.390	0.209	0.029	
13.395	0.235	0.024	
13.400	-0.301	0.034	
13.405	0.015	0.017	
13.410	0.614	0.021	
13.415	-0.087	0.072	
13.420	-0.139	0.098	
13.425	0.542	0.101	
13.430	0.082	0.131	
13.435	-0.260	0.142	
13.440	0.331	0.117	
13.445	0.421	0.120	
13.450	-0.217	0.144	
13.455	0.035	0.130	
13.460	0.507	0.116	
13.465	-0.148	0.129	
13.470	-0.194	0.112	
13.475	0.472	0.080	
13.480	-0.017	0.084	
13.485	-0.336	0.074	
13.490	0.180	0.033	
13.495	0.295	0.021	
13.500	-0.275	0.034	
13.505	-0.057	0.020	
13.510	0.460	0.012	
13.515	-0.168	0.038	
13.520	-0.211	0.040	
13.525	0.403	0.025	
13.530	-0.049	0.038	
13.535	-0.344	0.036	
13.540	0.154	0.001	
13.545	0.264	-0.006	
13.550	-0.307	0.009	
13.555	-0.045	-0.003	
13.560	0.499	-0.004	
13.565	-0.159	0.033	
13.570	-0.181	0.045	
13.575	0.614	0.047	
13.580	0.304	0.102	
13.585	-0.104	0.161	
13.590	0.698	0.197	
13.595	0.686	0.270	
13.600	-0.280	0.338	
13.605	-0.222	0.305	
13.610	-0.034	0.198	
13.615	-0.497	0.072	
13.620	-0.529	-0.075	
13.625	-0.017	-0.206	
13.630	-0.177	-0.266	
13.635	-0.396	-0.282	
13.640	0.171	-0.275	
13.645	0.328	-0.208	
13.650	-0.248	-0.110	
13.655	0.032	-0.048	
13.660	0.625	0.012	
13.665	-0.092	0.094	
13.670	-0.167	0.130	
13.675	0.528	0.128	
13.680	0.133	0.151	
13.685	-0.237	0.160	
13.690	0.348	0.135	
13.695	0.482	0.141	
13.700	-0.193	0.170	
13.705	0.131	0.163	
13.710	0.741	0.167	
13.715	-0.048	0.211	
13.720	-0.136	0.216	
13.725	0.560	0.190	
13.730	0.156	0.195	
13.735	-0.237	0.191	
13.740	0.345	0.155	
13.745	0.470	0.151	
13.750	-0.203	0.171	
13.755	0.047	0.155	
13.760	0.602	0.141	
13.765	-0.090	0.161	
13.770	-0.127	0.155	
13.775	0.586	0.135	
13.780	0.200	0.157	
13.785	-0.199	0.176	
13.790	0.461	0.164	
13.795	0.568	0.188	
13.800	-0.170	0.231	
13.805	0.108	0.225	
13.810	0.701	0.215	
13.815	-0.054	0.238	
13.820	-0.119	0.227	
13.825	0.609	0.194	
13.830	0.204	0.202	
13.835	-0.251	0.205	
13.840	0.253	0.166	
13.845	0.377	0.145	
13.850	-0.278	0.142	
13.855	-0.063	0.103	
13.860	0.438	0.067	
13.865	-0.220	0.064	
13.870	-0.318	0.036	
13.875	0.223	-0.014	
13.880	-0.098	-0.034	
13.885	-0.422	-0.056	
13.890	-0.043	-0.102	
13.895	0.033	-0.128	
13.900	-0.425	-0.135	
13.905	-0.208	-0.161	
13.910	0.171	-0.175	
13.915	-0.320	-0.158	
13.920	-0.393	-0.161	
13.925	0.110	-0.178	
13.930	-0.161	-0.169	
13.935	-0.482	-0.166	
13.940	-0.048	-0.187	
13.945	0.191	-0.181	
13.950	-0.333	-0.145	
13.955	-0.136	-0.128	
13.960	0.389	-0.107	
13.965	-0.202	-0.056	
13.970	-0.266	-0.034	
13.975	0.336	-0.035	
13.980	-0.016	-0.011	
13.985	-0.355	0.000	
13.990	0.101	-0.023	
13.995	0.292	-0.024	
14.000	-0.303	-0.002	
14.005	-0.097	-0.010	
14.010	0.467	-0.013	
14.015	-0.170	0.018	
14.020	-0.262	0.024	
14.025	0.397	0.009	
14.030	0.030	0.026	
14.035	-0.324	0.036	
14.040	0.181	0.014	
14.045	0.354	0.018	
14.050	-0.249	0.047	
14.055	-0.031	0.044	
14.060	0.592	0.048	
14.065	-0.106	0.089	
14.070	-0.196	0.101	
14.075	0.487	0.088	
14.080	0.133	0.108	
14.085	-0.280	0.119	
14.090	0.188	0.092	
14.095	0.330	0.081	
14.100	-0.272	0.087	
14.105	-0.057	0.062	
14.110	0.556	0.046	
14.115	-0.115	0.073	
14.120	-0.203	0.078	
14.125	0.450	0.063	
14.130	0.078	0.080	
14.135	-0.298	0.088	
14.140	0.194	0.060	
14.145	0.339	0.055	
14.150	-0.268	0.071	
14.155	-0.002	0.056	
14.160	0.556	0.052	
14.165	-0.110	0.086	
14.170	-0.177	0.094	
14.175	0.478	0.082	
14.180	0.128	0.102	
14.185	-0.281	0.114	
14.190	0.186	0.088	
14.195	0.321	0.077	
14.200	-0.258	0.084	
14.205	-0.051	0.061	
14.210	0.528	0.046	
14.215	-0.116	0.071	
14.220	-0.205	0.074	
14.225	0.469	0.060	
14.230	0.097	0.080	
14.235	-0.336	0.090	
14.240	0.111	0.057	
14.245	0.359	0.042	
14.250	-0.255	0.053	
14.255	-0.057	0.039	
14.260	0.542	0.033	
14.265	-0.124	0.066	
14.270	-0.190	0.074	
14.275	0.501	0.065	
14.280	0.122	0.091	
14.285	-0.297	0.108	
14.290	0.152	0.082	
14.295	0.362	0.071	
14.300	-0.252	0.081	
14.305	-0.057	0.062	
14.310	0.536	0.049	
14.315	-0.132	0.074	
14.320	-0.225	0.075	
14.325	0.423	0.055	
14.330	0.114	0.068	
14.335	-0.312	0.078	
14.340	0.101	0.050	
14.345	0.308	0.036	
14.350	-0.249	0.044	
14.355	-0.022	0.030	
14.360	0.651	0.034	
14.365	-0.061	0.086	
14.370	-0.173	0.112	
14.375	0.518	0.109	
14.380	0.181	0.136	
14.385	-0.242	0.153	
14.390	0.308	0.134	
14.395	0.441	0.137	
14.400	-0.262	0.157	
14.405	-0.049	0.131	
14.410	0.553	0.103	
14.415	-0.100	0.115	
14.420	-0.216	0.105	
14.425	0.426	0.077	
14.430	0.079	0.081	
14.435	-0.320	0.081	
14.440	0.131	0.046	
14.445	0.336	0.033	
14.450	-0.272	0.045	
14.455	-0.107	0.028	
14.460	0.447	0.013	
14.465	-0.164	0.032	
14.470	-0.274	0.028	
14.475	0.343	0.004	
14.480	0.065	0.014	
14.485	-0.307	0.024	
14.490	0.122	0.004	
14.495	0.305	0.005	
14.500	-0.268	0.026	
14.505	-0.063	0.018	
14.510	0.560	0.019	
14.515	-0.043	0.062	
14.520	-0.055	0.091	
14.525	0.858	0.121	
14.530	0.657	0.221	
14.535	-0.063	0.326	
14.540	0.278	0.355	
14.545	0.120	0.332	
14.550	-0.521	0.259	
14.555	-0.434	0.113	
14.560	-0.092	-0.048	
14.565	-0.411	-0.166	
14.570	-0.440	-0.256	
14.575	0.240	-0.301	
14.580	0.107	-0.261	
14.585	-0.292	-0.186	
14.590	0.232	-0.126	
14.595	0.415	-0.046	
14.600	-0.236	0.040	
14.605	-0.038	0.070	
14.610	0.591	0.085	
14.615	-0.048	0.127	
14.620	-0.196	0.138	
14.625	0.482	0.120	
14.630	0.230	0.135	
14.635	-0.232	0.151	
14.640	0.311	0.134	
14.645	0.557	0.145	
14.650	-0.185	0.180	
14.655	0.024	0.175	
14.660	0.683	0.165	
14.665	-0.037	0.192	
14.670	-0.168	0.190	
14.675	0.527	0.161	
14.680	0.236	0.169	
14.685	-0.240	0.177	
14.690	0.295	0.150	
14.695	0.499	0.149	
14.700	-0.190	0.171	
14.705	-0.009	0.156	
14.710	0.606	0.138	
14.715	-0.064	0.156	
14.720	-0.197	0.149	
14.725	0.481	0.119	
14.730	0.192	0.127	
14.735	-0.260	0.135	
14.740	0.273	0.111	
14.745	0.594	0.120	
14.750	-0.148	0.163	
14.755	0.039	0.169	
14.760	0.758	0.173	
14.765	0.056	0.217	
14.770	-0.139	0.232	
14.775	0.576	0.213	
14.780	0.275	0.224	
14.785	-0.275	0.227	
14.790	0.159	0.181	
14.795	0.360	0.144	
14.800	-0.300	0.126	
14.805	-0.159	0.075	
14.810	0.321	0.023	
14.815	-0.248	0.004	
14.820	-0.396	-0.033	
14.825	0.061	-0.090	
14.830	-0.109	-0.119	
14.835	-0.465	-0.140	
14.840	-0.119	-0.178	
14.845	0.042	-0.194	
14.850	-0.394	-0.186	
14.855	-0.223	-0.193	
14.860	0.267	-0.187	
14.865	-0.252	-0.147	
14.870	-0.381	-0.128	
14.875	0.146	-0.136	
14.880	-0.068	-0.122	
14.885	-0.428	-0.111	
14.890	-0.046	-0.130	
14.895	0.203	-0.130	
14.900	-0.349	-0.106	
14.905	-0.185	-0.106	
14.910	0.391	-0.101	
14.915	-0.170	-0.061	
14.920	-0.310	-0.041	
14.925	0.324	-0.046	
14.930	0.052	-0.022	
14.935	-0.371	-0.003	
14.940	0.041	-0.024	
14.945	0.357	-0.026	
14.950	-0.246	0.001	
14.955	-0.077	0.004	
14.960	0.545	0.012	
14.965	-0.095	0.056	
14.970	-0.248	0.072	
14.975	0.380	0.057	
14.980	0.140	0.069	
14.985	-0.295	0.079	
14.990	0.186	0.057	
14.995	0.473	0.062	
15.000	-0.220	0.094	
15.005	-0.098	0.090	
15.010	0.533	0.077	
15.015	-0.074	0.097	
15.020	-0.216	0.097	
15.025	0.406	0.075	
15.030	0.113	0.083	
15.035	-0.283	0.087	
15.040	0.221	0.063	
15.045	0.519	0.070	
15.050	-0.200	0.110	
15.055	-0.055	0.112	
15.060	0.545	0.103	
15.065	-0.084	0.124	
15.070	-0.242	0.117	
15.075	0.411	0.085	
15.080	0.156	0.088	
15.085	-0.298	0.092	
15.090	0.160	0.064	
15.095	0.466	0.061	
15.100	-0.217	0.089	
15.105	-0.089	0.083	
15.110	0.496	0.070	
15.115	-0.083	0.088	
15.120	-0.219	0.086	
15.125	0.438	0.065	
15.130	0.224	0.084	
15.135	-0.275	0.106	
15.140	0.145	0.089	
15.145	0.466	0.086	
15.150	-0.184	0.110	
15.155	-0.061	0.103	
15.160	0.536	0.091	
15.165	-0.100	0.111	
15.170	-0.240	0.104	
15.175	0.421	0.075	
15.180	0.180	0.082	
15.185	-0.303	0.093	
15.190	0.139	0.068	
15.195	0.469	0.063	
15.200	-0.257	0.087	
15.205	-0.127	0.075	
15.210	0.522	0.056	
15.215	-0.071	0.075	
15.220	-0.234	0.077	
15.225	0.434	0.059	
15.230	0.208	0.078	
15.235	-0.294	0.099	
15.240	0.117	0.079	
15.245	0.420	0.071	
15.250	-0.234	0.087	
15.255	-0.109	0.072	
15.260	0.490	0.053	
15.265	-0.092	0.070	
15.270	-0.255	0.068	
15.275	0.369	0.043	
15.280	0.116	0.051	
15.285	-0.313	0.059	
15.290	0.105	0.033	
15.295	0.388	0.027	
15.300	-0.245	0.049	
15.305	-0.098	0.041	
15.310	0.554	0.035	
15.315	-0.077	0.069	
15.320	-0.278	0.078	
15.325	0.342	0.055	
15.330	0.165	0.060	
15.335	-0.309	0.068	
15.340	0.148	0.045	
15.345	0.501	0.048	
15.350	-0.211	0.084	
15.355	-0.106	0.085	
15.360	0.544	0.075	
15.365	-0.063	0.099	
15.370	-0.234	0.101	
15.375	0.479	0.081	
15.380	0.241	0.101	
15.385	-0.281	0.123	
15.390	0.169	0.104	
15.395	0.478	0.101	
15.400	-0.213	0.122	
15.405	-0.112	0.108	
15.410	0.455	0.081	
15.415	-0.129	0.084	
15.420	-0.292	0.066	
15.425	0.256	0.024	
15.430	0.038	0.010	
15.435	-0.358	0.001	
15.440	0.061	-0.033	
15.445	0.400	-0.035	
15.450	-0.262	-0.003	
15.455	-0.156	0.001	
15.460	0.446	-0.003	
15.465	-0.124	0.024	
15.470	-0.286	0.028	
15.475	0.328	0.008	
15.480	0.140	0.021	
15.485	-0.312	0.037	
15.490	0.094	0.020	
15.495	0.450	0.023	
15.500	-0.171	0.058	
15.505	0.050	0.072	
15.510	0.869	0.102	
15.515	0.307	0.195	
15.520	-0.023	0.272	
15.525	0.600	0.299	
15.530	0.075	0.315	
15.535	-0.517	0.276	
15.540	-0.286	0.148	
15.545	-0.145	0.001	
15.550	-0.537	-0.123	
15.555	-0.370	-0.234	
15.560	0.236	-0.294	
15.565	-0.133	-0.270	
15.570	-0.243	-0.222	
15.575	0.431	-0.165	
15.580	0.258	-0.067	
15.585	-0.262	0.026	
15.590	0.204	0.064	
15.595	0.547	0.102	
15.600	-0.179	0.154	
15.605	-0.069	0.157	
15.610	0.562	0.140	
15.615	-0.035	0.154	
15.620	-0.217	0.144	
15.625	0.427	0.111	
15.630	0.299	0.118	
15.635	-0.207	0.137	
15.640	0.293	0.129	
15.645	0.594	0.147	
15.650	-0.145	0.190	
15.655	-0.051	0.188	
15.660	0.635	0.170	
15.665	0.012	0.187	
15.670	-0.205	0.181	
15.675	0.486	0.149	
15.680	0.327	0.156	
15.685	-0.226	0.173	
15.690	0.215	0.154	
15.695	0.539	0.150	
15.700	-0.176	0.172	
15.705	-0.064	0.157	
15.710	0.663	0.137	
15.715	0.050	0.162	
15.720	-0.187	0.171	
15.725	0.495	0.152	
15.730	0.366	0.169	
15.735	-0.205	0.193	
15.740	0.276	0.180	
15.745	0.660	0.187	
15.750	-0.106	0.224	
15.755	0.000	0.222	
15.760	0.699	0.207	
15.765	0.020	0.227	
15.770	-0.229	0.219	
15.775	0.421	0.173	
15.780	0.266	0.159	
15.785	-0.295	0.154	
15.790	-0.009	0.107	
15.795	0.238	0.061	
15.800	-0.346	0.032	
15.805	-0.278	-0.021	
15.810	0.243	-0.074	
15.815	-0.188	-0.086	
15.820	-0.384	-0.099	
15.825	0.079	-0.128	
15.830	-0.081	-0.133	
15.835	-0.459	-0.136	
15.840	-0.121	-0.164	
15.845	0.201	-0.170	
15.850	-0.338	-0.145	
15.855	-0.254	-0.139	
15.860	0.256	-0.138	
15.865	-0.193	-0.109	
15.870	-0.381	-0.098	
15.875	0.072	-0.115	
15.880	-0.029	-0.115	
15.885	-0.419	-0.112	
15.890	-0.087	-0.134	
15.895	0.259	-0.136	
15.900	-0.291	-0.105	
15.905	-0.194	-0.094	
15.910	0.418	-0.084	
15.915	-0.127	-0.039	
15.920	-0.306	-0.017	
15.925	0.302	-0.023	
15.930	0.188	0.001	
15.935	-0.301	0.030	
15.940	0.046	0.021	
15.945	0.446	0.024	
15.950	-0.208	0.055	
15.955	-0.135	0.055	
15.960	0.475	0.045	
15.965	-0.081	0.065	
15.970	-0.266	0.065	
15.975	0.324	0.040	
15.980	0.180	0.046	
15.985	-0.298	0.058	
15.990	0.097	0.039	
15.995	0.499	0.040	
16.000	-0.205	0.075	
16.005	-0.152	0.075	
16.010	0.463	0.059	
16.015	-0.045	0.074	
16.020	-0.246	0.074	
16.025	0.383	0.053	
16.030	0.259	0.069	
16.035	-0.263	0.093	
16.040	0.088	0.080	
16.045	0.501	0.078	
16.050	-0.222	0.102	
16.055	-0.177	0.090	
16.060	0.476	0.063	
16.065	-0.075	0.070	
16.070	-0.297	0.062	
16.075	0.307	0.030	
16.080	0.266	0.036	
16.085	-0.266	0.058	
16.090	0.131	0.052	
16.095	0.539	0.064	
16.100	-0.194	0.105	
16.105	-0.147	0.106	
16.110	0.482	0.087	
16.115	-0.040	0.097	
16.120	-0.251	0.091	
16.125	0.348	0.063	
16.130	0.185	0.066	
16.135	-0.338	0.073	
16.140	0.015	0.041	
16.145	0.389	0.021	
16.150	-0.216	0.035	
16.155	-0.138	0.026	
16.160	0.541	0.020	
16.165	-0.031	0.055	
16.170	-0.251	0.073	
16.175	0.374	0.061	
16.180	0.255	0.078	
16.185	-0.272	0.101	
16.190	0.110	0.085	
16.195	0.519	0.083	
16.200	-0.173	0.112	
16.205	-0.127	0.107	
16.210	0.507	0.089	
16.215	-0.048	0.102	
16.220	-0.272	0.096	
16.225	0.313	0.063	
16.230	0.172	0.059	
16.235	-0.332	0.061	
16.240	0.017	0.029	
16.245	0.385	0.012	
16.250	-0.203	0.028	
16.255	-0.093	0.026	
16.260	0.615	0.030	
16.265	0.047	0.081	
16.270	-0.237	0.113	
16.275	0.391	0.106	
16.280	0.313	0.123	
16.285	-0.246	0.144	
16.290	0.133	0.126	
16.295	0.550	0.120	
16.300	-0.165	0.144	
16.305	-0.122	0.134	
16.310	0.559	0.111	
16.315	-0.026	0.124	
16.320	-0.291	0.117	
16.325	0.238	0.075	
16.330	0.136	0.056	
16.335	-0.321	0.044	
16.340	0.012	0.008	
16.345	0.458	-0.004	
16.350	-0.213	0.024	
16.355	-0.182	0.026	
16.360	0.457	0.017	
16.365	-0.061	0.040	
16.370	-0.297	0.046	
16.375	0.290	0.023	
16.380	0.220	0.031	
16.385	-0.312	0.049	
16.390	0.007	0.030	
16.395	0.406	0.020	
16.400	-0.225	0.039	
16.405	-0.179	0.031	
16.410	0.447	0.015	
16.415	-0.013	0.037	
16.420	-0.173	0.052	
16.425	0.660	0.064	
16.430	0.690	0.143	
16.435	-0.066	0.246	
16.440	0.345	0.293	
16.445	0.473	0.313	
16.450	-0.346	0.309	
16.455	-0.420	0.220	
16.460	-0.087	0.077	
16.465	-0.350	-0.051	
16.470	-0.537	-0.166	
16.475	-0.057	-0.260	
16.480	0.047	-0.286	
16.485	-0.321	-0.259	
16.490	0.018	-0.225	
16.495	0.475	-0.158	
16.500	-0.158	-0.058	
16.505	-0.113	0.004	
16.510	0.626	0.045	
16.515	0.111	0.114	
16.520	-0.196	0.157	
16.525	0.463	0.158	
16.530	0.423	0.182	
16.535	-0.199	0.212	
16.540	0.186	0.197	
16.545	0.621	0.190	
16.550	-0.119	0.212	
16.555	-0.116	0.196	
16.560	0.567	0.162	
16.565	0.029	0.163	
16.570	-0.225	0.152	
16.575	0.412	0.118	
16.580	0.403	0.126	
16.585	-0.211	0.153	
16.590	0.156	0.144	
16.595	0.583	0.145	
16.600	-0.122	0.174	
16.605	-0.075	0.168	
16.610	0.664	0.152	
16.615	0.125	0.180	
16.620	-0.200	0.193	
16.625	0.458	0.173	
16.630	0.443	0.184	
16.635	-0.202	0.208	
16.640	0.146	0.190	
16.645	0.632	0.180	
16.650	-0.097	0.202	
16.655	-0.066	0.193	
16.660	0.664	0.173	
16.665	0.130	0.195	
16.670	-0.190	0.204	
16.675	0.463	0.181	
16.680	0.421	0.189	
16.685	-0.229	0.208	
16.690	0.053	0.180	
16.695	0.478	0.149	
16.700	-0.210	0.143	
16.705	-0.225	0.106	
16.710	0.324	0.053	
16.715	-0.135	0.030	
16.720	-0.411	-0.003	
16.725	0.046	-0.061	
16.730	0.021	-0.092	
16.735	-0.431	-0.106	
16.740	-0.193	-0.141	
16.745	0.102	-0.165	
16.750	-0.361	-0.163	
16.755	-0.359	-0.177	
16.760	0.148	-0.194	
16.765	-0.197	-0.179	
16.770	-0.419	-0.169	
16.775	0.061	-0.178	
16.780	0.061	-0.160	
16.785	-0.398	-0.132	
16.790	-0.121	-0.133	
16.795	0.285	-0.126	
16.800	-0.286	-0.091	
16.805	-0.271	-0.083	
16.810	0.310	-0.088	
16.815	-0.109	-0.063	
16.820	-0.344	-0.050	
16.825	0.221	-0.062	
16.830	0.131	-0.045	
16.835	-0.368	-0.023	
16.840	-0.069	-0.040	
16.845	0.427	-0.044	
16.850	-0.217	-0.012	
16.855	-0.222	-0.004	
16.860	0.402	-0.012	
16.865	-0.042	0.012	
16.870	-0.295	0.022	
16.875	0.295	0.008	
16.880	0.284	0.026	
16.885	-0.278	0.057	
16.890	0.027	0.050	
16.895	0.530	0.052	
16.900	-0.161	0.086	
16.905	-0.167	0.089	
16.910	0.533	0.075	
16.915	0.042	0.098	
16.920	-0.272	0.108	
16.925	0.287	0.082	
16.930	0.293	0.082	
16.935	-0.291	0.094	
16.940	0.003	0.069	
16.945	0.522	0.055	
16.950	-0.187	0.078	
16.955	-0.205	0.072	
16.960	0.415	0.047	
16.965	-0.028	0.054	
16.970	-0.307	0.050	
16.975	0.319	0.024	
16.980	0.350	0.038	
16.985	-0.266	0.072	
16.990	0.032	0.069	
16.995	0.554	0.071	
17.000	-0.145	0.105	
17.005	-0.158	0.107	
17.010	0.505	0.090	
17.015	0.029	0.106	
17.020	-0.268	0.108	
17.025	0.275	0.078	
17.030	0.276	0.075	
17.035	-0.281	0.085	
17.040	-0.006	0.060	
17.045	0.527	0.048	
17.050	-0.170	0.073	
17.055	-0.199	0.072	
17.060	0.405	0.050	
17.065	-0.058	0.056	
17.070	-0.310	0.047	
17.075	0.281	0.016	
17.080	0.362	0.026	
17.085	-0.258	0.060	
17.090	-0.003	0.059	
17.095	0.493	0.058	
17.100	-0.138	0.086	
17.105	-0.158	0.086	
17.110	0.531	0.074	
17.115	0.073	0.100	
17.120	-0.275	0.112	
17.125	0.313	0.090	
17.130	0.348	0.095	
17.135	-0.266	0.114	
17.140	-0.009	0.093	
17.145	0.504	0.076	
17.150	-0.136	0.093	
17.155	-0.167	0.088	
17.160	0.512	0.070	
17.165	0.033	0.090	
17.170	-0.284	0.097	
17.175	0.296	0.071	
17.180	0.374	0.077	
17.185	-0.254	0.102	
17.190	0.039	0.091	
17.195	0.557	0.087	
17.200	-0.133	0.115	
17.205	-0.190	0.113	
17.210	0.434	0.087	
17.215	-0.026	0.089	
17.220	-0.315	0.076	
17.225	0.217	0.035	
17.230	0.263	0.027	
17.235	-0.306	0.037	
17.240	-0.089	0.016	
17.245	0.365	-0.003	
17.250	-0.205	0.008	
17.255	-0.231	-0.001	
17.260	0.434	-0.016	
17.265	-0.037	0.008	
17.270	-0.352	0.018	
17.275	0.227	-0.004	
17.280	0.324	0.006	
17.285	-0.265	0.038	
17.290	0.088	0.041	
17.295	0.797	0.068	
17.300	0.145	0.153	
17.305	0.142	0.223	
17.310	0.880	0.277	
17.315	0.192	0.349	
17.320	-0.390	0.360	
17.325	-0.118	0.267	
17.330	-0.150	0.136	
17.335	-0.576	0.000	
17.340	-0.323	-0.141	
17.345	0.032	-0.240	
17.350	-0.323	-0.271	
17.355	-0.277	-0.277	
17.360	0.418	-0.250	
17.365	0.020	-0.164	
17.370	-0.271	-0.083	
17.375	0.328	-0.037	
17.380	0.421	0.030	
17.385	-0.223	0.101	
17.390	0.075	0.120	
17.395	0.644	0.133	
17.400	-0.060	0.175	
17.405	-0.104	0.183	
17.410	0.611	0.169	
17.415	0.166	0.190	
17.420	-0.237	0.198	
17.425	0.360	0.168	
17.430	0.481	0.166	
17.435	-0.200	0.187	
17.440	0.026	0.167	
17.445	0.583	0.147	
17.450	-0.087	0.161	
17.455	-0.130	0.151	
17.460	0.554	0.127	
17.465	0.125	0.143	
17.470	-0.226	0.151	
17.475	0.394	0.131	
17.480	0.492	0.145	
17.485	-0.176	0.180	
17.490	0.108	0.176	
17.495	0.683	0.175	
17.500	-0.069	0.207	
17.505	-0.129	0.203	
17.510	0.597	0.177	
17.515	0.211	0.190	
17.520	-0.205	0.199	
17.525	0.397	0.176	
17.530	0.513	0.183	
17.535	-0.156	0.211	
17.540	0.105	0.200	
17.545	0.715	0.193	
17.550	-0.040	0.223	
17.555	-0.190	0.217	
17.560	0.461	0.176	
17.565	0.094	0.162	
17.570	-0.312	0.140	
17.575	0.148	0.086	
17.580	0.250	0.055	
17.585	-0.346	0.043	
17.590	-0.148	0.002	
17.595	0.278	-0.035	
17.600	-0.287	-0.042	
17.605	-0.353	-0.067	
17.610	0.180	-0.105	
17.615	-0.158	-0.111	
17.620	-0.466	-0.121	
17.625	-0.077	-0.158	
17.630	0.033	-0.174	
17.635	-0.414	-0.169	
17.640	-0.173	-0.180	
17.645	0.266	-0.175	
17.650	-0.294	-0.138	
17.655	-0.382	-0.126	
17.660	0.165	-0.138	
17.665	-0.095	-0.126	
17.670	-0.414	-0.117	
17.675	0.035	-0.132	
17.680	0.224	-0.120	
17.685	-0.318	-0.085	
17.690	-0.115	-0.076	
17.695	0.414	-0.064	
17.700	-0.205	-0.023	
17.705	-0.284	-0.011	
17.710	0.308	-0.025	
17.715	-0.003	-0.012	
17.720	-0.327	-0.005	
17.725	0.180	-0.022	
17.730	0.342	-0.009	
17.735	-0.266	0.026	
17.740	-0.057	0.027	
17.745	0.498	0.028	
17.750	-0.153	0.060	
17.755	-0.252	0.062	
17.760	0.443	0.041	
17.765	0.042	0.055	
17.770	-0.304	0.061	
17.775	0.235	0.038	
17.780	0.374	0.045	
17.785	-0.277	0.072	
17.790	-0.069	0.061	
17.795	0.527	0.049	
17.800	-0.122	0.074	
17.805	-0.208	0.076	
17.810	0.441	0.059	
17.815	0.090	0.074	
17.820	-0.287	0.084	
17.825	0.236	0.062	
17.830	0.398	0.066	
17.835	-0.255	0.092	
17.840	-0.092	0.078	
17.845	0.493	0.060	
17.850	-0.100	0.076	
17.855	-0.197	0.075	
17.860	0.429	0.057	
17.865	0.130	0.074	
17.870	-0.301	0.087	
17.875	0.183	0.064	
17.880	0.339	0.059	
17.885	-0.257	0.074	
17.890	-0.049	0.057	
17.895	0.542	0.047	
17.900	-0.129	0.075	
17.905	-0.220	0.078	
17.910	0.455	0.060	
17.915	0.124	0.077	
17.920	-0.291	0.091	
17.925	0.209	0.069	
17.930	0.343	0.067	
17.935	-0.291	0.082	
17.940	-0.064	0.060	
17.945	0.557	0.045	
17.950	-0.115	0.072	
17.955	-0.214	0.077	
17.960	0.466	0.062	
17.965	0.160	0.084	
17.970	-0.277	0.102	
17.975	0.172	0.082	
17.980	0.339	0.076	
17.985	-0.262	0.086	
17.990	-0.080	0.063	
17.995	0.513	0.044	
18.000	-0.129	0.065	
18.005	-0.225	0.064	
18.010	0.418	0.045	
18.015	0.093	0.059	
18.020	-0.301	0.070	
18.025	0.186	0.047	
18.030	0.409	0.049	
18.035	-0.229	0.077	
18.040	-0.023	0.073	
18.045	0.626	0.074	
18.050	-0.063	0.114	
18.055	-0.207	0.127	
18.060	0.423	0.107	
18.065	0.093	0.111	
18.070	-0.295	0.107	
18.075	0.246	0.074	
18.080	0.460	0.074	
18.085	-0.242	0.103	
18.090	-0.054	0.095	
18.095	0.605	0.085	
18.100	-0.064	0.115	
18.105	-0.211	0.121	
18.110	0.415	0.098	
18.115	0.082	0.101	
18.120	-0.330	0.095	
18.125	0.142	0.055	
18.130	0.366	0.040	
18.135	-0.277	0.052	
18.140	-0.141	0.034	
18.145	0.397	0.011	
18.150	-0.159	0.021	
18.155	-0.275	0.012	
18.160	0.305	-0.013	
18.165	0.084	-0.003	
18.170	-0.317	0.009	
18.175	0.107	-0.007	
18.180	0.347	-0.002	
18.185	-0.269	0.025	
18.190	-0.109	0.020	
18.195	0.515	0.015	
18.200	-0.052	0.050	
18.205	-0.113	0.071	
18.210	0.742	0.090	
18.215	0.570	0.172	
18.220	-0.026	0.267	
18.225	0.541	0.312	
18.230	0.414	0.345	
18.235	-0.417	0.341	
18.240	-0.411	0.238	
18.245	-0.129	0.080	
18.250	-0.449	-0.064	
18.255	-0.448	-0.191	
18.260	0.107	-0.275	
18.265	0.026	-0.276	
18.270	-0.297	-0.231	
18.275	0.189	-0.184	
18.280	0.472	-0.102	
18.285	-0.210	0.000	
18.290	-0.034	0.051	
18.295	0.615	0.083	
18.300	-0.042	0.136	
18.305	-0.184	0.153	
18.310	0.521	0.139	
18.315	0.279	0.158	
18.320	-0.232	0.178	
18.325	0.304	0.160	
18.330	0.525	0.163	
18.335	-0.217	0.187	
18.340	-0.034	0.167	
18.345	0.599	0.141	
18.350	-0.051	0.153	
18.355	-0.182	0.146	
18.360	0.481	0.118	
18.365	0.195	0.128	
18.370	-0.281	0.136	
18.375	0.178	0.106	
18.380	0.484	0.098	
18.385	-0.173	0.121	
18.390	0.049	0.118	
18.395	0.736	0.126	
18.400	0.036	0.178	
18.405	-0.164	0.201	
18.410	0.548	0.187	
18.415	0.324	0.203	
18.420	-0.211	0.219	
18.425	0.331	0.197	
18.430	0.588	0.198	
18.435	-0.165	0.224	
18.440	0.001	0.207	
18.445	0.713	0.186	
18.450	0.042	0.209	
18.455	-0.153	0.212	
18.460	0.521	0.186	
18.465	0.276	0.192	
18.470	-0.248	0.198	
18.475	0.235	0.165	
18.480	0.417	0.148	
18.485	-0.310	0.147	
18.490	-0.213	0.100	
18.495	0.359	0.041	
18.500	-0.147	0.021	
18.505	-0.300	-0.003	
18.510	0.172	-0.041	
18.515	-0.104	-0.055	
18.520	-0.463	-0.075	
18.525	-0.107	-0.123	
18.530	0.143	-0.149	
18.535	-0.370	-0.143	
18.540	-0.266	-0.153	
18.545	0.229	-0.161	
18.550	-0.236	-0.137	
18.555	-0.384	-0.129	
18.560	0.113	-0.142	
18.565	-0.072	-0.133	
18.570	-0.451	-0.126	
18.575	-0.092	-0.149	
18.580	0.189	-0.153	
18.585	-0.342	-0.129	
18.590	-0.240	-0.128	
18.595	0.331	-0.126	
18.600	-0.167	-0.090	
18.605	-0.321	-0.071	
18.610	0.266	-0.073	
18.615	0.084	-0.047	
18.620	-0.327	-0.021	
18.625	0.082	-0.027	
18.630	0.403	-0.014	
18.635	-0.240	0.025	
18.640	-0.126	0.030	
18.645	0.513	0.028	
18.650	-0.078	0.060	
18.655	-0.278	0.068	
18.660	0.319	0.045	
18.665	0.212	0.052	
18.670	-0.304	0.066	
18.675	0.096	0.047	
18.680	0.417	0.043	
18.685	-0.248	0.064	
18.690	-0.135	0.053	
18.695	0.487	0.037	
18.700	-0.077	0.057	
18.705	-0.243	0.060	
18.710	0.423	0.045	
18.715	0.252	0.068	
18.720	-0.274	0.097	
18.725	0.125	0.086	
18.730	0.446	0.084	
18.735	-0.210	0.104	
18.740	-0.113	0.091	
18.745	0.495	0.071	
18.750	-0.068	0.085	
18.755	-0.271	0.080	
18.760	0.379	0.053	
18.765	0.220	0.062	
18.770	-0.284	0.080	
18.775	0.125	0.063	
18.780	0.495	0.065	
18.785	-0.194	0.096	
18.790	-0.101	0.094	
18.795	0.521	0.081	
18.800	-0.069	0.100	
18.805	-0.280	0.096	
18.810	0.330	0.062	
18.815	0.194	0.061	
18.820	-0.289	0.068	
18.825	0.119	0.047	
18.830	0.440	0.046	
18.835	-0.232	0.072	
18.840	-0.107	0.066	
18.845	0.531	0.054	
18.850	-0.052	0.080	
18.855	-0.258	0.086	
18.860	0.362	0.063	
18.865	0.252	0.074	
18.870	-0.269	0.093	
18.875	0.128	0.078	
18.880	0.473	0.077	
18.885	-0.211	0.102	
18.890	-0.130	0.092	
18.895	0.515	0.072	
18.900	-0.038	0.089	
18.905	-0.249	0.089	
18.910	0.363	0.065	
18.915	0.238	0.074	
18.920	-0.275	0.091	
18.925	0.021	0.069	
18.930	0.394	0.053	
18.935	-0.237	0.062	
18.940	-0.162	0.043	
18.945	0.460	0.022	
18.950	-0.048	0.040	
18.955	-0.214	0.048	
18.960	0.496	0.044	
18.965	0.334	0.086	
18.970	-0.245	0.133	
18.975	0.148	0.131	
18.980	0.557	0.134	
18.985	-0.152	0.162	
18.990	-0.092	0.153	
18.995	0.531	0.130	
19.000	-0.032	0.138	
19.005	-0.255	0.126	
19.010	0.351	0.088	
19.015	0.235	0.084	
19.020	-0.312	0.091	
19.025	-0.016	0.058	
19.030	0.394	0.034	
19.035	-0.216	0.041	
19.040	-0.156	0.029	
19.045	0.475	0.014	
19.050	-0.058	0.039	
19.055	-0.292	0.047	
19.060	0.250	0.024	
19.065	0.183	0.026	
19.070	-0.342	0.035	
19.075	-0.026	0.009	
19.080	0.380	-0.007	
19.085	-0.249	0.010	
19.090	-0.187	0.002	
19.095	0.418	-0.012	
19.100	-0.069	0.010	
19.105	-0.255	0.021	
19.110	0.409	0.014	
19.115	0.408	0.053	
19.120	-0.136	0.112	
19.125	0.533	0.152	
19.130	1.051	0.235	
19.135	0.143	0.360	
19.140	-0.069	0.414	
19.145	0.227	0.375	
19.150	-0.347	0.288	
19.155	-0.639	0.141	
19.160	-0.236	-0.043	
19.165	-0.202	-0.186	
19.170	-0.474	-0.273	
19.175	-0.106	-0.324	
19.180	0.365	-0.304	
19.185	-0.193	-0.218	
19.190	-0.126	-0.142	
19.195	0.557	-0.074	
19.200	0.044	0.022	
19.205	-0.217	0.084	
19.210	0.418	0.101	
19.215	0.348	0.135	
19.220	-0.240	0.167	
19.225	0.131	0.152	
19.230	0.574	0.144	
19.235	-0.126	0.167	
19.240	-0.104	0.157	
19.245	0.580	0.135	
19.250	0.035	0.149	
19.255	-0.223	0.149	
19.260	0.434	0.122	
19.265	0.398	0.134	
19.270	-0.237	0.161	
19.275	0.107	0.146	
19.280	0.583	0.138	
19.285	-0.148	0.160	
19.290	-0.103	0.150	
19.295	0.617	0.129	
19.300	0.096	0.152	
19.305	-0.203	0.163	
19.310	0.446	0.145	
19.315	0.402	0.159	
19.320	-0.225	0.184	
19.325	0.136	0.166	
19.330	0.646	0.159	
19.335	-0.086	0.188	
19.340	-0.060	0.187	
19.345	0.658	0.172	
19.350	0.136	0.198	
19.355	-0.165	0.209	
19.360	0.486	0.189	
19.365	0.443	0.202	
19.370	-0.187	0.226	
19.375	0.175	0.207	
19.380	0.620	0.196	
19.385	-0.130	0.214	
19.390	-0.139	0.193	
19.395	0.481	0.151	
19.400	-0.068	0.137	
19.405	-0.359	0.104	
19.410	0.082	0.036	
19.415	0.067	-0.010	
19.420	-0.408	-0.039	
19.425	-0.161	-0.089	
19.430	0.113	-0.125	
19.435	-0.365	-0.134	
19.440	-0.321	-0.157	
19.445	0.197	-0.176	
19.450	-0.179	-0.158	
19.455	-0.419	-0.147	
19.460	0.020	-0.160	
19.465	0.032	-0.153	
19.470	-0.396	-0.136	
19.475	-0.132	-0.144	
19.480	0.226	-0.141	
19.485	-0.295	-0.112	
19.490	-0.286	-0.108	
19.495	0.252	-0.114	
19.500	-0.138	-0.092	
19.505	-0.399	-0.084	
19.510	0.076	-0.104	
19.515	0.119	-0.101	
19.520	-0.347	-0.082	
19.525	-0.058	-0.087	
19.530	0.369	-0.078	
19.535	-0.246	-0.039	
19.540	-0.219	-0.028	
19.545	0.476	-0.027	
19.550	0.044	0.014	
19.555	-0.258	0.046	
19.560	0.328	0.046	
19.565	0.316	0.071	
19.570	-0.268	0.102	
19.575	-0.008	0.088	
19.580	0.479	0.074	
19.585	-0.199	0.088	
19.590	-0.205	0.073	
19.595	0.415	0.043	
19.600	-0.009	0.049	
19.605	-0.284	0.048	
19.610	0.273	0.025	
19.615	0.281	0.034	
19.620	-0.287	0.057	
19.625	0.006	0.045	
19.630	0.522	0.042	
19.635	-0.156	0.074	
19.640	-0.165	0.078	
19.645	0.544	0.068	
19.650	0.046	0.096	
19.655	-0.263	0.109	
19.660	0.261	0.085	
19.665	0.311	0.084	
19.670	-0.258	0.097	
19.675	0.026	0.077	
19.680	0.504	0.067	
19.685	-0.153	0.090	
19.690	-0.181	0.086	
19.695	0.495	0.067	
19.700	0.003	0.083	
19.705	-0.295	0.085	
19.710	0.255	0.055	
19.715	0.301	0.054	
19.720	-0.291	0.069	
19.725	0.000	0.051	
19.730	0.522	0.044	
19.735	-0.145	0.073	
19.740	-0.173	0.077	
19.745	0.487	0.064	
19.750	0.039	0.085	
19.755	-0.284	0.093	
19.760	0.292	0.068	
19.765	0.379	0.075	
19.770	-0.260	0.101	
19.775	-0.026	0.087	
19.780	0.502	0.073	
19.785	-0.171	0.090	
19.790	-0.196	0.080	
19.795	0.484	0.057	
19.800	0.067	0.073	
19.805	-0.269	0.084	
19.810	0.273	0.065	
19.815	0.333	0.071	
19.820	-0.277	0.092	
19.825	-0.046	0.073	
19.830	0.464	0.054	
19.835	-0.150	0.069	
19.840	-0.173	0.063	
19.845	0.492	0.048	
19.850	0.032	0.071	
19.855	-0.295	0.081	
19.860	0.256	0.057	
19.865	0.377	0.062	
19.870	-0.229	0.089	
19.875	0.068	0.086	
19.880	0.605	0.092	
19.885	-0.100	0.132	
19.890	-0.136	0.140	
19.895	0.531	0.125	
19.900	0.122	0.143	
19.905	-0.248	0.150	
19.910	0.299	0.122	
19.915	0.385	0.120	
19.920	-0.260	0.134	
19.925	-0.025	0.109	
19.930	0.475	0.084	
19.935	-0.188	0.090	
19.940	-0.225	0.071	
19.945	0.397	0.037	
19.950	-0.029	0.039	
19.955	-0.335	0.032	
19.960	0.148	-0.002	
19.965	0.272	-0.008	
19.970	-0.284	0.009	
19.975	-0.035	0.001	
19.980	0.479	0.002	
19.985	-0.182	0.037	
19.990	-0.222	0.042	
19.995	0.418	0.027	
20.000	0.047	0.046	
20.005	-0.301	0.056	
20.010	0.241	0.036	
20.015	0.452	0.049	
20.020	-0.165	0.091	
20.025	0.221	0.111	
20.030	0.881	0.154	
20.035	0.114	0.243	
20.040	-0.086	0.290	
20.045	0.324	0.271	
20.050	-0.200	0.229	
20.055	-0.579	0.135	
20.060	-0.246	-0.010	
20.065	-0.174	-0.137	
20.070	-0.517	-0.225	
20.075	-0.220	-0.293	
20.080	0.380	-0.299	
20.085	-0.168	-0.230	
20.090	-0.203	-0.160	
20.095	0.547	-0.098	
20.100	0.186	0.000	
20.105	-0.208	0.081	
20.110	0.342	0.111	
20.115	0.463	0.149	
20.120	-0.219	0.188	
20.125	0.020	0.175	
20.130	0.612	0.156	
20.135	-0.055	0.173	
20.140	-0.138	0.166	
20.145	0.592	0.144	
20.150	0.181	0.163	
20.155	-0.252	0.175	
20.160	0.249	0.145	
20.165	0.438	0.135	
20.170	-0.181	0.149	
20.175	0.065	0.135	
20.180	0.620	0.129	
20.185	-0.069	0.160	
20.190	-0.129	0.162	
20.195	0.597	0.145	
20.200	0.220	0.170	
20.205	-0.223	0.188	
20.210	0.386	0.169	
20.215	0.545	0.180	
20.220	-0.181	0.211	
20.225	0.055	0.199	
20.230	0.663	0.183	
20.235	-0.034	0.204	
20.240	-0.165	0.196	
20.245	0.498	0.162	
20.250	0.197	0.163	
20.255	-0.205	0.165	
20.260	0.388	0.144	
20.265	0.534	0.158	
20.270	-0.182	0.194	
20.275	0.047	0.186	
20.280	0.626	0.173	
20.285	-0.069	0.191	
20.290	-0.176	0.179	
20.295	0.431	0.141	
20.300	0.036	0.129	
20.305	-0.346	0.107	
20.310	0.067	0.049	
20.315	0.189	0.011	
20.320	-0.365	-0.007	
20.325	-0.207	-0.048	
20.330	0.208	-0.086	
20.335	-0.280	-0.092	
20.340	-0.381	-0.112	
20.345	0.067	-0.146	
20.350	-0.145	-0.154	
20.355	-0.462	-0.161	
20.360	-0.098	-0.189	
20.365	0.068	-0.195	
20.370	-0.378	-0.177	
20.375	-0.211	-0.177	
20.380	0.261	-0.170	
20.385	-0.257	-0.132	
20.390	-0.327	-0.116	
20.395	0.236	-0.118	
20.400	-0.034	-0.092	
20.405	-0.364	-0.071	
20.410	0.061	-0.080	
20.415	0.253	-0.069	
20.420	-0.320	-0.040	
20.425	-0.155	-0.043	
20.430	0.403	-0.047	
20.435	-0.171	-0.018	
20.440	-0.294	-0.011	
20.445	0.304	-0.027	
20.450	0.023	-0.014	
20.455	-0.347	-0.005	
20.460	0.131	-0.025	
20.465	0.389	-0.016	
20.470	-0.239	0.023	
20.475	-0.097	0.029	
20.480	0.441	0.027	
20.485	-0.121	0.052	
20.490	-0.229	0.053	
20.495	0.444	0.038	
20.500	0.122	0.059	
20.505	-0.312	0.076	
20.510	0.172	0.055	
20.515	0.427	0.056	
20.520	-0.246	0.082	
20.525	-0.061	0.074	
20.530	0.548	0.065	
20.535	-0.106	0.091	
20.540	-0.236	0.092	
20.545	0.369	0.066	
20.550	0.099	0.069	
20.555	-0.298	0.070	
20.560	0.189	0.043	
20.565	0.452	0.047	
20.570	-0.220	0.080	
20.575	-0.071	0.079	
20.580	0.495	0.070	
20.585	-0.112	0.090	
20.590	-0.242	0.084	
20.595	0.400	0.057	
20.600	0.136	0.065	
20.605	-0.298	0.074	
20.610	0.146	0.051	
20.615	0.412	0.048	
20.620	-0.242	0.072	
20.625	-0.103	0.062	
20.630	0.481	0.048	
20.635	-0.092	0.067	
20.640	-0.196	0.069	
20.645	0.484	0.057	
20.650	0.223	0.087	
20.655	-0.271	0.116	
20.660	0.181	0.102	
20.665	0.435	0.101	
20.670	-0.217	0.120	
20.675	-0.089	0.104	
20.680	0.556	0.084	
20.685	-0.071	0.102	
20.690	-0.217	0.102	
20.695	0.421	0.079	
20.700	0.154	0.089	
20.705	-0.275	0.098	
20.710	0.171	0.075	
20.715	0.487	0.075	
20.720	-0.202	0.104	
20.725	-0.048	0.101	
20.730	0.565	0.094	
20.735	-0.071	0.119	
20.740	-0.246	0.118	
20.745	0.339	0.085	
20.750	0.120	0.079	
20.755	-0.323	0.073	
20.760	0.084	0.036	
20.765	0.359	0.021	
20.770	-0.268	0.034	
20.775	-0.144	0.020	
20.780	0.443	0.004	
20.785	-0.122	0.024	
20.790	-0.263	0.026	
20.795	0.337	0.008	
20.800	0.096	0.021	
20.805	-0.336	0.033	
20.810	0.075	0.009	
20.815	0.415	0.006	
20.820	-0.236	0.035	
20.825	-0.086	0.036	
20.830	0.641	0.040	
20.835	0.039	0.092	
20.840	-0.078	0.130	
20.845	0.790	0.156	
20.850	0.508	0.233	
20.855	-0.222	0.300	
20.860	-0.042	0.279	
20.865	0.006	0.204	
20.870	-0.514	0.104	
20.875	-0.434	-0.032	
20.880	-0.034	-0.158	
20.885	-0.300	-0.228	
20.890	-0.362	-0.266	
20.895	0.321	-0.268	
20.900	0.177	-0.199	
20.905	-0.283	-0.110	
20.910	0.154	-0.057	
20.915	0.476	0.003	
20.920	-0.207	0.073	
20.925	-0.080	0.094	
20.930	0.596	0.097	
20.935	-0.002	0.132	
20.940	-0.171	0.144	
20.945	0.508	0.131	
20.950	0.311	0.154	
20.955	-0.219	0.179	
20.960	0.276	0.165	
20.965	0.596	0.171	
20.970	-0.130	0.204	
20.975	-0.011	0.197	
20.980	0.652	0.181	
20.985	-0.008	0.199	
20.990	-0.210	0.190	
20.995	0.467	0.153	
21.000	0.305	0.154	
21.005	-0.242	0.165	
21.010	0.194	0.140	
21.015	0.534	0.134	
21.020	-0.167	0.156	
21.025	-0.069	0.145	
21.030	0.605	0.126	
21.035	0.041	0.148	
21.040	-0.158	0.156	
21.045	0.533	0.143	
21.050	0.380	0.170	
21.055	-0.182	0.203	
21.060	0.331	0.198	
21.065	0.692	0.213	
21.070	-0.086	0.256	
21.075	-0.009	0.254	
21.080	0.658	0.231	
21.085	0.009	0.238	
21.090	-0.187	0.220	
21.095	0.441	0.174	
21.100	0.233	0.162	
21.105	-0.300	0.155	
21.110	0.046	0.108	
21.115	0.356	0.071	
21.120	-0.280	0.062	
21.125	-0.239	0.026	
21.130	0.250	-0.020	
21.135	-0.217	-0.037	
21.140	-0.420	-0.066	
21.145	0.067	-0.114	
21.150	-0.040	-0.132	
21.155	-0.430	-0.137	
21.160	-0.130	-0.161	
21.165	0.137	-0.169	
21.170	-0.364	-0.152	
21.175	-0.277	-0.155	
21.180	0.232	-0.160	
21.185	-0.213	-0.134	
21.190	-0.391	-0.123	
21.195	0.091	-0.137	
21.200	-0.008	-0.129	
21.205	-0.394	-0.115	
21.210	-0.060	-0.127	
21.215	0.305	-0.119	
21.220	-0.263	-0.080	
21.225	-0.202	-0.065	
21.230	0.342	-0.061	
21.235	-0.138	-0.032	
21.240	-0.367	-0.026	
21.245	0.105	-0.053	
21.250	0.110	-0.059	
21.255	-0.318	-0.051	
21.260	0.062	-0.059	
21.265	0.414	-0.042	
21.270	-0.214	0.006	
21.275	-0.156	0.020	
21.280	0.476	0.021	
21.285	-0.035	0.053	
21.290	-0.254	0.066	
21.295	0.351	0.051	
21.300	0.267	0.067	
21.305	-0.275	0.091	
21.310	0.082	0.077	
21.315	0.490	0.073	
21.320	-0.197	0.098	
21.325	-0.141	0.090	
21.330	0.501	0.070	
21.335	-0.035	0.086	
21.340	-0.280	0.084	
21.345	0.259	0.053	
21.350	0.162	0.046	
21.355	-0.304	0.047	
21.360	0.065	0.021	
21.365	0.469	0.018	
21.370	-0.210	0.050	
21.375	-0.132	0.053	
21.380	0.534	0.047	
21.385	-0.035	0.077	
21.390	-0.274	0.087	
21.395	0.334	0.064	
21.400	0.282	0.072	
21.405	-0.266	0.092	
21.410	0.105	0.078	
21.415	0.502	0.078	
21.420	-0.182	0.106	
21.425	-0.145	0.100	
21.430	0.463	0.078	
21.435	-0.026	0.088	
21.440	-0.287	0.082	
21.445	0.232	0.047	
21.450	0.151	0.036	
21.455	-0.318	0.034	
21.460	0.055	0.007	
21.465	0.489	0.005	
21.470	-0.181	0.043	
21.475	-0.155	0.052	
21.480	0.498	0.047	
21.485	0.007	0.075	
21.490	-0.255	0.087	
21.495	0.377	0.071	
21.500	0.333	0.088	
21.505	-0.263	0.117	
21.510	0.084	0.104	
21.515	0.531	0.099	
21.520	-0.170	0.123	
21.525	-0.153	0.114	
21.530	0.487	0.089	
21.535	-0.023	0.097	
21.540	-0.284	0.090	
21.545	0.311	0.057	
21.550	0.301	0.060	
21.555	-0.255	0.081	
21.560	0.084	0.070	
21.565	0.553	0.073	
21.570	-0.139	0.110	
21.575	-0.133	0.114	
21.580	0.541	0.101	
21.585	0.044	0.122	
21.590	-0.245	0.127	
21.595	0.340	0.102	
21.600	0.296	0.104	
21.605	-0.287	0.116	
21.610	-0.006	0.087	
21.615	0.432	0.063	
21.620	-0.226	0.069	
21.625	-0.219	0.048	
21.630	0.408	0.017	
21.635	-0.063	0.023	
21.640	-0.329	0.020	
21.645	0.201	-0.009	
21.650	0.232	-0.008	
21.655	-0.306	0.011	
21.660	-0.035	-0.001	
21.665	0.392	-0.006	
21.670	-0.229	0.017	
21.675	-0.216	0.012	
21.680	0.476	-0.001	
21.685	0.006	0.027	
21.690	-0.265	0.046	
21.695	0.482	0.045	
21.700	0.579	0.095	
21.705	-0.058	0.175	
21.710	0.421	0.223	
21.715	0.790	0.278	
21.720	-0.182	0.338	
21.725	-0.346	0.308	
21.730	-0.051	0.194	
21.735	-0.371	0.065	
21.740	-0.588	-0.075	
21.745	-0.139	-0.207	
21.750	-0.020	-0.275	
21.755	-0.353	-0.282	
21.760	-0.017	-0.268	
21.765	0.521	-0.206	
21.770	-0.133	-0.096	
21.775	-0.115	-0.018	
21.780	0.573	0.034	
21.785	0.061	0.103	
21.790	-0.249	0.139	
21.795	0.388	0.128	
21.800	0.470	0.146	
21.805	-0.156	0.181	
21.810	0.124	0.178	
21.815	0.567	0.174	
21.820	-0.121	0.193	
21.825	-0.119	0.175	
21.830	0.603	0.146	
21.835	0.120	0.160	
21.840	-0.231	0.166	
21.845	0.339	0.138	
21.850	0.391	0.137	
21.855	-0.222	0.153	
21.860	0.093	0.135	
21.865	0.632	0.128	
21.870	-0.089	0.160	
21.875	-0.126	0.161	
21.880	0.577	0.143	
21.885	0.120	0.161	
21.890	-0.223	0.167	
21.895	0.383	0.142	
21.900	0.438	0.149	
21.905	-0.191	0.174	
21.910	0.099	0.161	
21.915	0.629	0.155	
21.920	-0.069	0.182	
21.925	-0.116	0.180	
21.930	0.600	0.159	
21.935	0.209	0.179	
21.940	-0.173	0.195	
21.945	0.484	0.183	
21.950	0.496	0.203	
21.955	-0.205	0.234	
21.960	0.027	0.211	
21.965	0.501	0.177	
21.970	-0.155	0.168	
21.975	-0.216	0.132	
21.980	0.336	0.078	
21.985	-0.068	0.055	
21.990	-0.361	0.026	
21.995	0.056	-0.027	
22.000	0.087	-0.055	
22.005	-0.408	-0.067	
22.010	-0.197	-0.104	
22.015	0.191	-0.130	
22.020	-0.306	-0.125	
22.025	-0.355	-0.135	
22.030	0.146	-0.155	
22.035	-0.145	-0.146	
22.040	-0.422	-0.141	
22.045	0.001	-0.158	
22.050	0.102	-0.152	
22.055	-0.416	-0.130	
22.060	-0.223	-0.140	
22.065	0.146	-0.152	
22.070	-0.278	-0.139	
22.075	-0.283	-0.139	
22.080	0.296	-0.139	
22.085	-0.052	-0.101	
22.090	-0.349	-0.071	
22.095	0.119	-0.072	
22.100	0.238	-0.054	
22.105	-0.306	-0.021	
22.110	-0.071	-0.022	
22.115	0.440	-0.019	
22.120	-0.171	0.016	
22.125	-0.219	0.024	
22.130	0.405	0.015	
22.135	0.023	0.035	
22.140	-0.327	0.045	
22.145	0.166	0.020	
22.150	0.256	0.016	
22.155	-0.298	0.028	
22.160	-0.072	0.010	
22.165	0.446	-0.000	
22.170	-0.173	0.024	
22.175	-0.190	0.028	
22.180	0.498	0.022	
22.185	0.099	0.057	
22.190	-0.280	0.083	
22.195	0.229	0.069	
22.200	0.374	0.075	
22.205	-0.243	0.098	
22.210	-0.009	0.086	
22.215	0.553	0.077	
22.220	-0.132	0.103	
22.225	-0.223	0.100	
22.230	0.388	0.071	
22.235	0.047	0.072	
22.240	-0.286	0.068	
22.245	0.214	0.039	
22.250	0.368	0.041	
22.255	-0.242	0.067	
22.260	-0.035	0.061	
22.265	0.518	0.056	
22.270	-0.098	0.085	
22.275	-0.207	0.089	
22.280	0.365	0.067	
22.285	-0.003	0.069	
22.290	-0.321	0.058	
22.295	0.240	0.024	
22.300	0.406	0.028	
22.305	-0.243	0.063	
22.310	-0.042	0.062	
22.315	0.515	0.059	
22.320	-0.122	0.087	
22.325	-0.197	0.088	
22.330	0.475	0.070	
22.335	0.090	0.087	
22.340	-0.295	0.096	
22.345	0.204	0.069	
22.350	0.389	0.066	
22.355	-0.219	0.088	
22.360	-0.009	0.080	
22.365	0.533	0.075	
22.370	-0.144	0.100	
22.375	-0.223	0.096	
22.380	0.435	0.068	
22.385	0.068	0.075	
22.390	-0.315	0.077	
22.395	0.201	0.047	
22.400	0.435	0.047	
22.405	-0.217	0.078	
22.410	-0.019	0.078	
22.415	0.585	0.079	
22.420	-0.089	0.114	
22.425	-0.179	0.120	
22.430	0.534	0.106	
22.435	0.221	0.130	
22.440	-0.236	0.152	
22.445	0.282	0.137	
22.450	0.418	0.138	
22.455	-0.252	0.153	
22.460	-0.064	0.126	
22.465	0.512	0.095	
22.470	-0.141	0.100	
22.475	-0.263	0.082	
22.480	0.334	0.043	
22.485	0.027	0.036	
22.490	-0.335	0.028	
22.495	0.105	-0.006	
22.500	0.343	-0.011	
22.505	-0.272	0.012	
22.510	-0.093	0.008	
22.515	0.486	0.005	
22.520	-0.136	0.037	
22.525	-0.249	0.045	
22.530	0.400	0.029	
22.535	0.094	0.046	
22.540	-0.323	0.058	
22.545	0.101	0.032	
22.550	0.366	0.025	
22.555	-0.252	0.044	
22.560	-0.074	0.035	
22.565	0.573	0.032	
22.570	0.006	0.075	
22.575	-0.043	0.107	
22.580	0.881	0.140	
22.585	0.594	0.237	
22.590	-0.165	0.329	
22.595	0.018	0.326	
22.600	-0.045	0.257	
22.605	-0.555	0.146	
22.610	-0.434	-0.008	
22.615	-0.060	-0.151	
22.620	-0.349	-0.235	
22.625	-0.381	-0.286	
22.630	0.285	-0.296	
22.635	0.152	-0.230	
22.640	-0.255	-0.140	
22.645	0.208	-0.077	
22.650	0.467	-0.003	
22.655	-0.187	0.078	
22.660	0.012	0.109	
22.665	0.643	0.126	
22.670	-0.025	0.170	
22.675	-0.170	0.179	
22.680	0.533	0.159	
22.685	0.264	0.173	
22.690	-0.222	0.187	
22.695	0.313	0.165	
22.700	0.537	0.168	
22.705	-0.174	0.194	
22.710	-0.042	0.178	
22.715	0.562	0.151	
22.720	-0.052	0.158	
22.725	-0.196	0.144	
22.730	0.467	0.112	
22.735	0.215	0.119	
22.740	-0.236	0.131	
22.745	0.256	0.113	
22.750	0.528	0.121	
22.755	-0.156	0.155	
22.760	0.003	0.154	
22.765	0.681	0.149	
22.770	0.044	0.184	
22.775	-0.156	0.196	
22.780	0.542	0.178	
22.785	0.333	0.195	
22.790	-0.200	0.213	
22.795	0.334	0.195	
22.800	0.567	0.198	
22.805	-0.126	0.225	
22.810	0.046	0.213	
22.815	0.634	0.196	
22.820	-0.045	0.210	
22.825	-0.208	0.193	
22.830	0.481	0.150	
22.835	0.240	0.147	
22.840	-0.255	0.151	
22.845	0.125	0.119	
22.850	0.357	0.097	
22.855	-0.281	0.094	
22.860	-0.193	0.057	
22.865	0.308	0.012	
22.870	-0.202	-0.003	
22.875	-0.356	-0.030	
22.880	0.134	-0.074	
22.885	-0.074	-0.089	
22.890	-0.460	-0.102	
22.895	-0.126	-0.141	
22.900	0.036	-0.166	
22.905	-0.417	-0.169	
22.910	-0.271	-0.188	
22.915	0.246	-0.196	
22.920	-0.222	-0.164	
22.925	-0.391	-0.145	
22.930	0.085	-0.151	
22.935	-0.038	-0.138	
22.940	-0.379	-0.124	
22.945	-0.002	-0.130	
22.950	0.302	-0.113	
22.955	-0.275	-0.069	
22.960	-0.165	-0.054	
22.965	0.343	-0.048	
22.970	-0.170	-0.020	
22.975	-0.315	-0.017	
22.980	0.217	-0.040	
22.985	0.072	-0.034	
22.990	-0.330	-0.024	
22.995	0.042	-0.040	
23.000	0.360	-0.035	
23.005	-0.271	-0.003	
23.010	-0.165	-0.003	
23.015	0.466	-0.009	
23.020	-0.095	0.021	
23.025	-0.252	0.033	
23.030	0.362	0.022	
23.035	0.194	0.043	
23.040	-0.283	0.067	
23.045	0.143	0.056	
23.050	0.478	0.062	
23.055	-0.217	0.095	
23.060	-0.124	0.089	
23.065	0.478	0.071	
23.070	-0.069	0.084	
23.075	-0.254	0.079	
23.080	0.392	0.053	
23.085	0.178	0.064	
23.090	-0.303	0.077	
23.095	0.111	0.055	
23.100	0.505	0.054	
23.105	-0.176	0.087	
23.110	-0.115	0.089	
23.115	0.519	0.079	
23.120	-0.064	0.099	
23.125	-0.283	0.095	
23.130	0.340	0.063	
23.135	0.192	0.062	
23.140	-0.301	0.070	
23.145	0.081	0.046	
23.150	0.440	0.039	
23.155	-0.210	0.063	
23.160	-0.113	0.059	
23.165	0.487	0.049	
23.170	-0.060	0.071	
23.175	-0.237	0.075	
23.180	0.402	0.057	
23.185	0.211	0.074	
23.190	-0.297	0.092	
23.195	0.090	0.071	
23.200	0.479	0.064	
23.205	-0.200	0.088	
23.210	-0.126	0.081	
23.215	0.501	0.065	
23.220	-0.071	0.083	
23.225	-0.284	0.079	
23.230	0.284	0.047	
23.235	0.163	0.043	
23.240	-0.297	0.047	
23.245	0.088	0.025	
23.250	0.484	0.026	
23.255	-0.179	0.062	
23.260	-0.135	0.068	
23.265	0.472	0.060	
23.270	-0.066	0.079	
23.275	-0.260	0.077	
23.280	0.366	0.052	
23.285	0.279	0.065	
23.290	-0.258	0.090	
23.295	0.127	0.080	
23.300	0.473	0.083	
23.305	-0.207	0.108	
23.310	-0.159	0.096	
23.315	0.463	0.070	
23.320	-0.028	0.078	
23.325	-0.263	0.074	
23.330	0.316	0.048	
23.335	0.223	0.053	
23.340	-0.274	0.069	
23.345	0.093	0.053	
23.350	0.516	0.055	
23.355	-0.148	0.091	
23.360	-0.072	0.099	
23.365	0.608	0.099	
23.370	0.049	0.136	
23.375	-0.216	0.151	
23.380	0.414	0.132	
23.385	0.316	0.142	
23.390	-0.251	0.157	
23.395	0.131	0.133	
23.400	0.411	0.116	
23.405	-0.222	0.120	
23.410	-0.185	0.090	
23.415	0.409	0.050	
23.420	-0.110	0.045	
23.425	-0.324	0.028	
23.430	0.235	-0.009	
23.435	0.203	-0.010	
23.440	-0.310	0.007	
23.445	-0.023	-0.007	
23.450	0.374	-0.011	
23.455	-0.236	0.011	
23.460	-0.196	0.007	
23.465	0.421	-0.006	
23.470	-0.060	0.016	
23.475	-0.280	0.024	
23.480	0.263	0.008	
23.485	0.192	0.018	
23.490	-0.255	0.038	
23.495	0.215	0.036	
23.500	0.754	0.071	
23.505	0.076	0.159	
23.510	0.282	0.227	
23.515	0.999	0.294	
23.520	0.154	0.386	
23.525	-0.379	0.402	
23.530	-0.138	0.302	
23.535	-0.242	0.155	
23.540	-0.608	-0.002	
23.545	-0.306	-0.160	
23.550	0.065	-0.262	
23.555	-0.306	-0.286	
23.560	-0.211	-0.280	
23.565	0.466	-0.237	
23.570	-0.017	-0.140	
23.575	-0.263	-0.059	
23.580	0.366	-0.016	
23.585	0.347	0.046	
23.590	-0.213	0.107	
23.595	0.162	0.121	
23.600	0.605	0.138	
23.605	-0.115	0.179	
23.610	-0.081	0.180	
23.615	0.635	0.164	
23.620	0.166	0.188	
23.625	-0.193	0.201	
23.630	0.472	0.182	
23.635	0.406	0.192	
23.640	-0.228	0.211	
23.645	0.085	0.182	
23.650	0.507	0.156	
23.655	-0.177	0.156	
23.660	-0.144	0.128	
23.665	0.565	0.095	
23.670	0.104	0.112	
23.675	-0.208	0.125	
23.680	0.408	0.113	
23.685	0.434	0.134	
23.690	-0.191	0.170	
23.695	0.154	0.166	
23.700	0.612	0.167	
23.705	-0.110	0.195	
23.710	-0.078	0.187	
23.715	0.658	0.167	
23.720	0.198	0.192	
23.725	-0.144	0.212	
23.730	0.495	0.201	
23.735	0.487	0.220	
23.740	-0.199	0.247	
23.745	0.137	0.225	
23.750	0.577	0.203	
23.755	-0.138	0.208	
23.760	-0.139	0.180	
23.765	0.525	0.137	
23.770	0.038	0.135	
23.775	-0.274	0.124	
23.780	0.220	0.082	
23.785	0.180	0.063	
23.790	-0.344	0.052	
23.795	-0.089	0.010	
23.800	0.293	-0.023	
23.805	-0.286	-0.026	
23.810	-0.320	-0.050	
23.815	0.120	-0.089	
23.820	-0.188	-0.105	
23.825	-0.426	-0.124	
23.830	-0.019	-0.160	
23.835	-0.040	-0.171	
23.840	-0.443	-0.170	
23.845	-0.184	-0.189	
23.850	0.201	-0.192	
23.855	-0.318	-0.162	
23.860	-0.310	-0.152	
23.865	0.229	-0.152	
23.870	-0.133	-0.123	
23.875	-0.388	-0.106	
23.880	0.052	-0.117	
23.885	0.058	-0.112	
23.890	-0.371	-0.098	
23.895	-0.092	-0.109	
23.900	0.345	-0.104	
23.905	-0.223	-0.065	
23.910	-0.231	-0.049	
23.915	0.432	-0.044	
23.920	-0.011	-0.005	
23.925	-0.301	0.021	
23.930	0.183	0.009	
23.935	0.241	0.016	
23.940	-0.281	0.034	
23.945	-0.031	0.021	
23.950	0.440	0.015	
23.955	-0.170	0.040	
23.960	-0.177	0.042	
23.965	0.446	0.031	
23.970	-0.020	0.052	
23.975	-0.294	0.058	
23.980	0.263	0.034	
23.985	0.324	0.042	
23.990	-0.275	0.067	
23.995	-0.054	0.054	
24.000	0.463	0.042	
24.005	-0.129	0.062	
24.010	-0.132	0.064	
24.015	0.444	0.056	
24.020	-0.020	0.075	
24.025	-0.295	0.076	
24.030	0.269	0.047	
24.035	0.330	0.050	
24.040	-0.258	0.073	
24.045	0.026	0.064	
24.050	0.528	0.062	
24.055	-0.144	0.093	
24.060	-0.184	0.094	
24.065	0.482	0.076	
24.070	0.064	0.092	
24.075	-0.269	0.098	
24.080	0.292	0.075	
24.085	0.336	0.080	
24.090	-0.274	0.099	
24.095	-0.008	0.080	
24.100	0.495	0.066	
24.105	-0.162	0.084	
24.110	-0.185	0.077	
24.115	0.473	0.057	
24.120	0.061	0.074	
24.125	-0.292	0.083	
24.130	0.235	0.059	
24.135	0.325	0.059	
24.140	-0.265	0.077	
24.145	0.001	0.062	
24.150	0.516	0.055	
24.155	-0.150	0.082	
24.160	-0.181	0.082	
24.165	0.461	0.065	
24.170	0.093	0.083	
24.175	-0.284	0.093	
24.180	0.214	0.069	
24.185	0.388	0.069	
24.190	-0.260	0.090	
24.195	-0.032	0.076	
24.200	0.479	0.062	
24.205	-0.142	0.080	
24.210	-0.185	0.075	
24.215	0.475	0.056	
24.220	0.081	0.076	
24.225	-0.271	0.089	
24.230	0.276	0.070	
24.235	0.379	0.078	
24.240	-0.245	0.104	
24.245	-0.011	0.092	
24.250	0.502	0.080	
24.255	-0.127	0.099	
24.260	-0.196	0.093	
24.265	0.479	0.071	
24.270	0.116	0.087	
24.275	-0.251	0.101	
24.280	0.319	0.086	
24.285	0.420	0.100	
24.290	-0.246	0.130	
24.295	-0.009	0.117	
24.300	0.542	0.102	
24.305	-0.127	0.120	
24.310	-0.214	0.110	
24.315	0.415	0.078	
24.320	0.027	0.078	
24.325	-0.306	0.071	
24.330	0.189	0.036	
24.335	0.255	0.027	
24.340	-0.315	0.036	
24.345	-0.090	0.012	
24.350	0.444	-0.004	
24.355	-0.162	0.018	
24.360	-0.266	0.019	
24.365	0.305	-0.002	
24.370	-0.029	0.002	
24.375	-0.307	0.001	
24.380	0.226	-0.019	
24.385	0.348	-0.002	
24.390	-0.255	0.037	
24.395	0.035	0.043	
24.400	0.730	0.064	
24.405	0.137	0.137	
24.410	0.101	0.199	
24.415	0.898	0.250	
24.420	0.337	0.332	
24.425	-0.338	0.368	
24.430	-0.119	0.296	
24.435	-0.141	0.174	
24.440	-0.592	0.035	
24.445	-0.385	-0.118	
24.450	-0.017	-0.235	
24.455	-0.344	-0.285	
24.460	-0.313	-0.304	
24.465	0.336	-0.286	
24.470	0.029	-0.207	
24.475	-0.274	-0.124	
24.480	0.327	-0.069	
24.485	0.481	0.010	
24.490	-0.187	0.098	
24.495	0.105	0.133	
24.500	0.716	0.160	
24.505	0.018	0.215	
24.510	-0.110	0.232	
24.515	0.563	0.215	
24.520	0.220	0.223	
24.525	-0.229	0.222	
24.530	0.330	0.185	
24.535	0.508	0.175	
24.540	-0.182	0.192	
24.545	0.012	0.172	
24.550	0.592	0.151	
24.555	-0.075	0.164	
24.560	-0.148	0.154	
24.565	0.554	0.129	
24.570	0.211	0.147	
24.575	-0.228	0.163	
24.580	0.313	0.144	
24.585	0.455	0.147	
24.590	-0.188	0.170	
24.595	0.038	0.155	
24.600	0.686	0.145	
24.605	-0.054	0.176	
24.610	-0.152	0.179	
24.615	0.560	0.156	
24.620	0.249	0.173	
24.625	-0.199	0.188	
24.630	0.362	0.171	
24.635	0.579	0.182	
24.640	-0.155	0.217	
24.645	0.052	0.209	
24.650	0.676	0.195	
24.655	-0.032	0.216	
24.660	-0.158	0.207	
24.665	0.473	0.170	
24.670	0.097	0.162	
24.675	-0.313	0.144	
24.680	0.093	0.089	
24.685	0.299	0.053	
24.690	-0.309	0.043	
24.695	-0.170	0.008	
24.700	0.278	-0.028	
24.705	-0.243	-0.034	
24.710	-0.385	-0.058	
24.715	0.062	-0.103	
24.720	-0.127	-0.124	
24.725	-0.453	-0.141	
24.730	-0.058	-0.174	
24.735	0.128	-0.178	
24.740	-0.388	-0.156	
24.745	-0.249	-0.158	
24.750	0.215	-0.161	
24.755	-0.248	-0.135	
24.760	-0.370	-0.128	
24.765	0.122	-0.141	
24.770	-0.052	-0.129	
24.775	-0.391	-0.117	
24.780	-0.002	-0.128	
24.785	0.230	-0.117	
24.790	-0.332	-0.085	
24.795	-0.188	-0.082	
24.800	0.333	-0.082	
24.805	-0.179	-0.054	
24.810	-0.280	-0.044	
24.815	0.293	-0.051	
24.820	0.038	-0.030	
24.825	-0.332	-0.012	
24.830	0.081	-0.026	
24.835	0.374	-0.019	
24.840	-0.255	0.015	
24.845	-0.126	0.016	
24.850	0.426	0.010	
24.855	-0.118	0.034	
24.860	-0.219	0.038	
24.865	0.409	0.026	
24.870	0.154	0.050	
24.875	-0.291	0.072	
24.880	0.117	0.056	
24.885	0.386	0.053	
24.890	-0.236	0.071	
24.895	-0.090	0.059	
24.900	0.518	0.047	
24.905	-0.089	0.072	
24.910	-0.223	0.076	
24.915	0.429	0.059	
24.920	0.178	0.078	
24.925	-0.268	0.096	
24.930	0.188	0.080	
24.935	0.383	0.080	
24.940	-0.251	0.097	
24.945	-0.098	0.078	
24.950	0.492	0.056	
24.955	-0.112	0.071	
24.960	-0.242	0.066	
24.965	0.351	0.040	
24.970	0.171	0.049	
24.975	-0.266	0.064	
24.980	0.142	0.050	
24.985	0.392	0.052	
24.990	-0.232	0.076	
24.995	-0.084	0.066	
25.000	0.527	0.055	
25.005	-0.069	0.081	
25.010	-0.231	0.086	
25.015	0.398	0.067	
25.020	0.165	0.078	
25.025	-0.269	0.091	
25.030	0.185	0.072	
25.035	0.467	0.075	
25.040	-0.216	0.105	
25.045	-0.103	0.097	
25.050	0.435	0.076	
25.055	-0.097	0.082	
25.060	-0.245	0.070	
25.065	0.336	0.040	
25.070	0.168	0.045	
25.075	-0.294	0.057	
25.080	0.152	0.040	
25.085	0.479	0.047	
25.090	-0.194	0.084	
25.095	-0.063	0.088	
25.100	0.603	0.087	
25.105	-0.002	0.123	
25.110	-0.187	0.137	
25.115	0.443	0.122	
25.120	0.236	0.135	
25.125	-0.262	0.147	
25.130	0.160	0.120	
25.135	0.426	0.107	
25.140	-0.229	0.117	
25.145	-0.153	0.091	
25.150	0.411	0.056	
25.155	-0.100	0.055	
25.160	-0.254	0.042	
25.165	0.363	0.017	
25.170	0.148	0.030	
25.175	-0.327	0.046	
25.180	0.050	0.025	
25.185	0.382	0.017	
25.190	-0.239	0.036	
25.195	-0.119	0.029	
25.200	0.499	0.021	
25.205	-0.098	0.050	
25.210	-0.286	0.055	
25.215	0.281	0.030	
25.220	0.140	0.031	
25.225	-0.268	0.039	
25.230	0.259	0.030	
25.235	0.735	0.065	
25.240	-0.003	0.150	
25.245	0.174	0.206	
25.250	0.761	0.246	
25.255	-0.106	0.294	
25.260	-0.430	0.269	
25.265	-0.097	0.158	
25.270	-0.252	0.034	
25.275	-0.621	-0.090	
25.280	-0.280	-0.216	
25.285	0.072	-0.289	
25.290	-0.287	-0.291	
25.295	-0.135	-0.268	
25.300	0.559	-0.207	
25.305	-0.005	-0.094	
25.310	-0.210	-0.005	
25.315	0.434	0.040	
25.320	0.313	0.099	
25.325	-0.229	0.149	
25.330	0.206	0.148	
25.335	0.602	0.157	
25.340	-0.107	0.192	
25.345	-0.005	0.192	
25.350	0.670	0.182	
25.355	0.044	0.207	
25.360	-0.213	0.206	
25.365	0.426	0.170	
25.370	0.354	0.167	
25.375	-0.223	0.176	
25.380	0.191	0.153	
25.385	0.570	0.147	
25.390	-0.138	0.172	
25.395	-0.042	0.164	
25.400	0.625	0.148	
25.405	0.027	0.170	
25.410	-0.197	0.172	
25.415	0.475	0.146	
25.420	0.345	0.157	
25.425	-0.222	0.177	
25.430	0.212	0.159	
25.435	0.625	0.159	
25.440	-0.101	0.193	
25.445	-0.055	0.191	
25.450	0.626	0.173	
25.455	0.061	0.191	
25.460	-0.177	0.191	
25.465	0.487	0.164	
25.470	0.363	0.175	
25.475	-0.213	0.193	
25.480	0.230	0.175	
25.485	0.647	0.175	
25.490	-0.109	0.208	
25.495	-0.064	0.203	
25.500	0.544	0.177	
25.505	-0.057	0.176	
25.510	-0.306	0.149	
25.515	0.209	0.087	
25.520	0.079	0.049	
25.525	-0.401	0.020	
25.530	-0.129	-0.037	
25.535	0.163	-0.081	
25.540	-0.355	-0.095	
25.545	-0.284	-0.123	
25.550	0.186	-0.148	
25.555	-0.232	-0.139	
25.560	-0.411	-0.141	
25.565	0.036	-0.163	
25.570	-0.055	-0.162	
25.575	-0.439	-0.155	
25.580	-0.153	-0.173	
25.585	0.166	-0.177	
25.590	-0.303	-0.152	
25.595	-0.255	-0.143	
25.600	0.278	-0.138	
25.605	-0.153	-0.103	
25.610	-0.367	-0.085	
25.615	0.136	-0.095	
25.620	0.097	-0.082	
25.625	-0.350	-0.062	
25.630	-0.058	-0.071	
25.635	0.336	-0.068	
25.640	-0.242	-0.037	
25.645	-0.208	-0.032	
25.650	0.397	-0.035	
25.655	-0.064	-0.006	
25.660	-0.298	0.008	
25.665	0.275	-0.005	
25.670	0.221	0.012	
25.675	-0.301	0.037	
25.680	0.015	0.026	
25.685	0.391	0.021	
25.690	-0.240	0.040	
25.695	-0.171	0.030	
25.700	0.469	0.015	
25.705	-0.028	0.038	
25.710	-0.271	0.049	
25.715	0.313	0.034	
25.720	0.264	0.049	
25.725	-0.265	0.073	
25.730	0.041	0.062	
25.735	0.490	0.059	
25.740	-0.164	0.086	
25.745	-0.119	0.086	
25.750	0.553	0.076	
25.755	0.013	0.104	
25.760	-0.275	0.112	
25.765	0.298	0.085	
25.770	0.246	0.082	
25.775	-0.283	0.088	
25.780	-0.002	0.060	
25.785	0.437	0.043	
25.790	-0.179	0.058	
25.795	-0.167	0.051	
25.800	0.472	0.036	
25.805	-0.019	0.057	
25.810	-0.287	0.064	
25.815	0.288	0.041	
25.820	0.301	0.050	
25.825	-0.265	0.074	
25.830	0.038	0.063	
25.835	0.472	0.059	
25.840	-0.167	0.084	
25.845	-0.152	0.080	
25.850	0.518	0.066	
25.855	0.010	0.088	
25.860	-0.280	0.094	
25.865	0.252	0.066	
25.870	0.253	0.062	
25.875	-0.271	0.071	
25.880	0.023	0.050	
25.885	0.522	0.045	
25.890	-0.155	0.075	
25.895	-0.145	0.080	
25.900	0.504	0.070	
25.905	0.087	0.096	
25.910	-0.229	0.112	
25.915	0.365	0.099	
25.920	0.351	0.113	
25.925	-0.231	0.138	
25.930	0.076	0.123	
25.935	0.513	0.113	
25.940	-0.156	0.131	
25.945	-0.156	0.118	
25.950	0.466	0.089	
25.955	-0.019	0.094	
25.960	-0.274	0.086	
25.965	0.255	0.052	
25.970	0.232	0.047	
25.975	-0.289	0.056	
25.980	-0.020	0.033	
25.985	0.437	0.021	
25.990	-0.199	0.041	
25.995	-0.197	0.036	
26.000	0.406	0.018	
26.005	-0.045	0.033	
26.010	-0.320	0.033	
26.015	0.238	0.007	
26.020	0.238	0.011	
26.025	-0.327	0.029	
26.030	-0.052	0.011	
26.035	0.427	-0.001	
26.040	-0.184	0.023	
26.045	-0.144	0.026	
26.050	0.632	0.030	
26.055	0.296	0.092	
26.060	-0.055	0.160	
26.065	0.719	0.205	
26.070	0.658	0.284	
26.075	-0.243	0.353	
26.080	-0.188	0.321	
26.085	-0.046	0.215	
26.090	-0.500	0.088	
26.095	-0.506	-0.063	
26.100	-0.058	-0.198	
26.105	-0.190	-0.265	
26.110	-0.356	-0.286	
26.115	0.232	-0.274	
26.120	0.301	-0.199	
26.125	-0.251	-0.099	
26.130	0.053	-0.038	
26.135	0.563	0.018	
26.140	-0.119	0.092	
26.145	-0.132	0.120	
26.150	0.592	0.121	
26.155	0.148	0.155	
26.160	-0.197	0.175	
26.165	0.432	0.161	
26.170	0.470	0.177	
26.175	-0.187	0.207	
26.180	0.151	0.195	
26.185	0.655	0.188	
26.190	-0.081	0.214	
26.195	-0.119	0.205	
26.200	0.527	0.172	
26.205	0.094	0.171	
26.210	-0.229	0.162	
26.215	0.377	0.128	
26.220	0.424	0.131	
26.225	-0.231	0.155	
26.230	0.067	0.139	
26.235	0.617	0.130	
26.240	-0.101	0.156	
26.245	-0.124	0.154	
26.250	0.594	0.136	
26.255	0.120	0.156	
26.260	-0.237	0.165	
26.265	0.369	0.140	
26.270	0.487	0.147	
26.275	-0.182	0.177	
26.280	0.146	0.172	
26.285	0.687	0.174	
26.290	-0.058	0.211	
26.295	-0.095	0.212	
26.300	0.644	0.191	
26.305	0.194	0.210	
26.310	-0.208	0.219	
26.315	0.334	0.188	
26.320	0.374	0.176	
26.325	-0.249	0.177	
26.330	-0.051	0.136	
26.335	0.366	0.092	
26.340	-0.245	0.073	
26.345	-0.306	0.031	
26.350	0.131	-0.029	
26.355	-0.174	-0.063	
26.360	-0.446	-0.099	
26.365	-0.051	-0.150	
26.370	0.007	-0.172	
26.375	-0.417	-0.172	
26.380	-0.190	-0.187	
26.385	0.211	-0.187	
26.390	-0.280	-0.155	
26.395	-0.315	-0.141	
26.400	0.197	-0.141	
26.405	-0.129	-0.117	
26.410	-0.391	-0.105	
26.415	0.062	-0.119	
26.420	0.148	-0.109	
26.425	-0.341	-0.083	
26.430	-0.124	-0.086	
26.435	0.302	-0.084	
26.440	-0.251	-0.057	
26.445	-0.286	-0.056	
26.450	0.282	-0.070	
26.455	-0.061	-0.054	
26.460	-0.364	-0.045	
26.465	0.110	-0.064	
26.470	0.212	-0.059	
26.475	-0.312	-0.035	
26.480	-0.069	-0.039	
26.485	0.438	-0.034	
26.490	-0.165	0.004	
26.495	-0.219	0.017	
26.500	0.423	0.012	
26.505	0.082	0.040	
26.510	-0.268	0.061	
26.515	0.250	0.051	
26.520	0.347	0.063	
26.525	-0.262	0.089	
26.530	-0.058	0.074	
26.535	0.467	0.058	
26.540	-0.161	0.072	
26.545	-0.214	0.062	
26.550	0.408	0.038	
26.555	0.035	0.048	
26.560	-0.310	0.052	
26.565	0.215	0.027	
26.570	0.369	0.033	
26.575	-0.243	0.062	
26.580	-0.019	0.059	
26.585	0.524	0.058	
26.590	-0.124	0.088	
26.595	-0.188	0.091	
26.600	0.437	0.073	
26.605	0.062	0.085	
26.610	-0.298	0.087	
26.615	0.204	0.057	
26.620	0.343	0.053	
26.625	-0.268	0.070	
26.630	-0.045	0.054	
26.635	0.481	0.042	
26.640	-0.122	0.065	
26.645	-0.225	0.065	
26.650	0.380	0.044	
26.655	0.070	0.054	
26.660	-0.303	0.058	
26.665	0.194	0.034	
26.670	0.363	0.037	
26.675	-0.246	0.062	
26.680	-0.038	0.056	
26.685	0.534	0.052	
26.690	-0.121	0.082	
26.695	-0.202	0.086	
26.700	0.460	0.069	
26.705	0.119	0.087	
26.710	-0.283	0.098	
26.715	0.192	0.074	
26.720	0.356	0.070	
26.725	-0.260	0.084	
26.730	-0.078	0.065	
26.735	0.518	0.048	
26.740	-0.107	0.070	
26.745	-0.184	0.073	
26.750	0.499	0.063	
26.755	0.159	0.091	
26.760	-0.252	0.114	
26.765	0.279	0.101	
26.770	0.464	0.112	
26.775	-0.184	0.144	
26.780	0.015	0.138	
26.785	0.582	0.129	
26.790	-0.112	0.151	
26.795	-0.228	0.139	
26.800	0.447	0.102	
26.805	0.107	0.101	
26.810	-0.280	0.099	
26.815	0.198	0.068	
26.820	0.345	0.062	
26.825	-0.274	0.076	
26.830	-0.101	0.054	
26.835	0.444	0.032	
26.840	-0.142	0.045	
26.845	-0.232	0.040	
26.850	0.350	0.018	
26.855	0.020	0.026	
26.860	-0.341	0.028	
26.865	0.124	-0.001	
26.870	0.331	-0.005	
26.875	-0.255	0.019	
26.880	-0.074	0.016	
26.885	0.484	0.015	
26.890	-0.147	0.046	
26.895	-0.234	0.051	
26.900	0.481	0.038	
26.905	0.285	0.071	
26.910	-0.122	0.117	
26.915	0.643	0.150	
26.920	0.834	0.230	
26.925	-0.110	0.329	
26.930	-0.145	0.338	
26.935	0.032	0.263	
26.940	-0.436	0.154	
26.945	-0.544	0.008	
26.950	-0.100	-0.140	
26.955	-0.165	-0.229	
26.960	-0.394	-0.269	
26.965	0.085	-0.279	
26.970	0.365	-0.226	
26.975	-0.214	-0.130	
26.980	-0.020	-0.063	
26.985	0.583	-0.003	
26.990	-0.055	0.077	
26.995	-0.181	0.116	
27.000	0.521	0.118	
27.005	0.235	0.148	
27.010	-0.214	0.171	
27.015	0.314	0.157	
27.020	0.519	0.164	
27.025	-0.158	0.192	
27.030	0.033	0.182	
27.035	0.637	0.168	
27.040	-0.035	0.189	
27.045	-0.168	0.183	
27.050	0.515	0.153	
27.055	0.246	0.161	
27.060	-0.222	0.171	
27.065	0.281	0.149	
27.070	0.505	0.149	
27.075	-0.158	0.174	
27.080	0.020	0.164	
27.085	0.582	0.150	
27.090	-0.075	0.167	
27.095	-0.193	0.155	
27.100	0.478	0.122	
27.105	0.221	0.128	
27.110	-0.231	0.139	
27.115	0.279	0.121	
27.120	0.545	0.130	
27.125	-0.133	0.167	
27.130	0.068	0.171	
27.135	0.702	0.174	
27.140	0.067	0.214	
27.145	-0.115	0.228	
27.150	0.570	0.211	
27.155	0.285	0.225	
27.160	-0.223	0.232	
27.165	0.255	0.197	
27.170	0.389	0.175	
27.175	-0.274	0.167	
27.180	-0.139	0.118	
27.185	0.429	0.067	
27.190	-0.155	0.055	
27.195	-0.310	0.031	
27.200	0.221	-0.013	
27.205	-0.011	-0.026	
27.210	-0.408	-0.038	
27.215	-0.086	-0.078	
27.220	0.082	-0.107	
27.225	-0.375	-0.115	
27.230	-0.231	-0.139	
27.235	0.230	-0.153	
27.240	-0.243	-0.133	
27.245	-0.399	-0.128	
27.250	0.035	-0.149	
27.255	-0.097	-0.151	
27.260	-0.402	-0.150	
27.265	-0.037	-0.165	
27.270	0.156	-0.157	
27.275	-0.361	-0.128	
27.280	-0.217	-0.126	
27.285	0.328	-0.124	
27.290	-0.168	-0.087	
27.295	-0.318	-0.068	
27.300	0.230	-0.073	
27.305	0.056	-0.052	
27.310	-0.344	-0.033	
27.315	0.064	-0.043	
27.320	0.365	-0.034	
27.325	-0.246	0.003	
27.330	-0.106	0.009	
27.335	0.481	0.012	
27.340	-0.095	0.046	
27.345	-0.249	0.056	
27.350	0.348	0.040	
27.355	0.117	0.050	
27.360	-0.295	0.059	
27.365	0.068	0.034	
27.370	0.295	0.022	
27.375	-0.269	0.030	
27.380	-0.118	0.011	
27.385	0.486	-0.001	
27.390	-0.068	0.030	
27.395	-0.223	0.045	
27.400	0.408	0.039	
27.405	0.195	0.066	
27.410	-0.278	0.090	
27.415	0.136	0.076	
27.420	0.443	0.074	
27.425	-0.214	0.097	
27.430	-0.118	0.086	
27.435	0.461	0.065	
27.440	-0.063	0.077	
27.445	-0.223	0.074	
27.450	0.423	0.055	
27.455	0.223	0.074	
27.460	-0.303	0.096	
27.465	0.104	0.076	
27.470	0.408	0.067	
27.475	-0.243	0.081	
27.480	-0.141	0.063	
27.485	0.441	0.039	
27.490	-0.090	0.050	
27.495	-0.242	0.047	
27.500	0.400	0.029	
27.505	0.215	0.050	
27.510	-0.274	0.077	
27.515	0.151	0.068	
27.520	0.466	0.074	
27.525	-0.196	0.104	
27.530	-0.092	0.098	
27.535	0.470	0.082	
27.540	-0.100	0.093	
27.545	-0.254	0.082	
27.550	0.354	0.050	
27.555	0.171	0.054	
27.560	-0.297	0.064	
27.565	0.078	0.042	
27.570	0.383	0.034	
27.575	-0.232	0.052	
27.580	-0.116	0.042	
27.585	0.484	0.031	
27.590	-0.057	0.056	
27.595	-0.243	0.064	
27.600	0.319	0.046	
27.605	0.139	0.053	
27.610	-0.291	0.061	
27.615	0.125	0.039	
27.620	0.444	0.040	
27.625	-0.214	0.069	
27.630	-0.113	0.067	
27.635	0.496	0.056	
27.640	-0.068	0.077	
27.645	-0.240	0.079	
27.650	0.340	0.056	
27.655	0.137	0.061	
27.660	-0.317	0.066	
27.665	0.081	0.037	
27.670	0.481	0.031	
27.675	-0.199	0.061	
27.680	-0.135	0.062	
27.685	0.502	0.053	
27.690	-0.037	0.077	
27.695	-0.231	0.084	
27.700	0.350	0.065	
27.705	0.183	0.073	
27.710	-0.265	0.085	
27.715	0.188	0.068	
27.720	0.548	0.077	
27.725	-0.142	0.120	
27.730	-0.063	0.128	
27.735	0.580	0.123	
27.740	-0.020	0.148	
27.745	-0.240	0.146	
27.750	0.348	0.111	
27.755	0.174	0.103	
27.760	-0.318	0.097	
27.765	0.017	0.056	
27.770	0.311	0.026	
27.775	-0.254	0.025	
27.780	-0.185	0.002	
27.785	0.386	-0.021	
27.790	-0.107	-0.006	
27.795	-0.295	-0.003	
27.800	0.215	-0.023	
27.805	0.108	-0.018	
27.810	-0.312	-0.006	
27.815	0.012	-0.023	
27.820	0.385	-0.022	
27.825	-0.219	0.008	
27.830	-0.139	0.013	
27.835	0.490	0.012	
27.840	-0.037	0.047	
27.845	-0.194	0.065	
27.850	0.560	0.069	
27.855	0.505	0.124	
27.860	-0.071	0.197	
27.865	0.499	0.237	
27.870	0.715	0.288	
27.875	-0.269	0.337	
27.880	-0.349	0.291	
27.885	-0.101	0.165	
27.890	-0.462	0.026	
27.895	-0.593	-0.122	
27.900	-0.086	-0.252	
27.905	-0.002	-0.305	
27.910	-0.320	-0.293	
27.915	0.085	-0.259	
27.920	0.530	-0.177	
27.925	-0.133	-0.057	
27.930	-0.063	0.021	
27.935	0.600	0.072	
27.940	0.053	0.138	
27.945	-0.171	0.170	
27.950	0.441	0.161	
27.955	0.311	0.175	
27.960	-0.239	0.187	
27.965	0.171	0.159	
27.970	0.573	0.147	
27.975	-0.135	0.168	
27.980	-0.071	0.159	
27.985	0.582	0.139	
27.990	0.038	0.155	
27.995	-0.220	0.155	
28.000	0.418	0.127	
28.005	0.369	0.135	
28.010	-0.208	0.158	
28.015	0.201	0.147	
28.020	0.623	0.153	
28.025	-0.109	0.189	
28.030	-0.052	0.188	
28.035	0.644	0.173	
28.040	0.068	0.194	
28.045	-0.223	0.194	
28.050	0.438	0.161	
28.055	0.356	0.162	
28.060	-0.213	0.175	
28.065	0.197	0.156	
28.070	0.614	0.154	
28.075	-0.083	0.186	
28.080	-0.034	0.187	
28.085	0.669	0.177	
28.090	0.140	0.206	
28.095	-0.161	0.218	
28.100	0.481	0.198	
28.105	0.337	0.204	
28.110	-0.234	0.212	
28.115	0.136	0.177	
28.120	0.515	0.152	
28.125	-0.194	0.157	
28.130	-0.179	0.128	
28.135	0.403	0.083	
28.140	-0.092	0.070	
28.145	-0.332	0.046	
28.150	0.146	-0.003	
28.155	0.030	-0.026	
28.160	-0.410	-0.043	
28.165	-0.170	-0.087	
28.170	0.131	-0.121	
28.175	-0.339	-0.127	
28.180	-0.307	-0.146	
28.185	0.163	-0.165	
28.190	-0.213	-0.153	
28.195	-0.454	-0.151	
28.200	-0.016	-0.175	
28.205	-0.002	-0.177	
28.210	-0.404	-0.165	
28.215	-0.133	-0.172	
28.220	0.270	-0.162	
28.225	-0.258	-0.120	
28.230	-0.239	-0.100	
28.235	0.304	-0.092	
28.240	-0.119	-0.059	
28.245	-0.332	-0.044	
28.250	0.186	-0.057	
28.255	0.168	-0.042	
28.260	-0.320	-0.018	
28.265	-0.048	-0.027	
28.270	0.368	-0.029	
28.275	-0.226	-0.003	
28.280	-0.197	-0.003	
28.285	0.405	-0.012	
28.290	-0.032	0.012	
28.295	-0.274	0.025	
28.300	0.246	0.011	
28.305	0.191	0.021	
28.310	-0.297	0.037	
28.315	0.001	0.020	
28.320	0.418	0.013	
28.325	-0.190	0.038	
28.330	-0.144	0.038	
28.335	0.515	0.033	
28.340	0.036	0.067	
28.345	-0.242	0.087	
28.350	0.321	0.075	
28.355	0.284	0.087	
28.360	-0.252	0.106	
28.365	0.027	0.087	
28.370	0.466	0.074	
28.375	-0.190	0.089	
28.380	-0.168	0.077	
28.385	0.486	0.054	
28.390	0.015	0.071	
28.395	-0.266	0.078	
28.400	0.282	0.056	
28.405	0.278	0.061	
28.410	-0.252	0.080	
28.415	-0.003	0.063	
28.420	0.443	0.052	
28.425	-0.181	0.069	
28.430	-0.155	0.062	
28.435	0.482	0.046	
28.440	0.017	0.068	
28.445	-0.265	0.078	
28.450	0.304	0.059	
28.455	0.325	0.069	
28.460	-0.249	0.094	
28.465	0.053	0.084	
28.470	0.476	0.078	
28.475	-0.181	0.099	
28.480	-0.161	0.089	
28.485	0.481	0.067	
28.490	-0.003	0.080	
28.495	-0.266	0.082	
28.500	0.316	0.057	
28.505	0.302	0.065	
28.510	-0.277	0.087	
28.515	-0.006	0.070	
28.520	0.481	0.057	
28.525	-0.144	0.078	
28.530	-0.158	0.075	
28.535	0.431	0.059	
28.540	0.018	0.073	
28.545	-0.274	0.076	
28.550	0.275	0.051	
28.555	0.313	0.057	
28.560	-0.262	0.079	
28.565	0.033	0.067	
28.570	0.473	0.061	
28.575	-0.177	0.084	
28.580	-0.196	0.077	
28.585	0.458	0.054	
28.590	0.006	0.066	
28.595	-0.284	0.068	
28.600	0.227	0.041	
28.605	0.221	0.039	
28.610	-0.278	0.048	
28.615	0.059	0.031	
28.620	0.560	0.036	
28.625	-0.109	0.081	
28.630	-0.119	0.098	
28.635	0.544	0.098	
28.640	0.055	0.127	
28.645	-0.262	0.136	
28.650	0.276	0.106	
28.655	0.376	0.103	
28.660	-0.254	0.118	
28.665	0.006	0.098	
28.670	0.501	0.082	
28.675	-0.159	0.098	
28.680	-0.174	0.088	
28.685	0.476	0.066	
28.690	0.024	0.079	
28.695	-0.266	0.084	
28.700	0.226	0.057	
28.705	0.267	0.054	
28.710	-0.263	0.066	
28.715	-0.022	0.047	
28.720	0.472	0.036	
28.725	-0.164	0.059	
28.730	-0.214	0.056	
28.735	0.377	0.035	
28.740	-0.040	0.041	
28.745	-0.336	0.034	
28.750	0.146	-0.001	
28.755	0.218	-0.010	
28.760	-0.303	-0.000	
28.765	-0.060	-0.016	
28.770	0.423	-0.020	
28.775	-0.185	0.009	
28.780	-0.223	0.014	
28.785	0.394	0.003	
28.790	0.026	0.024	
28.795	-0.220	0.040	
28.800	0.478	0.044	
28.805	0.666	0.102	
28.810	-0.020	0.195	
28.815	0.331	0.248	
28.820	0.560	0.284	
28.825	-0.266	0.304	
28.830	-0.428	0.240	
28.835	-0.101	0.107	
28.840	-0.320	-0.022	
28.845	-0.549	-0.140	
28.850	-0.103	-0.243	
28.855	0.127	-0.278	
28.860	-0.287	-0.250	
28.865	0.003	-0.210	
28.870	0.567	-0.139	
28.875	-0.100	-0.031	
28.880	-0.130	0.039	
28.885	0.574	0.076	
28.890	0.136	0.134	
28.895	-0.225	0.166	
28.900	0.310	0.151	
28.905	0.369	0.151	
28.910	-0.231	0.161	
28.915	0.079	0.135	
28.920	0.663	0.125	
28.925	-0.069	0.159	
28.930	-0.110	0.165	
28.935	0.618	0.153	
28.940	0.247	0.182	
28.945	-0.200	0.205	
28.950	0.398	0.190	
28.955	0.487	0.197	
28.960	-0.190	0.219	
28.965	0.036	0.196	
28.970	0.559	0.169	
28.975	-0.095	0.173	
28.980	-0.147	0.154	
28.985	0.512	0.121	
28.990	0.116	0.129	
28.995	-0.246	0.132	
29.000	0.316	0.106	
29.005	0.415	0.111	
29.010	-0.229	0.135	
29.015	0.038	0.122	
29.020	0.640	0.115	
29.025	-0.042	0.150	
29.030	-0.101	0.160	
29.035	0.637	0.154	
29.040	0.258	0.188	
29.045	-0.184	0.215	
29.050	0.402	0.202	
29.055	0.501	0.210	
29.060	-0.174	0.232	
29.065	0.013	0.208	
29.070	0.447	0.171	
29.075	-0.197	0.154	
29.080	-0.257	0.108	
29.085	0.273	0.045	
29.090	-0.110	0.014	
29.095	-0.414	-0.020	
29.100	-0.019	-0.078	
29.105	0.096	-0.108	
29.110	-0.371	-0.112	
29.115	-0.197	-0.132	
29.120	0.165	-0.146	
29.125	-0.289	-0.133	
29.130	-0.352	-0.137	
29.135	0.125	-0.154	
29.140	-0.144	-0.145	
29.145	-0.417	-0.141	
29.150	-0.064	-0.161	
29.155	0.036	-0.164	
29.160	-0.382	-0.153	
29.165	-0.194	-0.162	
29.170	0.256	-0.160	
29.175	-0.231	-0.126	
29.180	-0.280	-0.108	
29.185	0.258	-0.104	
29.190	-0.060	-0.075	
29.195	-0.358	-0.056	
29.200	0.091	-0.069	
29.205	0.275	-0.058	
29.210	-0.268	-0.024	
29.215	-0.058	-0.018	
29.220	0.508	-0.006	
29.225	-0.141	0.039	
29.230	-0.237	0.053	
29.235	0.366	0.039	
29.240	0.020	0.049	
29.245	-0.307	0.049	
29.250	0.166	0.020	
29.255	0.290	0.017	
29.260	-0.254	0.035	
29.265	-0.046	0.025	
29.270	0.481	0.022	
29.275	-0.121	0.053	
29.280	-0.203	0.060	
29.285	0.438	0.048	
29.290	0.101	0.069	
29.295	-0.262	0.084	
29.300	0.209	0.066	
29.305	0.337	0.068	
29.310	-0.234	0.086	
29.315	-0.011	0.073	
29.320	0.567	0.067	
29.325	-0.101	0.099	
29.330	-0.220	0.103	
29.335	0.391	0.079	
29.340	0.061	0.081	
29.345	-0.298	0.077	
29.350	0.166	0.044	
29.355	0.333	0.037	
29.360	-0.245	0.053	
29.365	-0.038	0.043	
29.370	0.504	0.038	
29.375	-0.116	0.068	
29.380	-0.202	0.073	
29.385	0.444	0.059	
29.390	0.130	0.079	
29.395	-0.274	0.094	
29.400	0.197	0.074	
29.405	0.362	0.072	
29.410	-0.243	0.090	
29.415	-0.055	0.073	
