Vernier Format 2
ecg1.txt 10/20/2025 8:19:38
Run 1
Time	Potential	EKG	
T	P	E	
s	mV	mV	

0.000	-0.061	-0.003	
0.005	-0.024	-0.010	
0.010	-0.134	-0.024	
0.015	-0.142	-0.046	
0.020	-0.072	-0.071	
0.025	-0.140	-0.090	
0.030	-0.188	-0.107	
0.035	-0.107	-0.125	
0.040	-0.116	-0.134	
0.045	-0.197	-0.139	
0.050	-0.148	-0.146	
0.055	-0.095	-0.149	
0.060	-0.169	-0.147	
0.065	-0.148	-0.145	
0.070	-0.050	-0.142	
0.075	-0.107	-0.130	
0.080	-0.140	-0.119	
0.085	-0.047	-0.112	
0.090	-0.043	-0.100	
0.095	-0.130	-0.088	
0.100	-0.067	-0.083	
0.105	-0.002	-0.077	
0.110	-0.099	-0.068	
0.115	-0.089	-0.064	
0.120	0.017	-0.063	
0.125	-0.056	-0.055	
0.130	-0.105	-0.051	
0.135	-0.003	-0.052	
0.140	-0.005	-0.048	
0.145	-0.104	-0.043	
0.150	-0.060	-0.045	
0.155	-0.008	-0.048	
0.160	-0.110	-0.049	
0.165	-0.114	-0.057	
0.170	-0.029	-0.067	
0.175	-0.093	-0.072	
0.180	-0.154	-0.078	
0.185	-0.082	-0.089	
0.190	-0.098	-0.097	
0.195	-0.180	-0.104	
0.200	-0.137	-0.116	
0.205	-0.084	-0.125	
0.210	-0.160	-0.128	
0.215	-0.157	-0.132	
0.220	-0.070	-0.134	
0.225	-0.122	-0.130	
0.230	-0.166	-0.126	
0.235	-0.079	-0.126	
0.240	-0.078	-0.121	
0.245	-0.165	-0.115	
0.250	-0.139	-0.116	
0.255	-0.110	-0.120	
0.260	-0.162	-0.124	
0.265	-0.047	-0.126	
0.270	0.300	-0.101	
0.275	0.514	-0.021	
0.280	0.779	0.119	
0.285	1.155	0.315	
0.290	1.122	0.548	
0.295	0.707	0.750	
0.300	0.256	0.840	
0.305	-0.085	0.782	
0.310	-0.322	0.598	
0.315	-0.392	0.345	
0.320	-0.337	0.091	
0.325	-0.340	-0.116	
0.330	-0.337	-0.259	
0.335	-0.223	-0.338	
0.340	-0.186	-0.360	
0.345	-0.233	-0.342	
0.350	-0.169	-0.308	
0.355	-0.102	-0.266	
0.360	-0.165	-0.221	
0.365	-0.146	-0.184	
0.370	-0.046	-0.156	
0.375	-0.090	-0.128	
0.380	-0.131	-0.107	
0.385	-0.032	-0.095	
0.390	-0.011	-0.081	
0.395	-0.101	-0.066	
0.400	-0.024	-0.058	
0.405	0.076	-0.046	
0.410	-0.014	-0.027	
0.415	0.020	-0.009	
0.420	0.194	0.011	
0.425	0.155	0.045	
0.430	0.108	0.082	
0.435	0.261	0.114	
0.440	0.270	0.150	
0.445	0.142	0.184	
0.450	0.206	0.201	
0.455	0.262	0.210	
0.460	0.107	0.215	
0.465	0.076	0.203	
0.470	0.163	0.179	
0.475	0.044	0.155	
0.480	-0.064	0.123	
0.485	0.009	0.081	
0.490	-0.027	0.042	
0.495	-0.134	0.007	
0.500	-0.102	-0.030	
			
Vernier Format 2
ecg1.txt 10/20/2025 8:19:38
Run 2
Time	Potential	EKG	
T	P	E	
s	mV	mV	

0.000	0.029	0.001	
0.005	-0.517	-0.019	
0.010	-0.502	-0.096	
0.015	0.015	-0.185	
0.020	-0.335	-0.232	
0.025	-0.613	-0.271	
0.030	-0.032	-0.313	
0.035	-0.049	-0.310	
0.040	-0.566	-0.283	
0.045	-0.223	-0.283	
0.050	0.102	-0.272	
0.055	-0.473	-0.239	
0.060	-0.448	-0.239	
0.065	0.101	-0.253	
0.070	-0.253	-0.236	
0.075	-0.558	-0.229	
0.080	-0.026	-0.247	
0.085	-0.076	-0.243	
0.090	-0.614	-0.232	
0.095	-0.288	-0.257	
0.100	0.015	-0.277	
0.105	-0.537	-0.272	
0.110	-0.540	-0.293	
0.115	-0.026	-0.325	
0.120	-0.367	-0.325	
0.125	-0.663	-0.331	
0.130	-0.111	-0.356	
0.135	-0.125	-0.349	
0.140	-0.643	-0.328	
0.145	-0.303	-0.336	
0.150	0.014	-0.335	
0.155	-0.549	-0.311	
0.160	-0.538	-0.316	
0.165	0.020	-0.335	
0.170	-0.303	-0.319	
0.175	-0.526	-0.304	
0.180	0.194	-0.294	
0.185	0.373	-0.224	
0.190	-0.363	-0.122	
0.195	-0.197	-0.074	
0.200	-0.145	-0.079	
0.205	-0.831	-0.127	
0.210	-0.922	-0.253	
0.215	-0.427	-0.412	
0.220	-0.646	-0.526	
0.225	-0.814	-0.601	
0.230	-0.127	-0.639	
0.235	0.001	-0.588	
0.240	-0.488	-0.483	
0.245	-0.114	-0.392	
0.250	0.447	-0.288	
0.255	-0.328	-0.163	
0.260	-0.367	-0.098	
0.265	0.340	-0.081	
0.270	-0.157	-0.051	
0.275	-0.500	-0.048	
0.280	0.123	-0.086	
0.285	0.111	-0.095	
0.290	-0.499	-0.089	
0.295	-0.157	-0.118	
0.300	0.337	-0.132	
0.305	-0.334	-0.106	
0.310	-0.310	-0.104	
0.315	0.508	-0.104	
0.320	-0.029	-0.053	
0.325	-0.352	-0.014	
0.330	0.442	-0.006	
0.335	0.492	0.047	
0.340	-0.285	0.116	
0.345	0.108	0.131	
0.350	0.751	0.145	
0.355	-0.168	0.192	
0.360	-0.182	0.190	
0.365	0.710	0.163	
0.370	0.030	0.178	
0.375	-0.370	0.171	
0.380	0.285	0.116	
0.385	0.227	0.088	
0.390	-0.462	0.070	
0.395	-0.180	0.008	
0.400	0.224	-0.051	
0.405	-0.419	-0.078	
0.410	-0.436	-0.125	
0.415	0.219	-0.175	
0.420	-0.207	-0.176	
0.425	-0.567	-0.180	
0.430	-0.066	-0.213	
0.435	-0.085	-0.226	
0.440	-0.665	-0.233	
0.445	-0.387	-0.276	
0.450	-0.082	-0.317	
0.455	-0.645	-0.333	
0.460	-0.657	-0.374	
0.465	-0.130	-0.421	
0.470	-0.450	-0.430	
0.475	-0.788	-0.438	
0.480	-0.261	-0.467	
0.485	-0.204	-0.465	
0.490	-0.703	-0.442	
0.495	-0.354	-0.439	
0.500	0.061	-0.419	
0.505	-0.468	-0.364	
0.510	-0.474	-0.332	
0.515	0.116	-0.315	
0.520	-0.256	-0.272	
0.525	-0.589	-0.246	
0.530	-0.005	-0.254	
0.535	0.114	-0.233	
0.540	-0.499	-0.193	
0.545	-0.195	-0.187	
0.550	0.317	-0.176	
0.555	-0.406	-0.137	
0.560	-0.445	-0.135	
0.565	0.210	-0.160	
0.570	-0.221	-0.154	
0.575	-0.582	-0.160	
0.580	-0.037	-0.199	
0.585	0.015	-0.211	
0.590	-0.549	-0.204	
0.595	-0.227	-0.223	
0.600	0.276	-0.225	
0.605	-0.387	-0.187	
0.610	-0.432	-0.177	
0.615	0.271	-0.184	
0.620	-0.159	-0.156	
0.625	-0.518	-0.140	
0.630	0.107	-0.156	
0.635	0.314	-0.135	
0.640	-0.329	-0.081	
0.645	0.148	-0.048	
0.650	0.921	0.017	
0.655	-0.160	0.131	
0.660	-0.445	0.170	
0.665	-0.105	0.104	
0.670	-0.528	-0.002	
0.675	-0.918	-0.150	
0.680	-0.386	-0.321	
0.685	-0.227	-0.435	
0.690	-0.637	-0.479	
0.695	-0.201	-0.491	
0.700	0.564	-0.428	
0.705	-0.186	-0.284	
0.710	-0.192	-0.161	
0.715	0.776	-0.061	
0.720	0.207	0.072	
0.725	-0.265	0.166	
0.730	0.565	0.193	
0.735	0.677	0.242	
0.740	-0.220	0.300	
0.745	0.143	0.290	
0.750	0.846	0.274	
0.755	-0.096	0.296	
0.760	-0.128	0.276	
0.765	0.916	0.242	
0.770	0.373	0.276	
0.775	-0.198	0.309	
0.780	0.724	0.301	
0.785	0.857	0.339	
0.790	-0.122	0.401	
0.795	0.376	0.404	
0.800	1.119	0.411	
0.805	0.073	0.463	
0.810	0.000	0.461	
0.815	1.094	0.429	
0.820	0.506	0.459	
0.825	-0.140	0.479	
0.830	0.790	0.448	
0.835	0.764	0.451	
0.840	-0.207	0.467	
0.845	0.090	0.409	
0.850	0.736	0.337	
0.855	-0.197	0.303	
0.860	-0.284	0.233	
0.865	0.537	0.145	
0.870	-0.023	0.110	
0.875	-0.419	0.076	
0.880	0.265	0.018	
0.885	0.378	0.008	
0.890	-0.389	0.031	
0.895	-0.133	0.012	
0.900	0.459	-0.008	
0.905	-0.302	0.005	
0.910	-0.395	-0.014	
0.915	0.256	-0.059	
0.920	-0.169	-0.073	
0.925	-0.557	-0.096	
0.930	-0.014	-0.149	
0.935	0.091	-0.171	
0.940	-0.528	-0.166	
0.945	-0.259	-0.190	
0.950	0.296	-0.201	
0.955	-0.367	-0.171	
0.960	-0.451	-0.166	
0.965	0.279	-0.178	
0.970	-0.099	-0.151	
0.975	-0.477	-0.128	
0.980	0.102	-0.137	
0.985	0.268	-0.117	
0.990	-0.425	-0.075	
0.995	-0.143	-0.074	
1.000	0.497	-0.070	
1.005	-0.259	-0.028	
1.010	-0.322	-0.018	
1.015	0.532	-0.027	
1.020	0.009	0.009	
1.025	-0.424	0.030	
1.030	0.174	0.004	
1.035	0.302	0.001	
1.040	-0.418	0.016	
1.045	-0.133	-0.010	
1.050	0.558	-0.027	
1.055	-0.271	0.002	
1.060	-0.351	0.001	
1.065	0.472	-0.023	
1.070	-0.017	-0.004	
1.075	-0.418	0.007	
1.080	0.245	-0.017	
1.085	0.445	-0.001	
1.090	-0.339	0.043	
1.095	-0.038	0.045	
1.100	0.800	0.055	
1.105	-0.044	0.120	
1.110	-0.110	0.157	
1.115	0.867	0.175	
1.120	0.102	0.231	
1.125	-0.532	0.240	
1.130	-0.143	0.150	
1.135	-0.128	0.034	
1.140	-0.694	-0.080	
1.145	-0.401	-0.209	
1.150	0.158	-0.296	
1.155	-0.332	-0.303	
1.160	-0.297	-0.288	
1.165	0.764	-0.235	
1.170	0.383	-0.091	
1.175	-0.177	0.059	
1.180	0.773	0.159	
1.185	1.001	0.288	
1.190	-0.070	0.423	
1.195	0.425	0.471	
1.200	1.184	0.498	
1.205	0.145	0.555	
1.210	-0.012	0.548	
1.215	1.098	0.500	
1.220	0.578	0.511	
1.225	-0.113	0.521	
1.230	0.898	0.487	
1.235	1.125	0.511	
1.240	0.035	0.575	
1.245	0.570	0.581	
1.250	1.431	0.598	
1.255	0.479	0.676	
1.260	0.287	0.713	
1.265	1.445	0.715	
1.270	1.001	0.777	
1.275	0.163	0.830	
1.280	1.178	0.819	
1.285	1.323	0.840	
1.290	0.078	0.875	
1.295	0.469	0.821	
1.300	1.197	0.745	
1.305	0.110	0.707	
1.310	-0.111	0.618	
1.315	0.872	0.495	
1.320	0.314	0.433	
1.325	-0.313	0.378	
1.330	0.390	0.284	
1.335	0.575	0.234	
1.340	-0.288	0.224	
1.345	-0.038	0.176	
1.350	0.662	0.133	
1.355	-0.182	0.139	
1.360	-0.297	0.116	
1.365	0.550	0.073	
1.370	0.094	0.080	
1.375	-0.380	0.085	
1.380	0.242	0.052	
1.385	0.474	0.053	
1.390	-0.342	0.083	
1.395	-0.099	0.068	
1.400	0.529	0.048	
1.405	-0.256	0.061	
1.410	-0.369	0.040	
1.415	0.428	-0.003	
1.420	0.020	-0.001	
1.425	-0.404	0.003	
1.430	0.197	-0.022	
1.435	0.384	-0.014	
1.440	-0.393	0.019	
1.445	-0.157	0.006	
1.450	0.543	-0.009	
1.455	-0.204	0.019	
1.460	-0.340	0.019	
1.465	0.480	-0.003	
1.470	0.072	0.019	
1.475	-0.413	0.036	
1.480	0.149	0.010	
1.485	0.492	0.012	
1.490	-0.250	0.052	
1.495	0.084	0.066	
1.500	0.908	0.098	
1.505	0.004	0.184	
1.510	-0.154	0.228	
1.515	0.793	0.229	
1.520	0.326	0.269	
1.525	-0.273	0.293	
1.530	0.456	0.262	
1.535	0.651	0.257	
1.540	-0.246	0.278	
1.545	0.001	0.244	
1.550	0.716	0.204	
1.555	-0.137	0.207	
1.560	-0.259	0.178	
1.565	0.666	0.132	
1.570	0.256	0.146	
1.575	-0.308	0.166	
1.580	0.184	0.137	
1.585	0.062	0.103	
1.590	-0.691	0.050	
1.595	-0.602	-0.074	
1.600	-0.296	-0.222	
1.605	-0.761	-0.345	
1.610	-0.834	-0.463	
1.615	-0.230	-0.559	
1.620	-0.332	-0.578	
1.625	-0.651	-0.552	
1.630	-0.136	-0.519	
1.635	0.038	-0.448	
1.640	-0.509	-0.356	
1.645	-0.276	-0.304	
1.650	0.271	-0.258	
1.655	-0.361	-0.192	
1.660	-0.496	-0.168	
1.665	0.131	-0.182	
1.670	-0.146	-0.172	
1.675	-0.543	-0.168	
1.680	-0.032	-0.194	
1.685	0.140	-0.192	
1.690	-0.494	-0.167	
1.695	-0.279	-0.176	
1.700	0.309	-0.182	
1.705	-0.297	-0.150	
1.710	-0.398	-0.137	
1.715	0.315	-0.142	
1.720	-0.056	-0.110	
1.725	-0.473	-0.086	
1.730	0.055	-0.102	
1.735	0.279	-0.095	
1.740	-0.439	-0.066	
1.745	-0.249	-0.079	
1.750	0.265	-0.101	
1.755	-0.395	-0.099	
1.760	-0.546	-0.129	
1.765	0.011	-0.188	
1.770	-0.264	-0.219	
1.775	-0.707	-0.250	
1.780	-0.274	-0.309	
1.785	-0.168	-0.347	
1.790	-0.736	-0.364	
1.795	-0.558	-0.406	
1.800	-0.156	-0.445	
1.805	-0.608	-0.450	
1.810	-0.752	-0.467	
1.815	-0.247	-0.498	
1.820	-0.435	-0.499	
1.825	-0.836	-0.498	
1.830	-0.399	-0.521	
1.835	-0.253	-0.523	
1.840	-0.776	-0.505	
1.845	-0.564	-0.512	
1.850	-0.165	-0.517	
1.855	-0.642	-0.495	
1.860	-0.791	-0.496	
1.865	-0.273	-0.520	
1.870	-0.445	-0.518	
1.875	-0.797	-0.512	
1.880	-0.328	-0.524	
1.885	-0.172	-0.508	
1.890	-0.683	-0.469	
1.895	-0.470	-0.456	
1.900	-0.017	-0.441	
1.905	-0.477	-0.397	
1.910	-0.605	-0.375	
1.915	-0.029	-0.375	
1.920	-0.241	-0.347	
1.925	-0.628	-0.322	
1.930	-0.166	-0.327	
1.935	-0.076	-0.317	
1.940	-0.660	-0.299	
1.945	-0.480	-0.321	
1.950	-0.073	-0.351	
1.955	-0.532	-0.355	
1.960	-0.660	-0.374	
1.965	-0.128	-0.406	
1.970	-0.332	-0.404	
1.975	-0.727	-0.399	
1.980	-0.288	-0.418	
1.985	-0.145	-0.418	
1.990	-0.663	-0.397	
1.995	-0.473	-0.404	
2.000	-0.070	-0.410	
2.005	-0.529	-0.390	
2.010	-0.646	-0.390	
2.015	-0.075	-0.406	
2.020	-0.232	-0.386	
2.025	-0.579	-0.356	
2.030	-0.066	-0.343	
2.035	0.177	-0.298	
2.040	-0.543	-0.233	
2.045	-0.503	-0.223	
2.050	-0.226	-0.259	
2.055	-0.736	-0.307	
2.060	-0.919	-0.394	
2.065	-0.390	-0.501	
2.070	-0.506	-0.563	
2.075	-0.794	-0.591	
2.080	-0.264	-0.605	
2.085	-0.027	-0.562	
2.090	-0.550	-0.477	
2.095	-0.323	-0.415	
2.100	0.309	-0.348	
2.105	-0.322	-0.252	
2.110	-0.450	-0.195	
2.115	0.309	-0.173	
2.120	0.015	-0.122	
2.125	-0.441	-0.079	
2.130	0.123	-0.077	
2.135	0.427	-0.051	
2.140	-0.361	-0.001	
2.145	-0.171	0.003	
2.150	0.627	0.000	
2.155	-0.149	0.042	
2.160	-0.325	0.055	
2.165	0.567	0.041	
2.170	0.242	0.074	
2.175	-0.343	0.110	
2.180	0.331	0.102	
2.185	0.636	0.123	
2.190	-0.259	0.173	
2.195	-0.014	0.170	
2.200	0.803	0.161	
2.205	-0.049	0.198	
2.210	-0.250	0.201	
2.215	0.642	0.169	
2.220	0.279	0.183	
2.225	-0.354	0.195	
2.230	0.194	0.154	
2.235	0.486	0.130	
2.240	-0.375	0.130	
2.245	-0.256	0.082	
2.250	0.386	0.020	
2.255	-0.306	-0.004	
2.260	-0.499	-0.049	
2.265	0.166	-0.114	
2.270	-0.102	-0.138	
2.275	-0.541	-0.151	
2.280	-0.073	-0.187	
2.285	0.259	-0.190	
2.290	-0.442	-0.157	
2.295	-0.267	-0.152	
2.300	0.401	-0.149	
2.305	-0.265	-0.107	
2.310	-0.418	-0.092	
2.315	0.352	-0.102	
2.320	0.021	-0.074	
2.325	-0.474	-0.050	
2.330	-0.002	-0.072	
2.335	0.383	-0.074	
2.340	-0.389	-0.044	
2.345	-0.229	-0.050	
2.350	0.485	-0.060	
2.355	-0.213	-0.030	
2.360	-0.372	-0.024	
2.365	0.471	-0.039	
2.370	0.155	-0.006	
2.375	-0.393	0.030	
2.380	0.186	0.021	
2.385	0.538	0.037	
2.390	-0.323	0.081	
2.395	-0.178	0.075	
2.400	0.569	0.052	
2.405	-0.217	0.066	
2.410	-0.424	0.047	
2.415	0.312	-0.005	
2.420	0.026	-0.020	
2.425	-0.489	-0.029	
2.430	-0.037	-0.074	
2.435	0.300	-0.094	
2.440	-0.428	-0.081	
2.445	-0.277	-0.098	
2.450	0.410	-0.114	
2.455	-0.252	-0.088	
2.460	-0.435	-0.083	
2.465	0.308	-0.103	
2.470	0.008	-0.085	
2.475	-0.482	-0.068	
2.480	-0.006	-0.091	
2.485	0.421	-0.089	
2.490	-0.326	-0.048	
2.495	-0.159	-0.037	
2.500	0.509	-0.031	
2.505	-0.375	-0.000	
2.510	-0.703	-0.028	
2.515	-0.259	-0.131	
2.520	-0.450	-0.235	
2.525	-0.864	-0.335	
2.530	-0.399	-0.442	
2.535	-0.108	-0.495	
2.540	-0.547	-0.483	
2.545	-0.316	-0.458	
2.550	0.451	-0.395	
2.555	-0.194	-0.273	
2.560	-0.361	-0.176	
2.565	0.508	-0.115	
2.570	0.334	-0.018	
2.575	-0.329	0.072	
2.580	0.239	0.099	
2.585	0.642	0.130	
2.590	-0.232	0.181	
2.595	-0.070	0.178	
2.600	0.817	0.164	
2.605	0.001	0.199	
2.610	-0.253	0.206	
2.615	0.680	0.179	
2.620	0.433	0.204	
2.625	-0.256	0.238	
2.630	0.472	0.229	
2.635	0.870	0.254	
2.640	-0.143	0.315	
2.645	0.065	0.317	
2.650	0.971	0.304	
2.655	0.148	0.340	
2.660	-0.177	0.346	
2.665	0.770	0.311	
2.670	0.442	0.319	
2.675	-0.311	0.327	
2.680	0.232	0.272	
2.685	0.546	0.228	
2.690	-0.348	0.209	
2.695	-0.274	0.141	
2.700	0.378	0.058	
2.705	-0.302	0.015	
2.710	-0.526	-0.044	
2.715	0.107	-0.122	
2.720	-0.111	-0.158	
2.725	-0.567	-0.178	
2.730	-0.153	-0.219	
2.735	0.190	-0.231	
2.740	-0.486	-0.206	
2.745	-0.381	-0.209	
2.750	0.242	-0.219	
2.755	-0.313	-0.193	
2.760	-0.497	-0.185	
2.765	0.213	-0.197	
2.770	0.033	-0.169	
2.775	-0.489	-0.133	
2.780	-0.041	-0.137	
2.785	0.325	-0.125	
2.790	-0.436	-0.088	
2.795	-0.305	-0.093	
2.800	0.430	-0.106	
2.805	-0.220	-0.078	
2.810	-0.430	-0.070	
2.815	0.364	-0.086	
2.820	0.187	-0.056	
2.825	-0.398	-0.015	
2.830	0.149	-0.013	
2.835	0.587	0.013	
2.840	-0.299	0.070	
2.845	-0.157	0.078	
2.850	0.703	0.071	
2.855	-0.056	0.110	
2.860	-0.319	0.121	
2.865	0.520	0.096	
2.870	0.300	0.113	
2.875	-0.401	0.134	
2.880	0.032	0.098	
2.885	0.430	0.066	
2.890	-0.374	0.062	
2.895	-0.268	0.022	
2.900	0.399	-0.026	
2.905	-0.239	-0.031	
2.910	-0.444	-0.052	
2.915	0.271	-0.092	
2.920	0.056	-0.088	
2.925	-0.471	-0.073	
2.930	-0.049	-0.096	
2.935	0.384	-0.098	
2.940	-0.361	-0.064	
2.945	-0.186	-0.060	
2.950	0.756	-0.046	
2.955	0.097	0.035	
2.960	-0.209	0.103	
2.965	0.611	0.131	
2.970	0.056	0.169	
2.975	-0.656	0.160	
2.980	-0.375	0.051	
2.985	-0.209	-0.086	
2.990	-0.723	-0.208	
2.995	-0.564	-0.332	
3.000	0.097	-0.412	
3.005	-0.256	-0.405	
3.010	-0.407	-0.364	
3.015	0.451	-0.306	
3.020	0.317	-0.183	
3.025	-0.351	-0.055	
3.030	0.218	0.010	
3.035	0.713	0.077	
3.040	-0.227	0.162	
3.045	-0.107	0.180	
3.050	0.815	0.173	
3.055	0.041	0.210	
3.060	-0.261	0.219	
3.065	0.631	0.190	
3.070	0.444	0.207	
3.075	-0.308	0.233	
3.080	0.255	0.207	
3.085	0.735	0.199	
3.090	-0.220	0.228	
3.095	-0.120	0.208	
3.100	0.815	0.176	
3.105	0.122	0.203	
3.110	-0.212	0.218	
3.115	0.761	0.207	
3.120	0.619	0.252	
3.125	-0.220	0.309	
3.130	0.390	0.307	
3.135	0.846	0.314	
3.140	-0.204	0.346	
3.145	-0.148	0.312	
3.150	0.707	0.246	
3.155	-0.066	0.224	
3.160	-0.384	0.181	
3.165	0.348	0.104	
3.170	0.163	0.069	
3.175	-0.486	0.047	
3.180	-0.116	-0.015	
3.185	0.303	-0.062	
3.190	-0.441	-0.071	
3.195	-0.386	-0.107	
3.200	0.309	-0.147	
3.205	-0.261	-0.140	
3.210	-0.512	-0.145	
3.215	0.137	-0.173	
3.220	0.029	-0.165	
3.225	-0.514	-0.145	
3.230	-0.149	-0.162	
3.235	0.283	-0.164	
3.240	-0.447	-0.137	
3.245	-0.374	-0.143	
3.250	0.314	-0.161	
3.255	-0.259	-0.140	
3.260	-0.509	-0.137	
3.265	0.165	-0.161	
3.270	0.056	-0.149	
3.275	-0.508	-0.127	
3.280	-0.073	-0.140	
3.285	0.447	-0.130	
3.290	-0.349	-0.079	
3.295	-0.268	-0.064	
3.300	0.576	-0.059	
3.305	-0.096	-0.009	
3.310	-0.367	0.018	
3.315	0.472	0.011	
3.320	0.340	0.048	
3.325	-0.354	0.094	
3.330	0.149	0.090	
3.335	0.649	0.098	
3.340	-0.268	0.139	
3.345	-0.252	0.127	
3.350	0.521	0.086	
3.355	-0.149	0.079	
3.360	-0.442	0.052	
3.365	0.293	-0.006	
3.370	0.206	-0.017	
3.375	-0.450	-0.008	
3.380	-0.058	-0.036	
3.385	0.456	-0.049	
3.390	-0.352	-0.023	
3.395	-0.299	-0.031	
3.400	0.509	-0.050	
3.405	-0.139	-0.023	
3.410	-0.439	-0.015	
3.415	0.351	-0.039	
3.420	0.354	-0.015	
3.425	-0.299	0.034	
3.430	0.431	0.061	
3.435	1.143	0.141	
3.440	-0.002	0.280	
3.445	-0.204	0.340	
3.450	0.152	0.295	
3.455	-0.499	0.200	
3.460	-0.854	0.038	
3.465	-0.334	-0.166	
3.470	-0.281	-0.319	
3.475	-0.634	-0.406	
3.480	-0.140	-0.451	
3.485	0.561	-0.407	
3.490	-0.256	-0.277	
3.495	-0.191	-0.168	
3.500	0.797	-0.076	
3.505	0.154	0.055	
3.510	-0.273	0.148	
3.515	0.654	0.178	
3.520	0.593	0.235	
3.525	-0.258	0.293	
3.530	0.282	0.284	
3.535	0.861	0.281	
3.540	-0.128	0.314	
3.545	-0.053	0.298	
3.550	0.983	0.270	
3.555	0.319	0.309	
3.560	-0.172	0.338	
3.565	0.867	0.329	
3.570	0.863	0.375	
3.575	-0.107	0.444	
3.580	0.573	0.452	
3.585	1.169	0.474	
3.590	0.120	0.538	
3.595	0.187	0.543	
3.600	1.197	0.524	
3.605	0.492	0.559	
3.610	-0.098	0.570	
3.615	1.000	0.530	
3.620	1.015	0.547	
3.625	-0.029	0.593	
3.630	0.588	0.577	
3.635	1.104	0.567	
3.640	-0.034	0.585	
3.645	-0.069	0.530	
3.650	0.898	0.439	
3.655	0.206	0.402	
3.660	-0.276	0.358	
3.665	0.591	0.281	
3.670	0.555	0.259	
3.675	-0.297	0.265	
3.680	0.143	0.224	
3.685	0.745	0.196	
3.690	-0.200	0.213	
3.695	-0.192	0.188	
3.700	0.722	0.148	
3.705	0.044	0.161	
3.710	-0.346	0.159	
3.715	0.511	0.122	
3.720	0.474	0.135	
3.725	-0.355	0.167	
3.730	0.050	0.143	
3.735	0.633	0.123	
3.740	-0.255	0.139	
3.745	-0.259	0.115	
3.750	0.607	0.074	
3.755	-0.055	0.082	
3.760	-0.409	0.075	
3.765	0.386	0.035	
3.770	0.442	0.046	
3.775	-0.320	0.087	
3.780	0.122	0.087	
3.785	0.800	0.105	
3.790	-0.145	0.167	
3.795	-0.165	0.183	
3.800	0.794	0.171	
3.805	0.154	0.207	
3.810	-0.288	0.224	
3.815	0.637	0.201	
3.820	0.668	0.229	
3.825	-0.262	0.279	
3.830	0.178	0.267	
3.835	0.776	0.252	
3.840	-0.191	0.269	
3.845	-0.227	0.236	
3.850	0.628	0.175	
3.855	0.006	0.161	
3.860	-0.390	0.135	
3.865	0.366	0.079	
3.870	0.355	0.069	
3.875	-0.413	0.082	
3.880	-0.099	0.047	
3.885	0.486	0.015	
3.890	-0.306	0.023	
3.895	-0.319	0.002	
3.900	0.503	-0.029	
3.905	-0.102	-0.012	
3.910	-0.456	-0.009	
3.915	0.346	-0.036	
3.920	0.537	-0.007	
3.925	-0.229	0.063	
3.930	0.372	0.107	
3.935	0.937	0.176	
3.940	-0.305	0.267	
3.945	-0.576	0.251	
3.950	-0.201	0.120	
3.955	-0.561	-0.037	
3.960	-0.886	-0.210	
3.965	-0.316	-0.378	
3.970	-0.182	-0.469	
3.975	-0.587	-0.486	
3.980	-0.143	-0.474	
3.985	0.605	-0.393	
3.990	-0.230	-0.242	
3.995	-0.259	-0.128	
4.000	0.672	-0.052	
4.005	0.130	0.051	
4.010	-0.316	0.121	
4.015	0.501	0.133	
4.020	0.518	0.170	
4.025	-0.317	0.213	
4.030	0.079	0.193	
4.035	0.793	0.177	
4.040	-0.148	0.206	
4.045	-0.180	0.197	
4.050	0.812	0.171	
4.055	0.283	0.206	
4.060	-0.233	0.238	
4.065	0.692	0.233	
4.070	0.797	0.278	
4.075	-0.160	0.347	
4.080	0.364	0.355	
4.085	1.072	0.370	
4.090	0.053	0.427	
4.095	-0.050	0.428	
4.100	0.957	0.392	
4.105	0.389	0.405	
4.110	-0.206	0.408	
4.115	0.645	0.363	
4.120	0.662	0.354	
4.125	-0.288	0.362	
4.130	0.011	0.303	
4.135	0.637	0.236	
4.140	-0.271	0.206	
4.145	-0.351	0.141	
4.150	0.427	0.058	
4.155	-0.099	0.025	
4.160	-0.479	-0.007	
4.165	0.149	-0.064	
4.170	0.230	-0.077	
4.175	-0.467	-0.063	
4.180	-0.175	-0.085	
4.185	0.424	-0.098	
4.190	-0.345	-0.072	
4.195	-0.412	-0.076	
4.200	0.344	-0.103	
4.205	-0.114	-0.089	
4.210	-0.497	-0.084	
4.215	0.117	-0.111	
4.220	0.223	-0.106	
4.225	-0.464	-0.079	
4.230	-0.154	-0.091	
4.235	0.471	-0.094	
4.240	-0.296	-0.055	
4.245	-0.355	-0.048	
4.250	0.453	-0.061	
4.255	-0.058	-0.034	
4.260	-0.441	-0.019	
4.265	0.293	-0.038	
4.270	0.425	-0.014	
4.275	-0.366	0.036	
4.280	-0.049	0.038	
4.285	0.662	0.041	
4.290	-0.191	0.085	
4.295	-0.227	0.093	
4.300	0.748	0.085	
4.305	0.241	0.135	
4.310	-0.303	0.177	
4.315	0.448	0.169	
4.320	0.527	0.186	
4.325	-0.337	0.213	
4.330	-0.067	0.178	
4.335	0.584	0.133	
4.340	-0.265	0.124	
4.345	-0.335	0.084	
4.350	0.544	0.031	
4.355	0.053	0.036	
4.360	-0.396	0.044	
4.365	0.303	0.019	
4.370	0.453	0.034	
4.375	-0.364	0.074	
4.380	-0.082	0.064	
4.385	0.616	0.051	
4.390	-0.223	0.078	
4.395	-0.284	0.071	
4.400	0.665	0.049	
4.405	0.285	0.091	
4.410	-0.198	0.142	
4.415	0.761	0.171	
4.420	0.759	0.250	
4.425	-0.378	0.330	
4.430	-0.296	0.295	
4.435	-0.011	0.178	
4.440	-0.570	0.047	
4.445	-0.650	-0.109	
4.450	-0.089	-0.256	
4.455	-0.271	-0.332	
4.460	-0.547	-0.362	
4.465	0.174	-0.365	
4.470	0.485	-0.286	
4.475	-0.274	-0.155	
4.480	0.117	-0.059	
4.485	0.983	0.043	
4.490	0.221	0.191	
4.495	0.232	0.305	
4.500	1.460	0.404	
4.505	1.049	0.572	
4.510	0.346	0.729	
4.515	1.341	0.814	
4.520	1.460	0.913	
4.525	0.372	1.006	
4.530	0.883	1.009	
4.535	1.630	0.998	
4.540	0.675	1.031	
4.545	0.454	1.015	
4.550	1.483	0.961	
4.555	1.014	0.962	
4.560	0.288	0.960	
4.565	1.296	0.915	
4.570	1.457	0.924	
4.575	0.401	0.971	
4.580	0.846	0.958	
4.585	1.538	0.942	
4.590	0.546	0.967	
4.595	0.303	0.936	
4.600	1.303	0.861	
4.605	0.710	0.833	
4.610	-0.119	0.785	
4.615	0.698	0.671	
4.620	0.735	0.584	
4.625	-0.242	0.522	
4.630	-0.003	0.407	
4.635	0.658	0.294	
4.640	-0.223	0.234	
4.645	-0.339	0.156	
4.650	0.398	0.066	
4.655	-0.047	0.028	
4.660	-0.459	-0.003	
4.665	0.090	-0.058	
4.670	0.261	-0.075	
4.675	-0.441	-0.062	
4.680	-0.213	-0.082	
4.685	0.390	-0.099	
4.690	-0.274	-0.076	
4.695	-0.381	-0.075	
4.700	0.308	-0.095	
4.705	-0.098	-0.080	
4.710	-0.514	-0.077	
4.715	-0.035	-0.115	
4.720	0.128	-0.133	
4.725	-0.508	-0.131	
4.730	-0.285	-0.160	
4.735	0.273	-0.182	
4.740	-0.354	-0.163	
4.745	-0.462	-0.165	
4.750	0.212	-0.185	
4.755	-0.124	-0.168	
4.760	-0.520	-0.154	
4.765	0.006	-0.172	
4.770	0.163	-0.165	
4.775	-0.474	-0.138	
4.780	-0.235	-0.146	
4.785	0.351	-0.151	
4.790	-0.335	-0.119	
4.795	-0.457	-0.117	
4.800	0.178	-0.144	
4.805	-0.177	-0.144	
4.810	-0.608	-0.153	
4.815	-0.178	-0.202	
4.820	-0.093	-0.238	
4.825	-0.636	-0.257	
4.830	-0.419	-0.302	
4.835	-0.034	-0.338	
4.840	-0.553	-0.341	
4.845	-0.669	-0.363	
4.850	-0.136	-0.401	
4.855	-0.337	-0.404	
4.860	-0.704	-0.401	
4.865	-0.226	-0.416	
4.870	-0.081	-0.404	
4.875	-0.637	-0.371	
4.880	-0.421	-0.368	
4.885	0.120	-0.361	
4.890	-0.374	-0.317	
4.895	-0.427	-0.285	
4.900	0.396	-0.255	
4.905	-0.061	-0.179	
4.910	-0.643	-0.126	
4.915	-0.380	-0.156	
4.920	-0.375	-0.224	
4.925	-0.944	-0.312	
4.930	-0.774	-0.438	
4.935	-0.366	-0.551	
4.940	-0.709	-0.607	
4.945	-0.744	-0.639	
4.950	-0.122	-0.644	
4.955	-0.270	-0.586	
4.960	-0.639	-0.509	
4.965	-0.148	-0.455	
4.970	0.079	-0.385	
4.975	-0.529	-0.303	
4.980	-0.322	-0.267	
4.985	0.230	-0.243	
4.990	-0.377	-0.198	
4.995	-0.511	-0.187	
5.000	0.160	-0.204	
5.005	-0.130	-0.189	
5.010	-0.538	-0.177	
5.015	-0.041	-0.196	
5.020	0.223	-0.187	
5.025	-0.454	-0.151	
5.030	-0.242	-0.148	
5.035	0.444	-0.142	
5.040	-0.256	-0.095	
5.045	-0.375	-0.075	
5.050	0.463	-0.076	
5.055	0.117	-0.032	
5.060	-0.374	0.011	
5.065	0.248	0.012	
5.070	0.463	0.038	
5.075	-0.361	0.081	
5.080	-0.168	0.067	
5.085	0.537	0.041	
5.090	-0.235	0.051	
5.095	-0.415	0.031	
5.100	0.244	-0.023	
5.105	-0.108	-0.046	
5.110	-0.557	-0.074	
5.115	-0.117	-0.136	
5.120	0.064	-0.175	
5.125	-0.560	-0.187	
5.130	-0.363	-0.224	
5.135	0.117	-0.255	
5.140	-0.432	-0.249	
5.145	-0.560	-0.260	
5.150	0.075	-0.286	
5.155	-0.169	-0.272	
5.160	-0.590	-0.255	
5.165	-0.122	-0.267	
5.170	0.128	-0.257	
5.175	-0.514	-0.221	
5.180	-0.329	-0.220	
5.185	0.265	-0.221	
5.190	-0.346	-0.187	
5.195	-0.503	-0.179	
5.200	0.171	-0.196	
5.205	-0.113	-0.181	
5.210	-0.535	-0.168	
5.215	-0.061	-0.188	
5.220	0.224	-0.183	
5.225	-0.479	-0.151	
5.230	-0.314	-0.156	
5.235	0.285	-0.167	
5.240	-0.317	-0.145	
5.245	-0.462	-0.145	
5.250	0.267	-0.163	
5.255	-0.024	-0.139	
5.260	-0.464	-0.114	
5.265	0.125	-0.118	
5.270	0.457	-0.087	
5.275	-0.352	-0.024	
5.280	-0.160	-0.008	
5.285	0.625	-0.000	
5.290	-0.157	0.047	
5.295	-0.337	0.060	
5.300	0.477	0.039	
5.305	0.097	0.054	
5.310	-0.439	0.063	
5.315	0.093	0.024	
5.320	0.408	0.007	
5.325	-0.387	0.022	
5.330	-0.235	-0.003	
5.335	0.419	-0.034	
5.340	-0.271	-0.028	
5.345	-0.450	-0.047	
5.350	0.279	-0.088	
5.355	0.020	-0.086	
5.360	-0.460	-0.076	
5.365	0.050	-0.096	
5.370	0.349	-0.089	
5.375	-0.406	-0.053	
5.380	-0.229	-0.058	
5.385	0.564	-0.063	
5.390	-0.116	-0.018	
5.395	-0.227	0.012	
5.400	0.777	0.035	
5.405	0.407	0.119	
5.410	-0.412	0.193	
5.415	-0.149	0.168	
5.420	-0.146	0.085	
5.425	-0.767	-0.027	
5.430	-0.648	-0.185	
5.435	-0.153	-0.331	
5.440	-0.470	-0.407	
5.445	-0.550	-0.445	
5.450	0.241	-0.443	
5.455	0.101	-0.359	
5.460	-0.395	-0.249	
5.465	0.183	-0.172	
5.470	0.558	-0.079	
5.475	-0.300	0.028	
5.480	-0.131	0.067	
5.485	0.681	0.080	
5.490	-0.089	0.124	
5.495	-0.299	0.132	
5.500	0.588	0.107	
5.505	0.317	0.130	
5.510	-0.322	0.159	
5.515	0.340	0.145	
5.520	0.735	0.161	
5.525	-0.188	0.214	
5.530	0.020	0.219	
5.535	0.925	0.216	
5.540	0.113	0.266	
5.545	-0.165	0.288	
5.550	0.837	0.273	
5.555	0.544	0.311	
5.560	-0.215	0.351	
5.565	0.503	0.334	
5.570	0.840	0.340	
5.575	-0.180	0.372	
5.580	-0.023	0.340	
5.585	0.825	0.290	
5.590	-0.018	0.285	
5.595	-0.302	0.253	
5.600	0.515	0.186	
5.605	0.206	0.161	
5.610	-0.421	0.143	
5.615	0.006	0.078	
5.620	0.340	0.029	
5.625	-0.444	0.011	
5.630	-0.331	-0.041	
5.635	0.325	-0.095	
5.640	-0.290	-0.102	
5.645	-0.491	-0.122	
5.650	0.210	-0.158	
5.655	-0.052	-0.152	
5.660	-0.541	-0.141	
5.665	-0.127	-0.168	
5.670	0.218	-0.177	
5.675	-0.459	-0.155	
5.680	-0.334	-0.164	
5.685	0.314	-0.175	
5.690	-0.282	-0.148	
5.695	-0.508	-0.142	
5.700	0.181	-0.165	
5.705	-0.024	-0.153	
5.710	-0.515	-0.137	
5.715	-0.082	-0.156	
5.720	0.244	-0.157	
5.725	-0.459	-0.131	
5.730	-0.348	-0.141	
5.735	0.308	-0.159	
5.740	-0.291	-0.140	
5.745	-0.509	-0.140	
5.750	0.197	-0.166	
5.755	0.014	-0.153	
5.760	-0.502	-0.131	
5.765	-0.043	-0.144	
5.770	0.407	-0.132	
5.775	-0.363	-0.083	
5.780	-0.250	-0.070	
5.785	0.546	-0.065	
5.790	-0.142	-0.018	
5.795	-0.377	0.003	
5.800	0.468	-0.007	
5.805	0.305	0.029	
5.810	-0.349	0.075	
5.815	0.216	0.076	
5.820	0.645	0.096	
5.825	-0.314	0.143	
5.830	-0.252	0.129	
5.835	0.521	0.084	
5.840	-0.195	0.075	
5.845	-0.448	0.041	
5.850	0.256	-0.021	
5.855	0.068	-0.042	
5.860	-0.489	-0.049	
5.865	-0.069	-0.088	
5.870	0.386	-0.103	
5.875	-0.398	-0.077	
5.880	-0.300	-0.083	
5.885	0.439	-0.096	
5.890	-0.203	-0.068	
5.895	-0.438	-0.060	
5.900	0.323	-0.080	
5.905	0.157	-0.058	
5.910	-0.404	-0.026	
5.915	0.213	-0.025	
5.920	0.815	0.018	
5.925	-0.064	0.118	
5.930	0.160	0.185	
5.935	0.893	0.236	
5.940	-0.235	0.297	
5.945	-0.694	0.260	
5.950	-0.296	0.105	
5.955	-0.422	-0.069	
5.960	-0.846	-0.234	
5.965	-0.393	-0.387	
5.970	0.091	-0.462	
5.975	-0.404	-0.442	
5.980	-0.270	-0.396	
5.985	0.553	-0.319	
5.990	-0.105	-0.188	
5.995	-0.357	-0.090	
6.000	0.498	-0.039	
6.005	0.361	0.039	
6.010	-0.372	0.109	
6.015	0.108	0.111	
6.020	0.596	0.112	
6.025	-0.310	0.137	
6.030	-0.239	0.112	
6.035	0.616	0.071	
6.040	-0.079	0.080	
6.045	-0.358	0.074	
6.050	0.488	0.043	
6.055	0.390	0.067	
6.060	-0.334	0.109	
6.065	0.244	0.108	
6.070	0.773	0.130	
6.075	-0.203	0.191	
6.080	-0.110	0.197	
6.085	0.867	0.184	
6.090	0.190	0.228	
6.095	-0.242	0.253	
6.100	0.697	0.238	
6.105	0.559	0.265	
6.110	-0.282	0.301	
6.115	0.242	0.273	
6.120	0.722	0.252	
6.125	-0.259	0.261	
6.130	-0.255	0.215	
6.135	0.529	0.142	
6.140	-0.136	0.110	
6.145	-0.459	0.065	
6.150	0.235	-0.007	
6.155	0.117	-0.035	
6.160	-0.503	-0.044	
6.165	-0.130	-0.087	
6.170	0.387	-0.110	
6.175	-0.380	-0.088	
6.180	-0.335	-0.094	
6.185	0.447	-0.108	
6.190	-0.142	-0.075	
6.195	-0.413	-0.057	
6.200	0.415	-0.063	
6.205	0.329	-0.020	
6.210	-0.374	0.037	
6.215	0.081	0.043	
6.220	0.620	0.057	
6.225	-0.244	0.103	
6.230	-0.210	0.103	
6.235	0.683	0.085	
6.240	0.038	0.115	
6.245	-0.308	0.130	
6.250	0.575	0.113	
6.255	0.523	0.147	
6.260	-0.285	0.198	
6.265	0.241	0.195	
6.270	0.788	0.204	
6.275	-0.178	0.246	
6.280	-0.134	0.235	
6.285	0.861	0.205	
6.290	0.192	0.235	
6.295	-0.250	0.252	
6.300	0.733	0.234	
6.305	0.698	0.270	
6.310	-0.210	0.326	
6.315	0.372	0.324	
6.320	0.976	0.332	
6.325	-0.024	0.381	
6.330	0.078	0.381	
6.335	1.137	0.370	
6.340	0.497	0.427	
6.345	-0.037	0.473	
6.350	1.116	0.479	
6.355	1.067	0.545	
6.360	0.004	0.626	
6.365	0.649	0.630	
6.370	1.209	0.632	
6.375	0.161	0.665	
6.380	0.081	0.633	
6.385	1.024	0.563	
6.390	0.366	0.539	
6.395	-0.203	0.500	
6.400	0.709	0.419	
6.405	0.704	0.391	
6.410	-0.209	0.393	
6.415	0.354	0.351	
6.420	0.954	0.332	
6.425	-0.070	0.363	
6.430	-0.052	0.346	
6.435	0.968	0.311	
6.440	0.328	0.338	
6.445	-0.201	0.355	
6.450	0.784	0.330	
6.455	0.921	0.363	
6.460	0.072	0.436	
6.465	0.939	0.484	
6.470	1.666	0.585	
6.475	0.448	0.745	
6.480	-0.063	0.801	
6.485	0.357	0.712	
6.490	-0.340	0.552	
6.495	-0.697	0.324	
6.500	-0.165	0.064	
6.505	-0.066	-0.126	
6.510	-0.476	-0.231	
6.515	0.037	-0.286	
6.520	0.840	-0.240	
6.525	-0.047	-0.096	
6.530	-0.035	0.025	
6.535	0.991	0.121	
6.540	0.392	0.253	
6.545	-0.154	0.346	
6.550	0.825	0.370	
6.555	0.851	0.422	
6.560	-0.133	0.480	
6.565	0.367	0.464	
6.570	0.956	0.442	
6.575	-0.063	0.452	
6.580	-0.055	0.409	
6.585	0.988	0.350	
6.590	0.354	0.362	
6.595	-0.185	0.370	
6.600	0.777	0.341	
6.605	0.825	0.365	
6.610	-0.119	0.416	
6.615	0.466	0.413	
6.620	1.136	0.425	
6.625	0.145	0.486	
6.630	0.140	0.498	
6.635	1.168	0.486	
6.640	0.591	0.531	
6.645	-0.084	0.560	
6.650	0.835	0.529	
6.655	0.826	0.528	
6.660	-0.185	0.536	
6.665	0.259	0.474	
6.670	0.878	0.412	
6.675	-0.154	0.391	
6.680	-0.232	0.325	
6.685	0.599	0.231	
6.690	0.003	0.187	
6.695	-0.409	0.140	
6.700	0.245	0.065	
6.705	0.261	0.032	
6.710	-0.439	0.025	
6.715	-0.137	-0.018	
6.720	0.434	-0.049	
6.725	-0.328	-0.036	
6.730	-0.378	-0.051	
6.735	0.312	-0.084	
6.740	-0.154	-0.081	
6.745	-0.492	-0.087	
6.750	0.108	-0.121	
6.755	0.142	-0.122	
6.760	-0.489	-0.104	
6.765	-0.172	-0.123	
6.770	0.402	-0.129	
6.775	-0.331	-0.095	
6.780	-0.366	-0.089	
6.785	0.410	-0.100	
6.790	-0.095	-0.070	
6.795	-0.444	-0.053	
6.800	0.198	-0.071	
6.805	0.270	-0.056	
6.810	-0.445	-0.025	
6.815	-0.149	-0.041	
6.820	0.498	-0.052	
6.825	-0.281	-0.022	
6.830	-0.335	-0.022	
6.835	0.494	-0.038	
6.840	-0.008	-0.010	
6.845	-0.392	0.010	
6.850	0.354	-0.002	
6.855	0.483	0.029	
6.860	-0.317	0.085	
6.865	0.017	0.091	
6.870	0.782	0.100	
6.875	-0.108	0.154	
6.880	-0.180	0.170	
6.885	0.733	0.159	
6.890	0.151	0.190	
6.895	-0.339	0.203	
6.900	0.407	0.166	
6.905	0.488	0.162	
6.910	-0.364	0.177	
6.915	-0.090	0.136	
6.920	0.534	0.091	
6.925	-0.268	0.084	
6.930	-0.328	0.050	
6.935	0.500	0.005	
6.940	0.000	0.012	
6.945	-0.410	0.018	
6.950	0.258	-0.008	
6.955	0.404	0.004	
6.960	-0.381	0.040	
6.965	-0.102	0.030	
6.970	0.532	0.017	
6.975	-0.249	0.040	
6.980	-0.233	0.035	
6.985	0.844	0.032	
6.990	0.466	0.113	
6.995	-0.191	0.206	
7.000	0.335	0.232	
7.005	0.073	0.228	
7.010	-0.654	0.176	
7.015	-0.470	0.039	
7.020	-0.114	-0.114	
7.025	-0.576	-0.227	
7.030	-0.595	-0.327	
7.035	0.148	-0.390	
7.040	-0.079	-0.367	
7.045	-0.386	-0.306	
7.050	0.410	-0.240	
7.055	0.642	-0.113	
7.060	-0.252	0.036	
7.065	0.082	0.113	
7.070	0.866	0.166	
7.075	-0.056	0.243	
7.080	-0.162	0.263	
7.085	0.858	0.246	
7.090	0.439	0.285	
7.095	-0.171	0.323	
7.100	0.747	0.321	
7.105	0.921	0.365	
7.110	-0.104	0.433	
7.115	0.314	0.435	
7.120	1.075	0.429	
7.125	0.151	0.467	
7.130	-0.002	0.463	
7.135	1.139	0.435	
7.140	0.698	0.478	
7.145	-0.046	0.526	
7.150	0.939	0.524	
7.155	1.098	0.561	
7.160	-0.015	0.620	
7.165	0.410	0.602	
7.170	1.148	0.573	
7.175	0.171	0.585	
7.180	-0.066	0.549	
7.185	0.887	0.473	
7.190	0.354	0.443	
7.195	-0.297	0.406	
7.200	0.323	0.317	
7.205	0.453	0.252	
7.210	-0.340	0.214	
7.215	-0.122	0.140	
7.220	0.518	0.075	
7.225	-0.247	0.060	
7.230	-0.354	0.026	
7.235	0.441	-0.019	
7.240	0.006	-0.013	
7.245	-0.439	-0.007	
7.250	0.090	-0.039	
7.255	0.300	-0.046	
7.260	-0.401	-0.027	
7.265	-0.171	-0.044	
7.270	0.466	-0.057	
7.275	-0.252	-0.029	
7.280	-0.377	-0.029	
7.285	0.317	-0.056	
7.290	-0.061	-0.049	
7.295	-0.453	-0.049	
7.300	0.126	-0.079	
7.305	0.341	-0.072	
7.310	-0.407	-0.037	
7.315	-0.195	-0.044	
7.320	0.459	-0.055	
7.325	-0.255	-0.028	
7.330	-0.358	-0.029	
7.335	0.416	-0.050	
7.340	0.015	-0.028	
7.345	-0.435	-0.012	
7.350	0.148	-0.034	
7.355	0.384	-0.027	
7.360	-0.364	0.006	
7.365	-0.119	0.000	
7.370	0.608	-0.002	
7.375	-0.175	0.039	
7.380	-0.306	0.050	
7.385	0.526	0.034	
7.390	0.134	0.061	
7.395	-0.363	0.082	
7.400	0.302	0.064	
7.405	0.549	0.080	
7.410	-0.299	0.124	
7.415	-0.104	0.115	
7.420	0.591	0.094	
7.425	-0.177	0.108	
7.430	-0.296	0.092	
7.435	0.549	0.057	
7.440	0.181	0.075	
7.445	-0.342	0.096	
7.450	0.274	0.078	
7.455	0.498	0.088	
7.460	-0.335	0.119	
7.465	-0.139	0.098	
7.470	0.573	0.068	
7.475	-0.151	0.080	
7.480	-0.297	0.070	
7.485	0.538	0.043	
7.490	0.180	0.066	
7.495	-0.372	0.089	
7.500	0.189	0.067	
7.505	0.524	0.068	
7.510	-0.235	0.102	
7.515	0.078	0.106	
7.520	0.875	0.125	
7.525	-0.085	0.192	
7.530	-0.416	0.203	
7.535	-0.037	0.126	
7.540	-0.355	0.027	
7.545	-0.794	-0.098	
7.550	-0.407	-0.250	
7.555	-0.291	-0.366	
7.560	-0.764	-0.437	
7.565	-0.526	-0.499	
7.570	-0.031	-0.523	
7.575	-0.447	-0.486	
7.580	-0.563	-0.446	
7.585	-0.003	-0.417	
7.590	-0.188	-0.361	
7.595	-0.572	-0.310	
7.600	-0.146	-0.296	
7.605	0.037	-0.273	
7.610	-0.512	-0.238	
7.615	-0.337	-0.238	
7.620	0.099	-0.244	
7.625	-0.415	-0.228	
7.630	-0.541	-0.236	
7.635	-0.006	-0.266	
7.640	-0.200	-0.267	
7.645	-0.581	-0.263	
7.650	-0.142	-0.282	
7.655	0.070	-0.276	
7.660	-0.485	-0.245	
7.665	-0.299	-0.239	
7.670	0.293	-0.229	
7.675	-0.285	-0.182	
7.680	-0.433	-0.158	
7.685	0.245	-0.158	
7.690	-0.046	-0.129	
7.695	-0.491	-0.106	
7.700	-0.072	-0.126	
7.705	0.136	-0.136	
7.710	-0.503	-0.129	
7.715	-0.395	-0.161	
7.720	-0.034	-0.208	
7.725	-0.524	-0.238	
7.730	-0.675	-0.290	
7.735	-0.204	-0.358	
7.740	-0.380	-0.393	
7.745	-0.776	-0.418	
7.750	-0.401	-0.461	
7.755	-0.259	-0.481	
7.760	-0.735	-0.479	
7.765	-0.584	-0.496	
7.770	-0.188	-0.510	
7.775	-0.593	-0.494	
7.780	-0.730	-0.492	
7.785	-0.213	-0.505	
7.790	-0.352	-0.488	
7.795	-0.747	-0.466	
7.800	-0.357	-0.471	
7.805	-0.194	-0.463	
7.810	-0.665	-0.438	
7.815	-0.566	-0.442	
7.820	-0.166	-0.453	
7.825	-0.552	-0.441	
7.830	-0.703	-0.445	
7.835	-0.197	-0.464	
7.840	-0.325	-0.454	
7.845	-0.710	-0.437	
7.850	-0.308	-0.442	
7.855	-0.128	-0.431	
7.860	-0.651	-0.401	
7.865	-0.521	-0.403	
7.870	-0.102	-0.412	
7.875	-0.502	-0.397	
7.880	-0.646	-0.398	
7.885	-0.117	-0.413	
7.890	-0.238	-0.395	
7.895	-0.656	-0.372	
7.900	-0.282	-0.376	
7.905	-0.098	-0.369	
7.910	-0.607	-0.348	
7.915	-0.462	-0.355	
7.920	0.038	-0.362	
7.925	-0.409	-0.335	
7.930	-0.567	-0.322	
7.935	-0.046	-0.330	
7.940	-0.220	-0.313	
7.945	-0.639	-0.299	
7.950	-0.267	-0.318	
7.955	-0.108	-0.328	
7.960	-0.625	-0.324	
7.965	-0.517	-0.348	
7.970	-0.096	-0.377	
7.975	-0.505	-0.378	
7.980	-0.683	-0.391	
7.985	-0.183	-0.420	
7.990	-0.300	-0.419	
7.995	-0.694	-0.409	
8.000	-0.299	-0.421	
8.005	-0.137	-0.415	
8.010	-0.659	-0.392	
8.015	-0.552	-0.401	
8.020	-0.111	-0.418	
8.025	-0.454	-0.406	
8.030	-0.558	-0.398	
8.035	0.154	-0.386	
8.040	0.085	-0.316	
8.045	-0.425	-0.228	
8.050	-0.119	-0.184	
8.055	-0.131	-0.165	
8.060	-0.762	-0.178	
8.065	-0.726	-0.261	
8.070	-0.363	-0.373	
8.075	-0.707	-0.459	
8.080	-0.820	-0.536	
8.085	-0.209	-0.593	
8.090	-0.209	-0.578	
8.095	-0.582	-0.520	
8.100	-0.156	-0.466	
8.105	0.245	-0.384	
8.110	-0.424	-0.276	
8.115	-0.282	-0.213	
8.120	0.433	-0.169	
8.125	-0.210	-0.098	
8.130	-0.413	-0.064	
8.135	0.360	-0.067	
8.140	0.165	-0.034	
8.145	-0.410	0.001	
8.150	0.079	-0.008	
8.155	0.503	0.000	
8.160	-0.303	0.040	
8.165	-0.175	0.040	
8.170	0.611	0.030	
8.175	-0.082	0.064	
8.180	-0.294	0.076	
8.185	0.617	0.066	
8.190	0.471	0.113	
8.195	-0.241	0.177	
8.200	0.434	0.195	
8.205	0.864	0.237	
8.210	-0.114	0.308	
8.215	0.049	0.318	
8.220	0.898	0.305	
8.225	0.125	0.333	
8.230	-0.233	0.327	
8.235	0.625	0.277	
8.240	0.361	0.265	
8.245	-0.367	0.255	
8.250	0.079	0.190	
8.255	0.434	0.133	
8.260	-0.396	0.106	
8.265	-0.328	0.041	
8.270	0.329	-0.031	
8.275	-0.255	-0.058	
8.280	-0.468	-0.090	
8.285	0.268	-0.132	
8.290	0.120	-0.119	
8.295	-0.441	-0.088	
8.300	0.018	-0.091	
8.305	0.454	-0.073	
8.310	-0.334	-0.023	
8.315	-0.235	-0.015	
8.320	0.556	-0.020	
8.325	-0.107	0.017	
8.330	-0.335	0.032	
8.335	0.527	0.022	
8.340	0.401	0.065	
8.345	-0.303	0.121	
8.350	0.255	0.129	
8.355	0.698	0.150	
8.360	-0.230	0.199	
8.365	-0.154	0.190	
8.370	0.706	0.158	
8.375	0.046	0.173	
8.380	-0.274	0.173	
8.385	0.555	0.143	
8.390	0.418	0.160	
8.395	-0.299	0.189	
8.400	0.299	0.174	
8.405	0.799	0.185	
8.410	-0.140	0.237	
8.415	0.001	0.243	
8.420	0.947	0.239	
8.425	0.288	0.293	
8.430	-0.137	0.330	
8.435	0.887	0.328	
8.440	0.857	0.382	
8.445	0.018	0.459	
8.450	0.745	0.488	
8.455	1.165	0.535	
8.460	0.174	0.609	
8.465	0.335	0.619	
8.470	1.273	0.607	
8.475	0.547	0.647	
8.480	0.020	0.658	
8.485	1.044	0.617	
8.490	0.910	0.622	
8.495	-0.032	0.641	
8.500	0.657	0.601	
8.505	1.116	0.581	
8.510	0.064	0.600	
8.515	0.169	0.564	
8.520	1.122	0.513	
8.525	0.412	0.523	
8.530	-0.089	0.517	
8.535	0.910	0.472	
8.540	0.794	0.479	
8.545	-0.041	0.507	
8.550	0.800	0.497	
8.555	1.441	0.539	
8.560	0.610	0.658	
8.565	0.793	0.755	
8.570	1.494	0.833	
8.575	0.288	0.905	
8.580	-0.375	0.852	
8.585	0.130	0.653	
8.590	-0.053	0.427	
8.595	-0.502	0.215	
8.600	-0.011	0.022	
8.605	0.677	-0.070	
8.610	-0.107	-0.045	
8.615	0.102	0.001	
8.620	1.165	0.082	
8.625	0.474	0.241	
8.630	-0.027	0.371	
8.635	0.995	0.431	
8.640	0.927	0.515	
8.645	-0.021	0.591	
8.650	0.666	0.591	
8.655	1.178	0.597	
8.660	0.152	0.636	
8.665	0.258	0.618	
8.670	1.238	0.583	
8.675	0.565	0.611	
8.680	0.027	0.622	
8.685	1.046	0.590	
8.690	1.018	0.610	
8.695	0.058	0.652	
8.700	0.729	0.638	
8.705	1.265	0.642	
8.710	0.273	0.688	
8.715	0.390	0.686	
8.720	1.384	0.670	
8.725	0.716	0.718	
8.730	0.097	0.743	
8.735	1.108	0.712	
8.740	1.014	0.718	
8.745	-0.009	0.733	
8.750	0.596	0.679	
8.755	1.073	0.631	
8.760	-0.034	0.616	
8.765	-0.067	0.538	
8.770	0.793	0.429	
8.775	0.072	0.370	
8.780	-0.317	0.301	
8.785	0.421	0.205	
8.790	0.320	0.159	
8.795	-0.406	0.137	
8.800	-0.070	0.075	
8.805	0.428	0.025	
8.810	-0.337	0.017	
8.815	-0.317	-0.016	
8.820	0.380	-0.057	
8.825	-0.169	-0.054	
8.830	-0.460	-0.062	
8.835	0.195	-0.096	
8.840	0.160	-0.090	
8.845	-0.464	-0.069	
8.850	-0.156	-0.088	
8.855	0.332	-0.102	
8.860	-0.374	-0.083	
8.865	-0.358	-0.095	
8.870	0.351	-0.117	
8.875	-0.180	-0.099	
8.880	-0.476	-0.094	
8.885	0.136	-0.120	
8.890	0.090	-0.116	
8.895	-0.500	-0.101	
8.900	-0.209	-0.127	
8.905	0.192	-0.150	
8.910	-0.439	-0.145	
8.915	-0.448	-0.169	
8.920	0.171	-0.203	
8.925	-0.296	-0.201	
8.930	-0.595	-0.210	
8.935	-0.087	-0.248	
8.940	-0.072	-0.260	
8.945	-0.582	-0.255	
8.950	-0.294	-0.276	
8.955	0.122	-0.284	
8.960	-0.460	-0.259	
8.965	-0.457	-0.257	
8.970	0.218	-0.262	
8.975	-0.213	-0.227	
8.980	-0.508	-0.201	
8.985	0.050	-0.205	
8.990	0.020	-0.188	
8.995	-0.540	-0.165	
9.000	-0.271	-0.185	
9.005	0.064	-0.207	
9.010	-0.528	-0.211	
9.015	-0.570	-0.246	
9.020	-0.026	-0.296	
9.025	-0.348	-0.311	
9.030	-0.672	-0.325	
9.035	-0.180	-0.358	
9.040	-0.139	-0.363	
9.045	-0.631	-0.348	
9.050	-0.314	-0.356	
9.055	0.099	-0.347	
9.060	-0.464	-0.306	
9.065	-0.457	-0.288	
9.070	0.215	-0.280	
9.075	-0.195	-0.235	
9.080	-0.450	-0.198	
9.085	0.445	-0.173	
9.090	0.768	-0.073	
9.095	-0.003	0.081	
9.100	0.742	0.211	
9.105	1.107	0.355	
9.110	-0.311	0.483	
9.115	-0.564	0.453	
9.120	-0.198	0.279	
9.125	-0.502	0.074	
9.130	-0.736	-0.129	
9.135	-0.095	-0.301	
9.140	0.277	-0.360	
9.145	-0.288	-0.314	
9.150	0.285	-0.235	
9.155	1.102	-0.088	
9.160	0.201	0.124	
9.165	0.184	0.284	
9.170	1.248	0.394	
9.175	0.729	0.532	
9.180	0.052	0.630	
9.185	1.005	0.646	
9.190	1.021	0.677	
9.195	-0.006	0.708	
9.200	0.546	0.664	
9.205	1.198	0.625	
9.210	0.244	0.638	
9.215	0.197	0.613	
9.220	1.255	0.575	
9.225	0.780	0.611	
9.230	0.148	0.653	
9.235	1.154	0.656	
9.240	1.271	0.708	
9.245	0.280	0.787	
9.250	0.869	0.805	
9.255	1.598	0.832	
9.260	0.608	0.907	
9.265	0.466	0.928	
9.270	1.492	0.907	
9.275	0.947	0.932	
9.280	0.229	0.939	
9.285	1.133	0.887	
9.290	1.149	0.865	
9.295	0.040	0.855	
9.300	0.448	0.770	
9.305	1.021	0.676	
9.310	0.011	0.620	
9.315	-0.108	0.522	
9.320	0.814	0.405	
9.325	0.287	0.356	
9.330	-0.262	0.318	
9.335	0.532	0.255	
9.340	0.613	0.241	
9.345	-0.253	0.260	
9.350	0.072	0.229	
9.355	0.770	0.202	
9.360	-0.108	0.221	
9.365	-0.188	0.206	
9.370	0.719	0.172	
9.375	0.227	0.191	
9.380	-0.282	0.207	
9.385	0.457	0.182	
9.390	0.593	0.192	
9.395	-0.258	0.226	
9.400	0.061	0.207	
9.405	0.741	0.188	
9.410	-0.143	0.208	
9.415	-0.223	0.190	
9.420	0.652	0.149	
9.425	0.155	0.159	
9.430	-0.322	0.164	
9.435	0.412	0.132	
9.440	0.546	0.141	
9.445	-0.291	0.175	
9.450	-0.014	0.157	
9.455	0.700	0.137	
9.460	-0.134	0.159	
9.465	-0.213	0.151	
9.470	0.692	0.125	
9.475	0.270	0.156	
9.480	-0.255	0.187	
9.485	0.530	0.181	
9.490	0.706	0.215	
9.495	-0.191	0.273	
9.500	0.189	0.274	
9.505	0.941	0.277	
9.510	-0.002	0.322	
9.515	-0.130	0.322	
9.520	0.811	0.288	
9.525	0.331	0.302	
9.530	-0.271	0.309	
9.535	0.376	0.263	
9.540	0.477	0.236	
9.545	-0.313	0.226	
9.550	-0.075	0.169	
9.555	0.643	0.118	
9.560	-0.149	0.121	
9.565	-0.252	0.104	
9.570	0.645	0.076	
9.575	0.216	0.106	
9.580	-0.290	0.138	
9.585	0.384	0.129	
9.590	0.524	0.147	
9.595	-0.308	0.181	
9.600	-0.064	0.157	
9.605	0.674	0.127	
9.610	-0.082	0.144	
9.615	-0.133	0.144	
9.620	0.977	0.146	
9.625	0.605	0.232	
9.630	-0.192	0.323	
9.635	0.160	0.326	
9.640	-0.061	0.271	
9.645	-0.730	0.161	
9.650	-0.593	-0.020	
9.655	-0.253	-0.205	
9.660	-0.660	-0.340	
9.665	-0.685	-0.447	
9.670	-0.014	-0.512	
9.675	-0.124	-0.488	
9.680	-0.441	-0.418	
9.685	0.180	-0.345	
9.690	0.456	-0.228	
9.695	-0.296	-0.092	
9.700	-0.064	-0.017	
9.705	0.675	0.035	
9.710	-0.137	0.106	
9.715	-0.250	0.129	
9.720	0.616	0.115	
9.725	0.207	0.142	
9.730	-0.308	0.163	
9.735	0.376	0.141	
9.740	0.631	0.154	
9.745	-0.232	0.197	
9.750	0.030	0.191	
9.755	0.849	0.184	
9.760	0.015	0.227	
9.765	-0.130	0.241	
9.770	0.921	0.234	
9.775	0.562	0.293	
9.780	-0.145	0.355	
9.785	0.640	0.363	
9.790	0.852	0.391	
9.795	-0.146	0.434	
9.800	0.128	0.407	
9.805	0.873	0.364	
9.810	-0.038	0.360	
9.815	-0.244	0.318	
9.820	0.538	0.238	
9.825	0.105	0.199	
9.830	-0.406	0.158	
9.835	0.084	0.081	
9.840	0.251	0.028	
9.845	-0.451	0.003	
9.850	-0.285	-0.053	
9.855	0.241	-0.106	
9.860	-0.380	-0.122	
9.865	-0.540	-0.156	
9.870	0.018	-0.210	
9.875	-0.210	-0.231	
9.880	-0.611	-0.245	
9.885	-0.209	-0.283	
9.890	-0.087	-0.301	
9.895	-0.602	-0.299	
9.900	-0.425	-0.323	
9.905	0.001	-0.342	
9.910	-0.465	-0.329	
9.915	-0.593	-0.332	
9.920	-0.052	-0.351	
9.925	-0.239	-0.339	
9.930	-0.616	-0.323	
9.935	-0.169	-0.331	
9.940	-0.020	-0.319	
9.945	-0.549	-0.289	
9.950	-0.364	-0.290	
9.955	0.146	-0.289	
9.960	-0.387	-0.256	
9.965	-0.535	-0.246	
9.970	0.029	-0.262	
9.975	-0.177	-0.252	
9.980	-0.610	-0.243	
9.985	-0.198	-0.268	
9.990	-0.009	-0.277	
9.995	-0.531	-0.265	
10.000	-0.383	-0.277	
10.005	0.094	-0.288	
10.010	-0.399	-0.267	
10.015	-0.520	-0.264	
10.020	0.102	-0.276	
10.025	-0.125	-0.251	
10.030	-0.540	-0.224	
10.035	-0.125	-0.231	
10.040	0.123	-0.222	
10.045	-0.464	-0.193	
10.050	-0.290	-0.193	
10.055	0.308	-0.192	
10.060	-0.302	-0.154	
10.065	-0.468	-0.143	
10.070	0.139	-0.162	
10.075	-0.139	-0.156	
10.080	-0.564	-0.157	
10.085	-0.162	-0.194	
10.090	-0.032	-0.219	
10.095	-0.595	-0.229	
10.100	-0.456	-0.269	
10.105	0.001	-0.308	
10.110	-0.444	-0.312	
10.115	-0.578	-0.324	
10.120	-0.050	-0.346	
10.125	-0.210	-0.334	
10.130	-0.611	-0.317	
10.135	-0.203	-0.325	
10.140	0.008	-0.316	
10.145	-0.534	-0.286	
10.150	-0.366	-0.285	
10.155	0.300	-0.276	
10.160	-0.207	-0.219	
10.165	-0.296	-0.170	
10.170	0.610	-0.123	
10.175	0.253	-0.023	
10.180	-0.494	0.059	
10.185	-0.281	0.042	
10.190	-0.236	-0.034	
10.195	-0.796	-0.137	
10.200	-0.714	-0.279	
10.205	-0.296	-0.414	
10.210	-0.605	-0.492	
10.215	-0.694	-0.541	
10.220	-0.082	-0.561	
10.225	-0.137	-0.513	
10.230	-0.514	-0.435	
10.235	-0.041	-0.372	
10.240	0.338	-0.284	
10.245	-0.370	-0.177	
10.250	-0.241	-0.121	
10.255	0.430	-0.090	
10.260	-0.220	-0.040	
10.265	-0.399	-0.027	
10.270	0.361	-0.046	
10.275	0.119	-0.026	
10.280	-0.393	-0.002	
10.285	0.050	-0.019	
10.290	0.369	-0.020	
10.295	-0.340	0.004	
10.300	-0.183	-0.008	
10.305	0.572	-0.018	
10.310	-0.146	0.017	
10.315	-0.320	0.030	
10.320	0.503	0.017	
10.325	0.293	0.053	
10.330	-0.308	0.097	
10.335	0.264	0.098	
10.340	0.698	0.123	
10.345	-0.153	0.182	
10.350	0.056	0.198	
10.355	0.916	0.210	
10.360	0.110	0.269	
10.365	-0.203	0.292	
10.370	0.669	0.266	
10.375	0.341	0.273	
10.380	-0.352	0.272	
10.385	0.094	0.209	
10.390	0.418	0.151	
10.395	-0.363	0.121	
10.400	-0.285	0.056	
10.405	0.279	-0.016	
10.410	-0.294	-0.050	
10.415	-0.509	-0.095	
10.420	0.059	-0.157	
10.425	-0.113	-0.182	
10.430	-0.553	-0.194	
10.435	-0.186	-0.229	
10.440	0.094	-0.242	
10.445	-0.489	-0.226	
10.450	-0.377	-0.235	
10.455	0.190	-0.245	
10.460	-0.311	-0.218	
10.465	-0.514	-0.209	
10.470	0.062	-0.224	
10.475	-0.104	-0.213	
10.480	-0.531	-0.200	
10.485	-0.133	-0.216	
10.490	0.229	-0.210	
10.495	-0.439	-0.174	
10.500	-0.354	-0.170	
10.505	0.235	-0.179	
10.510	-0.271	-0.158	
10.515	-0.459	-0.153	
10.520	0.072	-0.174	
10.525	-0.114	-0.173	
10.530	-0.555	-0.173	
10.535	-0.168	-0.205	
10.540	0.165	-0.217	
10.545	-0.457	-0.196	
10.550	-0.357	-0.201	
10.555	0.294	-0.207	
10.560	-0.236	-0.171	
10.565	-0.438	-0.151	
10.570	0.242	-0.153	
10.575	0.120	-0.118	
10.580	-0.436	-0.077	
10.585	-0.024	-0.078	
10.590	0.378	-0.070	
10.595	-0.339	-0.034	
10.600	-0.230	-0.035	
10.605	0.477	-0.044	
10.610	-0.185	-0.015	
10.615	-0.422	-0.013	
10.620	0.218	-0.047	
10.625	0.018	-0.053	
10.630	-0.506	-0.058	
10.635	-0.148	-0.103	
10.640	0.189	-0.134	
10.645	-0.441	-0.134	
10.650	-0.360	-0.158	
10.655	0.262	-0.182	
10.660	-0.255	-0.165	
10.665	-0.473	-0.159	
10.670	0.165	-0.174	
10.675	0.072	-0.153	
10.680	-0.416	-0.119	
10.685	-0.052	-0.118	
10.690	0.283	-0.107	
10.695	-0.399	-0.076	
10.700	-0.291	-0.084	
10.705	0.584	-0.091	
10.710	0.024	-0.036	
10.715	-0.217	0.017	
10.720	0.666	0.052	
10.725	0.363	0.127	
10.730	-0.468	0.184	
10.735	-0.235	0.140	
10.740	-0.055	0.047	
10.745	-0.611	-0.051	
10.750	-0.549	-0.175	
10.755	0.012	-0.281	
10.760	-0.302	-0.320	
10.765	-0.433	-0.327	
10.770	0.383	-0.307	
10.775	0.366	-0.208	
10.780	-0.287	-0.083	
10.785	0.274	-0.003	
10.790	0.785	0.085	
10.795	-0.117	0.193	
10.800	-0.037	0.234	
10.805	0.826	0.240	
10.810	0.210	0.283	
10.815	-0.191	0.301	
10.820	0.683	0.278	
10.825	0.637	0.299	
10.830	-0.159	0.337	
10.835	0.454	0.329	
10.840	0.956	0.343	
10.845	0.017	0.397	
10.850	0.145	0.402	
10.855	1.047	0.393	
10.860	0.424	0.439	
10.865	-0.006	0.468	
10.870	1.024	0.462	
10.875	0.966	0.512	
10.880	0.091	0.583	
10.885	0.703	0.596	
10.890	1.052	0.610	
10.895	0.014	0.634	
10.900	0.052	0.581	
10.905	0.861	0.493	
10.910	0.151	0.448	
10.915	-0.281	0.383	
10.920	0.431	0.282	
10.925	0.261	0.219	
10.930	-0.407	0.173	
10.935	-0.079	0.089	
10.940	0.370	0.022	
10.945	-0.348	-0.000	
10.950	-0.325	-0.041	
10.955	0.337	-0.084	
10.960	-0.203	-0.083	
10.965	-0.453	-0.091	
10.970	0.223	-0.119	
10.975	0.081	-0.108	
10.980	-0.460	-0.086	
10.985	-0.099	-0.102	
10.990	0.401	-0.104	
10.995	-0.325	-0.068	
11.000	-0.296	-0.063	
11.005	0.415	-0.072	
11.010	-0.131	-0.044	
11.015	-0.396	-0.034	
11.020	0.305	-0.051	
11.025	0.265	-0.028	
11.030	-0.392	0.009	
11.035	-0.049	-0.001	
11.040	0.433	-0.008	
11.045	-0.305	0.014	
11.050	-0.281	0.001	
11.055	0.453	-0.025	
11.060	-0.120	-0.010	
11.065	-0.416	-0.010	
11.070	0.229	-0.041	
11.075	0.149	-0.041	
11.080	-0.430	-0.028	
11.085	-0.104	-0.055	
11.090	0.395	-0.069	
11.095	-0.337	-0.047	
11.100	-0.328	-0.055	
11.105	0.372	-0.078	
11.110	-0.145	-0.062	
11.115	-0.435	-0.059	
11.120	0.210	-0.084	
11.125	0.184	-0.073	
11.130	-0.435	-0.047	
11.135	-0.107	-0.062	
11.140	0.404	-0.070	
11.145	-0.326	-0.043	
11.150	-0.313	-0.048	
11.155	0.442	-0.065	
11.160	-0.104	-0.040	
11.165	-0.401	-0.028	
11.170	0.300	-0.045	
11.175	0.287	-0.022	
11.180	-0.401	0.015	
11.185	-0.114	0.001	
11.190	0.341	-0.019	
11.195	-0.354	-0.016	
11.200	-0.374	-0.045	
11.205	0.203	-0.093	
11.210	-0.294	-0.111	
11.215	-0.593	-0.145	
11.220	-0.114	-0.208	
11.225	-0.134	-0.245	
11.230	-0.604	-0.264	
11.235	-0.303	-0.300	
11.240	0.079	-0.315	
11.245	-0.464	-0.292	
11.250	-0.453	-0.287	
11.255	0.148	-0.288	
11.260	-0.249	-0.254	
11.265	-0.520	-0.230	
11.270	0.067	-0.233	
11.275	0.130	-0.203	
11.280	-0.409	-0.154	
11.285	0.021	-0.133	
11.290	0.761	-0.080	
11.295	-0.178	0.024	
11.300	-0.337	0.074	
11.305	-0.005	0.045	
11.310	-0.460	-0.015	
11.315	-0.814	-0.121	
11.320	-0.384	-0.266	
11.325	-0.329	-0.376	
11.330	-0.715	-0.442	
11.335	-0.326	-0.489	
11.340	0.244	-0.474	
11.345	-0.343	-0.387	
11.350	-0.326	-0.309	
11.355	0.482	-0.237	
11.360	-0.006	-0.129	
11.365	-0.363	-0.047	
11.370	0.370	-0.015	
11.375	0.454	0.042	
11.380	-0.303	0.107	
11.385	0.015	0.113	
11.390	0.581	0.110	
11.395	-0.241	0.131	
11.400	-0.285	0.108	
11.405	0.503	0.063	
11.410	-0.002	0.062	
11.415	-0.366	0.057	
11.420	0.319	0.024	
11.425	0.408	0.035	
11.430	-0.310	0.072	
11.435	0.067	0.070	
11.440	0.730	0.082	
11.445	-0.117	0.138	
11.450	-0.134	0.156	
11.455	0.790	0.155	
11.460	0.265	0.205	
11.465	-0.236	0.242	
11.470	0.520	0.229	
11.475	0.520	0.242	
11.480	-0.305	0.262	
11.485	-0.003	0.219	
11.490	0.579	0.169	
11.495	-0.247	0.156	
11.500	-0.328	0.109	
11.505	0.361	0.041	
11.510	-0.143	0.012	
11.515	-0.491	-0.024	
11.520	0.052	-0.087	
11.525	0.133	-0.113	
11.530	-0.464	-0.112	
11.535	-0.212	-0.137	
11.540	0.309	-0.151	
11.545	-0.360	-0.128	
11.550	-0.412	-0.131	
11.555	0.294	-0.149	
11.560	-0.145	-0.129	
11.565	-0.488	-0.118	
11.570	0.093	-0.138	
11.575	0.192	-0.127	
11.580	-0.460	-0.098	
11.585	-0.212	-0.109	
11.590	0.326	-0.120	
11.595	-0.354	-0.099	
11.600	-0.418	-0.108	
11.605	0.273	-0.134	
11.610	-0.128	-0.122	
11.615	-0.460	-0.115	
11.620	0.116	-0.133	
11.625	0.248	-0.116	
11.630	-0.436	-0.078	
11.635	-0.185	-0.083	
11.640	0.384	-0.089	
11.645	-0.302	-0.063	
11.650	-0.366	-0.065	
11.655	0.369	-0.085	
11.660	-0.047	-0.064	
11.665	-0.425	-0.049	
11.670	0.163	-0.066	
11.675	0.283	-0.054	
11.680	-0.412	-0.024	
11.685	-0.174	-0.037	
11.690	0.410	-0.053	
11.695	-0.287	-0.034	
11.700	-0.349	-0.043	
11.705	0.448	-0.064	
11.710	0.012	-0.036	
11.715	-0.412	-0.013	
11.720	0.213	-0.027	
11.725	0.366	-0.011	
11.730	-0.367	0.025	
11.735	-0.105	0.017	
11.740	0.573	0.009	
11.745	-0.223	0.041	
11.750	-0.320	0.041	
11.755	0.483	0.016	
11.760	0.037	0.032	
11.765	-0.401	0.041	
11.770	0.229	0.013	
11.775	0.390	0.018	
11.780	-0.366	0.046	
11.785	-0.148	0.029	
11.790	0.498	0.008	
11.795	-0.261	0.023	
11.800	-0.357	0.009	
11.805	0.459	-0.024	
11.810	0.067	-0.006	
11.815	-0.401	0.012	
11.820	0.203	-0.005	
11.825	0.399	0.005	
11.830	-0.351	0.040	
11.835	-0.102	0.031	
11.840	0.625	0.024	
11.845	-0.101	0.064	
11.850	-0.113	0.087	
11.855	1.056	0.115	
11.860	0.770	0.236	
11.865	-0.075	0.368	
11.870	0.384	0.411	
11.875	0.090	0.393	
11.880	-0.681	0.306	
11.885	-0.572	0.122	
11.890	-0.197	-0.085	
11.895	-0.560	-0.241	
11.900	-0.547	-0.359	
11.905	0.309	-0.413	
11.910	0.075	-0.357	
11.915	-0.343	-0.258	
11.920	0.376	-0.172	
11.925	0.628	-0.051	
11.930	-0.250	0.082	
11.935	0.027	0.140	
11.940	0.764	0.168	
11.945	-0.124	0.217	
11.950	-0.273	0.213	
11.955	0.546	0.165	
11.960	0.091	0.154	
11.965	-0.403	0.134	
11.970	0.165	0.075	
11.975	0.427	0.048	
11.980	-0.346	0.057	
11.985	-0.137	0.032	
11.990	0.582	0.012	
11.995	-0.175	0.040	
12.000	-0.273	0.044	
12.005	0.663	0.035	
12.010	0.294	0.086	
12.015	-0.303	0.140	
12.020	0.410	0.144	
12.025	0.672	0.175	
12.030	-0.233	0.228	
12.035	-0.002	0.221	
12.040	0.764	0.201	
12.045	-0.134	0.219	
12.050	-0.308	0.196	
12.055	0.479	0.136	
12.060	0.044	0.113	
12.065	-0.454	0.086	
12.070	0.023	0.018	
12.075	0.233	-0.027	
12.080	-0.473	-0.043	
12.085	-0.311	-0.090	
12.090	0.248	-0.136	
12.095	-0.360	-0.141	
12.100	-0.492	-0.162	
12.105	0.168	-0.197	
12.110	-0.130	-0.191	
12.115	-0.538	-0.182	
12.120	-0.079	-0.203	
12.125	0.210	-0.198	
12.130	-0.457	-0.165	
12.135	-0.279	-0.163	
12.140	0.305	-0.165	
12.145	-0.326	-0.135	
12.150	-0.477	-0.134	
12.155	0.241	-0.156	
12.160	-0.049	-0.141	
12.165	-0.479	-0.122	
12.170	0.020	-0.136	
12.175	0.322	-0.124	
12.180	-0.410	-0.083	
12.185	-0.238	-0.081	
12.190	0.472	-0.085	
12.195	-0.235	-0.049	
12.200	-0.389	-0.040	
12.205	0.412	-0.056	
12.210	0.116	-0.028	
12.215	-0.419	0.001	
12.220	0.143	-0.012	
12.225	0.479	0.000	
12.230	-0.352	0.041	
12.235	-0.221	0.032	
12.240	0.512	0.009	
12.245	-0.200	0.024	
12.250	-0.352	0.016	
12.255	0.476	-0.011	
12.260	0.155	0.013	
12.265	-0.395	0.040	
12.270	0.192	0.026	
12.275	0.518	0.037	
12.280	-0.310	0.079	
12.285	-0.108	0.075	
12.290	0.736	0.069	
12.295	-0.040	0.114	
12.300	-0.238	0.135	
12.305	0.748	0.131	
12.310	0.476	0.185	
12.315	-0.224	0.245	
12.320	0.520	0.255	
12.325	0.857	0.290	
12.330	-0.134	0.350	
12.335	0.134	0.349	
12.340	0.997	0.336	
12.345	0.134	0.372	
12.350	-0.183	0.371	
12.355	0.761	0.326	
12.360	0.428	0.326	
12.365	-0.285	0.327	
12.370	0.331	0.276	
12.375	0.665	0.248	
12.380	-0.258	0.253	
12.385	-0.113	0.210	
12.390	0.719	0.162	
12.395	-0.058	0.166	
12.400	-0.255	0.154	
12.405	0.678	0.125	
12.410	0.448	0.159	
12.415	-0.255	0.207	
12.420	0.466	0.211	
12.425	0.869	0.246	
12.430	-0.047	0.317	
12.435	0.416	0.348	
12.440	1.534	0.406	
12.445	0.992	0.566	
12.450	0.678	0.734	
12.455	1.422	0.855	
12.460	0.576	0.946	
12.465	-0.406	0.916	
12.470	-0.082	0.718	
12.475	0.155	0.469	
12.480	-0.459	0.249	
12.485	-0.218	0.050	
12.490	0.762	-0.064	
12.495	0.226	-0.037	
12.500	0.026	0.040	
12.505	1.206	0.139	
12.510	1.037	0.322	
12.515	0.160	0.512	
12.520	1.008	0.619	
12.525	1.399	0.723	
12.530	0.334	0.832	
12.535	0.576	0.853	
12.540	1.456	0.842	
12.545	0.674	0.873	
12.550	0.223	0.867	
12.555	1.281	0.815	
12.560	1.075	0.817	
12.565	0.204	0.834	
12.570	1.006	0.804	
12.575	1.425	0.809	
12.580	0.421	0.859	
12.585	0.691	0.862	
12.590	1.555	0.859	
12.595	0.805	0.911	
12.600	0.425	0.935	
12.605	1.512	0.920	
12.610	1.312	0.962	
12.615	0.413	1.016	
12.620	1.215	1.009	
12.625	1.622	1.026	
12.630	0.520	1.074	
12.635	0.657	1.053	
12.640	1.485	1.001	
12.645	0.662	0.989	
12.650	0.134	0.936	
12.655	1.096	0.831	
12.660	0.844	0.772	
12.665	-0.107	0.724	
12.670	0.547	0.621	
12.675	0.951	0.546	
12.680	-0.085	0.517	
12.685	0.038	0.445	
12.690	0.921	0.370	
12.695	0.160	0.358	
12.700	-0.183	0.336	
12.705	0.759	0.288	
12.710	0.585	0.300	
12.715	-0.186	0.331	
12.720	0.450	0.316	
12.725	0.866	0.323	
12.730	-0.134	0.361	
12.735	-0.046	0.339	
12.740	0.852	0.294	
12.745	0.134	0.301	
12.750	-0.185	0.292	
12.755	0.713	0.255	
12.760	0.492	0.270	
12.765	-0.250	0.295	
12.770	0.331	0.267	
12.775	0.776	0.259	
12.780	-0.146	0.287	
12.785	-0.029	0.269	
12.790	0.873	0.241	
12.795	0.145	0.269	
12.800	-0.200	0.278	
12.805	0.700	0.251	
12.810	0.527	0.271	
12.815	-0.224	0.302	
12.820	0.346	0.281	
12.825	0.820	0.278	
12.830	-0.140	0.310	
12.835	-0.070	0.291	
12.840	0.809	0.252	
12.845	0.097	0.262	
12.850	-0.223	0.255	
12.855	0.660	0.219	
12.860	0.494	0.234	
12.865	-0.244	0.263	
12.870	0.299	0.243	
12.875	0.750	0.239	
12.880	-0.160	0.269	
12.885	-0.101	0.249	
12.890	0.753	0.211	
12.895	0.035	0.220	
12.900	-0.249	0.210	
12.905	0.620	0.174	
12.910	0.460	0.191	
12.915	-0.267	0.223	
12.920	0.216	0.204	
12.925	0.680	0.196	
12.930	-0.185	0.220	
12.935	-0.105	0.201	
12.940	0.687	0.168	
12.945	0.014	0.180	
12.950	-0.276	0.173	
12.955	0.469	0.134	
12.960	0.315	0.136	
12.965	-0.343	0.146	
12.970	0.079	0.111	
12.975	0.572	0.091	
12.980	-0.241	0.110	
12.985	-0.174	0.095	
12.990	0.639	0.072	
12.995	-0.038	0.097	
13.000	-0.316	0.103	
13.005	0.448	0.076	
13.010	0.329	0.091	
13.015	-0.334	0.117	
13.020	0.052	0.095	
13.025	0.469	0.078	
13.030	-0.305	0.087	
13.035	-0.253	0.057	
13.040	0.457	0.015	
13.045	-0.130	0.017	
13.050	-0.399	0.005	
13.055	0.258	-0.033	
13.060	0.163	-0.032	
13.065	-0.418	-0.019	
13.070	-0.061	-0.042	
13.075	0.424	-0.051	
13.080	-0.311	-0.024	
13.085	-0.259	-0.028	
13.090	0.457	-0.042	
13.095	-0.125	-0.016	
13.100	-0.396	-0.009	
13.105	0.232	-0.036	
13.110	0.134	-0.033	
13.115	-0.432	-0.023	
13.120	-0.105	-0.052	
13.125	0.296	-0.072	
13.130	-0.378	-0.064	
13.135	-0.332	-0.085	
13.140	0.326	-0.113	
13.145	-0.174	-0.099	
13.150	-0.448	-0.095	
13.155	0.183	-0.117	
13.160	0.128	-0.104	
13.165	-0.433	-0.078	
13.170	-0.098	-0.090	
13.175	0.341	-0.092	
13.180	-0.346	-0.065	
13.185	-0.316	-0.071	
13.190	0.361	-0.089	
13.195	-0.140	-0.069	
13.200	-0.406	-0.062	
13.205	0.184	-0.082	
13.210	0.075	-0.075	
13.215	-0.464	-0.064	
13.220	-0.145	-0.093	
13.225	0.277	-0.112	
13.230	-0.416	-0.101	
13.235	-0.425	-0.122	
13.240	0.134	-0.162	
13.245	-0.268	-0.172	
13.250	-0.564	-0.189	
13.255	-0.067	-0.231	
13.260	-0.085	-0.244	
13.265	-0.563	-0.243	
13.270	-0.268	-0.266	
13.275	0.072	-0.275	
13.280	-0.451	-0.256	
13.285	-0.416	-0.257	
13.290	0.352	-0.253	
13.295	-0.060	-0.193	
13.300	-0.310	-0.132	
13.305	0.376	-0.092	
13.310	0.099	-0.030	
13.315	-0.617	0.004	
13.320	-0.439	-0.053	
13.325	-0.256	-0.152	
13.330	-0.782	-0.252	
13.335	-0.787	-0.376	
13.340	-0.273	-0.488	
13.345	-0.486	-0.537	
13.350	-0.671	-0.551	
13.355	-0.095	-0.544	
13.360	-0.032	-0.482	
13.365	-0.528	-0.394	
13.370	-0.210	-0.338	
13.375	0.247	-0.280	
13.380	-0.386	-0.205	
13.385	-0.375	-0.172	
13.390	0.314	-0.161	
13.395	-0.153	-0.122	
13.400	-0.445	-0.100	
13.405	0.140	-0.113	
13.410	0.140	-0.099	
13.415	-0.451	-0.076	
13.420	-0.113	-0.090	
13.425	0.381	-0.095	
13.430	-0.325	-0.064	
13.435	-0.311	-0.064	
13.440	0.434	-0.076	
13.445	-0.095	-0.046	
13.450	-0.389	-0.030	
13.455	0.306	-0.042	
13.460	0.338	-0.015	
13.465	-0.337	0.031	
13.470	0.011	0.033	
13.475	0.587	0.041	
13.480	-0.230	0.081	
13.485	-0.279	0.078	
13.490	0.418	0.046	
13.495	-0.140	0.040	
13.500	-0.476	0.015	
13.505	0.064	-0.048	
13.510	0.020	-0.085	
13.515	-0.566	-0.109	
13.520	-0.325	-0.167	
13.525	-0.027	-0.222	
13.530	-0.544	-0.251	
13.535	-0.564	-0.296	
13.540	-0.084	-0.345	
13.545	-0.386	-0.357	
13.550	-0.691	-0.368	
13.555	-0.233	-0.398	
13.560	-0.213	-0.403	
13.565	-0.698	-0.393	
13.570	-0.432	-0.410	
13.575	-0.107	-0.420	
13.580	-0.599	-0.404	
13.585	-0.634	-0.412	
13.590	-0.140	-0.432	
13.595	-0.393	-0.423	
13.600	-0.683	-0.414	
13.605	-0.215	-0.425	
13.610	-0.171	-0.411	
13.615	-0.662	-0.384	
13.620	-0.413	-0.388	
13.625	-0.063	-0.390	
13.630	-0.549	-0.369	
13.635	-0.576	-0.371	
13.640	-0.067	-0.385	
13.645	-0.349	-0.370	
13.650	-0.653	-0.359	
13.655	-0.185	-0.373	
13.660	-0.163	-0.365	
13.665	-0.651	-0.348	
13.670	-0.403	-0.361	
13.675	-0.035	-0.370	
13.680	-0.540	-0.353	
13.685	-0.595	-0.358	
13.690	-0.067	-0.377	
13.695	-0.355	-0.367	
13.700	-0.662	-0.361	
13.705	-0.198	-0.378	
13.710	-0.149	-0.372	
13.715	-0.628	-0.353	
13.720	-0.375	-0.360	
13.725	0.009	-0.360	
13.730	-0.494	-0.333	
13.735	-0.535	-0.328	
13.740	0.038	-0.336	
13.745	-0.230	-0.309	
13.750	-0.494	-0.281	
13.755	0.084	-0.268	
13.760	0.255	-0.215	
13.765	-0.416	-0.142	
13.770	-0.166	-0.114	
13.775	0.398	-0.095	
13.780	-0.297	-0.053	
13.785	-0.348	-0.048	
13.790	0.413	-0.063	
13.795	-0.041	-0.039	
13.800	-0.433	-0.024	
13.805	0.145	-0.048	
13.810	0.255	-0.046	
13.815	-0.412	-0.025	
13.820	-0.159	-0.044	
13.825	0.408	-0.060	
13.830	-0.326	-0.041	
13.835	-0.412	-0.055	
13.840	0.258	-0.092	
13.845	-0.145	-0.096	
13.850	-0.492	-0.104	
13.855	0.014	-0.140	
13.860	0.145	-0.147	
13.865	-0.471	-0.131	
13.870	-0.232	-0.146	
13.875	0.293	-0.157	
13.880	-0.331	-0.132	
13.885	-0.410	-0.131	
13.890	0.251	-0.148	
13.895	-0.142	-0.131	
13.900	-0.483	-0.123	
13.905	0.081	-0.143	
13.910	0.209	-0.132	
13.915	-0.441	-0.100	
13.920	-0.195	-0.105	
13.925	0.398	-0.109	
13.930	-0.299	-0.076	
13.935	-0.360	-0.072	
13.940	0.401	-0.085	
13.945	-0.047	-0.058	
13.950	-0.432	-0.039	
13.955	0.177	-0.057	
13.960	0.380	-0.041	
13.965	-0.364	0.001	
13.970	-0.079	0.001	
13.975	0.590	0.004	
13.980	-0.201	0.047	
13.985	-0.293	0.054	
13.990	0.523	0.035	
13.995	0.084	0.058	
14.000	-0.367	0.074	
14.005	0.297	0.051	
14.010	0.434	0.061	
14.015	-0.329	0.094	
14.020	-0.073	0.078	
14.025	0.565	0.061	
14.030	-0.204	0.080	
14.035	-0.293	0.069	
14.040	0.544	0.039	
14.045	0.154	0.061	
14.050	-0.329	0.085	
14.055	0.404	0.076	
14.060	0.680	0.111	
14.065	-0.120	0.184	
14.070	0.474	0.228	
14.075	1.346	0.308	
14.080	0.492	0.459	
14.085	0.091	0.560	
14.090	0.762	0.573	
14.095	0.094	0.553	
14.100	-0.476	0.462	
14.105	-0.107	0.288	
14.110	-0.003	0.118	
14.115	-0.505	-0.017	
14.120	-0.235	-0.137	
14.125	0.524	-0.192	
14.130	-0.143	-0.152	
14.135	-0.215	-0.104	
14.140	0.747	-0.053	
14.145	0.372	0.058	
14.150	-0.209	0.161	
14.155	0.602	0.208	
14.160	0.796	0.275	
14.165	-0.136	0.352	
14.170	0.267	0.362	
14.175	1.009	0.364	
14.180	0.142	0.411	
14.185	-0.069	0.414	
14.190	0.912	0.381	
14.195	0.535	0.401	
14.200	-0.146	0.421	
14.205	0.665	0.395	
14.210	0.869	0.404	
14.215	-0.101	0.440	
14.220	0.293	0.421	
14.225	1.078	0.406	
14.230	0.267	0.449	
14.235	0.047	0.464	
14.240	1.085	0.452	
14.245	0.712	0.498	
14.250	-0.052	0.542	
14.255	0.797	0.529	
14.260	1.003	0.542	
14.265	-0.032	0.576	
14.270	0.297	0.544	
14.275	0.971	0.498	
14.280	0.029	0.489	
14.285	-0.203	0.432	
14.290	0.663	0.337	
14.295	0.219	0.291	
14.300	-0.370	0.248	
14.305	0.148	0.164	
14.310	0.357	0.105	
14.315	-0.393	0.079	
14.320	-0.218	0.021	
14.325	0.341	-0.034	
14.330	-0.308	-0.047	
14.335	-0.427	-0.077	
14.340	0.255	-0.120	
14.345	-0.063	-0.118	
14.350	-0.459	-0.110	
14.355	0.072	-0.128	
14.360	0.344	-0.112	
14.365	-0.389	-0.066	
14.370	-0.203	-0.061	
14.375	0.456	-0.063	
14.380	-0.227	-0.030	
14.385	-0.363	-0.025	
14.390	0.425	-0.042	
14.395	0.078	-0.017	
14.400	-0.403	0.007	
14.405	0.152	-0.009	
14.410	0.393	-0.002	
14.415	-0.374	0.028	
14.420	-0.213	0.012	
14.425	0.418	-0.016	
14.430	-0.267	-0.011	
14.435	-0.410	-0.030	
14.440	0.332	-0.069	
14.445	0.000	-0.064	
14.450	-0.448	-0.055	
14.455	0.029	-0.080	
14.460	0.283	-0.083	
14.465	-0.424	-0.061	
14.470	-0.264	-0.077	
14.475	0.354	-0.098	
14.480	-0.274	-0.083	
14.485	-0.432	-0.089	
14.490	0.236	-0.117	
14.495	-0.069	-0.111	
14.500	-0.476	-0.104	
14.505	0.000	-0.129	
14.510	0.259	-0.127	
14.515	-0.447	-0.100	
14.520	-0.288	-0.110	
14.525	0.331	-0.127	
14.530	-0.288	-0.108	
14.535	-0.441	-0.110	
14.540	0.255	-0.133	
14.545	-0.020	-0.118	
14.550	-0.476	-0.100	
14.555	-0.011	-0.119	
14.560	0.297	-0.115	
14.565	-0.404	-0.084	
14.570	-0.232	-0.087	
14.575	0.445	-0.092	
14.580	-0.220	-0.057	
14.585	-0.386	-0.047	
14.590	0.386	-0.061	
14.595	0.107	-0.034	
14.600	-0.406	-0.006	
14.605	0.123	-0.018	
14.610	0.433	-0.007	
14.615	-0.337	0.029	
14.620	-0.165	0.023	
14.625	0.601	0.013	
14.630	-0.136	0.047	
14.635	-0.310	0.056	
14.640	0.503	0.038	
14.645	0.224	0.065	
14.650	-0.345	0.094	
14.655	0.224	0.080	
14.660	0.570	0.089	
14.665	-0.259	0.128	
14.670	-0.093	0.122	
14.675	0.713	0.109	
14.680	-0.072	0.140	
14.685	-0.262	0.144	
14.690	0.582	0.119	
14.695	0.312	0.140	
14.700	-0.308	0.167	
14.705	0.315	0.149	
14.710	0.684	0.160	
14.715	-0.221	0.203	
14.720	-0.072	0.195	
14.725	0.747	0.172	
14.730	-0.006	0.195	
14.735	-0.235	0.193	
14.740	0.666	0.165	
14.745	0.427	0.191	
14.750	-0.259	0.227	
14.755	0.386	0.216	
14.760	0.745	0.229	
14.765	-0.185	0.271	
14.770	-0.021	0.258	
14.775	0.812	0.231	
14.780	0.040	0.251	
14.785	-0.209	0.246	
14.790	0.710	0.213	
14.795	0.399	0.232	
14.800	-0.282	0.255	
14.805	0.367	0.229	
14.810	0.784	0.231	
14.815	-0.189	0.270	
14.820	-0.023	0.257	
14.825	0.843	0.231	
14.830	0.070	0.256	
14.835	-0.197	0.257	
14.840	0.706	0.228	
14.845	0.468	0.249	
14.850	-0.253	0.278	
14.855	0.357	0.255	
14.860	0.694	0.250	
14.865	-0.217	0.272	
14.870	-0.085	0.241	
14.875	0.704	0.195	
14.880	-0.058	0.196	
14.885	-0.296	0.173	
14.890	0.537	0.125	
14.895	0.322	0.129	
14.900	-0.339	0.146	
14.905	0.180	0.119	
14.910	0.581	0.112	
14.915	-0.201	0.140	
14.920	0.075	0.140	
14.925	1.114	0.163	
14.930	0.552	0.276	
14.935	0.158	0.390	
14.940	0.916	0.457	
14.945	0.210	0.507	
14.950	-0.558	0.474	
14.955	-0.317	0.314	
14.960	-0.157	0.115	
14.965	-0.636	-0.063	
14.970	-0.468	-0.226	
14.975	0.235	-0.326	
14.980	-0.186	-0.324	
14.985	-0.332	-0.285	
14.990	0.543	-0.227	
14.995	0.387	-0.104	
15.000	-0.293	0.023	
15.005	0.285	0.085	
15.010	0.671	0.144	
15.015	-0.232	0.210	
15.020	-0.157	0.207	
15.025	0.584	0.168	
15.030	-0.117	0.160	
15.035	-0.366	0.125	
15.040	0.358	0.062	
15.045	0.174	0.044	
15.050	-0.409	0.041	
15.055	0.047	0.004	
15.060	0.471	-0.007	
15.065	-0.308	0.020	
15.070	-0.200	0.013	
15.075	0.582	0.002	
15.080	-0.079	0.037	
15.085	-0.303	0.053	
15.090	0.558	0.045	
15.095	0.433	0.090	
15.100	-0.261	0.150	
15.105	0.340	0.163	
15.110	0.764	0.194	
15.115	-0.186	0.251	
15.120	-0.107	0.246	
15.125	0.709	0.212	
15.130	-0.047	0.215	
15.135	-0.345	0.189	
15.140	0.325	0.122	
15.145	0.099	0.086	
15.150	-0.480	0.054	
15.155	-0.134	-0.018	
15.160	0.157	-0.077	
15.165	-0.499	-0.107	
15.170	-0.445	-0.161	
15.175	0.072	-0.219	
15.180	-0.367	-0.238	
15.185	-0.592	-0.261	
15.190	-0.049	-0.298	
15.195	-0.131	-0.299	
15.200	-0.581	-0.286	
15.205	-0.235	-0.297	
15.210	0.075	-0.293	
15.215	-0.494	-0.263	
15.220	-0.413	-0.261	
15.225	0.209	-0.264	
15.230	-0.270	-0.228	
15.235	-0.502	-0.207	
15.240	0.073	-0.214	
15.245	-0.075	-0.198	
15.250	-0.540	-0.182	
15.255	-0.166	-0.201	
15.260	0.236	-0.203	
15.265	-0.436	-0.172	
15.270	-0.374	-0.172	
15.275	0.270	-0.182	
15.280	-0.244	-0.157	
15.285	-0.491	-0.149	
15.290	0.154	-0.167	
15.295	0.032	-0.151	
15.300	-0.486	-0.129	
15.305	-0.116	-0.142	
15.310	0.314	-0.141	
15.315	-0.392	-0.109	
15.320	-0.331	-0.110	
15.325	0.349	-0.123	
15.330	-0.191	-0.098	
15.335	-0.436	-0.090	
15.340	0.276	-0.105	
15.345	0.151	-0.081	
15.350	-0.438	-0.048	
15.355	-0.035	-0.058	
15.360	0.476	-0.053	
15.365	-0.296	-0.013	
15.370	-0.224	-0.006	
15.375	0.581	-0.009	
15.380	-0.053	0.032	
15.385	-0.319	0.053	
15.390	0.492	0.045	
15.395	0.346	0.079	
15.400	-0.345	0.120	
15.405	0.110	0.107	
15.410	0.608	0.103	
15.415	-0.236	0.133	
15.420	-0.168	0.121	
15.425	0.677	0.098	
15.430	0.000	0.123	
15.435	-0.323	0.129	
15.440	0.457	0.100	
15.445	0.355	0.110	
15.450	-0.329	0.134	
15.455	0.133	0.113	
15.460	0.642	0.108	
15.465	-0.220	0.141	
15.470	-0.174	0.133	
15.475	0.636	0.107	
15.480	-0.041	0.124	
15.485	-0.346	0.118	
15.490	0.402	0.079	
15.495	0.317	0.080	
15.500	-0.343	0.098	
15.505	0.040	0.074	
15.510	0.530	0.061	
15.515	-0.253	0.082	
15.520	-0.195	0.069	
15.525	0.607	0.049	
15.530	-0.009	0.076	
15.535	-0.306	0.089	
15.540	0.482	0.072	
15.545	0.433	0.101	
15.550	-0.255	0.147	
15.555	0.288	0.152	
15.560	0.806	0.179	
15.565	-0.114	0.241	
15.570	-0.095	0.250	
15.575	0.771	0.229	
15.580	0.116	0.249	
15.585	-0.246	0.248	
15.590	0.555	0.210	
15.595	0.476	0.214	
15.600	-0.311	0.232	
15.605	0.079	0.195	
15.610	0.581	0.160	
15.615	-0.227	0.160	
15.620	-0.200	0.128	
15.625	0.575	0.085	
15.630	-0.029	0.091	
15.635	-0.320	0.087	
15.640	0.514	0.061	
15.645	0.562	0.096	
15.650	-0.137	0.164	
15.655	0.623	0.210	
15.660	1.195	0.300	
15.665	0.076	0.431	
15.670	-0.174	0.471	
15.675	0.261	0.402	
15.680	-0.334	0.295	
15.685	-0.653	0.139	
15.690	-0.192	-0.048	
15.695	-0.195	-0.188	
15.700	-0.573	-0.275	
15.705	-0.149	-0.336	
15.710	0.491	-0.322	
15.715	-0.227	-0.227	
15.720	-0.162	-0.145	
15.725	0.719	-0.070	
15.730	0.175	0.047	
15.735	-0.218	0.135	
15.740	0.602	0.169	
15.745	0.509	0.224	
15.750	-0.249	0.273	
15.755	0.210	0.257	
15.760	0.739	0.243	
15.765	-0.134	0.264	
15.770	-0.111	0.242	
15.775	0.733	0.204	
15.780	0.137	0.216	
15.785	-0.244	0.218	
15.790	0.590	0.189	
15.795	0.605	0.211	
15.800	-0.192	0.258	
15.805	0.331	0.258	
15.810	0.880	0.273	
15.815	-0.014	0.326	
15.820	0.037	0.333	
15.825	0.947	0.321	
15.830	0.360	0.362	
15.835	-0.137	0.385	
15.840	0.710	0.363	
15.845	0.658	0.374	
15.850	-0.195	0.395	
15.855	0.223	0.355	
15.860	0.706	0.314	
15.865	-0.200	0.302	
15.870	-0.233	0.244	
15.875	0.465	0.161	
15.880	-0.107	0.118	
15.885	-0.433	0.066	
15.890	0.107	-0.011	
15.895	0.043	-0.055	
15.900	-0.499	-0.081	
15.905	-0.204	-0.132	
15.910	0.227	-0.164	
15.915	-0.390	-0.156	
15.920	-0.410	-0.168	
15.925	0.149	-0.192	
15.930	-0.250	-0.185	
15.935	-0.528	-0.188	
15.940	0.004	-0.214	
15.945	0.037	-0.210	
15.950	-0.482	-0.188	
15.955	-0.180	-0.194	
15.960	0.255	-0.188	
15.965	-0.380	-0.152	
15.970	-0.370	-0.147	
15.975	0.329	-0.154	
15.980	-0.136	-0.122	
15.985	-0.459	-0.102	
15.990	0.120	-0.117	
15.995	0.160	-0.105	
16.000	-0.454	-0.080	
16.005	-0.180	-0.096	
16.010	0.299	-0.110	
16.015	-0.361	-0.094	
16.020	-0.380	-0.106	
16.025	0.290	-0.130	
16.030	-0.153	-0.116	
16.035	-0.441	-0.109	
16.040	0.136	-0.127	
16.045	0.154	-0.113	
16.050	-0.450	-0.085	
16.055	-0.156	-0.098	
16.060	0.326	-0.106	
16.065	-0.332	-0.083	
16.070	-0.323	-0.087	
16.075	0.398	-0.099	
16.080	-0.101	-0.070	
16.085	-0.444	-0.054	
16.090	0.122	-0.076	
16.095	0.166	-0.075	
16.100	-0.412	-0.058	
16.105	-0.105	-0.074	
16.110	0.445	-0.077	
16.115	-0.271	-0.040	
16.120	-0.302	-0.033	
16.125	0.469	-0.042	
16.130	-0.002	-0.010	
16.135	-0.374	0.012	
16.140	0.209	-0.004	
16.145	0.236	0.002	
16.150	-0.395	0.017	
16.155	-0.160	-0.011	
16.160	0.306	-0.042	
16.165	-0.355	-0.045	
16.170	-0.393	-0.075	
16.175	0.250	-0.117	
16.180	-0.188	-0.120	
16.185	-0.508	-0.128	
16.190	0.009	-0.164	
16.195	0.064	-0.171	
16.200	-0.508	-0.160	
16.205	-0.250	-0.180	
16.210	0.213	-0.194	
16.215	-0.386	-0.174	
16.220	-0.421	-0.178	
16.225	0.265	-0.191	
16.230	-0.162	-0.165	
16.235	-0.460	-0.145	
16.240	0.232	-0.148	
16.245	0.454	-0.101	
16.250	-0.217	-0.017	
16.255	0.236	0.040	
16.260	0.654	0.102	
16.265	-0.383	0.168	
16.270	-0.587	0.137	
16.275	-0.209	0.015	
16.280	-0.509	-0.118	
16.285	-0.808	-0.255	
16.290	-0.326	-0.389	
16.295	-0.206	-0.460	
16.300	-0.590	-0.471	
16.305	-0.264	-0.466	
16.310	0.293	-0.415	
16.315	-0.314	-0.313	
16.320	-0.343	-0.237	
16.325	0.407	-0.183	
16.330	-0.021	-0.102	
16.335	-0.369	-0.043	
16.340	0.293	-0.028	
16.345	0.422	0.014	
16.350	-0.340	0.069	
16.355	-0.084	0.067	
16.360	0.567	0.057	
16.365	-0.194	0.081	
16.370	-0.238	0.075	
16.375	0.645	0.057	
16.380	0.194	0.095	
16.385	-0.273	0.131	
16.390	0.460	0.130	
16.395	0.611	0.163	
16.400	-0.203	0.218	
16.405	0.175	0.222	
16.410	0.898	0.231	
16.415	0.043	0.286	
16.420	-0.058	0.303	
16.425	0.878	0.292	
16.430	0.416	0.331	
16.435	-0.172	0.360	
16.440	0.614	0.339	
16.445	0.660	0.346	
16.450	-0.255	0.362	
16.455	-0.014	0.310	
16.460	0.588	0.241	
16.465	-0.220	0.207	
16.470	-0.325	0.143	
16.475	0.355	0.062	
16.480	-0.093	0.024	
16.485	-0.464	-0.013	
16.490	0.043	-0.073	
16.495	0.151	-0.100	
16.500	-0.471	-0.101	
16.505	-0.252	-0.131	
16.510	0.280	-0.153	
16.515	-0.326	-0.137	
16.520	-0.398	-0.139	
16.525	0.274	-0.154	
16.530	-0.108	-0.130	
16.535	-0.496	-0.115	
16.540	-0.018	-0.138	
16.545	0.172	-0.140	
16.550	-0.422	-0.120	
16.555	-0.171	-0.127	
16.560	0.447	-0.121	
16.565	-0.264	-0.075	
16.570	-0.343	-0.058	
16.575	0.370	-0.066	
16.580	-0.035	-0.041	
16.585	-0.416	-0.026	
16.590	0.160	-0.047	
16.595	0.280	-0.040	
16.600	-0.398	-0.014	
16.605	-0.166	-0.030	
16.610	0.457	-0.045	
16.615	-0.233	-0.021	
16.620	-0.294	-0.019	
16.625	0.514	-0.028	
16.630	0.128	0.012	
16.635	-0.340	0.049	
16.640	0.312	0.047	
16.645	0.511	0.074	
16.650	-0.261	0.124	
16.655	0.012	0.125	
16.660	0.715	0.125	
16.665	-0.096	0.164	
16.670	-0.220	0.167	
16.675	0.630	0.142	
16.680	0.226	0.162	
16.685	-0.303	0.177	
16.690	0.341	0.151	
16.695	0.508	0.151	
16.700	-0.299	0.172	
16.705	-0.104	0.141	
16.710	0.552	0.102	
16.715	-0.204	0.101	
16.720	-0.317	0.074	
16.725	0.431	0.028	
16.730	0.073	0.029	
16.735	-0.345	0.035	
16.740	0.235	0.013	
16.745	0.427	0.026	
16.750	-0.326	0.063	
16.755	-0.105	0.054	
16.760	0.614	0.043	
16.765	-0.107	0.077	
16.770	-0.172	0.090	
16.775	0.852	0.098	
16.780	0.578	0.181	
16.785	-0.153	0.274	
16.790	0.354	0.298	
16.795	0.148	0.288	
16.800	-0.610	0.231	
16.805	-0.506	0.088	
16.810	-0.183	-0.082	
16.815	-0.550	-0.216	
16.820	-0.563	-0.327	
16.825	0.171	-0.391	
16.830	0.050	-0.358	
16.835	-0.339	-0.279	
16.840	0.335	-0.202	
16.845	0.616	-0.083	
16.850	-0.198	0.054	
16.855	0.078	0.125	
16.860	0.817	0.173	
16.865	-0.002	0.243	
16.870	-0.174	0.262	
16.875	0.742	0.242	
16.880	0.402	0.266	
16.885	-0.233	0.289	
16.890	0.471	0.266	
16.895	0.722	0.272	
16.900	-0.169	0.305	
16.905	0.111	0.288	
16.910	0.858	0.268	
16.915	0.046	0.296	
16.920	-0.108	0.293	
16.925	0.895	0.271	
16.930	0.549	0.313	
16.935	-0.139	0.362	
16.940	0.681	0.363	
16.945	0.982	0.398	
16.950	0.015	0.465	
16.955	0.373	0.476	
16.960	1.122	0.480	
16.965	0.250	0.526	
16.970	-0.069	0.523	
16.975	0.869	0.471	
16.980	0.456	0.456	
16.985	-0.265	0.434	
16.990	0.306	0.354	
16.995	0.454	0.287	
17.000	-0.361	0.240	
17.005	-0.212	0.150	
17.010	0.415	0.061	
17.015	-0.252	0.023	
17.020	-0.421	-0.023	
17.025	0.255	-0.081	
17.030	-0.027	-0.091	
17.035	-0.473	-0.092	
17.040	-0.011	-0.121	
17.045	0.271	-0.123	
17.050	-0.407	-0.096	
17.055	-0.247	-0.101	
17.060	0.389	-0.109	
17.065	-0.249	-0.079	
17.070	-0.412	-0.074	
17.075	0.282	-0.095	
17.080	-0.023	-0.081	
17.085	-0.456	-0.070	
17.090	-0.017	-0.095	
17.095	0.287	-0.099	
17.100	-0.381	-0.075	
17.105	-0.227	-0.082	
17.110	0.399	-0.090	
17.115	-0.224	-0.061	
17.120	-0.389	-0.056	
17.125	0.323	-0.075	
17.130	0.040	-0.056	
17.135	-0.424	-0.038	
17.140	0.081	-0.055	
17.145	0.431	-0.046	
17.150	-0.317	-0.004	
17.155	-0.139	0.002	
17.160	0.607	0.005	
17.165	-0.134	0.049	
17.170	-0.306	0.063	
17.175	0.520	0.048	
17.180	0.265	0.077	
17.185	-0.310	0.112	
17.190	0.305	0.106	
17.195	0.628	0.126	
17.200	-0.265	0.173	
17.205	-0.153	0.161	
17.210	0.508	0.123	
17.215	-0.197	0.112	
17.220	-0.387	0.073	
17.225	0.305	0.010	
17.230	0.040	-0.011	
17.235	-0.445	-0.022	
17.240	0.017	-0.062	
17.245	0.373	-0.072	
17.250	-0.374	-0.045	
17.255	-0.244	-0.053	
17.260	0.434	-0.066	
17.265	-0.210	-0.041	
17.270	-0.383	-0.039	
17.275	0.320	-0.060	
17.280	0.065	-0.045	
17.285	-0.412	-0.027	
17.290	0.251	-0.037	
17.295	0.800	0.006	
17.300	-0.005	0.112	
17.305	0.358	0.196	
17.310	0.985	0.279	
17.315	-0.206	0.367	
17.320	-0.621	0.340	
17.325	-0.258	0.185	
17.330	-0.430	0.003	
17.335	-0.810	-0.176	
17.340	-0.355	-0.343	
17.345	0.001	-0.432	
17.350	-0.435	-0.432	
17.355	-0.223	-0.403	
17.360	0.596	-0.327	
17.365	-0.082	-0.189	
17.370	-0.273	-0.078	
17.375	0.611	-0.011	
17.380	0.375	0.086	
17.385	-0.291	0.167	
17.390	0.280	0.179	
17.395	0.694	0.197	
17.400	-0.195	0.237	
17.405	-0.102	0.222	
17.410	0.709	0.188	
17.415	-0.032	0.196	
17.420	-0.256	0.182	
17.425	0.654	0.146	
17.430	0.482	0.172	
17.435	-0.230	0.217	
17.440	0.448	0.221	
17.445	0.896	0.254	
17.450	-0.073	0.324	
17.455	0.146	0.339	
17.460	1.088	0.345	
17.465	0.367	0.408	
17.470	-0.047	0.446	
17.475	0.991	0.440	
17.480	0.782	0.482	
17.485	-0.105	0.526	
17.490	0.581	0.504	
17.495	0.939	0.492	
17.500	-0.102	0.504	
17.505	-0.050	0.449	
17.510	0.697	0.361	
17.515	-0.089	0.310	
17.520	-0.355	0.235	
17.525	0.312	0.132	
17.530	0.047	0.072	
17.535	-0.491	0.025	
17.540	-0.111	-0.051	
17.545	0.245	-0.100	
17.550	-0.439	-0.109	
17.555	-0.364	-0.139	
17.560	0.250	-0.171	
17.565	-0.274	-0.161	
17.570	-0.489	-0.163	
17.575	0.163	-0.184	
17.580	0.029	-0.167	
17.585	-0.480	-0.139	
17.590	-0.078	-0.147	
17.595	0.352	-0.136	
17.600	-0.374	-0.095	
17.605	-0.288	-0.088	
17.610	0.393	-0.094	
17.615	-0.198	-0.066	
17.620	-0.432	-0.060	
17.625	0.271	-0.082	
17.630	0.107	-0.068	
17.635	-0.454	-0.047	
17.640	-0.053	-0.068	
17.645	0.355	-0.075	
17.650	-0.384	-0.052	
17.655	-0.299	-0.064	
17.660	0.402	-0.085	
17.665	-0.180	-0.064	
17.670	-0.404	-0.059	
17.675	0.383	-0.074	
17.680	0.291	-0.037	
17.685	-0.348	0.016	
17.690	0.155	0.028	
17.695	0.622	0.056	
17.700	-0.238	0.112	
17.705	-0.148	0.120	
17.710	0.697	0.109	
17.715	0.037	0.142	
17.720	-0.285	0.155	
17.725	0.503	0.131	
17.730	0.349	0.145	
17.735	-0.345	0.164	
17.740	0.120	0.133	
17.745	0.544	0.114	
17.750	-0.303	0.125	
17.755	-0.255	0.093	
17.760	0.491	0.045	
17.765	-0.131	0.041	
17.770	-0.383	0.024	
17.775	0.357	-0.014	
17.780	0.242	-0.003	
17.785	-0.384	0.024	
17.790	0.041	0.010	
17.795	0.559	0.013	
17.800	-0.258	0.054	
17.805	-0.212	0.057	
17.810	0.567	0.042	
17.815	-0.035	0.068	
17.820	-0.294	0.078	
17.825	0.620	0.068	
17.830	0.681	0.126	
17.835	-0.052	0.220	
17.840	0.787	0.289	
17.845	1.219	0.396	
17.850	-0.114	0.519	
17.855	-0.329	0.514	
17.860	-0.009	0.381	
17.865	-0.471	0.207	
17.870	-0.735	0.006	
17.875	-0.209	-0.193	
17.880	-0.146	-0.316	
17.885	-0.486	-0.363	
17.890	0.003	-0.371	
17.895	0.657	-0.298	
17.900	-0.162	-0.154	
17.905	-0.070	-0.043	
17.910	0.857	0.046	
17.915	0.201	0.166	
17.920	-0.204	0.243	
17.925	0.675	0.258	
17.930	0.572	0.296	
17.935	-0.223	0.335	
17.940	0.349	0.313	
17.945	0.840	0.306	
17.950	-0.117	0.334	
17.955	-0.073	0.311	
17.960	0.854	0.269	
17.965	0.229	0.285	
17.970	-0.188	0.292	
17.975	0.755	0.270	
17.980	0.729	0.303	
17.985	-0.133	0.360	
17.990	0.497	0.366	
17.995	1.064	0.390	
18.000	0.084	0.455	
18.005	0.149	0.466	
18.010	1.113	0.455	
18.015	0.498	0.498	
18.020	-0.084	0.521	
18.025	0.834	0.490	
18.030	0.732	0.491	
18.035	-0.182	0.498	
18.040	0.308	0.441	
18.045	0.765	0.387	
18.050	-0.185	0.365	
18.055	-0.217	0.296	
18.060	0.527	0.202	
18.065	-0.124	0.152	
18.070	-0.448	0.092	
18.075	0.145	0.005	
18.080	0.075	-0.043	
18.085	-0.479	-0.067	
18.090	-0.163	-0.115	
18.095	0.268	-0.142	
18.100	-0.383	-0.129	
18.105	-0.357	-0.139	
18.110	0.319	-0.154	
18.115	-0.177	-0.128	
18.120	-0.454	-0.114	
18.125	0.158	-0.129	
18.130	0.117	-0.114	
18.135	-0.451	-0.088	
18.140	-0.122	-0.101	
18.145	0.393	-0.102	
18.150	-0.332	-0.069	
18.155	-0.322	-0.067	
18.160	0.392	-0.081	
18.165	-0.140	-0.058	
18.170	-0.450	-0.052	
18.175	0.168	-0.079	
18.180	0.145	-0.077	
18.185	-0.416	-0.059	
18.190	-0.093	-0.076	
18.195	0.442	-0.078	
18.200	-0.293	-0.041	
18.205	-0.285	-0.035	
18.210	0.474	-0.044	
18.215	-0.076	-0.013	
18.220	-0.367	0.003	
18.225	0.383	-0.010	
18.230	0.381	0.021	
18.235	-0.319	0.071	
18.240	0.052	0.073	
18.245	0.620	0.079	
18.250	-0.209	0.118	
18.255	-0.194	0.115	
18.260	0.674	0.096	
18.265	0.070	0.126	
18.270	-0.320	0.140	
18.275	0.398	0.113	
18.280	0.408	0.120	
18.285	-0.357	0.140	
18.290	-0.043	0.109	
18.295	0.472	0.074	
18.300	-0.299	0.072	
18.305	-0.319	0.037	
18.310	0.407	-0.012	
18.315	-0.111	-0.016	
18.320	-0.433	-0.026	
18.325	0.171	-0.064	
18.330	0.195	-0.066	
18.335	-0.432	-0.049	
18.340	-0.122	-0.068	
18.345	0.419	-0.076	
18.350	-0.317	-0.048	
18.355	-0.340	-0.051	
18.360	0.380	-0.071	
18.365	-0.098	-0.054	
18.370	-0.383	-0.044	
18.375	0.413	-0.052	
18.380	0.541	-0.001	
18.385	-0.242	0.082	
18.390	0.052	0.113	
18.395	0.334	0.116	
18.400	-0.518	0.106	
18.405	-0.654	0.018	
18.410	-0.224	-0.123	
18.415	-0.492	-0.243	
18.420	-0.761	-0.348	
18.425	-0.230	-0.439	
18.430	-0.101	-0.464	
18.435	-0.503	-0.434	
18.440	-0.137	-0.396	
18.445	0.501	-0.317	
18.450	-0.223	-0.190	
18.455	-0.253	-0.102	
18.460	0.613	-0.045	
18.465	0.120	0.042	
18.470	-0.314	0.102	
18.475	0.421	0.108	
18.480	0.508	0.139	
18.485	-0.291	0.182	
18.490	0.062	0.168	
18.495	0.715	0.156	
18.500	-0.146	0.183	
18.505	-0.183	0.174	
18.510	0.694	0.146	
18.515	0.177	0.168	
18.520	-0.265	0.185	
18.525	0.520	0.166	
18.530	0.654	0.192	
18.535	-0.194	0.245	
18.540	0.250	0.250	
18.545	0.933	0.263	
18.550	0.026	0.320	
18.555	-0.055	0.332	
18.560	0.919	0.315	
18.565	0.393	0.349	
18.570	-0.194	0.371	
18.575	0.569	0.340	
18.580	0.619	0.334	
18.585	-0.255	0.341	
18.590	0.008	0.287	
18.595	0.555	0.222	
18.600	-0.261	0.189	
18.605	-0.364	0.122	
18.610	0.287	0.034	
18.615	-0.159	-0.013	
18.620	-0.523	-0.059	
18.625	-0.041	-0.128	
18.630	0.043	-0.165	
18.635	-0.515	-0.174	
18.640	-0.290	-0.205	
18.645	0.169	-0.226	
18.650	-0.404	-0.210	
18.655	-0.471	-0.215	
18.660	0.133	-0.234	
18.665	-0.192	-0.218	
18.670	-0.531	-0.206	
18.675	-0.027	-0.222	
18.680	0.087	-0.211	
18.685	-0.502	-0.183	
18.690	-0.279	-0.191	
18.695	0.181	-0.200	
18.700	-0.390	-0.182	
18.705	-0.444	-0.187	
18.710	0.177	-0.206	
18.715	-0.183	-0.190	
18.720	-0.547	-0.181	
18.725	-0.063	-0.205	
18.730	0.084	-0.206	
18.735	-0.486	-0.186	
18.740	-0.265	-0.195	
18.745	0.233	-0.200	
18.750	-0.364	-0.173	
18.755	-0.433	-0.170	
18.760	0.259	-0.183	
18.765	-0.124	-0.157	
18.770	-0.479	-0.137	
18.775	0.110	-0.146	
18.780	0.241	-0.125	
18.785	-0.436	-0.084	
18.790	-0.224	-0.088	
18.795	0.375	-0.097	
18.800	-0.282	-0.073	
18.805	-0.366	-0.073	
18.810	0.351	-0.090	
18.815	-0.073	-0.070	
18.820	-0.465	-0.059	
18.825	0.082	-0.085	
18.830	0.190	-0.088	
18.835	-0.480	-0.073	
18.840	-0.271	-0.101	
18.845	0.233	-0.132	
18.850	-0.393	-0.132	
18.855	-0.483	-0.156	
18.860	0.163	-0.194	
18.865	-0.180	-0.192	
18.870	-0.541	-0.190	
18.875	-0.038	-0.214	
18.880	0.110	-0.210	
18.885	-0.514	-0.184	
18.890	-0.284	-0.193	
18.895	0.271	-0.199	
18.900	-0.345	-0.169	
18.905	-0.410	-0.162	
18.910	0.457	-0.161	
18.915	0.198	-0.098	
18.920	-0.276	-0.023	
18.925	0.421	0.022	
18.930	0.373	0.083	
18.935	-0.564	0.125	
18.940	-0.511	0.065	
18.945	-0.236	-0.061	
18.950	-0.712	-0.190	
18.955	-0.802	-0.332	
18.960	-0.229	-0.458	
18.965	-0.293	-0.507	
18.970	-0.553	-0.501	
18.975	-0.012	-0.470	
18.980	0.296	-0.382	
18.985	-0.390	-0.259	
18.990	-0.166	-0.181	
18.995	0.543	-0.117	
19.000	-0.194	-0.031	
19.005	-0.317	0.010	
19.010	0.529	0.014	
19.015	0.161	0.055	
19.020	-0.393	0.087	
19.025	0.203	0.066	
19.030	0.456	0.066	
19.035	-0.320	0.090	
19.040	-0.104	0.072	
19.045	0.607	0.054	
19.050	-0.178	0.077	
19.055	-0.302	0.073	
19.060	0.547	0.046	
19.065	0.239	0.072	
19.070	-0.299	0.105	
19.075	0.412	0.104	
19.080	0.694	0.141	
19.085	-0.213	0.206	
19.090	0.062	0.215	
19.095	0.793	0.213	
19.100	-0.063	0.245	
19.105	-0.232	0.236	
19.110	0.678	0.195	
19.115	0.319	0.205	
19.120	-0.308	0.219	
19.125	0.276	0.184	
19.130	0.445	0.165	
19.135	-0.404	0.160	
19.140	-0.279	0.099	
19.145	0.256	0.018	
19.150	-0.367	-0.032	
19.155	-0.520	-0.096	
19.160	0.081	-0.171	
19.165	-0.200	-0.202	
19.170	-0.613	-0.223	
19.175	-0.175	-0.266	
19.180	0.021	-0.282	
19.185	-0.546	-0.269	
19.190	-0.370	-0.279	
19.195	0.163	-0.285	
19.200	-0.367	-0.254	
19.205	-0.480	-0.240	
19.210	0.177	-0.242	
19.215	-0.110	-0.210	
19.220	-0.521	-0.181	
19.225	-0.082	-0.190	
19.230	0.183	-0.183	
19.235	-0.464	-0.154	
19.240	-0.297	-0.159	
19.245	0.332	-0.166	
19.250	-0.285	-0.135	
19.255	-0.445	-0.126	
19.260	0.265	-0.141	
19.265	-0.023	-0.119	
19.270	-0.476	-0.098	
19.275	-0.006	-0.115	
19.280	0.317	-0.110	
19.285	-0.404	-0.077	
19.290	-0.238	-0.080	
19.295	0.460	-0.086	
19.300	-0.232	-0.053	
19.305	-0.410	-0.045	
19.310	0.346	-0.066	
19.315	0.078	-0.047	
19.320	-0.406	-0.025	
19.325	0.157	-0.036	
19.330	0.497	-0.016	
19.335	-0.306	0.036	
19.340	-0.124	0.043	
19.345	0.652	0.044	
19.350	-0.117	0.085	
19.355	-0.293	0.095	
19.360	0.608	0.078	
19.365	0.349	0.114	
19.370	-0.313	0.157	
19.375	0.274	0.149	
19.380	0.593	0.155	
19.385	-0.290	0.184	
19.390	-0.145	0.158	
19.395	0.587	0.117	
19.400	-0.165	0.114	
19.405	-0.372	0.087	
19.410	0.387	0.033	
19.415	0.116	0.025	
19.420	-0.410	0.026	
19.425	0.117	-0.006	
19.430	0.477	-0.006	
19.435	-0.334	0.029	
19.440	-0.212	0.022	
19.445	0.503	0.003	
19.450	-0.191	0.021	
19.455	-0.387	0.014	
19.460	0.392	-0.019	
19.465	0.131	-0.007	
19.470	-0.370	0.013	
19.475	0.311	0.007	
19.480	0.875	0.054	
19.485	0.026	0.164	
19.490	0.398	0.249	
19.495	1.104	0.333	
19.500	-0.136	0.427	
19.505	-0.569	0.407	
19.510	-0.194	0.254	
19.515	-0.390	0.070	
19.520	-0.787	-0.115	
19.525	-0.303	-0.289	
19.530	0.140	-0.379	
19.535	-0.392	-0.373	
19.540	-0.177	-0.339	
19.545	0.698	-0.262	
19.550	-0.020	-0.120	
19.555	-0.233	-0.009	
19.560	0.730	0.059	
19.565	0.508	0.161	
19.570	-0.239	0.251	
19.575	0.454	0.272	
19.580	0.812	0.300	
19.585	-0.159	0.347	
19.590	0.035	0.330	
19.595	0.916	0.300	
19.600	0.154	0.322	
19.605	-0.160	0.323	
19.610	0.848	0.295	
19.615	0.643	0.328	
19.620	-0.159	0.374	
19.625	0.576	0.370	
19.630	1.034	0.393	
19.635	0.037	0.455	
19.640	0.262	0.465	
19.645	1.194	0.465	
19.650	0.457	0.523	
19.655	0.085	0.556	
19.660	1.081	0.548	
19.665	0.837	0.586	
19.670	-0.069	0.620	
19.675	0.684	0.586	
19.680	1.055	0.570	
19.685	-0.052	0.583	
19.690	0.064	0.529	
19.695	0.863	0.448	
19.700	0.017	0.409	
19.705	-0.282	0.343	
19.710	0.524	0.246	
19.715	0.273	0.201	
19.720	-0.392	0.173	
19.725	0.052	0.106	
19.730	0.412	0.059	
19.735	-0.378	0.048	
19.740	-0.290	0.005	
19.745	0.419	-0.042	
19.750	-0.198	-0.042	
19.755	-0.415	-0.052	
19.760	0.325	-0.079	
19.765	0.148	-0.061	
19.770	-0.425	-0.031	
19.775	0.053	-0.041	
19.780	0.524	-0.029	
19.785	-0.299	0.020	
19.790	-0.198	0.027	
19.795	0.605	0.022	
19.800	-0.120	0.056	
19.805	-0.346	0.064	
19.810	0.456	0.039	
19.815	0.288	0.059	
19.820	-0.372	0.089	
19.825	0.088	0.070	
19.830	0.543	0.064	
19.835	-0.284	0.090	
19.840	-0.209	0.076	
19.845	0.613	0.050	
19.850	-0.063	0.073	
19.855	-0.331	0.078	
19.860	0.474	0.054	
19.865	0.323	0.076	
19.870	-0.342	0.109	
19.875	0.166	0.096	
19.880	0.614	0.100	
19.885	-0.255	0.136	
19.890	-0.162	0.126	
19.895	0.684	0.103	
19.900	-0.032	0.127	
19.905	-0.328	0.128	
19.910	0.506	0.097	
19.915	0.389	0.113	
19.920	-0.334	0.144	
19.925	0.161	0.127	
19.930	0.666	0.126	
19.935	-0.226	0.160	
19.940	-0.171	0.150	
19.945	0.636	0.120	
19.950	-0.053	0.132	
19.955	-0.305	0.123	
19.960	0.552	0.091	
19.965	0.436	0.116	
19.970	-0.299	0.158	
19.975	0.213	0.152	
19.980	0.703	0.160	
19.985	-0.213	0.199	
19.990	-0.136	0.188	
19.995	0.736	0.159	
20.000	0.018	0.178	
20.005	-0.282	0.177	
20.010	0.582	0.146	
20.015	0.444	0.165	
20.020	-0.299	0.198	
20.025	0.181	0.178	
20.030	0.655	0.169	
20.035	-0.223	0.192	
20.040	-0.151	0.171	
20.045	0.718	0.138	
20.050	0.035	0.157	
20.055	-0.291	0.160	
20.060	0.537	0.132	
20.065	0.454	0.151	
20.070	-0.288	0.185	
20.075	0.213	0.172	
20.080	0.721	0.174	
20.085	-0.192	0.210	
20.090	-0.139	0.198	
20.095	0.748	0.169	
20.100	0.067	0.189	
20.105	-0.282	0.191	
20.110	0.579	0.161	
20.115	0.447	0.178	
20.120	-0.311	0.207	
20.125	0.125	0.180	
20.130	0.655	0.162	
20.135	-0.204	0.179	
20.140	-0.159	0.159	
20.145	0.697	0.128	
20.150	0.055	0.148	
20.155	-0.277	0.155	
20.160	0.543	0.132	
20.165	0.482	0.156	
20.170	-0.281	0.195	
20.175	0.224	0.185	
20.180	0.768	0.189	
20.185	-0.165	0.230	
20.190	-0.122	0.222	
20.195	0.777	0.194	
20.200	0.139	0.217	
20.205	-0.252	0.226	
20.210	0.576	0.198	
20.215	0.498	0.212	
20.220	-0.284	0.240	
20.225	0.169	0.213	
20.230	0.716	0.197	
20.235	-0.192	0.217	
20.240	-0.185	0.194	
20.245	0.619	0.150	
20.250	-0.040	0.147	
20.255	-0.360	0.127	
20.260	0.372	0.075	
20.265	0.309	0.068	
20.270	-0.370	0.081	
20.275	-0.012	0.052	
20.280	0.491	0.032	
20.285	-0.299	0.048	
20.290	-0.259	0.029	
20.295	0.538	0.002	
20.300	-0.053	0.024	
20.305	-0.322	0.035	
20.310	0.605	0.030	
20.315	0.724	0.096	
20.320	-0.116	0.200	
20.325	0.341	0.253	
20.330	0.601	0.286	
20.335	-0.406	0.302	
20.340	-0.506	0.221	
20.345	-0.081	0.071	
20.350	-0.459	-0.067	
20.355	-0.733	-0.203	
20.360	-0.185	-0.330	
20.365	-0.099	-0.387	
20.370	-0.494	-0.384	
20.375	-0.084	-0.365	
20.380	0.541	-0.295	
20.385	-0.241	-0.171	
20.390	-0.207	-0.085	
20.395	0.636	-0.028	
20.400	0.033	0.056	
20.405	-0.306	0.105	
20.410	0.483	0.105	
20.415	0.462	0.138	
20.420	-0.297	0.180	
20.425	0.136	0.167	
20.430	0.692	0.161	
20.435	-0.183	0.190	
20.440	-0.168	0.176	
20.445	0.738	0.147	
20.450	0.146	0.173	
20.455	-0.252	0.189	
20.460	0.582	0.173	
20.465	0.569	0.201	
20.470	-0.247	0.246	
20.475	0.245	0.237	
20.480	0.864	0.240	
20.485	-0.038	0.287	
20.490	-0.047	0.291	
20.495	0.892	0.274	
20.500	0.276	0.308	
20.505	-0.206	0.325	
20.510	0.689	0.299	
20.515	0.655	0.315	
20.520	-0.233	0.347	
20.525	0.168	0.314	
20.530	0.712	0.278	
20.535	-0.200	0.273	
20.540	-0.230	0.224	
20.545	0.546	0.153	
20.550	-0.046	0.128	
20.555	-0.396	0.094	
20.560	0.223	0.032	
20.565	0.186	0.006	
20.570	-0.448	-0.001	
20.575	-0.162	-0.044	
20.580	0.305	-0.079	
20.585	-0.380	-0.078	
20.590	-0.377	-0.102	
20.595	0.344	-0.131	
20.600	-0.127	-0.113	
20.605	-0.438	-0.099	
20.610	0.209	-0.110	
20.615	0.273	-0.084	
20.620	-0.410	-0.040	
20.625	-0.104	-0.041	
20.630	0.492	-0.039	
20.635	-0.270	-0.003	
20.640	-0.291	-0.001	
20.645	0.495	-0.016	
20.650	-0.031	0.011	
20.655	-0.360	0.025	
20.660	0.375	0.010	
20.665	0.405	0.038	
20.670	-0.311	0.085	
20.675	0.078	0.086	
20.680	0.694	0.095	
20.685	-0.186	0.141	
20.690	-0.204	0.143	
20.695	0.694	0.122	
20.700	0.142	0.151	
20.705	-0.317	0.167	
20.710	0.439	0.142	
20.715	0.447	0.150	
20.720	-0.343	0.172	
20.725	0.015	0.140	
20.730	0.617	0.113	
20.735	-0.230	0.126	
20.740	-0.259	0.104	
20.745	0.555	0.065	
20.750	0.032	0.075	
20.755	-0.342	0.079	
20.760	0.380	0.053	
20.765	0.439	0.071	
20.770	-0.316	0.109	
20.775	0.017	0.100	
20.780	0.588	0.091	
20.785	-0.220	0.115	
20.790	-0.259	0.100	
20.795	0.581	0.067	
20.800	0.041	0.082	
20.805	-0.352	0.089	
20.810	0.352	0.061	
20.815	0.447	0.073	
20.820	-0.299	0.109	
20.825	0.040	0.102	
20.830	0.698	0.101	
20.835	-0.146	0.142	
20.840	-0.185	0.146	
20.845	0.719	0.130	
20.850	0.200	0.166	
20.855	-0.270	0.192	
20.860	0.537	0.178	
20.865	0.604	0.204	
20.870	-0.244	0.248	
20.875	0.097	0.233	
20.880	0.756	0.216	
20.885	-0.133	0.236	
20.890	-0.186	0.216	
20.895	0.669	0.174	
20.900	0.087	0.178	
20.905	-0.339	0.171	
20.910	0.325	0.123	
20.915	0.412	0.111	
20.920	-0.334	0.121	
20.925	-0.035	0.091	
20.930	0.585	0.067	
20.935	-0.201	0.087	
20.940	-0.261	0.076	
20.945	0.573	0.050	
20.950	0.123	0.075	
20.955	-0.294	0.097	
20.960	0.492	0.092	
20.965	0.695	0.136	
20.970	-0.116	0.214	
20.975	0.390	0.252	
20.980	1.043	0.303	
20.985	0.037	0.388	
20.990	-0.209	0.400	
20.995	0.322	0.330	
21.000	-0.212	0.244	
21.005	-0.608	0.124	
21.010	-0.177	-0.032	
21.015	-0.104	-0.152	
21.020	-0.560	-0.226	
21.025	-0.239	-0.289	
21.030	0.425	-0.294	
21.035	-0.221	-0.225	
21.040	-0.264	-0.162	
21.045	0.631	-0.107	
21.050	0.194	-0.005	
21.055	-0.271	0.081	
21.060	0.480	0.114	
21.065	0.598	0.168	
21.070	-0.253	0.230	
21.075	0.061	0.225	
21.080	0.730	0.208	
21.085	-0.105	0.227	
21.090	-0.175	0.210	
21.095	0.697	0.174	
21.100	0.277	0.193	
21.105	-0.227	0.214	
21.110	0.534	0.202	
21.115	0.675	0.228	
21.120	-0.194	0.277	
21.125	0.157	0.270	
21.130	0.896	0.264	
21.135	0.029	0.304	
21.140	-0.093	0.307	
21.145	0.841	0.283	
21.150	0.431	0.313	
21.155	-0.165	0.340	
21.160	0.582	0.323	
21.165	0.710	0.334	
21.170	-0.201	0.360	
21.175	0.088	0.325	
21.180	0.732	0.281	
21.185	-0.145	0.272	
21.190	-0.281	0.225	
21.195	0.419	0.147	
21.200	-0.060	0.104	
21.205	-0.450	0.057	
21.210	0.073	-0.017	
21.215	0.158	-0.057	
21.220	-0.488	-0.071	
21.225	-0.293	-0.116	
21.230	0.155	-0.159	
21.235	-0.389	-0.168	
21.240	-0.491	-0.193	
21.245	0.055	-0.230	
21.250	-0.239	-0.235	
21.255	-0.573	-0.240	
21.260	-0.110	-0.267	
21.265	-0.006	-0.268	
21.270	-0.534	-0.249	
21.275	-0.345	-0.259	
21.280	0.102	-0.268	
21.285	-0.406	-0.248	
21.290	-0.488	-0.248	
21.295	0.082	-0.262	
21.300	-0.198	-0.245	
21.305	-0.557	-0.231	
21.310	-0.108	-0.247	
21.315	0.021	-0.244	
21.320	-0.506	-0.224	
21.325	-0.291	-0.232	
21.330	0.160	-0.236	
21.335	-0.396	-0.211	
21.340	-0.491	-0.212	
21.345	0.062	-0.234	
21.350	-0.206	-0.228	
21.355	-0.555	-0.225	
21.360	-0.072	-0.246	
21.365	0.178	-0.235	
21.370	-0.413	-0.192	
21.375	-0.188	-0.174	
21.380	0.419	-0.150	
21.385	-0.249	-0.092	
21.390	-0.348	-0.066	
21.395	0.361	-0.068	
21.400	-0.038	-0.041	
21.405	-0.448	-0.028	
21.410	0.021	-0.058	
21.415	0.210	-0.071	
21.420	-0.432	-0.064	
21.425	-0.256	-0.091	
21.430	0.251	-0.119	
21.435	-0.323	-0.115	
21.440	-0.435	-0.129	
21.445	0.209	-0.158	
21.450	-0.116	-0.149	
21.455	-0.505	-0.142	
21.460	-0.050	-0.166	
21.465	0.160	-0.168	
21.470	-0.454	-0.146	
21.475	-0.267	-0.156	
21.480	0.297	-0.163	
21.485	-0.328	-0.137	
21.490	-0.462	-0.137	
21.495	0.161	-0.162	
21.500	-0.143	-0.157	
21.505	-0.514	-0.155	
21.510	-0.092	-0.184	
21.515	0.009	-0.196	
21.520	-0.566	-0.195	
21.525	-0.401	-0.229	
21.530	0.004	-0.266	
21.535	-0.448	-0.274	
21.540	-0.555	-0.294	
21.545	-0.053	-0.324	
21.550	-0.253	-0.321	
21.555	-0.608	-0.314	
21.560	-0.182	-0.329	
21.565	-0.047	-0.323	
21.570	-0.552	-0.298	
21.575	-0.342	-0.300	
21.580	0.274	-0.290	
21.585	-0.264	-0.234	
21.590	-0.345	-0.191	
21.595	0.352	-0.162	
21.600	-0.143	-0.108	
21.605	-0.683	-0.090	
21.610	-0.392	-0.152	
21.615	-0.345	-0.238	
21.620	-0.857	-0.326	
21.625	-0.698	-0.436	
21.630	-0.284	-0.527	
21.635	-0.589	-0.560	
21.640	-0.633	-0.569	
21.645	-0.055	-0.557	
21.650	-0.194	-0.491	
21.655	-0.541	-0.414	
21.660	-0.085	-0.362	
21.665	0.165	-0.295	
21.670	-0.428	-0.216	
21.675	-0.270	-0.182	
21.680	0.273	-0.164	
21.685	-0.302	-0.126	
21.690	-0.448	-0.120	
21.695	0.175	-0.142	
21.700	-0.093	-0.135	
21.705	-0.492	-0.130	
21.710	-0.041	-0.156	
21.715	0.270	-0.153	
21.720	-0.383	-0.119	
21.725	-0.206	-0.112	
21.730	0.474	-0.103	
21.735	-0.159	-0.052	
21.740	-0.299	-0.025	
21.745	0.521	-0.017	
21.750	0.277	0.037	
21.755	-0.285	0.093	
21.760	0.369	0.107	
21.765	0.622	0.144	
21.770	-0.227	0.199	
21.775	-0.046	0.195	
21.780	0.668	0.173	
21.785	-0.093	0.186	
21.790	-0.290	0.167	
21.795	0.442	0.116	
21.800	0.119	0.102	
21.805	-0.412	0.089	
21.810	0.072	0.037	
21.815	0.312	0.007	
21.820	-0.406	0.004	
21.825	-0.270	-0.034	
21.830	0.311	-0.075	
21.835	-0.300	-0.079	
21.840	-0.464	-0.102	
21.845	0.171	-0.142	
21.850	-0.082	-0.146	
21.855	-0.488	-0.143	
21.860	-0.067	-0.167	
21.865	0.207	-0.167	
21.870	-0.433	-0.140	
21.875	-0.277	-0.144	
21.880	0.317	-0.151	
21.885	-0.268	-0.122	
21.890	-0.399	-0.114	
21.895	0.256	-0.126	
21.900	-0.009	-0.104	
21.905	-0.450	-0.084	
21.910	0.020	-0.100	
21.915	0.346	-0.092	
21.920	-0.360	-0.055	
21.925	-0.201	-0.053	
21.930	0.485	-0.055	
21.935	-0.197	-0.020	
21.940	-0.374	-0.012	
21.945	0.366	-0.032	
21.950	0.134	-0.014	
21.955	-0.390	0.009	
21.960	0.102	-0.006	
21.965	0.428	-0.002	
21.970	-0.332	0.030	
21.975	-0.195	0.020	
21.980	0.538	0.003	
21.985	-0.139	0.028	
21.990	-0.328	0.032	
21.995	0.425	0.011	
22.000	0.189	0.032	
22.005	-0.346	0.057	
22.010	0.200	0.045	
22.015	0.521	0.057	
22.020	-0.276	0.097	
22.025	-0.124	0.092	
22.030	0.628	0.077	
22.035	-0.093	0.104	
22.040	-0.282	0.105	
22.045	0.569	0.082	
22.050	0.314	0.110	
22.055	-0.319	0.143	
22.060	0.219	0.129	
22.065	0.547	0.129	
22.070	-0.287	0.152	
22.075	-0.178	0.126	
22.080	0.512	0.084	
22.085	-0.160	0.080	
22.090	-0.367	0.054	
22.095	0.366	0.008	
22.100	0.169	0.008	
22.105	-0.387	0.021	
22.110	0.091	0.000	
22.115	0.450	0.001	
22.120	-0.339	0.031	
22.125	-0.246	0.019	
22.130	0.451	-0.008	
22.135	-0.159	0.003	
22.140	-0.326	-0.001	
22.145	0.569	-0.014	
22.150	0.498	0.043	
22.155	-0.166	0.127	
22.160	0.575	0.179	
22.165	0.877	0.258	
22.170	-0.256	0.344	
22.175	-0.310	0.326	
22.180	0.111	0.221	
22.185	-0.436	0.105	
22.190	-0.656	-0.037	
22.195	-0.105	-0.185	
22.200	-0.127	-0.270	
22.205	-0.473	-0.300	
22.210	0.064	-0.306	
22.215	0.544	-0.243	
22.220	-0.223	-0.125	
22.225	-0.081	-0.042	
22.230	0.788	0.024	
22.235	0.110	0.127	
22.240	-0.195	0.191	
22.245	0.694	0.207	
22.250	0.543	0.256	
22.255	-0.213	0.305	
22.260	0.381	0.296	
22.265	0.776	0.298	
22.270	-0.156	0.326	
22.275	-0.044	0.299	
22.280	0.793	0.256	
22.285	0.094	0.263	
22.290	-0.204	0.254	
22.295	0.727	0.221	
22.300	0.572	0.249	
22.305	-0.166	0.295	
22.310	0.488	0.297	
22.315	0.939	0.323	
22.320	-0.027	0.385	
22.325	0.155	0.392	
22.330	1.052	0.385	
22.335	0.364	0.431	
22.340	-0.058	0.454	
22.345	0.898	0.434	
22.350	0.704	0.457	
22.355	-0.165	0.483	
22.360	0.405	0.442	
22.365	0.788	0.407	
22.370	-0.171	0.398	
22.375	-0.130	0.335	
22.380	0.576	0.249	
22.385	-0.145	0.201	
22.390	-0.398	0.135	
22.395	0.312	0.049	
22.400	0.160	0.015	
22.405	-0.427	0.005	
22.410	-0.035	-0.034	
22.415	0.383	-0.052	
22.420	-0.348	-0.034	
22.425	-0.262	-0.045	
22.430	0.479	-0.061	
22.435	-0.131	-0.031	
22.440	-0.380	-0.018	
22.445	0.357	-0.033	
22.450	0.224	-0.009	
22.455	-0.383	0.024	
22.460	0.064	0.014	
22.465	0.582	0.022	
22.470	-0.256	0.066	
22.475	-0.239	0.068	
22.480	0.508	0.046	
22.485	-0.089	0.058	
22.490	-0.343	0.053	
22.495	0.427	0.025	
22.500	0.325	0.045	
22.505	-0.342	0.080	
22.510	0.108	0.071	
22.515	0.582	0.075	
22.520	-0.236	0.111	
22.525	-0.178	0.105	
22.530	0.616	0.083	
22.535	-0.034	0.105	
22.540	-0.329	0.106	
22.545	0.418	0.074	
22.550	0.348	0.084	
22.555	-0.352	0.109	
22.560	0.001	0.084	
22.565	0.501	0.064	
22.570	-0.256	0.076	
22.575	-0.180	0.060	
22.580	0.645	0.042	
22.585	0.023	0.078	
22.590	-0.284	0.100	
22.595	0.530	0.091	
22.600	0.454	0.127	
22.605	-0.265	0.176	
22.610	0.255	0.175	
22.615	0.730	0.188	
22.620	-0.188	0.229	
22.625	-0.139	0.218	
22.630	0.672	0.181	
22.635	-0.021	0.185	
22.640	-0.351	0.165	
22.645	0.361	0.108	
22.650	0.223	0.088	
22.655	-0.412	0.080	
22.660	-0.060	0.031	
22.665	0.410	-0.005	
22.670	-0.335	-0.002	
22.675	-0.294	-0.025	
22.680	0.451	-0.054	
22.685	-0.120	-0.036	
22.690	-0.409	-0.029	
22.695	0.264	-0.052	
22.700	0.229	-0.037	
22.705	-0.387	-0.008	
22.710	-0.029	-0.019	
22.715	0.512	-0.017	
22.720	-0.238	0.022	
22.725	-0.154	0.031	
22.730	0.858	0.045	
22.735	0.322	0.130	
22.740	-0.230	0.206	
22.745	0.221	0.210	
22.750	-0.142	0.176	
22.755	-0.723	0.091	
22.760	-0.474	-0.063	
22.765	-0.207	-0.214	
22.770	-0.622	-0.318	
22.775	-0.499	-0.401	
22.780	0.268	-0.430	
22.785	-0.108	-0.368	
22.790	-0.345	-0.283	
22.795	0.479	-0.204	
22.800	0.463	-0.078	
22.805	-0.290	0.050	
22.810	0.177	0.107	
22.815	0.745	0.152	
22.820	-0.148	0.216	
22.825	-0.127	0.223	
22.830	0.770	0.202	
22.835	0.145	0.226	
22.840	-0.259	0.233	
22.845	0.590	0.204	
22.850	0.581	0.221	
22.855	-0.224	0.259	
22.860	0.259	0.248	
22.865	0.822	0.248	
22.870	-0.084	0.286	
22.875	-0.024	0.281	
22.880	0.927	0.264	
22.885	0.332	0.306	
22.890	-0.149	0.337	
22.895	0.815	0.329	
22.900	0.841	0.372	
22.905	-0.069	0.436	
22.910	0.530	0.444	
22.915	1.082	0.462	
22.920	0.073	0.513	
22.925	0.037	0.502	
22.930	0.931	0.454	
22.935	0.256	0.446	
22.940	-0.241	0.415	
22.945	0.535	0.337	
22.950	0.436	0.295	
22.955	-0.357	0.269	
22.960	-0.104	0.188	
22.965	0.340	0.104	
22.970	-0.364	0.053	
22.975	-0.381	-0.018	
22.980	0.251	-0.089	
22.985	-0.204	-0.112	
22.990	-0.528	-0.134	
22.995	0.017	-0.177	
23.000	-0.002	-0.189	
23.005	-0.521	-0.183	
23.010	-0.215	-0.205	
23.015	0.238	-0.210	
23.020	-0.401	-0.181	
23.025	-0.407	-0.178	
23.030	0.280	-0.187	
23.035	-0.166	-0.157	
23.040	-0.482	-0.138	
23.045	0.073	-0.152	
23.050	0.059	-0.144	
23.055	-0.514	-0.128	
23.060	-0.217	-0.151	
23.065	0.253	-0.167	
23.070	-0.399	-0.149	
23.075	-0.409	-0.156	
23.080	0.271	-0.175	
23.085	-0.194	-0.155	
23.090	-0.520	-0.145	
23.095	0.029	-0.170	
23.100	0.088	-0.167	
23.105	-0.508	-0.149	
23.110	-0.223	-0.166	
23.115	0.262	-0.175	
23.120	-0.392	-0.152	
23.125	-0.407	-0.155	
23.130	0.297	-0.170	
23.135	-0.201	-0.147	
23.140	-0.520	-0.137	
23.145	0.030	-0.163	
23.150	0.084	-0.163	
23.155	-0.506	-0.147	
23.160	-0.230	-0.165	
23.165	0.271	-0.176	
23.170	-0.363	-0.151	
23.175	-0.380	-0.150	
23.180	0.360	-0.156	
23.185	-0.127	-0.121	
23.190	-0.451	-0.097	
23.195	0.175	-0.107	
23.200	0.274	-0.084	
23.205	-0.387	-0.042	
23.210	-0.079	-0.040	
23.215	0.524	-0.033	
23.220	-0.264	0.009	
23.225	-0.323	0.013	
23.230	0.418	-0.010	
23.235	-0.075	0.001	
23.240	-0.450	-0.003	
23.245	0.096	-0.044	
23.250	0.142	-0.062	
23.255	-0.473	-0.064	
23.260	-0.207	-0.099	
23.265	0.315	-0.125	
23.270	-0.364	-0.112	
23.275	-0.406	-0.122	
23.280	0.297	-0.146	
23.285	-0.137	-0.128	
23.290	-0.471	-0.116	
23.295	0.148	-0.132	
23.300	0.215	-0.114	
23.305	-0.456	-0.078	
23.310	-0.204	-0.088	
23.315	0.378	-0.099	
23.320	-0.258	-0.072	
23.325	-0.215	-0.062	
23.330	0.895	-0.036	
23.335	0.608	0.084	
23.340	-0.084	0.221	
23.345	0.488	0.290	
23.350	0.027	0.313	
23.355	-0.727	0.258	
23.360	-0.601	0.090	
23.365	-0.290	-0.112	
23.370	-0.685	-0.276	
23.375	-0.642	-0.412	
23.380	0.085	-0.490	
23.385	-0.111	-0.465	
23.390	-0.395	-0.391	
23.395	0.349	-0.308	
23.400	0.489	-0.174	
23.405	-0.334	-0.030	
23.410	-0.041	0.036	
23.415	0.678	0.074	
23.420	-0.143	0.133	
23.425	-0.221	0.146	
23.430	0.674	0.129	
23.435	0.198	0.158	
23.440	-0.300	0.179	
23.445	0.488	0.160	
23.450	0.646	0.182	
23.455	-0.235	0.231	
23.460	0.136	0.226	
23.465	0.869	0.224	
23.470	-0.026	0.267	
23.475	-0.113	0.271	
23.480	0.910	0.254	
23.485	0.492	0.300	
23.490	-0.130	0.348	
23.495	0.802	0.356	
23.500	1.005	0.408	
23.505	0.032	0.490	
23.510	0.547	0.514	
23.515	1.189	0.538	
23.520	0.178	0.594	
23.525	-0.037	0.581	
23.530	0.945	0.516	
23.535	0.448	0.495	
23.540	-0.238	0.467	
23.545	0.472	0.388	
23.550	0.569	0.336	
23.555	-0.320	0.308	
23.560	-0.105	0.229	
23.565	0.518	0.148	
23.570	-0.273	0.111	
23.575	-0.389	0.053	
23.580	0.329	-0.019	
23.585	-0.087	-0.042	
23.590	-0.488	-0.061	
23.595	0.023	-0.107	
23.600	0.232	-0.120	
23.605	-0.442	-0.102	
23.610	-0.223	-0.115	
23.615	0.334	-0.125	
23.620	-0.332	-0.102	
23.625	-0.448	-0.108	
23.630	0.238	-0.137	
23.635	-0.105	-0.129	
23.640	-0.489	-0.123	
23.645	0.059	-0.144	
23.650	0.283	-0.132	
23.655	-0.416	-0.092	
23.660	-0.175	-0.089	
23.665	0.437	-0.086	
23.670	-0.273	-0.049	
23.675	-0.392	-0.045	
23.680	0.363	-0.067	
23.685	-0.044	-0.052	
23.690	-0.453	-0.043	
23.695	0.123	-0.069	
23.700	0.344	-0.063	
23.705	-0.399	-0.029	
23.710	-0.192	-0.037	
23.715	0.447	-0.049	
23.720	-0.265	-0.026	
23.725	-0.369	-0.031	
23.730	0.413	-0.055	
23.735	0.037	-0.034	
23.740	-0.418	-0.014	
23.745	0.154	-0.031	
23.750	0.389	-0.021	
23.755	-0.367	0.014	
23.760	-0.133	0.006	
23.765	0.561	-0.002	
23.770	-0.191	0.031	
23.775	-0.306	0.036	
23.780	0.534	0.019	
23.785	0.136	0.049	
23.790	-0.354	0.075	
23.795	0.341	0.064	
23.800	0.559	0.087	
23.805	-0.277	0.137	
23.810	-0.012	0.136	
23.815	0.765	0.132	
23.820	-0.070	0.172	
23.825	-0.220	0.179	
23.830	0.686	0.157	
23.835	0.303	0.185	
23.840	-0.297	0.210	
23.845	0.343	0.186	
23.850	0.535	0.183	
23.855	-0.302	0.199	
23.860	-0.098	0.162	
23.865	0.614	0.120	
23.870	-0.172	0.121	
23.875	-0.319	0.097	
23.880	0.517	0.054	
23.885	0.128	0.061	
23.890	-0.387	0.072	
23.895	0.227	0.044	
23.900	0.501	0.049	
23.905	-0.332	0.083	
23.910	-0.142	0.071	
23.915	0.564	0.049	
23.920	-0.168	0.067	
23.925	-0.255	0.063	
23.930	0.774	0.053	
23.935	0.549	0.124	
23.940	-0.140	0.215	
23.945	0.532	0.258	
23.950	0.442	0.294	
23.955	-0.523	0.299	
23.960	-0.465	0.197	
23.965	-0.142	0.037	
23.970	-0.589	-0.111	
23.975	-0.691	-0.255	
23.980	-0.073	-0.374	
23.985	-0.131	-0.407	
23.990	-0.430	-0.384	
23.995	0.262	-0.336	
24.000	0.636	-0.216	
24.005	-0.206	-0.056	
24.010	0.029	0.045	
24.015	0.841	0.118	
24.020	0.011	0.212	
24.025	-0.192	0.250	
24.030	0.748	0.239	
24.035	0.418	0.270	
24.040	-0.246	0.297	
24.045	0.483	0.274	
24.050	0.784	0.282	
24.055	-0.166	0.320	
24.060	0.078	0.305	
24.065	0.905	0.282	
24.070	0.102	0.311	
24.075	-0.134	0.312	
24.080	0.872	0.288	
24.085	0.602	0.325	
24.090	-0.122	0.373	
24.095	0.770	0.380	
24.100	1.053	0.428	
24.105	0.020	0.505	
24.110	0.331	0.516	
24.115	1.152	0.511	
24.120	0.319	0.550	
24.125	-0.018	0.550	
24.130	1.001	0.507	
24.135	0.643	0.514	
24.140	-0.182	0.520	
24.145	0.498	0.462	
24.150	0.732	0.420	
24.155	-0.247	0.401	
24.160	-0.117	0.323	
24.165	0.579	0.230	
24.170	-0.174	0.181	
24.175	-0.375	0.118	
24.180	0.312	0.036	
24.185	0.006	0.001	
24.190	-0.457	-0.022	
24.195	-0.014	-0.072	
24.200	0.303	-0.092	
24.205	-0.416	-0.076	
24.210	-0.274	-0.092	
24.215	0.398	-0.109	
24.220	-0.233	-0.084	
24.225	-0.410	-0.078	
24.230	0.319	-0.095	
24.235	0.053	-0.073	
24.240	-0.422	-0.048	
24.245	0.046	-0.062	
24.250	0.389	-0.054	
24.255	-0.358	-0.019	
24.260	-0.207	-0.023	
24.265	0.479	-0.034	
24.270	-0.203	-0.008	
24.275	-0.392	-0.009	
24.280	0.363	-0.036	
24.285	0.108	-0.022	
24.290	-0.409	-0.004	
24.295	0.105	-0.022	
24.300	0.460	-0.014	
24.305	-0.331	0.024	
24.310	-0.186	0.020	
24.315	0.578	0.009	
24.320	-0.122	0.041	
24.325	-0.297	0.051	
24.330	0.575	0.040	
24.335	0.308	0.080	
24.340	-0.326	0.125	
24.345	0.250	0.120	
24.350	0.674	0.134	
24.355	-0.198	0.181	
24.360	-0.058	0.181	
24.365	0.759	0.168	
24.370	0.009	0.198	
24.375	-0.226	0.202	
24.380	0.604	0.174	
24.385	0.348	0.190	
24.390	-0.313	0.208	
24.395	0.207	0.175	
24.400	0.527	0.156	
24.405	-0.317	0.161	
24.410	-0.197	0.120	
24.415	0.535	0.070	
24.420	-0.149	0.065	
24.425	-0.343	0.046	
24.430	0.469	0.011	
24.435	0.244	0.031	
24.440	-0.352	0.063	
24.445	0.203	0.055	
24.450	0.587	0.070	
24.455	-0.256	0.117	
24.460	-0.131	0.115	
24.465	0.662	0.100	
24.470	-0.017	0.128	
24.475	-0.204	0.138	
24.480	0.785	0.134	
24.485	0.599	0.198	
24.490	-0.223	0.274	
24.495	0.187	0.277	
24.500	0.270	0.246	
24.505	-0.528	0.195	
24.510	-0.486	0.075	
24.515	-0.052	-0.069	
24.520	-0.441	-0.175	
24.525	-0.593	-0.265	
24.530	0.108	-0.331	
24.535	0.102	-0.314	
24.540	-0.358	-0.251	
24.545	0.276	-0.189	
24.550	0.761	-0.079	
24.555	-0.128	0.066	
24.560	0.053	0.151	
24.565	0.968	0.209	
24.570	0.241	0.301	
24.575	-0.130	0.352	
24.580	0.851	0.351	
24.585	0.686	0.389	
24.590	-0.174	0.431	
24.595	0.434	0.408	
24.600	0.884	0.394	
24.605	-0.081	0.412	
24.610	0.081	0.382	
24.615	0.960	0.345	
24.620	0.241	0.366	
24.625	-0.127	0.370	
24.630	0.896	0.344	
24.635	0.751	0.380	
24.640	-0.090	0.434	
24.645	0.631	0.435	
24.650	1.108	0.461	
24.655	0.076	0.524	
24.660	0.215	0.526	
24.665	1.079	0.503	
24.670	0.328	0.524	
24.675	-0.110	0.512	
24.680	0.808	0.454	
24.685	0.585	0.438	
24.690	-0.230	0.430	
24.695	0.259	0.365	
24.700	0.654	0.309	
24.705	-0.233	0.286	
24.710	-0.195	0.221	
24.715	0.479	0.142	
24.720	-0.163	0.104	
24.725	-0.398	0.055	
24.730	0.244	-0.012	
24.735	0.037	-0.037	
24.740	-0.465	-0.049	
24.745	-0.095	-0.092	
24.750	0.291	-0.113	
24.755	-0.389	-0.097	
24.760	-0.311	-0.109	
24.765	0.335	-0.126	
24.770	-0.226	-0.104	
24.775	-0.448	-0.101	
24.780	0.171	-0.124	
24.785	0.012	-0.117	
24.790	-0.476	-0.105	
24.795	-0.076	-0.127	
24.800	0.314	-0.128	
24.805	-0.401	-0.099	
24.810	-0.329	-0.103	
24.815	0.282	-0.123	
24.820	-0.256	-0.110	
24.825	-0.496	-0.118	
24.830	0.114	-0.152	
24.835	-0.006	-0.153	
24.840	-0.492	-0.143	
24.845	-0.110	-0.163	
24.850	0.303	-0.162	
24.855	-0.377	-0.125	
24.860	-0.314	-0.120	
24.865	0.375	-0.124	
24.870	-0.195	-0.092	
24.875	-0.453	-0.081	
24.880	0.186	-0.103	
24.885	0.099	-0.094	
24.890	-0.447	-0.075	
24.895	-0.096	-0.093	
24.900	0.332	-0.099	
24.905	-0.374	-0.074	
24.910	-0.342	-0.084	
24.915	0.282	-0.108	
24.920	-0.227	-0.101	
24.925	-0.489	-0.109	
24.930	0.096	-0.144	
24.935	0.050	-0.146	
24.940	-0.464	-0.133	
24.945	-0.101	-0.147	
24.950	0.341	-0.141	
24.955	-0.370	-0.103	
24.960	-0.323	-0.098	
24.965	0.386	-0.107	
24.970	-0.160	-0.078	
24.975	-0.422	-0.066	
24.980	0.245	-0.083	
24.985	0.145	-0.066	
24.990	-0.413	-0.040	
24.995	-0.008	-0.052	
25.000	0.562	-0.042	
25.005	-0.204	0.013	
25.010	-0.107	0.040	
25.015	0.774	0.062	
25.020	0.047	0.130	
25.025	-0.419	0.160	
25.030	-0.043	0.107	
25.035	-0.204	0.029	
25.040	-0.709	-0.069	
25.045	-0.410	-0.198	
25.050	-0.143	-0.302	
25.055	-0.587	-0.357	
25.060	-0.476	-0.400	
25.065	0.226	-0.409	
25.070	-0.162	-0.346	
25.075	-0.403	-0.274	
25.080	0.300	-0.219	
25.085	0.233	-0.132	
25.090	-0.377	-0.046	
25.095	-0.008	-0.020	
25.100	0.474	0.000	
25.105	-0.290	0.040	
25.110	-0.253	0.036	
25.115	0.511	0.014	
25.120	-0.090	0.032	
25.125	-0.374	0.033	
25.130	0.312	0.003	
25.135	0.276	0.012	
25.140	-0.361	0.038	
25.145	0.032	0.024	
25.150	0.573	0.026	
25.155	-0.218	0.066	
25.160	-0.169	0.072	
25.165	0.668	0.067	
25.170	0.097	0.110	
25.175	-0.242	0.140	
25.180	0.596	0.138	
25.185	0.518	0.180	
25.190	-0.233	0.231	
25.195	0.223	0.227	
25.200	0.730	0.226	
25.205	-0.168	0.254	
25.210	-0.168	0.231	
25.215	0.607	0.182	
25.220	-0.061	0.170	
25.225	-0.399	0.136	
25.230	0.192	0.064	
25.235	0.105	0.021	
25.240	-0.467	-0.007	
25.245	-0.172	-0.066	
25.250	0.229	-0.110	
25.255	-0.422	-0.117	
25.260	-0.419	-0.147	
25.265	0.169	-0.185	
25.270	-0.267	-0.185	
25.275	-0.535	-0.193	
25.280	0.006	-0.223	
25.285	-0.011	-0.221	
25.290	-0.518	-0.204	
25.295	-0.207	-0.216	
25.300	0.248	-0.213	
25.305	-0.395	-0.178	
25.310	-0.369	-0.169	
25.315	0.300	-0.172	
25.320	-0.177	-0.140	
25.325	-0.470	-0.122	
25.330	0.107	-0.137	
25.335	0.097	-0.127	
25.340	-0.454	-0.105	
25.345	-0.143	-0.119	
25.350	0.311	-0.124	
25.355	-0.360	-0.098	
25.360	-0.352	-0.102	
25.365	0.334	-0.119	
25.370	-0.151	-0.098	
25.375	-0.438	-0.088	
25.380	0.212	-0.105	
25.385	0.245	-0.083	
25.390	-0.390	-0.042	
25.395	-0.075	-0.043	
25.400	0.450	-0.039	
25.405	-0.302	-0.006	
25.410	-0.313	-0.010	
25.415	0.421	-0.034	
25.420	-0.084	-0.019	
25.425	-0.404	-0.015	
25.430	0.197	-0.042	
25.435	0.143	-0.042	
25.440	-0.471	-0.033	
25.445	-0.186	-0.068	
25.450	0.219	-0.102	
25.455	-0.432	-0.108	
25.460	-0.442	-0.141	
25.465	0.158	-0.185	
25.470	-0.246	-0.189	
25.475	-0.529	-0.196	
25.480	-0.003	-0.224	
25.485	0.004	-0.220	
25.490	-0.523	-0.202	
25.495	-0.223	-0.214	
25.500	0.251	-0.213	
25.505	-0.399	-0.179	
25.510	-0.418	-0.174	
25.515	0.248	-0.185	
25.520	-0.166	-0.160	
25.525	-0.456	-0.143	
25.530	0.215	-0.148	
25.535	0.396	-0.106	
25.540	-0.290	-0.033	
25.545	0.003	0.001	
25.550	0.332	0.020	
25.555	-0.505	0.033	
25.560	-0.645	-0.028	
25.565	-0.247	-0.147	
25.570	-0.518	-0.255	
25.575	-0.770	-0.355	
25.580	-0.235	-0.445	
25.585	-0.081	-0.468	
25.590	-0.503	-0.434	
25.595	-0.153	-0.395	
25.600	0.477	-0.318	
25.605	-0.253	-0.196	
25.610	-0.241	-0.112	
25.615	0.565	-0.058	
25.620	0.033	0.022	
25.625	-0.352	0.070	
25.630	0.375	0.067	
25.635	0.444	0.092	
25.640	-0.311	0.131	
25.645	0.043	0.120	
25.650	0.707	0.115	
25.655	-0.139	0.152	
25.660	-0.177	0.153	
25.665	0.751	0.138	
25.670	0.267	0.178	
25.675	-0.244	0.213	
25.680	0.524	0.205	
25.685	0.604	0.228	
25.690	-0.233	0.267	
25.695	0.192	0.251	
25.700	0.854	0.244	
25.705	-0.027	0.282	
25.710	-0.069	0.282	
25.715	0.905	0.264	
25.720	0.348	0.303	
25.725	-0.206	0.331	
25.730	0.599	0.308	
25.735	0.666	0.316	
25.740	-0.239	0.340	
25.745	0.082	0.302	
25.750	0.630	0.253	
25.755	-0.230	0.233	
25.760	-0.308	0.174	
25.765	0.407	0.093	
25.770	-0.069	0.056	
25.775	-0.451	0.019	
25.780	0.087	-0.044	
25.785	0.177	-0.071	
25.790	-0.454	-0.072	
25.795	-0.197	-0.102	
25.800	0.349	-0.121	
25.805	-0.322	-0.100	
25.810	-0.361	-0.101	
25.815	0.373	-0.114	
25.820	-0.084	-0.085	
25.825	-0.439	-0.066	
25.830	0.192	-0.080	
25.835	0.287	-0.062	
25.840	-0.387	-0.024	
25.845	-0.093	-0.027	
25.850	0.489	-0.028	
25.855	-0.273	0.005	
25.860	-0.335	0.002	
25.865	0.477	-0.021	
25.870	0.009	0.000	
25.875	-0.393	0.016	
25.880	0.251	-0.004	
25.885	0.361	0.009	
25.890	-0.354	0.042	
25.895	-0.098	0.030	
25.900	0.537	0.018	
25.905	-0.220	0.044	
25.910	-0.288	0.040	
25.915	0.552	0.019	
25.920	0.088	0.047	
25.925	-0.345	0.070	
25.930	0.363	0.057	
25.935	0.526	0.082	
25.940	-0.262	0.133	
25.945	0.067	0.136	
25.950	0.730	0.140	
25.955	-0.124	0.181	
25.960	-0.186	0.182	
25.965	0.707	0.158	
25.970	0.204	0.183	
25.975	-0.342	0.198	
25.980	0.335	0.162	
25.985	0.451	0.150	
25.990	-0.354	0.157	
25.995	-0.120	0.115	
26.000	0.474	0.067	
26.005	-0.279	0.056	
26.010	-0.377	0.020	
26.015	0.351	-0.034	
26.020	-0.073	-0.042	
26.025	-0.464	-0.050	
26.030	0.082	-0.087	
26.035	0.245	-0.092	
26.040	-0.425	-0.071	
26.045	-0.188	-0.084	
26.050	0.433	-0.091	
26.055	-0.288	-0.060	
26.060	-0.387	-0.059	
26.065	0.348	-0.080	
26.070	-0.044	-0.063	
26.075	-0.386	-0.049	
26.080	0.380	-0.054	
26.085	0.718	0.005	
26.090	-0.160	0.109	
26.095	0.038	0.160	
26.100	0.317	0.166	
26.105	-0.528	0.146	
26.110	-0.741	0.040	
26.115	-0.306	-0.126	
26.120	-0.485	-0.269	
26.125	-0.753	-0.384	
26.130	-0.186	-0.470	
26.135	0.140	-0.471	
26.140	-0.399	-0.398	
26.145	-0.139	-0.326	
26.150	0.593	-0.234	
26.155	-0.151	-0.105	
26.160	-0.255	-0.020	
26.165	0.611	0.023	
26.170	0.235	0.096	
26.175	-0.305	0.149	
26.180	0.392	0.149	
26.185	0.604	0.171	
26.190	-0.246	0.213	
26.195	-0.018	0.199	
26.200	0.687	0.174	
26.205	-0.127	0.186	
26.210	-0.241	0.167	
26.215	0.666	0.129	
26.220	0.344	0.153	
26.225	-0.235	0.188	
26.230	0.552	0.190	
26.235	0.831	0.235	
26.240	-0.099	0.311	
26.245	0.282	0.333	
26.250	1.061	0.353	
26.255	0.229	0.419	
26.260	0.037	0.446	
26.265	1.078	0.440	
26.270	0.701	0.490	
26.275	-0.078	0.535	
26.280	0.747	0.518	
26.285	0.922	0.522	
26.290	-0.137	0.541	
26.295	0.108	0.485	
26.300	0.787	0.408	
26.305	-0.130	0.367	
26.310	-0.299	0.289	
26.315	0.445	0.185	
26.320	0.021	0.127	
26.325	-0.438	0.078	
26.330	0.059	0.003	
26.335	0.270	-0.037	
26.340	-0.450	-0.043	
26.345	-0.271	-0.079	
26.350	0.309	-0.114	
26.355	-0.313	-0.109	
26.360	-0.444	-0.121	
26.365	0.242	-0.149	
26.370	-0.073	-0.137	
26.375	-0.488	-0.123	
26.380	-0.024	-0.144	
26.385	0.229	-0.141	
26.390	-0.450	-0.115	
26.395	-0.249	-0.123	
26.400	0.375	-0.131	
26.405	-0.281	-0.100	
26.410	-0.421	-0.095	
26.415	0.312	-0.112	
26.420	0.018	-0.089	
26.425	-0.445	-0.066	
26.430	0.049	-0.081	
26.435	0.267	-0.077	
26.440	-0.441	-0.054	
26.445	-0.274	-0.074	
26.450	0.363	-0.099	
26.455	-0.261	-0.084	
26.460	-0.415	-0.088	
26.465	0.344	-0.108	
26.470	0.056	-0.083	
26.475	-0.442	-0.054	
26.480	0.014	-0.068	
26.485	0.264	-0.069	
26.490	-0.453	-0.053	
26.495	-0.300	-0.078	
26.500	0.322	-0.110	
26.505	-0.306	-0.104	
26.510	-0.480	-0.117	
26.515	0.142	-0.154	
26.520	-0.125	-0.159	
26.525	-0.541	-0.162	
26.530	-0.053	-0.191	
26.535	0.244	-0.189	
26.540	-0.436	-0.153	
26.545	-0.277	-0.149	
26.550	0.408	-0.147	
26.555	-0.249	-0.105	
26.560	-0.407	-0.088	
26.565	0.323	-0.097	
26.570	0.032	-0.072	
26.575	-0.448	-0.049	
26.580	0.101	-0.063	
26.585	0.445	-0.050	
26.590	-0.343	-0.004	
26.595	-0.188	-0.001	
26.600	0.505	-0.009	
26.605	-0.218	0.017	
26.610	-0.424	0.010	
26.615	0.235	-0.034	
26.620	-0.041	-0.049	
26.625	-0.521	-0.064	
26.630	-0.096	-0.114	
26.635	0.169	-0.143	
26.640	-0.486	-0.142	
26.645	-0.335	-0.168	
26.650	0.308	-0.189	
26.655	-0.306	-0.165	
26.660	-0.500	-0.161	
26.665	0.154	-0.182	
26.670	-0.069	-0.171	
26.675	-0.518	-0.157	
26.680	-0.085	-0.176	
26.685	0.271	-0.172	
26.690	-0.409	-0.136	
26.695	-0.188	-0.127	
26.700	0.767	-0.100	
26.705	0.195	0.003	
26.710	0.021	0.107	
26.715	1.038	0.198	
26.720	0.302	0.316	
26.725	-0.589	0.365	
26.730	-0.395	0.263	
26.735	-0.348	0.085	
26.740	-0.874	-0.109	
26.745	-0.700	-0.313	
26.750	-0.157	-0.468	
26.755	-0.410	-0.523	
26.760	-0.492	-0.522	
26.765	0.328	-0.474	
26.770	0.175	-0.348	
26.775	-0.377	-0.207	
26.780	0.264	-0.114	
26.785	0.678	-0.009	
26.790	-0.259	0.107	
26.795	-0.098	0.147	
26.800	0.747	0.153	
26.805	-0.018	0.192	
26.810	-0.267	0.195	
26.815	0.578	0.163	
26.820	0.338	0.173	
26.825	-0.310	0.190	
26.830	0.315	0.165	
26.835	0.730	0.170	
26.840	-0.197	0.215	
26.845	-0.027	0.211	
26.850	0.875	0.199	
26.855	0.130	0.242	
26.860	-0.156	0.263	
26.865	0.875	0.257	
26.870	0.677	0.312	
26.875	-0.140	0.377	
26.880	0.623	0.387	
26.885	1.041	0.419	
26.890	-0.014	0.482	
26.895	0.172	0.479	
26.900	0.994	0.450	
26.905	0.148	0.459	
26.910	-0.218	0.428	
26.915	0.640	0.350	
26.920	0.290	0.310	
26.925	-0.399	0.270	
26.930	0.046	0.180	
26.935	0.380	0.105	
26.940	-0.410	0.068	
26.945	-0.325	0.001	
26.950	0.297	-0.067	
26.955	-0.290	-0.089	
26.960	-0.515	-0.120	
26.965	0.108	-0.169	
26.970	-0.064	-0.179	
26.975	-0.540	-0.176	
26.980	-0.127	-0.201	
26.985	0.264	-0.201	
26.990	-0.447	-0.166	
26.995	-0.335	-0.162	
27.000	0.344	-0.166	
27.005	-0.250	-0.133	
27.010	-0.477	-0.121	
27.015	0.192	-0.140	
27.020	0.020	-0.126	
27.025	-0.497	-0.109	
27.030	-0.072	-0.128	
27.035	0.360	-0.127	
27.040	-0.381	-0.091	
27.045	-0.287	-0.088	
27.050	0.434	-0.094	
27.055	-0.188	-0.062	
27.060	-0.404	-0.050	
27.065	0.340	-0.066	
27.070	0.175	-0.040	
27.075	-0.416	-0.008	
27.080	0.052	-0.018	
27.085	0.505	-0.011	
27.090	-0.334	0.028	
27.095	-0.244	0.023	
27.100	0.555	0.004	
27.105	-0.139	0.028	
27.110	-0.395	0.029	
27.115	0.375	-0.002	
27.120	0.223	0.010	
27.125	-0.401	0.034	
27.130	0.081	0.016	
27.135	0.572	0.020	
27.140	-0.291	0.061	
27.145	-0.200	0.060	
27.150	0.642	0.046	
27.155	-0.046	0.079	
27.160	-0.317	0.091	
27.165	0.544	0.074	
27.170	0.437	0.108	
27.175	-0.299	0.156	
27.180	0.245	0.155	
27.185	0.726	0.168	
27.190	-0.194	0.213	
27.195	-0.095	0.207	
27.200	0.828	0.186	
27.205	0.123	0.219	
27.210	-0.224	0.235	
27.215	0.678	0.215	
27.220	0.532	0.242	
27.225	-0.270	0.279	
27.230	0.247	0.257	
27.235	0.701	0.241	
27.240	-0.221	0.255	
27.245	-0.166	0.219	
27.250	0.655	0.165	
27.255	-0.038	0.160	
27.260	-0.326	0.139	
27.265	0.482	0.094	
27.270	0.358	0.100	
27.275	-0.334	0.124	
27.280	0.148	0.106	
27.285	0.640	0.105	
27.290	-0.235	0.140	
27.295	-0.174	0.132	
27.300	0.686	0.108	
27.305	0.008	0.132	
27.310	-0.256	0.140	
27.315	0.700	0.127	
27.320	0.706	0.182	
27.325	-0.105	0.269	
27.330	0.521	0.308	
27.335	0.762	0.349	
27.340	-0.366	0.383	
27.345	-0.451	0.309	
27.350	-0.037	0.155	
27.355	-0.444	0.007	
27.360	-0.680	-0.142	
27.365	-0.102	-0.277	
27.370	-0.041	-0.334	
27.375	-0.430	-0.330	
27.380	0.184	-0.299	
27.385	0.843	-0.193	
27.390	-0.073	-0.023	
27.395	0.033	0.099	
27.400	1.027	0.188	
27.405	0.376	0.311	
27.410	-0.085	0.392	
27.415	0.927	0.412	
27.420	0.851	0.466	
27.425	-0.084	0.524	
27.430	0.558	0.514	
27.435	1.076	0.511	
27.440	0.099	0.545	
27.445	0.161	0.527	
27.450	1.082	0.491	
27.455	0.441	0.510	
27.460	-0.044	0.514	
27.465	1.009	0.484	
27.470	1.008	0.517	
27.475	0.073	0.581	
27.480	0.771	0.594	
27.485	1.320	0.626	
27.490	0.351	0.700	
27.495	0.448	0.721	
27.500	1.422	0.722	
27.505	0.802	0.777	
27.510	0.226	0.812	
27.515	1.227	0.793	
27.520	1.102	0.812	
27.525	0.038	0.831	
27.530	0.646	0.772	
27.535	1.149	0.714	
27.540	0.043	0.692	
27.545	0.015	0.611	
27.550	0.901	0.504	
27.555	0.203	0.451	
27.560	-0.227	0.391	
27.565	0.593	0.306	
27.570	0.471	0.273	
27.575	-0.305	0.263	
27.580	0.114	0.209	
27.585	0.648	0.170	
27.590	-0.203	0.175	
27.595	-0.163	0.149	
27.600	0.704	0.117	
27.605	0.067	0.140	
27.610	-0.287	0.151	
27.615	0.500	0.128	
27.620	0.471	0.148	
27.625	-0.279	0.184	
27.630	0.168	0.172	
27.635	0.716	0.169	
27.640	-0.172	0.203	
27.645	-0.153	0.192	
27.650	0.710	0.162	
27.655	0.090	0.180	
27.660	-0.284	0.184	
27.665	0.520	0.153	
27.670	0.454	0.166	
27.675	-0.293	0.194	
27.680	0.102	0.171	
27.685	0.627	0.152	
27.690	-0.232	0.167	
27.695	-0.217	0.141	
27.700	0.601	0.099	
27.705	-0.037	0.104	
27.710	-0.342	0.096	
27.715	0.369	0.058	
27.720	0.357	0.063	
27.725	-0.329	0.089	
27.730	0.044	0.073	
27.735	0.588	0.068	
27.740	-0.230	0.099	
27.745	-0.247	0.090	
27.750	0.527	0.060	
27.755	-0.046	0.069	
27.760	-0.369	0.064	
27.765	0.280	0.027	
27.770	0.283	0.025	
27.775	-0.361	0.042	
27.780	-0.046	0.020	
27.785	0.462	0.006	
27.790	-0.310	0.025	
27.795	-0.337	0.006	
27.800	0.312	-0.035	
27.805	-0.182	-0.044	
27.810	-0.480	-0.065	
27.815	0.061	-0.113	
27.820	0.043	-0.130	
27.825	-0.502	-0.131	
27.830	-0.195	-0.161	
27.835	0.198	-0.178	
27.840	-0.442	-0.164	
27.845	-0.448	-0.180	
27.850	0.155	-0.209	
27.855	-0.244	-0.202	
27.860	-0.518	-0.201	
27.865	0.082	-0.218	
27.870	0.125	-0.197	
27.875	-0.422	-0.155	
27.880	-0.052	-0.141	
27.885	0.549	-0.107	
27.890	-0.323	-0.037	
27.895	-0.476	-0.023	
27.900	-0.140	-0.076	
27.905	-0.531	-0.148	
27.910	-0.858	-0.251	
27.915	-0.403	-0.378	
27.920	-0.360	-0.464	
27.925	-0.759	-0.507	
27.930	-0.399	-0.540	
27.935	0.058	-0.526	
27.940	-0.428	-0.455	
27.945	-0.415	-0.392	
27.950	0.259	-0.335	
27.955	-0.172	-0.248	
27.960	-0.477	-0.186	
27.965	0.102	-0.168	
27.970	0.139	-0.134	
27.975	-0.462	-0.097	
27.980	-0.162	-0.104	
27.985	0.329	-0.110	
27.990	-0.354	-0.086	
27.995	-0.374	-0.093	
28.000	0.326	-0.115	
28.005	-0.143	-0.098	
28.010	-0.483	-0.092	
28.015	0.070	-0.120	
28.020	0.126	-0.122	
28.025	-0.474	-0.107	
28.030	-0.195	-0.127	
28.035	0.314	-0.139	
28.040	-0.339	-0.115	
28.045	-0.340	-0.114	
28.050	0.407	-0.121	
28.055	-0.090	-0.084	
28.060	-0.416	-0.059	
28.065	0.210	-0.069	
28.070	0.223	-0.051	
28.075	-0.447	-0.023	
28.080	-0.178	-0.044	
28.085	0.283	-0.070	
28.090	-0.430	-0.072	
28.095	-0.502	-0.109	
28.100	0.009	-0.173	
28.105	-0.354	-0.211	
28.110	-0.671	-0.254	
28.115	-0.221	-0.317	
28.120	-0.212	-0.350	
28.125	-0.700	-0.364	
28.130	-0.453	-0.399	
28.135	-0.143	-0.423	
28.140	-0.624	-0.420	
28.145	-0.662	-0.435	
28.150	-0.185	-0.461	
28.155	-0.439	-0.456	
28.160	-0.762	-0.454	
28.165	-0.293	-0.473	
28.170	-0.242	-0.469	
28.175	-0.724	-0.449	
28.180	-0.477	-0.457	
28.185	-0.157	-0.461	
28.190	-0.599	-0.442	
28.195	-0.630	-0.443	
28.200	-0.125	-0.453	
28.205	-0.387	-0.433	
28.210	-0.691	-0.416	
28.215	-0.207	-0.423	
28.220	-0.182	-0.407	
28.225	-0.662	-0.381	
28.230	-0.401	-0.386	
28.235	-0.047	-0.387	
28.240	-0.537	-0.364	
28.245	-0.590	-0.364	
28.250	-0.060	-0.379	
28.255	-0.325	-0.364	
28.260	-0.634	-0.352	
28.265	-0.151	-0.361	
28.270	-0.063	-0.345	
28.275	-0.573	-0.313	
28.280	-0.331	-0.310	
28.285	0.143	-0.302	
28.290	-0.412	-0.263	
28.295	-0.465	-0.249	
28.300	0.140	-0.251	
28.305	-0.230	-0.225	
28.310	-0.570	-0.212	
28.315	-0.101	-0.234	
28.320	-0.003	-0.238	
28.325	-0.557	-0.226	
28.330	-0.337	-0.246	
28.335	0.058	-0.264	
28.340	-0.480	-0.257	
28.345	-0.544	-0.273	
28.350	0.009	-0.302	
28.355	-0.281	-0.298	
28.360	-0.585	-0.293	
28.365	-0.107	-0.309	
28.370	-0.002	-0.297	
28.375	-0.499	-0.264	
28.380	-0.236	-0.256	
28.385	0.300	-0.236	
28.390	-0.351	-0.182	
28.395	-0.386	-0.158	
28.400	0.413	-0.150	
28.405	0.015	-0.097	
28.410	-0.354	-0.049	
28.415	0.445	-0.028	
28.420	0.668	0.043	
28.425	-0.250	0.141	
28.430	-0.119	0.165	
28.435	0.236	0.135	
28.440	-0.483	0.089	
28.445	-0.611	-0.012	
28.450	-0.130	-0.144	
28.455	-0.355	-0.239	
28.460	-0.611	-0.308	
28.465	-0.018	-0.359	
