Vernier Format 2
ecg1.txt 10/19/2025 10:23:15
Run 1
Time	Potential	EKG	
T	P	E	
s	mV	mV	

0.000	0.046	0.002	
0.005	-0.006	0.007	
0.010	-0.075	0.006	
0.015	0.041	-0.001	
0.020	0.108	0.001	
0.025	-0.014	0.013	
0.030	0.029	0.022	
0.035	0.119	0.029	
0.040	-0.011	0.039	
0.045	-0.049	0.039	
0.050	0.053	0.029	
0.055	-0.016	0.021	
0.060	-0.109	0.009	
0.065	-0.054	-0.012	
0.070	-0.037	-0.031	
0.075	-0.130	-0.047	
0.080	-0.095	-0.064	
0.085	-0.029	-0.077	
0.090	-0.098	-0.081	
0.095	-0.112	-0.083	
0.100	-0.017	-0.085	
0.105	-0.046	-0.079	
0.110	-0.115	-0.071	
0.115	-0.040	-0.069	
0.120	-0.006	-0.065	
0.125	-0.090	-0.057	
0.130	-0.034	-0.053	
0.135	0.050	-0.046	
0.140	-0.064	-0.034	
0.145	-0.109	-0.031	
0.150	-0.008	-0.037	
0.155	-0.043	-0.041	
0.160	-0.110	-0.044	
0.165	-0.023	-0.051	
0.170	0.023	-0.051	
0.175	-0.072	-0.044	
0.180	-0.029	-0.040	
0.185	0.081	-0.032	
0.190	-0.006	-0.017	
0.195	-0.020	-0.004	
0.200	0.113	0.006	
0.205	0.073	0.023	
0.210	-0.022	0.038	
0.215	0.078	0.043	
0.220	0.108	0.049	
0.225	-0.017	0.056	
0.230	0.035	0.054	
0.235	0.151	0.052	
0.240	0.044	0.059	
0.245	0.027	0.064	
0.250	0.171	0.067	
0.255	0.122	0.079	
0.260	0.027	0.090	
0.265	0.140	0.094	
0.270	0.160	0.100	
0.275	0.023	0.107	
0.280	0.079	0.104	
0.285	0.166	0.099	
0.290	0.029	0.099	
0.295	-0.008	0.090	
0.300	0.120	0.076	
0.305	0.050	0.068	
0.310	-0.049	0.059	
0.315	0.032	0.043	
0.320	0.033	0.030	
0.325	-0.075	0.019	
0.330	-0.045	0.002	
0.335	0.033	-0.012	
0.340	-0.058	-0.019	
0.345	-0.072	-0.026	
0.350	0.015	-0.033	
0.355	-0.029	-0.034	
0.360	-0.109	-0.035	
0.365	-0.042	-0.042	
0.370	-0.006	-0.047	
0.375	-0.097	-0.048	
0.380	-0.069	-0.052	
0.385	0.007	-0.055	
0.390	-0.045	-0.051	
0.395	-0.029	-0.044	
0.400	0.097	-0.033	
0.405	0.041	-0.012	
0.410	-0.060	0.006	
0.415	-0.000	0.010	
0.420	-0.000	0.008	
0.425	-0.119	-0.001	
0.430	-0.116	-0.021	
0.435	-0.086	-0.047	
0.440	-0.155	-0.072	
0.445	-0.155	-0.096	
0.450	-0.081	-0.115	
0.455	-0.112	-0.123	
0.460	-0.171	-0.127	
0.465	-0.112	-0.131	
0.470	-0.103	-0.132	
0.475	-0.187	-0.131	
0.480	-0.158	-0.136	
0.485	-0.092	-0.141	
0.490	-0.133	-0.139	
0.495	-0.119	-0.134	
0.500	-0.031	-0.126	
0.505	-0.068	-0.110	
0.510	-0.158	-0.097	
0.515	-0.129	-0.096	
0.520	-0.130	-0.103	
0.525	-0.202	-0.115	
0.530	-0.164	-0.132	
0.535	-0.089	-0.144	
0.540	-0.135	-0.146	
0.545	-0.141	-0.143	
0.550	-0.052	-0.136	
0.555	-0.068	-0.123	
0.560	-0.124	-0.108	
0.565	-0.060	-0.098	
0.570	-0.031	-0.087	
0.575	-0.090	-0.076	
0.580	0.003	-0.066	
0.585	0.372	-0.036	
0.590	0.415	0.040	
0.595	0.418	0.144	
0.600	0.524	0.251	
0.605	0.434	0.345	
0.610	0.310	0.406	
0.615	0.371	0.426	
0.620	0.379	0.424	
0.625	0.215	0.407	
0.630	0.236	0.371	
0.635	0.328	0.332	
0.640	0.197	0.302	
0.645	0.146	0.271	
0.650	0.255	0.241	
0.655	0.180	0.220	
0.660	0.044	0.199	
0.665	0.125	0.171	
0.670	0.151	0.145	
0.675	0.027	0.127	
0.680	0.056	0.107	
0.685	0.116	0.089	
0.690	-0.000	0.077	
0.695	-0.038	0.060	
0.700	0.042	0.040	
0.705	-0.006	0.024	
0.710	-0.083	0.009	
0.715	-0.019	-0.008	
0.720	0.024	-0.020	
0.725	-0.075	-0.024	
0.730	-0.058	-0.030	
0.735	0.010	-0.036	
0.740	-0.054	-0.036	
0.745	-0.066	-0.037	
0.750	0.035	-0.038	
0.755	-0.000	-0.031	
0.760	-0.060	-0.023	
0.765	0.044	-0.018	
0.770	0.107	-0.007	
0.775	0.009	0.013	
0.780	0.050	0.028	
0.785	0.116	0.041	
0.790	-0.002	0.052	
0.795	-0.042	0.052	
0.800	0.018	0.039	
0.805	-0.045	0.023	
0.810	-0.156	0.000	
0.815	-0.144	-0.034	
0.820	-0.173	-0.073	
0.825	-0.283	-0.114	
0.830	-0.278	-0.160	
0.835	-0.219	-0.202	
0.840	-0.274	-0.231	
0.845	-0.281	-0.251	
0.850	-0.200	-0.262	
0.855	-0.207	-0.261	
0.860	-0.237	-0.251	
0.865	-0.156	-0.238	
0.870	-0.116	-0.219	
0.875	-0.167	-0.195	
0.880	-0.141	-0.174	
0.885	-0.095	-0.157	
0.890	-0.174	-0.143	
0.895	-0.190	-0.139	
0.900	-0.124	-0.142	
0.905	-0.155	-0.145	
0.910	-0.207	-0.149	
0.915	-0.124	-0.156	
0.920	-0.115	-0.156	
0.925	-0.208	-0.154	
0.930	-0.167	-0.156	
0.935	-0.087	-0.158	
0.940	-0.132	-0.151	
0.945	-0.132	-0.142	
0.950	-0.031	-0.131	
0.955	-0.049	-0.113	
0.960	-0.081	-0.093	
0.965	0.013	-0.075	
0.970	0.070	-0.051	
0.975	-0.025	-0.025	
0.980	0.062	-0.003	
0.985	0.195	0.022	
0.990	0.091	0.055	
0.995	0.104	0.084	
1.000	0.270	0.108	
1.005	0.212	0.140	
1.010	0.117	0.167	
1.015	0.267	0.183	
1.020	0.331	0.202	
1.025	0.208	0.227	
1.030	0.276	0.244	
1.035	0.405	0.261	
1.040	0.287	0.285	
1.045	0.290	0.302	
1.050	0.460	0.316	
1.055	0.397	0.339	
1.060	0.284	0.359	
1.065	0.440	0.367	
1.070	0.522	0.381	
1.075	0.383	0.404	
1.080	0.427	0.420	
1.085	0.499	0.430	
1.090	0.342	0.437	
1.095	0.304	0.429	
1.100	0.437	0.410	
1.105	0.356	0.395	
1.110	0.249	0.380	
1.115	0.371	0.358	
1.120	0.415	0.347	
1.125	0.336	0.348	
1.130	0.446	0.355	
1.135	0.563	0.376	
1.140	0.438	0.409	
1.145	0.414	0.436	
1.150	0.562	0.453	
1.155	0.470	0.470	
1.160	0.336	0.477	
1.165	0.420	0.464	
1.170	0.391	0.444	
1.175	0.211	0.418	
1.180	0.227	0.376	
1.185	0.293	0.330	
1.190	0.151	0.291	
1.195	0.104	0.250	
1.200	0.217	0.211	
1.205	0.122	0.183	
1.210	0.020	0.157	
1.215	0.124	0.129	
1.220	0.101	0.108	
1.225	-0.034	0.091	
1.230	0.006	0.068	
1.235	0.078	0.047	
1.240	-0.025	0.034	
1.245	-0.035	0.021	
1.250	0.084	0.010	
1.255	0.023	0.010	
1.260	-0.064	0.011	
1.265	0.006	0.005	
1.270	0.004	-0.001	
1.275	-0.113	-0.009	
1.280	-0.097	-0.025	
1.285	-0.037	-0.045	
1.290	-0.113	-0.059	
1.295	-0.124	-0.073	
1.300	-0.052	-0.086	
1.305	-0.098	-0.091	
1.310	-0.161	-0.096	
1.315	-0.101	-0.104	
1.320	-0.077	-0.110	
1.325	-0.152	-0.111	
1.330	-0.112	-0.114	
1.335	-0.052	-0.114	
1.340	-0.144	-0.109	
1.345	-0.167	-0.110	
1.350	-0.097	-0.117	
1.355	-0.126	-0.121	
1.360	-0.177	-0.125	
1.365	-0.121	-0.132	
1.370	-0.115	-0.135	
1.375	-0.187	-0.137	
1.380	-0.155	-0.142	
1.385	-0.092	-0.145	
1.390	-0.159	-0.143	
1.395	-0.167	-0.142	
1.400	-0.092	-0.143	
1.405	-0.130	-0.139	
1.410	-0.182	-0.136	
1.415	-0.118	-0.138	
1.420	-0.110	-0.137	
1.425	-0.197	-0.137	
1.430	-0.171	-0.142	
1.435	-0.100	-0.148	
1.440	-0.155	-0.148	
1.445	-0.170	-0.147	
1.450	-0.101	-0.147	
1.455	-0.141	-0.144	
1.460	-0.199	-0.142	
1.465	0.041	-0.138	
1.470	0.198	-0.107	
1.475	0.068	-0.049	
1.480	0.104	0.009	
1.485	0.162	0.056	
1.490	0.006	0.089	
1.495	-0.022	0.096	
1.500	0.091	0.084	
1.505	0.044	0.072	
1.510	-0.032	0.060	
1.515	0.079	0.045	
1.520	0.111	0.041	
1.525	-0.032	0.043	
1.530	-0.013	0.038	
1.535	0.029	0.027	
1.540	-0.084	0.015	
1.545	-0.116	-0.005	
1.550	-0.058	-0.032	
1.555	-0.113	-0.055	
1.560	-0.182	-0.078	
1.565	-0.126	-0.102	
1.570	-0.113	-0.121	
1.575	-0.184	-0.132	
1.580	-0.142	-0.142	
1.585	-0.075	-0.146	
1.590	-0.138	-0.141	
1.595	-0.139	-0.135	
1.600	-0.055	-0.129	
1.605	-0.086	-0.118	
1.610	-0.132	-0.107	
1.615	-0.045	-0.100	
1.620	-0.032	-0.090	
1.625	-0.127	-0.079	
1.630	-0.109	-0.078	
1.635	-0.045	-0.080	
1.640	-0.119	-0.082	
1.645	-0.136	-0.086	
1.650	-0.038	-0.093	
1.655	-0.074	-0.092	
1.660	-0.109	-0.088	
1.665	-0.011	-0.084	
1.670	0.018	-0.072	
1.675	-0.066	-0.054	
1.680	0.001	-0.041	
1.685	0.111	-0.025	
1.690	-0.002	-0.002	
1.695	-0.019	0.014	
1.700	0.119	0.023	
1.705	0.062	0.036	
1.710	-0.032	0.045	
1.715	0.076	0.045	
1.720	0.120	0.048	
1.725	0.015	0.056	
1.730	0.068	0.059	
1.735	0.180	0.065	
1.740	0.076	0.080	
1.745	0.070	0.091	
1.750	0.203	0.099	
1.755	0.142	0.113	
1.760	0.056	0.124	
1.765	0.169	0.126	
1.770	0.166	0.130	
1.775	0.049	0.133	
1.780	0.124	0.128	
1.785	0.195	0.124	
1.790	0.055	0.126	
1.795	0.053	0.120	
1.800	0.168	0.110	
1.805	0.085	0.107	
1.810	-0.005	0.101	
1.815	0.075	0.086	
1.820	0.073	0.073	
1.825	-0.057	0.061	
1.830	-0.017	0.041	
1.835	0.070	0.023	
1.840	-0.025	0.014	
1.845	-0.046	0.006	
1.850	0.056	-0.002	
1.855	0.015	-0.002	
1.860	-0.051	0.000	
1.865	0.039	-0.001	
1.870	0.042	0.002	
1.875	-0.057	0.006	
1.880	0.021	0.005	
1.885	0.145	0.009	
1.890	0.035	0.026	
1.895	0.017	0.040	
1.900	0.114	0.048	
1.905	0.029	0.055	
1.910	-0.060	0.054	
1.915	0.001	0.039	
1.920	-0.008	0.022	
1.925	-0.127	0.003	
1.930	-0.107	-0.024	
1.935	-0.051	-0.051	
1.940	-0.129	-0.070	
1.945	-0.136	-0.087	
1.950	-0.051	-0.101	
1.955	-0.095	-0.104	
1.960	-0.147	-0.104	
1.965	-0.074	-0.106	
1.970	-0.060	-0.104	
1.975	-0.124	-0.099	
1.980	-0.061	-0.095	
1.985	0.024	-0.085	
1.990	-0.060	-0.069	
1.995	-0.080	-0.056	
2.000	-0.026	-0.050	
2.005	-0.109	-0.050	
2.010	-0.182	-0.060	
2.015	-0.126	-0.081	
2.020	-0.097	-0.101	
2.025	-0.142	-0.114	
2.030	-0.103	-0.121	
2.035	-0.035	-0.120	
2.040	-0.090	-0.110	
2.045	-0.090	-0.098	
2.050	0.009	-0.087	
2.055	-0.031	-0.070	
2.060	-0.090	-0.055	
2.065	-0.006	-0.048	
2.070	-0.005	-0.040	
2.075	-0.101	-0.035	
2.080	-0.046	-0.037	
2.085	0.035	-0.039	
2.090	-0.043	-0.033	
2.095	-0.037	-0.029	
2.100	0.068	-0.023	
2.105	0.012	-0.011	
2.110	-0.040	-0.001	
2.115	0.065	0.004	
2.120	0.087	0.014	
2.125	-0.028	0.026	
2.130	0.032	0.030	
2.135	0.119	0.034	
2.140	0.017	0.042	
2.145	0.003	0.046	
2.150	0.119	0.046	
2.155	0.047	0.050	
2.160	-0.046	0.051	
2.165	0.026	0.041	
2.170	0.013	0.030	
2.175	-0.083	0.017	
2.180	-0.046	-0.001	
2.185	0.012	-0.018	
2.190	-0.078	-0.027	
2.195	-0.075	-0.037	
2.200	0.007	-0.045	
2.205	-0.046	-0.046	
2.210	-0.100	-0.046	
2.215	-0.031	-0.050	
2.220	-0.017	-0.052	
2.225	-0.090	-0.050	
2.230	-0.052	-0.051	
2.235	0.012	-0.051	
2.240	-0.060	-0.045	
2.245	-0.064	-0.042	
2.250	0.035	-0.040	
2.255	0.001	-0.031	
2.260	-0.034	-0.021	
2.265	0.090	-0.011	
2.270	0.102	0.007	
2.275	-0.028	0.027	
2.280	-0.005	0.034	
2.285	0.041	0.031	
2.290	-0.075	0.024	
2.295	-0.098	0.007	
2.300	-0.029	-0.017	
2.305	-0.083	-0.037	
2.310	-0.147	-0.055	
2.315	-0.081	-0.075	
2.320	-0.066	-0.089	
2.325	-0.141	-0.095	
2.330	-0.101	-0.102	
2.335	-0.043	-0.104	
2.340	-0.113	-0.100	
2.345	-0.112	-0.097	
2.350	-0.008	-0.093	
2.355	-0.051	-0.083	
2.360	-0.098	-0.072	
2.365	-0.002	-0.065	
2.370	0.017	-0.053	
2.375	-0.097	-0.041	
2.380	-0.078	-0.039	
2.385	-0.045	-0.044	
2.390	-0.124	-0.052	
2.395	-0.109	-0.065	
2.400	-0.020	-0.076	
2.405	-0.046	-0.076	
2.410	-0.063	-0.071	
2.415	0.047	-0.060	
2.420	0.053	-0.040	
2.425	-0.037	-0.018	
2.430	0.047	-0.002	
2.435	0.169	0.016	
2.440	0.053	0.043	
2.445	0.052	0.063	
2.450	0.194	0.077	
2.455	0.140	0.097	
2.460	0.076	0.114	
2.465	0.240	0.126	
2.470	0.255	0.146	
2.475	0.114	0.169	
2.480	0.194	0.180	
2.485	0.313	0.190	
2.490	0.185	0.206	
2.495	0.204	0.217	
2.500	0.336	0.225	
2.505	0.269	0.240	
2.510	0.183	0.252	
2.515	0.322	0.256	
2.520	0.324	0.263	
2.525	0.175	0.271	
2.530	0.238	0.267	
2.535	0.354	0.262	
2.540	0.279	0.268	
2.545	0.288	0.277	
2.550	0.402	0.288	
2.555	0.316	0.305	
2.560	0.226	0.316	
2.565	0.359	0.314	
2.570	0.377	0.317	
2.575	0.244	0.322	
2.580	0.327	0.320	
2.585	0.395	0.320	
2.590	0.247	0.324	
2.595	0.224	0.317	
2.600	0.354	0.304	
2.605	0.296	0.298	
2.610	0.218	0.294	
2.615	0.362	0.288	
2.620	0.348	0.292	
2.625	0.221	0.298	
2.630	0.339	0.299	
2.635	0.461	0.307	
2.640	0.313	0.327	
2.645	0.276	0.339	
2.650	0.363	0.339	
2.655	0.238	0.334	
2.660	0.133	0.315	
2.665	0.246	0.282	
2.670	0.244	0.253	
2.675	0.068	0.230	
2.680	0.101	0.198	
2.685	0.157	0.166	
2.690	0.009	0.139	
2.695	-0.022	0.107	
2.700	0.078	0.073	
2.705	-0.003	0.050	
2.710	-0.069	0.029	
2.715	0.013	0.007	
2.720	0.006	-0.006	
2.725	-0.097	-0.015	
2.730	-0.051	-0.028	
2.735	0.003	-0.038	
2.740	-0.078	-0.041	
2.745	-0.086	-0.047	
2.750	-0.042	-0.054	
2.755	-0.112	-0.061	
2.760	-0.182	-0.073	
2.765	-0.136	-0.094	
2.770	-0.155	-0.115	
2.775	-0.229	-0.135	
2.780	-0.190	-0.157	
2.785	-0.150	-0.174	
2.790	-0.214	-0.183	
2.795	-0.216	-0.190	
2.800	-0.144	-0.195	
2.805	-0.176	-0.193	
2.810	-0.220	-0.189	
2.815	-0.161	-0.188	
2.820	-0.153	-0.185	
2.825	-0.210	-0.181	
2.830	-0.159	-0.179	
2.835	-0.109	-0.174	
2.840	-0.179	-0.166	
2.845	-0.181	-0.161	
2.850	-0.100	-0.158	
2.855	-0.139	-0.152	
2.860	-0.187	-0.146	
2.865	-0.113	-0.146	
2.870	-0.104	-0.142	
2.875	-0.170	-0.137	
2.880	-0.124	-0.135	
2.885	-0.072	-0.132	
2.890	-0.150	-0.126	
2.895	-0.153	-0.123	
2.900	-0.075	-0.124	
2.905	-0.126	-0.121	
2.910	-0.176	-0.121	
2.915	-0.103	-0.125	
2.920	-0.100	-0.126	
2.925	-0.174	-0.125	
2.930	-0.139	-0.129	
2.935	-0.095	-0.132	
2.940	-0.173	-0.133	
2.945	-0.182	-0.137	
2.950	-0.103	-0.143	
2.955	-0.138	-0.144	
2.960	-0.182	-0.144	
2.965	-0.119	-0.146	
2.970	-0.113	-0.145	
2.975	-0.179	-0.141	
2.980	-0.133	-0.142	
2.985	-0.084	-0.140	
2.990	-0.142	-0.134	
2.995	-0.121	-0.129	
3.000	-0.009	-0.121	
3.005	-0.031	-0.102	
3.010	-0.072	-0.081	
3.015	0.003	-0.064	
3.020	-0.009	-0.047	
3.025	-0.090	-0.035	
3.030	-0.060	-0.034	
3.035	-0.025	-0.038	
3.040	-0.118	-0.044	
3.045	-0.129	-0.056	
3.050	-0.058	-0.072	
3.055	-0.107	-0.083	
3.060	-0.156	-0.093	
3.065	-0.092	-0.104	
3.070	-0.092	-0.110	
3.075	-0.158	-0.113	
3.080	-0.107	-0.117	
3.085	-0.046	-0.117	
3.090	-0.122	-0.110	
3.095	-0.119	-0.105	
3.100	-0.048	-0.102	
3.105	-0.084	-0.096	
3.110	-0.116	-0.090	
3.115	-0.043	-0.088	
3.120	-0.043	-0.081	
3.125	-0.127	-0.075	
3.130	-0.090	-0.076	
3.135	-0.038	-0.078	
3.140	-0.112	-0.078	
3.145	-0.092	-0.080	
3.150	0.021	-0.079	
3.155	-0.023	-0.067	
3.160	-0.054	-0.052	
3.165	0.047	-0.039	
3.170	0.059	-0.021	
3.175	-0.040	-0.003	
3.180	0.027	0.007	
3.185	0.125	0.017	
3.190	0.018	0.033	
3.195	0.009	0.042	
3.200	0.127	0.046	
3.205	0.061	0.055	
3.210	0.009	0.061	
3.215	0.152	0.063	
3.220	0.165	0.075	
3.225	0.026	0.090	
3.230	0.108	0.096	
3.235	0.192	0.101	
3.240	0.059	0.111	
3.245	0.081	0.113	
3.250	0.223	0.114	
3.255	0.133	0.123	
3.260	0.052	0.130	
3.265	0.192	0.129	
3.270	0.172	0.133	
3.275	0.030	0.137	
3.280	0.104	0.129	
3.285	0.183	0.120	
3.290	0.056	0.118	
3.295	0.059	0.112	
3.300	0.163	0.104	
3.305	0.050	0.101	
3.310	-0.038	0.091	
3.315	0.064	0.071	
3.320	0.044	0.054	
3.325	-0.066	0.040	
3.330	-0.019	0.021	
3.335	0.038	0.004	
3.340	-0.049	-0.004	
3.345	-0.035	-0.012	
3.350	0.090	-0.015	
3.355	0.027	-0.006	
3.360	-0.040	0.005	
3.365	0.050	0.009	
3.370	0.059	0.015	
3.375	-0.026	0.021	
3.380	0.062	0.024	
3.385	0.125	0.031	
3.390	-0.020	0.042	
3.395	-0.046	0.042	
3.400	0.046	0.031	
3.405	-0.043	0.020	
3.410	-0.110	0.004	
3.415	-0.038	-0.019	
3.420	-0.055	-0.038	
3.425	-0.142	-0.053	
3.430	-0.092	-0.071	
3.435	-0.052	-0.084	
3.440	-0.132	-0.090	
3.445	-0.115	-0.096	
3.450	-0.023	-0.099	
3.455	-0.080	-0.094	
3.460	-0.122	-0.088	
3.465	-0.026	-0.085	
3.470	-0.017	-0.076	
3.475	-0.084	-0.065	
3.480	-0.011	-0.056	
3.485	0.062	-0.044	
3.490	-0.066	-0.027	
3.495	-0.075	-0.021	
3.500	-0.032	-0.025	
3.505	-0.110	-0.034	
3.510	-0.152	-0.051	
3.515	-0.064	-0.072	
3.520	-0.045	-0.084	
3.525	-0.103	-0.086	
3.530	-0.038	-0.085	
3.535	0.033	-0.075	
3.540	-0.040	-0.057	
3.545	-0.032	-0.041	
3.550	0.072	-0.027	
3.555	0.006	-0.010	
3.560	-0.029	0.003	
3.565	0.082	0.010	
3.570	0.073	0.021	
3.575	-0.035	0.032	
3.580	0.033	0.033	
3.585	0.120	0.034	
3.590	0.026	0.042	
3.595	0.044	0.049	
3.600	0.171	0.056	
3.605	0.091	0.071	
3.610	0.017	0.083	
3.615	0.149	0.086	
3.620	0.174	0.094	
3.625	0.050	0.106	
3.630	0.125	0.111	
3.635	0.192	0.115	
3.640	0.042	0.122	
3.645	0.038	0.117	
3.650	0.152	0.106	
3.655	0.036	0.098	
3.660	-0.032	0.085	
3.665	0.073	0.065	
3.670	0.050	0.051	
3.675	-0.064	0.039	
3.680	-0.022	0.022	
3.685	0.033	0.006	
3.690	-0.069	-0.004	
3.695	-0.063	-0.016	
3.700	0.036	-0.026	
3.705	-0.045	-0.028	
3.710	-0.104	-0.031	
3.715	-0.032	-0.040	
3.720	-0.026	-0.046	
3.725	-0.098	-0.049	
3.730	-0.031	-0.053	
3.735	0.039	-0.051	
3.740	-0.048	-0.040	
3.745	-0.040	-0.032	
3.750	0.096	-0.024	
3.755	0.046	-0.006	
3.760	-0.008	0.012	
3.765	0.104	0.025	
3.770	0.085	0.040	
3.775	-0.038	0.051	
3.780	0.001	0.047	
3.785	0.038	0.037	
3.790	-0.083	0.025	
3.795	-0.098	0.004	
3.800	-0.031	-0.022	
3.805	-0.086	-0.041	
3.810	-0.130	-0.059	
3.815	-0.055	-0.075	
3.820	-0.064	-0.083	
3.825	-0.136	-0.087	
3.830	-0.075	-0.091	
3.835	-0.019	-0.091	
3.840	-0.098	-0.084	
3.845	-0.078	-0.078	
3.850	0.012	-0.072	
3.855	-0.031	-0.060	
3.860	-0.060	-0.048	
3.865	0.068	-0.037	
3.870	0.059	-0.018	
3.875	-0.058	0.000	
3.880	-0.042	0.005	
3.885	0.009	-0.000	
3.890	-0.063	-0.006	
3.895	-0.034	-0.015	
3.900	0.101	-0.018	
3.905	0.044	-0.007	
3.910	0.006	0.009	
3.915	0.108	0.023	
3.920	0.101	0.040	
3.925	0.001	0.056	
3.930	0.082	0.062	
3.935	0.172	0.069	
3.940	0.041	0.081	
3.945	0.056	0.087	
3.950	0.186	0.089	
3.955	0.107	0.098	
3.960	0.042	0.105	
3.965	0.148	0.105	
3.970	0.149	0.108	
3.975	0.030	0.111	
3.980	0.122	0.108	
3.985	0.208	0.108	
3.990	0.084	0.117	
3.995	0.097	0.122	
4.000	0.217	0.124	
4.005	0.139	0.134	
4.010	0.091	0.141	
4.015	0.232	0.144	
4.020	0.209	0.154	
4.025	0.062	0.163	
4.030	0.128	0.159	
4.035	0.174	0.150	
4.040	0.061	0.143	
4.045	0.059	0.130	
4.050	0.165	0.115	
4.055	0.081	0.108	
4.060	0.026	0.101	
4.065	0.175	0.093	
4.070	0.159	0.097	
4.075	0.032	0.105	
4.080	0.117	0.105	
4.085	0.209	0.108	
4.090	0.093	0.118	
4.095	0.108	0.125	
4.100	0.250	0.131	
4.105	0.159	0.145	
4.110	0.078	0.155	
4.115	0.215	0.156	
4.120	0.211	0.160	
4.125	0.119	0.168	
4.130	0.259	0.173	
4.135	0.345	0.189	
4.140	0.247	0.217	
4.145	0.314	0.244	
4.150	0.455	0.274	
4.155	0.354	0.311	
4.160	0.264	0.337	
4.165	0.350	0.345	
4.170	0.285	0.343	
4.175	0.124	0.326	
4.180	0.162	0.290	
4.185	0.208	0.249	
4.190	0.064	0.212	
4.195	0.078	0.174	
4.200	0.197	0.143	
4.205	0.105	0.127	
4.210	0.029	0.116	
4.215	0.142	0.104	
4.220	0.131	0.099	
4.225	0.024	0.098	
4.230	0.139	0.094	
4.235	0.243	0.100	
4.240	0.142	0.120	
4.245	0.209	0.141	
4.250	0.319	0.166	
4.255	0.208	0.197	
4.260	0.104	0.214	
4.265	0.227	0.213	
4.270	0.247	0.210	
4.275	0.146	0.210	
4.280	0.310	0.210	
4.285	0.429	0.227	
4.290	0.357	0.263	
4.295	0.431	0.305	
4.300	0.548	0.351	
4.305	0.473	0.401	
4.310	0.473	0.443	
4.315	0.611	0.475	
4.320	0.565	0.507	
4.325	0.415	0.529	
4.330	0.481	0.529	
4.335	0.551	0.520	
4.340	0.461	0.514	
4.345	0.530	0.509	
4.350	0.672	0.513	
4.355	0.560	0.533	
4.360	0.473	0.549	
4.365	0.554	0.551	
4.370	0.475	0.545	
4.375	0.281	0.524	
4.380	0.287	0.478	
4.385	0.284	0.419	
4.390	0.127	0.359	
4.395	0.116	0.293	
4.400	0.174	0.231	
4.405	0.050	0.181	
4.410	-0.019	0.135	
4.415	0.055	0.091	
4.420	0.027	0.058	
4.425	-0.075	0.032	
4.430	-0.048	0.006	
4.435	-0.035	-0.018	
4.440	-0.139	-0.038	
4.445	-0.127	-0.061	
4.450	-0.069	-0.083	
4.455	-0.148	-0.097	
4.460	-0.185	-0.112	
4.465	-0.126	-0.128	
4.470	-0.147	-0.139	
4.475	-0.219	-0.149	
4.480	-0.167	-0.160	
4.485	-0.130	-0.168	
4.490	-0.197	-0.170	
4.495	-0.190	-0.172	
4.500	-0.119	-0.174	
4.505	-0.159	-0.169	
4.510	-0.176	-0.164	
4.515	-0.110	-0.160	
4.520	-0.147	-0.154	
4.525	-0.229	-0.151	
4.530	-0.203	-0.160	
4.535	-0.197	-0.173	
4.540	-0.283	-0.188	
4.545	-0.281	-0.209	
4.550	-0.229	-0.230	
4.555	-0.277	-0.245	
4.560	-0.306	-0.258	
4.565	-0.236	-0.268	
4.570	-0.248	-0.271	
4.575	-0.309	-0.270	
4.580	-0.246	-0.271	
4.585	-0.216	-0.269	
4.590	-0.281	-0.262	
4.595	-0.272	-0.259	
4.600	-0.223	-0.258	
4.605	-0.275	-0.256	
4.610	-0.306	-0.257	
4.615	-0.242	-0.263	
4.620	-0.257	-0.265	
4.625	-0.312	-0.267	
4.630	-0.271	-0.271	
4.635	-0.246	-0.274	
4.640	-0.303	-0.274	
4.645	-0.281	-0.276	
4.650	-0.216	-0.276	
4.655	-0.257	-0.269	
4.660	-0.277	-0.263	
4.665	-0.208	-0.258	
4.670	-0.217	-0.250	
4.675	-0.265	-0.242	
4.680	-0.205	-0.237	
4.685	-0.162	-0.230	
4.690	-0.228	-0.219	
4.695	-0.202	-0.211	
4.700	-0.130	-0.203	
4.705	-0.171	-0.191	
4.710	-0.197	-0.181	
4.715	-0.133	-0.175	
4.720	-0.145	-0.168	
4.725	-0.208	-0.162	
4.730	-0.136	-0.162	
4.735	-0.098	-0.159	
4.740	-0.174	-0.151	
4.745	-0.155	-0.147	
4.750	-0.095	-0.145	
4.755	-0.141	-0.139	
4.760	-0.164	-0.136	
4.765	-0.092	-0.135	
4.770	-0.109	-0.131	
4.775	-0.162	-0.126	
4.780	-0.100	-0.125	
4.785	-0.068	-0.121	
4.790	-0.158	-0.115	
4.795	-0.152	-0.116	
4.800	-0.084	-0.120	
4.805	-0.141	-0.121	
4.810	-0.182	-0.124	
4.815	-0.112	-0.132	
4.820	-0.126	-0.135	
4.825	-0.193	-0.138	
4.830	-0.138	-0.144	
4.835	-0.098	-0.146	
4.840	-0.174	-0.144	
4.845	-0.156	-0.144	
4.850	-0.090	-0.144	
4.855	-0.142	-0.140	
4.860	-0.164	-0.137	
4.865	-0.084	-0.135	
4.870	-0.093	-0.130	
4.875	-0.148	-0.122	
4.880	-0.064	-0.117	
4.885	0.017	-0.105	
4.890	-0.058	-0.084	
4.895	-0.042	-0.064	
4.900	0.038	-0.048	
4.905	-0.063	-0.032	
4.910	-0.112	-0.028	
4.915	-0.048	-0.036	
4.920	-0.087	-0.047	
4.925	-0.176	-0.062	
4.930	-0.139	-0.085	
4.935	-0.109	-0.106	
4.940	-0.188	-0.122	
4.945	-0.161	-0.137	
4.950	-0.083	-0.147	
4.955	-0.147	-0.146	
4.960	-0.167	-0.144	
4.965	-0.081	-0.142	
4.970	-0.090	-0.135	
4.975	-0.152	-0.125	
4.980	-0.075	-0.119	
4.985	-0.014	-0.108	
4.990	-0.095	-0.092	
4.995	-0.066	-0.080	
5.000	0.012	-0.069	
5.005	-0.090	-0.057	
5.010	-0.145	-0.055	
5.015	-0.057	-0.064	
5.020	-0.060	-0.072	
5.025	-0.106	-0.075	
5.030	-0.016	-0.076	
5.035	0.053	-0.066	
5.040	-0.046	-0.047	
5.045	-0.008	-0.031	
5.050	0.131	-0.015	
5.055	0.041	0.010	
5.060	0.010	0.031	
5.065	0.142	0.044	
5.070	0.120	0.062	
5.075	0.010	0.078	
5.080	0.124	0.083	
5.085	0.183	0.091	
5.090	0.052	0.103	
5.095	0.107	0.108	
5.100	0.244	0.114	
5.105	0.133	0.129	
5.110	0.105	0.142	
5.115	0.278	0.150	
5.120	0.244	0.168	
5.125	0.116	0.187	
5.130	0.220	0.194	
5.135	0.269	0.199	
5.140	0.127	0.206	
5.145	0.163	0.203	
5.150	0.284	0.198	
5.155	0.174	0.201	
5.160	0.120	0.200	
5.165	0.244	0.193	
5.170	0.218	0.192	
5.175	0.090	0.192	
5.180	0.149	0.181	
5.185	0.168	0.169	
5.190	0.015	0.154	
5.195	0.050	0.130	
5.200	0.149	0.106	
5.205	0.032	0.093	
5.210	-0.016	0.078	
5.215	0.084	0.060	
5.220	0.038	0.049	
5.225	-0.054	0.040	
5.230	0.009	0.025	
5.235	0.061	0.014	
5.240	-0.028	0.011	
5.245	0.012	0.008	
5.250	0.082	0.009	
5.255	-0.006	0.015	
5.260	-0.009	0.019	
5.265	0.140	0.022	
5.270	0.114	0.037	
5.275	0.010	0.056	
5.280	0.062	0.063	
5.285	0.052	0.064	
5.290	-0.074	0.057	
5.295	-0.083	0.035	
5.300	-0.042	0.004	
5.305	-0.115	-0.024	
5.310	-0.145	-0.053	
5.315	-0.072	-0.080	
5.320	-0.090	-0.095	
5.325	-0.145	-0.104	
5.330	-0.080	-0.110	
5.335	-0.058	-0.110	
5.340	-0.138	-0.105	
5.345	-0.110	-0.103	
5.350	-0.038	-0.102	
5.355	-0.089	-0.095	
5.360	-0.093	-0.089	
5.365	0.003	-0.082	
5.370	-0.003	-0.067	
5.375	-0.077	-0.052	
5.380	-0.046	-0.044	
5.385	-0.064	-0.042	
5.390	-0.164	-0.050	
5.395	-0.136	-0.068	
5.400	-0.063	-0.088	
5.405	-0.101	-0.098	
5.410	-0.104	-0.102	
5.415	-0.003	-0.100	
5.420	-0.003	-0.085	
5.425	-0.068	-0.066	
5.430	0.003	-0.051	
5.435	0.050	-0.034	
5.440	-0.025	-0.016	
5.445	0.004	-0.004	
5.450	0.087	0.006	
5.455	0.003	0.018	
5.460	-0.019	0.024	
5.465	0.104	0.026	
5.470	0.096	0.035	
5.475	0.023	0.048	
5.480	0.099	0.056	
5.485	0.142	0.067	
5.490	0.041	0.079	
5.495	0.088	0.085	
5.500	0.189	0.091	
5.505	0.075	0.102	
5.510	0.042	0.106	
5.515	0.143	0.103	
5.520	0.085	0.101	
5.525	-0.005	0.096	
5.530	0.070	0.082	
5.535	0.094	0.071	
5.540	-0.003	0.064	
5.545	0.026	0.054	
5.550	0.093	0.046	
5.555	0.006	0.043	
5.560	-0.026	0.038	
5.565	0.046	0.028	
5.570	0.001	0.021	
5.575	-0.058	0.013	
5.580	0.007	0.002	
5.585	0.032	-0.004	
5.590	-0.071	-0.007	
5.595	-0.052	-0.014	
5.600	0.020	-0.022	
5.605	-0.048	-0.025	
5.610	-0.057	-0.028	
5.615	0.044	-0.029	
5.620	0.027	-0.022	
5.625	-0.031	-0.011	
5.630	0.039	-0.004	
5.635	0.068	0.006	
5.640	-0.005	0.018	
5.645	0.061	0.026	
5.650	0.180	0.039	
5.655	0.070	0.060	
5.660	0.012	0.075	
5.665	0.097	0.078	
5.670	0.041	0.076	
5.675	-0.034	0.068	
5.680	0.027	0.051	
5.685	0.038	0.036	
5.690	-0.066	0.024	
5.695	-0.049	0.007	
5.700	0.010	-0.010	
5.705	-0.046	-0.020	
5.710	-0.043	-0.027	
5.715	0.038	-0.030	
5.720	-0.005	-0.024	
5.725	-0.055	-0.018	
5.730	0.026	-0.016	
5.735	0.090	-0.008	
5.740	-0.016	0.006	
5.745	0.024	0.016	
5.750	0.218	0.029	
5.755	0.208	0.061	
5.760	0.206	0.104	
5.765	0.282	0.148	
5.770	0.220	0.188	
5.775	0.105	0.211	
5.780	0.201	0.212	
5.785	0.230	0.208	
5.790	0.113	0.203	
5.795	0.172	0.192	
5.800	0.276	0.185	
5.805	0.192	0.190	
5.810	0.172	0.196	
5.815	0.302	0.201	
5.820	0.279	0.215	
5.825	0.221	0.233	
5.830	0.446	0.252	
5.835	0.721	0.300	
5.840	0.754	0.390	
5.845	0.878	0.505	
5.850	0.973	0.630	
5.855	0.823	0.743	
5.860	0.739	0.816	
5.865	0.774	0.844	
5.870	0.637	0.837	
5.875	0.487	0.795	
5.880	0.545	0.728	
5.885	0.502	0.656	
5.890	0.334	0.587	
5.895	0.380	0.516	
5.900	0.458	0.458	
5.905	0.337	0.420	
5.910	0.287	0.389	
5.915	0.369	0.361	
5.920	0.296	0.342	
5.925	0.154	0.321	
5.930	0.218	0.289	
5.935	0.255	0.259	
5.940	0.133	0.236	
5.945	0.152	0.213	
5.950	0.203	0.191	
5.955	0.056	0.174	
5.960	0.015	0.148	
5.965	0.099	0.117	
5.970	0.056	0.092	
5.975	-0.034	0.071	
5.980	0.021	0.048	
5.985	0.020	0.029	
5.990	-0.078	0.014	
5.995	-0.057	-0.005	
6.000	0.003	-0.022	
6.005	-0.064	-0.032	
6.010	0.035	-0.035	
6.015	0.353	-0.014	
6.020	0.382	0.051	
6.025	0.434	0.145	
6.030	0.669	0.253	
6.035	0.567	0.367	
6.040	0.232	0.449	
6.045	0.247	0.466	
6.050	0.203	0.431	
6.055	-0.028	0.363	
6.060	-0.081	0.266	
6.065	-0.081	0.156	
6.070	-0.208	0.053	
6.075	-0.287	-0.044	
6.080	-0.284	-0.133	
6.085	-0.306	-0.206	
6.090	-0.364	-0.262	
6.095	-0.295	-0.302	
6.100	-0.262	-0.322	
6.105	-0.347	-0.327	
6.110	-0.330	-0.328	
6.115	-0.248	-0.326	
6.120	-0.266	-0.315	
6.125	-0.269	-0.300	
6.130	-0.144	-0.281	
6.135	0.030	-0.244	
6.140	0.330	-0.170	
6.145	0.731	-0.036	
6.150	0.930	0.162	
6.155	0.933	0.392	
6.160	0.782	0.598	
6.165	0.534	0.729	
6.170	0.146	0.751	
6.175	-0.150	0.654	
6.180	-0.182	0.471	
6.185	-0.222	0.259	
6.190	-0.323	0.064	
6.195	-0.214	-0.094	
6.200	-0.052	-0.191	
6.205	-0.252	-0.230	
6.210	-0.381	-0.250	
6.215	-0.381	-0.278	
6.220	-0.426	-0.313	
6.225	-0.462	-0.350	
6.230	-0.396	-0.385	
6.235	-0.379	-0.406	
6.240	-0.410	-0.414	
6.245	-0.361	-0.413	
6.250	-0.303	-0.403	
6.255	-0.336	-0.383	
6.260	-0.313	-0.363	
6.265	-0.234	-0.341	
6.270	-0.240	-0.314	
6.275	-0.268	-0.288	
6.280	-0.194	-0.267	
6.285	-0.173	-0.246	
6.290	-0.228	-0.225	
6.295	-0.190	-0.211	
6.300	-0.126	-0.199	
6.305	-0.176	-0.185	
6.310	-0.155	-0.173	
6.315	0.007	-0.157	
6.320	0.125	-0.121	
6.325	0.122	-0.064	
6.330	0.188	0.002	
6.335	0.087	0.061	
6.340	-0.084	0.092	
6.345	-0.101	0.081	
6.350	-0.092	0.044	
6.355	-0.167	-0.004	
6.360	-0.173	-0.054	
6.365	-0.118	-0.098	
6.370	-0.148	-0.127	
6.375	-0.167	-0.145	
6.380	-0.098	-0.154	
6.385	-0.089	-0.150	
6.390	-0.135	-0.140	
6.395	-0.075	-0.129	
6.400	0.013	-0.112	
6.405	-0.054	-0.088	
6.410	-0.064	-0.067	
6.415	0.009	-0.053	
6.420	-0.057	-0.040	
6.425	-0.115	-0.037	
6.430	-0.061	-0.045	
6.435	-0.066	-0.054	
6.440	-0.141	-0.064	
6.445	-0.100	-0.078	
6.450	-0.068	-0.089	
6.455	-0.144	-0.096	
6.460	-0.145	-0.104	
6.465	-0.083	-0.113	
6.470	-0.106	-0.116	
6.475	-0.144	-0.116	
6.480	-0.081	-0.117	
6.485	-0.075	-0.113	
6.490	-0.141	-0.108	
6.495	-0.089	-0.106	
6.500	-0.022	-0.101	
6.505	-0.077	-0.090	
6.510	-0.068	-0.079	
6.515	0.001	-0.068	
6.520	-0.055	-0.056	
6.525	-0.121	-0.051	
6.530	-0.055	-0.055	
6.535	-0.042	-0.059	
6.540	-0.093	-0.061	
6.545	-0.037	-0.063	
6.550	0.056	-0.058	
6.555	-0.023	-0.042	
6.560	-0.038	-0.028	
6.565	0.059	-0.017	
6.570	0.021	-0.005	
6.575	-0.026	0.006	
6.580	0.075	0.012	
6.585	0.085	0.023	
6.590	-0.019	0.034	
6.595	0.059	0.038	
6.600	0.168	0.046	
6.605	0.087	0.063	
6.610	0.088	0.080	
6.615	0.206	0.095	
6.620	0.166	0.116	
6.625	0.110	0.134	
6.630	0.235	0.147	
6.635	0.270	0.166	
6.640	0.163	0.188	
6.645	0.211	0.201	
6.650	0.285	0.210	
6.655	0.188	0.221	
6.660	0.243	0.227	
6.665	0.343	0.235	
6.670	0.229	0.249	
6.675	0.166	0.255	
6.680	0.270	0.249	
6.685	0.203	0.242	
6.690	-0.005	0.225	
6.695	0.006	0.184	
6.700	0.044	0.132	
6.705	-0.064	0.084	
6.710	-0.074	0.037	
6.715	-0.023	-0.003	
6.720	-0.086	-0.032	
6.725	-0.139	-0.056	
6.730	-0.084	-0.078	
6.735	-0.078	-0.092	
6.740	-0.156	-0.101	
6.745	-0.121	-0.110	
6.750	-0.057	-0.115	
6.755	-0.115	-0.112	
6.760	-0.119	-0.109	
6.765	-0.063	-0.107	
6.770	-0.089	-0.101	
6.775	-0.100	-0.095	
6.780	-0.009	-0.089	
6.785	-0.005	-0.075	
6.790	-0.078	-0.059	
6.795	-0.043	-0.049	
6.800	-0.008	-0.044	
6.805	-0.101	-0.040	
6.810	-0.127	-0.047	
6.815	-0.074	-0.061	
6.820	-0.118	-0.075	
6.825	-0.174	-0.090	
6.830	-0.119	-0.108	
6.835	-0.118	-0.122	
6.840	-0.173	-0.130	
6.845	-0.127	-0.137	
6.850	-0.087	-0.140	
6.855	-0.147	-0.135	
6.860	-0.138	-0.132	
6.865	-0.055	-0.129	
6.870	-0.077	-0.118	
6.875	-0.097	-0.105	
6.880	0.010	-0.091	
6.885	0.058	-0.068	
6.890	-0.025	-0.040	
6.895	0.027	-0.017	
6.900	0.035	0.000	
6.905	-0.103	0.009	
6.910	-0.121	-0.002	
6.915	-0.052	-0.026	
6.920	-0.068	-0.046	
6.925	-0.083	-0.060	
6.930	0.017	-0.066	
6.935	0.033	-0.057	
6.940	-0.046	-0.041	
6.945	0.018	-0.027	
6.950	0.099	-0.011	
6.955	-0.003	0.008	
6.960	0.004	0.021	
6.965	0.131	0.030	
6.970	0.082	0.044	
6.975	0.036	0.059	
6.980	0.156	0.069	
6.985	0.188	0.086	
6.990	0.085	0.107	
6.995	0.159	0.122	
7.000	0.247	0.136	
7.005	0.128	0.154	
7.010	0.119	0.163	
7.015	0.240	0.166	
7.020	0.172	0.172	
7.025	0.104	0.175	
7.030	0.209	0.171	
7.035	0.209	0.172	
7.040	0.090	0.173	
7.045	0.154	0.167	
7.050	0.224	0.162	
7.055	0.097	0.162	
7.060	0.084	0.155	
7.065	0.201	0.145	
7.070	0.108	0.140	
7.075	-0.000	0.132	
7.080	0.085	0.112	
7.085	0.073	0.093	
7.090	-0.051	0.075	
7.095	-0.003	0.050	
7.100	0.061	0.029	
7.105	-0.040	0.017	
7.110	-0.045	0.005	
7.115	0.033	-0.006	
7.120	-0.016	-0.010	
7.125	-0.069	-0.014	
7.130	0.018	-0.019	
7.135	0.041	-0.018	
7.140	-0.048	-0.011	
7.145	-0.000	-0.009	
7.150	0.072	-0.005	
7.155	0.010	0.005	
7.160	0.055	0.016	
7.165	0.174	0.032	
7.170	0.087	0.056	
7.175	-0.009	0.074	
7.180	0.075	0.075	
7.185	0.030	0.070	
7.190	-0.089	0.056	
7.195	-0.063	0.030	
7.200	-0.031	-0.000	
7.205	-0.118	-0.026	
7.210	-0.124	-0.052	
7.215	-0.058	-0.075	
7.220	-0.104	-0.088	
7.225	-0.145	-0.097	
7.230	-0.090	-0.106	
7.235	-0.087	-0.110	
7.240	-0.170	-0.112	
7.245	-0.147	-0.119	
7.250	-0.127	-0.127	
7.255	-0.190	-0.135	
7.260	-0.190	-0.146	
7.265	-0.101	-0.156	
7.270	-0.135	-0.156	
7.275	-0.184	-0.153	
7.280	-0.144	-0.153	
7.285	-0.164	-0.154	
7.290	-0.223	-0.158	
7.295	-0.170	-0.167	
7.300	-0.113	-0.172	
7.305	-0.153	-0.168	
7.310	-0.121	-0.160	
7.315	-0.032	-0.146	
7.320	-0.066	-0.124	
7.325	-0.109	-0.103	
7.330	-0.022	-0.088	
7.335	-0.009	-0.071	
7.340	-0.089	-0.056	
7.345	-0.032	-0.048	
7.350	0.047	-0.041	
7.355	-0.026	-0.028	
7.360	-0.013	-0.017	
7.365	0.134	-0.005	
7.370	0.076	0.017	
7.375	0.013	0.039	
7.380	0.142	0.054	
7.385	0.171	0.073	
7.390	0.070	0.094	
7.395	0.134	0.108	
7.400	0.226	0.121	
7.405	0.127	0.138	
7.410	0.148	0.149	
7.415	0.272	0.160	
7.420	0.203	0.177	
7.425	0.130	0.189	
7.430	0.256	0.194	
7.435	0.256	0.202	
7.440	0.131	0.210	
7.445	0.192	0.208	
7.450	0.246	0.204	
7.455	0.122	0.201	
7.460	0.130	0.191	
7.465	0.227	0.179	
7.470	0.146	0.174	
7.475	0.073	0.167	
7.480	0.188	0.154	
7.485	0.186	0.149	
7.490	0.065	0.148	
7.495	0.128	0.141	
7.500	0.198	0.135	
7.505	0.073	0.135	
7.510	0.093	0.130	
7.515	0.230	0.126	
7.520	0.154	0.134	
7.525	0.073	0.141	
7.530	0.206	0.142	
7.535	0.249	0.150	
7.540	0.145	0.165	
7.545	0.230	0.178	
7.550	0.273	0.192	
7.555	0.104	0.204	
7.560	0.068	0.197	
7.565	0.137	0.175	
7.570	0.029	0.149	
7.575	-0.045	0.116	
7.580	0.021	0.076	
7.585	-0.002	0.042	
7.590	-0.087	0.015	
7.595	-0.042	-0.012	
7.600	0.012	-0.030	
7.605	-0.081	-0.038	
7.610	-0.075	-0.045	
7.615	0.004	-0.051	
7.620	-0.058	-0.050	
7.625	-0.084	-0.050	
7.630	0.007	-0.050	
7.635	0.018	-0.044	
7.640	-0.057	-0.033	
7.645	0.029	-0.025	
7.650	0.093	-0.012	
7.655	-0.055	0.004	
7.660	-0.086	0.006	
7.665	-0.011	-0.005	
7.670	-0.057	-0.017	
7.675	-0.098	-0.030	
7.680	-0.008	-0.043	
7.685	0.006	-0.046	
7.690	-0.080	-0.043	
7.695	-0.005	-0.041	
7.700	0.090	-0.032	
7.705	-0.016	-0.015	
7.710	-0.009	-0.001	
7.715	0.117	0.010	
7.720	0.044	0.026	
7.725	-0.023	0.037	
7.730	0.097	0.040	
7.735	0.105	0.047	
7.740	-0.009	0.056	
7.745	0.088	0.058	
7.750	0.181	0.064	
7.755	0.052	0.079	
7.760	0.059	0.087	
7.765	0.212	0.093	
7.770	0.124	0.107	
7.775	0.052	0.117	
7.780	0.214	0.121	
7.785	0.209	0.132	
7.790	0.076	0.146	
7.795	0.151	0.150	
7.800	0.223	0.151	
7.805	0.076	0.155	
7.810	0.081	0.150	
7.815	0.198	0.139	
7.820	0.082	0.134	
7.825	-0.000	0.124	
7.830	0.111	0.105	
7.835	0.088	0.090	
7.840	-0.037	0.078	
7.845	0.027	0.060	
7.850	0.105	0.045	
7.855	-0.013	0.040	
7.860	-0.009	0.033	
7.865	0.097	0.027	
7.870	0.009	0.028	
7.875	-0.043	0.026	
7.880	0.053	0.020	
7.885	0.041	0.018	
7.890	-0.052	0.017	
7.895	0.020	0.012	
7.900	0.075	0.010	
7.905	-0.034	0.013	
7.910	-0.000	0.013	
7.915	0.146	0.015	
7.920	0.078	0.031	
7.925	0.009	0.047	
7.930	0.120	0.056	
7.935	0.085	0.066	
7.940	-0.043	0.070	
7.945	-0.005	0.059	
7.950	0.018	0.041	
7.955	-0.098	0.021	
7.960	-0.097	-0.005	
7.965	-0.011	-0.031	
7.970	-0.075	-0.047	
7.975	-0.113	-0.059	
7.980	-0.023	-0.069	
7.985	-0.035	-0.070	
7.990	-0.104	-0.067	
7.995	-0.042	-0.066	
8.000	0.013	-0.062	
8.005	-0.075	-0.052	
8.010	-0.060	-0.047	
8.015	0.055	-0.042	
8.020	0.012	-0.029	
8.025	-0.023	-0.015	
8.030	0.055	-0.004	
8.035	-0.008	0.005	
8.040	-0.126	0.005	
8.045	-0.089	-0.012	
8.050	-0.046	-0.034	
8.055	-0.109	-0.052	
8.060	-0.077	-0.067	
8.065	0.030	-0.073	
8.070	-0.019	-0.064	
8.075	-0.063	-0.051	
8.080	0.027	-0.040	
8.085	0.023	-0.027	
8.090	-0.057	-0.015	
8.095	0.006	-0.010	
8.100	0.050	-0.006	
8.105	-0.043	0.001	
8.110	-0.022	0.001	
8.115	0.093	0.001	
8.120	0.038	0.010	
8.125	0.007	0.021	
8.130	0.113	0.030	
8.135	0.094	0.044	
8.140	0.003	0.057	
8.145	0.081	0.061	
8.150	0.139	0.066	
8.155	0.020	0.073	
8.160	0.032	0.073	
8.165	0.137	0.070	
8.170	0.049	0.072	
8.175	-0.000	0.070	
8.180	0.104	0.063	
8.185	0.075	0.061	
8.190	-0.034	0.059	
8.195	0.026	0.049	
8.200	0.067	0.038	
8.205	-0.045	0.032	
8.210	-0.037	0.020	
8.215	0.030	0.006	
8.220	-0.045	-0.003	
8.225	-0.060	-0.012	
8.230	0.039	-0.020	
8.235	0.006	-0.019	
8.240	-0.074	-0.016	
8.245	-0.014	-0.019	
8.250	0.024	-0.020	
8.255	-0.080	-0.019	
8.260	-0.068	-0.025	
8.265	0.021	-0.032	
8.270	-0.046	-0.033	
8.275	-0.087	-0.034	
8.280	-0.005	-0.039	
8.285	0.003	-0.039	
8.290	-0.046	-0.033	
8.295	0.041	-0.027	
8.300	0.104	-0.012	
8.305	-0.022	0.008	
8.310	-0.023	0.018	
8.315	0.064	0.019	
8.320	-0.000	0.021	
8.325	-0.043	0.019	
8.330	0.001	0.011	
8.335	-0.043	0.001	
8.340	-0.118	-0.014	
8.345	-0.072	-0.034	
8.350	-0.029	-0.052	
8.355	-0.098	-0.061	
8.360	-0.074	-0.068	
8.365	0.018	-0.070	
8.370	-0.028	-0.061	
8.375	-0.058	-0.049	
8.380	0.042	-0.039	
8.385	0.035	-0.024	
8.390	-0.040	-0.009	
8.395	0.033	-0.001	
8.400	0.093	0.009	
8.405	-0.002	0.022	
8.410	0.036	0.031	
8.415	0.168	0.040	
8.420	0.105	0.059	
8.425	0.061	0.078	
8.430	0.175	0.091	
8.435	0.146	0.107	
8.440	0.033	0.118	
8.445	0.139	0.118	
8.450	0.221	0.121	
8.455	0.097	0.131	
8.460	0.130	0.137	
8.465	0.253	0.143	
8.470	0.151	0.156	
8.475	0.082	0.163	
8.480	0.209	0.160	
8.485	0.229	0.163	
8.490	0.434	0.185	
8.495	0.765	0.248	
8.500	0.883	0.364	
8.505	0.695	0.503	
8.510	0.660	0.614	
8.515	0.681	0.679	
8.520	0.490	0.702	
8.525	0.405	0.679	
8.530	0.495	0.625	
8.535	0.395	0.566	
8.540	0.229	0.502	
8.545	0.284	0.431	
8.550	0.316	0.367	
8.555	0.180	0.319	
8.560	0.221	0.278	
8.565	0.305	0.249	
8.570	0.171	0.235	
8.575	0.111	0.220	
8.580	0.224	0.200	
8.585	0.146	0.186	
8.590	0.007	0.169	
8.595	0.065	0.140	
8.600	0.076	0.110	
8.605	-0.063	0.082	
8.610	-0.068	0.047	
8.615	-0.023	0.012	
8.620	-0.100	-0.018	
8.625	-0.130	-0.045	
8.630	-0.063	-0.070	
8.635	-0.100	-0.086	
8.640	-0.165	-0.097	
8.645	-0.107	-0.110	
8.650	-0.077	-0.117	
8.655	-0.153	-0.118	
8.660	-0.129	-0.120	
8.665	-0.060	-0.121	
8.670	-0.115	-0.116	
8.675	-0.145	-0.112	
8.680	-0.087	-0.112	
8.685	-0.130	-0.112	
8.690	-0.208	-0.117	
8.695	-0.165	-0.131	
8.700	-0.162	-0.146	
8.705	-0.251	-0.160	
8.710	-0.242	-0.180	
8.715	-0.197	-0.199	
8.720	-0.265	-0.213	
8.725	-0.287	-0.228	
8.730	-0.222	-0.242	
8.735	-0.240	-0.249	
8.740	-0.310	-0.253	
8.745	-0.252	-0.260	
8.750	-0.222	-0.263	
8.755	-0.300	-0.262	
8.760	-0.278	-0.264	
8.765	-0.213	-0.265	
8.770	-0.265	-0.262	
8.775	-0.278	-0.259	
8.780	-0.205	-0.257	
8.785	-0.222	-0.251	
8.790	-0.292	-0.245	
8.795	-0.268	-0.246	
8.800	-0.280	-0.252	
8.805	-0.364	-0.264	
8.810	-0.352	-0.284	
8.815	-0.303	-0.304	
8.820	-0.342	-0.318	
8.825	-0.353	-0.328	
8.830	-0.263	-0.333	
8.835	-0.265	-0.327	
8.840	-0.304	-0.314	
8.845	-0.236	-0.301	
8.850	-0.200	-0.284	
8.855	-0.254	-0.264	
8.860	-0.225	-0.249	
8.865	-0.162	-0.235	
8.870	-0.203	-0.220	
8.875	-0.205	-0.208	
8.880	-0.107	-0.196	
8.885	-0.095	-0.178	
8.890	-0.133	-0.156	
8.895	-0.074	-0.137	
8.900	-0.048	-0.117	
8.905	-0.119	-0.099	
8.910	-0.077	-0.089	
8.915	0.003	-0.080	
8.920	-0.054	-0.066	
8.925	-0.060	-0.055	
8.930	0.055	-0.045	
8.935	0.039	-0.027	
8.940	-0.034	-0.009	
8.945	0.052	0.003	
8.950	0.075	0.014	
8.955	-0.043	0.025	
8.960	-0.025	0.024	
8.965	0.044	0.017	
8.970	-0.040	0.011	
8.975	-0.057	0.002	
8.980	0.044	-0.008	
8.985	-0.005	-0.010	
8.990	-0.069	-0.011	
8.995	-0.002	-0.016	
9.000	0.021	-0.018	
9.005	-0.077	-0.017	
9.010	-0.040	-0.022	
9.015	0.049	-0.025	
9.020	-0.029	-0.021	
9.025	-0.054	-0.018	
9.030	0.050	-0.017	
9.035	0.026	-0.010	
9.040	-0.032	-0.002	
9.045	0.065	0.004	
9.050	0.111	0.016	
9.055	-0.020	0.031	
9.060	-0.003	0.036	
9.065	0.061	0.033	
9.070	-0.042	0.029	
9.075	-0.080	0.017	
9.080	-0.016	-0.002	
9.085	-0.066	-0.019	
9.090	-0.135	-0.037	
9.095	-0.084	-0.058	
9.100	-0.063	-0.075	
9.105	-0.133	-0.085	
9.110	-0.109	-0.095	
9.115	-0.043	-0.100	
9.120	-0.098	-0.098	
9.125	-0.104	-0.094	
9.130	-0.022	-0.090	
9.135	-0.049	-0.081	
9.140	-0.098	-0.071	
9.145	-0.009	-0.065	
9.150	0.044	-0.054	
9.155	-0.060	-0.037	
9.160	-0.035	-0.027	
9.165	0.030	-0.022	
9.170	-0.064	-0.017	
9.175	-0.087	-0.020	
9.180	0.018	-0.028	
9.185	0.015	-0.029	
9.190	-0.054	-0.024	
9.195	0.027	-0.020	
9.200	0.081	-0.011	
9.205	-0.016	0.004	
9.210	0.036	0.014	
9.215	0.140	0.026	
9.220	0.033	0.043	
9.225	0.003	0.053	
9.230	0.116	0.055	
9.235	0.078	0.061	
9.240	-0.003	0.065	
9.245	0.104	0.063	
9.250	0.157	0.067	
9.255	0.041	0.078	
9.260	0.091	0.084	
9.265	0.177	0.090	
9.270	0.072	0.100	
9.275	0.062	0.104	
9.280	0.212	0.106	
9.285	0.163	0.117	
9.290	0.065	0.129	
9.295	0.171	0.132	
9.300	0.215	0.138	
9.305	0.076	0.147	
9.310	0.116	0.146	
9.315	0.208	0.143	
9.320	0.090	0.143	
9.325	0.059	0.138	
9.330	0.178	0.127	
9.335	0.113	0.123	
9.340	-0.008	0.117	
9.345	0.072	0.100	
9.350	0.093	0.083	
9.355	-0.029	0.071	
9.360	-0.005	0.053	
9.365	0.062	0.035	
9.370	-0.038	0.024	
9.375	-0.061	0.010	
9.380	0.021	-0.005	
9.385	-0.022	-0.013	
9.390	-0.077	-0.019	
9.395	0.010	-0.026	
9.400	0.039	-0.026	
9.405	-0.060	-0.019	
9.410	-0.032	-0.018	
9.415	0.070	-0.016	
9.420	0.007	-0.007	
9.425	-0.003	0.002	
9.430	0.114	0.012	
9.435	0.038	0.027	
9.440	-0.060	0.035	
9.445	-0.006	0.028	
9.450	-0.008	0.016	
9.455	-0.112	0.001	
9.460	-0.087	-0.021	
9.465	-0.038	-0.043	
9.470	-0.115	-0.059	
9.475	-0.132	-0.074	
9.480	-0.057	-0.088	
9.485	-0.083	-0.094	
9.490	-0.136	-0.096	
9.495	-0.071	-0.099	
9.500	-0.058	-0.098	
9.505	-0.129	-0.093	
9.510	-0.089	-0.093	
9.515	-0.000	-0.090	
9.520	-0.045	-0.078	
9.525	-0.019	-0.062	
9.530	0.088	-0.043	
9.535	-0.003	-0.019	
9.540	-0.097	-0.004	
9.545	-0.063	-0.008	
9.550	-0.066	-0.022	
9.555	-0.129	-0.039	
9.560	-0.071	-0.059	
9.565	0.020	-0.069	
9.570	-0.042	-0.065	
9.575	-0.037	-0.055	
9.580	0.068	-0.043	
9.585	0.041	-0.022	
9.590	-0.025	-0.002	
9.595	0.061	0.011	
9.600	0.081	0.023	
9.605	-0.025	0.034	
9.610	0.017	0.035	
9.615	0.093	0.034	
9.620	-0.002	0.037	
9.625	-0.000	0.035	
9.630	0.124	0.033	
9.635	0.078	0.041	
9.640	0.015	0.051	
9.645	0.116	0.057	
9.650	0.142	0.067	
9.655	0.027	0.079	
9.660	0.093	0.084	
9.665	0.186	0.089	
9.670	0.082	0.101	
9.675	0.073	0.107	
9.680	0.206	0.111	
9.685	0.148	0.121	
9.690	0.055	0.130	
9.695	0.160	0.129	
9.700	0.169	0.130	
9.705	0.039	0.131	
9.710	0.088	0.123	
9.715	0.149	0.113	
9.720	0.021	0.107	
9.725	-0.008	0.092	
9.730	0.097	0.073	
9.735	0.046	0.060	
9.740	-0.045	0.050	
9.745	0.026	0.035	
9.750	0.041	0.023	
9.755	-0.046	0.016	
9.760	-0.005	0.007	
9.765	0.067	0.002	
9.770	-0.013	0.004	
9.775	-0.011	0.006	
9.780	0.107	0.009	
9.785	0.052	0.021	
9.790	-0.008	0.032	
9.795	0.119	0.039	
9.800	0.171	0.053	
9.805	0.065	0.075	
9.810	0.125	0.091	
9.815	0.189	0.106	
9.820	0.055	0.119	
9.825	0.024	0.119	
9.830	0.130	0.107	
9.835	0.044	0.097	
9.840	-0.042	0.082	
9.845	0.026	0.059	
9.850	0.032	0.039	
9.855	-0.066	0.023	
9.860	-0.009	0.006	
9.865	0.067	-0.005	
9.870	-0.020	-0.004	
9.875	-0.023	-0.003	
9.880	0.082	-0.001	
9.885	0.026	0.008	
9.890	-0.022	0.016	
9.895	0.101	0.021	
9.900	0.154	0.035	
9.905	0.055	0.056	
9.910	0.127	0.075	
9.915	0.230	0.095	
9.920	0.113	0.119	
9.925	0.101	0.135	
9.930	0.226	0.143	
9.935	0.166	0.153	
9.940	0.107	0.161	
9.945	0.240	0.164	
9.950	0.246	0.173	
9.955	0.128	0.185	
9.960	0.188	0.189	
9.965	0.296	0.193	
9.970	0.295	0.209	
9.975	0.504	0.242	
9.980	0.843	0.313	
9.985	0.817	0.429	
9.990	0.686	0.552	
9.995	0.747	0.647	
10.000	0.712	0.707	
10.005	0.524	0.731	
10.010	0.553	0.714	
10.015	0.605	0.677	
10.020	0.423	0.635	
10.025	0.365	0.581	
10.030	0.470	0.522	
10.035	0.371	0.474	
10.040	0.263	0.431	
10.045	0.379	0.389	
10.050	0.368	0.361	
10.055	0.206	0.341	
10.060	0.240	0.316	
10.065	0.288	0.290	
10.070	0.162	0.269	
10.075	0.142	0.243	
10.080	0.223	0.217	
10.085	0.099	0.196	
10.090	-0.011	0.168	
10.095	0.042	0.129	
10.100	0.021	0.090	
10.105	-0.087	0.054	
10.110	-0.058	0.017	
10.115	-0.017	-0.015	
10.120	-0.106	-0.037	
10.125	-0.116	-0.057	
10.130	-0.057	-0.074	
10.135	-0.113	-0.085	
10.140	-0.168	-0.096	
10.145	-0.121	-0.109	
10.150	-0.122	-0.121	
10.155	-0.205	-0.130	
10.160	-0.173	-0.143	
10.165	-0.145	-0.156	
10.170	-0.222	-0.164	
10.175	-0.254	-0.177	
10.180	-0.216	-0.195	
10.185	-0.274	-0.211	
10.190	-0.330	-0.231	
10.195	-0.277	-0.254	
10.200	-0.281	-0.272	
10.205	-0.342	-0.285	
10.210	-0.312	-0.298	
10.215	-0.281	-0.307	
10.220	-0.344	-0.311	
10.225	-0.336	-0.316	
10.230	-0.278	-0.320	
10.235	-0.307	-0.318	
10.240	-0.323	-0.314	
10.245	-0.254	-0.310	
10.250	-0.245	-0.301	
10.255	-0.294	-0.288	
10.260	-0.243	-0.279	
10.265	-0.190	-0.267	
10.270	-0.246	-0.252	
10.275	-0.232	-0.241	
10.280	-0.152	-0.230	
10.285	-0.170	-0.215	
10.290	-0.193	-0.200	
10.295	-0.129	-0.187	
10.300	-0.121	-0.172	
10.305	-0.190	-0.159	
10.310	-0.142	-0.153	
10.315	-0.083	-0.147	
10.320	-0.133	-0.138	
10.325	-0.126	-0.130	
10.330	-0.043	-0.121	
10.335	-0.064	-0.108	
10.340	-0.090	-0.093	
10.345	-0.005	-0.080	
10.350	-0.008	-0.064	
10.355	-0.083	-0.049	
10.360	-0.028	-0.042	
10.365	0.041	-0.035	
10.370	-0.045	-0.025	
10.375	-0.026	-0.019	
10.380	0.085	-0.013	
10.385	0.020	0.000	
10.390	-0.017	0.011	
10.395	0.110	0.019	
10.400	0.127	0.035	
10.405	0.030	0.054	
10.410	0.093	0.066	
10.415	0.168	0.078	
10.420	0.072	0.092	
10.425	0.091	0.101	
10.430	0.217	0.108	
10.435	0.162	0.124	
10.440	0.085	0.137	
10.445	0.208	0.143	
10.450	0.220	0.153	
10.455	0.079	0.163	
10.460	0.137	0.162	
10.465	0.189	0.156	
10.470	0.065	0.152	
10.475	0.053	0.138	
10.480	0.159	0.122	
10.485	0.070	0.111	
10.490	-0.002	0.099	
10.495	0.075	0.082	
10.500	0.062	0.068	
10.505	-0.038	0.056	
10.510	0.006	0.039	
10.515	0.064	0.025	
10.520	-0.020	0.019	
10.525	-0.009	0.013	
10.530	0.091	0.010	
10.535	0.024	0.016	
10.540	-0.028	0.021	
10.545	0.079	0.022	
10.550	0.122	0.030	
10.555	0.041	0.045	
10.560	0.094	0.058	
10.565	0.124	0.070	
10.570	-0.013	0.078	
10.575	-0.019	0.071	
10.580	0.064	0.056	
10.585	-0.019	0.042	
10.590	-0.077	0.025	
10.595	-0.006	0.004	
10.600	-0.025	-0.013	
10.605	-0.104	-0.026	
10.610	-0.058	-0.041	
10.615	-0.014	-0.052	
10.620	-0.089	-0.055	
10.625	-0.087	-0.060	
10.630	-0.006	-0.064	
10.635	-0.058	-0.061	
10.640	-0.093	-0.058	
10.645	-0.003	-0.058	
10.650	0.015	-0.051	
10.655	-0.058	-0.039	
10.660	0.020	-0.030	
10.665	0.032	-0.020	
10.670	-0.087	-0.011	
10.675	-0.101	-0.016	
10.680	-0.040	-0.031	
10.685	-0.068	-0.044	
10.690	-0.078	-0.054	
10.695	0.027	-0.058	
10.700	0.044	-0.048	
10.705	-0.042	-0.031	
10.710	0.006	-0.019	
10.715	0.061	-0.008	
10.720	-0.028	0.004	
10.725	-0.009	0.009	
10.730	0.082	0.011	
10.735	-0.002	0.017	
10.740	-0.057	0.018	
10.745	0.033	0.011	
10.750	0.076	0.010	
10.755	0.021	0.017	
10.760	0.107	0.028	
10.765	0.166	0.046	
10.770	0.044	0.069	
10.775	0.062	0.082	
10.780	0.162	0.089	
10.785	0.079	0.097	
10.790	0.047	0.100	
10.795	0.165	0.099	
10.800	0.163	0.105	
10.805	0.049	0.113	
10.810	0.113	0.114	
10.815	0.186	0.114	
10.820	0.075	0.119	
10.825	0.084	0.119	
10.830	0.201	0.117	
10.835	0.108	0.122	
10.840	0.035	0.123	
10.845	0.113	0.114	
10.850	0.090	0.105	
10.855	-0.017	0.094	
10.860	0.035	0.075	
10.865	0.088	0.059	
10.870	-0.023	0.048	
10.875	-0.014	0.036	
10.880	0.065	0.023	
10.885	0.003	0.019	
10.890	-0.043	0.014	
10.895	0.033	0.007	
10.900	0.012	0.004	
10.905	-0.063	0.001	
10.910	-0.006	-0.006	
10.915	0.049	-0.009	
10.920	-0.048	-0.007	
10.925	-0.034	-0.009	
10.930	0.096	-0.009	
10.935	0.067	0.003	
10.940	0.012	0.020	
10.945	0.087	0.032	
10.950	0.041	0.043	
10.955	-0.058	0.045	
10.960	-0.020	0.034	
10.965	-0.009	0.017	
10.970	-0.109	-0.001	
10.975	-0.116	-0.026	
10.980	-0.060	-0.052	
10.985	-0.106	-0.071	
10.990	-0.144	-0.086	
10.995	-0.081	-0.100	
11.000	-0.092	-0.106	
11.005	-0.153	-0.109	
11.010	-0.110	-0.114	
11.015	-0.063	-0.115	
11.020	-0.119	-0.111	
11.025	-0.107	-0.108	
11.030	-0.031	-0.103	
11.035	-0.054	-0.092	
11.040	-0.060	-0.078	
11.045	0.024	-0.064	
11.050	-0.020	-0.047	
11.055	-0.124	-0.036	
11.060	-0.104	-0.041	
11.065	-0.080	-0.055	
11.070	-0.148	-0.071	
11.075	-0.127	-0.089	
11.080	-0.040	-0.102	
11.085	-0.069	-0.102	
11.090	-0.089	-0.096	
11.095	-0.006	-0.086	
11.100	-0.003	-0.071	
11.105	-0.063	-0.054	
11.110	-0.003	-0.041	
11.115	0.056	-0.028	
11.120	-0.023	-0.013	
11.125	-0.011	-0.003	
11.130	0.076	0.004	
11.135	0.004	0.013	
11.140	-0.029	0.018	
11.145	0.070	0.018	
11.150	0.062	0.022	
11.155	-0.022	0.028	
11.160	0.062	0.030	
11.165	0.081	0.034	
11.170	-0.060	0.037	
11.175	-0.058	0.027	
11.180	0.013	0.010	
11.185	-0.040	-0.004	
11.190	-0.061	-0.016	
11.195	0.026	-0.025	
11.200	0.003	-0.025	
11.205	-0.068	-0.022	
11.210	-0.013	-0.024	
11.215	0.041	-0.022	
11.220	-0.049	-0.016	
11.225	-0.038	-0.015	
11.230	0.047	-0.015	
11.235	-0.035	-0.012	
11.240	-0.069	-0.012	
11.245	0.013	-0.017	
11.250	0.003	-0.019	
11.255	-0.074	-0.018	
11.260	-0.026	-0.023	
11.265	0.023	-0.025	
11.270	-0.066	-0.024	
11.275	-0.049	-0.026	
11.280	0.032	-0.029	
11.285	-0.023	-0.025	
11.290	-0.054	-0.022	
11.295	0.039	-0.020	
11.300	0.021	-0.014	
11.305	-0.038	-0.006	
11.310	0.068	-0.000	
11.315	0.160	0.014	
11.320	0.068	0.040	
11.325	0.124	0.065	
11.330	0.209	0.089	
11.335	0.090	0.114	
11.340	0.009	0.123	
11.345	0.093	0.114	
11.350	0.076	0.101	
11.355	-0.013	0.087	
11.360	0.055	0.069	
11.365	0.084	0.055	
11.370	-0.009	0.049	
11.375	0.013	0.040	
11.380	0.108	0.034	
11.385	0.036	0.037	
11.390	-0.013	0.040	
11.395	0.090	0.038	
11.400	0.079	0.042	
11.405	0.007	0.048	
11.410	0.107	0.051	
11.415	0.159	0.061	
11.420	0.055	0.076	
11.425	0.110	0.087	
11.430	0.238	0.100	
11.435	0.131	0.121	
11.440	0.042	0.134	
11.445	0.120	0.131	
11.450	0.070	0.122	
11.455	-0.035	0.105	
11.460	0.030	0.079	
11.465	0.081	0.056	
11.470	-0.017	0.043	
11.475	0.015	0.031	
11.480	0.113	0.025	
11.485	0.049	0.031	
11.490	0.027	0.039	
11.495	0.140	0.047	
11.500	0.120	0.062	
11.505	0.041	0.078	
11.510	0.119	0.086	
11.515	0.160	0.094	
11.520	0.036	0.103	
11.525	0.062	0.102	
11.530	0.169	0.098	
11.535	0.090	0.100	
11.540	0.052	0.102	
11.545	0.156	0.100	
11.550	0.120	0.102	
11.555	0.009	0.104	
11.560	0.084	0.095	
11.565	0.130	0.088	
11.570	0.021	0.085	
11.575	0.047	0.078	
11.580	0.130	0.071	
11.585	0.036	0.071	
11.590	0.001	0.067	
11.595	0.087	0.058	
11.600	0.049	0.054	
11.605	-0.038	0.048	
11.610	0.026	0.037	
11.615	0.053	0.027	
11.620	-0.058	0.021	
11.625	-0.046	0.009	
11.630	0.003	-0.005	
11.635	-0.068	-0.016	
11.640	-0.100	-0.030	
11.645	-0.031	-0.044	
11.650	-0.054	-0.053	
11.655	-0.121	-0.060	
11.660	-0.074	-0.069	
11.665	-0.031	-0.075	
11.670	-0.103	-0.075	
11.675	-0.087	-0.076	
11.680	-0.032	-0.077	
11.685	-0.092	-0.074	
11.690	-0.098	-0.074	
11.695	0.009	-0.073	
11.700	-0.006	-0.063	
11.705	-0.064	-0.050	
11.710	-0.014	-0.041	
11.715	0.004	-0.033	
11.720	-0.097	-0.028	
11.725	-0.092	-0.033	
11.730	-0.043	-0.044	
11.735	-0.116	-0.055	
11.740	-0.147	-0.070	
11.745	-0.089	-0.087	
11.750	-0.106	-0.100	
11.755	-0.162	-0.109	
11.760	-0.107	-0.118	
11.765	-0.078	-0.122	
11.770	-0.142	-0.120	
11.775	-0.113	-0.119	
11.780	-0.052	-0.116	
11.785	-0.104	-0.108	
11.790	-0.107	-0.101	
11.795	-0.026	-0.095	
11.800	-0.049	-0.084	
11.805	-0.106	-0.074	
11.810	-0.048	-0.069	
11.815	-0.026	-0.065	
11.820	-0.110	-0.060	
11.825	-0.098	-0.063	
11.830	-0.029	-0.068	
11.835	-0.080	-0.069	
11.840	-0.089	-0.069	
11.845	0.009	-0.068	
11.850	-0.008	-0.059	
11.855	-0.083	-0.047	
11.860	-0.009	-0.042	
11.865	0.033	-0.034	
11.870	-0.040	-0.023	
11.875	-0.011	-0.016	
11.880	0.094	-0.009	
11.885	0.009	0.006	
11.890	-0.025	0.016	
11.895	0.076	0.019	
11.900	0.056	0.026	
11.905	-0.029	0.032	
11.910	0.050	0.031	
11.915	0.101	0.033	
11.920	0.007	0.040	
11.925	0.041	0.043	
11.930	0.148	0.047	
11.935	0.065	0.060	
11.940	0.042	0.069	
11.945	0.162	0.076	
11.950	0.127	0.088	
11.955	0.027	0.098	
11.960	0.120	0.099	
11.965	0.160	0.100	
11.970	0.036	0.105	
11.975	0.061	0.101	
11.980	0.148	0.095	
11.985	0.041	0.093	
11.990	0.020	0.086	
11.995	0.110	0.076	
12.000	0.050	0.070	
12.005	-0.042	0.062	
12.010	0.006	0.045	
12.015	0.027	0.029	
12.020	-0.071	0.015	
12.025	-0.046	-0.002	
12.030	0.033	-0.016	
12.035	-0.046	-0.021	
12.040	-0.064	-0.025	
12.045	0.012	-0.030	
12.050	-0.013	-0.030	
12.055	-0.066	-0.027	
12.060	0.003	-0.028	
12.065	0.017	-0.025	
12.070	-0.071	-0.020	
12.075	-0.008	-0.021	
12.080	0.124	-0.015	
12.085	0.030	0.003	
12.090	-0.016	0.019	
12.095	0.055	0.026	
12.100	-0.002	0.029	
12.105	-0.087	0.023	
12.110	-0.045	0.006	
12.115	-0.042	-0.014	
12.120	-0.133	-0.033	
12.125	-0.112	-0.056	
12.130	-0.055	-0.075	
12.135	-0.124	-0.087	
12.140	-0.142	-0.098	
12.145	-0.069	-0.107	
12.150	-0.083	-0.108	
12.155	-0.133	-0.106	
12.160	-0.077	-0.105	
12.165	-0.058	-0.101	
12.170	-0.132	-0.095	
12.175	-0.086	-0.094	
12.180	0.007	-0.089	
12.185	-0.045	-0.076	
12.190	-0.051	-0.062	
12.195	0.009	-0.049	
12.200	-0.066	-0.039	
12.205	-0.150	-0.039	
12.210	-0.103	-0.054	
12.215	-0.078	-0.071	
12.220	-0.133	-0.084	
12.225	-0.098	-0.096	
12.230	-0.022	-0.100	
12.235	-0.069	-0.093	
12.240	-0.077	-0.084	
12.245	0.015	-0.073	
12.250	-0.020	-0.057	
12.255	-0.083	-0.044	
12.260	-0.013	-0.039	
12.265	0.021	-0.033	
12.270	-0.068	-0.026	
12.275	-0.029	-0.024	
12.280	0.050	-0.022	
12.285	-0.028	-0.015	
12.290	-0.045	-0.011	
12.295	0.059	-0.010	
12.300	0.027	-0.003	
12.305	-0.040	0.005	
12.310	0.038	0.007	
12.315	0.079	0.012	
12.320	-0.006	0.021	
12.325	0.046	0.027	
12.330	0.152	0.036	
12.335	0.053	0.052	
12.340	0.010	0.063	
12.345	0.108	0.065	
12.350	0.059	0.067	
12.355	-0.034	0.065	
12.360	0.038	0.053	
12.365	0.067	0.043	
12.370	-0.046	0.035	
12.375	-0.028	0.023	
12.380	0.049	0.010	
12.385	-0.045	0.003	
12.390	-0.074	-0.006	
12.395	-0.003	-0.019	
12.400	-0.046	-0.027	
12.405	-0.113	-0.036	
12.410	-0.045	-0.048	
12.415	-0.011	-0.055	
12.420	-0.103	-0.056	
12.425	-0.075	-0.060	
12.430	-0.013	-0.063	
12.435	-0.080	-0.061	
12.440	-0.089	-0.061	
12.445	0.012	-0.061	
12.450	-0.008	-0.053	
12.455	-0.077	-0.043	
12.460	0.004	-0.038	
12.465	0.064	-0.028	
12.470	-0.016	-0.013	
12.475	0.029	-0.000	
12.480	0.099	0.013	
12.485	-0.020	0.026	
12.490	-0.054	0.028	
12.495	0.021	0.019	
12.500	-0.034	0.009	
12.505	-0.112	-0.005	
12.510	-0.078	-0.026	
12.515	-0.069	-0.048	
12.520	-0.147	-0.066	
12.525	-0.115	-0.085	
12.530	-0.060	-0.099	
12.535	-0.121	-0.104	
12.540	-0.132	-0.107	
12.545	-0.052	-0.109	
12.550	-0.077	-0.104	
12.555	-0.129	-0.098	
12.560	-0.058	-0.095	
12.565	-0.025	-0.089	
12.570	-0.089	-0.078	
12.575	-0.035	-0.069	
12.580	0.050	-0.057	
12.585	-0.051	-0.040	
12.590	-0.083	-0.031	
12.595	-0.011	-0.031	
12.600	-0.048	-0.032	
12.605	-0.106	-0.037	
12.610	-0.031	-0.045	
12.615	0.010	-0.049	
12.620	-0.066	-0.045	
12.625	-0.016	-0.041	
12.630	0.097	-0.031	
12.635	0.007	-0.012	
12.640	-0.002	0.004	
12.645	0.122	0.018	
12.650	0.075	0.035	
12.655	-0.011	0.050	
12.660	0.088	0.054	
12.665	0.124	0.060	
12.670	0.013	0.067	
12.675	0.078	0.069	
12.680	0.172	0.073	
12.685	0.068	0.084	
12.690	0.058	0.091	
12.695	0.185	0.095	
12.700	0.137	0.105	
12.705	0.047	0.114	
12.710	0.151	0.115	
12.715	0.189	0.119	
12.720	0.081	0.127	
12.725	0.116	0.129	
12.730	0.198	0.130	
12.735	0.101	0.135	
12.740	0.078	0.134	
12.745	0.185	0.129	
12.750	0.130	0.130	
12.755	0.021	0.127	
12.760	0.110	0.116	
12.765	0.120	0.105	
12.770	-0.013	0.096	
12.775	0.023	0.080	
12.780	0.114	0.063	
12.785	0.033	0.057	
12.790	0.012	0.052	
12.795	0.104	0.048	
12.800	0.050	0.049	
12.805	-0.020	0.049	
12.810	0.062	0.043	
12.815	0.075	0.041	
12.820	-0.023	0.041	
12.825	0.030	0.036	
12.830	0.108	0.034	
12.835	0.007	0.038	
12.840	-0.002	0.039	
12.845	0.128	0.038	
12.850	0.107	0.047	
12.855	0.047	0.061	
12.860	0.148	0.073	
12.865	0.159	0.088	
12.870	0.013	0.101	
12.875	0.035	0.100	
12.880	0.096	0.088	
12.885	-0.020	0.076	
12.890	-0.042	0.057	
12.895	0.029	0.033	
12.900	-0.035	0.015	
12.905	-0.107	-0.004	
12.910	-0.043	-0.026	
12.915	-0.022	-0.042	
12.920	-0.100	-0.051	
12.925	-0.075	-0.059	
12.930	-0.023	-0.065	
12.935	-0.092	-0.066	
12.940	-0.101	-0.068	
12.945	-0.025	-0.072	
12.950	-0.057	-0.070	
12.955	-0.098	-0.067	
12.960	-0.019	-0.065	
12.965	0.018	-0.058	
12.970	0.007	-0.043	
12.975	0.084	-0.022	
12.980	0.146	0.007	
12.985	-0.016	0.037	
12.990	-0.054	0.047	
12.995	0.001	0.038	
13.000	-0.052	0.022	
13.005	-0.101	0.000	
13.010	-0.051	-0.024	
13.015	-0.045	-0.043	
13.020	-0.118	-0.057	
13.025	-0.098	-0.070	
13.030	-0.048	-0.081	
13.035	-0.106	-0.085	
13.040	-0.112	-0.088	
13.045	-0.048	-0.091	
13.050	-0.080	-0.089	
13.055	-0.129	-0.087	
13.060	-0.069	-0.089	
13.065	-0.054	-0.088	
13.070	-0.119	-0.085	
13.075	-0.071	-0.085	
13.080	0.001	-0.081	
13.085	-0.063	-0.070	
13.090	-0.066	-0.061	
13.095	0.033	-0.052	
13.100	-0.003	-0.039	
13.105	-0.066	-0.027	
13.110	0.015	-0.021	
13.115	0.024	-0.015	
13.120	-0.060	-0.009	
13.125	-0.016	-0.010	
13.130	0.055	-0.010	
13.135	-0.025	-0.005	
13.140	-0.037	-0.003	
13.145	0.044	-0.004	
13.150	-0.008	-0.002	
13.155	-0.072	-0.002	
13.160	-0.005	-0.010	
13.165	0.004	-0.015	
13.170	-0.080	-0.018	
13.175	-0.051	-0.026	
13.180	-0.002	-0.033	
13.185	-0.066	-0.037	
13.190	-0.068	-0.041	
13.195	0.007	-0.044	
13.200	-0.038	-0.042	
13.205	-0.077	-0.040	
13.210	0.010	-0.040	
13.215	0.035	-0.033	
13.220	-0.045	-0.022	
13.225	-0.006	-0.016	
13.230	0.084	-0.008	
13.235	0.026	0.005	
13.240	0.050	0.020	
13.245	0.198	0.038	
13.250	0.133	0.067	
13.255	0.032	0.092	
13.260	0.101	0.100	
13.265	0.088	0.101	
13.270	-0.034	0.094	
13.275	-0.022	0.073	
13.280	0.010	0.046	
13.285	-0.086	0.021	
13.290	-0.100	-0.008	
13.295	-0.028	-0.035	
13.300	-0.052	-0.051	
13.305	-0.109	-0.061	
13.310	-0.046	-0.069	
13.315	-0.028	-0.071	
13.320	-0.101	-0.068	
13.325	-0.069	-0.068	
13.330	-0.009	-0.067	
13.335	-0.066	-0.061	
13.340	-0.054	-0.056	
13.345	0.056	-0.048	
13.350	0.006	-0.033	
13.355	-0.052	-0.018	
13.360	-0.011	-0.013	
13.365	-0.017	-0.012	
13.370	-0.098	-0.016	
13.375	-0.054	-0.027	
13.380	0.029	-0.036	
13.385	-0.035	-0.035	
13.390	-0.034	-0.032	
13.395	0.081	-0.025	
13.400	0.049	-0.009	
13.405	-0.008	0.008	
13.410	0.085	0.021	
13.415	0.093	0.035	
13.420	-0.013	0.047	
13.425	0.052	0.050	
13.430	0.122	0.052	
13.435	0.029	0.058	
13.440	0.026	0.060	
13.445	0.152	0.061	
13.450	0.117	0.070	
13.455	0.036	0.082	
13.460	0.156	0.088	
13.465	0.201	0.100	
13.470	0.075	0.117	
13.475	0.142	0.126	
13.480	0.227	0.135	
13.485	0.131	0.147	
13.490	0.120	0.155	
13.495	0.238	0.158	
13.500	0.174	0.166	
13.505	0.097	0.171	
13.510	0.194	0.167	
13.515	0.189	0.166	
13.520	0.059	0.164	
13.525	0.087	0.151	
13.530	0.157	0.135	
13.535	0.026	0.121	
13.540	-0.005	0.102	
13.545	0.078	0.078	
13.550	0.013	0.059	
13.555	-0.051	0.042	
13.560	0.004	0.021	
13.565	-0.002	0.006	
13.570	-0.077	-0.007	
13.575	-0.020	-0.020	
13.580	0.033	-0.026	
13.585	-0.049	-0.025	
13.590	-0.051	-0.025	
13.595	0.042	-0.025	
13.600	0.009	-0.019	
13.605	-0.035	-0.011	
13.610	0.039	-0.006	
13.615	0.059	0.002	
13.620	-0.014	0.012	
13.625	0.050	0.019	
13.630	0.128	0.029	
13.635	0.029	0.043	
13.640	-0.002	0.051	
13.645	0.078	0.050	
13.650	0.010	0.048	
13.655	-0.064	0.040	
13.660	-0.022	0.022	
13.665	-0.029	0.003	
13.670	-0.112	-0.016	
13.675	-0.097	-0.038	
13.680	-0.054	-0.059	
13.685	-0.127	-0.073	
13.690	-0.144	-0.088	
13.695	-0.077	-0.101	
13.700	-0.098	-0.108	
13.705	-0.139	-0.110	
13.710	-0.075	-0.111	
13.715	-0.055	-0.108	
13.720	-0.119	-0.100	
13.725	-0.063	-0.094	
13.730	0.026	-0.084	
13.735	-0.023	-0.065	
13.740	-0.040	-0.047	
13.745	0.013	-0.033	
13.750	-0.075	-0.024	
13.755	-0.155	-0.029	
13.760	-0.107	-0.049	
13.765	-0.086	-0.070	
13.770	-0.119	-0.086	
13.775	-0.066	-0.096	
13.780	0.006	-0.095	
13.785	-0.046	-0.081	
13.790	-0.040	-0.065	
13.795	0.058	-0.049	
13.800	0.033	-0.026	
13.805	-0.013	-0.005	
13.810	0.068	0.009	
13.815	0.079	0.024	
13.820	-0.005	0.037	
13.825	0.038	0.042	
13.830	0.105	0.045	
13.835	0.026	0.050	
13.840	0.030	0.052	
13.845	0.120	0.053	
13.850	0.062	0.059	
13.855	0.007	0.063	
13.860	0.104	0.061	
13.865	0.122	0.065	
13.870	0.021	0.072	
13.875	0.075	0.073	
13.880	0.168	0.075	
13.885	0.078	0.085	
13.890	0.056	0.092	
13.895	0.154	0.094	
13.900	0.082	0.098	
13.905	0.003	0.097	
13.910	0.070	0.086	
13.915	0.075	0.075	
13.920	-0.034	0.064	
13.925	-0.002	0.047	
13.930	0.047	0.030	
13.935	-0.040	0.019	
13.940	-0.052	0.006	
13.945	0.009	-0.008	
13.950	-0.037	-0.016	
13.955	-0.084	-0.024	
13.960	-0.022	-0.034	
13.965	-0.009	-0.039	
13.970	-0.071	-0.040	
13.975	-0.038	-0.041	
13.980	0.021	-0.040	
13.985	-0.051	-0.034	
13.990	-0.052	-0.031	
13.995	0.041	-0.029	
14.000	-0.006	-0.022	
14.005	-0.052	-0.015	
14.010	0.038	-0.013	
14.015	0.087	-0.004	
14.020	0.009	0.011	
14.025	0.059	0.024	
14.030	0.107	0.037	
14.035	-0.008	0.049	
14.040	-0.031	0.048	
14.045	0.033	0.037	
14.050	-0.025	0.026	
14.055	-0.078	0.011	
14.060	-0.034	-0.008	
14.065	-0.048	-0.025	
14.070	-0.119	-0.040	
14.075	-0.080	-0.057	
14.080	-0.020	-0.069	
14.085	-0.087	-0.071	
14.090	-0.089	-0.072	
14.095	-0.016	-0.073	
14.100	-0.049	-0.067	
14.105	-0.089	-0.061	
14.110	-0.011	-0.058	
14.115	0.032	-0.050	
14.120	-0.031	-0.035	
14.125	0.030	-0.022	
14.130	0.105	-0.005	
14.135	0.007	0.016	
14.140	0.004	0.029	
14.145	0.076	0.034	
14.150	-0.011	0.037	
14.155	-0.066	0.031	
14.160	0.010	0.016	
14.165	0.033	0.006	
14.170	-0.026	0.002	
14.175	0.030	-0.000	
14.180	0.124	0.006	
14.185	0.038	0.023	
14.190	0.036	0.038	
14.195	0.151	0.050	
14.200	0.105	0.067	
14.205	0.067	0.083	
14.210	0.159	0.094	
14.215	0.166	0.107	
14.220	0.038	0.119	
14.225	0.073	0.117	
14.230	0.148	0.110	
14.235	0.065	0.106	
14.240	0.082	0.101	
14.245	0.195	0.100	
14.250	0.171	0.110	
14.255	0.093	0.124	
14.260	0.188	0.133	
14.265	0.195	0.144	
14.270	0.085	0.153	
14.275	0.163	0.154	
14.280	0.235	0.156	
14.285	0.145	0.164	
14.290	0.128	0.167	
14.295	0.238	0.168	
14.300	0.172	0.173	
14.305	0.084	0.174	
14.310	0.226	0.169	
14.315	0.259	0.172	
14.320	0.131	0.182	
14.325	0.189	0.186	
14.330	0.246	0.189	
14.335	0.102	0.191	
14.340	0.072	0.181	
14.345	0.151	0.161	
14.350	0.076	0.142	
14.355	-0.000	0.121	
14.360	0.062	0.094	
14.365	0.038	0.071	
14.370	-0.049	0.051	
14.375	0.007	0.029	
14.380	0.056	0.014	
14.385	-0.023	0.008	
14.390	-0.017	0.004	
14.395	0.070	0.001	
14.400	0.024	0.007	
14.405	-0.014	0.013	
14.410	0.072	0.017	
14.415	0.065	0.024	
14.420	-0.037	0.031	
14.425	-0.003	0.028	
14.430	0.061	0.023	
14.435	-0.009	0.021	
14.440	-0.052	0.015	
14.445	-0.028	0.003	
14.450	-0.098	-0.013	
14.455	-0.150	-0.035	
14.460	-0.106	-0.063	
14.465	-0.112	-0.087	
14.470	-0.174	-0.106	
14.475	-0.130	-0.123	
14.480	-0.107	-0.134	
14.485	-0.170	-0.138	
14.490	-0.167	-0.143	
14.495	-0.092	-0.146	
14.500	-0.127	-0.143	
14.505	-0.164	-0.139	
14.510	-0.097	-0.136	
14.515	-0.084	-0.130	
14.520	-0.142	-0.122	
14.525	-0.097	-0.117	
14.530	-0.068	-0.112	
14.535	-0.144	-0.106	
14.540	-0.161	-0.107	
14.545	-0.130	-0.115	
14.550	-0.181	-0.126	
14.555	-0.213	-0.140	
14.560	-0.144	-0.156	
14.565	-0.135	-0.164	
14.570	-0.194	-0.166	
14.575	-0.148	-0.167	
14.580	-0.110	-0.165	
14.585	-0.159	-0.158	
14.590	-0.139	-0.151	
14.595	-0.069	-0.143	
14.600	-0.110	-0.131	
14.605	-0.142	-0.121	
14.610	-0.081	-0.115	
14.615	-0.072	-0.109	
14.620	-0.126	-0.102	
14.625	-0.075	-0.098	
14.630	-0.028	-0.092	
14.635	-0.083	-0.082	
14.640	-0.075	-0.074	
14.645	0.010	-0.067	
14.650	-0.038	-0.055	
14.655	-0.072	-0.046	
14.660	0.003	-0.041	
14.665	0.018	-0.033	
14.670	-0.042	-0.023	
14.675	0.010	-0.017	
14.680	0.061	-0.009	
14.685	-0.029	0.002	
14.690	-0.029	0.005	
14.695	0.053	0.004	
14.700	-0.002	0.007	
14.705	-0.055	0.006	
14.710	0.023	0.001	
14.715	0.012	-0.002	
14.720	-0.064	-0.004	
14.725	-0.035	-0.011	
14.730	-0.006	-0.019	
14.735	-0.074	-0.025	
14.740	-0.080	-0.034	
14.745	-0.020	-0.044	
14.750	-0.061	-0.049	
14.755	-0.103	-0.054	
14.760	-0.051	-0.061	
14.765	-0.045	-0.065	
14.770	-0.097	-0.065	
14.775	-0.052	-0.067	
14.780	-0.014	-0.065	
14.785	-0.078	-0.060	
14.790	-0.051	-0.056	
14.795	0.073	-0.049	
14.800	0.027	-0.031	
14.805	-0.023	-0.011	
14.810	0.052	0.002	
14.815	0.038	0.013	
14.820	-0.052	0.020	
14.825	-0.035	0.015	
14.830	-0.022	0.003	
14.835	-0.110	-0.012	
14.840	-0.116	-0.034	
14.845	-0.060	-0.057	
14.850	-0.103	-0.073	
14.855	-0.148	-0.087	
14.860	-0.103	-0.101	
14.865	-0.097	-0.110	
14.870	-0.144	-0.114	
14.875	-0.100	-0.118	
14.880	-0.066	-0.116	
14.885	-0.129	-0.111	
14.890	-0.115	-0.108	
14.895	-0.034	-0.105	
14.900	-0.051	-0.095	
14.905	-0.071	-0.082	
14.910	0.015	-0.068	
14.915	0.009	-0.051	
14.920	-0.098	-0.036	
14.925	-0.078	-0.034	
14.930	-0.042	-0.040	
14.935	-0.103	-0.048	
14.940	-0.090	-0.059	
14.945	-0.002	-0.066	
14.950	-0.029	-0.063	
14.955	-0.068	-0.056	
14.960	0.003	-0.050	
14.965	0.021	-0.039	
14.970	-0.043	-0.027	
14.975	-0.000	-0.019	
14.980	0.047	-0.011	
14.985	-0.038	-0.003	
14.990	-0.031	-0.001	
14.995	0.064	-0.002	
15.000	0.009	0.003	
15.005	-0.038	0.007	
15.010	0.046	0.007	
15.015	0.047	0.010	
15.020	-0.029	0.015	
15.025	0.036	0.015	
15.030	0.105	0.020	
15.035	0.021	0.031	
15.040	0.036	0.039	
15.045	0.131	0.046	
15.050	0.088	0.059	
15.055	0.038	0.070	
15.060	0.140	0.077	
15.065	0.137	0.087	
15.070	0.038	0.097	
15.075	0.096	0.098	
15.080	0.156	0.098	
15.085	0.044	0.101	
15.090	0.026	0.096	
15.095	0.099	0.085	
15.100	0.047	0.076	
15.105	-0.008	0.067	
15.110	0.061	0.054	
15.115	0.052	0.045	
15.120	-0.028	0.039	
15.125	0.026	0.030	
15.130	0.065	0.024	
15.135	-0.026	0.022	
15.140	-0.035	0.017	
15.145	0.035	0.008	
15.150	-0.019	0.003	
15.155	-0.043	-0.002	
15.160	0.061	-0.006	
15.165	0.082	0.000	
15.170	-0.005	0.014	
15.175	0.042	0.023	
15.180	0.125	0.033	
15.185	0.073	0.048	
15.190	0.088	0.064	
15.195	0.183	0.080	
15.200	0.091	0.098	
15.205	0.017	0.106	
15.210	0.073	0.100	
15.215	0.035	0.088	
15.220	-0.064	0.069	
15.225	-0.049	0.040	
15.230	-0.025	0.010	
15.235	-0.097	-0.015	
15.240	-0.101	-0.040	
15.245	-0.043	-0.060	
15.250	-0.078	-0.072	
15.255	-0.112	-0.078	
15.260	-0.042	-0.083	
15.265	-0.034	-0.080	
15.270	-0.092	-0.074	
15.275	-0.045	-0.069	
15.280	0.009	-0.062	
15.285	-0.032	-0.050	
15.290	-0.002	-0.037	
15.295	0.124	-0.020	
15.300	0.039	0.005	
15.305	-0.043	0.024	
15.310	-0.023	0.026	
15.315	-0.061	0.015	
15.320	-0.129	-0.006	
15.325	-0.084	-0.034	
15.330	-0.020	-0.056	
15.335	-0.074	-0.065	
15.340	-0.057	-0.068	
15.345	0.047	-0.064	
15.350	0.018	-0.047	
15.355	-0.023	-0.028	
15.360	0.058	-0.011	
15.365	0.047	0.005	
15.370	-0.022	0.018	
15.375	0.032	0.023	
15.380	0.085	0.027	
15.385	0.001	0.033	
15.390	0.020	0.035	
15.395	0.099	0.036	
15.400	0.046	0.042	
15.405	-0.003	0.046	
15.410	0.093	0.045	
15.415	0.096	0.050	
15.420	0.017	0.056	
15.425	0.090	0.059	
15.430	0.174	0.067	
15.435	0.076	0.082	
15.440	0.075	0.093	
15.445	0.165	0.099	
15.450	0.096	0.107	
15.455	0.039	0.109	
15.460	0.140	0.105	
15.465	0.111	0.103	
15.470	0.017	0.101	
15.475	0.052	0.090	
15.480	0.093	0.078	
15.485	0.003	0.069	
15.490	0.010	0.057	
15.495	0.094	0.046	
15.500	0.035	0.043	
15.505	-0.006	0.040	
15.510	0.070	0.036	
15.515	0.052	0.036	
15.520	-0.016	0.037	
15.525	0.030	0.032	
15.530	0.091	0.031	
15.535	-0.006	0.034	
15.540	0.007	0.033	
15.545	0.105	0.032	
15.550	0.059	0.038	
15.555	0.026	0.046	
15.560	0.133	0.052	
15.565	0.099	0.064	
15.570	0.010	0.073	
15.575	0.119	0.076	
15.580	0.229	0.085	
15.585	0.149	0.107	
15.590	0.143	0.129	
15.595	0.217	0.146	
15.600	0.122	0.160	
15.605	0.038	0.160	
15.610	0.238	0.151	
15.615	0.308	0.156	
15.620	0.208	0.179	
15.625	0.267	0.203	
15.630	0.307	0.226	
15.635	0.146	0.243	
15.640	0.117	0.239	
15.645	0.214	0.221	
15.650	0.134	0.202	
15.655	0.128	0.184	
15.660	0.232	0.170	
15.665	0.192	0.168	
15.670	0.084	0.168	
15.675	0.151	0.161	
15.680	0.235	0.156	
15.685	0.142	0.160	
15.690	0.185	0.165	
15.695	0.275	0.173	
15.700	0.169	0.187	
15.705	0.075	0.191	
15.710	0.139	0.179	
15.715	0.145	0.163	
15.720	0.078	0.148	
15.725	0.157	0.135	
15.730	0.221	0.132	
15.735	0.116	0.139	
15.740	0.108	0.143	
15.745	0.208	0.143	
15.750	0.152	0.148	
15.755	0.124	0.152	
15.760	0.273	0.158	
15.765	0.305	0.176	
15.770	0.229	0.204	
15.775	0.350	0.231	
15.780	0.452	0.266	
15.785	0.453	0.312	
15.790	0.486	0.363	
15.795	0.547	0.412	
15.800	0.460	0.454	
15.805	0.409	0.477	
15.810	0.502	0.483	
15.815	0.466	0.483	
15.820	0.345	0.476	
15.825	0.389	0.456	
15.830	0.408	0.433	
15.835	0.292	0.410	
15.840	0.302	0.383	
15.845	0.374	0.358	
15.850	0.299	0.342	
15.855	0.214	0.325	
15.860	0.302	0.305	
15.865	0.285	0.289	
15.870	0.131	0.275	
15.875	0.131	0.248	
15.880	0.145	0.214	
15.885	0.027	0.178	
15.890	-0.006	0.137	
15.895	0.032	0.093	
15.900	-0.038	0.056	
15.905	-0.086	0.021	
15.910	-0.043	-0.012	
15.915	-0.064	-0.037	
15.920	-0.124	-0.056	
15.925	-0.093	-0.074	
15.930	-0.075	-0.087	
15.935	-0.138	-0.095	
15.940	-0.135	-0.103	
15.945	-0.092	-0.112	
15.950	-0.132	-0.116	
15.955	-0.161	-0.120	
15.960	-0.103	-0.126	
15.965	-0.106	-0.127	
15.970	-0.148	-0.126	
15.975	-0.104	-0.125	
15.980	-0.077	-0.122	
15.985	-0.153	-0.117	
15.990	-0.167	-0.118	
15.995	-0.129	-0.125	
16.000	-0.173	-0.133	
16.005	-0.207	-0.144	
16.010	-0.165	-0.157	
16.015	-0.190	-0.168	
16.020	-0.251	-0.179	
16.025	-0.210	-0.193	
16.030	-0.177	-0.204	
16.035	-0.234	-0.208	
16.040	-0.225	-0.212	
16.045	-0.177	-0.214	
16.050	-0.210	-0.212	
16.055	-0.231	-0.211	
16.060	-0.173	-0.210	
16.065	-0.171	-0.205	
16.070	-0.202	-0.198	
16.075	-0.165	-0.192	
16.080	-0.138	-0.185	
16.085	-0.185	-0.176	
16.090	-0.177	-0.171	
16.095	-0.139	-0.168	
16.100	-0.179	-0.165	
16.105	-0.200	-0.165	
16.110	-0.145	-0.168	
16.115	-0.141	-0.168	
16.120	-0.190	-0.165	
16.125	-0.147	-0.164	
16.130	-0.115	-0.161	
16.135	-0.171	-0.155	
16.140	-0.158	-0.152	
16.145	-0.095	-0.149	
16.150	-0.133	-0.142	
16.155	-0.161	-0.137	
16.160	-0.104	-0.135	
16.165	-0.106	-0.131	
16.170	-0.153	-0.126	
16.175	-0.110	-0.125	
16.180	-0.074	-0.122	
16.185	-0.132	-0.116	
16.190	-0.127	-0.113	
16.195	-0.060	-0.111	
16.200	-0.089	-0.105	
16.205	-0.115	-0.099	
16.210	-0.049	-0.095	
16.215	-0.057	-0.088	
16.220	-0.106	-0.080	
16.225	-0.058	-0.077	
16.230	-0.037	-0.073	
16.235	-0.095	-0.068	
16.240	-0.078	-0.067	
16.245	-0.014	-0.067	
16.250	-0.060	-0.062	
16.255	-0.090	-0.058	
16.260	-0.042	-0.059	
16.265	-0.058	-0.059	
16.270	-0.118	-0.061	
16.275	-0.084	-0.068	
16.280	-0.058	-0.075	
16.285	-0.124	-0.079	
16.290	-0.118	-0.087	
16.295	-0.066	-0.094	
16.300	-0.110	-0.097	
16.305	-0.138	-0.100	
16.310	-0.084	-0.105	
16.315	-0.095	-0.106	
16.320	-0.141	-0.107	
16.325	-0.095	-0.109	
16.330	-0.063	-0.108	
16.335	-0.116	-0.103	
16.340	-0.103	-0.100	
16.345	-0.051	-0.097	
16.350	-0.087	-0.091	
16.355	-0.100	-0.087	
16.360	-0.016	-0.082	
16.365	-0.008	-0.071	
16.370	-0.066	-0.057	
16.375	-0.037	-0.048	
16.380	-0.031	-0.042	
16.385	-0.110	-0.041	
16.390	-0.115	-0.050	
16.395	-0.080	-0.065	
16.400	-0.130	-0.078	
16.405	-0.170	-0.094	
16.410	-0.119	-0.112	
16.415	-0.127	-0.125	
16.420	-0.168	-0.133	
16.425	-0.121	-0.139	
16.430	-0.081	-0.140	
16.435	-0.136	-0.133	
16.440	-0.132	-0.128	
16.445	-0.074	-0.124	
16.450	-0.106	-0.116	
16.455	-0.115	-0.110	
16.460	-0.043	-0.104	
16.465	-0.035	-0.093	
16.470	-0.069	-0.078	
16.475	-0.006	-0.065	
16.480	0.015	-0.050	
16.485	-0.077	-0.036	
16.490	-0.075	-0.032	
16.495	-0.029	-0.036	
16.500	-0.072	-0.041	
16.505	-0.087	-0.048	
16.510	-0.005	-0.054	
16.515	-0.005	-0.052	
16.520	-0.055	-0.044	
16.525	0.010	-0.037	
16.530	0.064	-0.026	
16.535	-0.009	-0.009	
16.540	0.023	0.004	
16.545	0.111	0.016	
16.550	0.032	0.032	
16.555	-0.005	0.042	
16.560	0.078	0.043	
16.565	0.068	0.046	
16.570	-0.013	0.049	
16.575	0.053	0.045	
16.580	0.119	0.045	
16.585	0.032	0.051	
16.590	0.064	0.056	
16.595	0.166	0.064	
16.600	0.087	0.078	
16.605	0.036	0.088	
16.610	0.136	0.090	
16.615	0.139	0.095	
16.620	0.065	0.102	
16.625	0.125	0.105	
16.630	0.169	0.109	
16.635	0.058	0.115	
16.640	0.073	0.114	
16.645	0.149	0.108	
16.650	0.073	0.106	
16.655	0.021	0.100	
16.660	0.105	0.089	
16.665	0.064	0.080	
16.670	-0.026	0.071	
16.675	0.018	0.055	
16.680	0.044	0.039	
16.685	-0.049	0.027	
16.690	-0.052	0.011	
16.695	0.006	-0.006	
16.700	-0.040	-0.017	
16.705	-0.071	-0.026	
16.710	-0.013	-0.034	
16.715	-0.026	-0.038	
16.720	-0.087	-0.040	
16.725	-0.038	-0.044	
16.730	0.018	-0.045	
16.735	-0.054	-0.040	
16.740	-0.049	-0.036	
16.745	0.020	-0.034	
16.750	-0.013	-0.028	
16.755	-0.020	-0.021	
16.760	0.075	-0.012	
16.765	0.062	0.003	
16.770	-0.029	0.018	
16.775	0.017	0.023	
16.780	0.027	0.022	
16.785	-0.077	0.018	
16.790	-0.078	0.003	
16.795	-0.028	-0.017	
16.800	-0.090	-0.034	
16.805	-0.133	-0.052	
16.810	-0.072	-0.071	
16.815	-0.052	-0.082	
16.820	-0.063	-0.084	
16.825	0.033	-0.076	
16.830	0.079	-0.054	
16.835	-0.011	-0.025	
16.840	-0.002	-0.004	
16.845	0.082	0.011	
16.850	0.027	0.025	
16.855	0.021	0.034	
16.860	0.146	0.042	
16.865	0.159	0.061	
16.870	0.035	0.081	
16.875	0.046	0.089	
16.880	0.012	0.083	
16.885	-0.103	0.063	
16.890	-0.106	0.028	
16.895	-0.034	-0.011	
16.900	-0.069	-0.039	
16.905	-0.081	-0.057	
16.910	0.009	-0.066	
16.915	0.021	-0.060	
16.920	-0.037	-0.045	
16.925	0.029	-0.031	
16.930	0.078	-0.014	
16.935	-0.008	0.006	
16.940	0.010	0.017	
16.945	0.108	0.025	
16.950	0.046	0.037	
16.955	0.003	0.046	
16.960	0.117	0.049	
16.965	0.113	0.058	
16.970	0.024	0.068	
16.975	0.093	0.073	
16.980	0.154	0.078	
16.985	0.056	0.088	
16.990	0.082	0.092	
16.995	0.192	0.096	
17.000	0.111	0.107	
17.005	0.059	0.115	
17.010	0.160	0.115	
17.015	0.149	0.119	
17.020	0.023	0.121	
17.025	0.072	0.112	
17.030	0.125	0.100	
17.035	0.017	0.091	
17.040	0.007	0.078	
17.045	0.062	0.061	
17.050	-0.022	0.047	
17.055	-0.069	0.029	
17.060	-0.020	0.006	
17.065	-0.028	-0.012	
17.070	-0.110	-0.028	
17.075	-0.098	-0.046	
17.080	-0.074	-0.064	
17.085	-0.147	-0.079	
17.090	-0.135	-0.095	
17.095	-0.066	-0.108	
17.100	-0.113	-0.112	
17.105	-0.145	-0.113	
17.110	-0.077	-0.115	
17.115	-0.086	-0.113	
17.120	-0.147	-0.109	
17.125	-0.090	-0.109	
17.130	-0.038	-0.105	
17.135	-0.110	-0.097	
17.140	-0.106	-0.092	
17.145	-0.028	-0.089	
17.150	-0.052	-0.080	
17.155	-0.060	-0.070	
17.160	0.042	-0.058	
17.165	0.012	-0.040	
17.170	-0.083	-0.024	
17.175	-0.054	-0.022	
17.180	-0.037	-0.027	
17.185	-0.135	-0.037	
17.190	-0.133	-0.055	
17.195	-0.074	-0.076	
17.200	-0.126	-0.091	
17.205	-0.155	-0.103	
17.210	-0.080	-0.114	
17.215	-0.095	-0.117	
17.220	-0.167	-0.117	
17.225	-0.135	-0.122	
17.230	-0.106	-0.126	
17.235	-0.174	-0.129	
17.240	-0.161	-0.135	
17.245	-0.090	-0.140	
17.250	-0.118	-0.138	
17.255	-0.130	-0.133	
17.260	-0.035	-0.124	
17.265	-0.025	-0.108	
17.270	-0.095	-0.088	
17.275	-0.055	-0.075	
17.280	-0.022	-0.065	
17.285	-0.107	-0.057	
17.290	-0.101	-0.059	
17.295	-0.028	-0.064	
17.300	-0.046	-0.064	
17.305	-0.060	-0.061	
17.310	0.029	-0.054	
17.315	0.027	-0.040	
17.320	-0.038	-0.023	
17.325	0.027	-0.012	
17.330	0.091	0.001	
17.335	-0.008	0.016	
17.340	0.006	0.025	
17.345	0.111	0.029	
17.350	0.049	0.039	
17.355	0.039	0.048	
17.360	0.154	0.057	
17.365	0.122	0.072	
17.370	0.026	0.086	
17.375	0.110	0.090	
17.380	0.183	0.095	
17.385	0.082	0.106	
17.390	0.116	0.113	
17.395	0.211	0.120	
17.400	0.120	0.131	
17.405	0.053	0.136	
17.410	0.165	0.131	
17.415	0.152	0.129	
17.420	0.049	0.129	
17.425	0.120	0.121	
17.430	0.186	0.118	
17.435	0.076	0.120	
17.440	0.110	0.120	
17.445	0.194	0.120	
17.450	0.096	0.126	
17.455	0.033	0.124	
17.460	0.130	0.114	
17.465	0.113	0.107	
17.470	-0.000	0.100	
17.475	0.052	0.086	
17.480	0.093	0.072	
17.485	-0.013	0.062	
17.490	-0.006	0.049	
17.495	0.079	0.036	
17.500	0.021	0.031	
17.505	-0.019	0.027	
17.510	0.075	0.023	
17.515	0.085	0.027	
17.520	0.003	0.035	
17.525	0.070	0.040	
17.530	0.134	0.048	
17.535	0.035	0.060	
17.540	0.067	0.068	
17.545	0.218	0.077	
17.550	0.168	0.098	
17.555	0.111	0.121	
17.560	0.186	0.137	
17.565	0.143	0.148	
17.570	0.026	0.149	
17.575	0.079	0.135	
17.580	0.090	0.116	
17.585	-0.028	0.096	
17.590	-0.023	0.068	
17.595	0.044	0.041	
17.600	-0.023	0.022	
17.605	-0.058	0.006	
17.610	0.029	-0.008	
17.615	0.017	-0.013	
17.620	-0.063	-0.013	
17.625	-0.000	-0.016	
17.630	0.047	-0.015	
17.635	-0.042	-0.009	
17.640	-0.023	-0.008	
17.645	0.087	-0.005	
17.650	0.038	0.005	
17.655	-0.000	0.017	
17.660	0.107	0.026	
17.665	0.084	0.040	
17.670	-0.026	0.050	
17.675	0.039	0.050	
17.680	0.075	0.046	
17.685	-0.038	0.043	
17.690	-0.035	0.031	
17.695	0.058	0.018	
17.700	-0.003	0.011	
17.705	-0.048	0.006	
17.710	0.041	-0.000	
17.715	0.027	-0.000	
17.720	-0.051	0.002	
17.725	0.020	-0.000	
17.730	0.088	0.002	
17.735	-0.009	0.012	
17.740	0.003	0.018	
17.745	0.105	0.022	
17.750	0.026	0.031	
17.755	-0.022	0.036	
17.760	0.075	0.034	
17.765	0.061	0.036	
17.770	-0.040	0.037	
17.775	0.032	0.032	
17.780	0.111	0.029	
17.785	0.001	0.034	
17.790	0.009	0.036	
17.795	0.101	0.036	
17.800	0.029	0.040	
17.805	-0.000	0.042	
17.810	0.107	0.042	
17.815	0.093	0.048	
17.820	-0.011	0.055	
17.825	0.062	0.054	
17.830	0.127	0.055	
17.835	0.012	0.061	
17.840	0.024	0.060	
17.845	0.134	0.058	
17.850	0.050	0.062	
17.855	-0.002	0.063	
17.860	0.101	0.059	
17.865	0.070	0.058	
17.870	-0.031	0.057	
17.875	0.027	0.047	
17.880	0.073	0.038	
17.885	-0.022	0.034	
17.890	-0.005	0.027	
17.895	0.087	0.021	
17.900	0.009	0.022	
17.905	-0.032	0.022	
17.910	0.073	0.019	
17.915	0.085	0.023	
17.920	0.006	0.032	
17.925	0.052	0.038	
17.930	0.111	0.044	
17.935	0.020	0.052	
17.940	0.062	0.056	
17.945	0.171	0.063	
17.950	0.068	0.076	
17.955	-0.009	0.082	
17.960	0.042	0.074	
17.965	-0.003	0.060	
17.970	-0.092	0.039	
17.975	-0.058	0.011	
17.980	-0.017	-0.016	
17.985	-0.090	-0.034	
17.990	-0.101	-0.051	
17.995	-0.049	-0.066	
18.000	-0.110	-0.075	
18.005	-0.144	-0.085	
18.010	-0.064	-0.095	
18.015	-0.077	-0.099	
18.020	-0.144	-0.099	
18.025	-0.106	-0.103	
18.030	-0.077	-0.105	
18.035	-0.130	-0.105	
18.040	-0.103	-0.106	
18.045	-0.009	-0.103	
18.050	-0.026	-0.089	
18.055	-0.075	-0.072	
18.060	-0.032	-0.060	
18.065	-0.072	-0.053	
18.070	-0.152	-0.055	
18.075	-0.104	-0.068	
18.080	-0.058	-0.081	
18.085	-0.113	-0.088	
18.090	-0.086	-0.092	
18.095	-0.009	-0.091	
18.100	-0.051	-0.081	
18.105	-0.068	-0.069	
18.110	0.026	-0.058	
18.115	0.012	-0.042	
18.120	-0.055	-0.027	
18.125	-0.003	-0.019	
18.130	0.039	-0.013	
18.135	-0.034	-0.005	
18.140	-0.011	-0.003	
18.145	0.082	0.001	
18.150	0.020	0.010	
18.155	-0.008	0.018	
18.160	0.105	0.024	
18.165	0.117	0.037	
18.170	0.029	0.053	
18.175	0.107	0.065	
18.180	0.177	0.078	
18.185	0.084	0.095	
18.190	0.120	0.107	
18.195	0.224	0.119	
18.200	0.146	0.136	
18.205	0.079	0.146	
18.210	0.178	0.147	
18.215	0.154	0.147	
18.220	0.044	0.145	
18.225	0.102	0.133	
18.230	0.149	0.121	
18.235	0.023	0.112	
18.240	0.015	0.097	
18.245	0.091	0.078	
18.250	0.017	0.064	
18.255	-0.026	0.050	
18.260	0.056	0.035	
18.265	0.035	0.027	
18.270	-0.046	0.021	
18.275	0.017	0.013	
18.280	0.061	0.009	
18.285	-0.049	0.009	
18.290	-0.049	0.004	
18.295	0.029	-0.005	
18.300	-0.038	-0.010	
18.305	-0.069	-0.016	
18.310	0.009	-0.024	
18.315	0.004	-0.025	
18.320	-0.069	-0.024	
18.325	-0.028	-0.026	
18.330	0.030	-0.027	
18.335	-0.028	-0.022	
18.340	0.003	-0.017	
18.345	0.099	-0.007	
18.350	0.024	0.009	
18.355	-0.029	0.021	
18.360	0.024	0.022	
18.365	-0.023	0.019	
18.370	-0.107	0.008	
18.375	-0.075	-0.014	
18.380	-0.058	-0.036	
18.385	-0.138	-0.056	
18.390	-0.133	-0.077	
18.395	-0.081	-0.095	
18.400	-0.129	-0.106	
18.405	-0.158	-0.115	
18.410	-0.100	-0.123	
18.415	-0.103	-0.126	
18.420	-0.155	-0.125	
18.425	-0.090	-0.125	
18.430	-0.035	-0.119	
18.435	-0.084	-0.105	
18.440	-0.051	-0.091	
18.445	0.067	-0.072	
18.450	0.007	-0.046	
18.455	-0.061	-0.023	
18.460	-0.043	-0.015	
18.465	-0.087	-0.019	
18.470	-0.159	-0.035	
18.475	-0.115	-0.060	
18.480	-0.060	-0.082	
18.485	-0.109	-0.094	
18.490	-0.090	-0.099	
18.495	-0.022	-0.098	
18.500	-0.064	-0.088	
18.505	-0.081	-0.078	
18.510	0.006	-0.069	
18.515	0.027	-0.053	
18.520	-0.034	-0.035	
18.525	0.042	-0.019	
18.530	0.093	-0.001	
18.535	-0.005	0.018	
18.540	0.020	0.029	
18.545	0.110	0.036	
18.550	0.041	0.045	
18.555	0.006	0.051	
18.560	0.087	0.051	
18.565	0.070	0.053	
18.570	-0.011	0.054	
18.575	0.050	0.049	
18.580	0.105	0.047	
18.585	0.015	0.050	
18.590	0.055	0.051	
18.595	0.165	0.055	
18.600	0.085	0.069	
18.605	0.035	0.080	
18.610	0.110	0.083	
18.615	0.107	0.086	
18.620	0.046	0.088	
18.625	0.097	0.087	
18.630	0.111	0.086	
18.635	-0.013	0.084	
18.640	-0.014	0.071	
18.645	0.052	0.052	
18.650	-0.013	0.037	
18.655	-0.042	0.022	
18.660	0.026	0.007	
18.665	0.006	-0.001	
18.670	-0.063	-0.006	
18.675	-0.020	-0.013	
18.680	0.021	-0.019	
18.685	-0.049	-0.019	
18.690	-0.026	-0.020	
18.695	0.061	-0.019	
18.700	-0.005	-0.011	
18.705	-0.029	-0.004	
18.710	0.056	0.000	
18.715	0.041	0.008	
18.720	-0.037	0.015	
18.725	0.020	0.015	
18.730	0.101	0.017	
18.735	0.058	0.028	
18.740	0.094	0.042	
18.745	0.181	0.061	
18.750	0.068	0.084	
18.755	-0.014	0.093	
18.760	0.042	0.085	
18.765	0.017	0.069	
18.770	-0.069	0.049	
18.775	-0.043	0.022	
18.780	-0.023	-0.003	
18.785	-0.101	-0.024	
18.790	-0.098	-0.045	
18.795	-0.035	-0.062	
18.800	-0.080	-0.070	
18.805	-0.126	-0.076	
18.810	-0.072	-0.084	
18.815	-0.074	-0.088	
18.820	-0.106	-0.089	
18.825	-0.048	-0.088	
18.830	-0.003	-0.081	
18.835	-0.068	-0.068	
18.840	-0.032	-0.057	
18.845	0.044	-0.045	
18.850	0.001	-0.028	
18.855	-0.020	-0.014	
18.860	0.041	-0.004	
18.865	0.001	0.005	
18.870	-0.075	0.006	
18.875	-0.035	-0.002	
18.880	0.001	-0.013	
18.885	-0.052	-0.020	
18.890	-0.038	-0.026	
18.895	0.041	-0.028	
18.900	-0.017	-0.023	
18.905	-0.034	-0.017	
18.910	0.067	-0.012	
18.915	0.082	0.001	
18.920	-0.000	0.018	
18.925	0.052	0.029	
18.930	0.116	0.039	
18.935	0.038	0.052	
18.940	0.073	0.061	
18.945	0.177	0.071	
18.950	0.101	0.087	
18.955	0.067	0.099	
18.960	0.177	0.106	
18.965	0.169	0.117	
18.970	0.075	0.128	
18.975	0.143	0.131	
18.980	0.197	0.134	
18.985	0.120	0.141	
18.990	0.145	0.146	
18.995	0.238	0.151	
19.000	0.166	0.162	
19.005	0.125	0.169	
19.010	0.227	0.172	
19.015	0.200	0.177	
19.020	0.093	0.180	
19.025	0.154	0.173	
19.030	0.197	0.166	
19.035	0.085	0.160	
19.040	0.070	0.148	
19.045	0.151	0.133	
19.050	0.067	0.121	
19.055	0.009	0.106	
19.060	0.085	0.087	
19.065	0.070	0.073	
19.070	-0.019	0.062	
19.075	0.030	0.049	
19.080	0.067	0.038	
19.085	-0.020	0.032	
19.090	-0.013	0.024	
19.095	0.078	0.017	
19.100	0.021	0.018	
19.105	-0.003	0.021	
19.110	0.072	0.022	
19.115	0.050	0.027	
19.120	-0.022	0.032	
19.125	0.039	0.030	
19.130	0.114	0.032	
19.135	0.058	0.042	
19.140	0.097	0.054	
19.145	0.160	0.069	
19.150	0.044	0.085	
19.155	-0.014	0.088	
19.160	0.038	0.076	
19.165	-0.008	0.058	
19.170	-0.092	0.036	
19.175	-0.058	0.006	
19.180	-0.038	-0.021	
19.185	-0.112	-0.041	
19.190	-0.113	-0.061	
19.195	-0.049	-0.078	
19.200	-0.109	-0.086	
19.205	-0.141	-0.093	
19.210	-0.077	-0.101	
19.215	-0.078	-0.103	
19.220	-0.142	-0.103	
19.225	-0.097	-0.105	
19.230	-0.060	-0.105	
19.235	-0.112	-0.100	
19.240	-0.087	-0.097	
19.245	-0.009	-0.091	
19.250	-0.063	-0.079	
19.255	-0.104	-0.070	
19.260	-0.046	-0.067	
19.265	-0.075	-0.066	
19.270	-0.141	-0.068	
19.275	-0.092	-0.078	
19.280	-0.057	-0.086	
19.285	-0.115	-0.089	
19.290	-0.090	-0.091	
19.295	-0.014	-0.090	
19.300	-0.055	-0.081	
19.305	-0.071	-0.070	
19.310	0.013	-0.061	
19.315	0.007	-0.046	
19.320	-0.057	-0.032	
19.325	0.006	-0.024	
19.330	0.046	-0.015	
19.335	-0.046	-0.006	
19.340	-0.025	-0.004	
19.345	0.065	-0.003	
19.350	0.017	0.003	
19.355	-0.016	0.010	
19.360	0.084	0.014	
19.365	0.072	0.024	
19.370	-0.003	0.035	
19.375	0.076	0.040	
19.380	0.133	0.048	
19.385	0.035	0.061	
19.390	0.046	0.067	
19.395	0.146	0.070	
19.400	0.081	0.078	
19.405	0.036	0.084	
19.410	0.137	0.084	
19.415	0.125	0.089	
19.420	0.033	0.094	
19.425	0.082	0.092	
19.430	0.119	0.089	
19.435	0.015	0.086	
19.440	0.027	0.077	
19.445	0.107	0.067	
19.450	0.006	0.060	
19.455	-0.042	0.050	
19.460	0.030	0.033	
19.465	0.001	0.020	
19.470	-0.075	0.008	
19.475	-0.022	-0.008	
19.480	0.013	-0.019	
19.485	-0.045	-0.022	
19.490	-0.038	-0.025	
19.495	0.032	-0.026	
19.500	-0.009	-0.021	
19.505	-0.026	-0.015	
19.510	0.052	-0.010	
19.515	0.010	-0.002	
19.520	-0.045	0.004	
19.525	0.050	0.005	
19.530	0.137	0.013	
19.535	0.039	0.032	
19.540	0.038	0.047	
19.545	0.090	0.055	
19.550	-0.006	0.059	
19.555	-0.072	0.050	
19.560	-0.014	0.029	
19.565	-0.038	0.007	
19.570	-0.121	-0.015	
19.575	-0.089	-0.040	
19.580	-0.064	-0.062	
19.585	-0.141	-0.078	
19.590	-0.126	-0.093	
19.595	-0.072	-0.105	
19.600	-0.103	-0.108	
19.605	-0.119	-0.108	
19.610	-0.054	-0.107	
19.615	-0.063	-0.100	
19.620	-0.115	-0.091	
19.625	-0.054	-0.086	
19.630	0.013	-0.078	
19.635	-0.046	-0.062	
19.640	-0.025	-0.048	
19.645	0.038	-0.035	
19.650	-0.051	-0.022	
19.655	-0.121	-0.020	
19.660	-0.075	-0.032	
19.665	-0.077	-0.048	
19.670	-0.118	-0.063	
19.675	-0.048	-0.076	
19.680	-0.002	-0.078	
19.685	-0.064	-0.070	
19.690	-0.034	-0.060	
19.695	0.055	-0.048	
19.700	0.009	-0.030	
19.705	-0.020	-0.012	
19.710	0.059	-0.000	
19.715	0.068	0.013	
19.720	-0.022	0.026	
19.725	0.036	0.030	
19.730	0.122	0.034	
19.735	0.036	0.045	
19.740	0.050	0.053	
19.745	0.125	0.059	
19.750	0.062	0.068	
19.755	0.044	0.074	
19.760	0.162	0.077	
19.765	0.139	0.088	
19.770	0.056	0.100	
19.775	0.152	0.106	
19.780	0.201	0.115	
19.785	0.101	0.129	
19.790	0.152	0.137	
19.795	0.240	0.146	
19.800	0.145	0.159	
19.805	0.090	0.165	
19.810	0.198	0.161	
19.815	0.168	0.160	
19.820	0.044	0.156	
19.825	0.094	0.142	
19.830	0.117	0.125	
19.835	-0.006	0.108	
19.840	-0.002	0.085	
19.845	0.058	0.060	
19.850	-0.029	0.040	
19.855	-0.066	0.020	
19.860	-0.002	-0.001	
19.865	-0.019	-0.015	
19.870	-0.086	-0.025	
19.875	-0.032	-0.036	
19.880	-0.005	-0.041	
19.885	-0.083	-0.042	
19.890	-0.074	-0.046	
19.895	0.001	-0.050	
19.900	-0.029	-0.048	
19.905	-0.049	-0.042	
19.910	0.032	-0.036	
19.915	0.012	-0.026	
19.920	-0.057	-0.016	
19.925	0.030	-0.011	
19.930	0.111	-0.001	
19.935	0.033	0.017	
19.940	0.038	0.032	
19.945	0.099	0.044	
19.950	0.018	0.053	
19.955	-0.032	0.053	
19.960	0.010	0.041	
19.965	-0.022	0.026	
19.970	-0.103	0.008	
19.975	-0.081	-0.017	
19.980	-0.063	-0.041	
19.985	-0.136	-0.061	
19.990	-0.118	-0.081	
19.995	-0.049	-0.095	
20.000	-0.084	-0.098	
20.005	-0.101	-0.096	
20.010	-0.028	-0.092	
20.015	-0.028	-0.082	
20.020	-0.069	-0.068	
20.025	0.003	-0.057	
20.030	0.073	-0.040	
20.035	0.009	-0.017	
20.040	0.061	0.004	
20.045	0.140	0.026	
20.050	0.017	0.049	
20.055	-0.051	0.057	
20.060	-0.022	0.045	
20.065	-0.061	0.024	
20.070	-0.126	-0.003	
20.075	-0.069	-0.034	
20.080	-0.022	-0.056	
20.085	-0.074	-0.065	
20.090	-0.037	-0.067	
20.095	0.076	-0.059	
20.100	0.030	-0.037	
20.105	0.001	-0.013	
20.110	0.097	0.007	
20.115	0.087	0.029	
20.120	0.006	0.047	
20.125	0.059	0.054	
20.130	0.091	0.058	
20.135	-0.009	0.060	
20.140	0.017	0.054	
20.145	0.111	0.047	
20.150	0.039	0.048	
20.155	0.018	0.049	
20.160	0.136	0.050	
20.165	0.104	0.060	
20.170	0.015	0.070	
20.175	0.084	0.072	
20.180	0.125	0.074	
20.185	0.029	0.078	
20.190	0.053	0.076	
20.195	0.157	0.075	
20.200	0.059	0.080	
20.205	0.021	0.082	
20.210	0.139	0.078	
20.215	0.119	0.082	
20.220	0.030	0.087	
20.225	0.078	0.085	
20.230	0.105	0.082	
20.235	-0.014	0.078	
20.240	-0.003	0.065	
20.245	0.052	0.048	
20.250	-0.031	0.034	
20.255	-0.054	0.018	
20.260	0.029	0.002	
20.265	0.009	-0.006	
20.270	-0.069	-0.010	
20.275	-0.013	-0.016	
20.280	0.010	-0.020	
20.285	-0.072	-0.022	
20.290	-0.055	-0.027	
20.295	0.001	-0.033	
20.300	-0.054	-0.035	
20.305	-0.064	-0.037	
20.310	0.020	-0.039	
20.315	-0.000	-0.034	
20.320	-0.064	-0.027	
20.325	0.032	-0.023	
20.330	0.102	-0.012	
20.335	0.017	0.007	
20.340	0.041	0.023	
20.345	0.113	0.037	
20.350	0.041	0.051	
20.355	-0.000	0.057	
20.360	0.064	0.055	
20.365	0.033	0.051	
20.370	-0.052	0.043	
20.375	-0.017	0.027	
20.380	0.026	0.012	
20.385	-0.064	0.000	
20.390	-0.046	-0.012	
20.395	0.015	-0.022	
20.400	-0.040	-0.026	
20.405	-0.061	-0.029	
20.410	0.018	-0.032	
20.415	-0.000	-0.028	
20.420	-0.066	-0.024	
20.425	-0.006	-0.023	
20.430	0.041	-0.021	
20.435	-0.045	-0.014	
20.440	-0.023	-0.012	
20.445	0.076	-0.009	
20.450	0.017	0.001	
20.455	-0.020	0.010	
20.460	0.044	0.013	
20.465	-0.009	0.015	
20.470	-0.083	0.011	
20.475	-0.031	-0.003	
20.480	-0.002	-0.016	
20.485	-0.081	-0.025	
20.490	-0.069	-0.035	
20.495	-0.009	-0.044	
20.500	-0.063	-0.048	
20.505	-0.078	-0.050	
20.510	-0.013	-0.053	
20.515	-0.025	-0.051	
20.520	-0.080	-0.046	
20.525	-0.023	-0.045	
20.530	0.013	-0.042	
20.535	-0.060	-0.035	
20.540	-0.032	-0.031	
20.545	0.050	-0.027	
20.550	-0.009	-0.018	
20.555	-0.032	-0.010	
20.560	0.061	-0.005	
20.565	0.042	0.005	
20.570	-0.034	0.014	
20.575	0.030	0.016	
20.580	0.064	0.018	
20.585	-0.025	0.022	
20.590	-0.005	0.020	
20.595	0.068	0.017	
20.600	0.003	0.019	
20.605	-0.019	0.019	
20.610	0.064	0.017	
20.615	0.033	0.019	
20.620	-0.049	0.020	
20.625	0.006	0.015	
20.630	0.038	0.009	
20.635	-0.051	0.006	
20.640	-0.049	-0.002	
20.645	-0.013	-0.013	
20.650	-0.078	-0.023	
20.655	-0.109	-0.036	
20.660	-0.058	-0.053	
20.665	-0.086	-0.065	
20.670	-0.147	-0.077	
20.675	-0.093	-0.090	
20.680	-0.071	-0.099	
20.685	-0.144	-0.102	
20.690	-0.124	-0.107	
20.695	-0.058	-0.111	
20.700	-0.109	-0.108	
20.705	-0.126	-0.105	
20.710	-0.045	-0.103	
20.715	-0.072	-0.096	
20.720	-0.130	-0.090	
20.725	-0.063	-0.088	
20.730	-0.011	-0.084	
20.735	-0.078	-0.073	
20.740	-0.060	-0.065	
20.745	-0.011	-0.059	
20.750	-0.084	-0.053	
20.755	-0.119	-0.054	
20.760	-0.071	-0.062	
20.765	-0.100	-0.072	
20.770	-0.165	-0.083	
20.775	-0.126	-0.099	
20.780	-0.097	-0.112	
20.785	-0.165	-0.120	
20.790	-0.158	-0.129	
20.795	-0.100	-0.136	
20.800	-0.144	-0.138	
20.805	-0.156	-0.138	
20.810	-0.086	-0.138	
20.815	-0.097	-0.132	
20.820	-0.153	-0.124	
20.825	-0.093	-0.121	
20.830	-0.055	-0.115	
20.835	-0.113	-0.105	
20.840	-0.075	-0.098	
20.845	0.017	-0.087	
20.850	-0.058	-0.071	
20.855	-0.109	-0.059	
20.860	-0.055	-0.058	
20.865	-0.071	-0.060	
20.870	-0.124	-0.065	
20.875	-0.074	-0.073	
20.880	-0.031	-0.078	
20.885	-0.086	-0.076	
20.890	-0.060	-0.073	
20.895	0.020	-0.067	
20.900	-0.034	-0.054	
20.905	-0.051	-0.042	
20.910	0.038	-0.033	
20.915	0.013	-0.021	
20.920	-0.045	-0.010	
20.925	0.030	-0.005	
20.930	0.078	0.003	
20.935	-0.016	0.014	
20.940	0.026	0.020	
20.945	0.133	0.027	
20.950	0.039	0.041	
20.955	0.018	0.051	
20.960	0.131	0.056	
20.965	0.107	0.066	
20.970	0.038	0.076	
20.975	0.130	0.082	
20.980	0.171	0.091	
20.985	0.052	0.103	
20.990	0.084	0.106	
20.995	0.172	0.106	
21.000	0.081	0.110	
21.005	0.047	0.109	
21.010	0.154	0.104	
21.015	0.111	0.104	
21.020	0.007	0.102	
21.025	0.062	0.091	
21.030	0.102	0.080	
21.035	-0.008	0.071	
21.040	0.009	0.058	
21.045	0.090	0.046	
21.050	-0.003	0.040	
21.055	-0.043	0.031	
21.060	0.029	0.019	
21.065	-0.003	0.009	
21.070	-0.068	0.001	
21.075	-0.003	-0.010	
21.080	0.026	-0.016	
21.085	-0.069	-0.017	
21.090	-0.061	-0.022	
21.095	0.006	-0.029	
21.100	-0.051	-0.032	
21.105	-0.066	-0.035	
21.110	0.018	-0.037	
21.115	-0.002	-0.033	
21.120	-0.060	-0.027	
21.125	0.026	-0.024	
21.130	0.087	-0.014	
21.135	0.007	0.003	
21.140	0.041	0.017	
21.145	0.120	0.031	
21.150	0.003	0.045	
21.155	-0.046	0.047	
21.160	0.023	0.037	
21.165	-0.020	0.024	
21.170	-0.106	0.007	
21.175	-0.068	-0.016	
21.180	-0.051	-0.038	
21.185	-0.127	-0.055	
21.190	-0.103	-0.072	
21.195	-0.052	-0.085	
21.200	-0.106	-0.090	
21.205	-0.136	-0.095	
21.210	-0.066	-0.100	
21.215	-0.071	-0.099	
21.220	-0.118	-0.096	
21.225	-0.055	-0.093	
21.230	0.006	-0.085	
21.235	-0.045	-0.069	
21.240	0.004	-0.052	
21.245	0.093	-0.032	
21.250	-0.016	-0.008	
21.255	-0.084	0.004	
21.260	-0.055	-0.001	
21.265	-0.084	-0.017	
21.270	-0.139	-0.038	
21.275	-0.074	-0.062	
21.280	-0.029	-0.076	
21.285	-0.081	-0.079	
21.290	-0.049	-0.077	
21.295	0.046	-0.068	
21.300	-0.017	-0.050	
21.305	-0.035	-0.033	
21.310	0.073	-0.019	
21.315	0.055	-0.001	
21.320	-0.025	0.015	
21.325	0.036	0.022	
21.330	0.087	0.028	
21.335	-0.003	0.035	
21.340	0.023	0.037	
21.345	0.130	0.039	
21.350	0.050	0.048	
21.355	0.020	0.055	
21.360	0.136	0.059	
21.365	0.117	0.069	
21.370	0.041	0.080	
21.375	0.137	0.086	
21.380	0.174	0.096	
21.385	0.068	0.108	
21.390	0.090	0.113	
21.395	0.189	0.115	
21.400	0.097	0.120	
21.405	0.038	0.121	
21.410	0.127	0.112	
21.415	0.094	0.105	
21.420	0.012	0.097	
21.425	0.062	0.084	
21.430	0.087	0.072	
21.435	-0.023	0.063	
21.440	-0.016	0.048	
21.445	0.036	0.031	
21.450	-0.038	0.018	
21.455	-0.077	0.002	
21.460	-0.011	-0.015	
21.465	-0.031	-0.027	
21.470	-0.090	-0.035	
21.475	-0.043	-0.044	
21.480	-0.022	-0.050	
21.485	-0.097	-0.052	
21.490	-0.074	-0.057	
21.495	-0.026	-0.061	
21.500	-0.086	-0.062	
21.505	-0.101	-0.064	
21.510	-0.019	-0.068	
21.515	-0.020	-0.065	
21.520	-0.083	-0.057	
21.525	-0.032	-0.053	
21.530	0.018	-0.048	
21.535	-0.026	-0.037	
21.540	0.021	-0.026	
21.545	0.108	-0.009	
21.550	-0.003	0.011	
21.555	-0.049	0.021	
21.560	0.010	0.018	
21.565	-0.035	0.011	
21.570	-0.112	-0.003	
21.575	-0.080	-0.025	
21.580	-0.063	-0.046	
21.585	-0.138	-0.064	
21.590	-0.122	-0.083	
21.595	-0.064	-0.097	
21.600	-0.104	-0.102	
21.605	-0.116	-0.104	
21.610	-0.046	-0.104	
21.615	-0.064	-0.097	
21.620	-0.119	-0.089	
21.625	-0.066	-0.086	
21.630	-0.017	-0.081	
21.635	-0.069	-0.071	
21.640	-0.020	-0.062	
21.645	0.101	-0.046	
21.650	0.039	-0.019	
21.655	-0.003	0.005	
21.660	0.052	0.020	
21.665	-0.003	0.028	
21.670	-0.078	0.026	
21.675	-0.022	0.011	
21.680	-0.000	-0.004	
21.685	-0.063	-0.014	
21.690	-0.020	-0.023	
21.695	0.075	-0.025	
21.700	0.015	-0.015	
21.705	-0.008	-0.002	
21.710	0.094	0.009	
21.715	0.084	0.024	
21.720	0.010	0.040	
21.725	0.097	0.050	
21.730	0.162	0.063	
21.735	0.061	0.079	
21.740	0.108	0.091	
21.745	0.221	0.103	
21.750	0.146	0.122	
21.755	0.104	0.137	
21.760	0.206	0.145	
21.765	0.195	0.155	
21.770	0.088	0.163	
21.775	0.154	0.161	
21.780	0.204	0.158	
21.785	0.108	0.158	
21.790	0.143	0.155	
21.795	0.224	0.154	
21.800	0.133	0.158	
21.805	0.101	0.158	
21.810	0.201	0.154	
21.815	0.152	0.153	
21.820	0.052	0.151	
21.825	0.122	0.139	
21.830	0.156	0.128	
21.835	0.059	0.122	
21.840	0.072	0.113	
21.845	0.131	0.102	
21.850	0.049	0.096	
21.855	0.001	0.086	
21.860	0.085	0.071	
21.865	0.059	0.062	
21.870	-0.025	0.054	
21.875	0.038	0.042	
21.880	0.072	0.034	
21.885	-0.023	0.031	
21.890	0.012	0.026	
21.895	0.087	0.022	
21.900	-0.000	0.025	
21.905	-0.016	0.025	
21.910	0.073	0.022	
21.915	0.050	0.025	
21.920	-0.022	0.029	
21.925	0.032	0.027	
21.930	0.067	0.026	
21.935	0.010	0.029	
21.940	0.062	0.032	
21.945	0.171	0.042	
21.950	0.081	0.061	
21.955	0.026	0.076	
21.960	0.088	0.079	
21.965	0.038	0.077	
21.970	-0.051	0.067	
21.975	-0.011	0.047	
21.980	-0.011	0.024	
21.985	-0.087	0.003	
21.990	-0.068	-0.020	
21.995	-0.013	-0.038	
22.000	-0.074	-0.048	
22.005	-0.093	-0.055	
22.010	-0.028	-0.062	
22.015	-0.045	-0.063	
22.020	-0.093	-0.061	
22.025	-0.048	-0.062	
22.030	-0.011	-0.060	
22.035	-0.061	-0.054	
22.040	-0.019	-0.048	
22.045	0.082	-0.037	
22.050	0.029	-0.017	
22.055	0.018	0.004	
22.060	0.087	0.020	
22.065	0.039	0.035	
22.070	-0.048	0.041	
22.075	-0.008	0.034	
22.080	0.015	0.022	
22.085	-0.068	0.010	
22.090	-0.049	-0.006	
22.095	0.017	-0.019	
22.100	-0.040	-0.025	
22.105	-0.055	-0.029	
22.110	0.024	-0.031	
22.115	0.021	-0.026	
22.120	-0.023	-0.016	
22.125	0.049	-0.008	
22.130	0.072	0.005	
22.135	-0.023	0.018	
22.140	0.010	0.022	
22.145	0.087	0.025	
22.150	0.013	0.030	
22.155	-0.008	0.032	
22.160	0.081	0.031	
22.165	0.061	0.034	
22.170	-0.005	0.039	
22.175	0.067	0.039	
22.180	0.097	0.043	
22.185	0.003	0.049	
22.190	0.035	0.049	
22.195	0.127	0.049	
22.200	0.056	0.056	
22.205	0.046	0.062	
22.210	0.140	0.067	
22.215	0.087	0.076	
22.220	-0.000	0.081	
22.225	0.070	0.076	
22.230	0.087	0.070	
22.235	-0.017	0.064	
22.240	0.003	0.052	
22.245	0.068	0.039	
22.250	-0.013	0.032	
22.255	-0.040	0.022	
22.260	0.029	0.010	
22.265	-0.008	0.003	
22.270	-0.077	-0.004	
22.275	-0.031	-0.016	
22.280	0.001	-0.025	
22.285	-0.068	-0.029	
22.290	-0.051	-0.034	
22.295	0.001	-0.038	
22.300	-0.060	-0.038	
22.305	-0.080	-0.040	
22.310	0.003	-0.044	
22.315	-0.013	-0.041	
22.320	-0.072	-0.037	
22.325	-0.016	-0.036	
22.330	0.026	-0.032	
22.335	-0.028	-0.024	
22.340	0.010	-0.017	
22.345	0.104	-0.005	
22.350	0.018	0.012	
22.355	-0.026	0.024	
22.360	0.039	0.025	
22.365	-0.011	0.023	
22.370	-0.087	0.015	
22.375	-0.054	-0.003	
22.380	-0.051	-0.023	
22.385	-0.127	-0.041	
22.390	-0.122	-0.062	
22.395	-0.075	-0.082	
22.400	-0.116	-0.094	
22.405	-0.121	-0.103	
22.410	-0.058	-0.107	
22.415	-0.078	-0.104	
22.420	-0.124	-0.099	
22.425	-0.061	-0.096	
22.430	-0.034	-0.090	
22.435	-0.087	-0.080	
22.440	-0.057	-0.073	
22.445	0.024	-0.064	
22.450	-0.020	-0.049	
22.455	-0.046	-0.036	
22.460	0.029	-0.026	
22.465	-0.028	-0.018	
22.470	-0.124	-0.017	
22.475	-0.087	-0.030	
22.480	-0.054	-0.048	
22.485	-0.107	-0.061	
22.490	-0.071	-0.072	
22.495	-0.005	-0.076	
22.500	-0.058	-0.070	
22.505	-0.069	-0.063	
22.510	0.027	-0.056	
22.515	0.009	-0.042	
22.520	-0.052	-0.028	
22.525	0.020	-0.019	
22.530	0.052	-0.010	
22.535	-0.035	0.001	
22.540	-0.008	0.005	
22.545	0.078	0.007	
22.550	0.013	0.014	
22.555	-0.011	0.019	
22.560	0.090	0.022	
22.565	0.068	0.030	
22.570	-0.003	0.039	
22.575	0.072	0.042	
22.580	0.111	0.048	
22.585	0.018	0.056	
22.590	0.049	0.059	
22.595	0.140	0.061	
22.600	0.061	0.069	
22.605	0.035	0.074	
22.610	0.149	0.075	
22.615	0.096	0.082	
22.620	0.015	0.087	
22.625	0.085	0.083	
22.630	0.102	0.079	
22.635	-0.008	0.075	
22.640	0.003	0.064	
22.645	0.073	0.050	
22.650	-0.013	0.040	
22.655	-0.046	0.028	
22.660	0.026	0.013	
22.665	-0.008	0.003	
22.670	-0.077	-0.005	
22.675	-0.034	-0.017	
22.680	-0.016	-0.028	
22.685	-0.089	-0.035	
22.690	-0.063	-0.044	
22.695	-0.006	-0.050	
22.700	-0.069	-0.051	
22.705	-0.101	-0.053	
22.710	-0.028	-0.058	
22.715	-0.025	-0.058	
22.720	-0.064	-0.054	
22.725	-0.003	-0.049	
22.730	0.017	-0.040	
22.735	-0.049	-0.029	
22.740	0.012	-0.022	
22.745	0.127	-0.009	
22.750	0.046	0.013	
22.755	0.001	0.031	
22.760	0.068	0.040	
22.765	0.007	0.044	
22.770	-0.077	0.038	
22.775	-0.043	0.019	
22.780	-0.043	-0.003	
22.785	-0.122	-0.025	
22.790	-0.115	-0.050	
22.795	-0.075	-0.072	
22.800	-0.127	-0.088	
22.805	-0.148	-0.102	
22.810	-0.090	-0.114	
22.815	-0.107	-0.118	
22.820	-0.147	-0.120	
22.825	-0.104	-0.122	
22.830	-0.069	-0.120	
22.835	-0.121	-0.113	
22.840	-0.074	-0.107	
22.845	0.024	-0.096	
22.850	-0.009	-0.074	
22.855	-0.011	-0.050	
22.860	0.041	-0.028	
22.865	-0.043	-0.011	
22.870	-0.153	-0.010	
22.875	-0.122	-0.029	
22.880	-0.103	-0.056	
22.885	-0.152	-0.081	
22.890	-0.116	-0.103	
22.895	-0.048	-0.114	
22.900	-0.084	-0.113	
22.905	-0.093	-0.105	
22.910	-0.000	-0.095	
22.915	-0.009	-0.077	
22.920	-0.063	-0.058	
22.925	-0.003	-0.044	
22.930	0.029	-0.031	
22.935	-0.045	-0.018	
22.940	-0.016	-0.012	
22.945	0.076	-0.007	
22.950	0.004	0.003	
22.955	-0.020	0.011	
22.960	0.082	0.015	
22.965	0.056	0.023	
22.970	-0.020	0.031	
22.975	0.067	0.033	
22.980	0.111	0.038	
22.985	0.021	0.048	
22.990	0.061	0.054	
22.995	0.152	0.061	
23.000	0.084	0.073	
23.005	0.050	0.083	
23.010	0.137	0.087	
23.015	0.096	0.093	
23.020	0.010	0.094	
23.025	0.090	0.087	
23.030	0.116	0.081	
23.035	-0.002	0.078	
23.040	0.009	0.068	
23.045	0.082	0.055	
23.050	-0.003	0.046	
23.055	-0.040	0.035	
23.060	0.026	0.020	
23.065	-0.003	0.010	
23.070	-0.072	0.000	
23.075	-0.017	-0.012	
23.080	0.009	-0.020	
23.085	-0.063	-0.024	
23.090	-0.035	-0.028	
23.095	0.038	-0.029	
23.100	-0.025	-0.024	
23.105	-0.051	-0.020	
23.110	0.013	-0.019	
23.115	-0.023	-0.018	
23.120	-0.061	-0.018	
23.125	0.015	-0.021	
23.130	0.036	-0.018	
23.135	-0.046	-0.012	
23.140	-0.009	-0.009	
23.145	0.104	-0.005	
23.150	0.061	0.010	
23.155	0.052	0.029	
23.160	0.128	0.046	
23.165	0.072	0.063	
23.170	-0.023	0.072	
23.175	0.018	0.065	
23.180	0.015	0.050	
23.185	-0.084	0.032	
23.190	-0.080	0.007	
23.195	-0.029	-0.020	
23.200	-0.084	-0.039	
23.205	-0.110	-0.056	
23.210	-0.055	-0.070	
23.215	-0.069	-0.078	
23.220	-0.118	-0.082	
23.225	-0.049	-0.085	
23.230	-0.014	-0.081	
23.235	-0.092	-0.072	
23.240	-0.063	-0.067	
23.245	0.033	-0.060	
23.250	0.001	-0.045	
23.255	-0.008	-0.029	
23.260	0.104	-0.011	
23.265	0.073	0.012	
23.270	-0.019	0.032	
23.275	-0.000	0.038	
23.280	-0.000	0.032	
23.285	-0.081	0.020	
23.290	-0.052	0.000	
23.295	0.023	-0.017	
23.300	-0.037	-0.024	
23.305	-0.045	-0.028	
23.310	0.059	-0.028	
23.315	0.039	-0.017	
23.320	-0.023	-0.003	
23.325	0.076	0.007	
23.330	0.139	0.023	
23.335	0.030	0.045	
23.340	0.053	0.059	
23.345	0.163	0.068	
23.350	0.070	0.081	
23.355	0.046	0.089	
23.360	0.142	0.090	
23.365	0.110	0.094	
23.370	0.021	0.097	
23.375	0.105	0.092	
23.380	0.156	0.090	
23.385	0.065	0.095	
23.390	0.097	0.098	
23.395	0.191	0.102	
23.400	0.108	0.112	
23.405	0.061	0.118	
23.410	0.154	0.117	
23.415	0.119	0.117	
23.420	0.035	0.115	
23.425	0.114	0.107	
23.430	0.139	0.102	
23.435	0.029	0.100	
23.440	0.049	0.092	
23.445	0.139	0.083	
23.450	0.039	0.080	
23.455	-0.006	0.074	
23.460	0.064	0.061	
23.465	0.026	0.051	
23.470	-0.046	0.039	
23.475	0.020	0.024	
23.480	0.050	0.014	
23.485	-0.035	0.011	
23.490	-0.014	0.005	
23.495	0.058	0.001	
23.500	-0.013	0.003	
23.505	-0.040	0.003	
23.510	0.036	0.000	
23.515	0.020	0.001	
23.520	-0.031	0.003	
23.525	0.044	0.004	
23.530	0.076	0.010	
23.535	-0.016	0.019	
23.540	0.017	0.023	
23.545	0.131	0.028	
23.550	0.091	0.042	
23.555	0.085	0.059	
23.560	0.160	0.077	
23.565	0.090	0.094	
23.570	-0.002	0.101	
23.575	0.053	0.092	
23.580	0.073	0.079	
23.585	-0.045	0.065	
23.590	-0.043	0.043	
23.595	-0.002	0.019	
23.600	-0.072	-0.002	
23.605	-0.100	-0.024	
23.610	-0.038	-0.044	
23.615	-0.060	-0.057	
23.620	-0.110	-0.065	
23.625	-0.057	-0.073	
23.630	-0.031	-0.075	
23.635	-0.106	-0.072	
23.640	-0.081	-0.073	
23.645	-0.017	-0.073	
23.650	-0.061	-0.067	
23.655	-0.061	-0.062	
23.660	0.026	-0.055	
23.665	0.001	-0.042	
23.670	-0.066	-0.029	
23.675	-0.028	-0.025	
23.680	-0.025	-0.025	
23.685	-0.109	-0.029	
23.690	-0.086	-0.041	
23.695	-0.032	-0.053	
23.700	-0.071	-0.060	
23.705	-0.069	-0.063	
23.710	0.018	-0.062	
23.715	-0.009	-0.052	
23.720	-0.071	-0.041	
23.725	-0.006	-0.035	
23.730	0.042	-0.027	
23.735	-0.035	-0.017	
23.740	-0.009	-0.010	
23.745	0.062	-0.005	
23.750	-0.014	0.004	
23.755	-0.040	0.007	
23.760	0.053	0.005	
23.765	0.044	0.008	
23.770	-0.032	0.014	
23.775	0.046	0.015	
23.780	0.088	0.019	
23.785	-0.008	0.028	
23.790	0.020	0.031	
23.795	0.128	0.034	
23.800	0.068	0.046	
23.805	0.044	0.057	
23.810	0.133	0.065	
23.815	0.110	0.077	
23.820	0.026	0.086	
23.825	0.096	0.086	
23.830	0.122	0.086	
23.835	0.017	0.087	
23.840	0.046	0.080	
23.845	0.134	0.073	
23.850	0.039	0.073	
23.855	-0.008	0.069	
23.860	0.075	0.058	
23.865	0.035	0.051	
23.870	-0.042	0.042	
23.875	0.007	0.028	
23.880	0.027	0.016	
23.885	-0.045	0.008	
23.890	-0.028	-0.001	
23.895	0.021	-0.010	
23.900	-0.046	-0.013	
23.905	-0.066	-0.019	
23.910	0.006	-0.026	
23.915	-0.023	-0.029	
23.920	-0.081	-0.030	
23.925	-0.017	-0.035	
23.930	0.030	-0.034	
23.935	-0.043	-0.028	
23.940	-0.019	-0.023	
23.945	0.084	-0.016	
23.950	0.038	-0.001	
23.955	0.023	0.015	
23.960	0.113	0.029	
23.965	0.061	0.045	
23.970	-0.023	0.054	
23.975	0.033	0.051	
23.980	0.024	0.043	
23.985	-0.090	0.031	
23.990	-0.083	0.008	
23.995	-0.026	-0.018	
24.000	-0.089	-0.037	
24.005	-0.118	-0.055	
24.010	-0.049	-0.071	
24.015	-0.069	-0.079	
24.020	-0.132	-0.083	
24.025	-0.078	-0.088	
24.030	-0.052	-0.091	
24.035	-0.116	-0.089	
24.040	-0.090	-0.089	
24.045	-0.022	-0.087	
24.050	-0.063	-0.079	
24.055	-0.060	-0.070	
24.060	0.041	-0.060	
24.065	0.033	-0.041	
24.070	-0.054	-0.021	
24.075	-0.042	-0.013	
24.080	-0.054	-0.016	
24.085	-0.129	-0.027	
24.090	-0.109	-0.047	
24.095	-0.049	-0.066	
24.100	-0.086	-0.077	
24.105	-0.090	-0.082	
24.110	0.006	-0.082	
24.115	0.004	-0.070	
24.120	-0.063	-0.053	
24.125	-0.013	-0.042	
24.130	0.042	-0.030	
24.135	-0.042	-0.018	
24.140	-0.016	-0.011	
24.145	0.064	-0.006	
24.150	-0.008	0.003	
24.155	-0.022	0.007	
24.160	0.070	0.009	
24.165	0.036	0.016	
24.170	-0.038	0.021	
24.175	0.041	0.019	
24.180	0.085	0.021	
24.185	-0.009	0.027	
24.190	0.024	0.030	
24.195	0.114	0.032	
24.200	0.038	0.041	
24.205	0.020	0.047	
24.210	0.125	0.051	
24.215	0.082	0.060	
24.220	0.001	0.066	
24.225	0.078	0.065	
24.230	0.104	0.064	
24.235	-0.008	0.065	
24.240	0.017	0.058	
24.245	0.082	0.049	
24.250	-0.011	0.043	
24.255	-0.055	0.033	
24.260	0.009	0.016	
24.265	-0.020	0.003	
24.270	-0.086	-0.010	
24.275	-0.046	-0.025	
24.280	-0.026	-0.038	
24.285	-0.100	-0.046	
24.290	-0.074	-0.055	
24.295	-0.020	-0.062	
24.300	-0.086	-0.063	
24.305	-0.110	-0.066	
24.310	-0.048	-0.071	
24.315	-0.069	-0.074	
24.320	-0.124	-0.075	
24.325	-0.064	-0.080	
24.330	-0.032	-0.081	
24.335	-0.104	-0.077	
24.340	-0.081	-0.076	
24.345	-0.011	-0.074	
24.350	-0.061	-0.067	
24.355	-0.057	-0.060	
24.360	0.042	-0.052	
24.365	-0.002	-0.037	
24.370	-0.087	-0.025	
24.375	-0.042	-0.025	
24.380	-0.045	-0.030	
24.385	-0.135	-0.039	
24.390	-0.135	-0.057	
24.395	-0.098	-0.079	
24.400	-0.159	-0.097	
24.405	-0.181	-0.116	
24.410	-0.126	-0.134	
24.415	-0.152	-0.145	
24.420	-0.205	-0.152	
24.425	-0.145	-0.161	
24.430	-0.122	-0.164	
24.435	-0.176	-0.161	
24.440	-0.155	-0.159	
24.445	-0.109	-0.156	
24.450	-0.150	-0.150	
24.455	-0.141	-0.145	
24.460	-0.037	-0.137	
24.465	-0.026	-0.119	
24.470	-0.083	-0.096	
24.475	-0.046	-0.078	
24.480	-0.060	-0.066	
24.485	-0.173	-0.063	
24.490	-0.171	-0.077	
24.495	-0.132	-0.099	
24.500	-0.171	-0.120	
24.505	-0.161	-0.137	
24.510	-0.077	-0.147	
24.515	-0.089	-0.143	
24.520	-0.132	-0.132	
24.525	-0.075	-0.123	
24.530	-0.043	-0.110	
24.535	-0.100	-0.096	
24.540	-0.064	-0.085	
24.545	0.003	-0.075	
24.550	-0.057	-0.061	
24.555	-0.075	-0.052	
24.560	0.009	-0.047	
24.565	-0.009	-0.039	
24.570	-0.054	-0.031	
24.575	0.033	-0.025	
24.580	0.056	-0.014	
24.585	-0.032	-0.001	
24.590	0.010	0.006	
24.595	0.090	0.011	
24.600	0.023	0.022	
24.605	0.012	0.030	
24.610	0.124	0.036	
24.615	0.094	0.049	
24.620	0.010	0.061	
24.625	0.088	0.065	
24.630	0.119	0.069	
24.635	0.010	0.074	
24.640	0.033	0.071	
24.645	0.114	0.065	
24.650	0.017	0.063	
24.655	-0.023	0.056	
24.660	0.056	0.044	
24.665	0.015	0.034	
24.670	-0.061	0.024	
24.675	-0.000	0.010	
24.680	0.012	-0.001	
24.685	-0.077	-0.009	
24.690	-0.051	-0.020	
24.695	0.009	-0.029	
24.700	-0.054	-0.033	
24.705	-0.071	-0.036	
24.710	0.006	-0.040	
24.715	-0.008	-0.037	
24.720	-0.075	-0.033	
24.725	-0.023	-0.033	
24.730	0.015	-0.032	
24.735	-0.058	-0.028	
24.740	-0.031	-0.027	
24.745	0.039	-0.025	
24.750	-0.020	-0.018	
24.755	-0.019	-0.013	
24.760	0.105	-0.005	
24.765	0.096	0.013	
24.770	0.024	0.034	
24.775	0.097	0.049	
24.780	0.096	0.062	
24.785	-0.017	0.070	
24.790	-0.022	0.062	
24.795	0.029	0.046	
24.800	-0.048	0.029	
24.805	-0.075	0.008	
24.810	-0.022	-0.013	
24.815	-0.060	-0.030	
24.820	-0.112	-0.044	
24.825	-0.057	-0.059	
24.830	-0.022	-0.066	
24.835	-0.086	-0.066	
24.840	-0.054	-0.066	
24.845	0.035	-0.061	
24.850	-0.029	-0.047	
24.855	-0.046	-0.035	
24.860	0.049	-0.026	
24.865	0.021	-0.014	
24.870	-0.023	-0.002	
24.875	0.085	0.007	
24.880	0.146	0.024	
24.885	0.018	0.046	
24.890	0.018	0.057	
24.895	0.065	0.058	
24.900	-0.014	0.054	
24.905	-0.026	0.042	
24.910	0.068	0.029	
24.915	0.049	0.024	
24.920	-0.009	0.025	
24.925	0.093	0.026	
24.930	0.111	0.035	
24.935	0.003	0.048	
24.940	0.038	0.052	
24.945	0.152	0.056	
24.950	0.084	0.067	
24.955	0.053	0.077	
24.960	0.162	0.084	
24.965	0.131	0.095	
24.970	0.039	0.105	
24.975	0.134	0.106	
24.980	0.183	0.110	
24.985	0.078	0.118	
24.990	0.122	0.121	
24.995	0.214	0.125	
25.000	0.124	0.135	
25.005	0.093	0.141	
25.010	0.204	0.141	
25.015	0.165	0.146	
25.020	0.075	0.150	
25.025	0.185	0.147	
25.030	0.221	0.149	
25.035	0.104	0.156	
25.040	0.140	0.157	
25.045	0.226	0.157	
25.050	0.134	0.161	
25.055	0.096	0.161	
25.060	0.203	0.155	
25.065	0.146	0.154	
25.070	0.030	0.149	
25.075	0.097	0.133	
25.080	0.125	0.117	
25.085	0.009	0.104	
25.090	0.026	0.086	
25.095	0.084	0.068	
25.100	-0.008	0.055	
25.105	-0.025	0.041	
25.110	0.081	0.027	
25.115	0.056	0.024	
25.120	-0.020	0.026	
25.125	0.047	0.026	
25.130	0.075	0.027	
25.135	-0.023	0.031	
25.140	0.013	0.029	
25.145	0.107	0.028	
25.150	0.018	0.033	
25.155	-0.013	0.036	
25.160	0.108	0.035	
25.165	0.127	0.044	
25.170	0.047	0.059	
25.175	0.136	0.072	
25.180	0.145	0.086	
25.185	0.012	0.098	
25.190	0.010	0.093	
25.195	0.058	0.078	
25.200	-0.037	0.061	
25.205	-0.084	0.036	
25.210	-0.028	0.007	
25.215	-0.061	-0.018	
25.220	-0.124	-0.040	
25.225	-0.075	-0.061	
25.230	-0.052	-0.075	
25.235	-0.119	-0.082	
25.240	-0.086	-0.088	
25.245	-0.020	-0.089	
25.250	-0.098	-0.083	
25.255	-0.113	-0.080	
25.260	-0.034	-0.081	
25.265	-0.043	-0.076	
25.270	-0.086	-0.069	
25.275	-0.008	-0.064	
25.280	0.035	-0.052	
25.285	-0.052	-0.036	
25.290	-0.040	-0.027	
25.295	0.009	-0.023	
25.300	-0.066	-0.021	
25.305	-0.078	-0.025	
25.310	0.012	-0.033	
25.315	-0.017	-0.033	
25.320	-0.074	-0.032	
25.325	-0.005	-0.033	
25.330	0.047	-0.029	
25.335	-0.028	-0.019	
25.340	-0.000	-0.011	
25.345	0.094	-0.002	
25.350	0.024	0.013	
25.355	0.013	0.025	
25.360	0.119	0.034	
25.365	0.078	0.047	
25.370	-0.000	0.058	
25.375	0.084	0.060	
25.380	0.116	0.063	
25.385	0.020	0.068	
25.390	0.073	0.069	
25.395	0.169	0.072	
25.400	0.082	0.083	
25.405	0.062	0.091	
25.410	0.181	0.096	
25.415	0.146	0.108	
25.420	0.052	0.118	
25.425	0.127	0.118	
25.430	0.171	0.118	
25.435	0.061	0.121	
25.440	0.101	0.118	
25.445	0.178	0.115	
25.450	0.081	0.117	
25.455	0.038	0.114	
25.460	0.137	0.105	
25.465	0.091	0.100	
25.470	-0.005	0.093	
25.475	0.049	0.079	
25.480	0.081	0.065	
25.485	-0.020	0.055	
25.490	-0.006	0.042	
25.495	0.065	0.029	
25.500	-0.020	0.022	
25.505	-0.034	0.014	
25.510	0.046	0.006	
25.515	-0.003	0.003	
25.520	-0.069	-0.000	
25.525	-0.016	-0.009	
25.530	0.007	-0.016	
25.535	-0.069	-0.020	
25.540	-0.045	-0.026	
25.545	0.049	-0.029	
25.550	-0.014	-0.024	
25.555	-0.045	-0.018	
25.560	0.042	-0.014	
25.565	0.032	-0.007	
25.570	-0.016	0.002	
25.575	0.075	0.010	
25.580	0.105	0.023	
25.585	-0.016	0.037	
25.590	-0.002	0.041	
25.595	0.072	0.038	
25.600	-0.038	0.034	
25.605	-0.087	0.021	
25.610	-0.042	-0.000	
25.615	-0.074	-0.022	
25.620	-0.135	-0.044	
25.625	-0.084	-0.066	
25.630	-0.064	-0.082	
25.635	-0.135	-0.090	
25.640	-0.119	-0.099	
25.645	-0.060	-0.105	
25.650	-0.112	-0.105	
25.655	-0.127	-0.104	
25.660	-0.058	-0.104	
25.665	-0.074	-0.100	
25.670	-0.107	-0.093	
25.675	-0.020	-0.087	
25.680	0.038	-0.073	
25.685	-0.038	-0.052	
25.690	-0.032	-0.035	
25.695	0.003	-0.025	
25.700	-0.107	-0.022	
25.705	-0.153	-0.033	
25.710	-0.087	-0.055	
25.715	-0.090	-0.076	
25.720	-0.129	-0.090	
25.725	-0.064	-0.099	
25.730	-0.031	-0.099	
25.735	-0.092	-0.091	
25.740	-0.058	-0.082	
25.745	0.020	-0.072	
25.750	-0.038	-0.056	
25.755	-0.060	-0.043	
25.760	0.046	-0.034	
25.765	0.020	-0.021	
25.770	-0.057	-0.010	
25.775	0.010	-0.006	
25.780	0.052	-0.002	
25.785	-0.034	0.004	
25.790	-0.000	0.005	
25.795	0.101	0.008	
25.800	0.024	0.018	
25.805	-0.006	0.027	
25.810	0.124	0.032	
25.815	0.116	0.045	
25.820	0.026	0.061	
25.825	0.113	0.070	
25.830	0.146	0.080	
25.835	0.042	0.091	
25.840	0.061	0.093	
25.845	0.140	0.091	
25.850	0.046	0.091	
25.855	0.006	0.085	
25.860	0.104	0.074	
25.865	0.058	0.067	
25.870	-0.034	0.060	
25.875	0.023	0.046	
25.880	0.042	0.033	
25.885	-0.064	0.023	
25.890	-0.048	0.007	
25.895	0.012	-0.009	
25.900	-0.061	-0.019	
25.905	-0.086	-0.029	
25.910	-0.013	-0.040	
25.915	-0.043	-0.046	
25.920	-0.113	-0.049	
25.925	-0.055	-0.057	
25.930	-0.031	-0.062	
25.935	-0.107	-0.064	
25.940	-0.092	-0.068	
25.945	-0.035	-0.073	
25.950	-0.080	-0.073	
25.955	-0.095	-0.073	
25.960	-0.016	-0.073	
25.965	-0.035	-0.066	
25.970	-0.103	-0.060	
25.975	-0.029	-0.058	
25.980	0.030	-0.053	
25.985	-0.046	-0.041	
25.990	-0.008	-0.031	
25.995	0.065	-0.020	
26.000	-0.037	-0.007	
26.005	-0.086	-0.004	
26.010	-0.028	-0.012	
26.015	-0.057	-0.023	
26.020	-0.135	-0.037	
26.025	-0.092	-0.057	
26.030	-0.081	-0.074	
26.035	-0.159	-0.088	
26.040	-0.141	-0.104	
26.045	-0.077	-0.116	
26.050	-0.122	-0.120	
26.055	-0.136	-0.121	
26.060	-0.069	-0.120	
26.065	-0.095	-0.115	
26.070	-0.142	-0.110	
26.075	-0.086	-0.108	
26.080	-0.049	-0.104	
26.085	-0.087	-0.096	
26.090	-0.028	-0.085	
26.095	0.096	-0.067	
26.100	0.006	-0.037	
26.105	-0.049	-0.013	
26.110	-0.005	-0.004	
26.115	-0.054	-0.003	
26.120	-0.122	-0.013	
26.125	-0.074	-0.033	
26.130	-0.032	-0.051	
26.135	-0.089	-0.060	
26.140	-0.048	-0.066	
26.145	0.039	-0.063	
26.150	-0.034	-0.050	
26.155	-0.051	-0.038	
26.160	0.047	-0.029	
26.165	0.044	-0.016	
26.170	-0.019	-0.001	
26.175	0.059	0.010	
26.180	0.085	0.022	
26.185	-0.017	0.034	
26.190	0.033	0.037	
26.195	0.148	0.041	
26.200	0.058	0.053	
26.205	0.041	0.063	
26.210	0.166	0.071	
26.215	0.156	0.086	
26.220	0.068	0.103	
26.225	0.163	0.113	
26.230	0.194	0.124	
26.235	0.076	0.136	
26.240	0.127	0.138	
26.245	0.238	0.140	
26.250	0.165	0.151	
26.255	0.113	0.159	
26.260	0.226	0.163	
26.265	0.191	0.169	
26.270	0.085	0.173	
26.275	0.181	0.168	
26.280	0.194	0.164	
26.285	0.055	0.161	
26.290	0.070	0.147	
26.295	0.133	0.128	
26.300	0.023	0.111	
26.305	-0.017	0.090	
26.310	0.082	0.066	
26.315	0.052	0.052	
26.320	-0.032	0.042	
26.325	0.049	0.031	
26.330	0.099	0.027	
26.335	-0.009	0.032	
26.340	0.018	0.032	
26.345	0.120	0.034	
26.350	0.039	0.042	
26.355	-0.003	0.047	
26.360	0.097	0.047	
26.365	0.081	0.051	
26.370	0.003	0.055	
26.375	0.084	0.055	
26.380	0.111	0.058	
26.385	0.012	0.063	
26.390	0.073	0.064	
26.395	0.198	0.069	
26.400	0.104	0.085	
26.405	0.044	0.098	
26.410	0.142	0.102	
26.415	0.070	0.103	
26.420	-0.043	0.096	
26.425	0.012	0.074	
26.430	0.059	0.052	
26.435	-0.052	0.035	
26.440	-0.037	0.016	
26.445	0.044	0.000	
26.450	-0.045	-0.007	
26.455	-0.081	-0.015	
26.460	-0.002	-0.026	
26.465	-0.023	-0.032	
26.470	-0.078	-0.034	
26.475	-0.017	-0.038	
26.480	0.029	-0.037	
26.485	-0.040	-0.030	
26.490	0.010	-0.022	
26.495	0.114	-0.010	
26.500	0.050	0.011	
26.505	0.033	0.031	
26.510	0.151	0.047	
26.515	0.087	0.066	
26.520	-0.029	0.077	
26.525	0.015	0.070	
26.530	0.033	0.055	
26.535	-0.072	0.038	
26.540	-0.046	0.016	
26.545	0.050	-0.004	
26.550	-0.005	-0.010	
26.555	-0.038	-0.011	
26.560	0.061	-0.011	
26.565	0.030	-0.003	
26.570	-0.029	0.005	
26.575	0.050	0.009	
26.580	0.104	0.018	
26.585	-0.003	0.030	
26.590	0.033	0.037	
26.595	0.120	0.042	
26.600	0.013	0.050	
26.605	-0.032	0.050	
26.610	0.050	0.041	
26.615	0.033	0.033	
26.620	-0.026	0.028	
26.625	0.061	0.022	
26.630	0.107	0.024	
26.635	-0.013	0.033	
26.640	0.020	0.036	
26.645	0.120	0.037	
26.650	0.036	0.045	
26.655	-0.002	0.049	
26.660	0.104	0.049	
26.665	0.093	0.053	
26.670	0.009	0.059	
26.675	0.076	0.060	
26.680	0.096	0.061	
26.685	-0.013	0.062	
26.690	0.003	0.055	
26.695	0.090	0.045	
26.700	-0.008	0.040	
26.705	-0.051	0.031	
26.710	0.024	0.017	
26.715	0.013	0.007	
26.720	-0.063	0.001	
26.725	-0.023	-0.009	
26.730	0.006	-0.017	
26.735	-0.071	-0.021	
26.740	-0.051	-0.028	
26.745	0.010	-0.034	
26.750	-0.061	-0.035	
26.755	-0.075	-0.037	
26.760	-0.014	-0.042	
26.765	-0.029	-0.043	
26.770	-0.084	-0.042	
26.775	-0.029	-0.045	
26.780	-0.005	-0.045	
26.785	-0.084	-0.042	
26.790	-0.048	-0.043	
26.795	0.062	-0.041	
26.800	0.017	-0.028	
26.805	-0.011	-0.013	
26.810	0.061	-0.000	
26.815	0.020	0.012	
26.820	-0.071	0.017	
26.825	-0.037	0.009	
26.830	-0.025	-0.004	
26.835	-0.113	-0.019	
26.840	-0.109	-0.040	
26.845	-0.061	-0.061	
26.850	-0.122	-0.076	
26.855	-0.147	-0.090	
26.860	-0.087	-0.104	
26.865	-0.106	-0.111	
26.870	-0.152	-0.115	
26.875	-0.095	-0.119	
26.880	-0.066	-0.118	
26.885	-0.136	-0.112	
26.890	-0.116	-0.110	
26.895	-0.048	-0.107	
26.900	-0.090	-0.100	
26.905	-0.093	-0.093	
26.910	0.012	-0.085	
26.915	-0.005	-0.068	
26.920	-0.083	-0.051	
26.925	-0.049	-0.044	
26.930	-0.042	-0.042	
26.935	-0.116	-0.045	
26.940	-0.098	-0.055	
26.945	-0.028	-0.066	
26.950	-0.075	-0.069	
26.955	-0.089	-0.071	
26.960	0.007	-0.070	
26.965	-0.002	-0.060	
26.970	-0.063	-0.047	
26.975	0.013	-0.037	
26.980	0.065	-0.024	
26.985	-0.028	-0.008	
26.990	-0.005	0.002	
26.995	0.090	0.009	
27.000	0.012	0.019	
27.005	-0.003	0.026	
27.010	0.120	0.030	
27.015	0.087	0.042	
27.020	-0.006	0.053	
27.025	0.081	0.056	
27.030	0.130	0.060	
27.035	0.029	0.068	
27.040	0.065	0.071	
27.045	0.177	0.075	
27.050	0.088	0.087	
27.055	0.039	0.094	
27.060	0.160	0.096	
27.065	0.143	0.102	
27.070	0.042	0.109	
27.075	0.124	0.108	
27.080	0.157	0.109	
27.085	0.030	0.110	
27.090	0.041	0.103	
27.095	0.117	0.091	
27.100	0.017	0.081	
27.105	-0.026	0.068	
27.110	0.068	0.050	
27.115	0.023	0.038	
27.120	-0.060	0.028	
27.125	-0.003	0.013	
27.130	0.038	0.002	
27.135	-0.064	-0.003	
27.140	-0.060	-0.012	
27.145	0.013	-0.022	
27.150	-0.052	-0.027	
27.155	-0.089	-0.033	
27.160	-0.009	-0.040	
27.165	-0.034	-0.043	
27.170	-0.107	-0.045	
27.175	-0.046	-0.051	
27.180	0.003	-0.054	
27.185	-0.080	-0.051	
27.190	-0.058	-0.050	
27.195	0.030	-0.048	
27.200	-0.028	-0.039	
27.205	-0.040	-0.031	
27.210	0.088	-0.022	
27.215	0.061	-0.004	
27.220	-0.049	0.013	
27.225	-0.003	0.017	
27.230	0.012	0.014	
27.235	-0.098	0.006	
27.240	-0.098	-0.012	
27.245	-0.048	-0.034	
27.250	-0.122	-0.053	
27.255	-0.158	-0.074	
27.260	-0.089	-0.095	
27.265	-0.104	-0.108	
27.270	-0.170	-0.116	
27.275	-0.116	-0.124	
27.280	-0.083	-0.128	
27.285	-0.155	-0.126	
27.290	-0.130	-0.126	
27.295	-0.052	-0.124	
27.300	-0.097	-0.116	
27.305	-0.112	-0.107	
27.310	-0.005	-0.098	
27.315	0.009	-0.080	
27.320	-0.035	-0.058	
27.325	0.021	-0.038	
27.330	0.003	-0.021	
27.335	-0.142	-0.014	
27.340	-0.155	-0.028	
27.345	-0.097	-0.055	
27.350	-0.141	-0.081	
27.355	-0.141	-0.102	
27.360	-0.051	-0.116	
27.365	-0.058	-0.115	
27.370	-0.115	-0.106	
27.375	-0.051	-0.098	
27.380	-0.006	-0.086	
27.385	-0.083	-0.071	
27.390	-0.049	-0.061	
27.395	0.055	-0.050	
27.400	-0.016	-0.034	
27.405	-0.035	-0.020	
27.410	0.061	-0.011	
27.415	0.030	0.001	
27.420	-0.051	0.010	
27.425	0.021	0.010	
27.430	0.068	0.011	
27.435	-0.028	0.016	
27.440	0.003	0.016	
27.445	0.122	0.017	
27.450	0.036	0.028	
27.455	0.001	0.037	
27.460	0.125	0.042	
27.465	0.113	0.054	
27.470	0.012	0.066	
27.475	0.090	0.071	
27.480	0.131	0.075	
27.485	0.012	0.080	
27.490	0.018	0.075	
27.495	0.101	0.066	
27.500	0.006	0.060	
27.505	-0.043	0.049	
27.510	0.030	0.032	
27.515	-0.006	0.019	
27.520	-0.086	0.005	
27.525	-0.032	-0.012	
27.530	-0.009	-0.026	
27.535	-0.093	-0.034	
27.540	-0.083	-0.045	
27.545	-0.013	-0.055	
27.550	-0.068	-0.057	
27.555	-0.095	-0.059	
27.560	-0.019	-0.062	
27.565	-0.042	-0.060	
27.570	-0.115	-0.058	
27.575	-0.055	-0.061	
27.580	-0.020	-0.063	
27.585	-0.098	-0.061	
27.590	-0.063	-0.062	
27.595	0.018	-0.060	
27.600	-0.051	-0.052	
27.605	-0.084	-0.046	
27.610	0.009	-0.044	
27.615	0.017	-0.038	
27.620	-0.038	-0.027	
27.625	0.053	-0.017	
27.630	0.090	-0.002	
27.635	-0.037	0.015	
27.640	-0.034	0.020	
27.645	0.026	0.015	
27.650	-0.060	0.008	
27.655	-0.106	-0.006	
27.660	-0.052	-0.027	
27.665	-0.072	-0.045	
