Vernier Format 2
ecg2.txt 10/19/2025 10:8:12
Run 1
Time	Potential	EKG	
T	P	E	
s	mV	mV	

0.000	-0.122	-0.006	
0.005	-0.029	-0.020	
0.010	-0.203	-0.041	
0.015	-0.130	-0.070	
0.020	0.065	-0.090	
0.025	-0.150	-0.090	
0.030	-0.223	-0.094	
0.035	-0.040	-0.109	
0.040	-0.109	-0.114	
0.045	-0.262	-0.120	
0.050	-0.130	-0.136	
0.055	-0.081	-0.147	
0.060	-0.269	-0.151	
0.065	-0.232	-0.164	
0.070	-0.078	-0.178	
0.075	-0.229	-0.180	
0.080	-0.278	-0.186	
0.085	-0.087	-0.195	
0.090	-0.133	-0.190	
0.095	-0.257	-0.181	
0.100	-0.104	-0.178	
0.105	-0.020	-0.166	
0.110	-0.202	-0.145	
0.115	-0.116	-0.133	
0.120	0.125	-0.117	
0.125	-0.106	-0.086	
0.130	-0.184	-0.068	
0.135	-0.025	-0.069	
0.140	-0.130	-0.074	
0.145	-0.271	-0.088	
0.150	-0.129	-0.116	
0.155	-0.042	-0.134	
0.160	-0.223	-0.139	
0.165	-0.152	-0.145	
0.170	0.053	-0.143	
0.175	-0.118	-0.123	
0.180	-0.161	-0.107	
0.185	0.091	-0.095	
0.190	0.000	-0.070	
0.195	-0.161	-0.049	
0.200	0.013	-0.043	
0.205	0.136	-0.033	
0.210	-0.119	-0.014	
0.215	-0.064	-0.009	
0.220	0.191	-0.008	
0.225	-0.035	0.007	
0.230	-0.106	0.014	
0.235	0.178	0.011	
0.240	0.099	0.024	
0.245	-0.087	0.039	
0.250	0.137	0.042	
0.255	0.255	0.057	
0.260	-0.026	0.082	
0.265	0.038	0.090	
0.270	0.267	0.092	
0.275	0.033	0.104	
0.280	-0.042	0.104	
0.285	0.273	0.095	
0.290	0.185	0.105	
0.295	-0.043	0.118	
0.300	0.183	0.116	
0.305	0.281	0.121	
0.310	-0.040	0.134	
0.315	0.021	0.126	
0.320	0.250	0.110	
0.325	0.007	0.107	
0.330	-0.064	0.094	
0.335	0.220	0.076	
0.340	0.145	0.076	
0.345	-0.063	0.083	
0.350	0.149	0.079	
0.355	0.269	0.086	
0.360	-0.017	0.104	
0.365	0.062	0.108	
0.370	0.318	0.109	
0.375	0.081	0.126	
0.380	0.020	0.134	
0.385	0.382	0.136	
0.390	0.310	0.162	
0.395	0.044	0.194	
0.400	0.281	0.205	
0.405	0.376	0.218	
0.410	0.029	0.233	
0.415	0.027	0.218	
0.420	0.269	0.187	
0.425	0.015	0.164	
0.430	-0.075	0.133	
0.435	0.177	0.095	
0.440	0.073	0.075	
0.445	-0.121	0.061	
0.450	0.042	0.037	
0.455	0.162	0.024	
0.460	-0.080	0.026	
0.465	-0.035	0.021	
0.470	0.230	0.018	
0.475	0.020	0.034	
0.480	-0.028	0.047	
0.485	0.316	0.057	
0.490	0.314	0.094	
0.495	0.114	0.144	
0.500	0.327	0.182	
0.505	0.395	0.221	
0.510	-0.016	0.250	
0.515	-0.009	0.234	
0.520	0.232	0.193	
0.525	0.021	0.159	
0.530	-0.032	0.124	
0.535	0.325	0.097	
0.540	0.275	0.107	
0.545	0.052	0.135	
0.550	0.316	0.156	
0.555	0.447	0.189	
0.560	0.120	0.232	
0.565	0.194	0.251	
0.570	0.479	0.260	
0.575	0.238	0.280	
0.580	0.146	0.289	
0.585	0.469	0.287	
0.590	0.386	0.300	
0.595	0.160	0.316	
0.600	0.420	0.318	
0.605	0.565	0.332	
0.610	0.223	0.359	
0.615	0.255	0.365	
0.620	0.547	0.359	
0.625	0.308	0.367	
0.630	0.215	0.366	
0.635	0.534	0.357	
0.640	0.473	0.368	
0.645	0.230	0.384	
0.650	0.478	0.386	
0.655	0.599	0.399	
0.660	0.261	0.420	
0.665	0.325	0.420	
0.670	0.574	0.411	
0.675	0.324	0.414	
0.680	0.203	0.404	
0.685	0.501	0.382	
0.690	0.417	0.375	
0.695	0.099	0.369	
0.700	0.278	0.339	
0.705	0.397	0.310	
0.710	0.075	0.292	
0.715	0.145	0.261	
0.720	0.412	0.233	
0.725	0.171	0.229	
0.730	0.094	0.224	
0.735	0.426	0.216	
0.740	0.339	0.232	
0.745	0.052	0.250	
0.750	0.301	0.247	
0.755	0.458	0.251	
0.760	0.160	0.271	
0.765	0.244	0.277	
0.770	0.490	0.282	
0.775	0.221	0.299	
0.780	0.093	0.299	
0.785	0.371	0.280	
0.790	0.250	0.269	
0.795	-0.022	0.253	
0.800	0.171	0.216	
0.805	0.264	0.185	
0.810	-0.032	0.166	
0.815	0.020	0.136	
0.820	0.258	0.109	
0.825	0.041	0.102	
0.830	-0.026	0.094	
0.835	0.261	0.084	
0.840	0.171	0.095	
0.845	-0.046	0.108	
0.850	0.163	0.106	
0.855	0.272	0.111	
0.860	-0.005	0.125	
0.865	0.107	0.126	
0.870	0.385	0.131	
0.875	0.137	0.155	
0.880	-0.005	0.169	
0.885	0.255	0.162	
0.890	0.119	0.158	
0.895	-0.107	0.144	
0.900	0.061	0.109	
0.905	0.151	0.080	
0.910	-0.080	0.063	
0.915	-0.016	0.043	
0.920	0.235	0.030	
0.925	0.026	0.041	
0.930	-0.042	0.050	
0.935	0.236	0.053	
0.940	0.145	0.072	
0.945	-0.054	0.089	
0.950	0.160	0.091	
0.955	0.310	0.101	
0.960	0.003	0.124	
0.965	0.050	0.129	
0.970	0.299	0.126	
0.975	0.053	0.134	
0.980	-0.017	0.131	
0.985	0.269	0.119	
0.990	0.186	0.123	
0.995	-0.043	0.130	
1.000	0.188	0.123	
1.005	0.328	0.127	
1.010	0.020	0.146	
1.015	0.090	0.149	
1.020	0.350	0.148	
1.025	0.102	0.162	
1.030	0.017	0.165	
1.035	0.311	0.157	
1.040	0.243	0.164	
1.045	0.003	0.175	
1.050	0.217	0.169	
1.055	0.319	0.170	
1.060	-0.023	0.177	
1.065	0.033	0.162	
1.070	0.278	0.140	
1.075	0.033	0.132	
1.080	-0.045	0.117	
1.085	0.246	0.097	
1.090	0.157	0.097	
1.095	-0.055	0.103	
1.100	0.142	0.095	
1.105	0.244	0.096	
1.110	-0.031	0.106	
1.115	0.032	0.101	
1.120	0.285	0.095	
1.125	0.033	0.104	
1.130	-0.028	0.104	
1.135	0.285	0.097	
1.140	0.214	0.110	
1.145	-0.040	0.128	
1.150	0.142	0.125	
1.155	0.206	0.122	
1.160	-0.095	0.119	
1.165	-0.074	0.093	
1.170	0.076	0.055	
1.175	-0.126	0.024	
1.180	-0.188	-0.012	
1.185	-0.023	-0.052	
1.190	-0.121	-0.078	
1.195	-0.263	-0.101	
1.200	-0.138	-0.130	
1.205	-0.109	-0.150	
1.210	-0.268	-0.161	
1.215	-0.202	-0.176	
1.220	-0.063	-0.184	
1.225	-0.205	-0.179	
1.230	-0.229	-0.176	
1.235	-0.040	-0.174	
1.240	-0.092	-0.160	
1.245	-0.196	-0.143	
1.250	-0.031	-0.132	
1.255	0.027	-0.113	
1.260	-0.170	-0.089	
1.265	-0.129	-0.081	
1.270	0.017	-0.082	
1.275	-0.152	-0.078	
1.280	-0.177	-0.083	
1.285	0.020	-0.093	
1.290	-0.049	-0.089	
1.295	-0.182	-0.083	
1.300	-0.026	-0.085	
1.305	0.035	-0.079	
1.310	-0.158	-0.067	
1.315	-0.077	-0.065	
1.320	0.137	-0.060	
1.325	-0.055	-0.040	
1.330	-0.100	-0.026	
1.335	0.165	-0.019	
1.340	0.068	0.002	
1.345	-0.084	0.022	
1.350	0.131	0.029	
1.355	0.227	0.046	
1.360	-0.060	0.070	
1.365	0.032	0.075	
1.370	0.281	0.077	
1.375	0.013	0.092	
1.380	-0.029	0.095	
1.385	0.290	0.090	
1.390	0.181	0.105	
1.395	-0.031	0.122	
1.400	0.217	0.123	
1.405	0.273	0.132	
1.410	-0.025	0.146	
1.415	0.090	0.141	
1.420	0.324	0.134	
1.425	0.044	0.142	
1.430	-0.005	0.139	
1.435	0.304	0.127	
1.440	0.172	0.133	
1.445	-0.035	0.140	
1.450	0.194	0.131	
1.455	0.266	0.131	
1.460	-0.035	0.139	
1.465	0.059	0.129	
1.470	0.292	0.117	
1.475	0.007	0.120	
1.480	-0.049	0.111	
1.485	0.241	0.093	
1.490	0.105	0.092	
1.495	-0.090	0.091	
1.500	0.149	0.077	
1.505	0.278	0.079	
1.510	-0.025	0.096	
1.515	0.062	0.100	
1.520	0.313	0.103	
1.525	0.010	0.118	
1.530	-0.055	0.116	
1.535	0.230	0.100	
1.540	0.073	0.095	
1.545	-0.113	0.088	
1.550	0.056	0.063	
1.555	0.105	0.045	
1.560	-0.119	0.034	
1.565	-0.042	0.014	
1.570	0.152	-0.000	
1.575	-0.089	0.001	
1.580	-0.127	-0.006	
1.585	0.093	-0.020	
1.590	0.010	-0.020	
1.595	-0.121	-0.016	
1.600	0.076	-0.019	
1.605	0.166	-0.007	
1.610	-0.075	0.015	
1.615	0.033	0.025	
1.620	0.282	0.039	
1.625	-0.003	0.065	
1.630	-0.055	0.077	
1.635	0.188	0.071	
1.640	0.039	0.072	
1.645	-0.135	0.065	
1.650	0.021	0.040	
1.655	0.096	0.021	
1.660	-0.121	0.012	
1.665	-0.040	-0.004	
1.670	0.156	-0.013	
1.675	-0.038	-0.004	
1.680	-0.057	0.002	
1.685	0.275	0.010	
1.690	0.156	0.042	
1.695	-0.051	0.075	
1.700	0.172	0.088	
1.705	0.246	0.103	
1.710	-0.043	0.120	
1.715	0.027	0.115	
1.720	0.240	0.103	
1.725	-0.026	0.100	
1.730	-0.090	0.085	
1.735	0.160	0.059	
1.740	0.038	0.048	
1.745	-0.113	0.040	
1.750	0.085	0.023	
1.755	0.149	0.020	
1.760	-0.095	0.029	
1.765	-0.016	0.025	
1.770	0.208	0.022	
1.775	-0.061	0.032	
1.780	-0.106	0.030	
1.785	0.139	0.018	
1.790	0.020	0.017	
1.795	-0.148	0.015	
1.800	-0.035	-0.003	
1.805	-0.013	-0.022	
1.810	-0.203	-0.040	
1.815	-0.147	-0.067	
1.820	0.013	-0.091	
1.825	-0.164	-0.098	
1.830	-0.200	-0.108	
1.835	0.013	-0.118	
1.840	-0.074	-0.113	
1.845	-0.199	-0.105	
1.850	-0.019	-0.104	
1.855	0.056	-0.093	
1.860	-0.156	-0.073	
1.865	-0.092	-0.066	
1.870	0.075	-0.062	
1.875	-0.103	-0.051	
1.880	-0.135	-0.049	
1.885	0.113	-0.050	
1.890	0.000	-0.038	
1.895	-0.167	-0.027	
1.900	-0.016	-0.033	
1.905	0.049	-0.037	
1.910	-0.173	-0.036	
1.915	-0.119	-0.048	
1.920	0.020	-0.063	
1.925	-0.179	-0.071	
1.930	-0.228	-0.088	
1.935	-0.058	-0.112	
1.940	-0.113	-0.124	
1.945	-0.248	-0.132	
1.950	-0.093	-0.144	
1.955	-0.045	-0.145	
1.960	-0.225	-0.138	
1.965	-0.147	-0.138	
1.970	0.010	-0.137	
1.975	-0.179	-0.125	
1.980	-0.208	-0.121	
1.985	0.032	-0.123	
1.990	-0.022	-0.109	
1.995	-0.173	-0.091	
2.000	-0.048	-0.084	
2.005	-0.029	-0.079	
2.010	-0.245	-0.078	
2.015	-0.193	-0.096	
2.020	-0.051	-0.119	
2.025	-0.197	-0.130	
2.030	-0.219	-0.143	
2.035	-0.025	-0.153	
2.040	-0.078	-0.146	
2.045	-0.208	-0.133	
2.050	-0.045	-0.127	
2.055	0.018	-0.114	
2.060	-0.181	-0.095	
2.065	-0.109	-0.089	
2.070	0.061	-0.085	
2.075	-0.122	-0.073	
2.080	-0.152	-0.069	
2.085	0.058	-0.071	
2.090	-0.042	-0.062	
2.095	-0.187	-0.057	
2.100	-0.008	-0.063	
2.105	0.059	-0.061	
2.110	-0.161	-0.051	
2.115	-0.100	-0.053	
2.120	0.088	-0.057	
2.125	-0.113	-0.050	
2.130	-0.155	-0.051	
2.135	0.064	-0.059	
2.140	-0.029	-0.054	
2.145	-0.170	-0.049	
2.150	-0.020	-0.056	
2.155	0.035	-0.057	
2.160	-0.181	-0.053	
2.165	-0.116	-0.062	
2.170	0.076	-0.070	
2.175	-0.126	-0.065	
2.180	-0.176	-0.067	
2.185	0.012	-0.077	
2.190	-0.072	-0.078	
2.195	-0.210	-0.080	
2.200	-0.061	-0.092	
2.205	0.000	-0.096	
2.210	-0.203	-0.092	
2.215	-0.130	-0.098	
2.220	0.030	-0.103	
2.225	-0.153	-0.097	
2.230	-0.187	-0.097	
2.235	0.035	-0.102	
2.240	-0.057	-0.094	
2.245	-0.202	-0.085	
2.250	-0.035	-0.088	
2.255	0.079	-0.082	
2.260	-0.122	-0.064	
2.265	-0.037	-0.053	
2.270	0.174	-0.039	
2.275	-0.080	-0.014	
2.280	-0.136	-0.005	
2.285	0.053	-0.013	
2.290	-0.064	-0.019	
2.295	-0.231	-0.033	
2.300	-0.092	-0.062	
2.305	-0.037	-0.086	
2.310	-0.217	-0.099	
2.315	-0.164	-0.117	
2.320	0.006	-0.129	
2.325	-0.168	-0.126	
2.330	-0.223	-0.127	
2.335	-0.013	-0.133	
2.340	-0.063	-0.125	
2.345	-0.197	-0.114	
2.350	-0.032	-0.110	
2.355	0.058	-0.097	
2.360	-0.130	-0.075	
2.365	-0.014	-0.060	
2.370	0.238	-0.038	
2.375	-0.060	-0.002	
2.380	-0.161	0.014	
2.385	0.000	0.002	
2.390	-0.113	-0.017	
2.395	-0.252	-0.045	
2.400	-0.092	-0.084	
2.405	-0.017	-0.108	
2.410	-0.199	-0.115	
2.415	-0.124	-0.122	
2.420	0.085	-0.120	
2.425	-0.103	-0.099	
2.430	-0.141	-0.083	
2.435	0.101	-0.072	
2.440	0.006	-0.051	
2.445	-0.150	-0.033	
2.450	0.033	-0.030	
2.455	0.124	-0.021	
2.460	-0.113	-0.005	
2.465	-0.026	-0.002	
2.470	0.201	0.001	
2.475	-0.057	0.017	
2.480	-0.097	0.022	
2.485	0.191	0.017	
2.490	0.084	0.029	
2.495	-0.095	0.041	
2.500	0.120	0.040	
2.505	0.218	0.049	
2.510	-0.063	0.067	
2.515	0.029	0.069	
2.520	0.267	0.070	
2.525	-0.017	0.082	
2.530	-0.069	0.081	
2.535	0.232	0.069	
2.540	0.131	0.074	
2.545	-0.084	0.082	
2.550	0.119	0.075	
2.555	0.163	0.072	
2.560	-0.129	0.072	
2.565	-0.071	0.051	
2.570	0.152	0.026	
2.575	-0.083	0.016	
2.580	-0.130	0.001	
2.585	0.113	-0.017	
2.590	0.003	-0.018	
2.595	-0.152	-0.017	
2.600	0.046	-0.025	
2.605	0.139	-0.021	
2.610	-0.097	-0.004	
2.615	-0.023	0.001	
2.620	0.185	0.005	
2.625	-0.064	0.019	
2.630	-0.092	0.021	
2.635	0.224	0.017	
2.640	0.120	0.034	
2.645	-0.077	0.054	
2.650	0.142	0.059	
2.655	0.188	0.068	
2.660	-0.097	0.080	
2.665	-0.040	0.069	
2.670	0.156	0.050	
2.675	-0.101	0.039	
2.680	-0.159	0.017	
2.685	0.055	-0.014	
2.690	-0.043	-0.031	
2.695	-0.194	-0.044	
2.700	-0.035	-0.064	
2.705	0.018	-0.073	
2.710	-0.177	-0.072	
2.715	-0.104	-0.079	
2.720	0.082	-0.082	
2.725	-0.119	-0.071	
2.730	-0.132	-0.066	
2.735	0.130	-0.063	
2.740	0.052	-0.041	
2.745	-0.087	-0.017	
2.750	0.152	0.000	
2.755	0.230	0.029	
2.760	-0.090	0.062	
2.765	-0.057	0.066	
2.770	0.105	0.052	
2.775	-0.124	0.036	
2.780	-0.171	0.008	
2.785	0.049	-0.027	
2.790	-0.031	-0.044	
2.795	-0.162	-0.052	
2.800	0.012	-0.063	
2.805	0.094	-0.058	
2.810	-0.116	-0.041	
2.815	-0.019	-0.033	
2.820	0.226	-0.019	
2.825	-0.017	0.010	
2.830	-0.046	0.030	
2.835	0.285	0.042	
2.840	0.146	0.071	
2.845	-0.058	0.096	
2.850	0.198	0.101	
2.855	0.287	0.114	
2.860	-0.022	0.134	
2.865	0.097	0.135	
2.870	0.353	0.134	
2.875	0.058	0.149	
2.880	-0.013	0.150	
2.885	0.282	0.137	
2.890	0.142	0.138	
2.895	-0.066	0.135	
2.900	0.180	0.118	
2.905	0.244	0.113	
2.910	-0.063	0.117	
2.915	0.038	0.105	
2.920	0.281	0.093	
2.925	-0.026	0.097	
2.930	-0.103	0.086	
2.935	0.130	0.061	
2.940	0.000	0.044	
2.945	-0.148	0.027	
2.950	0.046	0.002	
2.955	0.148	-0.007	
2.960	-0.104	0.001	
2.965	-0.042	0.000	
2.970	0.165	-0.001	
2.975	-0.069	0.008	
2.980	-0.098	0.008	
2.985	0.172	0.002	
2.990	0.035	0.012	
2.995	-0.101	0.021	
3.000	0.149	0.021	
3.005	0.226	0.036	
3.010	-0.029	0.064	
3.015	0.088	0.077	
3.020	0.343	0.092	
3.025	0.030	0.120	
3.030	-0.026	0.129	
3.035	0.256	0.120	
3.040	0.104	0.121	
3.045	-0.104	0.116	
3.050	0.101	0.091	
3.055	0.136	0.073	
3.060	-0.121	0.063	
3.065	-0.023	0.040	
3.070	0.191	0.022	
3.075	-0.077	0.023	
3.080	-0.112	0.015	
3.085	0.163	0.002	
3.090	0.013	0.006	
3.095	-0.139	0.009	
3.100	0.072	0.000	
3.105	0.134	0.002	
3.110	-0.095	0.014	
3.115	0.018	0.015	
3.120	0.269	0.023	
3.125	-0.013	0.047	
3.130	-0.060	0.059	
3.135	0.200	0.057	
3.140	0.026	0.063	
3.145	-0.142	0.059	
3.150	0.050	0.036	
3.155	0.085	0.021	
3.160	-0.142	0.013	
3.165	-0.060	-0.006	
3.170	0.117	-0.020	
3.175	-0.109	-0.021	
3.180	-0.106	-0.026	
3.185	0.181	-0.031	
3.190	0.061	-0.013	
3.195	-0.092	0.008	
3.200	0.172	0.019	
3.205	0.226	0.043	
3.210	-0.054	0.073	
3.215	0.079	0.084	
3.220	0.321	0.093	
3.225	-0.002	0.114	
3.230	-0.029	0.116	
3.235	0.299	0.107	
3.240	0.136	0.115	
3.245	-0.038	0.122	
3.250	0.258	0.118	
3.255	0.302	0.130	
3.260	0.007	0.152	
3.265	0.197	0.159	
3.270	0.463	0.172	
3.275	0.139	0.205	
3.280	0.093	0.222	
3.285	0.450	0.225	
3.290	0.279	0.244	
3.295	0.068	0.258	
3.300	0.357	0.253	
3.305	0.380	0.257	
3.310	0.041	0.265	
3.315	0.209	0.251	
3.320	0.435	0.239	
3.325	0.081	0.243	
3.330	0.050	0.230	
3.335	0.398	0.207	
3.340	0.204	0.207	
3.345	0.006	0.206	
3.350	0.296	0.191	
3.355	0.345	0.192	
3.360	0.015	0.203	
3.365	0.159	0.196	
3.370	0.397	0.190	
3.375	0.087	0.200	
3.380	0.075	0.197	
3.385	0.444	0.191	
3.390	0.285	0.211	
3.395	0.061	0.231	
3.400	0.347	0.233	
3.405	0.382	0.243	
3.410	0.020	0.256	
3.415	0.157	0.241	
3.420	0.350	0.221	
3.425	0.020	0.211	
3.430	-0.028	0.184	
3.435	0.264	0.147	
3.440	0.059	0.127	
3.445	-0.106	0.107	
3.450	0.143	0.077	
3.455	0.183	0.065	
3.460	-0.101	0.066	
3.465	-0.006	0.053	
3.470	0.191	0.040	
3.475	-0.077	0.040	
3.480	-0.081	0.031	
3.485	0.218	0.020	
3.490	0.059	0.030	
3.495	-0.078	0.041	
3.500	0.194	0.043	
3.505	0.211	0.061	
3.510	-0.100	0.082	
3.515	-0.016	0.077	
3.520	0.172	0.062	
3.525	-0.075	0.055	
3.530	-0.101	0.038	
3.535	0.152	0.017	
3.540	-0.022	0.012	
3.545	-0.144	0.005	
3.550	0.101	-0.008	
3.555	0.169	-0.003	
3.560	-0.087	0.016	
3.565	0.067	0.026	
3.570	0.313	0.042	
3.575	-0.002	0.074	
3.580	-0.026	0.090	
3.585	0.287	0.091	
3.590	0.105	0.105	
3.595	-0.075	0.112	
3.600	0.148	0.100	
3.605	0.212	0.095	
3.610	-0.061	0.099	
3.615	0.064	0.090	
3.620	0.281	0.084	
3.625	-0.022	0.094	
3.630	-0.045	0.091	
3.635	0.272	0.079	
3.640	0.093	0.087	
3.645	-0.090	0.091	
3.650	0.131	0.078	
3.655	0.178	0.074	
3.660	-0.100	0.076	
3.665	-0.019	0.061	
3.670	0.175	0.044	
3.675	-0.103	0.039	
3.680	-0.132	0.021	
3.685	0.096	-0.004	
3.690	-0.052	-0.015	
3.695	-0.190	-0.027	
3.700	-0.014	-0.048	
3.705	0.000	-0.060	
3.710	-0.208	-0.065	
3.715	-0.141	-0.081	
3.720	-0.013	-0.097	
3.725	-0.202	-0.104	
3.730	-0.223	-0.118	
3.735	-0.026	-0.134	
3.740	-0.130	-0.136	
3.745	-0.246	-0.136	
3.750	-0.074	-0.144	
3.755	-0.026	-0.140	
3.760	-0.210	-0.128	
3.765	-0.121	-0.124	
3.770	0.030	-0.119	
3.775	-0.185	-0.106	
3.780	-0.203	-0.105	
3.785	-0.025	-0.114	
3.790	-0.148	-0.115	
3.795	-0.295	-0.123	
3.800	-0.138	-0.145	
3.805	-0.118	-0.161	
3.810	-0.303	-0.170	
3.815	-0.234	-0.187	
3.820	-0.113	-0.202	
3.825	-0.284	-0.206	
3.830	-0.292	-0.215	
3.835	-0.107	-0.225	
3.840	-0.203	-0.221	
3.845	-0.315	-0.217	
3.850	-0.148	-0.220	
3.855	-0.113	-0.214	
3.860	-0.275	-0.202	
3.865	-0.170	-0.197	
3.870	-0.016	-0.187	
3.875	-0.188	-0.166	
3.880	-0.226	-0.153	
3.885	-0.072	-0.152	
3.890	-0.213	-0.150	
3.895	-0.346	-0.160	
3.900	-0.194	-0.186	
3.905	-0.155	-0.206	
3.910	-0.318	-0.215	
3.915	-0.217	-0.227	
3.920	-0.069	-0.228	
3.925	-0.236	-0.214	
3.930	-0.249	-0.204	
3.935	-0.074	-0.199	
3.940	-0.174	-0.186	
3.945	-0.284	-0.178	
3.950	-0.107	-0.180	
3.955	-0.077	-0.175	
3.960	-0.260	-0.164	
3.965	-0.179	-0.164	
3.970	-0.054	-0.165	
3.975	-0.242	-0.159	
3.980	-0.265	-0.164	
3.985	-0.069	-0.175	
3.990	-0.158	-0.174	
3.995	-0.265	-0.171	
4.000	-0.087	-0.174	
4.005	-0.069	-0.167	
4.010	-0.254	-0.154	
4.015	-0.167	-0.154	
4.020	-0.032	-0.154	
4.025	-0.210	-0.146	
4.030	-0.226	-0.147	
4.035	-0.043	-0.152	
4.040	-0.145	-0.148	
4.045	-0.278	-0.147	
4.050	-0.115	-0.157	
4.055	-0.092	-0.161	
4.060	-0.269	-0.159	
4.065	-0.188	-0.167	
4.070	-0.054	-0.172	
4.075	-0.229	-0.167	
4.080	-0.258	-0.169	
4.085	-0.081	-0.177	
4.090	-0.182	-0.176	
4.095	-0.297	-0.178	
4.100	-0.126	-0.187	
4.105	-0.095	-0.187	
4.110	-0.260	-0.179	
4.115	-0.170	-0.178	
4.120	-0.025	-0.174	
4.125	-0.211	-0.159	
4.130	-0.239	-0.154	
4.135	-0.019	-0.156	
4.140	-0.104	-0.146	
4.145	-0.203	-0.134	
4.150	-0.005	-0.127	
4.155	0.012	-0.109	
4.160	-0.199	-0.089	
4.165	-0.124	-0.086	
4.170	0.012	-0.089	
4.175	-0.208	-0.088	
4.180	-0.252	-0.102	
4.185	-0.072	-0.126	
4.190	-0.170	-0.141	
4.195	-0.292	-0.154	
4.200	-0.126	-0.173	
4.205	-0.097	-0.180	
4.210	-0.263	-0.177	
4.215	-0.170	-0.179	
4.220	-0.025	-0.176	
4.225	-0.216	-0.162	
4.230	-0.225	-0.157	
4.235	0.004	-0.156	
4.240	-0.087	-0.141	
4.245	-0.173	-0.123	
4.250	0.087	-0.108	
4.255	0.122	-0.074	
4.260	-0.165	-0.037	
4.265	-0.133	-0.027	
4.270	-0.034	-0.039	
4.275	-0.239	-0.058	
4.280	-0.254	-0.092	
4.285	-0.048	-0.128	
4.290	-0.118	-0.144	
4.295	-0.220	-0.148	
4.300	-0.008	-0.149	
4.305	0.050	-0.131	
4.310	-0.162	-0.101	
4.315	-0.051	-0.082	
4.320	0.168	-0.063	
4.325	-0.083	-0.032	
4.330	-0.116	-0.016	
4.335	0.169	-0.012	
4.340	0.010	0.003	
4.345	-0.126	0.012	
4.350	0.130	0.010	
4.355	0.181	0.021	
4.360	-0.100	0.041	
4.365	0.024	0.044	
4.370	0.263	0.047	
4.375	-0.048	0.063	
4.380	-0.057	0.064	
4.385	0.301	0.059	
4.390	0.165	0.079	
4.395	-0.042	0.101	
4.400	0.249	0.108	
4.405	0.372	0.130	
4.410	0.105	0.168	
4.415	0.282	0.195	
4.420	0.508	0.227	
4.425	0.136	0.267	
4.430	0.036	0.275	
4.435	0.327	0.253	
4.440	0.111	0.232	
4.445	-0.107	0.200	
4.450	0.110	0.147	
4.455	0.114	0.105	
4.460	-0.136	0.074	
4.465	-0.043	0.036	
4.470	0.168	0.008	
4.475	-0.106	0.001	
4.480	-0.130	-0.010	
4.485	0.169	-0.023	
4.490	0.024	-0.014	
4.495	-0.121	-0.003	
4.500	0.131	-0.001	
4.505	0.180	0.015	
4.510	-0.100	0.038	
4.515	0.039	0.044	
4.520	0.325	0.052	
4.525	0.012	0.079	
4.530	-0.025	0.093	
4.535	0.278	0.093	
4.540	0.097	0.105	
4.545	-0.104	0.109	
4.550	0.101	0.090	
4.555	0.094	0.073	
4.560	-0.156	0.057	
4.565	-0.080	0.025	
4.570	0.094	-0.005	
4.575	-0.132	-0.020	
4.580	-0.159	-0.039	
4.585	0.070	-0.059	
4.590	-0.054	-0.061	
4.595	-0.181	-0.061	
4.600	0.035	-0.067	
4.605	0.068	-0.060	
4.610	-0.150	-0.044	
4.615	-0.037	-0.041	
4.620	0.215	-0.032	
4.625	-0.017	-0.004	
4.630	-0.023	0.017	
4.635	0.275	0.035	
4.640	0.073	0.064	
4.645	-0.121	0.081	
4.650	0.029	0.068	
4.655	0.036	0.047	
4.660	-0.170	0.026	
4.665	-0.060	-0.007	
4.670	0.172	-0.027	
4.675	-0.060	-0.021	
4.680	-0.066	-0.015	
4.685	0.235	-0.007	
4.690	0.055	0.019	
4.695	-0.095	0.040	
4.700	0.197	0.046	
4.705	0.244	0.065	
4.710	-0.038	0.093	
4.715	0.093	0.101	
4.720	0.340	0.109	
4.725	0.033	0.130	
4.730	0.017	0.136	
4.735	0.351	0.133	
4.740	0.183	0.149	
4.745	-0.017	0.161	
4.750	0.259	0.156	
4.755	0.299	0.162	
4.760	-0.011	0.174	
4.765	0.151	0.168	
4.770	0.379	0.164	
4.775	0.065	0.177	
4.780	0.010	0.175	
4.785	0.327	0.161	
4.790	0.131	0.161	
4.795	-0.083	0.154	
4.800	0.172	0.129	
4.805	0.183	0.113	
4.810	-0.090	0.105	
4.815	0.020	0.083	
4.820	0.212	0.064	
4.825	-0.055	0.061	
4.830	-0.064	0.050	
4.835	0.244	0.038	
4.840	0.055	0.047	
4.845	-0.087	0.055	
4.850	0.160	0.051	
4.855	0.185	0.059	
4.860	-0.087	0.072	
4.865	0.038	0.067	
4.870	0.229	0.063	
4.875	-0.086	0.068	
4.880	-0.127	0.055	
4.885	0.130	0.028	
4.890	-0.019	0.015	
4.895	-0.115	0.005	
4.900	0.201	-0.003	
4.905	0.236	0.018	
4.910	-0.042	0.054	
4.915	0.119	0.074	
4.920	0.360	0.096	
4.925	-0.014	0.127	
4.930	-0.052	0.132	
4.935	0.236	0.115	
4.940	0.041	0.107	
4.945	-0.103	0.093	
4.950	0.142	0.068	
4.955	0.168	0.059	
4.960	-0.101	0.061	
4.965	0.026	0.051	
4.970	0.230	0.044	
4.975	-0.078	0.052	
4.980	-0.110	0.044	
4.985	0.157	0.026	
4.990	-0.013	0.021	
4.995	-0.124	0.015	
5.000	0.134	0.003	
5.005	0.175	0.012	
5.010	-0.087	0.032	
5.015	0.049	0.039	
5.020	0.255	0.047	
5.025	-0.038	0.066	
5.030	-0.068	0.069	
5.035	0.208	0.059	
5.040	0.024	0.060	
5.045	-0.101	0.057	
5.050	0.152	0.044	
5.055	0.143	0.045	
5.060	-0.104	0.053	
5.065	0.055	0.047	
5.070	0.279	0.048	
5.075	-0.016	0.067	
5.080	-0.005	0.076	
5.085	0.322	0.080	
5.090	0.143	0.103	
5.095	-0.023	0.122	
5.100	0.288	0.127	
5.105	0.319	0.146	
5.110	0.020	0.172	
5.115	0.211	0.180	
5.120	0.424	0.190	
5.125	0.082	0.213	
5.130	0.072	0.215	
5.135	0.397	0.205	
5.140	0.168	0.210	
5.145	-0.032	0.206	
5.150	0.275	0.184	
5.155	0.253	0.174	
5.160	-0.031	0.172	
5.165	0.157	0.155	
5.170	0.377	0.149	
5.175	0.052	0.163	
5.180	0.046	0.164	
5.185	0.376	0.158	
5.190	0.165	0.170	
5.195	-0.023	0.176	
5.200	0.281	0.165	
5.205	0.241	0.165	
5.210	-0.106	0.165	
5.215	-0.045	0.134	
5.220	0.026	0.086	
5.225	-0.226	0.036	
5.230	-0.222	-0.025	
5.235	-0.011	-0.081	
5.240	-0.103	-0.110	
5.245	-0.167	-0.122	
5.250	0.099	-0.121	
5.255	0.149	-0.089	
5.260	-0.092	-0.043	
5.265	0.099	-0.010	
5.270	0.345	0.029	
5.275	0.052	0.082	
5.280	0.084	0.117	
5.285	0.398	0.141	
5.290	0.160	0.175	
5.295	-0.032	0.191	
5.300	0.284	0.181	
5.305	0.269	0.180	
5.310	-0.034	0.183	
5.315	0.120	0.165	
5.320	0.318	0.150	
5.325	-0.009	0.149	
5.330	0.013	0.136	
5.335	0.360	0.122	
5.340	0.171	0.134	
5.345	-0.011	0.147	
5.350	0.307	0.147	
5.355	0.311	0.163	
5.360	0.007	0.183	
5.365	0.211	0.184	
5.370	0.412	0.190	
5.375	0.082	0.209	
5.380	0.079	0.210	
5.385	0.449	0.204	
5.390	0.201	0.217	
5.395	-0.011	0.223	
5.400	0.302	0.206	
5.405	0.252	0.199	
5.410	-0.068	0.193	
5.415	0.082	0.164	
5.420	0.279	0.136	
5.425	-0.029	0.126	
5.430	-0.019	0.107	
5.435	0.305	0.089	
5.440	0.104	0.096	
5.445	-0.060	0.102	
5.450	0.241	0.097	
5.455	0.233	0.107	
5.460	-0.055	0.122	
5.465	0.091	0.117	
5.470	0.295	0.112	
5.475	-0.011	0.120	
5.480	-0.019	0.114	
5.485	0.293	0.101	
5.490	0.090	0.106	
5.495	-0.064	0.108	
5.500	0.217	0.097	
5.505	0.236	0.102	
5.510	-0.054	0.115	
5.515	0.108	0.111	
5.520	0.324	0.111	
5.525	-0.031	0.124	
5.530	-0.071	0.116	
5.535	0.140	0.090	
5.540	-0.042	0.068	
5.545	-0.155	0.040	
5.550	0.085	0.007	
5.555	0.120	-0.005	
5.560	-0.112	0.001	
5.565	0.007	-0.001	
5.570	0.157	0.001	
5.575	-0.121	0.011	
5.580	-0.129	0.004	
5.585	0.093	-0.013	
5.590	-0.066	-0.020	
5.595	-0.174	-0.029	
5.600	0.041	-0.046	
5.605	0.038	-0.048	
5.610	-0.196	-0.044	
5.615	-0.089	-0.054	
5.620	0.079	-0.063	
5.625	-0.155	-0.059	
5.630	-0.148	-0.064	
5.635	0.093	-0.071	
5.640	-0.054	-0.062	
5.645	-0.153	-0.054	
5.650	0.107	-0.052	
5.655	0.145	-0.032	
5.660	-0.107	-0.003	
5.665	0.035	0.011	
5.670	0.189	0.022	
5.675	-0.115	0.037	
5.680	-0.139	0.030	
5.685	0.079	0.006	
5.690	-0.106	-0.011	
5.695	-0.222	-0.033	
5.700	-0.017	-0.064	
5.705	-0.020	-0.081	
5.710	-0.216	-0.086	
5.715	-0.089	-0.098	
5.720	0.058	-0.101	
5.725	-0.168	-0.091	
5.730	-0.145	-0.088	
5.735	0.124	-0.086	
5.740	-0.029	-0.066	
5.745	-0.144	-0.048	
5.750	0.122	-0.039	
5.755	0.166	-0.015	
5.760	-0.092	0.016	
5.765	0.017	0.029	
5.770	0.166	0.034	
5.775	-0.145	0.040	
5.780	-0.181	0.022	
5.785	0.026	-0.014	
5.790	-0.101	-0.039	
5.795	-0.223	-0.063	
5.800	-0.006	-0.089	
5.805	0.039	-0.094	
5.810	-0.156	-0.083	
5.815	-0.032	-0.076	
5.820	0.171	-0.061	
5.825	-0.090	-0.033	
5.830	-0.080	-0.017	
5.835	0.204	-0.008	
5.840	0.012	0.014	
5.845	-0.116	0.027	
5.850	0.131	0.024	
5.855	0.140	0.032	
5.860	-0.110	0.043	
5.865	0.026	0.039	
5.870	0.223	0.037	
5.875	-0.104	0.046	
5.880	-0.158	0.035	
5.885	0.030	0.006	
5.890	-0.092	-0.019	
5.895	-0.197	-0.043	
5.900	0.020	-0.069	
5.905	0.052	-0.074	
5.910	-0.170	-0.065	
5.915	-0.068	-0.065	
5.920	0.110	-0.062	
5.925	-0.130	-0.048	
5.930	-0.132	-0.045	
5.935	0.104	-0.049	
5.940	-0.057	-0.041	
5.945	-0.173	-0.038	
5.950	0.032	-0.046	
5.955	0.050	-0.045	
5.960	-0.170	-0.038	
5.965	-0.064	-0.043	
5.970	0.124	-0.046	
5.975	-0.129	-0.037	
5.980	-0.136	-0.038	
5.985	0.117	-0.044	
5.990	-0.055	-0.037	
5.995	-0.173	-0.035	
6.000	0.065	-0.043	
6.005	0.096	-0.036	
6.010	-0.129	-0.020	
6.015	-0.014	-0.017	
6.020	0.204	-0.010	
6.025	-0.058	0.011	
6.030	-0.049	0.021	
6.035	0.236	0.026	
6.040	0.032	0.044	
6.045	-0.116	0.054	
6.050	0.097	0.044	
6.055	0.039	0.036	
6.060	-0.184	0.025	
6.065	-0.098	-0.004	
6.070	0.038	-0.034	
6.075	-0.176	-0.051	
6.080	-0.190	-0.074	
6.085	0.015	-0.096	
6.090	-0.107	-0.102	
6.095	-0.213	-0.105	
6.100	-0.014	-0.112	
6.105	0.012	-0.106	
6.110	-0.184	-0.091	
6.115	-0.063	-0.086	
6.120	0.120	-0.077	
6.125	-0.107	-0.055	
6.130	-0.077	-0.042	
6.135	0.266	-0.027	
6.140	0.090	0.010	
6.145	-0.101	0.042	
6.150	0.055	0.048	
6.155	0.009	0.042	
6.160	-0.214	0.025	
6.165	-0.161	-0.014	
6.170	-0.084	-0.060	
6.175	-0.248	-0.098	
6.180	-0.234	-0.136	
6.185	-0.066	-0.166	
6.190	-0.210	-0.176	
6.195	-0.341	-0.187	
6.200	-0.184	-0.207	
6.205	-0.167	-0.220	
6.210	-0.320	-0.224	
6.215	-0.194	-0.230	
6.220	-0.035	-0.226	
6.225	-0.199	-0.203	
6.230	-0.197	-0.184	
6.235	0.039	-0.166	
6.240	-0.045	-0.134	
6.245	-0.130	-0.102	
6.250	0.151	-0.074	
6.255	0.217	-0.029	
6.260	-0.028	0.024	
6.265	0.149	0.060	
6.270	0.414	0.098	
6.275	0.128	0.150	
6.280	0.130	0.185	
6.285	0.499	0.208	
6.290	0.324	0.249	
6.295	0.116	0.281	
6.300	0.440	0.291	
6.305	0.470	0.310	
6.310	0.125	0.331	
6.315	0.314	0.328	
6.320	0.530	0.326	
6.325	0.178	0.336	
6.330	0.125	0.326	
6.335	0.435	0.300	
6.340	0.226	0.289	
6.345	0.020	0.272	
6.350	0.314	0.240	
6.355	0.313	0.224	
6.360	-0.014	0.218	
6.365	0.140	0.194	
6.370	0.366	0.176	
6.375	0.044	0.177	
6.380	0.032	0.167	
6.385	0.369	0.153	
6.390	0.177	0.162	
6.395	-0.023	0.169	
6.400	0.290	0.160	
6.405	0.366	0.169	
6.410	0.061	0.192	
6.415	0.233	0.201	
6.420	0.452	0.214	
6.425	0.085	0.237	
6.430	0.012	0.234	
6.435	0.302	0.208	
6.440	0.085	0.190	
6.445	-0.113	0.162	
6.450	0.096	0.116	
6.455	0.114	0.081	
6.460	-0.129	0.058	
6.465	-0.020	0.029	
6.470	0.169	0.009	
6.475	-0.090	0.008	
6.480	-0.097	0.001	
6.485	0.177	-0.007	
6.490	-0.002	0.002	
6.495	-0.124	0.008	
6.500	0.127	0.004	
6.505	0.177	0.015	
6.510	-0.063	0.037	
6.515	0.122	0.049	
6.520	0.389	0.072	
6.525	0.017	0.113	
6.530	-0.052	0.129	
6.535	0.194	0.118	
6.540	-0.017	0.105	
6.545	-0.168	0.079	
6.550	0.029	0.037	
6.555	0.068	0.007	
6.560	-0.142	-0.008	
6.565	-0.016	-0.024	
6.570	0.191	-0.027	
6.575	-0.072	-0.010	
6.580	-0.084	-0.001	
6.585	0.226	0.002	
6.590	0.050	0.023	
6.595	-0.086	0.040	
6.600	0.183	0.044	
6.605	0.204	0.060	
6.610	-0.077	0.081	
6.615	0.062	0.081	
6.620	0.282	0.082	
6.625	-0.031	0.094	
6.630	-0.058	0.091	
6.635	0.236	0.076	
6.640	0.061	0.077	
6.645	-0.081	0.076	
6.650	0.198	0.066	
6.655	0.223	0.074	
6.660	-0.064	0.091	
6.665	0.085	0.090	
6.670	0.327	0.094	
6.675	0.003	0.112	
6.680	-0.016	0.115	
6.685	0.302	0.108	
6.690	0.093	0.116	
6.695	-0.080	0.117	
6.700	0.165	0.101	
6.705	0.191	0.095	
6.710	-0.097	0.095	
6.715	0.015	0.078	
6.720	0.215	0.062	
6.725	-0.086	0.059	
6.730	-0.101	0.045	
6.735	0.165	0.023	
6.740	-0.017	0.018	
6.745	-0.142	0.012	
6.750	0.097	-0.003	
6.755	0.108	-0.002	
6.760	-0.136	0.007	
6.765	-0.032	0.001	
6.770	0.157	-0.004	
6.775	-0.106	0.002	
6.780	-0.090	-0.002	
6.785	0.232	-0.006	
6.790	0.099	0.015	
6.795	-0.063	0.039	
6.800	0.197	0.052	
6.805	0.146	0.071	
6.810	-0.122	0.084	
6.815	-0.023	0.069	
6.820	0.124	0.047	
6.825	-0.153	0.031	
6.830	-0.171	0.001	
6.835	0.017	-0.036	
6.840	-0.118	-0.060	
6.845	-0.243	-0.081	
6.850	-0.068	-0.108	
6.855	-0.064	-0.122	
6.860	-0.245	-0.126	
6.865	-0.122	-0.136	
6.870	0.024	-0.138	
6.875	-0.177	-0.125	
6.880	-0.179	-0.119	
6.885	-0.023	-0.120	
6.890	-0.182	-0.117	
6.895	-0.268	-0.124	
6.900	-0.043	-0.140	
6.905	-0.046	-0.140	
6.910	-0.245	-0.132	
6.915	-0.130	-0.134	
6.920	0.001	-0.134	
6.925	-0.226	-0.125	
6.930	-0.240	-0.130	
6.935	-0.101	-0.145	
6.940	-0.231	-0.157	
6.945	-0.323	-0.175	
6.950	-0.129	-0.198	
6.955	-0.104	-0.204	
6.960	-0.263	-0.197	
6.965	-0.130	-0.192	
6.970	0.020	-0.178	
6.975	-0.177	-0.150	
6.980	-0.152	-0.131	
6.985	0.111	-0.115	
6.990	-0.110	-0.087	
6.995	-0.272	-0.075	
7.000	-0.130	-0.092	
7.005	-0.150	-0.114	
7.010	-0.338	-0.140	
7.015	-0.213	-0.174	
7.020	-0.089	-0.199	
7.025	-0.272	-0.204	
7.030	-0.232	-0.209	
7.035	-0.009	-0.208	
7.040	-0.124	-0.186	
7.045	-0.216	-0.163	
7.050	0.012	-0.146	
7.055	0.044	-0.118	
7.060	-0.145	-0.084	
7.065	0.079	-0.060	
7.070	0.580	-0.010	
7.075	0.360	0.091	
7.080	0.322	0.198	
7.085	0.577	0.287	
7.090	0.273	0.359	
7.095	-0.011	0.379	
7.100	0.226	0.341	
7.105	0.124	0.286	
7.110	-0.165	0.220	
7.115	-0.061	0.134	
7.120	0.050	0.057	
7.125	-0.205	0.000	
7.130	-0.188	-0.053	
7.135	0.053	-0.093	
7.140	-0.121	-0.106	
7.145	-0.223	-0.111	
7.150	-0.014	-0.120	
7.155	-0.057	-0.117	
7.160	-0.254	-0.111	
7.165	-0.136	-0.120	
7.170	-0.029	-0.128	
7.175	-0.252	-0.129	
7.180	-0.229	-0.141	
7.185	-0.003	-0.154	
7.190	-0.152	-0.149	
7.195	-0.260	-0.146	
7.200	-0.063	-0.151	
7.205	-0.097	-0.148	
7.210	-0.281	-0.144	
7.215	-0.158	-0.153	
7.220	-0.038	-0.159	
7.225	-0.242	-0.154	
7.230	-0.222	-0.158	
7.235	0.029	-0.161	
7.240	-0.124	-0.146	
7.245	-0.213	-0.131	
7.250	0.035	-0.124	
7.255	0.013	-0.103	
7.260	-0.187	-0.080	
7.265	-0.006	-0.070	
7.270	0.217	-0.052	
7.275	-0.100	-0.018	
7.280	-0.092	-0.002	
7.285	0.157	0.001	
7.290	-0.084	0.008	
7.295	-0.174	0.002	
7.300	0.076	-0.018	
7.305	0.004	-0.025	
7.310	-0.225	-0.031	
7.315	-0.071	-0.052	
7.320	0.107	-0.064	
7.325	-0.150	-0.059	
7.330	-0.097	-0.059	
7.335	0.266	-0.052	
7.340	0.064	-0.015	
7.345	-0.031	0.022	
7.350	0.366	0.053	
7.355	0.336	0.107	
7.360	0.024	0.162	
7.365	0.307	0.192	
7.370	0.544	0.225	
7.375	0.197	0.273	
7.380	0.241	0.301	
7.385	0.602	0.318	
7.390	0.316	0.349	
7.395	0.139	0.363	
7.400	0.592	0.358	
7.405	0.570	0.377	
7.410	0.183	0.405	
7.415	0.423	0.406	
7.420	0.612	0.408	
7.425	0.168	0.417	
7.430	0.218	0.399	
7.435	0.565	0.370	
7.440	0.253	0.361	
7.445	0.061	0.343	
7.450	0.432	0.308	
7.455	0.360	0.293	
7.460	0.010	0.285	
7.465	0.293	0.260	
7.470	0.489	0.250	
7.475	0.058	0.260	
7.480	0.114	0.250	
7.485	0.455	0.233	
7.490	0.156	0.236	
7.495	-0.019	0.229	
7.500	0.336	0.204	
7.505	0.293	0.198	
7.510	-0.035	0.199	
7.515	0.214	0.183	
7.520	0.357	0.176	
7.525	-0.045	0.181	
7.530	-0.006	0.162	
7.535	0.325	0.135	
7.540	0.044	0.129	
7.545	-0.074	0.117	
7.550	0.282	0.099	
7.555	0.192	0.103	
7.560	-0.115	0.111	
7.565	0.068	0.096	
7.570	0.214	0.082	
7.575	-0.136	0.076	
7.580	-0.126	0.051	
7.585	0.131	0.017	
7.590	-0.100	-0.001	
7.595	-0.217	-0.023	
7.600	0.017	-0.053	
7.605	-0.020	-0.068	
7.610	-0.236	-0.074	
7.615	-0.092	-0.091	
7.620	0.024	-0.100	
7.625	-0.213	-0.098	
7.630	-0.187	-0.106	
7.635	0.047	-0.116	
7.640	-0.130	-0.109	
7.645	-0.228	-0.106	
7.650	0.024	-0.111	
7.655	0.012	-0.101	
7.660	-0.211	-0.084	
7.665	-0.081	-0.084	
7.670	0.042	-0.083	
7.675	-0.211	-0.077	
7.680	-0.187	-0.086	
7.685	0.032	-0.100	
7.690	-0.164	-0.102	
7.695	-0.262	-0.109	
7.700	-0.019	-0.126	
7.705	-0.052	-0.127	
7.710	-0.255	-0.121	
7.715	-0.121	-0.128	
7.720	0.010	-0.130	
7.725	-0.216	-0.121	
7.730	-0.181	-0.123	
7.735	0.087	-0.123	
7.740	-0.100	-0.106	
7.745	-0.197	-0.092	
7.750	0.084	-0.087	
7.755	0.065	-0.067	
7.760	-0.168	-0.043	
7.765	0.010	-0.035	
7.770	0.214	-0.021	
7.775	-0.100	0.005	
7.780	-0.074	0.014	
7.785	0.246	0.016	
7.790	0.009	0.034	
7.795	-0.101	0.044	
7.800	0.244	0.043	
7.805	0.223	0.063	
7.810	-0.084	0.089	
7.815	0.128	0.094	
7.820	0.328	0.102	
7.825	-0.038	0.121	
7.830	-0.032	0.119	
7.835	0.302	0.105	
7.840	0.021	0.106	
7.845	-0.118	0.097	
7.850	0.157	0.073	
7.855	0.033	0.058	
7.860	-0.232	0.039	
7.865	-0.126	-0.003	
7.870	-0.023	-0.046	
7.875	-0.239	-0.078	
7.880	-0.194	-0.111	
7.885	0.056	-0.134	
7.890	-0.112	-0.129	
7.895	-0.174	-0.118	
7.900	0.148	-0.106	
7.905	0.145	-0.068	
7.910	-0.109	-0.022	
7.915	0.101	0.007	
7.920	0.351	0.040	
7.925	0.020	0.086	
7.930	0.061	0.114	
7.935	0.406	0.132	
7.940	0.137	0.163	
7.945	-0.043	0.178	
7.950	0.275	0.167	
7.955	0.191	0.163	
7.960	-0.107	0.157	
7.965	0.088	0.127	
7.970	0.301	0.107	
7.975	-0.034	0.107	
7.980	0.012	0.099	
7.985	0.360	0.093	
7.990	0.097	0.111	
7.995	-0.035	0.123	
8.000	0.322	0.123	
8.005	0.253	0.140	
8.010	-0.034	0.159	
8.015	0.240	0.159	
8.020	0.444	0.170	
8.025	0.049	0.199	
8.030	0.105	0.206	
8.035	0.473	0.205	
8.040	0.215	0.226	
8.045	0.024	0.237	
8.050	0.371	0.228	
8.055	0.318	0.231	
8.060	-0.038	0.235	
8.065	0.111	0.210	
8.070	0.226	0.177	
8.075	-0.101	0.150	
8.080	-0.077	0.107	
8.085	0.240	0.065	
8.090	0.020	0.052	
8.095	-0.072	0.045	
8.100	0.325	0.043	
8.105	0.340	0.076	
8.110	0.021	0.126	
8.115	0.273	0.157	
8.120	0.449	0.191	
8.125	0.018	0.227	
8.130	0.042	0.227	
8.135	0.354	0.206	
8.140	0.073	0.196	
8.145	-0.078	0.174	
8.150	0.252	0.139	
8.155	0.233	0.127	
8.160	-0.075	0.127	
8.165	0.130	0.113	
8.170	0.328	0.109	
8.175	-0.034	0.122	
8.180	0.015	0.118	
8.185	0.391	0.113	
8.190	0.154	0.133	
8.195	-0.019	0.150	
8.200	0.333	0.151	
8.205	0.275	0.166	
8.210	-0.054	0.181	
8.215	0.137	0.169	
8.220	0.322	0.157	
8.225	-0.089	0.154	
8.230	-0.107	0.126	
8.235	0.122	0.080	
8.240	-0.115	0.044	
8.245	-0.248	0.002	
8.250	-0.055	-0.050	
8.255	-0.057	-0.085	
8.260	-0.229	-0.105	
8.265	-0.048	-0.122	
8.270	0.177	-0.114	
8.275	-0.090	-0.079	
8.280	-0.048	-0.050	
8.285	0.334	-0.020	
8.290	0.120	0.033	
8.295	-0.040	0.078	
8.300	0.342	0.103	
8.305	0.347	0.142	
8.310	-0.008	0.182	
8.315	0.203	0.193	
8.320	0.386	0.199	
8.325	-0.034	0.209	
8.330	-0.068	0.186	
8.335	0.178	0.142	
8.340	-0.066	0.104	
8.345	-0.171	0.060	
8.350	0.073	0.012	
8.355	0.046	-0.013	
8.360	-0.197	-0.024	
8.365	-0.084	-0.045	
8.370	-0.009	-0.065	
8.375	-0.249	-0.079	
8.380	-0.286	-0.107	
8.385	-0.187	-0.148	
8.390	-0.373	-0.189	
8.395	-0.511	-0.240	
8.400	-0.347	-0.302	
8.405	-0.362	-0.348	
8.410	-0.512	-0.380	
8.415	-0.375	-0.407	
8.420	-0.255	-0.415	
8.425	-0.440	-0.403	
8.430	-0.425	-0.395	
8.435	-0.251	-0.390	
8.440	-0.365	-0.374	
8.445	-0.445	-0.364	
8.450	-0.226	-0.360	
8.455	-0.203	-0.342	
8.460	-0.349	-0.316	
8.465	-0.200	-0.295	
8.470	-0.046	-0.267	
8.475	-0.249	-0.229	
8.480	-0.220	-0.204	
8.485	0.013	-0.185	
8.490	-0.152	-0.157	
8.495	-0.254	-0.140	
8.500	-0.028	-0.137	
8.505	-0.020	-0.126	
8.510	-0.211	-0.110	
8.515	-0.084	-0.106	
8.520	0.094	-0.098	
8.525	-0.152	-0.078	
8.530	-0.121	-0.069	
8.535	0.169	-0.062	
8.540	-0.022	-0.038	
8.545	-0.129	-0.020	
8.550	0.171	-0.012	
8.555	0.180	0.012	
8.560	-0.110	0.041	
8.565	0.067	0.049	
8.570	0.295	0.059	
8.575	-0.058	0.080	
8.580	-0.057	0.081	
8.585	0.253	0.071	
8.590	0.000	0.073	
8.595	-0.132	0.067	
8.600	0.160	0.046	
8.605	0.154	0.043	
8.610	-0.130	0.050	
8.615	-0.003	0.039	
8.620	0.188	0.028	
8.625	-0.127	0.029	
8.630	-0.124	0.016	
8.635	0.139	-0.005	
8.640	-0.061	-0.010	
8.645	-0.170	-0.018	
8.650	0.081	-0.033	
8.655	0.073	-0.031	
8.660	-0.147	-0.021	
8.665	0.017	-0.022	
8.670	0.235	-0.012	
8.675	-0.071	0.014	
8.680	-0.042	0.026	
8.685	0.336	0.036	
8.690	0.142	0.070	
8.695	-0.028	0.101	
8.700	0.284	0.115	
8.705	0.241	0.136	
8.710	-0.072	0.154	
8.715	0.084	0.142	
8.720	0.270	0.127	
8.725	-0.066	0.122	
8.730	-0.058	0.101	
8.735	0.209	0.073	
8.740	-0.080	0.059	
8.745	-0.217	0.033	
8.750	-0.011	-0.010	
8.755	-0.037	-0.042	
8.760	-0.240	-0.065	
8.765	-0.121	-0.094	
8.770	0.027	-0.112	
8.775	-0.190	-0.112	
8.780	-0.173	-0.115	
8.785	0.084	-0.117	
8.790	-0.048	-0.098	
8.795	-0.133	-0.078	
8.800	0.171	-0.060	
8.805	0.133	-0.024	
8.810	-0.162	0.010	
8.815	-0.080	0.013	
8.820	0.007	-0.003	
8.825	-0.226	-0.023	
8.830	-0.219	-0.060	
8.835	0.012	-0.097	
8.840	-0.112	-0.111	
8.845	-0.203	-0.117	
8.850	0.030	-0.121	
8.855	0.052	-0.105	
8.860	-0.161	-0.079	
8.865	-0.006	-0.064	
8.870	0.241	-0.042	
8.875	-0.063	-0.004	
8.880	-0.042	0.018	
8.885	0.301	0.033	
8.890	0.067	0.063	
8.895	-0.092	0.082	
8.900	0.226	0.081	
8.905	0.249	0.094	
8.910	-0.045	0.114	
8.915	0.148	0.117	
8.920	0.371	0.126	
8.925	0.007	0.148	
8.930	0.001	0.150	
8.935	0.345	0.139	
8.940	0.131	0.146	
8.945	-0.052	0.148	
8.950	0.255	0.135	
8.955	0.226	0.135	
8.960	-0.089	0.139	
8.965	0.049	0.119	
8.970	0.206	0.098	
8.975	-0.129	0.084	
8.980	-0.138	0.053	
8.985	0.104	0.015	
8.990	-0.092	-0.008	
8.995	-0.214	-0.032	
9.000	0.020	-0.060	
9.005	0.012	-0.071	
9.010	-0.210	-0.071	
9.015	-0.077	-0.080	
9.020	0.136	-0.080	
9.025	-0.109	-0.061	
9.030	-0.087	-0.049	
9.035	0.227	-0.036	
9.040	0.039	-0.004	
9.045	-0.083	0.022	
9.050	0.267	0.038	
9.055	0.313	0.074	
9.060	-0.017	0.118	
9.065	0.183	0.140	
9.070	0.432	0.160	
9.075	0.093	0.194	
9.080	0.120	0.208	
9.085	0.467	0.214	
9.090	0.217	0.236	
9.095	-0.003	0.245	
9.100	0.290	0.227	
9.105	0.256	0.215	
9.110	-0.074	0.203	
9.115	0.070	0.168	
9.120	0.272	0.135	
9.125	-0.068	0.119	
9.130	-0.058	0.093	
9.135	0.266	0.067	
9.140	0.023	0.064	
9.145	-0.112	0.061	
9.150	0.169	0.046	
9.155	0.156	0.048	
9.160	-0.139	0.056	
9.165	-0.028	0.042	
9.170	0.218	0.029	
9.175	-0.049	0.034	
9.180	-0.005	0.035	
9.185	0.365	0.043	
9.190	0.110	0.078	
9.195	-0.118	0.102	
9.200	0.049	0.092	
9.205	-0.028	0.067	
9.210	-0.246	0.031	
9.215	-0.130	-0.022	
9.220	0.061	-0.065	
9.225	-0.139	-0.081	
9.230	-0.101	-0.088	
9.235	0.246	-0.080	
9.240	0.064	-0.041	
9.245	-0.071	0.001	
9.250	0.256	0.029	
9.255	0.301	0.072	
9.260	-0.042	0.117	
9.265	0.127	0.134	
9.270	0.354	0.143	
9.275	-0.003	0.160	
9.280	-0.011	0.154	
9.285	0.305	0.136	
9.290	0.059	0.132	
9.295	-0.104	0.121	
9.300	0.157	0.093	
9.305	0.145	0.079	
9.310	-0.129	0.072	
9.315	-0.029	0.049	
9.320	0.137	0.026	
9.325	-0.135	0.015	
9.330	-0.138	-0.005	
9.335	0.139	-0.027	
9.340	-0.046	-0.028	
9.345	-0.168	-0.029	
9.350	0.058	-0.040	
9.355	0.062	-0.037	
9.360	-0.170	-0.028	
9.365	-0.075	-0.035	
9.370	0.052	-0.044	
9.375	-0.179	-0.048	
9.380	-0.184	-0.063	
9.385	0.033	-0.083	
9.390	-0.119	-0.088	
9.395	-0.232	-0.095	
9.400	-0.017	-0.108	
9.405	0.001	-0.107	
9.410	-0.205	-0.097	
9.415	-0.083	-0.097	
9.420	0.122	-0.090	
9.425	-0.122	-0.069	
9.430	-0.119	-0.057	
9.435	0.159	-0.049	
9.440	-0.031	-0.029	
9.445	-0.145	-0.016	
9.450	0.108	-0.016	
9.455	0.096	-0.006	
9.460	-0.129	0.008	
9.465	0.049	0.008	
9.470	0.269	0.018	
9.475	-0.043	0.044	
9.480	-0.022	0.057	
9.485	0.353	0.064	
9.490	0.171	0.096	
9.495	-0.014	0.125	
9.500	0.337	0.138	
9.505	0.348	0.166	
9.510	0.021	0.198	
9.515	0.240	0.206	
9.520	0.510	0.218	
9.525	0.169	0.250	
9.530	0.188	0.267	
9.535	0.550	0.277	
9.540	0.339	0.306	
9.545	0.152	0.327	
9.550	0.510	0.330	
9.555	0.482	0.347	
9.560	0.124	0.365	
9.565	0.368	0.357	
9.570	0.634	0.356	
9.575	0.301	0.380	
9.580	0.279	0.391	
9.585	0.573	0.390	
9.590	0.284	0.397	
9.595	0.021	0.380	
9.600	0.339	0.333	
9.605	0.331	0.295	
9.610	0.001	0.269	
9.615	0.226	0.232	
9.620	0.461	0.213	
9.625	0.105	0.222	
9.630	0.125	0.223	
9.635	0.482	0.220	
9.640	0.240	0.240	
9.645	0.044	0.252	
9.650	0.400	0.245	
9.655	0.403	0.253	
9.660	0.046	0.269	
9.665	0.224	0.260	
9.670	0.412	0.249	
9.675	0.049	0.249	
9.680	0.050	0.228	
9.685	0.426	0.203	
9.690	0.208	0.204	
9.695	0.029	0.207	
9.700	0.386	0.200	
9.705	0.391	0.215	
9.710	0.053	0.239	
9.715	0.263	0.242	
9.720	0.475	0.247	
9.725	0.094	0.264	
9.730	0.076	0.258	
9.735	0.435	0.239	
9.740	0.186	0.238	
9.745	-0.013	0.230	
9.750	0.339	0.207	
9.755	0.296	0.201	
9.760	-0.061	0.202	
9.765	0.120	0.178	
9.770	0.325	0.157	
9.775	-0.026	0.152	
9.780	-0.057	0.131	
9.785	0.206	0.100	
9.790	-0.026	0.081	
9.795	-0.159	0.057	
9.800	0.088	0.023	
9.805	0.105	0.007	
9.810	-0.127	0.006	
9.815	0.013	-0.002	
9.820	0.224	0.000	
9.825	-0.087	0.019	
9.830	-0.080	0.023	
9.835	0.233	0.020	
9.840	0.020	0.034	
9.845	-0.104	0.042	
9.850	0.185	0.038	
9.855	0.183	0.050	
9.860	-0.107	0.067	
9.865	0.009	0.062	
9.870	0.180	0.052	
9.875	-0.115	0.049	
9.880	-0.119	0.031	
9.885	0.120	0.006	
9.890	-0.084	-0.006	
9.895	-0.223	-0.023	
9.900	-0.031	-0.053	
9.905	-0.051	-0.074	
9.910	-0.248	-0.088	
9.915	-0.113	-0.109	
9.920	0.049	-0.119	
9.925	-0.187	-0.111	
9.930	-0.164	-0.109	
9.935	0.099	-0.107	
9.940	-0.066	-0.088	
9.945	-0.174	-0.072	
9.950	0.070	-0.067	
9.955	0.067	-0.050	
9.960	-0.142	-0.030	
9.965	0.003	-0.024	
9.970	0.188	-0.015	
9.975	-0.133	0.004	
9.980	-0.148	0.002	
9.985	0.030	-0.018	
9.990	-0.153	-0.035	
9.995	-0.272	-0.063	
10.000	-0.084	-0.101	
10.005	-0.084	-0.125	
10.010	-0.258	-0.138	
10.015	-0.121	-0.152	
10.020	0.035	-0.152	
10.025	-0.194	-0.136	
10.030	-0.176	-0.127	
10.035	0.056	-0.122	
10.040	-0.118	-0.105	
10.045	-0.231	-0.097	
10.050	-0.025	-0.102	
10.055	-0.048	-0.101	
10.060	-0.246	-0.099	
10.065	-0.115	-0.110	
10.070	0.030	-0.116	
10.075	-0.211	-0.109	
10.080	-0.197	-0.113	
10.085	0.018	-0.121	
10.090	-0.135	-0.117	
10.095	-0.251	-0.116	
10.100	-0.046	-0.126	
10.105	-0.089	-0.127	
10.110	-0.280	-0.128	
10.115	-0.164	-0.142	
10.120	-0.038	-0.152	
10.125	-0.234	-0.151	
10.130	-0.210	-0.156	
10.135	0.003	-0.159	
10.140	-0.148	-0.148	
10.145	-0.239	-0.140	
10.150	-0.025	-0.140	
10.155	-0.046	-0.129	
10.160	-0.251	-0.117	
10.165	-0.138	-0.121	
10.170	-0.022	-0.126	
10.175	-0.213	-0.124	
10.180	-0.177	-0.128	
10.185	0.065	-0.130	
10.190	-0.115	-0.114	
10.195	-0.225	-0.103	
10.200	-0.029	-0.106	
10.205	-0.048	-0.104	
10.210	-0.229	-0.099	
10.215	-0.086	-0.106	
10.220	0.107	-0.104	
10.225	-0.133	-0.083	
10.230	-0.083	-0.069	
10.235	0.267	-0.051	
10.240	0.029	-0.011	
10.245	-0.104	0.022	
10.250	0.181	0.033	
10.255	0.136	0.051	
10.260	-0.139	0.065	
10.265	-0.025	0.052	
10.270	0.127	0.033	
10.275	-0.164	0.021	
10.280	-0.153	-0.005	
10.285	0.088	-0.035	
10.290	-0.118	-0.047	
10.295	-0.225	-0.062	
10.300	-0.005	-0.084	
10.305	-0.032	-0.092	
10.310	-0.222	-0.092	
10.315	-0.081	-0.101	
10.320	0.056	-0.102	
10.325	-0.187	-0.091	
10.330	-0.170	-0.091	
10.335	0.088	-0.094	
10.340	-0.077	-0.082	
10.345	-0.164	-0.071	
10.350	0.052	-0.069	
10.355	-0.052	-0.061	
10.360	-0.281	-0.061	
10.365	-0.170	-0.086	
10.370	-0.078	-0.114	
10.375	-0.284	-0.136	
10.380	-0.251	-0.162	
10.385	-0.023	-0.183	
10.390	-0.167	-0.181	
10.395	-0.248	-0.174	
10.400	0.001	-0.169	
10.405	0.023	-0.146	
10.410	-0.165	-0.113	
10.415	0.156	-0.083	
10.420	0.664	-0.016	
10.425	0.634	0.118	
10.430	1.017	0.298	
10.435	1.598	0.529	
10.440	1.197	0.794	
10.445	0.704	0.994	
10.450	0.806	1.067	
10.455	0.534	1.037	
10.460	0.013	0.918	
10.465	0.142	0.723	
10.470	0.281	0.520	
10.475	-0.086	0.353	
10.480	-0.078	0.207	
10.485	0.186	0.094	
10.490	-0.068	0.032	
10.495	-0.174	-0.010	
10.500	0.084	-0.044	
10.505	0.015	-0.053	
10.510	-0.196	-0.051	
10.515	-0.052	-0.060	
10.520	0.088	-0.064	
10.525	-0.179	-0.056	
10.530	-0.152	-0.061	
10.535	0.091	-0.071	
10.540	-0.097	-0.065	
10.545	-0.202	-0.065	
10.550	0.026	-0.074	
10.555	-0.025	-0.073	
10.560	-0.245	-0.072	
10.565	-0.118	-0.087	
10.570	0.023	-0.099	
10.575	-0.196	-0.100	
10.580	-0.162	-0.106	
10.585	0.101	-0.109	
10.590	-0.080	-0.092	
10.595	-0.168	-0.077	
10.600	0.124	-0.069	
10.605	0.078	-0.045	
10.610	-0.155	-0.019	
10.615	0.018	-0.013	
10.620	0.253	-0.001	
10.625	-0.069	0.026	
10.630	-0.026	0.038	
10.635	0.295	0.046	
10.640	0.030	0.068	
10.645	-0.110	0.078	
10.650	0.169	0.067	
10.655	0.099	0.065	
10.660	-0.162	0.061	
10.665	-0.014	0.037	
10.670	0.160	0.017	
10.675	-0.145	0.011	
10.680	-0.116	-0.005	
10.685	0.169	-0.022	
10.690	-0.063	-0.019	
10.695	-0.167	-0.019	
10.700	0.125	-0.029	
10.705	0.102	-0.019	
10.710	-0.136	-0.002	
10.715	0.018	-0.001	
10.720	0.171	0.004	
10.725	-0.138	0.015	
10.730	-0.106	0.008	
10.735	0.215	-0.003	
10.740	-0.037	0.006	
10.745	-0.168	0.007	
10.750	0.050	-0.008	
10.755	-0.009	-0.018	
10.760	-0.225	-0.028	
10.765	-0.077	-0.053	
10.770	0.096	-0.068	
10.775	-0.150	-0.065	
10.780	-0.104	-0.065	
10.785	0.212	-0.060	
10.790	-0.011	-0.032	
10.795	-0.118	-0.009	
10.800	0.188	0.001	
10.805	0.206	0.027	
10.810	-0.074	0.059	
10.815	0.113	0.072	
10.820	0.318	0.087	
10.825	-0.049	0.110	
10.830	-0.009	0.111	
10.835	0.327	0.103	
10.840	0.052	0.112	
10.845	-0.090	0.111	
10.850	0.221	0.095	
10.855	0.177	0.094	
10.860	-0.103	0.098	
10.865	0.097	0.085	
10.870	0.316	0.082	
10.875	-0.034	0.097	
10.880	-0.013	0.098	
10.885	0.316	0.092	
10.890	0.050	0.103	
10.895	-0.095	0.104	
10.900	0.203	0.088	
10.905	0.163	0.086	
10.910	-0.110	0.089	
10.915	0.035	0.072	
10.920	0.224	0.060	
10.925	-0.104	0.060	
10.930	-0.098	0.045	
10.935	0.180	0.024	
10.940	-0.063	0.018	
10.945	-0.184	0.006	
10.950	0.056	-0.018	
10.955	0.018	-0.029	
10.960	-0.193	-0.034	
10.965	-0.028	-0.048	
10.970	0.188	-0.049	
10.975	-0.115	-0.030	
10.980	-0.103	-0.021	
10.985	0.203	-0.019	
10.990	-0.038	-0.002	
10.995	-0.159	0.005	
11.000	0.116	-0.003	
11.005	0.111	0.002	
11.010	-0.129	0.013	
11.015	0.033	0.011	
11.020	0.186	0.014	
11.025	-0.139	0.025	
11.030	-0.142	0.015	
11.035	0.079	-0.009	
11.040	-0.116	-0.023	
11.045	-0.225	-0.044	
11.050	-0.022	-0.073	
11.055	-0.061	-0.089	
11.060	-0.262	-0.099	
11.065	-0.129	-0.119	
11.070	0.003	-0.130	
11.075	-0.236	-0.128	
11.080	-0.210	-0.135	
11.085	-0.013	-0.144	
11.090	-0.165	-0.141	
11.095	-0.266	-0.141	
11.100	-0.046	-0.149	
11.105	-0.054	-0.145	
11.110	-0.223	-0.133	
11.115	-0.046	-0.128	
11.120	0.174	-0.109	
11.125	-0.126	-0.071	
11.130	-0.139	-0.049	
11.135	0.049	-0.046	
11.140	-0.170	-0.045	
11.145	-0.289	-0.064	
11.150	-0.092	-0.100	
11.155	-0.100	-0.125	
11.160	-0.262	-0.140	
11.165	-0.112	-0.156	
11.170	0.053	-0.154	
11.175	-0.181	-0.134	
11.180	-0.184	-0.122	
11.185	-0.006	-0.119	
11.190	-0.171	-0.113	
11.195	-0.268	-0.117	
11.200	-0.060	-0.133	
11.205	-0.077	-0.138	
11.210	-0.257	-0.136	
11.215	-0.112	-0.143	
11.220	0.058	-0.139	
11.225	-0.185	-0.120	
11.230	-0.162	-0.110	
11.235	0.094	-0.104	
11.240	-0.074	-0.084	
11.245	-0.170	-0.069	
11.250	0.116	-0.063	
11.255	0.122	-0.039	
11.260	-0.127	-0.010	
11.265	0.050	0.003	
11.270	0.264	0.019	
11.275	-0.069	0.047	
11.280	-0.049	0.056	
11.285	0.246	0.053	
11.290	0.003	0.063	
11.295	-0.130	0.062	
11.300	0.156	0.045	
11.305	0.127	0.042	
11.310	-0.144	0.046	
11.315	0.000	0.031	
11.320	0.201	0.021	
11.325	-0.116	0.025	
11.330	-0.121	0.016	
11.335	0.159	-0.001	
11.340	-0.058	-0.003	
11.345	-0.181	-0.009	
11.350	0.079	-0.027	
11.355	0.055	-0.029	
11.360	-0.171	-0.024	
11.365	-0.020	-0.031	
11.370	0.181	-0.030	
11.375	-0.121	-0.014	
11.380	-0.115	-0.012	
11.385	0.169	-0.017	
11.390	-0.016	-0.006	
11.395	-0.124	0.000	
11.400	0.185	0.000	
11.405	0.185	0.020	
11.410	-0.104	0.046	
11.415	0.039	0.052	
11.420	0.220	0.054	
11.425	-0.107	0.062	
11.430	-0.122	0.049	
11.435	0.079	0.021	
11.440	-0.106	0.000	
11.445	-0.231	-0.027	
11.450	-0.034	-0.063	
11.455	-0.038	-0.085	
11.460	-0.225	-0.095	
11.465	-0.087	-0.109	
11.470	0.068	-0.111	
11.475	-0.179	-0.098	
11.480	-0.161	-0.094	
11.485	0.087	-0.094	
11.490	-0.092	-0.080	
11.495	-0.187	-0.072	
11.500	0.125	-0.070	
11.505	0.178	-0.045	
11.510	-0.063	-0.005	
11.515	0.139	0.024	
11.520	0.267	0.056	
11.525	-0.124	0.087	
11.530	-0.162	0.080	
11.535	0.027	0.042	
11.540	-0.129	0.005	
11.545	-0.220	-0.035	
11.550	0.030	-0.073	
11.555	0.056	-0.083	
11.560	-0.159	-0.074	
11.565	-0.002	-0.067	
11.570	0.206	-0.050	
11.575	-0.078	-0.017	
11.580	-0.057	0.002	
11.585	0.259	0.014	
11.590	0.052	0.041	
11.595	-0.064	0.061	
11.600	0.282	0.069	
11.605	0.250	0.094	
11.610	-0.066	0.123	
11.615	0.119	0.125	
11.620	0.363	0.128	
11.625	0.001	0.145	
11.630	0.026	0.144	
11.635	0.389	0.138	
11.640	0.162	0.154	
11.645	-0.017	0.165	
11.650	0.360	0.163	
11.655	0.350	0.180	
11.660	0.012	0.205	
11.665	0.244	0.208	
11.670	0.447	0.215	
11.675	0.059	0.234	
11.680	0.068	0.229	
11.685	0.411	0.213	
11.690	0.146	0.213	
11.695	-0.040	0.205	
11.700	0.301	0.180	
11.705	0.241	0.171	
11.710	-0.080	0.168	
11.715	0.091	0.143	
11.720	0.266	0.122	
11.725	-0.086	0.113	
11.730	-0.066	0.090	
11.735	0.270	0.064	
11.740	0.055	0.064	
11.745	-0.090	0.065	
11.750	0.241	0.059	
11.755	0.218	0.074	
11.760	-0.071	0.095	
11.765	0.136	0.098	
11.770	0.348	0.106	
11.775	-0.016	0.129	
11.780	0.012	0.131	
11.785	0.392	0.127	
11.790	0.175	0.146	
11.795	-0.019	0.162	
11.800	0.328	0.161	
11.805	0.296	0.174	
11.810	-0.031	0.190	
11.815	0.136	0.179	
11.820	0.259	0.164	
11.825	-0.092	0.152	
11.830	-0.080	0.118	
11.835	0.204	0.078	
11.840	-0.035	0.057	
11.845	-0.153	0.035	
11.850	0.130	0.008	
11.855	0.096	0.003	
11.860	-0.155	0.007	
11.865	-0.037	-0.003	
11.870	0.139	-0.012	
11.875	-0.133	-0.009	
11.880	-0.107	-0.017	
11.885	0.214	-0.024	
11.890	-0.005	-0.008	
11.895	-0.098	0.006	
11.900	0.266	0.015	
11.905	0.256	0.048	
11.910	-0.068	0.088	
11.915	0.090	0.102	
11.920	0.250	0.106	
11.925	-0.115	0.111	
11.930	-0.113	0.088	
11.935	0.166	0.053	
11.940	-0.032	0.034	
11.945	-0.132	0.017	
11.950	0.157	-0.000	
11.955	0.134	0.005	
11.960	-0.106	0.022	
11.965	0.097	0.027	
11.970	0.296	0.042	
11.975	-0.057	0.071	
11.980	-0.038	0.079	
11.985	0.290	0.075	
11.990	0.050	0.087	
11.995	-0.090	0.090	
12.000	0.221	0.080	
12.005	0.188	0.085	
12.010	-0.109	0.094	
12.015	0.029	0.081	
12.020	0.204	0.067	
12.025	-0.095	0.063	
12.030	-0.064	0.048	
12.035	0.258	0.033	
12.040	-0.006	0.040	
12.045	-0.115	0.042	
12.050	0.197	0.034	
12.055	0.168	0.044	
12.060	-0.100	0.061	
12.065	0.059	0.059	
12.070	0.255	0.060	
12.075	-0.090	0.072	
12.080	-0.063	0.064	
12.085	0.201	0.048	
12.090	-0.042	0.045	
12.095	-0.177	0.033	
12.100	0.064	0.005	
12.105	0.018	-0.011	
12.110	-0.205	-0.022	
12.115	-0.057	-0.044	
12.120	0.070	-0.058	
12.125	-0.193	-0.059	
12.130	-0.161	-0.071	
12.135	0.102	-0.083	
12.140	-0.113	-0.076	
12.145	-0.211	-0.075	
12.150	0.020	-0.084	
12.155	-0.014	-0.081	
12.160	-0.213	-0.075	
12.165	-0.057	-0.081	
12.170	0.097	-0.080	
12.175	-0.145	-0.065	
12.180	-0.089	-0.058	
12.185	0.229	-0.049	
12.190	-0.019	-0.019	
12.195	-0.133	0.002	
12.200	0.151	0.006	
12.205	0.056	0.017	
12.210	-0.188	0.023	
12.215	-0.034	0.005	
12.220	0.152	-0.009	
12.225	-0.161	-0.010	
12.230	-0.139	-0.022	
12.235	0.072	-0.041	
12.240	-0.142	-0.049	
12.245	-0.225	-0.064	
12.250	0.018	-0.087	
12.255	-0.031	-0.091	
12.260	-0.225	-0.089	
12.265	-0.080	-0.098	
12.270	0.046	-0.099	
12.275	-0.197	-0.091	
12.280	-0.150	-0.092	
12.285	0.127	-0.093	
12.290	-0.090	-0.076	
12.295	-0.161	-0.063	
12.300	0.165	-0.057	
12.305	0.052	-0.033	
12.310	-0.188	-0.012	
12.315	-0.043	-0.016	
12.320	0.058	-0.025	
12.325	-0.219	-0.032	
12.330	-0.184	-0.055	
12.335	0.047	-0.081	
12.340	-0.150	-0.090	
12.345	-0.237	-0.101	
12.350	0.044	-0.114	
12.355	0.007	-0.106	
12.360	-0.190	-0.089	
12.365	-0.028	-0.082	
12.370	0.133	-0.069	
12.375	-0.159	-0.046	
12.380	-0.119	-0.040	
12.385	0.163	-0.041	
12.390	-0.072	-0.028	
12.395	-0.159	-0.022	
12.400	0.151	-0.027	
12.405	0.101	-0.013	
12.410	-0.142	0.006	
12.415	0.078	0.009	
12.420	0.273	0.023	
12.425	-0.078	0.050	
12.430	-0.029	0.058	
12.435	0.318	0.060	
12.440	0.029	0.079	
12.445	-0.103	0.086	
12.450	0.217	0.076	
12.455	0.146	0.079	
12.460	-0.121	0.084	
12.465	0.101	0.071	
12.470	0.293	0.069	
12.475	-0.077	0.083	
12.480	-0.046	0.079	
12.485	0.269	0.067	
12.490	-0.022	0.071	
12.495	-0.122	0.064	
12.500	0.178	0.045	
12.505	0.079	0.042	
12.510	-0.145	0.041	
12.515	0.065	0.027	
12.520	0.211	0.024	
12.525	-0.119	0.035	
12.530	-0.080	0.029	
12.535	0.211	0.017	
12.540	-0.066	0.021	
12.545	-0.150	0.016	
12.550	0.159	0.001	
12.555	0.090	0.005	
12.560	-0.141	0.015	
12.565	0.096	0.013	
12.570	0.318	0.027	
12.575	-0.022	0.061	
12.580	0.070	0.083	
12.585	0.427	0.103	
12.590	0.090	0.141	
12.595	-0.061	0.159	
12.600	0.288	0.150	
12.605	0.172	0.150	
12.610	-0.122	0.146	
12.615	0.081	0.117	
12.620	0.229	0.094	
12.625	-0.115	0.085	
12.630	-0.075	0.061	
12.635	0.236	0.037	
12.640	-0.042	0.034	
12.645	-0.152	0.027	
12.650	0.146	0.009	
12.655	0.065	0.008	
12.660	-0.158	0.012	
12.665	0.055	0.002	
12.670	0.246	0.006	
12.675	-0.098	0.028	
12.680	-0.011	0.035	
12.685	0.357	0.043	
12.690	0.010	0.072	
12.695	-0.118	0.085	
12.700	0.152	0.072	
12.705	0.053	0.064	
12.710	-0.179	0.052	
12.715	-0.008	0.022	
12.720	0.146	0.001	
12.725	-0.138	-0.003	
12.730	-0.084	-0.014	
12.735	0.250	-0.020	
12.740	-0.029	-0.001	
12.745	-0.126	0.012	
12.750	0.233	0.013	
12.755	0.204	0.037	
12.760	-0.080	0.068	
12.765	0.142	0.079	
12.770	0.327	0.094	
12.775	-0.049	0.119	
12.780	0.003	0.120	
12.785	0.365	0.113	
12.790	0.046	0.125	
12.795	-0.080	0.125	
12.800	0.272	0.109	
12.805	0.186	0.111	
12.810	-0.101	0.117	
12.815	0.136	0.103	
12.820	0.318	0.100	
12.825	-0.051	0.114	
12.830	0.004	0.109	
12.835	0.354	0.101	
12.840	0.055	0.114	
12.845	-0.080	0.117	
12.850	0.258	0.104	
12.855	0.172	0.106	
12.860	-0.107	0.111	
12.865	0.076	0.094	
12.870	0.233	0.081	
12.875	-0.116	0.080	
12.880	-0.083	0.060	
12.885	0.181	0.035	
12.890	-0.084	0.025	
12.895	-0.176	0.008	
12.900	0.079	-0.018	
12.905	0.009	-0.028	
12.910	-0.193	-0.032	
12.915	-0.013	-0.046	
12.920	0.145	-0.048	
12.925	-0.155	-0.034	
12.930	-0.104	-0.034	
12.935	0.211	-0.034	
12.940	-0.049	-0.016	
12.945	-0.147	-0.005	
12.950	0.151	-0.008	
12.955	0.094	0.004	
12.960	-0.126	0.018	
12.965	0.094	0.020	
12.970	0.292	0.033	
12.975	-0.074	0.061	
12.980	-0.049	0.068	
12.985	0.249	0.063	
12.990	-0.035	0.067	
12.995	-0.155	0.058	
13.000	0.091	0.031	
13.005	0.010	0.014	
13.010	-0.208	-0.001	
13.015	-0.049	-0.030	
13.020	0.084	-0.048	
13.025	-0.194	-0.052	
13.030	-0.155	-0.066	
13.035	0.067	-0.080	
13.040	-0.130	-0.080	
13.045	-0.216	-0.083	
13.050	0.029	-0.095	
13.055	0.007	-0.090	
13.060	-0.187	-0.077	
13.065	0.003	-0.074	
13.070	0.217	-0.057	
13.075	-0.090	-0.022	
13.080	-0.057	-0.002	
13.085	0.224	0.009	
13.090	-0.080	0.028	
13.095	-0.220	0.024	
13.100	-0.002	-0.006	
13.105	-0.048	-0.032	
13.110	-0.234	-0.054	
13.115	-0.058	-0.082	
13.120	0.131	-0.090	
13.125	-0.158	-0.076	
13.130	-0.129	-0.069	
13.135	0.174	-0.064	
13.140	-0.043	-0.042	
13.145	-0.152	-0.026	
13.150	0.152	-0.022	
13.155	0.107	-0.004	
13.160	-0.141	0.016	
13.165	0.046	0.017	
13.170	0.243	0.023	
13.175	-0.078	0.043	
13.180	-0.031	0.047	
13.185	0.302	0.048	
13.190	0.020	0.067	
13.195	-0.092	0.075	
13.200	0.253	0.070	
13.205	0.233	0.084	
13.210	-0.055	0.106	
13.215	0.180	0.112	
13.220	0.371	0.125	
13.225	-0.005	0.150	
13.230	0.027	0.153	
13.235	0.369	0.146	
13.240	0.087	0.154	
13.245	-0.060	0.153	
13.250	0.284	0.135	
13.255	0.208	0.135	
13.260	-0.098	0.137	
13.265	0.061	0.116	
13.270	0.227	0.096	
13.275	-0.106	0.088	
13.280	-0.090	0.064	
13.285	0.191	0.036	
13.290	-0.066	0.026	
13.295	-0.170	0.011	
13.300	0.120	-0.011	
13.305	0.062	-0.014	
13.310	-0.161	-0.009	
13.315	0.001	-0.017	
13.320	0.163	-0.017	
13.325	-0.129	-0.005	
13.330	-0.110	-0.008	
13.335	0.178	-0.015	
13.340	-0.046	-0.007	
13.345	-0.159	-0.005	
13.350	0.130	-0.014	
13.355	0.113	-0.006	
13.360	-0.122	0.010	
13.365	0.050	0.012	
13.370	0.221	0.020	
13.375	-0.109	0.038	
13.380	-0.086	0.036	
13.385	0.172	0.023	
13.390	-0.069	0.022	
13.395	-0.182	0.010	
13.400	0.049	-0.015	
13.405	0.006	-0.029	
13.410	-0.197	-0.036	
13.415	-0.063	-0.054	
13.420	0.070	-0.065	
13.425	-0.184	-0.063	
13.430	-0.158	-0.071	
13.435	0.097	-0.081	
13.440	-0.090	-0.073	
13.445	-0.184	-0.068	
13.450	0.081	-0.070	
13.455	0.087	-0.056	
13.460	-0.119	-0.032	
13.465	0.120	-0.016	
13.470	0.327	0.016	
13.475	-0.054	0.062	
13.480	-0.110	0.078	
13.485	0.078	0.062	
13.490	-0.141	0.039	
13.495	-0.236	-0.000	
13.500	0.012	-0.047	
13.505	0.013	-0.071	
13.510	-0.194	-0.076	
13.515	-0.032	-0.084	
13.520	0.181	-0.076	
13.525	-0.113	-0.048	
13.530	-0.078	-0.031	
13.535	0.232	-0.019	
13.540	-0.005	0.008	
13.545	-0.113	0.025	
13.550	0.200	0.027	
13.555	0.160	0.044	
13.560	-0.101	0.063	
13.565	0.110	0.064	
13.570	0.314	0.073	
13.575	-0.034	0.096	
13.580	0.013	0.102	
13.585	0.377	0.103	
13.590	0.113	0.125	
13.595	-0.046	0.139	
13.600	0.321	0.135	
13.605	0.299	0.150	
13.610	-0.016	0.171	
13.615	0.215	0.172	
13.620	0.408	0.179	
13.625	0.030	0.198	
13.630	0.073	0.196	
13.635	0.382	0.185	
13.640	0.120	0.189	
13.645	-0.042	0.183	
13.650	0.293	0.162	
13.655	0.236	0.157	
13.660	-0.074	0.158	
13.665	0.101	0.138	
13.670	0.267	0.121	
13.675	-0.100	0.115	
13.680	-0.119	0.088	
13.685	0.117	0.049	
13.690	-0.092	0.021	
13.695	-0.196	-0.008	
13.700	0.058	-0.041	
13.705	0.044	-0.051	
13.710	-0.150	-0.047	
13.715	0.027	-0.047	
13.720	0.229	-0.032	
13.725	-0.092	-0.001	
13.730	-0.061	0.014	
13.735	0.279	0.022	
13.740	0.020	0.045	
13.745	-0.112	0.058	
13.750	0.223	0.055	
13.755	0.252	0.070	
13.760	-0.032	0.096	
13.765	0.198	0.109	
13.770	0.386	0.130	
13.775	-0.006	0.161	
13.780	-0.011	0.163	
13.785	0.316	0.147	
13.790	0.035	0.143	
13.795	-0.103	0.127	
13.800	0.188	0.097	
13.805	0.151	0.084	
13.810	-0.121	0.079	
13.815	0.036	0.059	
13.820	0.224	0.047	
13.825	-0.078	0.051	
13.830	-0.052	0.044	
13.835	0.264	0.037	
13.840	0.004	0.048	
13.845	-0.109	0.053	
13.850	0.215	0.045	
13.855	0.220	0.058	
13.860	-0.060	0.081	
13.865	0.201	0.091	
13.870	0.394	0.114	
13.875	-0.029	0.148	
13.880	-0.026	0.152	
13.885	0.252	0.133	
13.890	-0.038	0.120	
13.895	-0.155	0.092	
13.900	0.102	0.050	
13.905	0.078	0.026	
13.910	-0.136	0.015	
13.915	0.030	-0.001	
13.920	0.243	-0.001	
13.925	-0.074	0.020	
13.930	-0.052	0.028	
13.935	0.301	0.033	
13.940	0.065	0.057	
13.945	-0.080	0.075	
13.950	0.243	0.077	
13.955	0.217	0.092	
13.960	-0.080	0.110	
13.965	0.105	0.106	
13.970	0.328	0.106	
13.975	-0.037	0.120	
13.980	0.003	0.116	
13.985	0.359	0.108	
13.990	0.113	0.123	
13.995	-0.037	0.132	
14.000	0.331	0.130	
14.005	0.287	0.147	
14.010	-0.028	0.168	
14.015	0.203	0.168	
14.020	0.408	0.173	
14.025	0.001	0.191	
14.030	0.010	0.184	
14.035	0.333	0.163	
14.040	0.064	0.156	
14.045	-0.066	0.143	
14.050	0.252	0.118	
14.055	0.183	0.113	
14.060	-0.109	0.113	
14.065	0.059	0.093	
14.070	0.229	0.077	
14.075	-0.098	0.075	
14.080	-0.092	0.057	
14.085	0.171	0.032	
14.090	-0.045	0.024	
14.095	-0.119	0.014	
14.100	0.215	0.003	
14.105	0.165	0.019	
14.110	-0.090	0.044	
14.115	0.125	0.054	
14.120	0.316	0.070	
14.125	-0.043	0.098	
14.130	0.003	0.105	
14.135	0.353	0.103	
14.140	0.087	0.120	
14.145	-0.043	0.128	
14.150	0.336	0.124	
14.155	0.285	0.142	
14.160	-0.025	0.165	
14.165	0.185	0.165	
14.170	0.325	0.166	
14.175	-0.054	0.171	
14.180	-0.038	0.151	
14.185	0.243	0.118	
14.190	-0.014	0.100	
14.195	-0.126	0.077	
14.200	0.151	0.046	
14.205	0.085	0.034	
14.210	-0.148	0.030	
14.215	0.012	0.014	
14.220	0.165	0.005	
14.225	-0.135	0.009	
14.230	-0.092	0.000	
14.235	0.195	-0.010	
14.240	-0.042	-0.001	
14.245	-0.121	0.003	
14.250	0.201	0.001	
14.255	0.134	0.019	
14.260	-0.121	0.040	
14.265	0.104	0.043	
14.270	0.263	0.053	
14.275	-0.109	0.072	
14.280	-0.074	0.066	
14.285	0.191	0.049	
14.290	-0.075	0.042	
14.295	-0.182	0.024	
14.300	0.046	-0.007	
14.305	-0.038	-0.027	
14.310	-0.240	-0.045	
14.315	-0.072	-0.072	
14.320	0.036	-0.088	
14.325	-0.214	-0.090	
14.330	-0.164	-0.100	
14.335	0.084	-0.107	
14.340	-0.133	-0.097	
14.345	-0.216	-0.093	
14.350	0.084	-0.095	
14.355	0.064	-0.079	
14.360	-0.136	-0.052	
14.365	0.082	-0.036	
14.370	0.264	-0.007	
14.375	-0.074	0.033	
14.380	0.001	0.052	
14.385	0.343	0.064	
14.390	0.033	0.092	
14.395	-0.063	0.104	
14.400	0.295	0.101	
14.405	0.198	0.114	
14.410	-0.089	0.127	
14.415	0.180	0.119	
14.420	0.353	0.122	
14.425	-0.038	0.140	
14.430	0.035	0.138	
14.435	0.397	0.131	
14.440	0.056	0.144	
14.445	-0.077	0.144	
14.450	0.246	0.124	
14.455	0.113	0.116	
14.460	-0.138	0.106	
14.465	0.059	0.077	
14.470	0.215	0.057	
14.475	-0.122	0.054	
14.480	-0.069	0.038	
14.485	0.244	0.022	
14.490	-0.046	0.028	
14.495	-0.139	0.026	
14.500	0.165	0.013	
14.505	0.050	0.015	
14.510	-0.171	0.018	
14.515	0.038	0.004	
14.520	0.227	0.003	
14.525	-0.129	0.018	
14.530	-0.083	0.017	
14.535	0.195	0.009	
14.540	-0.069	0.014	
14.545	-0.138	0.011	
14.550	0.230	0.002	
14.555	0.142	0.018	
14.560	-0.122	0.041	
14.565	0.064	0.043	
14.570	0.185	0.045	
14.575	-0.177	0.049	
14.580	-0.156	0.027	
14.585	0.059	-0.009	
14.590	-0.162	-0.034	
14.595	-0.255	-0.064	
14.600	-0.020	-0.099	
14.605	-0.089	-0.116	
14.610	-0.271	-0.124	
14.615	-0.106	-0.139	
14.620	-0.011	-0.144	
14.625	-0.248	-0.137	
14.630	-0.188	-0.140	
14.635	0.058	-0.142	
14.640	-0.148	-0.127	
14.645	-0.232	-0.118	
14.650	0.053	-0.118	
14.655	-0.023	-0.103	
14.660	-0.203	-0.085	
14.665	0.003	-0.081	
14.670	0.119	-0.067	
14.675	-0.205	-0.047	
14.680	-0.171	-0.049	
14.685	0.032	-0.065	
14.690	-0.193	-0.075	
14.695	-0.266	-0.094	
14.700	-0.025	-0.121	
14.705	-0.100	-0.131	
14.710	-0.294	-0.136	
14.715	-0.118	-0.150	
14.720	-0.003	-0.154	
14.725	-0.240	-0.144	
14.730	-0.176	-0.143	
14.735	0.082	-0.140	
14.740	-0.145	-0.120	
14.745	-0.220	-0.107	
14.750	0.056	-0.106	
14.755	-0.016	-0.091	
14.760	-0.220	-0.076	
14.765	-0.017	-0.077	
14.770	0.139	-0.068	
14.775	-0.164	-0.047	
14.780	-0.109	-0.041	
14.785	0.195	-0.040	
14.790	-0.083	-0.022	
14.795	-0.168	-0.016	
14.800	0.139	-0.023	
14.805	0.047	-0.015	
14.810	-0.181	-0.006	
14.815	0.012	-0.014	
14.820	0.178	-0.015	
14.825	-0.153	-0.002	
14.830	-0.097	-0.006	
14.835	0.189	-0.014	
14.840	-0.097	-0.007	
14.845	-0.196	-0.011	
14.850	0.087	-0.030	
14.855	0.010	-0.034	
14.860	-0.208	-0.034	
14.865	-0.045	-0.049	
14.870	0.085	-0.057	
14.875	-0.213	-0.054	
14.880	-0.179	-0.067	
14.885	0.053	-0.085	
14.890	-0.153	-0.088	
14.895	-0.260	-0.097	
14.900	-0.028	-0.116	
14.905	-0.069	-0.122	
14.910	-0.257	-0.122	
14.915	-0.075	-0.129	
14.920	0.075	-0.125	
14.925	-0.210	-0.106	
14.930	-0.159	-0.100	
14.935	0.124	-0.097	
14.940	-0.118	-0.080	
14.945	-0.193	-0.070	
14.950	0.124	-0.070	
14.955	0.027	-0.053	
14.960	-0.222	-0.037	
14.965	-0.061	-0.045	
14.970	0.056	-0.053	
14.975	-0.222	-0.056	
14.980	-0.197	-0.073	
14.985	0.021	-0.096	
14.990	-0.176	-0.105	
14.995	-0.265	-0.117	
15.000	-0.032	-0.136	
15.005	-0.095	-0.139	
15.010	-0.295	-0.139	
15.015	-0.124	-0.151	
15.020	-0.032	-0.155	
15.025	-0.280	-0.150	
15.030	-0.237	-0.159	
15.035	-0.019	-0.169	
15.040	-0.196	-0.165	
15.045	-0.269	-0.163	
15.050	0.009	-0.166	
15.055	-0.038	-0.150	
15.060	-0.251	-0.129	
15.065	-0.092	-0.124	
15.070	0.020	-0.118	
15.075	-0.265	-0.108	
15.080	-0.260	-0.118	
15.085	-0.060	-0.141	
15.090	-0.237	-0.154	
15.095	-0.321	-0.172	
15.100	-0.084	-0.193	
15.105	-0.107	-0.196	
15.110	-0.295	-0.188	
15.115	-0.121	-0.187	
15.120	0.033	-0.176	
15.125	-0.222	-0.150	
15.130	-0.197	-0.138	
15.135	0.029	-0.134	
15.140	-0.168	-0.121	
15.145	-0.248	-0.118	
15.150	0.015	-0.125	
15.155	-0.042	-0.117	
15.160	-0.236	-0.106	
15.165	-0.049	-0.106	
15.170	0.143	-0.096	
15.175	-0.158	-0.069	
15.180	-0.109	-0.057	
15.185	0.220	-0.047	
15.190	-0.055	-0.021	
15.195	-0.148	-0.006	
15.200	0.189	-0.005	
15.205	0.124	0.013	
15.210	-0.159	0.032	
15.215	0.049	0.029	
15.220	0.249	0.030	
15.225	-0.113	0.046	
15.230	-0.072	0.042	
15.235	0.263	0.033	
15.240	-0.032	0.042	
15.245	-0.144	0.041	
15.250	0.203	0.028	
15.255	0.124	0.034	
15.260	-0.174	0.043	
15.265	0.007	0.030	
15.270	0.218	0.020	
15.275	-0.124	0.027	
15.280	-0.104	0.019	
15.285	0.198	0.005	
15.290	-0.078	0.007	
15.295	-0.184	0.001	
15.300	0.114	-0.018	
15.305	0.067	-0.019	
15.310	-0.171	-0.012	
15.315	0.017	-0.019	
15.320	0.185	-0.016	
15.325	-0.150	-0.001	
15.330	-0.106	-0.004	
15.335	0.232	-0.010	
15.340	-0.032	0.003	
15.345	-0.109	0.012	
15.350	0.314	0.017	
15.355	0.272	0.053	
15.360	-0.075	0.097	
15.365	0.140	0.113	
15.370	0.314	0.124	
15.375	-0.100	0.137	
15.380	-0.081	0.120	
15.385	0.227	0.088	
15.390	-0.045	0.071	
15.395	-0.182	0.048	
15.400	0.087	0.012	
15.405	0.033	-0.006	
15.410	-0.197	-0.016	
15.415	-0.035	-0.036	
15.420	0.137	-0.046	
15.425	-0.153	-0.038	
15.430	-0.119	-0.040	
15.435	0.178	-0.044	
15.440	-0.045	-0.029	
15.445	-0.133	-0.018	
15.450	0.261	-0.012	
15.455	0.252	0.023	
15.460	-0.054	0.069	
15.465	0.136	0.091	
15.470	0.267	0.108	
15.475	-0.145	0.121	
15.480	-0.161	0.096	
15.485	0.093	0.049	
15.490	-0.104	0.013	
15.495	-0.196	-0.021	
15.500	0.136	-0.051	
15.505	0.101	-0.048	
15.510	-0.164	-0.030	
15.515	0.026	-0.024	
15.520	0.235	-0.012	
15.525	-0.100	0.015	
15.530	-0.060	0.024	
15.535	0.308	0.028	
15.540	0.058	0.054	
15.545	-0.087	0.072	
15.550	0.264	0.074	
15.555	0.241	0.093	
15.560	-0.072	0.116	
15.565	0.156	0.118	
15.570	0.339	0.124	
15.575	-0.032	0.141	
15.580	0.007	0.136	
15.585	0.377	0.125	
15.590	0.105	0.137	
15.595	-0.058	0.142	
15.600	0.301	0.131	
15.605	0.275	0.140	
15.610	-0.038	0.155	
15.615	0.206	0.153	
15.620	0.372	0.158	
15.625	-0.037	0.174	
15.630	-0.019	0.162	
15.635	0.342	0.139	
15.640	0.021	0.133	
15.645	-0.118	0.118	
15.650	0.206	0.089	
15.655	0.180	0.080	
15.660	-0.116	0.081	
15.665	0.061	0.067	
15.670	0.266	0.061	
15.675	-0.087	0.069	
15.680	-0.058	0.062	
15.685	0.304	0.052	
15.690	0.032	0.064	
15.695	-0.104	0.070	
15.700	0.229	0.063	
15.705	0.189	0.073	
15.710	-0.124	0.086	
15.715	0.078	0.078	
15.720	0.302	0.075	
15.725	-0.064	0.088	
15.730	-0.042	0.084	
15.735	0.318	0.075	
15.740	0.061	0.086	
15.745	-0.066	0.094	
15.750	0.339	0.092	
15.755	0.305	0.117	
15.760	-0.061	0.148	
15.765	0.151	0.152	
15.770	0.325	0.152	
15.775	-0.083	0.157	
15.780	-0.071	0.134	
15.785	0.217	0.098	
15.790	-0.055	0.077	
15.795	-0.174	0.049	
15.800	0.094	0.012	
15.805	0.072	-0.005	
15.810	-0.182	-0.009	
15.815	-0.031	-0.025	
15.820	0.188	-0.030	
15.825	-0.141	-0.018	
15.830	-0.127	-0.019	
15.835	0.178	-0.026	
15.840	-0.037	-0.016	
15.845	-0.133	-0.009	
15.850	0.229	-0.008	
15.855	0.275	0.022	
15.860	-0.020	0.068	
15.865	0.189	0.097	
15.870	0.340	0.126	
15.875	-0.089	0.153	
15.880	-0.129	0.139	
15.885	0.122	0.097	
15.890	-0.092	0.059	
15.895	-0.184	0.018	
15.900	0.124	-0.021	
15.905	0.130	-0.027	
15.910	-0.127	-0.013	
15.915	0.072	-0.007	
15.920	0.304	0.013	
15.925	-0.060	0.048	
15.930	-0.048	0.063	
15.935	0.316	0.066	
15.940	0.046	0.085	
15.945	-0.101	0.092	
15.950	0.244	0.083	
15.955	0.235	0.092	
15.960	-0.089	0.108	
15.965	0.101	0.103	
15.970	0.337	0.103	
15.975	-0.034	0.118	
15.980	0.000	0.116	
15.985	0.385	0.110	
15.990	0.122	0.127	
15.995	-0.051	0.139	
16.000	0.321	0.135	
16.005	0.287	0.149	
16.010	-0.051	0.167	
16.015	0.168	0.161	
16.020	0.380	0.159	
16.025	-0.037	0.170	
16.030	-0.052	0.156	
16.035	0.217	0.123	
16.040	-0.072	0.099	
16.045	-0.232	0.061	
16.050	-0.051	0.004	
16.055	-0.101	-0.045	
16.060	-0.303	-0.086	
16.065	-0.176	-0.131	
16.070	-0.066	-0.162	
16.075	-0.294	-0.176	
16.080	-0.275	-0.193	
16.085	-0.052	-0.207	
16.090	-0.203	-0.202	
16.095	-0.286	-0.197	
16.100	-0.025	-0.195	
16.105	0.010	-0.173	
16.110	-0.179	-0.139	
16.115	-0.011	-0.113	
16.120	0.230	-0.078	
16.125	-0.066	-0.029	
16.130	-0.029	0.004	
16.135	0.354	0.030	
16.140	0.108	0.074	
16.145	-0.051	0.105	
16.150	0.356	0.118	
16.155	0.362	0.150	
16.160	0.010	0.188	
16.165	0.240	0.201	
16.170	0.452	0.214	
16.175	0.049	0.235	
16.180	0.056	0.231	
16.185	0.414	0.212	
16.190	0.151	0.212	
16.195	-0.049	0.203	
16.200	0.276	0.177	
16.205	0.246	0.166	
16.210	-0.077	0.161	
16.215	0.120	0.139	
16.220	0.354	0.127	
16.225	-0.023	0.134	
16.230	0.001	0.127	
16.235	0.328	0.115	
16.240	0.032	0.119	
16.245	-0.110	0.112	
16.250	0.174	0.088	
16.255	0.139	0.077	
16.260	-0.138	0.071	
16.265	0.029	0.051	
16.270	0.217	0.038	
16.275	-0.129	0.040	
16.280	-0.129	0.025	
16.285	0.156	0.003	
16.290	-0.061	-0.003	
16.295	-0.193	-0.013	
16.300	0.090	-0.032	
16.305	0.127	-0.030	
16.310	-0.121	-0.013	
16.315	0.079	-0.004	
16.320	0.331	0.018	
16.325	-0.019	0.059	
16.330	0.030	0.083	
16.335	0.374	0.099	
16.340	0.143	0.131	
16.345	-0.051	0.151	
16.350	0.287	0.148	
16.355	0.285	0.156	
16.360	-0.049	0.169	
16.365	0.189	0.161	
16.370	0.402	0.162	
16.375	0.017	0.178	
16.380	0.036	0.175	
16.385	0.402	0.164	
16.390	0.154	0.174	
16.395	-0.032	0.178	
16.400	0.293	0.165	
16.405	0.259	0.166	
16.410	-0.069	0.170	
16.415	0.137	0.152	
16.420	0.339	0.141	
16.425	-0.054	0.144	
16.430	-0.061	0.127	
16.435	0.241	0.098	
16.440	-0.005	0.085	
16.445	-0.127	0.068	
16.450	0.171	0.043	
16.455	0.146	0.039	
16.460	-0.142	0.045	
16.465	0.020	0.034	
16.470	0.217	0.028	
16.475	-0.090	0.036	
16.480	-0.071	0.032	
16.485	0.275	0.026	
16.490	0.035	0.042	
16.495	-0.097	0.054	
16.500	0.206	0.052	
16.505	0.152	0.063	
16.510	-0.107	0.075	
16.515	0.099	0.069	
16.520	0.319	0.072	
16.525	-0.042	0.093	
16.530	0.010	0.097	
16.535	0.356	0.097	
16.540	0.072	0.115	
16.545	-0.048	0.124	
16.550	0.357	0.121	
16.555	0.337	0.143	
16.560	-0.002	0.175	
16.565	0.233	0.185	
16.570	0.429	0.197	
16.575	0.033	0.218	
16.580	0.038	0.213	
16.585	0.369	0.193	
16.590	0.081	0.187	
16.595	-0.080	0.171	
16.600	0.258	0.139	
16.605	0.203	0.128	
16.610	-0.090	0.125	
16.615	0.087	0.105	
16.620	0.292	0.094	
16.625	-0.064	0.099	
16.630	-0.029	0.089	
16.635	0.336	0.078	
16.640	0.058	0.090	
16.645	-0.086	0.096	
16.650	0.266	0.089	
16.655	0.264	0.101	
16.660	-0.055	0.123	
16.665	0.194	0.127	
16.670	0.421	0.140	
16.675	0.004	0.169	
16.680	0.006	0.172	
16.685	0.319	0.157	
16.690	0.012	0.151	
16.695	-0.142	0.130	
16.700	0.159	0.090	
16.705	0.136	0.068	
16.710	-0.122	0.059	
16.715	0.081	0.042	
16.720	0.275	0.041	
16.725	-0.081	0.058	
16.730	-0.052	0.058	
16.735	0.308	0.053	
16.740	0.047	0.069	
16.745	-0.074	0.080	
16.750	0.298	0.079	
16.755	0.236	0.099	
16.760	-0.080	0.123	
16.765	0.145	0.122	
16.770	0.366	0.125	
16.775	-0.003	0.144	
16.780	0.027	0.145	
16.785	0.391	0.139	
16.790	0.085	0.152	
16.795	-0.051	0.153	
16.800	0.327	0.140	
16.805	0.278	0.149	
16.810	-0.061	0.163	
16.815	0.152	0.154	
16.820	0.374	0.150	
16.825	-0.014	0.161	
16.830	0.006	0.153	
16.835	0.382	0.138	
16.840	0.084	0.145	
16.845	-0.064	0.144	
16.850	0.240	0.126	
16.855	0.195	0.122	
16.860	-0.104	0.122	
16.865	0.075	0.102	
16.870	0.263	0.088	
16.875	-0.097	0.088	
16.880	-0.078	0.071	
16.885	0.220	0.048	
16.890	-0.045	0.043	
16.895	-0.156	0.031	
16.900	0.119	0.008	
16.905	0.061	0.002	
16.910	-0.179	0.002	
16.915	-0.020	-0.013	
16.920	0.194	-0.020	
16.925	-0.142	-0.009	
16.930	-0.127	-0.012	
16.935	0.139	-0.023	
16.940	-0.115	-0.023	
16.945	-0.226	-0.033	
16.950	0.021	-0.057	
16.955	0.024	-0.066	
16.960	-0.190	-0.064	
16.965	-0.046	-0.069	
16.970	0.140	-0.066	
16.975	-0.155	-0.048	
16.980	-0.139	-0.045	
16.985	0.128	-0.049	
16.990	-0.089	-0.041	
16.995	-0.205	-0.041	
17.000	0.029	-0.055	
17.005	-0.003	-0.059	
17.010	-0.219	-0.059	
17.015	-0.066	-0.072	
17.020	0.104	-0.076	
17.025	-0.176	-0.066	
17.030	-0.164	-0.067	
17.035	0.099	-0.075	
17.040	-0.095	-0.067	
17.045	-0.222	-0.066	
17.050	-0.040	-0.079	
17.055	-0.090	-0.090	
17.060	-0.313	-0.103	
17.065	-0.179	-0.132	
17.070	-0.069	-0.156	
17.075	-0.300	-0.167	
17.080	-0.298	-0.187	
17.085	-0.093	-0.207	
17.090	-0.237	-0.213	
17.095	-0.330	-0.217	
17.100	-0.098	-0.226	
17.105	-0.071	-0.216	
17.110	-0.249	-0.193	
17.115	-0.090	-0.177	
17.120	0.079	-0.153	
17.125	-0.207	-0.119	
17.130	-0.217	-0.106	
17.135	-0.028	-0.111	
17.140	-0.187	-0.114	
17.145	-0.309	-0.127	
17.150	-0.101	-0.152	
17.155	-0.107	-0.165	
17.160	-0.307	-0.169	
17.165	-0.171	-0.182	
17.170	-0.037	-0.186	
17.175	-0.255	-0.177	
17.180	-0.229	-0.175	
17.185	-0.026	-0.177	
17.190	-0.190	-0.166	
17.195	-0.300	-0.163	
17.200	-0.081	-0.172	
17.205	-0.093	-0.170	
17.210	-0.286	-0.163	
17.215	-0.148	-0.167	
17.220	0.000	-0.165	
17.225	-0.236	-0.152	
17.230	-0.203	-0.148	
17.235	0.088	-0.145	
17.240	-0.086	-0.121	
17.245	-0.200	-0.101	
17.250	0.081	-0.091	
17.255	0.084	-0.067	
17.260	-0.150	-0.038	
17.265	0.013	-0.027	
17.270	0.252	-0.010	
17.275	-0.074	0.021	
17.280	-0.052	0.034	
17.285	0.319	0.041	
17.290	0.076	0.067	
17.295	-0.095	0.085	
17.300	0.249	0.085	
17.305	0.261	0.099	
17.310	-0.095	0.119	
17.315	0.085	0.114	
17.320	0.337	0.110	
17.325	-0.014	0.122	
17.330	-0.016	0.119	
17.335	0.348	0.109	
17.340	0.093	0.120	
17.345	-0.064	0.125	
17.350	0.318	0.117	
17.355	0.350	0.134	
17.360	-0.020	0.164	
17.365	0.188	0.171	
17.370	0.415	0.179	
17.375	-0.005	0.196	
17.380	-0.023	0.186	
17.385	0.290	0.158	
17.390	-0.011	0.140	
17.395	-0.168	0.110	
17.400	0.087	0.063	
17.405	0.053	0.031	
17.410	-0.210	0.009	
17.415	-0.090	-0.025	
17.420	0.081	-0.051	
17.425	-0.182	-0.060	
17.430	-0.188	-0.075	
17.435	0.046	-0.092	
17.440	-0.112	-0.093	
17.445	-0.228	-0.095	
17.450	0.023	-0.104	
17.455	0.039	-0.095	
17.460	-0.176	-0.077	
17.465	0.007	-0.068	
17.470	0.266	-0.046	
17.475	-0.110	-0.007	
17.480	-0.144	0.009	
17.485	0.087	0.001	
17.490	-0.132	-0.008	
17.495	-0.265	-0.031	
17.500	-0.052	-0.070	
17.505	-0.034	-0.095	
17.510	-0.214	-0.105	
17.515	-0.069	-0.115	
17.520	0.134	-0.109	
17.525	-0.168	-0.084	
17.530	-0.168	-0.074	
17.535	0.085	-0.074	
17.540	-0.101	-0.065	
17.545	-0.228	-0.065	
17.550	0.006	-0.078	
17.555	0.000	-0.080	
17.560	-0.213	-0.076	
17.565	-0.072	-0.083	
17.570	0.082	-0.084	
17.575	-0.181	-0.073	
17.580	-0.165	-0.074	
17.585	0.140	-0.079	
17.590	-0.038	-0.063	
17.595	-0.142	-0.047	
17.600	0.194	-0.036	
17.605	0.215	-0.003	
17.610	-0.089	0.038	
17.615	0.097	0.058	
17.620	0.339	0.077	
17.625	-0.032	0.107	
17.630	-0.042	0.112	
17.635	0.331	0.104	
17.640	0.087	0.114	
17.645	-0.101	0.116	
17.650	0.189	0.099	
17.655	0.168	0.093	
17.660	-0.145	0.090	
17.665	-0.034	0.065	
17.670	0.131	0.037	
17.675	-0.170	0.019	
17.680	-0.177	-0.011	
17.685	0.042	-0.046	
17.690	-0.135	-0.065	
17.695	-0.249	-0.085	
17.700	-0.035	-0.109	
17.705	-0.045	-0.118	
17.710	-0.260	-0.118	
17.715	-0.145	-0.129	
17.720	-0.017	-0.137	
17.725	-0.234	-0.135	
17.730	-0.217	-0.141	
17.735	0.059	-0.146	
17.740	-0.077	-0.130	
17.745	-0.188	-0.111	
17.750	0.042	-0.100	
17.755	0.076	-0.077	
17.760	-0.164	-0.051	
17.765	0.010	-0.039	
17.770	0.275	-0.020	
17.775	-0.086	0.015	
17.780	-0.098	0.029	
17.785	0.214	0.028	
17.790	-0.019	0.037	
17.795	-0.167	0.034	
17.800	0.099	0.015	
17.805	0.055	0.007	
17.810	-0.205	0.002	
17.815	-0.080	-0.021	
17.820	0.124	-0.040	
17.825	-0.153	-0.041	
17.830	-0.159	-0.050	
17.835	0.087	-0.062	
17.840	-0.107	-0.062	
17.845	-0.231	-0.066	
17.850	-0.032	-0.084	
17.855	-0.003	-0.091	
17.860	-0.203	-0.089	
17.865	-0.037	-0.092	
17.870	0.269	-0.077	
17.875	-0.063	-0.035	
17.880	-0.084	-0.006	
17.885	0.168	0.007	
17.890	-0.104	0.019	
17.895	-0.280	0.006	
17.900	-0.092	-0.036	
17.905	-0.081	-0.075	
17.910	-0.269	-0.105	
17.915	-0.126	-0.134	
17.920	0.075	-0.145	
17.925	-0.181	-0.130	
17.930	-0.176	-0.121	
17.935	0.101	-0.113	
17.940	-0.061	-0.091	
17.945	-0.199	-0.073	
17.950	0.038	-0.070	
17.955	0.058	-0.059	
17.960	-0.197	-0.045	
17.965	-0.075	-0.048	
17.970	0.162	-0.050	
17.975	-0.138	-0.036	
17.980	-0.141	-0.035	
17.985	0.177	-0.039	
17.990	0.018	-0.023	
17.995	-0.122	-0.007	
18.000	0.185	0.001	
18.005	0.211	0.025	
18.010	-0.101	0.056	
18.015	0.070	0.064	
18.020	0.340	0.074	
18.025	-0.026	0.099	
18.030	-0.046	0.104	
18.035	0.284	0.095	
18.040	0.027	0.098	
18.045	-0.148	0.090	
18.050	0.108	0.063	
18.055	0.145	0.047	
18.060	-0.129	0.043	
18.065	0.027	0.029	
18.070	0.305	0.028	
18.075	-0.045	0.049	
18.080	-0.049	0.058	
18.085	0.319	0.060	
18.090	0.111	0.082	
18.095	-0.071	0.100	
18.100	0.275	0.101	
18.105	0.310	0.120	
18.110	-0.046	0.146	
18.115	0.136	0.148	
18.120	0.386	0.150	
18.125	0.007	0.166	
18.130	0.000	0.161	
18.135	0.435	0.150	
18.140	0.233	0.167	
18.145	0.026	0.188	
18.150	0.431	0.196	
18.155	0.472	0.227	
18.160	0.101	0.268	
18.165	0.366	0.287	
18.170	0.669	0.312	
18.175	0.273	0.359	
18.180	0.266	0.383	
18.185	0.649	0.392	
18.190	0.362	0.413	
18.195	0.068	0.413	
18.200	0.402	0.379	
18.205	0.366	0.349	
18.210	-0.028	0.321	
18.215	0.128	0.268	
18.220	0.362	0.220	
18.225	-0.034	0.193	
18.230	-0.061	0.155	
18.235	0.292	0.114	
18.240	0.078	0.101	
18.245	-0.110	0.091	
18.250	0.211	0.072	
18.255	0.279	0.077	
18.260	-0.058	0.098	
18.265	0.156	0.105	
18.270	0.472	0.122	
18.275	0.120	0.165	
18.280	0.134	0.194	
18.285	0.525	0.215	
18.290	0.272	0.253	
18.295	0.013	0.275	
18.300	0.337	0.264	
18.305	0.327	0.257	
18.310	-0.043	0.250	
18.315	0.130	0.217	
18.320	0.394	0.189	
18.325	0.023	0.184	
18.330	0.024	0.169	
18.335	0.429	0.153	
18.340	0.195	0.167	
18.345	-0.031	0.179	
18.350	0.328	0.174	
18.355	0.371	0.185	
18.360	-0.002	0.205	
18.365	0.214	0.204	
18.370	0.469	0.208	
18.375	0.068	0.227	
18.380	0.049	0.225	
18.385	0.443	0.210	
18.390	0.197	0.217	
18.395	-0.048	0.216	
18.400	0.318	0.195	
18.405	0.353	0.192	
18.410	-0.032	0.201	
18.415	0.177	0.190	
18.420	0.450	0.185	
18.425	0.027	0.199	
18.430	0.013	0.193	
18.435	0.403	0.176	
18.440	0.146	0.180	
18.445	-0.063	0.177	
18.450	0.255	0.156	
18.455	0.241	0.149	
18.460	-0.098	0.147	
18.465	0.044	0.123	
18.470	0.273	0.101	
18.475	-0.084	0.095	
18.480	-0.097	0.074	
18.485	0.238	0.049	
18.490	-0.020	0.044	
18.495	-0.202	0.033	
18.500	0.023	0.003	
18.505	0.023	-0.018	
18.510	-0.228	-0.033	
18.515	-0.100	-0.059	
18.520	0.093	-0.076	
18.525	-0.177	-0.074	
18.530	-0.162	-0.080	
18.535	0.128	-0.085	
18.540	-0.078	-0.071	
18.545	-0.220	-0.062	
18.550	0.026	-0.070	
18.555	0.046	-0.066	
18.560	-0.207	-0.056	
18.565	-0.069	-0.061	
18.570	0.152	-0.061	
18.575	-0.141	-0.045	
18.580	-0.158	-0.043	
18.585	0.085	-0.050	
18.590	-0.138	-0.051	
18.595	-0.291	-0.064	
18.600	-0.112	-0.097	
18.605	-0.155	-0.126	
18.610	-0.387	-0.154	
18.615	-0.300	-0.196	
18.620	-0.190	-0.235	
18.625	-0.416	-0.261	
18.630	-0.425	-0.293	
18.635	-0.226	-0.323	
18.640	-0.347	-0.335	
18.645	-0.466	-0.343	
18.650	-0.272	-0.355	
18.655	-0.260	-0.354	
18.660	-0.445	-0.345	
18.665	-0.310	-0.345	
18.670	-0.155	-0.337	
18.675	-0.335	-0.315	
18.680	-0.303	-0.298	
18.685	-0.057	-0.281	
18.690	-0.184	-0.248	
18.695	-0.317	-0.220	
18.700	-0.106	-0.209	
18.705	-0.093	-0.193	
18.710	-0.333	-0.179	
18.715	-0.193	-0.183	
18.720	-0.008	-0.184	
18.725	-0.234	-0.172	
18.730	-0.213	-0.165	
18.735	0.073	-0.159	
18.740	-0.104	-0.134	
18.745	-0.231	-0.114	
18.750	0.035	-0.108	
18.755	0.049	-0.090	
18.760	-0.208	-0.068	
18.765	-0.051	-0.064	
18.770	0.221	-0.054	
18.775	-0.095	-0.026	
18.780	-0.084	-0.009	
18.785	0.270	0.001	
18.790	0.012	0.027	
18.795	-0.139	0.042	
18.800	0.284	0.043	
18.805	0.409	0.074	
18.810	0.036	0.128	
18.815	0.264	0.165	
18.820	0.473	0.201	
18.825	0.041	0.239	
18.830	0.027	0.241	
18.835	0.400	0.220	
18.840	0.097	0.212	
18.845	-0.113	0.191	
18.850	0.197	0.149	
18.855	0.183	0.122	
18.860	-0.138	0.106	
18.865	0.024	0.075	
18.870	0.288	0.055	
18.875	-0.078	0.060	
18.880	-0.109	0.052	
18.885	0.232	0.035	
18.890	-0.016	0.036	
18.895	-0.171	0.032	
18.900	0.114	0.012	
18.905	0.099	0.008	
18.910	-0.181	0.010	
18.915	-0.040	-0.005	
18.920	0.171	-0.015	
18.925	-0.148	-0.010	
18.930	-0.147	-0.019	
18.935	0.162	-0.032	
18.940	-0.066	-0.028	
18.945	-0.207	-0.029	
18.950	0.055	-0.044	
18.955	0.078	-0.044	
18.960	-0.185	-0.034	
18.965	-0.042	-0.039	
18.970	0.206	-0.037	
18.975	-0.122	-0.018	
18.980	-0.132	-0.013	
18.985	0.168	-0.018	
18.990	-0.060	-0.011	
18.995	-0.216	-0.013	
19.000	0.020	-0.033	
19.005	0.017	-0.045	
19.010	-0.242	-0.051	
19.015	-0.139	-0.072	
19.020	0.003	-0.093	
19.025	-0.242	-0.104	
19.030	-0.246	-0.123	
19.035	-0.023	-0.145	
19.040	-0.174	-0.151	
19.045	-0.301	-0.157	
19.050	-0.081	-0.170	
19.055	-0.077	-0.170	
19.060	-0.303	-0.164	
19.065	-0.182	-0.170	
19.070	0.004	-0.173	
19.075	-0.210	-0.160	
19.080	-0.196	-0.152	
19.085	0.081	-0.144	
19.090	-0.107	-0.120	
19.095	-0.255	-0.104	
19.100	-0.052	-0.108	
19.105	-0.058	-0.109	
19.110	-0.295	-0.111	
19.115	-0.181	-0.130	
19.120	-0.009	-0.146	
19.125	-0.242	-0.147	
19.130	-0.243	-0.154	
19.135	0.015	-0.163	
19.140	-0.141	-0.153	
19.145	-0.268	-0.145	
19.150	-0.037	-0.147	
19.155	-0.022	-0.137	
19.160	-0.257	-0.123	
19.165	-0.138	-0.124	
19.170	0.065	-0.124	
19.175	-0.200	-0.110	
19.180	-0.208	-0.108	
19.185	0.082	-0.112	
19.190	-0.083	-0.099	
19.195	-0.216	-0.088	
19.200	0.026	-0.089	
19.205	0.052	-0.078	
19.210	-0.203	-0.062	
19.215	-0.080	-0.063	
19.220	0.165	-0.060	
19.225	-0.132	-0.043	
19.230	-0.138	-0.037	
19.235	0.198	-0.037	
19.240	-0.022	-0.019	
19.245	-0.176	-0.008	
19.250	0.087	-0.014	
19.255	0.125	-0.009	
19.260	-0.167	0.003	
19.265	-0.048	-0.003	
19.270	0.189	-0.009	
19.275	-0.130	-0.001	
19.280	-0.170	-0.008	
19.285	0.081	-0.028	
19.290	-0.086	-0.037	
19.295	-0.229	-0.049	
19.300	-0.005	-0.072	
19.305	0.026	-0.079	
19.310	-0.229	-0.077	
19.315	-0.113	-0.087	
19.320	0.111	-0.091	
19.325	-0.164	-0.079	
19.330	-0.184	-0.077	
19.335	0.104	-0.082	
19.340	-0.060	-0.070	
19.345	-0.216	-0.063	
19.350	0.035	-0.068	
19.355	0.094	-0.061	
19.360	-0.187	-0.044	
19.365	-0.064	-0.044	
19.370	0.212	-0.040	
19.375	-0.089	-0.019	
19.380	-0.106	-0.008	
19.385	0.212	-0.005	
19.390	-0.019	0.011	
19.395	-0.185	0.016	
19.400	0.027	-0.001	
19.405	0.065	-0.012	
19.410	-0.213	-0.018	
19.415	-0.119	-0.039	
19.420	0.058	-0.061	
19.425	-0.187	-0.069	
19.430	-0.208	-0.085	
19.435	0.053	-0.102	
19.440	-0.092	-0.101	
19.445	-0.228	-0.098	
19.450	0.013	-0.103	
19.455	0.059	-0.093	
19.460	-0.202	-0.074	
19.465	-0.086	-0.071	
19.470	0.177	-0.066	
19.475	-0.098	-0.043	
19.480	-0.089	-0.029	
19.485	0.339	-0.014	
19.490	0.145	0.030	
19.495	-0.112	0.070	
19.500	0.127	0.079	
19.505	0.081	0.079	
19.510	-0.211	0.068	
19.515	-0.112	0.029	
19.520	0.136	-0.009	
19.525	-0.113	-0.024	
19.530	-0.124	-0.037	
19.535	0.229	-0.043	
19.540	0.055	-0.020	
19.545	-0.127	0.005	
19.550	0.185	0.016	
19.555	0.259	0.041	
19.560	-0.084	0.075	
19.565	0.041	0.083	
19.570	0.348	0.088	
19.575	-0.013	0.108	
19.580	-0.049	0.110	
19.585	0.340	0.102	
19.590	0.166	0.115	
19.595	-0.063	0.129	
19.600	0.284	0.127	
19.605	0.356	0.142	
19.610	-0.019	0.168	
19.615	0.172	0.173	
19.620	0.492	0.181	
19.625	0.146	0.212	
19.630	0.082	0.228	
19.635	0.502	0.231	
19.640	0.316	0.255	
19.645	0.027	0.273	
19.650	0.356	0.265	
19.655	0.408	0.265	
19.660	0.018	0.271	
19.665	0.136	0.251	
19.670	0.397	0.226	
19.675	0.036	0.217	
19.680	-0.040	0.192	
19.685	0.308	0.157	
19.690	0.122	0.143	
19.695	-0.092	0.131	
19.700	0.218	0.108	
19.705	0.290	0.106	
19.710	-0.066	0.119	
19.715	0.075	0.115	
19.720	0.348	0.111	
19.725	0.001	0.124	
19.730	-0.038	0.122	
19.735	0.350	0.111	
19.740	0.177	0.124	
19.745	-0.061	0.137	
19.750	0.273	0.133	
19.755	0.330	0.144	
19.760	-0.034	0.165	
19.765	0.099	0.161	
19.770	0.389	0.155	
19.775	0.082	0.168	
19.780	0.078	0.172	
19.785	0.490	0.176	
19.790	0.305	0.208	
19.795	0.003	0.237	
19.800	0.307	0.236	
19.805	0.339	0.236	
19.810	-0.048	0.235	
19.815	0.065	0.206	
19.820	0.334	0.173	
19.825	-0.045	0.156	
19.830	-0.097	0.126	
19.835	0.246	0.089	
19.840	0.082	0.076	
19.845	-0.112	0.069	
19.850	0.165	0.054	
19.855	0.243	0.058	
19.860	-0.087	0.075	
19.865	0.044	0.075	
19.870	0.343	0.077	
19.875	0.009	0.098	
19.880	-0.016	0.106	
19.885	0.420	0.109	
19.890	0.324	0.143	
19.895	0.079	0.186	
19.900	0.414	0.215	
19.905	0.423	0.250	
19.910	-0.046	0.278	
19.915	0.024	0.256	
19.920	0.276	0.211	
19.925	-0.043	0.175	
19.930	-0.060	0.131	
19.935	0.327	0.092	
19.940	0.180	0.092	
19.945	-0.046	0.105	
19.950	0.264	0.108	
19.955	0.354	0.128	
19.960	0.001	0.159	
19.965	0.180	0.170	
19.970	0.478	0.183	
19.975	0.116	0.213	
19.980	0.036	0.223	
19.985	0.440	0.216	
19.990	0.264	0.227	
19.995	0.013	0.236	
20.000	0.357	0.226	
20.005	0.420	0.233	
20.010	0.042	0.250	
20.015	0.203	0.245	
20.020	0.505	0.242	
20.025	0.162	0.259	
20.030	0.085	0.262	
20.035	0.496	0.253	
20.040	0.333	0.267	
20.045	0.065	0.281	
20.050	0.446	0.278	
20.055	0.541	0.295	
20.060	0.130	0.325	
20.065	0.299	0.330	
20.070	0.568	0.332	
20.075	0.169	0.345	
20.080	0.079	0.334	
20.085	0.440	0.302	
20.090	0.238	0.286	
20.095	-0.028	0.266	
20.100	0.270	0.228	
20.105	0.322	0.206	
20.110	-0.054	0.197	
20.115	0.078	0.169	
20.120	0.360	0.146	
20.125	0.000	0.144	
20.130	-0.049	0.131	
20.135	0.310	0.110	
20.140	0.142	0.113	
20.145	-0.095	0.116	
20.150	0.188	0.103	
20.155	0.256	0.102	
20.160	-0.084	0.111	
20.165	0.055	0.102	
20.170	0.331	0.095	
20.175	-0.017	0.106	
20.180	-0.049	0.104	
20.185	0.340	0.094	
20.190	0.180	0.109	
20.195	-0.058	0.126	
20.200	0.236	0.125	
20.205	0.276	0.133	
20.210	-0.074	0.146	
20.215	0.029	0.132	
20.220	0.263	0.113	
20.225	-0.080	0.104	
20.230	-0.129	0.079	
20.235	0.143	0.044	
20.240	-0.038	0.024	
20.245	-0.203	0.003	
20.250	0.020	-0.027	
20.255	0.104	-0.040	
20.260	-0.170	-0.036	
20.265	-0.072	-0.042	
20.270	0.175	-0.043	
20.275	-0.109	-0.028	
20.280	-0.152	-0.025	
20.285	0.159	-0.030	
20.290	0.029	-0.018	
20.295	-0.135	-0.005	
20.300	0.166	-0.001	
20.305	0.255	0.022	
20.310	-0.093	0.056	
20.315	-0.006	0.065	
20.320	0.238	0.064	
20.325	-0.115	0.068	
20.330	-0.158	0.050	
20.335	0.111	0.018	
20.340	-0.066	-0.002	
20.345	-0.226	-0.022	
20.350	-0.008	-0.053	
20.355	0.082	-0.065	
20.360	-0.161	-0.060	
20.365	-0.045	-0.059	
20.370	0.226	-0.049	
20.375	-0.077	-0.020	
20.380	-0.132	-0.004	
20.385	0.174	-0.004	
20.390	-0.003	0.007	
20.395	-0.173	0.011	
20.400	0.055	-0.003	
20.405	0.124	-0.006	
20.410	-0.161	-0.000	
20.415	-0.069	-0.010	
20.420	0.145	-0.020	
20.425	-0.121	-0.016	
20.430	-0.153	-0.023	
20.435	0.151	-0.035	
20.440	-0.013	-0.028	
20.445	-0.187	-0.022	
20.450	0.038	-0.031	
20.455	0.091	-0.031	
20.460	-0.182	-0.023	
20.465	-0.119	-0.033	
20.470	0.047	-0.049	
20.475	-0.213	-0.059	
20.480	-0.268	-0.083	
20.485	-0.052	-0.116	
20.490	-0.142	-0.135	
20.495	-0.277	-0.147	
20.500	-0.071	-0.162	
20.505	0.000	-0.158	
20.510	-0.220	-0.141	
20.515	-0.130	-0.133	
20.520	0.038	-0.124	
20.525	-0.182	-0.108	
20.530	-0.208	-0.105	
20.535	0.067	-0.109	
20.540	-0.083	-0.098	
20.545	-0.266	-0.091	
20.550	-0.101	-0.104	
20.555	-0.068	-0.116	
20.560	-0.287	-0.125	
20.565	-0.245	-0.147	
20.570	-0.098	-0.171	
20.575	-0.269	-0.184	
20.580	-0.283	-0.199	
20.585	-0.055	-0.211	
20.590	-0.158	-0.203	
20.595	-0.303	-0.193	
20.600	-0.090	-0.192	
20.605	-0.022	-0.179	
20.610	-0.248	-0.157	
20.615	-0.162	-0.149	
20.620	0.010	-0.143	
20.625	-0.196	-0.130	
20.630	-0.213	-0.126	
20.635	0.053	-0.128	
20.640	-0.078	-0.113	
20.645	-0.251	-0.102	
20.650	-0.057	-0.106	
20.655	0.006	-0.106	
20.660	-0.217	-0.098	
20.665	-0.101	-0.101	
20.670	0.131	-0.097	
20.675	-0.144	-0.076	
20.680	-0.181	-0.067	
20.685	0.097	-0.070	
20.690	-0.043	-0.059	
20.695	-0.179	-0.051	
20.700	0.101	-0.051	
20.705	0.197	-0.032	
20.710	-0.118	0.001	
20.715	-0.014	0.014	
20.720	0.247	0.023	
20.725	-0.089	0.041	
20.730	-0.153	0.039	
20.735	0.128	0.018	
20.740	-0.031	0.008	
20.745	-0.179	-0.004	
20.750	0.090	-0.023	
20.755	0.186	-0.019	
20.760	-0.110	0.002	
20.765	0.012	0.012	
20.770	0.310	0.024	
20.775	-0.008	0.055	
20.780	-0.023	0.072	
20.785	0.389	0.083	
20.790	0.185	0.116	
20.795	-0.068	0.143	
20.800	0.233	0.143	
20.805	0.310	0.149	
20.810	-0.054	0.162	
20.815	0.085	0.151	
20.820	0.391	0.142	
20.825	0.050	0.153	
20.830	-0.006	0.153	
20.835	0.420	0.146	
20.840	0.275	0.166	
20.845	0.035	0.192	
20.850	0.394	0.203	
20.855	0.461	0.231	
20.860	0.073	0.266	
20.865	0.252	0.273	
20.870	0.577	0.280	
20.875	0.186	0.305	
20.880	0.105	0.310	
20.885	0.544	0.298	
20.890	0.340	0.308	
20.895	0.015	0.313	
20.900	0.363	0.292	
20.905	0.424	0.281	
20.910	0.012	0.281	
20.915	0.143	0.256	
20.920	0.435	0.230	
20.925	0.058	0.225	
20.930	-0.023	0.205	
20.935	0.347	0.174	
20.940	0.142	0.164	
20.945	-0.110	0.153	
20.950	0.148	0.122	
20.955	0.217	0.103	
20.960	-0.132	0.096	
20.965	-0.035	0.070	
20.970	0.247	0.047	
20.975	-0.077	0.045	
20.980	-0.124	0.034	
20.985	0.204	0.017	
20.990	0.026	0.019	
20.995	-0.142	0.022	
21.000	0.140	0.014	
21.005	0.201	0.023	
21.010	-0.118	0.043	
21.015	-0.006	0.043	
21.020	0.269	0.041	
21.025	-0.080	0.054	
21.030	-0.150	0.048	
21.035	0.107	0.024	
21.040	-0.063	0.007	
21.045	-0.242	-0.014	
21.050	-0.040	-0.049	
21.055	0.046	-0.070	
21.060	-0.205	-0.074	
21.065	-0.097	-0.084	
21.070	0.180	-0.083	
21.075	-0.118	-0.061	
21.080	-0.174	-0.049	
21.085	0.128	-0.050	
21.090	0.000	-0.037	
21.095	-0.167	-0.026	
21.100	0.091	-0.027	
21.105	0.194	-0.013	
21.110	-0.119	0.013	
21.115	-0.016	0.021	
21.120	0.252	0.025	
21.125	-0.089	0.041	
21.130	-0.159	0.038	
21.135	0.096	0.014	
21.140	-0.066	-0.001	
21.145	-0.226	-0.021	
21.150	0.001	-0.050	
21.155	0.122	-0.060	
21.160	-0.158	-0.050	
21.165	-0.055	-0.047	
21.170	0.217	-0.040	
21.175	-0.072	-0.014	
21.180	-0.113	-0.001	
21.185	0.259	0.004	
21.190	0.102	0.029	
21.195	-0.122	0.052	
21.200	0.166	0.054	
21.205	0.281	0.068	
21.210	-0.078	0.093	
21.215	0.035	0.095	
21.220	0.347	0.094	
21.225	-0.013	0.109	
21.230	-0.090	0.107	
21.235	0.273	0.090	
21.240	0.134	0.092	
21.245	-0.092	0.097	
21.250	0.194	0.088	
21.255	0.305	0.095	
21.260	-0.074	0.115	
21.265	0.032	0.112	
21.270	0.327	0.105	
21.275	-0.025	0.112	
21.280	-0.104	0.103	
21.285	0.215	0.079	
21.290	0.064	0.070	
21.295	-0.158	0.062	
21.300	0.038	0.036	
21.305	0.134	0.019	
21.310	-0.161	0.014	
21.315	-0.095	-0.004	
21.320	0.134	-0.022	
21.325	-0.133	-0.025	
21.330	-0.190	-0.037	
21.335	0.094	-0.055	
21.340	-0.011	-0.054	
21.345	-0.202	-0.050	
21.350	0.000	-0.058	
21.355	0.093	-0.056	
21.360	-0.194	-0.045	
21.365	-0.129	-0.051	
21.370	0.139	-0.059	
21.375	-0.101	-0.050	
21.380	-0.181	-0.047	
21.385	0.097	-0.054	
21.390	-0.017	-0.048	
21.395	-0.214	-0.043	
21.400	-0.008	-0.053	
21.405	0.134	-0.053	
21.410	-0.142	-0.038	
21.415	-0.055	-0.033	
21.420	0.223	-0.026	
21.425	-0.090	-0.004	
21.430	-0.161	0.002	
21.435	0.127	-0.008	
21.440	-0.014	-0.008	
21.445	-0.207	-0.012	
21.450	-0.037	-0.033	
21.455	0.059	-0.047	
21.460	-0.200	-0.051	
21.465	-0.138	-0.066	
21.470	0.070	-0.079	
21.475	-0.152	-0.078	
21.480	-0.207	-0.084	
21.485	0.061	-0.094	
21.490	-0.022	-0.087	
21.495	-0.182	-0.075	
21.500	0.036	-0.071	
21.505	0.140	-0.055	
21.510	-0.144	-0.029	
21.515	-0.028	-0.019	
21.520	0.343	-0.004	
21.525	0.038	0.037	
21.530	-0.058	0.066	
21.535	0.236	0.076	
21.540	0.032	0.087	
21.545	-0.203	0.081	
21.550	-0.031	0.044	
21.555	0.084	0.010	
21.560	-0.174	-0.011	
21.565	-0.074	-0.035	
21.570	0.218	-0.045	
21.575	-0.063	-0.028	
21.580	-0.121	-0.015	
21.585	0.238	-0.010	
21.590	0.127	0.017	
21.595	-0.103	0.045	
21.600	0.171	0.055	
21.605	0.313	0.075	
21.610	-0.046	0.106	
21.615	0.062	0.114	
21.620	0.383	0.119	
21.625	0.044	0.139	
21.630	-0.043	0.143	
21.635	0.270	0.130	
21.640	0.114	0.127	
21.645	-0.115	0.120	
21.650	0.134	0.095	
21.655	0.253	0.084	
21.660	-0.109	0.088	
21.665	-0.055	0.073	
21.670	0.230	0.052	
21.675	-0.064	0.048	
21.680	-0.135	0.036	
21.685	0.185	0.016	
21.690	0.055	0.017	
21.695	-0.176	0.020	
21.700	0.026	0.005	
21.705	0.148	-0.002	
21.710	-0.156	0.002	
21.715	-0.097	-0.008	
21.720	0.165	-0.020	
21.725	-0.109	-0.017	
21.730	-0.173	-0.022	
21.735	0.124	-0.036	
21.740	0.046	-0.031	
21.745	-0.107	-0.018	
21.750	0.339	0.000	
21.755	0.602	0.063	
21.760	0.278	0.166	
21.765	0.479	0.262	
21.770	0.883	0.358	
21.775	0.553	0.469	
21.780	0.376	0.546	
21.785	0.727	0.576	
21.790	0.495	0.592	
21.795	0.087	0.574	
21.800	0.336	0.506	
21.805	0.406	0.432	
21.810	-0.040	0.368	
21.815	0.006	0.283	
21.820	0.305	0.202	
21.825	-0.034	0.152	
21.830	-0.135	0.104	
21.835	0.125	0.053	
21.840	-0.008	0.023	
21.845	-0.232	-0.002	
21.850	-0.092	-0.040	
21.855	-0.046	-0.072	
21.860	-0.284	-0.097	
21.865	-0.231	-0.130	
21.870	-0.063	-0.159	
21.875	-0.255	-0.173	
21.880	-0.330	-0.189	
21.885	-0.122	-0.210	
21.890	-0.187	-0.217	
21.895	-0.346	-0.219	
21.900	-0.168	-0.228	
21.905	-0.071	-0.225	
21.910	-0.283	-0.209	
21.915	-0.217	-0.202	
21.920	0.012	-0.194	
21.925	-0.165	-0.171	
21.930	-0.203	-0.152	
21.935	0.093	-0.137	
21.940	0.015	-0.104	
21.945	-0.211	-0.073	
21.950	-0.058	-0.066	
21.955	0.013	-0.064	
21.960	-0.252	-0.065	
21.965	-0.193	-0.085	
21.970	0.055	-0.106	
21.975	-0.122	-0.106	
21.980	-0.162	-0.103	
21.985	0.181	-0.095	
21.990	0.091	-0.060	
21.995	-0.119	-0.020	
22.000	0.133	0.002	
22.005	0.288	0.033	
22.010	-0.061	0.072	
22.015	0.041	0.087	
22.020	0.398	0.098	
22.025	0.091	0.128	
22.030	-0.019	0.145	
22.035	0.369	0.146	
22.040	0.263	0.165	
22.045	-0.040	0.183	
22.050	0.269	0.179	
22.055	0.427	0.187	
22.060	0.024	0.209	
22.065	0.128	0.209	
22.070	0.455	0.205	
22.075	0.116	0.218	
22.080	-0.017	0.215	
22.085	0.334	0.193	
22.090	0.189	0.186	
22.095	-0.103	0.176	
22.100	0.104	0.142	
22.105	0.174	0.113	
22.110	-0.152	0.091	
22.115	-0.119	0.052	
22.120	0.119	0.011	
22.125	-0.127	-0.012	
22.130	-0.194	-0.036	
22.135	0.065	-0.062	
22.140	-0.032	-0.068	
22.145	-0.236	-0.069	
22.150	-0.060	-0.083	
22.155	0.053	-0.088	
22.160	-0.200	-0.082	
22.165	-0.150	-0.086	
22.170	0.067	-0.093	
22.175	-0.150	-0.086	
22.180	-0.226	-0.089	
22.185	0.070	-0.098	
22.190	0.021	-0.087	
22.195	-0.152	-0.068	
22.200	0.108	-0.054	
22.205	0.296	-0.020	
22.210	-0.060	0.029	
22.215	0.067	0.060	
22.220	0.444	0.088	
22.225	0.108	0.134	
22.230	0.015	0.163	
22.235	0.492	0.177	
22.240	0.434	0.217	
22.245	0.128	0.265	
22.250	0.437	0.292	
22.255	0.519	0.321	
22.260	0.050	0.347	
22.265	0.120	0.330	
22.270	0.429	0.293	
22.275	0.067	0.270	
22.280	-0.057	0.232	
22.285	0.314	0.183	
22.290	0.166	0.159	
22.295	-0.118	0.142	
22.300	0.127	0.110	
22.305	0.288	0.094	
22.310	-0.057	0.098	
22.315	0.015	0.091	
22.320	0.345	0.085	
22.325	0.017	0.100	
22.330	-0.058	0.104	
22.335	0.348	0.098	
22.340	0.252	0.118	
22.345	-0.031	0.144	
22.350	0.275	0.151	
22.355	0.382	0.169	
22.360	-0.052	0.192	
22.365	0.013	0.181	
22.370	0.339	0.157	
22.375	-0.022	0.147	
22.380	-0.119	0.123	
22.385	0.157	0.084	
22.390	0.053	0.060	
22.395	-0.164	0.042	
22.400	0.061	0.016	
22.405	0.313	0.012	
22.410	-0.066	0.037	
22.415	-0.026	0.049	
22.420	0.230	0.052	
22.425	-0.075	0.060	
22.430	-0.155	0.049	
22.435	0.136	0.024	
22.440	-0.011	0.011	
22.445	-0.203	-0.001	
22.450	-0.016	-0.027	
22.455	0.120	-0.040	
22.460	-0.162	-0.036	
22.465	-0.090	-0.041	
22.470	0.172	-0.044	
22.475	-0.116	-0.031	
22.480	-0.176	-0.030	
22.485	0.159	-0.038	
22.490	0.042	-0.026	
22.495	-0.162	-0.012	
22.500	0.076	-0.012	
22.505	0.269	0.002	
22.510	-0.113	0.031	
22.515	-0.052	0.040	
22.520	0.250	0.038	
22.525	-0.057	0.048	
22.530	-0.145	0.044	
22.535	0.149	0.025	
22.540	0.036	0.019	
22.545	-0.173	0.015	
22.550	0.032	-0.002	
22.555	0.142	-0.009	
22.560	-0.179	-0.004	
22.565	-0.107	-0.016	
22.570	0.154	-0.030	
22.575	-0.122	-0.028	
22.580	-0.197	-0.035	
22.585	0.091	-0.051	
22.590	-0.016	-0.052	
22.595	-0.197	-0.048	
22.600	0.030	-0.055	
22.605	0.198	-0.046	
22.610	-0.109	-0.018	
22.615	-0.031	-0.003	
22.620	0.313	0.011	
22.625	0.010	0.044	
22.630	-0.109	0.063	
22.635	0.186	0.059	
22.640	0.030	0.060	
22.645	-0.181	0.053	
22.650	0.047	0.026	
22.655	0.186	0.013	
22.660	-0.162	0.016	
22.665	-0.100	0.003	
22.670	0.204	-0.011	
22.675	-0.081	-0.005	
22.680	-0.164	-0.007	
22.685	0.159	-0.018	
22.690	0.021	-0.012	
22.695	-0.211	-0.008	
22.700	-0.028	-0.024	
22.705	0.093	-0.035	
22.710	-0.213	-0.037	
22.715	-0.161	-0.054	
22.720	0.082	-0.073	
22.725	-0.145	-0.075	
22.730	-0.223	-0.083	
22.735	0.068	-0.095	
22.740	0.009	-0.087	
22.745	-0.176	-0.071	
22.750	0.035	-0.065	
22.755	0.191	-0.046	
22.760	-0.145	-0.015	
22.765	-0.098	-0.007	
22.770	0.143	-0.010	
22.775	-0.135	-0.008	
22.780	-0.249	-0.022	
22.785	-0.038	-0.056	
22.790	-0.104	-0.083	
22.795	-0.281	-0.105	
22.800	-0.095	-0.131	
22.805	0.047	-0.140	
22.810	-0.205	-0.128	
22.815	-0.150	-0.122	
22.820	0.137	-0.113	
22.825	-0.103	-0.087	
22.830	-0.167	-0.069	
22.835	0.171	-0.060	
22.840	0.096	-0.032	
22.845	-0.145	-0.002	
22.850	0.053	0.007	
22.855	0.183	0.016	
22.860	-0.144	0.031	
22.865	-0.075	0.024	
22.870	0.241	0.014	
22.875	-0.049	0.023	
22.880	-0.127	0.024	
22.885	0.204	0.015	
22.890	0.101	0.026	
22.895	-0.164	0.037	
22.900	0.039	0.028	
22.905	0.243	0.025	
22.910	-0.104	0.038	
22.915	-0.054	0.037	
22.920	0.284	0.033	
22.925	-0.002	0.048	
22.930	-0.124	0.054	
22.935	0.188	0.044	
22.940	0.061	0.046	
22.945	-0.171	0.044	
22.950	0.006	0.023	
22.955	0.172	0.008	
22.960	-0.156	0.009	
22.965	-0.110	-0.004	
22.970	0.195	-0.018	
22.975	-0.075	-0.012	
22.980	-0.150	-0.012	
22.985	0.203	-0.017	
22.990	0.130	0.001	
22.995	-0.139	0.025	
23.000	0.061	0.028	
23.005	0.269	0.036	
23.010	-0.061	0.058	
23.015	0.010	0.065	
23.020	0.406	0.074	
23.025	0.078	0.106	
23.030	-0.049	0.126	
23.035	0.372	0.129	
23.040	0.290	0.152	
23.045	-0.061	0.176	
23.050	0.133	0.170	
23.055	0.322	0.159	
23.060	-0.028	0.159	
23.065	0.078	0.146	
23.070	0.475	0.140	
23.075	0.137	0.165	
23.080	-0.031	0.180	
23.085	0.340	0.173	
23.090	0.221	0.178	
23.095	-0.113	0.179	
23.100	0.093	0.150	
23.105	0.253	0.123	
23.110	-0.115	0.110	
23.115	-0.078	0.080	
23.120	0.236	0.049	
23.125	-0.042	0.041	
23.130	-0.132	0.031	
23.135	0.214	0.016	
23.140	0.140	0.025	
23.145	-0.129	0.042	
23.150	0.076	0.041	
23.155	0.272	0.046	
23.160	-0.090	0.065	
23.165	-0.026	0.065	
23.170	0.359	0.063	
23.175	0.047	0.084	
23.180	-0.116	0.095	
23.185	0.127	0.080	
23.190	-0.002	0.064	
23.195	-0.263	0.038	
23.200	-0.126	-0.012	
23.205	-0.020	-0.059	
23.210	-0.257	-0.091	
23.215	-0.208	-0.124	
23.220	0.046	-0.146	
23.225	-0.139	-0.142	
23.230	-0.231	-0.135	
23.235	0.039	-0.133	
23.240	-0.005	-0.114	
23.245	-0.225	-0.093	
23.250	-0.078	-0.090	
23.255	0.062	-0.087	
23.260	-0.210	-0.077	
23.265	-0.173	-0.082	
23.270	0.090	-0.091	
23.275	-0.138	-0.085	
23.280	-0.234	-0.085	
23.285	0.030	-0.096	
23.290	0.001	-0.092	
23.295	-0.207	-0.081	
23.300	-0.022	-0.081	
23.305	0.206	-0.067	
23.310	-0.112	-0.036	
23.315	-0.075	-0.018	
23.320	0.276	-0.005	
23.325	0.017	0.025	
23.330	-0.112	0.044	
23.335	0.220	0.046	
23.340	0.125	0.059	
23.345	-0.170	0.069	
23.350	-0.019	0.050	
23.355	0.156	0.029	
23.360	-0.187	0.018	
23.365	-0.200	-0.010	
23.370	-0.020	-0.050	
23.375	-0.214	-0.081	
23.380	-0.310	-0.117	
23.385	-0.072	-0.154	
23.390	-0.086	-0.169	
23.395	-0.272	-0.169	
23.400	-0.107	-0.172	
23.405	0.073	-0.161	
23.410	-0.173	-0.132	
23.415	-0.144	-0.112	
23.420	0.127	-0.097	
23.425	-0.103	-0.072	
23.430	-0.219	-0.060	
23.435	0.012	-0.067	
23.440	-0.026	-0.069	
23.445	-0.251	-0.070	
23.450	-0.081	-0.086	
23.455	0.108	-0.092	
23.460	-0.161	-0.079	
23.465	-0.132	-0.074	
23.470	0.156	-0.070	
23.475	-0.072	-0.051	
23.480	-0.152	-0.038	
23.485	0.217	-0.032	
23.490	0.214	-0.000	
23.495	-0.121	0.039	
23.500	0.038	0.052	
23.505	0.214	0.057	
23.510	-0.145	0.063	
23.515	-0.133	0.045	
23.520	0.125	0.014	
23.525	-0.104	-0.003	
23.530	-0.231	-0.025	
23.535	0.038	-0.056	
23.540	0.027	-0.067	
23.545	-0.210	-0.065	
23.550	-0.066	-0.073	
23.555	0.081	-0.076	
23.560	-0.207	-0.068	
23.565	-0.197	-0.076	
23.570	0.070	-0.091	
23.575	-0.124	-0.090	
23.580	-0.228	-0.091	
23.585	0.082	-0.098	
23.590	0.127	-0.080	
23.595	-0.113	-0.047	
23.600	0.088	-0.022	
23.605	0.269	0.009	
23.610	-0.139	0.046	
23.615	-0.162	0.047	
23.620	0.076	0.021	
23.625	-0.126	-0.002	
23.630	-0.236	-0.032	
23.635	0.053	-0.066	
23.640	0.056	-0.073	
23.645	-0.171	-0.064	
23.650	0.041	-0.059	
23.655	0.276	-0.037	
23.660	-0.093	0.004	
23.665	-0.078	0.024	
23.670	0.273	0.030	
23.675	-0.014	0.049	
23.680	-0.145	0.053	
23.685	0.175	0.040	
23.690	0.146	0.042	
23.695	-0.142	0.050	
23.700	0.053	0.041	
23.705	0.307	0.042	
23.710	-0.054	0.062	
23.715	-0.022	0.069	
23.720	0.366	0.072	
23.725	0.108	0.098	
23.730	-0.052	0.117	
23.735	0.325	0.120	
23.740	0.293	0.141	
23.745	-0.068	0.164	
23.750	0.145	0.159	
23.755	0.362	0.154	
23.760	-0.046	0.161	
23.765	-0.040	0.146	
23.770	0.313	0.120	
23.775	0.010	0.112	
23.780	-0.148	0.097	
23.785	0.134	0.064	
23.790	0.104	0.046	
23.795	-0.173	0.037	
23.800	-0.023	0.013	
23.805	0.169	-0.003	
23.810	-0.138	-0.002	
23.815	-0.147	-0.013	
23.820	0.122	-0.031	
23.825	-0.089	-0.033	
23.830	-0.216	-0.041	
23.835	0.055	-0.058	
23.840	0.059	-0.059	
23.845	-0.190	-0.049	
23.850	-0.029	-0.051	
23.855	0.208	-0.044	
23.860	-0.118	-0.021	
23.865	-0.107	-0.012	
23.870	0.227	-0.010	
23.875	-0.002	0.009	
23.880	-0.132	0.021	
23.885	0.169	0.018	
23.890	0.131	0.029	
23.895	-0.155	0.042	
23.900	0.018	0.033	
23.905	0.275	0.030	
23.910	-0.069	0.046	
23.915	-0.054	0.049	
23.920	0.311	0.048	
23.925	0.018	0.065	
23.930	-0.136	0.072	
23.935	0.134	0.056	
23.940	0.070	0.047	
23.945	-0.202	0.038	
23.950	-0.081	0.007	
23.955	0.082	-0.023	
23.960	-0.200	-0.038	
23.965	-0.207	-0.063	
23.970	0.052	-0.090	
23.975	-0.139	-0.097	
23.980	-0.258	-0.106	
23.985	-0.026	-0.122	
23.990	-0.022	-0.122	
23.995	-0.228	-0.114	
24.000	-0.075	-0.114	
24.005	0.149	-0.104	
24.010	-0.116	-0.075	
24.015	-0.086	-0.054	
24.020	0.263	-0.035	
24.025	0.001	0.001	
24.030	-0.179	0.022	
24.035	0.065	0.015	
24.040	0.023	0.008	
24.045	-0.254	-0.004	
24.050	-0.124	-0.037	
24.055	0.052	-0.067	
24.060	-0.205	-0.080	
24.065	-0.173	-0.096	
24.070	0.142	-0.105	
24.075	-0.057	-0.088	
24.080	-0.174	-0.070	
24.085	0.111	-0.062	
24.090	0.134	-0.038	
24.095	-0.150	-0.009	
24.100	0.012	0.000	
24.105	0.246	0.010	
24.110	-0.119	0.031	
24.115	-0.106	0.031	
24.120	0.214	0.020	
24.125	-0.032	0.024	
24.130	-0.152	0.021	
24.135	0.168	0.009	
24.140	0.186	0.018	
24.145	-0.119	0.038	
24.150	0.044	0.041	
24.155	0.296	0.047	
24.160	-0.049	0.068	
24.165	-0.032	0.074	
24.170	0.363	0.074	
24.175	0.105	0.098	
24.180	-0.084	0.114	
24.185	0.249	0.109	
24.190	0.230	0.117	
24.195	-0.107	0.126	
24.200	0.053	0.111	
24.205	0.284	0.096	
24.210	-0.086	0.096	
24.215	-0.109	0.078	
24.220	0.178	0.049	
24.225	-0.064	0.034	
24.230	-0.220	0.013	
24.235	-0.006	-0.024	
24.240	-0.023	-0.049	
24.245	-0.257	-0.067	
24.250	-0.126	-0.094	
24.255	0.044	-0.111	
24.260	-0.193	-0.110	
24.265	-0.179	-0.113	
24.270	0.091	-0.115	
24.275	-0.110	-0.099	
24.280	-0.223	-0.090	
24.285	0.020	-0.093	
24.290	0.020	-0.085	
24.295	-0.217	-0.073	
24.300	-0.075	-0.076	
24.305	0.125	-0.075	
24.310	-0.161	-0.060	
24.315	-0.132	-0.056	
24.320	0.227	-0.053	
24.325	-0.023	-0.028	
24.330	-0.185	-0.011	
24.335	0.021	-0.017	
24.340	-0.006	-0.024	
24.345	-0.234	-0.034	
24.350	-0.092	-0.058	
24.355	0.090	-0.075	
24.360	-0.217	-0.075	
24.365	-0.214	-0.087	
24.370	0.030	-0.105	
24.375	-0.138	-0.108	
24.380	-0.274	-0.114	
24.385	-0.074	-0.130	
24.390	-0.084	-0.138	
24.395	-0.286	-0.140	
24.400	-0.142	-0.153	
24.405	0.030	-0.155	
24.410	-0.211	-0.142	
24.415	-0.185	-0.135	
24.420	0.149	-0.127	
24.425	-0.026	-0.096	
24.430	-0.138	-0.064	
24.435	0.211	-0.041	
24.440	0.204	0.000	
24.445	-0.129	0.043	
24.450	0.044	0.056	
24.455	0.258	0.062	
24.460	-0.122	0.074	
24.465	-0.121	0.061	
24.470	0.209	0.036	
24.475	0.000	0.031	
24.480	-0.115	0.027	
24.485	0.276	0.022	
24.490	0.290	0.049	
24.495	-0.043	0.091	
24.500	0.235	0.115	
24.505	0.521	0.149	
24.510	0.111	0.203	
24.515	0.113	0.231	
24.520	0.475	0.240	
24.525	0.201	0.258	
24.530	-0.026	0.259	
24.535	0.331	0.233	
24.540	0.324	0.222	
24.545	-0.051	0.219	
24.550	0.171	0.195	
24.555	0.443	0.181	
24.560	0.032	0.191	
24.565	0.047	0.186	
24.570	0.457	0.176	
24.575	0.201	0.192	
24.580	-0.022	0.204	
24.585	0.365	0.196	
24.590	0.362	0.205	
24.595	-0.025	0.221	
24.600	0.206	0.212	
24.605	0.447	0.207	
24.610	0.024	0.218	
24.615	0.018	0.207	
24.620	0.418	0.186	
24.625	0.148	0.187	
24.630	-0.071	0.183	
24.635	0.266	0.160	
24.640	0.267	0.152	
24.645	-0.090	0.153	
24.650	0.081	0.133	
24.655	0.331	0.117	
24.660	-0.055	0.120	
24.665	-0.074	0.105	
24.670	0.270	0.082	
24.675	0.006	0.077	
24.680	-0.155	0.067	
24.685	0.134	0.041	
24.690	0.128	0.032	
24.695	-0.194	0.031	
24.700	-0.089	0.008	
24.705	0.096	-0.017	
24.710	-0.176	-0.030	
24.715	-0.156	-0.049	
24.720	0.162	-0.065	
24.725	-0.022	-0.054	
24.730	-0.165	-0.041	
24.735	0.162	-0.036	
24.740	0.208	-0.010	
24.745	-0.106	0.027	
24.750	0.050	0.042	
24.755	0.293	0.055	
24.760	-0.087	0.076	
24.765	-0.121	0.073	
24.770	0.223	0.053	
24.775	-0.046	0.046	
24.780	-0.214	0.030	
24.785	0.015	-0.004	
24.790	-0.016	-0.030	
24.795	-0.263	-0.050	
24.800	-0.144	-0.082	
24.805	0.029	-0.107	
24.810	-0.184	-0.112	
24.815	-0.182	-0.118	
24.820	0.105	-0.119	
24.825	-0.083	-0.100	
24.830	-0.222	-0.086	
24.835	0.052	-0.085	
24.840	0.119	-0.068	
24.845	-0.147	-0.041	
24.850	0.088	-0.024	
24.855	0.368	0.007	
24.860	-0.048	0.057	
24.865	-0.089	0.079	
24.870	0.250	0.077	
24.875	-0.022	0.080	
24.880	-0.194	0.067	
24.885	0.087	0.033	
24.890	0.140	0.016	
24.895	-0.155	0.015	
24.900	0.000	0.003	
24.905	0.290	0.003	
24.910	-0.064	0.027	
24.915	-0.061	0.038	
24.920	0.351	0.044	
24.925	0.128	0.074	
24.930	-0.042	0.101	
24.935	0.313	0.113	
24.940	0.316	0.139	
24.945	-0.072	0.167	
24.950	0.082	0.161	
24.955	0.342	0.149	
24.960	-0.038	0.149	
24.965	-0.040	0.132	
24.970	0.350	0.110	
24.975	0.146	0.116	
24.980	-0.072	0.124	
24.985	0.263	0.117	
24.990	0.307	0.127	
24.995	-0.066	0.146	
25.000	0.108	0.141	
25.005	0.369	0.137	
25.010	-0.014	0.148	
25.015	-0.040	0.140	
25.020	0.340	0.122	
25.025	0.061	0.122	
25.030	-0.141	0.115	
25.035	0.125	0.086	
25.040	0.131	0.067	
25.045	-0.165	0.055	
25.050	-0.051	0.028	
25.055	0.185	0.005	
25.060	-0.142	0.002	
25.065	-0.165	-0.013	
25.070	0.143	-0.033	
25.075	-0.058	-0.034	
25.080	-0.223	-0.037	
25.085	-0.014	-0.056	
25.090	0.021	-0.065	
25.095	-0.219	-0.067	
25.100	-0.080	-0.078	
25.105	0.145	-0.080	
25.110	-0.145	-0.063	
25.115	-0.168	-0.058	
25.120	0.101	-0.062	
25.125	-0.080	-0.055	
25.130	-0.217	-0.054	
25.135	0.033	-0.066	
25.140	0.088	-0.062	
25.145	-0.199	-0.049	
25.150	-0.078	-0.051	
25.155	0.208	-0.049	
25.160	-0.087	-0.028	
25.165	-0.116	-0.016	
25.170	0.188	-0.013	
25.175	-0.032	0.001	
25.180	-0.205	0.004	
25.185	0.000	-0.016	
25.190	0.009	-0.032	
25.195	-0.252	-0.044	
25.200	-0.162	-0.073	
25.205	-0.005	-0.100	
25.210	-0.229	-0.114	
25.215	-0.258	-0.133	
25.220	-0.025	-0.153	
25.225	-0.141	-0.156	
25.230	-0.272	-0.155	
25.235	-0.049	-0.160	
25.240	0.017	-0.149	
25.245	-0.231	-0.128	
25.250	-0.132	-0.120	
25.255	0.082	-0.113	
25.260	-0.158	-0.095	
25.265	-0.162	-0.086	
25.270	0.183	-0.080	
25.275	0.007	-0.053	
25.280	-0.184	-0.029	
25.285	0.001	-0.028	
25.290	-0.003	-0.031	
25.295	-0.281	-0.040	
25.300	-0.197	-0.072	
25.305	-0.013	-0.107	
25.310	-0.213	-0.124	
25.315	-0.223	-0.140	
25.320	0.079	-0.149	
25.325	-0.051	-0.131	
25.330	-0.188	-0.108	
25.335	0.058	-0.094	
25.340	0.070	-0.069	
25.345	-0.205	-0.045	
25.350	-0.112	-0.046	
25.355	0.091	-0.053	
25.360	-0.162	-0.051	
25.365	-0.173	-0.059	
25.370	0.154	-0.069	
25.375	0.006	-0.054	
25.380	-0.173	-0.037	
25.385	0.075	-0.035	
25.390	0.154	-0.021	
25.395	-0.161	0.000	
25.400	-0.052	0.000	
25.405	0.258	-0.000	
25.410	-0.052	0.019	
25.415	-0.092	0.027	
25.420	0.267	0.028	
25.425	0.101	0.048	
25.430	-0.116	0.065	
25.435	0.159	0.063	
25.440	0.250	0.071	
25.445	-0.090	0.088	
25.450	0.023	0.085	
25.455	0.318	0.080	
25.460	-0.037	0.091	
25.465	-0.083	0.088	
25.470	0.267	0.073	
25.475	0.085	0.077	
25.480	-0.138	0.078	
25.485	0.117	0.061	
25.490	0.198	0.055	
25.495	-0.147	0.059	
25.500	-0.045	0.043	
25.505	0.249	0.028	
25.510	-0.071	0.033	
25.515	-0.132	0.029	
25.520	0.183	0.014	
25.525	0.035	0.017	
25.530	-0.142	0.020	
25.535	0.117	0.012	
25.540	0.197	0.019	
25.545	-0.130	0.037	
25.550	-0.037	0.034	
25.555	0.276	0.030	
25.560	-0.038	0.044	
25.565	-0.086	0.048	
25.570	0.275	0.044	
25.575	0.127	0.062	
25.580	-0.090	0.079	
25.585	0.246	0.082	
25.590	0.368	0.103	
25.595	-0.022	0.139	
25.600	0.091	0.150	
25.605	0.379	0.153	
25.610	0.004	0.165	
25.615	-0.083	0.155	
25.620	0.229	0.124	
25.625	0.038	0.105	
25.630	-0.176	0.083	
25.635	0.015	0.042	
25.640	0.120	0.014	
25.645	-0.165	0.001	
25.650	-0.064	-0.018	
25.655	0.217	-0.028	
25.660	-0.087	-0.014	
25.665	-0.135	-0.009	
25.670	0.189	-0.013	
25.675	0.049	0.001	
25.680	-0.139	0.015	
25.685	0.165	0.016	
25.690	0.336	0.037	
25.695	0.007	0.080	
25.700	0.197	0.112	
25.705	0.496	0.148	
25.710	0.044	0.195	
25.715	-0.107	0.205	
25.720	0.110	0.169	
25.725	-0.051	0.123	
25.730	-0.220	0.068	
25.735	-0.009	0.005	
25.740	0.134	-0.032	
25.745	-0.129	-0.038	
25.750	-0.028	-0.041	
25.755	0.287	-0.030	
25.760	-0.020	0.005	
25.765	-0.068	0.030	
25.770	0.296	0.043	
25.775	0.166	0.073	
25.780	-0.084	0.100	
25.785	0.203	0.104	
25.790	0.316	0.116	
25.795	-0.066	0.136	
25.800	0.032	0.131	
25.805	0.359	0.120	
25.810	0.027	0.129	
25.815	-0.045	0.126	
25.820	0.351	0.115	
25.825	0.221	0.129	
25.830	-0.043	0.146	
25.835	0.270	0.147	
25.840	0.414	0.162	
25.845	0.017	0.191	
25.850	0.163	0.198	
25.855	0.487	0.203	
25.860	0.122	0.226	
25.865	-0.017	0.229	
25.870	0.334	0.207	
25.875	0.163	0.196	
25.880	-0.101	0.180	
25.885	0.174	0.145	
25.890	0.246	0.124	
25.895	-0.124	0.116	
25.900	-0.049	0.088	
25.905	0.246	0.059	
25.910	-0.052	0.052	
25.915	-0.121	0.040	
25.920	0.220	0.023	
25.925	0.085	0.029	
25.930	-0.124	0.039	
25.935	0.148	0.036	
25.940	0.276	0.049	
25.945	-0.080	0.074	
25.950	0.000	0.079	
25.955	0.302	0.077	
25.960	-0.022	0.088	
25.965	-0.090	0.085	
25.970	0.278	0.072	
25.975	0.116	0.079	
25.980	-0.113	0.086	
25.985	0.146	0.075	
25.990	0.258	0.076	
25.995	-0.090	0.089	
26.000	-0.009	0.082	
26.005	0.305	0.072	
26.010	0.000	0.082	
26.015	-0.048	0.084	
26.020	0.339	0.080	
26.025	0.171	0.101	
26.030	-0.100	0.119	
26.035	0.122	0.110	
26.040	0.208	0.102	
26.045	-0.133	0.098	
26.050	-0.063	0.072	
26.055	0.203	0.043	
26.060	-0.090	0.033	
26.065	-0.159	0.015	
26.070	0.136	-0.009	
26.075	0.013	-0.013	
26.080	-0.177	-0.014	
26.085	0.047	-0.025	
26.090	0.172	-0.022	
26.095	-0.141	-0.005	
26.100	-0.051	-0.003	
26.105	0.264	-0.000	
26.110	-0.025	0.022	
26.115	-0.080	0.035	
26.120	0.322	0.041	
26.125	0.227	0.073	
26.130	-0.058	0.109	
26.135	0.183	0.120	
26.140	0.244	0.128	
26.145	-0.138	0.134	
26.150	-0.110	0.105	
26.155	0.110	0.060	
26.160	-0.127	0.026	
26.165	-0.173	-0.010	
26.170	0.154	-0.041	
26.175	0.061	-0.039	
26.180	-0.150	-0.025	
26.185	0.079	-0.021	
26.190	0.226	-0.005	
26.195	-0.119	0.023	
26.200	-0.051	0.030	
26.205	0.243	0.029	
26.210	-0.051	0.040	
26.215	-0.121	0.040	
26.220	0.223	0.029	
26.225	0.079	0.037	
26.230	-0.138	0.045	
26.235	0.107	0.037	
26.240	0.252	0.041	
26.245	-0.095	0.059	
26.250	-0.002	0.060	
26.255	0.314	0.059	
26.260	-0.020	0.076	
26.265	-0.142	0.076	
26.270	0.128	0.054	
26.275	0.012	0.039	
26.280	-0.181	0.023	
26.285	0.061	-0.002	
26.290	0.238	-0.006	
26.295	-0.100	0.013	
26.300	-0.008	0.022	
26.305	0.267	0.029	
26.310	-0.069	0.048	
26.315	-0.165	0.047	
26.320	0.142	0.026	
26.325	0.035	0.018	
26.330	-0.171	0.012	
26.335	0.062	-0.004	
26.340	0.189	-0.005	
26.345	-0.126	0.010	
26.350	-0.058	0.010	
26.355	0.238	0.008	
26.360	-0.058	0.022	
26.365	-0.126	0.025	
26.370	0.195	0.016	
26.375	0.049	0.024	
26.380	-0.158	0.029	
26.385	0.067	0.017	
26.390	0.197	0.016	
26.395	-0.122	0.028	
26.400	-0.057	0.024	
26.405	0.263	0.019	
26.410	-0.075	0.031	
26.415	-0.188	0.028	
26.420	0.026	0.001	
26.425	-0.057	-0.021	
26.430	-0.196	-0.041	
26.435	0.075	-0.061	
26.440	0.255	-0.049	
26.445	-0.093	-0.012	
26.450	-0.006	0.011	
26.455	0.296	0.029	
26.460	-0.046	0.058	
26.465	-0.132	0.064	
26.470	0.169	0.049	
26.475	0.033	0.044	
26.480	-0.182	0.036	
26.485	-0.002	0.010	
26.490	0.113	-0.008	
26.495	-0.193	-0.014	
26.500	-0.167	-0.035	
26.505	0.009	-0.062	
26.510	-0.211	-0.081	
26.515	-0.268	-0.107	
26.520	-0.006	-0.134	
26.525	-0.074	-0.139	
26.530	-0.255	-0.135	
26.535	-0.055	-0.138	
26.540	0.094	-0.126	
26.545	-0.158	-0.098	
26.550	-0.078	-0.080	
26.555	0.088	-0.067	
26.560	-0.214	-0.053	
26.565	-0.339	-0.068	
26.570	-0.184	-0.113	
26.575	-0.283	-0.159	
26.580	-0.443	-0.208	
26.585	-0.260	-0.259	
26.590	-0.167	-0.289	
26.595	-0.349	-0.294	
26.600	-0.236	-0.293	
26.605	-0.006	-0.276	
26.610	-0.165	-0.236	
26.615	-0.203	-0.198	
26.620	0.113	-0.164	
26.625	0.039	-0.114	
26.630	-0.142	-0.066	
26.635	0.134	-0.036	
26.640	0.296	0.006	
26.645	-0.052	0.056	
26.650	0.046	0.081	
26.655	0.389	0.098	
26.660	0.067	0.130	
26.665	-0.032	0.144	
26.670	0.379	0.142	
26.675	0.266	0.160	
26.680	-0.016	0.181	
26.685	0.311	0.183	
26.690	0.446	0.199	
26.695	0.027	0.227	
26.700	0.146	0.228	
26.705	0.478	0.224	
26.710	0.137	0.238	
26.715	0.050	0.237	
26.720	0.443	0.225	
26.725	0.310	0.235	
26.730	-0.013	0.245	
26.735	0.305	0.232	
26.740	0.377	0.227	
26.745	-0.101	0.228	
26.750	-0.101	0.189	
26.755	0.101	0.126	
26.760	-0.148	0.069	
26.765	-0.257	0.008	
26.770	-0.086	-0.058	
26.775	-0.181	-0.108	
26.780	-0.350	-0.150	
26.785	-0.171	-0.191	
26.790	-0.052	-0.210	
26.795	-0.274	-0.206	
26.800	-0.190	-0.203	
26.805	0.047	-0.192	
26.810	-0.147	-0.162	
26.815	-0.188	-0.137	
26.820	0.131	-0.118	
26.825	0.062	-0.081	
26.830	-0.121	-0.041	
26.835	0.186	-0.014	
26.840	0.371	0.031	
26.845	0.006	0.090	
26.850	0.171	0.128	
26.855	0.582	0.166	
26.860	0.282	0.229	
26.865	0.194	0.279	
26.870	0.594	0.311	
26.875	0.472	0.354	
26.880	0.140	0.388	
26.885	0.409	0.386	
26.890	0.521	0.383	
26.895	0.062	0.380	
26.900	0.094	0.343	
26.905	0.402	0.291	
26.910	0.061	0.256	
26.915	-0.038	0.214	
26.920	0.360	0.170	
26.925	0.259	0.160	
26.930	-0.019	0.166	
26.935	0.285	0.161	
26.940	0.415	0.174	
26.945	-0.003	0.199	
26.950	0.117	0.199	
26.955	0.489	0.196	
26.960	0.160	0.216	
26.965	0.061	0.226	
26.970	0.533	0.227	
26.975	0.365	0.254	
26.980	-0.002	0.279	
26.985	0.272	0.269	
26.990	0.400	0.258	
26.995	-0.032	0.253	
27.000	0.030	0.220	
27.005	0.368	0.182	
27.010	0.065	0.168	
27.015	-0.042	0.151	
27.020	0.354	0.131	
27.025	0.255	0.139	
27.030	-0.037	0.155	
27.035	0.267	0.156	
27.040	0.418	0.169	
27.045	0.018	0.196	
27.050	0.122	0.200	
27.055	0.463	0.198	
27.060	0.090	0.213	
27.065	-0.101	0.206	
27.070	0.197	0.169	
27.075	0.058	0.135	
27.080	-0.181	0.100	
27.085	-0.005	0.050	
27.090	0.088	0.011	
27.095	-0.200	-0.011	
27.100	-0.124	-0.040	
27.105	0.175	-0.060	
27.110	-0.049	-0.050	
27.115	-0.116	-0.038	
27.120	0.218	-0.028	
27.125	0.116	0.002	
27.130	-0.126	0.032	
27.135	0.131	0.040	
27.140	0.325	0.058	
27.145	-0.051	0.090	
27.150	0.027	0.101	
27.155	0.363	0.104	
27.160	-0.011	0.121	
27.165	-0.118	0.117	
27.170	0.195	0.091	
27.175	0.093	0.079	
27.180	-0.127	0.070	
27.185	0.127	0.051	
27.190	0.308	0.052	
27.195	-0.074	0.074	
27.200	-0.020	0.078	
27.205	0.272	0.072	
27.210	-0.028	0.079	
27.215	-0.113	0.073	
27.220	0.223	0.055	
27.225	0.142	0.058	
27.230	-0.104	0.067	
27.235	0.146	0.063	
27.240	0.307	0.072	
27.245	-0.055	0.096	
27.250	0.056	0.102	
27.255	0.347	0.104	
27.260	-0.026	0.120	
27.265	-0.139	0.112	
27.270	0.198	0.083	
27.275	0.163	0.073	
27.280	-0.063	0.076	
27.285	0.203	0.074	
27.290	0.374	0.093	
27.295	-0.031	0.127	
27.300	0.018	0.136	
27.305	0.307	0.130	
27.310	-0.016	0.131	
27.315	-0.126	0.114	
27.320	0.178	0.081	
27.325	0.108	0.065	
27.330	-0.142	0.057	
27.335	0.067	0.038	
27.340	0.227	0.031	
27.345	-0.116	0.041	
27.350	-0.057	0.035	
27.355	0.217	0.025	
27.360	-0.083	0.029	
27.365	-0.168	0.021	
27.370	0.131	-0.001	
27.375	0.082	-0.003	
27.380	-0.135	0.004	
27.385	0.111	0.003	
27.390	0.311	0.020	
27.395	-0.058	0.056	
27.400	-0.026	0.071	
27.405	0.258	0.072	
27.410	-0.064	0.079	
27.415	-0.187	0.065	
27.420	0.076	0.030	
27.425	0.029	0.006	
27.430	-0.161	-0.007	
27.435	0.039	-0.025	
27.440	0.229	-0.022	
27.445	-0.100	0.002	
27.450	-0.051	0.012	
27.455	0.288	0.019	
27.460	-0.022	0.042	
27.465	-0.119	0.052	
27.470	0.218	0.045	
27.475	0.146	0.054	
27.480	-0.127	0.067	
27.485	0.070	0.059	
27.490	0.232	0.055	
27.495	-0.106	0.063	
27.500	-0.061	0.054	
27.505	0.270	0.041	
27.510	-0.016	0.048	
27.515	-0.121	0.049	
27.520	0.221	0.038	
27.525	0.165	0.048	
27.530	-0.101	0.065	
27.535	0.108	0.065	
27.540	0.296	0.071	
27.545	-0.068	0.091	
27.550	-0.034	0.089	
27.555	0.313	0.080	
27.560	-0.016	0.088	
27.565	-0.126	0.082	
27.570	0.204	0.062	
27.575	0.102	0.058	
27.580	-0.168	0.056	
27.585	-0.006	0.034	
27.590	0.139	0.015	
27.595	-0.167	0.008	
27.600	-0.130	-0.012	
27.605	0.157	-0.032	
27.610	-0.100	-0.032	
27.615	-0.200	-0.038	
27.620	0.042	-0.054	
27.625	-0.011	-0.058	
27.630	-0.219	-0.059	
27.635	-0.061	-0.072	
27.640	0.081	-0.077	
27.645	-0.199	-0.070	
27.650	-0.171	-0.076	
27.655	0.055	-0.087	
27.660	-0.142	-0.086	
27.665	-0.223	-0.091	
27.670	0.006	-0.103	
27.675	-0.034	-0.102	
27.680	-0.228	-0.095	
27.685	-0.061	-0.100	
27.690	0.073	-0.097	
27.695	-0.199	-0.083	
27.700	-0.147	-0.082	
27.705	0.177	-0.081	
27.710	-0.058	-0.059	
27.715	-0.164	-0.042	
27.720	0.062	-0.041	
27.725	-0.042	-0.036	
27.730	-0.271	-0.041	
27.735	-0.141	-0.069	
27.740	-0.116	-0.101	
27.745	-0.431	-0.135	
27.750	-0.459	-0.193	
27.755	-0.281	-0.261	
27.760	-0.416	-0.313	
27.765	-0.508	-0.355	
27.770	-0.303	-0.391	
27.775	-0.306	-0.401	
27.780	-0.463	-0.396	
27.785	-0.284	-0.390	
27.790	-0.142	-0.370	
27.795	-0.321	-0.332	
27.800	-0.220	-0.299	
27.805	0.111	-0.258	
27.810	-0.019	-0.190	
27.815	-0.049	-0.121	
27.820	0.434	-0.050	
27.825	0.414	0.051	
27.830	-0.014	0.149	
27.835	0.145	0.194	
27.840	0.217	0.203	
27.845	-0.187	0.188	
27.850	-0.248	0.127	
27.855	-0.092	0.038	
27.860	-0.202	-0.042	
27.865	-0.269	-0.109	
27.870	-0.048	-0.158	
27.875	-0.057	-0.172	
27.880	-0.239	-0.166	
27.885	-0.093	-0.161	
27.890	0.055	-0.146	
27.895	-0.171	-0.119	
27.900	-0.106	-0.102	
27.905	0.246	-0.081	
27.910	0.017	-0.037	
27.915	-0.089	-0.000	
27.920	0.314	0.025	
27.925	0.293	0.072	
27.930	0.026	0.124	
27.935	0.293	0.156	
27.940	0.472	0.193	
27.945	0.047	0.235	
27.950	0.082	0.242	
27.955	0.455	0.232	
27.960	0.175	0.238	
27.965	0.018	0.235	
27.970	0.504	0.223	
27.975	0.447	0.244	
27.980	-0.016	0.273	
27.985	0.186	0.265	
27.990	0.353	0.245	
27.995	-0.045	0.229	
28.000	0.001	0.191	
28.005	0.311	0.149	
28.010	-0.058	0.128	
28.015	-0.222	0.092	
28.020	-0.005	0.034	
28.025	-0.092	-0.015	
28.030	-0.297	-0.059	
28.035	-0.156	-0.109	
28.040	-0.058	-0.144	
28.045	-0.274	-0.160	
28.050	-0.196	-0.175	
28.055	0.047	-0.179	
28.060	-0.187	-0.161	
28.065	-0.352	-0.154	
28.070	-0.240	-0.174	
28.075	-0.286	-0.203	
28.080	-0.428	-0.238	
28.085	-0.245	-0.274	
28.090	-0.068	-0.287	
28.095	-0.234	-0.269	
28.100	-0.159	-0.242	
28.105	0.156	-0.203	
28.110	-0.048	-0.141	
28.115	-0.132	-0.088	
28.120	0.188	-0.051	
28.125	0.139	-0.006	
28.130	-0.087	0.035	
28.135	0.168	0.054	
28.140	0.409	0.084	
28.145	-0.003	0.129	
28.150	0.012	0.146	
28.155	0.376	0.146	
28.160	0.079	0.158	
28.165	-0.124	0.153	
28.170	0.084	0.119	
28.175	-0.003	0.082	
28.180	-0.228	0.042	
28.185	-0.083	-0.011	
28.190	0.111	-0.048	
28.195	-0.171	-0.058	
28.200	-0.155	-0.071	
28.205	0.139	-0.080	
28.210	-0.058	-0.066	
28.215	-0.158	-0.054	
28.220	0.177	-0.047	
28.225	0.172	-0.018	
28.230	-0.104	0.019	
28.235	0.120	0.038	
28.240	0.383	0.064	
28.245	0.027	0.107	
28.250	0.000	0.129	
28.255	0.233	0.128	
28.260	-0.106	0.120	
28.265	-0.245	0.084	
28.270	-0.052	0.021	
28.275	-0.090	-0.034	
28.280	-0.278	-0.079	
28.285	-0.113	-0.121	
28.290	0.142	-0.136	
28.295	-0.097	-0.115	
28.300	-0.013	-0.087	
28.305	0.418	-0.043	
28.310	0.134	0.031	
28.315	-0.038	0.091	
28.320	0.356	0.123	
28.325	0.359	0.164	
28.330	0.013	0.204	
28.335	0.302	0.217	
28.340	0.547	0.238	
28.345	0.143	0.275	
28.350	0.186	0.289	
28.355	0.599	0.295	
28.360	0.347	0.323	
28.365	0.159	0.344	
28.370	0.582	0.348	
28.375	0.579	0.374	
28.380	0.211	0.407	
28.385	0.499	0.418	
28.390	0.722	0.435	
28.395	0.288	0.466	
28.400	0.325	0.470	
28.405	0.721	0.462	
28.410	0.423	0.474	
28.415	0.178	0.473	
28.420	0.583	0.448	
28.425	0.524	0.439	
28.430	0.096	0.433	
28.435	0.340	0.399	
28.440	0.531	0.369	
28.445	0.067	0.354	
28.450	0.076	0.316	
28.455	0.449	0.269	
28.460	0.163	0.249	
28.465	-0.040	0.227	
28.470	0.296	0.192	
28.475	0.241	0.176	
28.480	-0.087	0.167	
28.485	0.075	0.139	
28.490	0.313	0.116	
28.495	-0.060	0.113	
28.500	-0.049	0.098	
28.505	0.275	0.077	
28.510	-0.009	0.076	
28.515	-0.145	0.066	
28.520	0.154	0.042	
28.525	0.127	0.036	
28.530	-0.119	0.040	
28.535	0.064	0.032	
28.540	0.276	0.035	
28.545	-0.075	0.055	
28.550	-0.035	0.059	
28.555	0.360	0.060	
28.560	0.081	0.085	
28.565	-0.126	0.100	
28.570	0.039	0.082	
28.575	-0.060	0.054	
28.580	-0.306	0.012	
28.585	-0.197	-0.051	
28.590	-0.069	-0.108	
28.595	-0.281	-0.144	
28.600	-0.271	-0.177	
28.605	-0.037	-0.201	
28.610	-0.165	-0.198	
28.615	-0.271	-0.190	
28.620	-0.026	-0.185	
28.625	-0.019	-0.164	
28.630	-0.251	-0.138	
28.635	-0.193	-0.133	
28.640	-0.135	-0.141	
28.645	-0.370	-0.158	
28.650	-0.324	-0.192	
28.655	-0.072	-0.224	
28.660	-0.196	-0.229	
28.665	-0.260	-0.222	
28.670	0.035	-0.210	
28.675	0.068	-0.170	
28.680	-0.193	-0.121	
28.685	-0.069	-0.092	
28.690	0.061	-0.073	
28.695	-0.226	-0.058	
28.700	-0.211	-0.068	
28.705	0.061	-0.088	
28.710	-0.100	-0.090	
28.715	-0.193	-0.089	
28.720	0.137	-0.089	
28.725	0.178	-0.060	
28.730	-0.103	-0.017	
28.735	0.096	0.011	
28.740	0.347	0.042	
28.745	-0.034	0.085	
28.750	-0.022	0.102	
28.755	0.340	0.104	
28.760	0.094	0.120	
28.765	-0.064	0.128	
28.770	0.305	0.120	
28.775	0.298	0.133	
28.780	-0.064	0.154	
28.785	0.139	0.150	
28.790	0.275	0.142	
28.795	-0.159	0.137	
28.800	-0.214	0.097	
28.805	-0.017	0.032	
28.810	-0.193	-0.027	
28.815	-0.300	-0.083	
28.820	-0.068	-0.135	
28.825	-0.074	-0.159	
28.830	-0.297	-0.165	
28.835	-0.207	-0.178	
28.840	-0.107	-0.189	
28.845	-0.323	-0.194	
28.850	-0.300	-0.209	
28.855	-0.074	-0.224	
28.860	-0.242	-0.222	
28.865	-0.399	-0.224	
28.870	-0.210	-0.241	
28.875	-0.223	-0.253	
28.880	-0.454	-0.264	
28.885	-0.376	-0.290	
28.890	-0.280	-0.318	
28.895	-0.504	-0.339	
28.900	-0.512	-0.370	
28.905	-0.317	-0.402	
28.910	-0.443	-0.417	
28.915	-0.526	-0.427	
28.920	-0.315	-0.437	
28.925	-0.310	-0.429	
28.930	-0.465	-0.410	
28.935	-0.275	-0.395	
28.940	-0.078	-0.365	
28.945	-0.266	-0.315	
28.950	-0.203	-0.270	
28.955	0.162	-0.222	
28.960	0.013	-0.151	
28.965	-0.090	-0.084	
28.970	0.357	-0.026	
28.975	0.443	0.056	
28.980	0.119	0.149	
28.985	0.412	0.217	
28.990	0.620	0.283	
28.995	0.154	0.347	
29.000	0.122	0.362	
29.005	0.431	0.341	
29.010	0.093	0.318	
29.015	-0.109	0.271	
29.020	0.183	0.201	
29.025	0.111	0.146	
29.030	-0.170	0.103	
29.035	-0.008	0.052	
29.040	0.281	0.022	
29.045	-0.066	0.025	
29.050	-0.037	0.028	
29.055	0.369	0.034	
29.060	0.101	0.068	
29.065	-0.095	0.094	
29.070	0.282	0.099	
29.075	0.299	0.118	
29.080	-0.046	0.144	
29.085	0.243	0.151	
29.090	0.556	0.173	
29.095	0.181	0.222	
29.100	0.198	0.257	
29.105	0.583	0.280	
29.110	0.273	0.316	
29.115	-0.002	0.327	
