Vernier Format 2
ecg3.txt 10/19/2025 10:17:54
Run 1
Time	Potential	EKG	
T	P	E	
s	mV	mV	

0.000	0.119	0.005	
0.005	-0.127	0.012	
0.010	0.127	0.013	
0.015	0.130	0.023	
0.020	-0.164	0.034	
0.025	-0.023	0.022	
0.030	0.249	0.015	
0.035	-0.087	0.026	
0.040	-0.083	0.026	
0.045	0.235	0.021	
0.050	0.044	0.034	
0.055	-0.127	0.043	
0.060	0.160	0.038	
0.065	0.215	0.047	
0.070	-0.089	0.066	
0.075	0.030	0.066	
0.080	0.224	0.063	
0.085	-0.122	0.066	
0.090	-0.126	0.049	
0.095	0.133	0.020	
0.100	-0.068	0.006	
0.105	-0.239	-0.014	
0.110	-0.022	-0.047	
0.115	-0.009	-0.068	
0.120	-0.239	-0.079	
0.125	-0.115	-0.097	
0.130	0.070	-0.107	
0.135	-0.161	-0.098	
0.140	-0.168	-0.095	
0.145	0.041	-0.097	
0.150	-0.101	-0.089	
0.155	-0.220	-0.086	
0.160	0.015	-0.093	
0.165	0.068	-0.085	
0.170	-0.190	-0.067	
0.175	-0.075	-0.064	
0.180	0.087	-0.062	
0.185	-0.217	-0.055	
0.190	-0.262	-0.070	
0.195	-0.020	-0.099	
0.200	-0.144	-0.116	
0.205	-0.222	-0.127	
0.210	-0.005	-0.137	
0.215	0.050	-0.124	
0.220	-0.216	-0.101	
0.225	-0.072	-0.092	
0.230	0.186	-0.078	
0.235	-0.133	-0.050	
0.240	-0.115	-0.035	
0.245	0.226	-0.028	
0.250	0.027	-0.003	
0.255	-0.161	0.016	
0.260	0.146	0.015	
0.265	0.208	0.028	
0.270	-0.112	0.050	
0.275	0.044	0.052	
0.280	0.296	0.057	
0.285	-0.057	0.075	
0.290	-0.054	0.076	
0.295	0.302	0.069	
0.300	0.124	0.084	
0.305	-0.058	0.098	
0.310	0.273	0.100	
0.315	0.259	0.117	
0.320	-0.092	0.136	
0.325	0.038	0.126	
0.330	0.272	0.109	
0.335	-0.046	0.105	
0.340	-0.046	0.090	
0.345	0.267	0.072	
0.350	-0.016	0.072	
0.355	-0.159	0.062	
0.360	0.148	0.037	
0.365	0.177	0.032	
0.370	-0.132	0.041	
0.375	0.015	0.035	
0.380	0.195	0.029	
0.385	-0.136	0.034	
0.390	-0.104	0.021	
0.395	0.244	0.007	
0.400	0.003	0.016	
0.405	-0.139	0.023	
0.410	0.218	0.019	
0.415	0.288	0.041	
0.420	-0.063	0.078	
0.425	0.096	0.094	
0.430	0.336	0.105	
0.435	-0.048	0.125	
0.440	-0.068	0.120	
0.445	0.226	0.097	
0.450	-0.045	0.083	
0.455	-0.210	0.058	
0.460	0.033	0.015	
0.465	0.075	-0.012	
0.470	-0.176	-0.023	
0.475	-0.008	-0.037	
0.480	0.236	-0.035	
0.485	-0.112	-0.011	
0.490	-0.106	-0.002	
0.495	0.218	-0.002	
0.500	-0.019	0.013	
0.505	-0.144	0.020	
0.510	0.186	0.014	
0.515	0.198	0.028	
0.520	-0.121	0.051	
0.525	0.088	0.055	
0.530	0.735	0.083	
0.535	1.042	0.202	
0.540	1.578	0.426	
0.545	2.036	0.745	
0.550	1.074	1.074	
0.555	0.212	1.241	
0.560	0.215	1.173	
0.565	-0.003	0.953	
0.570	-0.262	0.666	
0.575	-0.148	0.371	
0.580	-0.017	0.131	
0.585	-0.219	-0.030	
0.590	-0.220	-0.135	
0.595	0.075	-0.188	
0.600	-0.051	-0.185	
0.605	-0.141	-0.158	
0.610	0.209	-0.121	
0.615	0.249	-0.056	
0.620	-0.095	0.015	
0.625	0.088	0.053	
0.630	0.292	0.080	
0.635	-0.104	0.104	
0.640	-0.025	0.100	
0.645	0.450	0.093	
0.650	0.142	0.119	
0.655	-0.078	0.140	
0.660	0.235	0.135	
0.665	0.157	0.133	
0.670	-0.153	0.126	
0.675	0.013	0.093	
0.680	0.220	0.064	
0.685	-0.138	0.052	
0.690	-0.145	0.028	
0.695	0.162	-0.002	
0.700	-0.078	-0.011	
0.705	-0.251	-0.025	
0.710	0.001	-0.054	
0.715	0.056	-0.067	
0.720	-0.205	-0.065	
0.725	-0.058	-0.072	
0.730	0.093	-0.072	
0.735	-0.216	-0.063	
0.740	-0.202	-0.072	
0.745	0.110	-0.086	
0.750	-0.095	-0.081	
0.755	-0.171	-0.075	
0.760	0.136	-0.072	
0.765	0.099	-0.048	
0.770	-0.179	-0.021	
0.775	-0.066	-0.018	
0.780	0.096	-0.023	
0.785	-0.200	-0.025	
0.790	-0.167	-0.043	
0.795	0.038	-0.067	
0.800	-0.127	-0.076	
0.805	-0.257	-0.089	
0.810	-0.046	-0.110	
0.815	-0.075	-0.120	
0.820	-0.283	-0.125	
0.825	-0.155	-0.141	
0.830	-0.028	-0.151	
0.835	-0.265	-0.150	
0.840	-0.277	-0.161	
0.845	-0.026	-0.175	
0.850	-0.174	-0.173	
0.855	-0.280	-0.170	
0.860	-0.051	-0.174	
0.865	-0.049	-0.163	
0.870	-0.260	-0.147	
0.875	-0.145	-0.145	
0.880	-0.034	-0.144	
0.885	-0.240	-0.138	
0.890	-0.217	-0.143	
0.895	-0.026	-0.152	
0.900	-0.199	-0.150	
0.905	-0.313	-0.155	
0.910	-0.034	-0.169	
0.915	-0.017	-0.163	
0.920	-0.260	-0.145	
0.925	-0.104	-0.139	
0.930	0.064	-0.129	
0.935	-0.222	-0.110	
0.940	-0.196	-0.106	
0.945	0.050	-0.111	
0.950	-0.119	-0.103	
0.955	-0.242	-0.100	
0.960	0.006	-0.107	
0.965	0.017	-0.101	
0.970	-0.225	-0.088	
0.975	-0.072	-0.089	
0.980	0.131	-0.083	
0.985	-0.155	-0.064	
0.990	-0.119	-0.056	
0.995	0.246	-0.049	
1.000	-0.022	-0.020	
1.005	-0.144	0.000	
1.010	0.171	0.004	
1.015	0.165	0.022	
1.020	-0.142	0.043	
1.025	0.039	0.042	
1.030	0.244	0.042	
1.035	-0.118	0.053	
1.040	-0.077	0.046	
1.045	0.246	0.032	
1.050	-0.055	0.036	
1.055	-0.161	0.031	
1.060	0.127	0.010	
1.065	0.091	0.007	
1.070	-0.208	0.009	
1.075	-0.037	-0.009	
1.080	0.197	-0.020	
1.085	-0.144	-0.011	
1.090	-0.122	-0.015	
1.095	0.180	-0.024	
1.100	-0.055	-0.015	
1.105	-0.173	-0.013	
1.110	0.156	-0.021	
1.115	0.122	-0.009	
1.120	-0.155	0.010	
1.125	-0.028	0.007	
1.130	0.142	0.002	
1.135	-0.162	0.003	
1.140	-0.167	-0.013	
1.145	0.087	-0.038	
1.150	-0.136	-0.049	
1.155	-0.229	-0.064	
1.160	0.000	-0.087	
1.165	-0.031	-0.095	
1.170	-0.252	-0.095	
1.175	-0.101	-0.108	
1.180	0.036	-0.113	
1.185	-0.205	-0.105	
1.190	-0.174	-0.108	
1.195	0.075	-0.111	
1.200	-0.100	-0.098	
1.205	-0.170	-0.087	
1.210	0.122	-0.080	
1.215	0.070	-0.055	
1.220	-0.202	-0.030	
1.225	-0.048	-0.030	
1.230	0.079	-0.034	
1.235	-0.194	-0.034	
1.240	-0.170	-0.050	
1.245	0.091	-0.069	
1.250	-0.093	-0.069	
1.255	-0.165	-0.068	
1.260	0.169	-0.067	
1.265	0.151	-0.039	
1.270	-0.126	-0.002	
1.275	0.088	0.016	
1.280	0.226	0.034	
1.285	-0.098	0.058	
1.290	-0.055	0.057	
1.295	0.211	0.047	
1.300	-0.038	0.048	
1.305	-0.136	0.040	
1.310	0.160	0.021	
1.315	0.107	0.022	
1.320	-0.139	0.029	
1.325	0.117	0.024	
1.330	0.360	0.039	
1.335	-0.042	0.075	
1.340	0.000	0.092	
1.345	0.353	0.098	
1.350	0.042	0.117	
1.355	-0.077	0.122	
1.360	0.212	0.106	
1.365	0.125	0.101	
1.370	-0.119	0.095	
1.375	0.073	0.073	
1.380	0.209	0.060	
1.385	-0.130	0.059	
1.390	-0.068	0.042	
1.395	0.273	0.026	
1.400	-0.043	0.034	
1.405	-0.164	0.032	
1.410	0.108	0.014	
1.415	0.056	0.007	
1.420	-0.184	0.004	
1.425	-0.016	-0.013	
1.430	0.206	-0.020	
1.435	-0.126	-0.007	
1.440	-0.110	-0.006	
1.445	0.208	-0.011	
1.450	0.010	0.003	
1.455	-0.103	0.015	
1.460	0.223	0.020	
1.465	0.189	0.043	
1.470	-0.127	0.068	
1.475	-0.013	0.064	
1.480	0.174	0.052	
1.485	-0.139	0.045	
1.490	-0.127	0.023	
1.495	0.137	-0.004	
1.500	-0.122	-0.016	
1.505	-0.232	-0.034	
1.510	0.023	-0.063	
1.515	0.001	-0.074	
1.520	-0.237	-0.076	
1.525	-0.103	-0.089	
1.530	0.075	-0.096	
1.535	-0.181	-0.088	
1.540	-0.150	-0.088	
1.545	0.137	-0.088	
1.550	-0.081	-0.069	
1.555	-0.194	-0.058	
1.560	0.159	-0.056	
1.565	0.172	-0.031	
1.570	-0.153	0.003	
1.575	-0.026	0.012	
1.580	0.124	0.010	
1.585	-0.197	0.009	
1.590	-0.158	-0.014	
1.595	0.104	-0.041	
1.600	-0.075	-0.048	
1.605	-0.162	-0.052	
1.610	0.165	-0.055	
1.615	0.186	-0.031	
1.620	-0.126	0.006	
1.625	0.085	0.024	
1.630	0.264	0.043	
1.635	-0.104	0.068	
1.640	-0.028	0.069	
1.645	0.263	0.061	
1.650	0.020	0.070	
1.655	-0.086	0.071	
1.660	0.284	0.065	
1.665	0.203	0.081	
1.670	-0.100	0.102	
1.675	0.131	0.099	
1.680	0.343	0.103	
1.685	-0.058	0.121	
1.690	0.009	0.118	
1.695	0.394	0.111	
1.700	0.105	0.129	
1.705	-0.031	0.140	
1.710	0.398	0.140	
1.715	0.256	0.162	
1.720	-0.100	0.180	
1.725	0.116	0.163	
1.730	0.313	0.146	
1.735	-0.046	0.142	
1.740	0.024	0.126	
1.745	0.371	0.111	
1.750	0.039	0.121	
1.755	-0.081	0.120	
1.760	0.261	0.104	
1.765	0.172	0.105	
1.770	-0.116	0.109	
1.775	0.096	0.092	
1.780	0.301	0.084	
1.785	-0.087	0.093	
1.790	-0.019	0.085	
1.795	0.386	0.078	
1.800	0.006	0.095	
1.805	-0.133	0.098	
1.810	0.287	0.082	
1.815	0.246	0.091	
1.820	-0.055	0.112	
1.825	0.166	0.116	
1.830	0.293	0.122	
1.835	-0.115	0.132	
1.840	-0.084	0.112	
1.845	0.209	0.078	
1.850	-0.093	0.058	
1.855	-0.190	0.030	
1.860	0.085	-0.008	
1.865	-0.009	-0.026	
1.870	-0.220	-0.037	
1.875	-0.048	-0.059	
1.880	0.124	-0.067	
1.885	-0.142	-0.057	
1.890	-0.107	-0.053	
1.895	0.168	-0.050	
1.900	-0.078	-0.033	
1.905	-0.162	-0.025	
1.910	0.137	-0.029	
1.915	0.093	-0.016	
1.920	-0.148	0.001	
1.925	0.026	0.001	
1.930	0.189	0.005	
1.935	-0.139	0.019	
1.940	-0.097	0.013	
1.945	0.266	0.005	
1.950	-0.031	0.019	
1.955	-0.100	0.027	
1.960	0.336	0.031	
1.965	0.235	0.064	
1.970	-0.055	0.103	
1.975	0.247	0.121	
1.980	0.386	0.145	
1.985	-0.040	0.176	
1.990	0.065	0.175	
1.995	0.596	0.174	
2.000	0.281	0.213	
2.005	0.142	0.252	
2.010	0.571	0.278	
2.015	0.426	0.318	
2.020	-0.028	0.343	
2.025	0.318	0.324	
2.030	0.559	0.309	
2.035	0.110	0.315	
2.040	0.172	0.304	
2.045	0.516	0.288	
2.050	0.206	0.291	
2.055	0.088	0.286	
2.060	0.473	0.270	
2.065	0.372	0.278	
2.070	0.000	0.286	
2.075	0.359	0.271	
2.080	0.467	0.269	
2.085	-0.019	0.276	
2.090	0.038	0.251	
2.095	0.376	0.212	
2.100	0.033	0.192	
2.105	-0.084	0.163	
2.110	0.292	0.126	
2.115	0.145	0.114	
2.120	-0.138	0.108	
2.125	0.142	0.085	
2.130	0.328	0.080	
2.135	-0.068	0.097	
2.140	0.006	0.096	
2.145	0.333	0.091	
2.150	-0.019	0.102	
2.155	-0.086	0.098	
2.160	0.343	0.085	
2.165	0.253	0.102	
2.170	-0.081	0.128	
2.175	0.096	0.125	
2.180	0.146	0.113	
2.185	-0.184	0.095	
2.190	-0.133	0.053	
2.195	0.128	0.007	
2.200	-0.152	-0.018	
2.205	-0.240	-0.046	
2.210	-0.035	-0.082	
2.215	-0.130	-0.105	
2.220	-0.327	-0.126	
2.225	-0.118	-0.154	
2.230	-0.069	-0.169	
2.235	-0.309	-0.171	
2.240	-0.240	-0.183	
2.245	-0.034	-0.194	
2.250	-0.207	-0.187	
2.255	-0.265	-0.181	
2.260	0.046	-0.177	
2.265	0.001	-0.151	
2.270	-0.179	-0.116	
2.275	0.056	-0.091	
2.280	0.198	-0.056	
2.285	-0.155	-0.015	
2.290	-0.074	-0.000	
2.295	0.185	0.002	
2.300	-0.101	0.011	
2.305	-0.205	0.003	
2.310	-0.029	-0.026	
2.315	-0.181	-0.056	
2.320	-0.390	-0.096	
2.325	-0.239	-0.154	
2.330	-0.197	-0.203	
2.335	-0.413	-0.238	
2.340	-0.353	-0.275	
2.345	-0.161	-0.301	
2.350	-0.309	-0.304	
2.355	-0.352	-0.301	
2.360	-0.106	-0.296	
2.365	-0.171	-0.273	
2.370	-0.355	-0.248	
2.375	-0.147	-0.237	
2.380	-0.045	-0.220	
2.385	-0.295	-0.196	
2.390	-0.207	-0.186	
2.395	0.017	-0.179	
2.400	-0.199	-0.160	
2.405	-0.226	-0.149	
2.410	0.059	-0.143	
2.415	-0.003	-0.119	
2.420	-0.211	-0.093	
2.425	-0.017	-0.083	
2.430	0.119	-0.069	
2.435	-0.182	-0.047	
2.440	-0.103	-0.044	
2.445	0.214	-0.042	
2.450	-0.097	-0.023	
2.455	-0.211	-0.018	
2.460	0.078	-0.033	
2.465	-0.011	-0.037	
2.470	-0.197	-0.039	
2.475	0.000	-0.051	
2.480	0.116	-0.052	
2.485	-0.165	-0.039	
2.490	-0.074	-0.039	
2.495	0.218	-0.036	
2.500	-0.092	-0.016	
2.505	-0.115	-0.006	
2.510	0.307	-0.001	
2.515	0.191	0.033	
2.520	-0.119	0.070	
2.525	0.099	0.078	
2.530	0.250	0.082	
2.535	-0.106	0.092	
2.540	-0.049	0.080	
2.545	0.249	0.061	
2.550	-0.075	0.057	
2.555	-0.162	0.042	
2.560	0.088	0.013	
2.565	-0.006	-0.004	
2.570	-0.202	-0.017	
2.575	0.015	-0.039	
2.580	0.102	-0.045	
2.585	-0.202	-0.040	
2.590	-0.077	-0.047	
2.595	0.224	-0.048	
2.600	-0.063	-0.025	
2.605	-0.132	-0.011	
2.610	0.229	-0.006	
2.615	0.130	0.018	
2.620	-0.124	0.043	
2.625	0.105	0.047	
2.630	0.174	0.053	
2.635	-0.194	0.057	
2.640	-0.133	0.033	
2.645	0.136	0.000	
2.650	-0.095	-0.014	
2.655	-0.109	-0.026	
2.660	0.240	-0.031	
2.665	0.088	-0.006	
2.670	-0.142	0.020	
2.675	0.128	0.026	
2.680	0.267	0.042	
2.685	-0.106	0.067	
2.690	0.006	0.070	
2.695	0.368	0.072	
2.700	0.012	0.094	
2.705	-0.074	0.102	
2.710	0.308	0.095	
2.715	0.183	0.108	
2.720	-0.100	0.121	
2.725	0.188	0.113	
2.730	0.293	0.114	
2.735	-0.086	0.126	
2.740	0.044	0.116	
2.745	0.366	0.106	
2.750	0.067	0.121	
2.755	0.007	0.129	
2.760	0.464	0.135	
2.765	0.258	0.168	
2.770	-0.074	0.195	
2.775	0.269	0.190	
2.780	0.385	0.191	
2.785	-0.052	0.202	
2.790	0.006	0.183	
2.795	0.353	0.155	
2.800	-0.005	0.145	
2.805	-0.071	0.126	
2.810	0.314	0.101	
2.815	0.061	0.099	
2.820	-0.156	0.092	
2.825	0.122	0.066	
2.830	0.252	0.057	
2.835	-0.100	0.066	
2.840	-0.026	0.059	
2.845	0.296	0.052	
2.850	-0.038	0.063	
2.855	-0.090	0.063	
2.860	0.325	0.056	
2.865	0.206	0.078	
2.870	-0.068	0.105	
2.875	0.172	0.110	
2.880	0.292	0.119	
2.885	-0.136	0.129	
2.890	-0.049	0.110	
2.895	0.229	0.079	
2.900	-0.115	0.063	
2.905	-0.190	0.035	
2.910	0.130	-0.002	
2.915	-0.017	-0.018	
2.920	-0.202	-0.027	
2.925	0.024	-0.045	
2.930	0.093	-0.048	
2.935	-0.220	-0.041	
2.940	-0.124	-0.052	
2.945	0.137	-0.063	
2.950	-0.142	-0.056	
2.955	-0.159	-0.057	
2.960	0.211	-0.058	
2.965	0.067	-0.033	
2.970	-0.101	-0.003	
2.975	0.137	0.012	
2.980	0.137	0.032	
2.985	-0.210	0.045	
2.990	-0.142	0.023	
2.995	0.067	-0.011	
3.000	-0.168	-0.034	
3.005	-0.174	-0.060	
3.010	0.212	-0.075	
3.015	0.064	-0.055	
3.020	-0.155	-0.026	
3.025	0.081	-0.014	
3.030	0.195	0.003	
3.035	-0.168	0.025	
3.040	-0.068	0.022	
3.045	0.275	0.015	
3.050	-0.045	0.029	
3.055	-0.101	0.034	
3.060	0.250	0.031	
3.065	0.085	0.046	
3.070	-0.106	0.059	
3.075	0.224	0.059	
3.080	0.322	0.079	
3.085	-0.083	0.111	
3.090	0.056	0.115	
3.095	0.347	0.114	
3.100	-0.029	0.125	
3.105	-0.043	0.119	
3.110	0.348	0.105	
3.115	0.178	0.117	
3.120	-0.068	0.131	
3.125	0.236	0.126	
3.130	0.321	0.134	
3.135	-0.098	0.149	
3.140	0.050	0.137	
3.145	0.325	0.121	
3.150	-0.060	0.120	
3.155	-0.090	0.103	
3.160	0.275	0.077	
3.165	0.039	0.073	
3.170	-0.174	0.066	
3.175	0.091	0.040	
3.180	0.204	0.030	
3.185	-0.126	0.037	
3.190	-0.043	0.029	
3.195	0.258	0.022	
3.200	-0.078	0.033	
3.205	-0.110	0.032	
3.210	0.230	0.022	
3.215	0.101	0.034	
3.220	-0.069	0.050	
3.225	0.321	0.062	
3.230	0.371	0.100	
3.235	-0.083	0.145	
3.240	0.007	0.151	
3.245	0.296	0.136	
3.250	-0.066	0.128	
3.255	-0.127	0.103	
3.260	0.253	0.068	
3.265	0.044	0.058	
3.270	-0.193	0.049	
3.275	0.023	0.021	
3.280	0.101	0.001	
3.285	-0.176	-0.007	
3.290	-0.097	-0.025	
3.295	0.130	-0.041	
3.300	-0.153	-0.040	
3.305	-0.158	-0.048	
3.310	0.142	-0.058	
3.315	0.000	-0.047	
3.320	-0.185	-0.034	
3.325	0.124	-0.033	
3.330	0.194	-0.015	
3.335	-0.170	0.013	
3.340	-0.034	0.016	
3.345	0.256	0.015	
3.350	-0.116	0.029	
3.355	-0.165	0.024	
3.360	0.168	0.004	
3.365	0.006	0.002	
3.370	-0.170	0.001	
3.375	0.065	-0.012	
3.380	0.148	-0.011	
3.385	-0.158	0.001	
3.390	-0.005	-0.002	
3.395	0.345	0.006	
3.400	-0.028	0.039	
3.405	-0.054	0.059	
3.410	0.383	0.069	
3.415	0.218	0.104	
3.420	-0.052	0.138	
3.425	0.293	0.148	
3.430	0.427	0.170	
3.435	0.003	0.202	
3.440	0.181	0.209	
3.445	0.516	0.215	
3.450	0.139	0.240	
3.455	0.169	0.253	
3.460	0.684	0.266	
3.465	0.582	0.321	
3.470	0.424	0.394	
3.475	0.906	0.465	
3.480	0.857	0.556	
3.485	0.270	0.632	
3.490	0.446	0.638	
3.495	0.614	0.605	
3.500	0.033	0.556	
3.505	-0.103	0.456	
3.510	0.305	0.329	
3.515	0.070	0.232	
3.520	-0.049	0.160	
3.525	0.030	0.095	
3.530	-0.020	0.045	
3.535	-0.277	-0.001	
3.540	-0.200	-0.059	
3.545	-0.046	-0.110	
3.550	-0.272	-0.141	
3.555	-0.301	-0.171	
3.560	-0.011	-0.195	
3.565	-0.141	-0.193	
3.570	-0.188	-0.178	
3.575	0.055	-0.159	
3.580	0.087	-0.120	
3.585	-0.239	-0.079	
3.590	-0.162	-0.070	
3.595	-0.008	-0.079	
3.600	-0.226	-0.087	
3.605	-0.274	-0.109	
3.610	-0.084	-0.140	
3.615	-0.239	-0.160	
3.620	-0.347	-0.183	
3.625	-0.144	-0.210	
3.630	-0.133	-0.220	
3.635	-0.358	-0.219	
3.640	-0.228	-0.229	
3.645	-0.109	-0.233	
3.650	-0.382	-0.231	
3.655	-0.391	-0.245	
3.660	-0.165	-0.269	
3.665	-0.269	-0.276	
3.670	-0.396	-0.280	
3.675	-0.188	-0.287	
3.680	-0.147	-0.281	
3.685	-0.364	-0.264	
3.690	-0.236	-0.259	
3.695	-0.103	-0.252	
3.700	-0.329	-0.237	
3.705	-0.315	-0.236	
3.710	-0.078	-0.240	
3.715	-0.197	-0.228	
3.720	-0.327	-0.217	
3.725	-0.130	-0.217	
3.730	-0.090	-0.208	
3.735	-0.284	-0.193	
3.740	-0.159	-0.188	
3.745	0.007	-0.178	
3.750	-0.217	-0.157	
3.755	-0.225	-0.148	
3.760	0.055	-0.144	
3.765	-0.089	-0.125	
3.770	-0.243	-0.110	
3.775	-0.019	-0.109	
3.780	0.020	-0.101	
3.785	-0.200	-0.086	
3.790	-0.071	-0.084	
3.795	0.181	-0.075	
3.800	-0.100	-0.048	
3.805	-0.142	-0.033	
3.810	0.189	-0.029	
3.815	0.017	-0.009	
3.820	-0.129	0.006	
3.825	0.145	0.008	
3.830	0.198	0.024	
3.835	-0.127	0.047	
3.840	-0.006	0.046	
3.845	0.247	0.043	
3.850	-0.101	0.051	
3.855	-0.150	0.040	
3.860	0.142	0.016	
3.865	-0.063	0.004	
3.870	-0.152	-0.008	
3.875	0.133	-0.024	
3.880	0.119	-0.016	
3.885	-0.159	0.000	
3.890	-0.045	-0.003	
3.895	0.180	-0.007	
3.900	-0.103	0.002	
3.905	-0.119	-0.001	
3.910	0.195	-0.009	
3.915	0.010	0.002	
3.920	-0.142	0.010	
3.925	0.163	0.007	
3.930	0.177	0.021	
3.935	-0.164	0.040	
3.940	-0.020	0.035	
3.945	0.224	0.026	
3.950	-0.110	0.032	
3.955	-0.115	0.024	
3.960	0.180	0.008	
3.965	-0.060	0.007	
3.970	-0.202	-0.001	
3.975	0.003	-0.026	
3.980	0.029	-0.041	
3.985	-0.193	-0.047	
3.990	-0.072	-0.061	
3.995	0.201	-0.063	
4.000	-0.107	-0.042	
4.005	-0.139	-0.031	
4.010	0.188	-0.029	
4.015	-0.011	-0.012	
4.020	-0.126	0.000	
4.025	0.183	0.003	
4.030	0.258	0.026	
4.035	-0.139	0.059	
4.040	-0.069	0.060	
4.045	0.159	0.044	
4.050	-0.138	0.033	
4.055	-0.155	0.009	
4.060	0.194	-0.016	
4.065	0.049	-0.013	
4.070	-0.109	-0.000	
4.075	0.195	0.007	
4.080	0.244	0.034	
4.085	-0.077	0.069	
4.090	0.044	0.079	
4.095	0.322	0.085	
4.100	-0.019	0.103	
4.105	-0.019	0.105	
4.110	0.362	0.101	
4.115	0.137	0.119	
4.120	-0.113	0.130	
4.125	0.156	0.115	
4.130	0.235	0.106	
4.135	-0.058	0.108	
4.140	0.130	0.101	
4.145	0.360	0.104	
4.150	0.009	0.127	
4.155	0.032	0.133	
4.160	0.434	0.135	
4.165	0.192	0.161	
4.170	-0.052	0.180	
4.175	0.282	0.173	
4.180	0.324	0.176	
4.185	-0.072	0.185	
4.190	0.038	0.165	
4.195	0.363	0.142	
4.200	-0.003	0.139	
4.205	-0.037	0.127	
4.210	0.340	0.110	
4.215	0.130	0.117	
4.220	-0.084	0.122	
4.225	0.162	0.108	
4.230	0.156	0.099	
4.235	-0.145	0.092	
4.240	0.009	0.065	
4.245	0.244	0.046	
4.250	-0.074	0.047	
4.255	-0.075	0.040	
4.260	0.282	0.032	
4.265	0.075	0.048	
4.270	-0.074	0.064	
4.275	0.212	0.066	
4.280	0.230	0.082	
4.285	-0.057	0.103	
4.290	0.038	0.101	
4.295	0.284	0.096	
4.300	-0.077	0.100	
4.305	-0.104	0.085	
4.310	0.162	0.056	
4.315	-0.052	0.039	
4.320	-0.187	0.018	
4.325	0.035	-0.014	
4.330	-0.006	-0.033	
4.335	-0.210	-0.045	
4.340	-0.066	-0.065	
4.345	0.111	-0.074	
4.350	-0.152	-0.064	
4.355	-0.145	-0.063	
4.360	0.149	-0.064	
4.365	-0.040	-0.048	
4.370	-0.138	-0.034	
4.375	0.214	-0.026	
4.380	0.195	0.005	
4.385	-0.147	0.041	
4.390	-0.020	0.045	
4.395	0.119	0.036	
4.400	-0.174	0.027	
4.405	-0.170	-0.001	
4.410	0.124	-0.033	
4.415	-0.028	-0.040	
4.420	-0.150	-0.040	
4.425	0.133	-0.041	
4.430	0.165	-0.022	
4.435	-0.127	0.007	
4.440	0.007	0.017	
4.445	0.266	0.025	
4.450	-0.084	0.046	
4.455	-0.068	0.049	
4.460	0.292	0.045	
4.465	0.068	0.061	
4.470	-0.097	0.073	
4.475	0.180	0.068	
4.480	0.214	0.075	
4.485	-0.086	0.089	
4.490	0.101	0.086	
4.495	0.337	0.089	
4.500	-0.006	0.110	
4.505	-0.023	0.114	
4.510	0.296	0.106	
4.515	0.073	0.112	
4.520	-0.086	0.111	
4.525	0.233	0.096	
4.530	0.218	0.099	
4.535	-0.084	0.109	
4.540	0.050	0.098	
4.545	0.310	0.090	
4.550	-0.061	0.097	
4.555	-0.069	0.088	
4.560	0.247	0.070	
4.565	0.018	0.068	
4.570	-0.130	0.062	
4.575	0.139	0.043	
4.580	0.113	0.037	
4.585	-0.167	0.037	
4.590	-0.035	0.018	
4.595	0.131	0.001	
4.600	-0.100	-0.002	
4.605	-0.078	-0.010	
4.610	0.177	-0.016	
4.615	0.012	-0.002	
4.620	-0.078	0.010	
4.625	0.246	0.019	
4.630	0.221	0.049	
4.635	-0.080	0.083	
4.640	0.084	0.091	
4.645	0.321	0.097	
4.650	-0.074	0.112	
4.655	-0.080	0.103	
4.660	0.263	0.081	
4.665	0.000	0.076	
4.670	-0.173	0.063	
4.675	0.035	0.031	
4.680	0.036	0.006	
4.685	-0.179	-0.010	
4.690	-0.043	-0.033	
4.695	0.183	-0.042	
4.700	-0.113	-0.029	
4.705	-0.119	-0.025	
4.710	0.172	-0.027	
4.715	-0.045	-0.014	
4.720	-0.148	-0.008	
4.725	0.143	-0.013	
4.730	0.148	0.000	
4.735	-0.103	0.022	
4.740	0.052	0.029	
4.745	0.162	0.034	
4.750	-0.162	0.040	
4.755	-0.138	0.022	
4.760	0.181	-0.003	
4.765	-0.072	-0.008	
4.770	-0.182	-0.015	
4.775	0.108	-0.031	
4.780	0.064	-0.029	
4.785	-0.119	-0.017	
4.790	0.072	-0.013	
4.795	0.313	0.007	
4.800	-0.043	0.046	
4.805	-0.008	0.067	
4.810	0.368	0.079	
4.815	0.180	0.112	
4.820	0.093	0.146	
4.825	0.486	0.175	
4.830	0.424	0.225	
4.835	0.021	0.271	
4.840	0.295	0.279	
4.845	0.498	0.282	
4.850	0.059	0.294	
4.855	0.136	0.280	
4.860	0.518	0.261	
4.865	0.220	0.267	
4.870	-0.003	0.265	
4.875	0.313	0.240	
4.880	0.281	0.224	
4.885	-0.066	0.213	
4.890	0.101	0.179	
4.895	0.250	0.148	
4.900	-0.049	0.130	
4.905	0.021	0.106	
4.910	0.340	0.089	
4.915	0.013	0.098	
4.920	-0.112	0.096	
4.925	0.191	0.076	
4.930	0.096	0.069	
4.935	-0.171	0.063	
4.940	-0.006	0.037	
4.945	0.177	0.016	
4.950	-0.115	0.014	
4.955	-0.069	0.005	
4.960	0.241	-0.001	
4.965	-0.054	0.013	
4.970	-0.144	0.017	
4.975	0.169	0.008	
4.980	0.175	0.019	
4.985	-0.133	0.039	
4.990	0.038	0.039	
4.995	0.218	0.039	
5.000	-0.132	0.048	
5.005	-0.130	0.035	
5.010	0.189	0.013	
5.015	-0.066	0.008	
5.020	-0.187	-0.002	
5.025	0.068	-0.023	
5.030	-0.008	-0.032	
5.035	-0.266	-0.041	
5.040	-0.113	-0.067	
5.045	0.030	-0.089	
5.050	-0.210	-0.096	
5.055	-0.173	-0.107	
5.060	0.081	-0.115	
5.065	-0.113	-0.103	
5.070	-0.185	-0.094	
5.075	0.082	-0.090	
5.080	0.056	-0.070	
5.085	-0.177	-0.047	
5.090	-0.029	-0.042	
5.095	0.081	-0.039	
5.100	-0.197	-0.033	
5.105	-0.171	-0.047	
5.110	0.023	-0.069	
5.115	-0.176	-0.081	
5.120	-0.255	-0.099	
5.125	-0.063	-0.124	
5.130	-0.063	-0.134	
5.135	-0.237	-0.134	
5.140	-0.071	-0.137	
5.145	0.067	-0.128	
5.150	-0.152	-0.104	
5.155	-0.118	-0.089	
5.160	0.148	-0.076	
5.165	-0.069	-0.051	
5.170	-0.164	-0.036	
5.175	0.117	-0.035	
5.180	0.027	-0.024	
5.185	-0.176	-0.014	
5.190	0.015	-0.021	
5.195	0.229	-0.016	
5.200	-0.109	0.005	
5.205	-0.071	0.013	
5.210	0.246	0.013	
5.215	-0.014	0.030	
5.220	-0.109	0.038	
5.225	0.252	0.036	
5.230	0.227	0.057	
5.235	-0.104	0.084	
5.240	0.032	0.085	
5.245	0.230	0.078	
5.250	-0.097	0.079	
5.255	-0.061	0.063	
5.260	0.259	0.046	
5.265	-0.002	0.050	
5.270	-0.145	0.048	
5.275	0.160	0.032	
5.280	0.139	0.033	
5.285	-0.135	0.041	
5.290	0.047	0.034	
5.295	0.163	0.029	
5.300	-0.156	0.032	
5.305	-0.130	0.014	
5.310	0.195	-0.007	
5.315	-0.068	-0.007	
5.320	-0.165	-0.011	
5.325	0.143	-0.023	
5.330	0.136	-0.012	
5.335	-0.138	0.008	
5.340	0.067	0.013	
5.345	0.203	0.022	
5.350	-0.124	0.039	
5.355	-0.093	0.033	
5.360	0.143	0.017	
5.365	-0.086	0.011	
5.370	-0.158	-0.003	
5.375	0.052	-0.025	
5.380	-0.032	-0.036	
5.385	-0.203	-0.044	
5.390	-0.037	-0.062	
5.395	0.073	-0.069	
5.400	-0.165	-0.062	
5.405	-0.116	-0.065	
5.410	0.130	-0.066	
5.415	-0.086	-0.052	
5.420	-0.167	-0.045	
5.425	0.094	-0.049	
5.430	0.078	-0.037	
5.435	-0.127	-0.018	
5.440	0.059	-0.011	
5.445	0.215	0.004	
5.450	-0.135	0.027	
5.455	-0.110	0.026	
5.460	0.169	0.012	
5.465	-0.069	0.010	
5.470	-0.170	0.001	
5.475	0.145	-0.016	
5.480	0.082	-0.012	
5.485	-0.138	0.000	
5.490	0.101	0.002	
5.495	0.275	0.018	
5.500	-0.057	0.050	
5.505	-0.014	0.063	
5.510	0.276	0.067	
5.515	-0.002	0.081	
5.520	-0.064	0.083	
5.525	0.261	0.074	
5.530	0.189	0.086	
5.535	-0.101	0.101	
5.540	0.124	0.095	
5.545	0.353	0.097	
5.550	-0.017	0.118	
5.555	-0.006	0.121	
5.560	0.321	0.113	
5.565	0.059	0.121	
5.570	-0.026	0.121	
5.575	0.340	0.115	
5.580	0.249	0.132	
5.585	-0.052	0.153	
5.590	0.171	0.149	
5.595	0.328	0.148	
5.600	-0.045	0.157	
5.605	0.013	0.144	
5.610	0.389	0.128	
5.615	0.070	0.136	
5.620	-0.063	0.137	
5.625	0.194	0.118	
5.630	0.117	0.108	
5.635	-0.122	0.097	
5.640	0.064	0.070	
5.645	0.181	0.053	
5.650	-0.139	0.048	
5.655	-0.089	0.028	
5.660	0.229	0.009	
5.665	0.009	0.015	
5.670	-0.104	0.022	
5.675	0.183	0.021	
5.680	0.151	0.035	
5.685	-0.072	0.055	
5.690	0.140	0.061	
5.695	0.273	0.075	
5.700	-0.025	0.099	
5.705	-0.005	0.102	
5.710	0.229	0.094	
5.715	-0.081	0.090	
5.720	-0.190	0.065	
5.725	0.038	0.022	
5.730	-0.029	-0.010	
5.735	-0.199	-0.034	
5.740	-0.028	-0.061	
5.745	0.033	-0.073	
5.750	-0.205	-0.073	
5.755	-0.127	-0.083	
5.760	0.183	-0.085	
5.765	-0.116	-0.065	
5.770	-0.179	-0.054	
5.775	0.113	-0.055	
5.780	0.059	-0.040	
5.785	-0.118	-0.021	
5.790	0.111	-0.010	
5.795	0.209	0.011	
5.800	-0.124	0.039	
5.805	-0.100	0.038	
5.810	0.094	0.021	
5.815	-0.148	0.005	
5.820	-0.225	-0.023	
5.825	0.058	-0.057	
5.830	-0.006	-0.069	
5.835	-0.196	-0.069	
5.840	0.044	-0.073	
5.845	0.212	-0.056	
5.850	-0.106	-0.021	
5.855	-0.032	-0.001	
5.860	0.261	0.013	
5.865	-0.020	0.039	
5.870	-0.100	0.050	
5.875	0.183	0.045	
5.880	0.067	0.049	
5.885	-0.168	0.049	
5.890	0.099	0.032	
5.895	0.232	0.030	
5.900	-0.064	0.046	
5.905	-0.022	0.050	
5.910	0.327	0.052	
5.915	0.015	0.074	
5.920	-0.058	0.084	
5.925	0.267	0.082	
5.930	0.096	0.092	
5.935	-0.104	0.096	
5.940	0.107	0.080	
5.945	0.240	0.074	
5.950	-0.058	0.081	
5.955	0.047	0.078	
5.960	0.322	0.078	
5.965	-0.008	0.096	
5.970	-0.072	0.097	
5.975	0.181	0.081	
5.980	0.017	0.073	
5.985	-0.158	0.058	
5.990	0.038	0.028	
5.995	0.171	0.012	
6.000	-0.126	0.014	
6.005	-0.068	0.005	
6.010	0.146	-0.005	
6.015	-0.080	-0.003	
6.020	-0.100	-0.006	
6.025	0.214	-0.010	
6.030	0.096	0.010	
6.035	-0.118	0.031	
6.040	0.124	0.035	
6.045	0.287	0.050	
6.050	-0.060	0.077	
6.055	0.009	0.084	
6.060	0.284	0.084	
6.065	-0.058	0.092	
6.070	-0.124	0.081	
6.075	0.117	0.052	
6.080	-0.017	0.032	
6.085	-0.200	0.011	
6.090	-0.068	-0.023	
6.095	0.013	-0.051	
6.100	-0.190	-0.066	
6.105	-0.138	-0.084	
6.110	0.099	-0.095	
6.115	-0.121	-0.085	
6.120	-0.182	-0.080	
6.125	0.087	-0.081	
6.130	0.000	-0.067	
6.135	-0.188	-0.052	
6.140	0.027	-0.052	
6.145	0.165	-0.040	
6.150	-0.145	-0.018	
6.155	-0.083	-0.013	
6.160	0.171	-0.015	
6.165	-0.106	-0.006	
6.170	-0.155	-0.009	
6.175	0.079	-0.025	
6.180	-0.052	-0.030	
6.185	-0.194	-0.037	
6.190	0.033	-0.053	
6.195	0.189	-0.048	
6.200	-0.141	-0.024	
6.205	-0.032	-0.014	
6.210	0.284	-0.002	
6.215	-0.011	0.028	
6.220	-0.083	0.046	
6.225	0.235	0.049	
6.230	0.136	0.065	
6.235	-0.075	0.081	
6.240	0.157	0.081	
6.245	0.236	0.088	
6.250	-0.086	0.100	
6.255	-0.020	0.089	
6.260	0.212	0.072	
6.265	-0.049	0.066	
6.270	-0.068	0.053	
6.275	0.269	0.041	
6.280	0.163	0.057	
6.285	-0.092	0.077	
6.290	0.171	0.080	
6.295	0.221	0.088	
6.300	-0.110	0.099	
6.305	0.012	0.087	
6.310	0.264	0.073	
6.315	-0.042	0.076	
6.320	-0.092	0.067	
6.325	0.272	0.053	
6.330	0.012	0.057	
6.335	-0.203	0.053	
6.340	0.055	0.026	
6.345	0.200	0.012	
6.350	-0.103	0.020	
6.355	0.012	0.020	
6.360	0.183	0.021	
6.365	-0.063	0.032	
6.370	-0.083	0.031	
6.375	0.178	0.022	
6.380	0.029	0.028	
6.385	-0.132	0.030	
6.390	0.191	0.024	
6.395	0.241	0.039	
6.400	-0.049	0.068	
6.405	0.088	0.080	
6.410	0.197	0.087	
6.415	-0.055	0.093	
6.420	-0.092	0.079	
6.425	0.197	0.056	
6.430	0.111	0.053	
6.435	-0.156	0.054	
6.440	0.020	0.036	
6.445	0.087	0.019	
6.450	-0.165	0.009	
6.455	-0.042	-0.011	
6.460	0.195	-0.021	
6.465	-0.097	-0.011	
6.470	-0.164	-0.011	
6.475	0.068	-0.026	
6.480	-0.023	-0.030	
6.485	-0.179	-0.034	
6.490	0.166	-0.040	
6.495	0.241	-0.017	
6.500	-0.101	0.023	
6.505	0.029	0.041	
6.510	0.313	0.055	
6.515	-0.060	0.079	
6.520	-0.112	0.080	
6.525	0.263	0.065	
6.530	0.111	0.070	
6.535	-0.122	0.076	
6.540	0.119	0.064	
6.545	0.073	0.055	
6.550	-0.168	0.045	
6.555	-0.063	0.017	
6.560	0.178	-0.006	
6.565	-0.107	-0.007	
6.570	-0.188	-0.017	
6.575	-0.011	-0.041	
6.580	-0.089	-0.059	
6.585	-0.207	-0.076	
6.590	-0.019	-0.094	
6.595	0.107	-0.092	
6.600	-0.176	-0.073	
6.605	-0.075	-0.065	
6.610	0.114	-0.059	
6.615	-0.121	-0.043	
6.620	-0.148	-0.041	
6.625	0.145	-0.044	
6.630	0.026	-0.030	
6.635	-0.144	-0.015	
6.640	0.061	-0.014	
6.645	0.120	-0.007	
6.650	-0.129	0.006	
6.655	-0.019	0.004	
6.660	0.211	0.005	
6.665	-0.055	0.020	
6.670	-0.103	0.024	
6.675	0.168	0.017	
6.680	0.010	0.022	
6.685	-0.165	0.021	
6.690	0.078	0.006	
6.695	0.122	0.002	
6.700	-0.171	0.007	
6.705	-0.072	-0.005	
6.710	0.171	-0.017	
6.715	-0.086	-0.011	
6.720	-0.100	-0.011	
6.725	0.139	-0.016	
6.730	-0.003	-0.007	
6.735	-0.150	-0.002	
6.740	0.091	-0.009	
6.745	0.166	-0.002	
6.750	-0.090	0.018	
6.755	0.117	0.029	
6.760	0.330	0.051	
6.765	-0.043	0.086	
6.770	-0.061	0.096	
6.775	0.174	0.083	
6.780	-0.020	0.074	
6.785	-0.197	0.053	
6.790	0.003	0.014	
6.795	0.079	-0.013	
6.800	-0.152	-0.024	
6.805	-0.034	-0.036	
6.810	0.185	-0.037	
6.815	-0.104	-0.020	
6.820	-0.144	-0.016	
6.825	0.094	-0.025	
6.830	-0.058	-0.025	
6.835	-0.199	-0.031	
6.840	0.030	-0.047	
6.845	0.125	-0.048	
6.850	-0.121	-0.032	
6.855	0.026	-0.022	
6.860	0.252	-0.005	
6.865	-0.095	0.025	
6.870	-0.135	0.031	
6.875	0.142	0.018	
6.880	-0.046	0.013	
6.885	-0.187	0.002	
6.890	0.030	-0.022	
6.895	0.102	-0.031	
6.900	-0.150	-0.025	
6.905	-0.031	-0.029	
6.910	0.214	-0.025	
6.915	-0.083	-0.004	
6.920	-0.078	0.006	
6.925	0.221	0.008	
6.930	0.047	0.027	
6.935	-0.127	0.040	
6.940	0.114	0.035	
6.945	0.188	0.039	
6.950	-0.095	0.052	
6.955	0.021	0.050	
6.960	0.264	0.049	
6.965	-0.029	0.064	
6.970	-0.074	0.065	
6.975	0.233	0.057	
6.980	0.073	0.063	
6.985	-0.095	0.068	
6.990	0.162	0.060	
6.995	0.208	0.065	
7.000	-0.101	0.077	
7.005	0.026	0.071	
7.010	0.266	0.064	
7.015	-0.038	0.073	
7.020	-0.061	0.070	
7.025	0.256	0.060	
7.030	0.075	0.068	
7.035	-0.119	0.073	
7.040	0.088	0.058	
7.045	0.052	0.045	
7.050	-0.199	0.030	
7.055	-0.081	-0.002	
7.060	0.116	-0.029	
7.065	-0.130	-0.036	
7.070	-0.136	-0.046	
7.075	0.151	-0.054	
7.080	-0.016	-0.041	
7.085	-0.156	-0.029	
7.090	0.070	-0.029	
7.095	0.125	-0.019	
7.100	-0.142	-0.002	
7.105	-0.022	-0.002	
7.110	0.197	-0.001	
7.115	-0.066	0.014	
7.120	-0.087	0.017	
7.125	0.142	0.012	
7.130	-0.092	0.011	
7.135	-0.234	-0.004	
7.140	-0.042	-0.038	
7.145	0.001	-0.063	
7.150	-0.171	-0.073	
7.155	-0.046	-0.082	
7.160	0.127	-0.078	
7.165	-0.170	-0.060	
7.170	-0.176	-0.058	
7.175	0.036	-0.069	
7.180	-0.101	-0.071	
7.185	-0.226	-0.077	
7.190	-0.011	-0.092	
7.195	0.035	-0.092	
7.200	-0.179	-0.081	
7.205	-0.037	-0.077	
7.210	0.114	-0.067	
7.215	-0.162	-0.049	
7.220	-0.164	-0.048	
7.225	0.070	-0.058	
7.230	-0.092	-0.058	
7.235	-0.193	-0.061	
7.240	-0.011	-0.074	
7.245	0.003	-0.076	
7.250	-0.173	-0.072	
7.255	-0.008	-0.072	
7.260	0.238	-0.057	
7.265	-0.071	-0.021	
7.270	0.041	0.007	
7.275	0.609	0.048	
7.280	0.427	0.138	
7.285	0.178	0.232	
7.290	0.507	0.295	
7.295	0.461	0.348	
7.300	0.065	0.379	
7.305	0.249	0.363	
7.310	0.420	0.333	
7.315	0.082	0.311	
7.320	0.168	0.278	
7.325	0.490	0.252	
7.330	0.174	0.254	
7.335	-0.078	0.243	
7.340	0.171	0.201	
7.345	0.052	0.158	
7.350	-0.182	0.112	
7.355	-0.089	0.050	
7.360	0.042	-0.004	
7.365	-0.161	-0.038	
7.370	-0.150	-0.067	
7.375	0.130	-0.084	
7.380	-0.046	-0.074	
7.385	-0.165	-0.062	
7.390	0.094	-0.057	
7.395	0.111	-0.038	
7.400	-0.150	-0.014	
7.405	-0.011	-0.009	
7.410	0.221	-0.002	
7.415	-0.106	0.016	
7.420	-0.098	0.018	
7.425	0.191	0.011	
7.430	-0.011	0.018	
7.435	-0.139	0.019	
7.440	0.130	0.009	
7.445	0.130	0.014	
7.450	-0.118	0.026	
7.455	0.046	0.025	
7.460	0.267	0.030	
7.465	-0.051	0.052	
7.470	-0.038	0.059	
7.475	0.252	0.057	
7.480	0.017	0.068	
7.485	-0.112	0.069	
7.490	0.122	0.053	
7.495	0.029	0.042	
7.500	-0.176	0.030	
7.505	-0.048	0.001	
7.510	0.099	-0.021	
7.515	-0.164	-0.029	
7.520	-0.197	-0.047	
7.525	-0.019	-0.074	
7.530	-0.179	-0.093	
7.535	-0.243	-0.113	
7.540	-0.005	-0.133	
7.545	-0.003	-0.131	
7.550	-0.142	-0.112	
7.555	0.099	-0.091	
7.560	0.288	-0.048	
7.565	-0.016	0.012	
7.570	0.042	0.054	
7.575	0.380	0.085	
7.580	0.075	0.125	
7.585	-0.060	0.143	
7.590	0.275	0.136	
7.595	0.233	0.141	
7.600	-0.078	0.148	
7.605	0.136	0.134	
7.610	0.356	0.128	
7.615	0.015	0.141	
7.620	-0.008	0.139	
7.625	0.328	0.127	
7.630	0.085	0.132	
7.635	-0.055	0.130	
7.640	0.208	0.114	
7.645	0.149	0.108	
7.650	-0.100	0.104	
7.655	0.053	0.083	
7.660	0.235	0.069	
7.665	-0.113	0.068	
7.670	-0.071	0.052	
7.675	0.240	0.034	
7.680	0.017	0.038	
7.685	-0.119	0.041	
7.690	0.134	0.030	
7.695	0.125	0.032	
7.700	-0.132	0.039	
7.705	-0.002	0.028	
7.710	0.180	0.020	
7.715	-0.101	0.024	
7.720	-0.081	0.017	
7.725	0.212	0.008	
7.730	-0.035	0.016	
7.735	-0.168	0.016	
7.740	0.124	0.002	
7.745	0.154	0.005	
7.750	-0.118	0.020	
7.755	0.010	0.021	
7.760	0.186	0.021	
7.765	-0.138	0.029	
7.770	-0.150	0.016	
7.775	0.021	-0.012	
7.780	-0.182	-0.037	
7.785	-0.304	-0.073	
7.790	-0.115	-0.118	
7.795	-0.133	-0.150	
7.800	-0.297	-0.169	
7.805	-0.130	-0.187	
7.810	0.013	-0.186	
7.815	-0.197	-0.165	
7.820	-0.148	-0.149	
7.825	0.081	-0.133	
7.830	-0.148	-0.106	
7.835	-0.240	-0.095	
7.840	-0.013	-0.101	
7.845	-0.071	-0.101	
7.850	-0.294	-0.103	
7.855	-0.167	-0.123	
7.860	-0.032	-0.141	
7.865	-0.240	-0.145	
7.870	-0.197	-0.153	
7.875	0.013	-0.158	
7.880	-0.159	-0.146	
7.885	-0.255	-0.139	
7.890	-0.040	-0.143	
7.895	-0.060	-0.137	
7.900	-0.232	-0.126	
7.905	-0.061	-0.125	
7.910	0.125	-0.112	
7.915	-0.121	-0.082	
7.920	-0.092	-0.061	
7.925	0.114	-0.049	
7.930	-0.133	-0.034	
7.935	-0.251	-0.038	
7.940	-0.057	-0.066	
7.945	-0.046	-0.086	
7.950	-0.214	-0.097	
7.955	-0.072	-0.109	
7.960	0.070	-0.109	
7.965	-0.130	-0.091	
7.970	-0.074	-0.078	
7.975	0.226	-0.059	
7.980	-0.038	-0.024	
7.985	-0.124	-0.001	
7.990	0.178	0.006	
7.995	0.149	0.026	
8.000	-0.100	0.048	
8.005	0.134	0.054	
8.010	0.270	0.067	
8.015	-0.037	0.091	
8.020	0.024	0.096	
8.025	0.371	0.098	
8.030	0.101	0.121	
8.035	-0.020	0.136	
8.040	0.351	0.137	
8.045	0.311	0.158	
8.050	-0.014	0.183	
8.055	0.253	0.187	
8.060	0.435	0.197	
8.065	0.059	0.220	
8.070	0.124	0.222	
8.075	0.455	0.217	
8.080	0.151	0.229	
8.085	-0.008	0.228	
8.090	0.376	0.208	
8.095	0.353	0.211	
8.100	-0.049	0.221	
8.105	0.151	0.204	
8.110	0.324	0.184	
8.115	-0.029	0.176	
8.120	0.029	0.153	
8.125	0.308	0.129	
8.130	0.027	0.125	
8.135	-0.074	0.113	
8.140	0.238	0.091	
8.145	0.174	0.091	
8.150	-0.090	0.096	
8.155	0.142	0.088	
8.160	0.337	0.092	
8.165	0.000	0.114	
8.170	0.130	0.126	
8.175	0.475	0.142	
8.180	0.146	0.181	
8.185	-0.017	0.201	
8.190	0.334	0.194	
8.195	0.226	0.196	
8.200	-0.109	0.191	
8.205	0.046	0.157	
8.210	0.122	0.115	
8.215	-0.164	0.080	
8.220	-0.124	0.032	
8.225	0.143	-0.010	
8.230	-0.038	-0.023	
8.235	-0.098	-0.026	
8.240	0.209	-0.024	
8.245	0.120	0.001	
8.250	-0.139	0.028	
8.255	0.032	0.030	
8.260	0.172	0.030	
8.265	-0.074	0.039	
8.270	0.023	0.038	
8.275	0.550	0.054	
8.280	0.524	0.129	
8.285	0.434	0.235	
8.290	0.797	0.345	
8.295	0.701	0.461	
8.300	0.327	0.550	
8.305	0.585	0.581	
8.310	0.651	0.589	
8.315	0.201	0.580	
8.320	0.293	0.531	
8.325	0.676	0.476	
8.330	0.518	0.461	
8.335	0.429	0.468	
8.340	0.820	0.486	
8.345	0.713	0.533	
8.350	0.391	0.580	
8.355	0.786	0.601	
8.360	1.087	0.641	
8.365	0.719	0.713	
8.370	0.843	0.772	
8.375	1.123	0.821	
8.380	0.728	0.870	
8.385	0.530	0.877	
8.390	0.872	0.841	
8.395	0.809	0.811	
8.400	0.434	0.781	
8.405	0.615	0.728	
8.410	0.666	0.675	
8.415	0.172	0.622	
8.420	0.125	0.534	
8.425	0.331	0.427	
8.430	-0.038	0.330	
8.435	-0.124	0.227	
8.440	0.149	0.129	
8.445	0.012	0.065	
8.450	-0.199	0.020	
8.455	-0.008	-0.023	
8.460	0.180	-0.042	
8.465	-0.136	-0.034	
8.470	-0.109	-0.033	
8.475	0.075	-0.039	
8.480	-0.104	-0.038	
8.485	-0.207	-0.046	
8.490	-0.032	-0.067	
8.495	-0.153	-0.084	
8.500	-0.330	-0.108	
8.505	-0.194	-0.147	
8.510	-0.100	-0.176	
8.515	-0.281	-0.189	
8.520	-0.248	-0.203	
8.525	-0.078	-0.211	
8.530	-0.262	-0.207	
8.535	-0.324	-0.210	
8.540	-0.145	-0.221	
8.545	-0.229	-0.225	
8.550	-0.385	-0.231	
8.555	-0.254	-0.249	
8.560	-0.199	-0.262	
8.565	-0.396	-0.269	
8.570	-0.350	-0.284	
8.575	-0.199	-0.299	
8.580	-0.332	-0.301	
8.585	-0.393	-0.304	
8.590	-0.173	-0.309	
8.595	-0.216	-0.299	
8.600	-0.362	-0.283	
8.605	-0.196	-0.275	
8.610	-0.142	-0.262	
8.615	-0.350	-0.246	
8.620	-0.283	-0.244	
8.625	-0.126	-0.246	
8.630	-0.284	-0.240	
8.635	-0.329	-0.239	
8.640	-0.158	-0.246	
8.645	-0.220	-0.244	
8.650	-0.349	-0.241	
8.655	-0.208	-0.247	
8.660	-0.174	-0.248	
8.665	-0.356	-0.245	
8.670	-0.281	-0.252	
8.675	-0.074	-0.255	
8.680	-0.249	-0.240	
8.685	-0.281	-0.228	
8.690	-0.147	-0.225	
8.695	-0.232	-0.218	
8.700	-0.394	-0.222	
8.705	-0.240	-0.240	
8.710	-0.182	-0.254	
8.715	-0.379	-0.259	
8.720	-0.304	-0.271	
8.725	-0.118	-0.278	
8.730	-0.286	-0.268	
8.735	-0.350	-0.262	
8.740	-0.167	-0.264	
8.745	-0.231	-0.258	
8.750	-0.342	-0.252	
8.755	-0.156	-0.253	
8.760	-0.130	-0.242	
8.765	-0.361	-0.228	
8.770	-0.263	-0.231	
8.775	-0.116	-0.236	
8.780	-0.257	-0.229	
8.785	-0.251	-0.225	
8.790	0.053	-0.213	
8.795	-0.022	-0.176	
8.800	-0.181	-0.133	
8.805	0.033	-0.104	
8.810	0.104	-0.070	
8.815	-0.176	-0.038	
8.820	-0.147	-0.033	
8.825	0.078	-0.043	
8.830	-0.112	-0.045	
8.835	-0.152	-0.051	
8.840	0.091	-0.059	
8.845	0.065	-0.048	
8.850	-0.144	-0.030	
8.855	0.042	-0.024	
8.860	0.140	-0.013	
8.865	-0.118	0.004	
8.870	0.012	0.008	
8.875	0.383	0.022	
8.880	0.072	0.064	
8.885	-0.040	0.095	
8.890	0.314	0.107	
8.895	0.163	0.128	
8.900	-0.113	0.139	
8.905	0.081	0.119	
8.910	0.105	0.095	
8.915	-0.171	0.071	
8.920	-0.089	0.031	
8.925	0.221	-0.000	
8.930	-0.060	-0.002	
8.935	-0.124	-0.004	
8.940	0.151	-0.011	
8.945	0.023	-0.003	
8.950	-0.147	0.003	
8.955	0.059	-0.004	
8.960	0.227	0.003	
8.965	-0.078	0.025	
8.970	0.108	0.040	
8.975	0.406	0.065	
8.980	0.049	0.110	
8.985	-0.037	0.133	
8.990	0.314	0.134	
8.995	0.166	0.144	
9.000	-0.098	0.148	
9.005	0.146	0.128	
9.010	0.175	0.112	
9.015	-0.097	0.101	
9.020	-0.023	0.076	
9.025	0.175	0.051	
9.030	-0.098	0.040	
9.035	-0.083	0.022	
9.040	0.250	0.009	
9.045	0.058	0.023	
9.050	-0.165	0.034	
9.055	0.010	0.022	
9.060	0.081	0.009	
9.065	-0.182	0.000	
9.070	-0.135	-0.023	
9.075	0.094	-0.047	
9.080	-0.098	-0.052	
9.085	-0.133	-0.056	
9.090	0.183	-0.056	
9.095	0.030	-0.033	
9.100	-0.139	-0.011	
9.105	0.122	-0.004	
9.110	0.236	0.016	
9.115	-0.057	0.048	
9.120	-0.009	0.060	
9.125	0.235	0.062	
9.130	-0.051	0.070	
9.135	-0.075	0.064	
9.140	0.259	0.052	
9.145	0.116	0.062	
9.150	-0.089	0.074	
9.155	0.145	0.070	
9.160	0.168	0.073	
9.165	-0.165	0.075	
9.170	-0.119	0.049	
9.175	0.023	0.010	
9.180	-0.127	-0.021	
9.185	-0.124	-0.048	
9.190	0.316	-0.056	
9.195	0.360	-0.009	
9.200	0.162	0.071	
9.205	0.748	0.163	
9.210	1.106	0.306	
9.215	0.816	0.494	
9.220	0.846	0.660	
9.225	1.158	0.790	
9.230	0.952	0.897	
9.235	0.612	0.954	
9.240	0.418	0.926	
9.245	-0.283	0.795	
9.250	-0.630	0.548	
9.255	-0.592	0.227	
9.260	-0.621	-0.085	
9.265	-0.807	-0.345	
9.270	-0.737	-0.546	
9.275	-0.585	-0.676	
9.280	-0.721	-0.737	
9.285	-0.712	-0.757	
9.290	-0.497	-0.749	
9.295	-0.553	-0.711	
9.300	-0.665	-0.666	
9.305	-0.462	-0.629	
9.310	-0.390	-0.586	
9.315	-0.517	-0.538	
9.320	-0.396	-0.499	
9.325	-0.237	-0.459	
9.330	-0.364	-0.411	
9.335	-0.344	-0.373	
9.340	-0.142	-0.340	
9.345	-0.231	-0.301	
9.350	-0.379	-0.271	
9.355	-0.217	-0.262	
9.360	-0.168	-0.255	
9.365	-0.341	-0.246	
9.370	-0.232	-0.246	
9.375	-0.054	-0.240	
9.380	-0.205	-0.218	
9.385	-0.220	-0.199	
9.390	0.041	-0.180	
9.395	-0.045	-0.146	
9.400	-0.197	-0.114	
9.405	0.044	-0.095	
9.410	0.137	-0.067	
9.415	-0.124	-0.032	
9.420	0.020	-0.013	
9.425	0.272	0.007	
9.430	-0.022	0.041	
9.435	-0.038	0.059	
9.440	0.316	0.067	
9.445	0.160	0.093	
9.450	-0.046	0.116	
9.455	0.272	0.122	
9.460	0.382	0.142	
9.465	0.047	0.176	
9.470	0.223	0.193	
9.475	0.400	0.206	
9.480	-0.023	0.221	
9.485	0.023	0.205	
9.490	0.441	0.181	
9.495	0.298	0.191	
9.500	0.041	0.210	
9.505	0.350	0.215	
9.510	0.405	0.230	
9.515	0.068	0.252	
9.520	0.235	0.252	
9.525	0.464	0.252	
9.530	0.108	0.264	
9.535	0.044	0.254	
9.540	0.406	0.231	
9.545	0.203	0.225	
9.550	-0.042	0.217	
9.555	0.217	0.188	
9.560	0.270	0.170	
9.565	-0.029	0.163	
9.570	0.156	0.146	
9.575	0.455	0.145	
9.580	0.073	0.171	
9.585	0.107	0.184	
9.590	0.495	0.193	
9.595	0.302	0.226	
9.600	0.056	0.254	
9.605	0.362	0.257	
9.610	0.398	0.265	
9.615	-0.016	0.273	
9.620	0.116	0.249	
9.625	0.321	0.216	
9.630	-0.023	0.193	
9.635	-0.032	0.158	
9.640	0.319	0.122	
9.645	0.116	0.115	
9.650	-0.049	0.114	
9.655	0.211	0.102	
9.660	0.267	0.108	
9.665	-0.068	0.121	
9.670	0.058	0.115	
9.675	0.322	0.107	
9.680	0.033	0.118	
9.685	0.072	0.122	
9.690	0.463	0.132	
9.695	0.302	0.172	
9.700	0.059	0.212	
9.705	0.379	0.229	
9.710	0.385	0.251	
9.715	0.001	0.268	
9.720	0.127	0.251	
9.725	0.356	0.224	
9.730	0.021	0.210	
9.735	-0.006	0.182	
9.740	0.380	0.152	
9.745	0.220	0.155	
9.750	-0.002	0.165	
9.755	0.287	0.163	
9.760	0.336	0.174	
9.765	0.038	0.193	
9.770	0.290	0.199	
9.775	0.592	0.221	
9.780	0.290	0.273	
9.785	0.374	0.319	
9.790	0.751	0.366	
9.795	0.788	0.444	
9.800	0.990	0.554	
9.805	1.573	0.706	
9.810	1.572	0.913	
9.815	1.098	1.115	
9.820	1.162	1.236	
9.825	1.277	1.285	
9.830	0.814	1.280	
9.835	0.741	1.210	
9.840	1.358	1.121	
9.845	1.223	1.086	
9.850	0.877	1.084	
9.855	1.141	1.073	
9.860	1.045	1.064	
9.865	0.504	1.035	
9.870	0.573	0.951	
9.875	0.695	0.842	
9.880	0.212	0.734	
9.885	0.090	0.601	
9.890	0.345	0.458	
9.895	0.073	0.343	
9.900	-0.139	0.239	
9.905	0.058	0.137	
9.910	0.064	0.064	
9.915	-0.184	0.016	
9.920	-0.092	-0.029	
9.925	0.038	-0.061	
9.930	-0.231	-0.077	
9.935	-0.239	-0.101	
9.940	-0.020	-0.128	
9.945	-0.121	-0.136	
9.950	-0.240	-0.138	
9.955	-0.064	-0.144	
9.960	-0.075	-0.141	
9.965	-0.280	-0.136	
9.970	-0.176	-0.146	
9.975	-0.061	-0.156	
9.980	-0.283	-0.159	
9.985	-0.306	-0.174	
9.990	-0.116	-0.196	
9.995	-0.234	-0.206	
10.000	-0.352	-0.216	
10.005	-0.203	-0.234	
10.010	-0.193	-0.244	
10.015	-0.358	-0.247	
10.020	-0.242	-0.256	
10.025	-0.115	-0.257	
10.030	-0.283	-0.245	
10.035	-0.277	-0.238	
10.040	-0.104	-0.234	
10.045	-0.184	-0.220	
10.050	-0.268	-0.206	
10.055	-0.066	-0.198	
10.060	-0.063	-0.178	
10.065	-0.275	-0.158	
10.070	-0.181	-0.155	
10.075	-0.051	-0.157	
10.080	-0.255	-0.153	
10.085	-0.265	-0.162	
10.090	-0.060	-0.175	
10.095	-0.190	-0.175	
10.100	-0.320	-0.178	
10.105	-0.106	-0.190	
10.110	-0.100	-0.190	
10.115	-0.300	-0.183	
10.120	-0.185	-0.186	
10.125	-0.048	-0.187	
10.130	-0.258	-0.177	
10.135	-0.243	-0.177	
10.140	-0.025	-0.180	
10.145	-0.150	-0.169	
10.150	-0.257	-0.159	
10.155	-0.058	-0.158	
10.160	-0.060	-0.148	
10.165	-0.239	-0.135	
10.170	-0.103	-0.134	
10.175	0.015	-0.128	
10.180	-0.219	-0.115	
10.185	-0.211	-0.117	
10.190	0.020	-0.124	
10.195	-0.104	-0.118	
10.200	-0.219	-0.112	
10.205	-0.025	-0.115	
10.210	-0.048	-0.109	
10.215	-0.262	-0.104	
10.220	-0.159	-0.116	
10.225	-0.055	-0.130	
10.230	-0.258	-0.137	
10.235	-0.248	-0.153	
10.240	-0.043	-0.169	
10.245	-0.176	-0.170	
10.250	-0.309	-0.171	
10.255	-0.145	-0.183	
10.260	-0.148	-0.190	
10.265	-0.347	-0.195	
10.270	-0.226	-0.211	
10.275	-0.116	-0.222	
10.280	-0.298	-0.221	
10.285	-0.277	-0.226	
10.290	-0.098	-0.230	
10.295	-0.222	-0.222	
10.300	-0.306	-0.216	
10.305	-0.068	-0.215	
10.310	-0.035	-0.197	
10.315	-0.228	-0.168	
10.320	-0.109	-0.151	
10.325	0.030	-0.134	
10.330	-0.213	-0.113	
10.335	-0.200	-0.109	
10.340	0.009	-0.115	
10.345	-0.136	-0.111	
10.350	-0.249	-0.113	
10.355	-0.063	-0.125	
10.360	-0.086	-0.129	
10.365	-0.278	-0.131	
10.370	-0.141	-0.144	
10.375	-0.003	-0.150	
10.380	-0.203	-0.141	
10.385	-0.176	-0.138	
10.390	0.070	-0.133	
10.395	-0.092	-0.112	
10.400	-0.205	-0.096	
10.405	0.026	-0.092	
10.410	0.033	-0.079	
10.415	-0.184	-0.062	
10.420	-0.043	-0.060	
10.425	0.125	-0.054	
10.430	-0.145	-0.039	
10.435	-0.145	-0.038	
10.440	0.124	-0.045	
10.445	-0.057	-0.038	
10.450	-0.173	-0.035	
10.455	0.053	-0.044	
10.460	0.044	-0.041	
10.465	-0.171	-0.033	
10.470	0.001	-0.037	
10.475	0.209	-0.030	
10.480	-0.083	-0.006	
10.485	-0.057	0.007	
10.490	0.259	0.014	
10.495	0.032	0.038	
10.500	-0.101	0.053	
10.505	0.221	0.053	
10.510	0.204	0.068	
10.515	-0.095	0.088	
10.520	0.101	0.087	
10.525	0.281	0.088	
10.530	-0.045	0.101	
10.535	-0.035	0.096	
10.540	0.339	0.086	
10.545	0.116	0.100	
10.550	-0.034	0.113	
10.555	0.310	0.116	
10.560	0.272	0.135	
10.565	-0.045	0.157	
10.570	0.146	0.154	
10.575	0.337	0.151	
10.580	-0.009	0.159	
10.585	0.029	0.150	
10.590	0.366	0.137	
10.595	0.075	0.144	
10.600	-0.068	0.141	
10.605	0.195	0.120	
10.610	0.156	0.110	
10.615	-0.126	0.102	
10.620	0.038	0.077	
10.625	0.185	0.056	
10.630	-0.101	0.050	
10.635	-0.071	0.034	
10.640	0.261	0.020	
10.645	0.020	0.032	
10.650	-0.107	0.040	
10.655	0.156	0.035	
10.660	0.160	0.043	
10.665	-0.092	0.057	
10.670	0.117	0.057	
10.675	0.299	0.067	
10.680	-0.054	0.090	
10.685	-0.051	0.092	
10.690	0.223	0.078	
10.695	-0.014	0.075	
10.700	-0.136	0.062	
10.705	0.084	0.035	
10.710	0.023	0.018	
10.715	-0.207	0.002	
10.720	-0.092	-0.028	
10.725	0.078	-0.052	
10.730	-0.165	-0.059	
10.735	-0.132	-0.069	
10.740	0.143	-0.075	
10.745	-0.069	-0.060	
10.750	-0.168	-0.049	
10.755	0.065	-0.050	
10.760	0.056	-0.041	
10.765	-0.136	-0.027	
10.770	0.062	-0.022	
10.775	0.263	-0.004	
10.780	-0.080	0.029	
10.785	-0.103	0.040	
10.790	0.017	0.026	
10.795	-0.139	0.004	
10.800	-0.216	-0.029	
10.805	0.030	-0.065	
10.810	0.058	-0.075	
10.815	-0.142	-0.066	
10.820	0.050	-0.058	
10.825	0.253	-0.033	
10.830	-0.063	0.008	
10.835	-0.020	0.032	
10.840	0.287	0.046	
10.845	0.056	0.073	
10.850	-0.057	0.088	
10.855	0.244	0.088	
10.860	0.171	0.100	
10.865	-0.110	0.109	
10.870	0.067	0.094	
10.875	0.311	0.085	
10.880	-0.040	0.095	
10.885	-0.026	0.092	
10.890	0.330	0.084	
10.895	0.122	0.100	
10.900	-0.013	0.115	
10.905	0.318	0.120	
10.910	0.270	0.142	
10.915	-0.032	0.164	
10.920	0.185	0.163	
10.925	0.340	0.164	
10.930	-0.016	0.173	
10.935	0.017	0.161	
10.940	0.314	0.140	
10.945	0.067	0.137	
10.950	-0.080	0.127	
10.955	0.232	0.105	
10.960	0.183	0.101	
10.965	-0.122	0.103	
10.970	0.061	0.084	
10.975	0.258	0.072	
10.980	-0.051	0.076	
10.985	-0.019	0.071	
10.990	0.272	0.064	
10.995	0.023	0.074	
11.000	-0.087	0.076	
11.005	0.212	0.065	
11.010	0.137	0.070	
11.015	-0.121	0.076	
11.020	0.055	0.063	
11.025	0.270	0.057	
11.030	-0.025	0.070	
11.035	0.039	0.075	
11.040	0.354	0.083	
11.045	0.082	0.109	
11.050	-0.052	0.124	
11.055	0.224	0.118	
11.060	0.148	0.118	
11.065	-0.145	0.113	
11.070	-0.005	0.084	
11.075	0.111	0.051	
11.080	-0.138	0.030	
11.085	-0.101	0.001	
11.090	0.105	-0.024	
11.095	-0.080	-0.030	
11.100	-0.133	-0.037	
11.105	0.119	-0.043	
11.110	0.055	-0.031	
11.115	-0.148	-0.016	
11.120	0.027	-0.015	
11.125	0.229	-0.006	
11.130	-0.052	0.020	
11.135	0.049	0.037	
11.140	0.382	0.058	
11.145	0.084	0.099	
11.150	-0.075	0.123	
11.155	0.180	0.117	
11.160	0.097	0.110	
11.165	-0.129	0.098	
11.170	0.050	0.069	
11.175	0.227	0.051	
11.180	-0.069	0.053	
11.185	-0.009	0.048	
11.190	0.322	0.047	
11.195	0.434	0.087	
11.200	0.638	0.175	
11.205	1.136	0.318	
11.210	1.081	0.513	
11.215	0.753	0.702	
11.220	0.968	0.829	
11.225	1.008	0.909	
11.230	0.560	0.944	
11.235	0.577	0.912	
11.240	0.816	0.845	
11.245	0.479	0.780	
11.250	0.279	0.699	
11.255	0.597	0.605	
11.260	0.522	0.540	
11.265	0.246	0.495	
11.270	0.512	0.452	
11.275	0.660	0.436	
11.280	0.386	0.450	
11.285	0.429	0.460	
11.290	0.615	0.466	
11.295	0.324	0.474	
11.300	0.178	0.457	
11.305	0.568	0.422	
11.310	0.434	0.408	
11.315	0.052	0.394	
11.320	0.208	0.349	
11.325	0.249	0.295	
11.330	-0.089	0.243	
11.335	-0.014	0.175	
11.340	0.273	0.116	
11.345	0.006	0.091	
11.350	-0.086	0.071	
11.355	0.148	0.047	
11.360	0.050	0.039	
11.365	-0.147	0.032	
11.370	0.015	0.012	
11.375	0.073	-0.002	
11.380	-0.197	-0.010	
11.385	-0.136	-0.033	
11.390	0.078	-0.057	
11.395	-0.127	-0.063	
11.400	-0.184	-0.071	
11.405	0.046	-0.082	
11.410	-0.017	-0.078	
11.415	-0.171	-0.069	
11.420	-0.026	-0.069	
11.425	0.035	-0.066	
11.430	-0.200	-0.059	
11.435	-0.138	-0.068	
11.440	0.038	-0.080	
11.445	-0.148	-0.081	
11.450	-0.197	-0.088	
11.455	-0.003	-0.100	
11.460	-0.043	-0.099	
11.465	-0.197	-0.093	
11.470	-0.040	-0.095	
11.475	0.027	-0.090	
11.480	-0.148	-0.077	
11.485	-0.032	-0.071	
11.490	0.272	-0.052	
11.495	0.001	-0.009	
11.500	-0.071	0.023	
11.505	0.272	0.040	
11.510	0.168	0.071	
11.515	-0.107	0.096	
11.520	0.065	0.092	
11.525	0.127	0.079	
11.530	-0.148	0.067	
11.535	0.015	0.041	
11.540	0.475	0.037	
11.545	0.284	0.086	
11.550	0.227	0.153	
11.555	0.626	0.220	
11.560	0.476	0.303	
11.565	0.120	0.366	
11.570	0.374	0.380	
11.575	0.420	0.376	
11.580	0.003	0.361	
11.585	0.062	0.309	
11.590	0.328	0.248	
11.595	0.024	0.206	
11.600	-0.048	0.163	
11.605	0.284	0.121	
11.610	0.143	0.109	
11.615	-0.083	0.105	
11.620	0.131	0.089	
11.625	0.233	0.084	
11.630	-0.089	0.089	
11.635	-0.002	0.078	
11.640	0.270	0.066	
11.645	-0.043	0.071	
11.650	-0.089	0.065	
11.655	0.201	0.049	
11.660	0.039	0.048	
11.665	-0.173	0.044	
11.670	-0.072	0.016	
11.675	-0.074	-0.018	
11.680	-0.329	-0.057	
11.685	-0.304	-0.114	
11.690	-0.167	-0.171	
11.695	-0.338	-0.213	
11.700	-0.410	-0.252	
11.705	-0.240	-0.289	
11.710	-0.300	-0.309	
11.715	-0.436	-0.321	
11.720	-0.278	-0.334	
11.725	-0.214	-0.335	
11.730	-0.394	-0.324	
11.735	-0.338	-0.321	
11.740	-0.222	-0.320	
11.745	-0.381	-0.314	
11.750	-0.391	-0.316	
11.755	-0.179	-0.321	
11.760	-0.229	-0.309	
11.765	-0.358	-0.293	
11.770	-0.205	-0.283	
11.775	-0.098	-0.266	
11.780	-0.310	-0.242	
11.785	-0.277	-0.231	
11.790	-0.139	-0.229	
11.795	-0.303	-0.226	
11.800	-0.353	-0.233	
11.805	-0.171	-0.248	
11.810	-0.237	-0.253	
11.815	-0.384	-0.256	
11.820	-0.231	-0.267	
11.825	-0.188	-0.271	
11.830	-0.394	-0.269	
11.835	-0.301	-0.278	
11.840	-0.138	-0.283	
11.845	-0.268	-0.272	
11.850	-0.291	-0.261	
11.855	-0.089	-0.251	
11.860	-0.145	-0.228	
11.865	-0.283	-0.205	
11.870	-0.104	-0.194	
11.875	-0.040	-0.177	
11.880	-0.245	-0.156	
11.885	-0.170	-0.149	
11.890	0.007	-0.145	
11.895	-0.161	-0.130	
11.900	-0.188	-0.123	
11.905	0.035	-0.119	
11.910	-0.042	-0.103	
11.915	-0.194	-0.087	
11.920	-0.003	-0.083	
11.925	0.079	-0.072	
11.930	-0.158	-0.053	
11.935	-0.084	-0.049	
11.940	0.174	-0.045	
11.945	-0.078	-0.026	
11.950	-0.118	-0.016	
11.955	0.169	-0.016	
11.960	0.061	0.001	
11.965	-0.132	0.016	
11.970	0.087	0.015	
11.975	0.194	0.023	
11.980	-0.092	0.040	
11.985	0.009	0.042	
11.990	0.290	0.045	
11.995	-0.002	0.065	
12.000	-0.069	0.073	
12.005	0.233	0.068	
12.010	0.093	0.076	
12.015	-0.098	0.080	
12.020	0.139	0.069	
12.025	0.229	0.070	
12.030	-0.113	0.080	
12.035	-0.037	0.068	
12.040	0.183	0.050	
12.045	-0.068	0.044	
12.050	-0.100	0.030	
12.055	0.171	0.014	
12.060	0.015	0.015	
12.065	-0.159	0.015	
12.070	0.000	-0.002	
12.075	0.079	-0.014	
12.080	-0.158	-0.017	
12.085	-0.090	-0.030	
12.090	0.130	-0.041	
12.095	-0.112	-0.036	
12.100	-0.147	-0.038	
12.105	0.065	-0.048	
12.110	-0.017	-0.045	
12.115	-0.165	-0.042	
12.120	0.039	-0.047	
12.125	0.159	-0.037	
12.130	-0.122	-0.015	
12.135	-0.043	-0.007	
12.140	0.223	-0.001	
12.145	-0.055	0.018	
12.150	-0.095	0.025	
12.155	0.211	0.022	
12.160	0.023	0.033	
12.165	-0.184	0.035	
12.170	-0.003	0.014	
12.175	0.097	-0.003	
12.180	-0.147	-0.009	
12.185	-0.097	-0.024	
12.190	-0.035	-0.044	
12.195	-0.260	-0.066	
12.200	-0.304	-0.104	
12.205	-0.129	-0.149	
12.210	-0.193	-0.179	
12.215	-0.306	-0.198	
12.220	-0.121	-0.214	
12.225	-0.043	-0.209	
12.230	-0.231	-0.189	
12.235	-0.155	-0.174	
12.240	-0.035	-0.161	
12.245	-0.240	-0.147	
12.250	-0.284	-0.149	
12.255	-0.071	-0.164	
12.260	-0.139	-0.167	
12.265	-0.266	-0.166	
12.270	-0.080	-0.169	
12.275	0.003	-0.159	
12.280	-0.219	-0.139	
12.285	-0.104	-0.128	
12.290	0.120	-0.113	
12.295	-0.109	-0.083	
12.300	-0.147	-0.065	
12.305	0.114	-0.057	
12.310	0.007	-0.039	
12.315	-0.142	-0.023	
12.320	0.070	-0.021	
12.325	0.122	-0.010	
12.330	-0.126	0.006	
12.335	-0.020	0.005	
12.340	0.226	0.007	
12.345	-0.061	0.024	
12.350	-0.097	0.028	
12.355	0.206	0.022	
12.360	0.059	0.033	
12.365	-0.115	0.042	
12.370	0.133	0.037	
12.375	0.227	0.045	
12.380	-0.077	0.064	
12.385	0.036	0.067	
12.390	0.288	0.069	
12.395	-0.035	0.084	
12.400	-0.074	0.082	
12.405	0.217	0.068	
12.410	0.097	0.070	
12.415	-0.109	0.071	
12.420	0.104	0.058	
12.425	0.128	0.052	
12.430	-0.126	0.050	
12.435	-0.011	0.033	
12.440	0.218	0.022	
12.445	-0.051	0.030	
12.450	-0.086	0.030	
12.455	0.192	0.023	
12.460	0.036	0.031	
12.465	-0.112	0.036	
12.470	0.148	0.030	
12.475	0.223	0.040	
12.480	-0.074	0.062	
12.485	0.059	0.067	
12.490	0.353	0.076	
12.495	0.062	0.104	
12.500	-0.029	0.120	
12.505	0.281	0.118	
12.510	0.133	0.126	
12.515	-0.083	0.128	
12.520	0.111	0.109	
12.525	0.137	0.093	
12.530	-0.155	0.078	
12.535	-0.072	0.045	
12.540	0.134	0.013	
12.545	-0.106	-0.001	
12.550	-0.119	-0.017	
12.555	0.162	-0.030	
12.560	0.007	-0.021	
12.565	-0.159	-0.012	
12.570	0.062	-0.017	
12.575	0.125	-0.012	
12.580	-0.112	0.002	
12.585	0.015	0.005	
12.590	0.290	0.015	
12.595	0.039	0.046	
12.600	-0.011	0.070	
12.605	0.258	0.081	
12.610	0.017	0.096	
12.615	-0.179	0.090	
12.620	0.029	0.057	
12.625	0.059	0.027	
12.630	-0.145	0.007	
12.635	-0.042	-0.016	
12.640	0.217	-0.025	
12.645	-0.028	-0.008	
12.650	-0.049	0.007	
12.655	0.272	0.020	
12.660	0.104	0.050	
12.665	-0.083	0.074	
12.670	0.169	0.077	
12.675	0.249	0.088	
12.680	-0.048	0.105	
12.685	0.108	0.107	
12.690	0.359	0.112	
12.695	0.026	0.133	
12.700	-0.011	0.137	
12.705	0.319	0.129	
12.710	0.145	0.137	
12.715	-0.042	0.141	
12.720	0.220	0.131	
12.725	0.293	0.133	
12.730	0.001	0.147	
12.735	0.159	0.148	
12.740	0.417	0.155	
12.745	0.111	0.180	
12.750	0.097	0.194	
12.755	0.463	0.200	
12.760	0.319	0.228	
12.765	0.082	0.254	
12.770	0.353	0.259	
12.775	0.322	0.265	
12.780	-0.042	0.263	
12.785	0.143	0.231	
12.790	0.366	0.201	
12.795	0.026	0.191	
12.800	0.010	0.170	
12.805	0.328	0.146	
12.810	0.107	0.143	
12.815	-0.078	0.136	
12.820	0.198	0.115	
12.825	0.208	0.107	
12.830	-0.075	0.109	
12.835	0.068	0.095	
12.840	0.295	0.087	
12.845	-0.023	0.097	
12.850	0.024	0.096	
12.855	0.423	0.099	
12.860	0.238	0.133	
12.865	0.026	0.168	
12.870	0.325	0.182	
12.875	0.295	0.201	
12.880	-0.060	0.212	
12.885	0.055	0.189	
12.890	0.287	0.158	
12.895	-0.037	0.141	
12.900	-0.035	0.115	
12.905	0.276	0.089	
12.910	0.160	0.091	
12.915	0.000	0.102	
12.920	0.281	0.110	
12.925	0.284	0.132	
12.930	-0.020	0.157	
12.935	0.127	0.157	
12.940	0.339	0.155	
12.945	0.003	0.162	
12.950	0.003	0.152	
12.955	0.330	0.134	
12.960	0.120	0.137	
12.965	-0.049	0.137	
12.970	0.208	0.123	
12.975	0.183	0.118	
12.980	-0.074	0.117	
12.985	0.044	0.099	
12.990	0.264	0.084	
12.995	0.017	0.089	
13.000	0.049	0.091	
13.005	0.438	0.100	
13.010	0.267	0.141	
13.015	0.082	0.184	
13.020	0.446	0.212	
13.025	0.460	0.252	
13.030	0.090	0.293	
13.035	0.293	0.302	
13.040	0.522	0.306	
13.045	0.157	0.320	
13.050	0.162	0.314	
13.055	0.560	0.301	
13.060	0.339	0.314	
13.065	0.131	0.326	
13.070	0.464	0.320	
13.075	0.414	0.327	
13.080	0.082	0.333	
13.085	0.256	0.313	
13.090	0.444	0.293	
13.095	0.052	0.285	
13.100	0.001	0.253	
13.105	0.278	0.206	
13.110	0.062	0.174	
13.115	-0.095	0.140	
13.120	0.134	0.098	
13.125	0.091	0.071	
13.130	-0.167	0.052	
13.135	-0.095	0.017	
13.140	0.013	-0.019	
13.145	-0.220	-0.046	
13.150	-0.225	-0.081	
13.155	-0.052	-0.117	
13.160	-0.194	-0.137	
13.165	-0.303	-0.156	
13.170	-0.144	-0.180	
13.175	-0.159	-0.193	
13.180	-0.324	-0.200	
13.185	-0.203	-0.213	
13.190	-0.061	-0.217	
13.195	-0.245	-0.205	
13.200	-0.236	-0.198	
13.205	-0.040	-0.192	
13.210	-0.161	-0.176	
13.215	-0.283	-0.166	
13.220	-0.075	-0.167	
13.225	-0.086	-0.160	
13.230	-0.266	-0.151	
13.235	-0.141	-0.154	
13.240	-0.019	-0.153	
13.245	-0.234	-0.143	
13.250	-0.229	-0.145	
13.255	-0.054	-0.154	
13.260	-0.153	-0.152	
13.265	-0.229	-0.150	
13.270	-0.042	-0.152	
13.275	-0.049	-0.141	
13.280	-0.242	-0.128	
13.285	-0.122	-0.128	
13.290	-0.008	-0.127	
13.295	-0.226	-0.120	
13.300	-0.197	-0.125	
13.305	0.003	-0.133	
13.310	-0.144	-0.127	
13.315	-0.234	-0.125	
13.320	-0.028	-0.131	
13.325	-0.045	-0.125	
13.330	-0.229	-0.115	
13.335	-0.078	-0.115	
13.340	0.068	-0.109	
13.345	-0.153	-0.090	
13.350	-0.136	-0.082	
13.355	0.082	-0.078	
13.360	-0.068	-0.064	
13.365	-0.188	-0.056	
13.370	0.041	-0.061	
13.375	0.059	-0.054	
13.380	-0.196	-0.042	
13.385	-0.078	-0.048	
13.390	0.070	-0.055	
13.395	-0.136	-0.051	
13.400	-0.118	-0.055	
13.405	0.000	-0.064	
13.410	-0.135	-0.068	
13.415	-0.193	-0.079	
13.420	0.072	-0.090	
13.425	0.094	-0.077	
13.430	-0.115	-0.050	
13.435	0.073	-0.030	
13.440	0.273	-0.001	
13.445	-0.051	0.040	
13.450	-0.034	0.059	
13.455	0.296	0.066	
13.460	0.064	0.086	
13.465	-0.106	0.094	
13.470	0.185	0.083	
13.475	0.157	0.081	
13.480	-0.081	0.085	
13.485	0.052	0.073	
13.490	0.188	0.063	
13.495	-0.081	0.063	
13.500	-0.028	0.051	
13.505	0.235	0.040	
13.510	-0.005	0.048	
13.515	-0.106	0.048	
13.520	0.140	0.036	
13.525	0.091	0.036	
13.530	-0.161	0.036	
13.535	-0.042	0.017	
13.540	0.116	-0.001	
13.545	-0.133	-0.007	
13.550	-0.115	-0.021	
13.555	0.133	-0.035	
13.560	-0.048	-0.030	
13.565	-0.127	-0.027	
13.570	0.094	-0.029	
13.575	0.056	-0.020	
13.580	-0.126	-0.008	
13.585	0.068	-0.006	
13.590	0.204	0.006	
13.595	-0.104	0.028	
13.600	-0.072	0.030	
13.605	0.188	0.023	
13.610	-0.029	0.028	
13.615	-0.132	0.025	
13.620	0.078	0.009	
13.625	0.013	0.001	
13.630	-0.205	-0.007	
13.635	-0.072	-0.032	
13.640	0.061	-0.051	
13.645	-0.158	-0.056	
13.650	-0.116	-0.066	
13.655	0.119	-0.071	
13.660	-0.075	-0.058	
13.665	-0.147	-0.049	
13.670	0.101	-0.048	
13.675	0.088	-0.032	
13.680	-0.135	-0.012	
13.685	0.035	-0.006	
13.690	0.220	0.005	
13.695	0.295	0.045	
13.700	0.767	0.129	
13.705	1.204	0.286	
13.710	0.924	0.500	
13.715	0.678	0.685	
13.720	0.933	0.798	
13.725	0.809	0.861	
13.730	0.414	0.870	
13.735	0.586	0.816	
13.740	0.712	0.745	
13.745	0.272	0.678	
13.750	0.302	0.592	
13.755	0.592	0.508	
13.760	0.281	0.454	
13.765	0.036	0.399	
13.770	0.353	0.331	
13.775	0.290	0.284	
13.780	-0.035	0.250	
13.785	0.134	0.203	
13.790	0.293	0.167	
13.795	-0.034	0.150	
13.800	-0.034	0.123	
13.805	0.266	0.094	
13.810	0.012	0.086	
13.815	-0.078	0.076	
13.820	0.180	0.059	
13.825	0.154	0.060	
13.830	-0.103	0.067	
13.835	0.018	0.056	
13.840	0.139	0.044	
13.845	-0.148	0.037	
13.850	-0.107	0.014	
13.855	0.137	-0.010	
13.860	-0.086	-0.016	
13.865	-0.168	-0.026	
13.870	0.075	-0.042	
13.875	0.026	-0.042	
13.880	-0.171	-0.036	
13.885	-0.006	-0.041	
13.890	0.119	-0.039	
13.895	-0.150	-0.028	
13.900	-0.116	-0.030	
13.905	0.116	-0.038	
13.910	-0.110	-0.035	
13.915	-0.205	-0.041	
13.920	-0.028	-0.062	
13.925	-0.074	-0.076	
13.930	-0.245	-0.088	
13.935	-0.121	-0.110	
13.940	-0.081	-0.126	
13.945	-0.368	-0.141	
13.950	-0.385	-0.178	
13.955	-0.252	-0.227	
13.960	-0.367	-0.268	
13.965	-0.428	-0.303	
13.970	-0.265	-0.334	
13.975	-0.287	-0.344	
13.980	-0.440	-0.345	
13.985	-0.318	-0.350	
13.990	-0.246	-0.349	
13.995	-0.422	-0.341	
14.000	-0.373	-0.342	
14.005	-0.200	-0.342	
14.010	-0.318	-0.329	
14.015	-0.378	-0.319	
14.020	-0.193	-0.313	
14.025	-0.207	-0.297	
14.030	-0.349	-0.278	
14.035	-0.216	-0.270	
14.040	-0.141	-0.258	
14.045	-0.310	-0.242	
14.050	-0.232	-0.235	
14.055	-0.035	-0.226	
14.060	-0.168	-0.201	
14.065	-0.242	-0.181	
14.070	-0.060	-0.170	
14.075	-0.109	-0.155	
14.080	-0.265	-0.144	
14.085	-0.133	-0.148	
14.090	-0.028	-0.148	
14.095	-0.219	-0.140	
14.100	-0.159	-0.139	
14.105	0.036	-0.136	
14.110	-0.095	-0.117	
14.115	-0.165	-0.102	
14.120	0.068	-0.092	
14.125	0.013	-0.070	
14.130	-0.150	-0.049	
14.135	0.021	-0.042	
14.140	0.134	-0.030	
14.145	-0.129	-0.011	
14.150	-0.061	-0.008	
14.155	0.186	-0.008	
14.160	-0.035	0.006	
14.165	-0.100	0.013	
14.170	0.185	0.011	
14.175	0.128	0.027	
14.180	-0.081	0.046	
14.185	0.215	0.055	
14.190	0.350	0.082	
14.195	0.018	0.123	
14.200	0.093	0.142	
14.205	0.414	0.154	
14.210	0.149	0.181	
14.215	0.027	0.195	
14.220	0.324	0.190	
14.225	0.215	0.194	
14.230	-0.069	0.191	
14.235	0.119	0.164	
14.240	0.191	0.137	
14.245	-0.089	0.117	
14.250	-0.020	0.086	
14.255	0.194	0.057	
14.260	-0.043	0.048	
14.265	-0.132	0.033	
14.270	0.119	0.011	
14.275	0.052	0.006	
14.280	-0.155	0.005	
14.285	0.017	-0.007	
14.290	0.166	-0.010	
14.295	-0.098	0.002	
14.300	-0.045	0.004	
14.305	0.243	0.007	
14.310	0.007	0.028	
14.315	-0.055	0.042	
14.320	0.276	0.049	
14.325	0.247	0.078	
14.330	-0.061	0.111	
14.335	0.075	0.115	
14.340	0.227	0.111	
14.345	-0.058	0.110	
14.350	-0.029	0.093	
14.355	0.180	0.070	
14.360	-0.048	0.059	
14.365	-0.135	0.041	
14.370	0.072	0.013	
14.375	0.039	-0.001	
14.380	-0.153	-0.008	
14.385	0.029	-0.021	
14.390	0.218	-0.018	
14.395	-0.072	0.005	
14.400	-0.045	0.017	
14.405	0.230	0.023	
14.410	-0.025	0.039	
14.415	-0.110	0.044	
14.420	0.151	0.033	
14.425	0.061	0.034	
14.430	-0.147	0.034	
14.435	0.007	0.017	
14.440	0.053	0.002	
14.445	-0.203	-0.010	
14.450	-0.168	-0.038	
14.455	0.024	-0.069	
14.460	-0.132	-0.083	
14.465	-0.168	-0.093	
14.470	0.076	-0.099	
14.475	0.023	-0.083	
14.480	-0.161	-0.062	
14.485	-0.013	-0.055	
14.490	0.093	-0.045	
14.495	-0.139	-0.031	
14.500	-0.097	-0.031	
14.505	0.152	-0.033	
14.510	-0.043	-0.021	
14.515	-0.100	-0.013	
14.520	0.143	-0.011	
14.525	0.062	0.004	
14.530	-0.126	0.017	
14.535	0.038	0.013	
14.540	0.189	0.015	
14.545	-0.061	0.030	
14.550	0.003	0.035	
14.555	0.272	0.041	
14.560	-0.002	0.061	
14.565	-0.061	0.070	
14.570	0.221	0.065	
14.575	0.146	0.075	
14.580	-0.095	0.086	
14.585	0.097	0.078	
14.590	0.235	0.075	
14.595	-0.098	0.081	
14.600	-0.052	0.069	
14.605	0.192	0.049	
14.610	-0.026	0.045	
14.615	-0.101	0.036	
14.620	0.186	0.023	
14.625	0.107	0.030	
14.630	-0.110	0.041	
14.635	0.068	0.037	
14.640	0.163	0.037	
14.645	-0.107	0.043	
14.650	-0.058	0.033	
14.655	0.162	0.019	
14.660	-0.043	0.019	
14.665	-0.106	0.014	
14.670	0.143	0.004	
14.675	0.067	0.010	
14.680	-0.115	0.018	
14.685	0.088	0.016	
14.690	0.284	0.027	
14.695	0.026	0.060	
14.700	0.088	0.084	
14.705	0.285	0.103	
14.710	-0.016	0.123	
14.715	-0.107	0.117	
14.720	0.110	0.087	
14.725	-0.006	0.061	
14.730	-0.182	0.033	
14.735	-0.038	-0.006	
14.740	0.041	-0.034	
14.745	-0.179	-0.048	
14.750	-0.119	-0.066	
14.755	0.059	-0.079	
14.760	-0.090	-0.075	
14.765	-0.152	-0.072	
14.770	0.065	-0.072	
14.775	-0.016	-0.061	
14.780	-0.148	-0.049	
14.785	0.055	-0.046	
14.790	0.232	-0.027	
14.795	-0.045	0.009	
14.800	-0.002	0.031	
14.805	0.215	0.045	
14.810	-0.081	0.059	
14.815	-0.168	0.050	
14.820	0.013	0.017	
14.825	-0.066	-0.011	
14.830	-0.207	-0.038	
14.835	-0.025	-0.068	
14.840	0.148	-0.075	
14.845	-0.103	-0.057	
14.850	-0.045	-0.042	
14.855	0.235	-0.025	
14.860	-0.016	0.007	
14.865	-0.054	0.028	
14.870	0.256	0.040	
14.875	0.146	0.066	
14.880	-0.103	0.087	
14.885	0.131	0.085	
14.890	0.258	0.087	
14.895	-0.038	0.101	
14.900	0.023	0.098	
14.905	0.304	0.093	
14.910	0.021	0.103	
14.915	-0.042	0.103	
14.920	0.333	0.097	
14.925	0.230	0.115	
14.930	-0.022	0.139	
14.935	0.258	0.145	
14.940	0.345	0.160	
14.945	0.017	0.183	
14.950	0.133	0.183	
14.955	0.403	0.182	
14.960	0.110	0.196	
14.965	0.006	0.195	
14.970	0.290	0.178	
14.975	0.166	0.172	
14.980	-0.063	0.162	
14.985	0.120	0.135	
14.990	0.171	0.113	
14.995	-0.145	0.096	
15.000	-0.028	0.063	
15.005	0.259	0.038	
15.010	0.001	0.041	
15.015	-0.069	0.044	
15.020	0.236	0.042	
15.025	0.139	0.058	
15.030	-0.075	0.076	
15.035	0.160	0.077	
15.040	0.266	0.087	
15.045	-0.066	0.105	
15.050	0.035	0.102	
15.055	0.310	0.096	
15.060	0.047	0.108	
15.065	-0.026	0.111	
15.070	0.285	0.105	
15.075	0.159	0.115	
15.080	-0.072	0.123	
15.085	0.156	0.113	
15.090	0.172	0.105	
15.095	-0.126	0.100	
15.100	-0.072	0.072	
15.105	0.088	0.036	
15.110	-0.095	0.012	
15.115	-0.127	-0.012	
15.120	0.110	-0.033	
15.125	-0.016	-0.034	
15.130	-0.156	-0.031	
15.135	0.052	-0.037	
15.140	0.143	-0.029	
15.145	-0.130	-0.010	
15.150	-0.051	-0.007	
15.155	0.186	-0.006	
15.160	-0.026	0.009	
15.165	-0.057	0.019	
15.170	0.209	0.023	
15.175	0.073	0.041	
15.180	-0.142	0.052	
15.185	0.024	0.039	
15.190	0.075	0.025	
15.195	-0.150	0.014	
15.200	-0.055	-0.007	
15.205	0.221	-0.017	
15.210	-0.040	-0.003	
15.215	-0.083	0.007	
15.220	0.224	0.011	
15.225	0.117	0.034	
15.230	-0.078	0.056	
15.235	0.136	0.061	
15.240	0.180	0.070	
15.245	-0.077	0.080	
15.250	0.021	0.073	
15.255	0.276	0.067	
15.260	0.000	0.078	
15.265	-0.061	0.079	
15.270	0.267	0.072	
15.275	0.146	0.083	
15.280	-0.058	0.097	
15.285	0.204	0.096	
15.290	0.307	0.109	
15.295	-0.005	0.132	
15.300	0.124	0.139	
15.305	0.371	0.145	
15.310	0.032	0.162	
15.315	-0.016	0.160	
15.320	0.321	0.145	
15.325	0.208	0.149	
15.330	-0.023	0.156	
15.335	0.238	0.149	
15.340	0.298	0.153	
15.345	-0.042	0.163	
15.350	0.039	0.150	
15.355	0.301	0.131	
15.360	0.018	0.128	
15.365	-0.026	0.117	
15.370	0.285	0.102	
15.375	0.128	0.107	
15.380	-0.083	0.110	
15.385	0.134	0.096	
15.390	0.185	0.089	
15.395	-0.101	0.087	
15.400	0.000	0.069	
15.405	0.261	0.055	
15.410	0.000	0.062	
15.415	-0.077	0.063	
15.420	0.217	0.054	
15.425	0.117	0.062	
15.430	-0.035	0.073	
15.435	0.241	0.079	
15.440	0.278	0.100	
15.445	-0.075	0.126	
15.450	-0.013	0.120	
15.455	0.209	0.100	
15.460	-0.069	0.088	
15.465	-0.119	0.063	
15.470	0.117	0.030	
15.475	-0.014	0.013	
15.480	-0.171	-0.001	
15.485	-0.006	-0.025	
15.490	0.047	-0.038	
15.495	-0.155	-0.041	
15.500	-0.069	-0.050	
15.505	0.091	-0.054	
15.510	-0.103	-0.046	
15.515	-0.093	-0.043	
15.520	0.240	-0.036	
15.525	0.119	-0.003	
15.530	-0.046	0.034	
15.535	0.255	0.059	
15.540	0.313	0.096	
15.545	-0.052	0.135	
15.550	0.065	0.142	
15.555	0.282	0.136	
15.560	0.006	0.137	
15.565	0.027	0.127	
15.570	0.452	0.122	
15.575	0.353	0.157	
15.580	0.114	0.203	
15.585	0.475	0.238	
15.590	0.492	0.282	
15.595	0.124	0.325	
15.600	0.259	0.332	
15.605	0.478	0.326	
15.610	0.220	0.329	
15.615	0.240	0.323	
15.620	0.592	0.320	
15.625	0.398	0.344	
15.630	0.125	0.362	
15.635	0.447	0.354	
15.640	0.490	0.355	
15.645	0.088	0.360	
15.650	0.189	0.335	
15.655	0.426	0.302	
15.660	0.093	0.283	
15.665	0.067	0.252	
15.670	0.380	0.219	
15.675	0.220	0.210	
15.680	-0.008	0.205	
15.685	0.252	0.185	
15.690	0.302	0.178	
15.695	-0.052	0.179	
15.700	0.035	0.157	
15.705	0.230	0.129	
15.710	-0.051	0.112	
15.715	-0.078	0.085	
15.720	0.177	0.055	
15.725	-0.002	0.042	
15.730	-0.170	0.029	
15.735	-0.017	0.000	
15.740	-0.005	-0.024	
15.745	-0.219	-0.042	
15.750	-0.142	-0.071	
15.755	-0.009	-0.095	
15.760	-0.194	-0.106	
15.765	-0.200	-0.120	
15.770	0.000	-0.132	
15.775	-0.121	-0.128	
15.780	-0.262	-0.126	
15.785	-0.090	-0.136	
15.790	-0.046	-0.138	
15.795	-0.245	-0.133	
15.800	-0.165	-0.139	
15.805	-0.057	-0.145	
15.810	-0.262	-0.146	
15.815	-0.268	-0.159	
15.820	-0.078	-0.176	
15.825	-0.194	-0.181	
15.830	-0.321	-0.186	
15.835	-0.164	-0.200	
15.840	-0.133	-0.207	
15.845	-0.317	-0.206	
15.850	-0.232	-0.214	
15.855	-0.113	-0.219	
15.860	-0.297	-0.217	
15.865	-0.312	-0.222	
15.870	-0.155	-0.234	
15.875	-0.252	-0.236	
15.880	-0.371	-0.242	
15.885	-0.208	-0.255	
15.890	-0.171	-0.259	
15.895	-0.368	-0.255	
15.900	-0.275	-0.261	
15.905	-0.119	-0.264	
15.910	-0.278	-0.253	
15.915	-0.303	-0.246	
15.920	-0.127	-0.244	
15.925	-0.222	-0.234	
15.930	-0.332	-0.227	
15.935	-0.164	-0.231	
15.940	-0.142	-0.227	
15.945	-0.315	-0.218	
15.950	-0.202	-0.219	
15.955	-0.075	-0.215	
15.960	-0.234	-0.201	
15.965	-0.254	-0.193	
15.970	-0.077	-0.192	
15.975	-0.171	-0.182	
15.980	-0.271	-0.176	
15.985	-0.084	-0.177	
15.990	-0.048	-0.167	
15.995	-0.246	-0.151	
16.000	-0.153	-0.148	
16.005	-0.006	-0.144	
16.010	-0.187	-0.132	
16.015	-0.152	-0.126	
16.020	0.134	-0.117	
16.025	0.007	-0.085	
16.030	-0.139	-0.053	
16.035	0.061	-0.037	
16.040	0.099	-0.019	
16.045	-0.145	-0.001	
16.050	-0.026	-0.002	
16.055	0.177	-0.003	
16.060	-0.110	0.007	
16.065	-0.142	0.002	
16.070	0.130	-0.013	
16.075	0.010	-0.012	
16.080	-0.124	-0.008	
16.085	0.050	-0.013	
16.090	0.059	-0.012	
16.095	-0.159	-0.008	
16.100	-0.063	-0.020	
16.105	0.139	-0.029	
16.110	-0.103	-0.023	
16.115	-0.121	-0.024	
16.120	0.108	-0.031	
16.125	-0.031	-0.026	
16.130	-0.150	-0.023	
16.135	0.032	-0.032	
16.140	0.105	-0.029	
16.145	-0.158	-0.018	
16.150	-0.066	-0.023	
16.155	0.192	-0.025	
16.160	-0.049	-0.009	
16.165	-0.040	0.003	
16.170	0.236	0.013	
16.175	0.020	0.037	
16.180	-0.109	0.049	
16.185	0.124	0.043	
16.190	0.134	0.044	
16.195	-0.127	0.049	
16.200	-0.031	0.035	
16.205	0.133	0.020	
16.210	-0.118	0.014	
16.215	-0.141	-0.003	
16.220	0.085	-0.025	
16.225	-0.037	-0.032	
16.230	-0.165	-0.036	
16.235	0.032	-0.047	
16.240	0.052	-0.046	
16.245	-0.164	-0.039	
16.250	-0.060	-0.043	
16.255	0.127	-0.045	
16.260	-0.095	-0.033	
16.265	-0.075	-0.027	
16.270	0.212	-0.021	
16.275	0.041	0.004	
16.280	-0.130	0.023	
16.285	0.050	0.020	
16.290	0.055	0.016	
16.295	-0.145	0.012	
16.300	-0.023	-0.004	
16.305	0.183	-0.012	
16.310	-0.081	-0.001	
16.315	-0.081	0.001	
16.320	0.127	-0.003	
16.325	-0.016	0.003	
16.330	-0.141	0.003	
16.335	0.081	-0.008	
16.340	0.117	-0.005	
16.345	-0.110	0.007	
16.350	0.046	0.009	
16.355	0.246	0.018	
16.360	-0.023	0.043	
16.365	-0.014	0.056	
16.370	0.316	0.064	
16.375	0.122	0.091	
16.380	-0.055	0.110	
16.385	0.223	0.110	
16.390	0.243	0.119	
16.395	-0.068	0.131	
16.400	0.088	0.122	
16.405	0.255	0.112	
16.410	-0.064	0.111	
16.415	-0.017	0.095	
16.420	0.299	0.079	
16.425	0.079	0.087	
16.430	-0.106	0.091	
16.435	0.149	0.077	
16.440	0.215	0.075	
16.445	-0.081	0.083	
16.450	0.020	0.075	
16.455	0.186	0.064	
16.460	-0.097	0.060	
16.465	-0.100	0.042	
16.470	0.195	0.021	
16.475	0.041	0.022	
16.480	-0.132	0.025	
16.485	0.039	0.014	
16.490	0.067	0.006	
16.495	-0.159	0.002	
16.500	-0.058	-0.015	
16.505	0.119	-0.028	
16.510	-0.098	-0.025	
16.515	-0.104	-0.027	
16.520	0.188	-0.029	
16.525	0.072	-0.009	
16.530	-0.100	0.014	
16.535	0.117	0.022	
16.540	0.082	0.032	
16.545	-0.129	0.038	
16.550	-0.011	0.025	
16.555	0.148	0.014	
16.560	-0.115	0.014	
16.565	-0.150	0.001	
16.570	0.055	-0.023	
16.575	-0.086	-0.036	
16.580	-0.214	-0.051	
16.585	-0.037	-0.074	
16.590	0.000	-0.085	
16.595	-0.194	-0.086	
16.600	-0.103	-0.093	
16.605	0.015	-0.097	
16.610	-0.162	-0.092	
16.615	-0.122	-0.092	
16.620	0.160	-0.087	
16.625	0.026	-0.058	
16.630	-0.061	-0.026	
16.635	0.209	-0.000	
16.640	0.229	0.039	
16.645	-0.106	0.077	
16.650	-0.038	0.081	
16.655	0.003	0.059	
16.660	-0.188	0.028	
16.665	-0.164	-0.018	
16.670	0.076	-0.057	
16.675	0.006	-0.066	
16.680	-0.127	-0.060	
16.685	0.125	-0.052	
16.690	0.152	-0.026	
16.695	-0.093	0.008	
16.700	0.064	0.024	
16.705	0.284	0.042	
16.710	-0.017	0.072	
16.715	-0.003	0.084	
16.720	0.241	0.085	
16.725	0.038	0.094	
16.730	-0.037	0.093	
16.735	0.259	0.086	
16.740	0.282	0.102	
16.745	-0.052	0.127	
16.750	0.122	0.129	
16.755	0.347	0.132	
16.760	0.049	0.148	
16.765	0.068	0.153	
16.770	0.351	0.151	
16.775	0.215	0.168	
16.780	0.026	0.183	
16.785	0.331	0.184	
16.790	0.290	0.196	
16.795	-0.023	0.206	
16.800	0.151	0.192	
16.805	0.318	0.177	
16.810	0.026	0.174	
16.815	0.017	0.158	
16.820	0.307	0.138	
16.825	0.099	0.137	
16.830	-0.054	0.131	
16.835	0.204	0.114	
16.840	0.180	0.109	
16.845	-0.097	0.108	
16.850	0.038	0.088	
16.855	0.195	0.071	
16.860	-0.077	0.065	
16.865	-0.060	0.050	
16.870	0.224	0.034	
16.875	0.079	0.042	
16.880	-0.058	0.053	
16.885	0.181	0.055	
16.890	0.185	0.069	
16.895	-0.051	0.086	
16.900	0.156	0.089	
16.905	0.313	0.101	
16.910	-0.011	0.124	
16.915	0.003	0.126	
16.920	0.261	0.115	
16.925	0.033	0.114	
16.930	-0.097	0.104	
16.935	0.091	0.076	
16.940	0.039	0.054	
16.945	-0.165	0.034	
16.950	-0.054	0.002	
16.955	0.065	-0.024	
16.960	-0.138	-0.035	
16.965	-0.139	-0.050	
16.970	0.053	-0.065	
16.975	-0.064	-0.065	
16.980	-0.156	-0.064	
16.985	0.038	-0.067	
16.990	0.036	-0.058	
16.995	-0.164	-0.046	
17.000	-0.020	-0.045	
17.005	0.166	-0.039	
17.010	-0.055	-0.016	
17.015	-0.058	-0.002	
17.020	0.145	0.004	
17.025	-0.055	0.014	
17.030	-0.179	0.010	
17.035	-0.016	-0.014	
17.040	0.001	-0.032	
17.045	-0.136	-0.043	
17.050	0.003	-0.052	
17.055	0.172	-0.045	
17.060	-0.092	-0.022	
17.065	-0.078	-0.010	
17.070	0.171	-0.006	
17.075	-0.019	0.008	
17.080	-0.107	0.015	
17.085	0.146	0.011	
17.090	0.162	0.024	
17.095	-0.097	0.043	
17.100	0.067	0.046	
17.105	0.224	0.051	
17.110	-0.023	0.067	
17.115	0.003	0.071	
17.120	0.295	0.072	
17.125	0.104	0.092	
17.130	-0.022	0.107	
17.135	0.253	0.109	
17.140	0.261	0.124	
17.145	-0.013	0.144	
17.150	0.185	0.147	
17.155	0.351	0.153	
17.160	0.029	0.171	
17.165	0.056	0.169	
17.170	0.266	0.156	
17.175	0.101	0.152	
17.180	-0.032	0.143	
17.185	0.221	0.123	
17.190	0.198	0.119	
17.195	-0.051	0.121	
17.200	0.125	0.110	
17.205	0.287	0.107	
17.210	-0.023	0.117	
17.215	0.006	0.111	
17.220	0.311	0.102	
17.225	0.079	0.111	
17.230	-0.055	0.114	
17.235	0.180	0.102	
17.240	0.130	0.097	
17.245	-0.112	0.092	
17.250	0.032	0.069	
17.255	0.223	0.054	
17.260	-0.054	0.055	
17.265	-0.011	0.051	
17.270	0.310	0.050	
17.275	0.090	0.073	
17.280	-0.045	0.091	
17.285	0.223	0.093	
17.290	0.140	0.102	
17.295	-0.118	0.106	
17.300	-0.013	0.083	
17.305	0.099	0.054	
17.310	-0.127	0.033	
17.315	-0.103	0.004	
17.320	0.108	-0.021	
17.325	-0.064	-0.027	
17.330	-0.159	-0.033	
17.335	0.058	-0.045	
17.340	0.004	-0.045	
17.345	-0.181	-0.041	
17.350	-0.080	-0.052	
17.355	0.096	-0.059	
17.360	-0.121	-0.052	
17.365	-0.086	-0.050	
17.370	0.149	-0.046	
17.375	-0.016	-0.027	
17.380	-0.081	-0.010	
17.385	0.221	0.001	
17.390	0.159	0.031	
17.395	-0.086	0.061	
17.400	0.078	0.067	
17.405	0.194	0.070	
17.410	-0.093	0.076	
17.415	-0.072	0.061	
17.420	0.178	0.040	
17.425	0.015	0.036	
17.430	-0.078	0.034	
17.435	0.186	0.028	
17.440	0.105	0.039	
17.445	-0.106	0.050	
17.450	0.093	0.046	
17.455	0.365	0.056	
17.460	0.108	0.093	
17.465	0.157	0.129	
17.470	0.440	0.162	
17.475	0.209	0.206	
17.480	0.097	0.234	
17.485	0.541	0.248	
17.490	0.644	0.293	
17.495	0.417	0.365	
17.500	0.635	0.430	
17.505	0.770	0.496	
17.510	0.394	0.556	
17.515	0.440	0.575	
17.520	0.742	0.571	
17.525	0.525	0.577	
17.530	0.362	0.572	
17.535	0.706	0.555	
17.540	0.661	0.556	
17.545	0.362	0.564	
17.550	0.625	0.557	
17.555	0.819	0.563	
17.560	0.461	0.587	
17.565	0.580	0.598	
17.570	1.019	0.615	
17.575	0.855	0.670	
17.580	0.606	0.727	
17.585	0.809	0.754	
17.590	0.614	0.759	
17.595	0.214	0.725	
17.600	0.389	0.641	
17.605	0.421	0.546	
17.610	0.154	0.463	
17.615	0.377	0.387	
17.620	0.695	0.353	
17.625	0.372	0.369	
17.630	0.137	0.382	
17.635	0.402	0.366	
17.640	0.295	0.348	
17.645	-0.045	0.318	
17.650	0.096	0.259	
17.655	0.215	0.199	
17.660	-0.077	0.153	
17.665	-0.068	0.102	
17.670	0.049	0.051	
17.675	-0.171	0.010	
17.680	-0.280	-0.039	
17.685	-0.138	-0.096	
17.690	-0.200	-0.141	
17.695	-0.388	-0.180	
17.700	-0.292	-0.224	
17.705	-0.219	-0.260	
17.710	-0.382	-0.281	
17.715	-0.335	-0.300	
17.720	-0.187	-0.311	
17.725	-0.320	-0.307	
17.730	-0.440	-0.306	
17.735	-0.297	-0.319	
17.740	-0.339	-0.329	
17.745	-0.500	-0.342	
17.750	-0.382	-0.364	
17.755	-0.317	-0.381	
17.760	-0.498	-0.389	
17.765	-0.477	-0.403	
17.770	-0.335	-0.419	
17.775	-0.463	-0.423	
17.780	-0.523	-0.430	
17.785	-0.370	-0.440	
17.790	-0.381	-0.440	
17.795	-0.498	-0.434	
17.800	-0.356	-0.431	
17.805	-0.280	-0.419	
17.810	-0.497	-0.400	
17.815	-0.451	-0.397	
17.820	-0.280	-0.400	
17.825	-0.394	-0.392	
17.830	-0.442	-0.386	
17.835	-0.268	-0.383	
17.840	-0.298	-0.369	
17.845	-0.423	-0.354	
17.850	-0.281	-0.347	
17.855	-0.190	-0.334	
17.860	-0.353	-0.312	
17.865	-0.324	-0.301	
17.870	-0.188	-0.294	
17.875	-0.312	-0.283	
17.880	-0.394	-0.282	
17.885	-0.222	-0.290	
17.890	-0.252	-0.290	
17.895	-0.430	-0.291	
17.900	-0.321	-0.303	
17.905	-0.246	-0.314	
17.910	-0.396	-0.317	
17.915	-0.347	-0.324	
17.920	-0.184	-0.327	
17.925	-0.310	-0.315	
17.930	-0.362	-0.305	
17.935	-0.182	-0.300	
17.940	-0.207	-0.285	
17.945	-0.347	-0.269	
17.950	-0.205	-0.262	
17.955	-0.130	-0.251	
17.960	-0.324	-0.236	
17.965	-0.274	-0.234	
17.970	-0.122	-0.235	
17.975	-0.272	-0.229	
17.980	-0.313	-0.229	
17.985	-0.113	-0.233	
17.990	-0.124	-0.223	
17.995	-0.260	-0.206	
18.000	-0.101	-0.193	
18.005	-0.008	-0.173	
18.010	-0.179	-0.145	
18.015	-0.101	-0.126	
18.020	0.192	-0.102	
18.025	-0.031	-0.060	
18.030	-0.115	-0.027	
18.035	0.116	-0.013	
18.040	0.047	0.004	
18.045	-0.156	0.014	
18.050	-0.023	0.003	
18.055	0.093	-0.008	
18.060	-0.158	-0.012	
18.065	-0.113	-0.027	
18.070	0.117	-0.042	
18.075	-0.064	-0.039	
18.080	-0.106	-0.035	
18.085	0.197	-0.031	
18.090	0.128	-0.004	
18.095	-0.124	0.025	
18.100	0.049	0.032	
18.105	0.188	0.036	
18.110	-0.078	0.048	
18.115	0.003	0.046	
18.120	0.284	0.047	
18.125	0.033	0.066	
18.130	-0.063	0.077	
18.135	0.209	0.073	
18.140	0.146	0.081	
18.145	-0.101	0.088	
18.150	0.065	0.076	
18.155	0.203	0.067	
18.160	-0.054	0.069	
18.165	0.026	0.063	
18.170	0.302	0.062	
18.175	0.087	0.084	
18.180	0.007	0.101	
18.185	0.321	0.110	
18.190	0.255	0.136	
18.195	0.000	0.162	
18.200	0.224	0.167	
18.205	0.362	0.176	
18.210	0.033	0.193	
18.215	0.082	0.190	
18.220	0.333	0.177	
18.225	0.070	0.176	
18.230	-0.034	0.163	
18.235	0.296	0.141	
18.240	0.246	0.141	
18.245	-0.009	0.151	
18.250	0.214	0.148	
18.255	0.343	0.155	
18.260	0.024	0.172	
18.265	0.090	0.171	
18.270	0.347	0.164	
18.275	0.107	0.172	
18.280	0.010	0.170	
18.285	0.339	0.159	
18.290	0.256	0.168	
18.295	-0.017	0.180	
18.300	0.181	0.171	
18.305	0.276	0.164	
18.310	-0.049	0.162	
18.315	0.021	0.140	
18.320	0.310	0.117	
18.325	0.030	0.116	
18.330	-0.040	0.109	
18.335	0.263	0.095	
18.340	0.149	0.100	
18.345	-0.077	0.106	
18.350	0.133	0.096	
18.355	0.252	0.093	
18.360	-0.029	0.103	
18.365	0.042	0.099	
18.370	0.307	0.096	
18.375	0.055	0.110	
18.380	-0.008	0.115	
18.385	0.318	0.113	
18.390	0.264	0.132	
18.395	-0.013	0.155	
18.400	0.094	0.154	
18.405	0.171	0.141	
18.410	-0.116	0.123	
18.415	-0.086	0.085	
18.420	0.122	0.043	
18.425	-0.090	0.017	
18.430	-0.161	-0.009	
18.435	0.039	-0.037	
18.440	-0.032	-0.049	
18.445	-0.190	-0.056	
18.450	-0.063	-0.071	
18.455	0.029	-0.079	
18.460	-0.155	-0.075	
18.465	-0.097	-0.077	
18.470	0.087	-0.076	
18.475	-0.092	-0.062	
18.480	-0.145	-0.055	
18.485	0.125	-0.053	
18.490	0.072	-0.034	
18.495	-0.106	-0.011	
18.500	0.050	-0.002	
18.505	0.097	0.007	
18.510	-0.155	0.015	
18.515	-0.107	0.001	
18.520	0.113	-0.018	
18.525	-0.043	-0.020	
18.530	-0.097	-0.021	
18.535	0.159	-0.021	
18.540	0.070	-0.004	
18.545	-0.130	0.013	
18.550	0.001	0.010	
18.555	0.117	0.007	
18.560	-0.119	0.009	
18.565	-0.042	0.001	
18.570	0.204	-0.003	
18.575	-0.032	0.011	
18.580	-0.064	0.019	
18.585	0.166	0.020	
18.590	0.099	0.034	
18.595	-0.080	0.047	
18.600	0.142	0.049	
18.605	0.223	0.060	
18.610	-0.052	0.080	
18.615	0.044	0.082	
18.620	0.330	0.085	
18.625	0.093	0.107	
18.630	0.000	0.122	
18.635	0.314	0.126	
18.640	0.235	0.144	
18.645	-0.014	0.162	
18.650	0.186	0.159	
18.655	0.273	0.158	
18.660	-0.025	0.160	
18.665	0.055	0.145	
18.670	0.263	0.127	
18.675	0.026	0.122	
18.680	-0.046	0.110	
18.685	0.241	0.092	
18.690	0.093	0.090	
18.695	-0.103	0.088	
18.700	0.088	0.069	
18.705	0.195	0.060	
18.710	-0.064	0.063	
18.715	0.004	0.057	
18.720	0.232	0.051	
18.725	-0.003	0.060	
18.730	-0.071	0.061	
18.735	0.212	0.053	
18.740	0.127	0.062	
18.745	-0.080	0.072	
18.750	0.122	0.068	
18.755	0.227	0.072	
18.760	-0.028	0.086	
18.765	0.030	0.086	
18.770	0.270	0.084	
18.775	-0.006	0.094	
18.780	-0.095	0.089	
18.785	0.151	0.068	
18.790	0.052	0.057	
18.795	-0.145	0.046	
18.800	-0.020	0.020	
18.805	0.050	-0.002	
18.810	-0.168	-0.017	
18.815	-0.133	-0.041	
18.820	0.026	-0.064	
18.825	-0.124	-0.073	
18.830	-0.200	-0.083	
18.835	-0.019	-0.098	
18.840	-0.046	-0.100	
18.845	-0.167	-0.096	
18.850	-0.008	-0.094	
18.855	0.148	-0.077	
18.860	-0.071	-0.045	
18.865	0.049	-0.018	
18.870	0.275	0.012	
18.875	-0.029	0.051	
18.880	-0.139	0.065	
18.885	-0.006	0.045	
18.890	-0.097	0.015	
18.895	-0.223	-0.022	
18.900	-0.034	-0.062	
18.905	0.079	-0.081	
18.910	-0.115	-0.074	
18.915	-0.020	-0.065	
18.920	0.209	-0.046	
18.925	-0.034	-0.012	
18.930	-0.071	0.011	
18.935	0.209	0.021	
18.940	0.136	0.045	
18.945	-0.075	0.067	
18.950	0.122	0.070	
18.955	0.194	0.076	
18.960	-0.063	0.085	
18.965	0.009	0.077	
18.970	0.299	0.071	
18.975	0.073	0.086	
18.980	-0.002	0.098	
18.985	0.304	0.103	
18.990	0.230	0.125	
18.995	-0.011	0.148	
19.000	0.224	0.151	
19.005	0.356	0.162	
19.010	0.038	0.182	
19.015	0.149	0.185	
19.020	0.363	0.185	
19.025	0.081	0.195	
19.030	0.036	0.190	
19.035	0.351	0.175	
19.040	0.223	0.180	
19.045	-0.028	0.185	
19.050	0.159	0.168	
19.055	0.224	0.153	
19.060	-0.060	0.142	
19.065	0.029	0.117	
19.070	0.267	0.095	
19.075	0.006	0.093	
19.080	-0.045	0.086	
19.085	0.211	0.072	
19.090	0.041	0.071	
19.095	-0.098	0.067	
19.100	0.113	0.050	
19.105	0.174	0.047	
19.110	-0.090	0.054	
19.115	-0.011	0.046	
19.120	0.217	0.039	
19.125	0.018	0.048	
19.130	-0.013	0.055	
19.135	0.304	0.062	
19.140	0.183	0.090	
19.145	-0.045	0.116	
19.150	0.151	0.118	
19.155	0.214	0.120	
19.160	-0.109	0.120	
19.165	-0.078	0.094	
19.170	0.116	0.057	
19.175	-0.084	0.032	
19.180	-0.144	0.004	
19.185	0.082	-0.024	
19.190	0.000	-0.032	
19.195	-0.150	-0.033	
19.200	0.012	-0.041	
19.205	0.075	-0.040	
19.210	-0.136	-0.031	
19.215	-0.071	-0.033	
19.220	0.137	-0.034	
19.225	-0.052	-0.022	
19.230	-0.075	-0.014	
19.235	0.194	-0.007	
19.240	0.058	0.014	
19.245	-0.092	0.032	
19.250	0.079	0.033	
19.255	0.085	0.034	
19.260	-0.129	0.034	
19.265	-0.048	0.018	
19.270	0.099	0.001	
19.275	-0.071	-0.004	
19.280	-0.086	-0.012	
19.285	0.183	-0.016	
19.290	0.059	0.001	
19.295	-0.110	0.017	
19.300	0.093	0.019	
19.305	0.154	0.027	
19.310	-0.084	0.041	
19.315	0.001	0.039	
19.320	0.218	0.038	
19.325	-0.008	0.050	
19.330	-0.034	0.054	
19.335	0.232	0.054	
19.340	0.119	0.069	
19.345	-0.055	0.083	
19.350	0.214	0.084	
19.355	0.243	0.098	
19.360	-0.066	0.116	
19.365	0.015	0.109	
19.370	0.270	0.096	
19.375	-0.006	0.098	
19.380	-0.031	0.091	
19.385	0.258	0.079	
19.390	0.113	0.087	
19.395	-0.075	0.093	
19.400	0.110	0.082	
19.405	0.180	0.077	
19.410	-0.078	0.078	
19.415	0.029	0.067	
19.420	0.226	0.058	
19.425	-0.037	0.064	
19.430	-0.049	0.059	
19.435	0.285	0.053	
19.440	0.156	0.072	
19.445	0.001	0.095	
19.450	0.287	0.110	
19.455	0.347	0.139	
19.460	0.015	0.174	
19.465	0.148	0.183	
19.470	0.388	0.186	
19.475	0.125	0.201	
19.480	0.101	0.206	
19.485	0.444	0.206	
19.490	0.313	0.228	
19.495	0.152	0.253	
19.500	0.603	0.275	
19.505	0.744	0.332	
19.510	0.406	0.414	
19.515	0.547	0.475	
19.520	0.803	0.523	
19.525	0.450	0.571	
19.530	0.686	0.599	
19.535	1.425	0.652	
19.540	1.468	0.789	
19.545	1.182	0.966	
19.550	1.314	1.112	
19.555	1.196	1.210	
19.560	0.747	1.240	
19.565	0.881	1.191	
19.570	1.147	1.116	
19.575	0.813	1.057	
19.580	0.617	0.989	
19.585	0.817	0.905	
19.590	0.505	0.824	
19.595	0.166	0.724	
19.600	0.354	0.597	
19.605	0.441	0.484	
19.610	0.105	0.402	
19.615	0.198	0.326	
19.620	0.354	0.268	
19.625	-0.019	0.231	
19.630	-0.119	0.179	
19.635	0.027	0.110	
19.640	-0.107	0.048	
19.645	-0.255	-0.012	
19.650	-0.129	-0.074	
19.655	-0.142	-0.121	
19.660	-0.335	-0.156	
19.665	-0.269	-0.194	
19.670	-0.135	-0.224	
19.675	-0.297	-0.236	
19.680	-0.327	-0.247	
19.685	-0.179	-0.259	
19.690	-0.303	-0.262	
19.695	-0.402	-0.271	
19.700	-0.213	-0.286	
19.705	-0.179	-0.287	
19.710	-0.353	-0.277	
19.715	-0.274	-0.274	
19.720	-0.174	-0.272	
19.725	-0.312	-0.264	
19.730	-0.313	-0.263	
19.735	-0.133	-0.263	
19.740	-0.229	-0.252	
19.745	-0.368	-0.244	
19.750	-0.216	-0.250	
19.755	-0.179	-0.252	
19.760	-0.349	-0.249	
19.765	-0.260	-0.254	
19.770	-0.139	-0.256	
19.775	-0.320	-0.249	
19.780	-0.350	-0.252	
19.785	-0.167	-0.262	
19.790	-0.240	-0.261	
19.795	-0.350	-0.258	
19.800	-0.196	-0.262	
19.805	-0.161	-0.257	
19.810	-0.373	-0.248	
19.815	-0.307	-0.254	
19.820	-0.194	-0.265	
19.825	-0.370	-0.270	
19.830	-0.436	-0.286	
19.835	-0.321	-0.313	
19.840	-0.462	-0.340	
19.845	-0.581	-0.374	
19.850	-0.442	-0.418	
19.855	-0.407	-0.448	
19.860	-0.540	-0.463	
19.865	-0.446	-0.474	
19.870	-0.272	-0.471	
19.875	-0.373	-0.445	
19.880	-0.368	-0.414	
19.885	-0.207	-0.384	
19.890	-0.297	-0.347	
19.895	-0.404	-0.321	
19.900	-0.262	-0.312	
19.905	-0.249	-0.304	
19.910	-0.419	-0.298	
19.915	-0.358	-0.307	
19.920	-0.246	-0.319	
19.925	-0.391	-0.323	
19.930	-0.399	-0.331	
19.935	-0.210	-0.339	
19.940	-0.266	-0.330	
19.945	-0.362	-0.316	
19.950	-0.219	-0.306	
19.955	-0.173	-0.290	
19.960	-0.318	-0.269	
19.965	-0.220	-0.257	
19.970	-0.115	-0.244	
19.975	-0.266	-0.225	
19.980	-0.272	-0.217	
19.985	-0.098	-0.215	
19.990	-0.176	-0.204	
19.995	-0.278	-0.194	
20.000	-0.139	-0.194	
20.005	-0.104	-0.189	
20.010	-0.280	-0.180	
20.015	-0.196	-0.182	
20.020	-0.049	-0.183	
20.025	-0.181	-0.171	
20.030	-0.162	-0.161	
20.035	0.056	-0.146	
20.040	-0.071	-0.118	
20.045	-0.177	-0.094	
20.050	0.018	-0.084	
20.055	0.078	-0.066	
20.060	-0.129	-0.043	
20.065	-0.009	-0.033	
20.070	0.201	-0.019	
20.075	-0.037	0.008	
20.080	-0.026	0.024	
20.085	0.282	0.037	
20.090	0.133	0.067	
20.095	-0.003	0.095	
20.100	0.282	0.110	
20.105	0.412	0.142	
20.110	0.152	0.189	
20.115	0.402	0.230	
20.120	0.628	0.280	
20.125	0.314	0.344	
20.130	0.252	0.382	
20.135	0.479	0.390	
20.140	0.285	0.391	
20.145	0.023	0.369	
20.150	0.230	0.316	
20.155	0.197	0.263	
20.160	-0.089	0.213	
20.165	0.015	0.151	
20.170	0.206	0.099	
20.175	-0.080	0.071	
20.180	-0.106	0.042	
20.185	0.081	0.010	
20.190	-0.116	-0.010	
20.195	-0.152	-0.032	
20.200	0.079	-0.053	
20.205	0.084	-0.049	
20.210	-0.139	-0.033	
20.215	-0.037	-0.030	
20.220	0.136	-0.026	
20.225	-0.081	-0.013	
20.230	-0.069	-0.008	
20.235	0.218	-0.004	
20.240	0.091	0.019	
20.245	-0.063	0.043	
20.250	0.224	0.056	
20.255	0.279	0.082	
20.260	-0.032	0.115	
20.265	0.082	0.123	
20.270	0.273	0.123	
20.275	-0.037	0.128	
20.280	-0.072	0.112	
20.285	0.159	0.083	
20.290	-0.009	0.064	
20.295	-0.141	0.043	
20.300	0.039	0.013	
20.305	0.076	-0.003	
20.310	-0.136	-0.008	
20.315	-0.042	-0.020	
20.320	0.139	-0.026	
20.325	-0.074	-0.017	
20.330	-0.057	-0.012	
20.335	0.226	-0.006	
20.340	0.049	0.019	
20.345	-0.100	0.038	
20.350	0.206	0.043	
20.355	0.269	0.064	
20.360	-0.017	0.096	
20.365	0.064	0.108	
20.370	0.203	0.108	
20.375	-0.089	0.106	
20.380	-0.101	0.082	
20.385	0.154	0.049	
20.390	0.018	0.034	
20.395	-0.095	0.024	
20.400	0.157	0.015	
20.405	0.197	0.026	
20.410	-0.077	0.049	
20.415	0.079	0.057	
20.420	0.302	0.068	
20.425	0.032	0.094	
20.430	-0.017	0.105	
20.435	0.282	0.104	
20.440	0.116	0.115	
20.445	-0.051	0.121	
20.450	0.208	0.111	
20.455	0.281	0.116	
20.460	-0.025	0.131	
20.465	0.152	0.132	
20.470	0.357	0.138	
20.475	0.091	0.159	
20.480	0.091	0.170	
20.485	0.385	0.174	
20.490	0.208	0.193	
20.495	-0.011	0.203	
20.500	0.314	0.194	
20.505	0.360	0.199	
20.510	0.053	0.214	
20.515	0.215	0.214	
20.520	0.394	0.215	
20.525	0.053	0.224	
20.530	0.042	0.213	
20.535	0.339	0.190	
20.540	0.154	0.184	
20.545	0.009	0.177	
20.550	0.174	0.157	
20.555	0.226	0.145	
20.560	-0.040	0.140	
20.565	0.120	0.123	
20.570	0.267	0.114	
20.575	-0.022	0.118	
20.580	0.007	0.108	
20.585	0.324	0.099	
20.590	0.156	0.113	
20.595	-0.013	0.128	
20.600	0.261	0.130	
20.605	0.244	0.141	
20.610	-0.035	0.154	
20.615	0.136	0.146	
20.620	0.354	0.142	
20.625	0.084	0.157	
20.630	0.068	0.163	
20.635	0.327	0.161	
20.640	0.009	0.164	
20.645	-0.126	0.145	
20.650	0.023	0.099	
20.655	0.026	0.056	
20.660	-0.214	0.018	
20.665	-0.124	-0.029	
20.670	-0.017	-0.068	
20.675	-0.200	-0.092	
20.680	-0.200	-0.115	
20.685	-0.029	-0.134	
20.690	-0.130	-0.137	
20.695	-0.226	-0.137	
20.700	-0.068	-0.141	
20.705	-0.074	-0.138	
20.710	-0.243	-0.132	
20.715	-0.130	-0.136	
20.720	0.039	-0.135	
20.725	-0.101	-0.116	
20.730	-0.052	-0.096	
20.735	0.188	-0.069	
20.740	-0.014	-0.028	
20.745	-0.148	-0.003	
20.750	-0.011	-0.005	
20.755	-0.040	-0.014	
20.760	-0.210	-0.030	
20.765	-0.095	-0.058	
20.770	0.073	-0.076	
20.775	-0.121	-0.074	
20.780	-0.097	-0.072	
20.785	0.157	-0.065	
20.790	0.058	-0.036	
20.795	-0.072	-0.007	
20.800	0.157	0.013	
20.805	0.149	0.038	
20.810	-0.090	0.060	
20.815	0.052	0.061	
20.820	0.241	0.062	
20.825	-0.031	0.074	
20.830	-0.020	0.074	
20.835	0.284	0.070	
20.840	0.119	0.086	
20.845	-0.032	0.100	
20.850	0.243	0.103	
20.855	0.204	0.115	
20.860	-0.051	0.128	
20.865	0.133	0.121	
20.870	0.342	0.121	
20.875	0.087	0.141	
20.880	0.072	0.151	
20.885	0.322	0.154	
20.890	0.104	0.165	
20.895	-0.014	0.163	
20.900	0.250	0.148	
20.905	0.221	0.145	
20.910	-0.043	0.147	
20.915	0.067	0.130	
20.920	0.232	0.113	
20.925	0.000	0.108	
20.930	0.009	0.097	
20.935	0.266	0.086	
20.940	0.119	0.096	
20.945	-0.046	0.104	
20.950	0.203	0.099	
20.955	0.209	0.105	
20.960	-0.071	0.114	
20.965	0.061	0.103	
20.970	0.235	0.092	
20.975	-0.003	0.094	
20.980	0.017	0.089	
20.985	0.295	0.085	
20.990	0.122	0.101	
20.995	-0.011	0.114	
21.000	0.258	0.116	
21.005	0.235	0.130	
21.010	-0.035	0.145	
21.015	0.090	0.137	
21.020	0.217	0.125	
21.025	-0.068	0.116	
21.030	-0.072	0.091	
21.035	0.117	0.058	
21.040	-0.051	0.036	
21.045	-0.164	0.012	
21.050	0.012	-0.019	
21.055	-0.003	-0.038	
21.060	-0.164	-0.047	
21.065	-0.101	-0.063	
21.070	0.012	-0.075	
21.075	-0.138	-0.078	
21.080	-0.107	-0.081	
21.085	0.124	-0.079	
21.090	-0.068	-0.060	
21.095	-0.142	-0.046	
21.100	0.036	-0.046	
21.105	0.122	-0.035	
21.110	-0.054	-0.012	
21.115	0.081	0.005	
21.120	0.203	0.027	
21.125	-0.078	0.052	
21.130	-0.097	0.052	
21.135	0.081	0.034	
21.140	-0.054	0.019	
21.145	-0.127	0.001	
21.150	0.131	-0.016	
21.155	0.059	-0.012	
21.160	-0.127	-0.003	
21.165	0.017	-0.006	
21.170	0.174	-0.002	
21.175	-0.087	0.012	
21.180	-0.034	0.016	
21.185	0.250	0.019	
21.190	0.062	0.041	
21.195	-0.049	0.060	
21.200	0.188	0.065	
21.205	0.159	0.078	
21.210	-0.060	0.090	
21.215	0.117	0.087	
21.220	0.269	0.090	
21.225	-0.011	0.104	
21.230	0.007	0.104	
21.235	0.293	0.098	
21.240	0.076	0.108	
21.245	-0.045	0.112	
21.250	0.223	0.102	
21.255	0.209	0.107	
21.260	-0.040	0.117	
21.265	0.128	0.113	
21.270	0.336	0.115	
21.275	0.067	0.135	
21.280	0.056	0.144	
21.285	0.285	0.143	
21.290	-0.019	0.145	
21.295	-0.121	0.125	
21.300	0.050	0.082	
21.305	-0.005	0.045	
21.310	-0.184	0.011	
21.315	-0.092	-0.028	
21.320	-0.026	-0.061	
21.325	-0.174	-0.080	
21.330	-0.133	-0.099	
21.335	0.033	-0.108	
21.340	-0.109	-0.101	
21.345	-0.220	-0.097	
21.350	0.042	-0.101	
21.355	0.111	-0.085	
21.360	-0.107	-0.055	
21.365	0.084	-0.030	
21.370	0.249	0.002	
21.375	-0.032	0.042	
21.380	-0.017	0.062	
21.385	0.236	0.068	
21.390	0.052	0.082	
21.395	-0.038	0.088	
21.400	0.152	0.080	
21.405	0.061	0.077	
21.410	-0.139	0.067	
21.415	-0.005	0.040	
21.420	0.172	0.020	
21.425	-0.038	0.021	
21.430	-0.013	0.021	
21.435	0.201	0.023	
21.440	-0.066	0.035	
21.445	-0.083	0.034	
21.450	0.282	0.030	
21.455	0.218	0.054	
21.460	-0.089	0.085	
21.465	0.128	0.093	
21.470	0.302	0.101	
21.475	0.001	0.120	
21.480	-0.023	0.120	
21.485	0.174	0.104	
21.490	-0.014	0.091	
21.495	-0.126	0.069	
21.500	0.053	0.036	
21.505	-0.034	0.010	
21.510	-0.252	-0.017	
21.515	-0.176	-0.060	
21.520	-0.011	-0.098	
21.525	-0.155	-0.115	
21.530	-0.139	-0.124	
21.535	0.020	-0.124	
21.540	-0.130	-0.112	
21.545	-0.176	-0.105	
21.550	0.094	-0.100	
21.555	-0.006	-0.078	
21.560	-0.181	-0.058	
21.565	-0.084	-0.058	
21.570	0.018	-0.063	
21.575	-0.211	-0.065	
21.580	-0.213	-0.083	
21.585	0.038	-0.104	
21.590	-0.072	-0.105	
21.595	-0.144	-0.097	
21.600	-0.005	-0.093	
21.605	-0.023	-0.081	
21.610	-0.174	-0.071	
21.615	-0.048	-0.072	
21.620	0.065	-0.069	
21.625	-0.141	-0.057	
21.630	-0.110	-0.056	
21.635	0.073	-0.058	
21.640	-0.106	-0.052	
21.645	-0.174	-0.054	
21.650	0.017	-0.065	
21.655	0.030	-0.063	
21.660	-0.237	-0.058	
21.665	-0.135	-0.072	
21.670	-0.049	-0.091	
21.675	-0.190	-0.103	
21.680	-0.179	-0.118	
21.685	-0.057	-0.131	
21.690	-0.126	-0.133	
21.695	-0.179	-0.132	
21.700	0.042	-0.127	
21.705	-0.026	-0.107	
21.710	-0.203	-0.087	
21.715	-0.081	-0.085	
21.720	-0.011	-0.086	
21.725	-0.179	-0.083	
21.730	-0.116	-0.089	
21.735	0.124	-0.089	
21.740	-0.077	-0.070	
21.745	-0.159	-0.056	
21.750	-0.006	-0.058	
21.755	0.046	-0.054	
21.760	-0.155	-0.045	
21.765	-0.057	-0.047	
21.770	0.001	-0.052	
21.775	-0.213	-0.057	
21.780	-0.203	-0.078	
21.785	-0.023	-0.103	
21.790	-0.148	-0.115	
21.795	-0.262	-0.127	
21.800	-0.101	-0.145	
21.805	-0.083	-0.152	
21.810	-0.255	-0.152	
21.815	-0.147	-0.158	
21.820	-0.022	-0.158	
21.825	-0.162	-0.145	
21.830	-0.162	-0.135	
21.835	0.041	-0.126	
21.840	-0.119	-0.108	
21.845	-0.184	-0.096	
21.850	0.027	-0.094	
21.855	0.003	-0.081	
21.860	-0.162	-0.066	
21.865	-0.038	-0.063	
21.870	0.024	-0.060	
21.875	-0.107	-0.052	
21.880	-0.075	-0.050	
21.885	0.162	-0.045	
21.890	-0.016	-0.023	
21.895	-0.165	-0.010	
21.900	-0.006	-0.018	
21.905	0.003	-0.026	
21.910	-0.152	-0.033	
21.915	-0.006	-0.044	
21.920	0.198	-0.040	
21.925	-0.038	-0.014	
21.930	-0.043	0.005	
21.935	0.235	0.018	
21.940	-0.006	0.041	
21.945	-0.110	0.050	
21.950	0.087	0.038	
21.955	0.030	0.030	
21.960	-0.119	0.022	
21.965	0.061	0.007	
21.970	0.177	0.006	
21.975	-0.069	0.021	
21.980	-0.040	0.024	
21.985	0.226	0.025	
21.990	0.093	0.044	
21.995	-0.055	0.062	
22.000	0.217	0.068	
22.005	0.154	0.083	
22.010	-0.115	0.094	
22.015	0.070	0.082	
22.020	0.180	0.070	
22.025	-0.046	0.069	
22.030	0.009	0.060	
22.035	0.240	0.055	
22.040	0.049	0.067	
22.045	-0.038	0.074	
22.050	0.201	0.072	
22.055	0.075	0.078	
22.060	-0.121	0.077	
22.065	0.090	0.059	
22.070	0.206	0.051	
22.075	-0.023	0.060	
22.080	0.006	0.061	
22.085	0.273	0.062	
22.090	0.055	0.079	
22.095	-0.031	0.089	
22.100	0.186	0.086	
22.105	0.116	0.090	
22.110	-0.031	0.093	
22.115	0.191	0.088	
22.120	0.284	0.099	
22.125	0.021	0.122	
22.130	0.010	0.127	
22.135	0.156	0.114	
22.140	-0.009	0.102	
22.145	-0.138	0.077	
22.150	0.061	0.040	
22.155	-0.020	0.013	
22.160	-0.165	-0.010	
22.165	-0.063	-0.038	
22.170	-0.017	-0.059	
22.175	-0.181	-0.071	
22.180	-0.132	-0.088	
22.185	0.065	-0.097	
22.190	-0.081	-0.088	
22.195	-0.150	-0.078	
22.200	0.035	-0.075	
22.205	-0.002	-0.063	
22.210	-0.135	-0.051	
22.215	0.018	-0.047	
22.220	0.172	-0.033	
22.225	-0.045	-0.005	
22.230	-0.019	0.012	
22.235	0.113	0.020	
22.240	-0.098	0.025	
22.245	-0.150	0.012	
22.250	0.127	-0.009	
22.255	-0.028	-0.014	
22.260	-0.142	-0.017	
22.265	0.030	-0.029	
22.270	0.143	-0.026	
22.275	-0.071	-0.009	
22.280	-0.002	0.001	
22.285	0.223	0.013	
22.290	0.007	0.037	
22.295	-0.060	0.050	
22.300	0.174	0.050	
22.305	0.160	0.062	
22.310	-0.089	0.075	
22.315	0.082	0.070	
22.320	0.235	0.069	
22.325	0.021	0.083	
22.330	0.039	0.088	
22.335	0.232	0.090	
22.340	0.070	0.101	
22.345	0.027	0.106	
22.350	0.259	0.107	
22.355	0.197	0.122	
22.360	-0.037	0.135	
22.365	0.162	0.130	
22.370	0.296	0.130	
22.375	0.023	0.142	
22.380	0.117	0.143	
22.385	0.328	0.144	
22.390	0.046	0.156	
22.395	-0.023	0.151	
22.400	0.215	0.131	
22.405	0.085	0.119	
22.410	-0.078	0.106	
22.415	0.081	0.080	
22.420	0.169	0.064	
22.425	-0.075	0.061	
22.430	-0.002	0.048	
22.435	0.215	0.040	
22.440	0.006	0.048	
22.445	-0.064	0.051	
22.450	0.168	0.045	
22.455	0.108	0.051	
22.460	-0.064	0.060	
22.465	0.136	0.058	
22.470	0.218	0.066	
22.475	-0.028	0.083	
22.480	-0.020	0.083	
22.485	0.189	0.073	
22.490	0.072	0.074	
22.495	0.030	0.078	
22.500	0.282	0.085	
22.505	0.160	0.107	
22.510	-0.068	0.123	
22.515	0.082	0.113	
22.520	0.130	0.098	
22.525	-0.112	0.083	
22.530	-0.075	0.052	
22.535	0.056	0.018	
22.540	-0.103	-0.005	
22.545	-0.150	-0.029	
22.550	0.046	-0.052	
22.555	-0.011	-0.057	
22.560	-0.152	-0.055	
22.565	-0.103	-0.063	
22.570	-0.051	-0.074	
22.575	-0.156	-0.082	
22.580	-0.116	-0.093	
22.585	0.075	-0.096	
22.590	-0.031	-0.080	
22.595	-0.011	-0.057	
22.600	0.287	-0.024	
22.605	0.146	0.029	
22.610	-0.097	0.072	
22.615	-0.014	0.077	
22.620	0.010	0.060	
22.625	-0.156	0.034	
22.630	-0.095	-0.004	
22.635	0.139	-0.031	
22.640	-0.081	-0.034	
22.645	-0.100	-0.035	
22.650	0.120	-0.036	
22.655	-0.022	-0.025	
22.660	-0.133	-0.017	
22.665	0.084	-0.020	
22.670	0.211	-0.006	
22.675	-0.074	0.022	
22.680	0.050	0.037	
22.685	0.272	0.051	
22.690	0.111	0.081	
22.695	-0.005	0.104	
22.700	0.211	0.110	
22.705	0.163	0.119	
22.710	-0.017	0.126	
22.715	0.186	0.121	
22.720	0.273	0.125	
22.725	-0.038	0.136	
22.730	0.088	0.129	
22.735	0.385	0.126	
22.740	0.108	0.146	
22.745	0.116	0.162	
22.750	0.357	0.172	
22.755	0.301	0.197	
22.760	0.059	0.220	
22.765	0.220	0.221	
22.770	0.324	0.218	
22.775	0.009	0.217	
22.780	0.061	0.195	
22.785	0.301	0.168	
22.790	0.039	0.156	
22.795	-0.022	0.138	
22.800	0.194	0.112	
22.805	0.096	0.100	
22.810	-0.083	0.090	
22.815	0.064	0.068	
22.820	0.099	0.051	
22.825	-0.122	0.040	
22.830	-0.064	0.017	
22.835	0.137	-0.002	
22.840	-0.048	-0.004	
22.845	-0.072	-0.005	
22.850	0.108	-0.009	
22.855	0.050	-0.000	
22.860	-0.090	0.010	
22.865	0.076	0.010	
22.870	0.174	0.019	
22.875	-0.029	0.039	
22.880	0.035	0.048	
22.885	0.215	0.055	
22.890	-0.051	0.068	
22.895	-0.104	0.062	
22.900	0.053	0.038	
22.905	-0.020	0.019	
22.910	-0.139	-0.000	
22.915	-0.035	-0.025	
22.920	-0.040	-0.044	
22.925	-0.207	-0.060	
22.930	-0.133	-0.084	
22.935	0.038	-0.100	
22.940	-0.155	-0.100	
22.945	-0.185	-0.102	
22.950	-0.008	-0.109	
22.955	-0.049	-0.104	
22.960	-0.174	-0.095	
22.965	0.012	-0.091	
22.970	0.079	-0.076	
22.975	-0.098	-0.051	
22.980	-0.019	-0.035	
22.985	0.148	-0.021	
22.990	-0.064	0.000	
22.995	-0.107	0.006	
23.000	0.046	-0.003	
23.005	-0.045	-0.009	
23.010	-0.136	-0.019	
23.015	-0.013	-0.036	
23.020	0.049	-0.042	
23.025	-0.156	-0.041	
23.030	-0.109	-0.050	
23.035	0.125	-0.057	
23.040	-0.049	-0.045	
23.045	-0.049	-0.032	
23.050	0.166	-0.019	
23.055	0.068	0.007	
23.060	-0.071	0.029	
23.065	0.131	0.038	
23.070	0.211	0.053	
23.075	-0.046	0.075	
23.080	0.055	0.079	
23.085	0.249	0.081	
23.090	-0.043	0.091	
23.095	-0.072	0.083	
23.100	0.244	0.066	
23.105	0.174	0.073	
23.110	-0.009	0.090	
23.115	0.188	0.097	
23.120	0.217	0.110	
23.125	-0.019	0.124	
23.130	0.079	0.119	
23.135	0.252	0.113	
23.140	0.029	0.118	
23.145	0.017	0.113	
23.150	0.250	0.104	
23.155	0.099	0.109	
23.160	-0.115	0.107	
23.165	0.059	0.083	
23.170	0.181	0.064	
23.175	-0.077	0.059	
23.180	-0.025	0.046	
23.185	0.122	0.031	
23.190	-0.045	0.026	
23.195	-0.052	0.017	
23.200	0.136	0.010	
23.205	0.021	0.015	
23.210	-0.112	0.018	
23.215	0.076	0.010	
23.220	0.134	0.013	
23.225	-0.081	0.024	
23.230	-0.017	0.023	
23.235	0.211	0.022	
23.240	0.030	0.038	
23.245	-0.042	0.049	
23.250	0.157	0.051	
23.255	0.035	0.056	
23.260	-0.089	0.055	
23.265	0.093	0.042	
23.270	0.094	0.036	
23.275	-0.124	0.034	
23.280	-0.080	0.016	
23.285	0.056	-0.006	
23.290	-0.116	-0.020	
23.295	-0.124	-0.037	
23.300	0.082	-0.051	
23.305	-0.006	-0.047	
23.310	-0.156	-0.041	
23.315	-0.026	-0.046	
23.320	0.009	-0.049	
23.325	-0.139	-0.049	
23.330	-0.103	-0.056	
23.335	0.026	-0.065	
23.340	-0.084	-0.063	
23.345	-0.049	-0.059	
23.350	0.152	-0.048	
23.355	0.101	-0.017	
23.360	-0.101	0.013	
23.365	0.033	0.022	
23.370	0.068	0.024	
23.375	-0.141	0.022	
23.380	-0.097	0.003	
23.385	0.030	-0.021	
23.390	-0.130	-0.037	
23.395	-0.141	-0.055	
23.400	0.097	-0.068	
23.405	0.053	-0.057	
23.410	-0.075	-0.035	
23.415	0.090	-0.018	
23.420	0.082	0.002	
23.425	-0.104	0.019	
23.430	-0.038	0.016	
23.435	0.181	0.011	
23.440	0.015	0.023	
23.445	0.032	0.035	
23.450	0.290	0.052	
23.455	0.143	0.086	
23.460	-0.019	0.112	
23.465	0.211	0.119	
23.470	0.285	0.132	
23.475	0.020	0.151	
23.480	0.088	0.152	
23.485	0.252	0.145	
23.490	0.009	0.142	
23.495	-0.020	0.126	
23.500	0.218	0.104	
23.505	0.056	0.095	
23.510	-0.101	0.084	
23.515	0.081	0.060	
23.520	0.146	0.047	
23.525	-0.080	0.045	
23.530	-0.052	0.033	
23.535	0.107	0.017	
23.540	-0.064	0.011	
23.545	-0.089	0.001	
23.550	0.078	-0.012	
23.555	-0.054	-0.016	
23.560	-0.158	-0.023	
23.565	0.035	-0.038	
23.570	0.044	-0.040	
23.575	-0.167	-0.036	
23.580	-0.095	-0.045	
23.585	0.104	-0.053	
23.590	-0.075	-0.045	
23.595	-0.075	-0.039	
23.600	0.177	-0.031	
23.605	0.013	-0.008	
23.610	-0.147	0.008	
23.615	0.061	0.004	
23.620	0.122	0.006	
23.625	-0.068	0.016	
23.630	-0.037	0.016	
23.635	0.076	0.010	
23.640	-0.126	0.005	
23.645	-0.136	-0.013	
23.650	0.038	-0.036	
23.655	-0.068	-0.047	
23.660	-0.152	-0.055	
23.665	-0.037	-0.067	
23.670	-0.034	-0.073	
23.675	-0.193	-0.076	
23.680	-0.090	-0.087	
23.685	0.062	-0.091	
23.690	-0.122	-0.080	
23.695	-0.122	-0.074	
23.700	0.055	-0.072	
23.705	-0.069	-0.061	
23.710	-0.176	-0.057	
23.715	0.004	-0.063	
23.720	0.053	-0.060	
23.725	-0.167	-0.050	
23.730	-0.078	-0.052	
23.735	0.151	-0.052	
23.740	-0.038	-0.033	
23.745	-0.071	-0.018	
23.750	0.113	-0.010	
23.755	-0.084	-0.001	
23.760	-0.222	-0.009	
23.765	-0.046	-0.038	
23.770	0.064	-0.057	
23.775	-0.083	-0.056	
23.780	0.036	-0.048	
23.785	0.224	-0.025	
23.790	-0.054	0.010	
23.795	-0.110	0.026	
23.800	0.122	0.022	
23.805	-0.008	0.022	
23.810	-0.104	0.018	
23.815	-0.008	0.002	
23.820	-0.008	-0.012	
23.825	-0.127	-0.024	
23.830	-0.068	-0.040	
23.835	0.131	-0.047	
23.840	-0.023	-0.034	
23.845	-0.081	-0.021	
23.850	0.114	-0.014	
23.855	0.006	-0.001	
23.860	-0.159	0.004	
23.865	-0.006	-0.009	
23.870	0.032	-0.020	
23.875	-0.132	-0.025	
23.880	-0.104	-0.039	
23.885	-0.046	-0.056	
23.890	-0.165	-0.071	
23.895	-0.119	-0.088	
23.900	0.107	-0.094	
23.905	-0.028	-0.076	
23.910	-0.133	-0.057	
23.915	-0.022	-0.052	
23.920	-0.040	-0.050	
23.925	-0.216	-0.054	
23.930	-0.086	-0.072	
23.935	0.046	-0.083	
23.940	-0.159	-0.081	
23.945	-0.119	-0.082	
23.950	-0.029	-0.088	
23.955	-0.101	-0.087	
23.960	-0.161	-0.089	
23.965	-0.019	-0.094	
23.970	-0.003	-0.088	
23.975	-0.161	-0.078	
23.980	-0.089	-0.077	
23.985	0.006	-0.078	
23.990	-0.142	-0.074	
23.995	-0.129	-0.077	
24.000	0.105	-0.078	
24.005	-0.049	-0.063	
24.010	-0.122	-0.049	
24.015	0.032	-0.045	
24.020	0.134	-0.032	
24.025	-0.156	-0.012	
24.030	-0.103	-0.014	
24.035	0.061	-0.026	
24.040	-0.132	-0.032	
24.045	-0.126	-0.044	
24.050	-0.022	-0.061	
24.055	-0.104	-0.070	
24.060	-0.184	-0.081	
24.065	0.000	-0.093	
24.070	-0.017	-0.091	
24.075	-0.225	-0.085	
24.080	-0.147	-0.095	
24.085	-0.068	-0.109	
24.090	-0.211	-0.119	
24.095	-0.165	-0.132	
24.100	0.120	-0.133	
24.105	0.032	-0.105	
24.110	-0.061	-0.065	
24.115	0.156	-0.031	
24.120	0.127	0.009	
24.125	-0.075	0.042	
24.130	0.072	0.053	
24.135	0.214	0.062	
24.140	-0.052	0.075	
24.145	0.009	0.073	
24.150	0.285	0.070	
24.155	0.111	0.088	
24.160	-0.104	0.099	
24.165	0.013	0.082	
24.170	-0.013	0.055	
24.175	-0.284	0.017	
24.180	-0.616	-0.059	
24.185	-0.709	-0.189	
24.190	-0.879	-0.352	
24.195	-0.683	-0.513	
24.200	-0.252	-0.612	
24.205	-0.109	-0.608	
24.210	-0.086	-0.519	
24.215	-0.463	-0.414	
24.220	-0.990	-0.379	
24.225	-0.993	-0.450	
24.230	-0.993	-0.585	
24.235	-0.993	-0.727	
24.240	-0.993	-0.846	
24.245	-0.992	-0.931	
24.250	-0.992	-0.985	
24.255	-0.931	-1.009	
24.260	-0.680	-0.998	
24.265	-0.376	-0.932	
24.270	0.178	-0.785	
24.275	0.742	-0.534	
24.280	1.523	-0.166	
24.285	2.056	0.316	
24.290	1.928	0.843	
24.295	2.110	1.317	
24.300	2.352	1.699	
24.305	2.029	1.981	
24.310	1.711	2.129	
24.315	1.867	2.147	
24.320	1.702	2.089	
24.325	0.922	1.960	
24.330	1.048	1.748	
24.335	1.381	1.523	
24.340	1.179	1.362	
24.345	1.210	1.260	
24.350	1.532	1.214	
24.355	1.327	1.225	
24.360	1.075	1.248	
24.365	1.317	1.250	
24.370	1.234	1.248	
24.375	0.721	1.225	
24.380	0.654	1.141	
24.385	0.585	1.010	
24.390	0.140	0.849	
24.395	-0.054	0.651	
24.400	0.003	0.435	
24.405	-0.081	0.243	
24.410	0.001	0.096	
24.415	0.469	0.024	
24.420	0.585	0.055	
24.425	0.359	0.152	
24.430	0.495	0.254	
24.435	0.657	0.350	
24.440	0.362	0.433	
24.445	0.374	0.475	
24.450	0.631	0.488	
24.455	0.412	0.499	
24.460	0.233	0.490	
24.465	0.484	0.458	
24.470	0.411	0.432	
24.475	0.046	0.402	
24.480	0.236	0.347	
24.485	0.441	0.300	
24.490	0.131	0.280	
24.495	0.120	0.256	
24.500	0.333	0.229	
24.505	0.117	0.216	
24.510	-0.026	0.194	
24.515	0.162	0.158	
24.520	0.142	0.132	
24.525	-0.087	0.111	
24.530	0.024	0.080	
24.535	0.166	0.055	
24.540	-0.061	0.047	
24.545	-0.043	0.034	
24.550	0.192	0.024	
24.555	0.050	0.032	
24.560	-0.087	0.040	
24.565	-0.003	0.030	
24.570	-0.026	0.015	
24.575	-0.182	-0.007	
24.580	-0.058	-0.037	
24.585	0.046	-0.056	
24.590	-0.118	-0.060	
24.595	-0.078	-0.063	
24.600	0.134	-0.059	
24.605	-0.022	-0.038	
24.610	-0.136	-0.023	
24.615	0.082	-0.021	
24.620	0.021	-0.014	
24.625	-0.161	-0.010	
24.630	-0.026	-0.021	
24.635	0.137	-0.026	
24.640	-0.068	-0.015	
24.645	-0.058	-0.010	
24.650	0.145	-0.007	
24.655	-0.037	0.004	
24.660	-0.135	0.006	
24.665	0.067	-0.005	
24.670	0.062	-0.007	
24.675	-0.126	-0.003	
24.680	0.000	-0.010	
24.685	0.101	-0.012	
24.690	-0.116	-0.007	
24.695	-0.092	-0.014	
24.700	0.134	-0.022	
24.705	-0.029	-0.015	
24.710	-0.156	-0.013	
24.715	0.010	-0.025	
24.720	0.049	-0.030	
24.725	-0.119	-0.027	
24.730	0.015	-0.029	
24.735	0.151	-0.022	
24.740	-0.063	-0.003	
24.745	-0.042	0.007	
24.750	0.282	0.016	
24.755	0.145	0.049	
24.760	0.007	0.083	
24.765	0.264	0.103	
24.770	0.211	0.129	
24.775	-0.064	0.146	
24.780	0.068	0.135	
24.785	0.226	0.118	
24.790	-0.068	0.109	
24.795	-0.080	0.085	
24.800	0.154	0.054	
24.805	-0.081	0.036	
24.810	-0.185	0.011	
24.815	0.006	-0.024	
24.820	-0.025	-0.045	
24.825	-0.173	-0.058	
24.830	-0.063	-0.073	
24.835	0.039	-0.079	
24.840	-0.126	-0.073	
24.845	-0.075	-0.069	
24.850	0.189	-0.059	
24.855	-0.025	-0.030	
24.860	-0.087	-0.008	
24.865	0.197	0.004	
24.870	0.159	0.031	
24.875	-0.083	0.058	
24.880	-0.043	0.059	
24.885	0.082	0.044	
24.890	-0.132	0.028	
24.895	-0.119	0.001	
24.900	0.110	-0.024	
24.905	-0.049	-0.030	
24.910	-0.130	-0.033	
24.915	0.082	-0.038	
24.920	0.078	-0.029	
24.925	-0.112	-0.013	
24.930	0.033	-0.008	
24.935	0.180	0.002	
24.940	-0.054	0.022	
24.945	-0.006	0.031	
24.950	0.264	0.039	
24.955	0.104	0.064	
24.960	-0.034	0.085	
24.965	0.195	0.090	
24.970	0.186	0.101	
24.975	-0.008	0.114	
24.980	0.110	0.112	
24.985	0.178	0.108	
24.990	-0.014	0.107	
24.995	0.064	0.097	
25.000	0.276	0.092	
25.005	0.096	0.105	
25.010	-0.016	0.113	
25.015	0.256	0.111	
25.020	0.253	0.124	
25.025	0.009	0.143	
25.030	0.159	0.146	
25.035	0.275	0.148	
25.040	-0.042	0.153	
25.045	-0.031	0.134	
25.050	0.209	0.105	
25.055	0.046	0.091	
25.060	-0.045	0.080	
25.065	0.062	0.060	
25.070	0.023	0.044	
25.075	-0.141	0.026	
25.080	-0.023	-0.000	
25.085	0.117	-0.016	
25.090	-0.107	-0.016	
25.095	-0.077	-0.022	
25.100	0.131	-0.026	
25.105	-0.005	-0.015	
25.110	-0.081	-0.005	
25.115	0.149	-0.000	
25.120	0.125	0.018	
25.125	-0.087	0.038	
25.130	0.101	0.043	
25.135	0.183	0.052	
25.140	-0.075	0.064	
25.145	-0.023	0.059	
25.150	0.230	0.051	
25.155	0.073	0.061	
25.160	-0.069	0.069	
25.165	0.061	0.060	
25.170	0.010	0.047	
25.175	-0.144	0.029	
25.180	-0.063	-0.000	
25.185	-0.008	-0.028	
25.190	-0.155	-0.047	
25.195	-0.112	-0.067	
25.200	0.041	-0.081	
25.205	-0.132	-0.080	
25.210	-0.185	-0.083	
25.215	0.017	-0.092	
25.220	-0.020	-0.087	
25.225	-0.185	-0.079	
25.230	-0.072	-0.081	
25.235	0.093	-0.078	
25.240	-0.074	-0.061	
25.245	-0.038	-0.045	
25.250	0.177	-0.028	
25.255	-0.031	-0.001	
25.260	-0.121	0.012	
25.265	-0.011	0.003	
25.270	-0.046	-0.011	
25.275	-0.173	-0.028	
25.280	-0.075	-0.053	
25.285	0.039	-0.069	
25.290	-0.156	-0.071	
25.295	-0.116	-0.077	
25.300	0.125	-0.078	
25.305	-0.014	-0.058	
25.310	-0.086	-0.037	
25.315	0.114	-0.024	
25.320	0.049	-0.004	
25.325	-0.116	0.011	
25.330	0.012	0.009	
25.335	0.175	0.009	
25.340	-0.040	0.023	
25.345	-0.002	0.030	
25.350	0.206	0.035	
25.355	0.020	0.051	
25.360	-0.016	0.060	
25.365	0.230	0.064	
25.370	0.157	0.081	
25.375	-0.066	0.097	
25.380	0.139	0.095	
25.385	0.214	0.095	
25.390	-0.034	0.103	
25.395	0.044	0.096	
25.400	0.307	0.092	
25.405	0.070	0.106	
25.410	-0.038	0.113	
25.415	0.232	0.105	
25.420	0.143	0.109	
25.425	-0.084	0.110	
25.430	0.053	0.092	
25.435	0.101	0.072	
25.440	-0.084	0.056	
25.445	-0.072	0.032	
25.450	0.114	0.009	
25.455	-0.025	0.002	
25.460	-0.078	-0.003	
25.465	0.159	-0.005	
25.470	0.102	0.010	
25.475	-0.084	0.029	
25.480	0.026	0.031	
25.485	0.157	0.032	
25.490	-0.058	0.039	
25.495	-0.037	0.036	
25.500	0.148	0.028	
25.505	-0.026	0.030	
25.510	-0.068	0.027	
25.515	0.186	0.021	
25.520	0.140	0.035	
25.525	-0.029	0.056	
25.530	0.131	0.065	
25.535	0.236	0.080	
25.540	-0.005	0.100	
25.545	-0.008	0.101	
25.550	0.201	0.092	
25.555	-0.037	0.086	
25.560	-0.158	0.067	
25.565	0.035	0.030	
25.570	-0.009	0.002	
25.575	-0.194	-0.021	
25.580	-0.072	-0.049	
25.585	0.061	-0.067	
25.590	-0.135	-0.068	
25.595	-0.116	-0.070	
25.600	0.088	-0.072	
25.605	-0.086	-0.060	
25.610	-0.139	-0.054	
25.615	0.068	-0.054	
25.620	0.015	-0.044	
25.625	-0.115	-0.032	
25.630	0.070	-0.026	
25.635	0.258	-0.006	
25.640	-0.038	0.031	
25.645	-0.042	0.049	
25.650	0.102	0.049	
25.655	-0.072	0.043	
25.660	-0.121	0.025	
25.665	0.082	0.001	
25.670	0.035	-0.007	
25.675	-0.100	-0.008	
25.680	-0.005	-0.014	
25.685	0.113	-0.015	
25.690	-0.083	-0.006	
25.695	-0.045	-0.005	
25.700	0.180	-0.003	
25.705	0.032	0.014	
25.710	-0.043	0.029	
25.715	0.241	0.040	
25.720	0.204	0.068	
25.725	-0.063	0.096	
25.730	0.114	0.101	
25.735	0.194	0.101	
25.740	-0.035	0.104	
25.745	0.038	0.094	
25.750	0.247	0.085	
25.755	0.064	0.092	
25.760	0.013	0.097	
25.765	0.238	0.096	
25.770	0.143	0.107	
25.775	-0.049	0.115	
25.780	0.149	0.107	
25.785	0.186	0.103	
25.790	-0.077	0.103	
25.795	0.007	0.085	
25.800	0.250	0.070	
25.805	0.052	0.075	
25.810	-0.058	0.077	
25.815	0.166	0.069	
25.820	0.119	0.070	
25.825	-0.052	0.074	
25.830	0.171	0.071	
25.835	0.201	0.079	
25.840	-0.080	0.091	
25.845	0.023	0.083	
25.850	0.229	0.073	
25.855	0.032	0.078	
25.860	-0.043	0.078	
25.865	0.186	0.069	
25.870	0.130	0.073	
25.875	-0.069	0.079	
25.880	0.096	0.072	
25.885	0.175	0.068	
25.890	-0.037	0.073	
25.895	0.026	0.068	
25.900	0.321	0.068	
25.905	0.142	0.093	
25.910	0.024	0.117	
25.915	0.263	0.128	
25.920	0.143	0.142	
25.925	-0.068	0.145	
25.930	0.050	0.122	
25.935	0.133	0.096	
25.940	-0.071	0.077	
25.945	-0.093	0.048	
25.950	0.027	0.015	
25.955	-0.135	-0.012	
25.960	-0.161	-0.042	
25.965	0.044	-0.068	
25.970	-0.017	-0.072	
25.975	-0.156	-0.068	
25.980	0.013	-0.068	
25.985	0.041	-0.059	
25.990	-0.162	-0.047	
25.995	-0.106	-0.051	
26.000	0.046	-0.058	
26.005	-0.074	-0.055	
26.010	-0.086	-0.052	
26.015	0.131	-0.046	
26.020	0.044	-0.025	
26.025	-0.153	-0.007	
26.030	-0.043	-0.010	
26.035	0.009	-0.021	
26.040	-0.181	-0.032	
26.045	-0.127	-0.053	
26.050	0.020	-0.073	
26.055	-0.115	-0.079	
26.060	-0.153	-0.084	
26.065	0.029	-0.089	
26.070	-0.034	-0.081	
26.075	-0.150	-0.071	
26.080	-0.023	-0.069	
26.085	0.078	-0.061	
26.090	-0.135	-0.046	
26.095	-0.080	-0.043	
26.100	0.062	-0.044	
26.105	-0.103	-0.039	
26.110	-0.135	-0.042	
26.115	0.067	-0.050	
26.120	0.052	-0.042	
26.125	-0.118	-0.028	
26.130	-0.020	-0.026	
26.135	0.062	-0.024	
26.140	-0.119	-0.019	
26.145	-0.057	-0.024	
26.150	0.171	-0.025	
26.155	-0.028	-0.009	
26.160	-0.093	0.002	
26.165	0.105	0.001	
26.170	0.038	0.008	
26.175	-0.138	0.012	
26.180	-0.040	-0.001	
26.185	0.065	-0.014	
26.190	-0.171	-0.022	
26.195	-0.112	-0.040	
26.200	0.093	-0.055	
26.205	-0.069	-0.052	
26.210	-0.121	-0.049	
26.215	0.039	-0.051	
26.220	-0.058	-0.047	
26.225	-0.161	-0.047	
26.230	-0.035	-0.058	
26.235	0.015	-0.062	
26.240	-0.155	-0.061	
26.245	-0.110	-0.067	
26.250	0.050	-0.073	
26.255	-0.089	-0.067	
26.260	-0.129	-0.063	
26.265	0.044	-0.064	
26.270	-0.060	-0.057	
26.275	-0.188	-0.055	
26.280	-0.025	-0.065	
26.285	0.079	-0.066	
26.290	-0.141	-0.054	
26.295	-0.087	-0.052	
26.300	0.067	-0.052	
26.305	-0.122	-0.047	
26.310	-0.200	-0.053	
26.315	-0.071	-0.073	
26.320	-0.126	-0.091	
26.325	-0.236	-0.109	
26.330	-0.129	-0.131	
26.335	-0.084	-0.145	
26.340	-0.260	-0.150	
26.345	-0.213	-0.163	
26.350	-0.075	-0.174	
26.355	-0.164	-0.172	
26.360	-0.219	-0.168	
26.365	-0.083	-0.166	
26.370	-0.083	-0.156	
26.375	-0.199	-0.143	
26.380	-0.060	-0.135	
26.385	0.023	-0.120	
26.390	-0.141	-0.098	
26.395	-0.077	-0.084	
26.400	0.055	-0.073	
26.405	-0.100	-0.057	
26.410	-0.170	-0.053	
26.415	-0.034	-0.063	
26.420	-0.083	-0.071	
26.425	-0.176	-0.080	
26.430	-0.057	-0.092	
26.435	-0.054	-0.096	
26.440	-0.199	-0.098	
26.445	-0.158	-0.108	
26.450	0.023	-0.116	
26.455	-0.116	-0.109	
26.460	-0.136	-0.102	
26.465	0.049	-0.095	
26.470	-0.019	-0.077	
26.475	-0.153	-0.060	
26.480	-0.023	-0.057	
26.485	0.082	-0.050	
26.490	-0.130	-0.037	
26.495	-0.052	-0.035	
26.500	0.159	-0.030	
26.505	-0.032	-0.012	
26.510	-0.113	-0.002	
26.515	0.107	-0.003	
26.520	0.039	0.003	
26.525	-0.122	0.008	
26.530	0.041	0.002	
26.535	0.113	0.002	
26.540	-0.129	0.008	
26.545	-0.080	-0.001	
26.550	0.111	-0.013	
26.555	-0.066	-0.013	
26.560	-0.086	-0.016	
26.565	0.172	-0.017	
26.570	0.036	-0.001	
26.575	-0.124	0.013	
26.580	0.079	0.011	
26.585	0.104	0.014	
26.590	-0.126	0.021	
26.595	-0.087	0.009	
26.600	0.078	-0.008	
26.605	-0.074	-0.016	
26.610	-0.121	-0.025	
26.615	0.070	-0.037	
26.620	0.026	-0.033	
26.625	-0.133	-0.026	
26.630	-0.003	-0.029	
26.635	0.056	-0.029	
26.640	-0.133	-0.025	
26.645	-0.035	-0.029	
26.650	0.195	-0.027	
26.655	-0.034	-0.006	
26.660	-0.009	0.011	
26.665	0.321	0.030	
26.670	0.192	0.071	
26.675	-0.031	0.110	
26.680	0.181	0.123	
26.685	0.206	0.131	
26.690	-0.075	0.135	
26.695	0.017	0.116	
26.700	0.198	0.092	
26.705	-0.040	0.080	
26.710	-0.098	0.061	
26.715	0.090	0.033	
26.720	0.072	0.021	
26.725	-0.184	0.013	
26.730	-0.023	-0.008	
26.735	0.052	-0.025	
26.740	-0.133	-0.031	
26.745	-0.086	-0.042	
26.750	0.107	-0.049	
26.755	-0.045	-0.040	
26.760	-0.040	-0.029	
26.765	0.292	-0.010	
26.770	0.208	0.035	
26.775	-0.008	0.083	
26.780	0.223	0.111	
26.785	0.185	0.133	
26.790	-0.142	0.139	
26.795	-0.083	0.109	
26.800	0.052	0.062	
26.805	-0.100	0.024	
26.810	-0.064	-0.009	
26.815	0.168	-0.027	
26.820	0.058	-0.015	
26.825	-0.068	0.003	
26.830	0.180	0.017	
26.835	0.230	0.044	
26.840	-0.043	0.077	
26.845	0.041	0.088	
26.850	0.308	0.093	
26.855	0.093	0.113	
26.860	-0.003	0.124	
26.865	0.221	0.121	
26.870	0.152	0.125	
26.875	-0.052	0.125	
26.880	0.131	0.111	
26.885	0.197	0.102	
26.890	-0.005	0.103	
26.895	0.157	0.100	
26.900	0.360	0.111	
26.905	0.067	0.140	
26.910	0.072	0.154	
26.915	0.394	0.161	
26.920	0.281	0.187	
26.925	0.046	0.211	
26.930	0.310	0.216	
26.935	0.350	0.225	
26.940	-0.005	0.234	
26.945	0.094	0.216	
26.950	0.325	0.190	
26.955	0.015	0.178	
26.960	-0.051	0.153	
26.965	0.185	0.117	
26.970	0.041	0.094	
26.975	-0.103	0.073	
26.980	0.096	0.046	
26.985	0.214	0.038	
26.990	-0.043	0.050	
26.995	0.001	0.052	
27.000	0.201	0.051	
27.005	-0.054	0.057	
27.010	-0.026	0.053	
27.015	0.292	0.049	
27.020	0.088	0.068	
27.025	-0.066	0.084	
27.030	0.116	0.079	
27.035	0.113	0.075	
27.040	-0.054	0.073	
27.045	0.038	0.060	
27.050	0.285	0.057	
27.055	0.070	0.076	
27.060	0.044	0.093	
27.065	0.302	0.106	
27.070	0.117	0.128	
27.075	-0.104	0.135	
27.080	0.052	0.112	
27.085	0.075	0.083	
27.090	-0.135	0.057	
27.095	-0.031	0.023	
27.100	0.084	-0.003	
27.105	-0.113	-0.014	
27.110	-0.179	-0.032	
27.115	0.039	-0.055	
27.120	-0.084	-0.064	
27.125	-0.165	-0.071	
27.130	0.015	-0.079	
27.135	0.078	-0.072	
27.140	-0.133	-0.053	
27.145	-0.037	-0.044	
27.150	0.185	-0.033	
27.155	0.004	-0.006	
27.160	0.035	0.019	
27.165	0.223	0.042	
27.170	-0.022	0.066	
27.175	-0.184	0.066	
27.180	-0.087	0.032	
27.185	-0.035	-0.009	
27.190	-0.190	-0.044	
27.195	-0.112	-0.077	
27.200	0.065	-0.095	
27.205	-0.104	-0.090	
27.210	-0.119	-0.083	
27.215	0.072	-0.077	
27.220	0.000	-0.059	
27.225	-0.124	-0.041	
27.230	0.047	-0.034	
27.235	0.062	-0.023	
27.240	-0.135	-0.012	
27.245	-0.032	-0.015	
27.250	0.163	-0.015	
27.255	-0.020	-0.000	
27.260	-0.032	0.012	
27.265	0.212	0.021	
27.270	0.124	0.046	
27.275	-0.031	0.069	
27.280	0.197	0.080	
27.285	0.185	0.096	
27.290	-0.097	0.107	
27.295	0.009	0.093	
27.300	0.220	0.076	
27.305	0.036	0.075	
27.310	0.006	0.075	
27.315	0.266	0.076	
27.320	0.142	0.093	
27.325	-0.058	0.107	
27.330	0.104	0.100	
27.335	0.128	0.091	
27.340	-0.098	0.082	
27.345	-0.019	0.058	
27.350	0.143	0.036	
27.355	-0.084	0.027	
27.360	-0.135	0.010	
27.365	0.067	-0.013	
27.370	-0.042	-0.024	
27.375	-0.150	-0.033	
27.380	-0.034	-0.048	
27.385	-0.005	-0.057	
27.390	-0.196	-0.062	
27.395	-0.119	-0.077	
27.400	0.053	-0.088	
27.405	-0.144	-0.084	
27.410	-0.141	-0.084	
27.415	0.052	-0.086	
27.420	-0.029	-0.074	
27.425	-0.110	-0.060	
27.430	0.117	-0.048	
27.435	0.105	-0.023	
27.440	-0.127	0.003	
27.445	-0.023	0.007	
27.450	0.128	0.006	
27.455	-0.064	0.012	
27.460	-0.098	0.008	
27.465	0.055	-0.005	
27.470	-0.101	-0.014	
27.475	-0.194	-0.032	
27.480	-0.080	-0.061	
27.485	-0.068	-0.084	
27.490	-0.243	-0.100	
27.495	-0.173	-0.124	
27.500	-0.035	-0.141	
27.505	-0.158	-0.142	
27.510	-0.173	-0.141	
27.515	0.015	-0.136	
27.520	-0.052	-0.118	
27.525	-0.165	-0.099	
27.530	-0.029	-0.091	
27.535	0.079	-0.076	
27.540	-0.104	-0.054	
27.545	-0.031	-0.040	
27.550	0.124	-0.028	
27.555	-0.115	-0.012	
27.560	-0.141	-0.014	
27.565	0.023	-0.029	
27.570	-0.116	-0.041	
27.575	-0.263	-0.061	
27.580	-0.142	-0.096	
27.585	-0.084	-0.125	
27.590	-0.145	-0.137	
27.595	-0.031	-0.136	
27.600	0.156	-0.113	
27.605	0.023	-0.067	
27.610	-0.016	-0.023	
27.615	0.238	0.013	
27.620	0.076	0.053	
27.625	-0.095	0.077	
27.630	0.113	0.074	
27.635	0.110	0.070	
27.640	-0.136	0.064	
27.645	0.021	0.043	
27.650	0.255	0.032	
27.655	0.047	0.047	
27.660	-0.014	0.062	
27.665	0.171	0.066	
27.670	0.065	0.074	
27.675	-0.048	0.076	
27.680	0.209	0.071	
27.685	0.256	0.085	
27.690	-0.049	0.107	
27.695	0.058	0.108	
27.700	0.227	0.102	
27.705	-0.042	0.102	
27.710	-0.048	0.088	
27.715	0.212	0.068	
27.720	0.058	0.066	
27.725	-0.080	0.064	
27.730	0.142	0.053	
27.735	0.084	0.051	
27.740	-0.126	0.049	
27.745	-0.023	0.031	
27.750	0.174	0.016	
27.755	-0.032	0.019	
27.760	-0.035	0.021	
27.765	0.166	0.020	
27.770	-0.003	0.030	
27.775	-0.110	0.032	
27.780	0.192	0.025	
27.785	0.363	0.047	
27.790	0.065	0.094	
27.795	0.211	0.133	
27.800	0.450	0.170	
27.805	0.188	0.217	
27.810	0.236	0.249	
27.815	0.528	0.274	
27.820	0.470	0.317	
27.825	0.550	0.373	
27.830	1.043	0.452	
27.835	1.197	0.584	
27.840	0.953	0.744	
27.845	1.103	0.879	
27.850	1.266	0.988	
27.855	0.774	1.062	
27.860	0.655	1.063	
27.865	0.765	0.999	
27.870	0.507	0.907	
27.875	0.267	0.789	
27.880	0.531	0.658	
27.885	0.464	0.555	
27.890	0.087	0.473	
27.895	0.235	0.386	
27.900	0.350	0.314	
27.905	0.021	0.264	
27.910	-0.074	0.206	
27.915	0.097	0.138	
27.920	-0.029	0.083	
27.925	-0.115	0.037	
27.930	0.075	-0.000	
27.935	0.047	-0.015	
27.940	-0.202	-0.021	
27.945	-0.130	-0.043	
27.950	-0.017	-0.068	
27.955	-0.168	-0.083	
27.960	-0.135	-0.097	
27.965	0.052	-0.104	
27.970	-0.090	-0.094	
27.975	-0.200	-0.087	
27.980	-0.016	-0.091	
27.985	-0.002	-0.087	
27.990	-0.252	-0.081	
27.995	-0.174	-0.095	
28.000	-0.068	-0.115	
28.005	-0.211	-0.128	
28.010	-0.203	-0.142	
28.015	-0.042	-0.154	
28.020	-0.126	-0.150	
28.025	-0.252	-0.146	
28.030	-0.177	-0.154	
28.035	-0.179	-0.166	
28.040	-0.303	-0.180	
28.045	-0.197	-0.199	
28.050	-0.104	-0.208	
28.055	-0.234	-0.204	
28.060	-0.210	-0.201	
28.065	-0.095	-0.196	
28.070	-0.213	-0.186	
28.075	-0.300	-0.185	
28.080	-0.158	-0.195	
28.085	-0.159	-0.199	
28.090	-0.312	-0.201	
28.095	-0.239	-0.212	
28.100	-0.168	-0.222	
28.105	-0.341	-0.229	
28.110	-0.321	-0.244	
28.115	-0.167	-0.259	
28.120	-0.236	-0.260	
28.125	-0.306	-0.256	
28.130	-0.177	-0.254	
28.135	-0.184	-0.245	
28.140	-0.312	-0.235	
28.145	-0.214	-0.234	
28.150	-0.113	-0.229	
28.155	-0.272	-0.218	
28.160	-0.255	-0.214	
28.165	-0.145	-0.216	
28.170	-0.226	-0.212	
28.175	-0.304	-0.213	
28.180	-0.136	-0.219	
28.185	-0.174	-0.216	
28.190	-0.309	-0.211	
28.195	-0.171	-0.215	
28.200	-0.057	-0.209	
28.205	-0.225	-0.191	
28.210	-0.245	-0.182	
28.215	-0.145	-0.184	
28.220	-0.284	-0.188	
28.225	-0.370	-0.206	
28.230	-0.239	-0.235	
28.235	-0.265	-0.257	
28.240	-0.394	-0.274	
28.245	-0.286	-0.294	
28.250	-0.174	-0.302	
28.255	-0.286	-0.293	
28.260	-0.283	-0.282	
28.265	-0.171	-0.271	
28.270	-0.239	-0.256	
28.275	-0.297	-0.245	
28.280	-0.127	-0.239	
28.285	-0.104	-0.222	
28.290	-0.228	-0.198	
28.295	-0.148	-0.183	
28.300	-0.037	-0.168	
28.305	-0.179	-0.148	
28.310	-0.181	-0.137	
28.315	-0.011	-0.132	
28.320	-0.122	-0.120	
28.325	-0.205	-0.113	
28.330	-0.035	-0.115	
28.335	-0.034	-0.109	
28.340	-0.177	-0.099	
28.345	-0.087	-0.098	
28.350	0.053	-0.093	
28.355	-0.116	-0.078	
28.360	-0.104	-0.069	
28.365	0.148	-0.060	
28.370	0.000	-0.036	
28.375	-0.090	-0.015	
28.380	0.162	-0.002	
28.385	0.188	0.023	
28.390	-0.068	0.053	
28.395	0.015	0.062	
28.400	0.165	0.060	
28.405	-0.034	0.062	
28.410	0.056	0.059	
28.415	0.273	0.063	
28.420	0.075	0.084	
28.425	-0.035	0.097	
28.430	0.249	0.097	
28.435	0.273	0.113	
28.440	0.030	0.138	
28.445	0.195	0.149	
28.450	0.369	0.164	
28.455	0.097	0.188	
28.460	0.145	0.198	
28.465	0.307	0.199	
28.470	0.124	0.203	
28.475	0.000	0.193	
28.480	0.322	0.173	
28.485	0.270	0.174	
28.490	-0.058	0.179	
28.495	0.055	0.158	
28.500	0.211	0.131	
28.505	-0.035	0.113	
28.510	-0.019	0.090	
28.515	0.185	0.067	
28.520	0.038	0.061	
28.525	-0.086	0.055	
28.530	0.143	0.042	
28.535	0.145	0.044	
28.540	-0.097	0.052	
28.545	-0.003	0.045	
28.550	0.195	0.037	
28.555	-0.006	0.044	
28.560	-0.002	0.047	
28.565	0.201	0.049	
28.570	0.072	0.063	
28.575	-0.071	0.071	
28.580	0.136	0.064	
28.585	0.221	0.069	
28.590	0.056	0.088	
28.595	0.192	0.105	
28.600	0.236	0.125	
28.605	-0.040	0.141	
28.610	-0.020	0.129	
28.615	0.180	0.104	
28.620	-0.011	0.088	
28.625	-0.103	0.066	
28.630	0.096	0.038	
28.635	0.085	0.025	
28.640	-0.101	0.021	
28.645	0.052	0.013	
28.650	0.131	0.012	
28.655	-0.122	0.019	
28.660	-0.106	0.008	
28.665	0.093	-0.010	
28.670	-0.040	-0.015	
28.675	-0.132	-0.020	
28.680	0.113	-0.028	
28.685	0.142	-0.016	
28.690	-0.107	0.007	
28.695	0.029	0.014	
28.700	0.163	0.021	
28.705	-0.109	0.031	
28.710	-0.121	0.023	
28.715	0.094	0.002	
28.720	-0.043	-0.007	
28.725	-0.127	-0.016	
28.730	0.084	-0.027	
28.735	0.087	-0.022	
28.740	-0.101	-0.008	
28.745	-0.032	-0.006	
28.750	0.108	-0.007	
28.755	-0.086	-0.002	
28.760	-0.043	-0.004	
28.765	0.186	-0.003	
28.770	-0.037	0.011	
28.775	-0.109	0.016	
28.780	0.085	0.008	
28.785	0.091	0.009	
28.790	-0.083	0.017	
28.795	0.049	0.016	
28.800	0.156	0.021	
28.805	-0.058	0.033	
28.810	0.003	0.035	
28.815	0.278	0.040	
28.820	0.082	0.064	
28.825	-0.069	0.082	
28.830	0.204	0.082	
28.835	0.188	0.091	
28.840	-0.011	0.105	
28.845	0.146	0.107	
28.850	0.316	0.116	
28.855	0.007	0.135	
28.860	0.007	0.135	
28.865	0.220	0.121	
28.870	0.085	0.117	
28.875	-0.055	0.108	
28.880	0.165	0.091	
28.885	0.096	0.082	
28.890	-0.109	0.074	
28.895	0.007	0.052	
28.900	0.128	0.032	
28.905	-0.109	0.024	
28.910	-0.068	0.008	
28.915	0.183	-0.004	
28.920	0.046	0.007	
28.925	-0.101	0.019	
28.930	0.073	0.017	
28.935	0.085	0.019	
28.940	-0.069	0.025	
28.945	0.073	0.024	
28.950	0.203	0.032	
28.955	-0.075	0.049	
28.960	-0.029	0.049	
28.965	0.250	0.045	
28.970	0.078	0.061	
28.975	0.001	0.076	
28.980	0.249	0.084	
28.985	0.194	0.105	
28.990	-0.023	0.124	
28.995	0.052	0.120	
29.000	0.174	0.107	
29.005	-0.106	0.095	
29.010	-0.129	0.064	
29.015	0.024	0.021	
29.020	-0.103	-0.012	
29.025	-0.176	-0.043	
29.030	0.018	-0.070	
29.035	-0.022	-0.078	
29.040	-0.165	-0.076	
29.045	-0.072	-0.081	
29.050	0.012	-0.082	
29.055	-0.173	-0.078	
29.060	-0.122	-0.082	
29.065	0.042	-0.087	
29.070	-0.054	-0.077	
29.075	-0.112	-0.066	
29.080	0.177	-0.053	
29.085	0.186	-0.017	
29.090	-0.090	0.025	
29.095	0.006	0.041	
29.100	0.039	0.040	
29.105	-0.171	0.028	
