Vernier Format 2
reposo.txt 10/19/2025 9:56:26
Run 1
Time	Potential	EKG	
T	P	E	
s	mV	mV	

0.000	-0.177	-0.008	
0.005	0.078	-0.023	
0.010	0.330	-0.013	
0.015	-0.433	0.009	
0.020	-0.356	-0.023	
0.025	0.340	-0.072	
0.030	-0.196	-0.076	
0.035	-0.413	-0.086	
0.040	0.327	-0.107	
0.045	0.181	-0.078	
0.050	-0.396	-0.036	
0.055	0.044	-0.035	
0.060	0.536	-0.017	
0.065	-0.286	0.033	
0.070	-0.207	0.040	
0.075	0.606	0.032	
0.080	-0.086	0.065	
0.085	-0.329	0.074	
0.090	0.464	0.052	
0.095	0.304	0.073	
0.100	-0.349	0.103	
0.105	0.090	0.085	
0.110	0.596	0.080	
0.115	-0.255	0.110	
0.120	-0.182	0.100	
0.125	0.676	0.079	
0.130	-0.051	0.106	
0.135	-0.324	0.111	
0.140	0.476	0.083	
0.145	0.327	0.098	
0.150	-0.342	0.123	
0.155	0.105	0.102	
0.160	0.611	0.094	
0.165	-0.232	0.124	
0.170	-0.165	0.114	
0.175	0.678	0.094	
0.180	-0.042	0.120	
0.185	-0.327	0.123	
0.190	0.502	0.092	
0.195	0.389	0.110	
0.200	-0.313	0.143	
0.205	0.149	0.128	
0.210	0.695	0.129	
0.215	-0.193	0.168	
0.220	-0.115	0.165	
0.225	0.791	0.150	
0.230	0.085	0.187	
0.235	-0.258	0.203	
0.240	0.554	0.179	
0.245	0.412	0.192	
0.250	-0.304	0.213	
0.255	0.151	0.182	
0.260	0.692	0.165	
0.265	-0.194	0.188	
0.270	-0.139	0.172	
0.275	0.724	0.144	
0.280	-0.019	0.163	
0.285	-0.333	0.159	
0.290	0.379	0.113	
0.295	0.224	0.100	
0.300	-0.416	0.094	
0.305	-0.054	0.043	
0.310	0.371	0.003	
0.315	-0.375	-0.003	
0.320	-0.318	-0.037	
0.325	0.409	-0.075	
0.330	-0.177	-0.065	
0.335	-0.439	-0.066	
0.340	0.232	-0.092	
0.345	0.125	-0.081	
0.350	-0.448	-0.059	
0.355	-0.078	-0.077	
0.360	0.426	-0.079	
0.365	-0.324	-0.045	
0.370	-0.274	-0.043	
0.375	0.510	-0.051	
0.380	-0.121	-0.016	
0.385	-0.390	-0.002	
0.390	0.325	-0.021	
0.395	0.244	-0.003	
0.400	-0.385	0.026	
0.405	0.017	0.012	
0.410	0.536	0.011	
0.415	-0.274	0.046	
0.420	-0.220	0.045	
0.425	0.617	0.031	
0.430	0.233	0.076	
0.435	-0.255	0.122	
0.440	0.533	0.134	
0.445	0.360	0.169	
0.450	-0.313	0.199	
0.455	0.046	0.166	
0.460	0.519	0.133	
0.465	-0.252	0.131	
0.470	-0.144	0.100	
0.475	0.997	0.087	
0.480	0.243	0.161	
0.485	-0.312	0.222	
0.490	0.424	0.213	
0.495	0.279	0.207	
0.500	-0.355	0.195	
0.505	0.295	0.146	
0.510	0.707	0.139	
0.515	-0.254	0.177	
0.520	-0.194	0.163	
0.525	0.878	0.137	
0.530	0.793	0.208	
0.535	2.027	0.411	
0.540	2.368	0.768	
0.545	1.337	1.176	
0.550	-0.231	1.381	
0.555	-0.179	1.259	
0.560	0.020	0.941	
0.565	-0.590	0.577	
0.570	-0.550	0.212	
0.575	-0.045	-0.086	
0.580	-0.402	-0.265	
0.585	-0.643	-0.373	
0.590	-0.023	-0.436	
0.595	0.197	-0.410	
0.600	-0.456	-0.325	
0.605	-0.179	-0.264	
0.610	0.345	-0.208	
0.615	-0.278	-0.131	
0.620	-0.332	-0.094	
0.625	0.255	-0.090	
0.630	-0.188	-0.072	
0.635	-0.472	-0.077	
0.640	0.143	-0.111	
0.645	0.078	-0.112	
0.650	-0.402	-0.097	
0.655	0.301	-0.091	
0.660	0.802	-0.025	
0.665	-0.055	0.097	
0.670	-0.119	0.166	
0.675	0.913	0.197	
0.680	0.450	0.276	
0.685	-0.109	0.343	
0.690	0.524	0.347	
0.695	0.383	0.346	
0.700	-0.262	0.329	
0.705	0.264	0.266	
0.710	0.897	0.239	
0.715	-0.156	0.270	
0.720	0.122	0.268	
0.725	0.906	0.263	
0.730	0.785	0.338	
0.735	-0.042	0.424	
0.740	0.854	0.460	
0.745	0.527	0.494	
0.750	-0.398	0.489	
0.755	0.169	0.392	
0.760	0.840	0.308	
0.765	-0.367	0.278	
0.770	-0.556	0.191	
0.775	-0.167	0.037	
0.780	-0.514	-0.110	
0.785	-0.596	-0.245	
0.790	0.236	-0.334	
0.795	1.292	-0.262	
0.800	1.190	0.007	
0.805	1.450	0.374	
0.810	1.016	0.721	
0.815	-0.268	0.907	
0.820	-0.613	0.825	
0.825	-0.139	0.557	
0.830	-0.292	0.268	
0.835	-0.390	0.025	
0.840	0.405	-0.130	
0.845	0.117	-0.157	
0.850	-0.657	-0.143	
0.855	-0.471	-0.186	
0.860	-0.161	-0.254	
0.865	-0.530	-0.302	
0.870	-0.501	-0.349	
0.875	0.102	-0.374	
0.880	-0.173	-0.339	
0.885	-0.537	-0.295	
0.890	-0.100	-0.281	
0.895	-0.141	-0.263	
0.900	-0.640	-0.252	
0.905	-0.263	-0.279	
0.910	0.180	-0.285	
0.915	-0.306	-0.246	
0.920	-0.191	-0.210	
0.925	0.567	-0.159	
0.930	-0.132	-0.067	
0.935	-0.503	-0.019	
0.940	0.032	-0.043	
0.945	0.197	-0.058	
0.950	-0.425	-0.054	
0.955	-0.069	-0.076	
0.960	0.797	-0.062	
0.965	-0.141	0.020	
0.970	-0.208	0.071	
0.975	0.652	0.088	
0.980	-0.049	0.128	
0.985	-0.356	0.133	
0.990	0.423	0.095	
0.995	0.693	0.114	
1.000	0.059	0.188	
1.005	0.521	0.251	
1.010	0.924	0.330	
1.015	0.058	0.419	
1.020	-0.119	0.428	
1.025	0.828	0.384	
1.030	0.020	0.363	
1.035	-0.333	0.310	
1.040	0.771	0.233	
1.045	0.816	0.245	
1.050	-0.148	0.310	
1.055	0.618	0.337	
1.060	0.999	0.385	
1.065	-0.113	0.452	
1.070	-0.249	0.426	
1.075	0.596	0.334	
1.080	0.201	0.280	
1.085	-0.324	0.233	
1.090	0.215	0.156	
1.095	0.185	0.103	
1.100	-0.494	0.062	
1.105	-0.214	-0.017	
1.110	0.295	-0.081	
1.115	-0.312	-0.095	
1.120	-0.371	-0.117	
1.125	0.264	-0.142	
1.130	-0.216	-0.131	
1.135	-0.550	-0.135	
1.140	-0.043	-0.174	
1.145	0.001	-0.191	
1.150	-0.530	-0.190	
1.155	-0.234	-0.214	
1.160	0.313	-0.218	
1.165	-0.355	-0.178	
1.170	-0.364	-0.161	
1.175	0.441	-0.152	
1.180	-0.095	-0.100	
1.185	-0.459	-0.066	
1.190	0.146	-0.077	
1.195	0.204	-0.066	
1.200	-0.434	-0.043	
1.205	-0.144	-0.061	
1.210	0.489	-0.069	
1.215	-0.280	-0.035	
1.220	-0.297	-0.029	
1.225	0.510	-0.037	
1.230	-0.019	-0.002	
1.235	-0.375	0.020	
1.240	0.302	0.006	
1.245	0.330	0.024	
1.250	-0.368	0.055	
1.255	-0.087	0.038	
1.260	0.563	0.023	
1.265	-0.254	0.048	
1.270	-0.284	0.041	
1.275	0.541	0.017	
1.280	0.003	0.039	
1.285	-0.384	0.050	
1.290	0.313	0.025	
1.295	0.360	0.036	
1.300	-0.378	0.065	
1.305	-0.072	0.046	
1.310	0.626	0.033	
1.315	-0.219	0.065	
1.320	-0.254	0.065	
1.325	0.631	0.049	
1.330	0.114	0.084	
1.335	-0.287	0.112	
1.340	0.440	0.104	
1.345	0.481	0.130	
1.350	-0.306	0.170	
1.355	-0.014	0.151	
1.360	0.702	0.131	
1.365	-0.174	0.153	
1.370	-0.211	0.142	
1.375	0.702	0.116	
1.380	0.127	0.142	
1.385	-0.346	0.157	
1.390	0.333	0.125	
1.395	0.443	0.121	
1.400	-0.326	0.138	
1.405	-0.042	0.109	
1.410	0.663	0.087	
1.415	-0.190	0.110	
1.420	-0.248	0.103	
1.425	0.615	0.077	
1.430	0.094	0.100	
1.435	-0.341	0.114	
1.440	0.357	0.089	
1.445	0.463	0.099	
1.450	-0.304	0.131	
1.455	-0.005	0.115	
1.460	0.693	0.104	
1.465	-0.152	0.136	
1.470	-0.202	0.135	
1.475	0.652	0.114	
1.480	0.125	0.140	
1.485	-0.333	0.153	
1.490	0.360	0.122	
1.495	0.463	0.124	
1.500	-0.309	0.147	
1.505	-0.025	0.123	
1.510	0.707	0.105	
1.515	-0.162	0.133	
1.520	-0.231	0.129	
1.525	0.647	0.105	
1.530	0.127	0.128	
1.535	-0.332	0.142	
1.540	0.351	0.114	
1.545	0.484	0.119	
1.550	-0.287	0.147	
1.555	0.007	0.130	
1.560	0.753	0.119	
1.565	-0.126	0.156	
1.570	-0.196	0.160	
1.575	0.716	0.141	
1.580	0.218	0.173	
1.585	-0.275	0.197	
1.590	0.460	0.179	
1.595	0.577	0.193	
1.600	-0.260	0.227	
1.605	0.012	0.205	
1.610	0.716	0.178	
1.615	-0.167	0.191	
1.620	-0.255	0.168	
1.625	0.547	0.120	
1.630	0.046	0.115	
1.635	-0.388	0.102	
1.640	0.217	0.054	
1.645	0.356	0.038	
1.650	-0.368	0.050	
1.655	-0.115	0.023	
1.660	0.585	0.005	
1.665	-0.217	0.034	
1.670	-0.289	0.036	
1.675	0.522	0.017	
1.680	0.018	0.041	
1.685	-0.379	0.053	
1.690	0.398	0.033	
1.695	0.796	0.074	
1.700	0.003	0.172	
1.705	0.644	0.255	
1.710	1.413	0.374	
1.715	0.272	0.536	
1.720	-0.205	0.597	
1.725	0.402	0.530	
1.730	-0.127	0.420	
1.735	-0.518	0.272	
1.740	-0.016	0.094	
1.745	0.152	-0.029	
1.750	-0.451	-0.091	
1.755	-0.188	-0.149	
1.760	0.470	-0.166	
1.765	-0.258	-0.121	
1.770	-0.346	-0.095	
1.775	0.441	-0.088	
1.780	-0.025	-0.044	
1.785	-0.436	-0.017	
1.790	0.136	-0.035	
1.795	0.328	-0.030	
1.800	-0.379	-0.003	
1.805	-0.135	-0.015	
1.810	0.571	-0.022	
1.815	-0.205	0.016	
1.820	-0.298	0.025	
1.825	0.519	0.012	
1.830	0.053	0.040	
1.835	-0.375	0.058	
1.840	0.249	0.035	
1.845	0.415	0.043	
1.850	-0.353	0.072	
1.855	-0.101	0.055	
1.860	0.631	0.040	
1.865	-0.171	0.071	
1.870	-0.271	0.074	
1.875	0.612	0.057	
1.880	0.137	0.088	
1.885	-0.335	0.113	
1.890	0.331	0.095	
1.895	0.522	0.108	
1.900	-0.275	0.145	
1.905	-0.017	0.134	
1.910	0.742	0.124	
1.915	-0.104	0.159	
1.920	-0.200	0.163	
1.925	0.716	0.144	
1.930	0.247	0.176	
1.935	-0.281	0.203	
1.940	0.420	0.183	
1.945	0.631	0.194	
1.950	-0.217	0.232	
1.955	0.085	0.220	
1.960	0.881	0.212	
1.965	-0.032	0.253	
1.970	-0.159	0.257	
1.975	0.785	0.231	
1.980	0.318	0.256	
1.985	-0.254	0.274	
1.990	0.412	0.243	
1.995	0.614	0.238	
2.000	-0.249	0.255	
2.005	-0.031	0.221	
2.010	0.699	0.181	
2.015	-0.162	0.184	
2.020	-0.306	0.154	
2.025	0.476	0.098	
2.030	0.033	0.083	
2.035	-0.423	0.066	
2.040	0.117	0.014	
2.045	0.368	-0.007	
2.050	-0.376	0.007	
2.055	-0.164	-0.013	
2.060	0.560	-0.027	
2.065	-0.210	0.005	
2.070	-0.341	0.011	
2.075	0.460	-0.008	
2.080	0.056	0.013	
2.085	-0.375	0.031	
2.090	0.217	0.011	
2.095	0.438	0.023	
2.100	-0.335	0.059	
2.105	-0.104	0.051	
2.110	0.640	0.042	
2.115	-0.162	0.076	
2.120	-0.292	0.080	
2.125	0.530	0.057	
2.130	0.108	0.076	
2.135	-0.361	0.089	
2.140	0.215	0.060	
2.145	0.458	0.060	
2.150	-0.310	0.086	
2.155	-0.109	0.071	
2.160	0.626	0.055	
2.165	-0.165	0.082	
2.170	-0.300	0.080	
2.175	0.495	0.052	
2.180	0.047	0.062	
2.185	-0.393	0.065	
2.190	0.198	0.029	
2.195	0.458	0.028	
2.200	-0.317	0.059	
2.205	-0.127	0.049	
2.210	0.591	0.036	
2.215	-0.174	0.064	
2.220	-0.300	0.063	
2.225	0.531	0.040	
2.230	0.101	0.061	
2.235	-0.384	0.076	
2.240	0.162	0.046	
2.245	0.441	0.041	
2.250	-0.318	0.064	
2.255	-0.116	0.049	
2.260	0.621	0.036	
2.265	-0.168	0.067	
2.270	-0.310	0.069	
2.275	0.507	0.044	
2.280	0.105	0.061	
2.285	-0.382	0.074	
2.290	0.166	0.043	
2.295	0.424	0.038	
2.300	-0.336	0.059	
2.305	-0.153	0.041	
2.310	0.586	0.021	
2.315	-0.165	0.047	
2.320	-0.312	0.049	
2.325	0.489	0.027	
2.330	0.107	0.046	
2.335	-0.393	0.062	
2.340	0.156	0.034	
2.345	0.427	0.030	
2.350	-0.329	0.054	
2.355	-0.145	0.038	
2.360	0.637	0.024	
2.365	-0.165	0.058	
2.370	-0.320	0.063	
2.375	0.467	0.038	
2.380	0.111	0.052	
2.385	-0.385	0.064	
2.390	0.180	0.036	
2.395	0.441	0.034	
2.400	-0.327	0.061	
2.405	-0.124	0.048	
2.410	0.631	0.035	
2.415	-0.141	0.068	
2.420	-0.294	0.074	
2.425	0.522	0.054	
2.430	0.148	0.076	
2.435	-0.367	0.093	
2.440	0.214	0.067	
2.445	0.490	0.068	
2.450	-0.312	0.096	
2.455	-0.127	0.080	
2.460	0.638	0.061	
2.465	-0.150	0.086	
2.470	-0.317	0.084	
2.475	0.460	0.052	
2.480	0.134	0.061	
2.485	-0.370	0.071	
2.490	0.183	0.043	
2.495	0.484	0.043	
2.500	-0.313	0.074	
2.505	-0.150	0.062	
2.510	0.588	0.044	
2.515	-0.156	0.067	
2.520	-0.315	0.064	
2.525	0.499	0.037	
2.530	0.148	0.056	
2.535	-0.365	0.074	
2.540	0.188	0.052	
2.545	0.516	0.055	
2.550	-0.281	0.090	
2.555	-0.083	0.085	
2.560	0.748	0.080	
2.565	-0.061	0.126	
2.570	-0.254	0.142	
2.575	0.577	0.124	
2.580	0.188	0.143	
2.585	-0.378	0.152	
2.590	0.131	0.108	
2.595	0.432	0.082	
2.600	-0.333	0.084	
2.605	-0.167	0.051	
2.610	0.580	0.021	
2.615	-0.159	0.041	
2.620	-0.327	0.041	
2.625	0.481	0.017	
2.630	0.145	0.039	
2.635	-0.379	0.060	
2.640	0.134	0.037	
2.645	0.446	0.035	
2.650	-0.344	0.059	
2.655	-0.141	0.042	
2.660	0.837	0.036	
2.665	0.253	0.108	
2.670	0.172	0.194	
2.675	1.352	0.290	
2.680	0.883	0.458	
2.685	-0.177	0.591	
2.690	0.198	0.581	
2.695	0.325	0.494	
2.700	-0.422	0.380	
2.705	-0.271	0.217	
2.710	0.463	0.074	
2.715	-0.190	0.011	
2.720	-0.367	-0.035	
2.725	0.402	-0.075	
2.730	0.131	-0.055	
2.735	-0.393	-0.022	
2.740	0.102	-0.028	
2.745	0.475	-0.012	
2.750	-0.295	0.033	
2.755	-0.142	0.037	
2.760	0.652	0.035	
2.765	-0.112	0.077	
2.770	-0.291	0.089	
2.775	0.541	0.072	
2.780	0.244	0.098	
2.785	-0.346	0.124	
2.790	0.183	0.102	
2.795	0.554	0.099	
2.800	-0.258	0.127	
2.805	-0.112	0.113	
2.810	0.716	0.097	
2.815	-0.072	0.128	
2.820	-0.278	0.134	
2.825	0.560	0.109	
2.830	0.266	0.127	
2.835	-0.349	0.147	
2.840	0.233	0.121	
2.845	0.599	0.119	
2.850	-0.254	0.150	
2.855	-0.112	0.137	
2.860	0.715	0.116	
2.865	-0.060	0.142	
2.870	-0.280	0.144	
2.875	0.576	0.116	
2.880	0.302	0.135	
2.885	-0.309	0.159	
2.890	0.235	0.138	
2.895	0.628	0.139	
2.900	-0.248	0.171	
2.905	-0.115	0.156	
2.910	0.745	0.132	
2.915	-0.023	0.158	
2.920	-0.249	0.163	
2.925	0.599	0.139	
2.930	0.318	0.159	
2.935	-0.304	0.183	
2.940	0.266	0.160	
2.945	0.675	0.160	
2.950	-0.208	0.196	
2.955	-0.083	0.186	
2.960	0.730	0.163	
2.965	-0.060	0.182	
2.970	-0.307	0.172	
2.975	0.440	0.124	
2.980	0.142	0.111	
2.985	-0.431	0.097	
2.990	-0.013	0.039	
2.995	0.369	-0.001	
3.000	-0.384	-0.005	
3.005	-0.286	-0.037	
3.010	0.366	-0.073	
3.015	-0.234	-0.068	
3.020	-0.443	-0.078	
3.025	0.198	-0.111	
3.030	-0.014	-0.109	
3.035	-0.471	-0.102	
3.040	-0.048	-0.126	
3.045	0.347	-0.125	
3.050	-0.371	-0.089	
3.055	-0.251	-0.084	
3.060	0.489	-0.084	
3.065	-0.168	-0.043	
3.070	-0.385	-0.026	
3.075	0.321	-0.041	
3.080	0.107	-0.024	
3.085	-0.420	-0.006	
3.090	0.020	-0.029	
3.095	0.441	-0.032	
3.100	-0.333	-0.002	
3.105	-0.225	-0.007	
3.110	0.574	-0.018	
3.115	-0.119	0.017	
3.120	-0.359	0.030	
3.125	0.383	0.010	
3.130	0.142	0.023	
3.135	-0.420	0.037	
3.140	0.021	0.006	
3.145	0.478	-0.006	
3.150	-0.304	0.020	
3.155	-0.200	0.014	
3.160	0.599	0.004	
3.165	-0.106	0.039	
3.170	-0.336	0.051	
3.175	0.463	0.034	
3.180	0.250	0.057	
3.185	-0.370	0.086	
3.190	0.072	0.065	
3.195	0.550	0.057	
3.200	-0.257	0.085	
3.205	-0.174	0.077	
3.210	0.652	0.061	
3.215	-0.049	0.091	
3.220	-0.310	0.101	
3.225	0.478	0.078	
3.230	0.311	0.097	
3.235	-0.324	0.124	
3.240	0.159	0.106	
3.245	0.629	0.106	
3.250	-0.232	0.142	
3.255	-0.142	0.134	
3.260	0.684	0.113	
3.265	-0.031	0.137	
3.270	-0.303	0.138	
3.275	0.507	0.107	
3.280	0.302	0.119	
3.285	-0.332	0.139	
3.290	0.160	0.114	
3.295	0.652	0.110	
3.300	-0.229	0.145	
3.305	-0.147	0.137	
3.310	0.750	0.119	
3.315	0.003	0.150	
3.320	-0.278	0.160	
3.325	0.539	0.135	
3.330	0.350	0.150	
3.335	-0.326	0.172	
3.340	0.143	0.144	
3.345	0.640	0.131	
3.350	-0.213	0.157	
3.355	-0.129	0.144	
3.360	0.716	0.123	
3.365	-0.034	0.148	
3.370	-0.306	0.149	
3.375	0.501	0.115	
3.380	0.322	0.125	
3.385	-0.336	0.143	
3.390	0.119	0.115	
3.395	0.611	0.104	
3.400	-0.232	0.130	
3.405	-0.159	0.119	
3.410	0.666	0.096	
3.415	-0.046	0.119	
3.420	-0.320	0.121	
3.425	0.447	0.088	
3.430	0.281	0.095	
3.435	-0.368	0.111	
3.440	0.049	0.079	
3.445	0.567	0.063	
3.450	-0.245	0.086	
3.455	-0.181	0.077	
3.460	0.684	0.062	
3.465	-0.002	0.098	
3.470	-0.278	0.116	
3.475	0.560	0.104	
3.480	0.429	0.137	
3.485	-0.287	0.180	
3.490	0.172	0.170	
3.495	0.670	0.167	
3.500	-0.210	0.194	
3.505	-0.171	0.176	
3.510	0.629	0.138	
3.515	-0.083	0.140	
3.520	-0.370	0.120	
3.525	0.325	0.065	
3.530	0.172	0.046	
3.535	-0.411	0.041	
3.540	-0.043	-0.001	
3.545	0.452	-0.024	
3.550	-0.312	-0.005	
3.555	-0.248	-0.015	
3.560	0.551	-0.028	
3.565	-0.086	0.006	
3.570	-0.371	0.022	
3.575	0.319	0.002	
3.580	0.296	0.018	
3.585	-0.242	0.053	
3.590	0.562	0.078	
3.595	1.375	0.180	
3.600	0.426	0.369	
3.605	0.333	0.512	
3.610	0.939	0.582	
3.615	-0.084	0.607	
3.620	-0.459	0.521	
3.625	0.110	0.342	
3.630	0.049	0.182	
3.635	-0.454	0.058	
3.640	-0.083	-0.057	
3.645	0.437	-0.111	
3.650	-0.312	-0.096	
3.655	-0.274	-0.091	
3.660	0.501	-0.089	
3.665	-0.110	-0.043	
3.670	-0.393	-0.018	
3.675	0.325	-0.028	
3.680	0.246	-0.005	
3.685	-0.384	0.027	
3.690	-0.016	0.013	
3.695	0.554	0.010	
3.700	-0.249	0.046	
3.705	-0.213	0.048	
3.710	0.618	0.037	
3.715	-0.042	0.071	
3.720	-0.344	0.083	
3.725	0.405	0.058	
3.730	0.324	0.072	
3.735	-0.362	0.097	
3.740	0.018	0.074	
3.745	0.594	0.061	
3.750	-0.231	0.089	
3.755	-0.182	0.084	
3.760	0.672	0.069	
3.765	0.013	0.103	
3.770	-0.320	0.119	
3.775	0.463	0.097	
3.780	0.397	0.114	
3.785	-0.312	0.146	
3.790	0.114	0.129	
3.795	0.698	0.125	
3.800	-0.176	0.162	
3.805	-0.148	0.159	
3.810	0.742	0.141	
3.815	0.059	0.170	
3.820	-0.289	0.180	
3.825	0.496	0.150	
3.830	0.463	0.162	
3.835	-0.281	0.190	
3.840	0.165	0.172	
3.845	0.742	0.168	
3.850	-0.170	0.203	
3.855	-0.141	0.195	
3.860	0.782	0.170	
3.865	0.111	0.197	
3.870	-0.272	0.208	
3.875	0.528	0.179	
3.880	0.438	0.189	
3.885	-0.321	0.208	
3.890	0.004	0.170	
3.895	0.567	0.132	
3.900	-0.266	0.129	
3.905	-0.287	0.092	
3.910	0.434	0.038	
3.915	-0.150	0.024	
3.920	-0.466	-0.002	
3.925	0.108	-0.060	
3.930	0.026	-0.088	
3.935	-0.518	-0.101	
3.940	-0.184	-0.145	
3.945	0.292	-0.167	
3.950	-0.371	-0.145	
3.955	-0.346	-0.145	
3.960	0.385	-0.149	
3.965	-0.139	-0.111	
3.970	-0.460	-0.088	
3.975	0.154	-0.102	
3.980	0.128	-0.091	
3.985	-0.439	-0.070	
3.990	-0.103	-0.087	
3.995	0.449	-0.087	
4.000	-0.306	-0.049	
4.005	-0.301	-0.043	
4.010	0.475	-0.052	
4.015	-0.089	-0.021	
4.020	-0.413	-0.007	
4.025	0.270	-0.029	
4.030	0.270	-0.016	
4.035	-0.391	0.013	
4.040	-0.068	-0.002	
4.045	0.571	-0.007	
4.050	-0.257	0.029	
4.055	-0.263	0.033	
4.060	0.537	0.017	
4.065	-0.042	0.041	
4.070	-0.382	0.049	
4.075	0.304	0.021	
4.080	0.321	0.028	
4.085	-0.364	0.053	
4.090	-0.045	0.035	
4.095	0.545	0.024	
4.100	-0.260	0.050	
4.105	-0.262	0.043	
4.110	0.563	0.021	
4.115	-0.026	0.045	
4.120	-0.368	0.056	
4.125	0.331	0.030	
4.130	0.340	0.042	
4.135	-0.355	0.070	
4.140	-0.037	0.052	
4.145	0.605	0.042	
4.150	-0.232	0.072	
4.155	-0.251	0.069	
4.160	0.597	0.048	
4.165	0.001	0.073	
4.170	-0.356	0.083	
4.175	0.350	0.055	
4.180	0.403	0.066	
4.185	-0.336	0.097	
4.190	0.010	0.083	
4.195	0.690	0.077	
4.200	-0.211	0.115	
4.205	-0.240	0.114	
4.210	0.617	0.088	
4.215	0.021	0.107	
4.220	-0.347	0.110	
4.225	0.350	0.077	
4.230	0.403	0.081	
4.235	-0.342	0.106	
4.240	-0.020	0.084	
4.245	0.637	0.070	
4.250	-0.199	0.099	
4.255	-0.222	0.095	
4.260	0.655	0.077	
4.265	0.026	0.105	
4.270	-0.342	0.116	
4.275	0.392	0.088	
4.280	0.441	0.099	
4.285	-0.326	0.129	
4.290	0.003	0.111	
4.295	0.660	0.097	
4.300	-0.193	0.125	
4.305	-0.232	0.117	
4.310	0.629	0.090	
4.315	0.053	0.110	
4.320	-0.327	0.119	
4.325	0.412	0.092	
4.330	0.498	0.108	
4.335	-0.301	0.147	
4.340	0.050	0.136	
4.345	0.727	0.130	
4.350	-0.147	0.166	
4.355	-0.168	0.165	
4.360	0.802	0.149	
4.365	0.230	0.190	
4.370	-0.263	0.222	
4.375	0.513	0.206	
4.380	0.577	0.222	
4.385	-0.260	0.254	
4.390	0.050	0.228	
4.395	0.687	0.197	
4.400	-0.185	0.203	
4.405	-0.231	0.172	
4.410	0.597	0.123	
4.415	0.006	0.121	
4.420	-0.382	0.108	
4.425	0.255	0.058	
4.430	0.342	0.045	
4.435	-0.368	0.056	
4.440	-0.080	0.030	
4.445	0.586	0.014	
4.450	-0.217	0.044	
4.455	-0.275	0.045	
4.460	0.550	0.027	
4.465	0.091	0.055	
4.470	-0.210	0.083	
4.475	0.921	0.109	
4.480	1.202	0.232	
4.485	0.128	0.409	
4.490	0.385	0.506	
4.495	0.687	0.533	
4.500	-0.318	0.515	
4.505	-0.437	0.393	
4.510	0.214	0.215	
4.515	-0.170	0.080	
4.520	-0.489	-0.030	
4.525	0.088	-0.127	
4.530	0.220	-0.156	
4.535	-0.422	-0.136	
4.540	-0.133	-0.136	
4.545	0.513	-0.119	
4.550	-0.260	-0.060	
4.555	-0.324	-0.035	
4.560	0.476	-0.036	
4.565	-0.026	-0.002	
4.570	-0.405	0.016	
4.575	0.223	-0.007	
4.580	0.342	0.001	
4.585	-0.362	0.030	
4.590	-0.083	0.017	
4.595	0.605	0.011	
4.600	-0.210	0.048	
4.605	-0.292	0.053	
4.610	0.528	0.033	
4.615	0.009	0.053	
4.620	-0.390	0.060	
4.625	0.244	0.028	
4.630	0.362	0.029	
4.635	-0.368	0.051	
4.640	-0.090	0.031	
4.645	0.617	0.019	
4.650	-0.211	0.052	
4.655	-0.275	0.055	
4.660	0.605	0.039	
4.665	0.108	0.072	
4.670	-0.353	0.097	
4.675	0.314	0.078	
4.680	0.481	0.089	
4.685	-0.304	0.123	
4.690	-0.019	0.110	
4.695	0.738	0.102	
4.700	-0.116	0.141	
4.705	-0.194	0.148	
4.710	0.727	0.135	
4.715	0.241	0.173	
4.720	-0.280	0.202	
4.725	0.470	0.186	
4.730	0.635	0.204	
4.735	-0.248	0.244	
4.740	0.053	0.227	
4.745	0.817	0.209	
4.750	-0.101	0.234	
4.755	-0.199	0.222	
4.760	0.738	0.187	
4.765	0.227	0.204	
4.770	-0.304	0.216	
4.775	0.372	0.182	
4.780	0.475	0.173	
4.785	-0.338	0.183	
4.790	-0.104	0.140	
4.795	0.533	0.092	
4.800	-0.243	0.085	
4.805	-0.346	0.052	
4.810	0.392	0.001	
4.815	-0.060	-0.007	
4.820	-0.454	-0.018	
4.825	0.087	-0.060	
4.830	0.272	-0.071	
4.835	-0.405	-0.052	
4.840	-0.159	-0.066	
4.845	0.513	-0.070	
4.850	-0.243	-0.030	
4.855	-0.327	-0.019	
4.860	0.490	-0.029	
4.865	0.030	0.003	
4.870	-0.394	0.026	
4.875	0.236	0.008	
4.880	0.431	0.021	
4.885	-0.335	0.059	
4.890	-0.090	0.051	
4.895	0.637	0.044	
4.900	-0.164	0.079	
4.905	-0.251	0.084	
4.910	0.657	0.071	
4.915	0.172	0.108	
4.920	-0.320	0.138	
4.925	0.343	0.122	
4.930	0.571	0.134	
4.935	-0.245	0.173	
4.940	-0.031	0.163	
4.945	0.673	0.144	
4.950	-0.150	0.162	
4.955	-0.269	0.146	
4.960	0.556	0.105	
4.965	0.096	0.109	
4.970	-0.358	0.109	
4.975	0.236	0.071	
4.980	0.417	0.064	
4.985	-0.342	0.082	
4.990	-0.089	0.059	
4.995	0.655	0.044	
5.000	-0.162	0.077	
5.005	-0.287	0.081	
5.010	0.567	0.060	
5.015	0.101	0.082	
5.020	-0.368	0.097	
5.025	0.250	0.068	
5.030	0.510	0.071	
5.035	-0.317	0.103	
5.040	-0.110	0.089	
5.045	0.625	0.070	
5.050	-0.167	0.093	
5.055	-0.292	0.086	
5.060	0.548	0.058	
5.065	0.127	0.076	
5.070	-0.356	0.092	
5.075	0.240	0.067	
5.080	0.495	0.070	
5.085	-0.320	0.101	
5.090	-0.109	0.086	
5.095	0.626	0.067	
5.100	-0.167	0.090	
5.105	-0.287	0.085	
5.110	0.541	0.058	
5.115	0.131	0.076	
5.120	-0.362	0.092	
5.125	0.247	0.066	
5.130	0.512	0.071	
5.135	-0.304	0.105	
5.140	-0.071	0.095	
5.145	0.736	0.085	
5.150	-0.081	0.126	
5.155	-0.223	0.139	
5.160	0.672	0.126	
5.165	0.224	0.159	
5.170	-0.335	0.182	
5.175	0.244	0.150	
5.180	0.460	0.135	
5.185	-0.349	0.141	
5.190	-0.155	0.099	
5.195	0.562	0.056	
5.200	-0.203	0.060	
5.205	-0.341	0.042	
5.210	0.424	0.004	
5.215	0.032	0.010	
5.220	-0.419	0.014	
5.225	0.136	-0.018	
5.230	0.426	-0.017	
5.235	-0.349	0.016	
5.240	-0.156	0.009	
5.245	0.547	-0.001	
5.250	-0.184	0.029	
5.255	-0.231	0.036	
5.260	0.955	0.047	
5.265	0.805	0.158	
5.270	0.013	0.303	
5.275	0.687	0.388	
5.280	0.611	0.451	
5.285	-0.416	0.467	
5.290	-0.310	0.364	
5.295	0.249	0.210	
5.300	-0.336	0.089	
5.305	-0.453	-0.028	
5.310	0.305	-0.123	
5.315	-0.005	-0.140	
5.320	-0.434	-0.129	
5.325	0.099	-0.136	
5.330	0.409	-0.106	
5.335	-0.333	-0.045	
5.340	-0.135	-0.024	
5.345	0.618	-0.009	
5.350	-0.158	0.043	
5.355	-0.318	0.061	
5.360	0.528	0.046	
5.365	0.181	0.072	
5.370	-0.342	0.097	
5.375	0.266	0.081	
5.380	0.551	0.092	
5.385	-0.280	0.131	
5.390	-0.078	0.121	
5.395	0.738	0.108	
5.400	-0.089	0.142	
5.405	-0.258	0.147	
5.410	0.638	0.123	
5.415	0.267	0.148	
5.420	-0.320	0.173	
5.425	0.287	0.149	
5.430	0.618	0.150	
5.435	-0.242	0.182	
5.440	-0.061	0.167	
5.445	0.770	0.148	
5.450	-0.063	0.177	
5.455	-0.239	0.177	
5.460	0.658	0.150	
5.465	0.293	0.172	
5.470	-0.307	0.194	
5.475	0.334	0.170	
5.480	0.658	0.174	
5.485	-0.225	0.209	
5.490	-0.020	0.197	
5.495	0.834	0.181	
5.500	-0.026	0.214	
5.505	-0.222	0.217	
5.510	0.673	0.188	
5.515	0.339	0.206	
5.520	-0.286	0.226	
5.525	0.354	0.200	
5.530	0.670	0.201	
5.535	-0.225	0.232	
5.540	-0.064	0.211	
5.545	0.741	0.180	
5.550	-0.069	0.194	
5.555	-0.281	0.180	
5.560	0.560	0.136	
5.565	0.146	0.135	
5.570	-0.413	0.130	
5.575	0.026	0.073	
5.580	0.334	0.031	
5.585	-0.407	0.017	
5.590	-0.269	-0.027	
5.595	0.372	-0.070	
5.600	-0.271	-0.069	
5.605	-0.446	-0.084	
5.610	0.238	-0.119	
5.615	-0.048	-0.115	
5.620	-0.512	-0.109	
5.625	-0.081	-0.139	
5.630	0.256	-0.147	
5.635	-0.414	-0.123	
5.640	-0.245	-0.127	
5.645	0.427	-0.127	
5.650	-0.236	-0.086	
5.655	-0.416	-0.072	
5.660	0.284	-0.087	
5.665	0.001	-0.072	
5.670	-0.457	-0.059	
5.675	0.021	-0.083	
5.680	0.426	-0.079	
5.685	-0.352	-0.038	
5.690	-0.211	-0.034	
5.695	0.541	-0.036	
5.700	-0.184	0.001	
5.705	-0.390	0.009	
5.710	0.388	-0.015	
5.715	0.094	-0.002	
5.720	-0.396	0.013	
5.725	0.079	-0.010	
5.730	0.427	-0.011	
5.735	-0.347	0.017	
5.740	-0.205	0.007	
5.745	0.570	-0.009	
5.750	-0.159	0.021	
5.755	-0.350	0.027	
5.760	0.460	0.007	
5.765	0.191	0.031	
5.770	-0.396	0.057	
5.775	0.078	0.036	
5.780	0.470	0.029	
5.785	-0.310	0.053	
5.790	-0.161	0.041	
5.795	0.655	0.028	
5.800	-0.104	0.065	
5.805	-0.313	0.077	
5.810	0.489	0.058	
5.815	0.208	0.078	
5.820	-0.378	0.098	
5.825	0.131	0.070	
5.830	0.553	0.064	
5.835	-0.284	0.093	
5.840	-0.152	0.082	
5.845	0.673	0.066	
5.850	-0.100	0.096	
5.855	-0.313	0.101	
5.860	0.534	0.076	
5.865	0.266	0.096	
5.870	-0.342	0.122	
5.875	0.206	0.102	
5.880	0.649	0.107	
5.885	-0.254	0.147	
5.890	-0.135	0.140	
5.895	0.684	0.118	
5.900	-0.104	0.138	
5.905	-0.326	0.129	
5.910	0.490	0.088	
5.915	0.246	0.094	
5.920	-0.346	0.108	
5.925	0.188	0.084	
5.930	0.628	0.086	
5.935	-0.249	0.127	
5.940	-0.127	0.124	
5.945	0.777	0.112	
5.950	-0.005	0.151	
5.955	-0.240	0.167	
5.960	0.640	0.151	
5.965	0.369	0.180	
5.970	-0.310	0.211	
5.975	0.206	0.185	
5.980	0.611	0.171	
5.985	-0.275	0.185	
5.990	-0.185	0.153	
5.995	0.597	0.106	
6.000	-0.141	0.104	
6.005	-0.371	0.081	
6.010	0.400	0.032	
6.015	0.174	0.030	
6.020	-0.396	0.040	
6.025	0.052	0.011	
6.030	0.504	0.005	
6.035	-0.301	0.036	
6.040	-0.190	0.031	
6.045	0.585	0.019	
6.050	-0.132	0.048	
6.055	-0.292	0.055	
6.060	0.785	0.052	
6.065	0.822	0.137	
6.070	0.085	0.270	
6.075	0.849	0.370	
6.080	1.083	0.484	
6.085	-0.208	0.580	
6.090	-0.254	0.539	
6.095	0.386	0.404	
6.100	-0.231	0.277	
6.105	-0.433	0.139	
6.110	0.272	0.008	
6.115	0.096	-0.048	
6.120	-0.443	-0.066	
6.125	-0.025	-0.101	
6.130	0.423	-0.102	
6.135	-0.335	-0.062	
6.140	-0.220	-0.052	
6.145	0.585	-0.046	
6.150	-0.107	0.004	
6.155	-0.347	0.029	
6.160	0.441	0.019	
6.165	0.252	0.047	
6.170	-0.356	0.079	
6.175	0.096	0.064	
6.180	0.542	0.062	
6.185	-0.281	0.091	
6.190	-0.168	0.080	
6.195	0.702	0.063	
6.200	0.015	0.101	
6.205	-0.277	0.122	
6.210	0.510	0.109	
6.215	0.292	0.130	
6.220	-0.356	0.150	
6.225	0.097	0.118	
6.230	0.580	0.099	
6.235	-0.251	0.118	
6.240	-0.159	0.102	
6.245	0.695	0.081	
6.250	-0.043	0.111	
6.255	-0.309	0.119	
6.260	0.513	0.094	
6.265	0.363	0.114	
6.270	-0.321	0.145	
6.275	0.186	0.130	
6.280	0.687	0.132	
6.285	-0.210	0.171	
6.290	-0.113	0.166	
6.295	0.780	0.149	
6.300	0.035	0.181	
6.305	-0.262	0.191	
6.310	0.589	0.165	
6.315	0.427	0.184	
6.320	-0.286	0.213	
6.325	0.218	0.191	
6.330	0.735	0.186	
6.335	-0.176	0.219	
6.340	-0.103	0.208	
6.345	0.791	0.183	
6.350	0.024	0.206	
6.355	-0.295	0.205	
6.360	0.498	0.163	
6.365	0.319	0.160	
6.370	-0.358	0.164	
6.375	0.033	0.120	
6.380	0.498	0.085	
6.385	-0.321	0.085	
6.390	-0.277	0.050	
6.395	0.453	0.004	
6.400	-0.173	0.002	
6.405	-0.437	-0.015	
6.410	0.223	-0.058	
6.415	0.079	-0.065	
6.420	-0.462	-0.060	
6.425	-0.089	-0.089	
6.430	0.405	-0.098	
6.435	-0.338	-0.067	
6.440	-0.278	-0.064	
6.445	0.527	-0.068	
6.450	-0.122	-0.027	
6.455	-0.407	-0.008	
6.460	0.313	-0.026	
6.465	0.212	-0.010	
6.470	-0.396	0.016	
6.475	-0.011	-0.002	
6.480	0.542	-0.005	
6.485	-0.269	0.032	
6.490	-0.220	0.034	
6.495	0.612	0.024	
6.500	-0.064	0.058	
6.505	-0.347	0.071	
6.510	0.417	0.048	
6.515	0.308	0.065	
6.520	-0.333	0.093	
6.525	0.056	0.076	
6.530	0.570	0.070	
6.535	-0.265	0.097	
6.540	-0.202	0.085	
6.545	0.621	0.061	
6.550	-0.058	0.083	
6.555	-0.353	0.086	
6.560	0.385	0.054	
6.565	0.284	0.060	
6.570	-0.367	0.080	
6.575	0.026	0.055	
6.580	0.579	0.045	
6.585	-0.255	0.074	
6.590	-0.210	0.068	
6.595	0.635	0.051	
6.600	-0.038	0.080	
6.605	-0.344	0.090	
6.610	0.424	0.064	
6.615	0.334	0.078	
6.620	-0.355	0.105	
6.625	0.038	0.083	
6.630	0.600	0.072	
6.635	-0.236	0.099	
6.640	-0.207	0.091	
6.645	0.643	0.070	
6.650	-0.035	0.095	
6.655	-0.349	0.100	
6.660	0.409	0.069	
6.665	0.333	0.078	
6.670	-0.355	0.101	
6.675	0.050	0.079	
6.680	0.632	0.071	
6.685	-0.229	0.104	
6.690	-0.199	0.100	
6.695	0.654	0.081	
6.700	-0.008	0.107	
6.705	-0.344	0.114	
6.710	0.414	0.083	
6.715	0.363	0.092	
6.720	-0.338	0.116	
6.725	0.042	0.094	
6.730	0.637	0.084	
6.735	-0.220	0.114	
6.740	-0.194	0.108	
6.745	0.690	0.088	
6.750	0.021	0.118	
6.755	-0.315	0.131	
6.760	0.464	0.106	
6.765	0.438	0.123	
6.770	-0.291	0.157	
6.775	0.151	0.145	
6.780	0.742	0.147	
6.785	-0.171	0.189	
6.790	-0.164	0.185	
6.795	0.713	0.159	
6.800	0.007	0.176	
6.805	-0.355	0.168	
6.810	0.353	0.118	
6.815	0.284	0.100	
6.820	-0.401	0.097	
6.825	-0.043	0.052	
6.830	0.570	0.024	
6.835	-0.262	0.044	
6.840	-0.237	0.037	
6.845	0.573	0.019	
6.850	-0.068	0.046	
6.855	-0.390	0.053	
6.860	0.296	0.021	
6.865	0.246	0.022	
6.870	-0.407	0.036	
6.875	-0.017	0.009	
6.880	0.814	0.012	
6.885	0.052	0.087	
6.890	0.287	0.164	
6.895	1.390	0.264	
6.900	0.573	0.433	
6.905	-0.242	0.542	
6.910	0.250	0.511	
6.915	0.059	0.416	
6.920	-0.509	0.286	
6.925	-0.174	0.117	
6.930	0.354	-0.011	
6.935	-0.338	-0.063	
6.940	-0.317	-0.106	
6.945	0.440	-0.132	
6.950	-0.110	-0.100	
6.955	-0.423	-0.075	
6.960	0.266	-0.081	
6.965	0.270	-0.051	
6.970	-0.396	-0.008	
6.975	-0.061	-0.013	
6.980	0.559	-0.011	
6.985	-0.251	0.030	
6.990	-0.239	0.035	
6.995	0.614	0.027	
7.000	-0.005	0.063	
7.005	-0.355	0.080	
7.010	0.360	0.058	
7.015	0.380	0.071	
7.020	-0.339	0.100	
7.025	0.010	0.083	
7.030	0.643	0.074	
7.035	-0.210	0.106	
7.040	-0.214	0.103	
7.045	0.657	0.083	
7.050	0.042	0.111	
7.055	-0.342	0.122	
7.060	0.389	0.094	
7.065	0.434	0.103	
7.070	-0.321	0.131	
7.075	0.015	0.112	
7.080	0.676	0.100	
7.085	-0.184	0.130	
7.090	-0.199	0.126	
7.095	0.712	0.107	
7.100	0.107	0.139	
7.105	-0.303	0.158	
7.110	0.460	0.136	
7.115	0.504	0.152	
7.120	-0.277	0.187	
7.125	0.099	0.172	
7.130	0.777	0.165	
7.135	-0.135	0.201	
7.140	-0.161	0.198	
7.145	0.731	0.172	
7.150	0.181	0.197	
7.155	-0.231	0.212	
7.160	0.608	0.196	
7.165	0.551	0.222	
7.170	-0.280	0.260	
7.175	0.036	0.232	
7.180	0.657	0.196	
7.185	-0.217	0.195	
7.190	-0.260	0.156	
7.195	0.533	0.099	
7.200	-0.057	0.087	
7.205	-0.430	0.065	
7.210	0.156	0.007	
7.215	0.175	-0.020	
7.220	-0.453	-0.028	
7.225	-0.173	-0.068	
7.230	0.383	-0.094	
7.235	-0.329	-0.077	
7.240	-0.352	-0.084	
7.245	0.383	-0.101	
7.250	-0.118	-0.078	
7.255	-0.446	-0.065	
7.260	0.169	-0.086	
7.265	0.250	-0.074	
7.270	-0.413	-0.042	
7.275	-0.113	-0.051	
7.280	0.508	-0.052	
7.285	-0.268	-0.013	
7.290	-0.307	-0.007	
7.295	0.508	-0.020	
7.300	-0.038	0.008	
7.305	-0.391	0.022	
7.310	0.263	-0.001	
7.315	0.333	0.010	
7.320	-0.375	0.039	
7.325	-0.077	0.023	
7.330	0.574	0.013	
7.335	-0.236	0.044	
7.340	-0.271	0.044	
7.345	0.570	0.026	
7.350	0.021	0.053	
7.355	-0.373	0.068	
7.360	0.301	0.043	
7.365	0.383	0.051	
7.370	-0.350	0.079	
7.375	-0.052	0.061	
7.380	0.618	0.048	
7.385	-0.214	0.078	
7.390	-0.269	0.075	
7.395	0.583	0.051	
7.400	0.026	0.073	
7.405	-0.368	0.082	
7.410	0.293	0.053	
7.415	0.366	0.055	
7.420	-0.355	0.077	
7.425	-0.071	0.055	
7.430	0.608	0.039	
7.435	-0.205	0.067	
7.440	-0.255	0.066	
7.445	0.600	0.048	
7.450	0.055	0.076	
7.455	-0.350	0.093	
7.460	0.336	0.069	
7.465	0.444	0.080	
7.470	-0.313	0.113	
7.475	0.000	0.100	
7.480	0.774	0.096	
7.485	-0.150	0.141	
7.490	-0.223	0.149	
7.495	0.654	0.128	
7.500	0.104	0.149	
7.505	-0.323	0.156	
7.510	0.403	0.125	
7.515	0.544	0.134	
7.520	-0.269	0.170	
7.525	0.013	0.157	
7.530	0.724	0.144	
7.535	-0.148	0.172	
7.540	-0.236	0.162	
7.545	0.611	0.127	
7.550	0.044	0.134	
7.555	-0.390	0.127	
7.560	0.209	0.076	
7.565	0.348	0.054	
7.570	-0.375	0.058	
7.575	-0.122	0.025	
7.580	0.544	0.001	
7.585	-0.228	0.022	
7.590	-0.297	0.019	
7.595	0.533	0.001	
7.600	0.029	0.029	
7.605	-0.390	0.046	
7.610	0.175	0.020	
7.615	0.308	0.015	
7.620	-0.336	0.032	
7.625	0.142	0.023	
7.630	1.168	0.066	
7.635	0.435	0.210	
7.640	0.311	0.350	
7.645	1.164	0.457	
7.650	0.255	0.559	
7.655	-0.440	0.562	
7.660	-0.009	0.431	
7.665	0.117	0.271	
7.670	-0.463	0.132	
7.675	-0.190	-0.007	
7.680	0.473	-0.091	
7.685	-0.260	-0.093	
7.690	-0.341	-0.094	
7.695	0.453	-0.100	
7.700	-0.019	-0.059	
7.705	-0.410	-0.028	
7.710	0.183	-0.038	
7.715	0.348	-0.021	
7.720	-0.364	0.014	
7.725	-0.101	0.007	
7.730	0.609	0.004	
7.735	-0.196	0.045	
7.740	-0.277	0.053	
7.745	0.545	0.038	
7.750	0.076	0.065	
7.755	-0.361	0.082	
7.760	0.282	0.058	
7.765	0.472	0.067	
7.770	-0.317	0.101	
7.775	-0.054	0.089	
7.780	0.680	0.079	
7.785	-0.162	0.112	
7.790	-0.242	0.113	
7.795	0.631	0.092	
7.800	0.282	0.124	
7.805	-0.292	0.159	
7.810	0.333	0.148	
7.815	0.479	0.155	
7.820	-0.303	0.175	
7.825	-0.066	0.144	
7.830	0.675	0.113	
7.835	-0.142	0.130	
7.840	-0.231	0.121	
7.845	0.669	0.098	
7.850	0.204	0.129	
7.855	-0.320	0.155	
7.860	0.351	0.136	
7.865	0.573	0.145	
7.870	-0.252	0.180	
7.875	0.009	0.168	
7.880	0.788	0.156	
7.885	-0.083	0.191	
7.890	-0.196	0.193	
7.895	0.744	0.170	
7.900	0.263	0.200	
7.905	-0.289	0.222	
7.910	0.371	0.195	
7.915	0.554	0.192	
7.920	-0.291	0.210	
7.925	-0.068	0.176	
7.930	0.647	0.137	
7.935	-0.185	0.140	
7.940	-0.310	0.115	
7.945	0.449	0.064	
7.950	-0.026	0.054	
7.955	-0.457	0.036	
7.960	0.044	-0.021	
7.965	0.255	-0.050	
7.970	-0.423	-0.049	
7.975	-0.202	-0.077	
7.980	0.438	-0.094	
7.985	-0.269	-0.066	
7.990	-0.375	-0.062	
7.995	0.374	-0.079	
8.000	-0.034	-0.056	
8.005	-0.434	-0.041	
8.010	0.117	-0.062	
8.015	0.348	-0.054	
8.020	-0.381	-0.020	
8.025	-0.152	-0.026	
8.030	0.553	-0.030	
8.035	-0.213	0.008	
8.040	-0.329	0.016	
8.045	0.493	-0.001	
8.050	0.079	0.025	
8.055	-0.381	0.046	
8.060	0.206	0.026	
8.065	0.405	0.031	
8.070	-0.344	0.059	
8.075	-0.097	0.044	
8.080	0.664	0.035	
8.085	-0.168	0.073	
8.090	-0.291	0.080	
8.095	0.548	0.059	
8.100	0.120	0.081	
8.105	-0.378	0.096	
8.110	0.218	0.066	
8.115	0.458	0.063	
8.120	-0.291	0.089	
8.125	-0.107	0.075	
8.130	0.649	0.060	
8.135	-0.171	0.089	
8.140	-0.297	0.088	
8.145	0.568	0.061	
8.150	0.128	0.082	
8.155	-0.370	0.098	
8.160	0.214	0.069	
8.165	0.461	0.066	
8.170	-0.326	0.090	
8.175	-0.127	0.070	
8.180	0.626	0.050	
8.185	-0.158	0.075	
8.190	-0.291	0.075	
8.195	0.551	0.052	
8.200	0.143	0.075	
8.205	-0.375	0.094	
8.210	0.223	0.069	
8.215	0.487	0.069	
8.220	-0.295	0.098	
8.225	-0.077	0.086	
8.230	0.702	0.076	
8.235	-0.106	0.113	
8.240	-0.232	0.123	
8.245	0.695	0.110	
8.250	0.305	0.152	
8.255	-0.286	0.191	
8.260	0.345	0.178	
8.265	0.600	0.186	
8.270	-0.278	0.214	
8.275	-0.107	0.185	
8.280	0.621	0.143	
8.285	-0.177	0.140	
8.290	-0.332	0.109	
8.295	0.438	0.056	
8.300	0.035	0.046	
8.305	-0.416	0.037	
8.310	0.131	-0.005	
8.315	0.437	-0.012	
8.320	-0.341	0.018	
8.325	-0.155	0.011	
8.330	0.596	0.003	
8.335	-0.171	0.038	
8.340	-0.320	0.045	
8.345	0.473	0.025	
8.350	0.174	0.047	
8.355	-0.236	0.077	
8.360	0.730	0.097	
8.365	1.254	0.203	
8.370	0.189	0.376	
8.375	0.342	0.483	
8.380	0.806	0.524	
8.385	-0.229	0.527	
8.390	-0.448	0.426	
8.395	0.217	0.256	
8.400	-0.063	0.122	
8.405	-0.477	0.016	
8.410	0.024	-0.085	
8.415	0.357	-0.123	
8.420	-0.378	-0.102	
8.425	-0.197	-0.100	
8.430	0.571	-0.090	
8.435	-0.168	-0.033	
8.440	-0.292	-0.001	
8.445	0.510	0.003	
8.450	0.137	0.045	
8.455	-0.391	0.075	
8.460	0.152	0.053	
8.465	0.484	0.051	
8.470	-0.310	0.078	
8.475	-0.141	0.064	
8.480	0.629	0.047	
8.485	-0.135	0.075	
8.490	-0.300	0.078	
8.495	0.525	0.055	
8.500	0.189	0.077	
8.505	-0.352	0.099	
8.510	0.224	0.079	
8.515	0.556	0.084	
8.520	-0.283	0.120	
8.525	-0.119	0.109	
8.530	0.676	0.091	
8.535	-0.101	0.118	
8.540	-0.275	0.118	
8.545	0.585	0.093	
8.550	0.259	0.117	
8.555	-0.333	0.143	
8.560	0.255	0.122	
8.565	0.583	0.124	
8.570	-0.272	0.156	
8.575	-0.089	0.140	
8.580	0.780	0.122	
8.585	-0.051	0.156	
8.590	-0.239	0.164	
8.595	0.666	0.144	
8.600	0.337	0.174	
8.605	-0.298	0.204	
8.610	0.321	0.185	
8.615	0.670	0.188	
8.620	-0.222	0.221	
8.625	-0.040	0.205	
8.630	0.791	0.182	
8.635	-0.045	0.206	
8.640	-0.249	0.201	
8.645	0.626	0.165	
8.650	0.290	0.177	
8.655	-0.353	0.189	
8.660	0.134	0.147	
8.665	0.479	0.118	
8.670	-0.330	0.117	
8.675	-0.208	0.077	
8.680	0.493	0.031	
8.685	-0.211	0.029	
8.690	-0.399	0.008	
8.695	0.292	-0.037	
8.700	-0.009	-0.045	
8.705	-0.465	-0.049	
8.710	-0.017	-0.086	
8.715	0.328	-0.096	
8.720	-0.385	-0.072	
8.725	-0.240	-0.078	
8.730	0.501	-0.084	
8.735	-0.185	-0.044	
8.740	-0.371	-0.028	
8.745	0.402	-0.039	
8.750	0.128	-0.011	
8.755	-0.376	0.017	
8.760	0.165	0.007	
8.765	0.504	0.022	
8.770	-0.313	0.065	
8.775	-0.182	0.060	
8.780	0.586	0.042	
8.785	-0.139	0.065	
8.790	-0.336	0.063	
8.795	0.440	0.033	
8.800	0.165	0.045	
8.805	-0.382	0.060	
8.810	0.113	0.034	
8.815	0.516	0.032	
8.820	-0.317	0.063	
8.825	-0.188	0.052	
8.830	0.602	0.033	
8.835	-0.129	0.059	
8.840	-0.326	0.061	
8.845	0.458	0.036	
8.850	0.188	0.053	
8.855	-0.378	0.073	
8.860	0.110	0.048	
8.865	0.516	0.043	
8.870	-0.303	0.072	
8.875	-0.181	0.060	
8.880	0.628	0.042	
8.885	-0.118	0.069	
8.890	-0.324	0.073	
8.895	0.482	0.048	
8.900	0.215	0.067	
8.905	-0.375	0.088	
8.910	0.122	0.064	
8.915	0.565	0.060	
8.920	-0.280	0.092	
8.925	-0.147	0.084	
8.930	0.672	0.069	
8.935	-0.095	0.100	
8.940	-0.301	0.105	
8.945	0.544	0.081	
8.950	0.290	0.104	
8.955	-0.323	0.133	
8.960	0.261	0.118	
8.965	0.701	0.131	
8.970	-0.213	0.180	
8.975	-0.097	0.179	
8.980	0.762	0.162	
8.985	-0.046	0.187	
8.990	-0.292	0.183	
8.995	0.484	0.140	
9.000	0.191	0.133	
9.005	-0.402	0.127	
9.010	0.035	0.073	
9.015	0.461	0.039	
9.020	-0.327	0.045	
9.025	-0.211	0.020	
9.030	0.583	-0.003	
9.035	-0.133	0.024	
9.040	-0.358	0.031	
9.045	0.427	0.009	
9.050	0.189	0.028	
9.055	-0.396	0.052	
9.060	0.020	0.027	
9.065	0.450	0.014	
9.070	-0.260	0.035	
9.075	0.030	0.038	
9.080	1.283	0.082	
9.085	0.676	0.239	
9.090	0.203	0.404	
9.095	1.031	0.508	
9.100	0.365	0.586	
9.105	-0.465	0.577	
9.110	-0.130	0.433	
9.115	0.217	0.259	
9.120	-0.416	0.121	
9.125	-0.283	-0.011	
9.130	0.466	-0.098	
9.135	-0.179	-0.101	
9.140	-0.401	-0.097	
9.145	0.340	-0.107	
9.150	0.162	-0.072	
9.155	-0.408	-0.029	
9.160	0.026	-0.032	
9.165	0.473	-0.022	
9.170	-0.309	0.017	
9.175	-0.207	0.017	
9.180	0.614	0.009	
9.185	-0.097	0.046	
9.190	-0.333	0.060	
9.195	0.449	0.041	
9.200	0.246	0.062	
9.205	-0.362	0.087	
9.210	0.124	0.067	
9.215	0.596	0.067	
9.220	-0.255	0.103	
9.225	-0.161	0.099	
9.230	0.681	0.083	
9.235	-0.052	0.113	
9.240	-0.309	0.119	
9.245	0.495	0.092	
9.250	0.299	0.107	
9.255	-0.344	0.129	
9.260	0.152	0.105	
9.265	0.628	0.101	
9.270	-0.232	0.135	
9.275	-0.142	0.127	
9.280	0.728	0.110	
9.285	-0.026	0.141	
9.290	-0.286	0.148	
9.295	0.577	0.123	
9.300	0.374	0.145	
9.305	-0.303	0.177	
9.310	0.218	0.159	
9.315	0.719	0.160	
9.320	-0.194	0.199	
9.325	-0.098	0.192	
9.330	0.793	0.171	
9.335	0.035	0.200	
9.340	-0.257	0.205	
9.345	0.600	0.175	
9.350	0.418	0.191	
9.355	-0.287	0.217	
9.360	0.212	0.192	
9.365	0.667	0.181	
9.370	-0.229	0.203	
9.375	-0.162	0.179	
9.380	0.643	0.138	
9.385	-0.089	0.140	
9.390	-0.370	0.120	
9.395	0.403	0.068	
9.400	0.218	0.060	
9.405	-0.434	0.064	
9.410	-0.054	0.021	
9.415	0.369	-0.011	
9.420	-0.378	-0.011	
9.425	-0.310	-0.041	
9.430	0.409	-0.075	
9.435	-0.174	-0.063	
9.440	-0.393	-0.061	
9.445	0.273	-0.080	
9.450	0.113	-0.062	
9.455	-0.445	-0.040	
9.460	-0.049	-0.059	
9.465	0.482	-0.061	
9.470	-0.315	-0.023	
9.475	-0.248	-0.018	
9.480	0.588	-0.023	
9.485	-0.103	0.017	
9.490	-0.361	0.035	
9.495	0.385	0.017	
9.500	0.227	0.034	
9.505	-0.399	0.057	
9.510	-0.002	0.031	
9.515	0.508	0.017	
9.520	-0.277	0.042	
9.525	-0.208	0.034	
9.530	0.608	0.020	
9.535	-0.090	0.052	
9.540	-0.368	0.061	
9.545	0.392	0.034	
9.550	0.269	0.046	
9.555	-0.364	0.069	
9.560	0.094	0.051	
9.565	0.567	0.051	
9.570	-0.274	0.086	
9.575	-0.217	0.078	
9.580	0.597	0.054	
9.585	-0.083	0.074	
9.590	-0.365	0.073	
9.595	0.380	0.039	
9.600	0.272	0.046	
9.605	-0.375	0.066	
9.610	0.029	0.043	
9.615	0.583	0.036	
9.620	-0.251	0.070	
9.625	-0.197	0.068	
9.630	0.658	0.055	
9.635	-0.058	0.088	
9.640	-0.333	0.097	
9.645	0.431	0.070	
9.650	0.305	0.082	
9.655	-0.367	0.104	
9.660	0.041	0.078	
9.665	0.589	0.065	
9.670	-0.258	0.091	
9.675	-0.199	0.081	
9.680	0.647	0.061	
9.685	-0.048	0.088	
9.690	-0.333	0.095	
9.695	0.420	0.068	
9.700	0.307	0.079	
9.705	-0.339	0.102	
9.710	0.107	0.082	
9.715	0.649	0.082	
9.720	-0.196	0.122	
9.725	-0.176	0.123	
9.730	0.660	0.106	
9.735	-0.037	0.129	
9.740	-0.346	0.128	
9.745	0.409	0.089	
9.750	0.318	0.090	
9.755	-0.361	0.105	
9.760	0.050	0.077	
9.765	0.620	0.066	
9.770	-0.251	0.096	
9.775	-0.214	0.088	
9.780	0.657	0.068	
9.785	-0.019	0.095	
9.790	-0.332	0.104	
9.795	0.449	0.078	
9.800	0.365	0.094	
9.805	-0.335	0.124	
9.810	0.078	0.105	
9.815	0.690	0.100	
9.820	-0.179	0.138	
9.825	-0.130	0.141	
9.830	0.806	0.133	
9.835	0.082	0.177	
9.840	-0.278	0.198	
9.845	0.525	0.174	
9.850	0.406	0.184	
9.855	-0.349	0.201	
9.860	0.029	0.160	
9.865	0.574	0.124	
9.870	-0.274	0.124	
9.875	-0.249	0.092	
9.880	0.554	0.048	
9.885	-0.086	0.054	
9.890	-0.385	0.047	
9.895	0.310	0.009	
9.900	0.250	0.011	
9.905	-0.396	0.030	
9.910	-0.028	0.007	
9.915	0.531	-0.002	
9.920	-0.291	0.028	
9.925	-0.260	0.024	
9.930	0.664	0.010	
9.935	0.246	0.063	
9.940	-0.031	0.129	
9.945	1.205	0.201	
9.950	1.147	0.363	
9.955	-0.054	0.534	
9.960	0.146	0.575	
9.965	0.402	0.518	
9.970	-0.407	0.420	
9.975	-0.402	0.256	
9.980	0.299	0.087	
9.985	-0.177	-0.012	
9.990	-0.449	-0.082	
9.995	0.230	-0.140	
10.000	0.189	-0.133	
10.005	-0.426	-0.097	
10.010	-0.074	-0.095	
10.015	0.498	-0.081	
10.020	-0.284	-0.029	
10.025	-0.265	-0.014	
10.030	0.556	-0.016	
10.035	-0.026	0.024	
10.040	-0.321	0.048	
10.045	0.406	0.038	
10.050	0.337	0.065	
10.055	-0.373	0.099	
10.060	-0.009	0.078	
10.065	0.600	0.063	
10.070	-0.240	0.088	
10.075	-0.225	0.079	
10.080	0.626	0.057	
10.085	-0.025	0.082	
10.090	-0.341	0.090	
10.095	0.398	0.063	
10.100	0.363	0.076	
10.105	-0.344	0.104	
10.110	0.021	0.085	
10.115	0.641	0.076	
10.120	-0.210	0.107	
10.125	-0.190	0.105	
10.130	0.693	0.089	
10.135	0.050	0.122	
10.140	-0.318	0.138	
10.145	0.464	0.115	
10.150	0.443	0.131	
10.155	-0.307	0.162	
10.160	0.094	0.145	
10.165	0.719	0.137	
10.170	-0.170	0.171	
10.175	-0.165	0.166	
10.180	0.748	0.144	
10.185	0.105	0.173	
10.190	-0.278	0.187	
10.195	0.533	0.163	
10.200	0.515	0.181	
10.205	-0.274	0.216	
10.210	0.136	0.198	
10.215	0.764	0.188	
10.220	-0.148	0.218	
10.225	-0.159	0.207	
10.230	0.739	0.176	
10.235	0.050	0.191	
10.240	-0.335	0.187	
10.245	0.359	0.138	
10.250	0.311	0.121	
10.255	-0.399	0.117	
10.260	-0.092	0.067	
10.265	0.461	0.024	
10.270	-0.326	0.022	
10.275	-0.341	-0.008	
10.280	0.403	-0.049	
10.285	-0.139	-0.045	
10.290	-0.459	-0.050	
10.295	0.157	-0.085	
10.300	0.166	-0.085	
10.305	-0.443	-0.068	
10.310	-0.127	-0.086	
10.315	0.460	-0.090	
10.320	-0.294	-0.052	
10.325	-0.309	-0.044	
10.330	0.482	-0.052	
10.335	-0.075	-0.019	
10.340	-0.405	-0.003	
10.345	0.267	-0.023	
10.350	0.336	-0.007	
10.355	-0.338	0.030	
10.360	0.058	0.029	
10.365	0.687	0.045	
10.370	-0.205	0.101	
10.375	-0.207	0.113	
10.380	0.603	0.098	
10.385	-0.028	0.117	
10.390	-0.382	0.112	
10.395	0.296	0.066	
10.400	0.394	0.060	
10.405	-0.381	0.078	
10.410	-0.074	0.052	
10.415	0.531	0.030	
10.420	-0.260	0.047	
10.425	-0.269	0.035	
10.430	0.592	0.013	
10.435	0.073	0.046	
10.440	-0.283	0.074	
10.445	0.389	0.070	
10.450	0.342	0.093	
10.455	-0.398	0.119	
10.460	-0.093	0.084	
10.465	0.537	0.050	
10.470	-0.245	0.057	
10.475	-0.257	0.041	
10.480	0.704	0.023	
10.485	0.076	0.066	
10.490	-0.344	0.099	
10.495	0.372	0.086	
10.500	0.473	0.104	
10.505	-0.341	0.139	
10.510	-0.069	0.117	
10.515	0.618	0.092	
10.520	-0.074	0.113	
10.525	0.101	0.128	
10.530	1.032	0.166	
10.535	0.359	0.270	
10.540	-0.199	0.343	
10.545	1.029	0.362	
10.550	0.673	0.421	
10.555	-0.246	0.470	
10.560	0.253	0.428	
10.565	0.560	0.366	
10.570	-0.332	0.316	
10.575	-0.411	0.210	
10.580	0.333	0.081	
10.585	0.102	0.019	
10.590	-0.411	-0.009	
10.595	0.200	-0.045	
10.600	0.574	-0.029	
10.605	-0.122	0.041	
10.610	0.165	0.091	
10.615	1.028	0.155	
10.620	-0.239	0.250	
10.625	-0.115	0.270	
10.630	0.614	0.237	
10.635	0.021	0.230	
10.640	-0.049	0.211	
10.645	0.756	0.195	
10.650	0.848	0.257	
10.655	-0.329	0.338	
10.660	-0.255	0.313	
10.665	0.075	0.207	
10.670	-0.475	0.090	
10.675	-0.159	-0.032	
10.680	0.950	-0.079	
10.685	0.484	0.015	
10.690	-0.315	0.133	
10.695	0.356	0.176	
10.700	0.130	0.189	
10.705	-0.541	0.164	
10.710	-0.294	0.064	
10.715	0.292	-0.036	
10.720	0.227	-0.054	
10.725	-0.164	-0.027	
10.730	0.887	0.028	
10.735	-0.087	0.120	
10.740	-0.593	0.149	
10.745	0.232	0.087	
10.750	0.230	0.046	
10.755	-0.323	0.034	
10.760	0.498	0.026	
10.765	0.673	0.079	
10.770	-0.394	0.157	
10.775	-0.559	0.136	
10.780	-0.052	0.028	
10.785	-0.358	-0.077	
10.790	-0.668	-0.181	
10.795	-0.115	-0.282	
10.800	0.342	-0.305	
10.805	-0.494	-0.257	
10.810	-0.207	-0.225	
10.815	0.615	-0.181	
10.820	-0.060	-0.082	
10.825	-0.058	0.002	
10.830	0.880	0.076	
10.835	0.163	0.184	
10.840	-0.281	0.246	
10.845	-0.028	0.211	
10.850	-0.084	0.136	
10.855	-0.643	0.035	
10.860	-0.375	-0.102	
10.865	0.125	-0.209	
10.870	-0.390	-0.246	
10.875	-0.440	-0.270	
10.880	0.261	-0.278	
10.885	-0.127	-0.233	
10.890	-0.482	-0.190	
10.895	0.082	-0.180	
10.900	0.243	-0.145	
10.905	-0.401	-0.094	
10.910	-0.113	-0.082	
10.915	0.690	-0.058	
10.920	0.133	0.029	
10.925	-0.176	0.102	
10.930	0.582	0.136	
10.935	0.001	0.173	
10.940	-0.398	0.168	
10.945	0.221	0.108	
10.950	0.362	0.078	
10.955	-0.358	0.075	
10.960	-0.097	0.039	
10.965	0.609	0.017	
10.970	-0.188	0.046	
10.975	-0.260	0.051	
10.980	0.609	0.039	
10.985	0.116	0.076	
10.990	-0.327	0.103	
10.995	0.479	0.095	
11.000	1.091	0.153	
11.005	-0.159	0.269	
11.010	0.029	0.313	
11.015	0.687	0.304	
11.020	-0.170	0.300	
11.025	-0.254	0.247	
11.030	0.606	0.172	
11.035	0.110	0.153	
11.040	-0.336	0.138	
11.045	0.354	0.095	
11.050	0.534	0.099	
11.055	-0.278	0.135	
11.060	-0.008	0.126	
11.065	0.753	0.120	
11.070	-0.115	0.159	
11.075	-0.205	0.163	
11.080	0.704	0.143	
11.085	0.206	0.172	
11.090	-0.294	0.193	
11.095	0.415	0.169	
11.100	0.582	0.177	
11.105	-0.265	0.210	
11.110	0.004	0.189	
11.115	0.727	0.166	
11.120	-0.162	0.184	
11.125	-0.278	0.164	
11.130	0.541	0.116	
11.135	0.046	0.110	
11.140	-0.401	0.098	
11.145	0.156	0.046	
11.150	0.305	0.022	
11.155	-0.411	0.022	
11.160	-0.181	-0.014	
11.165	0.470	-0.043	
11.170	-0.260	-0.026	
11.175	-0.355	-0.032	
11.180	0.408	-0.055	
11.185	-0.019	-0.035	
11.190	-0.428	-0.022	
11.195	0.134	-0.046	
11.200	0.350	-0.040	
11.205	-0.362	-0.008	
11.210	-0.119	-0.014	
11.215	0.565	-0.016	
11.220	-0.200	0.024	
11.225	-0.301	0.032	
11.230	0.525	0.018	
11.235	0.067	0.045	
11.240	-0.368	0.064	
11.245	0.263	0.042	
11.250	0.460	0.052	
11.255	-0.317	0.087	
11.260	-0.071	0.077	
11.265	0.661	0.068	
11.270	-0.167	0.100	
11.275	-0.278	0.100	
11.280	0.560	0.074	
11.285	0.091	0.091	
11.290	-0.355	0.100	
11.295	0.270	0.070	
11.300	0.473	0.073	
11.305	-0.326	0.102	
11.310	-0.064	0.086	
11.315	0.845	0.081	
11.320	0.368	0.155	
11.325	-0.135	0.229	
11.330	0.618	0.257	
11.335	0.082	0.278	
11.340	-0.396	0.254	
11.345	0.185	0.172	
11.350	0.414	0.117	
11.355	-0.352	0.099	
11.360	-0.132	0.053	
11.365	0.605	0.020	
11.370	-0.181	0.041	
11.375	-0.306	0.041	
11.380	0.519	0.021	
11.385	0.097	0.046	
11.390	-0.375	0.065	
11.395	0.220	0.042	
11.400	0.457	0.048	
11.405	-0.317	0.079	
11.410	-0.092	0.068	
11.415	0.681	0.058	
11.420	-0.129	0.095	
11.425	-0.254	0.104	
11.430	0.652	0.089	
11.435	0.244	0.126	
11.440	-0.292	0.159	
11.445	0.398	0.149	
11.450	0.609	0.168	
11.455	-0.266	0.209	
11.460	-0.052	0.191	
11.465	0.684	0.162	
11.470	-0.161	0.171	
11.475	-0.307	0.146	
11.480	0.508	0.095	
11.485	0.056	0.087	
11.490	-0.402	0.078	
11.495	0.149	0.031	
11.500	0.403	0.016	
11.505	-0.349	0.034	
11.510	-0.136	0.016	
11.515	0.600	0.004	
11.520	-0.177	0.038	
11.525	-0.306	0.045	
11.530	0.504	0.027	
11.535	0.067	0.048	
11.540	-0.384	0.062	
11.545	0.340	0.040	
11.550	0.864	0.076	
11.555	0.067	0.178	
11.560	0.565	0.267	
11.565	1.259	0.375	
11.570	0.024	0.502	
11.575	-0.329	0.517	
11.580	0.290	0.413	
11.585	-0.092	0.293	
11.590	-0.517	0.161	
11.595	-0.040	0.013	
11.600	0.275	-0.078	
11.605	-0.384	-0.102	
11.610	-0.159	-0.125	
11.615	0.603	-0.118	
11.620	-0.173	-0.052	
11.625	-0.318	-0.013	
11.630	0.716	0.004	
11.635	1.069	0.113	
11.640	0.906	0.319	
11.645	1.660	0.571	
11.650	1.194	0.839	
11.655	-0.080	1.000	
11.660	0.273	0.955	
11.665	0.767	0.813	
11.670	-0.252	0.665	
11.675	-0.413	0.463	
11.680	0.707	0.261	
11.685	-0.019	0.158	
11.690	-0.527	0.086	
11.695	-0.115	-0.021	
11.700	0.064	-0.101	
11.705	-0.295	-0.135	
11.710	-0.081	-0.155	
11.715	1.043	-0.109	
11.720	0.762	0.061	
11.725	-0.109	0.247	
11.730	0.418	0.337	
11.735	-0.127	0.347	
11.740	-0.588	0.268	
11.745	0.350	0.136	
11.750	0.504	0.074	
11.755	-0.182	0.084	
11.760	0.327	0.095	
11.765	0.759	0.140	
11.770	-0.257	0.209	
11.775	-0.486	0.194	
11.780	0.108	0.098	
11.785	-0.042	0.019	
11.790	-0.440	-0.043	
11.795	0.146	-0.101	
11.800	0.683	-0.086	
11.805	-0.281	-0.006	
11.810	-0.179	0.031	
11.815	0.508	0.038	
11.820	-0.274	0.060	
11.825	-0.440	0.038	
11.830	0.264	-0.021	
11.835	-0.008	-0.042	
11.840	-0.330	-0.049	
11.845	0.042	-0.072	
11.850	0.230	-0.071	
11.855	-0.477	-0.056	
11.860	-0.333	-0.087	
11.865	0.233	-0.128	
11.870	-0.338	-0.134	
11.875	-0.492	-0.156	
11.880	0.211	-0.189	
11.885	-0.121	-0.179	
11.890	-0.559	-0.168	
11.895	-0.124	-0.195	
11.900	0.146	-0.203	
11.905	-0.475	-0.183	
11.910	-0.297	-0.191	
11.915	0.348	-0.192	
11.920	-0.286	-0.152	
11.925	-0.442	-0.135	
11.930	0.256	-0.144	
11.935	-0.019	-0.119	
11.940	-0.443	-0.096	
11.945	0.041	-0.106	
11.950	0.365	-0.092	
11.955	-0.320	-0.047	
11.960	0.015	-0.028	
11.965	0.701	0.005	
11.970	-0.153	0.079	
11.975	-0.342	0.103	
11.980	0.443	0.078	
11.985	0.105	0.081	
11.990	-0.407	0.079	
11.995	0.124	0.036	
12.000	0.476	0.023	
12.005	-0.329	0.047	
12.010	-0.141	0.035	
12.015	0.640	0.024	
12.020	-0.148	0.060	
12.025	-0.318	0.068	
12.030	0.518	0.047	
12.035	0.244	0.072	
12.040	-0.232	0.107	
12.045	0.298	0.108	
12.050	0.554	0.131	
12.055	-0.318	0.168	
12.060	-0.156	0.144	
12.065	0.618	0.106	
12.070	-0.144	0.110	
12.075	-0.324	0.092	
12.080	0.505	0.053	
12.085	0.183	0.064	
12.090	-0.367	0.081	
12.095	0.172	0.057	
12.100	0.502	0.057	
12.105	-0.310	0.086	
12.110	-0.153	0.072	
12.115	0.651	0.054	
12.120	-0.118	0.082	
12.125	-0.303	0.086	
12.130	0.539	0.064	
12.135	0.229	0.087	
12.140	-0.353	0.112	
12.145	0.208	0.092	
12.150	0.560	0.093	
12.155	-0.274	0.125	
12.160	-0.130	0.113	
12.165	0.692	0.093	
12.170	-0.098	0.119	
12.175	-0.287	0.120	
12.180	0.571	0.093	
12.185	0.259	0.115	
12.190	-0.347	0.138	
12.195	0.204	0.114	
12.200	0.574	0.110	
12.205	-0.257	0.138	
12.210	-0.103	0.125	
12.215	0.748	0.108	
12.220	-0.055	0.142	
12.225	-0.258	0.150	
12.230	0.621	0.128	
12.235	0.339	0.155	
12.240	-0.294	0.186	
12.245	0.333	0.171	
12.250	0.699	0.181	
12.255	-0.231	0.222	
12.260	-0.080	0.209	
12.265	0.747	0.180	
12.270	-0.077	0.194	
12.275	-0.275	0.180	
12.280	0.846	0.150	
12.285	0.342	0.189	
12.290	-0.373	0.226	
12.295	0.056	0.187	
12.300	0.421	0.141	
12.305	-0.344	0.117	
12.310	-0.211	0.062	
12.315	0.560	0.014	
12.320	-0.153	0.023	
12.325	-0.344	0.019	
12.330	0.424	-0.006	
12.335	0.105	0.011	
12.340	-0.428	0.027	
12.345	0.165	0.003	
12.350	0.813	0.023	
12.355	0.013	0.112	
12.360	0.470	0.196	
12.365	1.405	0.310	
12.370	0.359	0.476	
12.375	-0.239	0.557	
12.380	0.318	0.503	
12.385	-0.040	0.401	
12.390	-0.517	0.263	
12.395	-0.090	0.093	
12.400	0.304	-0.026	
12.405	-0.381	-0.073	
12.410	-0.232	-0.115	
12.415	0.531	-0.129	
12.420	-0.168	-0.081	
12.425	-0.371	-0.051	
12.430	0.397	-0.050	
12.435	0.151	-0.014	
12.440	-0.399	0.020	
12.445	0.104	0.008	
12.450	0.518	0.016	
12.455	-0.313	0.055	
12.460	-0.181	0.050	
12.465	0.634	0.037	
12.470	-0.104	0.069	
12.475	-0.329	0.076	
12.480	0.495	0.054	
12.485	0.235	0.074	
12.490	-0.365	0.098	
12.495	0.140	0.075	
12.500	0.568	0.072	
12.505	-0.272	0.104	
12.510	-0.139	0.095	
12.515	0.690	0.080	
12.520	-0.072	0.111	
12.525	-0.304	0.117	
12.530	0.525	0.092	
12.535	0.287	0.110	
12.540	-0.342	0.133	
12.545	0.189	0.111	
12.550	0.617	0.109	
12.555	-0.245	0.143	
12.560	-0.116	0.133	
12.565	0.741	0.116	
12.570	-0.031	0.148	
12.575	-0.263	0.155	
12.580	0.629	0.134	
12.585	0.385	0.162	
12.590	-0.284	0.198	
12.595	0.447	0.191	
12.600	1.210	0.236	
12.605	-0.081	0.343	
12.610	-0.048	0.379	
12.615	0.754	0.353	
12.620	-0.051	0.340	
12.625	-0.292	0.288	
12.630	0.542	0.205	
12.635	0.282	0.176	
12.640	-0.350	0.164	
12.645	0.156	0.116	
12.650	0.580	0.096	
12.655	-0.295	0.115	
12.660	-0.216	0.093	
12.665	0.531	0.056	
12.670	-0.174	0.059	
12.675	-0.410	0.039	
12.680	0.281	-0.011	
12.685	0.024	-0.026	
12.690	-0.488	-0.035	
12.695	-0.077	-0.081	
12.700	0.327	-0.103	
12.705	-0.391	-0.086	
12.710	-0.289	-0.096	
12.715	0.449	-0.108	
12.720	-0.188	-0.074	
12.725	-0.416	-0.060	
12.730	0.301	-0.075	
12.735	0.122	-0.054	
12.740	-0.430	-0.029	
12.745	0.001	-0.045	
12.750	0.452	-0.043	
12.755	-0.327	-0.008	
12.760	-0.213	-0.008	
12.765	0.597	-0.014	
12.770	-0.129	0.025	
12.775	-0.361	0.039	
12.780	0.421	0.018	
12.785	0.208	0.037	
12.790	-0.384	0.060	
12.795	0.056	0.037	
12.800	0.521	0.030	
12.805	-0.287	0.059	
12.810	-0.199	0.050	
12.815	0.641	0.035	
12.820	-0.078	0.067	
12.825	-0.335	0.078	
12.830	0.440	0.054	
12.835	0.249	0.069	
12.840	-0.371	0.090	
12.845	0.102	0.066	
12.850	0.576	0.060	
12.855	-0.275	0.092	
12.860	-0.173	0.083	
12.865	0.647	0.065	
12.870	-0.089	0.092	
12.875	-0.339	0.094	
12.880	0.469	0.064	
12.885	0.258	0.077	
12.890	-0.364	0.098	
12.895	0.090	0.072	
12.900	0.542	0.063	
12.905	-0.269	0.089	
12.910	-0.176	0.077	
12.915	0.794	0.065	
12.920	0.391	0.130	
12.925	-0.223	0.201	
12.930	0.512	0.219	
12.935	0.259	0.237	
12.940	-0.390	0.231	
12.945	0.174	0.170	
12.950	0.649	0.136	
12.955	-0.141	0.156	
12.960	0.319	0.169	
12.965	0.932	0.210	
12.970	-0.057	0.289	
12.975	-0.382	0.295	
12.980	0.304	0.220	
12.985	0.119	0.158	
12.990	-0.433	0.103	
12.995	0.012	0.024	
13.000	0.759	-0.004	
13.005	-0.263	0.042	
13.010	-0.223	0.057	
13.015	0.544	0.046	
13.020	-0.148	0.065	
13.025	-0.414	0.055	
13.030	0.304	0.009	
13.035	0.224	0.004	
13.040	-0.245	0.024	
13.045	0.124	0.023	
13.050	0.536	0.043	
13.055	-0.323	0.085	
13.060	-0.260	0.073	
13.065	0.544	0.040	
13.070	-0.109	0.049	
13.075	-0.330	0.045	
13.080	0.748	0.033	
13.085	0.369	0.092	
13.090	-0.391	0.155	
13.095	-0.008	0.138	
13.100	0.495	0.108	
13.105	-0.303	0.104	
13.110	-0.216	0.069	
13.115	0.634	0.034	
13.120	-0.055	0.056	
13.125	-0.318	0.066	
13.130	0.501	0.050	
13.135	0.339	0.080	
13.140	-0.333	0.119	
13.145	0.124	0.107	
13.150	0.651	0.107	
13.155	-0.240	0.142	
13.160	-0.148	0.134	
13.165	0.628	0.110	
13.170	-0.106	0.124	
13.175	-0.394	0.109	
13.180	0.307	0.054	
13.185	0.156	0.035	
13.190	-0.431	0.027	
13.195	-0.046	-0.016	
13.200	0.467	-0.037	
13.205	-0.321	-0.014	
13.210	-0.254	-0.020	
13.215	0.548	-0.032	
13.220	-0.118	0.001	
13.225	-0.398	0.013	
13.230	0.398	-0.007	
13.235	0.570	0.029	
13.240	0.154	0.120	
13.245	1.045	0.231	
13.250	1.553	0.418	
13.255	0.360	0.641	
13.260	0.107	0.742	
13.265	0.620	0.710	
13.270	-0.207	0.616	
13.275	-0.494	0.443	
13.280	0.336	0.236	
13.285	0.087	0.103	
13.290	-0.497	0.019	
13.295	-0.150	-0.074	
13.300	0.275	-0.131	
13.305	-0.407	-0.135	
13.310	-0.321	-0.151	
13.315	0.496	-0.157	
13.320	0.039	-0.098	
13.325	-0.368	-0.042	
13.330	0.292	-0.025	
13.335	0.122	0.004	
13.340	-0.459	0.020	
13.345	-0.077	-0.015	
13.350	0.479	-0.036	
13.355	-0.318	-0.014	
13.360	-0.263	-0.020	
13.365	0.525	-0.033	
13.370	-0.110	-0.003	
13.375	-0.381	0.009	
13.380	0.359	-0.010	
13.385	0.253	0.009	
13.390	-0.371	0.040	
13.395	0.113	0.030	
13.400	1.025	0.061	
13.405	-0.158	0.157	
13.410	-0.184	0.199	
13.415	0.615	0.188	
13.420	-0.080	0.192	
13.425	-0.373	0.162	
13.430	0.362	0.097	
13.435	0.290	0.076	
13.440	-0.365	0.078	
13.445	0.039	0.047	
13.450	0.602	0.037	
13.455	-0.243	0.071	
13.460	-0.194	0.072	
13.465	0.692	0.061	
13.470	0.036	0.101	
13.475	-0.274	0.125	
13.480	0.673	0.121	
13.485	0.507	0.170	
13.490	-0.291	0.227	
13.495	0.149	0.216	
13.500	0.721	0.205	
13.505	-0.194	0.226	
13.510	-0.158	0.203	
13.515	0.753	0.165	
13.520	0.047	0.180	
13.525	-0.306	0.180	
13.530	0.475	0.142	
13.535	0.382	0.145	
13.540	-0.338	0.161	
13.545	0.020	0.126	
13.550	0.576	0.099	
13.555	-0.231	0.110	
13.560	-0.031	0.100	
13.565	0.669	0.093	
13.570	-0.126	0.127	
13.575	-0.465	0.119	
13.580	0.140	0.050	
13.585	0.058	0.001	
13.590	-0.495	-0.034	
13.595	-0.150	-0.095	
13.600	0.321	-0.129	
13.605	-0.378	-0.117	
13.610	-0.333	-0.125	
13.615	0.423	-0.134	
13.620	-0.142	-0.097	
13.625	-0.446	-0.075	
13.630	0.220	-0.088	
13.635	0.175	-0.070	
13.640	-0.425	-0.042	
13.645	-0.068	-0.055	
13.650	0.508	-0.053	
13.655	-0.292	-0.012	
13.660	-0.258	-0.005	
13.665	0.573	-0.012	
13.670	-0.068	0.025	
13.675	-0.375	0.041	
13.680	0.345	0.020	
13.685	0.288	0.034	
13.690	-0.376	0.059	
13.695	-0.008	0.039	
13.700	0.586	0.031	
13.705	-0.239	0.064	
13.710	-0.217	0.064	
13.715	0.634	0.050	
13.720	-0.019	0.081	
13.725	-0.353	0.093	
13.730	0.395	0.066	
13.735	0.328	0.076	
13.740	-0.362	0.099	
13.745	0.013	0.074	
13.750	0.614	0.061	
13.755	-0.229	0.090	
13.760	-0.219	0.085	
13.765	0.628	0.065	
13.770	-0.006	0.090	
13.775	-0.339	0.099	
13.780	0.420	0.073	
13.785	0.365	0.086	
13.790	-0.352	0.114	
13.795	0.023	0.092	
13.800	0.625	0.079	
13.805	-0.222	0.106	
13.810	-0.207	0.099	
13.815	0.670	0.079	
13.820	-0.006	0.106	
13.825	-0.341	0.115	
13.830	0.400	0.085	
13.835	0.365	0.092	
13.840	-0.338	0.115	
13.845	0.032	0.093	
13.850	0.625	0.080	
13.855	-0.225	0.108	
13.860	-0.216	0.100	
13.865	0.651	0.077	
13.870	0.027	0.103	
13.875	-0.284	0.116	
13.880	0.759	0.111	
13.885	0.530	0.170	
13.890	-0.336	0.235	
13.895	-0.009	0.217	
13.900	0.603	0.180	
13.905	-0.243	0.172	
13.910	-0.239	0.131	
13.915	0.588	0.080	
13.920	-0.032	0.083	
13.925	-0.362	0.076	
13.930	0.351	0.040	
13.935	0.327	0.045	
13.940	-0.361	0.070	
13.945	0.001	0.050	
13.950	0.629	0.044	
13.955	-0.232	0.080	
13.960	-0.236	0.080	
13.965	0.620	0.061	
13.970	-0.013	0.086	
13.975	-0.358	0.094	
13.980	0.372	0.064	
13.985	0.377	0.072	
13.990	-0.350	0.099	
13.995	-0.020	0.078	
14.000	0.628	0.064	
14.005	-0.216	0.093	
14.010	-0.216	0.089	
14.015	0.649	0.070	
14.020	0.006	0.099	
14.025	-0.350	0.109	
14.030	0.369	0.079	
14.035	0.386	0.085	
14.040	-0.341	0.109	
14.045	0.006	0.088	
14.050	0.681	0.077	
14.055	-0.193	0.112	
14.060	-0.194	0.113	
14.065	0.702	0.098	
14.070	0.091	0.133	
14.075	-0.287	0.153	
14.080	0.512	0.136	
14.085	0.507	0.160	
14.090	-0.278	0.200	
14.095	0.094	0.184	
14.100	0.716	0.172	
14.105	-0.194	0.195	
14.110	-0.228	0.176	
14.115	0.611	0.132	
14.120	-0.023	0.130	
14.125	-0.387	0.114	
14.130	0.281	0.061	
14.135	0.278	0.045	
14.140	-0.390	0.049	
14.145	-0.077	0.015	
14.150	0.545	-0.004	
14.155	-0.257	0.022	
14.160	-0.268	0.020	
14.165	0.551	0.004	
14.170	-0.057	0.031	
14.175	-0.405	0.041	
14.180	0.340	0.013	
14.185	0.592	0.037	
14.190	-0.066	0.110	
14.195	0.944	0.190	
14.200	1.805	0.362	
14.205	0.386	0.607	
14.210	-0.064	0.732	
14.215	0.492	0.693	
14.220	-0.205	0.579	
14.225	-0.558	0.394	
14.230	-0.002	0.169	
14.235	0.114	0.007	
14.240	-0.362	-0.081	
14.245	-0.110	-0.142	
14.250	0.450	-0.152	
14.255	-0.326	-0.107	
14.260	-0.347	-0.091	
14.265	0.395	-0.095	
14.270	-0.101	-0.064	
14.275	-0.405	-0.046	
14.280	0.438	-0.051	
14.285	0.357	-0.006	
14.290	-0.384	0.053	
14.295	-0.103	0.049	
14.300	0.490	0.033	
14.305	-0.262	0.047	
14.310	-0.292	0.031	
14.315	0.534	0.003	
14.320	-0.035	0.022	
14.325	-0.388	0.032	
14.330	0.296	0.006	
14.335	0.336	0.018	
14.340	-0.368	0.048	
14.345	-0.042	0.033	
14.350	0.646	0.029	
14.355	-0.179	0.071	
14.360	-0.109	0.087	
14.365	0.733	0.094	
14.370	0.055	0.145	
14.375	-0.358	0.166	
14.380	0.334	0.131	
14.385	0.385	0.121	
14.390	-0.339	0.129	
14.395	-0.029	0.095	
14.400	0.647	0.072	
14.405	-0.194	0.096	
14.410	-0.228	0.092	
14.415	0.675	0.074	
14.420	0.104	0.108	
14.425	-0.310	0.131	
14.430	0.473	0.117	
14.435	0.562	0.143	
14.440	-0.222	0.193	
14.445	0.122	0.193	
14.450	0.783	0.195	
14.455	-0.141	0.231	
14.460	-0.194	0.220	
14.465	0.718	0.183	
14.470	0.136	0.195	
14.475	-0.297	0.196	
14.480	0.460	0.161	
14.485	0.476	0.165	
14.490	-0.332	0.186	
14.495	-0.063	0.150	
14.500	0.588	0.111	
14.505	-0.245	0.112	
14.510	-0.297	0.082	
14.515	0.559	0.039	
14.520	0.224	0.059	
14.525	-0.381	0.087	
14.530	0.136	0.066	
14.535	0.152	0.046	
14.540	-0.489	0.025	
14.545	-0.211	-0.038	
14.550	0.356	-0.087	
14.555	-0.339	-0.088	
14.560	-0.381	-0.105	
14.565	0.391	-0.126	
14.570	-0.110	-0.100	
14.575	-0.459	-0.082	
14.580	0.146	-0.099	
14.585	0.247	-0.085	
14.590	-0.419	-0.052	
14.595	-0.127	-0.060	
14.600	0.531	-0.059	
14.605	-0.249	-0.016	
14.610	-0.301	-0.004	
14.615	0.524	-0.013	
14.620	-0.003	0.020	
14.625	-0.388	0.038	
14.630	0.284	0.017	
14.635	0.376	0.029	
14.640	-0.359	0.061	
14.645	-0.080	0.046	
14.650	0.570	0.032	
14.655	-0.229	0.058	
14.660	-0.271	0.053	
14.665	0.606	0.033	
14.670	0.042	0.062	
14.675	-0.367	0.080	
14.680	0.302	0.056	
14.685	0.418	0.064	
14.690	-0.338	0.093	
14.695	-0.052	0.076	
14.700	0.634	0.063	
14.705	-0.205	0.091	
14.710	-0.265	0.086	
14.715	0.586	0.061	
14.720	0.042	0.081	
14.725	-0.373	0.090	
14.730	0.284	0.058	
14.735	0.403	0.060	
14.740	-0.342	0.084	
14.745	-0.064	0.064	
14.750	0.654	0.051	
14.755	-0.177	0.084	
14.760	-0.260	0.087	
14.765	0.617	0.068	
14.770	0.068	0.095	
14.775	-0.352	0.109	
14.780	0.328	0.082	
14.785	0.444	0.088	
14.790	-0.336	0.115	
14.795	-0.054	0.094	
14.800	0.675	0.077	
14.805	-0.173	0.107	
14.810	-0.252	0.105	
14.815	0.603	0.081	
14.820	0.070	0.102	
14.825	-0.353	0.111	
14.830	0.331	0.081	
14.835	0.553	0.091	
14.840	-0.145	0.139	
14.845	0.085	0.153	
14.850	0.712	0.165	
14.855	-0.182	0.202	
14.860	-0.271	0.187	
14.865	0.577	0.138	
14.870	0.039	0.131	
14.875	-0.378	0.116	
14.880	0.263	0.067	
14.885	0.398	0.055	
14.890	-0.350	0.072	
14.895	-0.090	0.049	
14.900	0.618	0.033	
14.905	-0.194	0.062	
14.910	-0.271	0.064	
14.915	0.586	0.046	
14.920	0.076	0.074	
14.925	-0.365	0.091	
14.930	0.275	0.065	
14.935	0.415	0.068	
14.940	-0.338	0.092	
14.945	-0.081	0.071	
14.950	0.655	0.055	
14.955	-0.174	0.086	
14.960	-0.260	0.087	
14.965	0.614	0.068	
14.970	0.096	0.095	
14.975	-0.349	0.112	
14.980	0.343	0.088	
14.985	0.513	0.099	
14.990	-0.281	0.136	
14.995	0.001	0.127	
15.000	0.783	0.123	
15.005	-0.103	0.165	
15.010	-0.210	0.173	
15.015	0.681	0.152	
15.020	0.166	0.175	
15.025	-0.333	0.185	
15.030	0.292	0.146	
15.035	0.415	0.131	
15.040	-0.350	0.135	
15.045	-0.115	0.093	
15.050	0.573	0.055	
15.055	-0.222	0.064	
15.060	-0.313	0.048	
15.065	0.507	0.015	
15.070	0.009	0.029	
15.075	-0.407	0.036	
15.080	0.209	0.005	
15.085	0.382	0.007	
15.090	-0.370	0.035	
15.095	-0.127	0.019	
15.100	0.640	0.009	
15.105	-0.038	0.054	
15.110	0.015	0.092	
15.115	1.297	0.154	
15.120	0.831	0.314	
15.125	-0.063	0.469	
15.130	0.457	0.512	
15.135	0.284	0.491	
15.140	-0.489	0.415	
15.145	-0.278	0.256	
15.150	0.348	0.098	
15.155	-0.254	0.010	
15.160	-0.158	-0.050	
15.165	0.603	-0.068	
15.170	0.007	-0.016	
15.175	-0.443	0.020	
15.180	0.113	-0.001	
15.185	0.316	-0.006	
15.190	-0.393	0.008	
15.195	-0.159	-0.015	
15.200	0.547	-0.031	
15.205	-0.214	-0.000	
15.210	-0.321	0.006	
15.215	0.502	-0.009	
15.220	0.050	0.020	
15.225	-0.398	0.039	
15.230	0.215	0.017	
15.235	0.423	0.024	
15.240	-0.338	0.057	
15.245	-0.103	0.046	
15.250	0.658	0.037	
15.255	-0.161	0.075	
15.260	-0.278	0.082	
15.265	0.573	0.064	
15.270	0.124	0.089	
15.275	-0.358	0.106	
15.280	0.278	0.080	
15.285	0.501	0.085	
15.290	-0.307	0.117	
15.295	-0.068	0.102	
15.300	0.702	0.088	
15.305	-0.136	0.121	
15.310	-0.255	0.122	
15.315	0.641	0.100	
15.320	0.209	0.128	
15.325	-0.326	0.152	
15.330	0.318	0.130	
15.335	0.563	0.135	
15.340	-0.268	0.167	
15.345	-0.020	0.153	
15.350	0.782	0.139	
15.355	-0.086	0.174	
15.360	-0.202	0.178	
15.365	0.709	0.157	
15.370	0.282	0.187	
15.375	-0.286	0.213	
15.380	0.417	0.192	
15.385	0.625	0.200	
15.390	-0.254	0.233	
15.395	-0.028	0.210	
15.400	0.762	0.181	
15.405	-0.118	0.197	
15.410	-0.271	0.180	
15.415	0.563	0.134	
15.420	0.087	0.130	
15.425	-0.408	0.120	
15.430	0.113	0.064	
15.435	0.319	0.031	
15.440	-0.414	0.025	
15.445	-0.225	-0.017	
15.450	0.437	-0.054	
15.455	-0.271	-0.045	
15.460	-0.402	-0.055	
15.465	0.319	-0.085	
15.470	-0.022	-0.074	
15.475	-0.422	-0.062	
15.480	0.409	-0.066	
15.485	0.489	-0.014	
15.490	-0.375	0.060	
15.495	-0.203	0.064	
15.500	0.457	0.039	
15.505	-0.257	0.041	
15.510	-0.379	0.014	
15.515	0.398	-0.030	
15.520	-0.006	-0.028	
15.525	-0.434	-0.023	
15.530	0.110	-0.052	
15.535	0.398	-0.048	
15.540	-0.359	-0.012	
15.545	-0.158	-0.014	
15.550	0.586	-0.017	
15.555	-0.181	0.024	
15.560	-0.318	0.035	
15.565	0.518	0.020	
15.570	0.078	0.046	
15.575	-0.396	0.063	
15.580	0.201	0.036	
15.585	0.449	0.037	
15.590	-0.342	0.066	
15.595	-0.138	0.050	
15.600	0.612	0.033	
15.605	-0.165	0.061	
15.610	-0.300	0.063	
15.615	0.545	0.042	
15.620	0.128	0.066	
15.625	-0.381	0.085	
15.630	0.203	0.059	
15.635	0.490	0.059	
15.640	-0.317	0.088	
15.645	-0.112	0.074	
15.650	0.651	0.059	
15.655	-0.155	0.088	
15.660	-0.304	0.088	
15.665	0.541	0.061	
15.670	0.156	0.080	
15.675	-0.367	0.097	
15.680	0.214	0.070	
15.685	0.499	0.070	
15.690	-0.317	0.098	
15.695	-0.122	0.082	
15.700	0.672	0.064	
15.705	-0.133	0.094	
15.710	-0.291	0.096	
15.715	0.576	0.073	
15.720	0.211	0.098	
15.725	-0.353	0.122	
15.730	0.233	0.099	
15.735	0.528	0.099	
15.740	-0.277	0.127	
15.745	-0.087	0.113	
15.750	0.747	0.098	
15.755	-0.080	0.134	
15.760	-0.226	0.144	
15.765	0.695	0.130	
15.770	0.314	0.167	
15.775	-0.317	0.201	
15.780	0.298	0.179	
15.785	0.596	0.176	
15.790	-0.271	0.198	
15.795	-0.080	0.171	
15.800	0.881	0.147	
15.805	-0.103	0.181	
15.810	-0.323	0.181	
15.815	0.461	0.134	
15.820	0.075	0.117	
15.825	-0.422	0.096	
15.830	0.099	0.037	
15.835	0.443	0.011	
15.840	-0.342	0.026	
15.845	-0.174	0.009	
15.850	0.557	-0.007	
15.855	-0.193	0.021	
15.860	-0.356	0.022	
15.865	0.481	-0.001	
15.870	0.339	0.032	
15.875	-0.144	0.089	
15.880	0.848	0.142	
15.885	1.188	0.268	
15.890	-0.042	0.428	
15.895	-0.034	0.477	
15.900	0.516	0.431	
15.905	-0.291	0.362	
15.910	-0.475	0.237	
15.915	0.197	0.083	
15.920	-0.057	-0.014	
15.925	-0.459	-0.077	
15.930	0.070	-0.135	
15.935	0.434	-0.134	
15.940	-0.339	-0.081	
15.945	-0.161	-0.058	
15.950	0.620	-0.039	
15.955	-0.141	0.022	
15.960	-0.309	0.049	
15.965	0.512	0.041	
15.970	0.175	0.071	
15.975	-0.375	0.095	
15.980	0.175	0.071	
15.985	0.519	0.069	
15.990	-0.297	0.098	
15.995	-0.133	0.084	
16.000	0.658	0.066	
16.005	-0.121	0.094	
16.010	-0.301	0.096	
16.015	0.519	0.070	
16.020	0.197	0.087	
16.025	-0.359	0.105	
16.030	0.175	0.078	
16.035	0.542	0.076	
16.040	-0.274	0.106	
16.045	-0.107	0.096	
16.050	0.724	0.084	
16.055	-0.083	0.121	
16.060	-0.265	0.130	
16.065	0.611	0.111	
16.070	0.278	0.138	
16.075	-0.324	0.164	
16.080	0.246	0.141	
16.085	0.620	0.140	
16.090	-0.248	0.171	
16.095	-0.074	0.157	
16.100	0.794	0.139	
16.105	-0.045	0.173	
16.110	-0.243	0.179	
16.115	0.731	0.158	
16.120	0.690	0.207	
16.125	-0.213	0.280	
16.130	0.347	0.293	
16.135	0.663	0.298	
16.140	-0.237	0.311	
16.145	-0.083	0.266	
16.150	0.751	0.210	
16.155	-0.061	0.207	
16.160	-0.275	0.183	
16.165	0.554	0.135	
16.170	0.209	0.135	
16.175	-0.381	0.137	
16.180	0.081	0.091	
16.185	0.392	0.060	
16.190	-0.378	0.056	
16.195	-0.249	0.015	
16.200	0.447	-0.027	
16.205	-0.245	-0.025	
16.210	-0.446	-0.041	
16.215	0.215	-0.084	
16.220	-0.037	-0.093	
16.225	-0.494	-0.096	
16.230	-0.051	-0.129	
16.235	0.342	-0.133	
16.240	-0.401	-0.100	
16.245	-0.262	-0.099	
16.250	0.482	-0.100	
16.255	-0.197	-0.059	
16.260	-0.385	-0.042	
16.265	0.380	-0.052	
16.270	0.110	-0.026	
16.275	-0.422	0.000	
16.280	0.049	-0.019	
16.285	0.473	-0.018	
16.290	-0.315	0.018	
16.295	-0.188	0.016	
16.300	0.580	0.007	
16.305	-0.147	0.039	
16.310	-0.350	0.045	
16.315	0.455	0.021	
16.320	0.191	0.041	
16.325	-0.384	0.063	
16.330	0.104	0.041	
16.335	0.524	0.038	
16.340	-0.295	0.070	
16.345	-0.158	0.062	
16.350	0.652	0.048	
16.355	-0.106	0.081	
16.360	-0.318	0.088	
16.365	0.486	0.063	
16.370	0.217	0.079	
16.375	-0.370	0.098	
16.380	0.110	0.070	
16.385	0.522	0.061	
16.390	-0.297	0.084	
16.395	-0.167	0.069	
16.400	0.644	0.050	
16.405	-0.103	0.078	
16.410	-0.332	0.083	
16.415	0.453	0.055	
16.420	0.194	0.067	
16.425	-0.384	0.081	
16.430	0.169	0.055	
16.435	0.693	0.062	
16.440	-0.087	0.121	
16.445	-0.071	0.149	
16.450	0.686	0.156	
16.455	-0.109	0.186	
16.460	-0.339	0.172	
16.465	0.435	0.117	
16.470	0.178	0.101	
16.475	-0.394	0.093	
16.480	0.090	0.048	
16.485	0.521	0.031	
16.490	-0.307	0.055	
16.495	-0.176	0.044	
16.500	0.635	0.030	
16.505	-0.101	0.063	
16.510	-0.336	0.072	
16.515	0.481	0.050	
16.520	0.249	0.070	
16.525	-0.361	0.095	
16.530	0.130	0.075	
16.535	0.550	0.071	
16.540	-0.291	0.100	
16.545	-0.173	0.086	
16.550	0.663	0.064	
16.555	-0.086	0.091	
16.560	-0.313	0.096	
16.565	0.513	0.071	
16.570	0.295	0.092	
16.575	-0.330	0.121	
16.580	0.183	0.105	
16.585	0.634	0.108	
16.590	-0.229	0.146	
16.595	-0.109	0.141	
16.600	0.785	0.128	
16.605	-0.013	0.165	
16.610	-0.268	0.175	
16.615	0.588	0.150	
16.620	0.347	0.168	
16.625	-0.339	0.189	
16.630	0.110	0.154	
16.635	0.551	0.129	
16.640	-0.301	0.134	
16.645	-0.203	0.101	
16.650	0.579	0.059	
16.655	-0.121	0.067	
16.660	-0.361	0.057	
16.665	0.405	0.021	
16.670	0.189	0.029	
16.675	-0.410	0.045	
16.680	0.039	0.017	
16.685	0.501	0.008	
16.690	-0.324	0.035	
16.695	-0.232	0.025	
16.700	0.632	0.008	
16.705	0.061	0.048	
16.710	-0.078	0.090	
16.715	1.138	0.143	
16.720	0.955	0.287	
16.725	-0.090	0.442	
16.730	0.304	0.486	
16.735	0.447	0.463	
16.740	-0.411	0.402	
16.745	-0.336	0.265	
16.750	0.395	0.117	
16.755	-0.158	0.036	
16.760	-0.246	-0.018	
16.765	0.464	-0.050	
16.770	0.172	-0.017	
16.775	-0.426	0.020	
16.780	-0.026	0.002	
16.785	0.424	-0.010	
16.790	-0.339	0.008	
16.795	-0.249	-0.007	
16.800	0.548	-0.027	
16.805	-0.132	0.001	
16.810	-0.370	0.011	
16.815	0.389	-0.009	
16.820	0.241	0.013	
16.825	-0.388	0.044	
16.830	0.056	0.029	
16.835	0.545	0.028	
16.840	-0.287	0.063	
16.845	-0.200	0.057	
16.850	0.617	0.041	
16.855	-0.077	0.069	
16.860	-0.332	0.077	
16.865	0.470	0.054	
16.870	0.308	0.075	
16.875	-0.355	0.105	
16.880	0.111	0.087	
16.885	0.620	0.085	
16.890	-0.245	0.119	
16.895	-0.155	0.113	
16.900	0.704	0.096	
16.905	-0.042	0.126	
16.910	-0.307	0.132	
16.915	0.512	0.104	
16.920	0.340	0.119	
16.925	-0.330	0.145	
16.930	0.186	0.125	
16.935	0.686	0.125	
16.940	-0.210	0.164	
16.945	-0.121	0.160	
16.950	0.782	0.144	
16.955	0.036	0.177	
16.960	-0.262	0.189	
16.965	0.603	0.165	
16.970	0.438	0.186	
16.975	-0.297	0.217	
16.980	0.214	0.195	
16.985	0.715	0.187	
16.990	-0.213	0.215	
16.995	-0.132	0.196	
17.000	0.774	0.164	
17.005	-0.008	0.183	
17.010	-0.320	0.179	
17.015	0.411	0.133	
17.020	0.235	0.120	
17.025	-0.413	0.113	
17.030	-0.032	0.060	
17.035	0.435	0.021	
17.040	-0.352	0.020	
17.045	-0.298	-0.010	
17.050	0.435	-0.047	
17.055	-0.179	-0.038	
17.060	-0.440	-0.043	
17.065	0.233	-0.076	
17.070	0.142	-0.070	
17.075	-0.423	-0.050	
17.080	0.151	-0.057	
17.085	0.568	-0.029	
17.090	-0.304	0.036	
17.095	-0.254	0.047	
17.100	0.487	0.029	
17.105	-0.156	0.041	
17.110	-0.417	0.028	
17.115	0.295	-0.016	
17.120	0.188	-0.018	
17.125	-0.416	-0.004	
17.130	-0.020	-0.027	
17.135	0.510	-0.031	
17.140	-0.295	0.006	
17.145	-0.232	0.008	
17.150	0.574	-0.001	
17.155	-0.083	0.033	
17.160	-0.355	0.046	
17.165	0.394	0.026	
17.170	0.246	0.042	
17.175	-0.394	0.065	
17.180	0.020	0.040	
17.185	0.570	0.031	
17.190	-0.265	0.061	
17.195	-0.220	0.057	
17.200	0.628	0.041	
17.205	-0.052	0.070	
17.210	-0.361	0.080	
17.215	0.397	0.052	
17.220	0.275	0.062	
17.225	-0.371	0.081	
17.230	0.050	0.057	
17.235	0.592	0.049	
17.240	-0.263	0.081	
17.245	-0.200	0.076	
17.250	0.644	0.058	
17.255	-0.058	0.086	
17.260	-0.359	0.092	
17.265	0.424	0.062	
17.270	0.301	0.072	
17.275	-0.368	0.094	
17.280	0.046	0.069	
17.285	0.615	0.060	
17.290	-0.242	0.092	
17.295	-0.199	0.088	
17.300	0.664	0.071	
17.305	-0.034	0.100	
17.310	-0.335	0.108	
17.315	0.438	0.079	
17.320	0.334	0.091	
17.325	-0.352	0.115	
17.330	0.047	0.091	
17.335	0.617	0.079	
17.340	-0.243	0.106	
17.345	-0.194	0.097	
17.350	0.655	0.076	
17.355	-0.038	0.101	
17.360	-0.338	0.106	
17.365	0.418	0.075	
17.370	0.330	0.084	
17.375	-0.347	0.107	
17.380	0.061	0.084	
17.385	0.625	0.076	
17.390	-0.220	0.108	
17.395	-0.155	0.105	
17.400	0.907	0.102	
17.405	0.075	0.162	
17.410	-0.313	0.195	
17.415	0.431	0.170	
17.420	0.324	0.167	
17.425	-0.368	0.167	
17.430	0.003	0.117	
17.435	0.586	0.082	
17.440	-0.240	0.092	
17.445	-0.220	0.075	
17.450	0.635	0.051	
17.455	-0.034	0.076	
17.460	-0.350	0.085	
17.465	0.394	0.058	
17.470	0.325	0.069	
17.475	-0.356	0.093	
17.480	0.032	0.072	
17.485	0.620	0.063	
17.490	-0.236	0.095	
17.495	-0.217	0.090	
17.500	0.657	0.070	
17.505	0.006	0.098	
17.510	-0.320	0.110	
17.515	0.475	0.088	
17.520	0.412	0.109	
17.525	-0.304	0.145	
17.530	0.117	0.133	
17.535	0.715	0.132	
17.540	-0.179	0.170	
17.545	-0.170	0.166	
17.550	0.731	0.143	
17.555	0.042	0.167	
17.560	-0.327	0.171	
17.565	0.411	0.132	
17.570	0.301	0.125	
17.575	-0.394	0.127	
17.580	-0.055	0.079	
17.585	0.524	0.042	
17.590	-0.281	0.049	
17.595	-0.262	0.029	
17.600	0.553	0.003	
17.605	-0.069	0.025	
17.610	-0.390	0.032	
17.615	0.308	0.005	
17.620	0.261	0.013	
17.625	-0.410	0.034	
17.630	-0.077	0.009	
17.635	0.573	-0.005	
17.640	-0.141	0.032	
17.645	0.056	0.060	
17.650	1.292	0.122	
17.655	0.718	0.284	
17.660	-0.052	0.435	
17.665	0.632	0.486	
17.670	0.243	0.489	
17.675	-0.488	0.429	
17.680	-0.188	0.278	
17.685	0.310	0.127	
17.690	-0.359	0.032	
17.695	-0.330	-0.054	
17.700	0.452	-0.113	
17.705	-0.116	-0.100	
17.710	-0.402	-0.083	
17.715	0.348	-0.086	
17.720	0.528	-0.034	
17.725	-0.335	0.047	
17.730	-0.032	0.071	
17.735	0.541	0.076	
17.740	-0.275	0.100	
17.745	-0.274	0.080	
17.750	0.528	0.042	
17.755	-0.064	0.049	
17.760	-0.387	0.044	
17.765	0.333	0.010	
17.770	0.328	0.019	
17.775	-0.375	0.049	
17.780	-0.032	0.033	
17.785	0.596	0.027	
17.790	-0.246	0.061	
17.795	-0.239	0.060	
17.800	0.637	0.045	
17.805	-0.002	0.076	
17.810	-0.353	0.091	
17.815	0.371	0.066	
17.820	0.406	0.078	
17.825	-0.338	0.108	
17.830	0.026	0.092	
17.835	0.675	0.085	
17.840	-0.196	0.120	
17.845	-0.203	0.119	
17.850	0.692	0.101	
17.855	0.053	0.130	
17.860	-0.309	0.143	
17.865	0.469	0.118	
17.870	0.457	0.135	
17.875	-0.307	0.167	
17.880	0.094	0.150	
17.885	0.759	0.143	
17.890	-0.159	0.180	
17.895	-0.165	0.178	
17.900	0.796	0.158	
17.905	0.166	0.193	
17.910	-0.277	0.213	
17.915	0.519	0.190	
17.920	0.524	0.203	
17.925	-0.283	0.231	
17.930	0.078	0.204	
17.935	0.745	0.181	
17.940	-0.161	0.202	
17.945	-0.190	0.185	
17.950	0.644	0.148	
17.955	-0.014	0.152	
17.960	-0.396	0.136	
17.965	0.244	0.078	
17.970	0.230	0.049	
17.975	-0.442	0.038	
17.980	-0.155	-0.011	
17.985	0.391	-0.050	
17.990	-0.327	-0.046	
17.995	-0.342	-0.064	
18.000	0.402	-0.089	
18.005	-0.132	-0.070	
18.010	-0.457	-0.062	
18.015	0.171	-0.087	
18.020	0.215	-0.079	
18.025	-0.414	-0.052	
18.030	-0.087	-0.061	
18.035	0.632	-0.052	
18.040	-0.106	0.011	
18.045	-0.228	0.049	
18.050	0.536	0.057	
18.055	-0.061	0.087	
18.060	-0.420	0.085	
18.065	0.241	0.038	
18.070	0.293	0.024	
18.075	-0.399	0.033	
18.080	-0.071	0.004	
18.085	0.539	-0.011	
18.090	-0.254	0.019	
18.095	-0.286	0.018	
18.100	0.531	0.001	
18.105	-0.043	0.026	
18.110	-0.393	0.036	
18.115	0.307	0.010	
18.120	0.354	0.022	
18.125	-0.370	0.054	
18.130	-0.064	0.039	
18.135	0.571	0.027	
18.140	-0.234	0.056	
18.145	-0.265	0.052	
18.150	0.597	0.033	
18.155	0.010	0.061	
18.160	-0.367	0.075	
18.165	0.333	0.050	
18.170	0.371	0.059	
18.175	-0.365	0.086	
18.180	-0.052	0.064	
18.185	0.629	0.049	
18.190	-0.207	0.078	
18.195	-0.243	0.077	
18.200	0.626	0.059	
18.205	0.026	0.087	
18.210	-0.370	0.099	
18.215	0.322	0.069	
18.220	0.397	0.072	
18.225	-0.342	0.096	
18.230	-0.040	0.075	
18.235	0.641	0.061	
18.240	-0.188	0.091	
18.245	-0.234	0.091	
18.250	0.628	0.073	
18.255	0.036	0.099	
18.260	-0.361	0.109	
18.265	0.342	0.078	
18.270	0.408	0.082	
18.275	-0.338	0.107	
18.280	-0.013	0.086	
18.285	0.661	0.074	
18.290	-0.200	0.106	
18.295	-0.240	0.102	
18.300	0.643	0.080	
18.305	0.072	0.106	
18.310	-0.347	0.119	
18.315	0.357	0.092	
18.320	0.423	0.098	
18.325	-0.336	0.123	
18.330	-0.034	0.099	
18.335	0.663	0.081	
18.340	-0.188	0.108	
18.345	-0.231	0.104	
18.350	0.663	0.084	
18.355	0.117	0.114	
18.360	-0.234	0.138	
18.365	0.472	0.130	
18.370	0.463	0.157	
18.375	-0.339	0.189	
18.380	-0.051	0.158	
18.385	0.623	0.122	
18.390	-0.207	0.127	
18.395	-0.257	0.104	
18.400	0.600	0.068	
18.405	0.036	0.083	
18.410	-0.359	0.089	
18.415	0.333	0.060	
18.420	0.415	0.068	
18.425	-0.339	0.097	
18.430	-0.052	0.079	
18.435	0.632	0.064	
18.440	-0.207	0.091	
18.445	-0.257	0.086	
18.450	0.612	0.063	
18.455	0.050	0.087	
18.460	-0.356	0.099	
18.465	0.363	0.073	
18.470	0.464	0.085	
18.475	-0.326	0.120	
18.480	-0.016	0.106	
18.485	0.758	0.098	
18.490	-0.133	0.139	
18.495	-0.199	0.147	
18.500	0.721	0.132	
18.505	0.162	0.166	
18.510	-0.317	0.185	
18.515	0.377	0.156	
18.520	0.434	0.153	
18.525	-0.349	0.165	
18.530	-0.083	0.124	
18.535	0.570	0.084	
18.540	-0.242	0.086	
18.545	-0.306	0.061	
18.550	0.507	0.022	
18.555	-0.022	0.030	
18.560	-0.408	0.031	
18.565	0.214	-0.003	
18.570	0.347	-0.002	
18.575	-0.370	0.023	
18.580	-0.110	0.008	
18.585	0.557	-0.002	
18.590	-0.231	0.029	
18.595	-0.216	0.033	
18.600	0.955	0.043	
18.605	0.670	0.149	
18.610	0.067	0.282	
18.615	0.941	0.376	
18.620	0.794	0.480	
18.625	-0.339	0.543	
18.630	-0.197	0.470	
18.635	0.313	0.328	
18.640	-0.370	0.200	
18.645	-0.408	0.062	
18.650	0.351	-0.056	
18.655	-0.071	-0.093	
18.660	-0.440	-0.105	
18.665	0.174	-0.127	
18.670	0.353	-0.103	
18.675	-0.309	-0.045	
18.680	0.140	-0.015	
18.685	0.753	0.037	
18.690	-0.190	0.122	
18.695	-0.300	0.145	
18.700	0.519	0.117	
18.705	-0.013	0.115	
18.710	-0.399	0.098	
18.715	0.264	0.046	
18.720	0.599	0.045	
18.725	-0.320	0.089	
18.730	-0.078	0.089	
18.735	0.582	0.077	
18.740	-0.222	0.097	
18.745	-0.297	0.082	
18.750	0.554	0.047	
18.755	0.085	0.063	
18.760	-0.281	0.079	
18.765	0.351	0.067	
18.770	0.469	0.090	
18.775	-0.338	0.128	
18.780	-0.093	0.109	
18.785	0.615	0.084	
18.790	-0.210	0.099	
18.795	-0.281	0.084	
18.800	0.591	0.053	
18.805	0.094	0.074	
18.810	-0.352	0.090	
18.815	0.322	0.068	
18.820	0.495	0.081	
18.825	-0.309	0.119	
18.830	-0.025	0.109	
18.835	0.773	0.103	
18.840	0.021	0.152	
18.845	-0.152	0.179	
18.850	0.753	0.181	
18.855	0.201	0.220	
18.860	-0.323	0.237	
18.865	0.379	0.199	
18.870	0.530	0.188	
18.875	-0.286	0.201	
18.880	0.003	0.168	
18.885	0.745	0.143	
18.890	-0.142	0.166	
18.895	-0.248	0.157	
18.900	0.611	0.122	
18.905	0.099	0.132	
18.910	-0.370	0.133	
18.915	0.211	0.089	
18.920	0.402	0.072	
18.925	-0.393	0.079	
18.930	-0.179	0.042	
18.935	0.429	0.001	
18.940	-0.298	-0.002	
18.945	-0.399	-0.029	
18.950	0.313	-0.073	
18.955	-0.103	-0.076	
18.960	-0.489	-0.080	
18.965	0.036	-0.116	
18.970	0.217	-0.122	
18.975	-0.437	-0.100	
18.980	-0.188	-0.110	
18.985	0.482	-0.110	
18.990	-0.222	-0.064	
18.995	-0.200	-0.037	
19.000	0.803	-0.009	
19.005	0.133	0.078	
19.010	-0.384	0.138	
19.015	0.163	0.120	
19.020	0.327	0.102	
19.025	-0.391	0.093	
19.030	-0.129	0.045	
19.035	0.606	0.011	
19.040	-0.090	0.038	
19.045	-0.266	0.052	
19.050	0.576	0.047	
19.055	0.039	0.078	
19.060	-0.419	0.090	
19.065	0.133	0.049	
19.070	0.372	0.029	
19.075	-0.353	0.039	
19.080	0.052	0.023	
19.085	0.709	0.032	
19.090	-0.184	0.090	
19.095	-0.336	0.102	
19.100	0.424	0.069	
19.105	0.000	0.064	
19.110	-0.414	0.050	
19.115	0.172	0.004	
19.120	0.376	-0.006	
19.125	-0.375	0.016	
19.130	-0.133	0.000	
19.135	0.602	-0.009	
19.140	-0.202	0.028	
19.145	-0.313	0.036	
19.150	0.544	0.020	
19.155	0.146	0.051	
19.160	-0.231	0.084	
19.165	0.357	0.087	
19.170	0.446	0.116	
19.175	-0.352	0.150	
19.180	-0.133	0.121	
19.185	0.577	0.082	
19.190	-0.200	0.086	
19.195	-0.303	0.066	
19.200	0.527	0.031	
19.205	0.076	0.047	
19.210	-0.396	0.059	
19.215	0.217	0.031	
19.220	0.440	0.033	
19.225	-0.339	0.063	
19.230	-0.078	0.052	
19.235	0.701	0.046	
19.240	-0.110	0.091	
19.245	-0.269	0.106	
19.250	0.565	0.090	
19.255	0.079	0.109	
19.260	-0.393	0.113	
19.265	0.227	0.072	
19.270	0.452	0.063	
19.275	-0.341	0.083	
19.280	-0.093	0.062	
19.285	0.663	0.047	
19.290	-0.165	0.080	
19.295	-0.271	0.084	
19.300	0.602	0.066	
19.305	0.120	0.093	
19.310	-0.341	0.113	
19.315	0.360	0.092	
19.320	0.837	0.121	
19.325	-0.249	0.195	
19.330	-0.074	0.208	
19.335	0.651	0.188	
19.340	-0.176	0.191	
19.345	-0.297	0.158	
19.350	0.534	0.102	
19.355	0.076	0.094	
19.360	-0.390	0.087	
19.365	0.218	0.045	
19.370	0.460	0.039	
19.375	-0.336	0.066	
19.380	-0.110	0.052	
19.385	0.634	0.039	
19.390	-0.167	0.071	
19.395	-0.277	0.075	
19.400	0.605	0.058	
19.405	0.180	0.090	
19.410	-0.344	0.118	
19.415	0.305	0.100	
19.420	0.570	0.112	
19.425	-0.257	0.152	
19.430	-0.020	0.145	
19.435	0.811	0.138	
19.440	-0.074	0.180	
19.445	-0.226	0.188	
19.450	0.629	0.162	
19.455	0.157	0.174	
19.460	-0.393	0.173	
19.465	0.171	0.120	
19.470	0.400	0.087	
19.475	-0.355	0.084	
19.480	-0.150	0.045	
19.485	0.576	0.014	
19.490	-0.203	0.033	
19.495	-0.320	0.030	
19.500	0.496	0.006	
19.505	0.061	0.027	
19.510	-0.401	0.043	
19.515	0.162	0.016	
19.520	0.391	0.014	
19.525	-0.364	0.037	
19.530	-0.098	0.022	
19.535	0.890	0.025	
19.540	0.221	0.110	
19.545	0.163	0.201	
19.550	1.278	0.292	
19.555	0.649	0.439	
19.560	-0.301	0.535	
19.565	0.050	0.488	
19.570	0.163	0.373	
19.575	-0.472	0.243	
19.580	-0.271	0.086	
19.585	0.429	-0.034	
19.590	-0.246	-0.071	
19.595	-0.367	-0.096	
19.600	0.427	-0.116	
19.605	0.033	-0.081	
19.610	-0.417	-0.045	
19.615	0.148	-0.049	
19.620	0.427	-0.028	
19.625	-0.339	0.018	
19.630	-0.118	0.021	
19.635	0.695	0.023	
19.640	-0.034	0.078	
19.645	-0.258	0.107	
19.650	0.557	0.102	
19.655	0.120	0.126	
19.660	-0.401	0.133	
19.665	0.156	0.087	
19.670	0.453	0.066	
19.675	-0.323	0.077	
19.680	-0.127	0.054	
19.685	0.635	0.035	
19.690	-0.147	0.065	
19.695	-0.291	0.071	
19.700	0.573	0.053	
19.705	0.172	0.082	
19.710	-0.362	0.107	
19.715	0.232	0.084	
19.720	0.524	0.087	
19.725	-0.291	0.117	
19.730	-0.084	0.104	
19.735	0.724	0.091	
19.740	-0.112	0.125	
19.745	-0.258	0.130	
19.750	0.637	0.109	
19.755	0.244	0.136	
19.760	-0.329	0.162	
19.765	0.304	0.139	
19.770	0.608	0.143	
19.775	-0.257	0.177	
19.780	-0.040	0.164	
19.785	0.800	0.148	
19.790	-0.051	0.183	
19.795	-0.213	0.189	
19.800	0.719	0.168	
19.805	0.327	0.198	
19.810	-0.294	0.226	
19.815	0.369	0.204	
19.820	0.644	0.205	
19.825	-0.236	0.234	
19.830	-0.042	0.211	
19.835	0.747	0.180	
19.840	-0.118	0.193	
19.845	-0.303	0.174	
19.850	0.486	0.121	
19.855	0.075	0.107	
19.860	-0.442	0.089	
19.865	0.041	0.029	
19.870	0.321	-0.008	
19.875	-0.410	-0.012	
19.880	-0.237	-0.046	
19.885	0.441	-0.075	
19.890	-0.268	-0.057	
19.895	-0.416	-0.062	
19.900	0.322	-0.088	
19.905	-0.025	-0.076	
19.910	-0.472	-0.065	
19.915	0.029	-0.091	
19.920	0.347	-0.090	
19.925	-0.390	-0.058	
19.930	-0.200	-0.060	
19.935	0.541	-0.062	
19.940	-0.200	-0.020	
19.945	-0.342	-0.005	
19.950	0.489	-0.015	
19.955	0.209	0.022	
19.960	-0.286	0.064	
19.965	0.235	0.068	
19.970	0.487	0.088	
19.975	-0.335	0.122	
19.980	-0.164	0.100	
19.985	0.583	0.067	
19.990	-0.173	0.077	
19.995	-0.335	0.063	
20.000	0.490	0.028	
20.005	0.137	0.042	
20.010	-0.393	0.058	
20.015	0.137	0.032	
20.020	0.438	0.028	
20.025	-0.336	0.052	
20.030	-0.144	0.037	
20.035	0.628	0.023	
20.040	-0.138	0.056	
20.045	-0.320	0.064	
20.050	0.508	0.044	
20.055	0.140	0.064	
20.060	-0.390	0.081	
20.065	0.146	0.051	
20.070	0.490	0.046	
20.075	-0.309	0.072	
20.080	-0.127	0.060	
20.085	0.663	0.048	
20.090	-0.127	0.082	
20.095	-0.301	0.089	
20.100	0.521	0.066	
20.105	0.152	0.084	
20.110	-0.388	0.097	
20.115	0.177	0.065	
20.120	0.524	0.060	
20.125	-0.307	0.089	
20.130	-0.139	0.076	
20.135	0.666	0.059	
20.140	-0.121	0.089	
20.145	-0.301	0.094	
20.150	0.541	0.070	
20.155	0.191	0.090	
20.160	-0.361	0.109	
20.165	0.198	0.083	
20.170	0.541	0.082	
20.175	-0.297	0.111	
20.180	-0.130	0.097	
20.185	0.680	0.077	
20.190	-0.115	0.105	
20.195	-0.297	0.106	
20.200	0.541	0.080	
20.205	0.188	0.097	
20.210	-0.368	0.112	
20.215	0.183	0.083	
20.220	0.525	0.077	
20.225	-0.303	0.103	
20.230	-0.139	0.086	
20.235	0.658	0.066	
20.240	-0.116	0.093	
20.245	-0.301	0.094	
20.250	0.553	0.070	
20.255	0.214	0.092	
20.260	-0.364	0.115	
20.265	0.195	0.090	
20.270	0.557	0.088	
20.275	-0.265	0.119	
20.280	-0.017	0.113	
20.285	0.768	0.111	
20.290	-0.101	0.155	
20.295	-0.309	0.160	
20.300	0.527	0.124	
20.305	0.212	0.127	
20.310	-0.359	0.133	
20.315	0.211	0.098	
20.320	0.568	0.091	
20.325	-0.278	0.121	
20.330	-0.103	0.108	
20.335	0.776	0.096	
20.340	-0.038	0.137	
20.345	-0.245	0.153	
20.350	0.646	0.138	
20.355	0.308	0.168	
20.360	-0.330	0.194	
20.365	0.209	0.165	
20.370	0.527	0.148	
20.375	-0.309	0.157	
20.380	-0.165	0.120	
20.385	0.608	0.079	
20.390	-0.156	0.085	
20.395	-0.355	0.070	
20.400	0.424	0.029	
20.405	0.119	0.032	
20.410	-0.417	0.039	
20.415	0.065	0.005	
20.420	0.473	-0.004	
20.425	-0.324	0.024	
20.430	-0.173	0.017	
20.435	0.565	0.006	
20.440	-0.150	0.037	
20.445	-0.255	0.045	
20.450	0.926	0.053	
20.455	0.857	0.161	
20.460	0.026	0.307	
20.465	0.702	0.396	
20.470	0.767	0.469	
20.475	-0.352	0.505	
20.480	-0.307	0.418	
20.485	0.295	0.267	
20.490	-0.297	0.143	
20.495	-0.465	0.020	
20.500	0.282	-0.087	
20.505	0.050	-0.117	
20.510	-0.428	-0.112	
20.515	0.079	-0.123	
20.520	0.487	-0.095	
20.525	-0.323	-0.030	
20.530	-0.177	-0.008	
20.535	0.611	0.001	
20.540	-0.127	0.048	
20.545	-0.320	0.064	
20.550	0.495	0.047	
20.555	0.212	0.071	
20.560	-0.373	0.095	
20.565	0.124	0.070	
20.570	0.525	0.063	
20.575	-0.304	0.089	
20.580	-0.156	0.074	
20.585	0.657	0.054	
20.590	-0.100	0.084	
20.595	-0.271	0.091	
20.600	0.731	0.082	
20.605	0.334	0.133	
20.610	-0.341	0.182	
20.615	0.186	0.166	
20.620	0.556	0.154	
20.625	-0.291	0.166	
20.630	-0.148	0.133	
20.635	0.681	0.097	
20.640	-0.092	0.113	
20.645	-0.300	0.109	
20.650	0.542	0.080	
20.655	0.273	0.100	
20.660	-0.352	0.125	
20.665	0.178	0.103	
20.670	0.599	0.101	
20.675	-0.249	0.133	
20.680	-0.100	0.124	
20.685	0.779	0.113	
20.690	-0.049	0.151	
20.695	-0.274	0.161	
20.700	0.621	0.137	
20.705	0.366	0.162	
20.710	-0.297	0.193	
20.715	0.293	0.176	
20.720	0.707	0.181	
20.725	-0.214	0.219	
20.730	-0.113	0.205	
20.735	0.753	0.174	
20.740	-0.043	0.190	
20.745	-0.274	0.180	
20.750	0.571	0.141	
20.755	0.279	0.149	
20.760	-0.367	0.161	
20.765	0.073	0.119	
20.770	0.446	0.087	
20.775	-0.365	0.083	
20.780	-0.258	0.040	
20.785	0.455	-0.008	
20.790	-0.217	-0.010	
20.795	-0.434	-0.028	
20.800	0.261	-0.070	
20.805	0.009	-0.073	
20.810	-0.483	-0.071	
20.815	-0.057	-0.103	
20.820	0.360	-0.111	
20.825	-0.388	-0.082	
20.830	-0.265	-0.084	
20.835	0.487	-0.089	
20.840	-0.179	-0.051	
20.845	-0.388	-0.035	
20.850	0.402	-0.046	
20.855	0.157	-0.016	
20.860	-0.425	0.014	
20.865	0.042	-0.003	
20.870	0.493	-0.004	
20.875	-0.303	0.030	
20.880	-0.171	0.028	
20.885	0.647	0.022	
20.890	-0.118	0.061	
20.895	-0.350	0.072	
20.900	0.463	0.048	
20.905	0.227	0.064	
20.910	-0.362	0.086	
20.915	0.152	0.065	
20.920	0.750	0.074	
20.925	-0.243	0.130	
20.930	-0.150	0.139	
20.935	0.652	0.123	
20.940	-0.116	0.140	
20.945	-0.341	0.126	
20.950	0.449	0.080	
20.955	0.194	0.077	
20.960	-0.394	0.082	
20.965	0.081	0.045	
20.970	0.524	0.032	
20.975	-0.286	0.059	
20.980	-0.174	0.051	
20.985	0.640	0.038	
20.990	-0.098	0.071	
20.995	-0.342	0.079	
21.000	0.458	0.053	
21.005	0.229	0.068	
21.010	-0.384	0.087	
21.015	0.087	0.059	
21.020	0.534	0.050	
21.025	-0.286	0.076	
21.030	-0.167	0.066	
21.035	0.684	0.051	
21.040	-0.089	0.086	
21.045	-0.335	0.095	
21.050	0.487	0.070	
21.055	0.236	0.085	
21.060	-0.379	0.103	
21.065	0.111	0.074	
21.070	0.570	0.065	
21.075	-0.269	0.094	
21.080	-0.156	0.085	
21.085	0.673	0.069	
21.090	-0.077	0.100	
21.095	-0.315	0.106	
21.100	0.508	0.081	
21.105	0.255	0.097	
21.110	-0.367	0.117	
21.115	0.124	0.089	
21.120	0.586	0.081	
21.125	-0.260	0.109	
21.130	-0.147	0.099	
21.135	0.686	0.082	
21.140	-0.072	0.112	
21.145	-0.329	0.116	
21.150	0.479	0.085	
21.155	0.276	0.095	
21.160	-0.353	0.115	
21.165	0.142	0.089	
21.170	0.580	0.084	
21.175	-0.277	0.113	
21.180	-0.167	0.100	
21.185	0.698	0.079	
21.190	-0.055	0.109	
21.195	-0.306	0.116	
21.200	0.498	0.090	
21.205	0.307	0.107	
21.210	-0.333	0.131	
21.215	0.201	0.112	
21.220	0.686	0.116	
21.225	-0.211	0.160	
21.230	-0.084	0.160	
21.235	0.864	0.153	
21.240	0.350	0.213	
21.245	-0.167	0.268	
21.250	0.600	0.274	
21.255	0.255	0.286	
21.260	-0.402	0.271	
21.265	0.018	0.190	
21.270	0.438	0.118	
21.275	-0.349	0.086	
21.280	-0.251	0.031	
21.285	0.533	-0.016	
21.290	-0.155	-0.006	
21.295	-0.388	-0.008	
21.300	0.356	-0.034	
21.305	0.154	-0.018	
21.310	-0.428	0.004	
21.315	0.003	-0.018	
21.320	0.460	-0.024	
21.325	-0.300	0.006	
21.330	-0.104	0.009	
21.335	1.072	0.034	
21.340	0.489	0.157	
21.345	0.044	0.285	
21.350	0.952	0.366	
21.355	0.414	0.447	
21.360	-0.445	0.466	
21.365	-0.142	0.361	
21.370	0.188	0.218	
21.375	-0.440	0.097	
21.380	-0.315	-0.026	
21.385	0.443	-0.111	
21.390	-0.174	-0.114	
21.395	-0.398	-0.109	
21.400	0.347	-0.114	
21.405	0.177	-0.074	
21.410	-0.401	-0.027	
21.415	0.059	-0.025	
21.420	0.539	-0.007	
21.425	-0.298	0.041	
21.430	-0.196	0.046	
21.435	0.641	0.037	
21.440	-0.083	0.073	
21.445	-0.335	0.083	
21.450	0.472	0.060	
21.455	0.272	0.078	
21.460	-0.373	0.102	
21.465	0.088	0.077	
21.470	0.582	0.069	
21.475	-0.262	0.097	
21.480	-0.155	0.089	
21.485	0.709	0.075	
21.490	-0.052	0.110	
21.495	-0.318	0.120	
21.500	0.499	0.094	
21.505	0.310	0.110	
21.510	-0.349	0.133	
21.515	0.128	0.108	
21.520	0.641	0.101	
21.525	-0.225	0.133	
21.530	-0.138	0.127	
21.535	0.731	0.112	
21.540	-0.014	0.144	
21.545	-0.284	0.152	
21.550	0.573	0.128	
21.555	0.424	0.152	
21.560	-0.200	0.192	
21.565	0.287	0.190	
21.570	0.702	0.204	
21.575	-0.223	0.241	
21.580	-0.119	0.221	
21.585	0.790	0.185	
21.590	-0.006	0.201	
21.595	-0.278	0.194	
21.600	0.583	0.156	
21.605	0.389	0.168	
21.610	-0.306	0.191	
21.615	0.212	0.167	
21.620	0.696	0.162	
21.625	-0.214	0.193	
21.630	-0.148	0.179	
21.635	0.693	0.147	
21.640	-0.081	0.158	
21.645	-0.361	0.142	
21.650	0.363	0.087	
21.655	0.140	0.068	
21.660	-0.449	0.055	
21.665	-0.063	0.000	
21.670	0.366	-0.036	
21.675	-0.390	-0.035	
21.680	-0.320	-0.061	
21.685	0.397	-0.092	
21.690	-0.211	-0.078	
21.695	-0.457	-0.079	
21.700	0.230	-0.106	
21.705	0.052	-0.098	
21.710	-0.466	-0.081	
21.715	-0.063	-0.102	
21.720	0.406	-0.102	
21.725	-0.349	-0.064	
21.730	-0.249	-0.059	
21.735	0.536	-0.060	
21.740	-0.136	-0.018	
21.745	-0.390	0.001	
21.750	0.362	-0.016	
21.755	0.214	0.004	
21.760	-0.391	0.031	
21.765	0.050	0.015	
21.770	0.542	0.016	
21.775	-0.281	0.053	
21.780	-0.200	0.051	
21.785	0.644	0.039	
21.790	-0.083	0.072	
21.795	-0.347	0.081	
21.800	0.415	0.054	
21.805	0.273	0.066	
21.810	-0.376	0.086	
21.815	0.061	0.061	
21.820	0.577	0.052	
21.825	-0.268	0.082	
21.830	-0.193	0.075	
21.835	0.644	0.057	
21.840	-0.080	0.084	
21.845	-0.341	0.089	
21.850	0.447	0.060	
21.855	0.301	0.075	
21.860	-0.367	0.099	
21.865	0.068	0.076	
21.870	0.617	0.069	
21.875	-0.231	0.102	
21.880	-0.068	0.103	
21.885	0.735	0.102	
21.890	-0.057	0.145	
21.895	-0.338	0.152	
21.900	0.434	0.114	
21.905	0.270	0.111	
21.910	-0.379	0.116	
21.915	0.062	0.078	
21.920	0.562	0.059	
21.925	-0.278	0.081	
21.930	-0.199	0.067	
21.935	0.651	0.047	
21.940	-0.068	0.076	
21.945	-0.349	0.084	
21.950	0.446	0.058	
21.955	0.288	0.073	
21.960	-0.365	0.097	
21.965	0.062	0.073	
21.970	0.588	0.064	
21.975	-0.262	0.093	
21.980	-0.185	0.084	
21.985	0.676	0.067	
21.990	-0.068	0.096	
21.995	-0.342	0.102	
22.000	0.461	0.073	
22.005	0.318	0.086	
22.010	-0.361	0.111	
22.015	0.088	0.088	
22.020	0.623	0.081	
22.025	-0.251	0.112	
22.030	-0.193	0.104	
22.035	0.663	0.082	
22.040	-0.058	0.105	
22.045	-0.333	0.107	
22.050	0.455	0.076	
22.055	0.295	0.087	
22.060	-0.359	0.108	
22.065	0.065	0.082	
22.070	0.599	0.071	
22.075	-0.252	0.099	
22.080	-0.187	0.090	
22.085	0.660	0.071	
22.090	-0.049	0.098	
22.095	-0.333	0.104	
22.100	0.438	0.075	
22.105	0.302	0.086	
22.110	-0.355	0.107	
22.115	0.087	0.083	
22.120	0.617	0.076	
22.125	-0.252	0.108	
22.130	-0.177	0.100	
22.135	0.681	0.082	
22.140	-0.038	0.110	
22.145	-0.317	0.117	
22.150	0.489	0.091	
22.155	0.363	0.108	
22.160	-0.309	0.138	
22.165	0.208	0.126	
22.170	0.727	0.135	
22.175	-0.211	0.181	
22.180	-0.148	0.178	
22.185	0.748	0.154	
22.190	0.017	0.177	
22.195	-0.280	0.179	
22.200	0.666	0.153	
22.205	0.363	0.177	
22.210	-0.378	0.203	
22.215	-0.003	0.160	
22.220	0.464	0.113	
22.225	-0.321	0.097	
22.230	-0.262	0.051	
22.235	0.533	0.004	
22.240	-0.119	0.012	
22.245	-0.385	0.010	
22.250	0.339	-0.019	
22.255	0.189	-0.007	
22.260	-0.419	0.014	
22.265	0.035	-0.007	
22.270	0.765	0.003	
22.275	-0.009	0.080	
22.280	0.282	0.150	
22.285	1.333	0.244	
22.290	0.392	0.399	
22.295	-0.245	0.488	
22.300	0.307	0.452	
22.305	0.018	0.368	
22.310	-0.521	0.251	
22.315	-0.155	0.093	
22.320	0.325	-0.026	
22.325	-0.359	-0.073	
22.330	-0.275	-0.113	
22.335	0.544	-0.129	
22.340	-0.118	-0.081	
22.345	-0.394	-0.047	
22.350	0.359	-0.046	
22.355	0.236	-0.012	
22.360	-0.390	0.028	
22.365	0.018	0.018	
22.370	0.548	0.019	
22.375	-0.266	0.055	
22.380	-0.203	0.054	
22.385	0.625	0.041	
22.390	-0.071	0.072	
22.395	-0.349	0.080	
22.400	0.447	0.055	
22.405	0.339	0.073	
22.410	-0.347	0.104	
22.415	0.064	0.087	
22.420	0.592	0.080	
22.425	-0.258	0.107	
22.430	-0.194	0.095	
22.435	0.672	0.073	
22.440	-0.040	0.100	
22.445	-0.324	0.107	
22.450	0.473	0.081	
22.455	0.353	0.098	
22.460	-0.339	0.127	
22.465	0.117	0.108	
22.470	0.670	0.105	
22.475	-0.228	0.141	
22.480	-0.179	0.134	
22.485	0.718	0.112	
22.490	0.026	0.140	
22.495	-0.277	0.150	
22.500	0.534	0.128	
22.505	0.412	0.149	
22.510	-0.303	0.181	
22.515	0.249	0.165	
22.520	0.878	0.177	
22.525	-0.124	0.237	
22.530	-0.075	0.248	
22.535	0.974	0.240	
22.540	0.137	0.285	
22.545	-0.269	0.299	
22.550	0.539	0.258	
22.555	0.376	0.244	
22.560	-0.336	0.237	
22.565	0.070	0.179	
22.570	0.631	0.137	
22.575	-0.257	0.141	
22.580	-0.225	0.112	
22.585	0.565	0.070	
22.590	-0.113	0.074	
22.595	-0.410	0.058	
22.600	0.266	0.009	
22.605	0.125	-0.005	
22.610	-0.463	-0.009	
22.615	-0.112	-0.051	
22.620	0.324	-0.079	
22.625	-0.396	-0.072	
22.630	-0.333	-0.092	
22.635	0.402	-0.116	
22.640	-0.174	-0.092	
22.645	-0.443	-0.082	
22.650	0.233	-0.100	
22.655	0.122	-0.083	
22.660	-0.451	-0.059	
22.665	-0.066	-0.075	
22.670	0.484	-0.074	
22.675	-0.312	-0.032	
22.680	-0.271	-0.025	
22.685	0.548	-0.031	
22.690	-0.100	0.006	
22.695	-0.376	0.021	
22.700	0.379	0.003	
22.705	0.273	0.024	
22.710	-0.379	0.055	
22.715	0.013	0.038	
22.720	0.570	0.033	
22.725	-0.269	0.065	
22.730	-0.208	0.061	
22.735	0.631	0.045	
22.740	-0.054	0.075	
22.745	-0.349	0.084	
22.750	0.394	0.056	
22.755	0.267	0.065	
22.760	-0.384	0.082	
22.765	0.006	0.053	
22.770	0.580	0.038	
22.775	-0.255	0.066	
22.780	-0.216	0.061	
22.785	0.631	0.044	
22.790	-0.060	0.074	
22.795	-0.347	0.082	
22.800	0.437	0.056	
22.805	0.327	0.073	
22.810	-0.373	0.100	
22.815	0.029	0.077	
22.820	0.580	0.064	
22.825	-0.257	0.089	
22.830	-0.203	0.078	
22.835	0.641	0.057	
22.840	-0.049	0.084	
22.845	-0.352	0.091	
22.850	0.411	0.061	
22.855	0.301	0.071	
22.860	-0.373	0.092	
22.865	0.038	0.067	
22.870	0.617	0.057	
22.875	-0.246	0.089	
22.880	-0.193	0.085	
22.885	0.687	0.070	
22.890	-0.017	0.103	
22.895	-0.339	0.115	
22.900	0.427	0.087	
22.905	0.331	0.097	
22.910	-0.358	0.117	
22.915	0.056	0.090	
22.920	0.626	0.078	
22.925	-0.239	0.107	
22.930	-0.199	0.099	
22.935	0.661	0.078	
22.940	-0.045	0.103	
22.945	-0.346	0.107	
22.950	0.412	0.074	
22.955	0.325	0.081	
22.960	-0.361	0.102	
22.965	0.062	0.078	
22.970	0.661	0.072	
22.975	-0.229	0.108	
22.980	-0.185	0.107	
22.985	0.680	0.091	
22.990	-0.014	0.119	
22.995	-0.317	0.127	
23.000	0.453	0.098	
23.005	0.356	0.110	
23.010	-0.349	0.133	
23.015	0.053	0.106	
23.020	0.628	0.091	
23.025	-0.239	0.117	
23.030	-0.207	0.105	
23.035	0.651	0.080	
23.040	-0.031	0.102	
23.045	-0.341	0.105	
23.050	0.431	0.074	
23.055	0.343	0.085	
23.060	-0.352	0.110	
23.065	0.049	0.088	
23.070	0.632	0.078	
23.075	-0.231	0.109	
23.080	-0.188	0.103	
23.085	0.706	0.086	
23.090	0.003	0.118	
23.095	-0.318	0.130	
23.100	0.495	0.106	
23.105	0.444	0.126	
23.110	-0.295	0.162	
23.115	0.160	0.151	
23.120	0.745	0.153	
23.125	-0.190	0.194	
23.130	-0.152	0.187	
23.135	0.739	0.161	
23.140	-0.009	0.179	
23.145	-0.344	0.173	
23.150	0.392	0.123	
23.155	0.269	0.109	
23.160	-0.388	0.107	
23.165	-0.019	0.062	
23.170	0.521	0.033	
23.175	-0.295	0.046	
23.180	-0.254	0.029	
23.185	0.574	0.005	
23.190	-0.077	0.030	
23.195	-0.373	0.039	
23.200	0.357	0.014	
23.205	0.252	0.027	
23.210	-0.417	0.049	
23.215	-0.009	0.023	
23.220	0.699	0.019	
23.225	-0.071	0.074	
23.230	0.195	0.122	
23.235	1.343	0.200	
23.240	0.574	0.361	
23.245	-0.159	0.481	
23.250	0.412	0.482	
23.255	0.085	0.428	
23.260	-0.517	0.326	
23.265	-0.174	0.164	
23.270	0.340	0.029	
23.275	-0.347	-0.035	
23.280	-0.297	-0.090	
23.285	0.507	-0.120	
23.290	-0.107	-0.085	
23.295	-0.404	-0.057	
23.300	0.314	-0.060	
23.305	0.246	-0.029	
23.310	-0.391	0.011	
23.315	-0.026	0.002	
23.320	0.522	0.001	
23.325	-0.275	0.035	
23.330	-0.234	0.033	
23.335	0.606	0.019	
23.340	-0.057	0.052	
23.345	-0.355	0.065	
23.350	0.415	0.043	
23.355	0.359	0.063	
23.360	-0.352	0.097	
23.365	0.046	0.082	
23.370	0.634	0.077	
23.375	-0.229	0.110	
23.380	-0.199	0.105	
23.385	0.676	0.085	
23.390	-0.032	0.112	
23.395	-0.333	0.117	
23.400	0.446	0.086	
23.405	0.374	0.098	
23.410	-0.338	0.125	
23.415	0.078	0.105	
23.420	0.654	0.098	
23.425	-0.223	0.130	
23.430	-0.182	0.122	
23.435	0.721	0.103	
23.440	0.041	0.134	
23.445	-0.292	0.148	
23.450	0.508	0.126	
23.455	0.431	0.145	
23.460	-0.304	0.177	
23.465	0.137	0.158	
23.470	0.742	0.153	
23.475	-0.168	0.189	
23.480	-0.138	0.184	
23.485	0.793	0.164	
23.490	0.102	0.195	
23.495	-0.268	0.208	
23.500	0.567	0.182	
23.505	0.487	0.198	
23.510	-0.303	0.227	
23.515	0.117	0.199	
23.520	0.696	0.177	
23.525	-0.210	0.194	
23.530	-0.196	0.170	
23.535	0.635	0.129	
23.540	-0.069	0.131	
23.545	-0.388	0.113	
23.550	0.287	0.057	
23.555	0.180	0.036	
23.560	-0.448	0.028	
23.565	-0.118	-0.019	
23.570	0.394	-0.052	
23.575	-0.359	-0.045	
23.580	-0.329	-0.063	
23.585	0.392	-0.089	
23.590	-0.168	-0.072	
23.595	-0.448	-0.069	
23.600	0.214	-0.093	
23.605	0.149	-0.083	
23.610	-0.445	-0.059	
23.615	-0.081	-0.074	
23.620	0.460	-0.075	
23.625	-0.304	-0.037	
23.630	-0.265	-0.030	
23.635	0.557	-0.034	
23.640	-0.074	0.006	
23.645	-0.378	0.026	
23.650	0.359	0.009	
23.655	0.281	0.028	
23.660	-0.393	0.057	
23.665	-0.023	0.036	
23.670	0.573	0.025	
23.675	-0.266	0.055	
23.680	-0.240	0.050	
23.685	0.597	0.031	
23.690	-0.057	0.058	
23.695	-0.353	0.066	
23.700	0.380	0.041	
23.705	0.321	0.054	
23.710	-0.358	0.081	
23.715	0.023	0.062	
23.720	0.588	0.054	
23.725	-0.254	0.084	
23.730	-0.217	0.077	
23.735	0.629	0.056	
23.740	-0.031	0.082	
23.745	-0.342	0.090	
23.750	0.402	0.063	
23.755	0.307	0.074	
23.760	-0.375	0.095	
23.765	-0.008	0.067	
23.770	0.585	0.050	
23.775	-0.251	0.074	
23.780	-0.229	0.066	
23.785	0.628	0.046	
23.790	-0.016	0.074	
23.795	-0.342	0.086	
23.800	0.414	0.063	
23.805	0.325	0.077	
23.810	-0.364	0.102	
23.815	0.032	0.079	
23.820	0.634	0.068	
23.825	-0.231	0.099	
23.830	-0.205	0.095	
23.835	0.658	0.076	
23.840	-0.020	0.103	
23.845	-0.342	0.110	
23.850	0.408	0.079	
23.855	0.343	0.087	
23.860	-0.352	0.109	
23.865	0.024	0.085	
23.870	0.606	0.071	
23.875	-0.245	0.097	
23.880	-0.208	0.087	
23.885	0.649	0.066	
23.890	-0.009	0.093	
23.895	-0.346	0.103	
23.900	0.420	0.075	
23.905	0.365	0.088	
23.910	-0.355	0.114	
23.915	0.038	0.092	
23.920	0.631	0.080	
23.925	-0.246	0.108	
23.930	-0.207	0.099	
23.935	0.666	0.076	
23.940	-0.031	0.102	
23.945	-0.349	0.107	
23.950	0.400	0.075	
23.955	0.319	0.081	
23.960	-0.368	0.100	
23.965	0.038	0.073	
23.970	0.657	0.063	
23.975	-0.229	0.099	
23.980	-0.211	0.097	
23.985	0.652	0.078	
23.990	0.009	0.106	
23.995	-0.338	0.115	
24.000	0.427	0.087	
24.005	0.360	0.098	
24.010	-0.341	0.122	
24.015	0.053	0.099	
24.020	0.644	0.089	
24.025	-0.232	0.118	
24.030	-0.214	0.109	
24.035	0.638	0.084	
24.040	-0.011	0.104	
24.045	-0.346	0.108	
24.050	0.412	0.076	
24.055	0.359	0.085	
24.060	-0.332	0.111	
24.065	0.065	0.092	
24.070	0.658	0.087	
24.075	-0.214	0.122	
24.080	-0.171	0.120	
24.085	0.751	0.105	
24.090	0.076	0.144	
24.095	-0.277	0.165	
24.100	0.533	0.148	
24.105	0.450	0.169	
24.110	-0.313	0.200	
24.115	0.075	0.174	
24.120	0.634	0.150	
24.125	-0.257	0.161	
24.130	-0.239	0.131	
24.135	0.567	0.085	
24.140	-0.086	0.083	
24.145	-0.401	0.067	
24.150	0.295	0.019	
24.155	0.250	0.013	
24.160	-0.394	0.025	
24.165	-0.042	0.000	
24.170	0.553	-0.009	
24.175	-0.274	0.025	
24.180	-0.252	0.026	
24.185	0.550	0.011	
24.190	-0.078	0.037	
24.195	-0.315	0.046	
24.200	0.739	0.044	
24.205	0.897	0.130	
24.210	0.053	0.267	
24.215	0.670	0.363	
24.220	1.007	0.453	
24.225	-0.226	0.528	
24.230	-0.341	0.477	
24.235	0.307	0.336	
24.240	-0.213	0.207	
24.245	-0.491	0.078	
24.250	0.168	-0.048	
24.255	0.159	-0.100	
24.260	-0.430	-0.105	
24.265	-0.066	-0.124	
24.270	0.501	-0.113	
24.275	-0.286	-0.056	
24.280	-0.257	-0.034	
24.285	0.551	-0.028	
24.290	-0.086	0.016	
24.295	-0.384	0.034	
24.300	0.343	0.013	
24.305	0.288	0.027	
24.310	-0.378	0.055	
24.315	0.013	0.037	
24.320	0.605	0.033	
24.325	-0.243	0.070	
24.330	-0.213	0.071	
24.335	0.640	0.057	
24.340	-0.037	0.087	
24.345	-0.356	0.096	
24.350	0.398	0.066	
24.355	0.372	0.077	
24.360	-0.347	0.105	
24.365	0.036	0.086	
24.370	0.628	0.077	
24.375	-0.222	0.108	
24.380	-0.188	0.103	
24.385	0.710	0.087	
24.390	0.018	0.120	
24.395	-0.312	0.135	
24.400	0.482	0.111	
24.405	0.426	0.129	
24.410	-0.324	0.160	
24.415	0.093	0.140	
24.420	0.707	0.131	
24.425	-0.184	0.163	
24.430	-0.158	0.157	
24.435	0.750	0.137	
24.440	0.082	0.167	
24.445	-0.297	0.180	
24.450	0.553	0.155	
24.455	0.513	0.175	
24.460	-0.281	0.212	
24.465	0.165	0.197	
24.470	0.776	0.191	
24.475	-0.161	0.225	
24.480	-0.118	0.215	
24.485	0.799	0.189	
24.490	0.072	0.213	
24.495	-0.297	0.216	
24.500	0.490	0.175	
24.505	0.386	0.173	
24.510	-0.361	0.181	
24.515	-0.011	0.136	
24.520	0.531	0.095	
24.525	-0.315	0.092	
24.530	-0.309	0.054	
24.535	0.432	0.003	
24.540	-0.162	-0.005	
24.545	-0.468	-0.024	
24.550	0.151	-0.073	
24.555	0.091	-0.087	
24.560	-0.478	-0.085	
24.565	-0.139	-0.114	
24.570	0.395	-0.124	
24.575	-0.346	-0.092	
24.580	-0.321	-0.088	
24.585	0.466	-0.094	
24.590	-0.132	-0.057	
24.595	-0.417	-0.039	
24.600	0.284	-0.054	
24.605	0.212	-0.035	
24.610	-0.411	-0.005	
24.615	-0.045	-0.020	
24.620	0.542	-0.022	
24.625	-0.277	0.017	
24.630	-0.248	0.021	
24.635	0.608	0.011	
24.640	-0.057	0.046	
24.645	-0.371	0.061	
24.650	0.366	0.037	
24.655	0.324	0.050	
24.660	-0.370	0.077	
24.665	0.013	0.057	
24.670	0.599	0.049	
24.675	-0.246	0.080	
24.680	-0.225	0.075	
24.685	0.617	0.055	
24.690	-0.045	0.080	
24.695	-0.365	0.085	
24.700	0.372	0.053	
24.705	0.324	0.060	
24.710	-0.371	0.082	
24.715	-0.006	0.058	
24.720	0.611	0.046	
24.725	-0.249	0.076	
24.730	-0.222	0.072	
24.735	0.649	0.055	
24.740	-0.031	0.084	
24.745	-0.356	0.094	
24.750	0.409	0.066	
24.755	0.343	0.077	
24.760	-0.361	0.102	
24.765	0.020	0.079	
24.770	0.625	0.067	
24.775	-0.246	0.096	
24.780	-0.222	0.088	
24.785	0.649	0.067	
24.790	-0.023	0.092	
24.795	-0.339	0.100	
24.800	0.421	0.072	
24.805	0.359	0.085	
24.810	-0.356	0.112	
24.815	0.024	0.089	
24.820	0.628	0.076	
24.825	-0.226	0.104	
24.830	-0.203	0.098	
24.835	0.669	0.078	
24.840	-0.023	0.105	
24.845	-0.355	0.111	
24.850	0.415	0.079	
24.855	0.359	0.087	
24.860	-0.359	0.111	
24.865	0.030	0.087	
24.870	0.632	0.074	
24.875	-0.231	0.104	
24.880	-0.208	0.097	
24.885	0.673	0.077	
24.890	-0.013	0.105	
24.895	-0.338	0.114	
24.900	0.417	0.085	
24.905	0.350	0.094	
24.910	-0.347	0.116	
24.915	0.046	0.092	
24.920	0.646	0.081	
24.925	-0.225	0.112	
24.930	-0.205	0.106	
24.935	0.673	0.086	
24.940	-0.006	0.112	
24.945	-0.342	0.119	
24.950	0.435	0.089	
24.955	0.348	0.098	
24.960	-0.352	0.120	
24.965	0.026	0.094	
24.970	0.621	0.078	
24.975	-0.236	0.104	
24.980	-0.203	0.095	
24.985	0.673	0.074	
24.990	-0.005	0.103	
24.995	-0.344	0.113	
25.000	0.415	0.084	
25.005	0.343	0.093	
25.010	-0.352	0.114	
25.015	0.064	0.090	
25.020	0.660	0.082	
25.025	-0.225	0.116	
25.030	-0.187	0.113	
25.035	0.701	0.095	
25.040	0.033	0.126	
25.045	-0.284	0.141	
25.050	0.545	0.122	
25.055	0.469	0.149	
25.060	-0.309	0.189	
25.065	0.128	0.173	
25.070	0.730	0.164	
25.075	-0.214	0.193	
25.080	-0.217	0.176	
25.085	0.600	0.132	
25.090	-0.068	0.129	
25.095	-0.382	0.107	
25.100	0.334	0.054	
25.105	0.253	0.042	
25.110	-0.401	0.049	
25.115	-0.046	0.016	
25.120	0.550	-0.000	
25.125	-0.271	0.028	
25.130	-0.257	0.025	
25.135	0.573	0.009	
25.140	-0.083	0.037	
25.145	-0.398	0.044	
25.150	0.408	0.018	
25.155	0.583	0.048	
25.160	-0.107	0.121	
25.165	0.702	0.185	
25.170	1.320	0.302	
25.175	0.055	0.461	
25.180	-0.153	0.513	
25.185	0.461	0.454	
25.190	-0.197	0.367	
25.195	-0.521	0.236	
25.200	0.093	0.075	
25.205	0.117	-0.028	
25.210	-0.448	-0.079	
25.215	-0.084	-0.130	
25.220	0.490	-0.136	
25.225	-0.301	-0.087	
25.230	-0.266	-0.064	
25.235	0.585	-0.053	
25.240	-0.063	0.002	
25.245	-0.385	0.031	
25.250	0.327	0.017	
25.255	0.298	0.033	
25.260	-0.375	0.060	
25.265	0.006	0.041	
25.270	0.596	0.035	
25.275	-0.248	0.070	
25.280	-0.214	0.069	
25.285	0.641	0.054	
25.290	-0.042	0.084	
25.295	-0.352	0.093	
25.300	0.376	0.063	
25.305	0.327	0.070	
25.310	-0.359	0.092	
25.315	0.027	0.069	
25.320	0.640	0.060	
25.325	-0.220	0.095	
25.330	-0.203	0.094	
25.335	0.693	0.080	
25.340	0.021	0.113	
25.345	-0.326	0.128	
25.350	0.464	0.104	
25.355	0.406	0.119	
25.360	-0.332	0.149	
25.365	0.073	0.127	
25.370	0.690	0.116	
25.375	-0.187	0.148	
25.380	-0.168	0.143	
25.385	0.739	0.124	
25.390	0.053	0.155	
25.395	-0.294	0.167	
25.400	0.539	0.142	
25.405	0.493	0.163	
25.410	-0.292	0.200	
25.415	0.127	0.183	
25.420	0.753	0.174	
25.425	-0.159	0.205	
25.430	-0.133	0.197	
25.435	0.819	0.174	
25.440	0.113	0.206	
25.445	-0.286	0.218	
25.450	0.530	0.187	
25.455	0.452	0.194	
25.460	-0.329	0.213	
25.465	0.030	0.174	
25.470	0.612	0.139	
25.475	-0.269	0.142	
25.480	-0.283	0.107	
25.485	0.472	0.054	
25.490	-0.148	0.041	
25.495	-0.463	0.014	
25.500	0.165	-0.044	
25.505	0.107	-0.066	
25.510	-0.480	-0.069	
25.515	-0.133	-0.103	
25.520	0.403	-0.117	
25.525	-0.344	-0.087	
25.530	-0.329	-0.084	
25.535	0.434	-0.094	
25.540	-0.135	-0.063	
25.545	-0.431	-0.048	
25.550	0.253	-0.066	
25.555	0.211	-0.050	
25.560	-0.425	-0.021	
25.565	-0.071	-0.036	
25.570	0.512	-0.039	
25.575	-0.283	-0.002	
25.580	-0.257	0.002	
25.585	0.576	-0.007	
25.590	-0.060	0.029	
25.595	-0.375	0.045	
25.600	0.345	0.023	
25.605	0.313	0.037	
25.610	-0.378	0.064	
25.615	-0.023	0.045	
25.620	0.571	0.033	
25.625	-0.258	0.061	
25.630	-0.237	0.055	
25.635	0.618	0.037	
25.640	-0.038	0.065	
25.645	-0.356	0.076	
25.650	0.403	0.051	
25.655	0.340	0.066	
25.660	-0.355	0.095	
25.665	0.021	0.075	
25.670	0.606	0.065	
25.675	-0.251	0.094	
25.680	-0.225	0.085	
25.685	0.644	0.062	
25.690	-0.037	0.087	
25.695	-0.358	0.093	
25.700	0.403	0.063	
25.705	0.350	0.073	
25.710	-0.367	0.098	
25.715	0.000	0.075	
25.720	0.617	0.061	
25.725	-0.229	0.089	
25.730	-0.213	0.084	
25.735	0.632	0.065	
25.740	-0.028	0.091	
25.745	-0.347	0.097	
25.750	0.412	0.068	
25.755	0.351	0.080	
25.760	-0.364	0.105	
25.765	0.018	0.082	
25.770	0.655	0.070	
25.775	-0.226	0.102	
25.780	-0.211	0.099	
25.785	0.661	0.080	
25.790	-0.011	0.106	
25.795	-0.344	0.113	
25.800	0.426	0.083	
25.805	0.363	0.093	
25.810	-0.353	0.118	
25.815	0.036	0.094	
25.820	0.631	0.081	
25.825	-0.240	0.109	
25.830	-0.216	0.099	
25.835	0.660	0.076	
25.840	-0.008	0.101	
25.845	-0.341	0.108	
25.850	0.414	0.079	
25.855	0.374	0.090	
25.860	-0.342	0.117	
25.865	0.042	0.096	
25.870	0.649	0.086	
25.875	-0.216	0.117	
25.880	-0.190	0.112	
25.885	0.713	0.094	
25.890	0.064	0.128	
25.895	-0.283	0.147	
25.900	0.541	0.131	
25.905	0.470	0.157	
25.910	-0.313	0.195	
25.915	0.082	0.174	
25.920	0.713	0.158	
25.925	-0.214	0.180	
25.930	-0.199	0.162	
25.935	0.625	0.124	
25.940	-0.051	0.128	
25.945	-0.381	0.113	
25.950	0.328	0.063	
25.955	0.272	0.052	
25.960	-0.396	0.058	
25.965	-0.038	0.025	
25.970	0.560	0.008	
25.975	-0.269	0.036	
25.980	-0.249	0.032	
25.985	0.588	0.016	
25.990	-0.068	0.045	
25.995	-0.391	0.054	
26.000	0.350	0.025	
26.005	0.476	0.042	
26.010	-0.164	0.096	
26.015	0.602	0.139	
26.020	1.278	0.241	
26.025	0.056	0.396	
26.030	-0.144	0.456	
26.035	0.489	0.413	
26.040	-0.188	0.346	
26.045	-0.512	0.230	
26.050	0.111	0.080	
26.055	0.104	-0.017	
26.060	-0.448	-0.068	
26.065	-0.069	-0.120	
26.070	0.539	-0.125	
26.075	-0.277	-0.071	
26.080	-0.248	-0.044	
26.085	0.621	-0.029	
26.090	-0.025	0.028	
26.095	-0.358	0.061	
26.100	0.365	0.049	
26.105	0.342	0.067	
26.110	-0.355	0.095	
26.115	0.010	0.075	
26.120	0.640	0.065	
26.125	-0.222	0.098	
26.130	-0.216	0.095	
26.135	0.663	0.076	
26.140	0.001	0.104	
26.145	-0.333	0.114	
26.150	0.438	0.088	
26.155	0.388	0.101	
26.160	-0.344	0.129	
26.165	0.047	0.108	
26.170	0.664	0.096	
26.175	-0.220	0.126	
26.180	-0.196	0.119	
26.185	0.696	0.097	
26.190	0.032	0.125	
26.195	-0.321	0.136	
26.200	0.452	0.109	
26.205	0.426	0.122	
26.210	-0.320	0.152	
26.215	0.114	0.133	
26.220	0.725	0.129	
26.225	-0.185	0.167	
26.230	-0.171	0.163	
26.235	0.756	0.142	
26.240	0.085	0.171	
26.245	-0.286	0.183	
26.250	0.525	0.157	
26.255	0.493	0.173	
26.260	-0.295	0.206	
26.265	0.131	0.185	
26.270	0.762	0.174	
26.275	-0.156	0.206	
26.280	-0.133	0.198	
26.285	0.800	0.175	
26.290	0.117	0.205	
26.295	-0.275	0.216	
26.300	0.516	0.186	
26.305	0.437	0.192	
26.310	-0.330	0.208	
26.315	0.020	0.168	
26.320	0.582	0.131	
26.325	-0.289	0.130	
26.330	-0.297	0.092	
26.335	0.464	0.037	
26.340	-0.144	0.025	
26.345	-0.462	0.002	
26.350	0.168	-0.051	
26.355	0.113	-0.069	
26.360	-0.471	-0.068	
26.365	-0.136	-0.100	
26.370	0.382	-0.114	
26.375	-0.353	-0.087	
26.380	-0.329	-0.088	
26.385	0.444	-0.098	
26.390	-0.126	-0.065	
26.395	-0.425	-0.048	
26.400	0.253	-0.063	
26.405	0.208	-0.046	
26.410	-0.419	-0.018	
26.415	-0.052	-0.032	
26.420	0.521	-0.033	
26.425	-0.281	0.005	
26.430	-0.268	0.009	
26.435	0.551	-0.003	
26.440	-0.058	0.027	
26.445	-0.365	0.040	
26.450	0.385	0.021	
26.455	0.334	0.041	
26.460	-0.373	0.075	
26.465	-0.019	0.058	
26.470	0.562	0.046	
26.475	-0.254	0.071	
26.480	-0.229	0.062	
26.485	0.625	0.042	
26.490	-0.032	0.070	
26.495	-0.352	0.080	
26.500	0.377	0.054	
26.505	0.316	0.064	
26.510	-0.370	0.087	
26.515	0.009	0.063	
26.520	0.599	0.051	
26.525	-0.246	0.080	
26.530	-0.226	0.074	
26.535	0.638	0.054	
26.540	-0.029	0.082	
26.545	-0.358	0.091	
26.550	0.394	0.062	
26.555	0.342	0.072	
26.560	-0.365	0.097	
26.565	-0.005	0.073	
26.570	0.615	0.059	
26.575	-0.245	0.086	
26.580	-0.213	0.080	
26.585	0.643	0.061	
26.590	-0.028	0.088	
26.595	-0.365	0.096	
26.600	0.372	0.064	
26.605	0.342	0.070	
26.610	-0.356	0.092	
26.615	0.024	0.070	
26.620	0.638	0.062	
26.625	-0.232	0.095	
26.630	-0.220	0.092	
26.635	0.657	0.073	
26.640	-0.005	0.100	
26.645	-0.330	0.110	
26.650	0.426	0.083	
26.655	0.336	0.094	
26.660	-0.365	0.116	
26.665	0.013	0.088	
26.670	0.612	0.070	
26.675	-0.245	0.095	
26.680	-0.217	0.085	
26.685	0.651	0.063	
26.690	-0.025	0.089	
26.695	-0.344	0.098	
26.700	0.403	0.070	
26.705	0.376	0.082	
26.710	-0.338	0.110	
26.715	0.065	0.093	
26.720	0.727	0.091	
26.725	-0.179	0.136	
26.730	-0.150	0.142	
26.735	0.788	0.134	
26.740	0.093	0.175	
26.745	-0.295	0.194	
26.750	0.495	0.168	
26.755	0.418	0.175	
26.760	-0.342	0.192	
26.765	0.020	0.153	
26.770	0.577	0.119	
26.775	-0.266	0.122	
26.780	-0.255	0.091	
26.785	0.553	0.049	
26.790	-0.084	0.054	
26.795	-0.396	0.046	
26.800	0.313	0.008	
26.805	0.278	0.011	
26.810	-0.382	0.033	
26.815	-0.019	0.014	
26.820	0.567	0.009	
26.825	-0.269	0.044	
26.830	-0.255	0.043	
26.835	0.628	0.027	
26.840	0.156	0.068	
26.845	-0.115	0.113	
26.850	1.083	0.161	
26.855	1.081	0.300	
26.860	-0.058	0.459	
26.865	0.258	0.510	
26.870	0.542	0.486	
26.875	-0.365	0.430	
26.880	-0.381	0.297	
26.885	0.348	0.141	
26.890	-0.171	0.045	
26.895	-0.443	-0.031	
26.900	0.263	-0.099	
26.905	0.246	-0.099	
26.910	-0.393	-0.065	
26.915	-0.013	-0.061	
26.920	0.570	-0.041	
26.925	-0.263	0.016	
26.930	-0.231	0.033	
26.935	0.632	0.031	
26.940	-0.026	0.070	
26.945	-0.356	0.087	
26.950	0.383	0.063	
26.955	0.334	0.074	
26.960	-0.358	0.098	
26.965	0.033	0.075	
26.970	0.615	0.065	
26.975	-0.237	0.096	
26.980	-0.219	0.089	
26.985	0.652	0.069	
26.990	-0.009	0.096	
26.995	-0.329	0.105	
27.000	0.452	0.081	
27.005	0.377	0.098	
27.010	-0.341	0.128	
27.015	0.061	0.108	
27.020	0.657	0.098	
27.025	-0.222	0.129	
27.030	-0.194	0.121	
27.035	0.696	0.098	
27.040	0.012	0.125	
27.045	-0.324	0.134	
27.050	0.463	0.105	
27.055	0.405	0.118	
27.060	-0.329	0.146	
27.065	0.087	0.125	
27.070	0.696	0.117	
27.075	-0.190	0.151	
27.080	-0.159	0.147	
27.085	0.754	0.129	
27.090	0.065	0.162	
27.095	-0.287	0.176	
27.100	0.551	0.152	
27.105	0.489	0.172	
27.110	-0.281	0.208	
27.115	0.174	0.192	
27.120	0.762	0.187	
27.125	-0.179	0.220	
27.130	-0.150	0.207	
27.135	0.735	0.175	
27.140	0.015	0.188	
27.145	-0.339	0.179	
27.150	0.391	0.129	
27.155	0.255	0.113	
27.160	-0.423	0.106	
27.165	-0.089	0.052	
27.170	0.408	0.007	
27.175	-0.359	0.000	
27.180	-0.344	-0.033	
27.185	0.380	-0.074	
27.190	-0.176	-0.070	
27.195	-0.468	-0.075	
27.200	0.175	-0.107	
27.205	0.108	-0.103	
27.210	-0.478	-0.086	
27.215	-0.126	-0.107	
27.220	0.408	-0.112	
27.225	-0.327	-0.078	
27.230	-0.292	-0.071	
27.235	0.510	-0.073	
27.240	-0.101	-0.032	
27.245	-0.413	-0.010	
27.250	0.276	-0.028	
27.255	0.215	-0.015	
27.260	-0.411	0.008	
27.265	-0.042	-0.013	
27.270	0.542	-0.018	
27.275	-0.274	0.018	
27.280	-0.249	0.021	
27.285	0.579	0.009	
27.290	-0.063	0.041	
27.295	-0.364	0.053	
27.300	0.385	0.031	
27.305	0.325	0.048	
27.310	-0.373	0.078	
27.315	0.015	0.059	
27.320	0.594	0.051	
27.325	-0.255	0.081	
27.330	-0.219	0.075	
27.335	0.654	0.056	
27.340	-0.051	0.084	
27.345	-0.368	0.091	
27.350	0.380	0.059	
27.355	0.308	0.064	
27.360	-0.361	0.085	
27.365	0.026	0.061	
27.370	0.611	0.052	
27.375	-0.248	0.084	
27.380	-0.219	0.080	
27.385	0.643	0.061	
27.390	-0.013	0.089	
27.395	-0.352	0.099	
27.400	0.408	0.071	
27.405	0.325	0.081	
27.410	-0.368	0.102	
27.415	0.024	0.076	
27.420	0.625	0.063	
27.425	-0.239	0.093	
27.430	-0.217	0.087	
27.435	0.612	0.066	
27.440	-0.046	0.087	
27.445	-0.349	0.090	
27.450	0.429	0.060	
27.455	0.362	0.074	
27.460	-0.350	0.105	
27.465	0.049	0.087	
27.470	0.640	0.080	
27.475	-0.237	0.112	
27.480	-0.207	0.105	
27.485	0.661	0.083	
27.490	-0.022	0.107	
27.495	-0.336	0.112	
27.500	0.449	0.083	
27.505	0.343	0.095	
27.510	-0.356	0.119	
27.515	0.041	0.094	
27.520	0.626	0.080	
27.525	-0.236	0.108	
27.530	-0.200	0.099	
27.535	0.657	0.078	
27.540	-0.028	0.103	
27.545	-0.342	0.108	
27.550	0.427	0.078	
27.555	0.351	0.088	
27.560	-0.364	0.112	
27.565	0.046	0.088	
27.570	0.631	0.077	
27.575	-0.237	0.106	
27.580	-0.202	0.099	
27.585	0.669	0.078	
27.590	-0.029	0.105	
27.595	-0.336	0.111	
27.600	0.452	0.082	
27.605	0.357	0.095	
27.610	-0.346	0.122	
27.615	0.064	0.100	
27.620	0.666	0.092	
27.625	-0.203	0.126	
27.630	-0.155	0.124	
27.635	0.750	0.111	
27.640	0.058	0.149	
27.645	-0.283	0.167	
27.650	0.551	0.147	
27.655	0.435	0.168	
27.660	-0.309	0.199	
27.665	0.107	0.174	
27.670	0.661	0.155	
27.675	-0.248	0.172	
27.680	-0.219	0.146	
27.685	0.617	0.103	
27.690	-0.072	0.107	
27.695	-0.376	0.093	
27.700	0.347	0.047	
27.705	0.258	0.042	
27.710	-0.399	0.054	
27.715	-0.019	0.023	
27.720	0.537	0.009	
27.725	-0.283	0.036	
27.730	-0.243	0.030	
27.735	0.553	0.012	
27.740	-0.101	0.035	
27.745	-0.350	0.041	
27.750	0.629	0.028	
27.755	0.816	0.096	
27.760	0.036	0.218	
27.765	0.785	0.315	
27.770	1.188	0.433	
27.775	-0.109	0.552	
27.780	-0.246	0.542	
27.785	0.377	0.427	
27.790	-0.220	0.305	
27.795	-0.492	0.163	
27.800	0.151	0.014	
27.805	0.131	-0.064	
27.810	-0.440	-0.092	
27.815	-0.064	-0.126	
27.820	0.457	-0.125	
27.825	-0.303	-0.076	
27.830	-0.252	-0.057	
27.835	0.557	-0.048	
27.840	-0.086	0.001	
27.845	-0.370	0.025	
27.850	0.340	0.010	
27.855	0.247	0.027	
27.860	-0.388	0.051	
27.865	0.004	0.029	
27.870	0.571	0.021	
27.875	-0.254	0.055	
27.880	-0.216	0.054	
27.885	0.628	0.041	
27.890	-0.048	0.073	
27.895	-0.344	0.084	
27.900	0.420	0.059	
27.905	0.337	0.075	
27.910	-0.352	0.103	
27.915	0.052	0.083	
27.920	0.618	0.075	
27.925	-0.236	0.106	
27.930	-0.171	0.100	
27.935	0.699	0.085	
27.940	-0.005	0.118	
27.945	-0.320	0.129	
27.950	0.461	0.103	
27.955	0.371	0.116	
27.960	-0.326	0.141	
27.965	0.113	0.120	
27.970	0.695	0.115	
27.975	-0.213	0.151	
27.980	-0.159	0.145	
27.985	0.761	0.127	
27.990	0.072	0.160	
27.995	-0.263	0.177	
28.000	0.585	0.158	
28.005	0.489	0.184	
28.010	-0.278	0.222	
28.015	0.209	0.207	
28.020	0.758	0.202	
28.025	-0.165	0.234	
28.030	-0.122	0.221	
28.035	0.782	0.191	
28.040	0.070	0.211	
28.045	-0.266	0.212	
28.050	0.528	0.176	
28.055	0.371	0.180	
28.060	-0.349	0.191	
28.065	0.010	0.147	
28.070	0.515	0.106	
28.075	-0.315	0.100	
28.080	-0.297	0.060	
28.085	0.443	0.007	
28.090	-0.173	-0.001	
28.095	-0.442	-0.020	
28.100	0.191	-0.066	
28.105	0.073	-0.076	
28.110	-0.465	-0.073	
28.115	-0.107	-0.102	
28.120	0.369	-0.112	
28.125	-0.352	-0.083	
28.130	-0.307	-0.083	
28.135	0.458	-0.091	
28.140	-0.145	-0.057	
28.145	-0.416	-0.041	
28.150	0.281	-0.058	
28.155	0.189	-0.040	
28.160	-0.413	-0.012	
28.165	-0.034	-0.027	
28.170	0.512	-0.028	
28.175	-0.284	0.009	
28.180	-0.242	0.012	
28.185	0.577	0.002	
28.190	-0.075	0.036	
28.195	-0.353	0.049	
28.200	0.371	0.028	
28.205	0.267	0.042	
28.210	-0.370	0.066	
28.215	0.021	0.045	
28.220	0.562	0.037	
28.225	-0.266	0.067	
28.230	-0.223	0.060	
28.235	0.596	0.040	
28.240	-0.064	0.065	
28.245	-0.338	0.071	
28.250	0.431	0.047	
28.255	0.307	0.064	
28.260	-0.358	0.093	
28.265	0.038	0.073	
28.270	0.585	0.063	
28.275	-0.262	0.091	
28.280	-0.207	0.081	
28.285	0.629	0.059	
28.290	-0.032	0.084	
28.295	-0.338	0.092	
28.300	0.421	0.065	
28.305	0.307	0.078	
28.310	-0.353	0.101	
28.315	0.062	0.078	
28.320	0.592	0.069	
28.325	-0.252	0.098	
28.330	-0.194	0.089	
28.335	0.657	0.069	
28.340	-0.042	0.096	
28.345	-0.332	0.103	
28.350	0.434	0.075	
28.355	0.321	0.087	
28.360	-0.344	0.110	
28.365	0.076	0.088	
28.370	0.618	0.080	
28.375	-0.245	0.111	
28.380	-0.185	0.103	
28.385	0.660	0.082	
28.390	-0.035	0.108	
28.395	-0.333	0.112	
28.400	0.449	0.082	
28.405	0.330	0.093	
28.410	-0.350	0.116	
28.415	0.079	0.093	
28.420	0.611	0.084	
28.425	-0.245	0.112	
28.430	-0.168	0.104	
28.435	0.695	0.085	
28.440	-0.017	0.116	
28.445	-0.323	0.126	
28.450	0.453	0.097	
28.455	0.327	0.108	
28.460	-0.359	0.127	
28.465	0.070	0.099	
28.470	0.600	0.084	
28.475	-0.237	0.109	
28.480	-0.171	0.099	
28.485	0.663	0.080	
28.490	-0.042	0.107	
28.495	-0.323	0.112	
28.500	0.446	0.083	
28.505	0.325	0.095	
28.510	-0.352	0.117	
28.515	0.055	0.092	
28.520	0.592	0.079	
28.525	-0.240	0.104	
28.530	-0.168	0.094	
28.535	0.673	0.077	
28.540	-0.040	0.106	
28.545	-0.326	0.114	
28.550	0.438	0.085	
28.555	0.324	0.095	
28.560	-0.353	0.116	
28.565	0.067	0.091	
28.570	0.608	0.079	
28.575	-0.243	0.107	
28.580	-0.184	0.098	
28.585	0.675	0.079	
28.590	-0.016	0.108	
28.595	-0.301	0.118	
28.600	0.498	0.095	
28.605	0.408	0.118	
28.610	-0.286	0.154	
28.615	0.215	0.146	
28.620	0.725	0.155	
28.625	-0.177	0.200	
28.630	-0.136	0.196	
28.635	0.715	0.170	
28.640	-0.026	0.184	
28.645	-0.330	0.172	
28.650	0.403	0.122	
28.655	0.235	0.107	
28.660	-0.391	0.103	
28.665	-0.014	0.055	
28.670	0.493	0.025	
28.675	-0.297	0.037	
28.680	-0.232	0.021	
28.685	0.554	-0.001	
28.690	-0.100	0.025	
28.695	-0.361	0.032	
28.700	0.359	0.009	
28.705	0.180	0.020	
28.710	-0.416	0.036	
28.715	0.062	0.010	
28.720	0.861	0.022	
28.725	0.108	0.111	
28.730	0.466	0.205	
28.735	1.431	0.328	
28.740	0.467	0.503	
28.745	-0.262	0.593	
28.750	0.250	0.537	
28.755	-0.013	0.421	
28.760	-0.532	0.272	
28.765	-0.148	0.092	
28.770	0.340	-0.036	
28.775	-0.359	-0.084	
28.780	-0.278	-0.123	
28.785	0.498	-0.138	
28.790	-0.130	-0.093	
28.795	-0.394	-0.061	
28.800	0.339	-0.061	
28.805	0.203	-0.027	
28.810	-0.402	0.010	
28.815	-0.003	-0.001	
28.820	0.521	-0.001	
28.825	-0.280	0.034	
28.830	-0.213	0.033	
28.835	0.612	0.023	
28.840	-0.078	0.056	
28.845	-0.349	0.067	
28.850	0.409	0.043	
28.855	0.270	0.058	
28.860	-0.361	0.081	
28.865	0.079	0.061	
28.870	0.563	0.056	
28.875	-0.263	0.087	
28.880	-0.194	0.079	
28.885	0.658	0.061	
28.890	-0.046	0.090	
28.895	-0.320	0.099	
28.900	0.464	0.075	
28.905	0.327	0.093	
28.910	-0.347	0.120	
28.915	0.111	0.099	
28.920	0.632	0.094	
28.925	-0.229	0.127	
28.930	-0.156	0.121	
28.935	0.713	0.103	
28.940	-0.014	0.133	
28.945	-0.298	0.142	
28.950	0.519	0.115	
28.955	0.371	0.132	
28.960	-0.306	0.160	
28.965	0.189	0.142	
28.970	0.736	0.144	
28.975	-0.182	0.187	
28.980	-0.116	0.185	
28.985	0.793	0.168	
28.990	0.062	0.199	
28.995	-0.260	0.208	
29.000	0.570	0.179	
29.005	0.411	0.191	
29.010	-0.303	0.212	
29.015	0.189	0.183	
29.020	0.660	0.169	
29.025	-0.242	0.189	
29.030	-0.200	0.163	
29.035	0.583	0.118	
29.040	-0.113	0.113	
29.045	-0.404	0.087	
29.050	0.263	0.028	
29.055	0.091	0.004	
29.060	-0.482	-0.010	
29.065	-0.110	-0.061	
29.070	0.310	-0.093	
29.075	-0.388	-0.085	
29.080	-0.317	-0.102	
29.085	0.414	-0.120	
29.090	-0.199	-0.092	
29.095	-0.459	-0.082	
29.100	0.215	-0.103	
29.105	0.108	-0.091	
29.110	-0.440	-0.069	
29.115	-0.055	-0.083	
29.120	0.441	-0.080	
29.125	-0.327	-0.041	
29.130	-0.251	-0.035	
29.135	0.521	-0.040	
29.140	-0.124	-0.005	
29.145	-0.371	0.009	
29.150	0.397	-0.007	
29.155	0.238	0.016	
29.160	-0.388	0.047	
29.165	0.024	0.030	
29.170	0.534	0.025	
29.175	-0.284	0.055	
29.180	-0.210	0.049	
29.185	0.631	0.033	
29.190	-0.071	0.065	
29.195	-0.339	0.075	
29.200	0.437	0.052	
29.205	0.273	0.068	
29.210	-0.358	0.092	
29.215	0.085	0.071	
29.220	0.588	0.066	
29.225	-0.258	0.097	
29.230	-0.184	0.090	
29.235	0.652	0.071	
29.240	-0.063	0.097	
29.245	-0.321	0.102	
29.250	0.492	0.075	
29.255	0.298	0.093	
29.260	-0.362	0.118	
29.265	0.072	0.092	
29.270	0.583	0.079	
29.275	-0.258	0.103	
29.280	-0.184	0.091	
29.285	0.661	0.069	
29.290	-0.058	0.096	
29.295	-0.327	0.101	
29.300	0.460	0.074	
29.305	0.284	0.087	
29.310	-0.352	0.108	
29.315	0.073	0.083	
29.320	0.605	0.074	
29.325	-0.252	0.103	
29.330	-0.177	0.095	
29.335	0.657	0.076	
29.340	-0.054	0.102	
29.345	-0.318	0.107	
29.350	0.464	0.079	
29.355	0.305	0.093	
29.360	-0.346	0.116	
29.365	0.093	0.093	
29.370	0.596	0.084	
29.375	-0.251	0.112	
29.380	-0.179	0.101	
29.385	0.663	0.080	
29.390	-0.057	0.105	
29.395	-0.330	0.108	
29.400	0.447	0.077	
29.405	0.305	0.088	
29.410	-0.358	0.109	
29.415	0.105	0.085	
29.420	0.614	0.080	
29.425	-0.249	0.112	
29.430	-0.168	0.105	
29.435	0.663	0.085	
29.440	-0.046	0.111	
29.445	-0.310	0.116	
29.450	0.510	0.089	
29.455	0.324	0.107	
29.460	-0.333	0.134	
29.465	0.169	0.115	
29.470	0.692	0.116	
29.475	-0.196	0.158	
29.480	-0.118	0.158	
29.485	0.768	0.144	
