Vernier Format 2
ecg6.txt 10/21/2025 9:42:26
Run 1
Time	Potential	EKG	
T	P	E	
s	mV	mV	

0.000	0.651	0.030	
0.005	0.357	0.116	
0.010	0.496	0.222	
0.015	0.834	0.335	
0.020	0.588	0.455	
0.025	0.513	0.547	
0.030	0.922	0.608	
0.035	0.800	0.671	
0.040	0.479	0.717	
0.045	0.741	0.723	
0.050	0.765	0.718	
0.055	0.342	0.704	
0.060	0.357	0.650	
0.065	0.574	0.579	
0.070	0.203	0.516	
0.075	0.029	0.436	
0.080	0.305	0.343	
0.085	0.143	0.270	
0.090	-0.113	0.206	
0.095	0.085	0.137	
0.100	0.130	0.086	
0.105	-0.138	0.055	
0.110	-0.075	0.019	
0.115	0.097	-0.011	
0.120	-0.145	-0.025	
0.125	-0.208	-0.045	
0.130	0.010	-0.073	
0.135	-0.077	-0.085	
0.140	-0.243	-0.093	
0.145	-0.084	-0.110	
0.150	-0.023	-0.118	
0.155	-0.243	-0.117	
0.160	-0.185	-0.127	
0.165	-0.020	-0.138	
0.170	-0.205	-0.138	
0.175	-0.236	-0.143	
0.180	-0.023	-0.151	
0.185	-0.127	-0.146	
0.190	-0.269	-0.142	
0.195	-0.074	-0.148	
0.200	0.017	-0.142	
0.205	-0.203	-0.124	
0.210	-0.126	-0.116	
0.215	0.096	-0.107	
0.220	-0.126	-0.086	
0.225	-0.185	-0.075	
0.230	0.075	-0.076	
0.235	-0.064	-0.066	
0.240	-0.229	-0.063	
0.245	-0.068	-0.077	
0.250	-0.058	-0.089	
0.255	-0.295	-0.101	
0.260	-0.243	-0.129	
0.265	-0.103	-0.160	
0.270	-0.254	-0.178	
0.275	-0.292	-0.196	
0.280	-0.098	-0.211	
0.285	-0.165	-0.210	
0.290	-0.300	-0.205	
0.295	-0.121	-0.205	
0.300	-0.042	-0.194	
0.305	-0.200	-0.172	
0.310	-0.071	-0.153	
0.315	0.263	-0.119	
0.320	0.107	-0.054	
0.325	0.018	0.010	
0.330	0.094	0.051	
0.335	-0.309	0.057	
0.340	-0.672	-0.006	
0.345	-0.683	-0.143	
0.350	-0.663	-0.309	
0.355	-0.761	-0.462	
0.360	-0.592	-0.579	
0.365	-0.338	-0.636	
0.370	-0.359	-0.621	
0.375	-0.283	-0.561	
0.380	0.050	-0.468	
0.385	0.024	-0.344	
0.390	-0.122	-0.220	
0.395	0.163	-0.121	
0.400	0.261	-0.029	
0.405	-0.054	0.051	
0.410	0.056	0.091	
0.415	0.360	0.113	
0.420	0.068	0.142	
0.425	0.018	0.154	
0.430	0.336	0.151	
0.435	0.204	0.164	
0.440	-0.017	0.173	
0.445	0.305	0.168	
0.450	0.411	0.180	
0.455	0.110	0.210	
0.460	0.334	0.231	
0.465	0.649	0.264	
0.470	0.392	0.325	
0.475	0.347	0.377	
0.480	0.742	0.418	
0.485	0.614	0.473	
0.490	0.343	0.520	
0.495	0.602	0.535	
0.500	0.597	0.542	
0.505	0.189	0.537	
0.510	0.275	0.494	
0.515	0.463	0.436	
0.520	0.076	0.387	
0.525	-0.063	0.316	
0.530	0.197	0.230	
0.535	0.013	0.161	
0.540	-0.184	0.099	
0.545	-0.032	0.033	
0.550	-0.026	-0.019	
0.555	-0.239	-0.055	
0.560	-0.179	-0.095	
0.565	-0.045	-0.126	
0.570	-0.222	-0.141	
0.575	-0.255	-0.157	
0.580	-0.069	-0.172	
0.585	-0.179	-0.175	
0.590	-0.310	-0.178	
0.595	-0.156	-0.190	
0.600	-0.152	-0.197	
0.605	-0.341	-0.201	
0.610	-0.275	-0.217	
0.615	-0.132	-0.232	
0.620	-0.292	-0.235	
0.625	-0.313	-0.240	
0.630	-0.103	-0.246	
0.635	-0.185	-0.236	
0.640	-0.318	-0.224	
0.645	-0.152	-0.221	
0.650	-0.106	-0.213	
0.655	-0.266	-0.198	
0.660	-0.168	-0.192	
0.665	-0.002	-0.181	
0.670	-0.208	-0.160	
0.675	-0.248	-0.151	
0.680	-0.052	-0.153	
0.685	-0.141	-0.149	
0.690	-0.294	-0.148	
0.695	-0.144	-0.161	
0.700	-0.121	-0.170	
0.705	-0.313	-0.175	
0.710	-0.242	-0.191	
0.715	-0.103	-0.205	
0.720	-0.287	-0.208	
0.725	-0.321	-0.217	
0.730	-0.103	-0.229	
0.735	-0.213	-0.227	
0.740	-0.338	-0.224	
0.745	-0.158	-0.229	
0.750	-0.113	-0.225	
0.755	-0.258	-0.211	
0.760	-0.121	-0.200	
0.765	0.137	-0.174	
0.770	-0.055	-0.125	
0.775	-0.011	-0.077	
0.780	0.250	-0.031	
0.785	-0.173	0.012	
0.790	-0.547	0.001	
0.795	-0.602	-0.091	
0.800	-0.640	-0.229	
0.805	-0.740	-0.376	
0.810	-0.587	-0.504	
0.815	-0.376	-0.579	
0.820	-0.411	-0.590	
0.825	-0.336	-0.558	
0.830	-0.038	-0.490	
0.835	-0.077	-0.389	
0.840	-0.179	-0.285	
0.845	0.122	-0.196	
0.850	0.201	-0.103	
0.855	-0.095	-0.019	
0.860	0.042	0.029	
0.865	0.278	0.059	
0.870	-0.002	0.091	
0.875	-0.025	0.101	
0.880	0.330	0.100	
0.885	0.166	0.118	
0.890	-0.049	0.134	
0.895	0.314	0.134	
0.900	0.418	0.156	
0.905	0.084	0.195	
0.910	0.307	0.219	
0.915	0.605	0.251	
0.920	0.328	0.305	
0.925	0.339	0.349	
0.930	0.692	0.385	
0.935	0.521	0.435	
0.940	0.290	0.473	
0.945	0.617	0.483	
0.950	0.551	0.495	
0.955	0.108	0.494	
0.960	0.203	0.447	
0.965	0.371	0.382	
0.970	-0.025	0.322	
0.975	-0.122	0.242	
0.980	0.088	0.150	
0.985	-0.083	0.076	
0.990	-0.245	0.010	
0.995	-0.087	-0.054	
1.000	-0.086	-0.099	
1.005	-0.284	-0.128	
1.010	-0.208	-0.159	
1.015	-0.078	-0.180	
1.020	-0.239	-0.185	
1.025	-0.275	-0.192	
1.030	-0.071	-0.200	
1.035	-0.194	-0.195	
1.040	-0.309	-0.192	
1.045	-0.130	-0.198	
1.050	-0.129	-0.197	
1.055	-0.303	-0.192	
1.060	-0.207	-0.198	
1.065	-0.058	-0.199	
1.070	-0.240	-0.190	
1.075	-0.255	-0.186	
1.080	-0.055	-0.188	
1.085	-0.150	-0.177	
1.090	-0.263	-0.168	
1.095	-0.066	-0.167	
1.100	-0.066	-0.157	
1.105	-0.243	-0.143	
1.110	-0.135	-0.142	
1.115	0.007	-0.138	
1.120	-0.207	-0.126	
1.125	-0.220	-0.126	
1.130	-0.022	-0.133	
1.135	-0.162	-0.132	
1.140	-0.291	-0.136	
1.145	-0.142	-0.154	
1.150	-0.165	-0.169	
1.155	-0.355	-0.183	
1.160	-0.265	-0.209	
1.165	-0.138	-0.230	
1.170	-0.298	-0.237	
1.175	-0.301	-0.244	
1.180	-0.109	-0.249	
1.185	-0.200	-0.239	
1.190	-0.309	-0.228	
1.195	-0.098	-0.222	
1.200	-0.040	-0.204	
1.205	-0.191	-0.174	
1.210	0.021	-0.146	
1.215	0.322	-0.097	
1.220	0.009	-0.024	
1.225	-0.148	0.025	
1.230	-0.193	0.022	
1.235	-0.500	-0.031	
1.240	-0.726	-0.140	
1.245	-0.604	-0.285	
1.250	-0.540	-0.418	
1.255	-0.621	-0.513	
1.260	-0.426	-0.567	
1.265	-0.232	-0.567	
1.270	-0.304	-0.518	
1.275	-0.214	-0.447	
1.280	0.136	-0.357	
1.285	0.023	-0.243	
1.290	-0.126	-0.140	
1.295	0.181	-0.065	
1.300	0.236	0.005	
1.305	-0.051	0.067	
1.310	0.107	0.096	
1.315	0.328	0.115	
1.320	-0.002	0.139	
1.325	-0.008	0.139	
1.330	0.362	0.130	
1.335	0.211	0.144	
1.340	0.023	0.161	
1.345	0.400	0.170	
1.350	0.449	0.202	
1.355	0.149	0.247	
1.360	0.409	0.277	
1.365	0.690	0.317	
1.370	0.405	0.380	
1.375	0.372	0.427	
1.380	0.684	0.456	
1.385	0.502	0.489	
1.390	0.247	0.505	
1.395	0.531	0.490	
1.400	0.475	0.474	
1.405	0.026	0.449	
1.410	0.146	0.384	
1.415	0.275	0.309	
1.420	-0.086	0.243	
1.425	-0.145	0.164	
1.430	0.067	0.080	
1.435	-0.112	0.019	
1.440	-0.255	-0.034	
1.445	-0.064	-0.085	
1.450	-0.078	-0.116	
1.455	-0.275	-0.133	
1.460	-0.174	-0.154	
1.465	-0.058	-0.167	
1.470	-0.258	-0.168	
1.475	-0.263	-0.176	
1.480	-0.038	-0.186	
1.485	-0.165	-0.179	
1.490	-0.294	-0.174	
1.495	-0.113	-0.179	
1.500	-0.098	-0.177	
1.505	-0.274	-0.170	
1.510	-0.147	-0.172	
1.515	0.023	-0.166	
1.520	-0.208	-0.147	
1.525	-0.216	-0.139	
1.530	0.017	-0.138	
1.535	-0.127	-0.126	
1.540	-0.223	-0.118	
1.545	0.012	-0.119	
1.550	-0.005	-0.106	
1.555	-0.229	-0.091	
1.560	-0.121	-0.094	
1.565	0.012	-0.099	
1.570	-0.219	-0.098	
1.575	-0.219	-0.109	
1.580	-0.011	-0.125	
1.585	-0.165	-0.129	
1.590	-0.286	-0.136	
1.595	-0.124	-0.154	
1.600	-0.133	-0.165	
1.605	-0.327	-0.173	
1.610	-0.228	-0.192	
1.615	-0.107	-0.207	
1.620	-0.258	-0.209	
1.625	-0.260	-0.212	
1.630	-0.038	-0.212	
1.635	-0.132	-0.194	
1.640	-0.205	-0.173	
1.645	0.149	-0.149	
1.650	0.241	-0.094	
1.655	0.020	-0.020	
1.660	0.296	0.047	
1.665	0.258	0.111	
1.670	-0.304	0.146	
1.675	-0.514	0.096	
1.680	-0.492	-0.030	
1.685	-0.614	-0.184	
1.690	-0.637	-0.335	
1.695	-0.408	-0.453	
1.700	-0.339	-0.510	
1.705	-0.401	-0.513	
1.710	-0.194	-0.481	
1.715	0.078	-0.410	
1.720	-0.086	-0.305	
1.725	-0.025	-0.202	
1.730	0.351	-0.105	
1.735	0.186	0.003	
1.740	0.003	0.088	
1.745	0.339	0.139	
1.750	0.307	0.183	
1.755	-0.013	0.215	
1.760	0.217	0.214	
1.765	0.443	0.214	
1.770	0.139	0.231	
1.775	0.185	0.239	
1.780	0.597	0.250	
1.785	0.414	0.292	
1.790	0.188	0.333	
1.795	0.570	0.354	
1.800	0.637	0.390	
1.805	0.398	0.439	
1.810	0.638	0.478	
1.815	0.825	0.524	
1.820	0.457	0.577	
1.825	0.455	0.597	
1.830	0.790	0.597	
1.835	0.560	0.606	
1.840	0.279	0.600	
1.845	0.537	0.562	
1.850	0.421	0.522	
1.855	0.018	0.471	
1.860	0.166	0.387	
1.865	0.285	0.304	
1.870	-0.083	0.237	
1.875	-0.130	0.160	
1.880	0.087	0.081	
1.885	-0.097	0.024	
1.890	-0.211	-0.022	
1.895	0.036	-0.064	
1.900	0.033	-0.077	
1.905	-0.214	-0.074	
1.910	-0.101	-0.082	
1.915	0.056	-0.088	
1.920	-0.174	-0.082	
1.925	-0.168	-0.085	
1.930	0.108	-0.089	
1.935	-0.084	-0.077	
1.940	-0.217	-0.069	
1.945	0.032	-0.075	
1.950	0.021	-0.070	
1.955	-0.197	-0.061	
1.960	-0.090	-0.066	
1.965	0.073	-0.071	
1.970	-0.145	-0.064	
1.975	-0.115	-0.064	
1.980	0.186	-0.061	
1.985	-0.037	-0.038	
1.990	-0.165	-0.022	
1.995	0.084	-0.024	
2.000	0.053	-0.017	
2.005	-0.197	-0.011	
2.010	-0.084	-0.026	
2.015	0.029	-0.044	
2.020	-0.239	-0.057	
2.025	-0.236	-0.084	
2.030	-0.025	-0.116	
2.035	-0.168	-0.131	
2.040	-0.255	-0.143	
2.045	-0.058	-0.156	
2.050	-0.083	-0.155	
2.055	-0.266	-0.148	
2.060	-0.129	-0.152	
2.065	0.001	-0.150	
2.070	-0.207	-0.137	
2.075	-0.165	-0.131	
2.080	0.188	-0.121	
2.085	0.061	-0.081	
2.090	0.000	-0.032	
2.095	0.434	0.021	
2.100	0.360	0.099	
2.105	-0.196	0.164	
2.110	-0.309	0.150	
2.115	-0.404	0.059	
2.120	-0.648	-0.078	
2.125	-0.639	-0.239	
2.130	-0.420	-0.382	
2.135	-0.446	-0.471	
2.140	-0.428	-0.508	
2.145	-0.121	-0.498	
2.150	-0.005	-0.433	
2.155	-0.145	-0.333	
2.160	0.130	-0.231	
2.165	0.372	-0.115	
2.170	0.046	0.005	
2.175	0.108	0.090	
2.180	0.472	0.149	
2.185	0.233	0.210	
2.190	0.084	0.248	
2.195	0.475	0.262	
2.200	0.415	0.287	
2.205	0.058	0.309	
2.210	0.319	0.302	
2.215	0.534	0.300	
2.220	0.244	0.319	
2.225	0.348	0.332	
2.230	0.742	0.355	
2.235	0.504	0.409	
2.240	0.368	0.457	
2.245	0.788	0.490	
2.250	0.806	0.543	
2.255	0.510	0.603	
2.260	0.733	0.639	
2.265	0.854	0.670	
2.270	0.460	0.695	
2.275	0.412	0.680	
2.280	0.661	0.637	
2.285	0.383	0.596	
2.290	0.142	0.538	
2.295	0.418	0.460	
2.300	0.275	0.395	
2.305	-0.097	0.330	
2.310	0.058	0.244	
2.315	0.197	0.166	
2.320	-0.130	0.112	
2.325	-0.133	0.056	
2.330	0.122	0.005	
2.335	-0.092	-0.020	
2.340	-0.193	-0.040	
2.345	0.050	-0.063	
2.350	-0.002	-0.066	
2.355	-0.203	-0.063	
2.360	-0.074	-0.072	
2.365	0.050	-0.077	
2.370	-0.190	-0.073	
2.375	-0.164	-0.080	
2.380	0.091	-0.089	
2.385	-0.104	-0.080	
2.390	-0.194	-0.076	
2.395	0.050	-0.080	
2.400	-0.011	-0.072	
2.405	-0.207	-0.063	
2.410	-0.017	-0.067	
2.415	0.195	-0.059	
2.420	-0.104	-0.032	
2.425	-0.077	-0.017	
2.430	0.195	-0.009	
2.435	-0.048	0.009	
2.440	-0.152	0.013	
2.445	0.127	0.003	
2.450	0.021	0.003	
2.455	-0.207	0.001	
2.460	-0.081	-0.022	
2.465	0.018	-0.046	
2.470	-0.237	-0.062	
2.475	-0.207	-0.089	
2.480	0.015	-0.115	
2.485	-0.156	-0.122	
2.490	-0.251	-0.128	
2.495	-0.025	-0.139	
2.500	-0.066	-0.136	
2.505	-0.248	-0.128	
2.510	-0.068	-0.129	
2.515	0.127	-0.118	
2.520	-0.109	-0.087	
2.525	0.007	-0.060	
2.530	0.438	-0.019	
2.535	0.253	0.057	
2.540	0.010	0.128	
2.545	0.026	0.153	
2.550	-0.260	0.128	
2.555	-0.592	0.042	
2.560	-0.579	-0.101	
2.565	-0.515	-0.258	
2.570	-0.622	-0.390	
2.575	-0.503	-0.487	
2.580	-0.197	-0.530	
2.585	-0.187	-0.503	
2.590	-0.197	-0.432	
2.595	0.171	-0.337	
2.600	0.185	-0.212	
2.605	-0.034	-0.089	
2.610	0.244	0.005	
2.615	0.420	0.091	
2.620	0.093	0.170	
2.625	0.157	0.213	
2.630	0.496	0.237	
2.635	0.252	0.269	
2.640	0.127	0.287	
2.645	0.505	0.290	
2.650	0.472	0.312	
2.655	0.211	0.342	
2.660	0.472	0.356	
2.665	0.602	0.379	
2.670	0.273	0.410	
2.675	0.406	0.421	
2.680	0.805	0.436	
2.685	0.589	0.483	
2.690	0.472	0.531	
2.695	0.858	0.566	
2.700	0.765	0.616	
2.705	0.391	0.654	
2.710	0.628	0.653	
2.715	0.758	0.643	
2.720	0.345	0.634	
2.725	0.333	0.595	
2.730	0.596	0.540	
2.735	0.279	0.496	
2.740	0.059	0.439	
2.745	0.322	0.363	
2.750	0.154	0.299	
2.755	-0.145	0.234	
2.760	0.033	0.154	
2.765	0.180	0.091	
2.770	-0.121	0.056	
2.775	-0.086	0.021	
2.780	0.175	-0.005	
2.785	-0.060	-0.007	
2.790	-0.153	-0.012	
2.795	0.101	-0.024	
2.800	0.006	-0.023	
2.805	-0.207	-0.023	
2.810	-0.069	-0.040	
2.815	0.039	-0.056	
2.820	-0.210	-0.062	
2.825	-0.193	-0.080	
2.830	0.033	-0.100	
2.835	-0.142	-0.104	
2.840	-0.214	-0.108	
2.845	0.041	-0.115	
2.850	-0.016	-0.104	
2.855	-0.199	-0.088	
2.860	-0.005	-0.083	
2.865	0.143	-0.068	
2.870	-0.155	-0.043	
2.875	-0.121	-0.035	
2.880	0.116	-0.038	
2.885	-0.112	-0.033	
2.890	-0.200	-0.038	
2.895	0.042	-0.055	
2.900	-0.016	-0.060	
2.905	-0.239	-0.061	
2.910	-0.126	-0.079	
2.915	-0.075	-0.100	
2.920	-0.284	-0.117	
2.925	-0.243	-0.145	
2.930	-0.042	-0.169	
2.935	-0.200	-0.174	
2.940	-0.268	-0.178	
2.945	-0.066	-0.183	
2.950	-0.129	-0.177	
2.955	-0.291	-0.169	
2.960	-0.080	-0.171	
2.965	0.145	-0.154	
2.970	-0.072	-0.111	
2.975	0.099	-0.065	
2.980	0.507	-0.001	
2.985	0.185	0.091	
2.990	-0.181	0.151	
2.995	-0.234	0.134	
3.000	-0.497	0.048	
3.005	-0.781	-0.096	
3.010	-0.669	-0.275	
3.015	-0.543	-0.435	
3.020	-0.627	-0.543	
3.025	-0.454	-0.600	
3.030	-0.142	-0.595	
3.035	-0.155	-0.523	
3.040	-0.132	-0.419	
3.045	0.267	-0.297	
3.050	0.224	-0.153	
3.055	-0.034	-0.023	
3.060	0.272	0.065	
3.065	0.444	0.140	
3.070	0.111	0.210	
3.075	0.145	0.243	
3.080	0.455	0.254	
3.085	0.166	0.269	
3.090	0.027	0.264	
3.095	0.444	0.244	
3.100	0.405	0.250	
3.105	0.143	0.271	
3.110	0.457	0.284	
3.115	0.617	0.316	
3.120	0.292	0.364	
3.125	0.453	0.397	
3.130	0.835	0.434	
3.135	0.576	0.496	
3.140	0.444	0.548	
3.145	0.799	0.576	
3.150	0.687	0.610	
3.155	0.348	0.630	
3.160	0.589	0.615	
3.165	0.641	0.594	
3.170	0.221	0.571	
3.175	0.252	0.515	
3.180	0.505	0.450	
3.185	0.163	0.401	
3.190	-0.029	0.339	
3.195	0.278	0.264	
3.200	0.140	0.209	
3.205	-0.145	0.163	
3.210	0.013	0.103	
3.215	0.116	0.055	
3.220	-0.156	0.025	
3.225	-0.116	-0.009	
3.230	0.125	-0.036	
3.235	-0.113	-0.042	
3.240	-0.200	-0.051	
3.245	0.029	-0.068	
3.250	-0.074	-0.074	
3.255	-0.265	-0.081	
3.260	-0.103	-0.102	
3.265	-0.038	-0.117	
3.270	-0.260	-0.123	
3.275	-0.197	-0.138	
3.280	-0.013	-0.151	
3.285	-0.170	-0.147	
3.290	-0.242	-0.146	
3.295	-0.023	-0.149	
3.300	-0.080	-0.141	
3.305	-0.236	-0.130	
3.310	-0.054	-0.128	
3.315	0.067	-0.117	
3.320	-0.167	-0.093	
3.325	-0.112	-0.082	
3.330	0.124	-0.074	
3.335	-0.127	-0.056	
3.340	-0.202	-0.052	
3.345	0.065	-0.062	
3.350	-0.051	-0.061	
3.355	-0.240	-0.062	
3.360	-0.112	-0.081	
3.365	-0.063	-0.099	
3.370	-0.269	-0.114	
3.375	-0.236	-0.138	
3.380	-0.072	-0.162	
3.385	-0.226	-0.172	
3.390	-0.280	-0.182	
3.395	-0.072	-0.193	
3.400	-0.132	-0.189	
3.405	-0.268	-0.179	
3.410	-0.068	-0.176	
3.415	0.096	-0.156	
3.420	-0.103	-0.116	
3.425	0.102	-0.075	
3.430	0.580	-0.010	
3.435	0.314	0.097	
3.440	0.000	0.187	
3.445	-0.092	0.207	
3.450	-0.443	0.150	
3.455	-0.776	0.013	
3.460	-0.697	-0.181	
3.465	-0.614	-0.371	
3.470	-0.682	-0.517	
3.475	-0.508	-0.608	
3.480	-0.220	-0.629	
3.485	-0.231	-0.577	
3.490	-0.190	-0.486	
3.495	0.224	-0.369	
3.500	0.169	-0.224	
3.505	-0.068	-0.088	
3.510	0.244	0.008	
3.515	0.356	0.089	
3.520	-0.005	0.157	
3.525	0.122	0.183	
3.530	0.447	0.193	
3.535	0.177	0.218	
3.540	0.081	0.230	
3.545	0.486	0.232	
3.550	0.385	0.256	
3.555	0.111	0.284	
3.560	0.460	0.294	
3.565	0.600	0.320	
3.570	0.270	0.363	
3.575	0.472	0.391	
3.580	0.794	0.426	
3.585	0.545	0.484	
3.590	0.470	0.532	
3.595	0.878	0.567	
3.600	0.728	0.615	
3.605	0.371	0.651	
3.610	0.615	0.644	
3.615	0.675	0.627	
3.620	0.263	0.606	
3.625	0.314	0.553	
3.630	0.528	0.491	
3.635	0.157	0.440	
3.640	-0.014	0.372	
3.645	0.305	0.290	
3.650	0.133	0.230	
3.655	-0.124	0.178	
3.660	0.047	0.117	
3.665	0.085	0.068	
3.670	-0.179	0.033	
3.675	-0.113	-0.008	
3.680	0.099	-0.041	
3.685	-0.150	-0.053	
3.690	-0.219	-0.068	
3.695	-0.003	-0.090	
3.700	-0.104	-0.100	
3.705	-0.254	-0.107	
3.710	-0.086	-0.124	
3.715	-0.068	-0.132	
3.720	-0.278	-0.134	
3.725	-0.203	-0.149	
3.730	-0.026	-0.161	
3.735	-0.213	-0.160	
3.740	-0.240	-0.161	
3.745	0.009	-0.164	
3.750	-0.112	-0.150	
3.755	-0.269	-0.138	
3.760	-0.083	-0.140	
3.765	0.018	-0.135	
3.770	-0.184	-0.118	
3.775	-0.097	-0.108	
3.780	0.148	-0.094	
3.785	-0.095	-0.065	
3.790	-0.162	-0.048	
3.795	0.094	-0.046	
3.800	-0.046	-0.037	
3.805	-0.237	-0.037	
3.810	-0.063	-0.057	
3.815	-0.011	-0.073	
3.820	-0.260	-0.084	
3.825	-0.211	-0.108	
3.830	-0.043	-0.133	
3.835	-0.222	-0.145	
3.840	-0.260	-0.158	
3.845	-0.029	-0.171	
3.850	-0.122	-0.167	
3.855	-0.269	-0.158	
3.860	-0.072	-0.159	
3.865	0.030	-0.148	
3.870	-0.170	-0.123	
3.875	-0.029	-0.104	
3.880	0.369	-0.069	
3.885	0.177	0.002	
3.890	0.113	0.075	
3.895	0.258	0.128	
3.900	-0.197	0.150	
3.905	-0.579	0.100	
3.910	-0.602	-0.033	
3.915	-0.579	-0.202	
3.920	-0.705	-0.361	
3.925	-0.562	-0.490	
3.930	-0.297	-0.562	
3.935	-0.321	-0.561	
3.940	-0.251	-0.512	
3.945	0.152	-0.425	
3.950	0.114	-0.295	
3.955	-0.061	-0.163	
3.960	0.264	-0.055	
3.965	0.360	0.046	
3.970	0.021	0.133	
3.975	0.181	0.179	
3.980	0.501	0.209	
3.985	0.212	0.250	
3.990	0.113	0.271	
3.995	0.519	0.276	
4.000	0.408	0.299	
4.005	0.113	0.322	
4.010	0.461	0.325	
4.015	0.570	0.340	
4.020	0.263	0.371	
4.025	0.460	0.389	
4.030	0.803	0.418	
4.035	0.541	0.475	
4.040	0.504	0.526	
4.045	0.907	0.567	
4.050	0.770	0.625	
4.055	0.484	0.674	
4.060	0.782	0.689	
4.065	0.800	0.701	
4.070	0.400	0.706	
4.075	0.487	0.674	
4.080	0.632	0.627	
4.085	0.220	0.579	
4.090	0.096	0.502	
4.095	0.383	0.409	
4.100	0.163	0.334	
4.105	-0.115	0.264	
4.110	0.111	0.182	
4.115	0.119	0.119	
4.120	-0.159	0.075	
4.125	-0.092	0.026	
4.130	0.101	-0.014	
4.135	-0.153	-0.033	
4.140	-0.205	-0.056	
4.145	0.020	-0.081	
4.150	-0.084	-0.090	
4.155	-0.226	-0.096	
4.160	-0.048	-0.107	
4.165	-0.032	-0.110	
4.170	-0.231	-0.107	
4.175	-0.148	-0.115	
4.180	0.017	-0.121	
4.185	-0.188	-0.116	
4.190	-0.214	-0.119	
4.195	0.044	-0.124	
4.200	-0.071	-0.113	
4.205	-0.229	-0.102	
4.210	-0.035	-0.104	
4.215	0.024	-0.098	
4.220	-0.181	-0.085	
4.225	-0.089	-0.083	
4.230	0.145	-0.076	
4.235	-0.106	-0.054	
4.240	-0.153	-0.044	
4.245	0.137	-0.043	
4.250	-0.011	-0.030	
4.255	-0.194	-0.021	
4.260	-0.017	-0.033	
4.265	-0.016	-0.043	
4.270	-0.249	-0.054	
4.275	-0.174	-0.081	
4.280	-0.013	-0.108	
4.285	-0.226	-0.121	
4.290	-0.257	-0.138	
4.295	-0.045	-0.157	
4.300	-0.133	-0.160	
4.305	-0.252	-0.158	
4.310	-0.063	-0.160	
4.315	-0.011	-0.149	
4.320	-0.196	-0.130	
4.325	-0.038	-0.116	
4.330	0.328	-0.086	
4.335	0.097	-0.022	
4.340	0.101	0.042	
4.345	0.444	0.100	
4.350	-0.032	0.155	
4.355	-0.430	0.150	
4.360	-0.486	0.057	
4.365	-0.572	-0.090	
4.370	-0.729	-0.255	
4.375	-0.576	-0.409	
4.380	-0.370	-0.513	
4.385	-0.419	-0.550	
4.390	-0.326	-0.537	
4.395	-0.003	-0.481	
4.400	-0.011	-0.381	
4.405	-0.127	-0.268	
4.410	0.174	-0.168	
4.415	0.243	-0.066	
4.420	-0.075	0.023	
4.425	0.088	0.071	
4.430	0.377	0.104	
4.435	0.062	0.142	
4.440	0.058	0.161	
4.445	0.414	0.168	
4.450	0.223	0.191	
4.455	-0.008	0.207	
4.460	0.350	0.202	
4.465	0.412	0.213	
4.470	0.116	0.239	
4.475	0.343	0.253	
4.480	0.606	0.278	
4.485	0.340	0.327	
4.490	0.348	0.366	
4.495	0.738	0.399	
4.500	0.563	0.452	
4.505	0.343	0.497	
4.510	0.611	0.513	
4.515	0.562	0.524	
4.520	0.165	0.521	
4.525	0.279	0.477	
4.530	0.443	0.421	
4.535	0.050	0.372	
4.540	-0.066	0.301	
4.545	0.134	0.213	
4.550	-0.097	0.136	
4.555	-0.255	0.058	
4.560	-0.100	-0.024	
4.565	-0.098	-0.085	
4.570	-0.294	-0.127	
4.575	-0.208	-0.165	
4.580	-0.110	-0.191	
4.585	-0.281	-0.202	
4.590	-0.292	-0.214	
4.595	-0.071	-0.224	
4.600	-0.199	-0.216	
4.605	-0.349	-0.211	
4.610	-0.181	-0.219	
4.615	-0.174	-0.223	
4.620	-0.335	-0.224	
4.625	-0.245	-0.233	
4.630	-0.126	-0.239	
4.635	-0.303	-0.234	
4.640	-0.317	-0.237	
4.645	-0.121	-0.243	
4.650	-0.211	-0.237	
4.655	-0.341	-0.231	
4.660	-0.145	-0.233	
4.665	-0.126	-0.226	
4.670	-0.310	-0.214	
4.675	-0.223	-0.213	
4.680	-0.098	-0.213	
4.685	-0.281	-0.206	
4.690	-0.295	-0.208	
4.695	-0.118	-0.217	
4.700	-0.234	-0.216	
4.705	-0.350	-0.219	
4.710	-0.208	-0.233	
4.715	-0.223	-0.242	
4.720	-0.407	-0.251	
4.725	-0.306	-0.271	
4.730	-0.199	-0.287	
4.735	-0.364	-0.291	
4.740	-0.378	-0.300	
4.745	-0.194	-0.309	
4.750	-0.284	-0.305	
4.755	-0.390	-0.300	
4.760	-0.197	-0.300	
4.765	-0.153	-0.288	
4.770	-0.291	-0.266	
4.775	-0.147	-0.246	
4.780	0.075	-0.215	
4.785	-0.106	-0.165	
4.790	-0.100	-0.120	
4.795	-0.052	-0.093	
4.800	-0.407	-0.090	
4.805	-0.711	-0.145	
4.810	-0.662	-0.260	
4.815	-0.630	-0.392	
4.820	-0.747	-0.507	
4.825	-0.587	-0.595	
4.830	-0.385	-0.635	
4.835	-0.434	-0.620	
4.840	-0.352	-0.573	
4.845	-0.084	-0.500	
4.850	-0.142	-0.402	
4.855	-0.216	-0.307	
4.860	0.041	-0.228	
4.865	0.041	-0.152	
4.870	-0.168	-0.088	
4.875	-0.028	-0.055	
4.880	0.203	-0.030	
4.885	-0.089	0.001	
4.890	-0.097	0.013	
4.895	0.224	0.014	
4.900	0.026	0.029	
4.905	-0.115	0.039	
4.910	0.226	0.037	
4.915	0.267	0.058	
4.920	-0.020	0.091	
4.925	0.212	0.111	
4.930	0.475	0.141	
4.935	0.152	0.190	
4.940	0.181	0.224	
4.945	0.537	0.247	
4.950	0.353	0.288	
4.955	0.117	0.317	
4.960	0.423	0.320	
4.965	0.377	0.324	
4.970	-0.008	0.320	
4.975	0.108	0.281	
4.980	0.223	0.230	
4.985	-0.129	0.182	
4.990	-0.162	0.115	
4.995	-0.014	0.040	
5.000	-0.188	-0.022	
5.005	-0.306	-0.080	
5.010	-0.127	-0.137	
5.015	-0.167	-0.173	
5.020	-0.359	-0.197	
5.025	-0.258	-0.225	
5.030	-0.150	-0.245	
5.035	-0.307	-0.249	
5.040	-0.291	-0.254	
5.045	-0.097	-0.255	
5.050	-0.214	-0.241	
5.055	-0.330	-0.229	
5.060	-0.153	-0.228	
5.065	-0.174	-0.223	
5.070	-0.364	-0.219	
5.075	-0.251	-0.230	
5.080	-0.136	-0.239	
5.085	-0.312	-0.238	
5.090	-0.298	-0.242	
5.095	-0.118	-0.247	
5.100	-0.225	-0.239	
5.105	-0.304	-0.231	
5.110	-0.095	-0.227	
5.115	-0.116	-0.212	
5.120	-0.313	-0.195	
5.125	-0.205	-0.194	
5.130	-0.107	-0.196	
5.135	-0.284	-0.194	
5.140	-0.280	-0.201	
5.145	-0.109	-0.211	
5.150	-0.254	-0.212	
5.155	-0.375	-0.219	
5.160	-0.205	-0.238	
5.165	-0.228	-0.250	
5.170	-0.402	-0.259	
5.175	-0.298	-0.277	
5.180	-0.184	-0.289	
5.185	-0.350	-0.289	
5.190	-0.330	-0.291	
5.195	-0.148	-0.292	
5.200	-0.245	-0.279	
5.205	-0.330	-0.266	
5.210	-0.107	-0.257	
5.215	-0.066	-0.233	
5.220	-0.200	-0.199	
5.225	0.033	-0.165	
5.230	0.325	-0.109	
5.235	-0.071	-0.034	
5.240	-0.263	0.006	
5.245	-0.330	-0.018	
5.250	-0.625	-0.098	
5.255	-0.795	-0.229	
5.260	-0.605	-0.381	
5.265	-0.543	-0.503	
5.270	-0.624	-0.577	
5.275	-0.439	-0.610	
5.280	-0.248	-0.594	
5.285	-0.312	-0.534	
5.290	-0.214	-0.456	
5.295	0.146	-0.361	
5.300	0.000	-0.244	
5.305	-0.119	-0.140	
5.310	0.247	-0.063	
5.315	0.223	0.014	
5.320	-0.086	0.078	
5.325	0.104	0.102	
5.330	0.288	0.114	
5.335	-0.025	0.129	
5.340	0.050	0.126	
5.345	0.383	0.122	
5.350	0.130	0.142	
5.355	-0.037	0.153	
5.360	0.389	0.151	
5.365	0.405	0.175	
5.370	0.125	0.215	
5.375	0.414	0.245	
5.380	0.667	0.289	
5.385	0.360	0.355	
5.390	0.398	0.404	
5.395	0.710	0.440	
5.400	0.423	0.480	
5.405	0.211	0.492	
5.410	0.518	0.470	
5.415	0.423	0.450	
5.420	0.023	0.421	
5.425	0.154	0.357	
5.430	0.258	0.287	
5.435	-0.116	0.226	
5.440	-0.135	0.148	
5.445	0.088	0.069	
5.450	-0.130	0.014	
5.455	-0.266	-0.036	
5.460	-0.068	-0.088	
5.465	-0.109	-0.121	
5.470	-0.295	-0.141	
5.475	-0.152	-0.165	
5.480	-0.054	-0.176	
5.485	-0.269	-0.173	
5.490	-0.237	-0.178	
5.495	-0.040	-0.184	
5.500	-0.197	-0.177	
5.505	-0.298	-0.174	
5.510	-0.121	-0.183	
5.515	-0.142	-0.185	
5.520	-0.301	-0.185	
5.525	-0.155	-0.192	
5.530	-0.031	-0.189	
5.535	-0.252	-0.175	
5.540	-0.211	-0.170	
5.545	0.036	-0.166	
5.550	-0.142	-0.146	
5.555	-0.228	-0.131	
5.560	0.017	-0.127	
5.565	-0.045	-0.112	
5.570	-0.255	-0.099	
5.575	-0.147	-0.107	
5.580	-0.026	-0.118	
5.585	-0.246	-0.122	
5.590	-0.249	-0.137	
5.595	-0.075	-0.157	
5.600	-0.223	-0.166	
5.605	-0.312	-0.179	
5.610	-0.126	-0.197	
5.615	-0.161	-0.203	
5.620	-0.341	-0.205	
5.625	-0.205	-0.216	
5.630	-0.100	-0.221	
5.635	-0.304	-0.215	
5.640	-0.287	-0.219	
5.645	-0.066	-0.224	
5.650	-0.164	-0.212	
5.655	-0.205	-0.194	
5.660	0.157	-0.169	
5.665	0.233	-0.110	
5.670	0.006	-0.031	
5.675	0.230	0.035	
5.680	0.110	0.088	
5.685	-0.381	0.101	
5.690	-0.547	0.033	
5.695	-0.520	-0.098	
5.700	-0.677	-0.249	
5.705	-0.712	-0.397	
5.710	-0.437	-0.513	
5.715	-0.342	-0.565	
5.720	-0.378	-0.555	
5.725	-0.122	-0.504	
5.730	0.157	-0.408	
5.735	-0.072	-0.279	
5.740	0.044	-0.162	
5.745	0.421	-0.054	
5.750	0.185	0.058	
5.755	0.030	0.141	
5.760	0.369	0.183	
5.765	0.296	0.220	
5.770	-0.006	0.241	
5.775	0.261	0.232	
5.780	0.447	0.230	
5.785	0.127	0.245	
5.790	0.223	0.250	
5.795	0.612	0.261	
5.800	0.408	0.304	
5.805	0.259	0.347	
5.810	0.673	0.377	
5.815	0.649	0.427	
5.820	0.340	0.479	
5.825	0.651	0.508	
5.830	0.831	0.542	
5.835	0.447	0.586	
5.840	0.495	0.602	
5.845	0.809	0.603	
5.850	0.533	0.614	
5.855	0.307	0.607	
5.860	0.594	0.571	
5.865	0.470	0.539	
5.870	0.068	0.498	
5.875	0.270	0.426	
5.880	0.359	0.357	
5.885	-0.049	0.300	
5.890	-0.038	0.227	
5.895	0.256	0.155	
5.900	-0.035	0.112	
5.905	-0.168	0.070	
5.910	0.125	0.026	
5.915	0.047	0.005	
5.920	-0.194	-0.005	
5.925	-0.057	-0.027	
5.930	0.061	-0.045	
5.935	-0.203	-0.051	
5.940	-0.159	-0.069	
5.945	0.084	-0.084	
5.950	-0.148	-0.083	
5.955	-0.231	-0.088	
5.960	0.015	-0.101	
5.965	-0.032	-0.100	
5.970	-0.229	-0.094	
5.975	-0.075	-0.100	
5.980	0.021	-0.101	
5.985	-0.234	-0.095	
5.990	-0.190	-0.104	
5.995	0.093	-0.113	
6.000	-0.078	-0.101	
6.005	-0.168	-0.087	
6.010	0.120	-0.077	
6.015	0.024	-0.054	
6.020	-0.208	-0.034	
6.025	-0.046	-0.039	
6.030	0.073	-0.044	
6.035	-0.214	-0.044	
6.040	-0.179	-0.060	
6.045	0.021	-0.083	
6.050	-0.167	-0.092	
6.055	-0.263	-0.107	
6.060	-0.083	-0.130	
6.065	-0.129	-0.143	
6.070	-0.286	-0.152	
6.075	-0.129	-0.167	
6.080	-0.040	-0.170	
6.085	-0.243	-0.161	
6.090	-0.193	-0.160	
6.095	0.088	-0.155	
6.100	-0.072	-0.128	
6.105	-0.095	-0.098	
6.110	0.394	-0.059	
6.115	0.421	0.022	
6.120	0.145	0.122	
6.125	0.318	0.196	
6.130	0.055	0.235	
6.135	-0.445	0.210	
6.140	-0.595	0.093	
6.145	-0.543	-0.082	
6.150	-0.672	-0.262	
6.155	-0.669	-0.420	
6.160	-0.368	-0.530	
6.165	-0.281	-0.564	
6.170	-0.307	-0.534	
6.175	-0.005	-0.462	
6.180	0.264	-0.344	
6.185	-0.011	-0.199	
6.190	0.142	-0.073	
6.195	0.479	0.037	
6.200	0.224	0.145	
6.205	0.099	0.219	
6.210	0.496	0.258	
6.215	0.446	0.300	
6.220	0.133	0.335	
6.225	0.423	0.343	
6.230	0.568	0.355	
6.235	0.206	0.377	
6.240	0.321	0.378	
6.245	0.687	0.380	
6.250	0.467	0.410	
6.255	0.369	0.441	
6.260	0.779	0.467	
6.265	0.722	0.515	
6.270	0.476	0.569	
6.275	0.783	0.603	
6.280	0.900	0.645	
6.285	0.519	0.689	
6.290	0.621	0.702	
6.295	0.965	0.705	
6.300	0.602	0.721	
6.305	0.382	0.714	
6.310	0.715	0.675	
6.315	0.542	0.639	
6.320	0.131	0.593	
6.325	0.357	0.514	
6.330	0.418	0.439	
6.335	-0.016	0.375	
6.340	0.030	0.294	
6.345	0.313	0.216	
6.350	0.021	0.169	
6.355	-0.080	0.128	
6.360	0.266	0.090	
6.365	0.133	0.081	
6.370	-0.152	0.080	
6.375	0.062	0.059	
6.380	0.189	0.046	
6.385	-0.136	0.045	
6.390	-0.129	0.026	
6.395	0.124	-0.000	
6.400	-0.112	-0.013	
6.405	-0.213	-0.031	
6.410	0.029	-0.058	
6.415	-0.043	-0.069	
6.420	-0.222	-0.075	
6.425	-0.022	-0.088	
6.430	0.120	-0.084	
6.435	-0.171	-0.065	
6.440	-0.106	-0.058	
6.445	0.198	-0.053	
6.450	-0.057	-0.030	
6.455	-0.129	-0.015	
6.460	0.195	-0.010	
6.465	0.082	0.010	
6.470	-0.155	0.027	
6.475	0.046	0.022	
6.480	0.113	0.018	
6.485	-0.182	0.017	
6.490	-0.133	-0.005	
6.495	0.104	-0.030	
6.500	-0.145	-0.041	
6.505	-0.226	-0.057	
6.510	0.017	-0.082	
6.515	-0.078	-0.091	
6.520	-0.260	-0.097	
6.525	-0.097	-0.115	
6.530	0.009	-0.122	
6.535	-0.232	-0.118	
6.540	-0.174	-0.123	
6.545	0.094	-0.125	
6.550	-0.097	-0.107	
6.555	-0.126	-0.089	
6.560	0.304	-0.065	
6.565	0.359	-0.003	
6.570	0.180	0.084	
6.575	0.463	0.165	
6.580	0.287	0.239	
6.585	-0.344	0.263	
6.590	-0.540	0.183	
6.595	-0.550	0.019	
6.600	-0.714	-0.174	
6.605	-0.703	-0.360	
6.610	-0.411	-0.502	
6.615	-0.330	-0.565	
6.620	-0.358	-0.558	
6.625	-0.054	-0.502	
6.630	0.198	-0.394	
6.635	-0.046	-0.255	
6.640	0.130	-0.128	
6.645	0.479	-0.010	
6.650	0.215	0.110	
6.655	0.105	0.195	
6.660	0.479	0.243	
6.665	0.374	0.288	
6.670	0.072	0.317	
6.675	0.405	0.315	
6.680	0.544	0.322	
6.685	0.189	0.343	
6.690	0.302	0.347	
6.695	0.626	0.350	
6.700	0.360	0.376	
6.705	0.296	0.394	
6.710	0.758	0.410	
6.715	0.686	0.457	
6.720	0.397	0.512	
6.725	0.733	0.547	
6.730	0.842	0.588	
6.735	0.467	0.633	
6.740	0.602	0.648	
6.745	0.904	0.654	
6.750	0.554	0.673	
6.755	0.347	0.667	
6.760	0.669	0.630	
6.765	0.476	0.595	
6.770	0.094	0.547	
6.775	0.330	0.468	
6.780	0.334	0.393	
6.785	-0.068	0.327	
6.790	-0.035	0.242	
6.795	0.198	0.158	
6.800	-0.087	0.100	
6.805	-0.158	0.047	
6.810	0.133	-0.000	
6.815	0.015	-0.018	
6.820	-0.205	-0.025	
6.825	-0.051	-0.045	
6.830	0.010	-0.060	
6.835	-0.223	-0.068	
6.840	-0.145	-0.086	
6.845	0.062	-0.100	
6.850	-0.182	-0.098	
6.855	-0.263	-0.105	
6.860	-0.048	-0.124	
6.865	-0.115	-0.132	
6.870	-0.271	-0.137	
6.875	-0.081	-0.148	
6.880	0.004	-0.146	
6.885	-0.231	-0.132	
6.890	-0.156	-0.129	
6.895	0.033	-0.127	
6.900	-0.164	-0.115	
6.905	-0.190	-0.110	
6.910	0.137	-0.106	
6.915	0.035	-0.079	
6.920	-0.177	-0.049	
6.925	0.036	-0.039	
6.930	0.113	-0.026	
6.935	-0.173	-0.011	
6.940	-0.112	-0.018	
6.945	0.117	-0.030	
6.950	-0.150	-0.032	
6.955	-0.222	-0.046	
6.960	0.006	-0.071	
6.965	-0.113	-0.086	
6.970	-0.294	-0.100	
6.975	-0.127	-0.127	
6.980	-0.078	-0.146	
6.985	-0.277	-0.154	
6.990	-0.176	-0.167	
6.995	0.015	-0.171	
7.000	-0.196	-0.157	
7.005	-0.214	-0.148	
7.010	0.131	-0.140	
7.015	0.079	-0.104	
7.020	-0.074	-0.057	
7.025	0.345	-0.011	
7.030	0.502	0.066	
7.035	0.015	0.154	
7.040	-0.187	0.185	
7.045	-0.307	0.135	
7.050	-0.663	0.018	
7.055	-0.781	-0.154	
7.060	-0.549	-0.338	
7.065	-0.535	-0.478	
7.070	-0.561	-0.559	
7.075	-0.272	-0.585	
7.080	-0.106	-0.545	
7.085	-0.207	-0.457	
7.090	-0.022	-0.354	
7.095	0.376	-0.233	
7.100	0.102	-0.091	
7.105	0.017	0.022	
7.110	0.409	0.099	
7.115	0.282	0.170	
7.120	0.032	0.220	
7.125	0.380	0.238	
7.130	0.466	0.260	
7.135	0.125	0.290	
7.140	0.261	0.296	
7.145	0.570	0.300	
7.150	0.278	0.325	
7.155	0.208	0.338	
7.160	0.651	0.344	
7.165	0.557	0.379	
7.170	0.275	0.420	
7.175	0.646	0.444	
7.180	0.788	0.482	
7.185	0.440	0.535	
7.190	0.602	0.567	
7.195	0.872	0.594	
7.200	0.539	0.631	
7.205	0.452	0.643	
7.210	0.799	0.634	
7.215	0.560	0.633	
7.220	0.168	0.612	
7.225	0.405	0.549	
7.230	0.417	0.481	
7.235	-0.040	0.414	
7.240	0.021	0.321	
7.245	0.230	0.227	
7.250	-0.084	0.157	
7.255	-0.152	0.090	
7.260	0.133	0.028	
7.265	-0.013	-0.003	
7.270	-0.217	-0.022	
7.275	-0.023	-0.050	
7.280	0.030	-0.065	
7.285	-0.197	-0.067	
7.290	-0.129	-0.079	
7.295	0.050	-0.089	
7.300	-0.194	-0.088	
7.305	-0.237	-0.097	
7.310	0.000	-0.115	
7.315	-0.101	-0.118	
7.320	-0.251	-0.119	
7.325	-0.068	-0.128	
7.330	-0.037	-0.129	
7.335	-0.249	-0.123	
7.340	-0.150	-0.129	
7.345	0.068	-0.131	
7.350	-0.168	-0.116	
7.355	-0.208	-0.109	
7.360	0.039	-0.111	
7.365	-0.058	-0.100	
7.370	-0.202	-0.089	
7.375	0.078	-0.085	
7.380	0.127	-0.064	
7.385	-0.184	-0.035	
7.390	-0.090	-0.029	
7.395	0.145	-0.031	
7.400	-0.142	-0.024	
7.405	-0.181	-0.031	
7.410	0.026	-0.050	
7.415	-0.130	-0.063	
7.420	-0.283	-0.081	
7.425	-0.116	-0.113	
7.430	-0.090	-0.135	
7.435	-0.300	-0.149	
7.440	-0.216	-0.170	
7.445	-0.051	-0.185	
7.450	-0.231	-0.184	
7.455	-0.245	-0.184	
7.460	-0.008	-0.184	
7.465	-0.080	-0.165	
7.470	-0.173	-0.142	
7.475	0.148	-0.117	
7.480	0.278	-0.064	
7.485	0.015	0.006	
7.490	0.244	0.066	
7.495	0.203	0.115	
7.500	-0.336	0.133	
7.505	-0.581	0.068	
7.510	-0.547	-0.070	
7.515	-0.627	-0.232	
7.520	-0.662	-0.382	
7.525	-0.399	-0.494	
7.530	-0.300	-0.539	
7.535	-0.388	-0.525	
7.540	-0.191	-0.480	
7.545	0.156	-0.398	
7.550	-0.032	-0.280	
7.555	-0.020	-0.167	
7.560	0.388	-0.066	
7.565	0.253	0.042	
7.570	0.038	0.131	
7.575	0.391	0.183	
7.580	0.444	0.234	
7.585	0.082	0.278	
7.590	0.249	0.288	
7.595	0.502	0.290	
7.600	0.139	0.302	
7.605	0.102	0.292	
7.610	0.435	0.270	
7.615	0.249	0.265	
7.620	0.024	0.258	
7.625	0.443	0.241	
7.630	0.512	0.254	
7.635	0.146	0.288	
7.640	0.203	0.298	
7.645	0.337	0.289	
7.650	-0.055	0.269	
7.655	-0.101	0.215	
7.660	0.165	0.145	
7.665	-0.042	0.092	
7.670	-0.184	0.045	
7.675	-0.032	-0.007	
7.680	-0.083	-0.047	
7.685	-0.303	-0.081	
7.690	-0.237	-0.125	
7.695	-0.122	-0.165	
7.700	-0.312	-0.191	
7.705	-0.350	-0.219	
7.710	-0.181	-0.248	
7.715	-0.272	-0.261	
7.720	-0.384	-0.271	
7.725	-0.223	-0.284	
7.730	-0.188	-0.285	
7.735	-0.344	-0.276	
7.740	-0.234	-0.272	
7.745	-0.110	-0.263	
7.750	-0.274	-0.243	
7.755	-0.271	-0.231	
7.760	-0.061	-0.223	
7.765	-0.158	-0.204	
7.770	-0.255	-0.186	
7.775	-0.071	-0.176	
7.780	-0.035	-0.159	
7.785	-0.248	-0.140	
7.790	-0.144	-0.135	
7.795	0.050	-0.130	
7.800	-0.164	-0.114	
7.805	-0.159	-0.105	
7.810	0.168	-0.095	
7.815	-0.020	-0.066	
7.820	-0.145	-0.040	
7.825	0.094	-0.030	
7.830	0.091	-0.013	
7.835	-0.159	0.003	
7.840	-0.037	-0.002	
7.845	0.156	-0.008	
7.850	-0.106	-0.001	
7.855	-0.109	-0.005	
7.860	0.154	-0.014	
7.865	-0.072	-0.010	
7.870	-0.214	-0.016	
7.875	0.012	-0.038	
7.880	0.023	-0.050	
7.885	-0.203	-0.053	
7.890	-0.104	-0.067	
7.895	0.065	-0.078	
7.900	-0.158	-0.075	
7.905	-0.142	-0.078	
7.910	0.131	-0.079	
7.915	-0.003	-0.060	
7.920	-0.080	-0.037	
7.925	0.327	-0.012	
7.930	0.434	0.050	
7.935	0.217	0.136	
7.940	0.467	0.214	
7.945	0.405	0.285	
7.950	-0.228	0.316	
7.955	-0.445	0.250	
7.960	-0.413	0.101	
7.965	-0.514	-0.074	
7.970	-0.544	-0.237	
7.975	-0.295	-0.362	
7.980	-0.214	-0.418	
7.985	-0.274	-0.415	
7.990	-0.052	-0.374	
7.995	0.255	-0.291	
8.000	0.017	-0.174	
8.005	0.096	-0.067	
8.010	0.457	0.029	
8.015	0.259	0.129	
8.020	0.078	0.203	
8.025	0.453	0.242	
8.030	0.457	0.283	
8.035	0.078	0.318	
8.040	0.235	0.315	
8.045	0.420	0.300	
8.050	0.152	0.294	
8.055	0.218	0.280	
8.060	0.628	0.278	
8.065	0.443	0.314	
8.070	0.310	0.358	
8.075	0.698	0.395	
8.080	0.731	0.452	
8.085	0.450	0.518	
8.090	0.696	0.562	
8.095	0.886	0.606	
8.100	0.548	0.655	
8.105	0.606	0.677	
8.110	0.884	0.686	
8.115	0.589	0.700	
8.120	0.318	0.688	
8.125	0.560	0.637	
8.130	0.438	0.581	
8.135	0.036	0.514	
8.140	0.165	0.418	
8.145	0.284	0.323	
8.150	-0.064	0.248	
8.155	-0.077	0.169	
8.160	0.159	0.096	
8.165	-0.049	0.051	
8.170	-0.167	0.015	
8.175	0.039	-0.022	
8.180	-0.019	-0.040	
8.185	-0.217	-0.052	
8.190	-0.106	-0.074	
8.195	0.023	-0.090	
8.200	-0.170	-0.092	
8.205	-0.165	-0.098	
8.210	0.041	-0.104	
8.215	-0.121	-0.097	
8.220	-0.214	-0.095	
8.225	0.015	-0.101	
8.230	0.010	-0.094	
8.235	-0.182	-0.079	
8.240	-0.080	-0.078	
8.245	0.013	-0.078	
8.250	-0.193	-0.075	
8.255	-0.159	-0.084	
8.260	0.099	-0.092	
8.265	-0.071	-0.080	
8.270	-0.185	-0.070	
8.275	0.017	-0.072	
8.280	-0.023	-0.068	
8.285	-0.216	-0.064	
8.290	-0.083	-0.076	
8.295	0.020	-0.084	
8.300	-0.202	-0.084	
8.305	-0.200	-0.095	
8.310	-0.040	-0.113	
8.315	-0.199	-0.123	
8.320	-0.295	-0.139	
8.325	-0.122	-0.163	
8.330	-0.153	-0.177	
8.335	-0.309	-0.185	
8.340	-0.182	-0.199	
8.345	-0.068	-0.203	
8.350	-0.239	-0.193	
8.355	-0.225	-0.188	
8.360	-0.005	-0.183	
8.365	-0.103	-0.162	
8.370	-0.164	-0.139	
8.375	0.198	-0.113	
8.380	0.266	-0.056	
8.385	0.033	0.017	
8.390	0.209	0.075	
8.395	0.065	0.114	
8.400	-0.405	0.109	
8.405	-0.590	0.024	
8.410	-0.517	-0.118	
8.415	-0.611	-0.270	
8.420	-0.633	-0.404	
8.425	-0.387	-0.500	
8.430	-0.304	-0.534	
8.435	-0.367	-0.515	
8.440	-0.127	-0.464	
8.445	0.152	-0.375	
8.450	-0.038	-0.256	
8.455	0.036	-0.145	
8.460	0.435	-0.042	
8.465	0.270	0.071	
8.470	0.140	0.165	
8.475	0.524	0.230	
8.480	0.518	0.298	
8.485	0.229	0.359	
8.490	0.450	0.389	
8.495	0.592	0.411	
8.500	0.243	0.433	
8.505	0.325	0.428	
8.510	0.686	0.420	
8.515	0.466	0.438	
8.520	0.314	0.455	
8.525	0.693	0.462	
8.530	0.689	0.491	
8.535	0.380	0.527	
8.540	0.672	0.546	
8.545	0.864	0.573	
8.550	0.507	0.615	
8.555	0.554	0.635	
8.560	0.838	0.640	
8.565	0.510	0.651	
8.570	0.247	0.634	
8.575	0.544	0.580	
8.580	0.447	0.528	
8.585	0.064	0.475	
8.590	0.209	0.397	
8.595	0.278	0.321	
8.600	-0.098	0.255	
8.605	-0.103	0.174	
8.610	0.125	0.094	
8.615	-0.095	0.040	
8.620	-0.199	-0.006	
8.625	0.032	-0.049	
8.630	-0.040	-0.069	
8.635	-0.240	-0.080	
8.640	-0.133	-0.100	
8.645	-0.038	-0.117	
8.650	-0.252	-0.125	
8.655	-0.252	-0.143	
8.660	-0.100	-0.164	
8.665	-0.258	-0.178	
8.670	-0.356	-0.196	
8.675	-0.182	-0.222	
8.680	-0.207	-0.237	
8.685	-0.356	-0.244	
8.690	-0.232	-0.256	
8.695	-0.162	-0.260	
8.700	-0.339	-0.255	
8.705	-0.307	-0.259	
8.710	-0.106	-0.262	
8.715	-0.234	-0.250	
8.720	-0.327	-0.239	
8.725	-0.158	-0.238	
8.730	-0.193	-0.232	
8.735	-0.355	-0.228	
8.740	-0.234	-0.236	
8.745	-0.165	-0.242	
8.750	-0.365	-0.243	
8.755	-0.365	-0.257	
8.760	-0.232	-0.278	
8.765	-0.367	-0.292	
8.770	-0.443	-0.310	
8.775	-0.255	-0.331	
8.780	-0.275	-0.337	
8.785	-0.443	-0.336	
8.790	-0.310	-0.341	
8.795	-0.219	-0.340	
8.800	-0.382	-0.329	
8.805	-0.321	-0.323	
8.810	-0.124	-0.313	
8.815	-0.229	-0.288	
8.820	-0.265	-0.261	
8.825	0.070	-0.232	
8.830	0.124	-0.174	
8.835	-0.147	-0.106	
8.840	-0.121	-0.067	
8.845	-0.266	-0.065	
8.850	-0.617	-0.111	
8.855	-0.732	-0.216	
8.860	-0.642	-0.353	
8.865	-0.731	-0.483	
8.870	-0.721	-0.587	
8.875	-0.436	-0.651	
8.880	-0.359	-0.652	
8.885	-0.410	-0.604	
8.890	-0.187	-0.532	
8.895	0.007	-0.435	
8.900	-0.190	-0.323	
8.905	-0.135	-0.232	
8.910	0.154	-0.158	
8.915	-0.052	-0.087	
8.920	-0.119	-0.040	
8.925	0.236	-0.011	
8.930	0.206	0.031	
8.935	-0.083	0.072	
8.940	0.146	0.087	
8.945	0.272	0.101	
8.950	-0.048	0.119	
8.955	0.055	0.116	
8.960	0.402	0.115	
8.965	0.146	0.139	
8.970	0.050	0.160	
8.975	0.478	0.174	
8.980	0.434	0.215	
8.985	0.148	0.265	
8.990	0.447	0.294	
8.995	0.563	0.329	
9.000	0.195	0.367	
9.005	0.270	0.374	
9.010	0.574	0.369	
9.015	0.259	0.376	
9.020	0.082	0.364	
9.025	0.394	0.329	
9.030	0.220	0.301	
9.035	-0.118	0.265	
9.040	0.059	0.200	
9.045	0.114	0.137	
9.050	-0.185	0.085	
9.055	-0.167	0.024	
9.060	0.020	-0.033	
9.065	-0.171	-0.069	
9.070	-0.262	-0.101	
9.075	-0.064	-0.133	
9.080	-0.130	-0.148	
9.085	-0.291	-0.157	
9.090	-0.139	-0.171	
9.095	-0.080	-0.177	
9.100	-0.298	-0.174	
9.105	-0.260	-0.184	
9.110	-0.072	-0.196	
9.115	-0.231	-0.195	
9.120	-0.303	-0.197	
9.125	-0.092	-0.205	
9.130	-0.150	-0.200	
9.135	-0.321	-0.194	
9.140	-0.179	-0.200	
9.145	-0.089	-0.201	
9.150	-0.295	-0.195	
9.155	-0.240	-0.198	
9.160	-0.025	-0.200	
9.165	-0.194	-0.187	
9.170	-0.251	-0.176	
9.175	0.001	-0.170	
9.180	-0.080	-0.151	
9.185	-0.262	-0.133	
9.190	-0.086	-0.132	
9.195	0.000	-0.127	
9.200	-0.239	-0.116	
9.205	-0.207	-0.121	
9.210	-0.048	-0.133	
9.215	-0.229	-0.139	
9.220	-0.313	-0.154	
9.225	-0.092	-0.177	
9.230	-0.185	-0.187	
9.235	-0.368	-0.196	
9.240	-0.216	-0.216	
9.245	-0.135	-0.230	
9.250	-0.323	-0.231	
9.255	-0.263	-0.237	
9.260	-0.058	-0.238	
9.265	-0.196	-0.222	
9.270	-0.208	-0.203	
9.275	0.162	-0.177	
9.280	0.156	-0.119	
9.285	-0.023	-0.048	
9.290	0.354	0.017	
9.295	0.321	0.093	
9.300	-0.289	0.145	
9.305	-0.477	0.110	
9.310	-0.515	-0.008	
9.315	-0.735	-0.169	
9.320	-0.787	-0.344	
9.325	-0.523	-0.498	
9.330	-0.451	-0.587	
9.335	-0.469	-0.610	
9.340	-0.196	-0.581	
9.345	0.017	-0.499	
9.350	-0.152	-0.381	
9.355	0.012	-0.266	
9.360	0.385	-0.148	
9.365	0.085	-0.023	
9.370	-0.029	0.067	
9.375	0.369	0.118	
9.380	0.288	0.166	
9.385	-0.016	0.203	
9.390	0.288	0.208	
9.395	0.434	0.219	
9.400	0.055	0.239	
9.405	0.178	0.238	
9.410	0.505	0.236	
9.415	0.224	0.257	
9.420	0.149	0.271	
9.425	0.620	0.280	
9.430	0.530	0.322	
9.435	0.246	0.371	
9.440	0.597	0.402	
9.445	0.750	0.444	
9.450	0.405	0.498	
9.455	0.541	0.530	
9.460	0.828	0.554	
9.465	0.463	0.587	
9.470	0.293	0.589	
9.475	0.640	0.559	
9.480	0.447	0.534	
9.485	0.084	0.498	
9.490	0.345	0.433	
9.495	0.402	0.375	
9.500	-0.048	0.328	
9.505	-0.031	0.257	
9.510	0.197	0.179	
9.515	-0.081	0.120	
9.520	-0.167	0.063	
9.525	0.130	0.010	
9.530	-0.008	-0.014	
9.535	-0.226	-0.028	
9.540	-0.058	-0.054	
9.545	0.009	-0.072	
9.550	-0.249	-0.081	
9.555	-0.185	-0.102	
9.560	0.035	-0.120	
9.565	-0.171	-0.120	
9.570	-0.229	-0.123	
9.575	0.009	-0.130	
9.580	-0.119	-0.125	
9.585	-0.297	-0.124	
9.590	-0.127	-0.139	
9.595	-0.063	-0.149	
9.600	-0.248	-0.150	
9.605	-0.176	-0.156	
9.610	-0.005	-0.159	
9.615	-0.203	-0.148	
9.620	-0.242	-0.146	
9.625	0.059	-0.147	
9.630	-0.022	-0.127	
9.635	-0.208	-0.103	
9.640	-0.006	-0.092	
9.645	0.062	-0.077	
9.650	-0.203	-0.060	
9.655	-0.132	-0.062	
9.660	0.087	-0.069	
9.665	-0.167	-0.066	
9.670	-0.232	-0.074	
9.675	-0.005	-0.094	
9.680	-0.121	-0.103	
9.685	-0.306	-0.114	
9.690	-0.136	-0.138	
9.695	-0.097	-0.156	
9.700	-0.294	-0.165	
9.705	-0.216	-0.180	
9.710	-0.037	-0.189	
9.715	-0.219	-0.183	
9.720	-0.251	-0.179	
9.725	0.032	-0.176	
9.730	-0.035	-0.152	
9.735	-0.153	-0.121	
9.740	0.203	-0.090	
9.745	0.417	-0.027	
9.750	0.166	0.064	
9.755	0.292	0.145	
9.760	0.255	0.205	
9.765	-0.352	0.217	
9.770	-0.636	0.133	
9.775	-0.602	-0.036	
9.780	-0.685	-0.228	
9.785	-0.738	-0.406	
9.790	-0.466	-0.540	
9.795	-0.294	-0.596	
9.800	-0.361	-0.580	
9.805	-0.167	-0.519	
9.810	0.233	-0.414	
9.815	0.007	-0.272	
9.820	-0.022	-0.142	
9.825	0.405	-0.035	
9.830	0.319	0.076	
9.835	0.059	0.167	
9.840	0.371	0.218	
9.845	0.441	0.260	
9.850	0.070	0.294	
9.855	0.253	0.295	
9.860	0.567	0.294	
9.865	0.256	0.315	
9.870	0.192	0.326	
9.875	0.594	0.328	
9.880	0.495	0.355	
9.885	0.241	0.387	
9.890	0.594	0.404	
9.895	0.712	0.436	
9.900	0.398	0.483	
9.905	0.585	0.514	
9.910	0.933	0.549	
9.915	0.628	0.607	
9.920	0.522	0.649	
9.925	0.890	0.668	
9.930	0.692	0.692	
9.935	0.325	0.696	
9.940	0.615	0.660	
9.945	0.638	0.622	
9.950	0.183	0.584	
9.955	0.261	0.516	
9.960	0.418	0.439	
9.965	0.042	0.373	
9.970	-0.060	0.292	
9.975	0.270	0.207	
9.980	0.087	0.153	
9.985	-0.142	0.113	
9.990	0.076	0.066	
9.995	0.082	0.035	
10.000	-0.193	0.016	
10.005	-0.086	-0.015	
10.010	0.140	-0.037	
10.015	-0.126	-0.038	
10.020	-0.155	-0.044	
10.025	0.097	-0.054	
10.030	-0.095	-0.052	
10.035	-0.257	-0.057	
10.040	-0.054	-0.080	
10.045	-0.011	-0.094	
10.050	-0.237	-0.097	
10.055	-0.135	-0.110	
10.060	0.085	-0.115	
10.065	-0.174	-0.103	
10.070	-0.202	-0.099	
10.075	0.102	-0.101	
10.080	-0.064	-0.086	
10.085	-0.223	-0.075	
10.090	0.013	-0.078	
10.095	0.146	-0.068	
10.100	-0.129	-0.042	
10.105	-0.029	-0.028	
10.110	0.203	-0.015	
10.115	-0.103	0.007	
10.120	-0.126	0.010	
10.125	0.195	0.003	
10.130	0.018	0.012	
10.135	-0.181	0.016	
10.140	0.012	0.000	
10.145	0.000	-0.015	
10.150	-0.248	-0.031	
10.155	-0.173	-0.063	
10.160	0.013	-0.095	
10.165	-0.207	-0.109	
10.170	-0.234	-0.125	
10.175	0.064	-0.138	
10.180	-0.075	-0.127	
10.185	-0.223	-0.113	
10.190	0.018	-0.108	
10.195	0.094	-0.090	
10.200	-0.135	-0.061	
10.205	0.079	-0.040	
10.210	0.432	-0.001	
10.215	0.195	0.070	
10.220	0.215	0.141	
10.225	0.301	0.192	
10.230	-0.258	0.208	
10.235	-0.621	0.138	
10.240	-0.585	-0.017	
10.245	-0.573	-0.200	
10.250	-0.668	-0.363	
10.255	-0.478	-0.487	
10.260	-0.237	-0.544	
10.265	-0.297	-0.529	
10.270	-0.213	-0.472	
10.275	0.217	-0.380	
10.280	0.137	-0.249	
10.285	-0.042	-0.117	
10.290	0.339	-0.013	
10.295	0.374	0.088	
10.300	0.012	0.171	
10.305	0.229	0.210	
10.310	0.486	0.234	
10.315	0.154	0.265	
10.320	0.125	0.274	
10.325	0.522	0.271	
10.330	0.365	0.290	
10.335	0.105	0.308	
10.340	0.450	0.308	
10.345	0.530	0.322	
10.350	0.214	0.349	
10.355	0.457	0.363	
10.360	0.767	0.390	
10.365	0.435	0.443	
10.370	0.412	0.482	
10.375	0.817	0.508	
10.380	0.666	0.552	
10.385	0.398	0.590	
10.390	0.706	0.599	
10.395	0.570	0.603	
10.400	0.030	0.580	
10.405	0.104	0.496	
10.410	0.235	0.385	
10.415	-0.150	0.278	
10.420	-0.213	0.162	
10.425	-0.016	0.048	
10.430	-0.181	-0.037	
10.435	-0.333	-0.105	
10.440	-0.167	-0.165	
10.445	-0.174	-0.203	
10.450	-0.382	-0.226	
10.455	-0.278	-0.252	
10.460	-0.142	-0.268	
10.465	-0.323	-0.267	
10.470	-0.313	-0.268	
10.475	-0.133	-0.269	
10.480	-0.240	-0.258	
10.485	-0.350	-0.249	
10.490	-0.174	-0.250	
10.495	-0.170	-0.245	
10.500	-0.358	-0.237	
10.505	-0.239	-0.241	
10.510	-0.097	-0.242	
10.515	-0.292	-0.231	
10.520	-0.298	-0.228	
10.525	-0.086	-0.230	
10.530	-0.179	-0.218	
10.535	-0.301	-0.206	
10.540	-0.112	-0.204	
10.545	-0.097	-0.194	
10.550	-0.274	-0.179	
10.555	-0.142	-0.176	
10.560	0.032	-0.166	
10.565	-0.188	-0.143	
10.570	-0.197	-0.130	
10.575	0.010	-0.126	
10.580	-0.136	-0.115	
10.585	-0.248	-0.112	
10.590	-0.040	-0.121	
10.595	-0.068	-0.121	
10.600	-0.286	-0.120	
10.605	-0.203	-0.136	
10.610	-0.101	-0.156	
10.615	-0.291	-0.169	
10.620	-0.295	-0.189	
10.625	-0.098	-0.209	
10.630	-0.225	-0.214	
10.635	-0.344	-0.218	
10.640	-0.153	-0.228	
10.645	-0.145	-0.228	
10.650	-0.326	-0.222	
10.655	-0.179	-0.223	
10.660	0.013	-0.213	
10.665	-0.159	-0.183	
10.670	-0.118	-0.154	
10.675	0.282	-0.117	
10.680	0.113	-0.051	
10.685	-0.177	0.006	
10.690	-0.187	0.013	
10.695	-0.408	-0.030	
10.700	-0.740	-0.126	
10.705	-0.679	-0.268	
10.710	-0.535	-0.410	
10.715	-0.621	-0.514	
10.720	-0.547	-0.577	
10.725	-0.255	-0.592	
10.730	-0.257	-0.551	
10.735	-0.283	-0.478	
10.740	0.059	-0.389	
10.745	0.148	-0.274	
10.750	-0.110	-0.156	
10.755	0.059	-0.069	
10.760	0.235	-0.003	
10.765	-0.069	0.052	
10.770	-0.038	0.072	
10.775	0.295	0.075	
10.780	-0.031	0.087	
10.785	-0.228	0.077	
10.790	-0.052	0.033	
10.795	-0.095	-0.014	
10.800	-0.280	-0.059	
10.805	-0.126	-0.106	
10.810	0.101	-0.130	
10.815	-0.104	-0.119	
10.820	-0.049	-0.098	
10.825	0.311	-0.065	
10.830	0.181	-0.002	
10.835	0.090	0.065	
10.840	0.460	0.123	
10.845	0.423	0.196	
10.850	0.076	0.259	
10.855	0.281	0.281	
10.860	0.420	0.290	
10.865	0.024	0.293	
10.870	-0.013	0.262	
10.875	0.236	0.209	
10.880	-0.043	0.163	
10.885	-0.202	0.109	
10.890	0.001	0.041	
10.895	-0.090	-0.013	
10.900	-0.295	-0.059	
10.905	-0.181	-0.111	
10.910	-0.095	-0.150	
10.915	-0.277	-0.172	
10.920	-0.266	-0.193	
10.925	-0.084	-0.209	
10.930	-0.219	-0.208	
10.935	-0.294	-0.207	
10.940	-0.086	-0.210	
10.945	-0.097	-0.198	
10.950	-0.281	-0.182	
10.955	-0.164	-0.178	
10.960	-0.034	-0.173	
10.965	-0.251	-0.161	
10.970	-0.257	-0.162	
10.975	-0.074	-0.171	
10.980	-0.190	-0.171	
10.985	-0.263	-0.173	
10.990	-0.043	-0.177	
10.995	-0.081	-0.166	
11.000	-0.243	-0.151	
11.005	-0.089	-0.146	
11.010	0.082	-0.132	
11.015	-0.156	-0.105	
11.020	-0.122	-0.088	
11.025	0.104	-0.077	
11.030	-0.115	-0.059	
11.035	-0.203	-0.055	
11.040	0.047	-0.064	
11.045	0.000	-0.062	
11.050	-0.225	-0.058	
11.055	-0.115	-0.071	
11.060	-0.006	-0.086	
11.065	-0.229	-0.094	
11.070	-0.202	-0.111	
11.075	0.023	-0.127	
11.080	-0.145	-0.126	
11.085	-0.248	-0.126	
11.090	-0.031	-0.133	
11.095	-0.061	-0.130	
11.100	-0.258	-0.123	
11.105	-0.109	-0.129	
11.110	0.087	-0.126	
11.115	-0.113	-0.103	
11.120	-0.032	-0.081	
11.125	0.414	-0.044	
11.130	0.296	0.032	
11.135	0.171	0.118	
11.140	0.273	0.181	
11.145	-0.130	0.205	
11.150	-0.520	0.156	
11.155	-0.558	0.023	
11.160	-0.501	-0.145	
11.165	-0.602	-0.301	
11.170	-0.500	-0.423	
11.175	-0.252	-0.491	
11.180	-0.280	-0.493	
11.185	-0.257	-0.453	
11.190	0.140	-0.379	
11.195	0.183	-0.264	
11.200	-0.063	-0.138	
11.205	0.204	-0.038	
11.210	0.383	0.051	
11.215	0.033	0.132	
11.220	0.091	0.173	
11.225	0.437	0.191	
11.230	0.220	0.219	
11.235	0.053	0.235	
11.240	0.406	0.234	
11.245	0.357	0.246	
11.250	0.033	0.260	
11.255	0.288	0.252	
11.260	0.505	0.253	
11.265	0.247	0.278	
11.270	0.318	0.300	
11.275	0.672	0.327	
11.280	0.443	0.377	
11.285	0.324	0.419	
11.290	0.731	0.446	
11.295	0.669	0.491	
11.300	0.348	0.533	
11.305	0.609	0.547	
11.310	0.742	0.559	
11.315	0.339	0.574	
11.320	0.298	0.555	
11.325	0.541	0.511	
11.330	0.204	0.468	
11.335	-0.045	0.402	
11.340	0.233	0.312	
11.345	0.075	0.233	
11.350	-0.210	0.159	
11.355	-0.084	0.073	
11.360	0.003	0.001	
11.365	-0.240	-0.050	
11.370	-0.214	-0.098	
11.375	-0.011	-0.134	
11.380	-0.177	-0.147	
11.385	-0.262	-0.155	
11.390	-0.040	-0.164	
11.395	-0.072	-0.158	
11.400	-0.266	-0.146	
11.405	-0.126	-0.147	
11.410	-0.031	-0.146	
11.415	-0.248	-0.138	
11.420	-0.202	-0.143	
11.425	0.052	-0.146	
11.430	-0.142	-0.132	
11.435	-0.239	-0.123	
11.440	0.006	-0.124	
11.445	-0.037	-0.113	
11.450	-0.223	-0.101	
11.455	-0.058	-0.101	
11.460	0.067	-0.095	
11.465	-0.181	-0.080	
11.470	-0.152	-0.078	
11.475	0.101	-0.080	
11.480	-0.119	-0.070	
11.485	-0.200	-0.067	
11.490	0.039	-0.076	
11.495	-0.040	-0.074	
11.500	-0.252	-0.072	
11.505	-0.115	-0.089	
11.510	-0.037	-0.105	
11.515	-0.263	-0.114	
11.520	-0.237	-0.134	
11.525	-0.066	-0.157	
11.530	-0.234	-0.167	
11.535	-0.297	-0.179	
11.540	-0.054	-0.193	
11.545	-0.118	-0.188	
11.550	-0.297	-0.178	
11.555	-0.132	-0.179	
11.560	0.026	-0.171	
11.565	-0.167	-0.147	
11.570	-0.095	-0.127	
11.575	0.269	-0.097	
11.580	0.134	-0.038	
11.585	0.085	0.026	
11.590	0.331	0.083	
11.595	-0.113	0.124	
11.600	-0.509	0.103	
11.605	-0.533	-0.003	
11.610	-0.546	-0.153	
11.615	-0.686	-0.305	
11.620	-0.572	-0.438	
11.625	-0.327	-0.522	
11.630	-0.350	-0.540	
11.635	-0.300	-0.510	
11.640	0.096	-0.441	
11.645	0.085	-0.327	
11.650	-0.138	-0.204	
11.655	0.163	-0.107	
11.660	0.336	-0.016	
11.665	0.003	0.071	
11.670	0.096	0.120	
11.675	0.424	0.151	
11.680	0.152	0.189	
11.685	0.026	0.208	
11.690	0.427	0.208	
11.695	0.369	0.227	
11.700	0.072	0.252	
11.705	0.383	0.259	
11.710	0.545	0.278	
11.715	0.197	0.314	
11.720	0.336	0.332	
11.725	0.698	0.352	
11.730	0.478	0.399	
11.735	0.376	0.442	
11.740	0.780	0.474	
11.745	0.692	0.524	
11.750	0.382	0.569	
11.755	0.693	0.585	
11.760	0.782	0.603	
11.765	0.354	0.621	
11.770	0.409	0.603	
11.775	0.655	0.567	
11.780	0.295	0.538	
11.785	0.075	0.485	
11.790	0.342	0.406	
11.795	0.175	0.335	
11.800	-0.136	0.264	
11.805	0.062	0.179	
11.810	0.154	0.110	
11.815	-0.181	0.065	
11.820	-0.142	0.015	
11.825	0.124	-0.028	
11.830	-0.104	-0.044	
11.835	-0.193	-0.057	
11.840	0.070	-0.072	
11.845	-0.034	-0.070	
11.850	-0.252	-0.068	
11.855	-0.090	-0.083	
11.860	-0.031	-0.097	
11.865	-0.263	-0.105	
11.870	-0.210	-0.125	
11.875	-0.008	-0.143	
11.880	-0.190	-0.145	
11.885	-0.243	-0.148	
11.890	0.030	-0.152	
11.895	-0.071	-0.138	
11.900	-0.248	-0.122	
11.905	-0.040	-0.119	
11.910	0.113	-0.106	
11.915	-0.162	-0.079	
11.920	-0.087	-0.065	
11.925	0.163	-0.054	
11.930	-0.101	-0.032	
11.935	-0.168	-0.025	
11.940	0.142	-0.031	
11.945	0.032	-0.021	
11.950	-0.199	-0.012	
11.955	-0.014	-0.023	
11.960	0.072	-0.031	
11.965	-0.222	-0.034	
11.970	-0.167	-0.054	
11.975	0.067	-0.076	
11.980	-0.176	-0.083	
11.985	-0.252	-0.095	
11.990	0.017	-0.115	
11.995	-0.064	-0.116	
12.000	-0.245	-0.112	
12.005	-0.043	-0.117	
12.010	0.128	-0.107	
12.015	-0.113	-0.078	
12.020	0.072	-0.050	
12.025	0.528	-0.002	
12.030	0.372	0.092	
12.035	0.371	0.197	
12.040	0.762	0.298	
12.045	0.347	0.397	
12.050	-0.245	0.428	
12.055	-0.292	0.344	
12.060	-0.368	0.184	
12.065	-0.575	-0.002	
12.070	-0.463	-0.185	
12.075	-0.196	-0.319	
12.080	-0.228	-0.376	
12.085	-0.164	-0.372	
12.090	0.351	-0.311	
12.095	0.376	-0.182	
12.100	0.145	-0.027	
12.105	0.518	0.109	
12.110	0.667	0.241	
12.115	0.281	0.360	
12.120	0.377	0.426	
12.125	0.699	0.460	
12.130	0.389	0.492	
12.135	0.244	0.496	
12.140	0.654	0.477	
12.145	0.541	0.476	
12.150	0.230	0.479	
12.155	0.550	0.463	
12.160	0.669	0.462	
12.165	0.292	0.477	
12.170	0.467	0.476	
12.175	0.837	0.482	
12.180	0.553	0.521	
12.185	0.489	0.556	
12.190	0.935	0.584	
12.195	0.808	0.636	
12.200	0.472	0.684	
12.205	0.794	0.699	
12.210	0.867	0.712	
12.215	0.400	0.722	
12.220	0.460	0.692	
12.225	0.735	0.644	
12.230	0.330	0.606	
12.235	0.111	0.545	
12.240	0.466	0.461	
12.245	0.279	0.396	
12.250	-0.087	0.334	
12.255	0.160	0.254	
12.260	0.206	0.188	
12.265	-0.153	0.140	
12.270	-0.086	0.082	
12.275	0.204	0.033	
12.280	-0.107	0.013	
12.285	-0.184	-0.009	
12.290	0.091	-0.035	
12.295	-0.037	-0.043	
12.300	-0.222	-0.049	
12.305	-0.040	-0.067	
12.310	0.018	-0.076	
12.315	-0.234	-0.078	
12.320	-0.171	-0.093	
12.325	0.029	-0.108	
12.330	-0.193	-0.110	
12.335	-0.248	-0.119	
12.340	0.006	-0.132	
12.345	-0.083	-0.129	
12.350	-0.248	-0.123	
12.355	-0.058	-0.126	
12.360	0.027	-0.120	
12.365	-0.226	-0.106	
12.370	-0.129	-0.105	
12.375	0.159	-0.100	
12.380	-0.112	-0.075	
12.385	-0.177	-0.061	
12.390	0.140	-0.057	
12.395	-0.003	-0.041	
12.400	-0.228	-0.029	
12.405	-0.061	-0.042	
12.410	-0.003	-0.057	
12.415	-0.243	-0.068	
12.420	-0.187	-0.092	
12.425	-0.020	-0.117	
12.430	-0.220	-0.128	
12.435	-0.292	-0.144	
12.440	-0.055	-0.165	
12.445	-0.139	-0.170	
12.450	-0.297	-0.170	
12.455	-0.100	-0.177	
12.460	-0.049	-0.173	
12.465	-0.265	-0.161	
12.470	-0.144	-0.158	
12.475	0.230	-0.142	
12.480	-0.017	-0.095	
12.485	0.001	-0.045	
12.490	0.510	0.011	
12.495	0.354	0.100	
12.500	-0.133	0.175	
12.505	-0.193	0.175	
12.510	-0.384	0.101	
12.515	-0.738	-0.032	
12.520	-0.715	-0.211	
12.525	-0.523	-0.384	
12.530	-0.593	-0.507	
12.535	-0.526	-0.577	
12.540	-0.190	-0.589	
12.545	-0.133	-0.535	
12.550	-0.199	-0.439	
12.555	0.162	-0.328	
12.560	0.264	-0.195	
12.565	-0.077	-0.066	
12.570	0.108	0.020	
12.575	0.447	0.086	
12.580	0.107	0.154	
12.585	0.049	0.191	
12.590	0.484	0.206	
12.595	0.331	0.238	
12.600	0.044	0.264	
12.605	0.444	0.268	
12.610	0.531	0.288	
12.615	0.140	0.321	
12.620	0.295	0.329	
12.625	0.663	0.336	
12.630	0.363	0.369	
12.635	0.354	0.398	
12.640	0.785	0.424	
12.645	0.634	0.477	
12.650	0.359	0.526	
12.655	0.771	0.551	
12.660	0.855	0.589	
12.665	0.402	0.632	
12.670	0.537	0.638	
12.675	0.811	0.628	
12.680	0.397	0.626	
12.685	0.226	0.593	
12.690	0.573	0.534	
12.695	0.353	0.485	
12.700	-0.019	0.430	
12.705	0.250	0.350	
12.710	0.261	0.280	
12.715	-0.119	0.224	
12.720	0.000	0.156	
12.725	0.235	0.099	
12.730	-0.110	0.070	
12.735	-0.165	0.035	
12.740	0.134	-0.002	
12.745	-0.031	-0.017	
12.750	-0.208	-0.027	
12.755	0.020	-0.047	
12.760	0.062	-0.053	
12.765	-0.214	-0.049	
12.770	-0.135	-0.062	
12.775	0.046	-0.076	
12.780	-0.196	-0.081	
12.785	-0.223	-0.094	
12.790	0.033	-0.112	
12.795	-0.092	-0.111	
12.800	-0.226	-0.108	
12.805	-0.011	-0.112	
12.810	0.033	-0.103	
12.815	-0.231	-0.088	
12.820	-0.141	-0.090	
12.825	0.119	-0.093	
12.830	-0.122	-0.079	
12.835	-0.141	-0.069	
12.840	0.204	-0.061	
12.845	-0.017	-0.034	
12.850	-0.207	-0.016	
12.855	0.030	-0.023	
12.860	0.070	-0.026	
12.865	-0.205	-0.024	
12.870	-0.126	-0.040	
12.875	0.047	-0.059	
12.880	-0.217	-0.069	
12.885	-0.249	-0.091	
12.890	-0.026	-0.119	
12.895	-0.158	-0.132	
12.900	-0.301	-0.144	
12.905	-0.084	-0.162	
12.910	-0.040	-0.164	
12.915	-0.281	-0.156	
12.920	-0.185	-0.159	
12.925	0.018	-0.161	
12.930	-0.177	-0.147	
12.935	-0.156	-0.136	
12.940	0.238	-0.117	
12.945	0.185	-0.063	
12.950	0.065	0.007	
12.955	0.542	0.079	
12.960	0.435	0.173	
12.965	-0.249	0.241	
12.970	-0.417	0.208	
12.975	-0.514	0.079	
12.980	-0.781	-0.101	
12.985	-0.786	-0.303	
12.990	-0.506	-0.478	
12.995	-0.466	-0.581	
13.000	-0.471	-0.612	
13.005	-0.147	-0.586	
13.010	-0.002	-0.501	
13.015	-0.173	-0.381	
13.020	0.032	-0.267	
13.025	0.369	-0.149	
13.030	0.049	-0.026	
13.035	0.003	0.061	
13.040	0.412	0.114	
13.045	0.203	0.167	
13.050	-0.022	0.198	
13.055	0.388	0.203	
13.060	0.415	0.221	
13.065	0.003	0.246	
13.070	0.201	0.241	
13.075	0.482	0.236	
13.080	0.180	0.251	
13.085	0.203	0.261	
13.090	0.646	0.274	
13.095	0.486	0.322	
13.100	0.266	0.372	
13.105	0.686	0.407	
13.110	0.767	0.460	
13.115	0.382	0.521	
13.120	0.603	0.553	
13.125	0.869	0.580	
13.130	0.435	0.615	
13.135	0.330	0.614	
13.140	0.676	0.582	
13.145	0.432	0.556	
13.150	0.108	0.517	
13.155	0.412	0.451	
13.160	0.353	0.395	
13.165	-0.072	0.343	
13.170	0.047	0.265	
13.175	0.240	0.191	
13.180	-0.104	0.138	
13.185	-0.153	0.081	
13.190	0.127	0.025	
13.195	-0.095	-0.007	
13.200	-0.246	-0.036	
13.205	-0.052	-0.073	
13.210	-0.063	-0.097	
13.215	-0.297	-0.112	
13.220	-0.177	-0.138	
13.225	-0.019	-0.156	
13.230	-0.232	-0.157	
13.235	-0.242	-0.162	
13.240	-0.006	-0.167	
13.245	-0.155	-0.158	
13.250	-0.291	-0.153	
13.255	-0.077	-0.159	
13.260	-0.078	-0.157	
13.265	-0.306	-0.152	
13.270	-0.188	-0.162	
13.275	-0.042	-0.170	
13.280	-0.248	-0.167	
13.285	-0.248	-0.171	
13.290	-0.002	-0.175	
13.295	-0.142	-0.164	
13.300	-0.255	-0.152	
13.305	0.012	-0.149	
13.310	0.015	-0.129	
13.315	-0.240	-0.105	
13.320	-0.132	-0.101	
13.325	0.044	-0.102	
13.330	-0.220	-0.096	
13.335	-0.237	-0.104	
13.340	-0.016	-0.122	
13.345	-0.197	-0.130	
13.350	-0.352	-0.145	
13.355	-0.155	-0.174	
13.360	-0.158	-0.194	
13.365	-0.365	-0.207	
13.370	-0.240	-0.227	
13.375	-0.112	-0.239	
13.380	-0.298	-0.236	
13.385	-0.287	-0.237	
13.390	-0.069	-0.237	
13.395	-0.184	-0.222	
13.400	-0.271	-0.206	
13.405	-0.003	-0.193	
13.410	0.076	-0.161	
13.415	-0.126	-0.114	
13.420	0.169	-0.071	
13.425	0.374	-0.009	
13.430	-0.239	0.054	
13.435	-0.483	0.048	
13.440	-0.508	-0.042	
13.445	-0.731	-0.182	
13.450	-0.811	-0.345	
13.455	-0.538	-0.495	
13.460	-0.478	-0.587	
13.465	-0.561	-0.618	
13.470	-0.327	-0.609	
13.475	-0.064	-0.551	
13.480	-0.184	-0.450	
13.485	-0.107	-0.342	
13.490	0.307	-0.230	
13.495	0.088	-0.105	
13.500	-0.087	-0.006	
13.505	0.296	0.053	
13.510	0.253	0.108	
13.515	-0.084	0.148	
13.520	0.166	0.152	
13.525	0.388	0.155	
13.530	0.004	0.172	
13.535	0.032	0.168	
13.540	0.440	0.159	
13.545	0.209	0.176	
13.550	0.013	0.193	
13.555	0.449	0.197	
13.560	0.473	0.226	
13.565	0.137	0.270	
13.570	0.421	0.295	
13.575	0.531	0.323	
13.580	0.009	0.346	
13.585	-0.048	0.317	
13.590	0.284	0.253	
13.595	0.023	0.200	
13.600	-0.168	0.144	
13.605	0.068	0.079	
13.610	-0.038	0.029	
13.615	-0.300	-0.015	
13.620	-0.205	-0.073	
13.625	-0.138	-0.127	
13.630	-0.367	-0.169	
13.635	-0.379	-0.216	
13.640	-0.208	-0.261	
13.645	-0.353	-0.288	
13.650	-0.456	-0.311	
13.655	-0.269	-0.336	
13.660	-0.303	-0.346	
13.665	-0.477	-0.349	
13.670	-0.344	-0.360	
13.675	-0.234	-0.364	
13.680	-0.398	-0.354	
13.685	-0.382	-0.349	
13.690	-0.200	-0.345	
13.695	-0.323	-0.331	
13.700	-0.422	-0.321	
13.705	-0.217	-0.321	
13.710	-0.222	-0.311	
13.715	-0.379	-0.297	
13.720	-0.236	-0.291	
13.725	-0.119	-0.280	
13.730	-0.300	-0.258	
13.735	-0.280	-0.246	
13.740	-0.077	-0.238	
13.745	-0.214	-0.220	
13.750	-0.315	-0.208	
13.755	-0.115	-0.208	
13.760	-0.116	-0.200	
13.765	-0.284	-0.189	
13.770	-0.150	-0.187	
13.775	-0.063	-0.181	
13.780	-0.275	-0.170	
13.785	-0.239	-0.173	
13.790	-0.023	-0.178	
13.795	-0.181	-0.169	
13.800	-0.278	-0.164	
13.805	-0.097	-0.170	
13.810	-0.144	-0.170	
13.815	-0.326	-0.171	
13.820	-0.190	-0.186	
13.825	-0.080	-0.195	
13.830	-0.274	-0.192	
13.835	-0.252	-0.196	
13.840	-0.026	-0.199	
13.845	-0.196	-0.187	
13.850	-0.284	-0.179	
13.855	-0.003	-0.177	
13.860	-0.022	-0.158	
13.865	-0.190	-0.131	
13.870	0.064	-0.108	
13.875	0.362	-0.064	
13.880	0.108	0.011	
13.885	0.189	0.082	
13.890	0.290	0.137	
13.895	-0.269	0.162	
13.900	-0.581	0.106	
13.905	-0.524	-0.031	
13.910	-0.559	-0.194	
13.915	-0.662	-0.344	
13.920	-0.443	-0.462	
13.925	-0.254	-0.518	
13.930	-0.349	-0.510	
13.935	-0.214	-0.466	
13.940	0.188	-0.385	
13.945	0.061	-0.264	
13.950	-0.048	-0.144	
13.955	0.337	-0.044	
13.960	0.269	0.054	
13.965	-0.042	0.131	
13.970	0.236	0.164	
13.975	0.392	0.188	
13.980	0.015	0.213	
13.985	0.024	0.207	
13.990	0.314	0.183	
13.995	0.049	0.170	
14.000	-0.066	0.148	
14.005	0.313	0.120	
14.010	0.218	0.121	
14.015	-0.075	0.130	
14.020	0.243	0.124	
14.025	0.499	0.141	
14.030	0.220	0.190	
14.035	0.322	0.238	
14.040	0.701	0.289	
14.045	0.473	0.363	
14.050	0.322	0.423	
14.055	0.652	0.456	
14.060	0.550	0.488	
14.065	0.227	0.506	
14.070	0.429	0.487	
14.075	0.452	0.459	
14.080	0.018	0.423	
14.085	0.020	0.350	
14.090	0.281	0.266	
14.095	-0.035	0.200	
14.100	-0.187	0.132	
14.105	0.033	0.057	
14.110	-0.058	0.001	
14.115	-0.252	-0.042	
14.120	-0.110	-0.086	
14.125	-0.017	-0.115	
14.130	-0.243	-0.126	
14.135	-0.197	-0.140	
14.140	0.036	-0.149	
14.145	-0.152	-0.139	
14.150	-0.223	-0.131	
14.155	0.033	-0.129	
14.160	-0.054	-0.114	
14.165	-0.240	-0.100	
14.170	-0.064	-0.102	
14.175	0.058	-0.099	
14.180	-0.205	-0.086	
14.185	-0.155	-0.087	
14.190	0.081	-0.092	
14.195	-0.142	-0.083	
14.200	-0.223	-0.083	
14.205	0.075	-0.092	
14.210	0.036	-0.081	
14.215	-0.168	-0.061	
14.220	0.052	-0.052	
14.225	0.152	-0.034	
14.230	-0.148	-0.009	
14.235	-0.089	-0.006	
14.240	0.204	-0.009	
14.245	-0.055	0.003	
14.250	-0.170	0.005	
14.255	0.085	-0.009	
14.260	-0.026	-0.015	
14.265	-0.239	-0.025	
14.270	-0.109	-0.054	
14.275	-0.055	-0.081	
14.280	-0.255	-0.102	
14.285	-0.203	-0.129	
14.290	0.021	-0.148	
14.295	-0.170	-0.145	
14.300	-0.228	-0.142	
14.305	0.024	-0.142	
14.310	-0.019	-0.125	
14.315	-0.171	-0.102	
14.320	0.108	-0.084	
14.325	0.307	-0.043	
14.330	0.035	0.020	
14.335	0.223	0.075	
14.340	0.586	0.137	
14.345	0.059	0.210	
14.350	-0.310	0.225	
14.355	-0.353	0.149	
14.360	-0.526	0.013	
14.365	-0.676	-0.153	
14.370	-0.491	-0.315	
14.375	-0.352	-0.429	
14.380	-0.433	-0.481	
14.385	-0.294	-0.488	
14.390	0.003	-0.448	
14.395	-0.086	-0.363	
14.400	-0.086	-0.266	
14.405	0.350	-0.165	
14.410	0.330	-0.041	
14.415	0.046	0.076	
14.420	0.304	0.153	
14.425	0.394	0.211	
14.430	0.047	0.253	
14.435	0.180	0.258	
14.440	0.524	0.256	
14.445	0.227	0.274	
14.450	0.105	0.283	
14.455	0.489	0.278	
14.460	0.434	0.294	
14.465	0.192	0.319	
14.470	0.528	0.335	
14.475	0.658	0.368	
14.480	0.351	0.418	
14.485	0.534	0.453	
14.490	0.898	0.494	
14.495	0.615	0.558	
14.500	0.490	0.608	
14.505	0.872	0.634	
14.510	0.745	0.667	
14.515	0.402	0.688	
14.520	0.649	0.673	
14.525	0.647	0.649	
14.530	0.204	0.617	
14.535	0.255	0.548	
14.540	0.473	0.467	
14.545	0.081	0.401	
14.550	-0.072	0.320	
14.555	0.235	0.229	
14.560	0.078	0.164	
14.565	-0.170	0.112	
14.570	-0.026	0.052	
14.575	0.026	0.004	
14.580	-0.219	-0.029	
14.585	-0.153	-0.066	
14.590	0.097	-0.092	
14.595	-0.122	-0.091	
14.600	-0.181	-0.089	
14.605	0.088	-0.090	
14.610	-0.016	-0.075	
14.615	-0.194	-0.060	
14.620	0.003	-0.060	
14.625	0.087	-0.054	
14.630	-0.181	-0.041	
14.635	-0.121	-0.045	
14.640	0.114	-0.053	
14.645	-0.136	-0.049	
14.650	-0.193	-0.054	
14.655	0.093	-0.066	
14.660	-0.009	-0.061	
14.665	-0.176	-0.052	
14.670	0.065	-0.051	
14.675	0.159	-0.036	
14.680	-0.156	-0.012	
14.685	-0.089	-0.009	
14.690	0.152	-0.014	
14.695	-0.118	-0.010	
14.700	-0.173	-0.017	
14.705	0.078	-0.036	
14.710	-0.048	-0.041	
14.715	-0.240	-0.048	
14.720	-0.089	-0.071	
14.725	-0.034	-0.090	
14.730	-0.248	-0.102	
14.735	-0.190	-0.122	
14.740	0.009	-0.138	
14.745	-0.187	-0.137	
14.750	-0.246	-0.139	
14.755	-0.009	-0.146	
14.760	-0.066	-0.138	
14.765	-0.194	-0.124	
14.770	0.061	-0.113	
14.775	0.194	-0.080	
14.780	-0.045	-0.031	
14.785	0.220	0.014	
14.790	0.537	0.076	
14.795	0.073	0.156	
14.800	-0.248	0.187	
14.805	-0.272	0.135	
14.810	-0.508	0.025	
14.815	-0.697	-0.125	
14.820	-0.515	-0.288	
14.825	-0.411	-0.413	
14.830	-0.495	-0.483	
14.835	-0.327	-0.508	
14.840	-0.078	-0.483	
14.845	-0.150	-0.411	
14.850	-0.115	-0.323	
14.855	0.316	-0.222	
14.860	0.218	-0.098	
14.865	-0.034	0.014	
14.870	0.360	0.090	
14.875	0.423	0.162	
14.880	0.001	0.223	
14.885	0.133	0.238	
14.890	0.437	0.234	
14.895	0.185	0.243	
14.900	0.111	0.246	
14.905	0.499	0.243	
14.910	0.406	0.267	
14.915	0.124	0.296	
14.920	0.482	0.308	
14.925	0.623	0.336	
14.930	0.298	0.381	
14.935	0.476	0.411	
14.940	0.790	0.444	
14.945	0.513	0.497	
14.950	0.429	0.535	
14.955	0.764	0.553	
14.960	0.585	0.577	
14.965	0.276	0.585	
14.970	0.585	0.560	
14.975	0.617	0.539	
14.980	0.188	0.522	
14.985	0.269	0.476	
14.990	0.487	0.421	
14.995	0.116	0.379	
15.000	-0.011	0.321	
15.005	0.311	0.252	
15.010	0.107	0.205	
15.015	-0.135	0.162	
15.020	0.061	0.106	
15.025	0.082	0.062	
15.030	-0.187	0.031	
15.035	-0.098	-0.008	
15.040	0.168	-0.036	
15.045	-0.100	-0.036	
15.050	-0.144	-0.038	
15.055	0.169	-0.042	
15.060	0.049	-0.025	
15.065	-0.158	-0.007	
15.070	0.087	-0.005	
15.075	0.156	0.005	
15.080	-0.126	0.021	
15.085	-0.002	0.021	
15.090	0.227	0.021	
15.095	-0.087	0.035	
15.100	-0.158	0.030	
15.105	0.156	0.011	
15.110	0.035	0.008	
15.115	-0.139	0.009	
15.120	0.131	0.003	
15.125	0.191	0.014	
15.130	-0.135	0.034	
15.135	-0.032	0.032	
15.140	0.217	0.027	
15.145	-0.092	0.033	
15.150	-0.132	0.026	
15.155	0.177	0.009	
15.160	-0.006	0.009	
15.165	-0.240	0.004	
15.170	-0.051	-0.024	
15.175	0.009	-0.049	
15.180	-0.217	-0.063	
15.185	-0.100	-0.083	
15.190	0.218	-0.087	
15.195	-0.046	-0.059	
15.200	-0.090	-0.033	
15.205	0.281	-0.011	
15.210	0.119	0.028	
15.215	-0.092	0.062	
15.220	0.330	0.080	
15.225	0.482	0.122	
15.230	0.177	0.188	
15.235	0.424	0.244	
15.240	0.779	0.310	
15.245	0.391	0.395	
15.250	-0.006	0.435	
15.255	-0.023	0.391	
15.260	-0.329	0.280	
15.265	-0.590	0.115	
15.270	-0.422	-0.077	
15.275	-0.324	-0.238	
15.280	-0.417	-0.342	
15.285	-0.217	-0.393	
15.290	0.160	-0.378	
15.295	0.012	-0.295	
15.300	0.072	-0.188	
15.305	0.585	-0.067	
15.310	0.443	0.083	
15.315	0.117	0.214	
15.320	0.489	0.293	
15.325	0.553	0.354	
15.330	0.143	0.399	
15.335	0.308	0.400	
15.340	0.586	0.389	
15.345	0.224	0.390	
15.350	0.162	0.374	
15.355	0.582	0.349	
15.360	0.409	0.353	
15.365	0.122	0.359	
15.370	0.522	0.351	
15.375	0.589	0.363	
15.380	0.221	0.390	
15.385	0.449	0.400	
15.390	0.770	0.418	
15.395	0.412	0.461	
15.400	0.382	0.488	
15.405	0.794	0.502	
15.410	0.560	0.533	
15.415	0.243	0.549	
15.420	0.580	0.531	
15.425	0.563	0.515	
15.430	0.085	0.495	
15.435	0.221	0.437	
15.440	0.435	0.373	
15.445	-0.005	0.323	
15.450	-0.084	0.254	
15.455	0.220	0.176	
15.460	-0.019	0.120	
15.465	-0.228	0.069	
15.470	-0.026	0.007	
15.475	-0.034	-0.038	
15.480	-0.266	-0.071	
15.485	-0.155	-0.107	
15.490	0.009	-0.131	
15.495	-0.232	-0.136	
15.500	-0.269	-0.146	
15.505	-0.035	-0.162	
15.510	-0.170	-0.163	
15.515	-0.327	-0.166	
15.520	-0.126	-0.181	
15.525	-0.101	-0.186	
15.530	-0.320	-0.184	
15.535	-0.216	-0.193	
15.540	-0.054	-0.199	
15.545	-0.265	-0.193	
15.550	-0.295	-0.194	
15.555	-0.069	-0.202	
15.560	-0.184	-0.197	
15.565	-0.320	-0.193	
15.570	-0.113	-0.199	
15.575	-0.086	-0.194	
15.580	-0.280	-0.182	
15.585	-0.147	-0.179	
15.590	0.041	-0.169	
15.595	-0.225	-0.146	
15.600	-0.254	-0.139	
15.605	-0.014	-0.144	
15.610	-0.161	-0.140	
15.615	-0.310	-0.142	
15.620	-0.133	-0.159	
15.625	-0.139	-0.171	
15.630	-0.359	-0.181	
15.635	-0.258	-0.204	
15.640	-0.127	-0.224	
15.645	-0.342	-0.232	
15.650	-0.359	-0.247	
15.655	-0.127	-0.264	
15.660	-0.234	-0.262	
15.665	-0.362	-0.257	
15.670	-0.139	-0.258	
15.675	-0.113	-0.246	
15.680	-0.268	-0.223	
15.685	-0.078	-0.205	
15.690	0.267	-0.165	
15.695	0.012	-0.094	
15.700	0.023	-0.027	
15.705	0.318	0.029	
15.710	-0.174	0.073	
15.715	-0.543	0.054	
15.720	-0.546	-0.048	
15.725	-0.634	-0.194	
15.730	-0.845	-0.353	
15.735	-0.677	-0.504	
15.740	-0.428	-0.607	
15.745	-0.486	-0.638	
15.750	-0.361	-0.617	
15.755	0.015	-0.548	
15.760	-0.043	-0.430	
15.765	-0.152	-0.303	
15.770	0.197	-0.192	
15.775	0.201	-0.081	
15.780	-0.126	0.010	
15.785	0.081	0.055	
15.790	0.385	0.086	
15.795	0.006	0.125	
15.800	-0.019	0.138	
15.805	0.386	0.136	
15.810	0.185	0.153	
15.815	-0.023	0.167	
15.820	0.414	0.168	
15.825	0.449	0.196	
15.830	0.067	0.237	
15.835	0.347	0.256	
15.840	0.640	0.283	
15.845	0.253	0.331	
15.850	0.278	0.359	
15.855	0.754	0.379	
15.860	0.559	0.427	
15.865	0.304	0.472	
15.870	0.721	0.494	
15.875	0.704	0.527	
15.880	0.236	0.555	
15.885	0.411	0.540	
15.890	0.597	0.509	
15.895	0.156	0.481	
15.900	0.068	0.424	
15.905	0.409	0.350	
15.910	0.114	0.295	
15.915	-0.133	0.237	
15.920	0.120	0.163	
15.925	0.053	0.104	
15.930	-0.225	0.056	
15.935	-0.095	-0.001	
15.940	0.039	-0.046	
15.945	-0.222	-0.070	
15.950	-0.214	-0.098	
15.955	0.073	-0.120	
15.960	-0.124	-0.118	
15.965	-0.263	-0.115	
15.970	-0.048	-0.125	
15.975	-0.060	-0.126	
15.980	-0.287	-0.124	
15.985	-0.164	-0.137	
15.990	-0.029	-0.148	
15.995	-0.269	-0.149	
16.000	-0.272	-0.160	
16.005	-0.029	-0.175	
16.010	-0.177	-0.174	
16.015	-0.292	-0.172	
16.020	-0.048	-0.177	
16.025	-0.038	-0.166	
16.030	-0.266	-0.148	
16.035	-0.116	-0.144	
16.040	0.107	-0.133	
16.045	-0.167	-0.107	
16.050	-0.159	-0.092	
16.055	0.151	-0.083	
16.060	-0.066	-0.060	
16.065	-0.231	-0.047	
16.070	0.007	-0.056	
16.075	-0.019	-0.061	
16.080	-0.251	-0.065	
16.085	-0.138	-0.086	
16.090	-0.023	-0.105	
16.095	-0.268	-0.116	
16.100	-0.260	-0.138	
16.105	-0.023	-0.161	
16.110	-0.179	-0.165	
16.115	-0.303	-0.168	
16.120	-0.060	-0.177	
16.125	-0.071	-0.172	
16.130	-0.281	-0.160	
16.135	-0.133	-0.160	
16.140	0.076	-0.152	
16.145	-0.152	-0.126	
16.150	-0.084	-0.105	
16.155	0.403	-0.071	
16.160	0.301	0.006	
16.165	0.130	0.095	
16.170	0.366	0.164	
16.175	-0.080	0.204	
16.180	-0.532	0.171	
16.185	-0.593	0.043	
16.190	-0.572	-0.134	
16.195	-0.734	-0.310	
16.200	-0.648	-0.463	
16.205	-0.330	-0.562	
16.210	-0.318	-0.582	
16.215	-0.295	-0.543	
16.220	0.127	-0.459	
16.225	0.215	-0.325	
16.230	-0.090	-0.178	
16.235	0.172	-0.063	
16.240	0.443	0.037	
16.245	0.093	0.133	
16.250	0.134	0.190	
16.255	0.522	0.224	
16.260	0.267	0.266	
16.265	0.084	0.291	
16.270	0.521	0.293	
16.275	0.463	0.313	
16.280	0.078	0.336	
16.285	0.372	0.330	
16.290	0.640	0.334	
16.295	0.259	0.363	
16.300	0.307	0.377	
16.305	0.753	0.390	
16.310	0.533	0.432	
16.315	0.369	0.474	
16.320	0.823	0.504	
16.325	0.782	0.555	
16.330	0.403	0.606	
16.335	0.702	0.625	
16.340	0.870	0.643	
16.345	0.434	0.665	
16.350	0.405	0.653	
16.355	0.698	0.615	
16.360	0.365	0.584	
16.365	0.111	0.531	
16.370	0.466	0.456	
16.375	0.333	0.398	
16.380	-0.086	0.345	
16.385	0.091	0.266	
16.390	0.244	0.194	
16.395	-0.126	0.144	
16.400	-0.126	0.087	
16.405	0.157	0.032	
16.410	-0.086	0.004	
16.415	-0.200	-0.020	
16.420	0.059	-0.048	
16.425	0.007	-0.057	
16.430	-0.229	-0.057	
16.435	-0.095	-0.072	
16.440	0.021	-0.085	
16.445	-0.226	-0.088	
16.450	-0.214	-0.103	
16.455	0.036	-0.120	
16.460	-0.142	-0.119	
16.465	-0.248	-0.120	
16.470	-0.035	-0.129	
16.475	-0.080	-0.128	
16.480	-0.268	-0.125	
16.485	-0.092	-0.133	
16.490	0.049	-0.131	
16.495	-0.229	-0.117	
16.500	-0.208	-0.116	
16.505	0.075	-0.121	
16.510	-0.087	-0.108	
16.515	-0.181	-0.094	
16.520	0.094	-0.087	
16.525	0.039	-0.065	
16.530	-0.213	-0.044	
16.535	-0.083	-0.047	
16.540	0.053	-0.055	
16.545	-0.220	-0.058	
16.550	-0.217	-0.076	
16.555	-0.019	-0.103	
16.560	-0.203	-0.118	
16.565	-0.301	-0.137	
16.570	-0.081	-0.162	
16.575	-0.124	-0.172	
16.580	-0.324	-0.175	
16.585	-0.164	-0.187	
16.590	-0.051	-0.191	
16.595	-0.280	-0.183	
16.600	-0.242	-0.185	
16.605	0.010	-0.186	
16.610	-0.135	-0.169	
16.615	-0.200	-0.150	
16.620	0.139	-0.132	
16.625	0.146	-0.088	
16.630	-0.066	-0.033	
16.635	0.264	0.012	
16.640	0.220	0.064	
16.645	-0.350	0.094	
16.650	-0.544	0.044	
16.655	-0.541	-0.080	
16.660	-0.711	-0.234	
16.665	-0.734	-0.391	
16.670	-0.451	-0.517	
16.675	-0.388	-0.577	
16.680	-0.474	-0.579	
16.685	-0.220	-0.545	
16.690	0.017	-0.469	
16.695	-0.184	-0.362	
16.700	-0.092	-0.263	
16.705	0.284	-0.170	
16.710	0.006	-0.070	
16.715	-0.103	0.000	
16.720	0.298	0.040	
16.725	0.230	0.085	
16.730	-0.106	0.122	
16.735	0.015	0.119	
16.740	0.030	0.093	
16.745	-0.263	0.055	
16.750	-0.249	-0.008	
16.755	-0.055	-0.076	
16.760	-0.214	-0.121	
16.765	-0.274	-0.156	
16.770	-0.066	-0.183	
16.775	-0.133	-0.187	
16.780	-0.291	-0.183	
16.785	-0.124	-0.186	
16.790	-0.008	-0.179	
16.795	-0.228	-0.159	
16.800	-0.213	-0.151	
16.805	-0.064	-0.152	
16.810	-0.240	-0.152	
16.815	-0.317	-0.163	
16.820	-0.139	-0.185	
16.825	-0.210	-0.199	
16.830	-0.401	-0.214	
16.835	-0.278	-0.241	
16.840	-0.228	-0.264	
16.845	-0.426	-0.281	
16.850	-0.413	-0.306	
16.855	-0.278	-0.332	
16.860	-0.416	-0.348	
16.865	-0.474	-0.365	
16.870	-0.295	-0.382	
16.875	-0.332	-0.384	
16.880	-0.477	-0.381	
16.885	-0.342	-0.384	
16.890	-0.286	-0.381	
16.895	-0.446	-0.373	
16.900	-0.393	-0.372	
16.905	-0.239	-0.371	
16.910	-0.350	-0.358	
16.915	-0.399	-0.348	
16.920	-0.199	-0.340	
16.925	-0.252	-0.322	
16.930	-0.407	-0.305	
16.935	-0.260	-0.302	
16.940	-0.185	-0.296	
16.945	-0.347	-0.283	
16.950	-0.297	-0.279	
16.955	-0.130	-0.275	
16.960	-0.254	-0.260	
16.965	-0.307	-0.248	
16.970	-0.071	-0.239	
16.975	-0.115	-0.217	
16.980	-0.271	-0.193	
16.985	-0.101	-0.180	
16.990	-0.025	-0.163	
16.995	-0.242	-0.143	
17.000	-0.179	-0.139	
17.005	-0.035	-0.140	
17.010	-0.245	-0.138	
17.015	-0.303	-0.149	
17.020	-0.113	-0.172	
17.025	-0.182	-0.184	
17.030	-0.327	-0.193	
17.035	-0.168	-0.208	
17.040	-0.095	-0.212	
17.045	-0.303	-0.206	
17.050	-0.234	-0.208	
17.055	-0.060	-0.208	
17.060	-0.222	-0.197	
17.065	-0.254	-0.190	
17.070	0.013	-0.184	
17.075	-0.009	-0.159	
17.080	-0.164	-0.124	
17.085	0.134	-0.094	
17.090	0.333	-0.042	
17.095	0.067	0.032	
17.100	0.024	0.085	
17.105	-0.064	0.098	
17.110	-0.463	0.060	
17.115	-0.674	-0.047	
17.120	-0.538	-0.199	
17.125	-0.566	-0.344	
17.130	-0.627	-0.458	
17.135	-0.407	-0.532	
17.140	-0.254	-0.548	
17.145	-0.329	-0.513	
17.150	-0.177	-0.451	
17.155	0.146	-0.362	
17.160	-0.051	-0.248	
17.165	-0.061	-0.148	
17.170	0.302	-0.065	
17.175	0.185	0.021	
17.180	-0.025	0.090	
17.185	0.328	0.128	
17.190	0.376	0.170	
17.195	0.023	0.210	
17.200	0.131	0.216	
17.205	0.379	0.210	
17.210	0.093	0.214	
17.215	0.030	0.203	
17.220	0.424	0.187	
17.225	0.339	0.201	
17.230	0.097	0.226	
17.235	0.440	0.242	
17.240	0.586	0.277	
17.245	0.284	0.330	
17.250	0.429	0.369	
17.255	0.718	0.406	
17.260	0.458	0.456	
17.265	0.339	0.488	
17.270	0.618	0.494	
17.275	0.421	0.498	
17.280	0.096	0.480	
17.285	0.343	0.427	
17.290	0.342	0.374	
17.295	-0.061	0.323	
17.300	-0.025	0.248	
17.305	0.148	0.167	
17.310	-0.132	0.102	
17.315	-0.197	0.037	
17.320	-0.014	-0.026	
17.325	-0.142	-0.070	
17.330	-0.303	-0.106	
17.335	-0.167	-0.146	
17.340	-0.147	-0.175	
17.345	-0.312	-0.193	
17.350	-0.232	-0.212	
17.355	-0.049	-0.221	
17.360	-0.234	-0.210	
17.365	-0.271	-0.203	
17.370	-0.054	-0.200	
17.375	-0.167	-0.187	
17.380	-0.312	-0.178	
17.385	-0.129	-0.183	
17.390	-0.077	-0.182	
17.395	-0.280	-0.174	
17.400	-0.181	-0.175	
17.405	-0.035	-0.175	
17.410	-0.254	-0.166	
17.415	-0.280	-0.169	
17.420	-0.031	-0.178	
17.425	-0.098	-0.170	
17.430	-0.231	-0.156	
17.435	-0.042	-0.148	
17.440	-0.026	-0.132	
17.445	-0.245	-0.116	
17.450	-0.177	-0.118	
17.455	0.006	-0.125	
17.460	-0.208	-0.123	
17.465	-0.251	-0.129	
17.470	-0.054	-0.144	
17.475	-0.185	-0.150	
17.480	-0.335	-0.160	
17.485	-0.176	-0.183	
17.490	-0.174	-0.200	
17.495	-0.358	-0.213	
17.500	-0.263	-0.233	
17.505	-0.107	-0.245	
17.510	-0.268	-0.241	
17.515	-0.295	-0.237	
17.520	-0.089	-0.235	
17.525	-0.155	-0.220	
17.530	-0.243	-0.201	
17.535	0.038	-0.183	
17.540	0.149	-0.141	
17.545	-0.078	-0.082	
17.550	0.165	-0.031	
17.555	0.269	0.024	
17.560	-0.255	0.067	
17.565	-0.517	0.041	
17.570	-0.527	-0.063	
17.575	-0.660	-0.206	
17.580	-0.757	-0.358	
17.585	-0.530	-0.492	
17.590	-0.425	-0.570	
17.595	-0.500	-0.590	
17.600	-0.297	-0.571	
17.605	-0.037	-0.508	
17.610	-0.190	-0.409	
17.615	-0.176	-0.312	
17.620	0.194	-0.223	
17.625	0.082	-0.125	
17.630	-0.113	-0.042	
17.635	0.206	0.009	
17.640	0.258	0.059	
17.645	-0.049	0.103	
17.650	0.116	0.119	
17.655	0.366	0.130	
17.660	0.073	0.154	
17.665	0.081	0.164	
17.670	0.455	0.171	
17.675	0.259	0.201	
17.680	0.032	0.225	
17.685	0.388	0.228	
17.690	0.467	0.246	
17.695	0.191	0.279	
17.700	0.438	0.304	
17.705	0.693	0.341	
17.710	0.408	0.399	
17.715	0.383	0.441	
17.720	0.761	0.470	
17.725	0.541	0.510	
17.730	0.238	0.532	
17.735	0.524	0.515	
17.740	0.479	0.493	
17.745	0.036	0.462	
17.750	0.105	0.391	
17.755	0.253	0.308	
17.760	-0.098	0.233	
17.765	-0.145	0.150	
17.770	0.097	0.067	
17.775	-0.084	0.013	
17.780	-0.239	-0.030	
17.785	-0.037	-0.074	
17.790	0.035	-0.094	
17.795	-0.225	-0.096	
17.800	-0.150	-0.105	
17.805	-0.006	-0.115	
17.810	-0.156	-0.113	
17.815	-0.161	-0.113	
17.820	0.032	-0.113	
17.825	-0.142	-0.103	
17.830	-0.263	-0.103	
17.835	-0.014	-0.116	
17.840	-0.029	-0.115	
17.845	-0.252	-0.109	
17.850	-0.139	-0.116	
17.855	0.013	-0.123	
17.860	-0.200	-0.118	
17.865	-0.196	-0.120	
17.870	0.056	-0.124	
17.875	-0.101	-0.112	
17.880	-0.174	-0.100	
17.885	0.082	-0.092	
17.890	0.038	-0.070	
17.895	-0.237	-0.050	
17.900	-0.095	-0.056	
17.905	0.075	-0.064	
17.910	-0.199	-0.063	
17.915	-0.220	-0.076	
17.920	-0.002	-0.098	
17.925	-0.156	-0.108	
17.930	-0.303	-0.122	
17.935	-0.127	-0.147	
17.940	-0.130	-0.164	
17.945	-0.318	-0.175	
17.950	-0.216	-0.193	
17.955	-0.081	-0.205	
17.960	-0.263	-0.202	
17.965	-0.269	-0.204	
17.970	-0.031	-0.206	
17.975	-0.148	-0.191	
17.980	-0.242	-0.174	
17.985	0.065	-0.160	
17.990	0.203	-0.120	
17.995	-0.051	-0.058	
18.000	0.223	-0.002	
18.005	0.434	0.064	
18.010	-0.129	0.129	
18.015	-0.352	0.129	
18.020	-0.364	0.050	
18.025	-0.579	-0.074	
18.030	-0.709	-0.225	
18.035	-0.486	-0.372	
18.040	-0.376	-0.471	
18.045	-0.443	-0.510	
18.050	-0.236	-0.504	
18.055	0.085	-0.447	
18.060	-0.061	-0.342	
18.065	0.061	-0.226	
18.070	0.490	-0.102	
18.075	0.318	0.041	
18.080	0.119	0.160	
18.085	0.537	0.240	
18.090	0.576	0.317	
18.095	0.249	0.385	
18.100	0.487	0.420	
18.105	0.765	0.451	
18.110	0.435	0.496	
18.115	0.431	0.522	
18.120	0.825	0.537	
18.125	0.621	0.569	
18.130	0.418	0.595	
18.135	0.835	0.604	
18.140	0.880	0.633	
18.145	0.556	0.677	
18.150	0.767	0.700	
18.155	1.014	0.726	
18.160	0.692	0.765	
18.165	0.684	0.786	
18.170	1.069	0.795	
18.175	0.834	0.822	
18.180	0.518	0.833	
18.185	0.835	0.810	
18.190	0.788	0.786	
18.195	0.360	0.758	
18.200	0.510	0.697	
18.205	0.638	0.631	
18.210	0.181	0.573	
18.215	0.097	0.490	
18.220	0.429	0.396	
18.225	0.143	0.327	
18.230	-0.095	0.261	
18.235	0.229	0.189	
18.240	0.211	0.145	
18.245	-0.130	0.121	
18.250	0.018	0.085	
18.255	0.229	0.058	
18.260	-0.107	0.051	
18.265	-0.122	0.033	
18.270	0.211	0.012	
18.275	0.012	0.013	
18.280	-0.162	0.015	
18.285	0.087	0.003	
18.290	0.052	-0.001	
18.295	-0.194	-0.003	
18.300	-0.058	-0.021	
18.305	0.148	-0.034	
18.310	-0.158	-0.030	
18.315	-0.150	-0.038	
18.320	0.180	-0.047	
18.325	-0.035	-0.035	
18.330	-0.179	-0.026	
18.335	0.127	-0.029	
18.340	0.130	-0.016	
18.345	-0.153	0.005	
18.350	-0.003	0.005	
18.355	0.194	0.006	
18.360	-0.141	0.017	
18.365	-0.156	0.008	
18.370	0.116	-0.014	
18.375	-0.115	-0.024	
18.380	-0.268	-0.042	
18.385	-0.052	-0.075	
18.390	-0.084	-0.099	
18.395	-0.303	-0.117	
18.400	-0.176	-0.144	
18.405	-0.026	-0.162	
18.410	-0.239	-0.162	
18.415	-0.239	-0.167	
18.420	0.020	-0.171	
18.425	-0.136	-0.156	
18.430	-0.254	-0.144	
18.435	0.030	-0.139	
18.440	0.090	-0.116	
18.445	-0.144	-0.080	
18.450	0.128	-0.051	
18.455	0.464	-0.001	
18.460	0.041	0.075	
18.465	-0.171	0.115	
18.470	-0.194	0.091	
18.475	-0.504	0.013	
18.480	-0.724	-0.116	
18.485	-0.552	-0.274	
18.490	-0.515	-0.409	
18.495	-0.601	-0.501	
18.500	-0.388	-0.551	
18.505	-0.158	-0.544	
18.510	-0.245	-0.485	
18.515	-0.139	-0.402	
18.520	0.321	-0.297	
18.525	0.157	-0.160	
18.530	-0.006	-0.034	
18.535	0.421	0.060	
18.540	0.369	0.151	
18.545	-0.011	0.221	
18.550	0.259	0.243	
18.555	0.467	0.253	
18.560	0.084	0.271	
18.565	0.085	0.263	
18.570	0.446	0.243	
18.575	0.203	0.242	
18.580	0.001	0.237	
18.585	0.432	0.220	
18.590	0.427	0.231	
18.595	0.096	0.257	
18.600	0.379	0.269	
18.605	0.589	0.291	
18.610	0.249	0.332	
18.615	0.259	0.353	
18.620	0.615	0.362	
18.625	0.299	0.382	
18.630	0.056	0.380	
18.635	0.397	0.346	
18.640	0.324	0.320	
18.645	-0.055	0.293	
18.650	0.139	0.243	
18.655	0.334	0.198	
18.660	-0.058	0.175	
18.665	-0.097	0.136	
18.670	0.201	0.090	
18.675	-0.055	0.062	
18.680	-0.188	0.033	
18.685	0.087	-0.004	
18.690	0.009	-0.021	
18.695	-0.248	-0.033	
18.700	-0.115	-0.060	
18.705	0.033	-0.083	
18.710	-0.199	-0.090	
18.715	-0.171	-0.102	
18.720	0.105	-0.109	
18.725	-0.098	-0.095	
18.730	-0.219	-0.085	
18.735	0.012	-0.089	
18.740	-0.028	-0.084	
18.745	-0.240	-0.080	
18.750	-0.092	-0.090	
18.755	0.038	-0.097	
18.760	-0.217	-0.093	
18.765	-0.179	-0.100	
18.770	0.159	-0.105	
18.775	-0.054	-0.084	
18.780	-0.193	-0.064	
18.785	0.093	-0.059	
18.790	0.096	-0.041	
18.795	-0.164	-0.019	
18.800	0.029	-0.014	
18.805	0.232	-0.004	
18.810	-0.100	0.021	
18.815	-0.075	0.027	
18.820	0.279	0.026	
18.825	0.029	0.045	
18.830	-0.152	0.054	
18.835	0.104	0.041	
18.840	0.017	0.030	
18.845	-0.232	0.015	
18.850	-0.078	-0.020	
18.855	0.052	-0.049	
18.860	-0.213	-0.062	
18.865	-0.168	-0.083	
18.870	0.125	-0.097	
18.875	-0.106	-0.087	
18.880	-0.214	-0.080	
18.885	0.094	-0.082	
18.890	0.088	-0.065	
18.895	-0.158	-0.039	
18.900	0.108	-0.025	
18.905	0.392	0.007	
18.910	0.136	0.070	
18.915	0.261	0.130	
18.920	0.565	0.192	
18.925	-0.028	0.250	
18.930	-0.384	0.238	
18.935	-0.367	0.135	
18.940	-0.506	-0.016	
18.945	-0.683	-0.182	
18.950	-0.480	-0.339	
18.955	-0.287	-0.442	
18.960	-0.350	-0.477	
18.965	-0.194	-0.460	
18.970	0.314	-0.386	
18.975	0.236	-0.248	
18.980	0.157	-0.091	
18.985	0.643	0.059	
18.990	0.620	0.216	
18.995	0.266	0.353	
19.000	0.574	0.435	
19.005	0.794	0.497	
19.010	0.437	0.555	
19.015	0.518	0.582	
19.020	0.870	0.596	
19.025	0.582	0.624	
19.030	0.402	0.635	
19.035	0.809	0.624	
19.040	0.730	0.631	
19.045	0.382	0.640	
19.050	0.693	0.627	
19.055	0.932	0.630	
19.060	0.603	0.661	
19.065	0.767	0.688	
19.070	1.259	0.731	
19.075	1.040	0.817	
19.080	0.887	0.903	
19.085	1.292	0.968	
19.090	1.193	1.037	
19.095	0.727	1.083	
19.100	0.958	1.072	
19.105	1.058	1.039	
19.110	0.554	0.999	
19.115	0.513	0.918	
19.120	0.819	0.820	
19.125	0.444	0.740	
19.130	0.171	0.651	
19.135	0.516	0.547	
19.140	0.402	0.469	
19.145	-0.023	0.404	
19.150	0.203	0.323	
19.155	0.321	0.256	
19.160	-0.081	0.211	
19.165	-0.049	0.155	
19.170	0.282	0.104	
19.175	-0.016	0.082	
19.180	-0.148	0.061	
19.185	0.163	0.033	
19.190	0.105	0.026	
19.195	-0.170	0.027	
19.200	0.004	0.012	
19.205	0.165	0.003	
19.210	-0.168	0.005	
19.215	-0.135	-0.009	
19.220	0.152	-0.027	
19.225	-0.103	-0.028	
19.230	-0.200	-0.035	
19.235	0.110	-0.050	
19.240	0.041	-0.046	
19.245	-0.196	-0.035	
19.250	0.018	-0.039	
19.255	0.233	-0.030	
19.260	-0.127	-0.004	
19.265	-0.106	0.004	
19.270	0.201	0.001	
19.275	-0.089	0.009	
19.280	-0.205	0.003	
19.285	0.082	-0.020	
19.290	-0.009	-0.030	
19.295	-0.268	-0.039	
19.300	-0.126	-0.067	
19.305	-0.019	-0.093	
19.310	-0.280	-0.109	
19.315	-0.248	-0.135	
19.320	-0.011	-0.159	
19.325	-0.190	-0.163	
19.330	-0.287	-0.166	
19.335	-0.048	-0.174	
19.340	-0.086	-0.168	
19.345	-0.283	-0.157	
19.350	-0.115	-0.158	
19.355	0.067	-0.150	
19.360	-0.161	-0.125	
19.365	-0.034	-0.103	
19.370	0.427	-0.064	
19.375	0.134	0.011	
19.380	-0.159	0.071	
19.385	-0.181	0.070	
19.390	-0.466	0.011	
19.395	-0.808	-0.108	
19.400	-0.723	-0.277	
19.405	-0.599	-0.440	
19.410	-0.692	-0.560	
19.415	-0.523	-0.631	
19.420	-0.210	-0.639	
19.425	-0.232	-0.580	
19.430	-0.202	-0.484	
19.435	0.235	-0.366	
19.440	0.252	-0.216	
19.445	-0.072	-0.072	
19.450	0.226	0.027	
19.455	0.429	0.109	
19.460	0.042	0.181	
19.465	0.149	0.213	
19.470	0.510	0.229	
19.475	0.194	0.258	
19.480	0.033	0.267	
19.485	0.476	0.256	
19.490	0.411	0.268	
19.495	0.055	0.287	
19.500	0.400	0.286	
19.505	0.579	0.298	
19.510	0.226	0.332	
19.515	0.385	0.352	
19.520	0.790	0.380	
19.525	0.515	0.438	
19.530	0.372	0.486	
19.535	0.837	0.517	
19.540	0.736	0.565	
19.545	0.357	0.608	
19.550	0.673	0.614	
19.555	0.773	0.619	
19.560	0.311	0.623	
19.565	0.348	0.591	
19.570	0.638	0.542	
19.575	0.227	0.503	
19.580	-0.006	0.442	
19.585	0.310	0.354	
19.590	0.119	0.279	
19.595	-0.170	0.208	
19.600	0.009	0.125	
19.605	0.076	0.058	
19.610	-0.226	0.011	
19.615	-0.190	-0.040	
19.620	0.041	-0.084	
19.625	-0.181	-0.103	
19.630	-0.257	-0.120	
19.635	-0.016	-0.139	
19.640	-0.104	-0.141	
19.645	-0.307	-0.140	
19.650	-0.153	-0.154	
19.655	-0.071	-0.164	
19.660	-0.298	-0.166	
19.665	-0.255	-0.179	
19.670	-0.052	-0.192	
19.675	-0.242	-0.191	
19.680	-0.307	-0.194	
19.685	-0.071	-0.202	
19.690	-0.148	-0.197	
19.695	-0.324	-0.190	
19.700	-0.139	-0.194	
19.705	-0.042	-0.190	
19.710	-0.249	-0.175	
19.715	-0.184	-0.169	
19.720	0.052	-0.160	
19.725	-0.156	-0.138	
19.730	-0.236	-0.124	
19.735	0.017	-0.123	
19.740	-0.098	-0.113	
19.745	-0.300	-0.110	
19.750	-0.132	-0.126	
19.755	-0.084	-0.141	
19.760	-0.333	-0.151	
19.765	-0.295	-0.177	
19.770	-0.118	-0.205	
19.775	-0.280	-0.218	
19.780	-0.352	-0.232	
19.785	-0.129	-0.247	
19.790	-0.190	-0.246	
19.795	-0.359	-0.240	
19.800	-0.181	-0.243	
19.805	-0.100	-0.237	
19.810	-0.292	-0.222	
19.815	-0.182	-0.213	
19.820	0.122	-0.194	
19.825	-0.046	-0.148	
19.830	-0.040	-0.099	
19.835	0.382	-0.045	
19.840	-0.035	0.022	
19.845	-0.509	0.042	
19.850	-0.595	-0.032	
19.855	-0.679	-0.172	
19.860	-0.880	-0.340	
19.865	-0.747	-0.507	
19.870	-0.472	-0.627	
19.875	-0.509	-0.672	
19.880	-0.442	-0.659	
19.885	-0.089	-0.599	
19.890	-0.048	-0.490	
19.895	-0.199	-0.364	
19.900	0.090	-0.251	
19.905	0.278	-0.137	
19.910	-0.090	-0.030	
19.915	-0.009	0.032	
19.920	0.339	0.067	
19.925	0.033	0.104	
19.930	-0.054	0.120	
19.935	0.369	0.119	
19.940	0.227	0.139	
19.945	-0.081	0.157	
19.950	0.247	0.151	
19.955	0.431	0.160	
19.960	0.056	0.188	
19.965	0.197	0.201	
19.970	0.605	0.219	
19.975	0.302	0.267	
19.980	0.226	0.307	
19.985	0.702	0.337	
19.990	0.597	0.393	
19.995	0.270	0.447	
20.000	0.626	0.473	
20.005	0.759	0.504	
20.010	0.288	0.538	
20.015	0.368	0.534	
20.020	0.663	0.512	
20.025	0.278	0.497	
20.030	0.085	0.458	
20.035	0.409	0.394	
20.040	0.188	0.340	
20.045	-0.132	0.281	
20.050	0.050	0.199	
20.055	0.084	0.124	
20.060	-0.239	0.064	
20.065	-0.182	-0.005	
20.070	0.007	-0.065	
20.075	-0.228	-0.101	
20.080	-0.294	-0.134	
20.085	-0.058	-0.166	
20.090	-0.145	-0.177	
20.095	-0.324	-0.180	
20.100	-0.150	-0.192	
20.105	-0.095	-0.196	
20.110	-0.315	-0.192	
20.115	-0.252	-0.200	
20.120	-0.064	-0.207	
20.125	-0.266	-0.203	
20.130	-0.320	-0.205	
20.135	-0.095	-0.215	
20.140	-0.164	-0.211	
20.145	-0.320	-0.204	
20.150	-0.138	-0.207	
20.155	-0.074	-0.201	
20.160	-0.280	-0.187	
20.165	-0.194	-0.184	
20.170	0.038	-0.177	
20.175	-0.184	-0.155	
20.180	-0.237	-0.142	
20.185	0.023	-0.139	
20.190	-0.097	-0.125	
20.195	-0.265	-0.115	
20.200	-0.089	-0.122	
20.205	-0.051	-0.125	
20.210	-0.300	-0.127	
20.215	-0.243	-0.145	
20.220	-0.054	-0.166	
20.225	-0.268	-0.174	
20.230	-0.347	-0.189	
20.235	-0.135	-0.212	
20.240	-0.210	-0.223	
20.245	-0.352	-0.228	
20.250	-0.159	-0.239	
20.255	-0.110	-0.235	
20.260	-0.318	-0.223	
20.265	-0.199	-0.219	
20.270	0.105	-0.205	
20.275	-0.116	-0.165	
20.280	-0.141	-0.127	
20.285	0.322	-0.089	
20.290	0.292	-0.017	
20.295	-0.092	0.059	
20.300	-0.098	0.086	
20.305	-0.323	0.055	
20.310	-0.729	-0.038	
20.315	-0.769	-0.194	
20.320	-0.590	-0.367	
20.325	-0.650	-0.504	
20.330	-0.596	-0.593	
20.335	-0.272	-0.625	
20.340	-0.236	-0.589	
20.345	-0.297	-0.510	
20.350	0.020	-0.415	
20.355	0.211	-0.294	
20.360	-0.109	-0.164	
20.365	0.044	-0.069	
20.370	0.371	0.007	
20.375	0.033	0.081	
20.380	-0.046	0.120	
20.385	0.385	0.133	
20.390	0.247	0.159	
20.395	-0.046	0.181	
20.400	0.304	0.180	
20.405	0.406	0.190	
20.410	0.013	0.213	
20.415	0.197	0.213	
20.420	0.560	0.219	
20.425	0.197	0.251	
20.430	0.039	0.267	
20.435	0.389	0.256	
20.440	0.159	0.248	
20.445	-0.153	0.224	
20.450	0.091	0.168	
20.455	0.131	0.117	
20.460	-0.220	0.077	
20.465	-0.187	0.020	
20.470	-0.043	-0.041	
20.475	-0.263	-0.088	
20.480	-0.335	-0.137	
20.485	-0.164	-0.186	
20.490	-0.269	-0.219	
20.495	-0.431	-0.247	
20.500	-0.303	-0.281	
20.505	-0.320	-0.309	
20.510	-0.537	-0.334	
20.515	-0.478	-0.371	
20.520	-0.333	-0.405	
20.525	-0.485	-0.422	
20.530	-0.508	-0.436	
20.535	-0.312	-0.446	
20.540	-0.373	-0.438	
20.545	-0.489	-0.425	
20.550	-0.297	-0.416	
20.555	-0.254	-0.396	
20.560	-0.442	-0.371	
20.565	-0.371	-0.360	
20.570	-0.213	-0.352	
20.575	-0.375	-0.338	
20.580	-0.399	-0.331	
20.585	-0.193	-0.330	
20.590	-0.266	-0.317	
20.595	-0.381	-0.303	
20.600	-0.184	-0.296	
20.605	-0.139	-0.279	
20.610	-0.332	-0.256	
20.615	-0.237	-0.245	
20.620	-0.043	-0.234	
20.625	-0.211	-0.210	
20.630	-0.232	-0.191	
20.635	0.026	-0.177	
20.640	-0.122	-0.151	
20.645	-0.266	-0.133	
20.650	-0.069	-0.133	
20.655	-0.038	-0.129	
20.660	-0.277	-0.123	
20.665	-0.210	-0.134	
20.670	-0.029	-0.148	
20.675	-0.237	-0.151	
20.680	-0.269	-0.160	
20.685	-0.014	-0.172	
20.690	-0.133	-0.165	
20.695	-0.283	-0.158	
20.700	-0.089	-0.161	
20.705	-0.074	-0.158	
20.710	-0.272	-0.151	
20.715	-0.158	-0.155	
20.720	0.122	-0.150	
20.725	-0.090	-0.120	
20.730	-0.084	-0.090	
20.735	0.363	-0.054	
20.740	0.316	0.018	
20.745	0.113	0.101	
20.750	0.258	0.160	
20.755	-0.084	0.185	
20.760	-0.504	0.144	
20.765	-0.576	0.020	
20.770	-0.488	-0.144	
20.775	-0.593	-0.296	
20.780	-0.526	-0.418	
20.785	-0.242	-0.488	
20.790	-0.222	-0.489	
20.795	-0.239	-0.442	
20.800	0.122	-0.364	
20.805	0.290	-0.245	
20.810	0.000	-0.109	
20.815	0.214	0.002	
20.820	0.499	0.098	
20.825	0.189	0.192	
20.830	0.163	0.251	
20.835	0.582	0.284	
20.840	0.398	0.328	
20.845	0.085	0.356	
20.850	0.372	0.348	
20.855	0.383	0.336	
20.860	0.042	0.322	
20.865	0.256	0.289	
20.870	0.513	0.269	
20.875	0.249	0.280	
20.880	0.305	0.295	
20.885	0.718	0.320	
20.890	0.583	0.381	
20.895	0.386	0.445	
20.900	0.790	0.494	
20.905	0.867	0.557	
20.910	0.516	0.626	
20.915	0.680	0.663	
20.920	0.889	0.687	
20.925	0.534	0.709	
20.930	0.435	0.700	
20.935	0.738	0.665	
20.940	0.521	0.637	
20.945	0.185	0.597	
20.950	0.441	0.528	
20.955	0.405	0.465	
20.960	-0.011	0.405	
20.965	0.091	0.323	
20.970	0.293	0.244	
20.975	-0.063	0.189	
20.980	-0.104	0.130	
20.985	0.214	0.074	
20.990	0.032	0.049	
20.995	-0.148	0.034	
21.000	0.116	0.013	
21.005	0.145	0.011	
21.010	-0.133	0.021	
21.015	-0.013	0.015	
21.020	0.204	0.012	
21.025	-0.075	0.023	
21.030	-0.106	0.022	
21.035	0.204	0.013	
21.040	0.039	0.023	
21.045	-0.158	0.029	
21.050	0.076	0.017	
21.055	0.120	0.014	
21.060	-0.141	0.018	
21.065	0.006	0.009	
21.070	0.263	0.009	
21.075	-0.029	0.031	
21.080	-0.068	0.042	
21.085	0.249	0.044	
21.090	0.056	0.059	
21.095	-0.145	0.065	
21.100	0.114	0.051	
21.105	0.108	0.043	
21.110	-0.205	0.037	
21.115	-0.130	0.008	
21.120	0.013	-0.029	
21.125	-0.208	-0.056	
21.130	-0.222	-0.088	
21.135	0.024	-0.116	
21.140	-0.133	-0.123	
21.145	-0.258	-0.127	
21.150	-0.061	-0.138	
21.155	-0.031	-0.137	
21.160	-0.222	-0.127	
21.165	-0.084	-0.125	
21.170	0.152	-0.111	
21.175	-0.058	-0.077	
21.180	-0.009	-0.044	
21.185	0.440	-0.004	
21.190	0.319	0.072	
21.195	-0.051	0.143	
21.200	-0.106	0.157	
21.205	-0.346	0.107	
21.210	-0.671	-0.005	
21.215	-0.630	-0.166	
21.220	-0.486	-0.326	
21.225	-0.561	-0.445	
21.230	-0.482	-0.517	
21.235	-0.202	-0.537	
21.240	-0.194	-0.497	
21.245	-0.203	-0.423	
21.250	0.154	-0.329	
21.255	0.224	-0.207	
21.260	-0.034	-0.082	
21.265	0.169	0.009	
21.270	0.376	0.084	
21.275	0.036	0.149	
21.280	0.029	0.176	
21.285	0.392	0.179	
21.290	0.215	0.195	
21.295	-0.023	0.204	
21.300	0.330	0.193	
21.305	0.363	0.199	
21.310	0.053	0.216	
21.315	0.290	0.220	
21.320	0.524	0.234	
21.325	0.221	0.270	
21.330	0.288	0.296	
21.335	0.690	0.323	
21.340	0.525	0.377	
21.345	0.334	0.430	
21.350	0.709	0.465	
21.355	0.748	0.511	
21.360	0.374	0.559	
21.365	0.507	0.571	
21.370	0.647	0.566	
21.375	0.273	0.555	
21.380	0.183	0.510	
21.385	0.443	0.444	
21.390	0.162	0.386	
21.395	-0.074	0.319	
21.400	0.130	0.233	
21.405	0.052	0.159	
21.410	-0.208	0.094	
21.415	-0.129	0.022	
21.420	0.010	-0.038	
21.425	-0.223	-0.076	
21.430	-0.236	-0.112	
21.435	-0.035	-0.142	
21.440	-0.152	-0.152	
21.445	-0.255	-0.156	
21.450	-0.097	-0.165	
21.455	-0.090	-0.163	
21.460	-0.283	-0.158	
21.465	-0.171	-0.165	
21.470	-0.034	-0.168	
21.475	-0.231	-0.160	
21.480	-0.231	-0.160	
21.485	-0.017	-0.164	
21.490	-0.145	-0.154	
21.495	-0.255	-0.147	
21.500	-0.045	-0.149	
21.505	-0.017	-0.139	
21.510	-0.203	-0.121	
21.515	-0.084	-0.114	
21.520	0.072	-0.103	
21.525	-0.187	-0.085	
21.530	-0.208	-0.083	
21.535	-0.002	-0.095	
21.540	-0.162	-0.101	
21.545	-0.286	-0.113	
21.550	-0.112	-0.137	
21.555	-0.127	-0.153	
21.560	-0.342	-0.166	
21.565	-0.258	-0.190	
21.570	-0.150	-0.214	
21.575	-0.320	-0.227	
21.580	-0.313	-0.242	
21.585	-0.116	-0.254	
21.590	-0.242	-0.249	
21.595	-0.342	-0.244	
21.600	-0.161	-0.247	
21.605	-0.148	-0.240	
21.610	-0.297	-0.227	
21.615	-0.130	-0.219	
21.620	0.137	-0.194	
21.625	-0.057	-0.142	
21.630	0.009	-0.089	
21.635	0.374	-0.031	
21.640	-0.071	0.035	
21.645	-0.419	0.053	
21.650	-0.453	-0.011	
21.655	-0.588	-0.129	
21.660	-0.767	-0.274	
21.665	-0.636	-0.421	
21.670	-0.451	-0.531	
21.675	-0.486	-0.581	
21.680	-0.393	-0.582	
21.685	-0.090	-0.538	
21.690	-0.098	-0.448	
21.695	-0.145	-0.341	
21.700	0.211	-0.234	
21.705	0.247	-0.114	
21.710	-0.054	-0.004	
21.715	0.137	0.064	
21.720	0.392	0.114	
21.725	0.033	0.161	
21.730	-0.006	0.176	
21.735	0.318	0.166	
21.740	0.131	0.166	
21.745	-0.052	0.159	
21.750	0.318	0.143	
21.755	0.331	0.150	
21.760	0.012	0.172	
21.765	0.278	0.180	
21.770	0.527	0.201	
21.775	0.244	0.247	
21.780	0.301	0.285	
21.785	0.706	0.323	
21.790	0.533	0.385	
21.795	0.328	0.442	
21.800	0.678	0.474	
21.805	0.657	0.510	
21.810	0.249	0.538	
21.815	0.402	0.523	
21.820	0.554	0.494	
21.825	0.151	0.465	
21.830	0.094	0.409	
21.835	0.366	0.338	
21.840	0.081	0.283	
21.845	-0.126	0.222	
21.850	0.113	0.149	
21.855	0.023	0.091	
21.860	-0.223	0.042	
21.865	-0.118	-0.014	
21.870	0.020	-0.060	
21.875	-0.208	-0.084	
21.880	-0.214	-0.109	
21.885	0.017	-0.130	
21.890	-0.135	-0.130	
21.895	-0.249	-0.130	
21.900	-0.013	-0.135	
21.905	0.000	-0.126	
21.910	-0.229	-0.109	
21.915	-0.116	-0.107	
21.920	0.042	-0.106	
21.925	-0.185	-0.096	
21.930	-0.187	-0.097	
21.935	0.085	-0.101	
21.940	-0.063	-0.088	
21.945	-0.184	-0.076	
21.950	0.090	-0.072	
21.955	0.068	-0.053	
21.960	-0.196	-0.033	
21.965	-0.090	-0.036	
21.970	0.065	-0.045	
21.975	-0.193	-0.048	
21.980	-0.199	-0.065	
21.985	-0.009	-0.089	
21.990	-0.184	-0.103	
21.995	-0.312	-0.122	
22.000	-0.127	-0.153	
22.005	-0.129	-0.171	
22.010	-0.332	-0.182	
22.015	-0.236	-0.201	
22.020	-0.122	-0.216	
22.025	-0.294	-0.219	
22.030	-0.262	-0.225	
22.035	-0.042	-0.226	
22.040	-0.161	-0.208	
22.045	-0.252	-0.189	
22.050	0.017	-0.175	
22.055	0.061	-0.143	
22.060	-0.133	-0.101	
22.065	0.146	-0.064	
22.070	0.366	-0.010	
22.075	-0.122	0.053	
22.080	-0.350	0.064	
22.085	-0.382	0.002	
22.090	-0.624	-0.109	
22.095	-0.760	-0.254	
22.100	-0.556	-0.403	
22.105	-0.486	-0.510	
22.110	-0.546	-0.565	
22.115	-0.318	-0.575	
22.120	-0.083	-0.532	
22.125	-0.181	-0.443	
22.130	-0.090	-0.343	
22.135	0.305	-0.232	
22.140	0.127	-0.106	
22.145	-0.016	0.001	
22.150	0.354	0.074	
22.155	0.343	0.144	
22.160	0.032	0.202	
22.165	0.247	0.223	
22.170	0.434	0.236	
22.175	0.096	0.255	
22.180	0.151	0.253	
22.185	0.508	0.247	
22.190	0.267	0.265	
22.195	0.067	0.276	
22.200	0.470	0.271	
22.205	0.489	0.287	
22.210	0.198	0.318	
22.215	0.522	0.340	
22.220	0.731	0.379	
22.225	0.409	0.438	
22.230	0.440	0.479	
22.235	0.776	0.505	
22.240	0.510	0.541	
22.245	0.285	0.554	
22.250	0.632	0.538	
22.255	0.563	0.528	
22.260	0.143	0.513	
22.265	0.321	0.465	
22.270	0.434	0.412	
22.275	0.012	0.365	
22.280	-0.017	0.295	
22.285	0.285	0.218	
22.290	0.009	0.166	
22.295	-0.167	0.116	
22.300	0.068	0.058	
22.305	-0.020	0.017	
22.310	-0.239	-0.016	
22.315	-0.110	-0.058	
22.320	0.038	-0.087	
22.325	-0.207	-0.096	
22.330	-0.176	-0.109	
22.335	0.064	-0.117	
22.340	-0.109	-0.107	
22.345	-0.229	-0.100	
22.350	-0.011	-0.105	
22.355	-0.019	-0.100	
22.360	-0.229	-0.092	
22.365	-0.092	-0.098	
22.370	0.078	-0.098	
22.375	-0.164	-0.084	
22.380	-0.135	-0.080	
22.385	0.174	-0.075	
22.390	-0.035	-0.051	
22.395	-0.161	-0.032	
22.400	0.110	-0.028	
22.405	0.065	-0.015	
22.410	-0.200	-0.004	
22.415	-0.083	-0.018	
22.420	0.072	-0.034	
22.425	-0.197	-0.043	
22.430	-0.213	-0.063	
22.435	-0.011	-0.091	
22.440	-0.171	-0.107	
22.445	-0.272	-0.124	
22.450	-0.066	-0.145	
22.455	-0.113	-0.153	
22.460	-0.301	-0.156	
22.465	-0.165	-0.169	
22.470	-0.035	-0.175	
22.475	-0.231	-0.168	
22.480	-0.190	-0.164	
22.485	0.113	-0.156	
22.490	-0.043	-0.123	
22.495	-0.129	-0.089	
22.500	0.275	-0.057	
22.505	0.295	0.002	
22.510	-0.103	0.066	
22.515	-0.165	0.082	
22.520	-0.303	0.040	
22.525	-0.636	-0.052	
22.530	-0.702	-0.193	
22.535	-0.524	-0.345	
22.540	-0.561	-0.463	
22.545	-0.546	-0.536	
22.550	-0.245	-0.561	
22.555	-0.138	-0.524	
22.560	-0.210	-0.442	
22.565	0.101	-0.342	
22.570	0.408	-0.211	
22.575	0.117	-0.060	
22.580	0.169	0.063	
22.585	0.547	0.158	
22.590	0.292	0.247	
22.595	0.085	0.302	
22.600	0.453	0.315	
22.605	0.412	0.328	
22.610	0.107	0.338	
22.615	0.372	0.326	
22.620	0.568	0.326	
22.625	0.226	0.346	
22.630	0.284	0.352	
22.635	0.680	0.358	
22.640	0.475	0.392	
22.645	0.334	0.428	
22.650	0.719	0.452	
22.655	0.730	0.496	
22.660	0.414	0.546	
22.665	0.670	0.572	
22.670	0.842	0.599	
22.675	0.484	0.633	
22.680	0.519	0.640	
22.685	0.831	0.634	
22.690	0.527	0.639	
22.695	0.273	0.623	
22.700	0.599	0.577	
22.705	0.472	0.538	
22.710	0.052	0.493	
22.715	0.244	0.417	
22.720	0.339	0.344	
22.725	-0.052	0.284	
22.730	-0.037	0.212	
22.735	0.267	0.143	
22.740	-0.013	0.106	
22.745	-0.159	0.072	
22.750	0.111	0.031	
22.755	0.068	0.012	
22.760	-0.170	0.004	
22.765	-0.002	-0.014	
22.770	0.156	-0.020	
22.775	-0.127	-0.012	
22.780	-0.129	-0.016	
22.785	0.137	-0.026	
22.790	-0.066	-0.023	
22.795	-0.170	-0.025	
22.800	0.130	-0.034	
22.805	0.079	-0.024	
22.810	-0.173	-0.010	
22.815	-0.025	-0.014	
22.820	0.124	-0.018	
22.825	-0.147	-0.014	
22.830	-0.112	-0.022	
22.835	0.174	-0.031	
22.840	-0.042	-0.021	
22.845	-0.156	-0.015	
22.850	0.101	-0.021	
22.855	0.032	-0.016	
22.860	-0.193	-0.013	
22.865	-0.054	-0.027	
22.870	0.050	-0.041	
22.875	-0.208	-0.048	
22.880	-0.193	-0.068	
22.885	0.049	-0.090	
22.890	-0.139	-0.096	
22.895	-0.237	-0.102	
22.900	0.001	-0.115	
22.905	-0.038	-0.112	
22.910	-0.228	-0.104	
22.915	-0.052	-0.106	
22.920	0.137	-0.097	
22.925	-0.092	-0.068	
22.930	0.009	-0.043	
22.935	0.402	-0.008	
22.940	0.220	0.059	
22.945	0.046	0.121	
22.950	0.266	0.156	
22.955	-0.156	0.164	
22.960	-0.546	0.110	
22.965	-0.592	-0.021	
22.970	-0.582	-0.189	
22.975	-0.726	-0.351	
22.980	-0.605	-0.487	
22.985	-0.301	-0.568	
22.990	-0.292	-0.572	
22.995	-0.234	-0.520	
23.000	0.206	-0.424	
23.005	0.282	-0.277	
23.010	0.032	-0.117	
23.015	0.351	0.016	
23.020	0.539	0.137	
23.025	0.194	0.246	
23.030	0.273	0.310	
23.035	0.623	0.347	
23.040	0.391	0.389	
23.045	0.244	0.414	
23.050	0.623	0.419	
23.055	0.574	0.440	
23.060	0.275	0.463	
23.065	0.542	0.466	
23.070	0.722	0.477	
23.075	0.397	0.505	
23.080	0.499	0.518	
23.085	0.890	0.535	
23.090	0.661	0.580	
23.095	0.492	0.620	
23.100	0.936	0.644	
23.105	0.979	0.691	
23.110	0.644	0.750	
23.115	0.892	0.787	
23.120	1.011	0.818	
23.125	0.631	0.846	
23.130	0.652	0.839	
23.135	0.932	0.812	
23.140	0.579	0.792	
23.145	0.351	0.749	
23.150	0.669	0.679	
23.155	0.518	0.621	
23.160	0.114	0.562	
23.165	0.337	0.479	
23.170	0.443	0.407	
23.175	0.032	0.354	
23.180	0.052	0.289	
23.185	0.382	0.227	
23.190	0.084	0.196	
23.195	-0.066	0.167	
23.200	0.287	0.133	
23.205	0.215	0.125	
23.210	-0.086	0.127	
23.215	0.134	0.113	
23.220	0.284	0.107	
23.225	-0.057	0.114	
23.230	0.004	0.104	
23.235	0.365	0.095	
23.240	0.125	0.112	
23.245	-0.016	0.128	
23.250	0.369	0.133	
23.255	0.308	0.159	
23.260	-0.011	0.187	
23.265	0.292	0.193	
23.270	0.441	0.207	
23.275	0.061	0.233	
23.280	0.110	0.234	
23.285	0.435	0.224	
23.290	0.117	0.228	
23.295	-0.052	0.217	
23.300	0.299	0.186	
23.305	0.178	0.169	
23.310	-0.139	0.154	
23.315	0.018	0.114	
23.320	0.105	0.074	
23.325	-0.194	0.042	
23.330	-0.184	-0.003	
23.335	-0.002	-0.051	
23.340	-0.184	-0.082	
23.345	-0.286	-0.112	
23.350	-0.071	-0.145	
23.355	-0.119	-0.159	
23.360	-0.298	-0.165	
23.365	-0.148	-0.177	
23.370	-0.017	-0.179	
23.375	-0.217	-0.165	
23.380	-0.133	-0.155	
23.385	0.270	-0.131	
23.390	0.097	-0.072	
23.395	-0.084	-0.012	
23.400	-0.074	0.013	
23.405	-0.408	-0.007	
23.410	-0.801	-0.093	
23.415	-0.799	-0.248	
23.420	-0.734	-0.423	
23.425	-0.833	-0.574	
23.430	-0.671	-0.684	
23.435	-0.356	-0.729	
23.440	-0.367	-0.697	
23.445	-0.327	-0.618	
23.450	0.009	-0.512	
23.455	0.020	-0.379	
23.460	-0.173	-0.249	
23.465	0.059	-0.152	
23.470	0.223	-0.068	
23.475	-0.106	0.004	
23.480	-0.064	0.036	
23.485	0.281	0.048	
23.490	0.010	0.068	
23.495	-0.101	0.074	
23.500	0.255	0.067	
23.505	0.183	0.078	
23.510	-0.107	0.093	
23.515	0.145	0.088	
23.520	0.331	0.093	
23.525	-0.022	0.115	
23.530	0.052	0.120	
23.535	0.458	0.125	
23.540	0.238	0.160	
23.545	0.124	0.197	
23.550	0.577	0.227	
23.555	0.519	0.283	
23.560	0.136	0.339	
23.565	0.406	0.360	
23.570	0.551	0.372	
23.575	0.140	0.386	
23.580	0.148	0.367	
23.585	0.388	0.327	
23.590	0.023	0.291	
23.595	-0.141	0.233	
23.600	0.094	0.154	
23.605	-0.055	0.086	
23.610	-0.301	0.023	
23.615	-0.164	-0.051	
23.620	-0.097	-0.111	
23.625	-0.339	-0.152	
23.630	-0.313	-0.195	
23.635	-0.141	-0.231	
23.640	-0.317	-0.248	
23.645	-0.410	-0.265	
23.650	-0.211	-0.287	
23.655	-0.262	-0.295	
23.660	-0.437	-0.299	
23.665	-0.286	-0.311	
23.670	-0.228	-0.317	
23.675	-0.446	-0.316	
23.680	-0.411	-0.328	
23.685	-0.214	-0.342	
23.690	-0.338	-0.340	
23.695	-0.419	-0.336	
23.700	-0.199	-0.336	
23.705	-0.236	-0.323	
23.710	-0.405	-0.306	
23.715	-0.236	-0.300	
23.720	-0.138	-0.289	
23.725	-0.332	-0.269	
23.730	-0.298	-0.260	
23.735	-0.109	-0.256	
23.740	-0.275	-0.243	
23.745	-0.367	-0.239	
23.750	-0.165	-0.247	
23.755	-0.242	-0.249	
23.760	-0.433	-0.254	
23.765	-0.292	-0.274	
23.770	-0.222	-0.290	
23.775	-0.416	-0.298	
23.780	-0.385	-0.313	
23.785	-0.200	-0.327	
23.790	-0.361	-0.326	
23.795	-0.448	-0.329	
23.800	-0.236	-0.338	
23.805	-0.275	-0.336	
23.810	-0.422	-0.328	
23.815	-0.257	-0.327	
23.820	-0.139	-0.316	
23.825	-0.309	-0.291	
23.830	-0.207	-0.270	
23.835	0.133	-0.237	
23.840	-0.083	-0.178	
23.845	-0.278	-0.130	
23.850	-0.312	-0.127	
23.855	-0.604	-0.171	
23.860	-0.931	-0.274	
23.865	-0.818	-0.426	
23.870	-0.682	-0.572	
23.875	-0.743	-0.673	
23.880	-0.590	-0.726	
23.885	-0.303	-0.720	
23.890	-0.333	-0.655	
23.895	-0.313	-0.562	
23.900	0.024	-0.455	
23.905	0.049	-0.329	
23.910	-0.164	-0.208	
23.915	0.110	-0.118	
23.920	0.253	-0.038	
23.925	-0.104	0.032	
23.930	-0.016	0.062	
23.935	0.351	0.075	
23.940	0.024	0.101	
23.945	-0.100	0.108	
23.950	0.282	0.097	
23.955	0.197	0.104	
23.960	-0.089	0.116	
23.965	0.235	0.112	
23.970	0.432	0.126	
23.975	0.084	0.165	
23.980	0.236	0.192	
23.985	0.641	0.225	
23.990	0.369	0.287	
23.995	0.217	0.338	
24.000	0.537	0.363	
24.005	0.295	0.381	
24.010	-0.197	0.363	
24.015	-0.164	0.274	
24.020	-0.182	0.148	
24.025	-0.408	0.015	
24.030	-0.388	-0.117	
24.035	-0.249	-0.226	
24.040	-0.404	-0.298	
24.045	-0.494	-0.350	
24.050	-0.333	-0.390	
24.055	-0.399	-0.410	
24.060	-0.562	-0.422	
24.065	-0.417	-0.440	
24.070	-0.353	-0.448	
24.075	-0.533	-0.446	
24.080	-0.469	-0.450	
24.085	-0.312	-0.451	
24.090	-0.456	-0.440	
24.095	-0.509	-0.433	
24.100	-0.295	-0.431	
24.105	-0.333	-0.417	
24.110	-0.465	-0.399	
24.115	-0.318	-0.389	
24.120	-0.249	-0.375	
24.125	-0.417	-0.356	
24.130	-0.367	-0.348	
24.135	-0.205	-0.342	
24.140	-0.342	-0.328	
24.145	-0.401	-0.320	
24.150	-0.184	-0.318	
24.155	-0.226	-0.304	
24.160	-0.375	-0.288	
24.165	-0.205	-0.281	
24.170	-0.139	-0.269	
24.175	-0.347	-0.251	
24.180	-0.303	-0.249	
24.185	-0.141	-0.252	
24.190	-0.300	-0.248	
24.195	-0.362	-0.251	
24.200	-0.170	-0.261	
24.205	-0.243	-0.262	
24.210	-0.408	-0.263	
24.215	-0.274	-0.276	
24.220	-0.234	-0.287	
24.225	-0.420	-0.293	
24.230	-0.359	-0.308	
24.235	-0.210	-0.321	
24.240	-0.330	-0.319	
24.245	-0.358	-0.316	
24.250	-0.162	-0.312	
24.255	-0.208	-0.293	
24.260	-0.317	-0.271	
24.265	-0.109	-0.254	
24.270	0.059	-0.221	
24.275	-0.122	-0.169	
24.280	0.056	-0.118	
24.285	0.446	-0.051	
24.290	0.021	0.036	
24.295	-0.303	0.081	
24.300	-0.358	0.044	
24.305	-0.587	-0.056	
24.310	-0.787	-0.202	
24.315	-0.590	-0.363	
24.320	-0.434	-0.486	
24.325	-0.514	-0.548	
24.330	-0.375	-0.562	
24.335	-0.086	-0.527	
24.340	-0.124	-0.444	
24.345	-0.083	-0.340	
24.350	0.383	-0.222	
24.355	0.333	-0.076	
24.360	0.101	0.063	
24.365	0.482	0.166	
24.370	0.626	0.265	
24.375	0.264	0.356	
24.380	0.391	0.407	
24.385	0.684	0.437	
24.390	0.415	0.471	
24.395	0.357	0.487	
24.400	0.736	0.491	
24.405	0.647	0.517	
24.410	0.365	0.545	
24.415	0.712	0.554	
24.420	0.906	0.581	
24.425	0.577	0.630	
24.430	0.690	0.665	
24.435	1.028	0.697	
24.440	0.802	0.748	
24.445	0.716	0.789	
24.450	1.081	0.817	
24.455	0.944	0.856	
24.460	0.661	0.885	
24.465	0.895	0.882	
24.470	0.918	0.873	
24.475	0.492	0.856	
24.480	0.533	0.802	
24.485	0.761	0.734	
24.490	0.376	0.678	
24.495	0.142	0.601	
24.500	0.409	0.502	
24.505	0.204	0.414	
24.510	-0.090	0.328	
24.515	0.127	0.232	
24.520	0.206	0.159	
24.525	-0.115	0.113	
24.530	-0.040	0.067	
24.535	0.258	0.035	
24.540	-0.043	0.032	
24.545	-0.129	0.027	
24.550	0.178	0.014	
24.555	0.120	0.021	
24.560	-0.116	0.035	
24.565	0.111	0.035	
24.570	0.131	0.039	
24.575	-0.148	0.045	
24.580	-0.049	0.029	
24.585	0.244	0.016	
24.590	-0.029	0.026	
24.595	-0.089	0.030	
24.600	0.308	0.031	
24.605	0.203	0.060	
24.610	-0.064	0.093	
24.615	0.214	0.105	
24.620	0.256	0.120	
24.625	-0.101	0.135	
24.630	-0.011	0.119	
24.635	0.281	0.096	
24.640	-0.060	0.090	
24.645	-0.182	0.069	
24.650	0.030	0.028	
24.655	-0.101	-0.007	
24.660	-0.268	-0.044	
24.665	-0.098	-0.088	
24.670	-0.032	-0.116	
24.675	-0.240	-0.127	
24.680	-0.176	-0.141	
24.685	0.033	-0.147	
24.690	-0.156	-0.136	
24.695	-0.210	-0.127	
24.700	0.067	-0.123	
24.705	0.012	-0.101	
24.710	-0.138	-0.074	
24.715	0.154	-0.052	
24.720	0.371	-0.007	
24.725	0.116	0.064	
24.730	0.229	0.125	
24.735	0.215	0.168	
24.740	-0.303	0.175	
24.745	-0.537	0.103	
24.750	-0.471	-0.036	
24.755	-0.512	-0.190	
24.760	-0.566	-0.326	
24.765	-0.355	-0.424	
24.770	-0.214	-0.463	
24.775	-0.323	-0.448	
24.780	-0.153	-0.405	
24.785	0.209	-0.328	
24.790	-0.009	-0.218	
24.795	-0.020	-0.116	
24.800	0.389	-0.028	
24.805	0.302	0.069	
24.810	0.044	0.152	
24.815	0.351	0.199	
24.820	0.479	0.242	
24.825	0.119	0.284	
24.830	0.246	0.297	
24.835	0.516	0.300	
24.840	0.244	0.317	
24.845	0.177	0.321	
24.850	0.567	0.318	
24.855	0.496	0.341	
24.860	0.324	0.376	
24.865	0.631	0.406	
24.870	0.713	0.452	
24.875	0.437	0.506	
24.880	0.600	0.540	
24.885	0.901	0.574	
24.890	0.638	0.625	
24.895	0.550	0.661	
24.900	0.887	0.678	
24.905	0.731	0.702	
24.910	0.372	0.710	
24.915	0.608	0.679	
24.920	0.621	0.640	
24.925	0.211	0.598	
24.930	0.259	0.527	
24.935	0.447	0.449	
24.940	0.064	0.384	
24.945	-0.087	0.304	
24.950	0.152	0.210	
24.955	-0.005	0.135	
24.960	-0.188	0.071	
24.965	-0.017	0.008	
24.970	0.061	-0.032	
24.975	-0.188	-0.049	
24.980	-0.112	-0.069	
24.985	0.120	-0.079	
24.990	-0.095	-0.068	
24.995	-0.142	-0.060	
25.000	0.142	-0.056	
25.005	0.023	-0.036	
25.010	-0.171	-0.019	
25.015	0.041	-0.020	
25.020	0.163	-0.013	
25.025	-0.133	0.003	
25.030	-0.069	0.003	
25.035	0.169	-0.003	
25.040	-0.058	0.005	
25.045	-0.097	0.006	
25.050	0.232	0.004	
25.055	0.084	0.023	
25.060	-0.161	0.040	
25.065	0.027	0.031	
25.070	0.078	0.019	
25.075	-0.181	0.010	
25.080	-0.103	-0.014	
25.085	0.094	-0.037	
25.090	-0.170	-0.045	
25.095	-0.237	-0.063	
25.100	-0.016	-0.091	
25.105	-0.116	-0.105	
25.110	-0.268	-0.117	
25.115	-0.098	-0.136	
25.120	-0.057	-0.144	
25.125	-0.258	-0.143	
25.130	-0.184	-0.151	
25.135	0.013	-0.155	
25.140	-0.147	-0.143	
25.145	-0.162	-0.131	
25.150	0.169	-0.115	
25.155	0.116	-0.072	
25.160	-0.054	-0.022	
25.165	0.339	0.023	
25.170	0.472	0.091	
25.175	-0.028	0.166	
25.180	-0.182	0.183	
25.185	-0.266	0.127	
25.190	-0.569	0.017	
25.195	-0.648	-0.135	
25.200	-0.443	-0.291	
25.205	-0.433	-0.405	
25.210	-0.478	-0.469	
25.215	-0.236	-0.489	
25.220	-0.075	-0.455	
25.225	-0.188	-0.382	
25.230	-0.031	-0.297	
25.235	0.314	-0.198	
25.240	0.082	-0.081	
25.245	0.032	0.015	
25.250	0.427	0.086	
25.255	0.311	0.160	
25.260	0.046	0.218	
25.265	0.342	0.240	
25.270	0.429	0.260	
25.275	0.101	0.282	
25.280	0.243	0.281	
25.285	0.504	0.279	
25.290	0.221	0.294	
25.295	0.171	0.299	
25.300	0.582	0.299	
25.305	0.495	0.328	
25.310	0.261	0.367	
25.315	0.606	0.393	
25.320	0.716	0.434	
25.325	0.405	0.487	
25.330	0.563	0.520	
25.335	0.843	0.549	
25.340	0.559	0.592	
25.345	0.473	0.616	
25.350	0.758	0.619	
25.355	0.553	0.623	
25.360	0.226	0.607	
25.365	0.492	0.556	
25.370	0.469	0.505	
25.375	0.035	0.455	
25.380	0.125	0.377	
25.385	0.336	0.297	
25.390	-0.019	0.239	
25.395	-0.095	0.176	
25.400	0.157	0.110	
25.405	-0.016	0.067	
25.410	-0.194	0.030	
25.415	0.001	-0.012	
25.420	0.050	-0.037	
25.425	-0.188	-0.047	
25.430	-0.106	-0.063	
25.435	0.107	-0.072	
25.440	-0.129	-0.065	
25.445	-0.158	-0.063	
25.450	0.142	-0.065	
25.455	0.021	-0.047	
25.460	-0.150	-0.028	
25.465	0.072	-0.023	
25.470	0.124	-0.011	
25.475	-0.161	0.004	
25.480	-0.078	-0.002	
25.485	0.172	-0.011	
25.490	-0.063	-0.004	
25.495	-0.078	-0.002	
25.500	0.204	-0.001	
25.505	0.044	0.017	
25.510	-0.159	0.029	
25.515	0.039	0.019	
25.520	0.050	0.009	
25.525	-0.190	-0.000	
25.530	-0.106	-0.025	
25.535	0.047	-0.048	
25.540	-0.200	-0.061	
25.545	-0.246	-0.083	
25.550	-0.040	-0.113	
25.555	-0.127	-0.128	
25.560	-0.268	-0.137	
25.565	-0.087	-0.151	
25.570	-0.037	-0.152	
25.575	-0.242	-0.143	
25.580	-0.164	-0.144	
25.585	0.035	-0.142	
25.590	-0.124	-0.125	
25.595	-0.106	-0.109	
25.600	0.287	-0.083	
25.605	0.240	-0.022	
25.610	0.084	0.051	
25.615	0.434	0.117	
25.620	0.255	0.183	
25.625	-0.309	0.211	
25.630	-0.436	0.149	
25.635	-0.466	0.015	
25.640	-0.659	-0.147	
25.645	-0.654	-0.312	
25.650	-0.399	-0.445	
25.655	-0.376	-0.512	
25.660	-0.407	-0.523	
25.665	-0.127	-0.492	
25.670	0.029	-0.416	
25.675	-0.144	-0.311	
25.680	0.050	-0.212	
25.685	0.363	-0.109	
25.690	0.088	0.001	
25.695	0.033	0.082	
25.700	0.412	0.133	
25.705	0.256	0.184	
25.710	0.029	0.220	
25.715	0.395	0.229	
25.720	0.421	0.249	
25.725	0.073	0.273	
25.730	0.203	0.270	
25.735	0.473	0.263	
25.740	0.208	0.273	
25.745	0.201	0.278	
25.750	0.599	0.285	
25.755	0.467	0.322	
25.760	0.267	0.364	
25.765	0.654	0.393	
25.770	0.718	0.441	
25.775	0.380	0.497	
25.780	0.545	0.526	
25.785	0.806	0.549	
25.790	0.496	0.581	
25.795	0.391	0.590	
25.800	0.666	0.576	
25.805	0.426	0.562	
25.810	0.120	0.526	
25.815	0.389	0.461	
25.820	0.347	0.401	
25.825	-0.055	0.345	
25.830	0.027	0.266	
25.835	0.203	0.187	
25.840	-0.113	0.129	
25.845	-0.161	0.068	
25.850	0.087	0.009	
25.855	-0.058	-0.023	
25.860	-0.202	-0.046	
25.865	0.003	-0.070	
25.870	0.056	-0.075	
25.875	-0.199	-0.068	
25.880	-0.129	-0.073	
25.885	0.046	-0.081	
25.890	-0.161	-0.080	
25.895	-0.185	-0.085	
25.900	0.056	-0.094	
25.905	-0.069	-0.088	
25.910	-0.205	-0.082	
25.915	-0.008	-0.086	
25.920	0.035	-0.081	
25.925	-0.199	-0.070	
25.930	-0.119	-0.074	
25.935	0.075	-0.079	
25.940	-0.133	-0.071	
25.945	-0.161	-0.071	
25.950	0.079	-0.075	
25.955	-0.072	-0.067	
25.960	-0.226	-0.064	
25.965	-0.022	-0.076	
25.970	0.033	-0.078	
25.975	-0.217	-0.073	
25.980	-0.156	-0.083	
25.985	-0.009	-0.097	
25.990	-0.214	-0.104	
25.995	-0.251	-0.120	
26.000	-0.064	-0.142	
26.005	-0.164	-0.151	
26.010	-0.310	-0.161	
26.015	-0.130	-0.178	
26.020	-0.097	-0.184	
26.025	-0.291	-0.182	
26.030	-0.188	-0.187	
26.035	-0.028	-0.187	
26.040	-0.211	-0.173	
26.045	-0.191	-0.164	
26.050	0.156	-0.150	
26.055	0.093	-0.105	
26.060	-0.045	-0.050	
26.065	0.374	0.004	
26.070	0.426	0.081	
26.075	-0.093	0.157	
26.080	-0.251	0.165	
26.085	-0.338	0.095	
26.090	-0.640	-0.029	
26.095	-0.718	-0.193	
26.100	-0.523	-0.357	
26.105	-0.529	-0.478	
26.110	-0.537	-0.547	
26.115	-0.255	-0.566	
26.120	-0.107	-0.524	
26.125	-0.200	-0.437	
26.130	-0.008	-0.338	
26.135	0.318	-0.222	
26.140	0.058	-0.092	
26.145	0.033	0.010	
26.150	0.397	0.082	
26.155	0.220	0.151	
26.160	-0.016	0.195	
26.165	0.327	0.204	
26.170	0.372	0.218	
26.175	0.021	0.235	
26.180	0.201	0.228	
26.185	0.492	0.225	
26.190	0.183	0.245	
26.195	0.133	0.255	
26.200	0.525	0.258	
26.205	0.417	0.286	
26.210	0.208	0.319	
26.215	0.553	0.340	
26.220	0.617	0.377	
26.225	0.293	0.421	
26.230	0.541	0.446	
26.235	0.814	0.477	
26.240	0.435	0.524	
26.245	0.337	0.544	
26.250	0.670	0.535	
26.255	0.444	0.530	
26.260	0.152	0.509	
26.265	0.432	0.459	
26.270	0.374	0.414	
26.275	-0.023	0.369	
26.280	0.058	0.296	
26.285	0.206	0.220	
26.290	-0.104	0.158	
26.295	-0.139	0.092	
26.300	0.114	0.031	
26.305	-0.064	-0.004	
26.310	-0.213	-0.031	
26.315	-0.026	-0.062	
26.320	0.001	-0.078	
26.325	-0.220	-0.083	
26.330	-0.136	-0.097	
26.335	0.036	-0.106	
26.340	-0.174	-0.103	
26.345	-0.202	-0.106	
26.350	0.036	-0.113	
26.355	-0.112	-0.106	
26.360	-0.240	-0.103	
26.365	-0.055	-0.113	
26.370	-0.042	-0.115	
26.375	-0.240	-0.112	
26.380	-0.142	-0.120	
26.385	0.009	-0.126	
26.390	-0.214	-0.121	
26.395	-0.245	-0.127	
26.400	-0.005	-0.139	
26.405	-0.101	-0.136	
26.410	-0.208	-0.128	
26.415	0.023	-0.124	
26.420	0.036	-0.105	
26.425	-0.187	-0.080	
26.430	-0.080	-0.072	
26.435	0.108	-0.066	
26.440	-0.152	-0.052	
26.445	-0.193	-0.053	
26.450	0.020	-0.068	
26.455	-0.130	-0.075	
26.460	-0.286	-0.090	
26.465	-0.130	-0.119	
26.470	-0.119	-0.142	
26.475	-0.301	-0.158	
26.480	-0.203	-0.179	
26.485	-0.061	-0.192	
26.490	-0.228	-0.189	
26.495	-0.243	-0.187	
26.500	-0.014	-0.186	
26.505	-0.098	-0.168	
26.510	-0.182	-0.146	
26.515	0.200	-0.120	
26.520	0.351	-0.059	
26.525	0.119	0.029	
26.530	0.417	0.113	
26.535	0.644	0.207	
26.540	0.020	0.295	
26.545	-0.300	0.301	
26.550	-0.344	0.206	
26.555	-0.593	0.049	
26.560	-0.750	-0.143	
26.565	-0.549	-0.333	
26.570	-0.428	-0.470	
26.575	-0.478	-0.537	
26.580	-0.260	-0.547	
26.585	0.015	-0.497	
26.590	-0.112	-0.396	
26.595	-0.048	-0.285	
26.600	0.395	-0.169	
26.605	0.253	-0.035	
26.610	0.036	0.081	
26.615	0.389	0.156	
26.620	0.420	0.221	
26.625	0.087	0.273	
26.630	0.282	0.288	
26.635	0.493	0.296	
26.640	0.156	0.310	
26.645	0.162	0.305	
26.650	0.553	0.294	
26.655	0.386	0.310	
26.660	0.172	0.330	
26.665	0.521	0.337	
26.670	0.576	0.360	
26.675	0.227	0.393	
26.680	0.453	0.405	
26.685	0.756	0.424	
26.690	0.447	0.466	
26.695	0.432	0.497	
26.700	0.805	0.518	
26.705	0.606	0.555	
26.710	0.310	0.578	
26.715	0.618	0.568	
26.720	0.576	0.556	
26.725	0.128	0.535	
26.730	0.273	0.477	
26.735	0.444	0.412	
26.740	0.020	0.359	
26.745	-0.045	0.286	
26.750	0.258	0.207	
26.755	0.009	0.152	
26.760	-0.171	0.101	
26.765	0.041	0.044	
26.770	0.053	0.006	
26.775	-0.187	-0.015	
26.780	-0.057	-0.040	
26.785	0.198	-0.050	
26.790	-0.100	-0.034	
26.795	-0.119	-0.026	
26.800	0.171	-0.025	
26.805	-0.011	-0.010	
26.810	-0.181	-0.002	
26.815	0.047	-0.013	
26.820	0.053	-0.017	
26.825	-0.203	-0.019	
26.830	-0.068	-0.035	
26.835	0.159	-0.045	
26.840	-0.162	-0.038	
26.845	-0.176	-0.043	
26.850	0.136	-0.055	
26.855	-0.031	-0.048	
26.860	-0.174	-0.040	
26.865	0.107	-0.041	
26.870	0.140	-0.026	
26.875	-0.141	-0.003	
26.880	0.029	0.004	
26.885	0.276	0.016	
26.890	-0.095	0.041	
26.895	-0.135	0.044	
26.900	0.186	0.029	
26.905	0.001	0.027	
26.910	-0.164	0.022	
26.915	0.102	0.006	
26.920	0.076	0.002	
26.925	-0.213	0.001	
26.930	-0.127	-0.021	
26.935	0.035	-0.048	
26.940	-0.210	-0.065	
26.945	-0.217	-0.089	
26.950	0.064	-0.111	
26.955	-0.095	-0.110	
26.960	-0.242	-0.106	
26.965	-0.026	-0.113	
26.970	0.000	-0.108	
26.975	-0.217	-0.098	
26.980	-0.066	-0.098	
26.985	0.246	-0.084	
26.990	-0.003	-0.043	
26.995	0.062	-0.000	
27.000	0.612	0.054	
27.005	0.519	0.154	
27.010	0.185	0.260	
27.015	0.209	0.314	
27.020	-0.190	0.302	
27.025	-0.622	0.204	
27.030	-0.651	0.022	
27.035	-0.549	-0.186	
27.040	-0.648	-0.364	
27.045	-0.549	-0.495	
27.050	-0.226	-0.559	
27.055	-0.181	-0.542	
27.060	-0.196	-0.470	
27.065	0.191	-0.365	
27.070	0.293	-0.224	
27.075	-0.031	-0.079	
27.080	0.201	0.027	
27.085	0.481	0.113	
27.090	0.117	0.194	
27.095	0.088	0.235	
27.100	0.512	0.249	
27.105	0.293	0.275	
27.110	0.039	0.289	
27.115	0.431	0.280	
27.120	0.453	0.286	
27.125	0.079	0.302	
27.130	0.275	0.295	
27.135	0.527	0.290	
27.140	0.203	0.305	
27.145	0.243	0.310	
27.150	0.676	0.319	
27.155	0.493	0.360	
27.160	0.270	0.403	
27.165	0.699	0.430	
27.170	0.756	0.476	
27.175	0.357	0.529	
27.180	0.521	0.549	
27.185	0.728	0.556	
27.190	0.328	0.563	
27.195	0.252	0.538	
27.200	0.591	0.492	
27.205	0.311	0.459	
27.210	-0.002	0.414	
27.215	0.296	0.344	
27.220	0.214	0.282	
27.225	-0.167	0.226	
27.230	-0.064	0.148	
27.235	0.096	0.073	
27.240	-0.199	0.019	
27.245	-0.217	-0.034	
27.250	-0.016	-0.085	
27.255	-0.167	-0.113	
27.260	-0.297	-0.136	
27.265	-0.110	-0.162	
27.270	-0.129	-0.175	
27.275	-0.338	-0.181	
27.280	-0.231	-0.199	
27.285	-0.106	-0.213	
27.290	-0.298	-0.214	
27.295	-0.309	-0.222	
27.300	-0.104	-0.232	
27.305	-0.228	-0.229	
27.310	-0.353	-0.227	
27.315	-0.164	-0.235	
27.320	-0.185	-0.235	
27.325	-0.391	-0.235	
27.330	-0.263	-0.248	
27.335	-0.126	-0.257	
27.340	-0.310	-0.252	
27.345	-0.303	-0.251	
27.350	-0.084	-0.251	
27.355	-0.194	-0.235	
27.360	-0.301	-0.220	
27.365	-0.063	-0.211	
27.370	-0.071	-0.191	
27.375	-0.297	-0.169	
27.380	-0.182	-0.166	
27.385	-0.055	-0.167	
27.390	-0.269	-0.162	
27.395	-0.278	-0.171	
27.400	-0.093	-0.185	
27.405	-0.245	-0.191	
27.410	-0.375	-0.203	
27.415	-0.197	-0.226	
27.420	-0.222	-0.242	
27.425	-0.417	-0.254	
27.430	-0.297	-0.275	
27.435	-0.165	-0.289	
27.440	-0.330	-0.287	
27.445	-0.353	-0.287	
27.450	-0.170	-0.290	
27.455	-0.280	-0.283	
27.460	-0.350	-0.277	
27.465	-0.112	-0.273	
27.470	-0.092	-0.252	
27.475	-0.243	-0.220	
27.480	-0.005	-0.190	
27.485	0.301	-0.138	
27.490	-0.122	-0.066	
27.495	-0.313	-0.029	
27.500	-0.388	-0.059	
27.505	-0.705	-0.145	
27.510	-0.893	-0.285	
27.515	-0.688	-0.448	
27.520	-0.607	-0.578	
27.525	-0.692	-0.655	
27.530	-0.482	-0.686	
27.535	-0.274	-0.664	
27.540	-0.347	-0.594	
27.545	-0.252	-0.506	
27.550	0.042	-0.407	
27.555	-0.118	-0.296	
27.560	-0.225	-0.206	
27.565	0.055	-0.148	
27.570	0.046	-0.095	
27.575	-0.194	-0.054	
27.580	-0.038	-0.041	
27.585	0.166	-0.032	
27.590	-0.136	-0.015	
27.595	-0.129	-0.014	
27.600	0.201	-0.020	
27.605	-0.013	-0.007	
27.610	-0.132	0.002	
27.615	0.224	0.004	
27.620	0.181	0.028	
27.625	-0.158	0.054	
27.630	-0.103	0.046	
27.635	-0.100	0.012	
27.640	-0.335	-0.036	
27.645	-0.323	-0.104	
27.650	-0.153	-0.170	
27.655	-0.262	-0.212	
27.660	-0.336	-0.241	
27.665	-0.147	-0.260	
27.670	-0.182	-0.259	
27.675	-0.382	-0.252	
27.680	-0.286	-0.259	
27.685	-0.214	-0.268	
27.690	-0.410	-0.275	
27.695	-0.420	-0.295	
27.700	-0.291	-0.321	
27.705	-0.419	-0.341	
27.710	-0.517	-0.363	
27.715	-0.353	-0.390	
27.720	-0.396	-0.406	
27.725	-0.552	-0.418	
27.730	-0.440	-0.436	
27.735	-0.346	-0.446	
27.740	-0.495	-0.444	
27.745	-0.471	-0.444	
27.750	-0.309	-0.443	
27.755	-0.422	-0.430	
27.760	-0.486	-0.420	
27.765	-0.303	-0.416	
27.770	-0.310	-0.402	
27.775	-0.474	-0.385	
27.780	-0.349	-0.380	
27.785	-0.251	-0.373	
27.790	-0.416	-0.359	
27.795	-0.391	-0.354	
27.800	-0.203	-0.351	
27.805	-0.315	-0.336	
27.810	-0.379	-0.323	
27.815	-0.167	-0.314	
27.820	-0.184	-0.293	
27.825	-0.352	-0.269	
27.830	-0.225	-0.259	
27.835	-0.122	-0.249	
27.840	-0.292	-0.233	
27.845	-0.275	-0.228	
27.850	-0.100	-0.227	
27.855	-0.232	-0.217	
27.860	-0.321	-0.213	
27.865	-0.161	-0.219	
27.870	-0.208	-0.221	
27.875	-0.376	-0.225	
27.880	-0.248	-0.242	
27.885	-0.179	-0.253	
27.890	-0.378	-0.258	
27.895	-0.359	-0.272	
27.900	-0.202	-0.289	
27.905	-0.306	-0.293	
27.910	-0.361	-0.295	
27.915	-0.179	-0.297	
27.920	-0.207	-0.286	
27.925	-0.370	-0.272	
27.930	-0.228	-0.270	
27.935	-0.095	-0.261	
27.940	-0.220	-0.238	
27.945	-0.136	-0.214	
27.950	0.186	-0.176	
27.955	0.067	-0.112	
27.960	-0.013	-0.045	
27.965	0.113	0.003	
27.970	-0.236	0.025	
27.975	-0.601	-0.013	
27.980	-0.650	-0.125	
27.985	-0.614	-0.274	
27.990	-0.721	-0.416	
27.995	-0.608	-0.532	
28.000	-0.356	-0.597	
28.005	-0.362	-0.596	
28.010	-0.327	-0.551	
28.015	-0.032	-0.475	
28.020	0.003	-0.368	
28.025	-0.156	-0.256	
28.030	0.099	-0.164	
28.035	0.256	-0.074	
28.040	-0.049	0.010	
28.045	0.033	0.058	
28.050	0.379	0.089	
28.055	0.149	0.131	
28.060	-0.022	0.158	
28.065	0.328	0.162	
28.070	0.276	0.176	
28.075	-0.023	0.190	
28.080	0.236	0.184	
28.085	0.412	0.186	
28.090	0.094	0.206	
28.095	0.192	0.215	
28.100	0.522	0.226	
28.105	0.340	0.262	
28.110	0.264	0.299	
28.115	0.680	0.334	
28.120	0.658	0.394	
28.125	0.351	0.460	
28.130	0.605	0.498	
28.135	0.710	0.529	
28.140	0.334	0.556	
28.145	0.324	0.545	
28.150	0.556	0.510	
28.155	0.241	0.476	
28.160	0.027	0.421	
28.165	0.295	0.343	
28.170	0.128	0.276	
28.175	-0.197	0.208	
28.180	-0.083	0.120	
28.185	-0.011	0.038	
28.190	-0.245	-0.026	
28.195	-0.228	-0.086	
28.200	-0.052	-0.135	
28.205	-0.211	-0.159	
28.210	-0.287	-0.176	
28.215	-0.089	-0.193	
28.220	-0.127	-0.193	
28.225	-0.283	-0.186	
28.230	-0.130	-0.186	
28.235	-0.032	-0.179	
28.240	-0.243	-0.162	
28.245	-0.197	-0.157	
28.250	-0.016	-0.156	
28.255	-0.190	-0.146	
28.260	-0.271	-0.145	
28.265	-0.057	-0.154	
28.270	-0.064	-0.150	
28.275	-0.240	-0.141	
28.280	-0.100	-0.140	
28.285	0.021	-0.133	
28.290	-0.207	-0.117	
28.295	-0.164	-0.113	
28.300	0.108	-0.110	
28.305	-0.081	-0.090	
28.310	-0.165	-0.073	
28.315	0.073	-0.067	
28.320	0.012	-0.052	
28.325	-0.176	-0.039	
28.330	-0.048	-0.043	
28.335	0.009	-0.049	
28.340	-0.216	-0.054	
28.345	-0.185	-0.075	
28.350	-0.002	-0.098	
28.355	-0.177	-0.109	
28.360	-0.262	-0.122	
28.365	-0.075	-0.142	
28.370	-0.130	-0.151	
28.375	-0.281	-0.156	
28.380	-0.138	-0.168	
28.385	-0.052	-0.171	
28.390	-0.248	-0.163	
28.395	-0.196	-0.164	
28.400	0.042	-0.161	
28.405	-0.103	-0.140	
28.410	-0.133	-0.118	
28.415	0.266	-0.090	
28.420	0.319	-0.026	
28.425	0.128	0.057	
28.430	0.372	0.132	
28.435	0.223	0.194	
28.440	-0.347	0.211	
28.445	-0.520	0.135	
28.450	-0.480	-0.014	
28.455	-0.587	-0.180	
28.460	-0.588	-0.332	
28.465	-0.355	-0.443	
28.470	-0.315	-0.490	
28.475	-0.355	-0.485	
28.480	-0.110	-0.445	
28.485	0.134	-0.364	
28.490	-0.066	-0.252	
28.495	0.052	-0.149	
28.500	0.372	-0.051	
28.505	0.152	0.050	
28.510	0.053	0.124	
28.515	0.421	0.169	
28.520	0.350	0.217	
28.525	0.064	0.256	
28.530	0.340	0.265	
28.535	0.470	0.277	
28.540	0.149	0.298	
28.545	0.215	0.298	
28.550	0.530	0.295	
28.555	0.340	0.313	
28.560	0.226	0.331	
28.565	0.623	0.344	
28.570	0.563	0.380	
28.575	0.302	0.423	
28.580	0.629	0.449	
28.585	0.785	0.487	
28.590	0.467	0.539	
28.595	0.580	0.571	
28.600	0.893	0.598	
28.605	0.606	0.638	
28.610	0.441	0.657	
28.615	0.738	0.648	
28.620	0.568	0.639	
28.625	0.183	0.611	
28.630	0.360	0.545	
28.635	0.386	0.471	
28.640	-0.019	0.399	
28.645	-0.014	0.306	
28.650	0.188	0.210	
28.655	-0.090	0.136	
28.660	-0.185	0.067	
28.665	0.056	0.002	
28.670	-0.032	-0.035	
28.675	-0.217	-0.058	
28.680	-0.046	-0.082	
28.685	0.050	-0.090	
28.690	-0.190	-0.084	
28.695	-0.133	-0.087	
28.700	0.108	-0.088	
28.705	-0.113	-0.074	
28.710	-0.177	-0.067	
28.715	0.067	-0.070	
28.720	-0.031	-0.062	
28.725	-0.220	-0.056	
28.730	-0.040	-0.067	
28.735	0.058	-0.071	
28.740	-0.200	-0.065	
28.745	-0.144	-0.073	
28.750	0.094	-0.082	
28.755	-0.109	-0.074	
28.760	-0.162	-0.069	
28.765	0.146	-0.068	
28.770	0.062	-0.045	
28.775	-0.162	-0.021	
28.780	0.046	-0.015	
28.785	0.157	-0.006	
28.790	-0.142	0.010	
28.795	-0.107	0.005	
28.800	0.117	-0.009	
28.805	-0.136	-0.015	
28.810	-0.208	-0.032	
28.815	0.013	-0.059	
28.820	-0.080	-0.074	
28.825	-0.272	-0.087	
