Vernier Format 2
ecg4.txt 10/21/2025 9:31:15
Run 1
Time	Potential	EKG	
T	P	E	
s	mV	mV	

0.000	0.311	0.014	
0.005	-0.045	0.045	
0.010	0.183	0.071	
0.015	0.476	0.107	
0.020	0.116	0.163	
0.025	0.082	0.197	
0.030	0.515	0.214	
0.035	0.356	0.250	
0.040	0.104	0.284	
0.045	0.478	0.295	
0.050	0.544	0.321	
0.055	0.172	0.354	
0.060	0.424	0.366	
0.065	0.736	0.385	
0.070	0.394	0.429	
0.075	0.372	0.459	
0.080	0.802	0.479	
0.085	0.611	0.519	
0.090	0.340	0.552	
0.095	0.724	0.560	
0.100	0.748	0.577	
0.105	0.281	0.595	
0.110	0.426	0.573	
0.115	0.637	0.539	
0.120	0.215	0.511	
0.125	0.114	0.457	
0.130	0.458	0.388	
0.135	0.217	0.340	
0.140	-0.072	0.291	
0.145	0.249	0.229	
0.150	0.244	0.186	
0.155	-0.130	0.159	
0.160	0.007	0.116	
0.165	0.230	0.079	
0.170	-0.121	0.062	
0.175	-0.147	0.035	
0.180	0.194	0.005	
0.185	0.013	0.001	
0.190	-0.164	0.002	
0.195	0.073	-0.010	
0.200	0.064	-0.011	
0.205	-0.213	-0.010	
0.210	-0.113	-0.030	
0.215	0.052	-0.052	
0.220	-0.226	-0.064	
0.225	-0.284	-0.090	
0.230	-0.100	-0.127	
0.235	-0.216	-0.154	
0.240	-0.355	-0.180	
0.245	-0.161	-0.210	
0.250	-0.142	-0.223	
0.255	-0.355	-0.226	
0.260	-0.249	-0.236	
0.265	-0.086	-0.241	
0.270	-0.263	-0.230	
0.275	-0.248	-0.222	
0.280	0.094	-0.208	
0.285	0.018	-0.164	
0.290	-0.080	-0.110	
0.295	0.226	-0.059	
0.300	-0.106	-0.011	
0.305	-0.592	-0.012	
0.310	-0.705	-0.102	
0.315	-0.677	-0.251	
0.320	-0.805	-0.410	
0.325	-0.726	-0.552	
0.330	-0.408	-0.643	
0.335	-0.373	-0.657	
0.340	-0.379	-0.614	
0.345	-0.029	-0.533	
0.350	0.156	-0.407	
0.355	-0.133	-0.264	
0.360	0.053	-0.147	
0.365	0.360	-0.047	
0.370	0.013	0.047	
0.375	0.001	0.102	
0.380	0.434	0.132	
0.385	0.244	0.173	
0.390	-0.002	0.204	
0.395	0.389	0.211	
0.400	0.434	0.231	
0.405	0.062	0.259	
0.410	0.316	0.265	
0.415	0.585	0.279	
0.420	0.244	0.313	
0.425	0.243	0.333	
0.430	0.698	0.348	
0.435	0.530	0.390	
0.440	0.282	0.434	
0.445	0.687	0.457	
0.450	0.706	0.493	
0.455	0.273	0.529	
0.460	0.467	0.529	
0.465	0.678	0.518	
0.470	0.246	0.512	
0.475	0.124	0.475	
0.480	0.479	0.414	
0.485	0.195	0.366	
0.490	-0.086	0.311	
0.495	0.218	0.238	
0.500	0.208	0.184	
0.505	-0.158	0.145	
0.510	-0.025	0.093	
0.515	0.191	0.050	
0.520	-0.145	0.029	
0.525	-0.167	0.001	
0.530	0.156	-0.028	
0.535	-0.042	-0.032	
0.540	-0.190	-0.034	
0.545	0.104	-0.043	
0.550	0.101	-0.034	
0.555	-0.219	-0.019	
0.560	-0.113	-0.029	
0.565	0.065	-0.046	
0.570	-0.217	-0.055	
0.575	-0.265	-0.079	
0.580	-0.060	-0.113	
0.585	-0.203	-0.136	
0.590	-0.356	-0.160	
0.595	-0.174	-0.193	
0.600	-0.170	-0.214	
0.605	-0.376	-0.226	
0.610	-0.262	-0.244	
0.615	-0.116	-0.255	
0.620	-0.298	-0.250	
0.625	-0.286	-0.248	
0.630	-0.005	-0.241	
0.635	-0.122	-0.213	
0.640	-0.228	-0.181	
0.645	0.127	-0.153	
0.650	0.204	-0.101	
0.655	-0.222	-0.042	
0.660	-0.323	-0.031	
0.665	-0.451	-0.081	
0.670	-0.825	-0.185	
0.675	-0.877	-0.339	
0.680	-0.602	-0.500	
0.685	-0.576	-0.609	
0.690	-0.590	-0.658	
0.695	-0.281	-0.655	
0.700	-0.144	-0.593	
0.705	-0.266	-0.491	
0.710	-0.055	-0.384	
0.715	0.250	-0.267	
0.720	-0.069	-0.142	
0.725	-0.064	-0.053	
0.730	0.331	0.007	
0.735	0.113	0.068	
0.740	-0.083	0.107	
0.745	0.308	0.119	
0.750	0.314	0.141	
0.755	-0.048	0.168	
0.760	0.194	0.169	
0.765	0.478	0.176	
0.770	0.117	0.205	
0.775	0.154	0.222	
0.780	0.617	0.237	
0.785	0.424	0.285	
0.790	0.208	0.333	
0.795	0.626	0.362	
0.800	0.666	0.408	
0.805	0.253	0.457	
0.810	0.476	0.473	
0.815	0.727	0.483	
0.820	0.293	0.501	
0.825	0.226	0.489	
0.830	0.577	0.453	
0.835	0.273	0.429	
0.840	-0.029	0.388	
0.845	0.290	0.319	
0.850	0.230	0.263	
0.855	-0.152	0.214	
0.860	-0.020	0.146	
0.865	0.194	0.086	
0.870	-0.130	0.052	
0.875	-0.138	0.016	
0.880	0.198	-0.015	
0.885	-0.042	-0.017	
0.890	-0.199	-0.018	
0.895	0.125	-0.030	
0.900	0.171	-0.020	
0.905	-0.155	0.003	
0.910	0.006	0.007	
0.915	0.214	0.012	
0.920	-0.152	0.025	
0.925	-0.174	0.014	
0.930	0.111	-0.011	
0.935	-0.101	-0.024	
0.940	-0.246	-0.042	
0.945	-0.048	-0.072	
0.950	-0.084	-0.094	
0.955	-0.338	-0.112	
0.960	-0.225	-0.146	
0.965	-0.071	-0.176	
0.970	-0.287	-0.188	
0.975	-0.301	-0.203	
0.980	-0.064	-0.217	
0.985	-0.181	-0.212	
0.990	-0.291	-0.203	
0.995	-0.013	-0.197	
1.000	0.052	-0.170	
1.005	-0.171	-0.129	
1.010	0.065	-0.096	
1.015	0.136	-0.057	
1.020	-0.378	-0.029	
1.025	-0.590	-0.066	
1.030	-0.540	-0.169	
1.035	-0.657	-0.295	
1.040	-0.686	-0.420	
1.045	-0.378	-0.515	
1.050	-0.275	-0.546	
1.055	-0.368	-0.520	
1.060	-0.124	-0.464	
1.065	0.223	-0.369	
1.070	-0.057	-0.242	
1.075	-0.014	-0.130	
1.080	0.431	-0.035	
1.085	0.203	0.066	
1.090	-0.006	0.142	
1.095	0.421	0.182	
1.100	0.435	0.226	
1.105	0.033	0.267	
1.110	0.296	0.275	
1.115	0.541	0.282	
1.120	0.180	0.305	
1.125	0.204	0.311	
1.130	0.612	0.312	
1.135	0.360	0.338	
1.140	0.154	0.356	
1.145	0.621	0.359	
1.150	0.663	0.390	
1.155	0.299	0.436	
1.160	0.589	0.464	
1.165	0.837	0.499	
1.170	0.417	0.548	
1.175	0.385	0.565	
1.180	0.751	0.559	
1.185	0.443	0.560	
1.190	0.154	0.540	
1.195	0.518	0.489	
1.200	0.421	0.448	
1.205	-0.045	0.406	
1.210	0.134	0.332	
1.215	0.330	0.260	
1.220	-0.074	0.209	
1.225	-0.064	0.152	
1.230	0.304	0.100	
1.235	0.030	0.082	
1.240	-0.145	0.069	
1.245	0.208	0.047	
1.250	0.209	0.050	
1.255	-0.106	0.066	
1.260	0.119	0.067	
1.265	0.333	0.077	
1.270	-0.078	0.100	
1.275	-0.090	0.097	
1.280	0.259	0.077	
1.285	0.010	0.074	
1.290	-0.162	0.064	
1.295	0.136	0.039	
1.300	0.075	0.028	
1.305	-0.240	0.020	
1.310	-0.121	-0.013	
1.315	0.018	-0.047	
1.320	-0.254	-0.071	
1.325	-0.254	-0.104	
1.330	-0.020	-0.137	
1.335	-0.173	-0.150	
1.340	-0.283	-0.158	
1.345	-0.032	-0.169	
1.350	0.001	-0.159	
1.355	-0.205	-0.135	
1.360	0.018	-0.117	
1.365	0.319	-0.079	
1.370	-0.051	-0.018	
1.375	-0.168	0.017	
1.380	-0.184	0.005	
1.385	-0.514	-0.050	
1.390	-0.731	-0.157	
1.395	-0.515	-0.296	
1.400	-0.456	-0.412	
1.405	-0.547	-0.484	
1.410	-0.330	-0.517	
1.415	-0.112	-0.498	
1.420	-0.225	-0.433	
1.425	-0.133	-0.353	
1.430	0.270	-0.259	
1.435	0.062	-0.143	
1.440	-0.075	-0.045	
1.445	0.337	0.023	
1.450	0.296	0.094	
1.455	-0.069	0.151	
1.460	0.212	0.168	
1.465	0.446	0.183	
1.470	0.061	0.210	
1.475	0.125	0.216	
1.480	0.508	0.217	
1.485	0.267	0.243	
1.490	0.088	0.263	
1.495	0.531	0.269	
1.500	0.539	0.300	
1.505	0.166	0.342	
1.510	0.458	0.361	
1.515	0.678	0.385	
1.520	0.298	0.423	
1.525	0.348	0.438	
1.530	0.721	0.444	
1.535	0.440	0.468	
1.540	0.175	0.475	
1.545	0.551	0.453	
1.550	0.447	0.438	
1.555	-0.003	0.416	
1.560	0.194	0.358	
1.565	0.343	0.297	
1.570	-0.083	0.249	
1.575	-0.083	0.184	
1.580	0.232	0.117	
1.585	-0.023	0.079	
1.590	-0.147	0.048	
1.595	0.171	0.017	
1.600	0.122	0.013	
1.605	-0.152	0.021	
1.610	0.062	0.015	
1.615	0.284	0.022	
1.620	-0.084	0.046	
1.625	-0.078	0.051	
1.630	0.227	0.044	
1.635	-0.040	0.047	
1.640	-0.179	0.039	
1.645	0.081	0.013	
1.650	0.015	-0.002	
1.655	-0.239	-0.015	
1.660	-0.116	-0.046	
1.665	-0.020	-0.075	
1.670	-0.265	-0.095	
1.675	-0.272	-0.125	
1.680	-0.089	-0.158	
1.685	-0.234	-0.177	
1.690	-0.335	-0.195	
1.695	-0.126	-0.215	
1.700	-0.126	-0.218	
1.705	-0.286	-0.210	
1.710	-0.098	-0.204	
1.715	0.094	-0.181	
1.720	-0.139	-0.139	
1.725	-0.081	-0.105	
1.730	0.159	-0.075	
1.735	-0.269	-0.048	
1.740	-0.585	-0.071	
1.745	-0.556	-0.161	
1.750	-0.640	-0.283	
1.755	-0.767	-0.411	
1.760	-0.555	-0.524	
1.765	-0.364	-0.587	
1.770	-0.439	-0.588	
1.775	-0.312	-0.552	
1.780	0.032	-0.480	
1.785	-0.081	-0.371	
1.790	-0.150	-0.262	
1.795	0.197	-0.169	
1.800	0.157	-0.073	
1.805	-0.130	0.005	
1.810	0.120	0.043	
1.815	0.345	0.075	
1.820	-0.023	0.113	
1.825	0.013	0.125	
1.830	0.406	0.127	
1.835	0.156	0.150	
1.840	-0.006	0.166	
1.845	0.423	0.170	
1.850	0.348	0.195	
1.855	0.012	0.223	
1.860	0.318	0.228	
1.865	0.524	0.242	
1.870	0.178	0.276	
1.875	0.266	0.294	
1.880	0.640	0.311	
1.885	0.333	0.349	
1.890	0.096	0.368	
1.895	0.466	0.355	
1.900	0.389	0.348	
1.905	-0.011	0.338	
1.910	0.204	0.297	
1.915	0.275	0.253	
1.920	-0.119	0.214	
1.925	-0.113	0.152	
1.930	0.142	0.084	
1.935	-0.110	0.038	
1.940	-0.219	-0.006	
1.945	0.030	-0.050	
1.950	-0.031	-0.071	
1.955	-0.236	-0.081	
1.960	-0.097	-0.098	
1.965	0.000	-0.108	
1.970	-0.232	-0.109	
1.975	-0.188	-0.119	
1.980	0.049	-0.128	
1.985	-0.162	-0.120	
1.990	-0.269	-0.120	
1.995	-0.054	-0.132	
2.000	-0.127	-0.137	
2.005	-0.326	-0.143	
2.010	-0.193	-0.165	
2.015	-0.124	-0.184	
2.020	-0.344	-0.195	
2.025	-0.320	-0.217	
2.030	-0.165	-0.241	
2.035	-0.346	-0.254	
2.040	-0.442	-0.273	
2.045	-0.245	-0.301	
2.050	-0.281	-0.314	
2.055	-0.448	-0.321	
2.060	-0.291	-0.333	
2.065	-0.197	-0.334	
2.070	-0.349	-0.320	
2.075	-0.251	-0.307	
2.080	0.067	-0.281	
2.085	-0.097	-0.225	
2.090	-0.281	-0.175	
2.095	-0.306	-0.163	
2.100	-0.570	-0.194	
2.105	-0.888	-0.282	
2.110	-0.807	-0.418	
2.115	-0.700	-0.556	
2.120	-0.784	-0.659	
2.125	-0.636	-0.722	
2.130	-0.346	-0.731	
2.135	-0.367	-0.678	
2.140	-0.349	-0.593	
2.145	-0.061	-0.494	
2.150	-0.057	-0.378	
2.155	-0.239	-0.271	
2.160	-0.051	-0.195	
2.165	0.097	-0.133	
2.170	-0.176	-0.079	
2.175	-0.107	-0.055	
2.180	0.204	-0.041	
2.185	-0.060	-0.016	
2.190	-0.142	-0.003	
2.195	0.220	-0.002	
2.200	0.165	0.020	
2.205	-0.109	0.048	
2.210	0.175	0.058	
2.215	0.356	0.080	
2.220	-0.023	0.116	
2.225	0.104	0.131	
2.230	0.496	0.146	
2.235	0.243	0.188	
2.240	0.081	0.223	
2.245	0.452	0.239	
2.250	0.350	0.264	
2.255	-0.003	0.280	
2.260	0.259	0.265	
2.265	0.340	0.248	
2.270	-0.080	0.233	
2.275	-0.060	0.189	
2.280	0.197	0.132	
2.285	-0.107	0.090	
2.290	-0.217	0.042	
2.295	0.018	-0.014	
2.300	-0.072	-0.050	
2.305	-0.284	-0.078	
2.310	-0.139	-0.113	
2.315	-0.048	-0.138	
2.320	-0.272	-0.148	
2.325	-0.236	-0.164	
2.330	-0.031	-0.177	
2.335	-0.220	-0.175	
2.340	-0.294	-0.177	
2.345	-0.066	-0.185	
2.350	-0.147	-0.182	
2.355	-0.332	-0.178	
2.360	-0.176	-0.189	
2.365	-0.110	-0.196	
2.370	-0.333	-0.197	
2.375	-0.320	-0.212	
2.380	-0.159	-0.232	
2.385	-0.342	-0.245	
2.390	-0.436	-0.265	
2.395	-0.245	-0.293	
2.400	-0.306	-0.310	
2.405	-0.478	-0.322	
2.410	-0.333	-0.343	
2.415	-0.262	-0.354	
2.420	-0.453	-0.355	
2.425	-0.393	-0.362	
2.430	-0.170	-0.363	
2.435	-0.265	-0.343	
2.440	-0.271	-0.315	
2.445	0.111	-0.275	
2.450	0.038	-0.205	
2.455	-0.365	-0.141	
2.460	-0.477	-0.137	
2.465	-0.637	-0.201	
2.470	-0.954	-0.319	
2.475	-0.902	-0.478	
2.480	-0.634	-0.624	
2.485	-0.659	-0.711	
2.490	-0.614	-0.741	
2.495	-0.287	-0.720	
2.500	-0.220	-0.641	
2.505	-0.310	-0.532	
2.510	-0.077	-0.423	
2.515	0.085	-0.308	
2.520	-0.190	-0.200	
2.525	-0.119	-0.128	
2.530	0.226	-0.079	
2.535	-0.040	-0.027	
2.540	-0.113	0.006	
2.545	0.270	0.020	
2.550	0.195	0.053	
2.555	-0.126	0.084	
2.560	0.168	0.089	
2.565	0.345	0.100	
2.570	-0.009	0.127	
2.575	0.133	0.137	
2.580	0.513	0.153	
2.585	0.230	0.196	
2.590	0.127	0.232	
2.595	0.568	0.256	
2.600	0.472	0.300	
2.605	0.122	0.342	
2.610	0.415	0.351	
2.615	0.541	0.360	
2.620	0.094	0.371	
2.625	0.142	0.349	
2.630	0.438	0.311	
2.635	0.079	0.285	
2.640	-0.109	0.243	
2.645	0.221	0.181	
2.650	0.081	0.136	
2.655	-0.194	0.098	
2.660	0.003	0.047	
2.665	0.091	0.009	
2.670	-0.214	-0.013	
2.675	-0.161	-0.044	
2.680	0.110	-0.071	
2.685	-0.156	-0.076	
2.690	-0.242	-0.084	
2.695	0.055	-0.100	
2.700	-0.028	-0.097	
2.705	-0.246	-0.089	
2.710	-0.064	-0.095	
2.715	0.030	-0.097	
2.720	-0.265	-0.092	
2.725	-0.225	-0.106	
2.730	-0.040	-0.128	
2.735	-0.242	-0.141	
2.740	-0.320	-0.160	
2.745	-0.118	-0.186	
2.750	-0.217	-0.200	
2.755	-0.408	-0.214	
2.760	-0.246	-0.241	
2.765	-0.179	-0.259	
2.770	-0.398	-0.267	
2.775	-0.339	-0.282	
2.780	-0.161	-0.294	
2.785	-0.309	-0.291	
2.790	-0.333	-0.287	
2.795	-0.029	-0.278	
2.800	-0.052	-0.243	
2.805	-0.203	-0.197	
2.810	0.075	-0.155	
2.815	-0.038	-0.110	
2.820	-0.514	-0.092	
2.825	-0.686	-0.147	
2.830	-0.688	-0.265	
2.835	-0.828	-0.408	
2.840	-0.798	-0.548	
2.845	-0.482	-0.650	
2.850	-0.414	-0.680	
2.855	-0.453	-0.651	
2.860	-0.150	-0.584	
2.865	0.064	-0.475	
2.870	-0.177	-0.343	
2.875	-0.068	-0.232	
2.880	0.292	-0.135	
2.885	0.009	-0.038	
2.890	-0.106	0.026	
2.895	0.293	0.057	
2.900	0.214	0.093	
2.905	-0.080	0.124	
2.910	0.247	0.130	
2.915	0.417	0.147	
2.920	0.032	0.180	
2.925	0.180	0.193	
2.930	0.531	0.207	
2.935	0.256	0.244	
2.940	0.151	0.273	
2.945	0.632	0.292	
2.950	0.573	0.339	
2.955	0.238	0.392	
2.960	0.599	0.422	
2.965	0.741	0.459	
2.970	0.322	0.504	
2.975	0.391	0.515	
2.980	0.698	0.508	
2.985	0.302	0.507	
2.990	0.114	0.479	
2.995	0.476	0.423	
3.000	0.293	0.380	
3.005	-0.097	0.333	
3.010	0.168	0.261	
3.015	0.235	0.200	
3.020	-0.147	0.155	
3.025	-0.081	0.098	
3.030	0.224	0.048	
3.035	-0.077	0.028	
3.040	-0.165	0.009	
3.045	0.178	-0.013	
3.050	0.065	-0.009	
3.055	-0.158	0.001	
3.060	0.134	0.001	
3.065	0.264	0.018	
3.070	-0.122	0.048	
3.075	-0.063	0.052	
3.080	0.230	0.043	
3.085	-0.098	0.045	
3.090	-0.176	0.031	
3.095	0.113	0.003	
3.100	-0.061	-0.012	
3.105	-0.287	-0.031	
3.110	-0.104	-0.069	
3.115	-0.023	-0.098	
3.120	-0.271	-0.114	
3.125	-0.223	-0.137	
3.130	-0.017	-0.157	
3.135	-0.226	-0.160	
3.140	-0.312	-0.168	
3.145	-0.046	-0.183	
3.150	-0.074	-0.178	
3.155	-0.226	-0.162	
3.160	0.076	-0.145	
3.165	0.267	-0.101	
3.170	-0.063	-0.036	
3.175	-0.052	0.007	
3.180	-0.057	0.017	
3.185	-0.477	-0.011	
3.190	-0.695	-0.102	
3.195	-0.530	-0.238	
3.200	-0.517	-0.366	
3.205	-0.585	-0.461	
3.210	-0.323	-0.515	
3.215	-0.168	-0.511	
3.220	-0.298	-0.459	
3.225	-0.148	-0.391	
3.230	0.259	-0.301	
3.235	0.021	-0.183	
3.240	-0.034	-0.079	
3.245	0.421	0.004	
3.250	0.311	0.096	
3.255	0.000	0.172	
3.260	0.340	0.207	
3.265	0.435	0.238	
3.270	0.041	0.267	
3.275	0.227	0.266	
3.280	0.577	0.266	
3.285	0.278	0.294	
3.290	0.139	0.312	
3.295	0.576	0.315	
3.300	0.489	0.341	
3.305	0.206	0.372	
3.310	0.614	0.388	
3.315	0.768	0.426	
3.320	0.354	0.482	
3.325	0.469	0.510	
3.330	0.794	0.526	
3.335	0.438	0.552	
3.340	0.285	0.553	
3.345	0.686	0.530	
3.350	0.495	0.520	
3.355	0.091	0.500	
3.360	0.376	0.447	
3.365	0.412	0.396	
3.370	-0.064	0.351	
3.375	0.029	0.278	
3.380	0.307	0.205	
3.385	-0.017	0.160	
3.390	-0.107	0.116	
3.395	0.266	0.074	
3.400	0.136	0.066	
3.405	-0.135	0.068	
3.410	0.162	0.058	
3.415	0.272	0.064	
3.420	-0.104	0.082	
3.425	0.006	0.080	
3.430	0.322	0.074	
3.435	-0.031	0.086	
3.440	-0.129	0.082	
3.445	0.198	0.061	
3.450	0.032	0.053	
3.455	-0.202	0.042	
3.460	0.020	0.013	
3.465	0.096	-0.007	
3.470	-0.223	-0.016	
3.475	-0.171	-0.042	
3.480	0.030	-0.071	
3.485	-0.214	-0.088	
3.490	-0.271	-0.110	
3.495	-0.014	-0.137	
3.500	-0.118	-0.144	
3.505	-0.283	-0.145	
3.510	-0.040	-0.152	
3.515	0.143	-0.138	
3.520	-0.144	-0.101	
3.525	0.015	-0.070	
3.530	0.424	-0.027	
3.535	0.078	0.042	
3.540	-0.191	0.086	
3.545	-0.197	0.069	
3.550	-0.469	-0.001	
3.555	-0.732	-0.121	
3.560	-0.540	-0.272	
3.565	-0.388	-0.398	
3.570	-0.498	-0.470	
3.575	-0.330	-0.498	
3.580	-0.028	-0.474	
3.585	-0.138	-0.399	
3.590	-0.112	-0.308	
3.595	0.354	-0.207	
3.600	0.256	-0.079	
3.605	-0.032	0.037	
3.610	0.353	0.112	
3.615	0.475	0.181	
3.620	0.072	0.245	
3.625	0.261	0.272	
3.630	0.615	0.291	
3.635	0.263	0.327	
3.640	0.183	0.346	
3.645	0.628	0.349	
3.650	0.502	0.376	
3.655	0.221	0.405	
3.660	0.612	0.417	
3.665	0.738	0.446	
3.670	0.347	0.491	
3.675	0.534	0.513	
3.680	0.884	0.535	
3.685	0.565	0.579	
3.690	0.447	0.608	
3.695	0.854	0.617	
3.700	0.683	0.638	
3.705	0.324	0.648	
3.710	0.608	0.623	
3.715	0.640	0.596	
3.720	0.162	0.567	
3.725	0.227	0.503	
3.730	0.473	0.429	
3.735	0.075	0.371	
3.740	-0.054	0.301	
3.745	0.311	0.223	
3.750	0.156	0.177	
3.755	-0.090	0.147	
3.760	0.223	0.114	
3.765	0.304	0.107	
3.770	-0.077	0.118	
3.775	0.085	0.113	
3.780	0.437	0.114	
3.785	0.096	0.142	
3.790	-0.003	0.159	
3.795	0.379	0.159	
3.800	0.183	0.173	
3.805	-0.115	0.177	
3.810	0.171	0.152	
3.815	0.229	0.133	
3.820	-0.141	0.121	
3.825	-0.089	0.087	
3.830	0.111	0.044	
3.835	-0.162	0.014	
3.840	-0.231	-0.024	
3.845	0.029	-0.066	
3.850	-0.097	-0.087	
3.855	-0.269	-0.101	
3.860	-0.055	-0.121	
3.865	-0.005	-0.126	
3.870	-0.248	-0.120	
3.875	-0.124	-0.124	
3.880	0.226	-0.115	
3.885	-0.048	-0.077	
3.890	-0.042	-0.040	
3.895	0.405	-0.001	
3.900	-0.002	0.053	
3.905	-0.423	0.069	
3.910	-0.451	0.004	
3.915	-0.524	-0.114	
3.920	-0.714	-0.253	
3.925	-0.566	-0.391	
3.930	-0.327	-0.487	
3.935	-0.382	-0.518	
3.940	-0.306	-0.502	
3.945	0.104	-0.443	
3.950	0.081	-0.333	
3.955	-0.101	-0.210	
3.960	0.263	-0.104	
3.965	0.380	0.004	
3.970	0.000	0.104	
3.975	0.185	0.160	
3.980	0.487	0.197	
3.985	0.159	0.240	
3.990	0.090	0.258	
3.995	0.518	0.259	
4.000	0.392	0.281	
4.005	0.114	0.306	
4.010	0.470	0.312	
4.015	0.560	0.332	
4.020	0.154	0.361	
4.025	0.368	0.366	
4.030	0.712	0.374	
4.035	0.391	0.410	
4.040	0.347	0.437	
4.045	0.768	0.455	
4.050	0.617	0.495	
4.055	0.318	0.531	
4.060	0.644	0.538	
4.065	0.683	0.547	
4.070	0.235	0.555	
4.075	0.334	0.525	
4.080	0.550	0.480	
4.085	0.122	0.441	
4.090	-0.006	0.377	
4.095	0.343	0.297	
4.100	0.148	0.241	
4.105	-0.118	0.193	
4.110	0.186	0.138	
4.115	0.250	0.109	
4.120	-0.127	0.101	
4.125	-0.019	0.077	
4.130	0.247	0.055	
4.135	-0.087	0.052	
4.140	-0.141	0.037	
4.145	0.223	0.017	
4.150	0.052	0.020	
4.155	-0.161	0.026	
4.160	0.108	0.016	
4.165	0.169	0.019	
4.170	-0.168	0.030	
4.175	-0.083	0.018	
4.180	0.111	-0.001	
4.185	-0.181	-0.013	
4.190	-0.243	-0.038	
4.195	-0.020	-0.076	
4.200	-0.164	-0.101	
4.205	-0.320	-0.125	
4.210	-0.142	-0.158	
4.215	-0.119	-0.178	
4.220	-0.333	-0.188	
4.225	-0.242	-0.206	
4.230	-0.084	-0.218	
4.235	-0.249	-0.214	
4.240	-0.251	-0.211	
4.245	0.082	-0.202	
4.250	0.018	-0.163	
4.255	-0.106	-0.113	
4.260	0.192	-0.068	
4.265	-0.025	-0.021	
4.270	-0.497	-0.011	
4.275	-0.637	-0.080	
4.280	-0.637	-0.210	
4.285	-0.792	-0.360	
4.290	-0.743	-0.504	
4.295	-0.437	-0.607	
4.300	-0.401	-0.639	
4.305	-0.413	-0.613	
4.310	-0.087	-0.547	
4.315	0.085	-0.437	
4.320	-0.153	-0.306	
4.325	0.021	-0.194	
4.330	0.308	-0.094	
4.335	-0.019	0.001	
4.340	-0.052	0.058	
4.345	0.366	0.086	
4.350	0.206	0.125	
4.355	-0.058	0.154	
4.360	0.292	0.158	
4.365	0.377	0.172	
4.370	-0.008	0.195	
4.375	0.189	0.196	
4.380	0.525	0.201	
4.385	0.218	0.234	
4.390	0.208	0.261	
4.395	0.660	0.286	
4.400	0.507	0.339	
4.405	0.233	0.391	
4.410	0.586	0.416	
4.415	0.652	0.447	
4.420	0.217	0.476	
4.425	0.354	0.470	
4.430	0.599	0.450	
4.435	0.194	0.438	
4.440	0.078	0.400	
4.445	0.415	0.343	
4.450	0.183	0.302	
4.455	-0.118	0.257	
4.460	0.131	0.191	
4.465	0.149	0.137	
4.470	-0.179	0.096	
4.475	-0.083	0.045	
4.480	0.125	0.002	
4.485	-0.148	-0.019	
4.490	-0.188	-0.042	
4.495	0.093	-0.066	
4.500	-0.068	-0.069	
4.505	-0.236	-0.070	
4.510	-0.005	-0.083	
4.515	0.049	-0.083	
4.520	-0.202	-0.073	
4.525	-0.043	-0.073	
4.530	0.253	-0.061	
4.535	-0.064	-0.025	
4.540	-0.115	-0.003	
4.545	0.181	0.004	
4.550	-0.051	0.015	
4.555	-0.249	0.010	
4.560	-0.089	-0.023	
4.565	-0.098	-0.060	
4.570	-0.335	-0.095	
4.575	-0.263	-0.143	
4.580	-0.150	-0.186	
4.585	-0.349	-0.216	
4.590	-0.376	-0.246	
4.595	-0.174	-0.275	
4.600	-0.257	-0.284	
4.605	-0.368	-0.284	
4.610	-0.132	-0.284	
4.615	-0.019	-0.262	
4.620	-0.177	-0.218	
4.625	0.001	-0.174	
4.630	0.117	-0.123	
4.635	-0.422	-0.083	
4.640	-0.717	-0.115	
4.645	-0.729	-0.229	
4.650	-0.857	-0.382	
4.655	-0.920	-0.543	
4.660	-0.633	-0.675	
4.665	-0.478	-0.738	
4.670	-0.553	-0.732	
4.675	-0.327	-0.682	
4.680	-0.061	-0.590	
4.685	-0.203	-0.466	
4.690	-0.194	-0.350	
4.695	0.151	-0.248	
4.700	-0.003	-0.148	
4.705	-0.184	-0.073	
4.710	0.125	-0.034	
4.715	0.195	0.004	
4.720	-0.124	0.039	
4.725	0.035	0.049	
4.730	0.319	0.057	
4.735	-0.006	0.081	
4.740	-0.003	0.092	
4.745	0.437	0.100	
4.750	0.272	0.138	
4.755	0.036	0.178	
4.760	0.431	0.201	
4.765	0.499	0.239	
4.770	0.136	0.286	
4.775	0.350	0.308	
4.780	0.611	0.329	
4.785	0.238	0.362	
4.790	0.166	0.369	
4.795	0.554	0.356	
4.800	0.322	0.358	
4.805	-0.008	0.348	
4.810	0.321	0.307	
4.815	0.296	0.274	
4.820	-0.127	0.243	
4.825	-0.034	0.183	
4.830	0.185	0.120	
4.835	-0.138	0.075	
4.840	-0.170	0.028	
4.845	0.128	-0.017	
4.850	-0.083	-0.036	
4.855	-0.245	-0.051	
4.860	-0.032	-0.077	
4.865	-0.011	-0.091	
4.870	-0.268	-0.095	
4.875	-0.164	-0.113	
4.880	0.035	-0.126	
4.885	-0.197	-0.123	
4.890	-0.222	-0.126	
4.895	0.018	-0.133	
4.900	-0.129	-0.126	
4.905	-0.275	-0.123	
4.910	-0.083	-0.134	
4.915	-0.092	-0.139	
4.920	-0.332	-0.144	
4.925	-0.234	-0.165	
4.930	-0.110	-0.187	
4.935	-0.333	-0.200	
4.940	-0.371	-0.222	
4.945	-0.170	-0.250	
4.950	-0.272	-0.262	
4.955	-0.408	-0.272	
4.960	-0.199	-0.286	
4.965	-0.164	-0.285	
4.970	-0.330	-0.271	
4.975	-0.181	-0.261	
4.980	0.049	-0.237	
4.985	-0.173	-0.194	
4.990	-0.148	-0.157	
4.995	0.181	-0.123	
5.000	-0.217	-0.084	
5.005	-0.601	-0.089	
5.010	-0.645	-0.170	
5.015	-0.726	-0.299	
5.020	-0.860	-0.444	
5.025	-0.648	-0.576	
5.030	-0.398	-0.652	
5.035	-0.448	-0.657	
5.040	-0.352	-0.614	
5.045	0.006	-0.532	
5.050	-0.052	-0.412	
5.055	-0.147	-0.288	
5.060	0.246	-0.179	
5.065	0.310	-0.062	
5.070	-0.064	0.044	
5.075	0.160	0.104	
5.080	0.446	0.146	
5.085	0.088	0.193	
5.090	0.052	0.211	
5.095	0.479	0.212	
5.100	0.296	0.234	
5.105	0.050	0.253	
5.110	0.457	0.255	
5.115	0.505	0.277	
5.120	0.148	0.311	
5.125	0.429	0.327	
5.130	0.745	0.355	
5.135	0.408	0.411	
5.140	0.391	0.453	
5.145	0.806	0.482	
5.150	0.579	0.526	
5.155	0.296	0.555	
5.160	0.660	0.551	
5.165	0.673	0.553	
5.170	0.178	0.553	
5.175	0.324	0.513	
5.180	0.492	0.460	
5.185	0.033	0.410	
5.190	-0.040	0.334	
5.195	0.334	0.249	
5.200	0.072	0.193	
5.205	-0.170	0.144	
5.210	0.108	0.086	
5.215	0.127	0.050	
5.220	-0.184	0.031	
5.225	-0.043	0.003	
5.230	0.209	-0.014	
5.235	-0.126	-0.009	
5.240	-0.144	-0.013	
5.245	0.263	-0.019	
5.250	0.032	-0.000	
5.255	-0.156	0.017	
5.260	0.143	0.016	
5.265	0.143	0.025	
5.270	-0.193	0.036	
5.275	-0.077	0.020	
5.280	0.127	-0.002	
5.285	-0.184	-0.012	
5.290	-0.219	-0.037	
5.295	0.027	-0.069	
5.300	-0.153	-0.087	
5.305	-0.306	-0.107	
5.310	-0.118	-0.137	
5.315	-0.136	-0.158	
5.320	-0.347	-0.174	
5.325	-0.225	-0.198	
5.330	-0.046	-0.212	
5.335	-0.234	-0.205	
5.340	-0.203	-0.197	
5.345	0.162	-0.179	
5.350	0.026	-0.130	
5.355	-0.112	-0.078	
5.360	0.279	-0.034	
5.365	0.117	0.020	
5.370	-0.390	0.049	
5.375	-0.504	-0.000	
5.380	-0.566	-0.115	
5.385	-0.779	-0.261	
5.390	-0.702	-0.416	
5.395	-0.394	-0.534	
5.400	-0.384	-0.580	
5.405	-0.394	-0.567	
5.410	-0.048	-0.513	
5.415	0.128	-0.408	
5.420	-0.121	-0.277	
5.425	0.148	-0.160	
5.430	0.427	-0.045	
5.435	0.073	0.069	
5.440	0.097	0.144	
5.445	0.524	0.190	
5.450	0.311	0.245	
5.455	0.062	0.283	
5.460	0.499	0.292	
5.465	0.534	0.317	
5.470	0.154	0.350	
5.475	0.421	0.360	
5.480	0.666	0.375	
5.485	0.321	0.409	
5.490	0.345	0.426	
5.495	0.764	0.438	
5.500	0.562	0.475	
5.505	0.356	0.509	
5.510	0.796	0.528	
5.515	0.828	0.567	
5.520	0.420	0.614	
5.525	0.647	0.631	
5.530	0.846	0.641	
5.535	0.408	0.654	
5.540	0.363	0.634	
5.545	0.704	0.591	
5.550	0.388	0.561	
5.555	0.075	0.514	
5.560	0.411	0.440	
5.565	0.363	0.380	
5.570	-0.061	0.331	
5.575	0.116	0.262	
5.580	0.350	0.203	
5.585	-0.023	0.174	
5.590	-0.022	0.140	
5.595	0.369	0.112	
5.600	0.110	0.115	
5.605	-0.095	0.118	
5.610	0.285	0.108	
5.615	0.295	0.118	
5.620	-0.061	0.139	
5.625	0.154	0.139	
5.630	0.351	0.140	
5.635	-0.049	0.153	
5.640	-0.061	0.139	
5.645	0.305	0.113	
5.650	0.042	0.107	
5.655	-0.141	0.095	
5.660	0.145	0.068	
5.665	0.076	0.052	
5.670	-0.226	0.038	
5.675	-0.107	0.002	
5.680	0.058	-0.034	
5.685	-0.205	-0.054	
5.690	-0.207	-0.080	
5.695	0.085	-0.103	
5.700	-0.104	-0.101	
5.705	-0.205	-0.097	
5.710	0.124	-0.095	
5.715	0.181	-0.066	
5.720	-0.092	-0.022	
5.725	0.177	0.012	
5.730	0.415	0.058	
5.735	-0.138	0.110	
5.740	-0.352	0.105	
5.745	-0.355	0.028	
5.750	-0.578	-0.090	
5.755	-0.671	-0.232	
5.760	-0.411	-0.367	
5.765	-0.329	-0.450	
5.770	-0.449	-0.477	
5.775	-0.226	-0.470	
5.780	0.052	-0.419	
5.785	-0.130	-0.328	
5.790	-0.055	-0.235	
5.795	0.377	-0.140	
5.800	0.160	-0.027	
5.805	-0.043	0.063	
5.810	0.362	0.116	
5.815	0.379	0.170	
5.820	0.000	0.216	
5.825	0.273	0.229	
5.830	0.496	0.241	
5.835	0.096	0.266	
5.840	0.143	0.267	
5.845	0.556	0.262	
5.850	0.318	0.283	
5.855	0.097	0.301	
5.860	0.528	0.302	
5.865	0.565	0.326	
5.870	0.226	0.365	
5.875	0.499	0.387	
5.880	0.742	0.417	
5.885	0.351	0.462	
5.890	0.351	0.482	
5.895	0.716	0.485	
5.900	0.411	0.498	
5.905	0.105	0.488	
5.910	0.432	0.442	
5.915	0.350	0.398	
5.920	-0.063	0.353	
5.925	0.096	0.280	
5.930	0.263	0.211	
5.935	-0.130	0.160	
5.940	-0.135	0.100	
5.945	0.163	0.041	
5.950	-0.063	0.010	
5.955	-0.194	-0.014	
5.960	0.082	-0.040	
5.965	0.061	-0.044	
5.970	-0.203	-0.038	
5.975	-0.048	-0.046	
5.980	0.139	-0.049	
5.985	-0.150	-0.038	
5.990	-0.138	-0.039	
5.995	0.171	-0.044	
6.000	-0.057	-0.032	
6.005	-0.207	-0.027	
6.010	0.055	-0.038	
6.015	0.013	-0.041	
6.020	-0.228	-0.041	
6.025	-0.092	-0.059	
6.030	0.004	-0.075	
6.035	-0.255	-0.085	
6.040	-0.265	-0.110	
6.045	-0.071	-0.141	
6.050	-0.232	-0.160	
6.055	-0.350	-0.181	
6.060	-0.144	-0.207	
6.065	-0.153	-0.218	
6.070	-0.346	-0.220	
6.075	-0.200	-0.229	
6.080	-0.048	-0.227	
6.085	-0.231	-0.209	
6.090	-0.168	-0.193	
6.095	0.197	-0.166	
6.100	-0.043	-0.114	
6.105	-0.320	-0.077	
6.110	-0.341	-0.092	
6.115	-0.559	-0.154	
6.120	-0.837	-0.262	
6.125	-0.691	-0.402	
6.130	-0.514	-0.523	
6.135	-0.614	-0.593	
6.140	-0.514	-0.622	
6.145	-0.211	-0.607	
6.150	-0.226	-0.542	
6.155	-0.263	-0.452	
6.160	0.041	-0.357	
6.165	0.049	-0.251	
6.170	-0.185	-0.155	
6.175	0.007	-0.093	
6.180	0.224	-0.043	
6.185	-0.103	0.006	
6.190	-0.068	0.026	
6.195	0.263	0.033	
6.200	0.015	0.052	
6.205	-0.127	0.059	
6.210	0.229	0.051	
6.215	0.211	0.063	
6.220	-0.098	0.083	
6.225	0.185	0.086	
6.230	0.426	0.104	
6.235	0.075	0.145	
6.240	0.088	0.169	
6.245	0.475	0.183	
6.250	0.266	0.216	
6.255	0.076	0.243	
6.260	0.434	0.250	
6.265	0.345	0.267	
6.270	-0.055	0.275	
6.275	0.137	0.246	
6.280	0.263	0.208	
6.285	-0.126	0.176	
6.290	-0.147	0.121	
6.295	0.064	0.056	
6.300	-0.156	0.005	
6.305	-0.291	-0.046	
6.310	-0.093	-0.100	
6.315	-0.129	-0.137	
6.320	-0.330	-0.161	
6.325	-0.197	-0.189	
6.330	-0.097	-0.205	
6.335	-0.306	-0.208	
6.340	-0.280	-0.216	
6.345	-0.049	-0.223	
6.350	-0.182	-0.211	
6.355	-0.291	-0.198	
6.360	-0.064	-0.194	
6.365	-0.107	-0.180	
6.370	-0.320	-0.168	
6.375	-0.193	-0.174	
6.380	-0.109	-0.183	
6.385	-0.335	-0.187	
6.390	-0.324	-0.206	
6.395	-0.153	-0.230	
6.400	-0.318	-0.243	
6.405	-0.442	-0.261	
6.410	-0.268	-0.290	
6.415	-0.301	-0.309	
6.420	-0.480	-0.324	
6.425	-0.352	-0.346	
6.430	-0.246	-0.359	
6.435	-0.434	-0.358	
6.440	-0.405	-0.362	
6.445	-0.200	-0.363	
6.450	-0.295	-0.348	
6.455	-0.352	-0.329	
6.460	-0.058	-0.307	
6.465	-0.022	-0.263	
6.470	-0.315	-0.212	
6.475	-0.394	-0.196	
6.480	-0.530	-0.227	
6.485	-0.873	-0.308	
6.490	-0.912	-0.438	
6.495	-0.691	-0.577	
6.500	-0.711	-0.678	
6.505	-0.702	-0.732	
6.510	-0.408	-0.740	
6.515	-0.303	-0.691	
6.520	-0.391	-0.605	
6.525	-0.193	-0.509	
6.530	-0.019	-0.405	
6.535	-0.231	-0.301	
6.540	-0.167	-0.223	
6.545	0.146	-0.164	
6.550	-0.077	-0.102	
6.555	-0.199	-0.062	
6.560	0.114	-0.048	
6.565	0.088	-0.026	
6.570	-0.181	-0.006	
6.575	0.049	-0.005	
6.580	0.264	0.005	
6.585	-0.080	0.031	
6.590	-0.022	0.043	
6.595	0.366	0.052	
6.600	0.124	0.085	
6.605	-0.022	0.113	
6.610	0.452	0.130	
6.615	0.408	0.174	
6.620	0.035	0.224	
6.625	0.308	0.243	
6.630	0.472	0.260	
6.635	0.024	0.279	
6.640	0.039	0.262	
6.645	0.376	0.228	
6.650	0.036	0.207	
6.655	-0.153	0.172	
6.660	0.124	0.117	
6.665	0.017	0.073	
6.670	-0.257	0.033	
6.675	-0.101	-0.020	
6.680	0.046	-0.062	
6.685	-0.246	-0.082	
6.690	-0.236	-0.109	
6.695	0.015	-0.134	
6.700	-0.165	-0.139	
6.705	-0.287	-0.144	
6.710	-0.051	-0.156	
6.715	-0.101	-0.156	
6.720	-0.304	-0.153	
6.725	-0.138	-0.162	
6.730	0.010	-0.163	
6.735	-0.245	-0.150	
6.740	-0.222	-0.148	
6.745	0.018	-0.151	
6.750	-0.182	-0.141	
6.755	-0.306	-0.141	
6.760	-0.084	-0.155	
6.765	-0.152	-0.162	
6.770	-0.364	-0.170	
6.775	-0.236	-0.195	
6.780	-0.148	-0.216	
6.785	-0.370	-0.228	
6.790	-0.339	-0.249	
6.795	-0.139	-0.268	
6.800	-0.286	-0.269	
6.805	-0.385	-0.271	
6.810	-0.159	-0.278	
6.815	-0.162	-0.270	
6.820	-0.323	-0.253	
6.825	-0.115	-0.241	
6.830	0.124	-0.210	
6.835	-0.141	-0.157	
6.840	-0.098	-0.113	
6.845	-0.017	-0.087	
6.850	-0.451	-0.085	
6.855	-0.749	-0.146	
6.860	-0.691	-0.270	
6.865	-0.738	-0.414	
6.870	-0.841	-0.547	
6.875	-0.590	-0.650	
6.880	-0.358	-0.691	
6.885	-0.430	-0.663	
6.890	-0.272	-0.596	
6.895	0.120	-0.492	
6.900	-0.064	-0.355	
6.905	-0.155	-0.229	
6.910	0.250	-0.131	
6.915	0.220	-0.032	
6.920	-0.104	0.049	
6.925	0.197	0.090	
6.930	0.409	0.125	
6.935	0.017	0.167	
6.940	0.125	0.183	
6.945	0.527	0.194	
6.950	0.247	0.229	
6.955	0.082	0.255	
6.960	0.553	0.265	
6.965	0.544	0.301	
6.970	0.209	0.349	
6.975	0.541	0.377	
6.980	0.758	0.416	
6.985	0.379	0.470	
6.990	0.447	0.501	
6.995	0.843	0.521	
7.000	0.547	0.559	
7.005	0.342	0.579	
7.010	0.725	0.572	
7.015	0.611	0.574	
7.020	0.154	0.566	
7.025	0.386	0.518	
7.030	0.507	0.465	
7.035	0.070	0.421	
7.040	0.107	0.356	
7.045	0.446	0.292	
7.050	0.111	0.258	
7.055	-0.089	0.220	
7.060	0.299	0.172	
7.065	0.238	0.151	
7.070	-0.107	0.143	
7.075	0.139	0.121	
7.080	0.282	0.108	
7.085	-0.138	0.108	
7.090	-0.112	0.083	
7.095	0.240	0.050	
7.100	-0.011	0.041	
7.105	-0.136	0.033	
7.110	0.217	0.019	
7.115	0.124	0.029	
7.120	-0.188	0.041	
7.125	0.006	0.028	
7.130	0.149	0.015	
7.135	-0.203	0.011	
7.140	-0.187	-0.014	
7.145	0.062	-0.047	
7.150	-0.187	-0.066	
7.155	-0.307	-0.092	
7.160	-0.086	-0.129	
7.165	-0.141	-0.151	
7.170	-0.344	-0.168	
7.175	-0.182	-0.191	
7.180	-0.058	-0.203	
7.185	-0.294	-0.199	
7.190	-0.239	-0.201	
7.195	0.076	-0.197	
7.200	-0.095	-0.167	
7.205	-0.158	-0.134	
7.210	0.310	-0.098	
7.215	0.266	-0.028	
7.220	-0.257	0.038	
7.225	-0.355	0.036	
7.230	-0.512	-0.040	
7.235	-0.841	-0.172	
7.240	-0.801	-0.344	
7.245	-0.527	-0.502	
7.250	-0.553	-0.598	
7.255	-0.517	-0.634	
7.260	-0.141	-0.615	
7.265	-0.025	-0.530	
7.270	-0.174	-0.407	
7.275	0.177	-0.280	
7.280	0.420	-0.139	
7.285	0.044	0.005	
7.290	0.160	0.106	
7.295	0.565	0.179	
7.300	0.288	0.255	
7.305	0.128	0.303	
7.310	0.603	0.324	
7.315	0.562	0.362	
7.320	0.186	0.402	
7.325	0.528	0.415	
7.330	0.738	0.436	
7.335	0.327	0.474	
7.340	0.435	0.489	
7.345	0.872	0.502	
7.350	0.602	0.544	
7.355	0.438	0.580	
7.360	0.916	0.601	
7.365	0.854	0.645	
7.370	0.484	0.691	
7.375	0.791	0.706	
7.380	0.932	0.722	
7.385	0.452	0.740	
7.390	0.441	0.717	
7.395	0.751	0.670	
7.400	0.383	0.630	
7.405	0.120	0.570	
7.410	0.508	0.488	
7.415	0.402	0.428	
7.420	-0.023	0.379	
7.425	0.255	0.313	
7.430	0.388	0.263	
7.435	-0.060	0.235	
7.440	0.001	0.190	
7.445	0.379	0.148	
7.450	0.030	0.136	
7.455	-0.119	0.120	
7.460	0.284	0.093	
7.465	0.160	0.091	
7.470	-0.162	0.094	
7.475	0.096	0.074	
7.480	0.314	0.067	
7.485	-0.087	0.081	
7.490	-0.020	0.078	
7.495	0.321	0.071	
7.500	-0.022	0.082	
7.505	-0.142	0.079	
7.510	0.203	0.058	
7.515	0.105	0.054	
7.520	-0.200	0.052	
7.525	-0.031	0.026	
7.530	0.078	0.000	
7.535	-0.243	-0.018	
7.540	-0.208	-0.052	
7.545	0.073	-0.086	
7.550	-0.144	-0.097	
7.555	-0.246	-0.105	
7.560	0.049	-0.117	
7.565	-0.008	-0.109	
7.570	-0.225	-0.093	
7.575	0.044	-0.088	
7.580	0.296	-0.061	
7.585	-0.026	-0.009	
7.590	0.156	0.037	
7.595	0.489	0.088	
7.600	-0.142	0.143	
7.605	-0.521	0.129	
7.610	-0.524	0.019	
7.615	-0.642	-0.140	
7.620	-0.767	-0.312	
7.625	-0.483	-0.461	
7.630	-0.265	-0.542	
7.635	-0.347	-0.544	
7.640	-0.193	-0.498	
7.645	0.285	-0.404	
7.650	0.114	-0.261	
7.655	0.009	-0.118	
7.660	0.504	0.003	
7.665	0.450	0.130	
7.670	0.061	0.236	
7.675	0.409	0.290	
7.680	0.618	0.332	
7.685	0.211	0.377	
7.690	0.292	0.391	
7.695	0.696	0.394	
7.700	0.397	0.419	
7.705	0.240	0.434	
7.710	0.727	0.435	
7.715	0.667	0.464	
7.720	0.311	0.502	
7.725	0.693	0.520	
7.730	0.929	0.554	
7.735	0.505	0.609	
7.740	0.603	0.641	
7.745	1.000	0.664	
7.750	0.678	0.704	
7.755	0.441	0.723	
7.760	0.855	0.710	
7.765	0.718	0.705	
7.770	0.259	0.690	
7.775	0.515	0.636	
7.780	0.625	0.581	
7.785	0.107	0.532	
7.790	0.136	0.455	
7.795	0.479	0.373	
7.800	0.116	0.319	
7.805	-0.080	0.263	
7.810	0.324	0.200	
7.815	0.212	0.168	
7.820	-0.141	0.149	
7.825	0.113	0.114	
7.830	0.298	0.094	
7.835	-0.098	0.095	
7.840	-0.013	0.082	
7.845	0.330	0.070	
7.850	-0.002	0.081	
7.855	-0.124	0.081	
7.860	0.298	0.068	
7.865	0.218	0.081	
7.870	-0.122	0.101	
7.875	0.156	0.098	
7.880	0.276	0.100	
7.885	-0.126	0.109	
7.890	-0.077	0.091	
7.895	0.238	0.064	
7.900	-0.101	0.052	
7.905	-0.232	0.028	
7.910	0.046	-0.013	
7.915	-0.057	-0.040	
7.920	-0.294	-0.063	
7.925	-0.116	-0.097	
7.930	0.010	-0.120	
7.935	-0.262	-0.126	
7.940	-0.213	-0.139	
7.945	0.075	-0.148	
7.950	-0.129	-0.134	
7.955	-0.181	-0.119	
7.960	0.247	-0.101	
7.965	0.226	-0.049	
7.970	-0.090	0.014	
7.975	-0.008	0.044	
7.980	-0.164	0.038	
7.985	-0.598	-0.015	
7.990	-0.677	-0.132	
7.995	-0.488	-0.278	
8.000	-0.564	-0.401	
8.005	-0.549	-0.487	
8.010	-0.226	-0.527	
8.015	-0.159	-0.502	
8.020	-0.245	-0.434	
8.025	0.110	-0.345	
8.030	0.388	-0.221	
8.035	-0.028	-0.080	
8.040	0.101	0.024	
8.045	0.551	0.105	
8.050	0.223	0.191	
8.055	0.021	0.245	
8.060	0.495	0.261	
8.065	0.427	0.287	
8.070	0.065	0.313	
8.075	0.440	0.313	
8.080	0.631	0.329	
8.085	0.166	0.362	
8.090	0.296	0.369	
8.095	0.736	0.374	
8.100	0.447	0.409	
8.105	0.290	0.440	
8.110	0.796	0.458	
8.115	0.758	0.504	
8.120	0.362	0.557	
8.125	0.712	0.581	
8.130	0.860	0.608	
8.135	0.371	0.638	
8.140	0.406	0.628	
8.145	0.768	0.597	
8.150	0.362	0.578	
8.155	0.079	0.534	
8.160	0.492	0.461	
8.165	0.336	0.404	
8.170	-0.100	0.351	
8.175	0.151	0.273	
8.180	0.324	0.209	
8.185	-0.110	0.170	
8.190	-0.078	0.121	
8.195	0.255	0.074	
8.200	-0.051	0.055	
8.205	-0.155	0.035	
8.210	0.229	0.013	
8.215	0.140	0.020	
8.220	-0.168	0.036	
8.225	0.050	0.030	
8.230	0.226	0.029	
8.235	-0.132	0.040	
8.240	-0.071	0.033	
8.245	0.273	0.024	
8.250	-0.058	0.034	
8.255	-0.187	0.031	
8.260	0.131	0.010	
8.265	0.033	0.003	
8.270	-0.231	-0.002	
8.275	-0.037	-0.026	
8.280	0.070	-0.044	
8.285	-0.260	-0.052	
8.290	-0.228	-0.077	
8.295	-0.011	-0.109	
8.300	-0.217	-0.126	
8.305	-0.304	-0.146	
8.310	-0.058	-0.169	
8.315	-0.122	-0.175	
8.320	-0.315	-0.174	
8.325	-0.095	-0.180	
8.330	0.111	-0.168	
8.335	-0.179	-0.134	
8.340	-0.084	-0.107	
8.345	0.359	-0.074	
8.350	0.012	-0.014	
8.355	-0.258	0.024	
8.360	-0.246	0.003	
8.365	-0.512	-0.066	
8.370	-0.798	-0.183	
8.375	-0.602	-0.332	
8.380	-0.423	-0.456	
8.385	-0.540	-0.524	
8.390	-0.399	-0.549	
8.395	-0.074	-0.525	
8.400	-0.168	-0.449	
8.405	-0.196	-0.357	
8.410	0.243	-0.260	
8.415	0.232	-0.141	
8.420	-0.092	-0.028	
8.425	0.249	0.047	
8.430	0.421	0.113	
8.435	-0.032	0.173	
8.440	0.079	0.191	
8.445	0.496	0.194	
8.450	0.175	0.216	
8.455	0.004	0.227	
8.460	0.498	0.222	
8.465	0.431	0.244	
8.470	0.062	0.276	
8.475	0.443	0.286	
8.480	0.663	0.313	
8.485	0.249	0.362	
8.490	0.389	0.390	
8.495	0.803	0.417	
8.500	0.466	0.466	
8.505	0.301	0.499	
8.510	0.758	0.507	
8.515	0.615	0.529	
8.520	0.162	0.542	
8.525	0.473	0.513	
8.530	0.568	0.482	
8.535	0.036	0.453	
8.540	0.075	0.389	
8.545	0.418	0.313	
8.550	0.000	0.260	
8.555	-0.156	0.198	
8.560	0.191	0.125	
8.565	0.042	0.079	
8.570	-0.219	0.044	
8.575	0.013	0.001	
8.580	0.188	-0.020	
8.585	-0.156	-0.016	
8.590	-0.100	-0.022	
8.595	0.249	-0.025	
8.600	-0.068	-0.007	
8.605	-0.176	0.000	
8.610	0.206	-0.006	
8.615	0.124	0.009	
8.620	-0.177	0.027	
8.625	0.050	0.023	
8.630	0.169	0.021	
8.635	-0.199	0.024	
8.640	-0.145	0.005	
8.645	0.143	-0.022	
8.650	-0.136	-0.031	
8.655	-0.255	-0.047	
8.660	-0.002	-0.076	
8.665	-0.101	-0.093	
8.670	-0.324	-0.109	
8.675	-0.153	-0.138	
8.680	-0.061	-0.159	
8.685	-0.318	-0.167	
8.690	-0.260	-0.185	
8.695	-0.037	-0.199	
8.700	-0.220	-0.196	
8.705	-0.291	-0.193	
8.710	0.039	-0.191	
8.715	0.032	-0.163	
8.720	-0.164	-0.122	
8.725	0.134	-0.087	
8.730	0.114	-0.044	
8.735	-0.420	-0.017	
8.740	-0.581	-0.061	
8.745	-0.556	-0.170	
8.750	-0.738	-0.304	
8.755	-0.761	-0.443	
8.760	-0.442	-0.554	
8.765	-0.376	-0.600	
8.770	-0.442	-0.587	
8.775	-0.164	-0.538	
8.780	0.079	-0.447	
8.785	-0.165	-0.327	
8.790	-0.071	-0.223	
8.795	0.327	-0.129	
8.800	0.046	-0.031	
8.805	-0.077	0.039	
8.810	0.347	0.077	
8.815	0.249	0.122	
8.820	-0.074	0.157	
8.825	0.255	0.161	
8.830	0.420	0.173	
8.835	0.009	0.198	
8.840	0.142	0.201	
8.845	0.573	0.205	
8.850	0.250	0.240	
8.855	0.096	0.267	
8.860	0.606	0.279	
8.865	0.548	0.319	
8.870	0.197	0.368	
8.875	0.553	0.393	
8.880	0.751	0.427	
8.885	0.302	0.474	
8.890	0.379	0.490	
8.895	0.725	0.489	
8.900	0.327	0.498	
8.905	0.096	0.479	
8.910	0.505	0.428	
8.915	0.334	0.391	
8.920	-0.061	0.351	
8.925	0.189	0.286	
8.930	0.290	0.229	
8.935	-0.119	0.189	
8.940	-0.072	0.133	
8.945	0.259	0.081	
8.950	-0.068	0.058	
8.955	-0.170	0.034	
8.960	0.171	0.005	
8.965	0.062	0.000	
8.970	-0.202	0.003	
8.975	0.026	-0.011	
8.980	0.139	-0.017	
8.985	-0.200	-0.012	
8.990	-0.130	-0.025	
8.995	0.192	-0.039	
9.000	-0.113	-0.033	
9.005	-0.208	-0.035	
9.010	0.093	-0.049	
9.015	-0.016	-0.049	
9.020	-0.248	-0.049	
9.025	-0.060	-0.066	
9.030	0.024	-0.078	
9.035	-0.269	-0.082	
9.040	-0.237	-0.104	
9.045	-0.043	-0.132	
9.050	-0.260	-0.148	
9.055	-0.352	-0.171	
9.060	-0.118	-0.200	
9.065	-0.171	-0.213	
9.070	-0.355	-0.218	
9.075	-0.190	-0.229	
9.080	-0.072	-0.230	
9.085	-0.275	-0.216	
9.090	-0.176	-0.206	
9.095	0.175	-0.184	
9.100	-0.040	-0.133	
9.105	-0.083	-0.083	
9.110	0.243	-0.041	
9.115	-0.174	-0.003	
9.120	-0.596	-0.015	
9.125	-0.625	-0.111	
9.130	-0.645	-0.252	
9.135	-0.821	-0.401	
9.140	-0.674	-0.537	
9.145	-0.378	-0.622	
9.150	-0.419	-0.635	
9.155	-0.365	-0.597	
9.160	0.036	-0.519	
9.165	0.055	-0.396	
9.170	-0.165	-0.263	
9.175	0.168	-0.155	
9.180	0.347	-0.049	
9.185	-0.060	0.049	
9.190	0.067	0.102	
9.195	0.461	0.134	
9.200	0.133	0.176	
9.205	0.001	0.198	
9.210	0.463	0.200	
9.215	0.382	0.225	
9.220	0.029	0.253	
9.225	0.402	0.259	
9.230	0.570	0.279	
9.235	0.156	0.315	
9.240	0.321	0.331	
9.245	0.739	0.348	
9.250	0.434	0.395	
9.255	0.304	0.434	
9.260	0.779	0.457	
9.265	0.660	0.500	
9.270	0.256	0.537	
9.275	0.567	0.537	
9.280	0.669	0.533	
9.285	0.152	0.527	
9.290	0.224	0.482	
9.295	0.528	0.423	
9.300	0.082	0.379	
9.305	-0.095	0.315	
9.310	0.285	0.234	
9.315	0.120	0.178	
9.320	-0.171	0.134	
9.325	0.084	0.081	
9.330	0.214	0.050	
9.335	-0.176	0.041	
9.340	-0.129	0.017	
9.345	0.162	-0.011	
9.350	-0.127	-0.019	
9.355	-0.216	-0.034	
9.360	0.079	-0.057	
9.365	-0.048	-0.063	
9.370	-0.263	-0.067	
9.375	-0.040	-0.085	
9.380	0.079	-0.090	
9.385	-0.219	-0.081	
9.390	-0.144	-0.084	
9.395	0.124	-0.088	
9.400	-0.156	-0.076	
9.405	-0.245	-0.076	
9.410	0.036	-0.090	
9.415	-0.093	-0.093	
9.420	-0.310	-0.098	
9.425	-0.147	-0.122	
9.430	-0.087	-0.144	
9.435	-0.335	-0.158	
9.440	-0.275	-0.183	
9.445	-0.054	-0.205	
9.450	-0.243	-0.207	
9.455	-0.324	-0.210	
9.460	-0.055	-0.216	
9.465	-0.113	-0.204	
9.470	-0.277	-0.187	
9.475	-0.009	-0.175	
9.480	0.221	-0.140	
9.485	-0.072	-0.081	
9.490	0.110	-0.028	
9.495	0.372	0.027	
9.500	-0.243	0.078	
9.505	-0.579	0.056	
9.510	-0.562	-0.056	
9.515	-0.686	-0.210	
9.520	-0.807	-0.374	
9.525	-0.538	-0.517	
9.530	-0.347	-0.594	
9.535	-0.442	-0.600	
9.540	-0.255	-0.561	
9.545	0.148	-0.475	
9.550	-0.068	-0.346	
9.555	-0.115	-0.224	
9.560	0.340	-0.120	
9.565	0.238	-0.010	
9.570	-0.080	0.080	
9.575	0.267	0.125	
9.580	0.415	0.165	
9.585	-0.008	0.204	
9.590	0.139	0.210	
9.595	0.519	0.211	
9.600	0.177	0.235	
9.605	0.067	0.247	
9.610	0.562	0.247	
9.615	0.479	0.279	
9.620	0.149	0.320	
9.625	0.556	0.343	
9.630	0.733	0.383	
9.635	0.311	0.439	
9.640	0.482	0.471	
9.645	0.832	0.497	
9.650	0.440	0.537	
9.655	0.244	0.548	
9.660	0.664	0.526	
9.665	0.522	0.515	
9.670	0.097	0.497	
9.675	0.402	0.449	
9.680	0.472	0.405	
9.685	-0.049	0.369	
9.690	0.010	0.301	
9.695	0.325	0.225	
9.700	-0.049	0.175	
9.705	-0.162	0.121	
9.710	0.178	0.063	
9.715	0.003	0.032	
9.720	-0.239	0.008	
9.725	-0.022	-0.028	
9.730	0.101	-0.049	
9.735	-0.219	-0.052	
9.740	-0.144	-0.066	
9.745	0.110	-0.079	
9.750	-0.179	-0.076	
9.755	-0.246	-0.083	
9.760	0.085	-0.098	
9.765	-0.038	-0.093	
9.770	-0.251	-0.084	
9.775	-0.043	-0.091	
9.780	0.038	-0.092	
9.785	-0.251	-0.085	
9.790	-0.190	-0.096	
9.795	0.027	-0.112	
9.800	-0.225	-0.115	
9.805	-0.317	-0.130	
9.810	-0.092	-0.157	
9.815	-0.193	-0.173	
9.820	-0.396	-0.190	
9.825	-0.222	-0.218	
9.830	-0.158	-0.238	
9.835	-0.394	-0.247	
9.840	-0.324	-0.264	
9.845	-0.118	-0.278	
9.850	-0.283	-0.272	
9.855	-0.313	-0.265	
9.860	0.024	-0.253	
9.865	-0.035	-0.215	
9.870	-0.197	-0.168	
9.875	0.151	-0.126	
9.880	0.157	-0.071	
9.885	-0.396	-0.027	
9.890	-0.582	-0.057	
9.895	-0.610	-0.161	
9.900	-0.836	-0.304	
9.905	-0.834	-0.462	
9.910	-0.495	-0.593	
9.915	-0.443	-0.653	
9.920	-0.498	-0.648	
9.925	-0.187	-0.602	
9.930	0.039	-0.506	
9.935	-0.200	-0.380	
9.940	-0.061	-0.267	
9.945	0.334	-0.162	
9.950	-0.013	-0.053	
9.955	-0.086	0.021	
9.960	0.363	0.061	
9.965	0.206	0.109	
9.970	-0.100	0.144	
9.975	0.264	0.147	
9.980	0.406	0.160	
9.985	-0.014	0.185	
9.990	0.149	0.188	
9.995	0.547	0.193	
10.000	0.198	0.227	
10.005	0.084	0.249	
10.010	0.591	0.258	
10.015	0.498	0.296	
10.020	0.169	0.341	
10.025	0.570	0.365	
10.030	0.715	0.403	
10.035	0.233	0.450	
10.040	0.362	0.462	
10.045	0.704	0.459	
10.050	0.296	0.468	
10.055	0.090	0.450	
10.060	0.490	0.403	
10.065	0.276	0.367	
10.070	-0.124	0.324	
10.075	0.142	0.251	
10.080	0.198	0.186	
10.085	-0.179	0.136	
10.090	-0.106	0.074	
10.095	0.171	0.020	
10.100	-0.152	-0.007	
10.105	-0.239	-0.036	
10.110	0.079	-0.069	
10.115	-0.045	-0.078	
10.120	-0.251	-0.080	
10.125	-0.011	-0.092	
10.130	0.101	-0.089	
10.135	-0.229	-0.073	
10.140	-0.139	-0.074	
10.145	0.197	-0.076	
10.150	-0.119	-0.056	
10.155	-0.200	-0.047	
10.160	0.131	-0.052	
10.165	-0.029	-0.044	
10.170	-0.255	-0.040	
10.175	-0.006	-0.056	
10.180	0.081	-0.062	
10.185	-0.251	-0.058	
10.190	-0.184	-0.073	
10.195	0.042	-0.094	
10.200	-0.222	-0.101	
10.205	-0.309	-0.119	
10.210	-0.057	-0.147	
10.215	-0.132	-0.159	
10.220	-0.315	-0.165	
10.225	-0.121	-0.178	
10.230	-0.032	-0.179	
10.235	-0.295	-0.169	
10.240	-0.181	-0.169	
10.245	0.154	-0.162	
10.250	-0.095	-0.127	
10.255	-0.124	-0.093	
10.260	0.342	-0.060	
10.265	0.082	-0.003	
10.270	-0.358	0.033	
10.275	-0.396	-0.003	
10.280	-0.515	-0.097	
10.285	-0.776	-0.227	
10.290	-0.647	-0.374	
10.295	-0.378	-0.491	
10.300	-0.457	-0.543	
10.305	-0.414	-0.547	
10.310	-0.029	-0.509	
10.315	-0.017	-0.419	
10.320	-0.173	-0.308	
10.325	0.169	-0.206	
10.330	0.354	-0.093	
10.335	-0.038	0.018	
10.340	0.143	0.089	
10.345	0.505	0.142	
10.350	0.101	0.200	
10.355	-0.003	0.224	
10.360	0.502	0.222	
10.365	0.347	0.242	
10.370	0.006	0.263	
10.375	0.420	0.260	
10.380	0.554	0.276	
10.385	0.128	0.309	
10.390	0.308	0.320	
10.395	0.707	0.333	
10.400	0.374	0.375	
10.405	0.308	0.408	
10.410	0.796	0.431	
10.415	0.623	0.479	
10.420	0.261	0.521	
10.425	0.594	0.525	
10.430	0.669	0.528	
10.435	0.192	0.530	
10.440	0.292	0.495	
10.445	0.603	0.450	
10.450	0.145	0.421	
10.455	-0.058	0.367	
10.460	0.336	0.290	
10.465	0.124	0.232	
10.470	-0.170	0.180	
10.475	0.078	0.115	
10.480	0.188	0.070	
10.485	-0.173	0.047	
10.490	-0.071	0.017	
10.495	0.256	-0.004	
10.500	-0.092	0.003	
10.505	-0.170	0.001	
10.510	0.197	-0.011	
10.515	0.020	-0.003	
10.520	-0.205	0.002	
10.525	0.094	-0.009	
10.530	0.223	-0.003	
10.535	-0.148	0.018	
10.540	-0.046	0.020	
10.545	0.273	0.018	
10.550	-0.097	0.033	
10.555	-0.177	0.030	
10.560	0.181	0.010	
10.565	0.007	0.007	
10.570	-0.237	0.003	
10.575	-0.040	-0.023	
10.580	-0.002	-0.047	
10.585	-0.287	-0.065	
10.590	-0.196	-0.097	
10.595	0.009	-0.126	
10.600	-0.234	-0.136	
10.605	-0.287	-0.150	
10.610	-0.008	-0.167	
10.615	-0.113	-0.164	
10.620	-0.274	-0.156	
10.625	0.007	-0.153	
10.630	0.159	-0.128	
10.635	-0.133	-0.083	
10.640	0.081	-0.047	
10.645	0.463	0.002	
10.650	-0.074	0.069	
10.655	-0.335	0.088	
10.660	-0.313	0.032	
10.665	-0.544	-0.070	
10.670	-0.724	-0.206	
10.675	-0.474	-0.348	
10.680	-0.338	-0.447	
10.685	-0.477	-0.488	
10.690	-0.301	-0.492	
10.695	0.020	-0.452	
10.700	-0.138	-0.367	
10.705	-0.119	-0.275	
10.710	0.369	-0.179	
10.715	0.244	-0.059	
10.720	-0.049	0.048	
10.725	0.347	0.115	
10.730	0.435	0.176	
10.735	-0.006	0.229	
10.740	0.191	0.242	
10.745	0.551	0.246	
10.750	0.174	0.270	
10.755	0.090	0.278	
10.760	0.567	0.273	
10.765	0.417	0.296	
10.770	0.124	0.323	
10.775	0.562	0.333	
10.780	0.692	0.366	
10.785	0.301	0.418	
10.790	0.525	0.451	
10.795	0.861	0.486	
10.800	0.478	0.539	
10.805	0.385	0.567	
10.810	0.814	0.572	
10.815	0.617	0.590	
10.820	0.247	0.596	
10.825	0.550	0.565	
10.830	0.547	0.533	
10.835	0.036	0.497	
10.840	0.152	0.423	
10.845	0.411	0.343	
10.850	-0.017	0.285	
10.855	-0.113	0.216	
10.860	0.258	0.142	
10.865	0.059	0.102	
10.870	-0.171	0.072	
10.875	0.119	0.037	
10.880	0.206	0.025	
10.885	-0.144	0.033	
10.890	-0.016	0.026	
10.895	0.305	0.024	
10.900	-0.068	0.043	
10.905	-0.141	0.045	
10.910	0.250	0.034	
10.915	0.096	0.043	
10.920	-0.144	0.053	
10.925	0.136	0.046	
10.930	0.180	0.048	
10.935	-0.177	0.055	
10.940	-0.089	0.036	
10.945	0.152	0.011	
10.950	-0.155	-0.001	
10.955	-0.203	-0.023	
10.960	0.085	-0.052	
10.965	-0.095	-0.062	
10.970	-0.291	-0.074	
10.975	-0.084	-0.101	
10.980	-0.060	-0.120	
10.985	-0.300	-0.130	
10.990	-0.207	-0.151	
10.995	-0.014	-0.167	
11.000	-0.223	-0.165	
11.005	-0.236	-0.166	
11.010	0.120	-0.162	
11.015	0.015	-0.129	
11.020	-0.152	-0.090	
11.025	0.238	-0.056	
11.030	0.307	0.000	
11.035	-0.251	0.056	
11.040	-0.373	0.046	
11.045	-0.426	-0.032	
11.050	-0.720	-0.155	
11.055	-0.749	-0.307	
11.060	-0.471	-0.450	
11.065	-0.465	-0.536	
11.070	-0.504	-0.567	
11.075	-0.182	-0.555	
11.080	0.000	-0.486	
11.085	-0.177	-0.379	
11.090	-0.003	-0.273	
11.095	0.316	-0.165	
11.100	-0.025	-0.053	
11.105	-0.072	0.021	
11.110	0.353	0.062	
11.115	0.198	0.109	
11.120	-0.066	0.143	
11.125	0.290	0.150	
11.130	0.380	0.167	
11.135	-0.037	0.192	
11.140	0.154	0.189	
11.145	0.470	0.188	
11.150	0.131	0.209	
11.155	0.094	0.219	
11.160	0.567	0.224	
11.165	0.402	0.261	
11.170	0.127	0.299	
11.175	0.547	0.319	
11.180	0.615	0.354	
11.185	0.180	0.396	
11.190	0.336	0.405	
11.195	0.592	0.401	
11.200	0.178	0.403	
11.205	0.081	0.377	
11.210	0.455	0.332	
11.215	0.185	0.302	
11.220	-0.124	0.264	
11.225	0.108	0.199	
11.230	0.124	0.140	
11.235	-0.207	0.092	
11.240	-0.118	0.033	
11.245	0.073	-0.020	
11.250	-0.193	-0.049	
11.255	-0.240	-0.080	
11.260	0.006	-0.111	
11.265	-0.130	-0.123	
11.270	-0.291	-0.131	
11.275	-0.080	-0.147	
11.280	-0.038	-0.151	
11.285	-0.278	-0.145	
11.290	-0.190	-0.151	
11.295	0.006	-0.157	
11.300	-0.203	-0.148	
11.305	-0.239	-0.146	
11.310	0.007	-0.149	
11.315	-0.139	-0.140	
11.320	-0.298	-0.136	
11.325	-0.100	-0.147	
11.330	-0.095	-0.153	
11.335	-0.335	-0.156	
11.340	-0.263	-0.177	
11.345	-0.138	-0.200	
11.350	-0.350	-0.216	
11.355	-0.398	-0.241	
11.360	-0.185	-0.270	
11.365	-0.287	-0.283	
11.370	-0.445	-0.293	
11.375	-0.251	-0.310	
11.380	-0.226	-0.315	
11.385	-0.416	-0.311	
11.390	-0.294	-0.314	
11.395	-0.104	-0.309	
11.400	-0.271	-0.285	
11.405	-0.246	-0.262	
11.410	0.120	-0.232	
11.415	-0.049	-0.177	
11.420	-0.347	-0.132	
11.425	-0.390	-0.138	
11.430	-0.576	-0.194	
11.435	-0.905	-0.299	
11.440	-0.831	-0.443	
11.445	-0.633	-0.580	
11.450	-0.706	-0.670	
11.455	-0.617	-0.713	
11.460	-0.309	-0.707	
11.465	-0.294	-0.644	
11.470	-0.344	-0.551	
11.475	-0.064	-0.452	
11.480	0.049	-0.340	
11.485	-0.208	-0.230	
11.490	-0.083	-0.154	
11.495	0.157	-0.098	
11.500	-0.141	-0.049	
11.505	-0.161	-0.028	
11.510	0.201	-0.025	
11.515	0.039	-0.006	
11.520	-0.148	0.011	
11.525	0.189	0.014	
11.530	0.272	0.036	
11.535	-0.086	0.070	
11.540	0.104	0.083	
11.545	0.429	0.100	
11.550	0.120	0.139	
11.555	0.108	0.169	
11.560	0.554	0.194	
11.565	0.356	0.242	
11.570	0.064	0.283	
11.575	0.446	0.294	
11.580	0.450	0.310	
11.585	0.001	0.322	
11.590	0.162	0.298	
11.595	0.366	0.262	
11.600	-0.061	0.235	
11.605	-0.145	0.183	
11.610	0.134	0.113	
11.615	-0.104	0.059	
11.620	-0.275	0.005	
11.625	-0.072	-0.056	
11.630	-0.068	-0.098	
11.635	-0.309	-0.124	
11.640	-0.211	-0.156	
11.645	-0.080	-0.180	
11.650	-0.301	-0.190	
11.655	-0.335	-0.206	
11.660	-0.109	-0.226	
11.665	-0.234	-0.231	
11.670	-0.384	-0.234	
11.675	-0.184	-0.248	
11.680	-0.174	-0.251	
11.685	-0.385	-0.249	
11.690	-0.268	-0.258	
11.695	-0.109	-0.262	
11.700	-0.310	-0.253	
11.705	-0.346	-0.251	
11.710	-0.124	-0.256	
11.715	-0.245	-0.249	
11.720	-0.398	-0.247	
11.725	-0.216	-0.258	
11.730	-0.208	-0.264	
11.735	-0.431	-0.267	
11.740	-0.362	-0.285	
11.745	-0.240	-0.306	
11.750	-0.442	-0.319	
11.755	-0.482	-0.341	
11.760	-0.278	-0.366	
11.765	-0.365	-0.376	
11.770	-0.498	-0.381	
11.775	-0.291	-0.389	
11.780	-0.248	-0.383	
11.785	-0.414	-0.364	
11.790	-0.260	-0.350	
11.795	0.006	-0.321	
11.800	-0.167	-0.267	
11.805	-0.164	-0.213	
11.810	-0.068	-0.174	
11.815	-0.463	-0.157	
11.820	-0.833	-0.205	
11.825	-0.807	-0.325	
11.830	-0.815	-0.475	
11.835	-0.932	-0.617	
11.840	-0.743	-0.730	
11.845	-0.500	-0.786	
11.850	-0.543	-0.774	
11.855	-0.434	-0.718	
11.860	-0.122	-0.629	
11.865	-0.177	-0.509	
11.870	-0.287	-0.391	
11.875	-0.028	-0.297	
11.880	0.038	-0.210	
11.885	-0.222	-0.136	
11.890	-0.055	-0.096	
11.895	0.217	-0.064	
11.900	-0.122	-0.025	
11.905	-0.133	-0.008	
11.910	0.272	-0.004	
11.915	0.073	0.021	
11.920	-0.136	0.043	
11.925	0.261	0.048	
11.930	0.353	0.076	
11.935	-0.019	0.119	
11.940	0.247	0.145	
11.945	0.553	0.178	
11.950	0.224	0.234	
11.955	0.211	0.274	
11.960	0.651	0.303	
11.965	0.417	0.351	
11.970	0.110	0.383	
11.975	0.460	0.378	
11.980	0.426	0.374	
11.985	-0.035	0.361	
11.990	0.127	0.311	
11.995	0.322	0.253	
12.000	-0.101	0.209	
12.005	-0.168	0.147	
12.010	0.110	0.074	
12.015	-0.107	0.022	
12.020	-0.260	-0.025	
12.025	-0.052	-0.074	
12.030	-0.043	-0.104	
12.035	-0.300	-0.119	
12.040	-0.188	-0.143	
12.045	-0.043	-0.162	
12.050	-0.275	-0.166	
12.055	-0.300	-0.179	
12.060	-0.060	-0.195	
12.065	-0.205	-0.196	
12.070	-0.342	-0.198	
12.075	-0.132	-0.209	
12.080	-0.095	-0.209	
12.085	-0.309	-0.199	
12.090	-0.179	-0.199	
12.095	-0.014	-0.193	
12.100	-0.265	-0.177	
12.105	-0.287	-0.174	
12.110	-0.052	-0.182	
12.115	-0.210	-0.180	
12.120	-0.367	-0.184	
12.125	-0.179	-0.204	
12.130	-0.187	-0.219	
12.135	-0.430	-0.230	
12.140	-0.336	-0.258	
12.145	-0.207	-0.284	
12.150	-0.405	-0.298	
12.155	-0.425	-0.316	
12.160	-0.210	-0.334	
12.165	-0.329	-0.336	
12.170	-0.443	-0.335	
12.175	-0.202	-0.338	
12.180	-0.144	-0.323	
12.185	-0.312	-0.293	
12.190	-0.133	-0.266	
12.195	0.175	-0.222	
12.200	-0.179	-0.158	
12.205	-0.388	-0.123	
12.210	-0.434	-0.148	
12.215	-0.744	-0.225	
12.220	-0.958	-0.354	
12.225	-0.734	-0.509	
12.230	-0.616	-0.632	
12.235	-0.677	-0.697	
12.240	-0.445	-0.712	
12.245	-0.197	-0.670	
12.250	-0.294	-0.577	
12.255	-0.229	-0.472	
12.260	0.180	-0.360	
12.265	0.033	-0.231	
12.270	-0.150	-0.120	
12.275	0.195	-0.047	
12.280	0.233	0.020	
12.285	-0.107	0.074	
12.290	0.131	0.094	
12.295	0.394	0.112	
12.300	0.035	0.144	
12.305	0.042	0.157	
12.310	0.489	0.162	
12.315	0.308	0.196	
12.320	0.075	0.231	
12.325	0.513	0.250	
12.330	0.576	0.291	
12.335	0.209	0.344	
12.340	0.484	0.374	
12.345	0.762	0.410	
12.350	0.408	0.463	
12.355	0.403	0.495	
12.360	0.826	0.514	
12.365	0.585	0.550	
12.370	0.278	0.571	
12.375	0.637	0.558	
12.380	0.574	0.547	
12.385	0.067	0.526	
12.390	0.229	0.462	
12.395	0.421	0.389	
12.400	-0.042	0.328	
12.405	-0.106	0.249	
12.410	0.252	0.164	
12.415	0.020	0.111	
12.420	-0.174	0.070	
12.425	0.148	0.029	
12.430	0.128	0.014	
12.435	-0.203	0.014	
12.440	-0.038	-0.003	
12.445	0.201	-0.015	
12.450	-0.142	-0.008	
12.455	-0.161	-0.014	
12.460	0.191	-0.027	
12.465	-0.032	-0.020	
12.470	-0.197	-0.016	
12.475	0.139	-0.024	
12.480	0.191	-0.011	
12.485	-0.168	0.013	
12.490	-0.026	0.015	
12.495	0.224	0.013	
12.500	-0.138	0.023	
12.505	-0.164	0.014	
12.510	0.165	-0.007	
12.515	-0.097	-0.013	
12.520	-0.263	-0.027	
12.525	-0.043	-0.060	
12.530	-0.052	-0.083	
12.535	-0.300	-0.100	
12.540	-0.168	-0.128	
12.545	0.007	-0.147	
12.550	-0.252	-0.148	
12.555	-0.249	-0.155	
12.560	0.044	-0.163	
12.565	-0.100	-0.149	
12.570	-0.210	-0.131	
12.575	0.174	-0.114	
12.580	0.270	-0.066	
12.585	-0.028	0.002	
12.590	0.250	0.056	
12.595	0.292	0.108	
12.600	-0.327	0.137	
12.605	-0.562	0.083	
12.610	-0.506	-0.049	
12.615	-0.610	-0.206	
12.620	-0.647	-0.354	
12.625	-0.347	-0.466	
12.630	-0.220	-0.507	
12.635	-0.333	-0.485	
12.640	-0.087	-0.430	
12.645	0.321	-0.332	
12.650	0.052	-0.195	
12.655	0.111	-0.067	
12.660	0.554	0.047	
12.665	0.362	0.167	
12.670	0.133	0.260	
12.675	0.544	0.312	
12.680	0.545	0.362	
12.685	0.133	0.401	
12.690	0.400	0.402	
12.695	0.696	0.403	
12.700	0.299	0.426	
12.705	0.310	0.433	
12.710	0.782	0.435	
12.715	0.582	0.469	
12.720	0.353	0.505	
12.725	0.837	0.528	
12.730	0.878	0.575	
12.735	0.486	0.635	
12.740	0.773	0.668	
12.745	1.036	0.702	
12.750	0.631	0.750	
12.755	0.565	0.767	
12.760	0.953	0.759	
12.765	0.664	0.760	
12.770	0.343	0.741	
12.775	0.707	0.690	
12.780	0.602	0.646	
12.785	0.085	0.598	
12.790	0.276	0.512	
12.795	0.473	0.426	
12.800	0.020	0.363	
12.805	-0.026	0.287	
12.810	0.371	0.213	
12.815	0.111	0.175	
12.820	-0.112	0.146	
12.825	0.261	0.112	
12.830	0.273	0.106	
12.835	-0.090	0.117	
12.840	0.149	0.111	
12.845	0.368	0.115	
12.850	-0.038	0.134	
12.855	-0.046	0.131	
12.860	0.377	0.116	
12.865	0.148	0.127	
12.870	-0.077	0.136	
12.875	0.334	0.131	
12.880	0.331	0.147	
12.885	-0.074	0.170	
12.890	0.146	0.165	
12.895	0.383	0.160	
12.900	-0.051	0.168	
12.905	-0.093	0.150	
12.910	0.238	0.113	
12.915	-0.022	0.091	
12.920	-0.190	0.063	
12.925	0.099	0.024	
12.930	0.065	0.004	
12.935	-0.228	-0.007	
12.940	-0.072	-0.032	
12.945	0.163	-0.048	
12.950	-0.147	-0.042	
12.955	-0.124	-0.043	
12.960	0.285	-0.041	
12.965	0.081	-0.008	
12.970	-0.078	0.027	
12.975	0.394	0.054	
12.980	0.473	0.112	
12.985	-0.054	0.179	
12.990	-0.144	0.189	
12.995	-0.254	0.132	
13.000	-0.610	0.021	
13.005	-0.648	-0.135	
13.010	-0.385	-0.293	
13.015	-0.414	-0.401	
13.020	-0.453	-0.457	
13.025	-0.129	-0.467	
13.030	0.013	-0.418	
13.035	-0.142	-0.328	
13.040	0.174	-0.228	
13.045	0.493	-0.104	
13.050	0.148	0.036	
13.055	0.186	0.144	
13.060	0.611	0.222	
13.065	0.353	0.301	
13.070	0.110	0.350	
13.075	0.541	0.361	
13.080	0.551	0.380	
13.085	0.154	0.402	
13.090	0.452	0.399	
13.095	0.684	0.405	
13.100	0.304	0.431	
13.105	0.339	0.439	
13.110	0.777	0.443	
13.115	0.567	0.477	
13.120	0.374	0.511	
13.125	0.826	0.532	
13.130	0.840	0.577	
13.135	0.426	0.627	
13.140	0.687	0.646	
13.145	0.880	0.660	
13.150	0.437	0.678	
13.155	0.395	0.661	
13.160	0.736	0.621	
13.165	0.417	0.592	
13.170	0.099	0.546	
13.175	0.417	0.470	
13.180	0.319	0.403	
13.185	-0.103	0.340	
13.190	0.068	0.255	
13.195	0.281	0.180	
13.200	-0.115	0.134	
13.205	-0.122	0.083	
13.210	0.233	0.037	
13.215	-0.014	0.023	
13.220	-0.177	0.013	
13.225	0.130	-0.005	
13.230	0.131	-0.004	
13.235	-0.179	0.008	
13.240	-0.014	0.001	
13.245	0.208	-0.003	
13.250	-0.141	0.008	
13.255	-0.118	0.003	
13.260	0.258	-0.006	
13.265	-0.017	0.009	
13.270	-0.194	0.016	
13.275	0.105	0.002	
13.280	0.052	-0.002	
13.285	-0.239	-0.005	
13.290	-0.104	-0.030	
13.295	0.029	-0.056	
13.300	-0.252	-0.072	
13.305	-0.251	-0.100	
13.310	-0.022	-0.132	
13.315	-0.190	-0.145	
13.320	-0.323	-0.158	
13.325	-0.095	-0.178	
13.330	-0.104	-0.184	
13.335	-0.329	-0.182	
13.340	-0.179	-0.191	
13.345	-0.022	-0.192	
13.350	-0.242	-0.179	
13.355	-0.197	-0.172	
13.360	0.169	-0.158	
13.365	0.006	-0.116	
13.370	-0.110	-0.070	
13.375	0.085	-0.041	
13.380	-0.228	-0.026	
13.385	-0.634	-0.061	
13.390	-0.660	-0.166	
13.395	-0.588	-0.305	
13.400	-0.729	-0.435	
13.405	-0.619	-0.542	
13.410	-0.321	-0.600	
13.415	-0.332	-0.591	
13.420	-0.333	-0.539	
13.425	0.033	-0.458	
13.430	0.122	-0.340	
13.435	-0.138	-0.213	
13.440	0.134	-0.112	
13.445	0.359	-0.019	
13.450	-0.029	0.068	
13.455	0.018	0.113	
13.460	0.406	0.133	
13.465	0.104	0.162	
13.470	-0.077	0.171	
13.475	0.351	0.157	
13.480	0.340	0.166	
13.485	-0.040	0.186	
13.490	0.246	0.185	
13.495	0.489	0.193	
13.500	0.111	0.223	
13.505	0.206	0.239	
13.510	0.646	0.257	
13.515	0.388	0.305	
13.520	0.188	0.347	
13.525	0.623	0.367	
13.530	0.582	0.402	
13.535	0.142	0.435	
13.540	0.395	0.428	
13.545	0.550	0.415	
13.550	0.073	0.404	
13.555	0.036	0.358	
13.560	0.389	0.294	
13.565	0.047	0.248	
13.570	-0.170	0.194	
13.575	0.099	0.123	
13.580	0.032	0.068	
13.585	-0.239	0.025	
13.590	-0.084	-0.025	
13.595	0.082	-0.060	
13.600	-0.216	-0.073	
13.605	-0.200	-0.091	
13.610	0.058	-0.109	
13.615	-0.155	-0.108	
13.620	-0.263	-0.112	
13.625	0.024	-0.123	
13.630	-0.022	-0.117	
13.635	-0.287	-0.107	
13.640	-0.138	-0.116	
13.645	0.053	-0.122	
13.650	-0.203	-0.114	
13.655	-0.177	-0.113	
13.660	0.107	-0.113	
13.665	-0.136	-0.096	
13.670	-0.266	-0.091	
13.675	-0.026	-0.103	
13.680	-0.083	-0.109	
13.685	-0.321	-0.115	
13.690	-0.193	-0.139	
13.695	-0.097	-0.163	
13.700	-0.342	-0.178	
13.705	-0.335	-0.204	
13.710	-0.132	-0.232	
13.715	-0.286	-0.244	
13.720	-0.396	-0.255	
13.725	-0.167	-0.271	
13.730	-0.193	-0.272	
13.735	-0.385	-0.265	
13.740	-0.213	-0.267	
13.745	-0.042	-0.258	
13.750	-0.234	-0.231	
13.755	-0.133	-0.204	
13.760	0.307	-0.162	
13.765	-0.020	-0.091	
13.770	-0.324	-0.041	
13.775	-0.341	-0.056	
13.780	-0.564	-0.125	
13.785	-0.870	-0.244	
13.790	-0.732	-0.398	
13.795	-0.562	-0.533	
13.800	-0.653	-0.617	
13.805	-0.514	-0.655	
13.810	-0.184	-0.638	
13.815	-0.200	-0.562	
13.820	-0.217	-0.458	
13.825	0.186	-0.343	
13.830	0.191	-0.207	
13.835	-0.132	-0.082	
13.840	0.177	-0.001	
13.845	0.411	0.069	
13.850	0.013	0.137	
13.855	0.085	0.169	
13.860	0.521	0.186	
13.865	0.240	0.224	
13.870	0.038	0.248	
13.875	0.484	0.252	
13.880	0.441	0.274	
13.885	0.058	0.300	
13.890	0.376	0.300	
13.895	0.623	0.311	
13.900	0.236	0.345	
13.905	0.337	0.364	
13.910	0.779	0.384	
13.915	0.516	0.434	
13.920	0.308	0.477	
13.925	0.719	0.495	
13.930	0.635	0.523	
13.935	0.180	0.540	
13.940	0.449	0.515	
13.945	0.603	0.486	
13.950	0.087	0.462	
13.955	0.052	0.403	
13.960	0.386	0.326	
13.965	0.029	0.268	
13.970	-0.156	0.203	
13.975	0.157	0.128	
13.980	0.073	0.078	
13.985	-0.211	0.043	
13.990	-0.048	-0.000	
13.995	0.127	-0.030	
14.000	-0.208	-0.039	
14.005	-0.191	-0.058	
14.010	0.099	-0.080	
14.015	-0.121	-0.081	
14.020	-0.243	-0.084	
14.025	0.033	-0.097	
14.030	-0.043	-0.095	
14.035	-0.289	-0.093	
14.040	-0.110	-0.108	
14.045	0.070	-0.116	
14.050	-0.229	-0.108	
14.055	-0.196	-0.111	
14.060	0.082	-0.117	
14.065	-0.153	-0.107	
14.070	-0.284	-0.105	
14.075	-0.038	-0.120	
14.080	-0.098	-0.127	
14.085	-0.342	-0.133	
14.090	-0.202	-0.157	
14.095	-0.103	-0.179	
14.100	-0.352	-0.192	
14.105	-0.346	-0.216	
14.110	-0.139	-0.242	
14.115	-0.291	-0.253	
14.120	-0.391	-0.263	
14.125	-0.167	-0.276	
14.130	-0.193	-0.274	
14.135	-0.368	-0.265	
14.140	-0.148	-0.262	
14.145	0.105	-0.237	
14.150	-0.144	-0.185	
14.155	-0.026	-0.135	
14.160	0.408	-0.076	
14.165	-0.130	-0.002	
14.170	-0.506	0.018	
14.175	-0.520	-0.052	
14.180	-0.695	-0.181	
14.185	-0.899	-0.340	
14.190	-0.689	-0.502	
14.195	-0.478	-0.617	
14.200	-0.562	-0.661	
14.205	-0.405	-0.653	
14.210	-0.025	-0.594	
14.215	-0.109	-0.481	
14.220	-0.173	-0.356	
14.225	0.259	-0.237	
14.230	0.243	-0.108	
14.235	-0.101	0.005	
14.240	0.206	0.071	
14.245	0.421	0.124	
14.250	0.012	0.176	
14.255	0.101	0.195	
14.260	0.519	0.202	
14.265	0.233	0.231	
14.270	0.059	0.251	
14.275	0.537	0.256	
14.280	0.498	0.286	
14.285	0.131	0.325	
14.290	0.505	0.343	
14.295	0.736	0.375	
14.300	0.334	0.428	
14.305	0.440	0.460	
14.310	0.886	0.488	
14.315	0.579	0.540	
14.320	0.348	0.577	
14.325	0.773	0.583	
14.330	0.664	0.596	
14.335	0.195	0.599	
14.340	0.466	0.560	
14.345	0.580	0.516	
14.350	0.067	0.477	
14.355	0.070	0.406	
14.360	0.420	0.325	
14.365	0.062	0.270	
14.370	-0.141	0.212	
14.375	0.214	0.144	
14.380	0.125	0.103	
14.385	-0.197	0.076	
14.390	0.001	0.036	
14.395	0.171	0.009	
14.400	-0.187	0.001	
14.405	-0.164	-0.020	
14.410	0.146	-0.043	
14.415	-0.115	-0.046	
14.420	-0.232	-0.054	
14.425	0.068	-0.071	
14.430	-0.002	-0.071	
14.435	-0.252	-0.067	
14.440	-0.046	-0.078	
14.445	0.180	-0.076	
14.450	-0.181	-0.055	
14.455	-0.145	-0.050	
14.460	0.177	-0.052	
14.465	-0.106	-0.038	
14.470	-0.239	-0.037	
14.475	0.047	-0.055	
14.480	-0.043	-0.062	
14.485	-0.310	-0.070	
14.490	-0.155	-0.099	
14.495	-0.040	-0.125	
14.500	-0.312	-0.140	
14.505	-0.281	-0.165	
14.510	-0.057	-0.190	
14.515	-0.242	-0.197	
14.520	-0.342	-0.204	
14.525	-0.084	-0.217	
14.530	-0.106	-0.212	
14.535	-0.297	-0.197	
14.540	-0.038	-0.188	
14.545	0.261	-0.154	
14.550	-0.055	-0.089	
14.555	0.090	-0.029	
14.560	0.406	0.030	
14.565	-0.228	0.084	
14.570	-0.604	0.066	
14.575	-0.592	-0.049	
14.580	-0.691	-0.211	
14.585	-0.831	-0.381	
14.590	-0.570	-0.529	
14.595	-0.338	-0.611	
14.600	-0.426	-0.616	
14.605	-0.262	-0.571	
14.610	0.197	-0.479	
14.615	0.023	-0.338	
14.620	-0.081	-0.199	
14.625	0.423	-0.081	
14.630	0.371	0.045	
14.635	-0.028	0.151	
14.640	0.321	0.204	
14.645	0.544	0.246	
14.650	0.079	0.290	
14.655	0.180	0.299	
14.660	0.632	0.297	
14.665	0.313	0.323	
14.670	0.125	0.340	
14.675	0.640	0.341	
14.680	0.589	0.370	
14.685	0.214	0.410	
14.690	0.582	0.428	
14.695	0.806	0.458	
14.700	0.379	0.508	
14.705	0.515	0.534	
14.710	0.945	0.557	
14.715	0.612	0.605	
14.720	0.392	0.635	
14.725	0.832	0.635	
14.730	0.725	0.647	
14.735	0.238	0.649	
14.740	0.487	0.609	
14.745	0.612	0.560	
14.750	0.067	0.515	
14.755	0.079	0.436	
14.760	0.453	0.348	
14.765	0.079	0.290	
14.770	-0.116	0.230	
14.775	0.281	0.165	
14.780	0.160	0.130	
14.785	-0.184	0.108	
14.790	0.042	0.070	
14.795	0.209	0.043	
14.800	-0.173	0.035	
14.805	-0.129	0.013	
14.810	0.252	-0.009	
14.815	-0.061	-0.003	
14.820	-0.203	-0.004	
14.825	0.157	-0.017	
14.830	0.116	-0.010	
14.835	-0.179	0.005	
14.840	0.072	0.003	
14.845	0.276	0.013	
14.850	-0.152	0.037	
14.855	-0.124	0.035	
14.860	0.209	0.019	
14.865	-0.104	0.016	
14.870	-0.234	0.001	
14.875	0.050	-0.031	
14.880	-0.048	-0.049	
14.885	-0.289	-0.064	
14.890	-0.122	-0.095	
14.895	-0.026	-0.118	
14.900	-0.295	-0.129	
14.905	-0.252	-0.151	
14.910	-0.013	-0.171	
14.915	-0.219	-0.173	
14.920	-0.317	-0.177	
14.925	0.003	-0.185	
14.930	-0.020	-0.171	
14.935	-0.225	-0.144	
14.940	0.087	-0.122	
14.945	0.374	-0.074	
14.950	-0.032	0.001	
14.955	-0.090	0.047	
14.960	-0.069	0.048	
14.965	-0.504	0.006	
14.970	-0.787	-0.102	
14.975	-0.590	-0.259	
14.980	-0.550	-0.405	
14.985	-0.643	-0.509	
14.990	-0.379	-0.569	
14.995	-0.147	-0.565	
15.000	-0.262	-0.502	
15.005	-0.106	-0.414	
15.010	0.385	-0.298	
15.015	0.085	-0.152	
15.020	-0.057	-0.029	
15.025	0.444	0.056	
15.030	0.356	0.142	
15.035	-0.048	0.210	
15.040	0.322	0.231	
15.045	0.560	0.252	
15.050	0.111	0.288	
15.055	0.217	0.298	
15.060	0.670	0.304	
15.065	0.347	0.339	
15.070	0.175	0.365	
15.075	0.686	0.374	
15.080	0.635	0.410	
15.085	0.256	0.454	
15.090	0.661	0.475	
15.095	0.898	0.513	
15.100	0.435	0.570	
15.105	0.504	0.597	
15.110	0.919	0.610	
15.115	0.562	0.637	
15.120	0.305	0.642	
15.125	0.742	0.614	
15.130	0.594	0.597	
15.135	0.110	0.572	
15.140	0.389	0.510	
15.145	0.530	0.451	
15.150	-0.022	0.404	
15.155	-0.022	0.328	
15.160	0.333	0.243	
15.165	-0.031	0.184	
15.170	-0.173	0.126	
15.175	0.194	0.066	
15.180	0.122	0.039	
15.185	-0.199	0.030	
15.190	0.035	0.009	
15.195	0.206	0.000	
15.200	-0.162	0.009	
15.205	-0.107	0.002	
15.210	0.282	-0.007	
15.215	-0.052	0.009	
15.220	-0.168	0.015	
15.225	0.226	0.008	
15.230	0.128	0.022	
15.235	-0.173	0.039	
15.240	0.082	0.034	
15.245	0.253	0.037	
15.250	-0.173	0.050	
15.255	-0.133	0.037	
15.260	0.227	0.014	
15.265	-0.103	0.010	
15.270	-0.245	-0.004	
15.275	0.017	-0.036	
15.280	-0.081	-0.059	
15.285	-0.324	-0.081	
15.290	-0.119	-0.116	
15.295	0.015	-0.137	
15.300	-0.297	-0.140	
15.305	-0.246	-0.154	
15.310	0.035	-0.167	
15.315	-0.181	-0.159	
15.320	-0.254	-0.152	
15.325	0.131	-0.147	
15.330	0.101	-0.112	
15.335	-0.164	-0.066	
15.340	0.215	-0.032	
15.345	0.452	0.024	
15.350	-0.174	0.090	
15.355	-0.353	0.095	
15.360	-0.355	0.023	
15.365	-0.656	-0.096	
15.370	-0.750	-0.249	
15.375	-0.439	-0.397	
15.380	-0.382	-0.490	
15.385	-0.503	-0.524	
15.390	-0.228	-0.518	
15.395	0.024	-0.463	
15.400	-0.196	-0.368	
15.405	-0.077	-0.274	
15.410	0.389	-0.175	
15.415	0.093	-0.057	
15.420	-0.071	0.034	
15.425	0.414	0.090	
15.430	0.342	0.151	
15.435	-0.057	0.202	
15.440	0.259	0.212	
15.445	0.450	0.220	
15.450	-0.014	0.236	
15.455	0.111	0.225	
15.460	0.563	0.214	
15.465	0.275	0.239	
15.470	0.113	0.263	
15.475	0.647	0.280	
15.480	0.589	0.328	
15.485	0.212	0.386	
15.490	0.620	0.418	
15.495	0.846	0.463	
15.500	0.356	0.523	
15.505	0.435	0.547	
15.510	0.840	0.554	
15.515	0.426	0.572	
15.520	0.149	0.560	
15.525	0.597	0.512	
15.530	0.432	0.476	
15.535	-0.069	0.434	
15.540	0.188	0.356	
15.545	0.314	0.281	
15.550	-0.147	0.222	
15.555	-0.107	0.149	
15.560	0.217	0.079	
15.565	-0.104	0.040	
15.570	-0.219	0.004	
15.575	0.119	-0.034	
15.580	0.021	-0.045	
15.585	-0.236	-0.045	
15.590	-0.002	-0.058	
15.595	0.206	-0.055	
15.600	-0.171	-0.032	
15.605	-0.115	-0.027	
15.610	0.232	-0.027	
15.615	-0.078	-0.010	
15.620	-0.176	-0.004	
15.625	0.232	-0.010	
15.630	0.131	0.009	
15.635	-0.193	0.030	
15.640	0.047	0.025	
15.645	0.188	0.023	
15.650	-0.207	0.027	
15.655	-0.177	0.006	
15.660	0.111	-0.027	
15.665	-0.176	-0.044	
15.670	-0.304	-0.069	
15.675	-0.038	-0.107	
15.680	-0.113	-0.129	
15.685	-0.350	-0.144	
15.690	-0.162	-0.170	
15.695	-0.052	-0.185	
15.700	-0.317	-0.185	
15.705	-0.258	-0.194	
15.710	0.012	-0.201	
15.715	-0.176	-0.186	
15.720	-0.237	-0.171	
15.725	0.166	-0.154	
15.730	0.169	-0.106	
15.735	-0.104	-0.044	
15.740	0.149	0.000	
15.745	-0.023	0.029	
15.750	-0.520	0.019	
15.755	-0.668	-0.069	
15.760	-0.561	-0.211	
15.765	-0.685	-0.356	
15.770	-0.692	-0.483	
15.775	-0.356	-0.568	
15.780	-0.295	-0.583	
15.785	-0.396	-0.545	
15.790	-0.083	-0.480	
15.795	0.247	-0.374	
15.800	-0.103	-0.238	
15.805	-0.017	-0.127	
15.810	0.408	-0.036	
15.815	0.082	0.056	
15.820	-0.075	0.114	
15.825	0.414	0.137	
15.830	0.356	0.174	
15.835	-0.034	0.211	
15.840	0.333	0.219	
15.845	0.525	0.235	
15.850	0.058	0.267	
15.855	0.181	0.271	
15.860	0.629	0.271	
15.865	0.319	0.303	
15.870	0.172	0.329	
15.875	0.693	0.343	
15.880	0.617	0.388	
15.885	0.217	0.437	
15.890	0.609	0.457	
15.895	0.808	0.486	
15.900	0.310	0.528	
15.905	0.383	0.534	
15.910	0.771	0.524	
15.915	0.366	0.528	
15.920	0.105	0.507	
15.925	0.530	0.454	
15.930	0.328	0.413	
15.935	-0.119	0.366	
15.940	0.113	0.285	
15.945	0.246	0.208	
15.950	-0.174	0.152	
15.955	-0.122	0.086	
15.960	0.206	0.028	
15.965	-0.116	0.002	
15.970	-0.228	-0.023	
15.975	0.120	-0.052	
15.980	0.023	-0.055	
15.985	-0.240	-0.049	
15.990	-0.011	-0.059	
15.995	0.166	-0.058	
16.000	-0.200	-0.041	
16.005	-0.150	-0.043	
16.010	0.217	-0.049	
16.015	-0.074	-0.033	
16.020	-0.185	-0.025	
16.025	0.192	-0.028	
16.030	0.065	-0.012	
16.035	-0.229	0.003	
16.040	-0.028	-0.010	
16.045	0.107	-0.023	
16.050	-0.236	-0.027	
16.055	-0.196	-0.050	
16.060	0.067	-0.078	
16.065	-0.223	-0.091	
16.070	-0.344	-0.113	
16.075	-0.097	-0.150	
16.080	-0.164	-0.173	
16.085	-0.378	-0.189	
16.090	-0.176	-0.213	
16.095	-0.063	-0.222	
16.100	-0.327	-0.214	
16.105	-0.266	-0.216	
16.110	0.072	-0.214	
16.115	-0.130	-0.185	
16.120	-0.185	-0.154	
16.125	0.310	-0.119	
16.130	0.272	-0.047	
16.135	-0.188	0.027	
16.140	-0.228	0.044	
16.145	-0.361	-0.003	
16.150	-0.766	-0.104	
16.155	-0.792	-0.259	
16.160	-0.552	-0.421	
16.165	-0.619	-0.539	
16.170	-0.595	-0.607	
16.175	-0.226	-0.623	
16.180	-0.139	-0.570	
16.185	-0.265	-0.475	
16.190	0.047	-0.369	
16.195	0.304	-0.243	
16.200	-0.083	-0.109	
16.205	0.015	-0.017	
16.210	0.449	0.050	
16.215	0.101	0.121	
16.220	-0.064	0.160	
16.225	0.440	0.169	
16.230	0.366	0.197	
16.235	-0.020	0.227	
16.240	0.353	0.231	
16.245	0.544	0.248	
16.250	0.084	0.280	
16.255	0.229	0.288	
16.260	0.699	0.296	
16.265	0.392	0.338	
16.270	0.209	0.375	
16.275	0.727	0.395	
16.280	0.654	0.438	
16.285	0.241	0.484	
16.290	0.626	0.498	
16.295	0.782	0.518	
16.300	0.246	0.545	
16.305	0.304	0.530	
16.310	0.655	0.495	
16.315	0.243	0.472	
16.320	-0.005	0.426	
16.325	0.417	0.354	
16.330	0.249	0.304	
16.335	-0.152	0.258	
16.340	0.097	0.190	
16.345	0.249	0.135	
16.350	-0.170	0.102	
16.355	-0.130	0.057	
16.360	0.195	0.014	
16.365	-0.115	-0.003	
16.370	-0.222	-0.023	
16.375	0.091	-0.050	
16.380	-0.034	-0.057	
16.385	-0.274	-0.062	
16.390	-0.071	-0.083	
16.395	0.076	-0.094	
16.400	-0.248	-0.089	
16.405	-0.203	-0.099	
16.410	0.088	-0.112	
16.415	-0.145	-0.106	
16.420	-0.231	-0.103	
16.425	0.094	-0.106	
16.430	-0.026	-0.092	
16.435	-0.268	-0.078	
16.440	-0.064	-0.086	
16.445	0.070	-0.089	
16.450	-0.263	-0.082	
16.455	-0.217	-0.095	
16.460	0.027	-0.115	
16.465	-0.225	-0.121	
16.470	-0.335	-0.137	
16.475	-0.075	-0.164	
16.480	-0.153	-0.177	
16.485	-0.375	-0.185	
16.490	-0.194	-0.206	
16.495	-0.083	-0.217	
16.500	-0.333	-0.214	
16.505	-0.255	-0.220	
16.510	0.070	-0.218	
16.515	-0.130	-0.188	
16.520	-0.170	-0.155	
16.525	0.391	-0.114	
16.530	0.444	-0.024	
16.535	0.007	0.084	
16.540	-0.043	0.141	
16.545	-0.269	0.127	
16.550	-0.738	0.036	
16.555	-0.813	-0.134	
16.560	-0.611	-0.330	
16.565	-0.691	-0.491	
16.570	-0.663	-0.602	
16.575	-0.281	-0.652	
16.580	-0.197	-0.622	
16.585	-0.307	-0.537	
16.590	-0.022	-0.435	
16.595	0.252	-0.309	
16.600	-0.121	-0.174	
16.605	-0.022	-0.075	
16.610	0.440	-0.000	
16.615	0.096	0.080	
16.620	-0.075	0.131	
16.625	0.414	0.148	
16.630	0.356	0.181	
16.635	-0.019	0.214	
16.640	0.366	0.223	
16.645	0.577	0.245	
16.650	0.130	0.287	
16.655	0.256	0.305	
16.660	0.699	0.320	
16.665	0.397	0.363	
16.670	0.247	0.397	
16.675	0.796	0.418	
16.680	0.745	0.471	
16.685	0.350	0.532	
16.690	0.709	0.563	
16.695	0.843	0.594	
16.700	0.318	0.625	
16.705	0.391	0.612	
16.710	0.765	0.578	
16.715	0.345	0.559	
16.720	0.061	0.517	
16.725	0.461	0.443	
16.730	0.278	0.384	
16.735	-0.141	0.324	
16.740	0.096	0.239	
16.745	0.252	0.167	
16.750	-0.170	0.121	
16.755	-0.136	0.065	
16.760	0.159	0.013	
16.765	-0.139	-0.013	
16.770	-0.255	-0.041	
16.775	0.018	-0.076	
16.780	-0.080	-0.093	
16.785	-0.313	-0.106	
16.790	-0.126	-0.130	
16.795	0.020	-0.144	
16.800	-0.283	-0.141	
16.805	-0.252	-0.150	
16.810	0.006	-0.163	
16.815	-0.193	-0.159	
16.820	-0.278	-0.159	
16.825	0.049	-0.161	
16.830	-0.040	-0.143	
16.835	-0.294	-0.123	
16.840	-0.109	-0.124	
16.845	0.001	-0.125	
16.850	-0.307	-0.122	
16.855	-0.274	-0.139	
16.860	-0.051	-0.163	
16.865	-0.275	-0.175	
16.870	-0.394	-0.195	
16.875	-0.156	-0.225	
16.880	-0.210	-0.240	
16.885	-0.430	-0.250	
16.890	-0.252	-0.269	
16.895	-0.152	-0.279	
16.900	-0.385	-0.276	
16.905	-0.323	-0.281	
16.910	-0.055	-0.282	
16.915	-0.200	-0.259	
16.920	-0.243	-0.233	
16.925	0.243	-0.197	
16.930	0.296	-0.118	
16.935	-0.081	-0.023	
16.940	-0.090	0.030	
16.945	-0.297	0.025	
16.950	-0.764	-0.049	
16.955	-0.866	-0.201	
16.960	-0.666	-0.384	
16.965	-0.744	-0.539	
16.970	-0.718	-0.648	
16.975	-0.344	-0.699	
16.980	-0.257	-0.672	
16.985	-0.359	-0.590	
16.990	-0.068	-0.490	
16.995	0.208	-0.363	
17.000	-0.141	-0.224	
17.005	-0.058	-0.121	
17.010	0.333	-0.044	
17.015	0.007	0.030	
17.020	-0.127	0.071	
17.025	0.343	0.083	
17.030	0.267	0.111	
17.035	-0.104	0.140	
17.040	0.264	0.144	
17.045	0.492	0.161	
17.050	0.041	0.199	
17.055	0.171	0.216	
17.060	0.615	0.230	
17.065	0.302	0.273	
17.070	0.148	0.307	
17.075	0.706	0.327	
17.080	0.646	0.378	
17.085	0.218	0.436	
17.090	0.588	0.461	
17.095	0.767	0.488	
17.100	0.255	0.521	
17.105	0.311	0.514	
17.110	0.693	0.488	
17.115	0.290	0.477	
17.120	0.039	0.444	
17.125	0.461	0.384	
17.130	0.288	0.342	
17.135	-0.148	0.299	
17.140	0.085	0.226	
17.145	0.232	0.160	
17.150	-0.174	0.116	
17.155	-0.130	0.061	
17.160	0.212	0.013	
17.165	-0.107	-0.005	
17.170	-0.231	-0.023	
17.175	0.113	-0.049	
17.180	0.007	-0.053	
17.185	-0.271	-0.051	
17.190	-0.061	-0.069	
17.195	0.108	-0.078	
17.200	-0.231	-0.071	
17.205	-0.176	-0.079	
17.210	0.165	-0.088	
17.215	-0.127	-0.075	
17.220	-0.217	-0.069	
17.225	0.195	-0.070	
17.230	0.075	-0.046	
17.235	-0.243	-0.021	
17.240	-0.045	-0.026	
17.245	0.130	-0.033	
17.250	-0.225	-0.031	
17.255	-0.196	-0.048	
17.260	0.085	-0.072	
17.265	-0.196	-0.081	
17.270	-0.310	-0.099	
17.275	-0.038	-0.129	
17.280	-0.119	-0.143	
17.285	-0.347	-0.153	
17.290	-0.144	-0.173	
17.295	0.000	-0.181	
17.300	-0.298	-0.172	
17.305	-0.251	-0.174	
17.310	0.076	-0.177	
17.315	-0.122	-0.156	
17.320	-0.193	-0.133	
17.325	0.310	-0.107	
17.330	0.342	-0.039	
17.335	-0.064	0.045	
17.340	0.004	0.088	
17.345	-0.184	0.082	
17.350	-0.659	0.016	
17.355	-0.747	-0.122	
17.360	-0.532	-0.292	
17.365	-0.613	-0.433	
17.370	-0.592	-0.531	
17.375	-0.234	-0.575	
17.380	-0.167	-0.547	
17.385	-0.283	-0.472	
17.390	0.096	-0.377	
17.395	0.405	-0.246	
17.400	-0.034	-0.096	
17.405	0.070	0.014	
17.410	0.530	0.095	
17.415	0.220	0.179	
17.420	0.026	0.234	
17.425	0.539	0.255	
17.430	0.464	0.290	
17.435	0.029	0.323	
17.440	0.402	0.322	
17.445	0.647	0.331	
17.450	0.191	0.361	
17.455	0.325	0.372	
17.460	0.791	0.384	
17.465	0.476	0.429	
17.470	0.293	0.466	
17.475	0.826	0.485	
17.480	0.759	0.530	
17.485	0.365	0.579	
17.490	0.741	0.599	
17.495	0.921	0.626	
17.500	0.379	0.661	
17.505	0.438	0.653	
17.510	0.809	0.624	
17.515	0.386	0.608	
17.520	0.127	0.566	
17.525	0.541	0.496	
17.530	0.343	0.441	
17.535	-0.095	0.385	
17.540	0.181	0.302	
17.545	0.322	0.233	
17.550	-0.129	0.188	
17.555	-0.078	0.130	
17.560	0.296	0.079	
17.565	-0.054	0.060	
17.570	-0.177	0.040	
17.575	0.201	0.013	
17.580	0.120	0.014	
17.585	-0.174	0.024	
17.590	0.107	0.019	
17.595	0.285	0.028	
17.600	-0.142	0.052	
17.605	-0.113	0.049	
17.610	0.282	0.034	
17.615	-0.026	0.040	
17.620	-0.141	0.040	
17.625	0.295	0.032	
17.630	0.180	0.051	
17.635	-0.161	0.074	
17.640	0.114	0.070	
17.645	0.287	0.072	
17.650	-0.147	0.084	
17.655	-0.113	0.069	
17.660	0.243	0.043	
17.665	-0.089	0.035	
17.670	-0.243	0.017	
17.675	0.041	-0.020	
17.680	-0.068	-0.045	
17.685	-0.301	-0.067	
17.690	-0.097	-0.101	
17.695	0.058	-0.119	
17.700	-0.248	-0.117	
17.705	-0.182	-0.123	
17.710	0.168	-0.123	
17.715	-0.075	-0.097	
17.720	-0.138	-0.072	
17.725	0.400	-0.044	
17.730	0.403	0.027	
17.735	-0.064	0.110	
17.740	-0.057	0.140	
17.745	-0.216	0.111	
17.750	-0.640	0.024	
17.755	-0.672	-0.123	
17.760	-0.439	-0.285	
17.765	-0.514	-0.407	
17.770	-0.512	-0.483	
17.775	-0.170	-0.510	
17.780	-0.107	-0.474	
17.785	-0.229	-0.397	
17.790	0.107	-0.307	
17.795	0.377	-0.189	
17.800	-0.017	-0.058	
17.805	0.096	0.038	
17.810	0.551	0.111	
17.815	0.194	0.191	
17.820	0.010	0.239	
17.825	0.501	0.251	
17.830	0.453	0.279	
17.835	0.061	0.308	
17.840	0.441	0.313	
17.845	0.651	0.331	
17.850	0.185	0.368	
17.855	0.313	0.379	
17.860	0.758	0.387	
17.865	0.464	0.426	
17.870	0.324	0.459	
17.875	0.852	0.481	
17.880	0.790	0.533	
17.885	0.388	0.590	
17.890	0.748	0.616	
17.895	0.906	0.644	
17.900	0.386	0.675	
17.905	0.440	0.663	
17.910	0.796	0.630	
17.915	0.374	0.609	
17.920	0.082	0.561	
17.925	0.475	0.480	
17.930	0.318	0.415	
17.935	-0.107	0.352	
17.940	0.148	0.268	
17.945	0.281	0.199	
17.950	-0.145	0.154	
17.955	-0.097	0.099	
17.960	0.241	0.049	
17.965	-0.068	0.030	
17.970	-0.190	0.011	
17.975	0.151	-0.014	
17.980	0.056	-0.016	
17.985	-0.207	-0.011	
17.990	0.036	-0.022	
17.995	0.218	-0.019	
18.000	-0.168	-0.000	
18.005	-0.110	-0.001	
18.010	0.253	-0.008	
18.015	-0.045	0.007	
18.020	-0.155	0.013	
18.025	0.226	0.008	
18.030	0.117	0.023	
18.035	-0.199	0.038	
18.040	-0.002	0.026	
18.045	0.119	0.011	
18.050	-0.222	0.002	
18.055	-0.177	-0.026	
18.060	0.079	-0.057	
18.065	-0.177	-0.072	
18.070	-0.301	-0.092	
18.075	-0.069	-0.124	
18.080	-0.141	-0.144	
18.085	-0.344	-0.159	
18.090	-0.158	-0.183	
18.095	-0.051	-0.193	
18.100	-0.298	-0.189	
18.105	-0.228	-0.192	
18.110	0.082	-0.189	
18.115	-0.129	-0.162	
18.120	-0.181	-0.135	
18.125	0.287	-0.106	
18.130	0.269	-0.042	
18.135	-0.170	0.028	
18.140	-0.184	0.045	
18.145	-0.321	0.006	
18.150	-0.734	-0.087	
18.155	-0.766	-0.234	
18.160	-0.543	-0.393	
18.165	-0.624	-0.512	
18.170	-0.628	-0.588	
18.175	-0.297	-0.618	
18.180	-0.234	-0.585	
18.185	-0.332	-0.512	
18.190	-0.077	-0.426	
18.195	0.137	-0.322	
18.200	-0.168	-0.209	
18.205	-0.100	-0.129	
18.210	0.267	-0.071	
18.215	-0.046	-0.011	
18.220	-0.150	0.022	
18.225	0.246	0.029	
18.230	0.148	0.050	
18.235	-0.153	0.069	
18.240	0.096	0.063	
18.245	0.261	0.062	
18.250	-0.118	0.073	
18.255	-0.031	0.065	
18.260	0.397	0.059	
18.265	0.114	0.086	
18.270	-0.017	0.111	
18.275	0.469	0.128	
18.280	0.405	0.174	
18.285	0.010	0.224	
18.290	0.333	0.242	
18.295	0.496	0.261	
18.300	0.010	0.283	
18.305	0.056	0.268	
18.310	0.392	0.235	
18.315	0.000	0.215	
18.320	-0.159	0.175	
18.325	0.094	0.113	
18.330	-0.057	0.061	
18.335	-0.313	0.008	
18.340	-0.164	-0.058	
18.345	-0.092	-0.114	
18.350	-0.349	-0.152	
18.355	-0.309	-0.194	
18.360	-0.092	-0.227	
18.365	-0.284	-0.238	
18.370	-0.388	-0.247	
18.375	-0.156	-0.263	
18.380	-0.196	-0.263	
18.385	-0.387	-0.258	
18.390	-0.205	-0.262	
18.395	-0.115	-0.258	
18.400	-0.365	-0.245	
18.405	-0.327	-0.248	
18.410	-0.101	-0.255	
18.415	-0.257	-0.248	
18.420	-0.347	-0.243	
18.425	-0.133	-0.246	
18.430	-0.202	-0.239	
18.435	-0.404	-0.235	
18.440	-0.255	-0.248	
18.445	-0.181	-0.260	
18.450	-0.431	-0.265	
18.455	-0.401	-0.286	
18.460	-0.219	-0.310	
18.465	-0.399	-0.322	
18.470	-0.514	-0.339	
18.475	-0.301	-0.364	
18.480	-0.352	-0.377	
18.485	-0.549	-0.386	
18.490	-0.388	-0.404	
18.495	-0.294	-0.412	
18.500	-0.501	-0.409	
18.505	-0.437	-0.412	
18.510	-0.211	-0.410	
18.515	-0.329	-0.389	
18.520	-0.370	-0.363	
18.525	-0.083	-0.337	
18.530	-0.106	-0.292	
18.535	-0.388	-0.247	
18.540	-0.422	-0.239	
18.545	-0.553	-0.274	
18.550	-0.928	-0.354	
18.555	-0.957	-0.483	
18.560	-0.752	-0.623	
18.565	-0.818	-0.728	
18.570	-0.804	-0.793	
18.575	-0.474	-0.812	
18.580	-0.390	-0.770	
18.585	-0.471	-0.687	
18.590	-0.248	-0.593	
18.595	-0.122	-0.487	
18.600	-0.336	-0.383	
18.605	-0.275	-0.311	
18.610	-0.023	-0.260	
18.615	-0.220	-0.212	
18.620	-0.306	-0.185	
18.625	-0.016	-0.176	
18.630	-0.068	-0.158	
18.635	-0.287	-0.140	
18.640	-0.083	-0.139	
18.645	0.079	-0.130	
18.650	-0.228	-0.109	
18.655	-0.158	-0.103	
18.660	0.223	-0.096	
18.665	-0.054	-0.064	
18.670	-0.147	-0.038	
18.675	0.290	-0.021	
18.680	0.235	0.022	
18.685	-0.106	0.070	
18.690	0.189	0.090	
18.695	0.334	0.111	
18.700	-0.104	0.136	
18.705	-0.083	0.125	
18.710	0.224	0.094	
18.715	-0.116	0.074	
18.720	-0.258	0.037	
18.725	-0.035	-0.018	
18.730	-0.145	-0.064	
18.735	-0.388	-0.108	
18.740	-0.236	-0.163	
18.745	-0.156	-0.207	
18.750	-0.394	-0.234	
18.755	-0.353	-0.264	
18.760	-0.147	-0.287	
18.765	-0.323	-0.291	
18.770	-0.426	-0.295	
18.775	-0.213	-0.307	
18.780	-0.252	-0.307	
18.785	-0.451	-0.304	
18.790	-0.301	-0.314	
18.795	-0.208	-0.319	
18.800	-0.425	-0.315	
18.805	-0.394	-0.322	
18.810	-0.205	-0.332	
18.815	-0.356	-0.329	
18.820	-0.436	-0.329	
18.825	-0.190	-0.334	
18.830	-0.236	-0.323	
18.835	-0.442	-0.309	
18.840	-0.298	-0.310	
18.845	-0.210	-0.311	
18.850	-0.434	-0.308	
18.855	-0.408	-0.317	
18.860	-0.214	-0.331	
18.865	-0.385	-0.333	
18.870	-0.501	-0.341	
18.875	-0.292	-0.360	
18.880	-0.347	-0.369	
18.885	-0.538	-0.375	
18.890	-0.393	-0.393	
18.895	-0.300	-0.404	
18.900	-0.504	-0.404	
18.905	-0.468	-0.411	
18.910	-0.251	-0.417	
18.915	-0.378	-0.405	
18.920	-0.423	-0.390	
18.925	-0.133	-0.374	
18.930	-0.095	-0.333	
18.935	-0.268	-0.279	
18.940	-0.106	-0.234	
18.945	-0.214	-0.201	
18.950	-0.672	-0.204	
18.955	-0.836	-0.278	
18.960	-0.767	-0.406	
18.965	-0.896	-0.545	
18.970	-0.914	-0.673	
18.975	-0.602	-0.765	
18.980	-0.508	-0.791	
18.985	-0.561	-0.758	
18.990	-0.281	-0.690	
18.995	-0.072	-0.584	
19.000	-0.275	-0.457	
19.005	-0.213	-0.348	
19.010	0.125	-0.257	
19.015	-0.133	-0.170	
19.020	-0.228	-0.112	
19.025	0.152	-0.083	
19.030	0.088	-0.046	
19.035	-0.205	-0.014	
19.040	0.059	-0.007	
19.045	0.275	0.006	
19.050	-0.107	0.034	
19.055	0.001	0.045	
19.060	0.447	0.058	
19.065	0.162	0.102	
19.070	-0.003	0.140	
19.075	0.495	0.163	
19.080	0.479	0.212	
19.085	0.127	0.270	
19.090	0.487	0.305	
19.095	0.687	0.348	
19.100	0.217	0.401	
19.105	0.273	0.417	
19.110	0.654	0.414	
19.115	0.281	0.422	
19.120	0.024	0.405	
19.125	0.432	0.357	
19.130	0.266	0.321	
19.135	-0.156	0.281	
19.140	0.064	0.210	
19.145	0.194	0.144	
19.150	-0.220	0.096	
19.155	-0.188	0.034	
19.160	0.131	-0.024	
19.165	-0.142	-0.051	
19.170	-0.265	-0.074	
19.175	0.042	-0.101	
19.180	-0.029	-0.105	
19.185	-0.284	-0.102	
19.190	-0.109	-0.114	
19.195	0.064	-0.119	
19.200	-0.265	-0.111	
19.205	-0.234	-0.119	
19.210	0.101	-0.130	
19.215	-0.136	-0.119	
19.220	-0.262	-0.112	
19.225	0.036	-0.116	
19.230	-0.051	-0.108	
19.235	-0.312	-0.102	
19.240	-0.158	-0.118	
19.245	-0.055	-0.136	
19.250	-0.330	-0.147	
19.255	-0.306	-0.173	
19.260	-0.115	-0.202	
19.265	-0.330	-0.219	
19.270	-0.457	-0.244	
19.275	-0.208	-0.278	
19.280	-0.148	-0.291	
19.285	-0.223	-0.277	
19.290	0.282	-0.233	
19.295	0.641	-0.124	
19.300	0.281	0.038	
19.305	0.411	0.185	
19.310	0.779	0.310	
19.315	0.331	0.421	
19.320	-0.103	0.459	
19.325	0.078	0.402	
19.330	-0.162	0.295	
19.335	-0.462	0.156	
19.340	-0.347	-0.008	
19.345	-0.234	-0.151	
19.350	-0.423	-0.251	
19.355	-0.347	-0.319	
19.360	-0.049	-0.348	
19.365	-0.205	-0.328	
19.370	-0.280	-0.292	
19.375	0.102	-0.250	
19.380	0.088	-0.183	
19.385	-0.181	-0.112	
19.390	0.149	-0.062	
19.395	0.417	-0.001	
19.400	0.041	0.076	
19.405	0.151	0.130	
19.410	0.657	0.179	
19.415	0.402	0.256	
19.420	0.230	0.324	
19.425	0.727	0.372	
19.430	0.704	0.436	
19.435	0.264	0.498	
19.440	0.583	0.521	
19.445	0.773	0.537	
19.450	0.252	0.556	
19.455	0.255	0.533	
19.460	0.632	0.488	
19.465	0.241	0.457	
19.470	-0.057	0.406	
19.475	0.372	0.329	
19.480	0.290	0.276	
19.485	-0.144	0.236	
19.490	0.075	0.176	
19.495	0.269	0.127	
19.500	-0.155	0.101	
19.505	-0.145	0.060	
19.510	0.197	0.018	
19.515	-0.115	-0.000	
19.520	-0.266	-0.023	
19.525	0.052	-0.057	
19.530	-0.035	-0.073	
19.535	-0.309	-0.082	
19.540	-0.147	-0.108	
19.545	-0.003	-0.129	
19.550	-0.287	-0.136	
19.555	-0.255	-0.153	
19.560	0.039	-0.168	
19.565	-0.182	-0.161	
19.570	-0.291	-0.156	
19.575	0.024	-0.159	
19.580	-0.020	-0.143	
19.585	-0.287	-0.123	
19.590	-0.095	-0.122	
19.595	0.130	-0.115	
19.600	-0.214	-0.093	
19.605	-0.196	-0.088	
19.610	0.180	-0.088	
19.615	-0.080	-0.069	
19.620	-0.207	-0.055	
19.625	0.204	-0.051	
19.630	0.152	-0.024	
19.635	-0.196	0.009	
19.640	0.067	0.015	
19.645	0.322	0.027	
19.650	-0.077	0.058	
19.655	-0.022	0.069	
19.660	0.438	0.076	
19.665	0.104	0.110	
19.670	-0.109	0.131	
19.675	0.359	0.129	
19.680	0.290	0.145	
19.685	-0.130	0.164	
19.690	0.113	0.149	
19.695	0.307	0.133	
19.700	-0.144	0.128	
19.705	-0.127	0.096	
19.710	0.285	0.058	
19.715	-0.038	0.047	
19.720	-0.194	0.034	
19.725	0.220	0.011	
19.730	0.186	0.018	
19.735	-0.162	0.038	
19.740	0.195	0.043	
19.745	0.553	0.074	
19.750	0.246	0.147	
19.755	0.476	0.226	
19.760	1.092	0.328	
19.765	0.771	0.477	
19.770	0.159	0.591	
19.775	0.076	0.591	
19.780	-0.303	0.483	
19.785	-0.639	0.287	
19.790	-0.486	0.042	
19.795	-0.304	-0.175	
19.800	-0.440	-0.320	
19.805	-0.315	-0.401	
19.810	0.148	-0.410	
19.815	0.046	-0.337	
19.820	-0.046	-0.230	
19.825	0.553	-0.112	
19.830	0.570	0.042	
19.835	0.105	0.193	
19.840	0.427	0.287	
19.845	0.689	0.357	
19.850	0.235	0.419	
19.855	0.295	0.440	
19.860	0.771	0.442	
19.865	0.484	0.469	
19.870	0.241	0.487	
19.875	0.745	0.485	
19.880	0.751	0.509	
19.885	0.336	0.546	
19.890	0.692	0.561	
19.895	0.990	0.590	
19.900	0.539	0.643	
19.905	0.589	0.673	
19.910	1.089	0.694	
19.915	0.840	0.742	
19.920	0.597	0.784	
19.925	1.095	0.804	
19.930	1.054	0.843	
19.935	0.571	0.881	
19.940	0.826	0.876	
19.945	1.026	0.862	
19.950	0.469	0.851	
19.955	0.405	0.797	
19.960	0.817	0.721	
19.965	0.434	0.664	
19.970	0.091	0.595	
19.975	0.521	0.504	
19.980	0.421	0.438	
19.985	-0.071	0.384	
19.990	0.212	0.310	
19.995	0.460	0.253	
20.000	-0.006	0.231	
20.005	0.020	0.199	
20.010	0.490	0.170	
20.015	0.174	0.179	
20.020	-0.071	0.186	
20.025	0.386	0.174	
20.030	0.333	0.184	
20.035	-0.100	0.199	
20.040	0.197	0.185	
20.045	0.464	0.179	
20.050	-0.002	0.194	
20.055	0.021	0.189	
20.060	0.487	0.175	
20.065	0.178	0.191	
20.070	-0.077	0.198	
20.075	0.372	0.184	
20.080	0.322	0.188	
20.085	-0.122	0.197	
20.090	0.114	0.174	
20.095	0.342	0.151	
20.100	-0.121	0.143	
20.105	-0.142	0.111	
20.110	0.218	0.066	
20.115	-0.078	0.042	
20.120	-0.248	0.013	
20.125	0.090	-0.025	
20.130	0.058	-0.040	
20.135	-0.243	-0.042	
20.140	-0.054	-0.057	
20.145	0.227	-0.060	
20.150	-0.132	-0.038	
20.155	-0.061	-0.024	
20.160	0.441	-0.005	
20.165	0.201	0.053	
20.170	0.027	0.112	
20.175	0.539	0.157	
20.180	0.272	0.213	
20.185	-0.356	0.235	
20.190	-0.420	0.163	
20.195	-0.439	0.022	
20.200	-0.665	-0.142	
20.205	-0.569	-0.304	
20.210	-0.243	-0.422	
20.215	-0.287	-0.464	
20.220	-0.309	-0.451	
20.225	0.181	-0.395	
20.230	0.353	-0.276	
20.235	-0.031	-0.127	
20.240	0.311	-0.002	
20.245	0.618	0.115	
20.250	0.160	0.231	
20.255	0.204	0.297	
20.260	0.686	0.333	
20.265	0.400	0.381	
20.270	0.134	0.408	
20.275	0.631	0.407	
20.280	0.654	0.425	
20.285	0.189	0.454	
20.290	0.490	0.455	
20.295	0.782	0.461	
20.300	0.337	0.489	
20.305	0.379	0.498	
20.310	0.924	0.503	
20.315	0.702	0.548	
20.320	0.461	0.598	
20.325	0.981	0.632	
20.330	0.950	0.688	
20.335	0.466	0.743	
20.340	0.712	0.752	
20.345	0.959	0.750	
20.350	0.420	0.751	
20.355	0.351	0.712	
20.360	0.765	0.648	
20.365	0.398	0.603	
20.370	0.026	0.542	
20.375	0.437	0.453	
20.380	0.357	0.384	
20.385	-0.133	0.326	
20.390	0.084	0.245	
20.395	0.343	0.178	
20.400	-0.095	0.143	
20.405	-0.103	0.102	
20.410	0.325	0.064	
20.415	0.050	0.061	
20.420	-0.184	0.060	
20.425	0.169	0.041	
20.430	0.189	0.040	
20.435	-0.174	0.050	
20.440	0.038	0.039	
20.445	0.307	0.037	
20.450	-0.122	0.053	
20.455	-0.121	0.049	
20.460	0.340	0.036	
20.465	0.059	0.052	
20.470	-0.148	0.065	
20.475	0.255	0.060	
20.480	0.226	0.073	
20.485	-0.173	0.091	
20.490	0.009	0.078	
20.495	0.285	0.063	
20.500	-0.159	0.064	
20.505	-0.187	0.042	
20.510	0.169	0.007	
20.515	-0.086	-0.009	
20.520	-0.254	-0.027	
20.525	0.046	-0.056	
20.530	0.039	-0.065	
20.535	-0.269	-0.065	
20.540	-0.097	-0.080	
20.545	0.177	-0.086	
20.550	-0.181	-0.069	
20.555	-0.187	-0.066	
20.560	0.253	-0.065	
20.565	0.059	-0.036	
20.570	-0.116	-0.003	
20.575	0.408	0.025	
20.580	0.528	0.090	
20.585	-0.054	0.171	
20.590	-0.089	0.194	
20.595	-0.164	0.152	
20.600	-0.601	0.056	
20.605	-0.705	-0.097	
20.610	-0.430	-0.267	
20.615	-0.471	-0.395	
20.620	-0.537	-0.473	
20.625	-0.196	-0.505	
20.630	-0.055	-0.472	
20.635	-0.228	-0.394	
20.640	0.018	-0.305	
20.645	0.379	-0.197	
20.650	-0.042	-0.073	
20.655	-0.005	0.014	
20.660	0.537	0.077	
20.665	0.269	0.156	
20.670	-0.051	0.213	
20.675	0.418	0.229	
20.680	0.452	0.251	
20.685	-0.017	0.276	
20.690	0.273	0.269	
20.695	0.596	0.268	
20.700	0.142	0.292	
20.705	0.156	0.298	
20.710	0.673	0.298	
20.715	0.461	0.333	
20.720	0.169	0.371	
20.725	0.683	0.389	
20.730	0.761	0.432	
20.735	0.270	0.488	
20.740	0.524	0.509	
20.745	0.814	0.524	
20.750	0.319	0.549	
20.755	0.264	0.539	
20.760	0.756	0.508	
20.765	0.418	0.501	
20.770	0.006	0.478	
20.775	0.424	0.419	
20.780	0.356	0.368	
20.785	-0.138	0.321	
20.790	0.000	0.242	
20.795	0.253	0.164	
20.800	-0.155	0.112	
20.805	-0.179	0.055	
20.810	0.218	0.003	
20.815	-0.029	-0.013	
20.820	-0.229	-0.021	
20.825	0.062	-0.041	
20.830	0.087	-0.044	
20.835	-0.245	-0.038	
20.840	-0.077	-0.050	
20.845	0.227	-0.055	
20.850	-0.152	-0.036	
20.855	-0.181	-0.032	
20.860	0.209	-0.039	
20.865	-0.035	-0.025	
20.870	-0.214	-0.017	
20.875	0.149	-0.025	
20.880	0.229	-0.010	
20.885	-0.179	0.020	
20.890	-0.045	0.022	
20.895	0.253	0.019	
20.900	-0.153	0.028	
20.905	-0.207	0.015	
20.910	0.160	-0.013	
20.915	-0.080	-0.022	
20.920	-0.301	-0.037	
20.925	-0.045	-0.071	
20.930	-0.019	-0.093	
20.935	-0.327	-0.106	
20.940	-0.202	-0.133	
20.945	0.013	-0.155	
20.950	-0.274	-0.158	
20.955	-0.303	-0.169	
20.960	0.041	-0.182	
20.965	-0.104	-0.169	
20.970	-0.260	-0.152	
20.975	0.094	-0.140	
20.980	0.240	-0.100	
20.985	-0.083	-0.040	
20.990	0.203	0.010	
20.995	0.336	0.063	
21.000	-0.300	0.104	
21.005	-0.537	0.068	
21.010	-0.433	-0.045	
21.015	-0.564	-0.184	
21.020	-0.689	-0.321	
21.025	-0.393	-0.438	
21.030	-0.271	-0.495	
21.035	-0.422	-0.494	
21.040	-0.182	-0.462	
21.045	0.227	-0.387	
21.050	-0.093	-0.271	
21.055	-0.098	-0.166	
21.060	0.420	-0.078	
21.065	0.203	0.023	
21.070	-0.103	0.102	
21.075	0.345	0.138	
21.080	0.421	0.177	
21.085	-0.061	0.215	
21.090	0.160	0.215	
21.095	0.513	0.211	
21.100	0.081	0.229	
21.105	0.055	0.229	
21.110	0.614	0.224	
21.115	0.415	0.258	
21.120	0.117	0.300	
21.125	0.634	0.324	
21.130	0.742	0.374	
21.135	0.255	0.439	
21.140	0.537	0.473	
21.145	0.903	0.505	
21.150	0.440	0.556	
21.155	0.321	0.576	
21.160	0.809	0.566	
21.165	0.557	0.572	
21.170	0.128	0.564	
21.175	0.522	0.518	
21.180	0.505	0.477	
21.185	-0.058	0.437	
21.190	0.049	0.357	
21.195	0.328	0.268	
21.200	-0.126	0.202	
21.205	-0.208	0.126	
21.210	0.159	0.048	
21.215	-0.052	0.003	
21.220	-0.257	-0.029	
21.225	0.030	-0.064	
21.230	0.085	-0.074	
21.235	-0.263	-0.069	
21.240	-0.141	-0.080	
21.245	0.143	-0.089	
21.250	-0.171	-0.079	
21.255	-0.213	-0.078	
21.260	0.151	-0.084	
21.265	-0.057	-0.070	
21.270	-0.251	-0.060	
21.275	0.050	-0.067	
21.280	0.156	-0.058	
21.285	-0.214	-0.036	
21.290	-0.100	-0.036	
21.295	0.178	-0.040	
21.300	-0.184	-0.031	
21.305	-0.243	-0.041	
21.310	0.073	-0.066	
21.315	-0.098	-0.075	
21.320	-0.320	-0.086	
21.325	-0.095	-0.114	
21.330	-0.057	-0.133	
21.335	-0.353	-0.143	
21.340	-0.257	-0.169	
21.345	-0.054	-0.193	
21.350	-0.301	-0.200	
21.355	-0.342	-0.213	
21.360	-0.046	-0.227	
21.365	-0.164	-0.220	
21.370	-0.339	-0.209	
21.375	-0.049	-0.206	
21.380	0.120	-0.181	
21.385	-0.179	-0.135	
21.390	0.030	-0.097	
21.395	0.470	-0.044	
21.400	-0.095	0.030	
21.405	-0.352	0.058	
21.410	-0.310	0.010	
21.415	-0.595	-0.088	
21.420	-0.827	-0.227	
21.425	-0.588	-0.385	
21.430	-0.462	-0.505	
21.435	-0.614	-0.569	
21.440	-0.394	-0.592	
21.445	-0.066	-0.561	
21.450	-0.203	-0.477	
21.455	-0.182	-0.377	
21.460	0.299	-0.271	
21.465	0.146	-0.143	
21.470	-0.124	-0.032	
21.475	0.275	0.037	
21.480	0.389	0.101	
21.485	-0.075	0.159	
21.490	0.085	0.173	
21.495	0.469	0.174	
21.500	0.052	0.192	
21.505	-0.034	0.190	
21.510	0.490	0.176	
21.515	0.313	0.195	
21.520	-0.026	0.218	
21.525	0.463	0.223	
21.530	0.614	0.254	
21.535	0.134	0.306	
21.540	0.376	0.334	
21.545	0.777	0.362	
21.550	0.348	0.415	
21.555	0.233	0.443	
21.560	0.750	0.447	
21.565	0.519	0.470	
21.570	0.078	0.481	
21.575	0.486	0.451	
21.580	0.557	0.427	
21.585	-0.043	0.409	
21.590	0.041	0.348	
21.595	0.359	0.272	
21.600	-0.081	0.216	
21.605	-0.173	0.149	
21.610	0.232	0.080	
21.615	0.007	0.045	
21.620	-0.239	0.020	
21.625	0.039	-0.016	
21.630	0.110	-0.033	
21.635	-0.255	-0.035	
21.640	-0.170	-0.056	
21.645	0.105	-0.079	
21.650	-0.197	-0.082	
21.655	-0.269	-0.095	
21.660	0.047	-0.115	
21.665	-0.084	-0.116	
21.670	-0.298	-0.114	
21.675	-0.052	-0.126	
21.680	0.021	-0.126	
21.685	-0.297	-0.117	
21.690	-0.193	-0.126	
21.695	0.099	-0.135	
21.700	-0.196	-0.122	
21.705	-0.274	-0.120	
21.710	0.053	-0.129	
21.715	-0.090	-0.121	
21.720	-0.315	-0.115	
21.725	-0.078	-0.128	
21.730	-0.013	-0.133	
21.735	-0.320	-0.130	
21.740	-0.240	-0.146	
21.745	-0.025	-0.165	
21.750	-0.287	-0.170	
21.755	-0.365	-0.186	
21.760	-0.098	-0.211	
21.765	-0.194	-0.219	
21.770	-0.388	-0.223	
21.775	-0.165	-0.236	
21.780	-0.090	-0.237	
21.785	-0.346	-0.225	
21.790	-0.205	-0.223	
21.795	0.168	-0.208	
21.800	-0.109	-0.162	
21.805	-0.122	-0.117	
21.810	0.417	-0.070	
21.815	0.120	0.004	
21.820	-0.391	0.052	
21.825	-0.417	0.016	
21.830	-0.540	-0.086	
21.835	-0.863	-0.229	
21.840	-0.764	-0.397	
21.845	-0.492	-0.539	
21.850	-0.570	-0.617	
21.855	-0.520	-0.640	
21.860	-0.119	-0.614	
21.865	-0.081	-0.526	
21.870	-0.231	-0.409	
21.875	0.163	-0.294	
21.880	0.363	-0.162	
21.885	-0.086	-0.030	
21.890	0.090	0.053	
21.895	0.507	0.112	
21.900	0.093	0.176	
21.905	-0.035	0.205	
21.910	0.496	0.205	
21.915	0.351	0.228	
21.920	-0.029	0.251	
21.925	0.405	0.248	
21.930	0.548	0.262	
21.935	0.068	0.293	
21.940	0.275	0.299	
21.945	0.728	0.308	
21.950	0.353	0.352	
21.955	0.241	0.386	
21.960	0.805	0.407	
21.965	0.649	0.458	
21.970	0.233	0.506	
21.975	0.655	0.518	
21.980	0.773	0.535	
21.985	0.223	0.557	
21.990	0.322	0.536	
21.995	0.664	0.497	
22.000	0.197	0.472	
22.005	-0.020	0.420	
22.010	0.418	0.344	
22.015	0.194	0.289	
22.020	-0.173	0.238	
22.025	0.075	0.166	
22.030	0.175	0.106	
22.035	-0.216	0.067	
22.040	-0.142	0.017	
22.045	0.177	-0.025	
22.050	-0.159	-0.039	
22.055	-0.263	-0.058	
22.060	0.058	-0.085	
22.065	-0.058	-0.092	
22.070	-0.306	-0.096	
22.075	-0.106	-0.115	
22.080	-0.002	-0.128	
22.085	-0.295	-0.129	
22.090	-0.222	-0.143	
22.095	0.032	-0.156	
22.100	-0.236	-0.152	
22.105	-0.307	-0.157	
22.110	0.030	-0.168	
22.115	-0.061	-0.156	
22.120	-0.286	-0.139	
22.125	-0.084	-0.138	
22.130	0.030	-0.132	
22.135	-0.275	-0.118	
22.140	-0.207	-0.123	
22.145	0.059	-0.132	
22.150	-0.226	-0.126	
22.155	-0.341	-0.134	
22.160	-0.078	-0.159	
22.165	-0.174	-0.173	
22.170	-0.401	-0.186	
22.175	-0.207	-0.212	
22.180	-0.118	-0.229	
22.185	-0.379	-0.233	
22.190	-0.313	-0.247	
22.195	-0.086	-0.259	
22.200	-0.275	-0.252	
22.205	-0.329	-0.246	
22.210	0.053	-0.239	
22.215	0.044	-0.199	
22.220	-0.164	-0.144	
22.225	0.258	-0.092	
22.230	0.383	-0.015	
22.235	-0.309	0.059	
22.240	-0.509	0.050	
22.245	-0.515	-0.049	
22.250	-0.813	-0.197	
22.255	-0.885	-0.373	
22.260	-0.553	-0.535	
22.265	-0.494	-0.631	
22.270	-0.581	-0.660	
22.275	-0.258	-0.640	
22.280	0.001	-0.563	
22.285	-0.229	-0.444	
22.290	-0.110	-0.329	
22.295	0.319	-0.218	
22.300	-0.017	-0.100	
22.305	-0.130	-0.016	
22.310	0.351	0.032	
22.315	0.266	0.088	
22.320	-0.103	0.135	
22.325	0.264	0.149	
22.330	0.460	0.168	
22.335	-0.011	0.201	
22.340	0.133	0.207	
22.345	0.579	0.210	
22.350	0.249	0.243	
22.355	0.104	0.269	
22.360	0.670	0.285	
22.365	0.599	0.334	
22.370	0.203	0.392	
22.375	0.623	0.423	
22.380	0.838	0.466	
22.385	0.342	0.523	
22.390	0.435	0.545	
22.395	0.835	0.549	
22.400	0.412	0.567	
22.405	0.159	0.554	
22.410	0.631	0.509	
22.415	0.457	0.479	
22.420	-0.054	0.445	
22.425	0.249	0.373	
22.430	0.368	0.307	
22.435	-0.141	0.256	
22.440	-0.100	0.184	
22.445	0.250	0.110	
22.450	-0.097	0.067	
22.455	-0.226	0.026	
22.460	0.119	-0.019	
22.465	-0.002	-0.037	
22.470	-0.278	-0.047	
22.475	-0.086	-0.072	
22.480	0.036	-0.091	
22.485	-0.287	-0.097	
22.490	-0.234	-0.118	
22.495	0.050	-0.139	
22.500	-0.199	-0.139	
22.505	-0.321	-0.144	
22.510	-0.035	-0.161	
22.515	-0.109	-0.162	
22.520	-0.338	-0.160	
22.525	-0.106	-0.171	
22.530	0.085	-0.166	
22.535	-0.240	-0.141	
22.540	-0.194	-0.130	
22.545	0.119	-0.124	
22.550	-0.161	-0.104	
22.555	-0.278	-0.097	
22.560	0.035	-0.107	
22.565	-0.049	-0.104	
22.570	-0.335	-0.102	
22.575	-0.165	-0.123	
22.580	-0.072	-0.144	
22.585	-0.362	-0.159	
22.590	-0.326	-0.189	
22.595	-0.078	-0.219	
22.600	-0.272	-0.228	
22.605	-0.381	-0.237	
22.610	-0.101	-0.250	
22.615	-0.135	-0.243	
22.620	-0.355	-0.229	
22.625	-0.116	-0.223	
22.630	0.172	-0.199	
22.635	-0.150	-0.146	
22.640	-0.013	-0.100	
22.645	0.539	-0.042	
22.650	0.101	0.048	
22.655	-0.332	0.102	
22.660	-0.353	0.068	
22.665	-0.614	-0.038	
22.670	-0.912	-0.198	
22.675	-0.717	-0.386	
22.680	-0.501	-0.538	
22.685	-0.614	-0.622	
22.690	-0.446	-0.648	
22.695	-0.061	-0.614	
22.700	-0.150	-0.517	
22.705	-0.207	-0.400	
22.710	0.278	-0.282	
22.715	0.256	-0.144	
22.720	-0.112	-0.018	
22.725	0.240	0.060	
22.730	0.475	0.126	
22.735	-0.023	0.189	
22.740	0.047	0.207	
22.745	0.530	0.205	
22.750	0.201	0.227	
22.755	0.001	0.239	
22.760	0.531	0.235	
22.765	0.478	0.260	
22.770	0.039	0.295	
22.775	0.438	0.304	
22.780	0.702	0.327	
22.785	0.221	0.373	
22.790	0.336	0.395	
22.795	0.845	0.413	
22.800	0.525	0.464	
22.805	0.285	0.503	
22.810	0.776	0.516	
22.815	0.673	0.543	
22.820	0.175	0.562	
22.825	0.498	0.538	
22.830	0.695	0.513	
22.835	0.105	0.498	
22.840	0.093	0.445	
22.845	0.489	0.372	
22.850	0.078	0.321	
22.855	-0.161	0.259	
22.860	0.235	0.180	
22.865	0.136	0.129	
22.870	-0.223	0.093	
22.875	-0.031	0.042	
22.880	0.183	0.005	
22.885	-0.216	-0.009	
22.890	-0.202	-0.035	
22.895	0.133	-0.064	
22.900	-0.141	-0.070	
22.905	-0.307	-0.081	
22.910	-0.022	-0.107	
22.915	-0.055	-0.119	
22.920	-0.315	-0.124	
22.925	-0.135	-0.141	
22.930	0.047	-0.148	
22.935	-0.269	-0.139	
22.940	-0.246	-0.142	
22.945	0.101	-0.149	
22.950	-0.122	-0.132	
22.955	-0.254	-0.118	
22.960	0.091	-0.114	
22.965	0.035	-0.093	
22.970	-0.289	-0.071	
22.975	-0.107	-0.077	
22.980	0.093	-0.085	
22.985	-0.246	-0.081	
22.990	-0.239	-0.093	
22.995	0.047	-0.113	
23.000	-0.184	-0.118	
23.005	-0.339	-0.128	
23.010	-0.068	-0.153	
23.015	-0.101	-0.163	
23.020	-0.361	-0.167	
23.025	-0.181	-0.185	
23.030	-0.031	-0.194	
23.035	-0.301	-0.188	
23.040	-0.266	-0.192	
23.045	0.124	-0.191	
23.050	-0.068	-0.159	
23.055	-0.155	-0.122	
23.060	0.402	-0.080	
23.065	0.438	0.006	
23.070	-0.145	0.099	
23.075	-0.205	0.124	
23.080	-0.336	0.072	
23.085	-0.775	-0.043	
23.090	-0.827	-0.217	
23.095	-0.530	-0.399	
23.100	-0.566	-0.528	
23.105	-0.602	-0.598	
23.110	-0.231	-0.615	
23.115	-0.110	-0.564	
23.120	-0.263	-0.468	
23.125	0.029	-0.362	
23.130	0.385	-0.235	
23.135	-0.060	-0.095	
23.140	-0.026	0.002	
23.145	0.499	0.068	
23.150	0.198	0.141	
23.155	-0.077	0.189	
23.160	0.434	0.200	
23.165	0.421	0.224	
23.170	-0.046	0.252	
23.175	0.288	0.247	
23.180	0.603	0.252	
23.185	0.131	0.282	
23.190	0.178	0.294	
23.195	0.728	0.301	
23.200	0.464	0.346	
23.205	0.220	0.391	
23.210	0.782	0.419	
23.215	0.822	0.475	
23.220	0.362	0.544	
23.225	0.667	0.579	
23.230	0.927	0.611	
23.235	0.415	0.649	
23.240	0.354	0.646	
23.245	0.783	0.613	
23.250	0.423	0.592	
23.255	0.062	0.550	
23.260	0.466	0.475	
23.265	0.376	0.413	
23.270	-0.139	0.357	
23.275	0.041	0.269	
23.280	0.264	0.186	
23.285	-0.176	0.129	
23.290	-0.184	0.065	
23.295	0.209	0.006	
23.300	-0.063	-0.017	
23.305	-0.228	-0.031	
23.310	0.104	-0.052	
23.315	0.075	-0.050	
23.320	-0.242	-0.039	
23.325	-0.057	-0.048	
23.330	0.198	-0.051	
23.335	-0.188	-0.036	
23.340	-0.188	-0.039	
23.345	0.180	-0.051	
23.350	-0.081	-0.043	
23.355	-0.249	-0.042	
23.360	0.122	-0.055	
23.365	0.154	-0.044	
23.370	-0.205	-0.020	
23.375	-0.020	-0.018	
23.380	0.264	-0.012	
23.385	-0.174	0.008	
23.390	-0.199	0.004	
23.395	0.188	-0.017	
23.400	-0.086	-0.020	
23.405	-0.284	-0.030	
23.410	0.009	-0.059	
23.415	-0.017	-0.076	
23.420	-0.318	-0.086	
23.425	-0.185	-0.114	
23.430	0.015	-0.137	
23.435	-0.263	-0.143	
23.440	-0.287	-0.156	
23.445	0.032	-0.171	
23.450	-0.150	-0.164	
23.455	-0.301	-0.157	
23.460	0.055	-0.156	
23.465	0.174	-0.128	
23.470	-0.148	-0.079	
23.475	0.188	-0.037	
23.480	0.589	0.028	
23.485	-0.045	0.116	
23.490	-0.277	0.148	
23.495	-0.257	0.097	
23.500	-0.569	-0.009	
23.505	-0.764	-0.159	
23.510	-0.483	-0.322	
23.515	-0.379	-0.440	
23.520	-0.535	-0.499	
23.525	-0.309	-0.517	
23.530	0.010	-0.483	
23.535	-0.187	-0.399	
23.540	-0.138	-0.307	
23.545	0.383	-0.209	
23.550	0.189	-0.084	
23.555	-0.074	0.024	
23.560	0.441	0.095	
23.565	0.496	0.173	
23.570	-0.019	0.245	
23.575	0.263	0.268	
23.580	0.583	0.280	
23.585	0.149	0.307	
23.590	0.105	0.310	
23.595	0.632	0.299	
23.600	0.421	0.322	
23.605	0.090	0.345	
23.610	0.594	0.349	
23.615	0.680	0.376	
23.620	0.227	0.421	
23.625	0.528	0.442	
23.630	0.893	0.471	
23.635	0.421	0.525	
23.640	0.363	0.551	
23.645	0.872	0.556	
23.650	0.600	0.580	
23.655	0.189	0.590	
23.660	0.634	0.560	
23.665	0.600	0.537	
23.670	0.007	0.511	
23.675	0.171	0.441	
23.680	0.405	0.359	
23.685	-0.081	0.295	
23.690	-0.147	0.213	
23.695	0.243	0.127	
23.700	-0.046	0.075	
23.705	-0.249	0.031	
23.710	0.068	-0.018	
23.715	0.091	-0.040	
23.720	-0.252	-0.044	
23.725	-0.109	-0.061	
23.730	0.174	-0.072	
23.735	-0.187	-0.062	
23.740	-0.228	-0.065	
23.745	0.159	-0.077	
23.750	-0.055	-0.067	
23.755	-0.249	-0.059	
23.760	0.056	-0.067	
23.765	0.114	-0.060	
23.770	-0.225	-0.042	
23.775	-0.068	-0.045	
23.780	0.217	-0.044	
23.785	-0.152	-0.026	
23.790	-0.197	-0.025	
23.795	0.166	-0.038	
23.800	-0.078	-0.034	
23.805	-0.284	-0.039	
23.810	-0.022	-0.065	
23.815	0.024	-0.080	
23.820	-0.291	-0.084	
23.825	-0.184	-0.105	
23.830	0.020	-0.126	
23.835	-0.268	-0.131	
23.840	-0.303	-0.148	
23.845	-0.006	-0.169	
23.850	-0.165	-0.171	
23.855	-0.352	-0.172	
23.860	-0.112	-0.186	
23.865	-0.049	-0.187	
23.870	-0.304	-0.177	
23.875	-0.136	-0.176	
23.880	0.252	-0.158	
23.885	-0.089	-0.107	
23.890	-0.077	-0.063	
23.895	0.449	-0.019	
23.900	0.029	0.044	
23.905	-0.417	0.072	
23.910	-0.408	0.016	
23.915	-0.521	-0.095	
23.920	-0.770	-0.235	
23.925	-0.608	-0.383	
23.930	-0.367	-0.494	
23.935	-0.500	-0.543	
23.940	-0.446	-0.550	
23.945	-0.084	-0.520	
23.950	-0.106	-0.443	
23.955	-0.229	-0.347	
23.960	0.151	-0.255	
23.965	0.255	-0.148	
23.970	-0.142	-0.044	
23.975	0.026	0.015	
23.980	0.383	0.055	
23.985	-0.014	0.100	
23.990	-0.072	0.117	
23.995	0.405	0.115	
24.000	0.192	0.136	
24.005	-0.098	0.153	
24.010	0.337	0.148	
24.015	0.431	0.165	
24.020	-0.016	0.198	
24.025	0.227	0.206	
24.030	0.628	0.221	
24.035	0.244	0.268	
24.040	0.191	0.301	
24.045	0.742	0.325	
24.050	0.522	0.379	
24.055	0.151	0.424	
24.060	0.586	0.433	
24.065	0.634	0.448	
24.070	0.096	0.463	
24.075	0.250	0.434	
24.080	0.505	0.391	
24.085	-0.006	0.355	
24.090	-0.118	0.290	
24.095	0.261	0.205	
24.100	-0.009	0.143	
24.105	-0.257	0.086	
24.110	-0.042	0.016	
24.115	0.001	-0.037	
24.120	-0.303	-0.072	
24.125	-0.203	-0.113	
24.130	0.036	-0.144	
24.135	-0.228	-0.149	
24.140	-0.278	-0.156	
24.145	0.042	-0.165	
24.150	-0.107	-0.153	
24.155	-0.309	-0.141	
24.160	-0.052	-0.145	
24.165	0.035	-0.137	
24.170	-0.272	-0.120	
24.175	-0.181	-0.121	
24.180	0.078	-0.125	
24.185	-0.199	-0.114	
24.190	-0.242	-0.114	
24.195	0.111	-0.119	
24.200	-0.081	-0.104	
24.205	-0.301	-0.094	
24.210	-0.063	-0.106	
24.215	-0.003	-0.112	
24.220	-0.317	-0.112	
24.225	-0.232	-0.132	
24.230	-0.020	-0.154	
24.235	-0.286	-0.162	
24.240	-0.364	-0.181	
24.245	-0.100	-0.208	
24.250	-0.214	-0.218	
24.255	-0.405	-0.226	
24.260	-0.187	-0.245	
24.265	-0.126	-0.250	
24.270	-0.391	-0.245	
24.275	-0.286	-0.252	
24.280	-0.042	-0.256	
24.285	-0.246	-0.239	
24.290	-0.269	-0.223	
24.295	0.145	-0.204	
24.300	0.042	-0.154	
24.305	-0.155	-0.097	
24.310	0.172	-0.056	
24.315	-0.014	-0.017	
24.320	-0.523	-0.012	
24.325	-0.631	-0.086	
24.330	-0.544	-0.213	
24.335	-0.721	-0.349	
24.340	-0.715	-0.477	
24.345	-0.396	-0.569	
24.350	-0.382	-0.596	
24.355	-0.472	-0.575	
24.360	-0.161	-0.527	
24.365	0.033	-0.441	
24.370	-0.228	-0.333	
24.375	-0.100	-0.242	
24.380	0.278	-0.159	
24.385	-0.075	-0.072	
24.390	-0.152	-0.017	
24.395	0.305	0.010	
24.400	0.171	0.051	
24.405	-0.132	0.085	
24.410	0.235	0.093	
24.415	0.372	0.112	
24.420	-0.081	0.143	
24.425	0.084	0.145	
24.430	0.508	0.147	
24.435	0.146	0.178	
24.440	0.042	0.199	
24.445	0.592	0.211	
24.450	0.476	0.257	
24.455	0.127	0.309	
24.460	0.579	0.338	
24.465	0.710	0.382	
24.470	0.209	0.435	
24.475	0.339	0.448	
24.480	0.678	0.444	
24.485	0.224	0.449	
24.490	0.013	0.421	
24.495	0.443	0.362	
24.500	0.198	0.316	
24.505	-0.176	0.266	
24.510	0.067	0.188	
24.515	0.146	0.120	
24.520	-0.254	0.069	
24.525	-0.194	0.006	
24.530	0.061	-0.053	
24.535	-0.210	-0.085	
24.540	-0.294	-0.116	
24.545	0.015	-0.145	
24.550	-0.104	-0.150	
24.555	-0.330	-0.149	
24.560	-0.110	-0.161	
24.565	0.010	-0.162	
24.570	-0.295	-0.151	
24.575	-0.217	-0.154	
24.580	0.056	-0.158	
24.585	-0.211	-0.146	
24.590	-0.298	-0.143	
24.595	-0.002	-0.153	
24.600	-0.104	-0.148	
24.605	-0.313	-0.143	
24.610	-0.061	-0.150	
24.615	0.053	-0.144	
24.620	-0.272	-0.125	
24.625	-0.217	-0.125	
24.630	0.046	-0.132	
24.635	-0.217	-0.128	
24.640	-0.315	-0.134	
24.645	-0.023	-0.153	
24.650	-0.138	-0.157	
24.655	-0.375	-0.161	
24.660	-0.185	-0.183	
24.665	-0.110	-0.199	
24.670	-0.382	-0.207	
24.675	-0.320	-0.228	
24.680	-0.090	-0.247	
24.685	-0.298	-0.248	
24.690	-0.379	-0.252	
24.695	-0.107	-0.261	
24.700	-0.171	-0.253	
24.705	-0.358	-0.239	
24.710	-0.089	-0.233	
24.715	0.160	-0.205	
24.720	-0.148	-0.149	
24.725	0.007	-0.100	
24.730	0.328	-0.049	
24.735	-0.265	0.004	
24.740	-0.579	-0.007	
24.745	-0.532	-0.101	
24.750	-0.676	-0.236	
24.755	-0.868	-0.385	
24.760	-0.625	-0.528	
24.765	-0.436	-0.618	
24.770	-0.556	-0.644	
24.775	-0.382	-0.626	
24.780	-0.017	-0.564	
24.785	-0.171	-0.456	
24.790	-0.229	-0.346	
24.795	0.223	-0.247	
24.800	0.162	-0.135	
24.805	-0.158	-0.037	
24.810	0.168	0.018	
24.815	0.348	0.067	
24.820	-0.104	0.113	
24.825	0.012	0.122	
24.830	0.478	0.122	
24.835	0.139	0.151	
24.840	-0.025	0.171	
24.845	0.507	0.177	
24.850	0.429	0.212	
24.855	0.053	0.256	
24.860	0.475	0.277	
24.865	0.690	0.314	
24.870	0.227	0.371	
24.875	0.362	0.400	
24.880	0.803	0.421	
24.885	0.427	0.464	
24.890	0.220	0.487	
24.895	0.719	0.481	
24.900	0.574	0.492	
24.905	0.076	0.497	
24.910	0.371	0.458	
24.915	0.504	0.415	
24.920	-0.038	0.380	
24.925	-0.022	0.311	
24.930	0.328	0.231	
24.935	-0.071	0.175	
24.940	-0.225	0.113	
24.945	0.122	0.044	
24.950	0.009	0.003	
24.955	-0.274	-0.024	
24.960	-0.083	-0.061	
24.965	0.061	-0.086	
24.970	-0.269	-0.093	
24.975	-0.223	-0.111	
24.980	0.079	-0.129	
24.985	-0.182	-0.126	
24.990	-0.298	-0.128	
24.995	-0.019	-0.142	
25.000	-0.090	-0.142	
25.005	-0.327	-0.140	
25.010	-0.127	-0.154	
25.015	0.017	-0.158	
25.020	-0.289	-0.149	
25.025	-0.239	-0.154	
25.030	0.097	-0.158	
25.035	-0.152	-0.141	
25.040	-0.262	-0.127	
25.045	0.053	-0.126	
25.050	-0.042	-0.111	
25.055	-0.309	-0.099	
25.060	-0.115	-0.110	
25.065	0.033	-0.119	
25.070	-0.292	-0.117	
25.075	-0.266	-0.132	
25.080	-0.034	-0.155	
25.085	-0.258	-0.165	
25.090	-0.391	-0.183	
25.095	-0.139	-0.212	
25.100	-0.184	-0.227	
25.105	-0.417	-0.235	
25.110	-0.236	-0.253	
25.115	-0.112	-0.262	
25.120	-0.356	-0.255	
25.125	-0.306	-0.257	
25.130	0.023	-0.254	
25.135	-0.147	-0.225	
25.140	-0.213	-0.191	
25.145	0.336	-0.150	
25.150	0.379	-0.064	
25.155	-0.130	0.035	
25.160	-0.168	0.075	
25.165	-0.320	0.044	
25.170	-0.760	-0.051	
25.175	-0.833	-0.212	
25.180	-0.610	-0.392	
25.185	-0.676	-0.534	
25.190	-0.683	-0.627	
25.195	-0.321	-0.666	
25.200	-0.217	-0.634	
25.205	-0.342	-0.552	
25.210	-0.069	-0.454	
25.215	0.227	-0.334	
25.220	-0.132	-0.202	
25.225	-0.060	-0.104	
25.230	0.394	-0.030	
25.235	0.094	0.050	
25.240	-0.104	0.102	
25.245	0.380	0.121	
25.250	0.351	0.155	
25.255	-0.063	0.190	
25.260	0.287	0.195	
25.265	0.522	0.210	
25.270	0.056	0.242	
25.275	0.139	0.249	
25.280	0.626	0.251	
25.285	0.360	0.286	
25.290	0.177	0.321	
25.295	0.736	0.346	
25.300	0.736	0.404	
25.305	0.292	0.474	
25.310	0.615	0.510	
25.315	0.838	0.542	
25.320	0.343	0.580	
25.325	0.360	0.578	
25.330	0.765	0.555	
25.335	0.403	0.547	
25.340	0.078	0.518	
25.345	0.490	0.457	
25.350	0.376	0.408	
25.355	-0.106	0.362	
25.360	0.114	0.285	
25.365	0.295	0.214	
25.370	-0.155	0.165	
25.375	-0.147	0.103	
25.380	0.217	0.043	
25.385	-0.080	0.015	
25.390	-0.242	-0.010	
25.395	0.075	-0.043	
25.400	0.001	-0.056	
25.405	-0.287	-0.061	
25.410	-0.127	-0.085	
25.415	0.064	-0.103	
25.420	-0.248	-0.104	
25.425	-0.223	-0.116	
25.430	0.119	-0.127	
25.435	-0.144	-0.115	
25.440	-0.317	-0.110	
25.445	-0.081	-0.127	
25.450	-0.142	-0.141	
25.455	-0.405	-0.157	
25.460	-0.257	-0.192	
25.465	-0.104	-0.221	
25.470	-0.349	-0.232	
25.475	-0.356	-0.248	
25.480	-0.139	-0.265	
25.485	-0.287	-0.268	
25.490	-0.352	-0.268	
25.495	0.159	-0.258	
25.500	0.420	-0.187	
25.505	0.131	-0.066	
25.510	0.478	0.060	
25.515	0.780	0.196	
25.520	0.287	0.335	
25.525	0.177	0.412	
25.530	0.443	0.423	
25.535	-0.090	0.396	
25.540	-0.368	0.305	
25.545	-0.222	0.155	
25.550	-0.281	0.002	
25.555	-0.512	-0.133	
25.560	-0.335	-0.251	
25.565	-0.130	-0.323	
25.570	-0.330	-0.341	
25.575	-0.286	-0.337	
25.580	0.084	-0.311	
25.585	-0.098	-0.250	
25.590	-0.232	-0.190	
25.595	0.171	-0.144	
25.600	0.221	-0.079	
25.605	-0.132	-0.011	
25.610	0.168	0.031	
25.615	0.522	0.079	
25.620	0.127	0.150	
25.625	0.163	0.200	
25.630	0.657	0.239	
25.635	0.398	0.301	
25.640	0.137	0.349	
25.645	0.626	0.368	
25.650	0.629	0.403	
25.655	0.137	0.439	
25.660	0.372	0.434	
25.665	0.599	0.420	
25.670	0.070	0.412	
25.675	-0.003	0.365	
25.680	0.435	0.298	
25.685	0.091	0.254	
25.690	-0.181	0.206	
25.695	0.139	0.138	
25.700	0.099	0.088	
25.705	-0.257	0.051	
25.710	-0.113	-0.001	
25.715	0.105	-0.044	
25.720	-0.240	-0.063	
25.725	-0.255	-0.090	
25.730	0.021	-0.121	
25.735	-0.184	-0.132	
25.740	-0.349	-0.145	
25.745	-0.103	-0.170	
25.750	-0.092	-0.181	
25.755	-0.350	-0.182	
25.760	-0.210	-0.195	
25.765	-0.035	-0.203	
25.770	-0.306	-0.196	
25.775	-0.315	-0.201	
25.780	-0.026	-0.211	
25.785	-0.196	-0.203	
25.790	-0.346	-0.196	
25.795	-0.089	-0.202	
25.800	-0.061	-0.195	
25.805	-0.317	-0.179	
25.810	-0.165	-0.178	
25.815	0.061	-0.172	
25.820	-0.243	-0.150	
25.825	-0.251	-0.143	
25.830	0.085	-0.144	
25.835	-0.115	-0.126	
25.840	-0.289	-0.115	
25.845	0.003	-0.119	
25.850	0.036	-0.111	
25.855	-0.271	-0.096	
25.860	-0.126	-0.099	
25.865	0.165	-0.099	
25.870	-0.173	-0.080	
25.875	-0.174	-0.072	
25.880	0.236	-0.068	
25.885	-0.020	-0.040	
25.890	-0.211	-0.020	
25.895	0.160	-0.020	
25.900	0.201	-0.001	
25.905	-0.181	0.026	
25.910	0.001	0.027	
25.915	0.334	0.030	
25.920	-0.090	0.052	
25.925	-0.135	0.055	
25.930	0.287	0.042	
25.935	0.012	0.049	
25.940	-0.232	0.047	
25.945	0.075	0.020	
25.950	0.111	0.004	
25.955	-0.248	-0.002	
25.960	-0.118	-0.028	
25.965	0.162	-0.050	
25.970	-0.181	-0.051	
25.975	-0.207	-0.061	
25.980	0.208	-0.072	
25.985	-0.017	-0.055	
25.990	-0.200	-0.038	
25.995	0.241	-0.031	
26.000	0.409	0.010	
26.005	0.050	0.080	
26.010	0.476	0.145	
26.015	0.948	0.240	
26.020	0.386	0.370	
26.025	-0.086	0.441	
26.030	-0.092	0.400	
26.035	-0.459	0.273	
26.040	-0.714	0.080	
26.045	-0.488	-0.139	
26.050	-0.388	-0.317	
26.055	-0.561	-0.430	
26.060	-0.342	-0.492	
26.065	-0.017	-0.490	
26.070	-0.176	-0.424	
26.075	-0.130	-0.336	
26.080	0.412	-0.232	
26.085	0.217	-0.096	
26.090	-0.084	0.024	
26.095	0.362	0.097	
26.100	0.446	0.165	
26.105	-0.035	0.225	
26.110	0.217	0.240	
26.115	0.577	0.248	
26.120	0.137	0.276	
26.125	0.084	0.282	
26.130	0.618	0.275	
26.135	0.418	0.301	
26.140	0.072	0.329	
26.145	0.579	0.335	
26.150	0.701	0.365	
26.155	0.235	0.414	
26.160	0.525	0.441	
26.165	0.926	0.474	
26.170	0.513	0.536	
26.175	0.446	0.579	
26.180	0.967	0.602	
26.185	0.724	0.646	
26.190	0.296	0.673	
26.195	0.716	0.656	
26.200	0.751	0.641	
26.205	0.178	0.626	
26.210	0.321	0.569	
26.215	0.608	0.502	
26.220	0.070	0.450	
26.225	-0.077	0.373	
26.230	0.351	0.278	
26.235	0.094	0.214	
26.240	-0.213	0.158	
26.245	0.068	0.089	
26.250	0.120	0.041	
26.255	-0.237	0.013	
26.260	-0.104	-0.024	
26.265	0.247	-0.047	
26.270	-0.129	-0.038	
26.275	-0.203	-0.036	
26.280	0.208	-0.044	
26.285	0.017	-0.029	
26.290	-0.222	-0.015	
26.295	0.067	-0.022	
26.300	0.163	-0.018	
26.305	-0.216	-0.005	
26.310	-0.109	-0.015	
26.315	0.211	-0.027	
26.320	-0.132	-0.020	
26.325	-0.176	-0.023	
26.330	0.279	-0.030	
26.335	0.061	-0.007	
26.340	-0.226	0.013	
26.345	0.061	0.006	
26.350	0.139	0.002	
26.355	-0.234	0.005	
26.360	-0.139	-0.016	
26.365	0.159	-0.040	
26.370	-0.190	-0.045	
26.375	-0.269	-0.061	
26.380	0.021	-0.091	
26.385	-0.133	-0.105	
26.390	-0.341	-0.120	
26.395	-0.106	-0.148	
26.400	-0.023	-0.160	
26.405	-0.309	-0.158	
26.410	-0.200	-0.167	
26.415	0.082	-0.169	
26.420	-0.174	-0.149	
26.425	-0.194	-0.133	
26.430	0.275	-0.114	
26.435	0.200	-0.058	
26.440	-0.051	0.009	
26.445	0.299	0.059	
26.450	0.119	0.103	
26.455	-0.460	0.109	
26.460	-0.570	0.029	
26.465	-0.497	-0.113	
26.470	-0.672	-0.265	
26.475	-0.660	-0.406	
26.480	-0.320	-0.507	
26.485	-0.301	-0.537	
26.490	-0.393	-0.514	
26.495	-0.058	-0.460	
26.500	0.191	-0.363	
26.505	-0.144	-0.241	
26.510	0.046	-0.138	
26.515	0.467	-0.043	
26.520	0.079	0.060	
26.525	0.006	0.129	
26.530	0.563	0.169	
26.535	0.420	0.230	
26.540	0.035	0.283	
26.545	0.492	0.303	
26.550	0.629	0.332	
26.555	0.099	0.371	
26.560	0.295	0.373	
26.565	0.733	0.371	
26.570	0.325	0.398	
26.575	0.217	0.411	
26.580	0.788	0.413	
26.585	0.680	0.452	
26.590	0.295	0.500	
26.595	0.718	0.524	
26.600	0.858	0.558	
26.605	0.351	0.600	
26.610	0.481	0.604	
26.615	0.831	0.594	
26.620	0.347	0.594	
26.625	0.137	0.561	
26.630	0.594	0.497	
26.635	0.350	0.452	
26.640	-0.103	0.401	
26.645	0.195	0.317	
26.650	0.230	0.242	
26.655	-0.199	0.181	
26.660	-0.130	0.104	
26.665	0.160	0.033	
26.670	-0.159	-0.006	
26.675	-0.252	-0.044	
26.680	0.081	-0.081	
26.685	-0.052	-0.091	
26.690	-0.275	-0.093	
26.695	-0.011	-0.105	
26.700	0.116	-0.100	
26.705	-0.236	-0.080	
26.710	-0.142	-0.078	
26.715	0.177	-0.079	
26.720	-0.141	-0.061	
26.725	-0.229	-0.057	
26.730	0.136	-0.065	
26.735	-0.029	-0.057	
26.740	-0.268	-0.051	
26.745	-0.006	-0.065	
26.750	0.168	-0.065	
26.755	-0.199	-0.047	
26.760	-0.129	-0.046	
26.765	0.201	-0.049	
26.770	-0.135	-0.035	
26.775	-0.229	-0.035	
26.780	0.134	-0.050	
26.785	-0.020	-0.047	
26.790	-0.278	-0.046	
26.795	-0.077	-0.067	
26.800	0.026	-0.083	
26.805	-0.298	-0.091	
26.810	-0.236	-0.115	
26.815	0.041	-0.140	
26.820	-0.214	-0.143	
26.825	-0.304	-0.150	
26.830	0.027	-0.162	
26.835	-0.061	-0.153	
26.840	-0.278	-0.137	
26.845	0.018	-0.132	
26.850	0.250	-0.105	
26.855	-0.118	-0.053	
26.860	0.062	-0.015	
26.865	0.563	0.033	
26.870	-0.032	0.104	
26.875	-0.368	0.126	
26.880	-0.336	0.062	
26.885	-0.550	-0.054	
26.890	-0.778	-0.203	
26.895	-0.537	-0.361	
26.900	-0.361	-0.474	
26.905	-0.520	-0.524	
26.910	-0.373	-0.534	
26.915	-0.009	-0.499	
26.920	-0.144	-0.414	
26.925	-0.182	-0.319	
26.930	0.318	-0.221	
26.935	0.233	-0.101	
26.940	-0.121	0.007	
26.945	0.250	0.070	
26.950	0.449	0.127	
26.955	-0.034	0.182	
26.960	0.101	0.198	
26.965	0.545	0.202	
26.970	0.174	0.230	
26.975	-0.002	0.242	
26.980	0.537	0.236	
26.985	0.458	0.260	
26.990	0.061	0.294	
26.995	0.501	0.306	
27.000	0.725	0.338	
27.005	0.263	0.394	
27.010	0.414	0.425	
27.015	0.861	0.452	
27.020	0.522	0.505	
27.025	0.318	0.540	
27.030	0.829	0.549	
27.035	0.695	0.576	
27.040	0.201	0.594	
27.045	0.524	0.568	
27.050	0.654	0.539	
27.055	0.058	0.512	
27.060	0.072	0.443	
27.065	0.441	0.357	
27.070	0.000	0.293	
27.075	-0.179	0.219	
27.080	0.169	0.134	
27.085	0.030	0.076	
27.090	-0.252	0.032	
27.095	-0.040	-0.019	
27.100	0.133	-0.050	
27.105	-0.225	-0.056	
27.110	-0.171	-0.071	
27.115	0.162	-0.084	
27.120	-0.126	-0.074	
27.125	-0.245	-0.071	
27.130	0.082	-0.080	
27.135	-0.006	-0.075	
27.140	-0.254	-0.066	
27.145	-0.035	-0.075	
27.150	0.131	-0.075	
27.155	-0.232	-0.061	
27.160	-0.177	-0.067	
27.165	0.209	-0.074	
27.170	-0.078	-0.057	
27.175	-0.203	-0.045	
27.180	0.166	-0.045	
27.185	0.061	-0.029	
27.190	-0.245	-0.013	
27.195	-0.055	-0.025	
27.200	0.097	-0.038	
27.205	-0.271	-0.044	
27.210	-0.249	-0.071	
27.215	0.007	-0.106	
27.220	-0.231	-0.125	
27.225	-0.361	-0.149	
27.230	-0.083	-0.181	
27.235	-0.115	-0.193	
27.240	-0.353	-0.194	
27.245	-0.164	-0.204	
27.250	-0.025	-0.204	
27.255	-0.303	-0.190	
27.260	-0.232	-0.188	
27.265	0.160	-0.180	
27.270	-0.074	-0.143	
27.275	-0.156	-0.104	
27.280	0.394	-0.066	
27.285	0.398	0.013	
27.290	-0.197	0.095	
27.295	-0.228	0.107	
27.300	-0.333	0.048	
27.305	-0.723	-0.064	
27.310	-0.727	-0.224	
27.315	-0.459	-0.382	
27.320	-0.532	-0.490	
27.325	-0.559	-0.549	
27.330	-0.199	-0.562	
27.335	-0.104	-0.513	
27.340	-0.262	-0.426	
27.345	0.032	-0.332	
27.350	0.334	-0.218	
27.355	-0.101	-0.094	
27.360	-0.034	-0.011	
27.365	0.432	0.044	
27.370	0.101	0.106	
27.375	-0.084	0.142	
27.380	0.406	0.149	
27.385	0.340	0.174	
27.390	-0.095	0.200	
27.395	0.227	0.194	
27.400	0.490	0.194	
27.405	0.024	0.215	
27.410	0.122	0.216	
27.415	0.647	0.219	
27.420	0.368	0.262	
27.425	0.163	0.307	
27.430	0.722	0.337	
27.435	0.712	0.397	
27.440	0.238	0.463	
27.445	0.573	0.491	
27.450	0.811	0.516	
27.455	0.285	0.547	
27.460	0.267	0.538	
27.465	0.681	0.503	
27.470	0.307	0.482	
27.475	-0.026	0.442	
27.480	0.368	0.369	
27.485	0.244	0.309	
27.490	-0.200	0.253	
27.495	-0.035	0.170	
27.500	0.166	0.093	
27.505	-0.216	0.041	
27.510	-0.207	-0.013	
27.515	0.136	-0.060	
27.520	-0.115	-0.075	
27.525	-0.274	-0.085	
27.530	0.009	-0.104	
27.535	-0.025	-0.108	
27.540	-0.301	-0.105	
27.545	-0.132	-0.120	
27.550	0.061	-0.128	
27.555	-0.272	-0.121	
27.560	-0.268	-0.130	
27.565	0.035	-0.146	
27.570	-0.165	-0.144	
27.575	-0.304	-0.144	
27.580	-0.020	-0.154	
27.585	-0.031	-0.148	
27.590	-0.291	-0.135	
27.595	-0.101	-0.136	
27.600	0.119	-0.129	
27.605	-0.219	-0.106	
27.610	-0.216	-0.099	
27.615	0.119	-0.102	
27.620	-0.126	-0.090	
27.625	-0.280	-0.086	
27.630	-0.005	-0.100	
27.635	-0.038	-0.104	
27.640	-0.317	-0.105	
27.645	-0.181	-0.125	
27.650	-0.045	-0.146	
27.655	-0.323	-0.156	
27.660	-0.315	-0.179	
27.665	-0.038	-0.203	
27.670	-0.220	-0.205	
27.675	-0.353	-0.207	
27.680	-0.083	-0.216	
27.685	-0.066	-0.208	
27.690	-0.287	-0.189	
27.695	-0.058	-0.177	
27.700	0.322	-0.142	
27.705	-0.034	-0.073	
27.710	0.029	-0.013	
27.715	0.420	0.040	
27.720	-0.152	0.091	
27.725	-0.529	0.081	
27.730	-0.500	-0.018	
27.735	-0.614	-0.162	
27.740	-0.833	-0.321	
27.745	-0.631	-0.475	
27.750	-0.387	-0.577	
27.755	-0.497	-0.609	
27.760	-0.376	-0.593	
27.765	0.023	-0.532	
27.770	-0.086	-0.423	
27.775	-0.216	-0.309	
27.780	0.212	-0.209	
27.785	0.266	-0.100	
27.790	-0.112	0.001	
27.795	0.194	0.062	
27.800	0.496	0.116	
27.805	0.038	0.177	
27.810	0.049	0.204	
27.815	0.560	0.211	
27.820	0.278	0.242	
27.825	0.006	0.265	
27.830	0.515	0.264	
27.835	0.531	0.287	
27.840	0.055	0.321	
27.845	0.379	0.325	
27.850	0.702	0.337	
27.855	0.273	0.376	
27.860	0.305	0.397	
27.865	0.825	0.413	
27.870	0.547	0.460	
27.875	0.238	0.498	
27.880	0.704	0.504	
27.885	0.681	0.522	
27.890	0.140	0.536	
27.895	0.366	0.505	
27.900	0.597	0.465	
27.905	0.046	0.433	
27.910	-0.031	0.368	
27.915	0.392	0.285	
27.920	0.053	0.229	
27.925	-0.203	0.173	
27.930	0.128	0.103	
27.935	0.120	0.058	
27.940	-0.239	0.031	
27.945	-0.097	-0.009	
27.950	0.117	-0.042	
27.955	-0.222	-0.054	
27.960	-0.245	-0.076	
27.965	0.064	-0.103	
27.970	-0.155	-0.110	
27.975	-0.326	-0.119	
27.980	-0.066	-0.142	
27.985	-0.055	-0.151	
27.990	-0.332	-0.151	
27.995	-0.193	-0.165	
28.000	0.006	-0.174	
28.005	-0.277	-0.168	
28.010	-0.295	-0.173	
28.015	0.029	-0.182	
28.020	-0.142	-0.170	
28.025	-0.301	-0.159	
28.030	-0.011	-0.159	
28.035	0.010	-0.144	
28.040	-0.300	-0.123	
28.045	-0.156	-0.125	
28.050	0.056	-0.128	
28.055	-0.257	-0.120	
28.060	-0.294	-0.129	
28.065	-0.026	-0.149	
28.070	-0.203	-0.157	
28.075	-0.396	-0.170	
28.080	-0.167	-0.199	
28.085	-0.153	-0.217	
28.090	-0.408	-0.227	
28.095	-0.266	-0.246	
28.100	-0.083	-0.258	
28.105	-0.330	-0.251	
28.110	-0.347	-0.252	
28.115	-0.016	-0.254	
28.120	-0.116	-0.231	
28.125	-0.239	-0.199	
28.130	0.214	-0.164	
28.135	0.406	-0.090	
28.140	-0.045	0.009	
28.145	-0.031	0.069	
28.150	-0.139	0.074	
28.155	-0.605	0.021	
28.160	-0.810	-0.109	
28.165	-0.645	-0.285	
28.170	-0.723	-0.449	
28.175	-0.781	-0.579	
28.180	-0.426	-0.662	
28.185	-0.272	-0.668	
28.190	-0.393	-0.611	
28.195	-0.168	-0.527	
28.200	0.203	-0.412	
28.205	-0.136	-0.275	
28.210	-0.150	-0.167	
28.215	0.342	-0.088	
28.220	0.125	-0.002	
28.225	-0.142	0.061	
28.230	0.296	0.087	
28.235	0.388	0.123	
28.240	-0.066	0.164	
28.245	0.183	0.174	
28.250	0.528	0.185	
28.255	0.093	0.218	
28.260	0.050	0.229	
28.265	0.592	0.229	
28.270	0.412	0.262	
28.275	0.116	0.301	
28.280	0.628	0.323	
28.285	0.747	0.372	
28.290	0.290	0.439	
28.295	0.547	0.477	
28.300	0.895	0.513	
28.305	0.427	0.563	
28.310	0.313	0.579	
28.315	0.765	0.564	
28.320	0.486	0.560	
28.325	0.067	0.538	
28.330	0.466	0.478	
28.335	0.461	0.427	
28.340	-0.083	0.384	
28.345	0.058	0.308	
28.350	0.324	0.230	
28.355	-0.119	0.177	
28.360	-0.185	0.113	
28.365	0.192	0.047	
28.370	-0.020	0.014	
28.375	-0.242	-0.009	
28.380	0.044	-0.039	
28.385	0.091	-0.050	
28.390	-0.262	-0.048	
28.395	-0.156	-0.065	
28.400	0.075	-0.084	
28.405	-0.245	-0.090	
28.410	-0.301	-0.109	
28.415	-0.022	-0.139	
28.420	-0.176	-0.151	
28.425	-0.364	-0.164	
28.430	-0.115	-0.187	
28.435	-0.066	-0.194	
28.440	-0.344	-0.189	
28.445	-0.231	-0.197	
28.450	0.020	-0.201	
28.455	-0.239	-0.186	
28.460	-0.277	-0.178	
28.465	0.058	-0.175	
28.470	-0.106	-0.154	
28.475	-0.306	-0.136	
28.480	-0.074	-0.139	
28.485	-0.017	-0.136	
28.490	-0.329	-0.130	
28.495	-0.240	-0.145	
28.500	-0.040	-0.165	
28.505	-0.298	-0.173	
28.510	-0.364	-0.191	
28.515	-0.097	-0.216	
28.520	-0.220	-0.225	
28.525	-0.407	-0.231	
28.530	-0.177	-0.247	
28.535	-0.122	-0.250	
28.540	-0.382	-0.243	
28.545	-0.251	-0.247	
28.550	0.053	-0.242	
28.555	-0.165	-0.209	
28.560	-0.148	-0.174	
28.565	0.441	-0.125	
28.570	0.347	-0.029	
28.575	-0.109	0.072	
28.580	-0.112	0.108	
28.585	-0.355	0.075	
28.590	-0.813	-0.031	
28.595	-0.792	-0.205	
28.600	-0.575	-0.390	
28.605	-0.683	-0.530	
28.610	-0.616	-0.619	
28.615	-0.232	-0.648	
28.620	-0.213	-0.602	
28.625	-0.306	-0.513	
28.630	0.088	-0.408	
28.635	0.287	-0.274	
28.640	-0.118	-0.133	
28.645	0.056	-0.034	
28.650	0.458	0.042	
28.655	0.055	0.119	
28.660	-0.032	0.160	
28.665	0.484	0.172	
28.670	0.308	0.204	
28.675	-0.054	0.230	
28.680	0.400	0.228	
28.685	0.525	0.244	
28.690	0.042	0.275	
28.695	0.275	0.281	
28.700	0.706	0.292	
28.705	0.311	0.335	
28.710	0.227	0.367	
28.715	0.803	0.387	
28.720	0.654	0.440	
28.725	0.288	0.496	
28.730	0.736	0.522	
28.735	0.842	0.559	
28.740	0.299	0.599	
28.745	0.450	0.596	
28.750	0.806	0.577	
28.755	0.330	0.571	
28.760	0.117	0.536	
28.765	0.562	0.472	
28.770	0.316	0.425	
28.775	-0.098	0.374	
28.780	0.258	0.298	
28.785	0.311	0.239	
28.790	-0.174	0.198	
28.795	-0.103	0.135	
28.800	0.212	0.072	
28.805	-0.147	0.035	
28.810	-0.232	-0.004	
28.815	0.134	-0.044	
28.820	-0.052	-0.057	
28.825	-0.287	-0.064	
28.830	-0.055	-0.088	
28.835	0.039	-0.099	
28.840	-0.291	-0.099	
28.845	-0.213	-0.116	
28.850	0.058	-0.133	
28.855	-0.216	-0.131	
28.860	-0.283	-0.136	
28.865	0.038	-0.148	
28.870	-0.097	-0.141	
28.875	-0.307	-0.132	
28.880	-0.035	-0.138	
28.885	0.122	-0.127	
28.890	-0.237	-0.100	
28.895	-0.139	-0.091	
28.900	0.181	-0.085	
28.905	-0.158	-0.063	
28.910	-0.239	-0.058	
28.915	0.110	-0.069	
28.920	-0.061	-0.065	
28.925	-0.309	-0.066	
28.930	-0.100	-0.091	
28.935	-0.032	-0.111	
28.940	-0.335	-0.123	
28.945	-0.260	-0.151	
28.950	-0.006	-0.177	
28.955	-0.255	-0.181	
