Vernier Format 2
ecg3.txt 10/21/2025 9:26:27
Run 1
Time	Potential	EKG	
T	P	E	
s	mV	mV	

0.000	-0.501	-0.023	
0.005	-0.666	-0.107	
0.010	-0.477	-0.235	
0.015	-0.731	-0.363	
0.020	-0.888	-0.490	
0.025	-0.492	-0.600	
0.030	-0.411	-0.649	
0.035	-0.630	-0.643	
0.040	-0.301	-0.612	
0.045	0.110	-0.536	
0.050	-0.324	-0.418	
0.055	-0.275	-0.321	
0.060	0.348	-0.238	
0.065	-0.058	-0.137	
0.070	-0.280	-0.064	
0.075	0.348	-0.029	
0.080	0.363	0.030	
0.085	-0.216	0.093	
0.090	0.151	0.110	
0.095	0.605	0.131	
0.100	-0.051	0.177	
0.105	-0.017	0.189	
0.110	0.718	0.190	
0.115	0.288	0.234	
0.120	-0.063	0.269	
0.125	0.681	0.276	
0.130	0.721	0.321	
0.135	0.097	0.387	
0.140	0.611	0.418	
0.145	1.080	0.467	
0.150	0.408	0.551	
0.155	0.455	0.600	
0.160	1.170	0.627	
0.165	0.710	0.687	
0.170	0.282	0.722	
0.175	0.991	0.711	
0.180	0.932	0.721	
0.185	0.209	0.735	
0.190	0.615	0.696	
0.195	1.022	0.663	
0.200	0.269	0.659	
0.205	0.238	0.618	
0.210	0.918	0.561	
0.215	0.452	0.546	
0.220	-0.002	0.522	
0.225	0.673	0.465	
0.230	0.635	0.443	
0.235	-0.052	0.438	
0.240	0.392	0.397	
0.245	0.829	0.376	
0.250	0.105	0.395	
0.255	0.125	0.386	
0.260	0.819	0.364	
0.265	0.376	0.385	
0.270	-0.034	0.395	
0.275	0.664	0.372	
0.280	0.658	0.382	
0.285	0.003	0.408	
0.290	0.469	0.398	
0.295	0.878	0.403	
0.300	0.157	0.441	
0.305	0.145	0.440	
0.310	0.829	0.418	
0.315	0.376	0.430	
0.320	-0.058	0.427	
0.325	0.600	0.386	
0.330	0.563	0.374	
0.335	-0.118	0.373	
0.340	0.238	0.330	
0.345	0.644	0.294	
0.350	-0.051	0.290	
0.355	-0.051	0.257	
0.360	0.623	0.216	
0.365	0.181	0.219	
0.370	-0.173	0.217	
0.375	0.446	0.190	
0.380	0.499	0.197	
0.385	-0.075	0.228	
0.390	0.431	0.237	
0.395	0.947	0.277	
0.400	0.333	0.369	
0.405	0.263	0.432	
0.410	0.618	0.452	
0.415	-0.176	0.439	
0.420	-0.567	0.338	
0.425	-0.307	0.151	
0.430	-0.280	-0.036	
0.435	-0.520	-0.185	
0.440	-0.208	-0.295	
0.445	0.307	-0.324	
0.450	-0.110	-0.264	
0.455	0.018	-0.182	
0.460	0.788	-0.074	
0.465	0.418	0.085	
0.470	0.058	0.225	
0.475	0.774	0.313	
0.480	0.780	0.408	
0.485	0.142	0.494	
0.490	0.602	0.522	
0.495	1.080	0.551	
0.500	0.409	0.610	
0.505	0.420	0.634	
0.510	1.113	0.637	
0.515	0.686	0.675	
0.520	0.252	0.695	
0.525	0.968	0.677	
0.530	0.979	0.689	
0.535	0.314	0.717	
0.540	0.750	0.707	
0.545	1.197	0.711	
0.550	0.541	0.752	
0.555	0.545	0.763	
0.560	1.222	0.760	
0.565	0.805	0.793	
0.570	0.372	0.811	
0.575	1.052	0.790	
0.580	1.022	0.795	
0.585	0.313	0.808	
0.590	0.690	0.774	
0.595	1.072	0.741	
0.600	0.337	0.735	
0.605	0.264	0.689	
0.610	0.903	0.621	
0.615	0.444	0.589	
0.620	-0.009	0.546	
0.625	0.611	0.473	
0.630	0.617	0.434	
0.635	-0.051	0.417	
0.640	0.319	0.370	
0.645	0.733	0.340	
0.650	-0.002	0.345	
0.655	-0.078	0.313	
0.660	0.521	0.257	
0.665	0.047	0.228	
0.670	-0.263	0.188	
0.675	0.201	0.121	
0.680	0.186	0.081	
0.685	-0.312	0.058	
0.690	-0.124	0.010	
0.695	0.256	-0.029	
0.700	-0.239	-0.036	
0.705	-0.237	-0.054	
0.710	0.307	-0.072	
0.715	-0.086	-0.054	
0.720	-0.318	-0.043	
0.725	0.124	-0.058	
0.730	0.116	-0.052	
0.735	-0.330	-0.039	
0.740	-0.119	-0.056	
0.745	0.263	-0.068	
0.750	-0.265	-0.055	
0.755	-0.283	-0.064	
0.760	0.198	-0.085	
0.765	-0.132	-0.081	
0.770	-0.342	-0.083	
0.775	0.067	-0.103	
0.780	0.122	-0.098	
0.785	-0.301	-0.077	
0.790	-0.038	-0.076	
0.795	0.458	-0.058	
0.800	-0.078	-0.002	
0.805	-0.034	0.039	
0.810	0.713	0.078	
0.815	0.334	0.162	
0.820	-0.176	0.229	
0.825	0.053	0.222	
0.830	-0.177	0.166	
0.835	-0.647	0.064	
0.840	-0.486	-0.088	
0.845	-0.205	-0.231	
0.850	-0.446	-0.320	
0.855	-0.367	-0.373	
0.860	0.241	-0.373	
0.865	0.059	-0.296	
0.870	-0.142	-0.194	
0.875	0.557	-0.092	
0.880	0.661	0.050	
0.885	0.036	0.199	
0.890	0.409	0.288	
0.895	0.857	0.358	
0.900	0.198	0.433	
0.905	0.154	0.455	
0.910	0.854	0.445	
0.915	0.434	0.464	
0.920	-0.005	0.466	
0.925	0.667	0.432	
0.930	0.739	0.431	
0.935	0.076	0.453	
0.940	0.487	0.444	
0.945	0.974	0.451	
0.950	0.342	0.500	
0.955	0.319	0.522	
0.960	1.034	0.530	
0.965	0.681	0.578	
0.970	0.255	0.617	
0.975	0.938	0.620	
0.980	0.981	0.651	
0.985	0.308	0.694	
0.990	0.644	0.691	
0.995	1.092	0.685	
1.000	0.423	0.706	
1.005	0.325	0.691	
1.010	0.955	0.649	
1.015	0.525	0.636	
1.020	0.024	0.606	
1.025	0.626	0.535	
1.030	0.640	0.489	
1.035	-0.043	0.463	
1.040	0.292	0.403	
1.045	0.721	0.358	
1.050	0.059	0.352	
1.055	0.003	0.323	
1.060	0.699	0.285	
1.065	0.340	0.293	
1.070	-0.100	0.303	
1.075	0.507	0.281	
1.080	0.592	0.288	
1.085	-0.032	0.315	
1.090	0.322	0.309	
1.095	0.765	0.313	
1.100	0.133	0.349	
1.105	0.108	0.354	
1.110	0.806	0.345	
1.115	0.418	0.375	
1.120	-0.011	0.396	
1.125	0.614	0.380	
1.130	0.687	0.390	
1.135	-0.003	0.414	
1.140	0.314	0.396	
1.145	0.764	0.378	
1.150	0.093	0.388	
1.155	0.003	0.366	
1.160	0.640	0.321	
1.165	0.263	0.311	
1.170	-0.132	0.297	
1.175	0.426	0.254	
1.180	0.470	0.242	
1.185	-0.115	0.248	
1.190	0.166	0.225	
1.195	0.631	0.211	
1.200	0.042	0.233	
1.205	0.021	0.235	
1.210	0.725	0.230	
1.215	0.405	0.271	
1.220	0.041	0.315	
1.225	0.733	0.334	
1.230	0.713	0.384	
1.235	-0.119	0.432	
1.240	-0.127	0.392	
1.245	-0.045	0.281	
1.250	-0.451	0.143	
1.255	-0.456	-0.015	
1.260	-0.042	-0.155	
1.265	-0.176	-0.228	
1.270	-0.329	-0.256	
1.275	0.223	-0.250	
1.280	0.429	-0.176	
1.285	-0.084	-0.061	
1.290	0.295	0.032	
1.295	0.811	0.133	
1.300	0.191	0.255	
1.305	0.110	0.328	
1.310	0.819	0.360	
1.315	0.470	0.412	
1.320	0.036	0.444	
1.325	0.672	0.434	
1.330	0.721	0.446	
1.335	0.050	0.469	
1.340	0.389	0.450	
1.345	0.863	0.436	
1.350	0.227	0.456	
1.355	0.157	0.450	
1.360	0.854	0.428	
1.365	0.556	0.450	
1.370	0.127	0.475	
1.375	0.771	0.472	
1.380	0.842	0.499	
1.385	0.163	0.541	
1.390	0.527	0.540	
1.395	0.958	0.540	
1.400	0.293	0.567	
1.405	0.169	0.554	
1.410	0.814	0.513	
1.415	0.398	0.499	
1.420	-0.080	0.471	
1.425	0.432	0.401	
1.430	0.440	0.349	
1.435	-0.156	0.312	
1.440	0.030	0.244	
1.445	0.458	0.182	
1.450	-0.122	0.156	
1.455	-0.188	0.116	
1.460	0.340	0.067	
1.465	0.004	0.054	
1.470	-0.258	0.041	
1.475	0.143	0.011	
1.480	0.217	0.005	
1.485	-0.240	0.017	
1.490	-0.068	0.004	
1.495	0.372	-0.003	
1.500	-0.132	0.019	
1.505	-0.194	0.023	
1.510	0.299	0.010	
1.515	-0.025	0.019	
1.520	-0.260	0.020	
1.525	0.178	-0.000	
1.530	0.258	0.006	
1.535	-0.242	0.029	
1.540	-0.068	0.021	
1.545	0.318	0.011	
1.550	-0.199	0.021	
1.555	-0.252	0.007	
1.560	0.194	-0.025	
1.565	-0.118	-0.035	
1.570	-0.368	-0.053	
1.575	-0.061	-0.094	
1.580	-0.031	-0.121	
1.585	-0.391	-0.136	
1.590	-0.234	-0.166	
1.595	0.067	-0.187	
1.600	-0.315	-0.182	
1.605	-0.370	-0.189	
1.610	0.015	-0.205	
1.615	-0.167	-0.199	
1.620	-0.359	-0.190	
1.625	0.003	-0.192	
1.630	0.154	-0.166	
1.635	-0.242	-0.120	
1.640	-0.043	-0.092	
1.645	0.263	-0.064	
1.650	-0.367	-0.034	
1.655	-0.584	-0.061	
1.660	-0.368	-0.151	
1.665	-0.543	-0.253	
1.670	-0.720	-0.357	
1.675	-0.375	-0.451	
1.680	-0.269	-0.494	
1.685	-0.501	-0.489	
1.690	-0.252	-0.467	
1.695	0.154	-0.409	
1.700	-0.220	-0.313	
1.705	-0.229	-0.232	
1.710	0.305	-0.166	
1.715	0.000	-0.086	
1.720	-0.263	-0.028	
1.725	0.154	-0.012	
1.730	0.250	0.012	
1.735	-0.222	0.041	
1.740	-0.043	0.037	
1.745	0.392	0.032	
1.750	-0.126	0.052	
1.755	-0.168	0.051	
1.760	0.409	0.039	
1.765	0.090	0.060	
1.770	-0.207	0.077	
1.775	0.293	0.069	
1.780	0.421	0.090	
1.785	-0.126	0.130	
1.790	0.146	0.140	
1.795	0.640	0.157	
1.800	0.032	0.203	
1.805	-0.049	0.219	
1.810	0.568	0.209	
1.815	0.221	0.226	
1.820	-0.148	0.233	
1.825	0.333	0.205	
1.830	0.366	0.194	
1.835	-0.197	0.193	
1.840	-0.048	0.153	
1.845	0.354	0.108	
1.850	-0.171	0.089	
1.855	-0.240	0.052	
1.860	0.215	0.005	
1.865	-0.080	-0.015	
1.870	-0.335	-0.034	
1.875	0.001	-0.072	
1.880	0.101	-0.088	
1.885	-0.312	-0.085	
1.890	-0.152	-0.099	
1.895	0.247	-0.104	
1.900	-0.202	-0.081	
1.905	-0.242	-0.073	
1.910	0.261	-0.075	
1.915	-0.026	-0.051	
1.920	-0.284	-0.033	
1.925	0.102	-0.041	
1.930	0.203	-0.031	
1.935	-0.246	-0.009	
1.940	-0.064	-0.013	
1.945	0.359	-0.013	
1.950	-0.155	0.012	
1.955	-0.205	0.015	
1.960	0.290	0.001	
1.965	-0.031	0.010	
1.970	-0.301	0.009	
1.975	0.053	-0.020	
1.980	0.130	-0.033	
1.985	-0.310	-0.034	
1.990	-0.170	-0.058	
1.995	0.168	-0.082	
2.000	-0.268	-0.083	
2.005	-0.329	-0.100	
2.010	0.075	-0.130	
2.015	-0.142	-0.135	
2.020	-0.370	-0.139	
2.025	-0.045	-0.159	
2.030	0.056	-0.157	
2.035	-0.298	-0.138	
2.040	-0.090	-0.133	
2.045	0.403	-0.109	
2.050	-0.071	-0.047	
2.055	-0.144	-0.003	
2.060	0.204	0.012	
2.065	-0.257	0.018	
2.070	-0.642	-0.026	
2.075	-0.457	-0.136	
2.080	-0.402	-0.255	
2.085	-0.669	-0.355	
2.090	-0.466	-0.441	
2.095	-0.145	-0.482	
2.100	-0.356	-0.465	
2.105	-0.327	-0.425	
2.110	0.188	-0.365	
2.115	-0.043	-0.268	
2.120	-0.277	-0.179	
2.125	0.159	-0.122	
2.130	0.295	-0.056	
2.135	-0.197	0.012	
2.140	-0.022	0.038	
2.145	0.421	0.052	
2.150	-0.113	0.082	
2.155	-0.165	0.083	
2.160	0.402	0.066	
2.165	0.101	0.080	
2.170	-0.205	0.090	
2.175	0.261	0.076	
2.180	0.405	0.089	
2.185	-0.152	0.121	
2.190	0.067	0.122	
2.195	0.567	0.126	
2.200	0.001	0.159	
2.205	-0.052	0.171	
2.210	0.602	0.168	
2.215	0.302	0.202	
2.220	-0.103	0.233	
2.225	0.402	0.228	
2.230	0.467	0.237	
2.235	-0.148	0.253	
2.240	0.006	0.222	
2.245	0.405	0.178	
2.250	-0.153	0.154	
2.255	-0.243	0.107	
2.260	0.171	0.043	
2.265	-0.126	0.002	
2.270	-0.385	-0.040	
2.275	-0.107	-0.099	
2.280	-0.046	-0.140	
2.285	-0.399	-0.162	
2.290	-0.257	-0.194	
2.295	0.044	-0.213	
2.300	-0.310	-0.206	
2.305	-0.358	-0.207	
2.310	-0.005	-0.217	
2.315	-0.174	-0.207	
2.320	-0.396	-0.199	
2.325	-0.074	-0.206	
2.330	0.023	-0.195	
2.335	-0.338	-0.171	
2.340	-0.185	-0.166	
2.345	0.180	-0.157	
2.350	-0.225	-0.126	
2.355	-0.280	-0.113	
2.360	0.175	-0.114	
2.365	-0.081	-0.094	
2.370	-0.335	-0.081	
2.375	-0.020	-0.096	
2.380	0.079	-0.099	
2.385	-0.324	-0.091	
2.390	-0.187	-0.105	
2.395	0.151	-0.118	
2.400	-0.269	-0.109	
2.405	-0.347	-0.119	
2.410	0.015	-0.145	
2.415	-0.176	-0.154	
2.420	-0.407	-0.165	
2.425	-0.089	-0.189	
2.430	0.000	-0.193	
2.435	-0.373	-0.181	
2.440	-0.234	-0.187	
2.445	0.120	-0.188	
2.450	-0.232	-0.165	
2.455	-0.237	-0.150	
2.460	0.336	-0.132	
2.465	0.116	-0.073	
2.470	-0.174	-0.013	
2.475	0.240	0.020	
2.480	0.059	0.049	
2.485	-0.501	0.047	
2.490	-0.515	-0.029	
2.495	-0.356	-0.149	
2.500	-0.636	-0.266	
2.505	-0.659	-0.380	
2.510	-0.269	-0.469	
2.515	-0.324	-0.496	
2.520	-0.451	-0.481	
2.525	-0.035	-0.443	
2.530	0.175	-0.359	
2.535	-0.243	-0.248	
2.540	-0.057	-0.164	
2.545	0.435	-0.089	
2.550	-0.083	-0.002	
2.555	-0.142	0.047	
2.560	0.427	0.065	
2.565	0.116	0.100	
2.570	-0.210	0.120	
2.575	0.284	0.106	
2.580	0.391	0.115	
2.585	-0.158	0.140	
2.590	0.058	0.132	
2.595	0.554	0.128	
2.600	-0.005	0.156	
2.605	-0.078	0.162	
2.610	0.565	0.154	
2.615	0.296	0.184	
2.620	-0.095	0.214	
2.625	0.475	0.216	
2.630	0.602	0.244	
2.635	-0.048	0.288	
2.640	0.214	0.290	
2.645	0.681	0.286	
2.650	0.058	0.307	
2.655	-0.074	0.294	
2.660	0.513	0.253	
2.665	0.172	0.238	
2.670	-0.213	0.216	
2.675	0.189	0.163	
2.680	0.249	0.126	
2.685	-0.262	0.104	
2.690	-0.126	0.055	
2.695	0.244	0.009	
2.700	-0.219	-0.009	
2.705	-0.292	-0.038	
2.710	0.149	-0.076	
2.715	-0.101	-0.085	
2.720	-0.352	-0.092	
2.725	-0.042	-0.118	
2.730	0.053	-0.126	
2.735	-0.332	-0.119	
2.740	-0.197	-0.131	
2.745	0.159	-0.139	
2.750	-0.263	-0.124	
2.755	-0.318	-0.125	
2.760	0.104	-0.139	
2.765	-0.121	-0.131	
2.770	-0.368	-0.127	
2.775	-0.045	-0.142	
2.780	0.078	-0.142	
2.785	-0.320	-0.125	
2.790	-0.162	-0.127	
2.795	0.232	-0.123	
2.800	-0.220	-0.095	
2.805	-0.286	-0.087	
2.810	0.166	-0.095	
2.815	-0.090	-0.084	
2.820	-0.364	-0.080	
2.825	-0.071	-0.105	
2.830	-0.008	-0.121	
2.835	-0.391	-0.129	
2.840	-0.258	-0.157	
2.845	0.027	-0.183	
2.850	-0.324	-0.186	
2.855	-0.370	-0.199	
2.860	-0.011	-0.218	
2.865	-0.199	-0.215	
2.870	-0.431	-0.212	
2.875	-0.100	-0.225	
2.880	0.055	-0.217	
2.885	-0.300	-0.186	
2.890	-0.090	-0.166	
2.895	0.499	-0.124	
2.900	0.017	-0.038	
2.905	-0.150	0.029	
2.910	0.085	0.047	
2.915	-0.342	0.033	
2.920	-0.735	-0.042	
2.925	-0.549	-0.180	
2.930	-0.480	-0.321	
2.935	-0.732	-0.435	
2.940	-0.514	-0.524	
2.945	-0.150	-0.559	
2.950	-0.344	-0.527	
2.955	-0.318	-0.467	
2.960	0.215	-0.387	
2.965	0.006	-0.270	
2.970	-0.265	-0.165	
2.975	0.149	-0.100	
2.980	0.310	-0.034	
2.985	-0.194	0.032	
2.990	-0.011	0.054	
2.995	0.469	0.066	
3.000	-0.074	0.100	
3.005	-0.144	0.106	
3.010	0.447	0.093	
3.015	0.156	0.112	
3.020	-0.202	0.126	
3.025	0.264	0.110	
3.030	0.402	0.116	
3.035	-0.144	0.140	
3.040	0.058	0.134	
3.045	0.560	0.131	
3.050	0.029	0.161	
3.055	-0.046	0.172	
3.060	0.596	0.171	
3.065	0.316	0.206	
3.070	-0.113	0.236	
3.075	0.380	0.230	
3.080	0.464	0.235	
3.085	-0.141	0.248	
3.090	0.017	0.218	
3.095	0.469	0.180	
3.100	-0.104	0.167	
3.105	-0.216	0.132	
3.110	0.249	0.077	
3.115	-0.049	0.047	
3.120	-0.313	0.016	
3.125	0.009	-0.033	
3.130	0.096	-0.061	
3.135	-0.320	-0.068	
3.140	-0.196	-0.093	
3.145	0.168	-0.114	
3.150	-0.234	-0.107	
3.155	-0.304	-0.112	
3.160	0.105	-0.128	
3.165	-0.116	-0.122	
3.170	-0.365	-0.119	
3.175	-0.069	-0.138	
3.180	0.020	-0.144	
3.185	-0.353	-0.138	
3.190	-0.222	-0.152	
3.195	0.142	-0.161	
3.200	-0.254	-0.144	
3.205	-0.324	-0.141	
3.210	0.079	-0.152	
3.215	-0.124	-0.142	
3.220	-0.359	-0.136	
3.225	-0.019	-0.147	
3.230	0.101	-0.139	
3.235	-0.323	-0.116	
3.240	-0.190	-0.117	
3.245	0.186	-0.120	
3.250	-0.242	-0.102	
3.255	-0.330	-0.103	
3.260	0.039	-0.125	
3.265	-0.155	-0.131	
3.270	-0.407	-0.141	
3.275	-0.119	-0.170	
3.280	-0.060	-0.186	
3.285	-0.416	-0.189	
3.290	-0.281	-0.210	
3.295	0.017	-0.226	
3.300	-0.307	-0.218	
3.305	-0.355	-0.218	
3.310	0.065	-0.221	
3.315	-0.103	-0.197	
3.320	-0.309	-0.170	
3.325	0.149	-0.151	
3.330	0.411	-0.096	
3.335	-0.080	-0.010	
3.340	0.075	0.049	
3.345	0.197	0.082	
3.350	-0.445	0.084	
3.355	-0.686	0.005	
3.360	-0.457	-0.139	
3.365	-0.569	-0.284	
3.370	-0.718	-0.410	
3.375	-0.365	-0.506	
3.380	-0.188	-0.535	
3.385	-0.402	-0.503	
3.390	-0.176	-0.449	
3.395	0.330	-0.359	
3.400	-0.113	-0.231	
3.405	-0.165	-0.129	
3.410	0.423	-0.055	
3.415	0.178	0.030	
3.420	-0.170	0.095	
3.425	0.304	0.116	
3.430	0.437	0.145	
3.435	-0.132	0.181	
3.440	0.081	0.177	
3.445	0.567	0.170	
3.450	0.038	0.193	
3.455	-0.063	0.195	
3.460	0.573	0.183	
3.465	0.325	0.208	
3.470	-0.080	0.235	
3.475	0.472	0.234	
3.480	0.635	0.259	
3.485	0.030	0.306	
3.490	0.319	0.319	
3.495	0.814	0.335	
3.500	0.240	0.382	
3.505	0.084	0.398	
3.510	0.699	0.384	
3.515	0.427	0.394	
3.520	-0.060	0.395	
3.525	0.421	0.356	
3.530	0.513	0.331	
3.535	-0.100	0.320	
3.540	0.075	0.273	
3.545	0.501	0.225	
3.550	-0.080	0.206	
3.555	-0.182	0.166	
3.560	0.314	0.110	
3.565	0.027	0.084	
3.570	-0.287	0.059	
3.575	0.052	0.013	
3.580	0.192	-0.011	
3.585	-0.269	-0.014	
3.590	-0.144	-0.035	
3.595	0.230	-0.054	
3.600	-0.208	-0.048	
3.605	-0.274	-0.058	
3.610	0.168	-0.079	
3.615	-0.080	-0.076	
3.620	-0.335	-0.075	
3.625	-0.016	-0.096	
3.630	0.111	-0.101	
3.635	-0.295	-0.088	
3.640	-0.164	-0.096	
3.645	0.206	-0.101	
3.650	-0.210	-0.083	
3.655	-0.280	-0.082	
3.660	0.192	-0.093	
3.665	-0.026	-0.077	
3.670	-0.301	-0.063	
3.675	0.012	-0.073	
3.680	0.128	-0.071	
3.685	-0.301	-0.059	
3.690	-0.179	-0.072	
3.695	0.198	-0.086	
3.700	-0.245	-0.079	
3.705	-0.329	-0.089	
3.710	0.047	-0.117	
3.715	-0.162	-0.128	
3.720	-0.401	-0.141	
3.725	-0.116	-0.171	
3.730	-0.029	-0.185	
3.735	-0.368	-0.183	
3.740	-0.236	-0.194	
3.745	0.122	-0.197	
3.750	-0.234	-0.172	
3.755	-0.265	-0.157	
3.760	0.290	-0.142	
3.765	0.125	-0.088	
3.770	-0.168	-0.028	
3.775	0.279	0.010	
3.780	0.186	0.053	
3.785	-0.460	0.073	
3.790	-0.540	0.011	
3.795	-0.443	-0.113	
3.800	-0.708	-0.252	
3.805	-0.712	-0.392	
3.810	-0.332	-0.502	
3.815	-0.367	-0.544	
3.820	-0.501	-0.537	
3.825	-0.124	-0.503	
3.830	0.108	-0.423	
3.835	-0.263	-0.314	
3.840	-0.107	-0.226	
3.845	0.351	-0.147	
3.850	-0.126	-0.060	
3.855	-0.194	-0.010	
3.860	0.350	0.009	
3.865	0.090	0.044	
3.870	-0.225	0.067	
3.875	0.206	0.059	
3.880	0.351	0.069	
3.885	-0.165	0.095	
3.890	0.026	0.093	
3.895	0.528	0.094	
3.900	0.009	0.127	
3.905	-0.081	0.142	
3.910	0.565	0.142	
3.915	0.330	0.179	
3.920	-0.057	0.218	
3.925	0.479	0.229	
3.930	0.638	0.264	
3.935	0.049	0.315	
3.940	0.304	0.330	
3.945	0.751	0.342	
3.950	0.189	0.376	
3.955	0.024	0.377	
3.960	0.628	0.348	
3.965	0.319	0.343	
3.970	-0.138	0.329	
3.975	0.276	0.277	
3.980	0.359	0.235	
3.985	-0.187	0.209	
3.990	-0.054	0.154	
3.995	0.350	0.101	
4.000	-0.156	0.079	
4.005	-0.236	0.045	
4.010	0.255	0.002	
4.015	0.013	-0.006	
4.020	-0.287	-0.009	
4.025	0.049	-0.032	
4.030	0.181	-0.038	
4.035	-0.254	-0.027	
4.040	-0.107	-0.036	
4.045	0.337	-0.040	
4.050	-0.158	-0.016	
4.055	-0.239	-0.011	
4.060	0.243	-0.025	
4.065	-0.003	-0.016	
4.070	-0.287	-0.011	
4.075	0.075	-0.029	
4.080	0.229	-0.029	
4.085	-0.232	-0.010	
4.090	-0.092	-0.014	
4.095	0.377	-0.015	
4.100	-0.106	0.013	
4.105	-0.200	0.023	
4.110	0.308	0.014	
4.115	0.036	0.028	
4.120	-0.271	0.035	
4.125	0.084	0.012	
4.130	0.211	0.004	
4.135	-0.268	0.010	
4.140	-0.158	-0.011	
4.145	0.215	-0.036	
4.150	-0.214	-0.039	
4.155	-0.301	-0.057	
4.160	0.114	-0.088	
4.165	-0.098	-0.095	
4.170	-0.346	-0.100	
4.175	-0.035	-0.123	
4.180	0.093	-0.126	
4.185	-0.281	-0.110	
4.190	-0.107	-0.109	
4.195	0.409	-0.092	
4.200	-0.029	-0.035	
4.205	-0.084	0.011	
4.210	0.518	0.047	
4.215	0.068	0.103	
4.220	-0.401	0.123	
4.225	-0.309	0.062	
4.230	-0.373	-0.043	
4.235	-0.672	-0.167	
4.240	-0.508	-0.300	
4.245	-0.200	-0.397	
4.250	-0.404	-0.432	
4.255	-0.393	-0.434	
4.260	0.127	-0.404	
4.265	-0.002	-0.321	
4.270	-0.245	-0.227	
4.275	0.198	-0.152	
4.280	0.394	-0.062	
4.285	-0.127	0.033	
4.290	0.090	0.085	
4.295	0.577	0.123	
4.300	0.041	0.179	
4.305	-0.069	0.200	
4.310	0.536	0.194	
4.315	0.282	0.215	
4.320	-0.132	0.230	
4.325	0.345	0.212	
4.330	0.499	0.212	
4.335	-0.054	0.233	
4.340	0.188	0.227	
4.345	0.667	0.228	
4.350	0.148	0.263	
4.355	0.038	0.278	
4.360	0.698	0.277	
4.365	0.473	0.313	
4.370	0.009	0.349	
4.375	0.530	0.350	
4.380	0.663	0.365	
4.385	0.046	0.393	
4.390	0.264	0.381	
4.395	0.696	0.364	
4.400	0.108	0.369	
4.405	-0.064	0.343	
4.410	0.476	0.288	
4.415	0.181	0.257	
4.420	-0.207	0.224	
4.425	0.152	0.162	
4.430	0.258	0.119	
4.435	-0.232	0.095	
4.440	-0.119	0.051	
4.445	0.288	0.012	
4.450	-0.162	0.004	
4.455	-0.236	-0.013	
4.460	0.224	-0.038	
4.465	-0.023	-0.035	
4.470	-0.286	-0.031	
4.475	0.039	-0.050	
4.480	0.185	-0.051	
4.485	-0.257	-0.035	
4.490	-0.119	-0.041	
4.495	0.310	-0.045	
4.500	-0.153	-0.023	
4.505	-0.240	-0.019	
4.510	0.230	-0.032	
4.515	-0.003	-0.022	
4.520	-0.266	-0.015	
4.525	0.113	-0.029	
4.530	0.278	-0.019	
4.535	-0.202	0.011	
4.540	-0.072	0.014	
4.545	0.363	0.014	
4.550	-0.139	0.035	
4.555	-0.226	0.033	
4.560	0.224	0.008	
4.565	-0.038	0.003	
4.570	-0.324	-0.008	
4.575	-0.045	-0.046	
4.580	0.047	-0.073	
4.585	-0.329	-0.086	
4.590	-0.211	-0.114	
4.595	0.154	-0.134	
4.600	-0.237	-0.126	
4.605	-0.306	-0.128	
4.610	0.142	-0.137	
4.615	-0.052	-0.120	
4.620	-0.300	-0.102	
4.625	0.079	-0.100	
4.630	0.292	-0.074	
4.635	-0.155	-0.024	
4.640	0.081	0.008	
4.645	0.508	0.046	
4.650	-0.171	0.099	
4.655	-0.425	0.095	
4.660	-0.280	0.015	
4.665	-0.475	-0.094	
4.670	-0.671	-0.218	
4.675	-0.381	-0.340	
4.680	-0.251	-0.415	
4.685	-0.472	-0.438	
4.690	-0.281	-0.436	
4.695	0.125	-0.397	
4.700	-0.187	-0.315	
4.705	-0.211	-0.237	
4.710	0.347	-0.167	
4.715	0.107	-0.075	
4.720	-0.217	0.000	
4.725	0.201	0.031	
4.730	0.356	0.066	
4.735	-0.148	0.106	
4.740	0.039	0.110	
4.745	0.519	0.113	
4.750	-0.006	0.143	
4.755	-0.115	0.149	
4.760	0.460	0.135	
4.765	0.230	0.151	
4.770	-0.145	0.167	
4.775	0.347	0.157	
4.780	0.518	0.172	
4.785	-0.057	0.209	
4.790	0.169	0.215	
4.795	0.664	0.222	
4.800	0.151	0.261	
4.805	0.018	0.277	
4.810	0.623	0.271	
4.815	0.357	0.293	
4.820	-0.097	0.307	
4.825	0.351	0.281	
4.830	0.444	0.265	
4.835	-0.145	0.258	
4.840	-0.023	0.214	
4.845	0.366	0.160	
4.850	-0.148	0.130	
4.855	-0.266	0.082	
4.860	0.117	0.018	
4.865	-0.113	-0.024	
4.870	-0.364	-0.062	
4.875	-0.098	-0.113	
4.880	-0.006	-0.143	
4.885	-0.356	-0.153	
4.890	-0.237	-0.174	
4.895	0.073	-0.187	
4.900	-0.271	-0.175	
4.905	-0.333	-0.175	
4.910	0.039	-0.183	
4.915	-0.138	-0.172	
4.920	-0.373	-0.163	
4.925	-0.080	-0.173	
4.930	0.042	-0.168	
4.935	-0.329	-0.150	
4.940	-0.202	-0.151	
4.945	0.171	-0.150	
4.950	-0.194	-0.124	
4.955	-0.251	-0.110	
4.960	0.189	-0.106	
4.965	-0.038	-0.081	
4.970	-0.295	-0.062	
4.975	0.015	-0.069	
4.980	0.139	-0.066	
4.985	-0.292	-0.052	
4.990	-0.181	-0.065	
4.995	0.171	-0.081	
5.000	-0.228	-0.077	
5.005	-0.307	-0.089	
5.010	0.064	-0.114	
5.015	-0.133	-0.119	
5.020	-0.371	-0.127	
5.025	-0.083	-0.151	
5.030	0.029	-0.159	
5.035	-0.332	-0.150	
5.040	-0.205	-0.156	
5.045	0.146	-0.158	
5.050	-0.207	-0.135	
5.055	-0.243	-0.123	
5.060	0.267	-0.114	
5.065	0.114	-0.069	
5.070	-0.155	-0.019	
5.075	0.350	0.016	
5.080	0.362	0.073	
5.085	-0.307	0.122	
5.090	-0.361	0.096	
5.095	-0.271	0.005	
5.100	-0.576	-0.109	
5.105	-0.613	-0.238	
5.110	-0.265	-0.354	
5.115	-0.330	-0.413	
5.120	-0.491	-0.431	
5.125	-0.138	-0.428	
5.130	0.076	-0.379	
5.135	-0.255	-0.296	
5.140	-0.092	-0.225	
5.145	0.366	-0.152	
5.150	-0.095	-0.063	
5.155	-0.152	-0.006	
5.160	0.392	0.023	
5.165	0.160	0.069	
5.170	-0.182	0.104	
5.175	0.249	0.104	
5.180	0.389	0.117	
5.185	-0.133	0.143	
5.190	0.053	0.138	
5.195	0.510	0.132	
5.200	0.012	0.155	
5.205	-0.081	0.158	
5.210	0.507	0.147	
5.215	0.287	0.171	
5.220	-0.095	0.197	
5.225	0.418	0.197	
5.230	0.577	0.221	
5.235	0.007	0.265	
5.240	0.250	0.277	
5.245	0.724	0.288	
5.250	0.183	0.328	
5.255	0.013	0.337	
5.260	0.585	0.317	
5.265	0.290	0.316	
5.270	-0.141	0.304	
5.275	0.233	0.254	
5.280	0.313	0.212	
5.285	-0.216	0.181	
5.290	-0.124	0.122	
5.295	0.247	0.060	
5.300	-0.196	0.027	
5.305	-0.281	-0.014	
5.310	0.124	-0.061	
5.315	-0.086	-0.078	
5.320	-0.318	-0.089	
5.325	-0.011	-0.112	
5.330	0.110	-0.113	
5.335	-0.287	-0.096	
5.340	-0.156	-0.099	
5.345	0.246	-0.098	
5.350	-0.194	-0.073	
5.355	-0.272	-0.067	
5.360	0.157	-0.078	
5.365	-0.055	-0.070	
5.370	-0.304	-0.065	
5.375	0.024	-0.080	
5.380	0.152	-0.077	
5.385	-0.268	-0.059	
5.390	-0.133	-0.063	
5.395	0.287	-0.065	
5.400	-0.150	-0.040	
5.405	-0.229	-0.032	
5.410	0.221	-0.040	
5.415	-0.028	-0.028	
5.420	-0.312	-0.024	
5.425	-0.017	-0.048	
5.430	0.105	-0.062	
5.435	-0.303	-0.063	
5.440	-0.202	-0.084	
5.445	0.122	-0.106	
5.450	-0.255	-0.107	
5.455	-0.335	-0.121	
5.460	0.039	-0.147	
5.465	-0.132	-0.150	
5.470	-0.376	-0.152	
5.475	-0.106	-0.170	
5.480	-0.003	-0.175	
5.485	-0.335	-0.166	
5.490	-0.184	-0.170	
5.495	0.259	-0.161	
5.500	-0.118	-0.117	
5.505	-0.139	-0.079	
5.510	0.455	-0.043	
5.515	0.117	0.023	
5.520	-0.358	0.067	
5.525	-0.272	0.036	
5.530	-0.352	-0.044	
5.535	-0.688	-0.152	
5.540	-0.564	-0.282	
5.545	-0.295	-0.392	
5.550	-0.480	-0.449	
5.555	-0.460	-0.473	
5.560	-0.026	-0.464	
5.565	-0.080	-0.401	
5.570	-0.274	-0.317	
5.575	0.149	-0.239	
5.580	0.347	-0.140	
5.585	-0.150	-0.033	
5.590	0.035	0.029	
5.595	0.499	0.074	
5.600	-0.009	0.129	
5.605	-0.116	0.150	
5.610	0.438	0.141	
5.615	0.221	0.156	
5.620	-0.159	0.168	
5.625	0.302	0.152	
5.630	0.460	0.158	
5.635	-0.101	0.184	
5.640	0.110	0.179	
5.645	0.600	0.177	
5.650	0.101	0.208	
5.655	-0.008	0.222	
5.660	0.621	0.220	
5.665	0.406	0.254	
5.670	-0.025	0.289	
5.675	0.489	0.292	
5.680	0.628	0.312	
5.685	0.024	0.346	
5.690	0.240	0.341	
5.695	0.637	0.329	
5.700	0.067	0.334	
5.705	-0.092	0.307	
5.710	0.438	0.252	
5.715	0.145	0.221	
5.720	-0.225	0.188	
5.725	0.114	0.129	
5.730	0.232	0.086	
5.735	-0.251	0.065	
5.740	-0.141	0.023	
5.745	0.256	-0.014	
5.750	-0.179	-0.021	
5.755	-0.255	-0.037	
5.760	0.186	-0.061	
5.765	-0.042	-0.058	
5.770	-0.301	-0.055	
5.775	0.012	-0.073	
5.780	0.136	-0.075	
5.785	-0.275	-0.061	
5.790	-0.147	-0.069	
5.795	0.235	-0.076	
5.800	-0.193	-0.059	
5.805	-0.262	-0.059	
5.810	0.194	-0.072	
5.815	-0.038	-0.061	
5.820	-0.300	-0.053	
5.825	0.012	-0.068	
5.830	0.171	-0.068	
5.835	-0.252	-0.050	
5.840	-0.115	-0.053	
5.845	0.322	-0.052	
5.850	-0.136	-0.024	
5.855	-0.223	-0.014	
5.860	0.227	-0.022	
5.865	-0.011	-0.012	
5.870	-0.286	-0.009	
5.875	0.035	-0.031	
5.880	0.134	-0.040	
5.885	-0.294	-0.036	
5.890	-0.179	-0.057	
5.895	0.156	-0.080	
5.900	-0.242	-0.081	
5.905	-0.315	-0.097	
5.910	0.085	-0.123	
5.915	-0.106	-0.124	
5.920	-0.346	-0.124	
5.925	-0.078	-0.141	
5.930	0.053	-0.144	
5.935	-0.284	-0.131	
5.940	-0.110	-0.129	
5.945	0.412	-0.109	
5.950	0.015	-0.045	
5.955	-0.040	0.013	
5.960	0.504	0.060	
5.965	-0.035	0.115	
5.970	-0.482	0.118	
5.975	-0.414	0.033	
5.980	-0.443	-0.096	
5.985	-0.724	-0.235	
5.990	-0.564	-0.373	
5.995	-0.266	-0.470	
6.000	-0.420	-0.501	
6.005	-0.393	-0.493	
6.010	0.081	-0.450	
6.015	-0.016	-0.357	
6.020	-0.242	-0.254	
6.025	0.177	-0.172	
6.030	0.339	-0.079	
6.035	-0.155	0.014	
6.040	0.030	0.060	
6.045	0.501	0.090	
6.050	0.007	0.136	
6.055	-0.107	0.153	
6.060	0.444	0.143	
6.065	0.209	0.158	
6.070	-0.152	0.169	
6.075	0.321	0.154	
6.080	0.470	0.162	
6.085	-0.072	0.191	
6.090	0.171	0.193	
6.095	0.666	0.202	
6.100	0.181	0.246	
6.105	0.072	0.273	
6.110	0.699	0.284	
6.115	0.467	0.326	
6.120	0.049	0.364	
6.125	0.568	0.368	
6.130	0.692	0.388	
6.135	0.052	0.419	
6.140	0.226	0.404	
6.145	0.643	0.375	
6.150	0.097	0.366	
6.155	-0.054	0.330	
6.160	0.498	0.274	
6.165	0.195	0.248	
6.170	-0.196	0.222	
6.175	0.163	0.166	
6.180	0.250	0.126	
6.185	-0.220	0.103	
6.190	-0.098	0.060	
6.195	0.316	0.023	
6.200	-0.145	0.018	
6.205	-0.225	0.003	
6.210	0.240	-0.021	
6.215	-0.003	-0.017	
6.220	-0.289	-0.015	
6.225	0.023	-0.037	
6.230	0.152	-0.045	
6.235	-0.272	-0.038	
6.240	-0.159	-0.053	
6.245	0.197	-0.069	
6.250	-0.223	-0.063	
6.255	-0.304	-0.075	
6.260	0.085	-0.101	
6.265	-0.100	-0.106	
6.270	-0.332	-0.109	
6.275	-0.037	-0.128	
6.280	0.096	-0.128	
6.285	-0.291	-0.110	
6.290	-0.156	-0.111	
6.295	0.256	-0.107	
6.300	-0.165	-0.076	
6.305	-0.240	-0.062	
6.310	0.198	-0.064	
6.315	-0.034	-0.047	
6.320	-0.301	-0.038	
6.325	-0.011	-0.057	
6.330	0.096	-0.066	
6.335	-0.310	-0.064	
6.340	-0.202	-0.085	
6.345	0.101	-0.108	
6.350	-0.281	-0.112	
6.355	-0.358	-0.132	
6.360	-0.032	-0.164	
6.365	-0.197	-0.179	
6.370	-0.423	-0.192	
6.375	-0.153	-0.218	
6.380	-0.057	-0.227	
6.385	-0.347	-0.218	
6.390	-0.188	-0.217	
6.395	0.285	-0.196	
6.400	-0.064	-0.135	
6.405	-0.060	-0.076	
6.410	0.620	-0.013	
6.415	0.282	0.088	
6.420	-0.313	0.162	
6.425	-0.284	0.139	
6.430	-0.410	0.043	
6.435	-0.763	-0.099	
6.440	-0.651	-0.269	
6.445	-0.359	-0.415	
6.450	-0.511	-0.497	
6.455	-0.463	-0.531	
6.460	-0.009	-0.516	
6.465	-0.060	-0.439	
6.470	-0.254	-0.337	
6.475	0.178	-0.243	
6.480	0.336	-0.132	
6.485	-0.155	-0.021	
6.490	0.035	0.041	
6.495	0.513	0.083	
6.500	0.018	0.138	
6.505	-0.090	0.161	
6.510	0.460	0.156	
6.515	0.230	0.174	
6.520	-0.138	0.187	
6.525	0.322	0.171	
6.530	0.475	0.177	
6.535	-0.064	0.203	
6.540	0.162	0.202	
6.545	0.644	0.206	
6.550	0.162	0.244	
6.555	0.052	0.265	
6.560	0.675	0.270	
6.565	0.461	0.308	
6.570	0.053	0.346	
6.575	0.553	0.353	
6.580	0.687	0.376	
6.585	0.087	0.411	
6.590	0.290	0.406	
6.595	0.701	0.391	
6.600	0.154	0.397	
6.605	-0.019	0.372	
6.610	0.518	0.321	
6.615	0.252	0.295	
6.620	-0.159	0.267	
6.625	0.226	0.212	
6.630	0.334	0.174	
6.635	-0.194	0.156	
6.640	-0.072	0.112	
6.645	0.350	0.071	
6.650	-0.130	0.060	
6.655	-0.214	0.038	
6.660	0.236	0.005	
6.665	-0.020	-0.001	
6.670	-0.294	-0.008	
6.675	0.007	-0.038	
6.680	0.133	-0.052	
6.685	-0.274	-0.050	
6.690	-0.164	-0.066	
6.695	0.192	-0.081	
6.700	-0.207	-0.072	
6.705	-0.287	-0.078	
6.710	0.093	-0.099	
6.715	-0.101	-0.100	
6.720	-0.333	-0.102	
6.725	-0.046	-0.122	
6.730	0.101	-0.124	
6.735	-0.277	-0.108	
6.740	-0.150	-0.108	
6.745	0.255	-0.103	
6.750	-0.158	-0.072	
6.755	-0.225	-0.057	
6.760	0.253	-0.055	
6.765	0.021	-0.030	
6.770	-0.266	-0.011	
6.775	0.059	-0.020	
6.780	0.180	-0.020	
6.785	-0.254	-0.008	
6.790	-0.148	-0.023	
6.795	0.195	-0.042	
6.800	-0.210	-0.043	
6.805	-0.297	-0.059	
6.810	0.059	-0.090	
6.815	-0.132	-0.103	
6.820	-0.362	-0.117	
6.825	-0.103	-0.146	
6.830	0.000	-0.160	
6.835	-0.332	-0.157	
6.840	-0.188	-0.166	
6.845	0.243	-0.161	
6.850	-0.126	-0.121	
6.855	-0.132	-0.086	
6.860	0.516	-0.047	
6.865	0.376	0.040	
6.870	-0.107	0.129	
6.875	-0.009	0.156	
6.880	-0.210	0.125	
6.885	-0.669	0.036	
6.890	-0.637	-0.115	
6.895	-0.394	-0.276	
6.900	-0.552	-0.396	
6.905	-0.527	-0.475	
6.910	-0.138	-0.507	
6.915	-0.168	-0.474	
6.920	-0.313	-0.406	
6.925	0.107	-0.330	
6.930	0.304	-0.222	
6.935	-0.156	-0.102	
6.940	0.024	-0.024	
6.945	0.486	0.037	
6.950	0.010	0.106	
6.955	-0.077	0.140	
6.960	0.496	0.148	
6.965	0.287	0.179	
6.970	-0.112	0.206	
6.975	0.345	0.200	
6.980	0.498	0.210	
6.985	-0.064	0.235	
6.990	0.146	0.227	
6.995	0.615	0.221	
7.000	0.154	0.247	
7.005	0.049	0.260	
7.010	0.658	0.260	
7.015	0.427	0.295	
7.020	0.039	0.329	
7.025	0.596	0.336	
7.030	0.725	0.368	
7.035	0.162	0.417	
7.040	0.386	0.431	
7.045	0.822	0.439	
7.050	0.267	0.468	
7.055	0.099	0.463	
7.060	0.631	0.426	
7.065	0.331	0.407	
7.070	-0.119	0.377	
7.075	0.233	0.307	
7.080	0.282	0.246	
7.085	-0.208	0.197	
7.090	-0.106	0.126	
7.095	0.240	0.059	
7.100	-0.177	0.025	
7.105	-0.265	-0.014	
7.110	0.114	-0.058	
7.115	-0.086	-0.075	
7.120	-0.323	-0.087	
7.125	-0.066	-0.113	
7.130	0.027	-0.125	
7.135	-0.317	-0.123	
7.140	-0.205	-0.137	
7.145	0.120	-0.146	
7.150	-0.232	-0.133	
7.155	-0.306	-0.132	
7.160	0.058	-0.143	
7.165	-0.127	-0.137	
7.170	-0.342	-0.134	
7.175	-0.068	-0.148	
7.180	0.035	-0.148	
7.185	-0.310	-0.135	
7.190	-0.177	-0.139	
7.195	0.183	-0.137	
7.200	-0.185	-0.111	
7.205	-0.246	-0.098	
7.210	0.198	-0.095	
7.215	-0.017	-0.070	
7.220	-0.272	-0.050	
7.225	0.042	-0.055	
7.230	0.183	-0.047	
7.235	-0.243	-0.027	
7.240	-0.133	-0.032	
7.245	0.217	-0.043	
7.250	-0.202	-0.035	
7.255	-0.274	-0.046	
7.260	0.082	-0.074	
7.265	-0.122	-0.085	
7.270	-0.346	-0.098	
7.275	-0.063	-0.127	
7.280	0.056	-0.137	
7.285	-0.291	-0.127	
7.290	-0.168	-0.131	
7.295	0.218	-0.128	
7.300	-0.136	-0.097	
7.305	-0.162	-0.073	
7.310	0.429	-0.050	
7.315	0.313	0.017	
7.320	-0.034	0.094	
7.325	0.301	0.140	
7.330	0.088	0.167	
7.335	-0.477	0.149	
7.340	-0.521	0.049	
7.345	-0.350	-0.095	
7.350	-0.541	-0.230	
7.355	-0.540	-0.345	
7.360	-0.171	-0.420	
7.365	-0.200	-0.430	
7.370	-0.330	-0.397	
7.375	0.081	-0.343	
7.380	0.301	-0.248	
7.385	-0.132	-0.129	
7.390	0.079	-0.042	
7.395	0.536	0.035	
7.400	0.065	0.122	
7.405	-0.031	0.172	
7.410	0.548	0.190	
7.415	0.311	0.228	
7.420	-0.080	0.254	
7.425	0.406	0.246	
7.430	0.539	0.256	
7.435	0.000	0.281	
7.440	0.220	0.277	
7.445	0.658	0.275	
7.450	0.191	0.302	
7.455	0.087	0.312	
7.460	0.683	0.308	
7.465	0.470	0.337	
7.470	0.084	0.368	
7.475	0.591	0.372	
7.480	0.733	0.398	
7.485	0.178	0.440	
7.490	0.409	0.449	
7.495	0.809	0.454	
7.500	0.281	0.479	
7.505	0.139	0.472	
7.510	0.663	0.438	
7.515	0.377	0.426	
7.520	-0.060	0.404	
7.525	0.359	0.347	
7.530	0.429	0.305	
7.535	-0.136	0.278	
7.540	-0.014	0.220	
7.545	0.369	0.160	
7.550	-0.119	0.129	
7.555	-0.200	0.087	
7.560	0.253	0.038	
7.565	0.010	0.021	
7.570	-0.252	0.010	
7.575	0.081	-0.016	
7.580	0.195	-0.021	
7.585	-0.220	-0.008	
7.590	-0.074	-0.015	
7.595	0.334	-0.017	
7.600	-0.132	0.006	
7.605	-0.196	0.011	
7.610	0.250	-0.001	
7.615	0.012	0.007	
7.620	-0.243	0.012	
7.625	0.094	-0.006	
7.630	0.218	-0.006	
7.635	-0.200	0.011	
7.640	-0.051	0.006	
7.645	0.395	0.007	
7.650	-0.052	0.038	
7.655	-0.136	0.053	
7.660	0.342	0.052	
7.665	0.072	0.070	
7.670	-0.217	0.078	
7.675	0.142	0.058	
7.680	0.238	0.051	
7.685	-0.213	0.057	
7.690	-0.083	0.037	
7.695	0.281	0.016	
7.700	-0.152	0.018	
7.705	-0.226	0.004	
7.710	0.177	-0.023	
7.715	-0.060	-0.029	
7.720	-0.292	-0.038	
7.725	-0.002	-0.065	
7.730	0.117	-0.074	
7.735	-0.260	-0.066	
7.740	-0.113	-0.074	
7.745	0.325	-0.072	
7.750	-0.084	-0.036	
7.755	-0.104	-0.010	
7.760	0.516	0.015	
7.765	0.360	0.084	
7.770	-0.040	0.158	
7.775	0.233	0.189	
7.780	-0.002	0.189	
7.785	-0.480	0.142	
7.790	-0.465	0.027	
7.795	-0.262	-0.111	
7.800	-0.477	-0.226	
7.805	-0.477	-0.319	
7.810	-0.129	-0.378	
7.815	-0.177	-0.379	
7.820	-0.306	-0.346	
7.825	0.119	-0.297	
7.830	0.319	-0.206	
7.835	-0.124	-0.095	
7.840	0.110	-0.014	
7.845	0.544	0.058	
7.850	0.068	0.141	
7.855	-0.035	0.185	
7.860	0.530	0.198	
7.865	0.272	0.227	
7.870	-0.100	0.244	
7.875	0.376	0.228	
7.880	0.508	0.232	
7.885	-0.008	0.255	
7.890	0.221	0.252	
7.895	0.658	0.254	
7.900	0.146	0.286	
7.905	0.068	0.296	
7.910	0.681	0.291	
7.915	0.424	0.320	
7.920	0.023	0.347	
7.925	0.556	0.344	
7.930	0.695	0.363	
7.935	0.160	0.403	
7.940	0.380	0.412	
7.945	0.768	0.419	
7.950	0.208	0.443	
7.955	0.084	0.431	
7.960	0.615	0.392	
7.965	0.290	0.374	
7.970	-0.132	0.345	
7.975	0.250	0.280	
7.980	0.302	0.228	
7.985	-0.190	0.190	
7.990	-0.074	0.130	
7.995	0.270	0.073	
8.000	-0.159	0.046	
8.005	-0.223	0.012	
8.010	0.194	-0.027	
8.015	-0.037	-0.034	
8.020	-0.269	-0.039	
8.025	0.035	-0.059	
8.030	0.139	-0.061	
8.035	-0.240	-0.047	
8.040	-0.104	-0.052	
8.045	0.241	-0.055	
8.050	-0.179	-0.037	
8.055	-0.232	-0.037	
8.060	0.214	-0.050	
8.065	-0.031	-0.040	
8.070	-0.266	-0.033	
8.075	0.070	-0.046	
8.080	0.166	-0.042	
8.085	-0.234	-0.025	
8.090	-0.092	-0.030	
8.095	0.305	-0.032	
8.100	-0.141	-0.010	
8.105	-0.194	-0.005	
8.110	0.267	-0.014	
8.115	-0.013	-0.000	
8.120	-0.269	0.005	
8.125	0.036	-0.017	
8.130	0.104	-0.029	
8.135	-0.286	-0.032	
8.140	-0.165	-0.056	
8.145	0.124	-0.081	
8.150	-0.248	-0.085	
8.155	-0.309	-0.103	
8.160	0.013	-0.133	
8.165	-0.181	-0.144	
8.170	-0.396	-0.157	
8.175	-0.144	-0.186	
8.180	-0.100	-0.202	
8.185	-0.390	-0.207	
8.190	-0.232	-0.222	
8.195	0.101	-0.223	
8.200	-0.202	-0.194	
8.205	-0.205	-0.167	
8.210	0.313	-0.136	
8.215	-0.008	-0.077	
8.220	-0.375	-0.038	
8.225	-0.289	-0.059	
8.230	-0.399	-0.121	
8.235	-0.734	-0.214	
8.240	-0.604	-0.333	
8.245	-0.356	-0.437	
8.250	-0.562	-0.494	
8.255	-0.538	-0.524	
8.260	-0.164	-0.525	
8.265	-0.232	-0.479	
8.270	-0.378	-0.415	
8.275	-0.037	-0.354	
8.280	0.090	-0.275	
8.285	-0.258	-0.191	
8.290	-0.097	-0.139	
8.295	0.284	-0.095	
8.300	-0.148	-0.041	
8.305	-0.177	-0.016	
8.310	0.321	-0.009	
8.315	0.047	0.020	
8.320	-0.219	0.039	
8.325	0.174	0.032	
8.330	0.264	0.040	
8.335	-0.179	0.061	
8.340	0.012	0.056	
8.345	0.443	0.057	
8.350	-0.031	0.087	
8.355	-0.078	0.099	
8.360	0.495	0.101	
8.365	0.238	0.137	
8.370	-0.092	0.169	
8.375	0.408	0.175	
8.380	0.501	0.203	
8.385	-0.051	0.241	
8.390	0.186	0.243	
8.395	0.554	0.239	
8.400	-0.006	0.253	
8.405	-0.103	0.233	
8.410	0.377	0.188	
8.415	0.035	0.163	
8.420	-0.260	0.129	
8.425	0.041	0.068	
8.430	0.070	0.021	
8.435	-0.318	-0.013	
8.440	-0.197	-0.062	
8.445	0.073	-0.105	
8.450	-0.262	-0.120	
8.455	-0.301	-0.141	
8.460	0.067	-0.161	
8.465	-0.141	-0.156	
8.470	-0.355	-0.151	
8.475	-0.066	-0.163	
8.480	0.010	-0.161	
8.485	-0.318	-0.147	
8.490	-0.173	-0.150	
8.495	0.143	-0.147	
8.500	-0.236	-0.125	
8.505	-0.269	-0.118	
8.510	0.127	-0.123	
8.515	-0.112	-0.109	
8.520	-0.318	-0.101	
8.525	-0.017	-0.113	
8.530	0.065	-0.112	
8.535	-0.287	-0.099	
8.540	-0.145	-0.104	
8.545	0.180	-0.106	
8.550	-0.222	-0.088	
8.555	-0.272	-0.087	
8.560	0.090	-0.102	
8.565	-0.136	-0.101	
8.570	-0.349	-0.107	
8.575	-0.090	-0.132	
8.580	-0.074	-0.148	
8.585	-0.391	-0.158	
8.590	-0.257	-0.185	
8.595	-0.013	-0.206	
8.600	-0.326	-0.207	
8.605	-0.368	-0.217	
8.610	-0.061	-0.233	
8.615	-0.217	-0.231	
8.620	-0.407	-0.229	
8.625	-0.126	-0.239	
8.630	-0.052	-0.233	
8.635	-0.317	-0.212	
8.640	-0.121	-0.200	
8.645	0.324	-0.168	
8.650	-0.078	-0.100	
8.655	-0.155	-0.048	
8.660	0.087	-0.027	
8.665	-0.317	-0.026	
8.670	-0.663	-0.076	
8.675	-0.504	-0.186	
8.680	-0.466	-0.304	
8.685	-0.686	-0.404	
8.690	-0.495	-0.486	
8.695	-0.225	-0.525	
8.700	-0.404	-0.509	
8.705	-0.358	-0.472	
8.710	0.072	-0.414	
8.715	-0.092	-0.324	
8.720	-0.283	-0.238	
8.725	0.067	-0.179	
8.730	0.162	-0.116	
8.735	-0.231	-0.057	
8.740	-0.051	-0.033	
8.745	0.348	-0.015	
8.750	-0.112	0.022	
8.755	-0.142	0.035	
8.760	0.371	0.034	
8.765	0.090	0.059	
8.770	-0.190	0.077	
8.775	0.244	0.069	
8.780	0.331	0.082	
8.785	-0.138	0.109	
8.790	0.113	0.109	
8.795	0.539	0.118	
8.800	0.046	0.158	
8.805	0.020	0.178	
8.810	0.589	0.187	
8.815	0.287	0.225	
8.820	-0.080	0.252	
8.825	0.385	0.242	
8.830	0.411	0.244	
8.835	-0.122	0.250	
8.840	0.075	0.217	
8.845	0.423	0.182	
8.850	-0.121	0.168	
8.855	-0.194	0.130	
8.860	0.198	0.072	
8.865	-0.101	0.036	
8.870	-0.330	-0.005	
8.875	-0.055	-0.061	
8.880	-0.023	-0.099	
8.885	-0.358	-0.121	
8.890	-0.226	-0.154	
8.895	0.046	-0.177	
8.900	-0.274	-0.174	
8.905	-0.315	-0.179	
8.910	0.038	-0.188	
8.915	-0.161	-0.176	
8.920	-0.353	-0.167	
8.925	-0.077	-0.176	
8.930	-0.043	-0.173	
8.935	-0.355	-0.163	
8.940	-0.199	-0.172	
8.945	0.116	-0.174	
8.950	-0.245	-0.153	
8.955	-0.274	-0.144	
8.960	0.114	-0.144	
8.965	-0.127	-0.126	
8.970	-0.313	-0.114	
8.975	0.039	-0.121	
8.980	0.130	-0.106	
8.985	-0.252	-0.077	
8.990	-0.092	-0.071	
8.995	0.253	-0.063	
9.000	-0.188	-0.037	
9.005	-0.226	-0.033	
9.010	0.188	-0.046	
9.015	-0.098	-0.042	
9.020	-0.320	-0.047	
9.025	-0.045	-0.077	
9.030	-0.035	-0.098	
9.035	-0.358	-0.112	
9.040	-0.217	-0.143	
9.045	0.024	-0.167	
9.050	-0.313	-0.171	
9.055	-0.339	-0.184	
9.060	-0.011	-0.203	
9.065	-0.187	-0.200	
9.070	-0.355	-0.196	
9.075	-0.011	-0.200	
9.080	0.117	-0.176	
9.085	-0.203	-0.132	
9.090	0.087	-0.095	
9.095	0.508	-0.037	
9.100	-0.133	0.043	
9.105	-0.339	0.070	
9.110	-0.248	0.021	
9.115	-0.552	-0.070	
9.120	-0.770	-0.200	
9.125	-0.501	-0.347	
9.130	-0.431	-0.457	
9.135	-0.608	-0.517	
9.140	-0.375	-0.545	
9.145	-0.060	-0.523	
9.150	-0.274	-0.452	
9.155	-0.245	-0.372	
9.160	0.229	-0.289	
9.165	-0.013	-0.186	
9.170	-0.216	-0.101	
9.175	0.211	-0.052	
9.180	0.269	0.004	
9.185	-0.159	0.058	
9.190	0.088	0.075	
9.195	0.464	0.092	
9.200	-0.029	0.129	
9.205	-0.061	0.139	
9.210	0.473	0.133	
9.215	0.206	0.156	
9.220	-0.086	0.176	
9.225	0.423	0.174	
9.230	0.490	0.198	
9.235	-0.002	0.239	
9.240	0.321	0.252	
9.245	0.696	0.273	
9.250	0.209	0.322	
9.255	0.171	0.346	
9.260	0.704	0.352	
9.265	0.397	0.381	
9.270	0.047	0.396	
9.275	0.525	0.377	
9.280	0.515	0.373	
9.285	-0.026	0.372	
9.290	0.229	0.335	
9.295	0.531	0.300	
9.300	-0.017	0.286	
9.305	-0.092	0.245	
9.310	0.330	0.185	
9.315	-0.011	0.148	
9.320	-0.236	0.105	
9.325	0.094	0.047	
9.330	0.085	0.012	
9.335	-0.275	-0.009	
9.340	-0.113	-0.044	
9.345	0.204	-0.066	
9.350	-0.193	-0.061	
9.355	-0.203	-0.064	
9.360	0.214	-0.072	
9.365	-0.075	-0.056	
9.370	-0.269	-0.047	
9.375	0.067	-0.059	
9.380	0.079	-0.057	
9.385	-0.269	-0.047	
9.390	-0.110	-0.060	
9.395	0.189	-0.069	
9.400	-0.200	-0.058	
9.405	-0.202	-0.061	
9.410	0.220	-0.069	
9.415	-0.061	-0.052	
9.420	-0.245	-0.041	
9.425	0.142	-0.047	
9.430	0.189	-0.030	
9.435	-0.200	-0.002	
9.440	-0.009	0.002	
9.445	0.319	0.008	
9.450	-0.141	0.032	
9.455	-0.156	0.033	
9.460	0.263	0.018	
9.465	-0.058	0.022	
9.470	-0.266	0.014	
9.475	0.035	-0.018	
9.480	0.027	-0.038	
9.485	-0.303	-0.051	
9.490	-0.159	-0.082	
9.495	0.087	-0.107	
9.500	-0.257	-0.110	
9.505	-0.263	-0.124	
9.510	0.108	-0.138	
9.515	-0.130	-0.128	
9.520	-0.284	-0.120	
9.525	0.130	-0.120	
9.530	0.266	-0.087	
9.535	-0.097	-0.028	
9.540	0.290	0.022	
9.545	0.698	0.098	
9.550	0.018	0.195	
9.555	-0.242	0.230	
9.560	-0.176	0.175	
9.565	-0.503	0.065	
9.570	-0.724	-0.089	
9.575	-0.474	-0.260	
9.580	-0.404	-0.392	
9.585	-0.552	-0.469	
9.590	-0.297	-0.504	
9.595	0.046	-0.479	
9.600	-0.207	-0.397	
9.605	-0.159	-0.308	
9.610	0.347	-0.215	
9.615	0.062	-0.103	
9.620	-0.171	-0.014	
9.625	0.290	0.032	
9.630	0.308	0.082	
9.635	-0.133	0.127	
9.640	0.130	0.134	
9.645	0.470	0.140	
9.650	-0.022	0.165	
9.655	-0.022	0.166	
9.660	0.504	0.156	
9.665	0.206	0.177	
9.670	-0.077	0.194	
9.675	0.423	0.188	
9.680	0.452	0.207	
9.685	-0.016	0.238	
9.690	0.325	0.244	
9.695	0.693	0.263	
9.700	0.227	0.314	
9.705	0.227	0.344	
9.710	0.735	0.361	
9.715	0.406	0.399	
9.720	0.079	0.420	
9.725	0.559	0.404	
9.730	0.521	0.401	
9.735	-0.006	0.399	
9.740	0.258	0.360	
9.745	0.534	0.322	
9.750	-0.023	0.304	
9.755	-0.069	0.259	
9.760	0.363	0.198	
9.765	0.001	0.162	
9.770	-0.216	0.121	
9.775	0.152	0.066	
9.780	0.127	0.037	
9.785	-0.236	0.023	
9.790	-0.049	-0.006	
9.795	0.224	-0.024	
9.800	-0.194	-0.019	
9.805	-0.208	-0.030	
9.810	0.189	-0.050	
9.815	-0.100	-0.047	
9.820	-0.278	-0.050	
9.825	0.032	-0.071	
9.830	0.010	-0.078	
9.835	-0.295	-0.078	
9.840	-0.127	-0.096	
9.845	0.127	-0.107	
9.850	-0.234	-0.097	
9.855	-0.229	-0.101	
9.860	0.143	-0.110	
9.865	-0.124	-0.097	
9.870	-0.287	-0.091	
9.875	0.035	-0.101	
9.880	0.038	-0.096	
9.885	-0.260	-0.083	
9.890	-0.078	-0.087	
9.895	0.198	-0.083	
9.900	-0.196	-0.060	
9.905	-0.193	-0.055	
9.910	0.212	-0.060	
9.915	-0.089	-0.045	
9.920	-0.269	-0.040	
9.925	0.056	-0.056	
9.930	0.039	-0.059	
9.935	-0.289	-0.057	
9.940	-0.141	-0.077	
9.945	0.084	-0.095	
9.950	-0.252	-0.097	
9.955	-0.262	-0.111	
9.960	0.070	-0.130	
9.965	-0.165	-0.129	
9.970	-0.312	-0.131	
9.975	0.007	-0.144	
9.980	0.047	-0.135	
9.985	-0.216	-0.111	
9.990	0.105	-0.092	
9.995	0.545	-0.040	
10.000	0.186	0.056	
10.005	0.279	0.148	
10.010	0.557	0.226	
10.015	-0.168	0.280	
10.020	-0.553	0.239	
10.025	-0.472	0.094	
10.030	-0.523	-0.088	
10.035	-0.720	-0.264	
10.040	-0.501	-0.416	
10.045	-0.245	-0.504	
10.050	-0.388	-0.519	
10.055	-0.281	-0.490	
10.060	0.188	-0.421	
10.065	-0.031	-0.306	
10.070	-0.184	-0.196	
10.075	0.269	-0.112	
10.080	0.293	-0.020	
10.085	-0.130	0.063	
10.090	0.142	0.100	
10.095	0.447	0.127	
10.100	-0.035	0.163	
10.105	-0.026	0.167	
10.110	0.466	0.156	
10.115	0.168	0.171	
10.120	-0.080	0.180	
10.125	0.405	0.170	
10.130	0.412	0.187	
10.135	-0.040	0.215	
10.140	0.276	0.218	
10.145	0.614	0.231	
10.150	0.165	0.271	
10.155	0.203	0.294	
10.160	0.709	0.310	
10.165	0.412	0.355	
10.170	0.128	0.388	
10.175	0.628	0.392	
10.180	0.594	0.413	
10.185	0.079	0.435	
10.190	0.325	0.415	
10.195	0.588	0.389	
10.200	0.064	0.377	
10.205	0.026	0.336	
10.210	0.458	0.280	
10.215	0.090	0.248	
10.220	-0.174	0.208	
10.225	0.183	0.147	
10.230	0.130	0.104	
10.235	-0.231	0.074	
10.240	-0.049	0.028	
10.245	0.241	-0.004	
10.250	-0.181	-0.007	
10.255	-0.181	-0.022	
10.260	0.172	-0.042	
10.265	-0.109	-0.041	
10.270	-0.268	-0.048	
10.275	0.047	-0.070	
10.280	0.023	-0.075	
10.285	-0.275	-0.072	
10.290	-0.112	-0.087	
10.295	0.125	-0.095	
10.300	-0.216	-0.085	
10.305	-0.216	-0.089	
10.310	0.136	-0.098	
10.315	-0.130	-0.088	
10.320	-0.275	-0.085	
10.325	0.041	-0.097	
10.330	0.035	-0.093	
10.335	-0.255	-0.080	
10.340	-0.051	-0.083	
10.345	0.264	-0.074	
10.350	-0.148	-0.040	
10.355	-0.144	-0.025	
10.360	0.270	-0.020	
10.365	-0.066	0.001	
10.370	-0.243	0.007	
10.375	0.081	-0.014	
10.380	0.056	-0.022	
10.385	-0.257	-0.025	
10.390	-0.087	-0.047	
10.395	0.157	-0.062	
10.400	-0.208	-0.057	
10.405	-0.202	-0.065	
10.410	0.163	-0.078	
10.415	-0.104	-0.069	
10.420	-0.254	-0.066	
10.425	0.099	-0.075	
10.430	0.046	-0.067	
10.435	-0.232	-0.052	
10.440	0.029	-0.053	
10.445	0.400	-0.034	
10.450	0.027	0.022	
10.455	0.157	0.073	
10.460	0.715	0.134	
10.465	0.259	0.224	
10.470	-0.246	0.273	
10.475	-0.225	0.225	
10.480	-0.420	0.109	
10.485	-0.697	-0.050	
10.490	-0.515	-0.226	
10.495	-0.303	-0.365	
10.500	-0.463	-0.439	
10.505	-0.367	-0.468	
10.510	0.050	-0.449	
10.515	-0.083	-0.373	
10.520	-0.177	-0.280	
10.525	0.284	-0.190	
10.530	0.301	-0.079	
10.535	-0.097	0.027	
10.540	0.204	0.088	
10.545	0.501	0.140	
10.550	0.007	0.195	
10.555	-0.022	0.209	
10.560	0.406	0.195	
10.565	0.050	0.190	
10.570	-0.170	0.169	
10.575	0.208	0.123	
10.580	0.195	0.098	
10.585	-0.161	0.088	
10.590	0.084	0.065	
10.595	0.388	0.060	
10.600	-0.032	0.084	
10.605	0.021	0.097	
10.610	0.516	0.109	
10.615	0.236	0.155	
10.620	-0.014	0.194	
10.625	0.476	0.209	
10.630	0.482	0.243	
10.635	0.026	0.283	
10.640	0.311	0.289	
10.645	0.573	0.295	
10.650	0.046	0.313	
10.655	0.023	0.296	
10.660	0.437	0.257	
10.665	0.064	0.235	
10.670	-0.155	0.199	
10.675	0.188	0.143	
10.680	0.119	0.104	
10.685	-0.211	0.076	
10.690	-0.043	0.032	
10.695	0.201	-0.000	
10.700	-0.174	-0.007	
10.705	-0.171	-0.024	
10.710	0.183	-0.043	
10.715	-0.092	-0.040	
10.720	-0.255	-0.043	
10.725	0.032	-0.063	
10.730	0.013	-0.069	
10.735	-0.262	-0.069	
10.740	-0.098	-0.084	
10.745	0.133	-0.091	
10.750	-0.208	-0.080	
10.755	-0.200	-0.082	
10.760	0.156	-0.088	
10.765	-0.101	-0.075	
10.770	-0.239	-0.068	
10.775	0.090	-0.074	
10.780	0.067	-0.063	
10.785	-0.236	-0.047	
10.790	-0.048	-0.051	
10.795	0.241	-0.048	
10.800	-0.130	-0.023	
10.805	-0.087	-0.012	
10.810	0.347	-0.002	
10.815	0.007	0.031	
10.820	-0.190	0.050	
10.825	0.151	0.040	
10.830	0.119	0.038	
10.835	-0.207	0.039	
10.840	-0.037	0.016	
10.845	0.163	-0.003	
10.850	-0.210	-0.008	
10.855	-0.200	-0.030	
10.860	0.146	-0.057	
10.865	-0.130	-0.061	
10.870	-0.300	-0.071	
10.875	-0.055	-0.099	
10.880	-0.089	-0.118	
10.885	-0.329	-0.131	
10.890	-0.170	-0.156	
10.895	0.049	-0.168	
10.900	-0.225	-0.156	
10.905	-0.155	-0.148	
10.910	0.340	-0.125	
10.915	0.137	-0.060	
10.920	-0.145	0.004	
10.925	-0.049	0.026	
10.930	-0.289	0.007	
10.935	-0.671	-0.063	
10.940	-0.601	-0.189	
10.945	-0.462	-0.324	
10.950	-0.622	-0.429	
10.955	-0.540	-0.506	
10.960	-0.231	-0.539	
10.965	-0.283	-0.515	
10.970	-0.321	-0.460	
10.975	0.038	-0.389	
10.980	0.094	-0.289	
10.985	-0.187	-0.185	
10.990	0.067	-0.109	
10.995	0.366	-0.037	
11.000	-0.071	0.038	
11.005	-0.026	0.078	
11.010	0.434	0.097	
11.015	0.136	0.134	
11.020	-0.083	0.156	
11.025	0.369	0.154	
11.030	0.371	0.171	
11.035	-0.032	0.198	
11.040	0.285	0.202	
11.045	0.559	0.218	
11.050	0.128	0.256	
11.055	0.208	0.274	
11.060	0.706	0.290	
11.065	0.453	0.340	
11.070	0.214	0.386	
11.075	0.681	0.410	
11.080	0.667	0.449	
11.085	0.229	0.489	
11.090	0.515	0.494	
11.095	0.741	0.498	
11.100	0.253	0.511	
11.105	0.243	0.492	
11.110	0.635	0.456	
11.115	0.272	0.436	
11.120	-0.051	0.398	
11.125	0.322	0.328	
11.130	0.227	0.271	
11.135	-0.159	0.222	
11.140	0.029	0.154	
11.145	0.230	0.098	
11.150	-0.177	0.067	
11.155	-0.170	0.025	
11.160	0.174	-0.015	
11.165	-0.107	-0.029	
11.170	-0.243	-0.044	
11.175	0.073	-0.067	
11.180	0.072	-0.067	
11.185	-0.220	-0.055	
11.190	-0.051	-0.058	
11.195	0.198	-0.055	
11.200	-0.159	-0.034	
11.205	-0.130	-0.030	
11.210	0.246	-0.030	
11.215	-0.054	-0.010	
11.220	-0.197	-0.001	
11.225	0.186	-0.009	
11.230	0.145	0.004	
11.235	-0.193	0.022	
11.240	0.015	0.017	
11.245	0.311	0.018	
11.250	-0.084	0.041	
11.255	-0.040	0.049	
11.260	0.398	0.055	
11.265	0.053	0.085	
11.270	-0.145	0.101	
11.275	0.226	0.089	
11.280	0.189	0.090	
11.285	-0.167	0.094	
11.290	0.035	0.074	
11.295	0.263	0.058	
11.300	-0.150	0.058	
11.305	-0.153	0.039	
11.310	0.178	0.009	
11.315	-0.097	-0.002	
11.320	-0.223	-0.018	
11.325	0.105	-0.043	
11.330	0.061	-0.045	
11.335	-0.222	-0.037	
11.340	-0.035	-0.046	
11.345	0.230	-0.045	
11.350	-0.104	-0.021	
11.355	-0.005	-0.005	
11.360	0.525	0.023	
11.365	0.313	0.095	
11.370	0.130	0.172	
11.375	0.414	0.224	
11.380	0.038	0.254	
11.385	-0.425	0.225	
11.390	-0.430	0.112	
11.395	-0.341	-0.040	
11.400	-0.529	-0.182	
11.405	-0.460	-0.305	
11.410	-0.173	-0.383	
11.415	-0.255	-0.400	
11.420	-0.292	-0.380	
11.425	0.105	-0.334	
11.430	0.162	-0.246	
11.435	-0.119	-0.143	
11.440	0.142	-0.063	
11.445	0.388	0.014	
11.450	-0.029	0.090	
11.455	0.021	0.127	
11.460	0.487	0.144	
11.465	0.192	0.181	
11.470	-0.038	0.205	
11.475	0.406	0.202	
11.480	0.366	0.216	
11.485	-0.037	0.234	
11.490	0.281	0.226	
11.495	0.539	0.230	
11.500	0.110	0.257	
11.505	0.159	0.265	
11.510	0.608	0.268	
11.515	0.330	0.298	
11.520	0.105	0.322	
11.525	0.565	0.325	
11.530	0.541	0.348	
11.535	0.120	0.377	
11.540	0.420	0.377	
11.545	0.644	0.381	
11.550	0.177	0.400	
11.555	0.172	0.390	
11.560	0.537	0.361	
11.565	0.169	0.346	
11.570	-0.095	0.311	
11.575	0.249	0.247	
11.580	0.156	0.195	
11.585	-0.199	0.151	
11.590	-0.054	0.087	
11.595	0.117	0.031	
11.600	-0.219	-0.004	
11.605	-0.202	-0.044	
11.610	0.093	-0.081	
11.615	-0.145	-0.091	
11.620	-0.269	-0.101	
11.625	0.015	-0.118	
11.630	-0.013	-0.116	
11.635	-0.251	-0.106	
11.640	-0.075	-0.109	
11.645	0.142	-0.102	
11.650	-0.203	-0.079	
11.655	-0.190	-0.075	
11.660	0.107	-0.081	
11.665	-0.132	-0.074	
11.670	-0.240	-0.075	
11.675	0.079	-0.086	
11.680	0.036	-0.078	
11.685	-0.217	-0.063	
11.690	-0.037	-0.064	
11.695	0.188	-0.057	
11.700	-0.158	-0.035	
11.705	-0.130	-0.030	
11.710	0.232	-0.030	
11.715	-0.068	-0.012	
11.720	-0.208	-0.007	
11.725	0.107	-0.020	
11.730	0.035	-0.021	
11.735	-0.232	-0.020	
11.740	-0.060	-0.039	
11.745	0.114	-0.052	
11.750	-0.213	-0.050	
11.755	-0.196	-0.064	
11.760	0.081	-0.083	
11.765	-0.148	-0.085	
11.770	-0.252	-0.093	
11.775	0.026	-0.108	
11.780	0.007	-0.104	
11.785	-0.226	-0.092	
11.790	-0.029	-0.091	
11.795	0.250	-0.075	
11.800	-0.084	-0.036	
11.805	0.026	-0.005	
11.810	0.548	0.035	
11.815	0.357	0.116	
11.820	0.221	0.203	
11.825	0.544	0.271	
11.830	0.195	0.323	
11.835	-0.329	0.317	
11.840	-0.341	0.219	
11.845	-0.272	0.071	
11.850	-0.460	-0.077	
11.855	-0.394	-0.209	
11.860	-0.116	-0.298	
11.865	-0.210	-0.326	
11.870	-0.246	-0.315	
11.875	0.174	-0.276	
11.880	0.247	-0.190	
11.885	-0.055	-0.084	
11.890	0.264	0.002	
11.895	0.516	0.089	
11.900	0.096	0.180	
11.905	0.156	0.231	
11.910	0.567	0.259	
11.915	0.247	0.295	
11.920	0.030	0.309	
11.925	0.470	0.295	
11.930	0.431	0.298	
11.935	0.015	0.307	
11.940	0.328	0.291	
11.945	0.571	0.287	
11.950	0.152	0.307	
11.955	0.208	0.310	
11.960	0.631	0.309	
11.965	0.337	0.336	
11.970	0.133	0.353	
11.975	0.583	0.351	
11.980	0.544	0.370	
11.985	0.146	0.395	
11.990	0.443	0.394	
11.995	0.657	0.398	
12.000	0.201	0.417	
12.005	0.195	0.407	
12.010	0.557	0.380	
12.015	0.192	0.366	
12.020	-0.064	0.332	
12.025	0.270	0.270	
12.030	0.157	0.218	
12.035	-0.187	0.171	
12.040	-0.038	0.104	
12.045	0.133	0.046	
12.050	-0.208	0.010	
12.055	-0.202	-0.032	
12.060	0.058	-0.072	
12.065	-0.162	-0.090	
12.070	-0.281	-0.108	
12.075	-0.022	-0.131	
12.080	-0.035	-0.135	
12.085	-0.255	-0.128	
12.090	-0.087	-0.130	
12.095	0.105	-0.122	
12.100	-0.211	-0.100	
12.105	-0.181	-0.093	
12.110	0.131	-0.093	
12.115	-0.122	-0.078	
12.120	-0.236	-0.072	
12.125	0.035	-0.082	
12.130	-0.006	-0.079	
12.135	-0.243	-0.074	
12.140	-0.081	-0.084	
12.145	0.119	-0.087	
12.150	-0.177	-0.073	
12.155	-0.138	-0.070	
12.160	0.188	-0.068	
12.165	-0.101	-0.048	
12.170	-0.220	-0.040	
12.175	0.073	-0.051	
12.180	0.009	-0.049	
12.185	-0.251	-0.047	
12.190	-0.086	-0.064	
12.195	0.075	-0.076	
12.200	-0.242	-0.077	
12.205	-0.231	-0.092	
12.210	0.010	-0.115	
12.215	-0.196	-0.123	
12.220	-0.312	-0.137	
12.225	-0.071	-0.159	
12.230	-0.104	-0.167	
12.235	-0.312	-0.167	
12.240	-0.148	-0.176	
12.245	0.030	-0.175	
12.250	-0.211	-0.156	
12.255	-0.145	-0.143	
12.260	0.273	-0.120	
12.265	0.091	-0.064	
12.270	-0.019	-0.005	
12.275	0.348	0.044	
12.280	0.030	0.092	
12.285	-0.405	0.099	
12.290	-0.419	0.029	
12.295	-0.401	-0.087	
12.300	-0.605	-0.212	
12.305	-0.550	-0.334	
12.310	-0.300	-0.425	
12.315	-0.381	-0.462	
12.320	-0.401	-0.462	
12.325	-0.074	-0.435	
12.330	-0.016	-0.367	
12.335	-0.213	-0.281	
12.340	0.007	-0.207	
12.345	0.258	-0.129	
12.350	-0.107	-0.048	
12.355	-0.064	-0.000	
12.360	0.334	0.028	
12.365	0.039	0.066	
12.370	-0.104	0.087	
12.375	0.279	0.086	
12.380	0.221	0.101	
12.385	-0.122	0.118	
12.390	0.142	0.109	
12.395	0.389	0.110	
12.400	-0.028	0.132	
12.405	0.030	0.135	
12.410	0.478	0.135	
12.415	0.174	0.164	
12.420	-0.011	0.185	
12.425	0.450	0.189	
12.430	0.420	0.217	
12.435	0.053	0.252	
12.440	0.366	0.264	
12.445	0.568	0.284	
12.450	0.108	0.316	
12.455	0.125	0.315	
12.460	0.486	0.295	
12.465	0.120	0.287	
12.470	-0.095	0.259	
12.475	0.226	0.205	
12.480	0.114	0.162	
12.485	-0.207	0.123	
12.490	-0.061	0.064	
12.495	0.088	0.012	
12.500	-0.226	-0.021	
12.505	-0.213	-0.060	
12.510	0.062	-0.095	
12.515	-0.161	-0.106	
12.520	-0.272	-0.117	
12.525	-0.016	-0.134	
12.530	-0.054	-0.134	
12.535	-0.272	-0.127	
12.540	-0.103	-0.133	
12.545	0.070	-0.130	
12.550	-0.219	-0.113	
12.555	-0.196	-0.110	
12.560	0.104	-0.111	
12.565	-0.138	-0.097	
12.570	-0.255	-0.092	
12.575	0.006	-0.102	
12.580	-0.028	-0.101	
12.585	-0.254	-0.096	
12.590	-0.078	-0.104	
12.595	0.096	-0.103	
12.600	-0.205	-0.088	
12.605	-0.170	-0.087	
12.610	0.142	-0.089	
12.615	-0.116	-0.073	
12.620	-0.229	-0.067	
12.625	0.056	-0.076	
12.630	-0.013	-0.072	
12.635	-0.251	-0.067	
12.640	-0.080	-0.079	
12.645	0.090	-0.086	
12.650	-0.222	-0.079	
12.655	-0.220	-0.087	
12.660	0.013	-0.105	
12.665	-0.205	-0.113	
12.670	-0.313	-0.129	
12.675	-0.077	-0.155	
12.680	-0.113	-0.166	
12.685	-0.332	-0.170	
12.690	-0.176	-0.184	
12.695	-0.042	-0.191	
12.700	-0.284	-0.184	
12.705	-0.245	-0.186	
12.710	0.075	-0.185	
12.715	-0.092	-0.159	
12.720	-0.155	-0.129	
12.725	0.325	-0.094	
12.730	0.354	-0.020	
12.735	-0.086	0.064	
12.740	-0.078	0.098	
12.745	-0.162	0.078	
12.750	-0.555	0.010	
12.755	-0.622	-0.113	
12.760	-0.439	-0.256	
12.765	-0.543	-0.373	
12.770	-0.572	-0.458	
12.775	-0.275	-0.506	
12.780	-0.214	-0.498	
12.785	-0.332	-0.450	
12.790	-0.090	-0.388	
12.795	0.162	-0.302	
12.800	-0.152	-0.200	
12.805	-0.103	-0.125	
12.810	0.281	-0.068	
12.815	-0.009	-0.007	
12.820	-0.138	0.030	
12.825	0.252	0.041	
12.830	0.217	0.066	
12.835	-0.112	0.092	
12.840	0.142	0.095	
12.845	0.360	0.103	
12.850	-0.052	0.125	
12.855	0.009	0.125	
12.860	0.414	0.120	
12.865	0.125	0.139	
12.870	-0.029	0.152	
12.875	0.426	0.154	
12.880	0.374	0.181	
12.885	0.020	0.216	
12.890	0.345	0.228	
12.895	0.574	0.252	
12.900	0.140	0.292	
12.905	0.189	0.306	
12.910	0.576	0.307	
12.915	0.227	0.323	
12.920	-0.013	0.318	
12.925	0.372	0.284	
12.930	0.249	0.260	
12.935	-0.126	0.234	
12.940	0.088	0.183	
12.945	0.246	0.137	
12.950	-0.147	0.109	
12.955	-0.138	0.067	
12.960	0.134	0.020	
12.965	-0.133	-0.006	
12.970	-0.251	-0.036	
12.975	0.024	-0.072	
12.980	-0.011	-0.086	
12.985	-0.249	-0.089	
12.990	-0.084	-0.101	
12.995	0.087	-0.104	
13.000	-0.211	-0.092	
13.005	-0.177	-0.092	
13.010	0.110	-0.097	
13.015	-0.145	-0.086	
13.020	-0.258	-0.085	
13.025	0.013	-0.099	
13.030	-0.037	-0.100	
13.035	-0.266	-0.097	
13.040	-0.110	-0.109	
13.045	0.061	-0.114	
13.050	-0.216	-0.105	
13.055	-0.190	-0.107	
13.060	0.090	-0.112	
13.065	-0.138	-0.100	
13.070	-0.243	-0.096	
13.075	0.036	-0.103	
13.080	-0.019	-0.096	
13.085	-0.236	-0.086	
13.090	-0.038	-0.090	
13.095	0.174	-0.081	
13.100	-0.156	-0.055	
13.105	-0.122	-0.044	
13.110	0.214	-0.039	
13.115	-0.086	-0.019	
13.120	-0.211	-0.014	
13.125	0.079	-0.028	
13.130	-0.005	-0.033	
13.135	-0.257	-0.038	
13.140	-0.113	-0.062	
13.145	0.024	-0.084	
13.150	-0.252	-0.094	
13.155	-0.228	-0.114	
13.160	0.021	-0.135	
13.165	-0.184	-0.137	
13.170	-0.292	-0.142	
13.175	-0.034	-0.156	
13.180	-0.066	-0.153	
13.185	-0.271	-0.144	
13.190	-0.054	-0.143	
13.195	0.244	-0.123	
13.200	-0.061	-0.073	
13.205	0.099	-0.025	
13.210	0.596	0.037	
13.215	0.238	0.132	
13.220	-0.176	0.195	
13.225	-0.161	0.177	
13.230	-0.393	0.095	
13.235	-0.691	-0.039	
13.240	-0.573	-0.206	
13.245	-0.431	-0.354	
13.250	-0.562	-0.454	
13.255	-0.440	-0.512	
13.260	-0.126	-0.518	
13.265	-0.196	-0.466	
13.270	-0.225	-0.389	
13.275	0.149	-0.302	
13.280	0.134	-0.194	
13.285	-0.145	-0.093	
13.290	0.122	-0.027	
13.295	0.342	0.030	
13.300	-0.060	0.087	
13.305	-0.006	0.109	
13.310	0.397	0.115	
13.315	0.091	0.137	
13.320	-0.072	0.146	
13.325	0.348	0.137	
13.330	0.288	0.149	
13.335	-0.061	0.168	
13.340	0.246	0.165	
13.345	0.487	0.175	
13.350	0.075	0.208	
13.355	0.160	0.222	
13.360	0.582	0.233	
13.365	0.318	0.271	
13.370	0.146	0.303	
13.375	0.605	0.319	
13.380	0.536	0.355	
13.385	0.134	0.391	
13.390	0.423	0.393	
13.395	0.608	0.395	
13.400	0.128	0.404	
13.405	0.128	0.380	
13.410	0.466	0.337	
13.415	0.091	0.307	
13.420	-0.107	0.261	
13.425	0.249	0.195	
13.430	0.140	0.152	
13.435	-0.194	0.118	
13.440	-0.022	0.067	
13.445	0.160	0.026	
13.450	-0.181	0.006	
13.455	-0.158	-0.021	
13.460	0.160	-0.046	
13.465	-0.107	-0.047	
13.470	-0.232	-0.052	
13.475	0.049	-0.069	
13.480	-0.008	-0.072	
13.485	-0.254	-0.070	
13.490	-0.098	-0.084	
13.495	0.070	-0.093	
13.500	-0.220	-0.089	
13.505	-0.199	-0.096	
13.510	0.076	-0.107	
13.515	-0.158	-0.102	
13.520	-0.275	-0.105	
13.525	-0.019	-0.120	
13.530	-0.074	-0.123	
13.535	-0.295	-0.123	
13.540	-0.135	-0.138	
13.545	0.017	-0.144	
13.550	-0.249	-0.137	
13.555	-0.211	-0.140	
13.560	0.075	-0.144	
13.565	-0.152	-0.129	
13.570	-0.260	-0.120	
13.575	0.026	-0.123	
13.580	-0.006	-0.112	
13.585	-0.232	-0.096	
13.590	-0.046	-0.094	
13.595	0.151	-0.084	
13.600	-0.184	-0.060	
13.605	-0.161	-0.055	
13.610	0.140	-0.059	
13.615	-0.118	-0.050	
13.620	-0.245	-0.052	
13.625	-0.008	-0.072	
13.630	-0.081	-0.084	
13.635	-0.309	-0.097	
13.640	-0.159	-0.125	
13.645	-0.031	-0.146	
13.650	-0.281	-0.152	
13.655	-0.252	-0.167	
13.660	-0.002	-0.179	
13.665	-0.207	-0.174	
13.670	-0.306	-0.172	
13.675	-0.043	-0.179	
13.680	-0.032	-0.169	
13.685	-0.202	-0.147	
13.690	0.136	-0.123	
13.695	0.501	-0.062	
13.700	0.233	0.042	
13.705	0.310	0.145	
13.710	0.383	0.226	
13.715	-0.258	0.261	
13.720	-0.593	0.197	
13.725	-0.523	0.039	
13.730	-0.587	-0.149	
13.735	-0.717	-0.325	
13.740	-0.494	-0.468	
13.745	-0.289	-0.544	
13.750	-0.390	-0.548	
13.755	-0.263	-0.511	
13.760	0.108	-0.435	
13.765	-0.083	-0.324	
13.770	-0.167	-0.220	
13.775	0.232	-0.136	
13.780	0.183	-0.048	
13.785	-0.139	0.025	
13.790	0.128	0.058	
13.795	0.354	0.085	
13.800	-0.046	0.119	
13.805	0.018	0.127	
13.810	0.415	0.126	
13.815	0.099	0.146	
13.820	-0.068	0.154	
13.825	0.360	0.145	
13.830	0.313	0.158	
13.835	-0.038	0.179	
13.840	0.293	0.181	
13.845	0.527	0.198	
13.850	0.120	0.237	
13.855	0.240	0.259	
13.860	0.672	0.281	
13.865	0.372	0.330	
13.870	0.169	0.366	
13.875	0.609	0.378	
13.880	0.521	0.401	
13.885	0.091	0.419	
13.890	0.360	0.400	
13.895	0.521	0.378	
13.900	0.058	0.365	
13.905	0.061	0.323	
13.910	0.403	0.270	
13.915	0.039	0.236	
13.920	-0.136	0.191	
13.925	0.178	0.132	
13.930	0.070	0.091	
13.935	-0.207	0.060	
13.940	-0.032	0.016	
13.945	0.140	-0.015	
13.950	-0.190	-0.024	
13.955	-0.155	-0.043	
13.960	0.143	-0.060	
13.965	-0.133	-0.058	
13.970	-0.252	-0.063	
13.975	0.007	-0.083	
13.980	-0.054	-0.091	
13.985	-0.283	-0.096	
13.990	-0.121	-0.115	
13.995	0.029	-0.126	
14.000	-0.239	-0.122	
14.005	-0.216	-0.128	
14.010	0.058	-0.136	
14.015	-0.168	-0.127	
14.020	-0.280	-0.125	
14.025	-0.029	-0.136	
14.030	-0.083	-0.136	
14.035	-0.298	-0.133	
14.040	-0.138	-0.145	
14.045	0.013	-0.150	
14.050	-0.251	-0.141	
14.055	-0.214	-0.144	
14.060	0.073	-0.146	
14.065	-0.142	-0.130	
14.070	-0.239	-0.119	
14.075	0.075	-0.117	
14.080	0.041	-0.096	
14.085	-0.203	-0.071	
14.090	0.003	-0.062	
14.095	0.212	-0.045	
14.100	-0.144	-0.016	
14.105	-0.110	-0.007	
14.110	0.215	-0.008	
14.115	-0.095	0.003	
14.120	-0.228	-0.001	
14.125	0.023	-0.028	
14.130	-0.051	-0.046	
14.135	-0.275	-0.063	
14.140	-0.104	-0.092	
14.145	0.061	-0.109	
14.150	-0.220	-0.107	
14.155	-0.188	-0.112	
14.160	0.110	-0.116	
14.165	-0.126	-0.101	
14.170	-0.214	-0.092	
14.175	0.172	-0.088	
14.180	0.208	-0.054	
14.185	-0.037	-0.002	
14.190	0.392	0.048	
14.195	0.724	0.132	
14.200	0.281	0.247	
14.205	0.033	0.318	
14.210	-0.029	0.310	
14.215	-0.445	0.226	
14.220	-0.654	0.071	
14.225	-0.454	-0.120	
14.230	-0.430	-0.284	
14.235	-0.533	-0.397	
14.240	-0.278	-0.462	
14.245	-0.049	-0.461	
14.250	-0.202	-0.402	
14.255	-0.084	-0.324	
14.260	0.388	-0.225	
14.265	0.131	-0.096	
14.270	-0.029	0.013	
14.275	0.421	0.087	
14.280	0.377	0.162	
14.285	0.010	0.224	
14.290	0.325	0.247	
14.295	0.524	0.267	
14.300	0.108	0.296	
14.305	0.174	0.298	
14.310	0.600	0.292	
14.315	0.269	0.312	
14.320	0.056	0.319	
14.325	0.512	0.304	
14.330	0.473	0.313	
14.335	0.108	0.332	
14.340	0.447	0.332	
14.345	0.684	0.349	
14.350	0.288	0.390	
14.355	0.379	0.414	
14.360	0.808	0.435	
14.365	0.487	0.479	
14.370	0.278	0.508	
14.375	0.693	0.508	
14.380	0.602	0.519	
14.385	0.159	0.524	
14.390	0.437	0.492	
14.395	0.592	0.460	
14.400	0.105	0.439	
14.405	0.096	0.390	
14.410	0.432	0.327	
14.415	0.064	0.283	
14.420	-0.121	0.229	
14.425	0.217	0.162	
14.430	0.139	0.120	
14.435	-0.162	0.093	
14.440	0.047	0.056	
14.445	0.221	0.034	
14.450	-0.142	0.033	
14.455	-0.110	0.019	
14.460	0.238	0.002	
14.465	-0.040	0.009	
14.470	-0.159	0.010	
14.475	0.177	0.001	
14.480	0.108	0.010	
14.485	-0.190	0.022	
14.490	-0.002	0.011	
14.495	0.185	0.004	
14.500	-0.156	0.009	
14.505	-0.112	-0.001	
14.510	0.235	-0.013	
14.515	-0.071	-0.003	
14.520	-0.193	-0.002	
14.525	0.125	-0.016	
14.530	0.061	-0.015	
14.535	-0.197	-0.009	
14.540	0.010	-0.020	
14.545	0.212	-0.020	
14.550	-0.145	-0.003	
14.555	-0.109	-0.002	
14.560	0.270	-0.006	
14.565	-0.014	0.012	
14.570	-0.124	0.025	
14.575	0.256	0.026	
14.580	0.168	0.047	
14.585	-0.139	0.070	
14.590	0.094	0.068	
14.595	0.264	0.068	
14.600	-0.127	0.079	
14.605	-0.113	0.065	
14.610	0.186	0.038	
14.615	-0.115	0.025	
14.620	-0.236	0.001	
14.625	0.041	-0.036	
14.630	-0.028	-0.056	
14.635	-0.252	-0.068	
14.640	-0.071	-0.089	
14.645	0.117	-0.096	
14.650	-0.194	-0.083	
14.655	-0.145	-0.080	
14.660	0.247	-0.075	
14.665	0.024	-0.042	
14.670	-0.057	-0.006	
14.675	0.457	0.029	
14.680	0.484	0.103	
14.685	0.105	0.191	
14.690	0.201	0.240	
14.695	0.036	0.245	
14.700	-0.433	0.195	
14.705	-0.530	0.072	
14.710	-0.361	-0.088	
14.715	-0.471	-0.229	
14.720	-0.503	-0.340	
14.725	-0.207	-0.409	
14.730	-0.148	-0.417	
14.735	-0.275	-0.380	
14.740	-0.009	-0.324	
14.745	0.293	-0.237	
14.750	-0.071	-0.127	
14.755	0.006	-0.042	
14.760	0.423	0.024	
14.765	0.105	0.096	
14.770	-0.061	0.140	
14.775	0.380	0.153	
14.780	0.331	0.178	
14.785	-0.048	0.204	
14.790	0.256	0.202	
14.795	0.466	0.206	
14.800	0.033	0.227	
14.805	0.116	0.225	
14.810	0.548	0.220	
14.815	0.232	0.244	
14.820	0.036	0.259	
14.825	0.522	0.256	
14.830	0.487	0.280	
14.835	0.081	0.313	
14.840	0.423	0.321	
14.845	0.655	0.338	
14.850	0.221	0.375	
14.855	0.285	0.387	
14.860	0.695	0.391	
14.865	0.337	0.413	
14.870	0.087	0.415	
14.875	0.481	0.385	
14.880	0.347	0.364	
14.885	-0.075	0.337	
14.890	0.156	0.278	
14.895	0.282	0.221	
14.900	-0.167	0.178	
14.905	-0.150	0.115	
14.910	0.128	0.047	
14.915	-0.153	0.003	
14.920	-0.266	-0.040	
14.925	-0.016	-0.086	
14.930	-0.077	-0.110	
14.935	-0.297	-0.123	
14.940	-0.122	-0.143	
14.945	0.020	-0.151	
14.950	-0.251	-0.142	
14.955	-0.205	-0.143	
14.960	0.067	-0.145	
14.965	-0.168	-0.130	
14.970	-0.274	-0.124	
14.975	-0.011	-0.131	
14.980	-0.068	-0.128	
14.985	-0.291	-0.122	
14.990	-0.127	-0.133	
14.995	0.003	-0.139	
15.000	-0.266	-0.134	
15.005	-0.239	-0.142	
15.010	0.012	-0.154	
15.015	-0.190	-0.150	
15.020	-0.287	-0.150	
15.025	-0.040	-0.160	
15.030	-0.087	-0.156	
15.035	-0.307	-0.150	
15.040	-0.119	-0.157	
15.045	0.046	-0.154	
15.050	-0.251	-0.138	
15.055	-0.223	-0.135	
15.060	0.026	-0.140	
15.065	-0.193	-0.134	
15.070	-0.301	-0.136	
15.075	-0.055	-0.152	
15.080	-0.136	-0.156	
15.085	-0.362	-0.162	
15.090	-0.214	-0.184	
15.095	-0.107	-0.203	
15.100	-0.347	-0.210	
15.105	-0.309	-0.226	
15.110	-0.106	-0.242	
15.115	-0.297	-0.243	
15.120	-0.405	-0.249	
15.125	-0.184	-0.266	
15.130	-0.222	-0.271	
15.135	-0.405	-0.271	
15.140	-0.190	-0.277	
15.145	0.009	-0.265	
15.150	-0.217	-0.228	
15.155	-0.116	-0.193	
15.160	0.293	-0.147	
15.165	-0.155	-0.083	
15.170	-0.434	-0.057	
15.175	-0.396	-0.099	
15.180	-0.579	-0.185	
15.185	-0.802	-0.302	
15.190	-0.608	-0.432	
15.195	-0.453	-0.531	
15.200	-0.619	-0.580	
15.205	-0.512	-0.598	
15.210	-0.231	-0.584	
15.215	-0.335	-0.529	
15.220	-0.379	-0.464	
15.225	-0.110	-0.401	
15.230	-0.132	-0.330	
15.235	-0.327	-0.267	
15.240	-0.147	-0.230	
15.245	-0.032	-0.199	
15.250	-0.291	-0.170	
15.255	-0.231	-0.164	
15.260	0.085	-0.161	
15.265	-0.161	-0.140	
15.270	-0.277	-0.128	
15.275	0.009	-0.131	
15.280	-0.048	-0.122	
15.285	-0.266	-0.112	
15.290	-0.058	-0.115	
15.295	0.151	-0.107	
15.300	-0.182	-0.080	
15.305	-0.118	-0.067	
15.310	0.269	-0.055	
15.315	-0.032	-0.022	
15.320	-0.145	0.002	
15.325	0.261	0.010	
15.330	0.185	0.038	
15.335	-0.138	0.068	
15.340	0.119	0.071	
15.345	0.296	0.078	
15.350	-0.130	0.094	
15.355	-0.098	0.081	
15.360	0.233	0.056	
15.365	-0.138	0.044	
15.370	-0.275	0.015	
15.375	-0.042	-0.035	
15.380	-0.135	-0.077	
15.385	-0.356	-0.113	
15.390	-0.184	-0.158	
15.395	-0.054	-0.187	
15.400	-0.312	-0.194	
15.405	-0.268	-0.206	
15.410	0.006	-0.212	
15.415	-0.213	-0.198	
15.420	-0.309	-0.188	
15.425	-0.035	-0.188	
15.430	-0.083	-0.175	
15.435	-0.292	-0.159	
15.440	-0.095	-0.157	
15.445	0.079	-0.146	
15.450	-0.242	-0.121	
15.455	-0.208	-0.115	
15.460	0.041	-0.119	
15.465	-0.210	-0.115	
15.470	-0.309	-0.123	
15.475	-0.051	-0.145	
15.480	-0.116	-0.153	
15.485	-0.344	-0.158	
15.490	-0.165	-0.176	
15.495	-0.037	-0.185	
15.500	-0.307	-0.181	
15.505	-0.251	-0.187	
15.510	0.004	-0.192	
15.515	-0.220	-0.181	
15.520	-0.329	-0.177	
15.525	-0.097	-0.188	
15.530	-0.165	-0.190	
15.535	-0.379	-0.193	
15.540	-0.216	-0.212	
15.545	-0.113	-0.224	
15.550	-0.361	-0.226	
15.555	-0.329	-0.239	
15.560	-0.127	-0.254	
15.565	-0.313	-0.256	
15.570	-0.417	-0.264	
15.575	-0.196	-0.281	
15.580	-0.258	-0.287	
15.585	-0.463	-0.291	
15.590	-0.295	-0.308	
15.595	-0.174	-0.316	
15.600	-0.402	-0.310	
15.605	-0.339	-0.310	
15.610	-0.048	-0.306	
15.615	-0.199	-0.276	
15.620	-0.249	-0.243	
15.625	0.174	-0.206	
15.630	0.142	-0.138	
15.635	-0.265	-0.071	
15.640	-0.257	-0.054	
15.645	-0.327	-0.087	
15.650	-0.683	-0.161	
15.655	-0.689	-0.277	
15.660	-0.456	-0.400	
15.665	-0.570	-0.486	
15.670	-0.617	-0.541	
15.675	-0.324	-0.566	
15.680	-0.272	-0.545	
15.685	-0.408	-0.493	
15.690	-0.184	-0.435	
15.695	0.029	-0.361	
15.700	-0.242	-0.275	
15.705	-0.185	-0.211	
15.710	0.168	-0.161	
15.715	-0.112	-0.105	
15.720	-0.222	-0.071	
15.725	0.146	-0.060	
15.730	0.091	-0.036	
15.735	-0.196	-0.011	
15.740	0.070	-0.008	
15.745	0.292	0.006	
15.750	-0.122	0.036	
15.755	-0.058	0.044	
15.760	0.354	0.045	
15.765	0.044	0.069	
15.770	-0.092	0.084	
15.775	0.372	0.087	
15.780	0.293	0.116	
15.785	-0.072	0.150	
15.790	0.270	0.158	
15.795	0.516	0.178	
15.800	0.050	0.218	
15.805	0.108	0.230	
15.810	0.460	0.228	
15.815	0.076	0.235	
15.820	-0.122	0.218	
15.825	0.241	0.173	
15.830	0.110	0.140	
15.835	-0.231	0.109	
15.840	-0.084	0.053	
15.845	0.055	0.000	
15.850	-0.269	-0.037	
15.855	-0.246	-0.082	
15.860	-0.003	-0.125	
15.865	-0.237	-0.145	
15.870	-0.342	-0.166	
15.875	-0.100	-0.193	
15.880	-0.153	-0.203	
15.885	-0.359	-0.205	
15.890	-0.179	-0.217	
15.895	0.000	-0.216	
15.900	-0.278	-0.197	
15.905	-0.237	-0.188	
15.910	0.065	-0.180	
15.915	-0.174	-0.156	
15.920	-0.274	-0.141	
15.925	0.035	-0.140	
15.930	-0.019	-0.123	
15.935	-0.266	-0.105	
15.940	-0.074	-0.105	
15.945	0.114	-0.100	
15.950	-0.208	-0.081	
15.955	-0.161	-0.078	
15.960	0.201	-0.078	
15.965	-0.112	-0.057	
15.970	-0.225	-0.048	
15.975	0.128	-0.054	
15.980	0.072	-0.043	
15.985	-0.216	-0.027	
15.990	-0.026	-0.032	
15.995	0.168	-0.033	
16.000	-0.203	-0.023	
16.005	-0.184	-0.033	
16.010	0.117	-0.053	
16.015	-0.152	-0.057	
16.020	-0.272	-0.070	
16.025	-0.005	-0.096	
16.030	-0.086	-0.108	
16.035	-0.323	-0.117	
16.040	-0.177	-0.142	
16.045	-0.077	-0.162	
16.050	-0.338	-0.174	
16.055	-0.306	-0.196	
16.060	-0.078	-0.218	
16.065	-0.255	-0.222	
16.070	-0.339	-0.226	
16.075	-0.034	-0.231	
16.080	-0.009	-0.210	
16.085	-0.197	-0.172	
16.090	0.154	-0.134	
16.095	0.467	-0.063	
16.100	-0.013	0.033	
16.105	-0.170	0.086	
16.110	-0.161	0.073	
16.115	-0.494	0.008	
16.120	-0.665	-0.110	
16.125	-0.446	-0.252	
16.130	-0.436	-0.367	
16.135	-0.566	-0.443	
16.140	-0.346	-0.487	
16.145	-0.138	-0.483	
16.150	-0.278	-0.433	
16.155	-0.174	-0.369	
16.160	0.255	-0.287	
16.165	0.013	-0.177	
16.170	-0.115	-0.083	
16.175	0.319	-0.016	
16.180	0.249	0.055	
16.185	-0.100	0.113	
16.190	0.203	0.132	
16.195	0.427	0.151	
16.200	-0.002	0.181	
16.205	0.059	0.185	
16.210	0.460	0.179	
16.215	0.154	0.196	
16.220	-0.013	0.202	
16.225	0.453	0.195	
16.230	0.417	0.216	
16.235	0.065	0.249	
16.240	0.398	0.263	
16.245	0.644	0.291	
16.250	0.229	0.339	
16.255	0.325	0.366	
16.260	0.753	0.387	
16.265	0.443	0.431	
16.270	0.232	0.459	
16.275	0.649	0.460	
16.280	0.554	0.472	
16.285	0.120	0.477	
16.290	0.371	0.446	
16.295	0.544	0.413	
16.300	0.056	0.390	
16.305	0.059	0.340	
16.310	0.417	0.280	
16.315	0.049	0.242	
16.320	-0.161	0.195	
16.325	0.157	0.131	
16.330	0.059	0.085	
16.335	-0.223	0.049	
16.340	-0.035	0.003	
16.345	0.181	-0.026	
16.350	-0.177	-0.028	
16.355	-0.144	-0.039	
16.360	0.215	-0.048	
16.365	-0.064	-0.034	
16.370	-0.185	-0.025	
16.375	0.152	-0.029	
16.380	0.125	-0.014	
16.385	-0.179	0.006	
16.390	0.030	0.005	
16.395	0.241	0.010	
16.400	-0.155	0.027	
16.405	-0.127	0.021	
16.410	0.218	0.006	
16.415	-0.060	0.008	
16.420	-0.188	0.004	
16.425	0.156	-0.012	
16.430	0.114	-0.006	
16.435	-0.188	0.007	
16.440	0.027	0.001	
16.445	0.261	0.004	
16.450	-0.106	0.025	
16.455	-0.071	0.030	
16.460	0.296	0.029	
16.465	-0.019	0.046	
16.470	-0.167	0.051	
16.475	0.178	0.035	
16.480	0.110	0.035	
16.485	-0.208	0.037	
16.490	-0.043	0.015	
16.495	0.146	-0.005	
16.500	-0.196	-0.012	
16.505	-0.188	-0.033	
16.510	0.117	-0.058	
16.515	-0.138	-0.064	
16.520	-0.246	-0.074	
16.525	0.052	-0.092	
16.530	-0.003	-0.090	
16.535	-0.249	-0.082	
16.540	-0.058	-0.089	
16.545	0.230	-0.082	
16.550	-0.084	-0.049	
16.555	0.010	-0.020	
16.560	0.527	0.019	
16.565	0.343	0.100	
16.570	0.091	0.181	
16.575	0.235	0.223	
16.580	-0.129	0.222	
16.585	-0.515	0.156	
16.590	-0.489	0.019	
16.595	-0.404	-0.140	
16.600	-0.569	-0.278	
16.605	-0.495	-0.389	
16.610	-0.197	-0.452	
16.615	-0.246	-0.453	
16.620	-0.260	-0.413	
16.625	0.142	-0.346	
16.630	0.197	-0.239	
16.635	-0.106	-0.123	
16.640	0.175	-0.035	
16.645	0.427	0.045	
16.650	0.029	0.125	
16.655	0.081	0.168	
16.660	0.508	0.190	
16.665	0.240	0.227	
16.670	0.029	0.251	
16.675	0.457	0.251	
16.680	0.424	0.268	
16.685	0.058	0.289	
16.690	0.356	0.288	
16.695	0.609	0.298	
16.700	0.223	0.330	
16.705	0.256	0.346	
16.710	0.686	0.355	
16.715	0.417	0.389	
16.720	0.221	0.414	
16.725	0.672	0.420	
16.730	0.660	0.449	
16.735	0.282	0.485	
16.740	0.553	0.495	
16.745	0.762	0.508	
16.750	0.313	0.531	
16.755	0.299	0.522	
16.760	0.661	0.494	
16.765	0.321	0.478	
16.770	0.041	0.445	
16.775	0.421	0.384	
16.780	0.334	0.339	
16.785	-0.069	0.302	
16.790	0.139	0.243	
16.795	0.333	0.195	
16.800	-0.077	0.168	
16.805	-0.063	0.130	
16.810	0.310	0.092	
16.815	0.039	0.084	
16.820	-0.129	0.076	
16.825	0.229	0.059	
16.830	0.212	0.065	
16.835	-0.115	0.080	
16.840	0.099	0.077	
16.845	0.325	0.080	
16.850	-0.057	0.099	
16.855	-0.046	0.097	
16.860	0.319	0.086	
16.865	0.038	0.094	
16.870	-0.141	0.092	
16.875	0.194	0.072	
16.880	0.175	0.068	
16.885	-0.142	0.072	
16.890	0.047	0.058	
16.895	0.278	0.051	
16.900	-0.100	0.061	
16.905	-0.095	0.054	
16.910	0.250	0.039	
16.915	-0.009	0.043	
16.920	-0.161	0.040	
16.925	0.172	0.024	
16.930	0.180	0.028	
16.935	-0.119	0.044	
16.940	0.099	0.046	
16.945	0.327	0.057	
16.950	-0.063	0.084	
16.955	-0.066	0.088	
16.960	0.295	0.078	
16.965	0.038	0.085	
16.970	-0.148	0.083	
16.975	0.143	0.061	
16.980	0.096	0.050	
16.985	-0.185	0.042	
16.990	-0.034	0.016	
16.995	0.194	-0.002	
17.000	-0.130	-0.000	
17.005	-0.136	-0.009	
17.010	0.183	-0.022	
17.015	-0.038	-0.015	
17.020	-0.174	-0.012	
17.025	0.152	-0.019	
17.030	0.229	-0.003	
17.035	-0.032	0.033	
17.040	0.327	0.067	
17.045	0.712	0.133	
17.050	0.460	0.242	
17.055	0.495	0.350	
17.060	0.628	0.434	
17.065	-0.048	0.474	
17.070	-0.413	0.411	
17.075	-0.373	0.247	
17.080	-0.430	0.048	
17.085	-0.588	-0.143	
17.090	-0.399	-0.303	
17.095	-0.165	-0.398	
17.100	-0.252	-0.416	
17.105	-0.132	-0.385	
17.110	0.342	-0.307	
17.115	0.185	-0.178	
17.120	0.015	-0.048	
17.125	0.440	0.055	
17.130	0.452	0.157	
17.135	0.091	0.245	
17.140	0.345	0.288	
17.145	0.608	0.320	
17.150	0.226	0.359	
17.155	0.220	0.371	
17.160	0.617	0.368	
17.165	0.382	0.383	
17.170	0.157	0.391	
17.175	0.573	0.381	
17.180	0.571	0.392	
17.185	0.195	0.413	
17.190	0.455	0.413	
17.195	0.735	0.421	
17.200	0.383	0.454	
17.205	0.409	0.475	
17.210	0.831	0.491	
17.215	0.606	0.532	
17.220	0.389	0.566	
17.225	0.779	0.578	
17.230	0.751	0.602	
17.235	0.348	0.624	
17.240	0.545	0.611	
17.245	0.736	0.593	
17.250	0.281	0.580	
17.255	0.208	0.536	
17.260	0.541	0.473	
17.265	0.243	0.425	
17.270	-0.031	0.369	
17.275	0.284	0.295	
17.280	0.243	0.240	
17.285	-0.107	0.199	
17.290	0.041	0.145	
17.295	0.246	0.102	
17.300	-0.100	0.082	
17.305	-0.100	0.055	
17.310	0.240	0.028	
17.315	-0.003	0.028	
17.320	-0.165	0.025	
17.325	0.128	0.010	
17.330	0.131	0.011	
17.335	-0.164	0.020	
17.340	-0.035	0.010	
17.345	0.178	0.000	
17.350	-0.135	0.004	
17.355	-0.147	-0.005	
17.360	0.136	-0.023	
17.365	-0.078	-0.025	
17.370	-0.214	-0.032	
17.375	0.033	-0.052	
17.380	0.027	-0.057	
17.385	-0.225	-0.056	
17.390	-0.098	-0.069	
17.395	0.107	-0.077	
17.400	-0.173	-0.069	
17.405	-0.170	-0.072	
17.410	0.124	-0.078	
17.415	-0.084	-0.067	
17.420	-0.214	-0.061	
17.425	0.072	-0.067	
17.430	0.120	-0.055	
17.435	-0.164	-0.033	
17.440	-0.035	-0.027	
17.445	0.201	-0.020	
17.450	-0.126	-0.002	
17.455	-0.138	-0.002	
17.460	0.156	-0.012	
17.465	-0.072	-0.011	
17.470	-0.217	-0.017	
17.475	0.006	-0.041	
17.480	-0.013	-0.055	
17.485	-0.246	-0.064	
17.490	-0.121	-0.085	
17.495	0.046	-0.101	
17.500	-0.211	-0.101	
17.505	-0.211	-0.109	
17.510	0.050	-0.120	
17.515	-0.118	-0.114	
17.520	-0.232	-0.109	
17.525	0.062	-0.111	
17.530	0.186	-0.087	
17.535	-0.025	-0.041	
17.540	0.356	0.012	
17.545	0.745	0.102	
17.550	0.421	0.232	
17.555	0.124	0.332	
17.560	-0.013	0.350	
17.565	-0.417	0.280	
17.570	-0.688	0.123	
17.575	-0.561	-0.086	
17.580	-0.523	-0.280	
17.585	-0.624	-0.427	
17.590	-0.419	-0.521	
17.595	-0.177	-0.547	
17.600	-0.262	-0.507	
17.605	-0.179	-0.434	
17.610	0.206	-0.337	
17.615	0.027	-0.215	
17.620	-0.119	-0.109	
17.625	0.220	-0.036	
17.630	0.256	0.033	
17.635	-0.069	0.091	
17.640	0.130	0.115	
17.645	0.376	0.131	
17.650	0.017	0.156	
17.655	0.012	0.159	
17.660	0.406	0.152	
17.665	0.185	0.167	
17.670	-0.009	0.179	
17.675	0.382	0.177	
17.680	0.414	0.197	
17.685	0.065	0.230	
17.690	0.321	0.243	
17.695	0.605	0.265	
17.700	0.259	0.310	
17.705	0.252	0.338	
17.710	0.652	0.355	
17.715	0.437	0.390	
17.720	0.175	0.413	
17.725	0.536	0.410	
17.730	0.559	0.416	
17.735	0.124	0.424	
17.740	0.272	0.399	
17.745	0.487	0.367	
17.750	0.072	0.344	
17.755	-0.013	0.298	
17.760	0.325	0.237	
17.765	0.075	0.197	
17.770	-0.148	0.155	
17.775	0.070	0.099	
17.780	0.044	0.055	
17.785	-0.213	0.021	
17.790	-0.101	-0.022	
17.795	0.085	-0.055	
17.800	-0.171	-0.065	
17.805	-0.193	-0.079	
17.810	0.062	-0.094	
17.815	-0.109	-0.092	
17.820	-0.249	-0.093	
17.825	-0.051	-0.107	
17.830	-0.042	-0.112	
17.835	-0.260	-0.112	
17.840	-0.159	-0.124	
17.845	-0.006	-0.135	
17.850	-0.229	-0.133	
17.855	-0.251	-0.141	
17.860	-0.035	-0.154	
17.865	-0.173	-0.155	
17.870	-0.297	-0.158	
17.875	-0.097	-0.170	
17.880	-0.104	-0.172	
17.885	-0.312	-0.170	
17.890	-0.197	-0.180	
17.895	-0.032	-0.186	
17.900	-0.236	-0.177	
17.905	-0.258	-0.176	
17.910	-0.034	-0.179	
17.915	-0.144	-0.169	
17.920	-0.257	-0.160	
17.925	-0.042	-0.158	
17.930	-0.008	-0.144	
17.935	-0.222	-0.123	
17.940	-0.118	-0.117	
17.945	0.065	-0.110	
17.950	-0.188	-0.095	
17.955	-0.200	-0.093	
17.960	0.029	-0.101	
17.965	-0.150	-0.100	
17.970	-0.292	-0.107	
17.975	-0.104	-0.129	
17.980	-0.086	-0.143	
17.985	-0.287	-0.150	
17.990	-0.184	-0.164	
17.995	-0.026	-0.173	
18.000	-0.237	-0.167	
18.005	-0.255	-0.168	
18.010	-0.035	-0.174	
18.015	-0.138	-0.166	
18.020	-0.229	-0.156	
18.025	0.088	-0.146	
18.030	0.250	-0.105	
18.035	0.010	-0.038	
18.040	0.285	0.028	
18.045	0.458	0.103	
18.050	-0.144	0.170	
18.055	-0.401	0.161	
18.060	-0.417	0.064	
18.065	-0.602	-0.081	
18.070	-0.698	-0.244	
18.075	-0.472	-0.393	
18.080	-0.376	-0.487	
18.085	-0.459	-0.521	
18.090	-0.271	-0.514	
18.095	-0.013	-0.462	
18.100	-0.150	-0.372	
18.105	-0.132	-0.280	
18.110	0.218	-0.191	
18.115	0.047	-0.097	
18.120	-0.118	-0.023	
18.125	0.201	0.018	
18.130	0.232	0.059	
18.135	-0.093	0.094	
18.140	0.068	0.100	
18.145	0.342	0.102	
18.150	0.020	0.119	
18.155	-0.028	0.123	
18.160	0.311	0.114	
18.165	0.107	0.121	
18.170	-0.089	0.123	
18.175	0.243	0.108	
18.180	0.293	0.113	
18.185	-0.037	0.131	
18.190	0.178	0.134	
18.195	0.482	0.148	
18.200	0.160	0.188	
18.205	0.139	0.216	
18.210	0.533	0.235	
18.215	0.314	0.271	
18.220	0.059	0.295	
18.225	0.363	0.289	
18.230	0.360	0.286	
18.235	-0.032	0.280	
18.240	0.101	0.244	
18.245	0.334	0.204	
18.250	-0.032	0.181	
18.255	-0.100	0.144	
18.260	0.171	0.096	
18.265	-0.058	0.064	
18.270	-0.236	0.028	
18.275	-0.051	-0.022	
18.280	-0.017	-0.059	
18.285	-0.228	-0.080	
18.290	-0.127	-0.104	
18.295	0.062	-0.116	
18.300	-0.184	-0.109	
18.305	-0.203	-0.109	
18.310	0.070	-0.113	
18.315	-0.084	-0.101	
18.320	-0.231	-0.091	
18.325	-0.028	-0.096	
18.330	0.012	-0.094	
18.335	-0.220	-0.086	
18.340	-0.110	-0.091	
18.345	0.099	-0.092	
18.350	-0.162	-0.079	
18.355	-0.205	-0.078	
18.360	0.059	-0.087	
18.365	-0.090	-0.083	
18.370	-0.240	-0.083	
18.375	-0.042	-0.096	
18.380	0.010	-0.099	
18.385	-0.232	-0.094	
18.390	-0.135	-0.101	
18.395	0.087	-0.105	
18.400	-0.148	-0.093	
18.405	-0.161	-0.087	
18.410	0.119	-0.084	
18.415	-0.064	-0.067	
18.420	-0.225	-0.056	
18.425	-0.014	-0.065	
18.430	0.032	-0.068	
18.435	-0.220	-0.065	
18.440	-0.133	-0.076	
18.445	0.049	-0.088	
18.450	-0.194	-0.088	
18.455	-0.231	-0.098	
18.460	-0.011	-0.116	
18.465	-0.130	-0.121	
18.470	-0.265	-0.126	
18.475	-0.066	-0.138	
18.480	-0.040	-0.139	
18.485	-0.248	-0.132	
18.490	-0.148	-0.136	
18.495	0.078	-0.134	
18.500	-0.135	-0.114	
18.505	-0.126	-0.098	
18.510	0.281	-0.077	
18.515	0.209	-0.023	
18.520	0.046	0.043	
18.525	0.347	0.097	
18.530	0.137	0.146	
18.535	-0.352	0.156	
18.540	-0.448	0.085	
18.545	-0.419	-0.042	
18.550	-0.573	-0.183	
18.555	-0.541	-0.316	
18.560	-0.298	-0.413	
18.565	-0.315	-0.451	
18.570	-0.336	-0.445	
18.575	-0.061	-0.409	
18.580	0.101	-0.332	
18.585	-0.129	-0.232	
18.590	0.052	-0.145	
18.595	0.360	-0.060	
18.600	0.036	0.030	
18.605	-0.006	0.089	
18.610	0.372	0.119	
18.615	0.198	0.156	
18.620	-0.035	0.179	
18.625	0.310	0.177	
18.630	0.374	0.188	
18.635	-0.003	0.207	
18.640	0.157	0.203	
18.645	0.434	0.197	
18.650	0.104	0.210	
18.655	0.072	0.211	
18.660	0.460	0.205	
18.665	0.314	0.224	
18.670	0.087	0.247	
18.675	0.447	0.255	
18.680	0.533	0.282	
18.685	0.188	0.322	
18.690	0.369	0.341	
18.695	0.661	0.361	
18.700	0.325	0.397	
18.705	0.230	0.413	
18.710	0.548	0.406	
18.715	0.322	0.404	
18.720	0.029	0.384	
18.725	0.308	0.336	
18.730	0.302	0.294	
18.735	-0.095	0.256	
18.740	-0.020	0.195	
18.745	0.185	0.131	
18.750	-0.132	0.086	
18.755	-0.193	0.035	
18.760	0.050	-0.018	
18.765	-0.089	-0.049	
18.770	-0.237	-0.072	
18.775	-0.038	-0.098	
18.780	0.029	-0.106	
18.785	-0.210	-0.099	
18.790	-0.113	-0.100	
18.795	0.105	-0.098	
18.800	-0.147	-0.081	
18.805	-0.188	-0.075	
18.810	0.047	-0.080	
18.815	-0.092	-0.077	
18.820	-0.242	-0.078	
18.825	-0.052	-0.093	
18.830	-0.002	-0.100	
18.835	-0.219	-0.097	
18.840	-0.139	-0.105	
18.845	0.056	-0.109	
18.850	-0.174	-0.101	
18.855	-0.208	-0.101	
18.860	0.044	-0.108	
18.865	-0.080	-0.100	
18.870	-0.222	-0.094	
18.875	0.000	-0.097	
18.880	0.091	-0.087	
18.885	-0.185	-0.066	
18.890	-0.106	-0.061	
18.895	0.116	-0.061	
18.900	-0.141	-0.050	
18.905	-0.185	-0.051	
18.910	0.058	-0.064	
18.915	-0.092	-0.065	
18.920	-0.262	-0.072	
18.925	-0.090	-0.095	
18.930	-0.066	-0.112	
18.935	-0.274	-0.122	
18.940	-0.205	-0.143	
18.945	-0.040	-0.160	
18.950	-0.239	-0.163	
18.955	-0.274	-0.171	
18.960	-0.063	-0.182	
18.965	-0.147	-0.180	
18.970	-0.275	-0.174	
18.975	-0.054	-0.174	
18.980	0.093	-0.155	
18.985	-0.130	-0.117	
18.990	0.070	-0.081	
18.995	0.449	-0.028	
19.000	0.041	0.050	
19.005	-0.202	0.095	
19.010	-0.194	0.073	
19.015	-0.433	0.002	
19.020	-0.631	-0.111	
19.025	-0.471	-0.247	
19.030	-0.388	-0.358	
19.035	-0.512	-0.428	
19.040	-0.361	-0.465	
19.045	-0.132	-0.461	
19.050	-0.211	-0.412	
19.055	-0.187	-0.346	
19.060	0.151	-0.270	
19.065	0.053	-0.175	
19.070	-0.126	-0.090	
19.075	0.198	-0.031	
19.080	0.304	0.030	
19.085	-0.051	0.089	
19.090	0.110	0.116	
19.095	0.395	0.134	
19.100	0.075	0.163	
19.105	0.009	0.173	
19.110	0.379	0.168	
19.115	0.233	0.180	
19.120	-0.016	0.191	
19.125	0.305	0.185	
19.130	0.421	0.195	
19.135	0.087	0.220	
19.140	0.276	0.233	
19.145	0.565	0.251	
19.150	0.275	0.292	
19.155	0.233	0.320	
19.160	0.647	0.339	
19.165	0.479	0.378	
19.170	0.163	0.409	
19.175	0.479	0.409	
19.180	0.542	0.409	
19.185	0.140	0.413	
19.190	0.224	0.387	
19.195	0.458	0.351	
19.200	0.090	0.325	
19.205	-0.029	0.281	
19.210	0.270	0.221	
19.215	0.055	0.177	
19.220	-0.182	0.132	
19.225	-0.002	0.071	
19.230	0.047	0.021	
19.235	-0.200	-0.012	
19.240	-0.133	-0.048	
19.245	0.042	-0.077	
19.250	-0.188	-0.088	
19.255	-0.234	-0.103	
19.260	-0.002	-0.122	
19.265	-0.092	-0.124	
19.270	-0.232	-0.121	
19.275	-0.049	-0.126	
19.280	0.032	-0.118	
19.285	-0.185	-0.101	
19.290	-0.119	-0.095	
19.295	0.079	-0.090	
19.300	-0.155	-0.077	
19.305	-0.194	-0.075	
19.310	0.067	-0.083	
19.315	-0.064	-0.077	
19.320	-0.213	-0.073	
19.325	-0.020	-0.081	
19.330	0.053	-0.079	
19.335	-0.173	-0.067	
19.340	-0.075	-0.066	
19.345	0.215	-0.059	
19.350	-0.063	-0.030	
19.355	-0.115	-0.012	
19.360	0.166	-0.007	
19.365	0.021	0.008	
19.370	-0.176	0.015	
19.375	0.021	0.002	
19.380	0.113	-0.006	
19.385	-0.170	-0.005	
19.390	-0.110	-0.020	
19.395	0.113	-0.036	
19.400	-0.155	-0.039	
19.405	-0.223	-0.053	
19.410	-0.011	-0.078	
19.415	-0.107	-0.092	
19.420	-0.255	-0.104	
19.425	-0.063	-0.123	
19.430	0.004	-0.126	
19.435	-0.228	-0.118	
19.440	-0.141	-0.119	
19.445	0.143	-0.115	
19.450	-0.054	-0.087	
19.455	-0.046	-0.058	
19.460	0.394	-0.022	
19.465	0.368	0.052	
19.470	0.042	0.132	
19.475	0.085	0.172	
19.480	-0.124	0.164	
19.485	-0.478	0.100	
19.490	-0.511	-0.023	
19.495	-0.368	-0.166	
19.500	-0.486	-0.285	
19.505	-0.477	-0.375	
19.510	-0.231	-0.427	
19.515	-0.223	-0.428	
19.520	-0.286	-0.393	
19.525	-0.037	-0.342	
19.530	0.152	-0.264	
19.535	-0.118	-0.169	
19.540	-0.014	-0.096	
19.545	0.295	-0.036	
19.550	0.020	0.028	
19.555	-0.040	0.068	
19.560	0.304	0.086	
19.565	0.181	0.114	
19.570	-0.072	0.134	
19.575	0.220	0.131	
19.580	0.327	0.137	
19.585	-0.023	0.154	
19.590	0.107	0.152	
19.595	0.415	0.151	
19.600	0.125	0.171	
19.605	0.042	0.183	
19.610	0.438	0.184	
19.615	0.366	0.210	
19.620	0.113	0.244	
19.625	0.438	0.263	
19.630	0.565	0.295	
19.635	0.211	0.339	
19.640	0.334	0.359	
19.645	0.618	0.371	
19.650	0.266	0.394	
19.655	0.120	0.391	
19.660	0.424	0.360	
19.665	0.244	0.335	
19.670	-0.063	0.299	
19.675	0.160	0.240	
19.680	0.212	0.188	
19.685	-0.133	0.148	
19.690	-0.084	0.095	
19.695	0.122	0.043	
19.700	-0.145	0.010	
19.705	-0.219	-0.026	
19.710	0.003	-0.065	
19.715	-0.092	-0.087	
19.720	-0.245	-0.101	
19.725	-0.068	-0.119	
19.730	0.026	-0.123	
19.735	-0.208	-0.112	
19.740	-0.148	-0.111	
19.745	0.062	-0.110	
19.750	-0.148	-0.098	
19.755	-0.199	-0.093	
19.760	0.038	-0.098	
19.765	-0.068	-0.090	
19.770	-0.228	-0.085	
19.775	-0.055	-0.094	
19.780	0.036	-0.094	
19.785	-0.194	-0.086	
19.790	-0.124	-0.087	
19.795	0.111	-0.087	
19.800	-0.122	-0.072	
19.805	-0.185	-0.066	
19.810	0.079	-0.070	
19.815	-0.019	-0.061	
19.820	-0.185	-0.052	
19.825	0.001	-0.056	
19.830	0.104	-0.051	
19.835	-0.168	-0.037	
19.840	-0.112	-0.040	
19.845	0.113	-0.046	
19.850	-0.136	-0.042	
19.855	-0.208	-0.049	
19.860	0.012	-0.069	
19.865	-0.090	-0.078	
19.870	-0.269	-0.089	
19.875	-0.118	-0.112	
19.880	-0.058	-0.129	
19.885	-0.266	-0.136	
19.890	-0.208	-0.152	
19.895	-0.022	-0.164	
19.900	-0.202	-0.160	
19.905	-0.252	-0.160	
19.910	-0.031	-0.165	
19.915	-0.083	-0.155	
19.920	-0.199	-0.140	
19.925	0.068	-0.125	
19.930	0.313	-0.084	
19.935	0.065	-0.013	
19.940	0.217	0.055	
19.945	0.357	0.118	
19.950	-0.194	0.161	
19.955	-0.456	0.130	
19.960	-0.419	0.020	
19.965	-0.517	-0.121	
19.970	-0.640	-0.264	
19.975	-0.454	-0.390	
19.980	-0.333	-0.467	
19.985	-0.426	-0.490	
19.990	-0.280	-0.478	
19.995	-0.014	-0.431	
20.000	-0.155	-0.349	
20.005	-0.184	-0.268	
20.010	0.122	-0.197	
20.015	0.041	-0.121	
20.020	-0.164	-0.060	
20.025	0.049	-0.029	
20.030	0.159	-0.005	
20.035	-0.139	0.019	
20.040	-0.078	0.018	
20.045	0.200	0.009	
20.050	-0.055	0.016	
20.055	-0.139	0.014	
20.060	0.171	0.003	
20.065	0.084	0.010	
20.070	-0.132	0.021	
20.075	0.131	0.021	
20.080	0.279	0.035	
20.085	-0.043	0.066	
20.090	0.090	0.082	
20.095	0.450	0.102	
20.100	0.197	0.147	
20.105	0.107	0.187	
20.110	0.479	0.212	
20.115	0.369	0.252	
20.120	0.070	0.285	
20.125	0.331	0.287	
20.130	0.417	0.288	
20.135	0.015	0.290	
20.140	0.056	0.260	
20.145	0.302	0.218	
20.150	-0.038	0.185	
20.155	-0.156	0.138	
20.160	0.079	0.077	
20.165	-0.048	0.031	
20.170	-0.245	-0.010	
20.175	-0.109	-0.058	
20.180	-0.034	-0.093	
20.185	-0.248	-0.113	
20.190	-0.196	-0.136	
20.195	0.021	-0.150	
20.200	-0.168	-0.144	
20.205	-0.239	-0.141	
20.210	-0.014	-0.143	
20.215	-0.083	-0.134	
20.220	-0.248	-0.125	
20.225	-0.080	-0.127	
20.230	0.026	-0.123	
20.235	-0.208	-0.109	
20.240	-0.155	-0.107	
20.245	0.068	-0.107	
20.250	-0.153	-0.095	
20.255	-0.228	-0.093	
20.260	-0.005	-0.103	
20.265	-0.068	-0.103	
20.270	-0.243	-0.102	
20.275	-0.080	-0.112	
20.280	0.044	-0.112	
20.285	-0.187	-0.100	
20.290	-0.133	-0.097	
20.295	0.107	-0.094	
20.300	-0.130	-0.077	
20.305	-0.199	-0.071	
20.310	0.072	-0.076	
20.315	0.009	-0.066	
20.320	-0.184	-0.054	
20.325	-0.009	-0.055	
20.330	0.122	-0.049	
20.335	-0.158	-0.033	
20.340	-0.116	-0.034	
20.345	0.124	-0.040	
20.350	-0.132	-0.036	
20.355	-0.226	-0.044	
20.360	-0.016	-0.068	
20.365	-0.098	-0.083	
20.370	-0.272	-0.098	
20.375	-0.122	-0.122	
20.380	-0.042	-0.137	
20.385	-0.255	-0.141	
20.390	-0.203	-0.151	
20.395	-0.003	-0.159	
20.400	-0.185	-0.152	
20.405	-0.248	-0.149	
20.410	0.017	-0.151	
20.415	0.024	-0.133	
20.420	-0.119	-0.102	
20.425	0.253	-0.066	
20.430	0.479	0.004	
20.435	0.114	0.099	
20.440	-0.055	0.157	
20.445	-0.110	0.152	
20.450	-0.453	0.088	
20.455	-0.650	-0.037	
20.460	-0.508	-0.195	
20.465	-0.517	-0.338	
20.470	-0.601	-0.445	
20.475	-0.381	-0.512	
20.480	-0.205	-0.523	
20.485	-0.297	-0.482	
20.490	-0.187	-0.418	
20.495	0.124	-0.335	
20.500	-0.068	-0.233	
20.505	-0.122	-0.145	
20.510	0.203	-0.081	
20.515	0.130	-0.015	
20.520	-0.124	0.036	
20.525	0.108	0.054	
20.530	0.282	0.070	
20.535	-0.055	0.093	
20.540	0.023	0.097	
20.545	0.347	0.096	
20.550	0.073	0.114	
20.555	-0.055	0.122	
20.560	0.313	0.117	
20.565	0.266	0.131	
20.570	-0.020	0.152	
20.575	0.282	0.157	
20.580	0.458	0.177	
20.585	0.108	0.215	
20.590	0.215	0.235	
20.595	0.577	0.252	
20.600	0.334	0.293	
20.605	0.180	0.325	
20.610	0.528	0.337	
20.615	0.431	0.358	
20.620	0.082	0.370	
20.625	0.316	0.349	
20.630	0.438	0.328	
20.635	0.044	0.314	
20.640	0.039	0.275	
20.645	0.293	0.225	
20.650	-0.023	0.186	
20.655	-0.144	0.138	
20.660	0.127	0.080	
20.665	0.015	0.042	
20.670	-0.213	0.014	
20.675	-0.069	-0.025	
20.680	0.056	-0.053	
20.685	-0.188	-0.064	
20.690	-0.152	-0.079	
20.695	0.099	-0.090	
20.700	-0.116	-0.082	
20.705	-0.190	-0.078	
20.710	0.081	-0.081	
20.715	0.009	-0.068	
20.720	-0.205	-0.054	
20.725	-0.043	-0.058	
20.730	0.096	-0.058	
20.735	-0.182	-0.049	
20.740	-0.150	-0.055	
20.745	0.094	-0.065	
20.750	-0.121	-0.062	
20.755	-0.222	-0.066	
20.760	0.004	-0.082	
20.765	-0.052	-0.087	
20.770	-0.234	-0.088	
20.775	-0.087	-0.101	
20.780	0.044	-0.105	
20.785	-0.200	-0.097	
20.790	-0.158	-0.099	
20.795	0.102	-0.101	
20.800	-0.118	-0.086	
20.805	-0.200	-0.079	
20.810	0.079	-0.081	
20.815	0.042	-0.067	
20.820	-0.164	-0.048	
20.825	0.009	-0.042	
20.830	0.163	-0.031	
20.835	-0.132	-0.010	
20.840	-0.103	-0.008	
20.845	0.160	-0.013	
20.850	-0.097	-0.008	
20.855	-0.205	-0.015	
20.860	0.021	-0.038	
20.865	-0.055	-0.052	
20.870	-0.252	-0.065	
20.875	-0.118	-0.091	
20.880	-0.011	-0.110	
20.885	-0.240	-0.117	
20.890	-0.207	-0.130	
20.895	0.030	-0.142	
20.900	-0.155	-0.135	
20.905	-0.242	-0.131	
20.910	-0.006	-0.134	
20.915	-0.016	-0.124	
20.920	-0.159	-0.105	
20.925	0.146	-0.085	
20.930	0.467	-0.032	
20.935	0.241	0.061	
20.940	0.334	0.155	
20.945	0.444	0.235	
20.950	-0.162	0.280	
20.955	-0.469	0.234	
20.960	-0.454	0.097	
20.965	-0.533	-0.077	
20.970	-0.668	-0.249	
20.975	-0.475	-0.396	
20.980	-0.286	-0.483	
20.985	-0.367	-0.502	
20.990	-0.239	-0.477	
20.995	0.105	-0.410	
21.000	-0.049	-0.306	
21.005	-0.113	-0.203	
21.010	0.246	-0.116	
21.015	0.204	-0.025	
21.020	-0.077	0.051	
21.025	0.172	0.089	
21.030	0.362	0.121	
21.035	0.018	0.156	
21.040	0.072	0.166	
21.045	0.420	0.167	
21.050	0.157	0.186	
21.055	-0.006	0.195	
21.060	0.363	0.187	
21.065	0.327	0.196	
21.070	0.017	0.213	
21.075	0.287	0.211	
21.080	0.472	0.220	
21.085	0.137	0.247	
21.090	0.217	0.260	
21.095	0.586	0.271	
21.100	0.365	0.307	
21.105	0.204	0.339	
21.110	0.563	0.353	
21.115	0.513	0.380	
21.120	0.178	0.405	
21.125	0.398	0.401	
21.130	0.530	0.394	
21.135	0.124	0.391	
21.140	0.101	0.358	
21.145	0.379	0.308	
21.150	0.064	0.269	
21.155	-0.113	0.219	
21.160	0.140	0.152	
21.165	0.056	0.102	
21.170	-0.196	0.061	
21.175	-0.057	0.011	
21.180	0.082	-0.025	
21.185	-0.182	-0.042	
21.190	-0.161	-0.063	
21.195	0.087	-0.081	
21.200	-0.115	-0.080	
21.205	-0.214	-0.081	
21.210	0.024	-0.090	
21.215	-0.028	-0.087	
21.220	-0.228	-0.082	
21.225	-0.090	-0.090	
21.230	0.047	-0.095	
21.235	-0.188	-0.088	
21.240	-0.161	-0.091	
21.245	0.061	-0.096	
21.250	-0.148	-0.090	
21.255	-0.254	-0.093	
21.260	-0.048	-0.109	
21.265	-0.075	-0.117	
21.270	-0.268	-0.121	
21.275	-0.130	-0.134	
21.280	-0.003	-0.141	
21.285	-0.223	-0.135	
21.290	-0.197	-0.137	
21.295	0.021	-0.140	
21.300	-0.155	-0.130	
21.305	-0.239	-0.125	
21.310	-0.019	-0.130	
21.315	-0.058	-0.124	
21.320	-0.240	-0.115	
21.325	-0.089	-0.119	
21.330	0.090	-0.114	
21.335	-0.155	-0.093	
21.340	-0.127	-0.082	
21.345	0.143	-0.073	
21.350	-0.080	-0.052	
21.355	-0.182	-0.041	
21.360	0.068	-0.045	
21.365	0.018	-0.040	
21.370	-0.216	-0.036	
21.375	-0.080	-0.049	
21.380	0.047	-0.062	
21.385	-0.222	-0.067	
21.390	-0.213	-0.085	
21.395	-0.011	-0.108	
21.400	-0.174	-0.119	
21.405	-0.274	-0.131	
21.410	-0.066	-0.149	
21.415	-0.097	-0.154	
21.420	-0.278	-0.153	
21.425	-0.147	-0.161	
21.430	0.000	-0.161	
21.435	-0.182	-0.147	
21.440	-0.103	-0.135	
21.445	0.322	-0.107	
21.450	0.230	-0.037	
21.455	0.208	0.049	
21.460	0.631	0.141	
21.465	0.365	0.245	
21.470	-0.262	0.302	
21.475	-0.387	0.249	
21.480	-0.471	0.107	
21.485	-0.692	-0.075	
21.490	-0.666	-0.268	
21.495	-0.439	-0.426	
21.500	-0.460	-0.518	
21.505	-0.430	-0.550	
21.510	-0.129	-0.531	
21.515	-0.046	-0.458	
21.520	-0.184	-0.356	
21.525	0.030	-0.258	
21.530	0.235	-0.157	
21.535	-0.064	-0.058	
21.540	-0.026	0.005	
21.545	0.295	0.043	
21.550	0.059	0.083	
21.555	-0.077	0.102	
21.560	0.275	0.102	
21.565	0.255	0.116	
21.570	-0.031	0.136	
21.575	0.215	0.140	
21.580	0.406	0.153	
21.585	0.078	0.182	
21.590	0.117	0.194	
21.595	0.470	0.201	
21.600	0.249	0.227	
21.605	0.107	0.247	
21.610	0.507	0.257	
21.615	0.516	0.289	
21.620	0.224	0.333	
21.625	0.469	0.360	
21.630	0.664	0.390	
21.635	0.302	0.430	
21.640	0.325	0.444	
21.645	0.628	0.442	
21.650	0.337	0.448	
21.655	0.099	0.433	
21.660	0.412	0.389	
21.665	0.324	0.353	
21.670	-0.052	0.317	
21.675	0.102	0.256	
21.680	0.250	0.197	
21.685	-0.101	0.155	
21.690	-0.106	0.103	
21.695	0.152	0.051	
21.700	-0.089	0.021	
21.705	-0.202	-0.008	
21.710	0.029	-0.042	
21.715	-0.013	-0.058	
21.720	-0.217	-0.066	
21.725	-0.078	-0.081	
21.730	0.088	-0.087	
21.735	-0.173	-0.077	
21.740	-0.170	-0.078	
21.745	0.079	-0.084	
21.750	-0.119	-0.077	
21.755	-0.228	-0.078	
21.760	-0.016	-0.091	
21.765	-0.031	-0.094	
21.770	-0.225	-0.092	
21.775	-0.107	-0.101	
21.780	0.044	-0.105	
21.785	-0.193	-0.098	
21.790	-0.170	-0.099	
21.795	0.085	-0.103	
21.800	-0.119	-0.091	
21.805	-0.234	-0.086	
21.810	-0.029	-0.096	
21.815	-0.042	-0.099	
21.820	-0.231	-0.098	
21.825	-0.100	-0.107	
21.830	0.067	-0.109	
21.835	-0.170	-0.096	
21.840	-0.158	-0.091	
21.845	0.114	-0.090	
21.850	-0.086	-0.073	
21.855	-0.184	-0.062	
21.860	0.088	-0.062	
21.865	0.093	-0.047	
21.870	-0.138	-0.024	
21.875	0.026	-0.016	
21.880	0.229	-0.002	
21.885	-0.087	0.023	
21.890	-0.090	0.030	
21.895	0.195	0.024	
21.900	-0.054	0.028	
21.905	-0.188	0.020	
21.910	0.020	-0.006	
21.915	-0.014	-0.026	
21.920	-0.217	-0.041	
21.925	-0.098	-0.066	
21.930	0.062	-0.082	
21.935	-0.181	-0.082	
21.940	-0.168	-0.089	
21.945	0.073	-0.096	
21.950	-0.103	-0.088	
21.955	-0.197	-0.082	
21.960	0.088	-0.084	
21.965	0.166	-0.062	
21.970	-0.032	-0.022	
21.975	0.308	0.021	
21.980	0.631	0.094	
21.985	0.354	0.201	
21.990	0.209	0.288	
21.995	0.137	0.320	
22.000	-0.326	0.284	
22.005	-0.584	0.163	
22.010	-0.474	-0.017	
22.015	-0.457	-0.195	
22.020	-0.541	-0.335	
22.025	-0.336	-0.429	
22.030	-0.127	-0.457	
22.035	-0.214	-0.424	
22.040	-0.112	-0.361	
22.045	0.296	-0.269	
22.050	0.128	-0.146	
22.055	-0.009	-0.034	
22.060	0.357	0.049	
22.065	0.366	0.130	
22.070	0.059	0.199	
22.075	0.270	0.231	
22.080	0.467	0.253	
22.085	0.131	0.279	
22.090	0.169	0.282	
22.095	0.510	0.276	
22.100	0.292	0.291	
22.105	0.117	0.300	
22.110	0.473	0.296	
22.115	0.469	0.309	
22.120	0.148	0.331	
22.125	0.392	0.334	
22.130	0.625	0.346	
22.135	0.318	0.378	
22.140	0.372	0.399	
22.145	0.733	0.419	
22.150	0.513	0.460	
22.155	0.322	0.491	
22.160	0.683	0.501	
22.165	0.646	0.521	
22.170	0.269	0.538	
22.175	0.450	0.522	
22.180	0.623	0.501	
22.185	0.223	0.487	
22.190	0.175	0.447	
22.195	0.441	0.392	
22.200	0.140	0.348	
22.205	-0.078	0.292	
22.210	0.188	0.218	
22.215	0.134	0.162	
22.220	-0.142	0.118	
22.225	-0.009	0.068	
22.230	0.157	0.030	
22.235	-0.132	0.014	
22.240	-0.129	-0.007	
22.245	0.145	-0.028	
22.250	-0.075	-0.029	
22.255	-0.187	-0.033	
22.260	0.056	-0.047	
22.265	0.047	-0.046	
22.270	-0.173	-0.039	
22.275	-0.031	-0.043	
22.280	0.159	-0.041	
22.285	-0.139	-0.025	
22.290	-0.135	-0.025	
22.295	0.140	-0.032	
22.300	-0.068	-0.026	
22.305	-0.202	-0.028	
22.310	0.012	-0.045	
22.315	-0.011	-0.053	
22.320	-0.213	-0.058	
22.325	-0.081	-0.073	
22.330	0.072	-0.082	
22.335	-0.171	-0.076	
22.340	-0.156	-0.078	
22.345	0.104	-0.083	
22.350	-0.075	-0.071	
22.355	-0.190	-0.063	
22.360	0.039	-0.066	
22.365	0.049	-0.059	
22.370	-0.165	-0.046	
22.375	-0.009	-0.044	
22.380	0.192	-0.035	
22.385	-0.119	-0.012	
22.390	-0.118	-0.006	
22.395	0.169	-0.011	
22.400	-0.057	-0.003	
22.405	-0.184	-0.005	
22.410	0.053	-0.022	
22.415	0.015	-0.029	
22.420	-0.216	-0.033	
22.425	-0.097	-0.053	
22.430	0.033	-0.070	
22.435	-0.216	-0.077	
22.440	-0.222	-0.095	
22.445	-0.005	-0.117	
22.450	-0.155	-0.124	
22.455	-0.263	-0.131	
22.460	-0.071	-0.145	
22.465	-0.064	-0.147	
22.470	-0.219	-0.140	
22.475	-0.051	-0.136	
22.480	0.212	-0.114	
22.485	-0.020	-0.066	
22.490	0.101	-0.018	
22.495	0.470	0.040	
22.500	0.036	0.110	
22.505	-0.306	0.135	
22.510	-0.330	0.081	
22.515	-0.491	-0.028	
22.520	-0.679	-0.168	
22.525	-0.538	-0.316	
22.530	-0.376	-0.429	
22.535	-0.482	-0.487	
22.540	-0.399	-0.506	
22.545	-0.130	-0.487	
22.550	-0.174	-0.426	
22.555	-0.223	-0.350	
22.560	0.038	-0.275	
22.565	0.061	-0.191	
22.570	-0.173	-0.115	
22.575	-0.025	-0.071	
22.580	0.197	-0.037	
22.585	-0.087	-0.001	
22.590	-0.074	0.015	
22.595	0.270	0.021	
22.600	0.038	0.044	
22.605	-0.103	0.058	
22.610	0.212	0.057	
22.615	0.195	0.069	
22.620	-0.100	0.086	
22.625	0.093	0.082	
22.630	0.334	0.085	
22.635	-0.006	0.105	
22.640	0.020	0.112	
22.645	0.398	0.114	
22.650	0.201	0.141	
22.655	0.032	0.167	
22.660	0.392	0.179	
22.665	0.397	0.208	
22.670	0.049	0.241	
22.675	0.261	0.247	
22.680	0.435	0.251	
22.685	0.021	0.260	
22.690	-0.023	0.237	
22.695	0.258	0.193	
22.700	-0.016	0.158	
22.705	-0.176	0.114	
22.710	0.032	0.055	
22.715	-0.032	0.010	
22.720	-0.281	-0.029	
22.725	-0.187	-0.079	
22.730	-0.080	-0.122	
22.735	-0.284	-0.151	
22.740	-0.294	-0.180	
22.745	-0.112	-0.207	
22.750	-0.237	-0.216	
22.755	-0.341	-0.224	
22.760	-0.150	-0.236	
22.765	-0.139	-0.234	
22.770	-0.320	-0.225	
22.775	-0.200	-0.224	
22.780	-0.071	-0.218	
22.785	-0.265	-0.203	
22.790	-0.254	-0.198	
22.795	-0.063	-0.197	
22.800	-0.208	-0.188	
22.805	-0.315	-0.185	
22.810	-0.133	-0.194	
22.815	-0.138	-0.196	
22.820	-0.326	-0.195	
22.825	-0.210	-0.204	
22.830	-0.089	-0.210	
22.835	-0.286	-0.205	
22.840	-0.268	-0.207	
22.845	-0.064	-0.211	
22.850	-0.197	-0.202	
22.855	-0.303	-0.195	
22.860	-0.100	-0.197	
22.865	-0.103	-0.190	
22.870	-0.274	-0.178	
22.875	-0.147	-0.176	
22.880	0.020	-0.168	
22.885	-0.214	-0.148	
22.890	-0.223	-0.140	
22.895	-0.016	-0.141	
22.900	-0.177	-0.136	
22.905	-0.304	-0.139	
22.910	-0.110	-0.157	
22.915	-0.121	-0.166	
22.920	-0.323	-0.171	
22.925	-0.222	-0.188	
22.930	-0.110	-0.202	
22.935	-0.310	-0.206	
22.940	-0.313	-0.218	
22.945	-0.100	-0.232	
22.950	-0.213	-0.229	
22.955	-0.320	-0.225	
22.960	-0.132	-0.226	
22.965	-0.109	-0.217	
22.970	-0.255	-0.201	
22.975	-0.084	-0.188	
22.980	0.197	-0.157	
22.985	-0.048	-0.101	
22.990	0.036	-0.049	
22.995	0.379	0.005	
23.000	-0.063	0.064	
23.005	-0.370	0.076	
23.010	-0.376	0.013	
23.015	-0.497	-0.095	
23.020	-0.679	-0.225	
23.025	-0.532	-0.357	
23.030	-0.367	-0.454	
23.035	-0.472	-0.498	
23.040	-0.404	-0.507	
23.045	-0.141	-0.483	
23.050	-0.187	-0.423	
23.055	-0.258	-0.350	
23.060	-0.013	-0.283	
23.065	0.023	-0.210	
23.070	-0.202	-0.143	
23.075	-0.063	-0.104	
23.080	0.165	-0.073	
23.085	-0.119	-0.038	
23.090	-0.118	-0.022	
23.095	0.195	-0.018	
23.100	0.000	0.000	
23.105	-0.142	0.011	
23.110	0.169	0.010	
23.115	0.172	0.024	
23.120	-0.118	0.045	
23.125	0.059	0.047	
23.130	0.313	0.053	
23.135	-0.009	0.078	
23.140	0.015	0.090	
23.145	0.409	0.099	
23.150	0.241	0.135	
23.155	0.056	0.171	
23.160	0.421	0.193	
23.165	0.437	0.230	
23.170	0.094	0.270	
23.175	0.305	0.283	
23.180	0.508	0.293	
23.185	0.102	0.309	
23.190	0.046	0.295	
23.195	0.339	0.259	
23.200	0.085	0.230	
23.205	-0.133	0.191	
23.210	0.094	0.132	
23.215	0.030	0.083	
23.220	-0.236	0.040	
23.225	-0.136	-0.015	
23.230	-0.003	-0.063	
23.235	-0.237	-0.093	
23.240	-0.262	-0.124	
23.245	-0.057	-0.154	
23.250	-0.193	-0.167	
23.255	-0.313	-0.177	
23.260	-0.115	-0.193	
23.265	-0.092	-0.194	
23.270	-0.281	-0.186	
23.275	-0.173	-0.185	
23.280	-0.013	-0.181	
23.285	-0.226	-0.165	
23.290	-0.231	-0.158	
23.295	0.003	-0.158	
23.300	-0.153	-0.146	
23.305	-0.277	-0.140	
23.310	-0.078	-0.147	
23.315	-0.069	-0.147	
23.320	-0.284	-0.143	
23.325	-0.182	-0.152	
23.330	-0.032	-0.160	
23.335	-0.237	-0.157	
23.340	-0.246	-0.161	
23.345	-0.020	-0.168	
23.350	-0.156	-0.161	
23.355	-0.263	-0.155	
23.360	-0.028	-0.156	
23.365	0.006	-0.143	
23.370	-0.236	-0.121	
23.375	-0.127	-0.116	
23.380	0.050	-0.112	
23.385	-0.213	-0.100	
23.390	-0.226	-0.104	
23.395	-0.003	-0.117	
23.400	-0.153	-0.120	
23.405	-0.284	-0.127	
23.410	-0.113	-0.145	
23.415	-0.124	-0.157	
23.420	-0.318	-0.165	
23.425	-0.216	-0.183	
23.430	-0.072	-0.197	
23.435	-0.278	-0.196	
23.440	-0.289	-0.202	
23.445	-0.095	-0.212	
23.450	-0.211	-0.209	
23.455	-0.336	-0.209	
23.460	-0.122	-0.216	
23.465	-0.051	-0.209	
23.470	-0.214	-0.188	
23.475	-0.023	-0.165	
23.480	0.345	-0.120	
23.485	0.082	-0.041	
23.490	-0.045	0.027	
23.495	0.001	0.055	
23.500	-0.347	0.041	
23.505	-0.617	-0.034	
23.510	-0.523	-0.162	
23.515	-0.498	-0.294	
23.520	-0.622	-0.404	
23.525	-0.472	-0.486	
23.530	-0.291	-0.522	
23.535	-0.381	-0.509	
23.540	-0.313	-0.472	
23.545	-0.034	-0.415	
23.550	-0.126	-0.334	
23.555	-0.229	-0.256	
23.560	0.023	-0.196	
23.565	0.085	-0.135	
23.570	-0.174	-0.079	
23.575	-0.029	-0.051	
23.580	0.221	-0.028	
23.585	-0.092	0.003	
23.590	-0.090	0.016	
23.595	0.261	0.018	
23.600	0.079	0.040	
23.605	-0.090	0.058	
23.610	0.252	0.063	
23.615	0.308	0.088	
23.620	-0.016	0.123	
23.625	0.197	0.139	
23.630	0.469	0.161	
23.635	0.172	0.202	
23.640	0.191	0.231	
23.645	0.597	0.256	
23.650	0.421	0.304	
23.655	0.186	0.347	
23.660	0.518	0.364	
23.665	0.519	0.386	
23.670	0.151	0.404	
23.675	0.301	0.390	
23.680	0.479	0.368	
23.685	0.070	0.351	
23.690	-0.003	0.306	
23.695	0.305	0.244	
23.700	0.033	0.199	
23.705	-0.174	0.149	
23.710	0.038	0.084	
23.715	0.021	0.033	
23.720	-0.242	-0.006	
23.725	-0.155	-0.052	
23.730	0.006	-0.090	
23.735	-0.232	-0.110	
23.740	-0.260	-0.132	
23.745	-0.035	-0.155	
23.750	-0.138	-0.160	
23.755	-0.257	-0.158	
23.760	-0.055	-0.161	
23.765	-0.017	-0.151	
23.770	-0.231	-0.132	
23.775	-0.115	-0.126	
23.780	0.101	-0.117	
23.785	-0.148	-0.093	
23.790	-0.176	-0.082	
23.795	0.076	-0.081	
23.800	-0.095	-0.071	
23.805	-0.228	-0.068	
23.810	-0.026	-0.081	
23.815	-0.003	-0.086	
23.820	-0.232	-0.084	
23.825	-0.132	-0.096	
23.830	0.081	-0.103	
23.835	-0.153	-0.093	
23.840	-0.167	-0.089	
23.845	0.116	-0.088	
23.850	-0.046	-0.070	
23.855	-0.185	-0.056	
23.860	0.062	-0.055	
23.865	0.099	-0.043	
23.870	-0.173	-0.025	
23.875	-0.058	-0.025	
23.880	0.168	-0.027	
23.885	-0.127	-0.015	
23.890	-0.159	-0.018	
23.895	0.105	-0.032	
23.900	-0.087	-0.035	
23.905	-0.243	-0.044	
23.910	-0.063	-0.070	
23.915	-0.042	-0.089	
23.920	-0.255	-0.100	
23.925	-0.158	-0.120	
23.930	0.023	-0.133	
23.935	-0.207	-0.129	
23.940	-0.228	-0.132	
23.945	0.001	-0.140	
23.950	-0.115	-0.133	
23.955	-0.222	-0.126	
23.960	0.075	-0.122	
23.965	0.224	-0.090	
23.970	-0.008	-0.034	
23.975	0.295	0.023	
23.980	0.632	0.103	
23.985	0.252	0.207	
23.990	-0.068	0.269	
23.995	-0.092	0.251	
24.000	-0.382	0.167	
24.005	-0.590	0.028	
24.010	-0.453	-0.139	
24.015	-0.391	-0.282	
24.020	-0.501	-0.381	
24.025	-0.339	-0.439	
24.030	-0.115	-0.446	
24.035	-0.205	-0.403	
24.040	-0.161	-0.339	
24.045	0.204	-0.260	
24.050	0.079	-0.158	
24.055	-0.101	-0.067	
24.060	0.221	-0.005	
24.065	0.288	0.055	
24.070	-0.035	0.110	
24.075	0.142	0.133	
24.080	0.372	0.149	
24.085	0.052	0.172	
24.090	0.029	0.175	
24.095	0.368	0.166	
24.100	0.215	0.176	
24.105	-0.017	0.185	
24.110	0.304	0.177	
24.115	0.369	0.185	
24.120	0.041	0.205	
24.125	0.238	0.208	
24.130	0.504	0.219	
24.135	0.204	0.251	
24.140	0.172	0.270	
24.145	0.556	0.281	
24.150	0.409	0.312	
24.155	0.165	0.341	
24.160	0.476	0.348	
24.165	0.496	0.362	
24.170	0.128	0.376	
24.175	0.258	0.360	
24.180	0.455	0.336	
24.185	0.082	0.320	
24.190	-0.026	0.281	
24.195	0.259	0.223	
24.200	0.024	0.177	
24.205	-0.176	0.128	
24.210	0.003	0.065	
24.215	0.009	0.015	
24.220	-0.231	-0.022	
24.225	-0.153	-0.064	
24.230	0.006	-0.098	
24.235	-0.202	-0.112	
24.240	-0.231	-0.127	
24.245	-0.003	-0.142	
24.250	-0.103	-0.139	
24.255	-0.237	-0.132	
24.260	-0.061	-0.134	
24.265	-0.032	-0.128	
24.270	-0.237	-0.118	
24.275	-0.150	-0.122	
24.280	0.036	-0.124	
24.285	-0.182	-0.115	
24.290	-0.223	-0.114	
24.295	-0.008	-0.122	
24.300	-0.122	-0.120	
24.305	-0.254	-0.120	
24.310	-0.090	-0.132	
24.315	-0.060	-0.136	
24.320	-0.246	-0.134	
24.325	-0.162	-0.141	
24.330	0.029	-0.144	
24.335	-0.179	-0.131	
24.340	-0.203	-0.126	
24.345	0.061	-0.124	
24.350	-0.068	-0.107	
24.355	-0.210	-0.092	
24.360	-0.002	-0.090	
24.365	0.088	-0.079	
24.370	-0.155	-0.057	
24.375	-0.038	-0.048	
24.380	0.217	-0.036	
24.385	-0.083	-0.008	
24.390	-0.144	0.002	
24.395	0.139	-0.004	
24.400	-0.009	-0.000	
24.405	-0.184	-0.001	
24.410	0.015	-0.018	
24.415	0.047	-0.028	
24.420	-0.208	-0.032	
24.425	-0.127	-0.051	
24.430	0.076	-0.069	
24.435	-0.158	-0.071	
24.440	-0.205	-0.079	
24.445	0.032	-0.094	
24.450	-0.092	-0.094	
24.455	-0.225	-0.094	
24.460	-0.019	-0.103	
24.465	0.068	-0.097	
24.470	-0.147	-0.078	
24.475	0.018	-0.063	
24.480	0.371	-0.033	
24.485	0.195	0.033	
24.490	0.258	0.106	
24.495	0.676	0.186	
24.500	0.414	0.285	
24.505	-0.135	0.344	
24.510	-0.188	0.307	
24.515	-0.339	0.194	
24.520	-0.593	0.035	
24.525	-0.535	-0.145	
24.530	-0.358	-0.300	
24.535	-0.420	-0.398	
24.540	-0.350	-0.444	
24.545	-0.051	-0.439	
24.550	-0.038	-0.378	
24.555	-0.133	-0.290	
24.560	0.203	-0.198	
24.565	0.333	-0.089	
24.570	0.007	0.022	
24.575	0.162	0.096	
24.580	0.432	0.150	
24.585	0.148	0.203	
24.590	0.082	0.229	
24.595	0.421	0.233	
24.600	0.295	0.249	
24.605	0.044	0.259	
24.610	0.343	0.250	
24.615	0.449	0.254	
24.620	0.119	0.271	
24.625	0.261	0.274	
24.630	0.542	0.279	
24.635	0.258	0.304	
24.640	0.209	0.319	
24.645	0.606	0.326	
24.650	0.499	0.358	
24.655	0.273	0.395	
24.660	0.580	0.415	
24.665	0.673	0.445	
24.670	0.342	0.483	
24.675	0.464	0.496	
24.680	0.731	0.504	
24.685	0.403	0.522	
24.690	0.275	0.518	
24.695	0.576	0.491	
24.700	0.382	0.471	
24.705	0.067	0.439	
24.710	0.308	0.380	
24.715	0.342	0.328	
24.720	-0.035	0.286	
24.725	0.041	0.227	
24.730	0.250	0.170	
24.735	-0.054	0.133	
24.740	-0.106	0.092	
24.745	0.180	0.051	
24.750	0.049	0.035	
24.755	-0.139	0.027	
24.760	0.072	0.011	
24.765	0.125	0.007	
24.770	-0.139	0.012	
24.775	-0.042	0.003	
24.780	0.197	-0.003	
24.785	-0.087	0.007	
24.790	-0.144	0.005	
24.795	0.117	-0.009	
24.800	-0.011	-0.010	
24.805	-0.182	-0.013	
24.810	0.010	-0.029	
24.815	0.055	-0.036	
24.820	-0.190	-0.036	
24.825	-0.121	-0.050	
24.830	0.087	-0.064	
24.835	-0.156	-0.063	
24.840	-0.197	-0.071	
24.845	0.039	-0.085	
24.850	-0.078	-0.086	
24.855	-0.223	-0.086	
24.860	-0.042	-0.096	
24.865	0.018	-0.097	
24.870	-0.188	-0.088	
24.875	-0.112	-0.089	
24.880	0.117	-0.087	
24.885	-0.110	-0.069	
24.890	-0.152	-0.059	
24.895	0.137	-0.056	
24.900	0.023	-0.038	
24.905	-0.150	-0.020	
24.910	0.056	-0.018	
24.915	0.140	-0.009	
24.920	-0.142	0.006	
24.925	-0.081	0.002	
24.930	0.128	-0.008	
24.935	-0.124	-0.010	
24.940	-0.194	-0.023	
24.945	0.026	-0.048	
24.950	-0.087	-0.062	
24.955	-0.229	-0.075	
24.960	-0.072	-0.096	
24.965	-0.014	-0.106	
24.970	-0.223	-0.107	
24.975	-0.159	-0.116	
24.980	0.047	-0.122	
24.985	-0.164	-0.113	
24.990	-0.190	-0.109	
24.995	0.105	-0.108	
25.000	0.094	-0.082	
25.005	-0.020	-0.041	
25.010	0.427	0.009	
25.015	0.637	0.099	
25.020	0.330	0.219	
25.025	0.163	0.305	
25.030	-0.048	0.319	
25.035	-0.456	0.249	
25.040	-0.648	0.095	
25.045	-0.543	-0.105	
25.050	-0.561	-0.289	
25.055	-0.607	-0.431	
25.060	-0.376	-0.521	
25.065	-0.228	-0.542	
25.070	-0.286	-0.504	
25.075	-0.136	-0.435	
25.080	0.160	-0.340	
25.085	-0.045	-0.224	
25.090	-0.075	-0.125	
25.095	0.250	-0.051	
25.100	0.143	0.021	
25.105	-0.074	0.074	
25.110	0.215	0.096	
25.115	0.296	0.119	
25.120	-0.002	0.146	
25.125	0.146	0.152	
25.130	0.397	0.159	
25.135	0.104	0.181	
25.140	0.042	0.189	
25.145	0.408	0.185	
25.150	0.316	0.203	
25.155	0.094	0.227	
25.160	0.421	0.239	
25.165	0.557	0.270	
25.170	0.275	0.319	
25.175	0.429	0.355	
25.180	0.716	0.393	
25.185	0.457	0.446	
25.190	0.386	0.482	
25.195	0.724	0.501	
25.200	0.600	0.531	
25.205	0.308	0.550	
25.210	0.534	0.539	
25.215	0.571	0.524	
25.220	0.183	0.506	
25.225	0.224	0.457	
25.230	0.443	0.398	
25.235	0.101	0.352	
25.240	-0.016	0.293	
25.245	0.276	0.226	
25.250	0.104	0.181	
25.255	-0.133	0.141	
25.260	0.046	0.091	
25.265	0.134	0.053	
25.270	-0.144	0.033	
25.275	-0.086	0.006	
25.280	0.157	-0.016	
25.285	-0.086	-0.017	
25.290	-0.144	-0.022	
25.295	0.116	-0.032	
25.300	0.000	-0.027	
25.305	-0.179	-0.023	
25.310	-0.011	-0.033	
25.315	0.076	-0.038	
25.320	-0.161	-0.034	
25.325	-0.104	-0.042	
25.330	0.105	-0.051	
25.335	-0.126	-0.046	
25.340	-0.184	-0.051	
25.345	0.041	-0.064	
25.350	-0.058	-0.067	
25.355	-0.216	-0.069	
25.360	-0.063	-0.083	
25.365	0.026	-0.089	
25.370	-0.200	-0.085	
25.375	-0.147	-0.092	
25.380	0.058	-0.098	
25.385	-0.145	-0.091	
25.390	-0.190	-0.091	
25.395	0.058	-0.095	
25.400	-0.017	-0.084	
25.405	-0.184	-0.070	
25.410	0.012	-0.068	
25.415	0.134	-0.055	
25.420	-0.122	-0.032	
25.425	-0.031	-0.021	
25.430	0.241	-0.009	
25.435	-0.029	0.018	
25.440	-0.103	0.032	
25.445	0.169	0.029	
25.450	0.036	0.036	
25.455	-0.171	0.035	
25.460	-0.013	0.014	
25.465	0.052	-0.006	
25.470	-0.200	-0.020	
25.475	-0.148	-0.046	
25.480	0.050	-0.071	
25.485	-0.153	-0.079	
25.490	-0.211	-0.090	
25.495	0.021	-0.105	
25.500	-0.069	-0.103	
25.505	-0.216	-0.099	
25.510	-0.051	-0.104	
25.515	0.061	-0.099	
25.520	-0.141	-0.082	
25.525	-0.002	-0.068	
25.530	0.392	-0.038	
25.535	0.246	0.032	
25.540	0.290	0.114	
25.545	0.707	0.204	
25.550	0.423	0.309	
25.555	-0.193	0.366	
25.560	-0.312	0.314	
25.565	-0.448	0.172	
25.570	-0.666	-0.016	
25.575	-0.595	-0.215	
25.580	-0.381	-0.376	
25.585	-0.419	-0.468	
25.590	-0.361	-0.500	
25.595	-0.055	-0.478	
25.600	-0.008	-0.402	
25.605	-0.126	-0.299	
25.610	0.139	-0.199	
25.615	0.307	-0.092	
25.620	0.020	0.014	
25.625	0.133	0.085	
25.630	0.406	0.136	
25.635	0.146	0.187	
25.640	0.042	0.211	
25.645	0.374	0.212	
25.650	0.284	0.223	
25.655	0.030	0.232	
25.660	0.305	0.224	
25.665	0.440	0.228	
25.670	0.145	0.250	
25.675	0.249	0.259	
25.680	0.533	0.270	
25.685	0.284	0.300	
25.690	0.192	0.318	
25.695	0.560	0.326	
25.700	0.495	0.352	
25.705	0.246	0.383	
25.710	0.527	0.398	
25.715	0.663	0.422	
25.720	0.347	0.457	
25.725	0.418	0.472	
25.730	0.669	0.478	
25.735	0.376	0.491	
25.740	0.240	0.483	
25.745	0.496	0.453	
25.750	0.336	0.426	
25.755	0.024	0.390	
25.760	0.217	0.328	
25.765	0.273	0.270	
25.770	-0.069	0.224	
25.775	-0.058	0.164	
25.780	0.128	0.101	
25.785	-0.112	0.056	
25.790	-0.173	0.011	
25.795	0.033	-0.033	
25.800	-0.063	-0.056	
25.805	-0.213	-0.071	
25.810	-0.068	-0.091	
25.815	0.004	-0.100	
25.820	-0.213	-0.098	
25.825	-0.167	-0.107	
25.830	0.004	-0.116	
25.835	-0.165	-0.114	
25.840	-0.223	-0.117	
25.845	-0.057	-0.128	
25.850	-0.127	-0.131	
25.855	-0.272	-0.136	
25.860	-0.162	-0.151	
25.865	-0.107	-0.163	
25.870	-0.280	-0.169	
25.875	-0.234	-0.183	
25.880	-0.084	-0.194	
25.885	-0.229	-0.193	
25.890	-0.286	-0.195	
25.895	-0.124	-0.203	
25.900	-0.181	-0.202	
25.905	-0.309	-0.201	
25.910	-0.167	-0.208	
25.915	-0.092	-0.207	
25.920	-0.266	-0.197	
25.925	-0.214	-0.194	
25.930	-0.040	-0.191	
25.935	-0.177	-0.176	
25.940	-0.216	-0.164	
25.945	0.007	-0.156	
25.950	-0.046	-0.134	
25.955	-0.199	-0.112	
25.960	-0.052	-0.103	
25.965	0.032	-0.093	
25.970	-0.182	-0.078	
25.975	-0.155	-0.079	
25.980	0.012	-0.087	
25.985	-0.174	-0.089	
25.990	-0.249	-0.100	
25.995	-0.078	-0.122	
26.000	-0.141	-0.136	
26.005	-0.291	-0.147	
26.010	-0.158	-0.166	
26.015	-0.077	-0.177	
26.020	-0.240	-0.174	
26.025	-0.190	-0.176	
26.030	0.001	-0.172	
26.035	-0.139	-0.154	
26.040	-0.167	-0.137	
26.045	0.145	-0.119	
26.050	0.174	-0.074	
26.055	0.023	-0.015	
26.060	0.385	0.045	
26.065	0.521	0.127	
26.070	-0.034	0.208	
26.075	-0.229	0.220	
26.080	-0.300	0.148	
26.085	-0.550	0.022	
26.090	-0.617	-0.137	
26.095	-0.423	-0.292	
26.100	-0.404	-0.400	
26.105	-0.448	-0.457	
26.110	-0.226	-0.471	
26.115	-0.054	-0.435	
26.120	-0.162	-0.360	
26.125	-0.048	-0.276	
26.130	0.279	-0.183	
26.135	0.053	-0.077	
26.140	-0.029	0.005	
26.145	0.305	0.059	
26.150	0.249	0.113	
26.155	0.001	0.155	
26.160	0.269	0.172	
26.165	0.418	0.192	
26.170	0.110	0.223	
26.175	0.181	0.235	
26.180	0.458	0.240	
26.185	0.217	0.259	
26.190	0.119	0.267	
26.195	0.441	0.263	
26.200	0.372	0.276	
26.205	0.133	0.292	
26.210	0.405	0.294	
26.215	0.563	0.311	
26.220	0.295	0.345	
26.225	0.389	0.370	
26.230	0.672	0.394	
26.235	0.432	0.433	
26.240	0.310	0.458	
26.245	0.643	0.463	
26.250	0.528	0.479	
26.255	0.212	0.486	
26.260	0.394	0.462	
26.265	0.457	0.432	
26.270	0.088	0.402	
26.275	0.101	0.347	
26.280	0.343	0.285	
26.285	0.010	0.239	
26.290	-0.135	0.183	
26.295	0.070	0.112	
26.300	-0.025	0.056	
26.305	-0.213	0.010	
26.310	-0.084	-0.040	
26.315	0.013	-0.074	
26.320	-0.179	-0.088	
26.325	-0.150	-0.101	
26.330	0.027	-0.110	
26.335	-0.141	-0.105	
26.340	-0.213	-0.105	
26.345	-0.003	-0.111	
26.350	-0.060	-0.107	
26.355	-0.216	-0.101	
26.360	-0.092	-0.106	
26.365	-0.009	-0.108	
26.370	-0.205	-0.103	
26.375	-0.176	-0.110	
26.380	0.013	-0.118	
26.385	-0.150	-0.114	
26.390	-0.222	-0.114	
26.395	-0.042	-0.123	
26.400	-0.087	-0.122	
26.405	-0.245	-0.121	
26.410	-0.112	-0.130	
26.415	-0.008	-0.132	
26.420	-0.187	-0.123	
26.425	-0.148	-0.121	
26.430	0.027	-0.118	
26.435	-0.141	-0.106	
26.440	-0.200	-0.101	
26.445	0.033	-0.104	
26.450	0.001	-0.092	
26.455	-0.184	-0.076	
26.460	-0.048	-0.073	
26.465	0.067	-0.068	
26.470	-0.161	-0.056	
26.475	-0.122	-0.058	
26.480	0.062	-0.063	
26.485	-0.133	-0.061	
26.490	-0.222	-0.068	
26.495	-0.057	-0.088	
26.500	-0.115	-0.102	
26.505	-0.263	-0.116	
26.510	-0.135	-0.137	
26.515	-0.048	-0.149	
26.520	-0.240	-0.149	
26.525	-0.196	-0.155	
26.530	-0.013	-0.159	
26.535	-0.170	-0.150	
26.540	-0.216	-0.144	
26.545	0.050	-0.140	
26.550	0.082	-0.113	
26.555	-0.068	-0.073	
26.560	0.230	-0.031	
26.565	0.457	0.034	
26.570	0.042	0.115	
26.575	-0.147	0.151	
26.580	-0.200	0.121	
26.585	-0.495	0.035	
26.590	-0.636	-0.098	
26.595	-0.463	-0.248	
26.600	-0.434	-0.368	
26.605	-0.515	-0.444	
26.610	-0.329	-0.483	
26.615	-0.145	-0.473	
26.620	-0.231	-0.421	
26.625	-0.147	-0.352	
26.630	0.142	-0.271	
26.635	-0.019	-0.175	
26.640	-0.097	-0.096	
26.645	0.208	-0.039	
26.650	0.157	0.018	
26.655	-0.071	0.063	
26.660	0.145	0.082	
26.665	0.313	0.100	
26.670	-0.014	0.125	
26.675	0.012	0.129	
26.680	0.302	0.121	
26.685	0.101	0.128	
26.690	0.001	0.131	
26.695	0.321	0.128	
26.700	0.276	0.145	
26.705	0.017	0.168	
26.710	0.259	0.174	
26.715	0.455	0.191	
26.720	0.183	0.226	
26.725	0.264	0.252	
26.730	0.586	0.278	
26.735	0.368	0.323	
26.740	0.224	0.357	
26.745	0.524	0.369	
26.750	0.452	0.387	
26.755	0.156	0.397	
26.760	0.354	0.380	
26.765	0.437	0.362	
26.770	0.064	0.346	
26.775	0.053	0.302	
26.780	0.252	0.245	
26.785	-0.031	0.196	
26.790	-0.162	0.137	
26.795	0.006	0.066	
26.800	-0.064	0.009	
26.805	-0.242	-0.037	
26.810	-0.124	-0.084	
26.815	-0.034	-0.116	
26.820	-0.219	-0.129	
26.825	-0.196	-0.142	
26.830	-0.005	-0.151	
26.835	-0.148	-0.144	
26.840	-0.210	-0.137	
26.845	-0.013	-0.136	
26.850	-0.046	-0.123	
26.855	-0.210	-0.108	
26.860	-0.090	-0.107	
26.865	0.024	-0.103	
26.870	-0.174	-0.092	
26.875	-0.148	-0.092	
26.880	0.056	-0.094	
26.885	-0.115	-0.084	
26.890	-0.203	-0.082	
26.895	-0.009	-0.090	
26.900	-0.043	-0.089	
26.905	-0.208	-0.087	
26.910	-0.075	-0.094	
26.915	0.081	-0.093	
26.920	-0.135	-0.078	
26.925	-0.104	-0.069	
26.930	0.139	-0.062	
26.935	-0.038	-0.041	
26.940	-0.119	-0.025	
26.945	0.146	-0.019	
26.950	0.094	-0.000	
26.955	-0.132	0.019	
26.960	0.001	0.017	
26.965	0.134	0.013	
26.970	-0.121	0.015	
26.975	-0.113	0.004	
26.980	0.062	-0.016	
26.985	-0.127	-0.028	
26.990	-0.219	-0.048	
26.995	-0.042	-0.077	
27.000	-0.064	-0.093	
27.005	-0.231	-0.103	
27.010	-0.121	-0.119	
27.015	-0.022	-0.127	
27.020	-0.211	-0.125	
27.025	-0.188	-0.130	
27.030	0.015	-0.135	
27.035	-0.115	-0.125	
27.040	-0.165	-0.115	
27.045	0.133	-0.103	
27.050	0.204	-0.064	
27.055	0.047	-0.006	
27.060	0.354	0.054	
27.065	0.395	0.126	
27.070	-0.148	0.185	
27.075	-0.330	0.169	
27.080	-0.349	0.076	
27.085	-0.524	-0.055	
27.090	-0.582	-0.201	
27.095	-0.398	-0.331	
27.100	-0.361	-0.415	
27.105	-0.431	-0.451	
27.110	-0.242	-0.453	
27.115	-0.060	-0.415	
27.120	-0.173	-0.345	
27.125	-0.115	-0.271	
27.130	0.169	-0.195	
27.135	0.000	-0.111	
27.140	-0.089	-0.046	
27.145	0.200	-0.004	
27.150	0.156	0.038	
27.155	-0.093	0.072	
27.160	0.110	0.078	
27.165	0.292	0.086	
27.170	-0.022	0.105	
27.175	0.007	0.107	
27.180	0.302	0.102	
27.185	0.097	0.113	
27.190	-0.035	0.119	
27.195	0.287	0.115	
27.200	0.285	0.129	
27.205	0.033	0.154	
27.210	0.263	0.166	
27.215	0.440	0.187	
27.220	0.165	0.223	
27.225	0.226	0.246	
27.230	0.550	0.265	
27.235	0.324	0.302	
27.240	0.137	0.326	
27.245	0.420	0.324	
27.250	0.354	0.325	
27.255	0.042	0.320	
27.260	0.209	0.288	
27.265	0.313	0.255	
27.270	-0.038	0.228	
27.275	-0.069	0.181	
27.280	0.134	0.122	
27.285	-0.087	0.076	
27.290	-0.211	0.028	
27.295	-0.060	-0.028	
27.300	-0.110	-0.070	
27.305	-0.271	-0.103	
27.310	-0.165	-0.138	
27.315	-0.064	-0.161	
27.320	-0.232	-0.166	
27.325	-0.222	-0.173	
27.330	-0.046	-0.178	
27.335	-0.168	-0.170	
27.340	-0.245	-0.163	
27.345	-0.063	-0.163	
27.350	-0.075	-0.154	
27.355	-0.234	-0.141	
27.360	-0.116	-0.139	
27.365	0.010	-0.134	
27.370	-0.188	-0.120	
27.375	-0.185	-0.116	
27.380	0.007	-0.118	
27.385	-0.141	-0.112	
27.390	-0.223	-0.111	
27.395	-0.025	-0.118	
27.400	-0.040	-0.115	
27.405	-0.214	-0.106	
27.410	-0.104	-0.109	
27.415	0.015	-0.109	
27.420	-0.179	-0.101	
27.425	-0.156	-0.101	
27.430	0.082	-0.101	
27.435	-0.078	-0.086	
27.440	-0.184	-0.075	
27.445	0.010	-0.075	
27.450	-0.013	-0.070	
27.455	-0.207	-0.064	
27.460	-0.093	-0.074	
27.465	0.038	-0.081	
27.470	-0.194	-0.080	
27.475	-0.193	-0.089	
27.480	-0.016	-0.105	
27.485	-0.159	-0.111	
27.490	-0.266	-0.121	
27.495	-0.106	-0.141	
27.500	-0.122	-0.152	
27.505	-0.277	-0.158	
27.510	-0.170	-0.171	
27.515	-0.061	-0.177	
27.520	-0.226	-0.172	
27.525	-0.199	-0.170	
27.530	0.047	-0.164	
27.535	-0.042	-0.138	
27.540	-0.075	-0.105	
27.545	0.319	-0.063	
27.550	0.424	0.014	
27.555	0.088	0.108	
27.560	0.013	0.162	
27.565	-0.133	0.158	
27.570	-0.474	0.094	
27.575	-0.573	-0.032	
27.580	-0.445	-0.183	
27.585	-0.501	-0.314	
27.590	-0.535	-0.412	
27.595	-0.309	-0.471	
27.600	-0.226	-0.477	
27.605	-0.275	-0.439	
27.610	-0.095	-0.380	
27.615	0.122	-0.297	
27.620	-0.092	-0.198	
27.625	-0.074	-0.120	
27.630	0.217	-0.060	
27.635	0.032	-0.001	
27.640	-0.092	0.036	
27.645	0.194	0.050	
27.650	0.201	0.071	
27.655	-0.054	0.093	
27.660	0.128	0.097	
27.665	0.325	0.105	
27.670	0.029	0.127	
27.675	0.049	0.134	
27.680	0.360	0.136	
27.685	0.180	0.155	
27.690	0.036	0.171	
27.695	0.363	0.175	
27.700	0.376	0.198	
27.705	0.108	0.229	
27.710	0.343	0.245	
27.715	0.557	0.270	
27.720	0.270	0.312	
27.725	0.307	0.340	
27.730	0.600	0.360	
27.735	0.379	0.390	
27.740	0.163	0.403	
27.745	0.429	0.387	
27.750	0.372	0.372	
27.755	0.029	0.352	
27.760	0.168	0.304	
27.765	0.298	0.255	
27.770	-0.048	0.217	
27.775	-0.081	0.164	
27.780	0.128	0.104	
27.785	-0.092	0.059	
27.790	-0.210	0.014	
27.795	-0.029	-0.036	
27.800	-0.052	-0.069	
27.805	-0.225	-0.089	
27.810	-0.118	-0.111	
27.815	0.015	-0.122	
27.820	-0.176	-0.117	
27.825	-0.162	-0.116	
27.830	0.056	-0.114	
27.835	-0.084	-0.099	
27.840	-0.185	-0.087	
27.845	0.018	-0.085	
27.850	0.006	-0.075	
27.855	-0.188	-0.063	
27.860	-0.071	-0.066	
27.865	0.091	-0.067	
27.870	-0.152	-0.056	
27.875	-0.148	-0.057	
27.880	0.087	-0.064	
27.885	-0.097	-0.059	
27.890	-0.200	-0.060	
27.895	-0.006	-0.072	
27.900	-0.009	-0.075	
27.905	-0.203	-0.074	
27.910	-0.095	-0.083	
27.915	0.061	-0.087	
27.920	-0.150	-0.079	
27.925	-0.126	-0.077	
27.930	0.113	-0.075	
27.935	-0.080	-0.060	
27.940	-0.188	-0.052	
27.945	0.018	-0.059	
27.950	-0.002	-0.058	
27.955	-0.203	-0.056	
27.960	-0.095	-0.068	
27.965	0.044	-0.077	
27.970	-0.199	-0.077	
27.975	-0.220	-0.089	
27.980	-0.046	-0.110	
27.985	-0.179	-0.123	
27.990	-0.278	-0.138	
27.995	-0.098	-0.158	
28.000	-0.089	-0.165	
28.005	-0.258	-0.163	
28.010	-0.159	-0.167	
28.015	-0.025	-0.166	
28.020	-0.188	-0.153	
28.025	-0.133	-0.143	
28.030	0.229	-0.122	
28.035	0.162	-0.067	
28.040	0.097	0.002	
28.045	0.489	0.075	
28.050	0.334	0.162	
28.055	-0.197	0.219	
28.060	-0.292	0.191	
28.065	-0.368	0.088	
28.070	-0.599	-0.053	
28.075	-0.596	-0.213	
28.080	-0.413	-0.354	
28.085	-0.431	-0.443	
28.090	-0.422	-0.484	
28.095	-0.162	-0.481	
28.100	-0.068	-0.428	
28.105	-0.176	-0.345	
28.110	-0.003	-0.260	
28.115	0.233	-0.168	
28.120	-0.031	-0.072	
28.125	-0.034	-0.005	
28.130	0.275	0.037	
28.135	0.105	0.080	
28.140	-0.038	0.106	
28.145	0.266	0.113	
28.150	0.250	0.130	
28.155	-0.035	0.148	
28.160	0.149	0.145	
28.165	0.351	0.145	
28.170	0.064	0.160	
28.175	0.093	0.165	
28.180	0.411	0.167	
28.185	0.233	0.190	
28.190	0.068	0.210	
28.195	0.412	0.217	
28.200	0.432	0.242	
28.205	0.168	0.276	
28.210	0.406	0.296	
28.215	0.600	0.324	
28.220	0.290	0.366	
28.225	0.287	0.386	
28.230	0.596	0.392	
28.235	0.372	0.408	
28.240	0.124	0.408	
28.245	0.369	0.379	
28.250	0.310	0.348	
28.255	-0.032	0.313	
28.260	0.090	0.254	
28.265	0.249	0.196	
28.270	-0.071	0.155	
28.275	-0.118	0.106	
28.280	0.097	0.053	
28.285	-0.093	0.016	
28.290	-0.210	-0.019	
28.295	-0.026	-0.057	
28.300	-0.032	-0.079	
28.305	-0.205	-0.089	
28.310	-0.103	-0.103	
28.315	0.049	-0.107	
28.320	-0.165	-0.097	
28.325	-0.167	-0.095	
28.330	0.065	-0.097	
28.335	-0.103	-0.086	
28.340	-0.213	-0.081	
28.345	-0.020	-0.089	
28.350	-0.031	-0.090	
28.355	-0.217	-0.087	
28.360	-0.113	-0.097	
28.365	0.032	-0.102	
28.370	-0.179	-0.097	
28.375	-0.187	-0.100	
28.380	0.017	-0.108	
28.385	-0.118	-0.104	
28.390	-0.239	-0.104	
28.395	-0.066	-0.116	
28.400	-0.052	-0.119	
28.405	-0.225	-0.117	
28.410	-0.103	-0.123	
28.415	0.070	-0.119	
28.420	-0.164	-0.101	
28.425	-0.181	-0.094	
28.430	0.050	-0.095	
28.435	-0.074	-0.085	
28.440	-0.167	-0.077	
28.445	0.067	-0.074	
28.450	0.070	-0.057	
28.455	-0.158	-0.036	
28.460	-0.045	-0.033	
28.465	0.133	-0.030	
28.470	-0.129	-0.019	
28.475	-0.155	-0.023	
28.480	0.070	-0.038	
28.485	-0.106	-0.043	
28.490	-0.229	-0.055	
28.495	-0.061	-0.080	
28.500	-0.061	-0.096	
28.505	-0.242	-0.106	
28.510	-0.153	-0.124	
28.515	-0.006	-0.135	
28.520	-0.196	-0.132	
28.525	-0.203	-0.134	
28.530	-0.003	-0.139	
28.535	-0.112	-0.130	
28.540	-0.179	-0.120	
28.545	0.142	-0.109	
28.550	0.285	-0.065	
28.555	0.130	0.008	
28.560	0.412	0.086	
28.565	0.603	0.180	
28.570	-0.002	0.268	
28.575	-0.283	0.276	
28.580	-0.341	0.188	
28.585	-0.564	0.039	
28.590	-0.686	-0.141	
28.595	-0.508	-0.316	
28.600	-0.422	-0.442	
28.605	-0.466	-0.506	
28.610	-0.268	-0.519	
28.615	-0.051	-0.478	
28.620	-0.159	-0.394	
28.625	-0.115	-0.303	
28.630	0.208	-0.210	
28.635	0.070	-0.109	
28.640	-0.084	-0.027	
28.645	0.208	0.024	
28.650	0.229	0.070	
28.655	-0.046	0.108	
28.660	0.117	0.119	
28.665	0.318	0.125	
28.670	0.039	0.142	
28.675	0.046	0.144	
28.680	0.363	0.142	
28.685	0.157	0.157	
28.690	-0.032	0.165	
28.695	0.305	0.157	
28.700	0.336	0.166	
28.705	0.044	0.187	
28.710	0.241	0.194	
28.715	0.481	0.208	
28.720	0.218	0.242	
28.725	0.241	0.267	
28.730	0.583	0.290	
28.735	0.406	0.331	
28.740	0.208	0.364	
28.745	0.502	0.374	
28.750	0.508	0.390	
28.755	0.145	0.402	
28.760	0.282	0.384	
28.765	0.429	0.357	
28.770	0.075	0.333	
28.775	0.013	0.288	
28.780	0.259	0.229	
28.785	0.021	0.183	
28.790	-0.141	0.134	
28.795	0.047	0.076	
28.800	0.029	0.032	
28.805	-0.199	0.000	
28.810	-0.124	-0.038	
28.815	0.004	-0.070	
28.820	-0.184	-0.087	
28.825	-0.194	-0.105	
28.830	0.017	-0.120	
28.835	-0.121	-0.118	
28.840	-0.234	-0.117	
28.845	-0.061	-0.124	
28.850	-0.057	-0.124	
28.855	-0.226	-0.120	
28.860	-0.129	-0.125	
28.865	0.006	-0.127	
28.870	-0.196	-0.118	
28.875	-0.208	-0.120	
28.880	-0.008	-0.127	
