Vernier Format 2
reposo.txt 10/21/2025 9:10:34
Run 1
Time	Potential	EKG	
T	P	E	
s	mV	mV	

0.000	-0.090	-0.004	
0.005	0.172	-0.006	
0.010	0.165	0.014	
0.015	-0.138	0.038	
0.020	-0.009	0.037	
0.025	0.128	0.028	
0.030	-0.159	0.023	
0.035	-0.200	-0.002	
0.040	0.007	-0.039	
0.045	-0.132	-0.065	
0.050	-0.283	-0.091	
0.055	-0.118	-0.124	
0.060	-0.118	-0.147	
0.065	-0.306	-0.162	
0.070	-0.203	-0.182	
0.075	-0.077	-0.195	
0.080	-0.265	-0.194	
0.085	-0.271	-0.198	
0.090	-0.068	-0.204	
0.095	-0.177	-0.196	
0.100	-0.294	-0.189	
0.105	-0.109	-0.191	
0.110	-0.095	-0.185	
0.115	-0.283	-0.174	
0.120	-0.182	-0.176	
0.125	-0.040	-0.176	
0.130	-0.223	-0.166	
0.135	-0.228	-0.163	
0.140	-0.020	-0.164	
0.145	-0.142	-0.153	
0.150	-0.262	-0.146	
0.155	-0.054	-0.148	
0.160	-0.019	-0.140	
0.165	-0.232	-0.125	
0.170	-0.126	-0.123	
0.175	0.059	-0.119	
0.180	-0.171	-0.103	
0.185	-0.167	-0.097	
0.190	0.084	-0.096	
0.195	-0.064	-0.080	
0.200	-0.196	-0.069	
0.205	0.029	-0.070	
0.210	0.053	-0.062	
0.215	-0.182	-0.049	
0.220	-0.052	-0.050	
0.225	0.180	-0.046	
0.230	-0.113	-0.027	
0.235	-0.138	-0.021	
0.240	0.131	-0.026	
0.245	-0.051	-0.020	
0.250	-0.182	-0.021	
0.255	0.044	-0.034	
0.260	0.059	-0.036	
0.265	-0.164	-0.031	
0.270	-0.019	-0.035	
0.275	0.185	-0.032	
0.280	-0.112	-0.013	
0.285	-0.133	-0.010	
0.290	0.165	-0.016	
0.295	-0.061	-0.010	
0.300	-0.200	-0.012	
0.305	0.053	-0.030	
0.310	0.104	-0.033	
0.315	-0.164	-0.024	
0.320	-0.034	-0.027	
0.325	0.156	-0.027	
0.330	-0.141	-0.016	
0.335	-0.158	-0.020	
0.340	0.154	-0.033	
0.345	-0.029	-0.027	
0.350	-0.177	-0.023	
0.355	0.091	-0.031	
0.360	0.127	-0.022	
0.365	-0.162	-0.006	
0.370	-0.057	-0.008	
0.375	0.156	-0.014	
0.380	-0.119	-0.007	
0.385	-0.139	-0.013	
0.390	0.125	-0.026	
0.395	-0.048	-0.025	
0.400	-0.167	-0.026	
0.405	0.110	-0.034	
0.410	0.111	-0.024	
0.415	-0.165	-0.007	
0.420	-0.038	-0.010	
0.425	0.171	-0.012	
0.430	-0.139	-0.004	
0.435	-0.142	-0.010	
0.440	0.168	-0.024	
0.445	-0.017	-0.018	
0.450	-0.171	-0.013	
0.455	0.075	-0.022	
0.460	0.093	-0.019	
0.465	-0.164	-0.009	
0.470	-0.029	-0.015	
0.475	0.163	-0.018	
0.480	-0.129	-0.008	
0.485	-0.136	-0.013	
0.490	0.189	-0.022	
0.495	-0.005	-0.012	
0.500	-0.165	-0.004	
0.505	0.113	-0.010	
0.510	0.166	-0.000	
0.515	-0.129	0.019	
0.520	0.024	0.022	
0.525	0.236	0.027	
0.530	-0.100	0.042	
0.535	-0.115	0.039	
0.540	0.186	0.023	
0.545	0.004	0.023	
0.550	-0.158	0.021	
0.555	0.073	0.005	
0.560	0.102	0.000	
0.565	-0.182	0.002	
0.570	-0.051	-0.012	
0.575	0.130	-0.023	
0.580	-0.159	-0.023	
0.585	-0.153	-0.034	
0.590	0.120	-0.049	
0.595	-0.078	-0.047	
0.600	-0.194	-0.048	
0.605	0.099	-0.057	
0.610	0.188	-0.042	
0.615	-0.084	-0.008	
0.620	0.189	0.019	
0.625	0.505	0.066	
0.630	0.278	0.145	
0.635	0.334	0.221	
0.640	0.574	0.288	
0.645	0.032	0.338	
0.650	-0.320	0.315	
0.655	-0.284	0.204	
0.660	-0.321	0.056	
0.665	-0.474	-0.092	
0.670	-0.344	-0.222	
0.675	-0.182	-0.307	
0.680	-0.289	-0.338	
0.685	-0.229	-0.337	
0.690	0.079	-0.305	
0.695	-0.029	-0.237	
0.700	-0.152	-0.167	
0.705	0.146	-0.110	
0.710	0.146	-0.048	
0.715	-0.118	0.006	
0.720	0.061	0.030	
0.725	0.258	0.048	
0.730	-0.054	0.073	
0.735	-0.069	0.075	
0.740	0.264	0.066	
0.745	0.059	0.073	
0.750	-0.118	0.075	
0.755	0.188	0.063	
0.760	0.168	0.065	
0.765	-0.119	0.073	
0.770	0.046	0.062	
0.775	0.266	0.056	
0.780	-0.048	0.067	
0.785	-0.055	0.066	
0.790	0.241	0.057	
0.795	0.017	0.062	
0.800	-0.126	0.060	
0.805	0.191	0.046	
0.810	0.206	0.052	
0.815	-0.118	0.068	
0.820	0.070	0.065	
0.825	0.264	0.065	
0.830	-0.048	0.078	
0.835	-0.043	0.076	
0.840	0.255	0.067	
0.845	0.088	0.075	
0.850	-0.084	0.082	
0.855	0.223	0.076	
0.860	0.221	0.086	
0.865	-0.055	0.104	
0.870	0.124	0.104	
0.875	0.313	0.108	
0.880	-0.008	0.124	
0.885	-0.005	0.123	
0.890	0.310	0.113	
0.895	0.053	0.118	
0.900	-0.113	0.113	
0.905	0.178	0.090	
0.910	0.140	0.079	
0.915	-0.148	0.074	
0.920	-0.029	0.049	
0.925	0.107	0.023	
0.930	-0.188	0.006	
0.935	-0.197	-0.025	
0.940	0.023	-0.062	
0.945	-0.174	-0.083	
0.950	-0.298	-0.107	
0.955	-0.113	-0.140	
0.960	-0.112	-0.160	
0.965	-0.309	-0.170	
0.970	-0.197	-0.186	
0.975	-0.081	-0.196	
0.980	-0.278	-0.194	
0.985	-0.266	-0.199	
0.990	-0.057	-0.205	
0.995	-0.182	-0.196	
1.000	-0.309	-0.189	
1.005	-0.110	-0.193	
1.010	-0.100	-0.188	
1.015	-0.278	-0.178	
1.020	-0.155	-0.178	
1.025	-0.011	-0.172	
1.030	-0.229	-0.157	
1.035	-0.217	-0.152	
1.040	-0.002	-0.152	
1.045	-0.132	-0.140	
1.050	-0.275	-0.134	
1.055	-0.071	-0.140	
1.060	-0.034	-0.139	
1.065	-0.228	-0.129	
1.070	-0.089	-0.127	
1.075	0.067	-0.118	
1.080	-0.165	-0.098	
1.085	-0.153	-0.089	
1.090	0.105	-0.085	
1.095	-0.074	-0.068	
1.100	-0.207	-0.059	
1.105	0.049	-0.063	
1.110	0.050	-0.057	
1.115	-0.200	-0.045	
1.120	-0.048	-0.050	
1.125	0.177	-0.048	
1.130	-0.121	-0.030	
1.135	-0.130	-0.025	
1.140	0.145	-0.028	
1.145	-0.042	-0.019	
1.150	-0.170	-0.016	
1.155	0.094	-0.025	
1.160	0.081	-0.020	
1.165	-0.145	-0.009	
1.170	-0.042	-0.013	
1.175	0.140	-0.017	
1.180	-0.153	-0.012	
1.185	-0.152	-0.022	
1.190	0.154	-0.037	
1.195	-0.028	-0.031	
1.200	-0.173	-0.026	
1.205	0.090	-0.032	
1.210	0.091	-0.024	
1.215	-0.162	-0.011	
1.220	-0.011	-0.014	
1.225	0.149	-0.014	
1.230	-0.132	-0.004	
1.235	-0.135	-0.010	
1.240	0.157	-0.023	
1.245	-0.028	-0.018	
1.250	-0.153	-0.014	
1.255	0.111	-0.020	
1.260	0.044	-0.014	
1.265	-0.196	-0.008	
1.270	-0.034	-0.022	
1.275	0.166	-0.029	
1.280	-0.126	-0.019	
1.285	-0.121	-0.020	
1.290	0.183	-0.025	
1.295	-0.005	-0.012	
1.300	-0.171	-0.003	
1.305	0.079	-0.011	
1.310	0.088	-0.009	
1.315	-0.155	-0.002	
1.320	-0.011	-0.009	
1.325	0.152	-0.011	
1.330	-0.144	-0.004	
1.335	-0.130	-0.012	
1.340	0.160	-0.025	
1.345	-0.054	-0.020	
1.350	-0.167	-0.019	
1.355	0.088	-0.029	
1.360	0.088	-0.024	
1.365	-0.162	-0.013	
1.370	-0.014	-0.016	
1.375	0.198	-0.014	
1.380	-0.101	0.002	
1.385	-0.092	0.005	
1.390	0.180	0.001	
1.395	-0.031	0.010	
1.400	-0.155	0.011	
1.405	0.154	0.000	
1.410	0.140	0.009	
1.415	-0.138	0.025	
1.420	0.001	0.022	
1.425	0.136	0.017	
1.430	-0.132	0.018	
1.435	-0.104	0.004	
1.440	0.188	-0.011	
1.445	-0.031	-0.005	
1.450	-0.173	-0.003	
1.455	0.070	-0.016	
1.460	0.076	-0.017	
1.465	-0.190	-0.013	
1.470	-0.071	-0.026	
1.475	0.120	-0.037	
1.480	-0.155	-0.035	
1.485	-0.145	-0.043	
1.490	0.073	-0.056	
1.495	-0.084	-0.056	
1.500	-0.197	-0.059	
1.505	0.082	-0.068	
1.510	0.139	-0.055	
1.515	-0.075	-0.025	
1.520	0.233	0.004	
1.525	0.542	0.061	
1.530	0.324	0.153	
1.535	0.438	0.246	
1.540	0.588	0.328	
1.545	0.013	0.383	
1.550	-0.309	0.354	
1.555	-0.258	0.234	
1.560	-0.309	0.080	
1.565	-0.472	-0.073	
1.570	-0.339	-0.208	
1.575	-0.193	-0.298	
1.580	-0.298	-0.335	
1.585	-0.211	-0.337	
1.590	0.117	-0.304	
1.595	-0.043	-0.232	
1.600	-0.150	-0.160	
1.605	0.192	-0.102	
1.610	0.171	-0.035	
1.615	-0.148	0.021	
1.620	0.050	0.042	
1.625	0.236	0.053	
1.630	-0.080	0.069	
1.635	-0.054	0.065	
1.640	0.282	0.056	
1.645	0.050	0.067	
1.650	-0.101	0.073	
1.655	0.214	0.065	
1.660	0.180	0.073	
1.665	-0.104	0.085	
1.670	0.088	0.078	
1.675	0.279	0.076	
1.680	-0.035	0.090	
1.685	-0.040	0.087	
1.690	0.261	0.077	
1.695	0.036	0.081	
1.700	-0.112	0.079	
1.705	0.215	0.064	
1.710	0.197	0.069	
1.715	-0.101	0.082	
1.720	0.084	0.077	
1.725	0.281	0.076	
1.730	-0.055	0.089	
1.735	-0.086	0.083	
1.740	0.217	0.064	
1.745	0.033	0.060	
1.750	-0.098	0.056	
1.755	0.243	0.047	
1.760	0.241	0.063	
1.765	-0.061	0.090	
1.770	0.152	0.099	
1.775	0.331	0.112	
1.780	-0.017	0.134	
1.785	-0.005	0.134	
1.790	0.305	0.122	
1.795	0.067	0.125	
1.800	-0.090	0.119	
1.805	0.192	0.098	
1.810	0.127	0.089	
1.815	-0.159	0.081	
1.820	-0.032	0.052	
1.825	0.108	0.023	
1.830	-0.187	0.004	
1.835	-0.203	-0.027	
1.840	0.001	-0.065	
1.845	-0.155	-0.088	
1.850	-0.277	-0.110	
1.855	-0.098	-0.138	
1.860	-0.116	-0.153	
1.865	-0.303	-0.162	
1.870	-0.184	-0.178	
1.875	-0.074	-0.187	
1.880	-0.269	-0.185	
1.885	-0.254	-0.190	
1.890	-0.057	-0.195	
1.895	-0.187	-0.188	
1.900	-0.303	-0.183	
1.905	-0.101	-0.188	
1.910	-0.101	-0.184	
1.915	-0.262	-0.174	
1.920	-0.168	-0.174	
1.925	-0.083	-0.173	
1.930	-0.263	-0.168	
1.935	-0.226	-0.173	
1.940	0.009	-0.176	
1.945	-0.142	-0.162	
1.950	-0.234	-0.148	
1.955	0.006	-0.142	
1.960	-0.014	-0.124	
1.965	-0.213	-0.103	
1.970	-0.060	-0.096	
1.975	0.097	-0.086	
1.980	-0.164	-0.067	
1.985	-0.142	-0.062	
1.990	0.116	-0.064	
1.995	-0.077	-0.052	
2.000	-0.184	-0.047	
2.005	0.078	-0.053	
2.010	0.052	-0.045	
2.015	-0.179	-0.032	
2.020	-0.019	-0.035	
2.025	0.151	-0.033	
2.030	-0.133	-0.019	
2.035	-0.107	-0.019	
2.040	0.148	-0.025	
2.045	-0.074	-0.018	
2.050	-0.203	-0.020	
2.055	0.039	-0.038	
2.060	0.030	-0.044	
2.065	-0.185	-0.043	
2.070	-0.023	-0.051	
2.075	0.148	-0.050	
2.080	-0.139	-0.034	
2.085	-0.122	-0.031	
2.090	0.149	-0.035	
2.095	-0.061	-0.025	
2.100	-0.174	-0.023	
2.105	0.091	-0.032	
2.110	0.072	-0.027	
2.115	-0.167	-0.016	
2.120	-0.008	-0.021	
2.125	0.166	-0.020	
2.130	-0.135	-0.007	
2.135	-0.110	-0.009	
2.140	0.143	-0.018	
2.145	-0.083	-0.015	
2.150	-0.185	-0.020	
2.155	0.093	-0.036	
2.160	0.061	-0.034	
2.165	-0.199	-0.026	
2.170	-0.043	-0.035	
2.175	0.128	-0.040	
2.180	-0.145	-0.032	
2.185	-0.121	-0.035	
2.190	0.163	-0.041	
2.195	-0.031	-0.028	
2.200	-0.164	-0.019	
2.205	0.062	-0.025	
2.210	0.035	-0.024	
2.215	-0.207	-0.022	
2.220	-0.063	-0.037	
2.225	0.110	-0.048	
2.230	-0.144	-0.044	
2.235	-0.106	-0.047	
2.240	0.194	-0.047	
2.245	-0.025	-0.027	
2.250	-0.145	-0.012	
2.255	0.169	-0.009	
2.260	0.165	0.011	
2.265	-0.127	0.035	
2.270	0.082	0.041	
2.275	0.224	0.048	
2.280	-0.090	0.063	
2.285	-0.087	0.057	
2.290	0.128	0.037	
2.295	-0.087	0.024	
2.300	-0.190	0.002	
2.305	0.079	-0.027	
2.310	0.032	-0.036	
2.315	-0.205	-0.037	
2.320	-0.061	-0.051	
2.325	0.093	-0.059	
2.330	-0.162	-0.054	
2.335	-0.135	-0.058	
2.340	0.128	-0.064	
2.345	-0.083	-0.053	
2.350	-0.185	-0.048	
2.355	0.110	-0.053	
2.360	0.067	-0.041	
2.365	-0.203	-0.025	
2.370	-0.040	-0.031	
2.375	0.220	-0.031	
2.380	-0.014	-0.007	
2.385	0.145	0.021	
2.390	0.618	0.073	
2.395	0.515	0.172	
2.400	0.301	0.279	
2.405	0.374	0.349	
2.410	-0.019	0.366	
2.415	-0.391	0.305	
2.420	-0.375	0.164	
2.425	-0.310	-0.002	
2.430	-0.463	-0.151	
2.435	-0.396	-0.272	
2.440	-0.161	-0.346	
2.445	-0.207	-0.362	
2.450	-0.225	-0.339	
2.455	0.088	-0.292	
2.460	0.084	-0.213	
2.465	-0.141	-0.130	
2.470	0.065	-0.071	
2.475	0.258	-0.017	
2.480	-0.071	0.036	
2.485	-0.034	0.059	
2.490	0.256	0.065	
2.495	-0.020	0.077	
2.500	-0.145	0.072	
2.505	0.157	0.049	
2.510	0.145	0.043	
2.515	-0.116	0.048	
2.520	0.084	0.041	
2.525	0.256	0.044	
2.530	-0.064	0.062	
2.535	-0.031	0.064	
2.540	0.270	0.060	
2.545	0.032	0.072	
2.550	-0.106	0.075	
2.555	0.206	0.064	
2.560	0.165	0.068	
2.565	-0.113	0.077	
2.570	0.107	0.070	
2.575	0.266	0.070	
2.580	-0.060	0.084	
2.585	-0.045	0.080	
2.590	0.256	0.068	
2.595	0.059	0.074	
2.600	-0.097	0.076	
2.605	0.197	0.066	
2.610	0.175	0.071	
2.615	-0.107	0.080	
2.620	0.131	0.074	
2.625	0.307	0.079	
2.630	-0.025	0.100	
2.635	0.013	0.104	
2.640	0.351	0.104	
2.645	0.110	0.122	
2.650	-0.092	0.131	
2.655	0.204	0.117	
2.660	0.162	0.111	
2.665	-0.119	0.106	
2.670	0.059	0.083	
2.675	0.195	0.066	
2.680	-0.129	0.060	
2.685	-0.127	0.037	
2.690	0.088	0.006	
2.695	-0.126	-0.015	
2.700	-0.234	-0.040	
2.705	-0.031	-0.074	
2.710	-0.092	-0.095	
2.715	-0.284	-0.111	
2.720	-0.150	-0.135	
2.725	-0.038	-0.151	
2.730	-0.271	-0.154	
2.735	-0.284	-0.167	
2.740	-0.101	-0.186	
2.745	-0.232	-0.194	
2.750	-0.313	-0.203	
2.755	-0.115	-0.215	
2.760	-0.130	-0.212	
2.765	-0.284	-0.202	
2.770	-0.161	-0.199	
2.775	-0.045	-0.191	
2.780	-0.228	-0.174	
2.785	-0.207	-0.166	
2.790	-0.013	-0.162	
2.795	-0.162	-0.148	
2.800	-0.249	-0.141	
2.805	-0.032	-0.143	
2.810	-0.054	-0.135	
2.815	-0.234	-0.123	
2.820	-0.083	-0.123	
2.825	0.075	-0.115	
2.830	-0.170	-0.094	
2.835	-0.162	-0.087	
2.840	0.067	-0.087	
2.845	-0.122	-0.078	
2.850	-0.213	-0.077	
2.855	0.017	-0.087	
2.860	-0.014	-0.085	
2.865	-0.199	-0.078	
2.870	-0.035	-0.081	
2.875	0.127	-0.074	
2.880	-0.152	-0.054	
2.885	-0.112	-0.047	
2.890	0.177	-0.044	
2.895	-0.061	-0.027	
2.900	-0.165	-0.018	
2.905	0.108	-0.024	
2.910	0.073	-0.016	
2.915	-0.162	-0.005	
2.920	-0.002	-0.011	
2.925	0.140	-0.013	
2.930	-0.133	-0.004	
2.935	-0.112	-0.011	
2.940	0.159	-0.021	
2.945	-0.075	-0.016	
2.950	-0.170	-0.018	
2.955	0.110	-0.030	
2.960	0.065	-0.025	
2.965	-0.155	-0.014	
2.970	0.001	-0.017	
2.975	0.139	-0.016	
2.980	-0.153	-0.007	
2.985	-0.119	-0.014	
2.990	0.157	-0.026	
2.995	-0.072	-0.021	
3.000	-0.177	-0.023	
3.005	0.099	-0.034	
3.010	0.076	-0.029	
3.015	-0.148	-0.017	
3.020	0.021	-0.017	
3.025	0.152	-0.011	
3.030	-0.136	0.002	
3.035	-0.110	-0.002	
3.040	0.172	-0.013	
3.045	-0.045	-0.007	
3.050	-0.159	-0.006	
3.055	0.107	-0.016	
3.060	0.073	-0.013	
3.065	-0.159	-0.004	
3.070	0.032	-0.009	
3.075	0.204	-0.005	
3.080	-0.126	0.013	
3.085	-0.103	0.012	
3.090	0.180	0.003	
3.095	-0.028	0.008	
3.100	-0.144	0.008	
3.105	0.159	-0.000	
3.110	0.120	0.009	
3.115	-0.122	0.025	
3.120	0.096	0.027	
3.125	0.223	0.036	
3.130	-0.097	0.055	
3.135	-0.060	0.052	
3.140	0.206	0.041	
3.145	-0.029	0.043	
3.150	-0.147	0.036	
3.155	0.114	0.016	
3.160	0.026	0.008	
3.165	-0.202	0.001	
3.170	-0.045	-0.022	
3.175	0.079	-0.039	
3.180	-0.177	-0.043	
3.185	-0.138	-0.056	
3.190	0.127	-0.067	
3.195	-0.090	-0.059	
3.200	-0.187	-0.056	
3.205	0.056	-0.062	
3.210	0.021	-0.056	
3.215	-0.177	-0.047	
3.220	0.061	-0.046	
3.225	0.308	-0.026	
3.230	0.085	0.024	
3.235	0.292	0.080	
3.240	0.727	0.157	
3.245	0.548	0.272	
3.250	0.194	0.371	
3.255	0.163	0.402	
3.260	-0.174	0.359	
3.265	-0.468	0.242	
3.270	-0.407	0.069	
3.275	-0.341	-0.103	
3.280	-0.459	-0.240	
3.285	-0.370	-0.338	
3.290	-0.129	-0.386	
3.295	-0.174	-0.375	
3.300	-0.190	-0.331	
3.305	0.137	-0.267	
3.310	0.110	-0.178	
3.315	-0.135	-0.091	
3.320	0.061	-0.036	
3.325	0.235	0.008	
3.330	-0.080	0.049	
3.335	-0.046	0.061	
3.340	0.256	0.060	
3.345	0.023	0.071	
3.350	-0.100	0.073	
3.355	0.208	0.061	
3.360	0.149	0.066	
3.365	-0.115	0.074	
3.370	0.110	0.066	
3.375	0.241	0.066	
3.380	-0.093	0.076	
3.385	-0.038	0.068	
3.390	0.314	0.058	
3.395	0.021	0.071	
3.400	-0.113	0.075	
3.405	0.208	0.064	
3.410	0.162	0.067	
3.415	-0.107	0.076	
3.420	0.110	0.069	
3.425	0.273	0.071	
3.430	-0.071	0.086	
3.435	-0.005	0.083	
3.440	0.284	0.076	
3.445	0.053	0.087	
3.450	-0.074	0.091	
3.455	0.281	0.084	
3.460	0.203	0.098	
3.465	-0.095	0.113	
3.470	0.148	0.108	
3.475	0.333	0.110	
3.480	0.003	0.128	
3.485	0.059	0.132	
3.490	0.337	0.130	
3.495	0.079	0.143	
3.500	-0.049	0.144	
3.505	0.255	0.128	
3.510	0.169	0.126	
3.515	-0.101	0.124	
3.520	0.061	0.102	
3.525	0.166	0.081	
3.530	-0.147	0.067	
3.535	-0.129	0.036	
3.540	0.090	-0.001	
3.545	-0.142	-0.023	
3.550	-0.251	-0.050	
3.555	-0.057	-0.086	
3.560	-0.119	-0.111	
3.565	-0.304	-0.130	
3.570	-0.173	-0.157	
3.575	-0.075	-0.175	
3.580	-0.263	-0.178	
3.585	-0.223	-0.185	
3.590	-0.071	-0.190	
3.595	-0.216	-0.185	
3.600	-0.283	-0.184	
3.605	-0.078	-0.189	
3.610	-0.129	-0.183	
3.615	-0.301	-0.176	
3.620	-0.155	-0.181	
3.625	-0.063	-0.181	
3.630	-0.248	-0.172	
3.635	-0.199	-0.171	
3.640	0.010	-0.168	
3.645	-0.152	-0.151	
3.650	-0.234	-0.139	
3.655	-0.022	-0.137	
3.660	-0.054	-0.126	
3.665	-0.225	-0.114	
3.670	-0.075	-0.113	
3.675	0.070	-0.106	
3.680	-0.174	-0.088	
3.685	-0.141	-0.083	
3.690	0.099	-0.081	
3.695	-0.101	-0.067	
3.700	-0.182	-0.061	
3.705	0.093	-0.064	
3.710	0.056	-0.051	
3.715	-0.182	-0.034	
3.720	-0.006	-0.034	
3.725	0.119	-0.031	
3.730	-0.150	-0.020	
3.735	-0.107	-0.024	
3.740	0.148	-0.032	
3.745	-0.089	-0.025	
3.750	-0.171	-0.027	
3.755	0.116	-0.037	
3.760	0.061	-0.030	
3.765	-0.162	-0.017	
3.770	0.012	-0.019	
3.775	0.148	-0.016	
3.780	-0.139	-0.004	
3.785	-0.104	-0.008	
3.790	0.152	-0.018	
3.795	-0.060	-0.013	
3.800	-0.152	-0.013	
3.805	0.137	-0.022	
3.810	0.062	-0.013	
3.815	-0.167	-0.002	
3.820	0.012	-0.008	
3.825	0.125	-0.011	
3.830	-0.139	-0.004	
3.835	-0.101	-0.012	
3.840	0.148	-0.023	
3.845	-0.077	-0.018	
3.850	-0.173	-0.021	
3.855	0.088	-0.034	
3.860	0.036	-0.032	
3.865	-0.173	-0.026	
3.870	-0.002	-0.032	
3.875	0.131	-0.032	
3.880	-0.164	-0.021	
3.885	-0.110	-0.026	
3.890	0.146	-0.035	
3.895	-0.080	-0.028	
3.900	-0.158	-0.027	
3.905	0.134	-0.034	
3.910	0.079	-0.022	
3.915	-0.155	-0.006	
3.920	0.027	-0.006	
3.925	0.198	-0.001	
3.930	-0.101	0.017	
3.935	-0.049	0.020	
3.940	0.244	0.020	
3.945	0.006	0.037	
3.950	-0.107	0.045	
3.955	0.201	0.041	
3.960	0.119	0.050	
3.965	-0.158	0.058	
3.970	-0.005	0.042	
3.975	0.124	0.025	
3.980	-0.168	0.015	
3.985	-0.133	-0.009	
3.990	0.107	-0.034	
3.995	-0.107	-0.041	
4.000	-0.207	-0.052	
4.005	0.042	-0.069	
4.010	-0.002	-0.071	
4.015	-0.194	-0.066	
4.020	-0.026	-0.070	
4.025	0.113	-0.066	
4.030	-0.170	-0.050	
4.035	-0.122	-0.049	
4.040	0.163	-0.051	
4.045	-0.020	-0.034	
4.050	-0.061	-0.017	
4.055	0.365	0.005	
4.060	0.420	0.065	
4.065	0.240	0.149	
4.070	0.573	0.231	
4.075	0.586	0.319	
4.080	-0.092	0.380	
4.085	-0.278	0.346	
4.090	-0.275	0.222	
4.095	-0.442	0.062	
4.100	-0.503	-0.105	
4.105	-0.298	-0.248	
4.110	-0.262	-0.336	
4.115	-0.346	-0.371	
4.120	-0.142	-0.370	
4.125	0.056	-0.328	
4.130	-0.133	-0.254	
4.135	-0.071	-0.184	
4.140	0.232	-0.117	
4.145	0.000	-0.045	
4.150	-0.107	0.005	
4.155	0.224	0.029	
4.160	0.169	0.059	
4.165	-0.097	0.084	
4.170	0.137	0.086	
4.175	0.267	0.092	
4.180	-0.086	0.105	
4.185	-0.040	0.094	
4.190	0.252	0.076	
4.195	0.013	0.075	
4.200	-0.103	0.068	
4.205	0.223	0.054	
4.210	0.146	0.060	
4.215	-0.115	0.070	
4.220	0.082	0.062	
4.225	0.217	0.059	
4.230	-0.093	0.066	
4.235	-0.031	0.057	
4.240	0.281	0.048	
4.245	0.013	0.060	
4.250	-0.100	0.064	
4.255	0.224	0.056	
4.260	0.130	0.064	
4.265	-0.115	0.073	
4.270	0.128	0.065	
4.275	0.282	0.069	
4.280	-0.055	0.087	
4.285	0.006	0.089	
4.290	0.316	0.085	
4.295	0.058	0.100	
4.300	-0.048	0.107	
4.305	0.307	0.103	
4.310	0.233	0.119	
4.315	-0.078	0.137	
4.320	0.152	0.131	
4.325	0.276	0.127	
4.330	-0.069	0.131	
4.335	-0.026	0.114	
4.340	0.235	0.090	
4.345	-0.046	0.080	
4.350	-0.168	0.059	
4.355	0.085	0.024	
4.360	-0.017	0.002	
4.365	-0.232	-0.018	
4.370	-0.107	-0.051	
4.375	-0.032	-0.081	
4.380	-0.246	-0.099	
4.385	-0.232	-0.125	
4.390	-0.089	-0.152	
4.395	-0.243	-0.167	
4.400	-0.318	-0.185	
4.405	-0.130	-0.206	
4.410	-0.156	-0.212	
4.415	-0.304	-0.211	
4.420	-0.162	-0.214	
4.425	-0.069	-0.208	
4.430	-0.287	-0.194	
4.435	-0.248	-0.192	
4.440	-0.061	-0.195	
4.445	-0.211	-0.187	
4.450	-0.278	-0.184	
4.455	-0.064	-0.187	
4.460	-0.110	-0.178	
4.465	-0.272	-0.166	
4.470	-0.127	-0.166	
4.475	-0.011	-0.160	
4.480	-0.231	-0.145	
4.485	-0.188	-0.141	
4.490	0.021	-0.141	
4.495	-0.141	-0.127	
4.500	-0.228	-0.120	
4.505	0.012	-0.121	
4.510	-0.037	-0.111	
4.515	-0.211	-0.097	
4.520	-0.035	-0.096	
4.525	0.104	-0.086	
4.530	-0.179	-0.065	
4.535	-0.139	-0.061	
4.540	0.104	-0.064	
4.545	-0.104	-0.056	
4.550	-0.177	-0.054	
4.555	0.085	-0.061	
4.560	0.032	-0.052	
4.565	-0.181	-0.039	
4.570	0.003	-0.041	
4.575	0.152	-0.035	
4.580	-0.145	-0.018	
4.585	-0.113	-0.018	
4.590	0.133	-0.026	
4.595	-0.078	-0.022	
4.600	-0.155	-0.024	
4.605	0.137	-0.032	
4.610	0.021	-0.023	
4.615	-0.185	-0.015	
4.620	0.007	-0.024	
4.625	0.146	-0.025	
4.630	-0.145	-0.014	
4.635	-0.112	-0.018	
4.640	0.156	-0.026	
4.645	-0.069	-0.019	
4.650	-0.147	-0.018	
4.655	0.097	-0.027	
4.660	0.027	-0.023	
4.665	-0.171	-0.017	
4.670	0.013	-0.025	
4.675	0.117	-0.026	
4.680	-0.158	-0.017	
4.685	-0.107	-0.024	
4.690	0.149	-0.033	
4.695	-0.043	-0.025	
4.700	-0.155	-0.020	
4.705	0.093	-0.026	
4.710	0.029	-0.022	
4.715	-0.171	-0.016	
4.720	0.044	-0.023	
4.725	0.178	-0.018	
4.730	-0.124	0.001	
4.735	-0.063	0.004	
4.740	0.235	0.004	
4.745	-0.013	0.021	
4.750	-0.103	0.031	
4.755	0.195	0.029	
4.760	0.085	0.040	
4.765	-0.164	0.047	
4.770	0.027	0.032	
4.775	0.157	0.021	
4.780	-0.153	0.020	
4.785	-0.109	0.004	
4.790	0.137	-0.015	
4.795	-0.103	-0.019	
4.800	-0.185	-0.029	
4.805	0.075	-0.047	
4.810	0.009	-0.048	
4.815	-0.193	-0.045	
4.820	-0.037	-0.054	
4.825	0.059	-0.058	
4.830	-0.174	-0.054	
4.835	-0.115	-0.060	
4.840	0.168	-0.063	
4.845	-0.078	-0.046	
4.850	-0.162	-0.037	
4.855	0.177	-0.035	
4.860	0.218	-0.009	
4.865	0.013	0.034	
4.870	0.385	0.078	
4.875	0.632	0.151	
4.880	0.252	0.246	
4.885	0.065	0.303	
4.890	-0.011	0.292	
4.895	-0.344	0.219	
4.900	-0.492	0.088	
4.905	-0.321	-0.069	
4.910	-0.323	-0.201	
4.915	-0.425	-0.293	
4.920	-0.239	-0.349	
4.925	-0.071	-0.357	
4.930	-0.200	-0.322	
4.935	-0.107	-0.272	
4.940	0.191	-0.208	
4.945	-0.028	-0.126	
4.950	-0.119	-0.062	
4.955	0.218	-0.021	
4.960	0.156	0.024	
4.965	-0.107	0.062	
4.970	0.131	0.072	
4.975	0.269	0.084	
4.980	-0.071	0.101	
4.985	-0.032	0.096	
4.990	0.263	0.081	
4.995	0.015	0.082	
5.000	-0.103	0.077	
5.005	0.236	0.062	
5.010	0.166	0.068	
5.015	-0.100	0.080	
5.020	0.114	0.075	
5.025	0.267	0.077	
5.030	-0.074	0.090	
5.035	-0.019	0.085	
5.040	0.298	0.075	
5.045	0.023	0.084	
5.050	-0.112	0.084	
5.055	0.218	0.069	
5.060	0.145	0.070	
5.065	-0.101	0.077	
5.070	0.139	0.070	
5.075	0.270	0.074	
5.080	-0.032	0.092	
5.085	0.012	0.094	
5.090	0.302	0.091	
5.095	0.081	0.105	
5.100	-0.023	0.113	
5.105	0.302	0.111	
5.110	0.195	0.126	
5.115	-0.064	0.139	
5.120	0.186	0.131	
5.125	0.318	0.132	
5.130	-0.046	0.144	
5.135	0.003	0.134	
5.140	0.287	0.115	
5.145	0.000	0.112	
5.150	-0.122	0.097	
5.155	0.149	0.067	
5.160	0.046	0.050	
5.165	-0.196	0.035	
5.170	-0.051	0.003	
5.175	0.023	-0.026	
5.180	-0.234	-0.047	
5.185	-0.202	-0.078	
5.190	-0.051	-0.111	
5.195	-0.210	-0.130	
5.200	-0.280	-0.150	
5.205	-0.100	-0.172	
5.210	-0.148	-0.181	
5.215	-0.306	-0.184	
5.220	-0.174	-0.194	
5.225	-0.090	-0.198	
5.230	-0.277	-0.193	
5.235	-0.234	-0.195	
5.240	-0.055	-0.197	
5.245	-0.211	-0.187	
5.250	-0.268	-0.182	
5.255	-0.069	-0.184	
5.260	-0.118	-0.175	
5.265	-0.271	-0.165	
5.270	-0.098	-0.164	
5.275	-0.009	-0.156	
5.280	-0.223	-0.138	
5.285	-0.182	-0.134	
5.290	0.001	-0.134	
5.295	-0.161	-0.125	
5.300	-0.237	-0.123	
5.305	0.020	-0.128	
5.310	-0.043	-0.118	
5.315	-0.225	-0.105	
5.320	-0.048	-0.104	
5.325	0.102	-0.094	
5.330	-0.164	-0.072	
5.335	-0.122	-0.064	
5.340	0.127	-0.062	
5.345	-0.087	-0.047	
5.350	-0.170	-0.041	
5.355	0.116	-0.045	
5.360	0.062	-0.033	
5.365	-0.165	-0.017	
5.370	0.009	-0.019	
5.375	0.154	-0.015	
5.380	-0.144	-0.003	
5.385	-0.103	-0.007	
5.390	0.152	-0.017	
5.395	-0.081	-0.013	
5.400	-0.153	-0.016	
5.405	0.128	-0.027	
5.410	0.049	-0.020	
5.415	-0.185	-0.011	
5.420	-0.005	-0.020	
5.425	0.117	-0.024	
5.430	-0.161	-0.018	
5.435	-0.116	-0.027	
5.440	0.162	-0.037	
5.445	-0.071	-0.029	
5.450	-0.162	-0.026	
5.455	0.114	-0.033	
5.460	0.075	-0.024	
5.465	-0.162	-0.010	
5.470	0.006	-0.013	
5.475	0.137	-0.012	
5.480	-0.141	-0.003	
5.485	-0.084	-0.009	
5.490	0.154	-0.017	
5.495	-0.064	-0.011	
5.500	-0.158	-0.012	
5.505	0.117	-0.022	
5.510	0.064	-0.017	
5.515	-0.167	-0.007	
5.520	0.007	-0.013	
5.525	0.142	-0.014	
5.530	-0.119	-0.004	
5.535	-0.068	-0.006	
5.540	0.208	-0.008	
5.545	-0.026	0.007	
5.550	-0.110	0.016	
5.555	0.203	0.015	
5.560	0.111	0.030	
5.565	-0.147	0.045	
5.570	0.023	0.037	
5.575	0.154	0.028	
5.580	-0.127	0.028	
5.585	-0.089	0.014	
5.590	0.159	-0.002	
5.595	-0.075	-0.002	
5.600	-0.173	-0.010	
5.605	0.064	-0.028	
5.610	-0.026	-0.035	
5.615	-0.208	-0.041	
5.620	-0.035	-0.059	
5.625	0.099	-0.065	
5.630	-0.161	-0.056	
5.635	-0.132	-0.057	
5.640	0.105	-0.062	
5.645	-0.103	-0.054	
5.650	-0.164	-0.053	
5.655	0.183	-0.053	
5.660	0.221	-0.024	
5.665	-0.019	0.022	
5.670	0.353	0.066	
5.675	0.606	0.135	
5.680	0.307	0.230	
5.685	0.218	0.301	
5.690	0.195	0.324	
5.695	-0.266	0.291	
5.700	-0.469	0.184	
5.705	-0.326	0.027	
5.710	-0.327	-0.122	
5.715	-0.442	-0.239	
5.720	-0.269	-0.320	
5.725	-0.116	-0.352	
5.730	-0.231	-0.336	
5.735	-0.144	-0.300	
5.740	0.171	-0.243	
5.745	-0.025	-0.162	
5.750	-0.101	-0.091	
5.755	0.208	-0.041	
5.760	0.130	0.012	
5.765	-0.110	0.052	
5.770	0.101	0.063	
5.775	0.256	0.073	
5.780	-0.080	0.088	
5.785	-0.016	0.084	
5.790	0.264	0.073	
5.795	-0.005	0.078	
5.800	-0.116	0.072	
5.805	0.208	0.055	
5.810	0.152	0.057	
5.815	-0.122	0.065	
5.820	0.124	0.059	
5.825	0.230	0.061	
5.830	-0.098	0.074	
5.835	-0.040	0.066	
5.840	0.263	0.054	
5.845	0.024	0.061	
5.850	-0.090	0.064	
5.855	0.240	0.057	
5.860	0.140	0.068	
5.865	-0.118	0.079	
5.870	0.105	0.070	
5.875	0.246	0.069	
5.880	-0.064	0.080	
5.885	0.013	0.077	
5.890	0.322	0.074	
5.895	0.061	0.092	
5.900	-0.072	0.101	
5.905	0.278	0.096	
5.910	0.226	0.108	
5.915	-0.054	0.126	
5.920	0.177	0.125	
5.925	0.311	0.129	
5.930	-0.060	0.142	
5.935	-0.025	0.130	
5.940	0.247	0.106	
5.945	-0.011	0.096	
5.950	-0.119	0.078	
5.955	0.154	0.051	
5.960	0.059	0.039	
5.965	-0.202	0.030	
5.970	-0.060	0.001	
5.975	0.033	-0.027	
5.980	-0.228	-0.046	
5.985	-0.196	-0.075	
5.990	-0.032	-0.106	
5.995	-0.205	-0.123	
6.000	-0.286	-0.142	
6.005	-0.095	-0.166	
6.010	-0.148	-0.175	
6.015	-0.310	-0.180	
6.020	-0.181	-0.193	
6.025	-0.093	-0.199	
6.030	-0.277	-0.195	
6.035	-0.211	-0.197	
6.040	-0.061	-0.196	
6.045	-0.232	-0.186	
6.050	-0.291	-0.184	
6.055	-0.066	-0.190	
6.060	-0.115	-0.183	
6.065	-0.292	-0.172	
6.070	-0.136	-0.174	
6.075	-0.017	-0.170	
6.080	-0.226	-0.154	
6.085	-0.196	-0.149	
6.090	0.015	-0.147	
6.095	-0.153	-0.133	
6.100	-0.225	-0.126	
6.105	0.030	-0.125	
6.110	-0.034	-0.111	
6.115	-0.222	-0.096	
6.120	-0.057	-0.095	
6.125	0.056	-0.090	
6.130	-0.184	-0.077	
6.135	-0.129	-0.076	
6.140	0.137	-0.076	
6.145	-0.080	-0.059	
6.150	-0.171	-0.049	
6.155	0.104	-0.049	
6.160	0.036	-0.037	
6.165	-0.185	-0.025	
6.170	-0.003	-0.030	
6.175	0.134	-0.029	
6.180	-0.145	-0.018	
6.185	-0.092	-0.021	
6.190	0.172	-0.026	
6.195	-0.064	-0.014	
6.200	-0.161	-0.012	
6.205	0.113	-0.021	
6.210	0.036	-0.017	
6.215	-0.174	-0.011	
6.220	0.015	-0.020	
6.225	0.140	-0.021	
6.230	-0.148	-0.011	
6.235	-0.106	-0.016	
6.240	0.177	-0.024	
6.245	-0.069	-0.015	
6.250	-0.164	-0.014	
6.255	0.139	-0.023	
6.260	0.047	-0.015	
6.265	-0.182	-0.006	
6.270	0.003	-0.015	
6.275	0.146	-0.018	
6.280	-0.141	-0.009	
6.285	-0.098	-0.014	
6.290	0.174	-0.021	
6.295	-0.080	-0.013	
6.300	-0.174	-0.014	
6.305	0.091	-0.027	
6.310	0.027	-0.027	
6.315	-0.177	-0.024	
6.320	0.018	-0.032	
6.325	0.151	-0.030	
6.330	-0.148	-0.015	
6.335	-0.106	-0.017	
6.340	0.152	-0.024	
6.345	-0.066	-0.017	
6.350	-0.161	-0.017	
6.355	0.111	-0.027	
6.360	0.044	-0.021	
6.365	-0.159	-0.013	
6.370	0.033	-0.018	
6.375	0.169	-0.013	
6.380	-0.130	0.003	
6.385	-0.068	0.003	
6.390	0.208	-0.001	
6.395	-0.051	0.012	
6.400	-0.130	0.014	
6.405	0.175	0.007	
6.410	0.081	0.016	
6.415	-0.156	0.026	
6.420	0.053	0.017	
6.425	0.181	0.016	
6.430	-0.133	0.026	
6.435	-0.092	0.018	
6.440	0.178	0.004	
6.445	-0.087	0.005	
6.450	-0.184	-0.004	
6.455	0.097	-0.024	
6.460	0.027	-0.028	
6.465	-0.203	-0.027	
6.470	-0.034	-0.040	
6.475	0.079	-0.049	
6.480	-0.171	-0.046	
6.485	-0.135	-0.054	
6.490	0.091	-0.065	
6.495	-0.110	-0.061	
6.500	-0.182	-0.062	
6.505	0.105	-0.068	
6.510	0.090	-0.053	
6.515	-0.084	-0.027	
6.520	0.209	-0.003	
6.525	0.479	0.047	
6.530	0.247	0.128	
6.535	0.424	0.209	
6.540	0.661	0.291	
6.545	0.107	0.363	
6.550	-0.237	0.361	
6.555	-0.205	0.267	
6.560	-0.329	0.127	
6.565	-0.508	-0.029	
6.570	-0.359	-0.179	
6.575	-0.226	-0.287	
6.580	-0.329	-0.339	
6.585	-0.225	-0.354	
6.590	0.053	-0.329	
6.595	-0.084	-0.266	
6.600	-0.144	-0.197	
6.605	0.181	-0.136	
6.610	0.142	-0.064	
6.615	-0.116	-0.001	
6.620	0.081	0.030	
6.625	0.235	0.052	
6.630	-0.083	0.075	
6.635	-0.043	0.074	
6.640	0.261	0.064	
6.645	0.010	0.070	
6.650	-0.087	0.069	
6.655	0.232	0.059	
6.660	0.157	0.067	
6.665	-0.106	0.080	
6.670	0.117	0.074	
6.675	0.247	0.075	
6.680	-0.083	0.086	
6.685	-0.037	0.077	
6.690	0.255	0.064	
6.695	0.017	0.068	
6.700	-0.103	0.066	
6.705	0.217	0.054	
6.710	0.142	0.060	
6.715	-0.100	0.070	
6.720	0.116	0.065	
6.725	0.243	0.068	
6.730	-0.086	0.080	
6.735	-0.042	0.073	
6.740	0.276	0.061	
6.745	0.029	0.069	
6.750	-0.077	0.072	
6.755	0.250	0.066	
6.760	0.189	0.079	
6.765	-0.074	0.096	
6.770	0.171	0.097	
6.775	0.313	0.106	
6.780	-0.040	0.126	
6.785	0.015	0.124	
6.790	0.301	0.114	
6.795	0.010	0.116	
6.800	-0.112	0.106	
6.805	0.189	0.080	
6.810	0.116	0.070	
6.815	-0.141	0.065	
6.820	0.015	0.044	
6.825	0.111	0.025	
6.830	-0.199	0.013	
6.835	-0.173	-0.016	
6.840	-0.002	-0.053	
6.845	-0.182	-0.078	
6.850	-0.266	-0.105	
6.855	-0.092	-0.136	
6.860	-0.136	-0.153	
6.865	-0.300	-0.164	
6.870	-0.142	-0.180	
6.875	-0.057	-0.184	
6.880	-0.271	-0.176	
6.885	-0.240	-0.179	
6.890	-0.054	-0.184	
6.895	-0.196	-0.178	
6.900	-0.260	-0.174	
6.905	-0.055	-0.176	
6.910	-0.110	-0.167	
6.915	-0.269	-0.156	
6.920	-0.109	-0.157	
6.925	0.012	-0.151	
6.930	-0.223	-0.134	
6.935	-0.202	-0.130	
6.940	-0.003	-0.134	
6.945	-0.152	-0.127	
6.950	-0.225	-0.125	
6.955	0.012	-0.128	
6.960	-0.035	-0.117	
6.965	-0.216	-0.102	
6.970	-0.064	-0.101	
6.975	0.064	-0.095	
6.980	-0.173	-0.079	
6.985	-0.132	-0.076	
6.990	0.122	-0.075	
6.995	-0.086	-0.059	
7.000	-0.182	-0.051	
7.005	0.107	-0.054	
7.010	0.030	-0.042	
7.015	-0.174	-0.029	
7.020	0.023	-0.031	
7.025	0.133	-0.026	
7.030	-0.142	-0.012	
7.035	-0.106	-0.015	
7.040	0.128	-0.024	
7.045	-0.084	-0.021	
7.050	-0.158	-0.025	
7.055	0.125	-0.035	
7.060	0.053	-0.026	
7.065	-0.182	-0.015	
7.070	-0.022	-0.022	
7.075	0.142	-0.025	
7.080	-0.132	-0.016	
7.085	-0.103	-0.019	
7.090	0.168	-0.025	
7.095	-0.063	-0.015	
7.100	-0.165	-0.013	
7.105	0.090	-0.024	
7.110	0.044	-0.022	
7.115	-0.174	-0.017	
7.120	0.006	-0.025	
7.125	0.127	-0.026	
7.130	-0.150	-0.017	
7.135	-0.109	-0.022	
7.140	0.151	-0.031	
7.145	-0.063	-0.023	
7.150	-0.167	-0.022	
7.155	0.120	-0.030	
7.160	0.042	-0.023	
7.165	-0.190	-0.015	
7.170	-0.020	-0.024	
7.175	0.148	-0.028	
7.180	-0.144	-0.019	
7.185	-0.119	-0.023	
7.190	0.143	-0.032	
7.195	-0.075	-0.026	
7.200	-0.165	-0.026	
7.205	0.128	-0.034	
7.210	0.055	-0.025	
7.215	-0.176	-0.013	
7.220	-0.005	-0.019	
7.225	0.139	-0.020	
7.230	-0.141	-0.011	
7.235	-0.103	-0.016	
7.240	0.145	-0.025	
7.245	-0.075	-0.019	
7.250	-0.164	-0.021	
7.255	0.104	-0.032	
7.260	0.030	-0.028	
7.265	-0.170	-0.021	
7.270	-0.009	-0.028	
7.275	0.128	-0.030	
7.280	-0.142	-0.020	
7.285	-0.100	-0.023	
7.290	0.166	-0.029	
7.295	-0.045	-0.017	
7.300	-0.144	-0.012	
7.305	0.124	-0.016	
7.310	0.064	-0.008	
7.315	-0.153	0.002	
7.320	0.047	-0.002	
7.325	0.208	0.003	
7.330	-0.078	0.023	
7.335	-0.055	0.028	
7.340	0.217	0.027	
7.345	-0.048	0.036	
7.350	-0.150	0.033	
7.355	0.124	0.015	
7.360	0.068	0.011	
7.365	-0.159	0.012	
7.370	-0.009	-0.002	
7.375	0.101	-0.012	
7.380	-0.173	-0.014	
7.385	-0.148	-0.030	
7.390	0.087	-0.051	
7.395	-0.115	-0.055	
7.400	-0.207	-0.064	
7.405	0.038	-0.078	
7.410	0.015	-0.077	
7.415	-0.187	-0.067	
7.420	-0.028	-0.068	
7.425	0.096	-0.062	
7.430	-0.179	-0.049	
7.435	-0.121	-0.051	
7.440	0.197	-0.053	
7.445	0.062	-0.029	
7.450	0.027	0.005	
7.455	0.515	0.049	
7.460	0.599	0.139	
7.465	0.348	0.252	
7.470	0.467	0.342	
7.475	0.250	0.394	
7.480	-0.277	0.379	
7.485	-0.388	0.270	
7.490	-0.304	0.104	
7.495	-0.434	-0.063	
7.500	-0.474	-0.210	
7.505	-0.245	-0.318	
7.510	-0.197	-0.366	
7.515	-0.272	-0.364	
7.520	-0.054	-0.333	
7.525	0.140	-0.267	
7.530	-0.112	-0.180	
7.535	-0.046	-0.110	
7.540	0.232	-0.054	
7.545	-0.026	0.002	
7.550	-0.135	0.031	
7.555	0.180	0.034	
7.560	0.142	0.046	
7.565	-0.107	0.060	
7.570	0.094	0.057	
7.575	0.218	0.059	
7.580	-0.078	0.070	
7.585	-0.045	0.063	
7.590	0.243	0.051	
7.595	0.012	0.057	
7.600	-0.107	0.057	
7.605	0.195	0.046	
7.610	0.162	0.053	
7.615	-0.112	0.065	
7.620	0.078	0.060	
7.625	0.238	0.059	
7.630	-0.083	0.070	
7.635	-0.038	0.064	
7.640	0.250	0.053	
7.645	0.021	0.060	
7.650	-0.089	0.062	
7.655	0.249	0.056	
7.660	0.206	0.071	
7.665	-0.081	0.092	
7.670	0.125	0.093	
7.675	0.276	0.097	
7.680	-0.060	0.109	
7.685	-0.013	0.102	
7.690	0.308	0.090	
7.695	0.067	0.098	
7.700	-0.049	0.102	
7.705	0.296	0.098	
7.710	0.197	0.112	
7.715	-0.101	0.125	
7.720	0.114	0.113	
7.725	0.258	0.105	
7.730	-0.066	0.107	
7.735	-0.051	0.092	
7.740	0.197	0.069	
7.745	-0.046	0.059	
7.750	-0.155	0.040	
7.755	0.081	0.011	
7.760	-0.013	-0.005	
7.765	-0.231	-0.021	
7.770	-0.110	-0.051	
7.775	-0.020	-0.079	
7.780	-0.251	-0.096	
7.785	-0.229	-0.122	
7.790	-0.037	-0.146	
7.795	-0.197	-0.154	
7.800	-0.295	-0.163	
7.805	-0.095	-0.178	
7.810	-0.130	-0.181	
7.815	-0.300	-0.179	
7.820	-0.176	-0.187	
7.825	-0.083	-0.190	
7.830	-0.277	-0.185	
7.835	-0.243	-0.189	
7.840	-0.048	-0.194	
7.845	-0.187	-0.184	
7.850	-0.263	-0.177	
7.855	-0.052	-0.176	
7.860	-0.087	-0.164	
7.865	-0.257	-0.150	
7.870	-0.107	-0.149	
7.875	0.020	-0.141	
7.880	-0.205	-0.124	
7.885	-0.170	-0.118	
7.890	0.062	-0.116	
7.895	-0.122	-0.101	
7.900	-0.194	-0.093	
7.905	0.053	-0.093	
7.910	-0.023	-0.080	
7.915	-0.217	-0.069	
7.920	-0.058	-0.075	
7.925	0.114	-0.074	
7.930	-0.167	-0.060	
7.935	-0.136	-0.058	
7.940	0.117	-0.061	
7.945	-0.084	-0.051	
7.950	-0.177	-0.047	
7.955	0.094	-0.052	
7.960	0.058	-0.042	
7.965	-0.171	-0.028	
7.970	0.007	-0.028	
7.975	0.124	-0.025	
7.980	-0.136	-0.013	
7.985	-0.107	-0.017	
7.990	0.171	-0.024	
7.995	-0.057	-0.015	
8.000	-0.159	-0.012	
8.005	0.101	-0.021	
8.010	0.059	-0.017	
8.015	-0.161	-0.009	
8.020	0.010	-0.015	
8.025	0.137	-0.016	
8.030	-0.138	-0.006	
8.035	-0.092	-0.011	
8.040	0.174	-0.018	
8.045	-0.048	-0.009	
8.050	-0.161	-0.006	
8.055	0.108	-0.016	
8.060	0.046	-0.013	
8.065	-0.174	-0.008	
8.070	0.000	-0.018	
8.075	0.163	-0.020	
8.080	-0.121	-0.008	
8.085	-0.110	-0.009	
8.090	0.110	-0.019	
8.095	-0.083	-0.019	
8.100	-0.153	-0.025	
8.105	0.136	-0.035	
8.110	0.049	-0.026	
8.115	-0.177	-0.014	
8.120	-0.006	-0.020	
8.125	0.165	-0.020	
8.130	-0.119	-0.008	
8.135	-0.095	-0.008	
8.140	0.178	-0.012	
8.145	-0.040	-0.002	
8.150	-0.159	0.001	
8.155	0.091	-0.011	
8.160	0.049	-0.011	
8.165	-0.167	-0.008	
8.170	-0.013	-0.019	
8.175	0.137	-0.023	
8.180	-0.156	-0.016	
8.185	-0.127	-0.024	
8.190	0.139	-0.036	
8.195	-0.068	-0.031	
8.200	-0.167	-0.031	
8.205	0.114	-0.038	
8.210	0.076	-0.028	
8.215	-0.159	-0.013	
8.220	0.006	-0.014	
8.225	0.140	-0.013	
8.230	-0.144	-0.003	
8.235	-0.115	-0.010	
8.240	0.154	-0.021	
8.245	-0.049	-0.016	
8.250	-0.150	-0.015	
8.255	0.151	-0.021	
8.260	0.110	-0.008	
8.265	-0.150	0.010	
8.270	0.026	0.010	
8.275	0.152	0.010	
8.280	-0.130	0.018	
8.285	-0.103	0.008	
8.290	0.183	-0.005	
8.295	-0.034	0.000	
8.300	-0.113	0.003	
8.305	0.195	0.001	
8.310	0.130	0.018	
8.315	-0.133	0.038	
8.320	0.041	0.037	
8.325	0.194	0.036	
8.330	-0.112	0.043	
8.335	-0.097	0.033	
8.340	0.172	0.016	
8.345	-0.087	0.012	
8.350	-0.187	-0.001	
8.355	0.053	-0.026	
8.360	0.021	-0.036	
8.365	-0.188	-0.039	
8.370	-0.026	-0.051	
8.375	0.072	-0.055	
8.380	-0.176	-0.049	
8.385	-0.129	-0.057	
8.390	0.124	-0.064	
8.395	-0.092	-0.055	
8.400	-0.199	-0.052	
8.405	0.047	-0.061	
8.410	0.050	-0.057	
8.415	-0.138	-0.044	
8.420	0.151	-0.033	
8.425	0.406	0.005	
8.430	0.183	0.075	
8.435	0.397	0.150	
8.440	0.761	0.239	
8.445	0.343	0.343	
8.450	-0.121	0.392	
8.455	-0.130	0.343	
8.460	-0.301	0.224	
8.465	-0.518	0.066	
8.470	-0.394	-0.104	
8.475	-0.284	-0.241	
8.480	-0.388	-0.327	
8.485	-0.280	-0.370	
8.490	-0.025	-0.368	
8.495	-0.113	-0.320	
8.500	-0.164	-0.256	
8.505	0.139	-0.191	
8.510	0.107	-0.114	
8.515	-0.135	-0.045	
8.520	0.059	-0.008	
8.525	0.214	0.021	
8.530	-0.089	0.050	
8.535	-0.042	0.055	
8.540	0.272	0.051	
8.545	0.030	0.065	
8.550	-0.106	0.070	
8.555	0.206	0.061	
8.560	0.125	0.065	
8.565	-0.121	0.070	
8.570	0.093	0.059	
8.575	0.264	0.058	
8.580	-0.068	0.072	
8.585	-0.028	0.070	
8.590	0.258	0.063	
8.595	0.021	0.071	
8.600	-0.109	0.071	
8.605	0.204	0.058	
8.610	0.146	0.062	
8.615	-0.113	0.070	
8.620	0.101	0.062	
8.625	0.269	0.063	
8.630	-0.074	0.078	
8.635	-0.035	0.075	
8.640	0.276	0.066	
8.645	0.036	0.075	
8.650	-0.081	0.077	
8.655	0.229	0.069	
8.660	0.195	0.079	
8.665	-0.077	0.094	
8.670	0.151	0.093	
8.675	0.296	0.100	
8.680	-0.032	0.117	
8.685	0.023	0.116	
8.690	0.328	0.110	
8.695	0.070	0.121	
8.700	-0.089	0.122	
8.705	0.194	0.103	
8.710	0.124	0.095	
8.715	-0.148	0.087	
8.720	-0.003	0.059	
8.725	0.134	0.033	
8.730	-0.164	0.019	
8.735	-0.161	-0.008	
8.740	0.030	-0.041	
8.745	-0.168	-0.061	
8.750	-0.277	-0.087	
8.755	-0.092	-0.122	
8.760	-0.110	-0.142	
8.765	-0.291	-0.154	
8.770	-0.168	-0.171	
8.775	-0.075	-0.180	
8.780	-0.274	-0.179	
8.785	-0.243	-0.185	
8.790	-0.072	-0.192	
8.795	-0.197	-0.187	
8.800	-0.272	-0.185	
8.805	-0.074	-0.187	
8.810	-0.112	-0.178	
8.815	-0.280	-0.167	
8.820	-0.144	-0.169	
8.825	-0.051	-0.167	
8.830	-0.251	-0.158	
8.835	-0.219	-0.160	
8.840	-0.002	-0.163	
8.845	-0.156	-0.152	
8.850	-0.237	-0.144	
8.855	-0.009	-0.143	
8.860	-0.058	-0.131	
8.865	-0.242	-0.117	
8.870	-0.084	-0.118	
8.875	0.073	-0.112	
8.880	-0.182	-0.094	
8.885	-0.150	-0.088	
8.890	0.116	-0.086	
8.895	-0.084	-0.069	
8.900	-0.181	-0.059	
8.905	0.084	-0.060	
8.910	0.055	-0.047	
8.915	-0.161	-0.031	
8.920	-0.005	-0.030	
8.925	0.145	-0.025	
8.930	-0.145	-0.011	
8.935	-0.107	-0.014	
8.940	0.160	-0.022	
8.945	-0.057	-0.015	
8.950	-0.165	-0.014	
8.955	0.116	-0.024	
8.960	0.044	-0.019	
8.965	-0.188	-0.012	
8.970	-0.016	-0.023	
8.975	0.134	-0.028	
8.980	-0.142	-0.020	
8.985	-0.110	-0.024	
8.990	0.172	-0.031	
8.995	-0.057	-0.020	
9.000	-0.170	-0.016	
9.005	0.099	-0.025	
9.010	0.064	-0.021	
9.015	-0.171	-0.012	
9.020	0.000	-0.018	
9.025	0.154	-0.019	
9.030	-0.113	-0.007	
9.035	-0.103	-0.008	
9.040	0.174	-0.013	
9.045	-0.074	-0.006	
9.050	-0.184	-0.008	
9.055	0.088	-0.024	
9.060	0.049	-0.026	
9.065	-0.181	-0.021	
9.070	-0.008	-0.030	
9.075	0.152	-0.031	
9.080	-0.135	-0.018	
9.085	-0.081	-0.018	
9.090	0.156	-0.021	
9.095	-0.089	-0.012	
9.100	-0.177	-0.015	
9.105	0.107	-0.029	
9.110	0.039	-0.027	
9.115	-0.177	-0.021	
9.120	0.010	-0.028	
9.125	0.142	-0.027	
9.130	-0.141	-0.014	
9.135	-0.109	-0.017	
9.140	0.175	-0.024	
9.145	-0.055	-0.014	
9.150	-0.159	-0.011	
9.155	0.117	-0.019	
9.160	0.073	-0.013	
9.165	-0.171	-0.003	
9.170	-0.009	-0.011	
9.175	0.185	-0.013	
9.180	-0.142	-0.001	
9.185	-0.132	-0.006	
9.190	0.131	-0.020	
9.195	-0.066	-0.020	
9.200	-0.165	-0.024	
9.205	0.142	-0.034	
9.210	0.081	-0.023	
9.215	-0.170	-0.007	
9.220	-0.011	-0.010	
9.225	0.162	-0.012	
9.230	-0.119	-0.001	
9.235	-0.080	-0.003	
9.240	0.203	-0.007	
9.245	-0.017	0.007	
9.250	-0.118	0.015	
9.255	0.168	0.012	
9.260	0.137	0.025	
9.265	-0.138	0.040	
9.270	0.012	0.035	
9.275	0.166	0.028	
9.280	-0.121	0.030	
9.285	-0.075	0.018	
9.290	0.203	0.006	
9.295	-0.035	0.013	
9.300	-0.170	0.012	
9.305	0.075	-0.005	
9.310	0.000	-0.013	
9.315	-0.216	-0.021	
9.320	-0.055	-0.044	
9.325	0.093	-0.057	
9.330	-0.176	-0.056	
9.335	-0.130	-0.063	
9.340	0.114	-0.069	
9.345	-0.097	-0.060	
9.350	-0.197	-0.057	
9.355	0.090	-0.063	
9.360	0.134	-0.049	
9.365	-0.104	-0.022	
9.370	0.206	0.002	
9.375	0.512	0.051	
9.380	0.314	0.137	
9.385	0.435	0.227	
9.390	0.568	0.310	
9.395	-0.028	0.365	
9.400	-0.335	0.333	
9.405	-0.291	0.210	
9.410	-0.347	0.053	
9.415	-0.500	-0.103	
9.420	-0.333	-0.238	
9.425	-0.196	-0.323	
9.430	-0.332	-0.354	
9.435	-0.236	-0.355	
9.440	0.065	-0.324	
9.445	-0.064	-0.256	
9.450	-0.142	-0.185	
9.455	0.165	-0.125	
9.460	0.139	-0.057	
9.465	-0.107	0.002	
9.470	0.088	0.032	
9.475	0.223	0.054	
9.480	-0.083	0.075	
9.485	-0.045	0.073	
9.490	0.249	0.062	
9.495	0.017	0.066	
9.500	-0.110	0.064	
9.505	0.203	0.052	
9.510	0.151	0.056	
9.515	-0.127	0.066	
9.520	0.091	0.058	
9.525	0.249	0.057	
9.530	-0.100	0.069	
9.535	-0.064	0.061	
9.540	0.243	0.047	
9.545	0.024	0.052	
9.550	-0.112	0.053	
9.555	0.183	0.043	
9.560	0.139	0.048	
9.565	-0.110	0.058	
9.570	0.111	0.054	
9.575	0.282	0.060	
9.580	-0.051	0.081	
9.585	-0.031	0.083	
9.590	0.273	0.076	
9.595	0.035	0.084	
9.600	-0.081	0.085	
9.605	0.269	0.076	
9.610	0.241	0.090	
9.615	-0.063	0.112	
9.620	0.139	0.114	
9.625	0.276	0.116	
9.630	-0.025	0.127	
9.635	0.001	0.119	
9.640	0.255	0.104	
9.645	0.020	0.102	
9.650	-0.110	0.091	
9.655	0.177	0.067	
9.660	0.104	0.059	
9.665	-0.164	0.055	
9.670	-0.011	0.031	
9.675	0.113	0.011	
9.680	-0.205	-0.001	
9.685	-0.200	-0.029	
9.690	-0.016	-0.067	
9.695	-0.188	-0.092	
9.700	-0.283	-0.119	
9.705	-0.106	-0.150	
9.710	-0.152	-0.167	
9.715	-0.310	-0.178	
9.720	-0.177	-0.194	
9.725	-0.086	-0.201	
9.730	-0.263	-0.196	
9.735	-0.246	-0.196	
9.740	-0.058	-0.198	
9.745	-0.217	-0.189	
9.750	-0.307	-0.187	
9.755	-0.116	-0.195	
9.760	-0.127	-0.194	
9.765	-0.275	-0.187	
9.770	-0.133	-0.187	
9.775	-0.019	-0.178	
9.780	-0.239	-0.160	
9.785	-0.208	-0.154	
9.790	-0.016	-0.153	
9.795	-0.158	-0.143	
9.800	-0.234	-0.138	
9.805	-0.009	-0.139	
9.810	-0.054	-0.128	
9.815	-0.237	-0.115	
9.820	-0.089	-0.116	
9.825	0.065	-0.111	
9.830	-0.177	-0.095	
9.835	-0.161	-0.090	
9.840	0.084	-0.090	
9.845	-0.093	-0.077	
9.850	-0.174	-0.070	
9.855	0.093	-0.069	
9.860	0.047	-0.054	
9.865	-0.177	-0.035	
9.870	-0.020	-0.035	
9.875	0.125	-0.033	
9.880	-0.144	-0.022	
9.885	-0.122	-0.025	
9.890	0.157	-0.033	
9.895	-0.072	-0.025	
9.900	-0.177	-0.024	
9.905	0.072	-0.036	
9.910	0.046	-0.034	
9.915	-0.181	-0.028	
9.920	-0.035	-0.036	
9.925	0.116	-0.040	
9.930	-0.141	-0.031	
9.935	-0.113	-0.034	
9.940	0.114	-0.041	
9.945	-0.095	-0.036	
9.950	-0.185	-0.039	
9.955	0.107	-0.050	
9.960	0.061	-0.042	
9.965	-0.165	-0.027	
9.970	0.003	-0.027	
9.975	0.143	-0.023	
9.980	-0.144	-0.010	
9.985	-0.106	-0.013	
9.990	0.157	-0.022	
9.995	-0.078	-0.016	
10.000	-0.170	-0.018	
10.005	0.084	-0.031	
10.010	0.044	-0.030	
10.015	-0.194	-0.025	
10.020	-0.019	-0.034	
10.025	0.154	-0.036	
10.030	-0.147	-0.024	
10.035	-0.124	-0.026	
10.040	0.145	-0.033	
10.045	-0.064	-0.026	
10.050	-0.162	-0.025	
10.055	0.116	-0.032	
10.060	0.078	-0.023	
10.065	-0.156	-0.009	
10.070	0.018	-0.010	
10.075	0.163	-0.007	
10.080	-0.153	0.005	
10.085	-0.127	-0.003	
10.090	0.146	-0.018	
10.095	-0.071	-0.018	
10.100	-0.165	-0.022	
10.105	0.105	-0.033	
10.110	0.042	-0.029	
10.115	-0.182	-0.021	
10.120	-0.002	-0.028	
10.125	0.169	-0.027	
10.130	-0.130	-0.012	
10.135	-0.100	-0.011	
10.140	0.157	-0.017	
10.145	-0.057	-0.009	
10.150	-0.138	-0.008	
10.155	0.177	-0.013	
10.160	0.116	0.002	
10.165	-0.133	0.022	
10.170	0.059	0.023	
10.175	0.188	0.028	
10.180	-0.119	0.039	
10.185	-0.098	0.031	
10.190	0.137	0.013	
10.195	-0.083	0.006	
10.200	-0.181	-0.008	
10.205	0.053	-0.032	
10.210	0.006	-0.041	
10.215	-0.185	-0.043	
10.220	-0.029	-0.054	
10.225	0.131	-0.055	
10.230	-0.158	-0.042	
10.235	-0.136	-0.042	
10.240	0.101	-0.050	
10.245	-0.095	-0.046	
10.250	-0.177	-0.048	
10.255	0.122	-0.055	
10.260	0.146	-0.039	
10.265	-0.074	-0.008	
10.270	0.181	0.017	
10.275	0.466	0.061	
10.280	0.272	0.135	
10.285	0.380	0.211	
10.290	0.519	0.281	
10.295	-0.031	0.327	
10.300	-0.304	0.297	
10.305	-0.272	0.185	
10.310	-0.349	0.041	
10.315	-0.485	-0.105	
10.320	-0.326	-0.233	
10.325	-0.193	-0.314	
10.330	-0.301	-0.343	
10.335	-0.202	-0.340	
10.340	0.120	-0.303	
10.345	-0.042	-0.228	
10.350	-0.113	-0.153	
10.355	0.212	-0.091	
10.360	0.156	-0.022	
10.365	-0.112	0.035	
10.370	0.117	0.059	
10.375	0.278	0.078	
10.380	-0.055	0.102	
10.385	-0.029	0.101	
10.390	0.273	0.089	
10.395	0.021	0.092	
10.400	-0.115	0.085	
10.405	0.215	0.067	
10.410	0.178	0.068	
10.415	-0.081	0.079	
10.420	0.111	0.075	
10.425	0.282	0.079	
10.430	-0.054	0.095	
10.435	-0.029	0.092	
10.440	0.275	0.081	
10.445	0.027	0.086	
10.450	-0.109	0.083	
10.455	0.218	0.067	
10.460	0.186	0.071	
10.465	-0.089	0.083	
10.470	0.125	0.079	
10.475	0.261	0.083	
10.480	-0.054	0.096	
10.485	-0.013	0.092	
10.490	0.273	0.082	
10.495	0.049	0.088	
10.500	-0.061	0.090	
10.505	0.295	0.084	
10.510	0.247	0.101	
10.515	-0.068	0.125	
10.520	0.163	0.126	
10.525	0.290	0.128	
10.530	-0.052	0.138	
10.535	0.012	0.126	
10.540	0.336	0.111	
10.545	0.053	0.118	
10.550	-0.092	0.115	
10.555	0.215	0.096	
10.560	0.131	0.091	
10.565	-0.164	0.086	
10.570	-0.042	0.057	
10.575	0.075	0.024	
10.580	-0.184	-0.000	
10.585	-0.185	-0.034	
10.590	-0.031	-0.071	
10.595	-0.188	-0.097	
10.600	-0.283	-0.123	
10.605	-0.092	-0.152	
10.610	-0.132	-0.166	
10.615	-0.310	-0.173	
10.620	-0.196	-0.188	
10.625	-0.097	-0.198	
10.630	-0.277	-0.197	
10.635	-0.243	-0.201	
10.640	-0.063	-0.204	
10.645	-0.200	-0.194	
10.650	-0.284	-0.188	
10.655	-0.092	-0.190	
10.660	-0.115	-0.183	
10.665	-0.269	-0.173	
10.670	-0.122	-0.172	
10.675	-0.002	-0.163	
10.680	-0.226	-0.145	
10.685	-0.202	-0.140	
10.690	-0.022	-0.142	
10.695	-0.165	-0.135	
10.700	-0.236	-0.134	
10.705	-0.016	-0.139	
10.710	-0.051	-0.130	
10.715	-0.236	-0.118	
10.720	-0.083	-0.118	
10.725	0.088	-0.111	
10.730	-0.144	-0.089	
10.735	-0.141	-0.078	
10.740	0.090	-0.073	
10.745	-0.101	-0.060	
10.750	-0.187	-0.057	
10.755	0.076	-0.063	
10.760	0.021	-0.055	
10.765	-0.179	-0.044	
10.770	-0.002	-0.046	
10.775	0.149	-0.040	
10.780	-0.152	-0.023	
10.785	-0.136	-0.024	
10.790	0.136	-0.033	
10.795	-0.093	-0.030	
10.800	-0.173	-0.033	
10.805	0.101	-0.044	
10.810	0.053	-0.038	
10.815	-0.177	-0.026	
10.820	0.006	-0.029	
10.825	0.152	-0.026	
10.830	-0.126	-0.011	
10.835	-0.113	-0.012	
10.840	0.139	-0.019	
10.845	-0.064	-0.015	
10.850	-0.147	-0.017	
10.855	0.133	-0.025	
10.860	0.055	-0.016	
10.865	-0.200	-0.007	
10.870	-0.037	-0.019	
10.875	0.143	-0.027	
10.880	-0.119	-0.020	
10.885	-0.122	-0.023	
10.890	0.111	-0.032	
10.895	-0.080	-0.030	
10.900	-0.162	-0.033	
10.905	0.111	-0.042	
10.910	0.064	-0.033	
10.915	-0.174	-0.019	
10.920	-0.011	-0.023	
10.925	0.165	-0.022	
10.930	-0.130	-0.009	
10.935	-0.121	-0.010	
10.940	0.162	-0.019	
10.945	-0.031	-0.012	
10.950	-0.167	-0.009	
10.955	0.067	-0.020	
10.960	0.015	-0.022	
10.965	-0.190	-0.024	
10.970	-0.038	-0.039	
10.975	0.113	-0.046	
10.980	-0.142	-0.039	
10.985	-0.092	-0.041	
10.990	0.189	-0.040	
10.995	-0.054	-0.022	
11.000	-0.159	-0.012	
11.005	0.108	-0.018	
11.010	0.053	-0.012	
11.015	-0.165	-0.005	
11.020	0.041	-0.011	
11.025	0.148	-0.009	
11.030	-0.158	0.002	
11.035	-0.127	-0.007	
11.040	0.183	-0.020	
11.045	-0.029	-0.014	
11.050	-0.155	-0.009	
11.055	0.137	-0.015	
11.060	0.122	-0.003	
11.065	-0.127	0.014	
11.070	0.073	0.018	
11.075	0.238	0.028	
11.080	-0.089	0.049	
11.085	-0.071	0.050	
11.090	0.191	0.039	
11.095	-0.031	0.040	
11.100	-0.139	0.032	
11.105	0.120	0.014	
11.110	0.010	0.007	
11.115	-0.205	-0.000	
11.120	-0.038	-0.024	
11.125	0.107	-0.039	
11.130	-0.171	-0.040	
11.135	-0.126	-0.049	
11.140	0.108	-0.059	
11.145	-0.101	-0.054	
11.150	-0.190	-0.054	
11.155	0.059	-0.064	
11.160	0.021	-0.059	
11.165	-0.190	-0.050	
11.170	0.013	-0.052	
11.175	0.256	-0.039	
11.180	-0.025	-0.003	
11.185	0.125	0.031	
11.190	0.519	0.077	
11.195	0.369	0.155	
11.200	0.215	0.233	
11.205	0.362	0.282	
11.210	-0.006	0.297	
11.215	-0.364	0.249	
11.220	-0.330	0.130	
11.225	-0.274	-0.012	
11.230	-0.456	-0.141	
11.235	-0.399	-0.252	
11.240	-0.179	-0.326	
11.245	-0.222	-0.347	
11.250	-0.246	-0.334	
11.255	0.084	-0.295	
11.260	0.088	-0.221	
11.265	-0.141	-0.138	
11.270	0.050	-0.078	
11.275	0.226	-0.026	
11.280	-0.095	0.023	
11.285	-0.057	0.042	
11.290	0.256	0.046	
11.295	0.033	0.062	
11.300	-0.093	0.069	
11.305	0.221	0.063	
11.310	0.171	0.072	
11.315	-0.113	0.084	
11.320	0.079	0.076	
11.325	0.238	0.071	
11.330	-0.086	0.077	
11.335	-0.058	0.066	
11.340	0.235	0.050	
11.345	0.010	0.052	
11.350	-0.103	0.051	
11.355	0.185	0.040	
11.360	0.154	0.047	
11.365	-0.112	0.059	
11.370	0.110	0.056	
11.375	0.243	0.060	
11.380	-0.075	0.075	
11.385	-0.048	0.071	
11.390	0.275	0.060	
11.395	0.029	0.069	
11.400	-0.087	0.071	
11.405	0.218	0.063	
11.410	0.154	0.070	
11.415	-0.097	0.081	
11.420	0.152	0.076	
11.425	0.287	0.083	
11.430	-0.052	0.102	
11.435	0.003	0.101	
11.440	0.296	0.093	
11.445	0.053	0.102	
11.450	-0.084	0.103	
11.455	0.246	0.090	
11.460	0.168	0.093	
11.465	-0.135	0.099	
11.470	0.035	0.080	
11.475	0.149	0.060	
11.480	-0.148	0.047	
11.485	-0.124	0.020	
11.490	0.130	-0.009	
11.495	-0.130	-0.022	
11.500	-0.255	-0.042	
11.505	-0.058	-0.076	
11.510	-0.103	-0.101	
11.515	-0.271	-0.119	
11.520	-0.162	-0.143	
11.525	-0.083	-0.160	
11.530	-0.275	-0.167	
11.535	-0.239	-0.179	
11.540	-0.049	-0.189	
11.545	-0.213	-0.185	
11.550	-0.300	-0.184	
11.555	-0.089	-0.191	
11.560	-0.141	-0.188	
11.565	-0.303	-0.183	
11.570	-0.167	-0.189	
11.575	-0.051	-0.188	
11.580	-0.222	-0.176	
11.585	-0.194	-0.169	
11.590	-0.009	-0.163	
11.595	-0.168	-0.148	
11.600	-0.251	-0.141	
11.605	-0.016	-0.143	
11.610	-0.019	-0.131	
11.615	-0.226	-0.114	
11.620	-0.089	-0.111	
11.625	0.041	-0.105	
11.630	-0.199	-0.093	
11.635	-0.158	-0.093	
11.640	0.105	-0.095	
11.645	-0.084	-0.080	
11.650	-0.174	-0.069	
11.655	0.058	-0.068	
11.660	0.017	-0.057	
11.665	-0.193	-0.046	
11.670	-0.023	-0.050	
11.675	0.133	-0.048	
11.680	-0.155	-0.034	
11.685	-0.106	-0.034	
11.690	0.162	-0.037	
11.695	-0.058	-0.024	
11.700	-0.164	-0.019	
11.705	0.097	-0.026	
11.710	0.056	-0.021	
11.715	-0.171	-0.013	
11.720	-0.002	-0.020	
11.725	0.154	-0.020	
11.730	-0.126	-0.009	
11.735	-0.106	-0.011	
11.740	0.174	-0.017	
11.745	-0.043	-0.008	
11.750	-0.162	-0.005	
11.755	0.094	-0.016	
11.760	0.039	-0.015	
11.765	-0.179	-0.012	
11.770	-0.020	-0.024	
11.775	0.151	-0.029	
11.780	-0.124	-0.018	
11.785	-0.118	-0.020	
11.790	0.143	-0.027	
11.795	-0.086	-0.022	
11.800	-0.176	-0.024	
11.805	0.097	-0.037	
11.810	0.033	-0.034	
11.815	-0.187	-0.027	
11.820	-0.016	-0.035	
11.825	0.145	-0.036	
11.830	-0.124	-0.023	
11.835	-0.097	-0.021	
11.840	0.178	-0.023	
11.845	-0.057	-0.010	
11.850	-0.162	-0.007	
11.855	0.122	-0.016	
11.860	0.065	-0.010	
11.865	-0.173	-0.002	
11.870	0.012	-0.010	
11.875	0.163	-0.011	
11.880	-0.141	-0.001	
11.885	-0.107	-0.006	
11.890	0.165	-0.016	
11.895	-0.055	-0.010	
11.900	-0.170	-0.011	
11.905	0.111	-0.022	
11.910	0.075	-0.018	
11.915	-0.184	-0.009	
11.920	-0.043	-0.018	
11.925	0.154	-0.025	
11.930	-0.135	-0.018	
11.935	-0.103	-0.021	
11.940	0.157	-0.027	
11.945	-0.052	-0.018	
11.950	-0.159	-0.015	
11.955	0.127	-0.022	
11.960	0.072	-0.014	
11.965	-0.159	-0.002	
11.970	0.006	-0.007	
11.975	0.168	-0.007	
11.980	-0.116	0.004	
11.985	-0.087	0.002	
11.990	0.186	-0.004	
11.995	-0.019	0.006	
12.000	-0.122	0.011	
12.005	0.185	0.008	
12.010	0.134	0.022	
12.015	-0.161	0.039	
12.020	-0.003	0.031	
12.025	0.163	0.021	
12.030	-0.119	0.022	
12.035	-0.084	0.011	
12.040	0.171	-0.002	
12.045	-0.066	0.001	
12.050	-0.161	-0.004	
12.055	0.094	-0.019	
12.060	-0.009	-0.022	
12.065	-0.199	-0.025	
12.070	-0.049	-0.043	
12.075	0.113	-0.052	
12.080	-0.152	-0.046	
12.085	-0.124	-0.049	
12.090	0.102	-0.055	
12.095	-0.092	-0.049	
12.100	-0.164	-0.048	
12.105	0.136	-0.052	
12.110	0.154	-0.032	
12.115	-0.037	0.002	
12.120	0.314	0.037	
12.125	0.603	0.102	
12.130	0.360	0.202	
12.135	0.331	0.291	
12.140	0.334	0.343	
12.145	-0.170	0.344	
12.150	-0.402	0.262	
12.155	-0.307	0.114	
12.160	-0.338	-0.042	
12.165	-0.462	-0.178	
12.170	-0.300	-0.284	
12.175	-0.156	-0.340	
12.180	-0.278	-0.346	
12.185	-0.168	-0.325	
12.190	0.146	-0.277	
12.195	-0.038	-0.198	
12.200	-0.133	-0.126	
12.205	0.169	-0.073	
12.210	0.165	-0.017	
12.215	-0.124	0.031	
12.220	0.081	0.049	
12.225	0.249	0.062	
12.230	-0.064	0.081	
12.235	-0.026	0.079	
12.240	0.236	0.069	
12.245	-0.005	0.072	
12.250	-0.119	0.065	
12.255	0.197	0.048	
12.260	0.139	0.049	
12.265	-0.107	0.058	
12.270	0.099	0.052	
12.275	0.275	0.057	
12.280	-0.068	0.076	
12.285	-0.048	0.075	
12.290	0.252	0.065	
12.295	-0.006	0.069	
12.300	-0.119	0.063	
12.305	0.191	0.047	
12.310	0.143	0.048	
12.315	-0.109	0.057	
12.320	0.120	0.053	
12.325	0.287	0.061	
12.330	-0.057	0.083	
12.335	-0.032	0.085	
12.340	0.264	0.077	
12.345	0.036	0.083	
12.350	-0.089	0.082	
12.355	0.244	0.072	
12.360	0.211	0.081	
12.365	-0.066	0.099	
12.370	0.133	0.099	
12.375	0.292	0.103	
12.380	-0.058	0.117	
12.385	-0.005	0.110	
12.390	0.307	0.097	
12.395	0.041	0.103	
12.400	-0.130	0.099	
12.405	0.136	0.075	
12.410	0.039	0.057	
12.415	-0.176	0.040	
12.420	-0.013	0.009	
12.425	0.075	-0.014	
12.430	-0.207	-0.025	
12.435	-0.197	-0.051	
12.440	-0.017	-0.083	
12.445	-0.184	-0.103	
12.450	-0.278	-0.124	
12.455	-0.101	-0.150	
12.460	-0.129	-0.164	
12.465	-0.284	-0.170	
12.470	-0.165	-0.181	
12.475	-0.093	-0.186	
12.480	-0.277	-0.183	
12.485	-0.242	-0.189	
12.490	-0.060	-0.195	
12.495	-0.205	-0.188	
12.500	-0.284	-0.185	
12.505	-0.089	-0.189	
12.510	-0.118	-0.183	
12.515	-0.274	-0.174	
12.520	-0.133	-0.174	
12.525	-0.028	-0.168	
12.530	-0.225	-0.153	
12.535	-0.188	-0.149	
12.540	0.038	-0.145	
12.545	-0.155	-0.128	
12.550	-0.229	-0.120	
12.555	0.024	-0.121	
12.560	-0.016	-0.108	
12.565	-0.214	-0.092	
12.570	-0.046	-0.090	
12.575	0.096	-0.082	
12.580	-0.177	-0.064	
12.585	-0.156	-0.063	
12.590	0.082	-0.069	
12.595	-0.100	-0.064	
12.600	-0.173	-0.063	
12.605	0.111	-0.066	
12.610	0.030	-0.052	
12.615	-0.199	-0.037	
12.620	-0.005	-0.039	
12.625	0.177	-0.035	
12.630	-0.150	-0.017	
12.635	-0.122	-0.017	
12.640	0.137	-0.025	
12.645	-0.086	-0.022	
12.650	-0.156	-0.025	
12.655	0.139	-0.034	
12.660	0.087	-0.022	
12.665	-0.174	-0.006	
12.670	-0.020	-0.010	
12.675	0.157	-0.013	
12.680	-0.138	-0.005	
12.685	-0.124	-0.011	
12.690	0.140	-0.023	
12.695	-0.077	-0.021	
12.700	-0.168	-0.025	
12.705	0.090	-0.037	
12.710	0.078	-0.032	
12.715	-0.174	-0.020	
12.720	-0.026	-0.025	
12.725	0.124	-0.027	
12.730	-0.150	-0.020	
12.735	-0.104	-0.026	
12.740	0.175	-0.032	
12.745	-0.052	-0.021	
12.750	-0.161	-0.015	
12.755	0.101	-0.022	
12.760	0.049	-0.018	
12.765	-0.171	-0.011	
12.770	-0.006	-0.019	
12.775	0.143	-0.022	
12.780	-0.127	-0.012	
12.785	-0.098	-0.015	
12.790	0.148	-0.021	
12.795	-0.066	-0.015	
12.800	-0.161	-0.015	
12.805	0.117	-0.025	
12.810	0.056	-0.019	
12.815	-0.170	-0.010	
12.820	0.035	-0.015	
12.825	0.151	-0.013	
12.830	-0.148	-0.000	
12.835	-0.098	-0.005	
12.840	0.177	-0.015	
12.845	-0.060	-0.007	
12.850	-0.174	-0.008	
12.855	0.093	-0.021	
12.860	0.046	-0.021	
12.865	-0.156	-0.016	
12.870	0.035	-0.021	
12.875	0.159	-0.017	
12.880	-0.126	-0.001	
12.885	-0.089	-0.001	
12.890	0.169	-0.007	
12.895	-0.048	0.000	
12.900	-0.155	0.000	
12.905	0.113	-0.011	
12.910	0.061	-0.008	
12.915	-0.170	-0.003	
12.920	0.018	-0.011	
12.925	0.151	-0.013	
12.930	-0.121	-0.002	
12.935	-0.080	-0.004	
12.940	0.175	-0.009	
12.945	-0.063	-0.000	
12.950	-0.156	-0.001	
12.955	0.162	-0.011	
12.960	0.130	-0.000	
12.965	-0.139	0.018	
12.970	0.046	0.019	
12.975	0.211	0.024	
12.980	-0.112	0.038	
12.985	-0.084	0.033	
12.990	0.191	0.021	
12.995	-0.058	0.022	
13.000	-0.167	0.014	
13.005	0.081	-0.007	
13.010	0.007	-0.016	
13.015	-0.196	-0.022	
13.020	-0.046	-0.041	
13.025	0.091	-0.051	
13.030	-0.182	-0.049	
13.035	-0.148	-0.059	
13.040	0.087	-0.071	
13.045	-0.106	-0.067	
13.050	-0.179	-0.067	
13.055	0.102	-0.071	
13.060	0.127	-0.053	
13.065	-0.063	-0.021	
13.070	0.285	0.012	
13.075	0.585	0.076	
13.080	0.351	0.177	
13.085	0.453	0.274	
13.090	0.505	0.353	
13.095	-0.084	0.390	
13.100	-0.350	0.336	
13.105	-0.295	0.197	
13.110	-0.352	0.033	
13.115	-0.506	-0.123	
13.120	-0.342	-0.256	
13.125	-0.210	-0.339	
13.130	-0.312	-0.366	
13.135	-0.207	-0.360	
13.140	0.101	-0.320	
13.145	-0.051	-0.243	
13.150	-0.136	-0.167	
13.155	0.165	-0.106	
13.160	0.130	-0.042	
13.165	-0.112	0.012	
13.170	0.101	0.037	
13.175	0.246	0.057	
13.180	-0.086	0.080	
13.185	-0.037	0.079	
13.190	0.252	0.067	
13.195	0.017	0.072	
13.200	-0.090	0.070	
13.205	0.212	0.058	
13.210	0.146	0.064	
13.215	-0.121	0.072	
13.220	0.099	0.064	
13.225	0.243	0.062	
13.230	-0.061	0.074	
13.235	-0.037	0.070	
13.240	0.244	0.060	
13.245	0.013	0.066	
13.250	-0.112	0.064	
13.255	0.206	0.051	
13.260	0.159	0.056	
13.265	-0.100	0.068	
13.270	0.114	0.065	
13.275	0.273	0.070	
13.280	-0.043	0.088	
13.285	-0.006	0.089	
13.290	0.287	0.084	
13.295	0.042	0.094	
13.300	-0.087	0.095	
13.305	0.252	0.083	
13.310	0.221	0.091	
13.315	-0.058	0.108	
13.320	0.172	0.109	
13.325	0.314	0.117	
13.330	-0.066	0.133	
13.335	-0.019	0.124	
13.340	0.278	0.105	
13.345	0.035	0.102	
13.350	-0.112	0.093	
13.355	0.143	0.069	
13.360	0.062	0.056	
13.365	-0.167	0.043	
13.370	-0.009	0.016	
13.375	0.085	-0.005	
13.380	-0.190	-0.015	
13.385	-0.165	-0.039	
13.390	0.004	-0.067	
13.395	-0.188	-0.085	
13.400	-0.275	-0.107	
13.405	-0.071	-0.136	
13.410	-0.136	-0.151	
13.415	-0.318	-0.160	
13.420	-0.184	-0.180	
13.425	-0.086	-0.192	
13.430	-0.272	-0.191	
13.435	-0.245	-0.196	
13.440	-0.081	-0.201	
13.445	-0.213	-0.195	
13.450	-0.277	-0.192	
13.455	-0.074	-0.194	
13.460	-0.113	-0.184	
13.465	-0.275	-0.172	
13.470	-0.135	-0.171	
13.475	-0.026	-0.165	
13.480	-0.237	-0.151	
13.485	-0.193	-0.149	
13.490	0.042	-0.147	
13.495	-0.152	-0.131	
13.500	-0.236	-0.122	
13.505	-0.006	-0.124	
13.510	-0.048	-0.115	
13.515	-0.219	-0.105	
13.520	-0.048	-0.105	
13.525	0.082	-0.096	
13.530	-0.181	-0.077	
13.535	-0.136	-0.073	
13.540	0.117	-0.073	
13.545	-0.083	-0.058	
13.550	-0.162	-0.050	
13.555	0.088	-0.052	
13.560	0.020	-0.041	
13.565	-0.193	-0.032	
13.570	-0.023	-0.039	
13.575	0.142	-0.040	
13.580	-0.135	-0.027	
13.585	-0.071	-0.025	
13.590	0.191	-0.023	
13.595	-0.086	-0.008	
13.600	-0.179	-0.006	
13.605	0.070	-0.021	
13.610	0.026	-0.026	
13.615	-0.171	-0.025	
13.620	0.018	-0.034	
13.625	0.152	-0.031	
13.630	-0.130	-0.015	
13.635	-0.110	-0.015	
13.640	0.133	-0.022	
13.645	-0.081	-0.018	
13.650	-0.165	-0.022	
13.655	0.091	-0.034	
13.660	0.041	-0.031	
13.665	-0.168	-0.024	
13.670	0.030	-0.028	
13.675	0.160	-0.023	
13.680	-0.129	-0.005	
13.685	-0.086	-0.004	
13.690	0.188	-0.008	
13.695	-0.058	0.002	
13.700	-0.177	0.002	
13.705	0.067	-0.015	
13.710	0.039	-0.020	
13.715	-0.177	-0.021	
13.720	-0.008	-0.032	
13.725	0.133	-0.034	
13.730	-0.135	-0.024	
13.735	-0.089	-0.024	
13.740	0.156	-0.028	
13.745	-0.066	-0.017	
13.750	-0.150	-0.014	
13.755	0.143	-0.021	
13.760	0.075	-0.010	
13.765	-0.162	0.003	
13.770	0.015	-0.002	
13.775	0.168	-0.003	
13.780	-0.129	0.008	
13.785	-0.100	0.003	
13.790	0.159	-0.008	
13.795	-0.075	-0.005	
13.800	-0.148	-0.009	
13.805	0.127	-0.021	
13.810	0.032	-0.017	
13.815	-0.164	-0.010	
13.820	0.030	-0.017	
13.825	0.160	-0.015	
13.830	-0.130	-0.001	
13.835	-0.084	-0.002	
13.840	0.186	-0.008	
13.845	-0.057	0.002	
13.850	-0.161	0.002	
13.855	0.114	-0.011	
13.860	0.068	-0.008	
13.865	-0.152	-0.001	
13.870	0.023	-0.007	
13.875	0.159	-0.006	
13.880	-0.139	0.004	
13.885	-0.092	-0.001	
13.890	0.215	-0.008	
13.895	-0.054	0.003	
13.900	-0.155	0.005	
13.905	0.128	-0.005	
13.910	0.082	-0.001	
13.915	-0.142	0.008	
13.920	0.067	0.005	
13.925	0.195	0.011	
13.930	-0.112	0.028	
13.935	-0.077	0.026	
13.940	0.174	0.016	
13.945	-0.064	0.018	
13.950	-0.164	0.010	
13.955	0.101	-0.009	
13.960	0.030	-0.014	
13.965	-0.190	-0.015	
13.970	-0.035	-0.030	
13.975	0.084	-0.041	
13.980	-0.170	-0.040	
13.985	-0.129	-0.050	
13.990	0.124	-0.060	
13.995	-0.093	-0.052	
14.000	-0.196	-0.051	
14.005	0.053	-0.061	
14.010	0.027	-0.057	
14.015	-0.148	-0.047	
14.020	0.134	-0.039	
14.025	0.392	-0.005	
14.030	0.114	0.061	
14.035	0.314	0.125	
14.040	0.721	0.201	
14.045	0.339	0.298	
14.050	-0.106	0.350	
14.055	-0.122	0.312	
14.060	-0.313	0.204	
14.065	-0.506	0.056	
14.070	-0.361	-0.105	
14.075	-0.263	-0.234	
14.080	-0.391	-0.313	
14.085	-0.292	-0.356	
14.090	-0.046	-0.358	
14.095	-0.135	-0.317	
14.100	-0.165	-0.261	
14.105	0.168	-0.199	
14.110	0.102	-0.119	
14.115	-0.133	-0.047	
14.120	0.078	-0.007	
14.125	0.241	0.027	
14.130	-0.064	0.061	
14.135	-0.034	0.070	
14.140	0.246	0.067	
14.145	0.006	0.074	
14.150	-0.092	0.072	
14.155	0.212	0.059	
14.160	0.146	0.064	
14.165	-0.115	0.072	
14.170	0.120	0.065	
14.175	0.273	0.068	
14.180	-0.075	0.084	
14.185	-0.048	0.080	
14.190	0.230	0.066	
14.195	0.006	0.066	
14.200	-0.097	0.061	
14.205	0.181	0.047	
14.210	0.117	0.049	
14.215	-0.126	0.054	
14.220	0.099	0.045	
14.225	0.270	0.048	
14.230	-0.074	0.067	
14.235	-0.031	0.068	
14.240	0.247	0.061	
14.245	0.010	0.068	
14.250	-0.074	0.068	
14.255	0.269	0.062	
14.260	0.185	0.077	
14.265	-0.078	0.096	
14.270	0.172	0.097	
14.275	0.319	0.107	
14.280	-0.022	0.128	
14.285	0.015	0.128	
14.290	0.285	0.118	
14.295	0.041	0.121	
14.300	-0.083	0.112	
14.305	0.241	0.093	
14.310	0.122	0.090	
14.315	-0.165	0.087	
14.320	-0.009	0.059	
14.325	0.114	0.032	
14.330	-0.185	0.014	
14.335	-0.161	-0.017	
14.340	0.006	-0.052	
14.345	-0.176	-0.075	
14.350	-0.258	-0.100	
14.355	-0.060	-0.129	
14.360	-0.121	-0.142	
14.365	-0.295	-0.150	
14.370	-0.159	-0.166	
14.375	-0.081	-0.176	
14.380	-0.281	-0.176	
14.385	-0.257	-0.185	
14.390	-0.100	-0.197	
14.395	-0.226	-0.198	
14.400	-0.291	-0.200	
14.405	-0.097	-0.207	
14.410	-0.132	-0.200	
14.415	-0.306	-0.190	
14.420	-0.164	-0.192	
14.425	-0.057	-0.190	
14.430	-0.239	-0.177	
14.435	-0.222	-0.173	
14.440	-0.038	-0.173	
14.445	-0.182	-0.163	
14.450	-0.243	-0.157	
14.455	-0.016	-0.157	
14.460	-0.042	-0.143	
14.465	-0.229	-0.125	
14.470	-0.074	-0.119	
14.475	0.053	-0.109	
14.480	-0.208	-0.092	
14.485	-0.147	-0.091	
14.490	0.111	-0.091	
14.495	-0.109	-0.076	
14.500	-0.194	-0.068	
14.505	0.076	-0.071	
14.510	0.042	-0.060	
14.515	-0.179	-0.044	
14.520	-0.032	-0.044	
14.525	0.097	-0.043	
14.530	-0.161	-0.034	
14.535	-0.115	-0.039	
14.540	0.160	-0.045	
14.545	-0.080	-0.034	
14.550	-0.181	-0.030	
14.555	0.082	-0.040	
14.560	0.030	-0.036	
14.565	-0.165	-0.029	
14.570	0.024	-0.033	
14.575	0.160	-0.027	
14.580	-0.147	-0.009	
14.585	-0.107	-0.010	
14.590	0.165	-0.018	
14.595	-0.063	-0.011	
14.600	-0.173	-0.012	
14.605	0.062	-0.026	
14.610	0.023	-0.029	
14.615	-0.179	-0.029	
14.620	-0.008	-0.039	
14.625	0.119	-0.040	
14.630	-0.155	-0.030	
14.635	-0.101	-0.033	
14.640	0.151	-0.038	
14.645	-0.069	-0.027	
14.650	-0.167	-0.024	
14.655	0.119	-0.031	
14.660	0.084	-0.022	
14.665	-0.174	-0.008	
14.670	-0.019	-0.013	
14.675	0.134	-0.016	
14.680	-0.138	-0.010	
14.685	-0.089	-0.016	
14.690	0.168	-0.022	
14.695	-0.068	-0.013	
14.700	-0.153	-0.012	
14.705	0.084	-0.022	
14.710	-0.003	-0.023	
14.715	-0.194	-0.024	
14.720	-0.023	-0.040	
14.725	0.114	-0.046	
14.730	-0.142	-0.037	
14.735	-0.113	-0.039	
14.740	0.136	-0.044	
14.745	-0.081	-0.035	
14.750	-0.162	-0.032	
14.755	0.125	-0.038	
14.760	0.079	-0.026	
14.765	-0.150	-0.009	
14.770	0.036	-0.008	
14.775	0.154	-0.002	
14.780	-0.150	0.010	
14.785	-0.109	0.002	
14.790	0.140	-0.012	
14.795	-0.077	-0.013	
14.800	-0.139	-0.018	
14.805	0.143	-0.027	
14.810	0.036	-0.018	
14.815	-0.184	-0.008	
14.820	0.001	-0.018	
14.825	0.160	-0.020	
14.830	-0.118	-0.008	
14.835	-0.066	-0.007	
14.840	0.232	-0.006	
14.845	-0.037	0.012	
14.850	-0.147	0.019	
14.855	0.140	0.010	
14.860	0.110	0.015	
14.865	-0.144	0.025	
14.870	0.064	0.020	
14.875	0.203	0.022	
14.880	-0.150	0.034	
14.885	-0.129	0.023	
14.890	0.105	-0.000	
14.895	-0.109	-0.013	
14.900	-0.173	-0.030	
14.905	0.078	-0.050	
14.910	-0.020	-0.053	
14.915	-0.203	-0.052	
14.920	-0.031	-0.063	
14.925	0.139	-0.063	
14.930	-0.121	-0.045	
14.935	-0.032	-0.034	
14.940	0.337	-0.016	
14.945	0.178	0.034	
14.950	0.143	0.091	
14.955	0.612	0.152	
14.960	0.515	0.241	
14.965	-0.025	0.315	
14.970	-0.077	0.311	
14.975	-0.182	0.235	
14.980	-0.457	0.113	
14.985	-0.436	-0.039	
14.990	-0.255	-0.179	
14.995	-0.330	-0.274	
15.000	-0.355	-0.329	
15.005	-0.101	-0.348	
15.010	-0.055	-0.321	
15.015	-0.187	-0.267	
15.020	0.076	-0.208	
15.025	0.212	-0.132	
15.030	-0.109	-0.052	
15.035	-0.046	-0.006	
15.040	0.284	0.022	
15.045	0.046	0.058	
15.050	-0.101	0.077	
15.055	0.218	0.075	
15.060	0.165	0.084	
15.065	-0.104	0.093	
15.070	0.139	0.085	
15.075	0.290	0.086	
15.080	-0.072	0.101	
15.085	-0.045	0.094	
15.090	0.278	0.079	
15.095	0.039	0.082	
15.100	-0.090	0.081	
15.105	0.204	0.068	
15.110	0.125	0.070	
15.115	-0.135	0.073	
15.120	0.075	0.057	
15.125	0.240	0.051	
15.130	-0.077	0.060	
15.135	-0.020	0.057	
15.140	0.250	0.051	
15.145	0.009	0.061	
15.150	-0.092	0.063	
15.155	0.238	0.055	
15.160	0.165	0.066	
15.165	-0.101	0.081	
15.170	0.172	0.080	
15.175	0.293	0.089	
15.180	-0.061	0.109	
15.185	0.010	0.108	
15.190	0.319	0.100	
15.195	0.059	0.110	
15.200	-0.072	0.112	
15.205	0.233	0.099	
15.210	0.165	0.100	
15.215	-0.113	0.103	
15.220	0.091	0.087	
15.225	0.217	0.076	
15.230	-0.107	0.076	
15.235	-0.087	0.058	
15.240	0.157	0.033	
15.245	-0.092	0.020	
15.250	-0.199	0.000	
15.255	0.013	-0.032	
15.260	-0.084	-0.053	
15.265	-0.265	-0.074	
15.270	-0.141	-0.105	
15.275	-0.077	-0.129	
15.280	-0.277	-0.144	
15.285	-0.248	-0.165	
15.290	-0.090	-0.185	
15.295	-0.240	-0.191	
15.300	-0.320	-0.200	
15.305	-0.109	-0.213	
15.310	-0.139	-0.212	
15.315	-0.284	-0.203	
15.320	-0.142	-0.200	
15.325	-0.051	-0.191	
15.330	-0.254	-0.174	
15.335	-0.222	-0.169	
15.340	-0.055	-0.171	
15.345	-0.197	-0.164	
15.350	-0.257	-0.163	
15.355	-0.048	-0.168	
15.360	-0.075	-0.159	
15.365	-0.260	-0.146	
15.370	-0.103	-0.145	
15.375	0.009	-0.139	
15.380	-0.223	-0.124	
15.385	-0.161	-0.122	
15.390	0.085	-0.119	
15.395	-0.127	-0.102	
15.400	-0.199	-0.091	
15.405	0.053	-0.091	
15.410	0.017	-0.077	
15.415	-0.182	-0.061	
15.420	-0.006	-0.058	
15.425	0.128	-0.049	
15.430	-0.158	-0.031	
15.435	-0.115	-0.031	
15.440	0.166	-0.035	
15.445	-0.064	-0.023	
15.450	-0.171	-0.020	
15.455	0.096	-0.029	
15.460	0.050	-0.024	
15.465	-0.170	-0.017	
15.470	-0.011	-0.024	
15.475	0.165	-0.024	
15.480	-0.119	-0.011	
15.485	-0.107	-0.010	
15.490	0.134	-0.018	
15.495	-0.087	-0.014	
15.500	-0.152	-0.019	
15.505	0.110	-0.031	
15.510	0.042	-0.026	
15.515	-0.167	-0.017	
15.520	0.036	-0.022	
15.525	0.165	-0.017	
15.530	-0.136	-0.000	
15.535	-0.095	-0.002	
15.540	0.145	-0.010	
15.545	-0.083	-0.008	
15.550	-0.164	-0.013	
15.555	0.117	-0.027	
15.560	0.044	-0.024	
15.565	-0.174	-0.016	
15.570	-0.002	-0.024	
15.575	0.105	-0.026	
15.580	-0.161	-0.021	
15.585	-0.106	-0.029	
15.590	0.146	-0.038	
15.595	-0.068	-0.030	
15.600	-0.158	-0.027	
15.605	0.105	-0.034	
15.610	0.047	-0.026	
15.615	-0.165	-0.016	
15.620	0.026	-0.020	
15.625	0.152	-0.016	
15.630	-0.150	-0.003	
15.635	-0.103	-0.008	
15.640	0.174	-0.017	
15.645	-0.048	-0.009	
15.650	-0.138	-0.006	
15.655	0.134	-0.013	
15.660	0.030	-0.006	
15.665	-0.187	-0.001	
15.670	0.017	-0.014	
15.675	0.169	-0.017	
15.680	-0.126	-0.004	
15.685	-0.058	-0.004	
15.690	0.236	-0.003	
15.695	-0.029	0.015	
15.700	-0.133	0.024	
15.705	0.192	0.019	
15.710	0.139	0.031	
15.715	-0.132	0.047	
15.720	0.076	0.044	
15.725	0.226	0.045	
15.730	-0.086	0.058	
15.735	-0.063	0.053	
15.740	0.183	0.040	
15.745	-0.042	0.038	
15.750	-0.148	0.028	
15.755	0.114	0.007	
15.760	0.044	0.002	
15.765	-0.167	0.000	
15.770	-0.005	-0.014	
15.775	0.119	-0.021	
15.780	-0.152	-0.017	
15.785	-0.101	-0.025	
15.790	0.140	-0.034	
15.795	-0.078	-0.028	
15.800	-0.161	-0.028	
15.805	0.197	-0.032	
15.810	0.197	-0.008	
15.815	-0.038	0.030	
15.820	0.319	0.064	
15.825	0.571	0.123	
15.830	0.267	0.209	
15.835	0.273	0.276	
15.840	0.319	0.311	
15.845	-0.170	0.304	
15.850	-0.388	0.226	
15.855	-0.275	0.090	
15.860	-0.321	-0.052	
15.865	-0.456	-0.176	
15.870	-0.292	-0.274	
15.875	-0.164	-0.328	
15.880	-0.287	-0.335	
15.885	-0.185	-0.320	
15.890	0.148	-0.277	
15.895	-0.029	-0.201	
15.900	-0.121	-0.128	
15.905	0.204	-0.071	
15.910	0.105	-0.012	
15.915	-0.135	0.032	
15.920	0.093	0.044	
15.925	0.252	0.056	
15.930	-0.089	0.075	
15.935	-0.028	0.073	
15.940	0.253	0.063	
15.945	-0.008	0.069	
15.950	-0.106	0.065	
15.955	0.192	0.049	
15.960	0.084	0.050	
15.965	-0.147	0.050	
15.970	0.072	0.035	
15.975	0.203	0.030	
15.980	-0.119	0.039	
15.985	-0.055	0.032	
15.990	0.208	0.021	
15.995	-0.038	0.027	
16.000	-0.115	0.026	
16.005	0.211	0.018	
16.010	0.114	0.030	
16.015	-0.133	0.044	
16.020	0.105	0.041	
16.025	0.276	0.048	
16.030	-0.080	0.070	
16.035	-0.037	0.071	
16.040	0.258	0.063	
16.045	0.015	0.071	
16.050	-0.077	0.071	
16.055	0.264	0.064	
16.060	0.125	0.075	
16.065	-0.121	0.085	
16.070	0.110	0.074	
16.075	0.250	0.071	
16.080	-0.069	0.081	
16.085	-0.016	0.076	
16.090	0.266	0.067	
16.095	-0.014	0.073	
16.100	-0.118	0.068	
16.105	0.134	0.048	
16.110	0.056	0.039	
16.115	-0.171	0.030	
16.120	-0.051	0.005	
16.125	0.030	-0.019	
16.130	-0.245	-0.039	
16.135	-0.208	-0.072	
16.140	-0.034	-0.107	
16.145	-0.211	-0.127	
16.150	-0.298	-0.148	
16.155	-0.115	-0.174	
16.160	-0.158	-0.186	
16.165	-0.333	-0.193	
16.170	-0.194	-0.208	
16.175	-0.104	-0.215	
16.180	-0.287	-0.210	
16.185	-0.246	-0.212	
16.190	-0.046	-0.212	
16.195	-0.193	-0.197	
16.200	-0.292	-0.187	
16.205	-0.098	-0.188	
16.210	-0.139	-0.183	
16.215	-0.298	-0.177	
16.220	-0.135	-0.182	
16.225	-0.023	-0.178	
16.230	-0.242	-0.163	
16.235	-0.193	-0.158	
16.240	0.032	-0.153	
16.245	-0.161	-0.136	
16.250	-0.242	-0.127	
16.255	-0.017	-0.130	
16.260	-0.066	-0.123	
16.265	-0.220	-0.114	
16.270	-0.048	-0.114	
16.275	0.085	-0.104	
16.280	-0.170	-0.082	
16.285	-0.136	-0.074	
16.290	0.096	-0.072	
16.295	-0.109	-0.061	
16.300	-0.193	-0.058	
16.305	0.081	-0.065	
16.310	0.024	-0.057	
16.315	-0.179	-0.045	
16.320	0.013	-0.045	
16.325	0.143	-0.038	
16.330	-0.152	-0.020	
16.335	-0.097	-0.019	
16.340	0.171	-0.024	
16.345	-0.086	-0.014	
16.350	-0.174	-0.015	
16.355	0.110	-0.027	
16.360	0.046	-0.024	
16.365	-0.168	-0.017	
16.370	0.015	-0.023	
16.375	0.148	-0.021	
16.380	-0.148	-0.009	
16.385	-0.098	-0.013	
16.390	0.171	-0.020	
16.395	-0.075	-0.012	
16.400	-0.159	-0.013	
16.405	0.127	-0.023	
16.410	0.044	-0.017	
16.415	-0.194	-0.010	
16.420	-0.006	-0.021	
16.425	0.136	-0.026	
16.430	-0.150	-0.018	
16.435	-0.101	-0.023	
16.440	0.168	-0.030	
16.445	-0.081	-0.021	
16.450	-0.158	-0.019	
16.455	0.142	-0.027	
16.460	0.049	-0.018	
16.465	-0.181	-0.007	
16.470	-0.002	-0.015	
16.475	0.134	-0.019	
16.480	-0.132	-0.011	
16.485	-0.100	-0.015	
16.490	0.148	-0.023	
16.495	-0.078	-0.017	
16.500	-0.164	-0.019	
16.505	0.111	-0.030	
16.510	0.047	-0.025	
16.515	-0.164	-0.016	
16.520	0.001	-0.022	
16.525	0.134	-0.022	
16.530	-0.155	-0.012	
16.535	-0.100	-0.018	
16.540	0.183	-0.025	
16.545	-0.054	-0.015	
16.550	-0.153	-0.010	
16.555	0.130	-0.017	
16.560	0.067	-0.009	
16.565	-0.152	0.002	
16.570	0.049	-0.002	
16.575	0.206	0.004	
16.580	-0.106	0.022	
16.585	-0.048	0.025	
16.590	0.233	0.023	
16.595	-0.022	0.036	
16.600	-0.141	0.038	
16.605	0.128	0.024	
16.610	0.070	0.021	
16.615	-0.167	0.021	
16.620	0.015	0.005	
16.625	0.131	-0.004	
16.630	-0.156	-0.002	
16.635	-0.113	-0.014	
16.640	0.137	-0.029	
16.645	-0.081	-0.027	
16.650	-0.174	-0.030	
16.655	0.081	-0.043	
16.660	0.017	-0.041	
16.665	-0.194	-0.036	
16.670	-0.037	-0.046	
16.675	0.128	-0.049	
16.680	-0.119	-0.036	
16.685	-0.003	-0.029	
16.690	0.385	-0.008	
16.695	0.220	0.049	
16.700	0.194	0.115	
16.705	0.644	0.184	
16.710	0.444	0.273	
16.715	-0.113	0.332	
16.720	-0.132	0.303	
16.725	-0.202	0.207	
16.730	-0.448	0.076	
16.735	-0.417	-0.073	
16.740	-0.234	-0.202	
16.745	-0.329	-0.285	
16.750	-0.339	-0.329	
16.755	-0.060	-0.340	
16.760	-0.040	-0.305	
16.765	-0.181	-0.247	
16.770	0.076	-0.187	
16.775	0.230	-0.114	
16.780	-0.089	-0.037	
16.785	-0.037	0.009	
16.790	0.258	0.034	
16.795	-0.003	0.062	
16.800	-0.121	0.071	
16.805	0.212	0.060	
16.810	0.160	0.065	
16.815	-0.109	0.075	
16.820	0.125	0.069	
16.825	0.267	0.073	
16.830	-0.055	0.089	
16.835	-0.008	0.087	
16.840	0.240	0.078	
16.845	-0.019	0.080	
16.850	-0.106	0.071	
16.855	0.226	0.053	
16.860	0.117	0.056	
16.865	-0.130	0.062	
16.870	0.104	0.052	
16.875	0.256	0.053	
16.880	-0.078	0.068	
16.885	-0.008	0.068	
16.890	0.301	0.064	
16.895	0.006	0.078	
16.900	-0.095	0.081	
16.905	0.249	0.070	
16.910	0.175	0.079	
16.915	-0.090	0.092	
16.920	0.154	0.088	
16.925	0.301	0.094	
16.930	-0.040	0.113	
16.935	0.032	0.113	
16.940	0.327	0.108	
16.945	0.076	0.121	
16.950	-0.061	0.124	
16.955	0.233	0.112	
16.960	0.154	0.111	
16.965	-0.101	0.110	
16.970	0.107	0.092	
16.975	0.226	0.082	
16.980	-0.112	0.082	
16.985	-0.077	0.064	
16.990	0.146	0.038	
16.995	-0.110	0.023	
17.000	-0.207	-0.002	
17.005	0.017	-0.037	
17.010	-0.048	-0.058	
17.015	-0.254	-0.072	
17.020	-0.138	-0.098	
17.025	-0.054	-0.120	
17.030	-0.280	-0.133	
17.035	-0.242	-0.154	
17.040	-0.051	-0.173	
17.045	-0.219	-0.177	
17.050	-0.294	-0.182	
17.055	-0.086	-0.192	
17.060	-0.130	-0.189	
17.065	-0.297	-0.182	
17.070	-0.153	-0.186	
17.075	-0.054	-0.184	
17.080	-0.246	-0.172	
17.085	-0.207	-0.169	
17.090	0.017	-0.166	
17.095	-0.177	-0.150	
17.100	-0.245	-0.142	
17.105	-0.002	-0.142	
17.110	-0.052	-0.130	
17.115	-0.242	-0.116	
17.120	-0.097	-0.117	
17.125	0.024	-0.115	
17.130	-0.203	-0.104	
17.135	-0.153	-0.104	
17.140	0.082	-0.105	
17.145	-0.126	-0.091	
17.150	-0.208	-0.085	
17.155	0.062	-0.088	
17.160	0.012	-0.077	
17.165	-0.193	-0.062	
17.170	-0.013	-0.061	
17.175	0.151	-0.052	
17.180	-0.156	-0.032	
17.185	-0.121	-0.030	
17.190	0.149	-0.034	
17.195	-0.071	-0.025	
17.200	-0.159	-0.023	
17.205	0.134	-0.030	
17.210	0.046	-0.020	
17.215	-0.171	-0.009	
17.220	0.029	-0.015	
17.225	0.131	-0.014	
17.230	-0.144	-0.004	
17.235	-0.097	-0.010	
17.240	0.145	-0.020	
17.245	-0.077	-0.016	
17.250	-0.167	-0.019	
17.255	0.116	-0.031	
17.260	0.081	-0.024	
17.265	-0.177	-0.012	
17.270	0.010	-0.016	
17.275	0.136	-0.016	
17.280	-0.165	-0.007	
17.285	-0.121	-0.017	
17.290	0.149	-0.030	
17.295	-0.069	-0.026	
17.300	-0.162	-0.026	
17.305	0.105	-0.035	
17.310	0.046	-0.028	
17.315	-0.181	-0.019	
17.320	-0.005	-0.026	
17.325	0.137	-0.027	
17.330	-0.142	-0.017	
17.335	-0.100	-0.020	
17.340	0.172	-0.026	
17.345	-0.072	-0.016	
17.350	-0.165	-0.014	
17.355	0.114	-0.024	
17.360	0.053	-0.019	
17.365	-0.158	-0.010	
17.370	0.021	-0.015	
17.375	0.152	-0.013	
17.380	-0.153	-0.002	
17.385	-0.119	-0.008	
17.390	0.154	-0.021	
17.395	-0.084	-0.019	
17.400	-0.170	-0.022	
17.405	0.137	-0.033	
17.410	0.059	-0.025	
17.415	-0.170	-0.012	
17.420	0.029	-0.016	
17.425	0.154	-0.012	
17.430	-0.144	0.001	
17.435	-0.092	-0.004	
17.440	0.192	-0.011	
17.445	-0.057	-0.002	
17.450	-0.148	-0.000	
17.455	0.125	-0.010	
17.460	0.061	-0.005	
17.465	-0.150	0.002	
17.470	0.073	-0.002	
17.475	0.230	0.007	
17.480	-0.101	0.030	
17.485	-0.077	0.033	
17.490	0.181	0.026	
17.495	-0.074	0.027	
17.500	-0.153	0.017	
17.505	0.142	-0.002	
17.510	0.052	-0.002	
17.515	-0.176	0.001	
17.520	-0.013	-0.012	
17.525	0.140	-0.019	
17.530	-0.156	-0.014	
17.535	-0.121	-0.022	
17.540	0.099	-0.036	
17.545	-0.092	-0.037	
17.550	-0.177	-0.043	
17.555	0.056	-0.056	
17.560	0.003	-0.055	
17.565	-0.185	-0.050	
17.570	0.009	-0.055	
17.575	0.194	-0.046	
17.580	-0.032	-0.016	
17.585	0.130	0.013	
17.590	0.553	0.061	
17.595	0.435	0.151	
17.600	0.336	0.248	
17.605	0.469	0.323	
17.610	0.053	0.361	
17.615	-0.339	0.324	
17.620	-0.338	0.202	
17.625	-0.310	0.043	
17.630	-0.472	-0.109	
17.635	-0.394	-0.240	
17.640	-0.181	-0.326	
17.645	-0.232	-0.354	
17.650	-0.245	-0.344	
17.655	0.039	-0.307	
17.660	0.049	-0.237	
17.665	-0.144	-0.160	
17.670	0.062	-0.100	
17.675	0.221	-0.043	
17.680	-0.106	0.011	
17.685	-0.040	0.035	
17.690	0.288	0.044	
17.695	0.018	0.067	
17.700	-0.086	0.076	
17.705	0.243	0.071	
17.710	0.180	0.082	
17.715	-0.092	0.096	
17.720	0.082	0.089	
17.725	0.238	0.083	
17.730	-0.086	0.087	
17.735	-0.057	0.073	
17.740	0.235	0.054	
17.745	-0.002	0.054	
17.750	-0.118	0.049	
17.755	0.175	0.035	
17.760	0.124	0.038	
17.765	-0.112	0.047	
17.770	0.125	0.044	
17.775	0.273	0.053	
17.780	-0.069	0.076	
17.785	-0.011	0.078	
17.790	0.295	0.075	
17.795	0.006	0.086	
17.800	-0.103	0.085	
17.805	0.256	0.072	
17.810	0.186	0.079	
17.815	-0.086	0.093	
17.820	0.168	0.092	
17.825	0.302	0.099	
17.830	-0.066	0.117	
17.835	-0.037	0.111	
17.840	0.266	0.093	
17.845	0.020	0.091	
17.850	-0.078	0.083	
17.855	0.258	0.070	
17.860	0.151	0.078	
17.865	-0.126	0.087	
17.870	0.067	0.074	
17.875	0.162	0.062	
17.880	-0.150	0.056	
17.885	-0.122	0.030	
17.890	0.101	-0.001	
17.895	-0.122	-0.019	
17.900	-0.237	-0.041	
17.905	-0.054	-0.075	
17.910	-0.126	-0.099	
17.915	-0.286	-0.120	
17.920	-0.158	-0.148	
17.925	-0.084	-0.166	
17.930	-0.283	-0.172	
17.935	-0.246	-0.185	
17.940	-0.074	-0.196	
17.945	-0.217	-0.194	
17.950	-0.287	-0.193	
17.955	-0.097	-0.199	
17.960	-0.119	-0.192	
17.965	-0.281	-0.182	
17.970	-0.138	-0.181	
17.975	-0.055	-0.176	
17.980	-0.257	-0.164	
17.985	-0.210	-0.164	
17.990	0.003	-0.164	
17.995	-0.164	-0.151	
18.000	-0.254	-0.144	
18.005	-0.042	-0.146	
18.010	-0.075	-0.140	
18.015	-0.240	-0.131	
18.020	-0.078	-0.131	
18.025	0.041	-0.124	
18.030	-0.185	-0.106	
18.035	-0.142	-0.099	
18.040	0.076	-0.096	
18.045	-0.119	-0.081	
18.050	-0.203	-0.076	
18.055	0.032	-0.082	
18.060	-0.008	-0.077	
18.065	-0.190	-0.068	
18.070	-0.013	-0.070	
18.075	0.122	-0.062	
18.080	-0.158	-0.043	
18.085	-0.100	-0.040	
18.090	0.151	-0.040	
18.095	-0.086	-0.027	
18.100	-0.177	-0.025	
18.105	0.111	-0.035	
18.110	0.046	-0.029	
18.115	-0.181	-0.020	
18.120	-0.006	-0.026	
18.125	0.119	-0.028	
18.130	-0.159	-0.021	
18.135	-0.104	-0.027	
18.140	0.195	-0.033	
18.145	-0.051	-0.019	
18.150	-0.165	-0.012	
18.155	0.091	-0.020	
18.160	0.041	-0.017	
18.165	-0.179	-0.013	
18.170	0.003	-0.023	
18.175	0.134	-0.026	
18.180	-0.145	-0.016	
18.185	-0.107	-0.021	
18.190	0.137	-0.030	
18.195	-0.089	-0.025	
18.200	-0.161	-0.027	
18.205	0.136	-0.036	
18.210	0.021	-0.028	
18.215	-0.179	-0.018	
18.220	0.017	-0.025	
18.225	0.149	-0.024	
18.230	-0.142	-0.011	
18.235	-0.087	-0.013	
18.240	0.201	-0.017	
18.245	-0.060	-0.004	
18.250	-0.159	-0.000	
18.255	0.110	-0.011	
18.260	0.035	-0.010	
18.265	-0.174	-0.007	
18.270	-0.002	-0.019	
18.275	0.149	-0.023	
18.280	-0.152	-0.014	
18.285	-0.115	-0.019	
18.290	0.160	-0.028	
18.295	-0.066	-0.021	
18.300	-0.150	-0.020	
18.305	0.137	-0.026	
18.310	0.068	-0.015	
18.315	-0.171	-0.002	
18.320	0.010	-0.008	
18.325	0.162	-0.008	
18.330	-0.119	0.003	
18.335	-0.084	0.000	
18.340	0.198	-0.005	
18.345	-0.075	0.004	
18.350	-0.167	0.002	
18.355	0.160	-0.010	
18.360	0.107	-0.003	
18.365	-0.132	0.013	
18.370	0.067	0.014	
18.375	0.192	0.021	
18.380	-0.119	0.036	
18.385	-0.078	0.031	
18.390	0.175	0.018	
18.395	-0.042	0.019	
18.400	-0.136	0.014	
18.405	0.181	0.003	
18.410	0.094	0.012	
18.415	-0.167	0.023	
18.420	-0.013	0.013	
18.425	0.104	0.002	
18.430	-0.165	-0.003	
18.435	-0.141	-0.022	
18.440	0.124	-0.042	
18.445	-0.095	-0.043	
18.450	-0.167	-0.047	
18.455	0.127	-0.054	
18.460	0.023	-0.042	
18.465	-0.203	-0.030	
18.470	-0.031	-0.038	
18.475	0.159	-0.040	
18.480	-0.095	-0.024	
18.485	0.084	-0.010	
18.490	0.499	0.025	
18.495	0.382	0.106	
18.500	0.331	0.199	
18.505	0.692	0.288	
18.510	0.318	0.373	
18.515	-0.251	0.395	
18.520	-0.292	0.311	
18.525	-0.309	0.160	
18.530	-0.494	-0.009	
18.535	-0.428	-0.170	
18.540	-0.229	-0.290	
18.545	-0.291	-0.350	
18.550	-0.278	-0.366	
18.555	0.041	-0.343	
18.560	0.090	-0.273	
18.565	-0.165	-0.186	
18.570	0.024	-0.119	
18.575	0.186	-0.061	
18.580	-0.097	-0.007	
18.585	-0.034	0.019	
18.590	0.278	0.033	
18.595	0.003	0.058	
18.600	-0.113	0.068	
18.605	0.209	0.059	
18.610	0.145	0.065	
18.615	-0.112	0.074	
18.620	0.127	0.066	
18.625	0.244	0.068	
18.630	-0.097	0.081	
18.635	-0.038	0.072	
18.640	0.261	0.059	
18.645	-0.009	0.063	
18.650	-0.112	0.060	
18.655	0.209	0.046	
18.660	0.143	0.051	
18.665	-0.110	0.062	
18.670	0.137	0.059	
18.675	0.258	0.066	
18.680	-0.100	0.083	
18.685	-0.037	0.077	
18.690	0.264	0.064	
18.695	0.027	0.070	
18.700	-0.106	0.069	
18.705	0.223	0.058	
18.710	0.177	0.066	
18.715	-0.083	0.080	
18.720	0.175	0.081	
18.725	0.324	0.094	
18.730	-0.031	0.119	
18.735	0.007	0.122	
18.740	0.292	0.114	
18.745	0.035	0.118	
18.750	-0.075	0.111	
18.755	0.269	0.094	
18.760	0.183	0.098	
18.765	-0.101	0.107	
18.770	0.105	0.095	
18.775	0.212	0.087	
18.780	-0.104	0.086	
18.785	-0.095	0.066	
18.790	0.124	0.036	
18.795	-0.130	0.015	
18.800	-0.223	-0.014	
18.805	-0.019	-0.053	
18.810	-0.110	-0.080	
18.815	-0.292	-0.103	
18.820	-0.156	-0.134	
18.825	-0.078	-0.157	
18.830	-0.271	-0.165	
18.835	-0.239	-0.179	
18.840	-0.081	-0.191	
18.845	-0.216	-0.190	
18.850	-0.301	-0.192	
18.855	-0.100	-0.200	
18.860	-0.127	-0.196	
18.865	-0.284	-0.187	
18.870	-0.135	-0.187	
18.875	-0.043	-0.180	
18.880	-0.260	-0.165	
18.885	-0.225	-0.164	
18.890	-0.025	-0.167	
18.895	-0.187	-0.159	
18.900	-0.260	-0.156	
18.905	-0.038	-0.160	
18.910	-0.083	-0.152	
18.915	-0.262	-0.141	
18.920	-0.106	-0.143	
18.925	0.009	-0.139	
18.930	-0.196	-0.124	
18.935	-0.135	-0.118	
18.940	0.084	-0.111	
18.945	-0.121	-0.091	
18.950	-0.197	-0.081	
18.955	0.072	-0.081	
18.960	0.015	-0.068	
18.965	-0.187	-0.053	
18.970	-0.014	-0.053	
18.975	0.124	-0.048	
18.980	-0.147	-0.032	
18.985	-0.113	-0.032	
18.990	0.136	-0.037	
18.995	-0.083	-0.029	
19.000	-0.171	-0.029	
19.005	0.108	-0.038	
19.010	0.050	-0.031	
19.015	-0.202	-0.022	
19.020	-0.035	-0.031	
19.025	0.125	-0.037	
19.030	-0.139	-0.029	
19.035	-0.113	-0.033	
19.040	0.128	-0.039	
19.045	-0.078	-0.032	
19.050	-0.165	-0.032	
19.055	0.110	-0.039	
19.060	0.062	-0.031	
19.065	-0.174	-0.018	
19.070	-0.020	-0.022	
19.075	0.125	-0.025	
19.080	-0.145	-0.017	
19.085	-0.097	-0.023	
19.090	0.192	-0.028	
19.095	-0.055	-0.014	
19.100	-0.168	-0.009	
19.105	0.076	-0.020	
19.110	0.030	-0.020	
19.115	-0.181	-0.019	
19.120	-0.020	-0.031	
19.125	0.116	-0.036	
19.130	-0.155	-0.029	
19.135	-0.106	-0.034	
19.140	0.157	-0.040	
19.145	-0.080	-0.030	
19.150	-0.153	-0.026	
19.155	0.134	-0.031	
19.160	0.076	-0.019	
19.165	-0.155	-0.004	
19.170	-0.008	-0.006	
19.175	0.127	-0.009	
19.180	-0.145	-0.004	
19.185	-0.101	-0.013	
19.190	0.194	-0.022	
19.195	-0.075	-0.013	
19.200	-0.173	-0.012	
19.205	0.114	-0.023	
19.210	0.024	-0.021	
19.215	-0.179	-0.017	
19.220	0.007	-0.027	
19.225	0.139	-0.028	
19.230	-0.147	-0.017	
19.235	-0.106	-0.020	
19.240	0.160	-0.027	
19.245	-0.074	-0.019	
19.250	-0.170	-0.019	
19.255	0.107	-0.030	
19.260	0.075	-0.024	
19.265	-0.165	-0.012	
19.270	0.018	-0.015	
19.275	0.180	-0.012	
19.280	-0.121	0.004	
19.285	-0.084	0.004	
19.290	0.192	-0.001	
19.295	-0.023	0.010	
19.300	-0.141	0.013	
19.305	0.169	0.006	
19.310	0.110	0.016	
19.315	-0.147	0.029	
19.320	0.036	0.023	
19.325	0.174	0.021	
19.330	-0.115	0.028	
19.335	-0.055	0.021	
19.340	0.181	0.012	
19.345	-0.090	0.015	
19.350	-0.174	0.006	
19.355	0.061	-0.017	
19.360	0.012	-0.027	
19.365	-0.197	-0.032	
19.370	-0.037	-0.048	
19.375	0.097	-0.055	
19.380	-0.165	-0.049	
19.385	-0.119	-0.053	
19.390	0.111	-0.059	
19.395	-0.101	-0.051	
19.400	-0.155	-0.049	
19.405	0.186	-0.049	
19.410	0.227	-0.020	
19.415	0.046	0.030	
19.420	0.452	0.085	
19.425	0.713	0.172	
19.430	0.406	0.289	
19.435	0.288	0.377	
19.440	0.197	0.405	
19.445	-0.260	0.363	
19.450	-0.459	0.240	
19.455	-0.350	0.064	
19.460	-0.373	-0.104	
19.465	-0.485	-0.241	
19.470	-0.292	-0.339	
19.475	-0.142	-0.381	
19.480	-0.255	-0.369	
19.485	-0.147	-0.332	
19.490	0.178	-0.270	
19.495	-0.006	-0.180	
19.500	-0.118	-0.101	
19.505	0.195	-0.045	
19.510	0.156	0.010	
19.515	-0.104	0.054	
19.520	0.120	0.069	
19.525	0.249	0.081	
19.530	-0.066	0.098	
19.535	-0.017	0.092	
19.540	0.250	0.080	
19.545	-0.002	0.081	
19.550	-0.113	0.073	
19.555	0.201	0.054	
19.560	0.183	0.057	
19.565	-0.118	0.068	
19.570	0.079	0.063	
19.575	0.230	0.061	
19.580	-0.086	0.070	
19.585	-0.032	0.062	
19.590	0.273	0.053	
19.595	0.020	0.063	
19.600	-0.080	0.067	
19.605	0.238	0.061	
19.610	0.169	0.073	
19.615	-0.095	0.088	
19.620	0.125	0.084	
19.625	0.285	0.086	
19.630	-0.061	0.101	
19.635	-0.002	0.097	
19.640	0.295	0.088	
19.645	0.068	0.097	
19.650	-0.060	0.101	
19.655	0.287	0.095	
19.660	0.233	0.109	
19.665	-0.074	0.127	
19.670	0.152	0.124	
19.675	0.301	0.124	
19.680	-0.043	0.134	
19.685	-0.002	0.124	
19.690	0.282	0.107	
19.695	0.020	0.106	
19.700	-0.113	0.095	
19.705	0.160	0.070	
19.710	0.084	0.059	
19.715	-0.179	0.049	
19.720	-0.054	0.020	
19.725	0.038	-0.009	
19.730	-0.222	-0.031	
19.735	-0.202	-0.064	
19.740	-0.003	-0.098	
19.745	-0.190	-0.115	
19.750	-0.292	-0.133	
19.755	-0.089	-0.157	
19.760	-0.135	-0.168	
19.765	-0.332	-0.174	
19.770	-0.184	-0.190	
19.775	-0.075	-0.199	
19.780	-0.257	-0.194	
19.785	-0.237	-0.193	
19.790	-0.078	-0.195	
19.795	-0.210	-0.188	
19.800	-0.292	-0.186	
19.805	-0.087	-0.191	
19.810	-0.118	-0.186	
19.815	-0.277	-0.176	
19.820	-0.135	-0.176	
19.825	-0.019	-0.170	
19.830	-0.225	-0.154	
19.835	-0.173	-0.147	
19.840	0.030	-0.141	
19.845	-0.148	-0.125	
19.850	-0.223	-0.116	
19.855	0.035	-0.116	
19.860	-0.038	-0.104	
19.865	-0.217	-0.090	
19.870	-0.060	-0.092	
19.875	0.073	-0.088	
19.880	-0.188	-0.074	
19.885	-0.147	-0.075	
19.890	0.090	-0.079	
19.895	-0.101	-0.070	
19.900	-0.184	-0.066	
19.905	0.090	-0.070	
19.910	0.030	-0.057	
19.915	-0.177	-0.042	
19.920	-0.003	-0.042	
19.925	0.157	-0.035	
19.930	-0.129	-0.017	
19.935	-0.090	-0.014	
19.940	0.180	-0.016	
19.945	-0.048	-0.003	
19.950	-0.144	0.000	
19.955	0.124	-0.007	
19.960	0.024	-0.004	
19.965	-0.194	-0.003	
19.970	-0.002	-0.018	
19.975	0.127	-0.026	
19.980	-0.159	-0.021	
19.985	-0.116	-0.029	
19.990	0.137	-0.039	
19.995	-0.074	-0.033	
20.000	-0.164	-0.032	
20.005	0.108	-0.039	
20.010	0.055	-0.030	
20.015	-0.171	-0.018	
20.020	-0.016	-0.023	
20.025	0.139	-0.024	
20.030	-0.132	-0.014	
20.035	-0.103	-0.017	
20.040	0.145	-0.024	
20.045	-0.095	-0.019	
20.050	-0.174	-0.023	
20.055	0.068	-0.038	
20.060	0.038	-0.038	
20.065	-0.170	-0.033	
20.070	-0.006	-0.038	
20.075	0.142	-0.036	
20.080	-0.132	-0.021	
20.085	-0.106	-0.021	
20.090	0.136	-0.026	
20.095	-0.072	-0.020	
20.100	-0.164	-0.021	
20.105	0.130	-0.030	
20.110	0.068	-0.021	
20.115	-0.184	-0.009	
20.120	-0.028	-0.017	
20.125	0.156	-0.021	
20.130	-0.122	-0.012	
20.135	-0.098	-0.014	
20.140	0.180	-0.019	
20.145	-0.064	-0.008	
20.150	-0.164	-0.007	
20.155	0.091	-0.019	
20.160	0.041	-0.019	
20.165	-0.179	-0.015	
20.170	0.001	-0.025	
20.175	0.162	-0.026	
20.180	-0.135	-0.013	
20.185	-0.095	-0.014	
20.190	0.157	-0.019	
20.195	-0.080	-0.012	
20.200	-0.184	-0.015	
20.205	0.117	-0.029	
20.210	0.072	-0.024	
20.215	-0.155	-0.013	
20.220	0.061	-0.013	
20.225	0.218	-0.002	
20.230	-0.115	0.021	
20.235	-0.075	0.025	
20.240	0.198	0.019	
20.245	-0.048	0.025	
20.250	-0.152	0.021	
20.255	0.143	0.006	
20.260	0.065	0.007	
20.265	-0.158	0.011	
20.270	0.023	0.001	
20.275	0.146	-0.003	
20.280	-0.152	0.003	
20.285	-0.130	-0.007	
20.290	0.107	-0.025	
20.295	-0.101	-0.030	
20.300	-0.199	-0.041	
20.305	0.050	-0.059	
20.310	0.000	-0.062	
20.315	-0.202	-0.059	
20.320	-0.032	-0.067	
20.325	0.137	-0.064	
20.330	-0.121	-0.045	
20.335	-0.057	-0.035	
20.340	0.319	-0.020	
20.345	0.160	0.026	
20.350	0.124	0.078	
20.355	0.599	0.136	
20.360	0.634	0.230	
20.365	0.171	0.327	
20.370	0.072	0.363	
20.375	-0.115	0.323	
20.380	-0.453	0.215	
20.385	-0.475	0.054	
20.390	-0.306	-0.114	
20.395	-0.379	-0.244	
20.400	-0.405	-0.330	
20.405	-0.167	-0.374	
20.410	-0.115	-0.366	
20.415	-0.214	-0.323	
20.420	0.003	-0.267	
20.425	0.195	-0.191	
20.430	-0.095	-0.104	
20.435	-0.025	-0.043	
20.440	0.249	-0.001	
20.445	0.003	0.042	
20.450	-0.112	0.062	
20.455	0.214	0.060	
20.460	0.169	0.071	
20.465	-0.087	0.084	
20.470	0.104	0.080	
20.475	0.241	0.079	
20.480	-0.090	0.088	
20.485	-0.058	0.075	
20.490	0.293	0.060	
20.495	0.035	0.067	
20.500	-0.110	0.070	
20.505	0.198	0.059	
20.510	0.162	0.063	
20.515	-0.122	0.072	
20.520	0.099	0.064	
20.525	0.259	0.064	
20.530	-0.081	0.076	
20.535	-0.042	0.071	
20.540	0.272	0.060	
20.545	0.064	0.070	
20.550	-0.080	0.077	
20.555	0.218	0.071	
20.560	0.183	0.081	
20.565	-0.097	0.093	
20.570	0.119	0.087	
20.575	0.263	0.086	
20.580	-0.048	0.098	
20.585	0.026	0.094	
20.590	0.333	0.091	
20.595	0.085	0.108	
20.600	-0.060	0.117	
20.605	0.292	0.112	
20.610	0.253	0.124	
20.615	-0.086	0.140	
20.620	0.122	0.132	
20.625	0.215	0.121	
20.630	-0.098	0.114	
20.635	-0.072	0.087	
20.640	0.178	0.055	
20.645	-0.066	0.039	
20.650	-0.193	0.017	
20.655	-0.011	-0.018	
20.660	-0.080	-0.046	
20.665	-0.260	-0.071	
20.670	-0.130	-0.104	
20.675	-0.052	-0.127	
20.680	-0.274	-0.139	
20.685	-0.255	-0.158	
20.690	-0.077	-0.178	
20.695	-0.228	-0.185	
20.700	-0.317	-0.193	
20.705	-0.112	-0.206	
20.710	-0.141	-0.206	
20.715	-0.306	-0.200	
20.720	-0.162	-0.203	
20.725	-0.064	-0.198	
20.730	-0.258	-0.185	
20.735	-0.220	-0.181	
20.740	-0.045	-0.180	
20.745	-0.207	-0.170	
20.750	-0.281	-0.168	
20.755	-0.057	-0.174	
20.760	-0.081	-0.167	
20.765	-0.257	-0.155	
20.770	-0.113	-0.153	
20.775	0.021	-0.145	
20.780	-0.211	-0.127	
20.785	-0.173	-0.122	
20.790	0.050	-0.120	
20.795	-0.135	-0.106	
20.800	-0.228	-0.101	
20.805	0.003	-0.107	
20.810	-0.011	-0.100	
20.815	-0.197	-0.089	
20.820	-0.035	-0.087	
20.825	0.097	-0.078	
20.830	-0.161	-0.059	
20.835	-0.130	-0.055	
20.840	0.131	-0.057	
20.845	-0.084	-0.045	
20.850	-0.176	-0.040	
20.855	0.119	-0.045	
20.860	0.055	-0.034	
20.865	-0.181	-0.020	
20.870	-0.008	-0.024	
20.875	0.148	-0.024	
20.880	-0.144	-0.013	
20.885	-0.115	-0.017	
20.890	0.162	-0.025	
20.895	-0.046	-0.017	
20.900	-0.164	-0.015	
20.905	0.108	-0.023	
20.910	0.047	-0.018	
20.915	-0.176	-0.011	
20.920	-0.034	-0.021	
20.925	0.101	-0.029	
20.930	-0.164	-0.027	
20.935	-0.115	-0.037	
20.940	0.145	-0.047	
20.945	-0.077	-0.038	
20.950	-0.167	-0.035	
20.955	0.105	-0.041	
20.960	0.068	-0.031	
20.965	-0.182	-0.018	
20.970	-0.025	-0.023	
20.975	0.146	-0.025	
20.980	-0.127	-0.015	
20.985	-0.098	-0.017	
20.990	0.175	-0.021	
20.995	-0.057	-0.011	
21.000	-0.185	-0.009	
21.005	0.091	-0.022	
21.010	0.058	-0.022	
21.015	-0.171	-0.016	
21.020	-0.020	-0.024	
21.025	0.139	-0.027	
21.030	-0.155	-0.019	
21.035	-0.113	-0.024	
21.040	0.165	-0.033	
21.045	-0.060	-0.023	
21.050	-0.174	-0.021	
21.055	0.111	-0.029	
21.060	0.087	-0.022	
21.065	-0.152	-0.008	
21.070	0.026	-0.008	
21.075	0.157	-0.005	
21.080	-0.133	0.008	
21.085	-0.100	0.003	
21.090	0.177	-0.007	
21.095	-0.035	-0.001	
21.100	-0.164	-0.000	
21.105	0.107	-0.012	
21.110	0.084	-0.009	
21.115	-0.155	-0.001	
21.120	0.038	-0.005	
21.125	0.194	-0.001	
21.130	-0.109	0.016	
21.135	-0.093	0.016	
21.140	0.189	0.008	
21.145	-0.035	0.014	
21.150	-0.156	0.013	
21.155	0.085	-0.002	
21.160	0.018	-0.008	
21.165	-0.176	-0.012	
21.170	-0.019	-0.028	
21.175	0.160	-0.033	
21.180	-0.148	-0.022	
21.185	-0.139	-0.026	
21.190	0.104	-0.038	
21.195	-0.080	-0.037	
21.200	-0.185	-0.041	
21.205	0.101	-0.052	
21.210	0.117	-0.041	
21.215	-0.100	-0.017	
21.220	0.206	0.003	
21.225	0.501	0.050	
21.230	0.282	0.133	
21.235	0.385	0.216	
21.240	0.542	0.290	
21.245	-0.013	0.341	
21.250	-0.326	0.311	
21.255	-0.283	0.196	
21.260	-0.332	0.046	
21.265	-0.478	-0.101	
21.270	-0.341	-0.231	
21.275	-0.203	-0.314	
21.280	-0.320	-0.347	
21.285	-0.223	-0.348	
21.290	0.093	-0.315	
21.295	-0.046	-0.245	
21.300	-0.122	-0.171	
21.305	0.201	-0.107	
21.310	0.183	-0.034	
21.315	-0.121	0.028	
21.320	0.088	0.055	
21.325	0.281	0.074	
21.330	-0.057	0.097	
21.335	0.001	0.098	
21.340	0.311	0.092	
21.345	0.026	0.102	
21.350	-0.124	0.100	
21.355	0.191	0.078	
21.360	0.166	0.073	
21.365	-0.113	0.076	
21.370	0.078	0.064	
21.375	0.259	0.060	
21.380	-0.060	0.072	
21.385	-0.035	0.069	
21.390	0.278	0.062	
21.395	0.033	0.073	
21.400	-0.100	0.076	
21.405	0.218	0.066	
21.410	0.169	0.072	
21.415	-0.110	0.082	
21.420	0.119	0.075	
21.425	0.288	0.077	
21.430	-0.029	0.095	
21.435	0.007	0.097	
21.440	0.301	0.093	
21.445	0.055	0.105	
21.450	-0.089	0.106	
21.455	0.250	0.093	
21.460	0.227	0.099	
21.465	-0.060	0.113	
21.470	0.152	0.111	
21.475	0.316	0.116	
21.480	-0.031	0.131	
21.485	0.007	0.127	
21.490	0.293	0.114	
21.495	0.036	0.116	
21.500	-0.107	0.107	
21.505	0.189	0.084	
21.510	0.114	0.074	
21.515	-0.167	0.068	
21.520	-0.037	0.040	
21.525	0.075	0.011	
21.530	-0.196	-0.009	
21.535	-0.208	-0.041	
21.540	-0.026	-0.079	
21.545	-0.190	-0.104	
21.550	-0.287	-0.129	
21.555	-0.104	-0.157	
21.560	-0.135	-0.172	
21.565	-0.313	-0.179	
21.570	-0.194	-0.193	
21.575	-0.110	-0.202	
21.580	-0.283	-0.201	
21.585	-0.271	-0.208	
21.590	-0.090	-0.215	
21.595	-0.219	-0.209	
21.600	-0.301	-0.206	
21.605	-0.087	-0.209	
21.610	-0.101	-0.198	
21.615	-0.286	-0.183	
21.620	-0.153	-0.180	
21.625	-0.028	-0.174	
21.630	-0.228	-0.159	
21.635	-0.214	-0.154	
21.640	-0.022	-0.155	
21.645	-0.165	-0.146	
21.650	-0.239	-0.142	
21.655	-0.002	-0.144	
21.660	-0.028	-0.130	
21.665	-0.223	-0.113	
21.670	-0.077	-0.109	
21.675	0.062	-0.101	
21.680	-0.184	-0.085	
21.685	-0.153	-0.083	
21.690	0.070	-0.085	
21.695	-0.109	-0.077	
21.700	-0.194	-0.074	
21.705	0.085	-0.078	
21.710	0.027	-0.065	
21.715	-0.185	-0.049	
21.720	-0.013	-0.049	
21.725	0.143	-0.042	
21.730	-0.126	-0.025	
21.735	-0.104	-0.021	
21.740	0.154	-0.024	
21.745	-0.069	-0.015	
21.750	-0.165	-0.014	
21.755	0.113	-0.025	
21.760	0.075	-0.019	
21.765	-0.158	-0.008	
21.770	-0.028	-0.013	
21.775	0.146	-0.017	
21.780	-0.129	-0.009	
21.785	-0.109	-0.014	
21.790	0.136	-0.023	
21.795	-0.087	-0.020	
21.800	-0.187	-0.025	
21.805	0.116	-0.039	
21.810	0.084	-0.033	
21.815	-0.171	-0.018	
21.820	0.001	-0.020	
21.825	0.146	-0.018	
21.830	-0.144	-0.007	
21.835	-0.095	-0.011	
21.840	0.162	-0.019	
21.845	-0.064	-0.012	
21.850	-0.170	-0.012	
21.855	0.101	-0.024	
21.860	0.052	-0.022	
21.865	-0.170	-0.015	
21.870	-0.017	-0.023	
21.875	0.157	-0.025	
21.880	-0.132	-0.014	
21.885	-0.121	-0.016	
21.890	0.143	-0.025	
21.895	-0.069	-0.020	
21.900	-0.181	-0.022	
21.905	0.101	-0.034	
21.910	0.070	-0.030	
21.915	-0.167	-0.019	
21.920	0.009	-0.021	
21.925	0.166	-0.018	
21.930	-0.138	-0.004	
21.935	-0.106	-0.006	
21.940	0.172	-0.014	
21.945	-0.031	-0.006	
21.950	-0.142	-0.002	
21.955	0.154	-0.007	
21.960	0.097	0.003	
21.965	-0.161	0.017	
21.970	0.023	0.011	
21.975	0.238	0.012	
21.980	-0.092	0.029	
21.985	-0.090	0.030	
21.990	0.175	0.021	
21.995	-0.040	0.022	
22.000	-0.147	0.017	
22.005	0.120	0.001	
22.010	0.067	0.001	
22.015	-0.184	0.003	
22.020	-0.028	-0.011	
22.025	0.136	-0.021	
22.030	-0.150	-0.017	
22.035	-0.147	-0.027	
22.040	0.119	-0.042	
22.045	-0.074	-0.040	
22.050	-0.187	-0.042	
22.055	0.076	-0.052	
22.060	0.052	-0.047	
22.065	-0.162	-0.035	
22.070	0.062	-0.032	
22.075	0.287	-0.013	
22.080	-0.006	0.027	
22.085	0.127	0.061	
22.090	0.586	0.105	
22.095	0.461	0.188	
22.100	0.160	0.271	
22.105	0.227	0.309	
22.110	-0.100	0.294	
22.115	-0.423	0.214	
22.120	-0.367	0.075	
22.125	-0.257	-0.073	
22.130	-0.408	-0.191	
22.135	-0.359	-0.280	
22.140	-0.133	-0.331	
22.145	-0.194	-0.332	
22.150	-0.231	-0.306	
22.155	0.096	-0.263	
22.160	0.114	-0.190	
22.165	-0.121	-0.109	
22.170	0.084	-0.051	
22.175	0.273	0.001	
22.180	-0.069	0.053	
22.185	-0.040	0.073	
22.190	0.270	0.075	
22.195	0.032	0.086	
22.200	-0.121	0.086	
22.205	0.186	0.069	
22.210	0.163	0.067	
22.215	-0.101	0.073	
22.220	0.117	0.066	
22.225	0.263	0.068	
22.230	-0.075	0.083	
22.235	-0.049	0.078	
22.240	0.281	0.066	
22.245	0.036	0.073	
22.250	-0.109	0.075	
22.255	0.188	0.062	
22.260	0.174	0.064	
22.265	-0.119	0.073	
22.270	0.079	0.064	
22.275	0.272	0.063	
22.280	-0.051	0.077	
22.285	-0.035	0.076	
22.290	0.293	0.069	
22.295	0.085	0.082	
22.300	-0.081	0.091	
22.305	0.241	0.087	
22.310	0.208	0.096	
22.315	-0.084	0.110	
22.320	0.143	0.104	
22.325	0.327	0.107	
22.330	0.001	0.125	
22.335	0.015	0.127	
22.340	0.311	0.120	
22.345	0.084	0.128	
22.350	-0.078	0.127	
22.355	0.232	0.110	
22.360	0.178	0.108	
22.365	-0.115	0.108	
22.370	0.055	0.089	
22.375	0.198	0.072	
22.380	-0.142	0.064	
22.385	-0.142	0.038	
22.390	0.084	0.003	
22.395	-0.121	-0.020	
22.400	-0.234	-0.045	
22.405	-0.075	-0.080	
22.410	-0.130	-0.106	
22.415	-0.304	-0.129	
22.420	-0.182	-0.159	
22.425	-0.081	-0.179	
22.430	-0.271	-0.184	
22.435	-0.254	-0.193	
22.440	-0.071	-0.201	
22.445	-0.223	-0.196	
22.450	-0.310	-0.196	
22.455	-0.119	-0.204	
22.460	-0.141	-0.202	
22.465	-0.300	-0.196	
22.470	-0.156	-0.199	
22.475	-0.045	-0.193	
22.480	-0.231	-0.177	
22.485	-0.217	-0.170	
22.490	-0.013	-0.166	
22.495	-0.162	-0.152	
22.500	-0.246	-0.144	
22.505	-0.029	-0.145	
22.510	-0.031	-0.134	
22.515	-0.228	-0.119	
22.520	-0.090	-0.116	
22.525	0.039	-0.110	
22.530	-0.205	-0.097	
22.535	-0.184	-0.098	
22.540	0.047	-0.105	
22.545	-0.109	-0.098	
22.550	-0.197	-0.093	
22.555	0.007	-0.097	
22.560	-0.009	-0.090	
22.565	-0.196	-0.079	
22.570	-0.023	-0.079	
22.575	0.142	-0.069	
22.580	-0.145	-0.046	
22.585	-0.124	-0.039	
22.590	0.148	-0.039	
22.595	-0.055	-0.027	
22.600	-0.165	-0.022	
22.605	0.119	-0.028	
22.610	0.108	-0.017	
22.615	-0.167	-0.001	
22.620	-0.009	-0.004	
22.625	0.143	-0.006	
22.630	-0.145	-0.000	
22.635	-0.110	-0.009	
22.640	0.151	-0.022	
22.645	-0.069	-0.018	
22.650	-0.170	-0.020	
22.655	0.124	-0.031	
22.660	0.052	-0.024	
22.665	-0.196	-0.015	
22.670	-0.031	-0.025	
22.675	0.137	-0.031	
22.680	-0.147	-0.023	
22.685	-0.119	-0.028	
22.690	0.160	-0.036	
22.695	-0.060	-0.026	
22.700	-0.173	-0.023	
22.705	0.099	-0.031	
22.710	0.058	-0.026	
22.715	-0.176	-0.016	
22.720	-0.011	-0.023	
22.725	0.157	-0.024	
22.730	-0.142	-0.012	
22.735	-0.127	-0.016	
22.740	0.136	-0.027	
22.745	-0.063	-0.024	
22.750	-0.162	-0.025	
22.755	0.110	-0.033	
22.760	0.061	-0.026	
22.765	-0.177	-0.015	
22.770	-0.013	-0.021	
22.775	0.160	-0.022	
22.780	-0.135	-0.011	
22.785	-0.124	-0.014	
22.790	0.139	-0.024	
22.795	-0.063	-0.020	
22.800	-0.170	-0.022	
22.805	0.094	-0.033	
22.810	0.052	-0.029	
22.815	-0.174	-0.021	
22.820	-0.032	-0.028	
22.825	0.142	-0.031	
22.830	-0.133	-0.021	
22.835	-0.100	-0.023	
22.840	0.185	-0.026	
22.845	-0.020	-0.012	
22.850	-0.153	-0.003	
22.855	0.120	-0.007	
22.860	0.094	0.000	
22.865	-0.139	0.012	
22.870	0.047	0.009	
22.875	0.215	0.014	
22.880	-0.110	0.030	
22.885	-0.092	0.029	
22.890	0.191	0.018	
22.895	-0.028	0.021	
22.900	-0.150	0.018	
22.905	0.114	0.004	
22.910	0.047	0.001	
22.915	-0.194	0.001	
22.920	-0.035	-0.017	
22.925	0.125	-0.029	
22.930	-0.141	-0.026	
22.935	-0.118	-0.033	
22.940	0.127	-0.041	
22.945	-0.075	-0.035	
22.950	-0.187	-0.035	
22.955	0.052	-0.047	
22.960	0.038	-0.046	
22.965	-0.153	-0.039	
22.970	0.061	-0.037	
22.975	0.314	-0.017	
22.980	0.072	0.032	
22.985	0.249	0.082	
22.990	0.692	0.150	
22.995	0.464	0.252	
23.000	0.072	0.334	
23.005	0.081	0.345	
23.010	-0.174	0.289	
23.015	-0.439	0.175	
23.020	-0.364	0.022	
23.025	-0.258	-0.123	
23.030	-0.388	-0.230	
23.035	-0.321	-0.303	
23.040	-0.090	-0.335	
23.045	-0.152	-0.319	
23.050	-0.203	-0.280	
23.055	0.093	-0.230	
23.060	0.102	-0.159	
23.065	-0.135	-0.088	
23.070	0.064	-0.041	
23.075	0.253	0.001	
23.080	-0.069	0.044	
23.085	-0.054	0.060	
23.090	0.256	0.061	
23.095	0.021	0.072	
23.100	-0.115	0.073	
23.105	0.195	0.059	
23.110	0.171	0.062	
23.115	-0.097	0.072	
23.120	0.091	0.067	
23.125	0.259	0.068	
23.130	-0.071	0.081	
23.135	-0.057	0.075	
23.140	0.259	0.062	
23.145	0.027	0.067	
23.150	-0.118	0.066	
23.155	0.208	0.053	
23.160	0.188	0.059	
23.165	-0.113	0.073	
23.170	0.096	0.069	
23.175	0.258	0.070	
23.180	-0.069	0.082	
23.185	-0.037	0.077	
23.190	0.256	0.066	
23.195	0.039	0.072	
23.200	-0.100	0.072	
23.205	0.220	0.062	
23.210	0.203	0.070	
23.215	-0.081	0.087	
23.220	0.133	0.087	
23.225	0.321	0.094	
23.230	-0.025	0.115	
23.235	-0.002	0.116	
23.240	0.292	0.108	
23.245	0.075	0.114	
23.250	-0.087	0.112	
23.255	0.232	0.097	
23.260	0.185	0.097	
23.265	-0.124	0.101	
23.270	0.001	0.082	
23.275	0.165	0.059	
23.280	-0.158	0.045	
23.285	-0.165	0.015	
23.290	0.052	-0.022	
23.295	-0.127	-0.045	
23.300	-0.266	-0.070	
23.305	-0.089	-0.104	
23.310	-0.109	-0.127	
23.315	-0.280	-0.142	
23.320	-0.167	-0.161	
23.325	-0.055	-0.172	
23.330	-0.268	-0.171	
23.335	-0.263	-0.178	
23.340	-0.066	-0.188	
23.345	-0.203	-0.186	
23.350	-0.294	-0.186	
23.355	-0.103	-0.193	
23.360	-0.107	-0.189	
23.365	-0.272	-0.179	
23.370	-0.133	-0.177	
23.375	-0.025	-0.170	
23.380	-0.237	-0.154	
23.385	-0.220	-0.151	
23.390	0.007	-0.153	
23.395	-0.150	-0.142	
23.400	-0.243	-0.135	
23.405	-0.022	-0.137	
23.410	-0.016	-0.127	
23.415	-0.229	-0.111	
23.420	-0.124	-0.111	
23.425	0.052	-0.110	
23.430	-0.179	-0.098	
23.435	-0.158	-0.096	
23.440	0.079	-0.096	
23.445	-0.101	-0.083	
23.450	-0.202	-0.076	
23.455	0.052	-0.080	
23.460	0.035	-0.070	
23.465	-0.185	-0.055	
23.470	-0.032	-0.054	
23.475	0.125	-0.050	
23.480	-0.148	-0.035	
23.485	-0.122	-0.035	
23.490	0.156	-0.040	
23.495	-0.022	-0.027	
23.500	-0.173	-0.018	
23.505	0.087	-0.024	
23.510	0.084	-0.018	
23.515	-0.171	-0.008	
23.520	-0.028	-0.015	
23.525	0.151	-0.019	
23.530	-0.136	-0.011	
23.535	-0.118	-0.016	
23.540	0.140	-0.027	
23.545	-0.074	-0.023	
23.550	-0.176	-0.025	
23.555	0.093	-0.037	
23.560	0.064	-0.032	
23.565	-0.173	-0.022	
23.570	-0.020	-0.027	
23.575	0.148	-0.027	
23.580	-0.130	-0.016	
23.585	-0.113	-0.018	
23.590	0.178	-0.023	
23.595	-0.051	-0.013	
23.600	-0.177	-0.010	
23.605	0.097	-0.021	
23.610	0.081	-0.018	
23.615	-0.168	-0.009	
23.620	-0.029	-0.016	
23.625	0.140	-0.021	
23.630	-0.145	-0.014	
23.635	-0.130	-0.021	
23.640	0.142	-0.033	
23.645	-0.048	-0.028	
23.650	-0.162	-0.026	
23.655	0.107	-0.032	
23.660	0.079	-0.023	
23.665	-0.171	-0.010	
23.670	-0.028	-0.015	
23.675	0.156	-0.018	
23.680	-0.135	-0.010	
23.685	-0.126	-0.015	
23.690	0.165	-0.025	
23.695	-0.035	-0.017	
23.700	-0.161	-0.013	
23.705	0.104	-0.021	
23.710	0.073	-0.015	
23.715	-0.171	-0.006	
23.720	-0.017	-0.013	
23.725	0.127	-0.018	
23.730	-0.142	-0.013	
23.735	-0.118	-0.021	
23.740	0.163	-0.031	
23.745	-0.049	-0.023	
23.750	-0.181	-0.020	
23.755	0.076	-0.030	
23.760	0.072	-0.028	
23.765	-0.167	-0.019	
23.770	-0.008	-0.024	
23.775	0.152	-0.023	
23.780	-0.132	-0.011	
23.785	-0.118	-0.013	
23.790	0.152	-0.022	
23.795	-0.040	-0.015	
23.800	-0.161	-0.013	
23.805	0.120	-0.021	
23.810	0.099	-0.013	
23.815	-0.153	0.001	
23.820	0.042	0.000	
23.825	0.217	0.007	
23.830	-0.098	0.026	
23.835	-0.084	0.028	
23.840	0.230	0.022	
23.845	-0.035	0.031	
23.850	-0.159	0.029	
23.855	0.096	0.011	
23.860	0.085	0.006	
23.865	-0.164	0.007	
23.870	-0.023	-0.006	
23.875	0.114	-0.016	
23.880	-0.165	-0.016	
23.885	-0.152	-0.030	
23.890	0.120	-0.047	
23.895	-0.072	-0.046	
23.900	-0.187	-0.047	
23.905	0.067	-0.056	
23.910	0.087	-0.049	
23.915	-0.187	-0.034	
23.920	-0.072	-0.036	
23.925	0.113	-0.041	
23.930	-0.122	-0.035	
23.935	-0.023	-0.032	
23.940	0.405	-0.014	
23.945	0.307	0.048	
23.950	0.238	0.127	
23.955	0.684	0.211	
23.960	0.592	0.314	
23.965	-0.063	0.390	
23.970	-0.121	0.372	
23.975	-0.197	0.271	
23.980	-0.449	0.127	
23.985	-0.456	-0.039	
23.990	-0.272	-0.189	
23.995	-0.338	-0.289	
24.000	-0.361	-0.346	
24.005	-0.087	-0.363	
24.010	-0.011	-0.329	
24.015	-0.185	-0.266	
24.020	-0.025	-0.204	
24.025	0.169	-0.139	
24.030	-0.129	-0.073	
24.035	-0.075	-0.035	
24.040	0.263	-0.010	
24.045	0.009	0.025	
24.050	-0.136	0.044	
24.055	0.148	0.040	
24.060	0.151	0.045	
24.065	-0.127	0.054	
24.070	0.055	0.046	
24.075	0.235	0.044	
24.080	-0.063	0.056	
24.085	-0.064	0.054	
24.090	0.214	0.044	
24.095	0.001	0.047	
24.100	-0.116	0.045	
24.105	0.197	0.034	
24.110	0.160	0.043	
24.115	-0.129	0.057	
24.120	0.050	0.051	
24.125	0.238	0.049	
24.130	-0.075	0.059	
24.135	-0.049	0.055	
24.140	0.249	0.047	
24.145	0.027	0.056	
24.150	-0.112	0.059	
24.155	0.217	0.050	
24.160	0.192	0.061	
24.165	-0.095	0.078	
24.170	0.096	0.076	
24.175	0.301	0.080	
24.180	-0.020	0.098	
24.185	-0.020	0.100	
24.190	0.296	0.093	
24.195	0.073	0.103	
24.200	-0.081	0.105	
24.205	0.240	0.094	
24.210	0.212	0.099	
24.215	-0.089	0.110	
24.220	0.078	0.100	
24.225	0.223	0.090	
24.230	-0.118	0.087	
24.235	-0.133	0.063	
24.240	0.120	0.027	
24.245	-0.100	0.005	
24.250	-0.216	-0.020	
24.255	-0.002	-0.054	
24.260	-0.055	-0.073	
24.265	-0.252	-0.086	
24.270	-0.159	-0.109	
24.275	-0.072	-0.130	
24.280	-0.269	-0.143	
24.285	-0.262	-0.163	
24.290	-0.069	-0.183	
24.295	-0.199	-0.186	
24.300	-0.300	-0.189	
24.305	-0.107	-0.197	
24.310	-0.127	-0.194	
24.315	-0.304	-0.188	
24.320	-0.168	-0.192	
24.325	-0.057	-0.190	
24.330	-0.252	-0.179	
24.335	-0.226	-0.177	
24.340	0.010	-0.175	
24.345	-0.156	-0.159	
24.350	-0.268	-0.148	
24.355	-0.046	-0.149	
24.360	-0.060	-0.141	
24.365	-0.249	-0.131	
24.370	-0.110	-0.132	
24.375	0.067	-0.127	
24.380	-0.181	-0.108	
24.385	-0.184	-0.101	
24.390	0.052	-0.102	
24.395	-0.107	-0.092	
24.400	-0.214	-0.088	
24.405	0.009	-0.094	
24.410	-0.002	-0.088	
24.415	-0.200	-0.079	
24.420	-0.055	-0.080	
24.425	0.137	-0.074	
24.430	-0.126	-0.053	
24.435	-0.144	-0.045	
24.440	0.099	-0.047	
24.445	-0.087	-0.041	
24.450	-0.194	-0.043	
24.455	0.081	-0.054	
24.460	0.088	-0.047	
24.465	-0.173	-0.031	
24.470	-0.020	-0.030	
24.475	0.172	-0.026	
24.480	-0.126	-0.010	
24.485	-0.115	-0.009	
24.490	0.174	-0.016	
24.495	-0.046	-0.007	
24.500	-0.173	-0.006	
24.505	0.081	-0.019	
24.510	0.073	-0.019	
24.515	-0.168	-0.012	
24.520	-0.009	-0.020	
24.525	0.165	-0.021	
24.530	-0.136	-0.009	
24.535	-0.133	-0.013	
24.540	0.148	-0.024	
24.545	-0.055	-0.020	
24.550	-0.177	-0.021	
24.555	0.094	-0.032	
24.560	0.059	-0.028	
24.565	-0.168	-0.019	
24.570	-0.011	-0.025	
24.575	0.137	-0.025	
24.580	-0.135	-0.015	
24.585	-0.118	-0.018	
24.590	0.162	-0.027	
24.595	-0.051	-0.018	
24.600	-0.181	-0.017	
24.605	0.082	-0.028	
24.610	0.096	-0.025	
24.615	-0.141	-0.012	
24.620	0.030	-0.011	
24.625	0.146	-0.005	
24.630	-0.145	0.007	
24.635	-0.121	-0.001	
24.640	0.140	-0.016	
24.645	-0.064	-0.016	
24.650	-0.177	-0.021	
24.655	0.085	-0.035	
24.660	0.079	-0.032	
24.665	-0.150	-0.020	
24.670	0.004	-0.021	
24.675	0.165	-0.016	
24.680	-0.130	-0.001	
24.685	-0.110	-0.003	
24.690	0.169	-0.012	
24.695	-0.032	-0.005	
24.700	-0.139	-0.002	
24.705	0.142	-0.008	
24.710	0.104	0.002	
24.715	-0.153	0.015	
24.720	-0.008	0.010	
24.725	0.142	0.004	
24.730	-0.127	0.007	
24.735	-0.106	-0.003	
24.740	0.165	-0.015	
24.745	-0.032	-0.009	
24.750	-0.162	-0.008	
24.755	0.088	-0.018	
24.760	0.076	-0.015	
24.765	-0.167	-0.008	
24.770	-0.019	-0.016	
24.775	0.146	-0.019	
24.780	-0.139	-0.011	
24.785	-0.116	-0.017	
24.790	0.188	-0.025	
24.795	-0.020	-0.013	
24.800	-0.150	-0.005	
24.805	0.133	-0.009	
24.810	0.127	0.002	
24.815	-0.138	0.018	
24.820	-0.002	0.016	
24.825	0.174	0.014	
24.830	-0.109	0.021	
24.835	-0.083	0.015	
24.840	0.208	0.006	
24.845	-0.016	0.015	
24.850	-0.147	0.018	
24.855	0.119	0.008	
24.860	0.099	0.010	
24.865	-0.145	0.017	
24.870	-0.011	0.008	
24.875	0.142	0.001	
24.880	-0.135	0.004	
24.885	-0.124	-0.007	
24.890	0.131	-0.023	
24.895	-0.072	-0.023	
24.900	-0.184	-0.028	
24.905	0.068	-0.043	
24.910	0.070	-0.041	
24.915	-0.177	-0.031	
24.920	-0.057	-0.036	
24.925	0.102	-0.041	
24.930	-0.161	-0.036	
24.935	-0.145	-0.044	
24.940	0.128	-0.055	
24.945	-0.035	-0.046	
24.950	-0.129	-0.037	
24.955	0.278	-0.026	
24.960	0.389	0.022	
24.965	0.218	0.100	
24.970	0.583	0.185	
24.975	0.754	0.291	
24.980	0.111	0.392	
24.985	-0.174	0.406	
24.990	-0.173	0.319	
24.995	-0.376	0.176	
25.000	-0.495	0.008	
25.005	-0.320	-0.154	
25.010	-0.283	-0.271	
25.015	-0.370	-0.336	
25.020	-0.181	-0.362	
25.025	0.012	-0.341	
25.030	-0.156	-0.282	
25.035	-0.121	-0.220	
25.040	0.180	-0.160	
25.045	-0.003	-0.089	
25.050	-0.119	-0.036	
25.055	0.186	-0.005	
25.060	0.160	0.030	
25.065	-0.126	0.059	
25.070	0.039	0.060	
25.075	0.244	0.059	
25.080	-0.063	0.069	
25.085	-0.057	0.064	
25.090	0.233	0.052	
25.095	0.027	0.057	
25.100	-0.112	0.057	
25.105	0.203	0.047	
25.110	0.191	0.056	
25.115	-0.090	0.072	
25.120	0.090	0.072	
25.125	0.243	0.074	
25.130	-0.068	0.084	
25.135	-0.037	0.077	
25.140	0.249	0.065	
25.145	0.012	0.068	
25.150	-0.110	0.065	
25.155	0.198	0.051	
25.160	0.188	0.056	
25.165	-0.090	0.071	
25.170	0.107	0.070	
25.175	0.288	0.076	
25.180	-0.032	0.095	
25.185	-0.037	0.095	
25.190	0.305	0.087	
25.195	0.108	0.098	
25.200	-0.049	0.108	
25.205	0.292	0.106	
25.210	0.258	0.122	
25.215	-0.071	0.142	
25.220	0.124	0.136	
25.225	0.307	0.131	
25.230	-0.034	0.136	
25.235	-0.034	0.123	
25.240	0.258	0.101	
25.245	0.018	0.095	
25.250	-0.144	0.081	
25.255	0.096	0.051	
25.260	0.075	0.033	
25.265	-0.197	0.020	
25.270	-0.098	-0.009	
25.275	0.012	-0.040	
25.280	-0.226	-0.061	
25.285	-0.231	-0.091	
25.290	-0.063	-0.124	
25.295	-0.205	-0.143	
25.300	-0.300	-0.162	
25.305	-0.112	-0.183	
25.310	-0.121	-0.190	
25.315	-0.297	-0.188	
25.320	-0.191	-0.194	
25.325	-0.080	-0.196	
25.330	-0.255	-0.189	
25.335	-0.234	-0.189	
25.340	-0.045	-0.189	
25.345	-0.171	-0.177	
25.350	-0.283	-0.170	
25.355	-0.087	-0.173	
25.360	-0.081	-0.167	
25.365	-0.252	-0.157	
25.370	-0.121	-0.155	
25.375	0.030	-0.147	
25.380	-0.188	-0.128	
25.385	-0.194	-0.119	
25.390	-0.005	-0.120	
25.395	-0.147	-0.115	
25.400	-0.228	-0.115	
25.405	0.001	-0.122	
25.410	-0.025	-0.114	
25.415	-0.220	-0.102	
25.420	-0.083	-0.102	
25.425	0.094	-0.097	
25.430	-0.147	-0.078	
25.435	-0.152	-0.071	
25.440	0.104	-0.070	
25.445	-0.069	-0.058	
25.450	-0.174	-0.050	
25.455	0.082	-0.053	
25.460	0.065	-0.042	
25.465	-0.174	-0.027	
25.470	-0.020	-0.029	
25.475	0.163	-0.027	
25.480	-0.124	-0.012	
25.485	-0.110	-0.012	
25.490	0.159	-0.018	
25.495	-0.054	-0.011	
25.500	-0.171	-0.011	
25.505	0.097	-0.023	
25.510	0.064	-0.020	
25.515	-0.177	-0.013	
25.520	-0.038	-0.022	
25.525	0.142	-0.028	
25.530	-0.133	-0.020	
25.535	-0.121	-0.024	
25.540	0.174	-0.031	
25.545	-0.026	-0.019	
25.550	-0.150	-0.011	
25.555	0.085	-0.016	
25.560	0.044	-0.013	
25.565	-0.185	-0.009	
25.570	-0.045	-0.023	
25.575	0.148	-0.031	
25.580	-0.119	-0.023	
25.585	-0.121	-0.025	
25.590	0.151	-0.031	
25.595	-0.055	-0.022	
25.600	-0.182	-0.021	
25.605	0.067	-0.032	
25.610	0.058	-0.031	
25.615	-0.170	-0.025	
25.620	-0.020	-0.031	
25.625	0.168	-0.030	
25.630	-0.116	-0.015	
25.635	-0.132	-0.014	
25.640	0.120	-0.023	
25.645	-0.052	-0.020	
25.650	-0.184	-0.023	
25.655	0.076	-0.036	
25.660	0.090	-0.033	
25.665	-0.167	-0.021	
25.670	-0.025	-0.024	
25.675	0.171	-0.023	
25.680	-0.115	-0.009	
25.685	-0.127	-0.009	
25.690	0.131	-0.018	
25.695	-0.063	-0.016	
25.700	-0.193	-0.021	
25.705	0.064	-0.037	
25.710	0.078	-0.038	
25.715	-0.170	-0.029	
25.720	-0.026	-0.032	
25.725	0.151	-0.031	
25.730	-0.126	-0.018	
25.735	-0.126	-0.019	
25.740	0.146	-0.026	
25.745	-0.046	-0.019	
25.750	-0.176	-0.018	
25.755	0.102	-0.028	
25.760	0.094	-0.022	
25.765	-0.164	-0.009	
25.770	-0.032	-0.013	
25.775	0.136	-0.017	
25.780	-0.135	-0.011	
25.785	-0.122	-0.018	
25.790	0.145	-0.029	
25.795	-0.071	-0.024	
25.800	-0.184	-0.026	
25.805	0.094	-0.038	
25.810	0.101	-0.032	
25.815	-0.164	-0.017	
25.820	-0.023	-0.018	
25.825	0.168	-0.017	
25.830	-0.121	-0.005	
25.835	-0.116	-0.007	
25.840	0.171	-0.015	
25.845	-0.009	-0.006	
25.850	-0.142	-0.000	
25.855	0.125	-0.005	
25.860	0.116	0.004	
25.865	-0.152	0.017	
25.870	0.009	0.012	
25.875	0.174	0.009	
25.880	-0.138	0.016	
25.885	-0.152	0.005	
25.890	0.094	-0.017	
25.895	-0.081	-0.027	
25.900	-0.193	-0.039	
25.905	0.041	-0.057	
25.910	0.026	-0.060	
25.915	-0.210	-0.055	
25.920	-0.063	-0.064	
25.925	0.136	-0.066	
25.930	-0.141	-0.051	
25.935	-0.153	-0.048	
25.940	0.104	-0.054	
25.945	-0.048	-0.046	
25.950	-0.119	-0.039	
25.955	0.261	-0.030	
25.960	0.359	0.016	
25.965	0.154	0.087	
25.970	0.476	0.159	
25.975	0.657	0.246	
25.980	0.056	0.329	
25.985	-0.184	0.336	
25.990	-0.158	0.256	
25.995	-0.370	0.129	
26.000	-0.474	-0.020	
26.005	-0.317	-0.165	
26.010	-0.272	-0.270	
26.015	-0.381	-0.329	
26.020	-0.208	-0.354	
26.025	-0.011	-0.339	
26.030	-0.148	-0.286	
26.035	-0.121	-0.227	
26.040	0.171	-0.166	
26.045	-0.013	-0.096	
26.050	-0.122	-0.043	
26.055	0.181	-0.012	
26.060	0.181	0.025	
26.065	-0.104	0.058	
26.070	0.067	0.066	
26.075	0.250	0.071	
26.080	-0.058	0.083	
26.085	-0.066	0.077	
26.090	0.227	0.062	
26.095	0.012	0.061	
26.100	-0.129	0.055	
26.105	0.163	0.038	
26.110	0.183	0.041	
26.115	-0.109	0.054	
26.120	0.056	0.051	
26.125	0.243	0.052	
26.130	-0.068	0.064	
26.135	-0.068	0.061	
26.140	0.217	0.048	
26.145	0.026	0.051	
26.150	-0.116	0.050	
26.155	0.172	0.039	
26.160	0.157	0.044	
26.165	-0.116	0.055	
26.170	0.059	0.050	
26.175	0.259	0.050	
26.180	-0.040	0.066	
26.185	-0.023	0.069	
26.190	0.304	0.067	
26.195	0.113	0.086	
26.200	-0.077	0.101	
26.205	0.249	0.099	
26.210	0.253	0.111	
26.215	-0.063	0.128	
26.220	0.114	0.124	
26.225	0.316	0.122	
26.230	-0.020	0.131	
26.235	-0.042	0.123	
26.240	0.243	0.102	
26.245	0.024	0.095	
26.250	-0.142	0.081	
26.255	0.097	0.051	
26.260	0.062	0.033	
26.265	-0.219	0.018	
26.270	-0.119	-0.016	
26.275	0.012	-0.050	
26.280	-0.232	-0.073	
26.285	-0.248	-0.103	
26.290	-0.058	-0.135	
26.295	-0.182	-0.151	
26.300	-0.307	-0.165	
26.305	-0.121	-0.183	
26.310	-0.121	-0.190	
26.315	-0.303	-0.188	
26.320	-0.197	-0.196	
26.325	-0.098	-0.200	
26.330	-0.280	-0.196	
26.335	-0.272	-0.201	
26.340	-0.084	-0.208	
26.345	-0.179	-0.202	
26.350	-0.284	-0.195	
26.355	-0.097	-0.195	
26.360	-0.090	-0.185	
26.365	-0.271	-0.171	
26.370	-0.158	-0.169	
26.375	-0.016	-0.165	
26.380	-0.231	-0.152	
26.385	-0.219	-0.149	
26.390	0.020	-0.150	
26.395	-0.124	-0.137	
26.400	-0.226	-0.126	
26.405	-0.006	-0.125	
26.410	0.012	-0.111	
26.415	-0.217	-0.093	
26.420	-0.098	-0.091	
26.425	0.091	-0.088	
26.430	-0.168	-0.074	
26.435	-0.164	-0.073	
26.440	0.093	-0.077	
26.445	-0.072	-0.067	
26.450	-0.187	-0.061	
26.455	0.073	-0.064	
26.460	0.072	-0.052	
26.465	-0.171	-0.035	
26.470	-0.025	-0.033	
26.475	0.162	-0.029	
26.480	-0.129	-0.014	
26.485	-0.127	-0.014	
26.490	0.162	-0.022	
26.495	-0.031	-0.014	
26.500	-0.161	-0.010	
26.505	0.073	-0.019	
26.510	0.076	-0.018	
26.515	-0.164	-0.011	
26.520	-0.037	-0.018	
26.525	0.140	-0.023	
26.530	-0.132	-0.016	
26.535	-0.133	-0.022	
26.540	0.130	-0.033	
26.545	-0.042	-0.028	
26.550	-0.173	-0.027	
26.555	0.088	-0.035	
26.560	0.065	-0.029	
26.565	-0.164	-0.018	
26.570	-0.040	-0.024	
26.575	0.162	-0.026	
26.580	-0.136	-0.015	
26.585	-0.127	-0.018	
26.590	0.163	-0.027	
26.595	-0.032	-0.018	
26.600	-0.181	-0.015	
26.605	0.064	-0.025	
26.610	0.079	-0.025	
26.615	-0.173	-0.018	
26.620	-0.049	-0.025	
26.625	0.116	-0.032	
26.630	-0.138	-0.027	
26.635	-0.112	-0.032	
26.640	0.160	-0.038	
26.645	-0.026	-0.026	
26.650	-0.179	-0.018	
26.655	0.079	-0.025	
26.660	0.104	-0.020	
26.665	-0.167	-0.008	
26.670	-0.019	-0.013	
26.675	0.165	-0.014	
26.680	-0.127	-0.004	
26.685	-0.129	-0.008	
26.690	0.152	-0.019	
26.695	-0.019	-0.014	
26.700	-0.153	-0.011	
26.705	0.105	-0.017	
26.710	0.061	-0.012	
26.715	-0.176	-0.005	
26.720	-0.046	-0.016	
26.725	0.181	-0.022	
26.730	-0.126	-0.013	
26.735	-0.124	-0.014	
26.740	0.181	-0.022	
26.745	-0.002	-0.010	
26.750	-0.133	-0.001	
26.755	0.117	-0.003	
26.760	0.119	0.007	
26.765	-0.132	0.021	
26.770	-0.008	0.017	
26.775	0.186	0.013	
26.780	-0.104	0.021	
26.785	-0.069	0.017	
26.790	0.214	0.010	
26.795	-0.042	0.020	
26.800	-0.162	0.019	
26.805	0.104	0.004	
26.810	0.096	0.002	
26.815	-0.161	0.006	
26.820	-0.034	-0.004	
26.825	0.134	-0.013	
26.830	-0.138	-0.011	
26.835	-0.142	-0.020	
26.840	0.094	-0.037	
26.845	-0.068	-0.039	
26.850	-0.174	-0.043	
26.855	0.061	-0.053	
26.860	0.065	-0.048	
26.865	-0.165	-0.035	
26.870	-0.032	-0.036	
26.875	0.211	-0.031	
26.880	-0.046	-0.007	
26.885	0.029	0.013	
26.890	0.501	0.044	
26.895	0.432	0.119	
26.900	0.233	0.207	
26.905	0.418	0.273	
26.910	0.140	0.311	
26.915	-0.320	0.290	
26.920	-0.346	0.187	
26.925	-0.292	0.042	
26.930	-0.433	-0.100	
26.935	-0.394	-0.223	
26.940	-0.162	-0.306	
26.945	-0.222	-0.334	
26.950	-0.258	-0.326	
26.955	0.027	-0.295	
26.960	0.102	-0.230	
26.965	-0.144	-0.151	
26.970	0.039	-0.091	
26.975	0.272	-0.036	
26.980	-0.043	0.023	
26.985	-0.064	0.053	
26.990	0.258	0.062	
26.995	0.049	0.078	
27.000	-0.126	0.082	
27.005	0.197	0.069	
27.010	0.217	0.072	
27.015	-0.090	0.085	
27.020	0.020	0.078	
27.025	0.244	0.069	
27.030	-0.066	0.073	
27.035	-0.071	0.063	
27.040	0.255	0.049	
27.045	0.056	0.055	
27.050	-0.113	0.060	
27.055	0.185	0.052	
27.060	0.186	0.059	
27.065	-0.127	0.071	
27.070	0.039	0.063	
27.075	0.293	0.058	
27.080	-0.032	0.073	
27.085	-0.061	0.074	
27.090	0.236	0.065	
27.095	0.081	0.071	
27.100	-0.103	0.075	
27.105	0.200	0.066	
27.110	0.223	0.074	
27.115	-0.078	0.090	
27.120	0.124	0.090	
27.125	0.311	0.096	
27.130	-0.009	0.115	
27.135	-0.025	0.115	
27.140	0.307	0.106	
27.145	0.128	0.115	
27.150	-0.078	0.120	
27.155	0.223	0.110	
27.160	0.198	0.110	
27.165	-0.118	0.114	
27.170	0.035	0.094	
27.175	0.235	0.076	
27.180	-0.110	0.071	
27.185	-0.148	0.049	
27.190	0.072	0.014	
27.195	-0.106	-0.011	
27.200	-0.239	-0.039	
27.205	-0.049	-0.074	
27.210	-0.064	-0.097	
27.215	-0.278	-0.111	
27.220	-0.184	-0.135	
27.225	-0.081	-0.155	
27.230	-0.263	-0.164	
27.235	-0.278	-0.180	
27.240	-0.095	-0.196	
27.245	-0.210	-0.199	
27.250	-0.306	-0.202	
27.255	-0.118	-0.209	
27.260	-0.129	-0.205	
27.265	-0.309	-0.197	
27.270	-0.181	-0.199	
27.275	-0.046	-0.197	
27.280	-0.236	-0.183	
27.285	-0.239	-0.177	
27.290	-0.019	-0.175	
27.295	-0.168	-0.162	
27.300	-0.272	-0.155	
27.305	-0.072	-0.159	
27.310	-0.046	-0.153	
27.315	-0.229	-0.140	
27.320	-0.113	-0.136	
27.325	0.059	-0.128	
27.330	-0.168	-0.107	
27.335	-0.174	-0.098	
27.340	0.072	-0.096	
27.345	-0.087	-0.083	
27.350	-0.214	-0.076	
27.355	0.018	-0.081	
27.360	0.030	-0.076	
27.365	-0.193	-0.064	
27.370	-0.057	-0.066	
27.375	0.160	-0.061	
27.380	-0.129	-0.041	
27.385	-0.142	-0.035	
27.390	0.128	-0.039	
27.395	-0.060	-0.031	
27.400	-0.182	-0.029	
27.405	0.075	-0.039	
27.410	0.084	-0.035	
27.415	-0.167	-0.022	
27.420	-0.019	-0.025	
27.425	0.172	-0.023	
27.430	-0.124	-0.008	
27.435	-0.122	-0.009	
27.440	0.133	-0.018	
27.445	-0.040	-0.015	
27.450	-0.165	-0.016	
27.455	0.111	-0.025	
27.460	0.102	-0.018	
27.465	-0.171	-0.004	
27.470	-0.048	-0.010	
27.475	0.185	-0.015	
27.480	-0.107	-0.005	
27.485	-0.144	-0.007	
27.490	0.111	-0.020	
27.495	-0.061	-0.022	
27.500	-0.182	-0.027	
27.505	0.091	-0.041	
27.510	0.117	-0.034	
27.515	-0.150	-0.017	
27.520	-0.037	-0.015	
27.525	0.128	-0.016	
27.530	-0.139	-0.010	
27.535	-0.133	-0.018	
27.540	0.166	-0.030	
27.545	-0.026	-0.022	
27.550	-0.156	-0.016	
27.555	0.131	-0.020	
27.560	0.050	-0.011	
27.565	-0.185	-0.002	
27.570	-0.031	-0.014	
27.575	0.180	-0.020	
27.580	-0.124	-0.010	
27.585	-0.122	-0.012	
27.590	0.169	-0.020	
27.595	-0.040	-0.012	
27.600	-0.182	-0.010	
27.605	0.079	-0.022	
27.610	0.090	-0.021	
27.615	-0.179	-0.013	
27.620	-0.042	-0.021	
27.625	0.177	-0.025	
27.630	-0.106	-0.013	
27.635	-0.127	-0.012	
27.640	0.142	-0.019	
27.645	-0.042	-0.014	
27.650	-0.161	-0.014	
27.655	0.124	-0.022	
27.660	0.096	-0.014	
27.665	-0.173	-0.000	
27.670	-0.023	-0.006	
27.675	0.183	-0.010	
27.680	-0.126	0.000	
27.685	-0.144	-0.005	
27.690	0.131	-0.019	
27.695	-0.009	-0.018	
27.700	-0.147	-0.015	
27.705	0.101	-0.021	
27.710	0.091	-0.013	
27.715	-0.148	-0.000	
27.720	0.024	-0.003	
27.725	0.208	0.002	
27.730	-0.103	0.019	
27.735	-0.116	0.019	
27.740	0.186	0.008	
27.745	0.012	0.014	
27.750	-0.138	0.018	
27.755	0.133	0.010	
27.760	0.114	0.016	
27.765	-0.174	0.024	
27.770	-0.064	0.010	
27.775	0.120	-0.007	
27.780	-0.148	-0.013	
27.785	-0.158	-0.029	
27.790	0.107	-0.048	
27.795	-0.057	-0.048	
27.800	-0.181	-0.048	
27.805	0.067	-0.056	
27.810	0.061	-0.048	
27.815	-0.174	-0.035	
27.820	0.000	-0.035	
27.825	0.314	-0.023	
27.830	0.087	0.021	
27.835	0.195	0.070	
27.840	0.631	0.132	
27.845	0.461	0.227	
27.850	0.073	0.307	
27.855	0.125	0.323	
27.860	-0.129	0.281	
27.865	-0.425	0.182	
27.870	-0.367	0.038	
27.875	-0.249	-0.105	
27.880	-0.388	-0.214	
27.885	-0.355	-0.291	
27.890	-0.112	-0.332	
27.895	-0.161	-0.324	
27.900	-0.217	-0.291	
27.905	0.099	-0.244	
27.910	0.131	-0.170	
27.915	-0.119	-0.092	
27.920	0.055	-0.038	
27.925	0.282	0.007	
27.930	-0.040	0.055	
27.935	-0.043	0.076	
27.940	0.259	0.078	
27.945	0.042	0.089	
27.950	-0.133	0.087	
27.955	0.198	0.069	
27.960	0.185	0.068	
27.965	-0.121	0.076	
27.970	0.029	0.064	
27.975	0.247	0.055	
27.980	-0.064	0.062	
27.985	-0.069	0.056	
27.990	0.233	0.044	
27.995	0.065	0.051	
28.000	-0.112	0.057	
28.005	0.175	0.050	
28.010	0.174	0.057	
28.015	-0.113	0.068	
28.020	0.059	0.062	
28.025	0.295	0.061	
28.030	-0.035	0.078	
28.035	-0.057	0.079	
28.040	0.258	0.070	
28.045	0.107	0.079	
28.050	-0.104	0.086	
28.055	0.188	0.077	
28.060	0.226	0.082	
28.065	-0.077	0.095	
28.070	0.094	0.091	
28.075	0.290	0.091	
28.080	-0.029	0.104	
28.085	-0.016	0.101	
28.090	0.316	0.093	
28.095	0.124	0.106	
28.100	-0.074	0.115	
28.105	0.227	0.108	
28.110	0.189	0.111	
28.115	-0.133	0.114	
28.120	-0.014	0.090	
28.125	0.175	0.062	
28.130	-0.121	0.047	
28.135	-0.161	0.020	
28.140	0.056	-0.014	
28.145	-0.118	-0.036	
28.150	-0.254	-0.060	
28.155	-0.084	-0.094	
28.160	-0.098	-0.117	
28.165	-0.297	-0.133	
28.170	-0.187	-0.157	
28.175	-0.058	-0.174	
28.180	-0.265	-0.176	
28.185	-0.266	-0.184	
28.190	-0.098	-0.195	
28.195	-0.207	-0.196	
28.200	-0.312	-0.198	
28.205	-0.124	-0.206	
28.210	-0.113	-0.203	
28.215	-0.309	-0.195	
28.220	-0.187	-0.197	
28.225	-0.045	-0.195	
28.230	-0.240	-0.182	
28.235	-0.232	-0.177	
28.240	-0.009	-0.175	
28.245	-0.148	-0.160	
28.250	-0.272	-0.150	
28.255	-0.064	-0.152	
28.260	-0.040	-0.145	
28.265	-0.242	-0.133	
28.270	-0.110	-0.132	
28.275	0.082	-0.124	
28.280	-0.173	-0.103	
28.285	-0.185	-0.094	
28.290	0.073	-0.094	
28.295	-0.066	-0.082	
28.300	-0.210	-0.073	
28.305	0.020	-0.077	
28.310	0.038	-0.070	
28.315	-0.203	-0.059	
28.320	-0.080	-0.064	
28.325	0.128	-0.065	
28.330	-0.136	-0.052	
28.335	-0.138	-0.049	
28.340	0.162	-0.050	
28.345	-0.031	-0.034	
28.350	-0.168	-0.023	
28.355	0.096	-0.026	
28.360	0.084	-0.018	
28.365	-0.170	-0.006	
28.370	-0.040	-0.013	
28.375	0.165	-0.018	
28.380	-0.104	-0.008	
28.385	-0.132	-0.010	
28.390	0.125	-0.020	
28.395	-0.055	-0.019	
28.400	-0.181	-0.022	
28.405	0.084	-0.035	
28.410	0.093	-0.031	
28.415	-0.176	-0.019	
28.420	-0.057	-0.024	
28.425	0.142	-0.029	
28.430	-0.124	-0.021	
28.435	-0.136	-0.025	
28.440	0.142	-0.034	
28.445	-0.035	-0.027	
28.450	-0.168	-0.023	
28.455	0.072	-0.031	
28.460	0.097	-0.025	
28.465	-0.155	-0.013	
28.470	-0.013	-0.015	
28.475	0.154	-0.014	
28.480	-0.138	-0.004	
28.485	-0.153	-0.011	
28.490	0.124	-0.027	
28.495	-0.029	-0.027	
28.500	-0.161	-0.026	
28.505	0.072	-0.034	
28.510	0.082	-0.029	
28.515	-0.174	-0.018	
28.520	-0.042	-0.023	
28.525	0.168	-0.026	
28.530	-0.112	-0.014	
28.535	-0.126	-0.014	
28.540	0.163	-0.021	
28.545	-0.020	-0.012	
28.550	-0.179	-0.008	
28.555	0.084	-0.018	
28.560	0.111	-0.015	
28.565	-0.161	-0.004	
28.570	-0.061	-0.011	
28.575	0.134	-0.019	
28.580	-0.130	-0.016	
28.585	-0.135	-0.023	
28.590	0.160	-0.034	
28.595	0.006	-0.024	
28.600	-0.162	-0.014	
28.605	0.119	-0.016	
28.610	0.110	-0.005	
28.615	-0.158	0.009	
28.620	-0.048	0.003	
28.625	0.152	-0.005	
28.630	-0.115	-0.002	
28.635	-0.115	-0.009	
28.640	0.159	-0.019	
28.645	-0.028	-0.012	
28.650	-0.156	-0.009	
28.655	0.124	-0.016	
28.660	0.142	-0.006	
28.665	-0.139	0.013	
28.670	-0.020	0.012	
28.675	0.194	0.010	
28.680	-0.098	0.020	
28.685	-0.089	0.017	
