Vernier Format 2
ecg6.txt 10/20/2025 8:5:4
Run 1
Time	Potential	EKG	
T	P	E	
s	mV	mV	

0.000	-0.061	-0.003	
0.005	-0.024	-0.010	
0.010	-0.134	-0.024	
0.015	-0.142	-0.046	
0.020	-0.072	-0.071	
0.025	-0.140	-0.090	
0.030	-0.188	-0.107	
0.035	-0.107	-0.125	
0.040	-0.116	-0.134	
0.045	-0.197	-0.139	
0.050	-0.148	-0.146	
0.055	-0.095	-0.149	
0.060	-0.169	-0.147	
0.065	-0.148	-0.145	
0.070	-0.050	-0.142	
0.075	-0.107	-0.130	
0.080	-0.140	-0.119	
0.085	-0.047	-0.112	
0.090	-0.043	-0.100	
0.095	-0.130	-0.088	
0.100	-0.067	-0.083	
0.105	-0.002	-0.077	
0.110	-0.099	-0.068	
0.115	-0.089	-0.064	
0.120	0.017	-0.063	
0.125	-0.056	-0.055	
0.130	-0.105	-0.051	
0.135	-0.003	-0.052	
0.140	-0.005	-0.048	
0.145	-0.104	-0.043	
0.150	-0.060	-0.045	
0.155	-0.008	-0.048	
0.160	-0.110	-0.049	
0.165	-0.114	-0.057	
0.170	-0.029	-0.067	
0.175	-0.093	-0.072	
0.180	-0.154	-0.078	
0.185	-0.082	-0.089	
0.190	-0.098	-0.097	
0.195	-0.180	-0.104	
0.200	-0.137	-0.116	
0.205	-0.084	-0.125	
0.210	-0.160	-0.128	
0.215	-0.157	-0.132	
0.220	-0.070	-0.134	
0.225	-0.122	-0.130	
0.230	-0.166	-0.126	
0.235	-0.079	-0.126	
0.240	-0.078	-0.121	
0.245	-0.165	-0.115	
0.250	-0.139	-0.116	
0.255	-0.110	-0.120	
0.260	-0.162	-0.124	
0.265	-0.047	-0.126	
0.270	0.300	-0.101	
0.275	0.514	-0.021	
0.280	0.779	0.119	
0.285	1.155	0.315	
0.290	1.122	0.548	
0.295	0.707	0.750	
0.300	0.256	0.840	
0.305	-0.085	0.782	
0.310	-0.322	0.598	
0.315	-0.392	0.345	
0.320	-0.337	0.091	
0.325	-0.340	-0.116	
0.330	-0.337	-0.259	
0.335	-0.223	-0.338	
0.340	-0.186	-0.360	
0.345	-0.233	-0.342	
0.350	-0.169	-0.308	
0.355	-0.102	-0.266	
0.360	-0.165	-0.221	
0.365	-0.146	-0.184	
0.370	-0.046	-0.156	
0.375	-0.090	-0.128	
0.380	-0.131	-0.107	
0.385	-0.032	-0.095	
0.390	-0.011	-0.081	
0.395	-0.101	-0.066	
0.400	-0.024	-0.058	
0.405	0.076	-0.046	
0.410	-0.014	-0.027	
0.415	0.020	-0.009	
0.420	0.194	0.011	
0.425	0.155	0.045	
0.430	0.108	0.082	
0.435	0.261	0.114	
0.440	0.270	0.150	
0.445	0.142	0.184	
0.450	0.206	0.201	
0.455	0.262	0.210	
0.460	0.107	0.215	
0.465	0.076	0.203	
0.470	0.163	0.179	
0.475	0.044	0.155	
0.480	-0.064	0.123	
0.485	0.009	0.081	
0.490	-0.027	0.042	
0.495	-0.134	0.007	
0.500	-0.102	-0.030	
			
Vernier Format 2
ecg6.txt 10/20/2025 8:5:4
Run 2
Time	Potential	EKG	
T	P	E	
s	mV	mV	

0.000	-0.215	-0.010	
0.005	-0.345	-0.049	
0.010	-0.387	-0.118	
0.015	-0.114	-0.188	
0.020	-0.075	-0.219	
0.025	-0.259	-0.218	
0.030	-0.041	-0.207	
0.035	0.186	-0.170	
0.040	-0.153	-0.113	
0.045	-0.101	-0.074	
0.050	0.251	-0.046	
0.055	-0.012	-0.005	
0.060	-0.107	0.021	
0.065	0.308	0.034	
0.070	0.267	0.070	
0.075	-0.027	0.112	
0.080	0.343	0.138	
0.085	0.573	0.182	
0.090	0.219	0.249	
0.095	0.348	0.298	
0.100	0.748	0.345	
0.105	0.447	0.409	
0.110	0.233	0.452	
0.115	0.617	0.460	
0.120	0.495	0.470	
0.125	0.087	0.466	
0.130	0.311	0.424	
0.135	0.393	0.375	
0.140	-0.093	0.329	
0.145	-0.047	0.252	
0.150	0.335	0.175	
0.155	0.067	0.137	
0.160	-0.093	0.110	
0.165	0.305	0.085	
0.170	0.238	0.092	
0.175	-0.102	0.110	
0.180	0.203	0.109	
0.185	0.361	0.119	
0.190	-0.067	0.142	
0.195	-0.017	0.136	
0.200	0.361	0.121	
0.205	0.046	0.125	
0.210	-0.145	0.119	
0.215	0.189	0.091	
0.220	0.134	0.077	
0.225	-0.212	0.068	
0.230	-0.078	0.034	
0.235	0.026	-0.005	
0.240	-0.262	-0.037	
0.245	-0.210	-0.078	
0.250	0.070	-0.112	
0.255	-0.136	-0.118	
0.260	-0.288	-0.122	
0.265	-0.119	-0.139	
0.270	-0.178	-0.155	
0.275	-0.351	-0.172	
0.280	-0.003	-0.189	
0.285	0.691	-0.148	
0.290	0.779	-0.000	
0.295	1.015	0.223	
0.300	1.192	0.476	
0.305	0.358	0.686	
0.310	-0.197	0.742	
0.315	-0.137	0.624	
0.320	-0.281	0.417	
0.325	-0.453	0.185	
0.330	-0.294	-0.032	
0.335	-0.197	-0.190	
0.340	-0.370	-0.281	
0.345	-0.296	-0.331	
0.350	-0.058	-0.342	
0.355	-0.212	-0.313	
0.360	-0.311	-0.277	
0.365	-0.093	-0.251	
0.370	-0.107	-0.220	
0.375	-0.332	-0.194	
0.380	-0.128	-0.186	
0.385	0.061	-0.173	
0.390	-0.098	-0.139	
0.395	-0.024	-0.104	
0.400	0.293	-0.061	
0.405	0.242	0.009	
0.410	0.344	0.093	
0.415	1.038	0.208	
0.420	1.114	0.389	
0.425	0.867	0.597	
0.430	1.366	0.784	
0.435	1.660	0.974	
0.440	1.334	1.165	
0.445	1.463	1.311	
0.450	1.898	1.425	
0.455	1.555	1.533	
0.460	1.238	1.591	
0.465	1.534	1.583	
0.470	1.409	1.550	
0.475	1.005	1.495	
0.480	1.338	1.412	
0.485	1.514	1.350	
0.490	0.986	1.317	
0.495	0.931	1.262	
0.500	1.349	1.195	
0.505	1.099	1.160	
0.510	0.921	1.135	
0.515	1.288	1.108	
0.520	1.207	1.108	
0.525	0.848	1.113	
0.530	1.162	1.098	
0.535	1.322	1.095	
0.540	0.733	1.101	
0.545	0.599	1.057	
0.550	0.841	0.968	
0.555	0.579	0.878	
0.560	0.384	0.781	
0.565	0.774	0.688	
0.570	0.727	0.637	
0.575	0.319	0.613	
0.580	0.491	0.573	
0.585	0.619	0.536	
0.590	0.107	0.504	
0.595	0.148	0.440	
0.600	0.634	0.375	
0.605	0.683	0.371	
0.610	0.753	0.428	
0.615	1.155	0.531	
0.620	0.922	0.667	
0.625	0.206	0.759	
0.630	0.126	0.732	
0.635	0.094	0.609	
0.640	-0.185	0.442	
0.645	-0.142	0.259	
0.650	0.223	0.110	
0.655	0.015	0.031	
0.660	-0.113	-0.007	
0.665	0.280	-0.021	
0.670	0.363	0.013	
0.675	0.136	0.080	
0.680	0.448	0.148	
0.685	0.703	0.235	
0.690	0.258	0.331	
0.695	0.256	0.385	
0.700	0.559	0.402	
0.705	0.325	0.415	
0.710	0.268	0.413	
0.715	0.747	0.409	
0.720	0.829	0.452	
0.725	0.428	0.520	
0.730	0.748	0.570	
0.735	1.003	0.624	
0.740	0.453	0.684	
0.745	0.337	0.691	
0.750	0.634	0.648	
0.755	0.344	0.597	
0.760	0.087	0.527	
0.765	0.296	0.433	
0.770	0.133	0.344	
0.775	-0.182	0.254	
0.780	-0.110	0.148	
0.785	-0.029	0.048	
0.790	-0.303	-0.031	
0.795	-0.294	-0.108	
0.800	-0.145	-0.173	
0.805	-0.372	-0.218	
0.810	-0.509	-0.264	
0.815	-0.343	-0.318	
0.820	-0.349	-0.357	
0.825	-0.514	-0.382	
0.830	-0.439	-0.408	
0.835	-0.370	-0.426	
0.840	-0.576	-0.438	
0.845	-0.584	-0.460	
0.850	-0.343	-0.482	
0.855	-0.424	-0.482	
0.860	-0.598	-0.476	
0.865	-0.462	-0.481	
0.870	-0.442	-0.485	
0.875	-0.578	-0.487	
0.880	-0.471	-0.493	
0.885	-0.380	-0.493	
0.890	-0.707	-0.491	
0.895	-0.768	-0.518	
0.900	-0.576	-0.566	
0.905	-0.660	-0.604	
0.910	-0.761	-0.634	
0.915	-0.521	-0.656	
0.920	-0.366	-0.646	
0.925	-0.340	-0.596	
0.930	-0.096	-0.514	
0.935	0.175	-0.395	
0.940	-0.212	-0.262	
0.945	-0.308	-0.174	
0.950	-0.261	-0.148	
0.955	-0.453	-0.168	
0.960	-0.617	-0.229	
0.965	-0.540	-0.319	
0.970	-0.576	-0.410	
0.975	-0.723	-0.490	
0.980	-0.511	-0.556	
0.985	-0.419	-0.586	
0.990	-0.581	-0.581	
0.995	-0.523	-0.569	
1.000	-0.346	-0.549	
1.005	-0.399	-0.512	
1.010	-0.374	-0.470	
1.015	-0.224	-0.425	
1.020	-0.287	-0.376	
1.025	-0.396	-0.338	
1.030	-0.256	-0.318	
1.035	-0.037	-0.293	
1.040	-0.197	-0.251	
1.045	-0.291	-0.218	
1.050	-0.168	-0.204	
1.055	-0.250	-0.201	
1.060	-0.149	-0.200	
1.065	0.386	-0.170	
1.070	0.165	-0.087	
1.075	-0.175	-0.006	
1.080	-0.127	0.021	
1.085	0.072	0.014	
1.090	-0.008	0.008	
1.095	0.079	0.010	
1.100	0.215	0.026	
1.105	-0.108	0.048	
1.110	-0.383	0.032	
1.115	-0.285	-0.035	
1.120	-0.274	-0.119	
1.125	-0.311	-0.190	
1.130	-0.050	-0.234	
1.135	-0.038	-0.233	
1.140	-0.314	-0.210	
1.145	-0.250	-0.202	
1.150	-0.053	-0.201	
1.155	-0.055	-0.182	
1.160	-0.047	-0.149	
1.165	-0.015	-0.113	
1.170	-0.185	-0.086	
1.175	-0.409	-0.094	
1.180	-0.297	-0.140	
1.185	-0.294	-0.197	
1.190	-0.502	-0.253	
1.195	-0.454	-0.314	
1.200	-0.102	-0.356	
1.205	-0.360	-0.358	
1.210	-0.569	-0.357	
1.215	-0.268	-0.372	
1.220	-0.098	-0.366	
1.225	-0.195	-0.326	
1.230	-0.096	-0.273	
1.235	-0.143	-0.221	
1.240	-0.343	-0.188	
1.245	-0.157	-0.183	
1.250	0.471	-0.155	
1.255	0.530	-0.052	
1.260	0.575	0.105	
1.265	0.520	0.265	
1.270	-0.131	0.363	
1.275	-0.509	0.332	
1.280	-0.524	0.179	
1.285	-0.401	-0.020	
1.290	-0.643	-0.205	
1.295	-0.724	-0.369	
1.300	-0.569	-0.505	
1.305	-0.674	-0.595	
1.310	-0.761	-0.653	
1.315	-0.570	-0.689	
1.320	-0.570	-0.693	
1.325	-0.659	-0.677	
1.330	-0.617	-0.659	
1.335	-0.529	-0.641	
1.340	-0.557	-0.617	
1.345	-0.273	-0.579	
1.350	0.596	-0.477	
1.355	0.648	-0.267	
1.360	0.724	0.007	
1.365	1.360	0.299	
1.370	1.870	0.633	
1.375	2.044	1.010	
1.380	2.302	1.390	
1.385	2.227	1.730	
1.390	1.648	1.966	
1.395	1.547	2.045	
1.400	1.744	2.006	
1.405	1.376	1.912	
1.410	0.883	1.761	
1.415	0.759	1.542	
1.420	0.344	1.277	
1.425	-0.165	0.969	
1.430	-0.142	0.634	
1.435	-0.192	0.322	
1.440	-0.488	0.063	
1.445	-0.590	-0.158	
1.450	-0.432	-0.334	
1.455	-0.483	-0.448	
1.460	-0.477	-0.508	
1.465	-0.247	-0.522	
1.470	-0.178	-0.485	
1.475	-0.194	-0.414	
1.480	0.360	-0.313	
1.485	1.101	-0.130	
1.490	1.029	0.150	
1.495	1.349	0.467	
1.500	1.919	0.798	
1.505	1.823	1.137	
1.510	1.716	1.429	
1.515	2.156	1.652	
1.520	2.346	1.842	
1.525	2.311	2.019	
1.530	2.712	2.180	
1.535	2.715	2.338	
1.540	1.989	2.453	
1.545	1.628	2.440	
1.550	1.651	2.302	
1.555	1.319	2.097	
1.560	1.096	1.858	
1.565	1.541	1.631	
1.570	1.781	1.493	
1.575	1.895	1.472	
1.580	2.271	1.552	
1.585	1.965	1.693	
1.590	0.712	1.768	
1.595	-0.239	1.625	
1.600	-0.695	1.233	
1.605	-0.996	0.691	
1.610	-0.996	0.128	
1.615	-0.997	-0.357	
1.620	-0.997	-0.713	
1.625	-0.997	-0.941	
1.630	-0.997	-1.063	
1.635	-0.997	-1.111	
1.640	-0.997	-1.114	
1.645	-0.997	-1.093	
1.650	-0.997	-1.066	
1.655	-0.997	-1.039	
1.660	-0.996	-1.019	
1.665	-0.997	-1.004	
1.670	-0.996	-0.996	
1.675	-0.997	-0.992	
1.680	-0.996	-0.991	
1.685	-0.996	-0.991	
1.690	-0.965	-0.991	
1.695	-0.288	-0.956	
1.700	1.578	-0.761	
1.705	2.936	-0.257	
1.710	3.069	0.524	
1.715	3.058	1.371	
1.720	3.052	2.099	
1.725	3.052	2.633	
1.730	3.049	2.973	
1.735	3.044	3.154	
1.740	3.047	3.223	
1.745	3.047	3.225	
1.750	3.041	3.192	
1.755	3.037	3.149	
1.760	3.032	3.106	
1.765	3.021	3.072	
1.770	3.021	3.046	
1.775	3.020	3.029	
1.780	3.024	3.019	
1.785	3.034	3.015	
1.790	3.050	3.017	
1.795	3.063	3.024	
1.800	3.069	3.034	
1.805	2.078	3.000	
1.810	1.032	2.810	
1.815	0.581	2.416	
1.820	-0.142	1.871	
1.825	-0.697	1.239	
1.830	-0.942	0.586	
1.835	-0.994	-0.009	
1.840	-0.996	-0.481	
1.845	-0.996	-0.808	
1.850	-0.996	-1.003	
1.855	-0.996	-1.098	
1.860	-0.996	-1.126	
1.865	-0.994	-1.115	
1.870	-0.994	-1.088	
1.875	-0.996	-1.057	
1.880	-0.996	-1.031	
1.885	-0.996	-1.011	
1.890	-0.996	-0.999	
1.895	-0.994	-0.992	
1.900	-0.794	-0.980	
1.905	-0.698	-0.944	
1.910	-0.785	-0.890	
1.915	-0.778	-0.840	
1.920	-0.980	-0.813	
1.925	-0.996	-0.822	
1.930	-0.996	-0.858	
1.935	-0.996	-0.901	
1.940	-0.996	-0.940	
1.945	-0.996	-0.969	
1.950	-0.996	-0.988	
1.955	-0.996	-0.999	
1.960	-0.994	-1.004	
1.965	-0.997	-1.004	
1.970	-0.996	-1.003	
1.975	-0.996	-1.001	
1.980	-0.996	-0.999	
1.985	-0.985	-0.997	
1.990	-0.996	-0.995	
1.995	-0.994	-0.993	
2.000	-0.768	-0.982	
2.005	-0.799	-0.949	
2.010	-0.880	-0.908	
2.015	-0.656	-0.868	
2.020	-0.489	-0.812	
2.025	-0.514	-0.734	
2.030	-0.319	-0.644	
2.035	-0.139	-0.541	
2.040	-0.284	-0.431	
2.045	-0.273	-0.343	
2.050	-0.079	-0.278	
2.055	-0.221	-0.225	
2.060	-0.358	-0.198	
2.065	-0.198	-0.200	
2.070	-0.220	-0.210	
2.075	-0.418	-0.224	
2.080	-0.339	-0.254	
2.085	-0.258	-0.285	
2.090	-0.464	-0.308	
2.095	-0.459	-0.338	
2.100	-0.250	-0.366	
2.105	-0.343	-0.372	
2.110	-0.505	-0.373	
2.115	-0.398	-0.385	
2.120	-0.474	-0.402	
2.125	-0.784	-0.435	
2.130	-0.831	-0.503	
2.135	-0.843	-0.595	
2.140	-0.996	-0.693	
2.145	-0.996	-0.790	
2.150	-0.954	-0.874	
2.155	-0.996	-0.933	
2.160	-0.996	-0.972	
2.165	-0.907	-0.992	
2.170	-0.864	-0.988	
2.175	-0.977	-0.970	
2.180	-0.819	-0.950	
2.185	-0.630	-0.915	
2.190	-0.724	-0.858	
2.195	-0.701	-0.800	
2.200	-0.515	-0.746	
2.205	-0.579	-0.688	
2.210	-0.599	-0.637	
2.215	-0.302	-0.591	
2.220	-0.076	-0.518	
2.225	-0.178	-0.416	
2.230	-0.085	-0.313	
2.235	-0.114	-0.226	
2.240	-0.491	-0.178	
2.245	-0.634	-0.202	
2.250	-0.531	-0.282	
2.255	-0.617	-0.376	
2.260	-0.683	-0.466	
2.265	-0.459	-0.537	
2.270	-0.378	-0.564	
2.275	-0.489	-0.552	
2.280	-0.342	-0.522	
2.285	-0.175	-0.474	
2.290	-0.322	-0.409	
2.295	-0.311	-0.354	
2.300	-0.079	-0.309	
2.305	-0.174	-0.259	
2.310	-0.271	-0.219	
2.315	0.001	-0.192	
2.320	0.085	-0.152	
2.325	-0.153	-0.103	
2.330	0.064	-0.067	
2.335	0.357	-0.022	
2.340	0.160	0.048	
2.345	0.302	0.118	
2.350	0.790	0.203	
2.355	0.666	0.324	
2.360	0.457	0.443	
2.365	0.844	0.532	
2.370	0.838	0.615	
2.375	0.387	0.677	
2.380	0.529	0.681	
2.385	0.677	0.655	
2.390	0.235	0.619	
2.395	0.149	0.547	
2.400	0.471	0.457	
2.405	0.190	0.387	
2.410	-0.067	0.318	
2.415	0.230	0.238	
2.420	0.241	0.184	
2.425	-0.113	0.152	
2.430	0.053	0.111	
2.435	0.297	0.083	
2.440	-0.052	0.082	
2.445	-0.055	0.073	
2.450	0.303	0.061	
2.455	0.078	0.073	
2.460	-0.125	0.081	
2.465	0.186	0.071	
2.470	0.180	0.072	
2.475	-0.168	0.077	
2.480	-0.073	0.055	
2.485	0.093	0.023	
2.490	-0.194	-0.000	
2.495	-0.210	-0.035	
2.500	0.050	-0.072	
2.505	-0.142	-0.088	
2.510	-0.279	-0.104	
2.515	-0.066	-0.127	
2.520	-0.040	-0.136	
2.525	-0.287	-0.136	
2.530	-0.137	-0.145	
2.535	0.242	-0.137	
2.540	0.180	-0.084	
2.545	0.421	0.005	
2.550	0.814	0.132	
2.555	0.424	0.285	
2.560	-0.114	0.378	
2.565	-0.047	0.362	
2.570	-0.171	0.269	
2.575	-0.430	0.136	
2.580	-0.316	-0.017	
2.585	-0.154	-0.145	
2.590	-0.311	-0.224	
2.595	-0.297	-0.271	
2.600	-0.003	-0.286	
2.605	-0.122	-0.261	
2.610	-0.255	-0.223	
2.615	0.001	-0.192	
2.620	0.075	-0.150	
2.625	-0.183	-0.103	
2.630	0.001	-0.074	
2.635	0.265	-0.042	
2.640	-0.063	0.003	
2.645	-0.084	0.027	
2.650	0.378	0.041	
2.655	0.218	0.081	
2.660	-0.029	0.122	
2.665	0.320	0.142	
2.670	0.283	0.167	
2.675	-0.072	0.186	
2.680	0.160	0.175	
2.685	0.389	0.166	
2.690	0.044	0.177	
2.695	-0.037	0.170	
2.700	0.294	0.147	
2.705	0.091	0.138	
2.710	-0.149	0.124	
2.715	0.145	0.091	
2.720	0.155	0.071	
2.725	-0.169	0.062	
2.730	-0.040	0.036	
2.735	0.207	0.014	
2.740	-0.110	0.013	
2.745	-0.136	0.003	
2.750	0.206	-0.010	
2.755	0.059	0.001	
2.760	-0.157	0.013	
2.765	0.152	0.013	
2.770	0.192	0.025	
2.775	-0.171	0.044	
2.780	-0.034	0.037	
2.785	0.218	0.025	
2.790	-0.139	0.027	
2.795	-0.160	0.013	
2.800	0.171	-0.010	
2.805	-0.040	-0.013	
2.810	-0.218	-0.017	
2.815	0.004	-0.038	
2.820	0.015	-0.051	
2.825	-0.249	-0.057	
2.830	-0.116	-0.077	
2.835	0.090	-0.091	
2.840	-0.206	-0.088	
2.845	-0.233	-0.095	
2.850	0.131	-0.106	
2.855	0.049	-0.089	
2.860	0.014	-0.052	
2.865	0.727	0.012	
2.870	0.933	0.152	
2.875	0.463	0.334	
2.880	0.376	0.465	
2.885	0.256	0.512	
2.890	-0.218	0.471	
2.895	-0.339	0.340	
2.900	-0.162	0.164	
2.905	-0.226	0.007	
2.910	-0.326	-0.116	
2.915	-0.072	-0.198	
2.920	-0.018	-0.225	
2.925	-0.235	-0.212	
2.930	-0.079	-0.193	
2.935	0.201	-0.157	
2.940	-0.102	-0.100	
2.945	-0.120	-0.059	
2.950	0.258	-0.032	
2.955	0.078	0.009	
2.960	-0.102	0.042	
2.965	0.274	0.057	
2.970	0.332	0.090	
2.975	-0.041	0.131	
2.980	0.178	0.147	
2.985	0.511	0.165	
2.990	0.186	0.208	
2.995	0.155	0.239	
3.000	0.578	0.259	
3.005	0.410	0.301	
3.010	0.096	0.335	
3.015	0.384	0.335	
3.020	0.395	0.332	
3.025	-0.026	0.322	
3.030	0.116	0.278	
3.035	0.315	0.230	
3.040	-0.052	0.196	
3.045	-0.087	0.148	
3.050	0.261	0.099	
3.055	0.021	0.078	
3.060	-0.186	0.058	
3.065	0.091	0.026	
3.070	0.145	0.012	
3.075	-0.166	0.013	
3.080	-0.014	0.001	
3.085	0.265	-0.001	
3.090	-0.069	0.018	
3.095	-0.119	0.025	
3.100	0.235	0.020	
3.105	0.026	0.032	
3.110	-0.168	0.037	
3.115	0.105	0.023	
3.120	0.105	0.019	
3.125	-0.204	0.019	
3.130	-0.098	-0.004	
3.135	0.140	-0.026	
3.140	-0.154	-0.031	
3.145	-0.194	-0.044	
3.150	0.094	-0.063	
3.155	-0.060	-0.064	
3.160	-0.226	-0.064	
3.165	-0.024	-0.077	
3.170	0.024	-0.081	
3.175	-0.197	-0.076	
3.180	0.001	-0.076	
3.185	0.509	-0.048	
3.190	0.459	0.043	
3.195	0.456	0.167	
3.200	0.729	0.294	
3.205	0.238	0.401	
3.210	-0.224	0.425	
3.215	-0.156	0.342	
3.220	-0.191	0.204	
3.225	-0.403	0.055	
3.230	-0.274	-0.087	
3.235	-0.069	-0.187	
3.240	-0.213	-0.231	
3.245	-0.203	-0.242	
3.250	0.143	-0.225	
3.255	-0.012	-0.172	
3.260	-0.168	-0.116	
3.265	0.151	-0.076	
3.270	0.203	-0.027	
3.275	-0.133	0.021	
3.280	0.017	0.039	
3.285	0.297	0.050	
3.290	-0.029	0.073	
3.295	-0.064	0.079	
3.300	0.361	0.077	
3.305	0.232	0.102	
3.310	0.003	0.134	
3.315	0.422	0.156	
3.320	0.506	0.200	
3.325	0.131	0.257	
3.330	0.312	0.287	
3.335	0.553	0.310	
3.340	0.161	0.337	
3.345	0.058	0.331	
3.350	0.387	0.297	
3.355	0.183	0.273	
3.360	-0.076	0.242	
3.365	0.216	0.193	
3.370	0.221	0.160	
3.375	-0.127	0.139	
3.380	0.001	0.102	
3.385	0.267	0.071	
3.390	-0.050	0.065	
3.395	-0.085	0.054	
3.400	0.294	0.042	
3.405	0.120	0.057	
3.410	-0.116	0.073	
3.415	0.180	0.071	
3.420	0.218	0.078	
3.425	-0.130	0.089	
3.430	-0.014	0.076	
3.435	0.239	0.059	
3.440	-0.089	0.057	
3.445	-0.162	0.041	
3.450	0.093	0.011	
3.455	-0.081	-0.008	
3.460	-0.238	-0.031	
3.465	-0.043	-0.064	
3.470	-0.012	-0.084	
3.475	-0.250	-0.093	
3.480	-0.148	-0.110	
3.485	0.046	-0.122	
3.490	-0.215	-0.118	
3.495	-0.253	-0.123	
3.500	0.038	-0.135	
3.505	0.032	-0.122	
3.510	0.046	-0.087	
3.515	0.704	-0.015	
3.520	0.837	0.129	
3.525	0.302	0.299	
3.530	0.119	0.400	
3.535	0.032	0.402	
3.540	-0.322	0.322	
3.545	-0.407	0.177	
3.550	-0.201	0.011	
3.555	-0.229	-0.121	
3.560	-0.317	-0.208	
3.565	-0.090	-0.257	
3.570	-0.002	-0.256	
3.575	-0.209	-0.223	
3.580	-0.072	-0.188	
3.585	0.216	-0.142	
3.590	-0.081	-0.081	
3.595	-0.111	-0.038	
3.600	0.248	-0.013	
3.605	0.113	0.025	
3.610	-0.082	0.057	
3.615	0.288	0.073	
3.620	0.393	0.109	
3.625	0.046	0.158	
3.630	0.283	0.188	
3.635	0.639	0.226	
3.640	0.367	0.292	
3.645	0.352	0.350	
3.650	0.762	0.399	
3.655	0.602	0.463	
3.660	0.306	0.514	
3.665	0.611	0.529	
3.670	0.622	0.538	
3.675	0.158	0.536	
3.680	0.262	0.491	
3.685	0.469	0.432	
3.690	0.090	0.383	
3.695	-0.008	0.317	
3.700	0.337	0.246	
3.705	0.117	0.201	
3.710	-0.128	0.163	
3.715	0.148	0.114	
3.720	0.213	0.087	
3.725	-0.117	0.078	
3.730	0.004	0.059	
3.735	0.270	0.046	
3.740	-0.070	0.053	
3.745	-0.127	0.047	
3.750	0.204	0.030	
3.755	0.026	0.030	
3.760	-0.188	0.028	
3.765	0.001	0.005	
3.770	0.029	-0.014	
3.775	-0.244	-0.029	
3.780	-0.175	-0.061	
3.785	-0.009	-0.093	
3.790	-0.233	-0.111	
3.795	-0.290	-0.135	
3.800	-0.070	-0.163	
3.805	-0.160	-0.173	
3.810	-0.325	-0.180	
3.815	-0.175	-0.195	
3.820	-0.145	-0.204	
3.825	-0.294	-0.206	
3.830	-0.040	-0.205	
3.835	0.631	-0.155	
3.840	0.636	-0.016	
3.845	0.602	0.171	
3.850	0.770	0.352	
3.855	0.130	0.481	
3.860	-0.331	0.487	
3.865	-0.294	0.363	
3.870	-0.303	0.178	
3.875	-0.467	-0.009	
3.880	-0.337	-0.172	
3.885	-0.136	-0.279	
3.890	-0.265	-0.321	
3.895	-0.259	-0.325	
3.900	0.017	-0.302	
3.905	-0.087	-0.250	
3.910	-0.233	-0.196	
3.915	0.001	-0.159	
3.920	0.114	-0.117	
3.925	-0.157	-0.071	
3.930	-0.029	-0.046	
3.935	0.273	-0.023	
3.940	-0.012	0.016	
3.945	-0.035	0.042	
3.950	0.413	0.063	
3.955	0.331	0.113	
3.960	0.116	0.171	
3.965	0.527	0.219	
3.970	0.639	0.285	
3.975	0.255	0.360	
3.980	0.383	0.401	
3.985	0.613	0.423	
3.990	0.236	0.440	
3.995	0.094	0.422	
4.000	0.418	0.374	
4.005	0.197	0.334	
4.010	-0.113	0.284	
4.015	0.123	0.212	
4.020	0.157	0.151	
4.025	-0.168	0.105	
4.030	-0.096	0.051	
4.035	0.136	0.004	
4.040	-0.131	-0.017	
4.045	-0.166	-0.038	
4.050	0.146	-0.056	
4.055	0.004	-0.049	
4.060	-0.182	-0.037	
4.065	0.049	-0.039	
4.070	0.096	-0.032	
4.075	-0.195	-0.021	
4.080	-0.114	-0.030	
4.085	0.082	-0.045	
4.090	-0.194	-0.051	
4.095	-0.265	-0.070	
4.100	-0.069	-0.104	
4.105	-0.168	-0.127	
4.110	-0.331	-0.149	
4.115	-0.165	-0.178	
4.120	-0.128	-0.196	
4.125	-0.332	-0.204	
4.130	-0.247	-0.218	
4.135	-0.114	-0.228	
4.140	-0.332	-0.228	
4.145	-0.387	-0.240	
4.150	-0.084	-0.256	
4.155	0.085	-0.239	
4.160	0.312	-0.168	
4.165	1.113	-0.018	
4.170	1.230	0.233	
4.175	0.520	0.502	
4.180	0.073	0.650	
4.185	-0.096	0.629	
4.190	-0.428	0.477	
4.195	-0.528	0.246	
4.200	-0.305	0.005	
4.205	-0.319	-0.182	
4.210	-0.421	-0.303	
4.215	-0.195	-0.369	
4.220	-0.111	-0.376	
4.225	-0.294	-0.343	
4.230	-0.185	-0.304	
4.235	0.037	-0.258	
4.240	-0.171	-0.201	
4.245	-0.204	-0.159	
4.250	0.134	-0.130	
4.255	0.012	-0.088	
4.260	-0.154	-0.051	
4.265	0.151	-0.030	
4.270	0.303	0.007	
4.275	-0.021	0.057	
4.280	0.210	0.093	
4.285	0.594	0.140	
4.290	0.320	0.216	
4.295	0.253	0.282	
4.300	0.658	0.331	
4.305	0.508	0.390	
4.310	0.166	0.432	
4.315	0.437	0.432	
4.320	0.419	0.419	
4.325	-0.043	0.393	
4.330	0.021	0.324	
4.335	0.239	0.241	
4.340	-0.098	0.174	
4.345	-0.186	0.103	
4.350	0.076	0.031	
4.355	-0.060	-0.015	
4.360	-0.250	-0.048	
4.365	-0.050	-0.084	
4.370	0.038	-0.100	
4.375	-0.221	-0.099	
4.380	-0.140	-0.105	
4.385	0.084	-0.108	
4.390	-0.172	-0.096	
4.395	-0.241	-0.096	
4.400	-0.014	-0.109	
4.405	-0.120	-0.113	
4.410	-0.299	-0.120	
4.415	-0.146	-0.141	
4.420	-0.111	-0.158	
4.425	-0.343	-0.170	
4.430	-0.287	-0.194	
4.435	-0.133	-0.219	
4.440	-0.308	-0.230	
4.445	-0.354	-0.244	
4.450	-0.139	-0.259	
4.455	-0.224	-0.258	
4.460	-0.418	-0.257	
4.465	-0.291	-0.271	
4.470	-0.226	-0.284	
4.475	-0.323	-0.288	
4.480	-0.014	-0.277	
4.485	0.835	-0.198	
4.490	0.890	-0.006	
4.495	0.758	0.246	
4.500	0.767	0.470	
4.505	0.021	0.601	
4.510	-0.424	0.572	
4.515	-0.387	0.396	
4.520	-0.366	0.164	
4.525	-0.517	-0.055	
4.530	-0.390	-0.236	
4.535	-0.175	-0.349	
4.540	-0.294	-0.388	
4.545	-0.310	-0.385	
4.550	-0.053	-0.357	
4.555	-0.102	-0.302	
4.560	-0.247	-0.242	
4.565	-0.015	-0.196	
4.570	0.116	-0.145	
4.575	-0.163	-0.090	
4.580	-0.047	-0.059	
4.585	0.282	-0.031	
4.590	0.023	0.013	
4.595	-0.005	0.047	
4.600	0.460	0.077	
4.605	0.404	0.139	
4.610	0.157	0.209	
4.615	0.562	0.264	
4.620	0.710	0.334	
4.625	0.319	0.413	
4.630	0.415	0.457	
4.635	0.675	0.479	
4.640	0.279	0.495	
4.645	0.097	0.473	
4.650	0.424	0.416	
4.655	0.229	0.366	
4.660	-0.098	0.310	
4.665	0.140	0.233	
4.670	0.195	0.170	
4.675	-0.157	0.124	
4.680	-0.090	0.070	
4.685	0.172	0.022	
4.690	-0.104	0.002	
4.695	-0.163	-0.018	
4.700	0.163	-0.036	
4.705	0.044	-0.029	
4.710	-0.188	-0.018	
4.715	0.018	-0.023	
4.720	0.097	-0.024	
4.725	-0.200	-0.019	
4.730	-0.125	-0.033	
4.735	0.111	-0.049	
4.740	-0.171	-0.052	
4.745	-0.265	-0.066	
4.750	-0.060	-0.096	
4.755	-0.153	-0.118	
4.760	-0.322	-0.139	
4.765	-0.145	-0.167	
4.770	-0.081	-0.182	
4.775	-0.316	-0.184	
4.780	-0.244	-0.195	
4.785	-0.084	-0.206	
4.790	-0.277	-0.205	
4.795	-0.325	-0.211	
4.800	0.014	-0.217	
4.805	0.175	-0.186	
4.810	0.227	-0.109	
4.815	0.703	0.011	
4.820	0.692	0.175	
4.825	-0.044	0.317	
4.830	-0.223	0.346	
4.835	-0.230	0.264	
4.840	-0.456	0.122	
4.845	-0.517	-0.047	
4.850	-0.277	-0.203	
4.855	-0.282	-0.305	
4.860	-0.387	-0.355	
4.865	-0.172	-0.371	
4.870	-0.073	-0.348	
4.875	-0.279	-0.300	
4.880	-0.195	-0.259	
4.885	0.032	-0.220	
4.890	-0.178	-0.175	
4.895	-0.230	-0.146	
4.900	0.072	-0.131	
4.905	-0.058	-0.106	
4.910	-0.239	-0.087	
4.915	0.000	-0.087	
4.920	0.160	-0.074	
4.925	-0.131	-0.046	
4.930	0.006	-0.028	
4.935	0.386	-0.001	
4.940	0.128	0.054	
4.945	0.044	0.102	
4.950	0.462	0.139	
4.955	0.288	0.189	
4.960	-0.075	0.223	
4.965	0.154	0.212	
4.970	0.204	0.188	
4.975	-0.154	0.160	
4.980	-0.079	0.108	
4.985	0.158	0.056	
4.990	-0.153	0.024	
4.995	-0.233	-0.014	
5.000	0.041	-0.057	
5.005	-0.070	-0.077	
5.010	-0.258	-0.090	
5.015	-0.069	-0.110	
5.020	0.027	-0.116	
5.025	-0.210	-0.108	
5.030	-0.124	-0.108	
5.035	0.166	-0.102	
5.040	-0.110	-0.075	
5.045	-0.204	-0.060	
5.050	0.055	-0.063	
5.055	-0.072	-0.061	
5.060	-0.279	-0.065	
5.065	-0.120	-0.090	
5.070	-0.066	-0.113	
5.075	-0.303	-0.129	
5.080	-0.252	-0.155	
5.085	-0.096	-0.181	
5.090	-0.270	-0.194	
5.095	-0.322	-0.208	
5.100	-0.096	-0.224	
5.105	-0.172	-0.221	
5.110	-0.360	-0.216	
5.115	-0.195	-0.224	
5.120	-0.101	-0.226	
5.125	-0.262	-0.215	
5.130	-0.032	-0.201	
5.135	0.631	-0.143	
5.140	0.399	-0.012	
5.145	0.155	0.127	
5.150	0.279	0.218	
5.155	-0.153	0.248	
5.160	-0.453	0.195	
5.165	-0.357	0.068	
5.170	-0.319	-0.076	
5.175	-0.482	-0.201	
5.180	-0.370	-0.301	
5.185	-0.139	-0.358	
5.190	-0.256	-0.361	
5.195	-0.293	-0.340	
5.200	-0.047	-0.308	
5.205	-0.101	-0.258	
5.210	-0.250	-0.208	
5.215	-0.037	-0.175	
5.220	0.120	-0.136	
5.225	-0.168	-0.090	
5.230	-0.067	-0.064	
5.235	0.282	-0.040	
5.240	-0.003	0.002	
5.245	-0.082	0.031	
5.250	0.367	0.049	
5.255	0.343	0.094	
5.260	0.073	0.151	
5.265	0.436	0.194	
5.270	0.575	0.249	
5.275	0.177	0.312	
5.280	0.256	0.340	
5.285	0.527	0.347	
5.290	0.152	0.354	
5.295	-0.031	0.329	
5.300	0.303	0.274	
5.305	0.177	0.231	
5.310	-0.139	0.192	
5.315	0.084	0.136	
5.320	0.195	0.094	
5.325	-0.149	0.071	
5.330	-0.081	0.038	
5.335	0.198	0.009	
5.340	-0.082	0.004	
5.345	-0.163	-0.005	
5.350	0.152	-0.020	
5.355	0.082	-0.014	
5.360	-0.166	-0.001	
5.365	0.073	-0.003	
5.370	0.174	0.004	
5.375	-0.166	0.018	
5.380	-0.110	0.010	
5.385	0.161	-0.007	
5.390	-0.130	-0.010	
5.395	-0.215	-0.024	
5.400	0.015	-0.051	
5.405	-0.095	-0.068	
5.410	-0.282	-0.085	
5.415	-0.099	-0.113	
5.420	0.015	-0.127	
5.425	-0.233	-0.124	
5.430	-0.186	-0.130	
5.435	-0.031	-0.138	
5.440	-0.226	-0.138	
5.445	-0.259	-0.147	
5.450	0.180	-0.150	
5.455	0.338	-0.104	
5.460	0.287	-0.009	
5.465	0.736	0.115	
5.470	0.815	0.274	
5.475	0.157	0.418	
5.480	-0.082	0.460	
5.485	-0.055	0.393	
5.490	-0.328	0.263	
5.495	-0.413	0.099	
5.500	-0.189	-0.062	
5.505	-0.201	-0.175	
5.510	-0.329	-0.241	
5.515	-0.108	-0.274	
5.520	0.033	-0.263	
5.525	-0.220	-0.221	
5.530	-0.128	-0.184	
5.535	0.198	-0.145	
5.540	-0.060	-0.089	
5.545	-0.128	-0.048	
5.550	0.229	-0.022	
5.555	0.163	0.017	
5.560	-0.117	0.053	
5.565	0.175	0.066	
5.570	0.340	0.087	
5.575	-0.017	0.119	
5.580	0.119	0.133	
5.585	0.518	0.149	
5.590	0.264	0.195	
5.595	0.096	0.234	
5.600	0.479	0.254	
5.605	0.352	0.281	
5.610	-0.014	0.297	
5.615	0.274	0.277	
5.620	0.367	0.258	
5.625	-0.055	0.245	
5.630	0.000	0.205	
5.635	0.282	0.158	
5.640	-0.043	0.130	
5.645	-0.149	0.094	
5.650	0.166	0.051	
5.655	0.062	0.032	
5.660	-0.153	0.023	
5.665	0.093	0.007	
5.670	0.241	0.011	
5.675	-0.114	0.032	
5.680	-0.043	0.035	
5.685	0.265	0.033	
5.690	-0.047	0.046	
5.695	-0.127	0.046	
5.700	0.223	0.034	
5.705	0.151	0.044	
5.710	-0.145	0.058	
5.715	0.037	0.049	
5.720	0.107	0.038	
5.725	-0.213	0.027	
5.730	-0.177	-0.007	
5.735	0.072	-0.045	
5.740	-0.165	-0.064	
5.745	-0.250	-0.085	
5.750	-0.002	-0.111	
5.755	-0.084	-0.118	
5.760	-0.311	-0.123	
5.765	-0.171	-0.142	
5.770	-0.040	-0.158	
5.775	-0.207	-0.157	
5.780	0.035	-0.147	
5.785	0.706	-0.089	
5.790	0.543	0.048	
5.795	0.326	0.204	
5.800	0.471	0.320	
5.805	0.017	0.377	
5.810	-0.351	0.343	
5.815	-0.279	0.218	
5.820	-0.213	0.065	
5.825	-0.374	-0.072	
5.830	-0.285	-0.184	
5.835	-0.052	-0.251	
5.840	-0.186	-0.264	
5.845	-0.238	-0.252	
5.850	0.041	-0.229	
5.855	-0.023	-0.183	
5.860	-0.223	-0.137	
5.865	0.008	-0.111	
5.870	0.183	-0.078	
5.875	-0.140	-0.037	
5.880	-0.072	-0.018	
5.885	0.241	-0.007	
5.890	-0.014	0.018	
5.895	-0.096	0.032	
5.900	0.328	0.039	
5.905	0.287	0.074	
5.910	-0.008	0.119	
5.915	0.323	0.146	
5.920	0.495	0.185	
5.925	0.090	0.235	
5.930	0.165	0.255	
5.935	0.480	0.259	
5.940	0.136	0.271	
5.945	-0.066	0.259	
5.950	0.253	0.217	
5.955	0.140	0.183	
5.960	-0.162	0.150	
5.965	0.027	0.099	
5.970	0.157	0.058	
5.975	-0.165	0.035	
5.980	-0.133	0.003	
5.985	0.145	-0.026	
5.990	-0.102	-0.033	
5.995	-0.198	-0.042	
6.000	0.102	-0.057	
6.005	0.040	-0.052	
6.010	-0.188	-0.040	
6.015	0.018	-0.042	
6.020	0.142	-0.035	
6.025	-0.160	-0.019	
6.030	-0.108	-0.021	
6.035	0.149	-0.028	
6.040	-0.117	-0.023	
6.045	-0.226	-0.031	
6.050	-0.005	-0.056	
6.055	-0.089	-0.072	
6.060	-0.284	-0.089	
6.065	-0.119	-0.116	
6.070	-0.023	-0.133	
6.075	-0.265	-0.137	
6.080	-0.215	-0.149	
6.085	-0.040	-0.161	
6.090	-0.241	-0.162	
6.095	-0.323	-0.172	
6.100	-0.034	-0.187	
6.105	0.070	-0.175	
6.110	0.056	-0.129	
6.115	0.611	-0.046	
6.120	0.764	0.097	
6.125	0.149	0.256	
6.130	-0.122	0.330	
6.135	-0.124	0.295	
6.140	-0.383	0.189	
6.145	-0.494	0.038	
6.150	-0.274	-0.119	
6.155	-0.267	-0.235	
6.160	-0.398	-0.304	
6.165	-0.188	-0.340	
6.170	-0.050	-0.332	
6.175	-0.258	-0.293	
6.180	-0.198	-0.255	
6.185	0.064	-0.216	
6.190	-0.140	-0.167	
6.195	-0.218	-0.132	
6.200	0.102	-0.112	
6.205	0.059	-0.080	
6.210	-0.178	-0.047	
6.215	0.055	-0.034	
6.220	0.255	-0.012	
6.225	-0.066	0.024	
6.230	0.056	0.045	
6.235	0.453	0.070	
6.240	0.190	0.123	
6.245	0.064	0.168	
6.250	0.489	0.196	
6.255	0.399	0.240	
6.260	0.001	0.277	
6.265	0.235	0.273	
6.270	0.346	0.259	
6.275	-0.070	0.244	
6.280	-0.047	0.198	
6.285	0.230	0.142	
6.290	-0.075	0.104	
6.295	-0.200	0.061	
6.300	0.056	0.009	
6.305	-0.014	-0.023	
6.310	-0.229	-0.044	
6.315	-0.049	-0.070	
6.320	0.088	-0.081	
6.325	-0.191	-0.074	
6.330	-0.145	-0.077	
6.335	0.148	-0.080	
6.340	-0.107	-0.065	
6.345	-0.212	-0.058	
6.350	0.055	-0.066	
6.355	-0.027	-0.064	
6.360	-0.265	-0.063	
6.365	-0.124	-0.083	
6.370	-0.034	-0.102	
6.375	-0.299	-0.115	
6.380	-0.279	-0.143	
6.385	-0.089	-0.173	
6.390	-0.258	-0.189	
6.395	-0.364	-0.207	
6.400	-0.154	-0.230	
6.405	-0.192	-0.239	
6.410	-0.383	-0.242	
6.415	-0.250	-0.254	
6.420	-0.180	-0.262	
6.425	-0.361	-0.263	
6.430	-0.229	-0.267	
6.435	0.331	-0.242	
6.440	0.441	-0.145	
6.445	0.427	0.005	
6.450	0.730	0.171	
6.455	0.250	0.320	
6.460	-0.326	0.376	
6.465	-0.317	0.301	
6.470	-0.302	0.150	
6.475	-0.499	-0.017	
6.480	-0.424	-0.176	
6.485	-0.185	-0.292	
6.490	-0.268	-0.344	
6.495	-0.314	-0.354	
6.500	-0.050	-0.337	
6.505	-0.072	-0.289	
6.510	-0.253	-0.233	
6.515	-0.063	-0.192	
6.520	0.105	-0.149	
6.525	-0.172	-0.101	
6.530	-0.111	-0.075	
6.535	0.245	-0.056	
6.540	0.014	-0.018	
6.545	-0.084	0.013	
6.550	0.354	0.035	
6.555	0.349	0.084	
6.560	0.081	0.145	
6.565	0.434	0.192	
6.570	0.625	0.252	
6.575	0.233	0.324	
6.580	0.306	0.364	
6.585	0.640	0.385	
6.590	0.317	0.412	
6.595	0.085	0.412	
6.600	0.430	0.378	
6.605	0.297	0.349	
6.610	-0.089	0.314	
6.615	0.113	0.249	
6.620	0.232	0.188	
6.625	-0.142	0.144	
6.630	-0.120	0.087	
6.635	0.174	0.034	
6.640	-0.089	0.008	
6.645	-0.192	-0.016	
6.650	0.130	-0.040	
6.655	0.076	-0.038	
6.660	-0.178	-0.025	
6.665	0.015	-0.027	
6.670	0.149	-0.022	
6.675	-0.171	-0.009	
6.680	-0.140	-0.017	
6.685	0.145	-0.031	
6.690	-0.111	-0.031	
6.695	-0.232	-0.039	
6.700	-0.021	-0.064	
6.705	-0.101	-0.081	
6.710	-0.314	-0.100	
6.715	-0.174	-0.132	
6.720	-0.079	-0.158	
6.725	-0.302	-0.171	
6.730	-0.267	-0.189	
6.735	-0.075	-0.205	
6.740	-0.270	-0.207	
6.745	-0.404	-0.217	
6.750	-0.185	-0.240	
6.755	-0.120	-0.248	
6.760	-0.120	-0.232	
6.765	0.668	-0.167	
6.770	1.232	0.009	
6.775	0.822	0.276	
6.780	0.521	0.513	
6.785	0.302	0.635	
6.790	-0.265	0.617	
6.795	-0.486	0.462	
6.800	-0.310	0.229	
6.805	-0.305	0.007	
6.810	-0.432	-0.166	
6.815	-0.227	-0.285	
6.820	-0.075	-0.335	
6.825	-0.271	-0.328	
6.830	-0.223	-0.302	
6.835	0.041	-0.265	
6.840	-0.131	-0.211	
6.845	-0.213	-0.165	
6.850	0.128	-0.132	
6.855	0.102	-0.085	
6.860	-0.160	-0.038	
6.865	0.094	-0.014	
6.870	0.322	0.017	
6.875	-0.012	0.062	
6.880	0.101	0.092	
6.885	0.526	0.122	
6.890	0.329	0.183	
6.895	0.221	0.244	
6.900	0.663	0.295	
6.905	0.610	0.365	
6.910	0.198	0.428	
6.915	0.428	0.447	
6.920	0.541	0.447	
6.925	0.049	0.436	
6.930	0.032	0.382	
6.935	0.320	0.304	
6.940	-0.020	0.240	
6.945	-0.174	0.169	
6.950	0.110	0.091	
6.955	0.038	0.040	
6.960	-0.213	0.006	
6.965	-0.043	-0.032	
6.970	0.134	-0.052	
6.975	-0.159	-0.049	
6.980	-0.134	-0.054	
6.985	0.146	-0.059	
6.990	-0.096	-0.048	
6.995	-0.213	-0.045	
7.000	0.047	-0.058	
7.005	-0.002	-0.059	
7.010	-0.230	-0.057	
7.015	-0.078	-0.071	
7.020	0.038	-0.080	
7.025	-0.255	-0.082	
7.030	-0.261	-0.102	
7.035	-0.069	-0.131	
7.040	-0.239	-0.151	
7.045	-0.348	-0.174	
7.050	-0.131	-0.203	
7.055	-0.160	-0.215	
7.060	-0.339	-0.218	
7.065	-0.195	-0.226	
7.070	-0.124	-0.228	
7.075	-0.346	-0.223	
7.080	-0.291	-0.231	
7.085	0.070	-0.232	
7.090	0.163	-0.189	
7.095	0.309	-0.100	
7.100	0.800	0.035	
7.105	0.570	0.209	
7.110	-0.178	0.338	
7.115	-0.249	0.337	
7.120	-0.282	0.230	
7.125	-0.534	0.073	
7.130	-0.494	-0.103	
7.135	-0.259	-0.252	
7.140	-0.351	-0.342	
7.145	-0.401	-0.386	
7.150	-0.148	-0.396	
7.155	-0.145	-0.367	
7.160	-0.322	-0.320	
7.165	-0.159	-0.282	
7.170	-0.005	-0.240	
7.175	-0.246	-0.195	
7.180	-0.207	-0.169	
7.185	0.096	-0.151	
7.190	-0.085	-0.119	
7.195	-0.180	-0.093	
7.200	0.181	-0.075	
7.205	0.194	-0.035	
7.210	-0.089	0.013	
7.215	0.216	0.045	
7.220	0.462	0.090	
7.225	0.091	0.152	
7.230	0.155	0.191	
7.235	0.558	0.220	
7.240	0.224	0.262	
7.245	-0.034	0.279	
7.250	0.296	0.257	
7.255	0.177	0.233	
7.260	-0.185	0.199	
7.265	-0.049	0.135	
7.270	0.068	0.068	
7.275	-0.226	0.017	
7.280	-0.217	-0.039	
7.285	0.038	-0.088	
7.290	-0.151	-0.110	
7.295	-0.255	-0.124	
7.300	-0.029	-0.140	
7.305	-0.053	-0.139	
7.310	-0.276	-0.132	
7.315	-0.122	-0.137	
7.320	0.024	-0.138	
7.325	-0.241	-0.127	
7.330	-0.224	-0.130	
7.335	0.021	-0.138	
7.340	-0.168	-0.133	
7.345	-0.296	-0.134	
7.350	-0.093	-0.149	
7.355	-0.139	-0.158	
7.360	-0.352	-0.166	
7.365	-0.221	-0.189	
7.370	-0.117	-0.207	
7.375	-0.331	-0.214	
7.380	-0.308	-0.228	
7.385	-0.089	-0.241	
7.390	-0.235	-0.236	
7.395	-0.366	-0.232	
7.400	-0.172	-0.240	
7.405	-0.188	-0.241	
7.410	-0.322	-0.237	
7.415	0.020	-0.229	
7.420	0.540	-0.171	
7.425	0.259	-0.048	
7.430	0.213	0.080	
7.435	0.309	0.174	
7.440	-0.192	0.218	
7.445	-0.441	0.175	
7.450	-0.302	0.059	
7.455	-0.323	-0.073	
7.460	-0.473	-0.189	
7.465	-0.268	-0.283	
7.470	-0.105	-0.328	
7.475	-0.268	-0.324	
7.480	-0.215	-0.302	
7.485	0.062	-0.265	
7.490	-0.136	-0.208	
7.495	-0.239	-0.162	
7.500	0.091	-0.134	
7.505	0.070	-0.095	
7.510	-0.188	-0.056	
7.515	0.012	-0.040	
7.520	0.251	-0.021	
7.525	-0.066	0.013	
7.530	0.020	0.034	
7.535	0.422	0.056	
7.540	0.223	0.107	
7.545	0.046	0.154	
7.550	0.486	0.186	
7.555	0.453	0.235	
7.560	0.058	0.283	
7.565	0.311	0.295	
7.570	0.472	0.299	
7.575	-0.005	0.304	
7.580	-0.040	0.270	
7.585	0.271	0.212	
7.590	-0.021	0.166	
7.595	-0.172	0.116	
7.600	0.146	0.060	
7.605	0.087	0.030	
7.610	-0.188	0.017	
7.615	-0.014	-0.007	
7.620	0.197	-0.018	
7.625	-0.149	-0.010	
7.630	-0.116	-0.014	
7.635	0.229	-0.020	
7.640	-0.027	-0.005	
7.645	-0.172	0.003	
7.650	0.139	-0.004	
7.655	0.099	0.003	
7.660	-0.183	0.012	
7.665	-0.015	0.002	
7.670	0.151	-0.006	
7.675	-0.189	-0.005	
7.680	-0.188	-0.022	
7.685	0.050	-0.051	
7.690	-0.142	-0.066	
7.695	-0.264	-0.084	
7.700	-0.027	-0.110	
7.705	-0.056	-0.119	
7.710	-0.274	-0.121	
7.715	-0.127	-0.134	
7.720	-0.014	-0.140	
7.725	-0.270	-0.137	
7.730	-0.250	-0.147	
7.735	0.081	-0.157	
7.740	0.052	-0.134	
7.745	0.195	-0.081	
7.750	0.866	0.020	
7.755	0.828	0.194	
7.760	0.235	0.370	
7.765	0.155	0.456	
7.770	0.033	0.440	
7.775	-0.332	0.347	
7.780	-0.351	0.191	
7.785	-0.151	0.025	
7.790	-0.256	-0.104	
7.795	-0.317	-0.193	
7.800	-0.011	-0.243	
7.805	-0.008	-0.238	
7.810	-0.227	-0.204	
7.815	-0.027	-0.172	
7.820	0.213	-0.128	
7.825	-0.113	-0.069	
7.830	-0.076	-0.032	
7.835	0.306	-0.006	
7.840	0.076	0.037	
7.845	-0.085	0.068	
7.850	0.317	0.081	
7.855	0.326	0.113	
7.860	0.000	0.152	
7.865	0.325	0.174	
7.870	0.608	0.210	
7.875	0.273	0.273	
7.880	0.279	0.320	
7.885	0.654	0.352	
7.890	0.375	0.394	
7.895	0.134	0.412	
7.900	0.480	0.397	
7.905	0.408	0.386	
7.910	-0.021	0.368	
7.915	0.168	0.316	
7.920	0.319	0.261	
7.925	-0.095	0.219	
7.930	-0.098	0.159	
7.935	0.259	0.099	
7.940	0.008	0.071	
7.945	-0.153	0.050	
7.950	0.163	0.024	
7.955	0.128	0.021	
7.960	-0.156	0.027	
7.965	0.064	0.020	
7.970	0.285	0.025	
7.975	-0.096	0.047	
7.980	-0.084	0.050	
7.985	0.270	0.042	
7.990	0.024	0.053	
7.995	-0.163	0.056	
8.000	0.122	0.038	
8.005	0.050	0.029	
8.010	-0.232	0.018	
8.015	-0.082	-0.013	
8.020	0.073	-0.041	
8.025	-0.204	-0.054	
8.030	-0.197	-0.075	
8.035	0.064	-0.096	
8.040	-0.142	-0.098	
8.045	-0.264	-0.104	
8.050	-0.031	-0.119	
8.055	-0.060	-0.123	
8.060	-0.271	-0.121	
8.065	-0.050	-0.128	
8.070	0.437	-0.105	
8.075	0.401	-0.018	
8.080	0.549	0.111	
8.085	0.835	0.261	
8.090	0.268	0.402	
8.095	-0.226	0.450	
8.100	-0.156	0.375	
8.105	-0.233	0.233	
8.110	-0.427	0.072	
8.115	-0.271	-0.083	
8.120	-0.096	-0.193	
8.125	-0.261	-0.245	
8.130	-0.209	-0.264	
8.135	0.105	-0.251	
8.140	-0.079	-0.201	
8.145	-0.185	-0.151	
8.150	0.155	-0.112	
8.155	0.178	-0.058	
8.160	-0.108	-0.002	
8.165	0.130	0.030	
8.170	0.376	0.064	
8.175	0.003	0.110	
8.180	0.047	0.132	
8.185	0.466	0.145	
8.190	0.277	0.182	
8.195	0.110	0.219	
8.200	0.575	0.246	
8.205	0.590	0.300	
8.210	0.212	0.361	
8.215	0.465	0.393	
8.220	0.652	0.419	
8.225	0.213	0.446	
8.230	0.174	0.435	
8.235	0.485	0.397	
8.240	0.158	0.365	
8.245	-0.102	0.315	
8.250	0.216	0.240	
8.255	0.174	0.182	
8.260	-0.156	0.138	
8.265	0.004	0.086	
8.270	0.189	0.046	
8.275	-0.142	0.029	
8.280	-0.124	0.005	
8.285	0.212	-0.016	
8.290	0.000	-0.009	
8.295	-0.137	-0.001	
8.300	0.218	0.001	
8.305	0.180	0.024	
8.310	-0.160	0.050	
8.315	-0.009	0.046	
8.320	0.190	0.037	
8.325	-0.143	0.036	
8.330	-0.153	0.017	
8.335	0.105	-0.011	
8.340	-0.124	-0.026	
8.345	-0.267	-0.047	
8.350	-0.056	-0.082	
8.355	-0.087	-0.105	
8.360	-0.293	-0.122	
8.365	-0.159	-0.146	
8.370	-0.027	-0.160	
8.375	-0.273	-0.160	
8.380	-0.303	-0.171	
8.385	-0.125	-0.191	
8.390	-0.238	-0.202	
8.395	-0.262	-0.210	
8.400	0.326	-0.196	
8.405	0.729	-0.101	
8.410	0.506	0.070	
8.415	0.645	0.251	
8.420	0.441	0.397	
8.425	-0.262	0.454	
8.430	-0.416	0.375	
8.435	-0.297	0.203	
8.440	-0.415	0.015	
8.445	-0.480	-0.154	
8.450	-0.242	-0.284	
8.455	-0.197	-0.349	
8.460	-0.348	-0.362	
8.465	-0.188	-0.351	
8.470	-0.023	-0.315	
8.475	-0.224	-0.261	
8.480	-0.185	-0.216	
8.485	0.126	-0.176	
8.490	-0.055	-0.123	
8.495	-0.180	-0.082	
8.500	0.163	-0.058	
8.505	0.206	-0.019	
8.510	-0.084	0.026	
8.515	0.206	0.054	
8.520	0.477	0.096	
8.525	0.145	0.158	
8.530	0.206	0.205	
8.535	0.620	0.244	
8.540	0.392	0.303	
8.545	0.136	0.347	
8.550	0.479	0.358	
8.555	0.436	0.367	
8.560	0.017	0.367	
8.565	0.194	0.330	
8.570	0.332	0.285	
8.575	-0.087	0.246	
8.580	-0.125	0.182	
8.585	0.154	0.109	
8.590	-0.085	0.058	
8.595	-0.232	0.010	
8.600	-0.003	-0.041	
8.605	-0.011	-0.070	
8.610	-0.236	-0.083	
8.615	-0.085	-0.101	
8.620	0.099	-0.105	
8.625	-0.180	-0.091	
8.630	-0.180	-0.087	
8.635	0.085	-0.091	
8.640	-0.107	-0.081	
8.645	-0.242	-0.078	
8.650	-0.055	-0.092	
8.655	-0.093	-0.103	
8.660	-0.314	-0.115	
8.665	-0.203	-0.142	
8.670	-0.101	-0.167	
8.675	-0.322	-0.182	
8.680	-0.337	-0.206	
8.685	-0.151	-0.232	
8.690	-0.273	-0.245	
8.695	-0.380	-0.255	
8.700	-0.197	-0.270	
8.705	-0.242	-0.274	
8.710	-0.471	-0.279	
8.715	-0.345	-0.300	
8.720	-0.154	-0.316	
8.725	-0.183	-0.304	
8.730	0.309	-0.252	
8.735	1.114	-0.108	
8.740	0.924	0.142	
8.745	0.369	0.393	
8.750	0.061	0.523	
8.755	-0.276	0.500	
8.760	-0.590	0.347	
8.765	-0.511	0.117	
8.770	-0.364	-0.109	
8.775	-0.480	-0.279	
8.780	-0.415	-0.392	
8.785	-0.159	-0.443	
8.790	-0.233	-0.430	
8.795	-0.297	-0.388	
8.800	-0.041	-0.335	
8.805	-0.008	-0.265	
8.810	-0.217	-0.195	
8.815	-0.018	-0.145	
8.820	0.242	-0.095	
8.825	-0.075	-0.034	
8.830	-0.063	0.003	
8.835	0.312	0.026	
8.840	0.120	0.064	
8.845	-0.027	0.095	
8.850	0.437	0.116	
8.855	0.527	0.168	
8.860	0.245	0.243	
8.865	0.512	0.306	
8.870	0.736	0.373	
8.875	0.323	0.443	
8.880	0.273	0.472	
8.885	0.613	0.468	
8.890	0.317	0.463	
8.895	0.017	0.434	
8.900	0.306	0.369	
8.905	0.229	0.309	
8.910	-0.124	0.252	
8.915	0.035	0.178	
8.920	0.294	0.120	
8.925	-0.041	0.096	
8.930	-0.174	0.068	
8.935	0.052	0.027	
8.940	-0.111	-0.007	
8.945	-0.246	-0.042	
8.950	-0.034	-0.080	
8.955	-0.027	-0.100	
8.960	-0.252	-0.107	
8.965	-0.124	-0.121	
8.970	0.037	-0.127	
8.975	-0.215	-0.119	
8.980	-0.207	-0.120	
8.985	0.030	-0.127	
8.990	-0.182	-0.121	
8.995	-0.313	-0.126	
9.000	-0.125	-0.148	
9.005	-0.157	-0.165	
9.010	-0.367	-0.180	
9.015	-0.258	-0.207	
9.020	-0.113	-0.228	
9.025	-0.352	-0.235	
9.030	-0.375	-0.250	
9.035	-0.213	-0.272	
9.040	-0.348	-0.286	
9.045	-0.445	-0.302	
9.050	-0.212	-0.321	
9.055	-0.024	-0.313	
9.060	0.082	-0.259	
9.065	0.636	-0.149	
9.070	0.815	0.033	
9.075	0.204	0.230	
9.080	-0.178	0.333	
9.085	-0.207	0.305	
9.090	-0.427	0.188	
9.095	-0.552	0.022	
9.100	-0.367	-0.152	
9.105	-0.317	-0.283	
9.110	-0.413	-0.361	
9.115	-0.277	-0.398	
9.120	-0.136	-0.394	
9.125	-0.270	-0.357	
9.130	-0.236	-0.315	
9.135	0.004	-0.270	
9.140	-0.117	-0.214	
9.145	-0.215	-0.168	
9.150	0.059	-0.136	
9.155	0.104	-0.096	
9.160	-0.125	-0.051	
9.165	0.061	-0.024	
9.170	0.322	0.009	
9.175	0.187	0.064	
9.180	0.186	0.120	
9.185	0.399	0.170	
9.190	0.194	0.217	
9.195	0.052	0.239	
9.200	0.415	0.239	
9.205	0.376	0.252	
9.210	0.012	0.267	
9.215	0.171	0.251	
9.220	0.300	0.227	
9.225	-0.027	0.208	
9.230	-0.064	0.168	
9.235	0.168	0.118	
9.240	-0.085	0.081	
9.245	-0.209	0.037	
9.250	0.024	-0.013	
9.255	0.004	-0.042	
9.260	-0.186	-0.056	
9.265	-0.044	-0.072	
9.270	0.119	-0.073	
9.275	-0.134	-0.058	
9.280	-0.105	-0.051	
9.285	0.187	-0.046	
9.290	-0.027	-0.024	
9.295	-0.177	-0.010	
9.300	0.090	-0.015	
9.305	0.105	-0.010	
9.310	-0.143	0.002	
9.315	-0.015	-0.002	
9.320	0.126	-0.006	
9.325	-0.166	-0.003	
9.330	-0.160	-0.018	
9.335	0.093	-0.040	
9.340	-0.053	-0.045	
9.345	-0.140	-0.046	
9.350	0.052	-0.051	
9.355	0.012	-0.045	
9.360	-0.215	-0.041	
9.365	-0.125	-0.056	
9.370	0.000	-0.074	
9.375	-0.186	-0.084	
9.380	-0.070	-0.094	
9.385	0.500	-0.073	
9.390	0.573	0.020	
9.395	0.410	0.157	
9.400	0.628	0.288	
9.405	0.294	0.390	
9.410	-0.238	0.414	
9.415	-0.242	0.329	
9.420	-0.221	0.183	
9.425	-0.386	0.028	
9.430	-0.340	-0.114	
9.435	-0.119	-0.218	
9.440	-0.186	-0.264	
9.445	-0.261	-0.273	
9.450	-0.008	-0.260	
9.455	0.024	-0.217	
9.460	-0.178	-0.162	
9.465	-0.041	-0.123	
9.470	0.157	-0.085	
9.475	-0.110	-0.044	
9.480	-0.107	-0.023	
9.485	0.219	-0.013	
9.490	0.040	0.011	
9.495	-0.076	0.031	
9.500	0.341	0.046	
9.505	0.389	0.091	
9.510	0.027	0.149	
9.515	0.277	0.183	
9.520	0.511	0.217	
9.525	0.195	0.262	
9.530	0.190	0.286	
9.535	0.451	0.293	
9.540	0.145	0.299	
9.545	-0.079	0.278	
9.550	0.215	0.225	
9.555	0.130	0.180	
9.560	-0.168	0.138	
9.565	-0.032	0.082	
9.570	0.117	0.033	
9.575	-0.185	0.004	
9.580	-0.185	-0.031	
9.585	0.038	-0.066	
9.590	-0.136	-0.083	
9.595	-0.235	-0.097	
9.600	0.020	-0.113	
9.605	-0.002	-0.109	
9.610	-0.207	-0.096	
9.615	-0.055	-0.094	
9.620	0.119	-0.084	
9.625	-0.145	-0.062	
9.630	-0.120	-0.054	
9.635	0.163	-0.050	
9.640	-0.050	-0.031	
9.645	-0.200	-0.023	
9.650	0.009	-0.035	
9.655	-0.021	-0.044	
9.660	-0.244	-0.053	
9.665	-0.125	-0.077	
9.670	0.043	-0.095	
9.675	-0.224	-0.099	
9.680	-0.236	-0.112	
9.685	-0.002	-0.130	
9.690	-0.168	-0.134	
9.695	-0.332	-0.142	
9.700	-0.142	-0.164	
9.705	-0.095	-0.178	
9.710	-0.151	-0.174	
9.715	0.386	-0.141	
9.720	0.884	-0.029	
9.725	0.550	0.156	
9.730	0.323	0.325	
9.735	0.277	0.416	
9.740	-0.174	0.416	
9.745	-0.399	0.318	
9.750	-0.274	0.154	
9.755	-0.279	-0.012	
9.760	-0.406	-0.149	
9.765	-0.239	-0.250	
9.770	-0.070	-0.297	
9.775	-0.238	-0.294	
9.780	-0.204	-0.273	
9.785	0.097	-0.238	
9.790	-0.055	-0.179	
9.795	-0.166	-0.126	
9.800	0.155	-0.087	
9.805	0.166	-0.037	
9.810	-0.127	0.010	
9.815	0.068	0.031	
9.820	0.306	0.050	
9.825	-0.002	0.082	
9.830	0.065	0.099	
9.835	0.483	0.118	
9.840	0.320	0.167	
9.845	0.136	0.219	
9.850	0.530	0.256	
9.855	0.538	0.307	
9.860	0.163	0.357	
9.865	0.352	0.372	
9.870	0.511	0.374	
9.875	0.111	0.375	
9.880	0.061	0.342	
9.885	0.340	0.290	
9.890	0.047	0.247	
9.895	-0.137	0.194	
9.900	0.125	0.127	
9.905	0.073	0.080	
9.910	-0.198	0.045	
9.915	-0.082	0.001	
9.920	0.078	-0.034	
9.925	-0.149	-0.049	
9.930	-0.131	-0.063	
9.935	0.157	-0.070	
9.940	-0.047	-0.055	
9.945	-0.175	-0.042	
9.950	0.107	-0.042	
9.955	0.093	-0.028	
9.960	-0.192	-0.011	
9.965	-0.111	-0.019	
9.970	-0.006	-0.039	
9.975	-0.247	-0.059	
9.980	-0.276	-0.094	
9.985	-0.107	-0.135	
9.990	-0.250	-0.165	
9.995	-0.367	-0.194	
10.000	-0.171	-0.226	
10.005	-0.166	-0.240	
10.010	-0.334	-0.242	
10.015	-0.229	-0.247	
10.020	-0.136	-0.246	
10.025	-0.348	-0.240	
10.030	-0.349	-0.247	
10.035	-0.082	-0.257	
10.040	0.000	-0.238	
10.045	0.213	-0.179	
10.050	0.780	-0.061	
10.055	0.722	0.123	
10.060	0.055	0.296	
10.065	-0.156	0.358	
10.070	-0.246	0.299	
10.075	-0.506	0.162	
10.080	-0.518	-0.018	
10.085	-0.302	-0.188	
10.090	-0.348	-0.304	
10.095	-0.409	-0.371	
10.100	-0.175	-0.397	
10.105	-0.143	-0.378	
10.110	-0.303	-0.334	
10.115	-0.183	-0.294	
10.120	-0.005	-0.251	
10.125	-0.192	-0.202	
10.130	-0.175	-0.166	
10.135	0.105	-0.138	
10.140	-0.075	-0.101	
10.145	-0.195	-0.075	
10.150	0.085	-0.066	
10.155	0.142	-0.044	
10.160	-0.096	-0.012	
10.165	0.152	0.010	
10.170	0.434	0.049	
10.175	0.145	0.113	
10.180	0.171	0.165	
10.185	0.532	0.207	
10.190	0.290	0.260	
10.195	0.037	0.291	
10.200	0.363	0.286	
10.205	0.300	0.280	
10.210	-0.069	0.266	
10.215	0.067	0.221	
10.220	0.190	0.170	
10.225	-0.108	0.129	
10.230	-0.134	0.078	
10.235	0.102	0.026	
10.240	-0.085	-0.006	
10.245	-0.217	-0.033	
10.250	0.014	-0.064	
10.255	0.011	-0.075	
10.260	-0.203	-0.075	
10.265	-0.072	-0.082	
10.270	0.116	-0.081	
10.275	-0.145	-0.065	
10.280	-0.159	-0.061	
10.285	0.072	-0.065	
10.290	-0.082	-0.060	
10.295	-0.200	-0.060	
10.300	0.014	-0.070	
10.305	-0.029	-0.072	
10.310	-0.261	-0.073	
10.315	-0.171	-0.094	
10.320	-0.058	-0.117	
10.325	-0.261	-0.132	
10.330	-0.265	-0.154	
10.335	-0.076	-0.177	
10.340	-0.207	-0.184	
10.345	-0.313	-0.191	
10.350	-0.160	-0.205	
10.355	-0.239	-0.214	
10.360	-0.401	-0.227	
10.365	-0.212	-0.249	
10.370	0.195	-0.243	
10.375	0.375	-0.170	
10.380	0.851	-0.020	
10.385	1.279	0.213	
10.390	0.802	0.482	
10.395	-0.011	0.658	
10.400	-0.149	0.652	
10.405	-0.325	0.500	
10.410	-0.543	0.271	
10.415	-0.399	0.025	
10.420	-0.236	-0.174	
10.425	-0.349	-0.296	
10.430	-0.311	-0.358	
10.435	-0.096	-0.372	
10.440	-0.186	-0.342	
10.445	-0.265	-0.298	
10.450	-0.029	-0.256	
10.455	-0.002	-0.203	
10.460	-0.197	-0.150	
10.465	-0.050	-0.117	
10.470	0.178	-0.084	
10.475	-0.070	-0.042	
10.480	-0.035	-0.013	
10.485	0.344	0.013	
10.490	0.218	0.063	
10.495	0.111	0.118	
10.500	0.540	0.168	
10.505	0.616	0.245	
10.510	0.352	0.336	
10.515	0.588	0.406	
10.520	0.730	0.470	
10.525	0.317	0.524	
10.530	0.261	0.529	
10.535	0.570	0.499	
10.540	0.314	0.471	
10.545	0.032	0.427	
10.550	0.323	0.359	
10.555	0.279	0.303	
10.560	-0.079	0.257	
10.565	0.091	0.197	
10.570	0.282	0.148	
10.575	-0.055	0.125	
10.580	-0.034	0.097	
10.585	0.352	0.076	
10.590	0.113	0.087	
10.595	-0.075	0.100	
10.600	0.271	0.099	
10.605	0.251	0.113	
10.610	-0.101	0.130	
10.615	0.047	0.119	
10.620	0.218	0.102	
10.625	-0.111	0.091	
10.630	-0.122	0.064	
10.635	0.149	0.029	
10.640	-0.096	0.010	
10.645	-0.249	-0.015	
10.650	-0.055	-0.054	
10.655	-0.060	-0.082	
10.660	-0.267	-0.102	
10.665	-0.153	-0.127	
10.670	-0.027	-0.143	
10.675	-0.244	-0.146	
10.680	-0.265	-0.156	
10.685	-0.101	-0.173	
10.690	-0.218	-0.181	
10.695	-0.287	-0.189	
10.700	0.177	-0.187	
10.705	0.691	-0.116	
10.710	0.771	0.047	
10.715	1.014	0.269	
10.720	0.931	0.500	
10.725	-0.040	0.653	
10.730	-0.320	0.632	
10.735	-0.296	0.460	
10.740	-0.462	0.227	
10.745	-0.537	-0.010	
10.750	-0.288	-0.209	
10.755	-0.218	-0.330	
10.760	-0.361	-0.378	
10.765	-0.198	-0.385	
10.770	-0.029	-0.354	
10.775	-0.233	-0.295	
10.780	-0.221	-0.245	
10.785	0.033	-0.205	
10.790	-0.119	-0.160	
10.795	-0.223	-0.128	
10.800	0.065	-0.112	
10.805	0.097	-0.083	
10.810	-0.137	-0.048	
10.815	0.155	-0.023	
10.820	0.430	0.022	
10.825	0.094	0.091	
10.830	0.157	0.144	
10.835	0.596	0.190	
10.840	0.431	0.259	
10.845	0.229	0.324	
10.850	0.570	0.363	
10.855	0.509	0.402	
10.860	0.073	0.423	
10.865	0.251	0.398	
10.870	0.381	0.356	
10.875	-0.055	0.314	
10.880	-0.096	0.243	
10.885	0.194	0.161	
10.890	-0.040	0.103	
10.895	-0.185	0.052	
10.900	0.062	0.001	
10.905	0.050	-0.024	
10.910	-0.197	-0.034	
10.915	-0.034	-0.050	
10.920	0.168	-0.053	
10.925	-0.142	-0.037	
10.930	-0.140	-0.035	
10.935	0.145	-0.040	
10.940	-0.081	-0.032	
10.945	-0.224	-0.033	
10.950	-0.002	-0.052	
10.955	-0.029	-0.064	
10.960	-0.267	-0.073	
10.965	-0.160	-0.097	
10.970	-0.063	-0.121	
10.975	-0.293	-0.137	
10.980	-0.302	-0.164	
10.985	-0.101	-0.193	
10.990	-0.233	-0.205	
10.995	-0.342	-0.215	
11.000	-0.140	-0.229	
11.005	-0.131	-0.229	
11.010	-0.328	-0.220	
11.015	-0.230	-0.222	
11.020	-0.120	-0.224	
11.025	-0.271	-0.218	
11.030	-0.148	-0.212	
11.035	0.498	-0.173	
11.040	0.549	-0.058	
11.045	0.341	0.099	
11.050	0.526	0.239	
11.055	0.108	0.333	
11.060	-0.355	0.336	
11.065	-0.348	0.231	
11.070	-0.297	0.075	
11.075	-0.450	-0.080	
11.080	-0.390	-0.215	
11.085	-0.136	-0.304	
11.090	-0.201	-0.332	
11.095	-0.274	-0.322	
11.100	-0.015	-0.293	
11.105	0.004	-0.238	
11.110	-0.220	-0.178	
11.115	-0.073	-0.139	
11.120	0.122	-0.105	
11.125	-0.153	-0.069	
11.130	-0.127	-0.052	
11.135	0.238	-0.042	
11.140	0.021	-0.012	
11.145	-0.119	0.012	
11.150	0.306	0.026	
11.155	0.405	0.069	
11.160	0.079	0.133	
11.165	0.392	0.184	
11.170	0.662	0.245	
11.175	0.309	0.324	
11.180	0.285	0.375	
11.185	0.605	0.399	
11.190	0.334	0.422	
11.195	0.068	0.417	
11.200	0.408	0.378	
11.205	0.315	0.345	
11.210	-0.085	0.309	
11.215	0.088	0.245	
11.220	0.244	0.184	
11.225	-0.098	0.142	
11.230	-0.095	0.093	
11.235	0.229	0.049	
11.240	0.004	0.035	
11.245	-0.157	0.026	
11.250	0.163	0.010	
11.255	0.165	0.015	
11.260	-0.162	0.030	
11.265	-0.009	0.025	
11.270	0.210	0.019	
11.275	-0.119	0.026	
11.280	-0.131	0.017	
11.285	0.155	-0.001	
11.290	-0.070	-0.004	
11.295	-0.230	-0.015	
11.300	-0.035	-0.044	
11.305	-0.063	-0.067	
11.310	-0.273	-0.085	
11.315	-0.145	-0.114	
11.320	-0.023	-0.134	
11.325	-0.276	-0.140	
11.330	-0.258	-0.156	
11.335	-0.011	-0.172	
11.340	-0.180	-0.169	
11.345	-0.343	-0.170	
11.350	-0.146	-0.185	
11.355	-0.120	-0.194	
11.360	-0.236	-0.191	
11.365	0.168	-0.174	
11.370	0.663	-0.098	
11.375	0.309	0.040	
11.380	0.142	0.167	
11.385	0.227	0.236	
11.390	-0.201	0.245	
11.395	-0.427	0.176	
11.400	-0.273	0.048	
11.405	-0.261	-0.080	
11.410	-0.409	-0.184	
11.415	-0.247	-0.262	
11.420	-0.084	-0.298	
11.425	-0.276	-0.292	
11.430	-0.253	-0.277	
11.435	0.004	-0.254	
11.440	-0.127	-0.213	
11.445	-0.232	-0.176	
11.450	0.055	-0.150	
11.455	0.073	-0.111	
11.460	-0.171	-0.071	
11.465	0.020	-0.049	
11.470	0.232	-0.025	
11.475	-0.104	0.009	
11.480	-0.084	0.021	
11.485	0.344	0.027	
11.490	0.197	0.062	
11.495	0.070	0.105	
11.500	0.492	0.145	
11.505	0.451	0.207	
11.510	0.014	0.265	
11.515	0.216	0.276	
11.520	0.419	0.271	
11.525	0.009	0.267	
11.530	-0.053	0.234	
11.535	0.258	0.182	
11.540	0.026	0.145	
11.545	-0.119	0.109	
11.550	0.229	0.072	
11.555	0.194	0.065	
11.560	-0.165	0.070	
11.565	-0.029	0.052	
11.570	0.198	0.033	
11.575	-0.095	0.030	
11.580	-0.063	0.020	
11.585	0.271	0.014	
11.590	0.030	0.032	
11.595	-0.145	0.044	
11.600	0.143	0.036	
11.605	0.119	0.038	
11.610	-0.174	0.041	
11.615	-0.040	0.023	
11.620	0.161	0.005	
11.625	-0.160	0.001	
11.630	-0.194	-0.017	
11.635	0.044	-0.046	
11.640	-0.143	-0.063	
11.645	-0.284	-0.084	
11.650	-0.056	-0.115	
11.655	-0.070	-0.130	
11.660	-0.293	-0.136	
11.665	-0.177	-0.152	
11.670	-0.064	-0.165	
11.675	-0.297	-0.169	
11.680	-0.310	-0.184	
11.685	-0.079	-0.203	
11.690	-0.137	-0.203	
11.695	-0.107	-0.187	
11.700	0.541	-0.136	
11.705	0.622	-0.012	
11.710	0.119	0.139	
11.715	0.061	0.230	
11.720	-0.029	0.242	
11.725	-0.369	0.187	
11.730	-0.422	0.070	
11.735	-0.226	-0.067	
11.740	-0.310	-0.176	
11.745	-0.386	-0.254	
11.750	-0.143	-0.302	
11.755	-0.107	-0.306	
11.760	-0.284	-0.281	
11.765	-0.139	-0.254	
11.770	0.041	-0.218	
11.775	-0.206	-0.172	
11.780	-0.185	-0.144	
11.785	0.139	-0.123	
11.790	-0.049	-0.088	
11.795	-0.185	-0.061	
11.800	0.123	-0.051	
11.805	0.183	-0.025	
11.810	-0.093	0.011	
11.815	0.169	0.034	
11.820	0.451	0.071	
11.825	0.120	0.131	
11.830	0.154	0.176	
11.835	0.561	0.211	
11.840	0.329	0.263	
11.845	0.079	0.300	
11.850	0.425	0.305	
11.855	0.355	0.311	
11.860	-0.063	0.305	
11.865	0.101	0.262	
11.870	0.268	0.211	
11.875	-0.095	0.172	
11.880	-0.108	0.120	
11.885	0.198	0.067	
11.890	-0.026	0.040	
11.895	-0.172	0.019	
11.900	0.123	-0.007	
11.905	0.133	-0.008	
11.910	-0.154	0.003	
11.915	0.027	0.001	
11.920	0.259	0.008	
11.925	-0.087	0.030	
11.930	-0.099	0.035	
11.935	0.223	0.028	
11.940	-0.011	0.035	
11.945	-0.175	0.033	
11.950	0.079	0.013	
11.955	0.026	0.001	
11.960	-0.242	-0.010	
11.965	-0.131	-0.041	
11.970	0.014	-0.071	
11.975	-0.232	-0.088	
11.980	-0.238	-0.112	
11.985	-0.008	-0.136	
11.990	-0.157	-0.142	
11.995	-0.277	-0.146	
12.000	-0.058	-0.157	
12.005	-0.078	-0.155	
12.010	-0.300	-0.149	
12.015	-0.171	-0.158	
12.020	0.056	-0.160	
12.025	-0.070	-0.138	
12.030	0.181	-0.097	
12.035	0.642	-0.016	
12.040	0.285	0.108	
12.045	-0.166	0.197	
12.050	-0.139	0.196	
12.055	-0.250	0.127	
12.060	-0.468	0.019	
12.065	-0.340	-0.108	
12.070	-0.171	-0.212	
12.075	-0.313	-0.269	
12.080	-0.268	-0.297	
12.085	0.015	-0.294	
12.090	-0.114	-0.255	
12.095	-0.232	-0.209	
12.100	0.024	-0.174	
12.105	0.033	-0.131	
12.110	-0.207	-0.091	
12.115	-0.047	-0.075	
12.120	0.186	-0.058	
12.125	-0.116	-0.030	
12.130	-0.093	-0.016	
12.135	0.297	-0.007	
12.140	0.114	0.027	
12.145	-0.056	0.061	
12.150	0.361	0.083	
12.155	0.408	0.128	
12.160	0.053	0.183	
12.165	0.300	0.214	
12.170	0.517	0.244	
12.175	0.125	0.281	
12.180	0.084	0.286	
12.185	0.424	0.269	
12.190	0.152	0.261	
12.195	-0.098	0.238	
12.200	0.192	0.190	
12.205	0.140	0.151	
12.210	-0.174	0.117	
12.215	-0.032	0.068	
12.220	0.172	0.028	
12.225	-0.140	0.012	
12.230	-0.142	-0.010	
12.235	0.166	-0.031	
12.240	-0.044	-0.029	
12.245	-0.178	-0.027	
12.250	0.110	-0.035	
12.255	0.111	-0.025	
12.260	-0.183	-0.009	
12.265	-0.066	-0.014	
12.270	0.096	-0.024	
12.275	-0.194	-0.028	
12.280	-0.201	-0.047	
12.285	0.041	-0.073	
12.290	-0.148	-0.085	
12.295	-0.303	-0.101	
12.300	-0.124	-0.131	
12.305	-0.142	-0.153	
12.310	-0.351	-0.171	
12.315	-0.233	-0.198	
12.320	-0.110	-0.217	
12.325	-0.311	-0.222	
12.330	-0.316	-0.232	
12.335	-0.116	-0.243	
12.340	-0.265	-0.241	
12.345	-0.401	-0.244	
12.350	-0.191	-0.258	
12.355	-0.098	-0.258	
12.360	-0.134	-0.235	
12.365	0.392	-0.179	
12.370	0.748	-0.054	
12.375	0.277	0.118	
12.380	-0.066	0.237	
12.385	-0.102	0.254	
12.390	-0.364	0.187	
12.395	-0.532	0.056	
12.400	-0.328	-0.100	
12.405	-0.267	-0.225	
12.410	-0.403	-0.303	
12.415	-0.232	-0.346	
12.420	-0.046	-0.345	
12.425	-0.236	-0.307	
12.430	-0.218	-0.266	
12.435	0.075	-0.224	
12.440	-0.084	-0.169	
12.445	-0.203	-0.124	
12.450	0.097	-0.098	
12.455	0.134	-0.061	
12.460	-0.149	-0.021	
12.465	0.050	-0.003	
12.470	0.326	0.019	
12.475	0.020	0.060	
12.480	0.078	0.089	
12.485	0.530	0.120	
12.490	0.373	0.182	
12.495	0.180	0.247	
12.500	0.596	0.294	
12.505	0.593	0.354	
12.510	0.166	0.408	
12.515	0.346	0.418	
12.520	0.526	0.409	
12.525	0.087	0.398	
12.530	0.011	0.352	
12.535	0.329	0.284	
12.540	0.053	0.232	
12.545	-0.154	0.177	
12.550	0.123	0.111	
12.555	0.130	0.068	
12.560	-0.169	0.044	
12.565	-0.038	0.013	
12.570	0.155	-0.009	
12.575	-0.149	-0.012	
12.580	-0.143	-0.025	
12.585	0.175	-0.039	
12.590	-0.038	-0.030	
12.595	-0.198	-0.025	
12.600	0.040	-0.036	
12.605	0.014	-0.040	
12.610	-0.236	-0.042	
12.615	-0.124	-0.062	
12.620	0.012	-0.083	
12.625	-0.252	-0.093	
12.630	-0.281	-0.117	
12.635	-0.095	-0.149	
12.640	-0.242	-0.170	
12.645	-0.370	-0.193	
12.650	-0.169	-0.222	
12.655	-0.159	-0.235	
12.660	-0.352	-0.237	
12.665	-0.238	-0.245	
12.670	-0.151	-0.249	
12.675	-0.387	-0.248	
12.680	-0.398	-0.262	
12.685	-0.127	-0.282	
12.690	-0.043	-0.271	
12.695	0.239	-0.215	
12.700	0.977	-0.082	
12.705	0.963	0.144	
12.710	0.239	0.373	
12.715	-0.073	0.481	
12.720	-0.201	0.440	
12.725	-0.494	0.294	
12.730	-0.514	0.089	
12.735	-0.270	-0.111	
12.740	-0.306	-0.251	
12.745	-0.364	-0.331	
12.750	-0.107	-0.362	
12.755	-0.047	-0.340	
12.760	-0.242	-0.286	
12.765	-0.096	-0.236	
12.770	0.119	-0.183	
12.775	-0.157	-0.123	
12.780	-0.145	-0.087	
12.785	0.197	-0.065	
12.790	0.001	-0.030	
12.795	-0.133	-0.005	
12.800	0.239	0.008	
12.805	0.315	0.043	
12.810	0.020	0.093	
12.815	0.335	0.133	
12.820	0.640	0.189	
12.825	0.306	0.270	
12.830	0.322	0.333	
12.835	0.703	0.379	
12.840	0.448	0.432	
12.845	0.151	0.459	
12.850	0.471	0.444	
12.855	0.392	0.423	
12.860	-0.047	0.390	
12.865	0.093	0.320	
12.870	0.250	0.245	
12.875	-0.116	0.184	
12.880	-0.143	0.115	
12.885	0.152	0.048	
12.890	-0.066	0.011	
12.895	-0.203	-0.018	
12.900	0.058	-0.048	
12.905	0.030	-0.056	
12.910	-0.229	-0.055	
12.915	-0.085	-0.068	
12.920	0.108	-0.075	
12.925	-0.177	-0.067	
12.930	-0.192	-0.071	
12.935	0.044	-0.083	
12.940	-0.137	-0.085	
12.945	-0.273	-0.094	
12.950	-0.066	-0.115	
12.955	-0.085	-0.127	
12.960	-0.313	-0.135	
12.965	-0.212	-0.156	
12.970	-0.105	-0.177	
12.975	-0.322	-0.189	
12.980	-0.326	-0.209	
12.985	-0.114	-0.231	
12.990	-0.233	-0.235	
12.995	-0.345	-0.237	
13.000	-0.139	-0.243	
13.005	-0.165	-0.237	
13.010	-0.389	-0.230	
13.015	-0.261	-0.240	
13.020	-0.046	-0.244	
13.025	-0.090	-0.222	
13.030	0.279	-0.168	
13.035	0.873	-0.048	
13.040	0.573	0.140	
13.045	-0.017	0.298	
13.050	-0.078	0.343	
13.055	-0.259	0.281	
13.060	-0.529	0.147	
13.065	-0.428	-0.026	
13.070	-0.264	-0.183	
13.075	-0.390	-0.288	
13.080	-0.335	-0.351	
13.085	-0.063	-0.368	
13.090	-0.162	-0.338	
13.095	-0.270	-0.291	
13.100	-0.037	-0.248	
13.105	-0.011	-0.198	
13.110	-0.224	-0.149	
13.115	-0.058	-0.122	
13.120	0.198	-0.092	
13.125	-0.117	-0.051	
13.130	-0.107	-0.027	
13.135	0.270	-0.014	
13.140	0.088	0.020	
13.145	-0.067	0.050	
13.150	0.380	0.071	
13.155	0.463	0.121	
13.160	0.110	0.189	
13.165	0.340	0.235	
13.170	0.549	0.276	
13.175	0.139	0.318	
13.180	0.108	0.323	
13.185	0.433	0.302	
13.190	0.139	0.287	
13.195	-0.127	0.254	
13.200	0.160	0.193	
13.205	0.126	0.142	
13.210	-0.195	0.101	
13.215	-0.073	0.046	
13.220	0.114	0.001	
13.225	-0.169	-0.023	
13.230	-0.172	-0.048	
13.235	0.123	-0.070	
13.240	-0.066	-0.067	
13.245	-0.204	-0.063	
13.250	0.084	-0.068	
13.255	0.104	-0.054	
13.260	-0.194	-0.033	
13.265	-0.063	-0.033	
13.270	0.114	-0.036	
13.275	-0.180	-0.031	
13.280	-0.200	-0.044	
13.285	0.024	-0.068	
13.290	-0.166	-0.081	
13.295	-0.308	-0.102	
13.300	-0.113	-0.134	
13.305	-0.142	-0.156	
13.310	-0.348	-0.173	
13.315	-0.218	-0.198	
13.320	-0.084	-0.214	
13.325	-0.293	-0.213	
13.330	-0.290	-0.218	
13.335	-0.090	-0.224	
13.340	-0.244	-0.219	
13.345	-0.364	-0.220	
13.350	-0.131	-0.230	
13.355	0.011	-0.221	
13.360	-0.046	-0.183	
13.365	0.437	-0.114	
13.370	0.709	0.012	
13.375	0.183	0.165	
13.380	-0.124	0.254	
13.385	-0.087	0.244	
13.390	-0.326	0.165	
13.395	-0.474	0.040	
13.400	-0.255	-0.099	
13.405	-0.203	-0.204	
13.410	-0.345	-0.265	
13.415	-0.185	-0.295	
13.420	0.009	-0.288	
13.425	-0.207	-0.249	
13.430	-0.177	-0.210	
13.435	0.137	-0.172	
13.440	-0.044	-0.119	
13.445	-0.186	-0.078	
13.450	0.119	-0.056	
13.455	0.168	-0.026	
13.460	-0.124	0.010	
13.465	0.065	0.024	
13.470	0.319	0.042	
13.475	-0.015	0.075	
13.480	0.037	0.092	
13.485	0.474	0.108	
13.490	0.288	0.155	
13.495	0.082	0.201	
13.500	0.469	0.230	
13.505	0.465	0.270	
13.510	0.047	0.306	
13.515	0.238	0.305	
13.520	0.419	0.291	
13.525	-0.002	0.280	
13.530	-0.032	0.241	
13.535	0.283	0.187	
13.540	0.012	0.151	
13.545	-0.175	0.112	
13.550	0.082	0.060	
13.555	0.062	0.026	
13.560	-0.207	0.004	
13.565	-0.078	-0.027	
13.570	0.152	-0.047	
13.575	-0.142	-0.044	
13.580	-0.140	-0.047	
13.585	0.204	-0.050	
13.590	0.000	-0.030	
13.595	-0.165	-0.013	
13.600	0.120	-0.011	
13.605	0.087	-0.001	
13.610	-0.204	0.008	
13.615	-0.087	-0.008	
13.620	0.068	-0.028	
13.625	-0.212	-0.041	
13.630	-0.239	-0.067	
13.635	-0.032	-0.101	
13.640	-0.182	-0.121	
13.645	-0.316	-0.142	
13.650	-0.120	-0.169	
13.655	-0.108	-0.181	
13.660	-0.308	-0.184	
13.665	-0.185	-0.193	
13.670	-0.066	-0.196	
13.675	-0.299	-0.190	
13.680	-0.296	-0.196	
13.685	-0.003	-0.204	
13.690	0.023	-0.183	
13.695	0.114	-0.132	
13.700	0.686	-0.039	
13.705	0.630	0.111	
13.710	0.017	0.255	
13.715	-0.079	0.306	
13.720	-0.096	0.263	
13.725	-0.366	0.164	
13.730	-0.399	0.029	
13.735	-0.175	-0.105	
13.740	-0.241	-0.197	
13.745	-0.310	-0.251	
13.750	-0.041	-0.272	
13.755	0.001	-0.251	
13.760	-0.227	-0.206	
13.765	-0.069	-0.170	
13.770	0.165	-0.130	
13.775	-0.127	-0.081	
13.780	-0.110	-0.050	
13.785	0.255	-0.030	
13.790	0.068	0.007	
13.795	-0.089	0.038	
13.800	0.332	0.056	
13.805	0.343	0.097	
13.810	0.001	0.147	
13.815	0.291	0.173	
13.820	0.584	0.208	
13.825	0.253	0.266	
13.830	0.280	0.308	
13.835	0.662	0.341	
13.840	0.401	0.386	
13.845	0.120	0.410	
13.850	0.465	0.397	
13.855	0.418	0.385	
13.860	-0.011	0.368	
13.865	0.152	0.317	
13.870	0.331	0.262	
13.875	-0.061	0.221	
13.880	-0.087	0.166	
13.885	0.253	0.109	
13.890	0.032	0.082	
13.895	-0.146	0.061	
13.900	0.169	0.035	
13.905	0.187	0.034	
13.910	-0.124	0.046	
13.915	0.059	0.044	
13.920	0.294	0.048	
13.925	-0.066	0.068	
13.930	-0.084	0.069	
13.935	0.256	0.058	
13.940	0.029	0.063	
13.945	-0.151	0.061	
13.950	0.116	0.042	
13.955	0.079	0.032	
13.960	-0.215	0.024	
13.965	-0.104	-0.005	
13.970	0.059	-0.036	
13.975	-0.207	-0.053	
13.980	-0.213	-0.078	
13.985	0.049	-0.103	
13.990	-0.127	-0.107	
13.995	-0.256	-0.111	
14.000	-0.038	-0.123	
14.005	-0.072	-0.126	
14.010	-0.300	-0.126	
14.015	-0.165	-0.141	
14.020	0.122	-0.146	
14.025	0.026	-0.117	
14.030	0.323	-0.058	
14.035	0.785	0.049	
14.040	0.427	0.200	
14.045	-0.108	0.307	
14.050	-0.085	0.309	
14.055	-0.215	0.231	
14.060	-0.447	0.105	
14.065	-0.319	-0.042	
14.070	-0.142	-0.163	
14.075	-0.285	-0.234	
14.080	-0.242	-0.269	
14.085	0.073	-0.269	
14.090	-0.064	-0.227	
14.095	-0.188	-0.175	
14.100	0.122	-0.132	
14.105	0.149	-0.077	
14.110	-0.151	-0.024	
14.115	0.035	0.002	
14.120	0.294	0.024	
14.125	-0.043	0.057	
14.130	-0.031	0.071	
14.135	0.380	0.078	
14.140	0.204	0.109	
14.145	0.032	0.143	
14.150	0.477	0.167	
14.155	0.537	0.219	
14.160	0.175	0.283	
14.165	0.415	0.323	
14.170	0.634	0.358	
14.175	0.206	0.397	
14.180	0.143	0.397	
14.185	0.460	0.368	
14.190	0.178	0.343	
14.195	-0.092	0.301	
14.200	0.189	0.233	
14.205	0.146	0.177	
14.210	-0.175	0.131	
14.215	-0.053	0.072	
14.220	0.137	0.023	
14.225	-0.160	-0.002	
14.230	-0.169	-0.031	
14.235	0.113	-0.057	
14.240	-0.081	-0.060	
14.245	-0.213	-0.063	
14.250	0.053	-0.074	
14.255	0.061	-0.067	
14.260	-0.209	-0.053	
14.265	-0.095	-0.058	
14.270	0.059	-0.065	
14.275	-0.209	-0.065	
14.280	-0.223	-0.080	
14.285	0.001	-0.102	
14.290	-0.177	-0.113	
14.295	-0.329	-0.129	
14.300	-0.154	-0.158	
14.305	-0.168	-0.181	
14.310	-0.372	-0.198	
14.315	-0.258	-0.224	
14.320	-0.133	-0.243	
14.325	-0.322	-0.246	
14.330	-0.325	-0.253	
14.335	-0.146	-0.261	
14.340	-0.302	-0.260	
14.345	-0.432	-0.265	
14.350	-0.200	-0.282	
14.355	-0.029	-0.278	
14.360	0.026	-0.235	
14.365	0.643	-0.140	
14.370	0.925	0.036	
14.375	0.320	0.245	
14.380	-0.136	0.369	
14.385	-0.172	0.356	
14.390	-0.409	0.243	
14.395	-0.557	0.071	
14.400	-0.331	-0.112	
14.405	-0.265	-0.250	
14.410	-0.396	-0.329	
14.415	-0.233	-0.367	
14.420	-0.069	-0.361	
14.425	-0.256	-0.321	
14.430	-0.235	-0.279	
14.435	0.049	-0.238	
14.440	-0.099	-0.185	
14.445	-0.215	-0.142	
14.450	0.068	-0.115	
14.455	0.101	-0.080	
14.460	-0.165	-0.043	
14.465	0.032	-0.026	
14.470	0.334	-0.002	
14.475	0.023	0.043	
14.480	0.094	0.080	
14.485	0.555	0.118	
14.490	0.404	0.189	
14.495	0.192	0.261	
14.500	0.581	0.312	
14.505	0.572	0.368	
14.510	0.142	0.413	
14.515	0.315	0.414	
14.520	0.482	0.395	
14.525	0.040	0.374	
14.530	-0.027	0.319	
14.535	0.279	0.246	
14.540	0.014	0.189	
14.545	-0.166	0.133	
14.550	0.123	0.072	
14.555	0.122	0.038	
14.560	-0.175	0.023	
14.565	-0.032	-0.001	
14.570	0.184	-0.015	
14.575	-0.128	-0.009	
14.580	-0.130	-0.014	
14.585	0.192	-0.023	
14.590	-0.032	-0.013	
14.595	-0.191	-0.008	
14.600	0.062	-0.021	
14.605	0.038	-0.024	
14.610	-0.235	-0.026	
14.615	-0.125	-0.048	
14.620	0.009	-0.072	
14.625	-0.252	-0.087	
14.630	-0.277	-0.114	
14.635	-0.082	-0.147	
14.640	-0.224	-0.167	
14.645	-0.352	-0.187	
14.650	-0.153	-0.212	
14.655	-0.142	-0.222	
14.660	-0.337	-0.222	
14.665	-0.235	-0.229	
14.670	-0.157	-0.235	
14.675	-0.390	-0.238	
14.680	-0.386	-0.256	
14.685	-0.049	-0.274	
14.690	0.163	-0.247	
14.695	0.474	-0.153	
14.700	1.119	0.024	
14.705	1.024	0.279	
14.710	0.171	0.507	
14.715	-0.127	0.583	
14.720	-0.223	0.498	
14.725	-0.503	0.315	
14.730	-0.512	0.087	
14.735	-0.274	-0.125	
14.740	-0.328	-0.270	
14.745	-0.390	-0.352	
14.750	-0.146	-0.386	
14.755	-0.107	-0.367	
14.760	-0.285	-0.320	
14.765	-0.133	-0.276	
14.770	0.084	-0.224	
14.775	-0.162	-0.163	
14.780	-0.140	-0.121	
14.785	0.226	-0.088	
14.790	0.053	-0.038	
14.795	-0.101	0.004	
14.800	0.303	0.031	
14.805	0.370	0.079	
14.810	0.062	0.139	
14.815	0.380	0.183	
14.820	0.680	0.241	
14.825	0.354	0.321	
14.830	0.373	0.382	
14.835	0.738	0.427	
14.840	0.477	0.477	
14.845	0.187	0.501	
14.850	0.517	0.483	
14.855	0.430	0.461	
14.860	-0.035	0.427	
14.865	0.110	0.353	
14.870	0.261	0.272	
14.875	-0.116	0.206	
14.880	-0.139	0.130	
14.885	0.148	0.058	
14.890	-0.073	0.015	
14.895	-0.212	-0.018	
14.900	0.062	-0.051	
14.905	0.053	-0.060	
14.910	-0.213	-0.055	
14.915	-0.075	-0.063	
14.920	0.133	-0.066	
14.925	-0.172	-0.055	
14.930	-0.191	-0.057	
14.935	0.068	-0.071	
14.940	-0.130	-0.072	
14.945	-0.270	-0.081	
14.950	-0.073	-0.105	
14.955	-0.098	-0.121	
14.960	-0.319	-0.133	
14.965	-0.217	-0.159	
14.970	-0.104	-0.182	
14.975	-0.308	-0.193	
14.980	-0.303	-0.210	
14.985	-0.093	-0.226	
14.990	-0.217	-0.225	
14.995	-0.332	-0.223	
15.000	-0.142	-0.227	
15.005	-0.178	-0.225	
15.010	-0.383	-0.222	
15.015	-0.218	-0.234	
15.020	0.140	-0.228	
15.025	0.172	-0.172	
15.030	0.506	-0.067	
15.035	0.904	0.093	
15.040	0.439	0.282	
15.045	-0.159	0.398	
15.050	-0.153	0.380	
15.055	-0.268	0.267	
15.060	-0.500	0.107	
15.065	-0.370	-0.066	
15.070	-0.194	-0.206	
15.075	-0.332	-0.287	
15.080	-0.277	-0.326	
15.085	0.004	-0.326	
15.090	-0.120	-0.284	
15.095	-0.224	-0.232	
15.100	0.065	-0.187	
15.105	0.094	-0.130	
15.110	-0.169	-0.074	
15.115	0.011	-0.044	
15.120	0.268	-0.015	
15.125	-0.067	0.024	
15.130	-0.017	0.044	
15.135	0.389	0.059	
15.140	0.178	0.099	
15.145	-0.008	0.134	
15.150	0.436	0.154	
15.155	0.501	0.199	
15.160	0.163	0.258	
15.165	0.389	0.296	
15.170	0.549	0.328	
15.175	0.111	0.357	
15.180	0.059	0.344	
15.185	0.378	0.302	
15.190	0.088	0.267	
15.195	-0.140	0.220	
15.200	0.108	0.152	
15.205	0.047	0.097	
15.210	-0.229	0.050	
15.215	-0.110	-0.006	
15.220	0.081	-0.049	
15.225	-0.200	-0.068	
15.230	-0.213	-0.090	
15.235	0.037	-0.111	
15.240	-0.116	-0.113	
15.245	-0.223	-0.112	
15.250	0.050	-0.115	
15.255	0.046	-0.098	
15.260	-0.213	-0.075	
15.265	-0.081	-0.072	
15.270	0.099	-0.069	
15.275	-0.194	-0.059	
15.280	-0.209	-0.066	
15.285	0.024	-0.084	
15.290	-0.172	-0.093	
15.295	-0.310	-0.109	
15.300	-0.113	-0.139	
15.305	-0.124	-0.158	
15.310	-0.332	-0.170	
15.315	-0.206	-0.191	
15.320	-0.070	-0.203	
15.325	-0.277	-0.201	
15.330	-0.285	-0.204	
15.335	-0.093	-0.212	
15.340	-0.241	-0.209	
15.345	-0.346	-0.212	
15.350	-0.058	-0.220	
15.355	0.207	-0.195	
15.360	0.175	-0.122	
15.365	0.515	-0.014	
15.370	0.622	0.126	
15.375	-0.060	0.250	
15.380	-0.255	0.276	
15.385	-0.172	0.204	
15.390	-0.340	0.087	
15.395	-0.450	-0.046	
15.400	-0.204	-0.170	
15.405	-0.149	-0.246	
15.410	-0.302	-0.275	
15.415	-0.131	-0.279	
15.420	0.076	-0.253	
15.425	-0.182	-0.200	
15.430	-0.157	-0.158	
15.435	0.186	-0.122	
15.440	-0.020	-0.073	
15.445	-0.156	-0.036	
15.450	0.183	-0.018	
15.455	0.166	0.012	
15.460	-0.128	0.042	
15.465	0.125	0.051	
15.470	0.419	0.071	
15.475	0.079	0.115	
15.480	0.133	0.149	
15.485	0.552	0.179	
15.490	0.357	0.235	
15.495	0.168	0.285	
15.500	0.512	0.312	
15.505	0.460	0.344	
15.510	0.024	0.364	
15.515	0.200	0.339	
15.520	0.354	0.300	
15.525	-0.040	0.266	
15.530	-0.076	0.209	
15.535	0.242	0.145	
15.540	-0.027	0.104	
15.545	-0.177	0.065	
15.550	0.091	0.021	
15.555	0.053	-0.002	
15.560	-0.218	-0.014	
15.565	-0.063	-0.038	
15.570	0.212	-0.049	
15.575	-0.107	-0.033	
15.580	-0.122	-0.025	
15.585	0.200	-0.024	
15.590	-0.034	-0.007	
15.595	-0.188	-0.000	
15.600	0.102	-0.011	
15.605	0.091	-0.009	
15.610	-0.204	-0.003	
15.615	-0.076	-0.018	
15.620	0.075	-0.034	
15.625	-0.213	-0.043	
15.630	-0.230	-0.066	
15.635	0.004	-0.096	
15.640	-0.149	-0.110	
15.645	-0.268	-0.123	
15.650	-0.031	-0.139	
15.655	-0.046	-0.139	
15.660	-0.281	-0.132	
15.665	-0.191	-0.141	
15.670	-0.093	-0.154	
15.675	-0.305	-0.164	
15.680	-0.270	-0.183	
15.685	0.133	-0.192	
15.690	0.235	-0.150	
15.695	0.277	-0.061	
15.700	0.666	0.061	
15.705	0.466	0.206	
15.710	-0.172	0.304	
15.715	-0.203	0.293	
15.720	-0.177	0.199	
15.725	-0.401	0.071	
15.730	-0.380	-0.067	
15.735	-0.156	-0.183	
15.740	-0.227	-0.249	
15.745	-0.296	-0.277	
15.750	-0.038	-0.280	
15.755	-0.021	-0.247	
15.760	-0.236	-0.200	
15.765	-0.079	-0.167	
15.770	0.133	-0.132	
15.775	-0.156	-0.089	
15.780	-0.139	-0.066	
15.785	0.213	-0.053	
15.790	0.017	-0.022	
15.795	-0.117	0.003	
15.800	0.274	0.017	
15.805	0.326	0.056	
15.810	0.017	0.108	
15.815	0.314	0.145	
15.820	0.604	0.194	
15.825	0.239	0.263	
15.830	0.244	0.310	
15.835	0.610	0.338	
15.840	0.348	0.372	
15.845	0.070	0.384	
15.850	0.408	0.360	
15.855	0.355	0.339	
15.860	-0.063	0.315	
15.865	0.128	0.262	
15.870	0.320	0.211	
15.875	-0.072	0.179	
15.880	-0.084	0.135	
15.885	0.251	0.088	
15.890	0.009	0.069	
15.895	-0.153	0.052	
15.900	0.178	0.029	
15.905	0.177	0.030	
15.910	-0.128	0.043	
15.915	0.091	0.042	
15.920	0.317	0.051	
15.925	-0.064	0.077	
15.930	-0.073	0.080	
15.935	0.265	0.070	
15.940	0.020	0.074	
15.945	-0.160	0.069	
15.950	0.119	0.045	
15.955	0.082	0.033	
15.960	-0.212	0.024	
15.965	-0.093	-0.005	
15.970	0.062	-0.034	
15.975	-0.204	-0.050	
15.980	-0.201	-0.074	
15.985	0.059	-0.097	
15.990	-0.116	-0.100	
15.995	-0.247	-0.102	
16.000	-0.035	-0.114	
16.005	-0.058	-0.116	
16.010	-0.258	-0.115	
16.015	-0.015	-0.120	
16.020	0.492	-0.091	
16.025	0.413	0.004	
16.030	0.453	0.131	
16.035	0.675	0.262	
16.040	0.078	0.365	
16.045	-0.294	0.372	
16.050	-0.200	0.275	
16.055	-0.236	0.133	
16.060	-0.398	-0.010	
16.065	-0.220	-0.137	
16.070	-0.021	-0.213	
16.075	-0.207	-0.233	
16.080	-0.165	-0.228	
16.085	0.178	-0.200	
16.090	-0.017	-0.141	
16.095	-0.148	-0.086	
16.100	0.197	-0.049	
16.105	0.215	-0.000	
16.110	-0.099	0.048	
16.115	0.128	0.070	
16.120	0.364	0.091	
16.125	0.011	0.125	
16.130	0.053	0.139	
16.135	0.492	0.148	
16.140	0.326	0.188	
16.145	0.166	0.234	
16.150	0.607	0.271	
16.155	0.628	0.332	
16.160	0.262	0.399	
16.165	0.495	0.434	
16.170	0.677	0.460	
16.175	0.248	0.485	
16.180	0.204	0.471	
16.185	0.518	0.432	
16.190	0.206	0.399	
16.195	-0.075	0.349	
16.200	0.224	0.273	
16.205	0.181	0.211	
16.210	-0.153	0.161	
16.215	0.003	0.102	
16.220	0.206	0.056	
16.225	-0.124	0.037	
16.230	-0.122	0.013	
16.235	0.183	-0.010	
16.240	-0.024	-0.009	
16.245	-0.157	-0.008	
16.250	0.160	-0.014	
16.255	0.126	-0.001	
16.260	-0.172	0.016	
16.265	-0.029	0.011	
16.270	0.149	0.002	
16.275	-0.171	0.002	
16.280	-0.194	-0.016	
16.285	0.030	-0.046	
16.290	-0.166	-0.067	
16.295	-0.310	-0.092	
16.300	-0.119	-0.130	
16.305	-0.136	-0.156	
16.310	-0.339	-0.173	
16.315	-0.210	-0.197	
16.320	-0.082	-0.211	
16.325	-0.293	-0.210	
16.330	-0.297	-0.215	
16.335	-0.130	-0.225	
16.340	-0.282	-0.227	
16.345	-0.374	-0.235	
16.350	-0.055	-0.246	
16.355	0.277	-0.215	
16.360	0.279	-0.125	
16.365	0.628	0.011	
16.370	0.706	0.178	
16.375	-0.067	0.319	
16.380	-0.300	0.342	
16.385	-0.241	0.248	
16.390	-0.406	0.101	
16.395	-0.486	-0.060	
16.400	-0.229	-0.203	
16.405	-0.166	-0.287	
16.410	-0.308	-0.315	
16.415	-0.131	-0.313	
16.420	0.073	-0.277	
16.425	-0.174	-0.216	
16.430	-0.153	-0.165	
16.435	0.177	-0.124	
16.440	-0.031	-0.073	
16.445	-0.159	-0.036	
16.450	0.165	-0.020	
16.455	0.177	0.008	
16.460	-0.116	0.038	
16.465	0.126	0.050	
16.470	0.389	0.070	
16.475	0.070	0.112	
16.480	0.161	0.144	
16.485	0.619	0.180	
16.490	0.424	0.248	
16.495	0.201	0.313	
16.500	0.572	0.352	
16.505	0.520	0.392	
16.510	0.081	0.417	
16.515	0.239	0.395	
16.520	0.395	0.355	
16.525	-0.038	0.316	
16.530	-0.076	0.249	
16.535	0.216	0.172	
16.540	-0.049	0.116	
16.545	-0.203	0.064	
16.550	0.049	0.007	
16.555	0.023	-0.026	
16.560	-0.224	-0.043	
16.565	-0.084	-0.067	
16.570	0.087	-0.081	
16.575	-0.186	-0.077	
16.580	-0.169	-0.082	
16.585	0.113	-0.088	
16.590	-0.108	-0.077	
16.595	-0.241	-0.074	
16.600	-0.023	-0.087	
16.605	-0.058	-0.093	
16.610	-0.291	-0.099	
16.615	-0.177	-0.121	
16.620	-0.078	-0.143	
16.625	-0.314	-0.157	
16.630	-0.322	-0.183	
16.635	-0.139	-0.212	
16.640	-0.265	-0.227	
16.645	-0.377	-0.241	
16.650	-0.178	-0.259	
16.655	-0.185	-0.262	
16.660	-0.380	-0.258	
16.665	-0.293	-0.265	
16.670	-0.232	-0.275	
16.675	-0.428	-0.284	
16.680	-0.339	-0.302	
16.685	0.160	-0.298	
16.690	0.451	-0.222	
16.695	0.558	-0.068	
16.700	0.907	0.134	
16.705	0.520	0.342	
16.710	-0.250	0.459	
16.715	-0.334	0.418	
16.720	-0.335	0.263	
16.725	-0.526	0.067	
16.730	-0.460	-0.127	
16.735	-0.206	-0.275	
16.740	-0.268	-0.350	
16.745	-0.329	-0.371	
16.750	-0.087	-0.360	
16.755	-0.061	-0.314	
16.760	-0.250	-0.255	
16.765	-0.090	-0.209	
16.770	0.116	-0.162	
16.775	-0.153	-0.110	
16.780	-0.122	-0.078	
16.785	0.233	-0.056	
16.790	0.029	-0.017	
16.795	-0.095	0.014	
16.800	0.331	0.035	
16.805	0.392	0.083	
16.810	0.107	0.147	
16.815	0.451	0.201	
16.820	0.735	0.270	
16.825	0.387	0.361	
16.830	0.390	0.427	
16.835	0.732	0.468	
16.840	0.439	0.508	
16.845	0.160	0.515	
16.850	0.471	0.480	
16.855	0.366	0.442	
16.860	-0.066	0.395	
16.865	0.079	0.313	
16.870	0.230	0.230	
16.875	-0.120	0.166	
16.880	-0.124	0.098	
16.885	0.160	0.036	
16.890	-0.061	0.006	
16.895	-0.192	-0.017	
16.900	0.107	-0.041	
16.905	0.105	-0.039	
16.910	-0.166	-0.024	
16.915	0.001	-0.023	
16.920	0.186	-0.017	
16.925	-0.145	-0.000	
16.930	-0.151	-0.004	
16.935	0.111	-0.020	
16.940	-0.111	-0.027	
16.945	-0.250	-0.041	
16.950	-0.050	-0.072	
16.955	-0.099	-0.094	
16.960	-0.328	-0.114	
16.965	-0.215	-0.148	
16.970	-0.110	-0.177	
16.975	-0.313	-0.193	
16.980	-0.308	-0.214	
16.985	-0.104	-0.232	
16.990	-0.238	-0.233	
16.995	-0.355	-0.233	
17.000	-0.188	-0.243	
17.005	-0.229	-0.247	
17.010	-0.409	-0.252	
17.015	-0.198	-0.266	
17.020	0.248	-0.249	
17.025	0.315	-0.166	
17.030	0.543	-0.029	
17.035	0.809	0.145	
17.040	0.197	0.313	
17.045	-0.284	0.380	
17.050	-0.249	0.315	
17.055	-0.329	0.173	
17.060	-0.521	0.006	
17.065	-0.348	-0.157	
17.070	-0.186	-0.273	
17.075	-0.322	-0.328	
17.080	-0.261	-0.344	
17.085	0.024	-0.327	
17.090	-0.124	-0.273	
17.095	-0.226	-0.217	
17.100	0.062	-0.173	
17.105	0.064	-0.121	
17.110	-0.191	-0.073	
17.115	-0.005	-0.051	
17.120	0.238	-0.029	
17.125	-0.075	0.005	
17.130	-0.017	0.025	
17.135	0.412	0.044	
17.140	0.229	0.093	
17.145	0.093	0.144	
17.150	0.514	0.185	
17.155	0.509	0.247	
17.160	0.136	0.308	
17.165	0.375	0.335	
17.170	0.521	0.351	
17.175	0.067	0.363	
17.180	0.035	0.333	
17.185	0.326	0.279	
17.190	0.012	0.233	
17.195	-0.172	0.175	
17.200	0.068	0.103	
17.205	0.020	0.047	
17.210	-0.235	0.005	
17.215	-0.105	-0.042	
17.220	0.040	-0.076	
17.225	-0.223	-0.090	
17.230	-0.203	-0.109	
17.235	0.043	-0.125	
17.240	-0.142	-0.122	
17.245	-0.258	-0.121	
17.250	-0.021	-0.129	
17.255	-0.040	-0.125	
17.260	-0.262	-0.117	
17.265	-0.130	-0.123	
17.270	0.012	-0.127	
17.275	-0.252	-0.122	
17.280	-0.253	-0.131	
17.285	-0.055	-0.149	
17.290	-0.224	-0.158	
17.295	-0.348	-0.172	
17.300	-0.159	-0.197	
17.305	-0.186	-0.212	
17.310	-0.392	-0.223	
17.315	-0.268	-0.244	
17.320	-0.156	-0.260	
17.325	-0.346	-0.262	
17.330	-0.354	-0.270	
17.335	-0.188	-0.282	
17.340	-0.317	-0.284	
17.345	-0.396	-0.288	
17.350	-0.073	-0.292	
17.355	0.212	-0.255	
17.360	0.140	-0.167	
17.365	0.436	-0.051	
17.370	0.471	0.085	
17.375	-0.185	0.191	
17.380	-0.325	0.197	
17.385	-0.217	0.116	
17.390	-0.377	0.002	
17.395	-0.459	-0.120	
17.400	-0.191	-0.227	
17.405	-0.136	-0.282	
17.410	-0.290	-0.292	
17.415	-0.110	-0.281	
17.420	0.079	-0.244	
17.425	-0.186	-0.187	
17.430	-0.157	-0.145	
17.435	0.175	-0.113	
17.440	-0.053	-0.070	
17.445	-0.177	-0.041	
17.450	0.148	-0.031	
17.455	0.177	-0.007	
17.460	-0.102	0.025	
17.465	0.175	0.043	
17.470	0.421	0.074	
17.475	0.076	0.127	
17.480	0.169	0.163	
17.485	0.599	0.198	
17.490	0.380	0.259	
17.495	0.154	0.311	
17.500	0.532	0.335	
17.505	0.450	0.362	
17.510	0.027	0.376	
17.515	0.209	0.346	
17.520	0.326	0.303	
17.525	-0.090	0.262	
17.530	-0.101	0.195	
17.535	0.203	0.122	
17.540	-0.069	0.075	
17.545	-0.220	0.030	
17.550	0.050	-0.018	
17.555	0.041	-0.042	
17.560	-0.194	-0.049	
17.565	-0.027	-0.061	
17.570	0.175	-0.059	
17.575	-0.148	-0.039	
17.580	-0.122	-0.033	
17.585	0.207	-0.033	
17.590	-0.041	-0.015	
17.595	-0.192	-0.006	
17.600	0.099	-0.016	
17.605	0.024	-0.017	
17.610	-0.226	-0.017	
17.615	-0.095	-0.039	
17.620	0.037	-0.059	
17.625	-0.242	-0.071	
17.630	-0.229	-0.095	
17.635	-0.006	-0.121	
17.640	-0.182	-0.132	
17.645	-0.270	-0.142	
17.650	-0.038	-0.156	
17.655	-0.070	-0.153	
17.660	-0.291	-0.145	
17.665	-0.174	-0.153	
17.670	-0.076	-0.161	
17.675	-0.285	-0.164	
17.680	-0.215	-0.175	
17.685	0.244	-0.169	
17.690	0.338	-0.107	
17.695	0.317	-0.000	
17.700	0.628	0.127	
17.705	0.357	0.255	
17.710	-0.207	0.323	
17.715	-0.185	0.286	
17.720	-0.172	0.180	
17.725	-0.395	0.052	
17.730	-0.354	-0.081	
17.735	-0.110	-0.187	
17.740	-0.203	-0.241	
17.745	-0.276	-0.259	
17.750	-0.011	-0.256	
17.755	-0.023	-0.222	
17.760	-0.229	-0.177	
17.765	-0.024	-0.146	
17.770	0.186	-0.108	
17.775	-0.137	-0.059	
17.780	-0.090	-0.033	
17.785	0.259	-0.017	
17.790	-0.005	0.014	
17.795	-0.127	0.032	
17.800	0.282	0.036	
17.805	0.309	0.066	
17.810	0.008	0.110	
17.815	0.329	0.142	
17.820	0.585	0.189	
17.825	0.215	0.256	
17.830	0.264	0.301	
17.835	0.645	0.332	
17.840	0.361	0.374	
17.845	0.111	0.394	
17.850	0.466	0.379	
17.855	0.331	0.366	
17.860	-0.087	0.339	
17.865	0.101	0.276	
17.870	0.280	0.212	
17.875	-0.081	0.168	
17.880	-0.043	0.119	
17.885	0.314	0.080	
17.890	0.038	0.074	
17.895	-0.119	0.071	
17.900	0.285	0.060	
17.905	0.241	0.075	
17.910	-0.101	0.100	
17.915	0.108	0.100	
17.920	0.261	0.099	
17.925	-0.122	0.104	
17.930	-0.084	0.084	
17.935	0.265	0.057	
17.940	-0.014	0.054	
17.945	-0.177	0.045	
17.950	0.099	0.020	
17.955	0.041	0.007	
17.960	-0.232	-0.003	
17.965	-0.093	-0.031	
17.970	0.000	-0.059	
17.975	-0.281	-0.079	
17.980	-0.277	-0.113	
17.985	-0.044	-0.149	
17.990	-0.235	-0.167	
17.995	-0.380	-0.187	
18.000	-0.194	-0.216	
18.005	-0.233	-0.237	
18.010	-0.424	-0.254	
18.015	-0.229	-0.276	
18.020	0.064	-0.273	
18.025	-0.037	-0.228	
18.030	0.122	-0.158	
18.035	0.410	-0.066	
18.040	-0.127	0.029	
18.045	-0.438	0.057	
18.050	-0.370	-0.003	
18.055	-0.450	-0.107	
18.060	-0.648	-0.227	
18.065	-0.508	-0.348	
18.070	-0.384	-0.438	
18.075	-0.567	-0.486	
18.080	-0.532	-0.515	
18.085	-0.340	-0.525	
18.090	-0.479	-0.511	
18.095	-0.581	-0.497	
18.100	-0.354	-0.490	
18.105	-0.366	-0.472	
18.110	-0.560	-0.453	
18.115	-0.395	-0.446	
18.120	-0.277	-0.436	
18.125	-0.486	-0.416	
18.130	-0.460	-0.409	
18.135	-0.239	-0.406	
18.140	-0.349	-0.389	
18.145	-0.432	-0.372	
18.150	-0.172	-0.359	
18.155	-0.165	-0.330	
18.160	-0.345	-0.293	
18.165	-0.154	-0.268	
18.170	0.012	-0.236	
18.175	-0.267	-0.195	
18.180	-0.238	-0.173	
18.185	0.018	-0.164	
18.190	-0.194	-0.148	
18.195	-0.308	-0.144	
18.200	-0.040	-0.154	
18.205	-0.090	-0.153	
18.210	-0.299	-0.148	
18.215	-0.102	-0.155	
18.220	0.113	-0.148	
18.225	-0.204	-0.121	
18.230	-0.153	-0.106	
18.235	0.232	-0.092	
18.240	-0.015	-0.054	
18.245	-0.128	-0.022	
18.250	0.370	0.002	
18.255	0.369	0.059	
18.260	-0.009	0.127	
18.265	0.309	0.167	
18.270	0.495	0.207	
18.275	0.015	0.249	
18.280	0.049	0.250	
18.285	0.427	0.230	
18.290	0.079	0.222	
18.295	-0.136	0.199	
18.300	0.227	0.152	
18.305	0.149	0.122	
18.310	-0.166	0.102	
18.315	0.096	0.069	
18.320	0.311	0.056	
18.325	-0.087	0.068	
18.330	-0.024	0.067	
18.335	0.329	0.063	
18.340	-0.011	0.078	
18.345	-0.146	0.078	
18.350	0.413	0.069	
18.355	0.674	0.114	
18.360	0.704	0.229	
18.365	1.226	0.396	
18.370	1.323	0.612	
18.375	0.553	0.809	
18.380	0.187	0.877	
18.385	0.236	0.803	
18.390	-0.166	0.641	
18.395	-0.273	0.426	
18.400	0.094	0.213	
18.405	0.131	0.071	
18.410	-0.124	-0.001	
18.415	0.204	-0.032	
18.420	0.437	-0.008	
18.425	-0.011	0.054	
18.430	0.046	0.096	
18.435	0.445	0.123	
18.440	0.149	0.164	
18.445	-0.041	0.186	
18.450	0.404	0.184	
18.455	0.372	0.202	
18.460	0.027	0.228	
18.465	0.348	0.234	
18.470	0.534	0.252	
18.475	0.142	0.286	
18.480	0.287	0.301	
18.485	0.764	0.321	
18.490	0.501	0.378	
18.495	0.320	0.433	
18.500	0.750	0.467	
18.505	0.631	0.511	
18.510	0.189	0.540	
18.515	0.476	0.523	
18.520	0.604	0.498	
18.525	0.101	0.477	
18.530	0.126	0.421	
18.535	0.465	0.354	
18.540	0.090	0.308	
18.545	-0.107	0.254	
18.550	0.288	0.188	
18.555	0.204	0.152	
18.560	-0.151	0.131	
18.565	0.078	0.096	
18.570	0.265	0.073	
18.575	-0.125	0.071	
18.580	-0.078	0.054	
18.585	0.280	0.035	
18.590	-0.029	0.041	
18.595	-0.180	0.038	
18.600	0.119	0.017	
18.605	0.018	0.007	
18.610	-0.244	-0.003	
18.615	-0.061	-0.032	
18.620	0.061	-0.055	
18.625	-0.277	-0.065	
18.630	-0.264	-0.094	
18.635	-0.052	-0.130	
18.640	-0.244	-0.152	
18.645	-0.348	-0.176	
18.650	-0.111	-0.203	
18.655	-0.156	-0.213	
18.660	-0.360	-0.214	
18.665	-0.201	-0.225	
18.670	-0.148	-0.231	
18.675	-0.418	-0.233	
18.680	-0.378	-0.254	
18.685	-0.058	-0.275	
18.690	0.003	-0.256	
18.695	0.315	-0.188	
18.700	1.047	-0.042	
18.705	0.892	0.190	
18.710	0.056	0.402	
18.715	-0.128	0.472	
18.720	-0.247	0.399	
18.725	-0.553	0.236	
18.730	-0.517	0.025	
18.735	-0.267	-0.168	
18.740	-0.361	-0.298	
18.745	-0.404	-0.371	
18.750	-0.113	-0.397	
18.755	-0.108	-0.371	
18.760	-0.302	-0.319	
18.765	-0.089	-0.271	
18.770	0.108	-0.215	
18.775	-0.209	-0.151	
18.780	-0.139	-0.113	
18.785	0.245	-0.084	
18.790	-0.032	-0.040	
18.795	-0.116	-0.008	
18.800	0.367	0.014	
18.805	0.343	0.067	
18.810	0.023	0.130	
18.815	0.442	0.175	
18.820	0.703	0.240	
18.825	0.322	0.327	
18.830	0.445	0.392	
18.835	0.823	0.446	
18.840	0.447	0.507	
18.845	0.213	0.533	
18.850	0.613	0.515	
18.855	0.442	0.499	
18.860	-0.017	0.467	
18.865	0.230	0.394	
18.870	0.351	0.323	
18.875	-0.089	0.267	
18.880	-0.047	0.196	
18.885	0.274	0.129	
18.890	-0.040	0.094	
18.895	-0.153	0.061	
18.900	0.215	0.028	
18.905	0.128	0.025	
18.910	-0.183	0.032	
18.915	0.004	0.019	
18.920	0.154	0.008	
18.925	-0.182	0.007	
18.930	-0.146	-0.011	
18.935	0.113	-0.034	
18.940	-0.160	-0.043	
18.945	-0.267	-0.062	
18.950	-0.027	-0.093	
18.955	-0.096	-0.110	
18.960	-0.314	-0.123	
18.965	-0.163	-0.147	
18.970	-0.089	-0.166	
18.975	-0.340	-0.176	
18.980	-0.293	-0.197	
18.985	-0.099	-0.219	
18.990	-0.279	-0.224	
18.995	-0.375	-0.233	
19.000	-0.157	-0.249	
19.005	-0.230	-0.254	
19.010	-0.450	-0.258	
19.015	-0.300	-0.279	
19.020	-0.145	-0.293	
19.025	-0.215	-0.283	
19.030	0.215	-0.242	
19.035	0.863	-0.128	
19.040	0.491	0.064	
19.045	-0.015	0.231	
19.050	-0.060	0.289	
19.055	-0.300	0.244	
19.060	-0.561	0.121	
19.065	-0.425	-0.048	
19.070	-0.308	-0.201	
19.075	-0.460	-0.309	
19.080	-0.357	-0.378	
19.085	-0.113	-0.401	
19.090	-0.267	-0.378	
19.095	-0.331	-0.342	
19.100	-0.053	-0.306	
19.105	-0.073	-0.256	
19.110	-0.264	-0.205	
19.115	-0.070	-0.173	
19.120	0.085	-0.141	
19.125	-0.213	-0.104	
19.130	-0.160	-0.089	
19.135	0.151	-0.084	
19.140	-0.072	-0.062	
19.145	-0.127	-0.046	
19.150	0.285	-0.031	
19.155	0.146	0.009	
19.160	-0.197	0.045	
19.165	-0.031	0.041	
19.170	0.070	0.023	
19.175	-0.252	0.004	
19.180	-0.212	-0.037	
19.185	0.009	-0.080	
19.190	-0.180	-0.104	
19.195	-0.268	-0.125	
19.200	-0.032	-0.147	
19.205	-0.110	-0.151	
19.210	-0.313	-0.151	
19.215	-0.137	-0.164	
19.220	-0.020	-0.168	
19.225	-0.241	-0.158	
19.230	-0.177	-0.155	
19.235	0.099	-0.148	
19.240	-0.146	-0.123	
19.245	-0.217	-0.107	
19.250	0.108	-0.101	
19.255	0.011	-0.079	
19.260	-0.215	-0.058	
19.265	-0.015	-0.056	
19.270	0.128	-0.051	
19.275	-0.203	-0.037	
19.280	-0.160	-0.044	
19.285	0.125	-0.057	
19.290	-0.145	-0.056	
19.295	-0.270	-0.065	
19.300	-0.064	-0.092	
19.305	-0.120	-0.112	
19.310	-0.310	-0.130	
19.315	-0.156	-0.156	
19.320	-0.055	-0.171	
19.325	-0.268	-0.172	
19.330	-0.213	-0.177	
19.335	0.011	-0.179	
19.340	-0.182	-0.164	
19.345	-0.277	-0.156	
19.350	-0.026	-0.158	
19.355	-0.014	-0.146	
19.360	-0.093	-0.120	
19.365	0.532	-0.069	
19.370	0.831	0.051	
19.375	0.317	0.217	
19.380	0.160	0.333	
19.385	0.151	0.365	
19.390	-0.271	0.323	
19.395	-0.421	0.204	
19.400	-0.218	0.047	
19.405	-0.220	-0.088	
19.410	-0.332	-0.185	
19.415	-0.101	-0.243	
19.420	0.116	-0.246	
19.425	-0.148	-0.203	
19.430	-0.061	-0.156	
19.435	0.291	-0.103	
19.440	0.012	-0.033	
19.445	-0.089	0.018	
19.450	0.328	0.047	
19.455	0.265	0.091	
19.460	-0.038	0.134	
19.465	0.322	0.154	
19.470	0.538	0.188	
19.475	0.154	0.242	
19.480	0.305	0.276	
19.485	0.719	0.311	
19.490	0.448	0.372	
19.495	0.290	0.421	
19.500	0.721	0.448	
19.505	0.642	0.488	
19.510	0.247	0.522	
19.515	0.511	0.518	
19.520	0.608	0.507	
19.525	0.139	0.494	
19.530	0.180	0.446	
19.535	0.462	0.384	
19.540	0.091	0.338	
19.545	-0.060	0.280	
19.550	0.334	0.214	
19.555	0.216	0.180	
19.560	-0.098	0.161	
19.565	0.174	0.131	
19.570	0.288	0.117	
19.575	-0.085	0.119	
19.580	-0.009	0.103	
19.585	0.346	0.087	
19.590	0.033	0.097	
19.595	-0.096	0.098	
19.600	0.268	0.086	
19.605	0.171	0.092	
19.610	-0.108	0.101	
19.615	0.108	0.090	
19.620	0.178	0.081	
19.625	-0.172	0.075	
19.630	-0.142	0.044	
19.635	0.091	0.004	
19.640	-0.148	-0.021	
19.645	-0.252	-0.051	
19.650	-0.020	-0.087	
19.655	-0.101	-0.107	
19.660	-0.281	-0.120	
19.665	-0.108	-0.140	
19.670	-0.008	-0.147	
19.675	-0.265	-0.141	
19.680	-0.241	-0.149	
19.685	-0.060	-0.162	
19.690	-0.204	-0.165	
19.695	-0.160	-0.164	
19.700	0.491	-0.136	
19.705	0.646	-0.029	
19.710	0.322	0.126	
19.715	0.474	0.261	
19.720	0.282	0.350	
19.725	-0.259	0.365	
19.730	-0.297	0.281	
19.735	-0.142	0.142	
19.740	-0.291	0.007	
19.745	-0.334	-0.110	
19.750	-0.063	-0.194	
19.755	-0.073	-0.224	
19.760	-0.229	-0.218	
19.765	-0.008	-0.199	
19.770	0.151	-0.158	
19.775	-0.143	-0.101	
19.780	-0.044	-0.063	
19.785	0.314	-0.029	
19.790	0.029	0.021	
19.795	-0.079	0.056	
19.800	0.335	0.072	
19.805	0.274	0.106	
19.810	-0.008	0.144	
19.815	0.346	0.164	
19.820	0.544	0.200	
19.825	0.181	0.256	
19.830	0.320	0.292	
19.835	0.707	0.327	
19.840	0.389	0.382	
19.845	0.198	0.416	
19.850	0.579	0.419	
19.855	0.437	0.426	
19.860	0.053	0.420	
19.865	0.300	0.379	
19.870	0.372	0.336	
19.875	-0.060	0.298	
19.880	-0.014	0.236	
19.885	0.285	0.171	
19.890	-0.034	0.131	
19.895	-0.130	0.092	
19.900	0.207	0.051	
19.905	0.102	0.040	
19.910	-0.153	0.039	
19.915	0.094	0.026	
19.920	0.233	0.028	
19.925	-0.110	0.044	
19.930	-0.017	0.044	
19.935	0.290	0.042	
19.940	-0.047	0.058	
19.945	-0.143	0.057	
19.950	0.198	0.040	
19.955	0.073	0.039	
19.960	-0.186	0.039	
19.965	-0.014	0.017	
19.970	0.049	-0.004	
19.975	-0.242	-0.021	
19.980	-0.186	-0.055	
19.985	0.038	-0.087	
19.990	-0.183	-0.101	
19.995	-0.246	-0.115	
20.000	-0.009	-0.133	
20.005	-0.095	-0.133	
20.010	-0.282	-0.131	
20.015	-0.128	-0.142	
20.020	-0.061	-0.149	
20.025	-0.258	-0.148	
20.030	-0.058	-0.150	
20.035	0.604	-0.112	
20.040	0.575	0.006	
20.045	0.445	0.165	
20.050	0.677	0.311	
20.055	0.174	0.417	
20.060	-0.310	0.425	
20.065	-0.246	0.318	
20.070	-0.206	0.161	
20.075	-0.390	0.005	
20.080	-0.268	-0.130	
20.085	-0.021	-0.216	
20.090	-0.175	-0.241	
20.095	-0.213	-0.236	
20.100	0.125	-0.212	
20.105	0.026	-0.158	
20.110	-0.183	-0.103	
20.115	0.073	-0.069	
20.120	0.235	-0.030	
20.125	-0.116	0.014	
20.130	-0.027	0.032	
20.135	0.283	0.040	
20.140	-0.014	0.061	
20.145	-0.076	0.068	
20.150	0.369	0.069	
20.155	0.287	0.100	
20.160	-0.003	0.140	
20.165	0.363	0.164	
20.170	0.479	0.201	
20.175	0.073	0.246	
20.180	0.192	0.260	
20.185	0.505	0.264	
20.190	0.123	0.278	
20.195	-0.076	0.265	
20.200	0.236	0.219	
20.205	0.056	0.177	
20.210	-0.206	0.130	
20.215	-0.029	0.065	
20.220	0.043	0.011	
20.225	-0.230	-0.025	
20.230	-0.165	-0.066	
20.235	0.046	-0.097	
20.240	-0.185	-0.106	
20.245	-0.256	-0.118	
20.250	0.000	-0.134	
20.255	-0.081	-0.133	
20.260	-0.261	-0.127	
20.265	-0.075	-0.132	
20.270	0.021	-0.128	
20.275	-0.249	-0.116	
20.280	-0.192	-0.119	
20.285	0.004	-0.127	
20.290	-0.215	-0.127	
20.295	-0.299	-0.136	
20.300	-0.101	-0.158	
20.305	-0.194	-0.171	
20.310	-0.390	-0.187	
20.315	-0.247	-0.217	
20.320	-0.203	-0.241	
20.325	-0.406	-0.258	
20.330	-0.339	-0.281	
20.335	-0.168	-0.298	
20.340	-0.334	-0.298	
20.345	-0.393	-0.300	
20.350	-0.201	-0.306	
20.355	-0.297	-0.303	
20.360	-0.465	-0.304	
20.365	-0.244	-0.316	
20.370	0.021	-0.307	
20.375	0.065	-0.252	
20.380	0.521	-0.147	
20.385	0.835	0.021	
20.390	0.223	0.211	
20.395	-0.252	0.313	
20.400	-0.238	0.282	
20.405	-0.404	0.162	
20.410	-0.569	-0.001	
20.415	-0.352	-0.169	
20.420	-0.230	-0.289	
20.425	-0.378	-0.350	
20.430	-0.273	-0.374	
20.435	-0.056	-0.361	
20.440	-0.229	-0.317	
20.445	-0.274	-0.273	
20.450	0.018	-0.236	
20.455	-0.060	-0.188	
20.460	-0.235	-0.145	
20.465	0.011	-0.121	
20.470	0.155	-0.090	
20.475	-0.146	-0.050	
20.480	-0.021	-0.028	
20.485	0.343	-0.005	
20.490	0.070	0.041	
20.495	0.043	0.080	
20.500	0.546	0.117	
20.505	0.468	0.188	
20.510	0.160	0.263	
20.515	0.514	0.312	
20.520	0.579	0.360	
20.525	0.122	0.400	
20.530	0.195	0.393	
20.535	0.453	0.361	
20.540	0.055	0.332	
20.545	-0.095	0.278	
20.550	0.239	0.205	
20.555	0.053	0.152	
20.560	-0.200	0.104	
20.565	-0.008	0.045	
20.570	0.087	0.002	
20.575	-0.207	-0.022	
20.580	-0.133	-0.050	
20.585	0.114	-0.072	
20.590	-0.148	-0.072	
20.595	-0.195	-0.076	
20.600	0.157	-0.081	
20.605	0.015	-0.063	
20.610	-0.232	-0.044	
20.615	-0.047	-0.050	
20.620	0.030	-0.057	
20.625	-0.250	-0.061	
20.630	-0.189	-0.082	
20.635	0.009	-0.106	
20.640	-0.226	-0.116	
20.645	-0.317	-0.135	
20.650	-0.114	-0.164	
20.655	-0.209	-0.183	
20.660	-0.381	-0.201	
20.665	-0.206	-0.227	
20.670	-0.143	-0.241	
20.675	-0.355	-0.242	
20.680	-0.282	-0.251	
20.685	-0.131	-0.257	
20.690	-0.360	-0.255	
20.695	-0.460	-0.267	
20.700	-0.238	-0.294	
20.705	-0.163	-0.303	
20.710	-0.040	-0.280	
20.715	0.872	-0.188	
20.720	1.151	0.024	
20.725	0.578	0.297	
20.730	0.236	0.493	
20.735	0.001	0.548	
20.740	-0.403	0.466	
20.745	-0.538	0.278	
20.750	-0.326	0.051	
20.755	-0.332	-0.141	
20.760	-0.432	-0.274	
20.765	-0.197	-0.354	
20.770	-0.076	-0.369	
20.775	-0.274	-0.337	
20.780	-0.171	-0.296	
20.785	0.101	-0.245	
20.790	-0.136	-0.180	
20.795	-0.166	-0.130	
20.800	0.224	-0.093	
20.805	0.120	-0.039	
20.810	-0.099	0.012	
20.815	0.302	0.045	
20.820	0.489	0.099	
20.825	0.123	0.172	
20.830	0.335	0.225	
20.835	0.753	0.281	
20.840	0.492	0.365	
20.845	0.439	0.439	
20.850	0.867	0.498	
20.855	0.683	0.566	
20.860	0.294	0.612	
20.865	0.578	0.607	
20.870	0.608	0.588	
20.875	0.072	0.556	
20.880	0.122	0.478	
20.885	0.364	0.382	
20.890	-0.040	0.303	
20.895	-0.127	0.215	
20.900	0.218	0.128	
20.905	0.050	0.079	
20.910	-0.174	0.047	
20.915	0.076	0.012	
20.920	0.146	-0.002	
20.925	-0.183	0.001	
20.930	-0.093	-0.013	
20.935	0.183	-0.026	
20.940	-0.117	-0.020	
20.945	-0.172	-0.024	
20.950	0.134	-0.037	
20.955	-0.056	-0.034	
20.960	-0.250	-0.037	
20.965	-0.075	-0.061	
20.970	-0.049	-0.082	
20.975	-0.300	-0.099	
20.980	-0.238	-0.130	
20.985	-0.090	-0.161	
20.990	-0.303	-0.180	
20.995	-0.367	-0.205	
21.000	-0.159	-0.235	
21.005	-0.249	-0.249	
21.010	-0.407	-0.259	
21.015	-0.238	-0.276	
21.020	-0.209	-0.284	
21.025	-0.464	-0.287	
21.030	-0.428	-0.308	
21.035	-0.274	-0.335	
21.040	-0.348	-0.347	
21.045	-0.174	-0.342	
21.050	0.767	-0.273	
21.055	0.983	-0.081	
21.060	0.613	0.183	
21.065	0.530	0.405	
21.070	0.004	0.517	
21.075	-0.485	0.480	
21.080	-0.517	0.304	
21.085	-0.389	0.074	
21.090	-0.511	-0.137	
21.095	-0.486	-0.302	
21.100	-0.204	-0.406	
21.105	-0.233	-0.434	
21.110	-0.346	-0.415	
21.115	-0.125	-0.377	
21.120	-0.031	-0.318	
21.125	-0.256	-0.251	
21.130	-0.148	-0.203	
21.135	0.130	-0.162	
21.140	-0.116	-0.112	
21.145	-0.136	-0.078	
21.150	0.261	-0.052	
21.155	0.155	-0.005	
21.160	-0.064	0.042	
21.165	0.354	0.075	
21.170	0.518	0.131	
21.175	0.192	0.208	
21.180	0.428	0.268	
21.185	0.758	0.332	
21.190	0.392	0.410	
21.195	0.273	0.456	
21.200	0.630	0.467	
21.205	0.383	0.474	
21.210	0.012	0.456	
21.215	0.293	0.394	
21.220	0.277	0.332	
21.225	-0.139	0.273	
21.230	-0.061	0.190	
21.235	0.186	0.111	
21.240	-0.128	0.060	
21.245	-0.194	0.012	
21.250	0.108	-0.033	
21.255	-0.052	-0.050	
21.260	-0.233	-0.060	
21.265	0.004	-0.077	
21.270	0.087	-0.078	
21.275	-0.204	-0.065	
21.280	-0.102	-0.066	
21.285	0.113	-0.068	
21.290	-0.194	-0.060	
21.295	-0.261	-0.070	
21.300	-0.035	-0.096	
21.305	-0.175	-0.115	
21.310	-0.363	-0.137	
21.315	-0.207	-0.174	
21.320	-0.209	-0.206	
21.325	-0.447	-0.233	
21.330	-0.378	-0.271	
21.335	-0.233	-0.307	
21.340	-0.410	-0.325	
21.345	-0.442	-0.343	
21.350	-0.221	-0.359	
21.355	-0.305	-0.355	
21.360	-0.477	-0.348	
21.365	-0.325	-0.354	
21.370	-0.290	-0.356	
21.375	-0.441	-0.354	
21.380	-0.186	-0.350	
21.385	0.544	-0.296	
21.390	0.680	-0.142	
21.395	0.703	0.080	
21.400	0.858	0.311	
21.405	0.107	0.483	
21.410	-0.396	0.510	
21.415	-0.360	0.381	
21.420	-0.389	0.178	
21.425	-0.567	-0.034	
21.430	-0.412	-0.221	
21.435	-0.186	-0.345	
21.440	-0.300	-0.392	
21.445	-0.274	-0.392	
21.450	0.041	-0.357	
21.455	-0.070	-0.286	
21.460	-0.224	-0.213	
21.465	0.073	-0.159	
21.470	0.181	-0.098	
21.475	-0.133	-0.036	
21.480	0.058	0.000	
21.485	0.418	0.036	
21.490	0.108	0.093	
21.495	0.101	0.138	
21.500	0.599	0.177	
21.505	0.520	0.247	
21.510	0.319	0.326	
21.515	0.765	0.394	
21.520	0.863	0.479	
21.525	0.453	0.569	
21.530	0.623	0.618	
21.535	0.848	0.646	
21.540	0.402	0.666	
21.545	0.268	0.641	
21.550	0.604	0.582	
21.555	0.332	0.529	
21.560	-0.024	0.463	
21.565	0.287	0.371	
21.570	0.303	0.297	
21.575	-0.110	0.242	
21.580	0.000	0.174	
21.585	0.264	0.115	
21.590	-0.089	0.086	
21.595	-0.142	0.053	
21.600	0.204	0.019	
21.605	0.011	0.012	
21.610	-0.183	0.008	
21.615	0.114	-0.007	
21.620	0.157	-0.003	
21.625	-0.180	0.011	
21.630	-0.069	0.003	
21.635	0.168	-0.008	
21.640	-0.156	-0.007	
21.645	-0.210	-0.022	
21.650	0.043	-0.049	
21.655	-0.134	-0.066	
21.660	-0.310	-0.087	
21.665	-0.127	-0.121	
21.670	-0.108	-0.147	
21.675	-0.334	-0.164	
21.680	-0.232	-0.188	
21.685	-0.073	-0.206	
21.690	-0.281	-0.207	
21.695	-0.313	-0.213	
21.700	-0.113	-0.224	
21.705	-0.244	-0.224	
21.710	-0.374	-0.227	
21.715	-0.058	-0.236	
21.720	0.332	-0.203	
21.725	0.393	-0.104	
21.730	0.866	0.056	
21.735	1.061	0.271	
21.740	0.358	0.481	
21.745	-0.117	0.572	
21.750	-0.064	0.514	
21.755	-0.265	0.367	
21.760	-0.432	0.180	
21.765	-0.197	-0.007	
21.770	-0.087	-0.139	
21.775	-0.255	-0.208	
21.780	-0.072	-0.234	
21.785	0.229	-0.211	
21.790	-0.095	-0.148	
21.795	-0.120	-0.093	
21.800	0.250	-0.053	
21.805	0.064	-0.003	
21.810	-0.127	0.034	
21.815	0.235	0.048	
21.820	0.294	0.075	
21.825	-0.055	0.110	
21.830	0.180	0.124	
21.835	0.534	0.146	
21.840	0.216	0.198	
21.845	0.224	0.242	
21.850	0.691	0.281	
21.855	0.527	0.347	
21.860	0.255	0.408	
21.865	0.640	0.440	
21.870	0.663	0.476	
21.875	0.209	0.506	
21.880	0.344	0.493	
21.885	0.534	0.462	
21.890	0.102	0.431	
21.895	-0.017	0.370	
21.900	0.314	0.289	
21.905	0.033	0.226	
21.910	-0.180	0.162	
21.915	0.105	0.091	
21.920	0.151	0.047	
21.925	-0.149	0.029	
21.930	-0.002	0.008	
21.935	0.248	0.000	
21.940	-0.107	0.015	
21.945	-0.137	0.014	
21.950	0.206	0.003	
21.955	0.015	0.011	
21.960	-0.175	0.015	
21.965	0.082	0.003	
21.970	0.104	0.001	
21.975	-0.191	0.004	
21.980	-0.101	-0.013	
21.985	0.052	-0.034	
21.990	-0.224	-0.049	
21.995	-0.271	-0.078	
22.000	-0.072	-0.116	
22.005	-0.221	-0.143	
22.010	-0.377	-0.171	
22.015	-0.183	-0.207	
22.020	-0.157	-0.227	
22.025	-0.355	-0.235	
22.030	-0.253	-0.247	
22.035	-0.131	-0.253	
22.040	-0.345	-0.249	
22.045	-0.358	-0.256	
22.050	-0.117	-0.266	
22.055	-0.142	-0.256	
22.060	-0.116	-0.228	
22.065	0.625	-0.160	
22.070	0.822	-0.007	
22.075	0.320	0.189	
22.080	0.195	0.327	
22.085	0.011	0.368	
22.090	-0.363	0.313	
22.095	-0.448	0.175	
22.100	-0.271	0.004	
22.105	-0.342	-0.142	
22.110	-0.415	-0.251	
22.115	-0.169	-0.320	
22.120	-0.099	-0.334	
22.125	-0.282	-0.310	
22.130	-0.162	-0.278	
22.135	0.053	-0.237	
22.140	-0.182	-0.184	
22.145	-0.185	-0.147	
22.150	0.128	-0.121	
22.155	-0.050	-0.085	
22.160	-0.203	-0.060	
22.165	0.076	-0.054	
22.170	0.146	-0.036	
22.175	-0.120	-0.010	
22.180	0.110	0.006	
22.185	0.441	0.037	
22.190	0.070	0.095	
22.195	0.032	0.134	
22.200	0.433	0.155	
22.205	0.181	0.186	
22.210	-0.096	0.199	
22.215	0.195	0.178	
22.220	0.171	0.156	
22.225	-0.182	0.132	
22.230	-0.090	0.084	
22.235	0.067	0.031	
22.240	-0.223	-0.009	
22.245	-0.259	-0.057	
22.250	-0.023	-0.105	
22.255	-0.163	-0.131	
22.260	-0.296	-0.149	
22.265	-0.078	-0.169	
22.270	-0.063	-0.171	
22.275	-0.284	-0.163	
22.280	-0.166	-0.166	
22.285	0.006	-0.165	
22.290	-0.221	-0.151	
22.295	-0.238	-0.148	
22.300	-0.011	-0.151	
22.305	-0.165	-0.145	
22.310	-0.300	-0.144	
22.315	-0.095	-0.157	
22.320	-0.104	-0.162	
22.325	-0.334	-0.164	
22.330	-0.233	-0.181	
22.335	-0.125	-0.198	
22.340	-0.346	-0.209	
22.345	-0.363	-0.230	
22.350	-0.165	-0.255	
22.355	-0.274	-0.265	
22.360	-0.404	-0.272	
22.365	-0.218	-0.286	
22.370	-0.210	-0.288	
22.375	-0.424	-0.285	
22.380	-0.325	-0.295	
22.385	-0.215	-0.305	
22.390	-0.383	-0.306	
22.395	-0.308	-0.309	
22.400	0.200	-0.291	
22.405	0.297	-0.210	
22.410	0.078	-0.091	
22.415	0.334	0.020	
22.420	0.033	0.107	
22.425	-0.392	0.131	
22.430	-0.377	0.066	
22.435	-0.290	-0.044	
22.440	-0.448	-0.155	
22.445	-0.401	-0.254	
22.450	-0.146	-0.320	
22.455	-0.207	-0.335	
22.460	-0.300	-0.321	
22.465	-0.064	-0.295	
22.470	-0.032	-0.249	
22.475	-0.253	-0.198	
22.480	-0.105	-0.166	
22.485	0.125	-0.135	
22.490	-0.146	-0.095	
22.495	-0.125	-0.072	
22.500	0.221	-0.055	
22.505	0.026	-0.021	
22.510	-0.131	0.007	
22.515	0.258	0.020	
22.520	0.346	0.056	
22.525	0.032	0.109	
22.530	0.309	0.148	
22.535	0.561	0.196	
22.540	0.207	0.259	
22.545	0.186	0.296	
22.550	0.534	0.310	
22.555	0.268	0.331	
22.560	-0.017	0.328	
22.565	0.300	0.291	
22.570	0.250	0.258	
22.575	-0.122	0.225	
22.580	0.047	0.170	
22.585	0.262	0.122	
22.590	-0.079	0.099	
22.595	-0.089	0.070	
22.600	0.256	0.043	
22.605	0.026	0.042	
22.610	-0.154	0.041	
22.615	0.190	0.029	
22.620	0.219	0.038	
22.625	-0.113	0.059	
22.630	0.094	0.063	
22.635	0.315	0.071	
22.640	-0.053	0.093	
22.645	-0.053	0.094	
22.650	0.314	0.084	
22.655	0.085	0.094	
22.660	-0.127	0.098	
22.665	0.166	0.082	
22.670	0.136	0.075	
22.675	-0.186	0.069	
22.680	-0.064	0.039	
22.685	0.117	0.009	
22.690	-0.175	-0.008	
22.695	-0.183	-0.034	
22.700	0.102	-0.061	
22.705	-0.084	-0.066	
22.710	-0.223	-0.069	
22.715	-0.009	-0.083	
22.720	-0.075	-0.089	
22.725	-0.294	-0.097	
22.730	-0.105	-0.118	
22.735	0.328	-0.115	
22.740	0.325	-0.052	
22.745	0.573	0.060	
22.750	0.913	0.214	
22.755	0.419	0.380	
22.760	-0.157	0.466	
22.765	-0.111	0.421	
22.770	-0.195	0.295	
22.775	-0.398	0.137	
22.780	-0.242	-0.023	
22.785	-0.052	-0.140	
22.790	-0.206	-0.198	
22.795	-0.151	-0.218	
22.800	0.229	-0.200	
22.805	0.024	-0.140	
22.810	-0.127	-0.077	
22.815	0.244	-0.031	
22.820	0.258	0.025	
22.825	-0.069	0.081	
22.830	0.180	0.107	
22.835	0.428	0.133	
22.840	0.078	0.173	
22.845	0.130	0.193	
22.850	0.552	0.209	
22.855	0.369	0.252	
22.860	0.209	0.296	
22.865	0.657	0.329	
22.870	0.674	0.386	
22.875	0.306	0.450	
22.880	0.546	0.482	
22.885	0.738	0.508	
22.890	0.319	0.535	
22.895	0.256	0.524	
22.900	0.562	0.487	
22.905	0.264	0.454	
22.910	-0.023	0.404	
22.915	0.294	0.328	
22.920	0.230	0.267	
22.925	-0.127	0.217	
22.930	0.033	0.152	
22.935	0.229	0.100	
22.940	-0.113	0.074	
22.945	-0.110	0.042	
22.950	0.223	0.014	
22.955	0.012	0.013	
22.960	-0.125	0.016	
22.965	0.207	0.013	
22.970	0.175	0.031	
22.975	-0.140	0.053	
22.980	0.029	0.051	
22.985	0.203	0.046	
22.990	-0.131	0.049	
22.995	-0.136	0.032	
23.000	0.116	0.005	
23.005	-0.113	-0.010	
23.010	-0.255	-0.033	
23.015	-0.047	-0.068	
23.020	-0.076	-0.093	
23.025	-0.281	-0.110	
23.030	-0.156	-0.135	
23.035	-0.049	-0.152	
23.040	-0.281	-0.157	
23.045	-0.262	-0.170	
23.050	-0.069	-0.186	
23.055	-0.247	-0.189	
23.060	-0.378	-0.199	
23.065	-0.182	-0.222	
23.070	-0.113	-0.232	
23.075	-0.136	-0.219	
23.080	0.518	-0.166	
23.085	0.979	-0.023	
23.090	0.546	0.192	
23.095	0.232	0.368	
23.100	0.105	0.438	
23.105	-0.293	0.398	
23.110	-0.488	0.261	
23.115	-0.300	0.073	
23.120	-0.262	-0.096	
23.125	-0.381	-0.216	
23.130	-0.198	-0.292	
23.135	-0.024	-0.313	
23.140	-0.224	-0.287	
23.145	-0.188	-0.252	
23.150	0.084	-0.212	
23.155	-0.096	-0.158	
23.160	-0.207	-0.117	
23.165	0.070	-0.096	
23.170	0.055	-0.068	
23.175	-0.171	-0.042	
23.180	0.053	-0.032	
23.185	0.287	-0.011	
23.190	-0.052	0.028	
23.195	0.003	0.051	
23.200	0.399	0.069	
23.205	0.184	0.110	
23.210	0.009	0.146	
23.215	0.393	0.164	
23.220	0.320	0.195	
23.225	-0.072	0.218	
23.230	0.113	0.202	
23.235	0.264	0.177	
23.240	-0.117	0.156	
23.245	-0.139	0.111	
23.250	0.093	0.055	
23.255	-0.142	0.013	
23.260	-0.262	-0.031	
23.265	-0.053	-0.080	
23.270	-0.084	-0.110	
23.275	-0.282	-0.128	
23.280	-0.137	-0.149	
23.285	-0.017	-0.159	
23.290	-0.250	-0.154	
23.295	-0.224	-0.157	
23.300	-0.018	-0.163	
23.305	-0.213	-0.157	
23.310	-0.329	-0.161	
23.315	-0.134	-0.180	
23.320	-0.172	-0.192	
23.325	-0.372	-0.201	
23.330	-0.256	-0.223	
23.335	-0.178	-0.241	
23.340	-0.403	-0.253	
23.345	-0.413	-0.276	
23.350	-0.267	-0.306	
23.355	-0.445	-0.328	
23.360	-0.607	-0.360	
23.365	-0.508	-0.409	
23.370	-0.614	-0.461	
23.375	-0.848	-0.521	
23.380	-0.765	-0.596	
23.385	-0.715	-0.665	
23.390	-0.954	-0.722	
23.395	-0.994	-0.784	
23.400	-0.889	-0.846	
23.405	-0.994	-0.894	
23.410	-0.986	-0.931	
23.415	-0.578	-0.941	
23.420	-0.418	-0.890	
23.425	-0.650	-0.796	
23.430	-0.729	-0.716	
23.435	-0.979	-0.687	
23.440	-0.996	-0.715	
23.445	-0.994	-0.780	
23.450	-0.996	-0.852	
23.455	-0.996	-0.914	
23.460	-0.994	-0.959	
23.465	-0.996	-0.988	
23.470	-0.996	-1.003	
23.475	-0.996	-1.010	
23.480	-0.996	-1.010	
23.485	-0.996	-1.008	
23.490	-0.996	-1.004	
23.495	-0.996	-1.001	
23.500	-0.996	-0.998	
23.505	-0.996	-0.997	
23.510	-0.996	-0.995	
23.515	-0.996	-0.995	
23.520	-0.996	-0.995	
23.525	-0.996	-0.995	
23.530	-0.994	-0.995	
23.535	-0.820	-0.987	
23.540	-0.895	-0.964	
23.545	-0.758	-0.930	
23.550	-0.502	-0.876	
23.555	-0.575	-0.795	
23.560	-0.613	-0.714	
23.565	-0.378	-0.642	
23.570	-0.392	-0.570	
23.575	-0.552	-0.508	
23.580	-0.381	-0.471	
23.585	-0.274	-0.439	
23.590	-0.473	-0.407	
23.595	-0.424	-0.392	
23.600	-0.206	-0.382	
23.605	-0.331	-0.361	
23.610	-0.381	-0.342	
23.615	-0.081	-0.323	
23.620	-0.092	-0.284	
23.625	-0.293	-0.238	
23.630	-0.040	-0.204	
23.635	0.194	-0.158	
23.640	-0.133	-0.097	
23.645	-0.006	-0.052	
23.650	0.401	-0.009	
23.655	0.131	0.057	
23.660	-0.008	0.109	
23.665	0.453	0.141	
23.670	0.381	0.189	
23.675	0.012	0.235	
23.680	0.325	0.248	
23.685	0.508	0.262	
23.690	0.058	0.285	
23.695	0.149	0.280	
23.700	0.562	0.268	
23.705	0.300	0.285	
23.710	0.142	0.301	
23.715	0.630	0.310	
23.720	0.602	0.349	
23.725	0.256	0.400	
23.730	0.540	0.428	
23.735	0.691	0.456	
23.740	0.287	0.488	
23.745	0.506	0.495	
23.750	1.157	0.520	
23.755	1.270	0.625	
23.760	1.367	0.795	
23.765	1.799	1.000	
23.770	1.418	1.210	
23.775	0.588	1.332	
23.780	0.593	1.292	
23.785	0.579	1.143	
23.790	0.116	0.945	
23.795	0.270	0.723	
23.800	0.756	0.546	
23.805	0.523	0.464	
23.810	0.451	0.442	
23.815	0.944	0.459	
23.820	0.883	0.531	
23.825	0.538	0.619	
23.830	0.919	0.680	
23.835	1.094	0.745	
23.840	0.677	0.814	
23.845	0.788	0.847	
23.850	1.178	0.865	
23.855	0.934	0.903	
23.860	0.837	0.934	
23.865	1.323	0.958	
23.870	1.285	1.013	
23.875	0.977	1.078	
23.880	1.384	1.124	
23.885	1.584	1.185	
23.890	1.181	1.261	
23.895	1.302	1.308	
23.900	1.645	1.340	
23.905	1.282	1.379	
23.910	1.041	1.387	
23.915	1.393	1.354	
23.920	1.201	1.320	
23.925	0.780	1.271	
23.930	1.041	1.187	
23.935	1.145	1.112	
23.940	0.671	1.055	
23.945	0.730	0.980	
23.950	1.087	0.911	
23.955	0.774	0.879	
23.960	0.588	0.849	
23.965	0.992	0.814	
23.970	0.863	0.805	
23.975	0.477	0.799	
23.980	0.799	0.770	
23.985	0.941	0.752	
23.990	0.512	0.752	
23.995	0.575	0.730	
24.000	0.910	0.704	
24.005	0.562	0.697	
24.010	0.395	0.677	
24.015	0.793	0.641	
24.020	0.649	0.627	
24.025	0.213	0.610	
24.030	0.506	0.562	
24.035	0.598	0.519	
24.040	0.143	0.487	
24.045	0.250	0.434	
24.050	0.584	0.384	
24.055	0.250	0.366	
24.060	0.070	0.342	
24.065	1.133	0.338	
24.070	2.023	0.475	
24.075	2.259	0.797	
24.080	2.870	1.243	
24.085	3.072	1.744	
24.090	3.006	2.223	
24.095	3.072	2.609	
24.100	3.069	2.881	
24.105	3.073	3.050	
24.110	2.732	3.121	
24.115	2.666	3.097	
24.120	2.197	2.987	
24.125	1.619	2.782	
24.130	1.851	2.504	
24.135	1.973	2.242	
24.140	1.555	2.038	
24.145	1.649	1.872	
24.150	1.982	1.761	
24.155	1.607	1.714	
24.160	1.370	1.678	
24.165	1.730	1.630	
24.170	1.511	1.599	
24.175	1.116	1.559	
24.180	1.370	1.488	
24.185	1.462	1.423	
24.190	0.992	1.373	
24.195	0.980	1.299	
24.200	1.236	1.216	
24.205	0.844	1.149	
24.210	0.660	1.070	
24.215	1.076	0.983	
24.220	0.974	0.933	
24.225	0.627	0.905	
24.230	0.948	0.871	
24.235	1.046	0.858	
24.240	0.544	0.858	
24.245	0.558	0.825	
24.250	0.785	0.769	
24.255	0.334	0.713	
24.260	0.107	0.626	
24.265	0.448	0.513	
24.270	0.239	0.421	
24.275	-0.107	0.335	
24.280	0.062	0.235	
24.285	0.079	0.147	
24.290	-0.220	0.077	
24.295	-0.151	0.005	
24.300	0.040	-0.054	
24.305	-0.165	-0.084	
24.310	-0.206	-0.106	
24.315	0.105	-0.119	
24.320	-0.020	-0.104	
24.325	-0.209	-0.084	
24.330	-0.015	-0.080	
24.335	0.064	-0.071	
24.340	-0.213	-0.058	
24.345	-0.149	-0.065	
24.350	0.082	-0.076	
24.355	-0.162	-0.074	
24.360	-0.244	-0.082	
24.365	-0.015	-0.101	
24.370	-0.124	-0.111	
24.375	-0.290	-0.120	
24.380	-0.063	-0.138	
24.385	0.059	-0.138	
24.390	-0.136	-0.116	
24.395	0.009	-0.093	
24.400	0.405	-0.051	
24.405	0.134	0.023	
24.410	0.008	0.086	
24.415	0.474	0.130	
24.420	0.476	0.194	
24.425	0.408	0.274	
24.430	1.296	0.382	
24.435	1.902	0.591	
24.440	1.703	0.899	
24.445	1.768	1.210	
24.450	1.851	1.468	
24.455	1.279	1.634	
24.460	0.998	1.664	
24.465	1.273	1.582	
24.470	1.084	1.463	
24.475	0.784	1.329	
24.480	1.090	1.191	
24.485	1.206	1.095	
24.490	0.706	1.040	
24.495	0.721	0.975	
24.500	0.936	0.906	
24.505	0.573	0.850	
24.510	0.386	0.780	
24.515	0.733	0.697	
24.520	0.569	0.640	
24.525	0.178	0.588	
24.530	0.451	0.517	
24.535	0.501	0.460	
24.540	0.101	0.419	
24.545	0.262	0.366	
24.550	0.587	0.328	
24.555	0.279	0.328	
24.560	0.195	0.329	
24.565	0.617	0.329	
24.570	0.408	0.352	
24.575	0.037	0.367	
24.580	0.273	0.341	
24.585	0.241	0.303	
24.590	-0.131	0.258	
24.595	-0.120	0.181	
24.600	0.033	0.094	
24.605	-0.232	0.021	
24.610	-0.300	-0.052	
24.615	-0.079	-0.121	
24.620	-0.185	-0.162	
24.625	-0.342	-0.189	
24.630	-0.145	-0.214	
24.635	-0.108	-0.221	
24.640	-0.337	-0.216	
24.645	-0.270	-0.222	
24.650	-0.119	-0.230	
24.655	-0.319	-0.230	
24.660	-0.367	-0.239	
24.665	-0.163	-0.256	
24.670	-0.250	-0.260	
24.675	-0.409	-0.264	
24.680	-0.230	-0.277	
24.685	-0.203	-0.282	
24.690	-0.432	-0.281	
24.695	-0.383	-0.296	
24.700	-0.262	-0.316	
24.705	-0.476	-0.331	
24.710	-0.569	-0.360	
24.715	-0.351	-0.398	
24.720	-0.422	-0.422	
24.725	-0.581	-0.437	
24.730	-0.399	-0.456	
24.735	-0.364	-0.461	
24.740	-0.579	-0.458	
24.745	-0.497	-0.465	
24.750	-0.323	-0.470	
24.755	-0.511	-0.462	
24.760	-0.531	-0.459	
24.765	-0.210	-0.456	
24.770	-0.149	-0.420	
24.775	-0.282	-0.362	
24.780	-0.166	-0.307	
24.785	-0.262	-0.264	
24.790	-0.601	-0.254	
24.795	-0.608	-0.297	
24.800	-0.528	-0.372	
24.805	-0.736	-0.451	
24.810	-0.785	-0.535	
24.815	-0.561	-0.610	
24.820	-0.631	-0.651	
24.825	-0.770	-0.671	
24.830	-0.589	-0.684	
24.835	-0.540	-0.679	
24.840	-0.703	-0.661	
24.845	-0.593	-0.647	
24.850	-0.413	-0.627	
24.855	-0.566	-0.593	
24.860	-0.584	-0.565	
24.865	-0.390	-0.545	
24.870	-0.480	-0.520	
24.875	-0.608	-0.502	
24.880	-0.395	-0.497	
24.885	-0.314	-0.482	
24.890	-0.467	-0.454	
24.895	-0.352	-0.431	
24.900	-0.175	-0.402	
24.905	-0.339	-0.361	
24.910	-0.372	-0.331	
24.915	-0.175	-0.313	
24.920	-0.291	-0.294	
24.925	-0.460	-0.286	
24.930	-0.291	-0.299	
24.935	-0.273	-0.311	
24.940	-0.497	-0.321	
24.945	-0.425	-0.345	
24.950	-0.299	-0.369	
24.955	-0.480	-0.382	
24.960	-0.518	-0.400	
24.965	-0.306	-0.419	
24.970	-0.383	-0.421	
24.975	-0.524	-0.418	
24.980	-0.332	-0.421	
24.985	-0.279	-0.412	
24.990	-0.467	-0.394	
24.995	-0.352	-0.385	
25.000	-0.194	-0.372	
25.005	-0.375	-0.349	
25.010	-0.404	-0.335	
25.015	-0.200	-0.330	
25.020	-0.285	-0.317	
25.025	-0.425	-0.307	
25.030	-0.242	-0.309	
25.035	-0.223	-0.306	
25.040	-0.439	-0.299	
25.045	-0.348	-0.308	
25.050	-0.204	-0.317	
25.055	-0.395	-0.316	
25.060	-0.424	-0.323	
25.065	-0.204	-0.333	
25.070	-0.296	-0.329	
25.075	-0.439	-0.323	
25.080	-0.242	-0.326	
25.085	-0.236	-0.321	
25.090	-0.459	-0.313	
25.095	-0.364	-0.322	
25.100	-0.139	-0.328	
25.105	-0.191	-0.309	
25.110	-0.053	-0.269	
25.115	0.421	-0.194	
25.120	0.123	-0.079	
25.125	-0.262	0.010	
25.130	-0.241	0.023	
25.135	-0.334	-0.025	
25.140	-0.584	-0.113	
25.145	-0.488	-0.227	
25.150	-0.308	-0.327	
25.155	-0.433	-0.387	
25.160	-0.415	-0.419	
25.165	-0.154	-0.422	
25.170	-0.223	-0.390	
25.175	-0.357	-0.346	
25.180	-0.149	-0.311	
25.185	-0.102	-0.271	
25.190	-0.305	-0.232	
25.195	-0.188	-0.211	
25.200	0.014	-0.193	
25.205	-0.212	-0.166	
25.210	-0.221	-0.151	
25.215	0.123	-0.140	
25.220	0.003	-0.108	
25.225	-0.159	-0.073	
25.230	0.197	-0.048	
25.235	0.291	-0.003	
25.240	-0.072	0.053	
25.245	0.114	0.082	
25.250	0.369	0.106	
25.255	-0.008	0.137	
25.260	-0.070	0.140	
25.265	0.267	0.121	
25.270	0.024	0.112	
25.275	-0.189	0.093	
25.280	0.043	0.052	
25.285	0.021	0.018	
25.290	-0.256	-0.010	
25.295	-0.154	-0.051	
25.300	0.033	-0.087	
25.305	-0.210	-0.102	
25.310	-0.224	-0.119	
25.315	0.043	-0.134	
25.320	-0.122	-0.128	
25.325	-0.270	-0.124	
25.330	-0.046	-0.131	
25.335	-0.012	-0.128	
25.340	-0.252	-0.118	
25.345	-0.146	-0.121	
25.350	0.030	-0.125	
25.355	-0.224	-0.117	
25.360	-0.261	-0.124	
25.365	-0.056	-0.141	
25.370	-0.200	-0.150	
25.375	-0.363	-0.164	
25.380	-0.200	-0.193	
25.385	-0.185	-0.215	
25.390	-0.396	-0.231	
25.395	-0.303	-0.255	
25.400	-0.162	-0.274	
25.405	-0.348	-0.277	
25.410	-0.360	-0.284	
25.415	-0.136	-0.290	
25.420	-0.252	-0.281	
25.425	-0.419	-0.273	
25.430	-0.258	-0.281	
25.435	-0.224	-0.287	
25.440	-0.332	-0.284	
25.445	0.011	-0.271	
25.450	0.683	-0.198	
25.455	0.485	-0.039	
25.460	0.354	0.139	
25.465	0.389	0.273	
25.470	-0.186	0.333	
25.475	-0.479	0.279	
25.480	-0.363	0.132	
25.485	-0.339	-0.036	
25.490	-0.480	-0.182	
25.495	-0.326	-0.295	
25.500	-0.128	-0.355	
25.505	-0.270	-0.358	
25.510	-0.256	-0.336	
25.515	0.021	-0.298	
25.520	-0.113	-0.240	
25.525	-0.232	-0.187	
25.530	0.068	-0.150	
25.535	0.128	-0.102	
25.540	-0.166	-0.053	
25.545	-0.005	-0.028	
25.550	0.283	-0.006	
25.555	-0.044	0.030	
25.560	-0.034	0.049	
25.565	0.419	0.064	
25.570	0.299	0.110	
25.575	0.111	0.165	
25.580	0.527	0.210	
25.585	0.569	0.273	
25.590	0.148	0.337	
25.595	0.328	0.362	
25.600	0.527	0.368	
25.605	0.107	0.372	
25.610	0.032	0.341	
25.615	0.366	0.288	
25.620	0.093	0.248	
25.625	-0.153	0.201	
25.630	0.119	0.136	
25.635	0.111	0.089	
25.640	-0.198	0.055	
25.645	-0.063	0.013	
25.650	0.161	-0.018	
25.655	-0.145	-0.025	
25.660	-0.159	-0.036	
25.665	0.169	-0.049	
25.670	-0.027	-0.039	
25.675	-0.192	-0.031	
25.680	0.072	-0.037	
25.685	0.055	-0.032	
25.690	-0.227	-0.027	
25.695	-0.119	-0.043	
25.700	0.044	-0.062	
25.705	-0.227	-0.072	
25.710	-0.247	-0.094	
25.715	-0.008	-0.121	
25.720	-0.191	-0.133	
25.725	-0.351	-0.148	
25.730	-0.159	-0.177	
25.735	-0.156	-0.196	
25.740	-0.369	-0.208	
25.745	-0.253	-0.229	
25.750	-0.131	-0.243	
25.755	-0.334	-0.244	
25.760	-0.370	-0.254	
25.765	-0.212	-0.271	
25.770	-0.345	-0.282	
25.775	-0.439	-0.297	
25.780	-0.105	-0.311	
25.785	0.328	-0.275	
25.790	0.445	-0.161	
25.795	0.883	0.022	
25.800	0.994	0.255	
25.805	0.123	0.461	
25.810	-0.277	0.522	
25.815	-0.262	0.423	
25.820	-0.438	0.240	
25.825	-0.529	0.028	
25.830	-0.282	-0.163	
25.835	-0.229	-0.288	
25.840	-0.377	-0.348	
25.845	-0.217	-0.368	
25.850	-0.038	-0.350	
25.855	-0.238	-0.300	
25.860	-0.215	-0.254	
25.865	0.105	-0.211	
25.870	-0.061	-0.153	
25.875	-0.186	-0.106	
25.880	0.140	-0.077	
25.885	0.168	-0.036	
25.890	-0.139	0.006	
25.895	0.081	0.024	
25.900	0.389	0.048	
25.905	0.097	0.095	
25.910	0.181	0.135	
25.915	0.634	0.181	
25.920	0.451	0.258	
25.925	0.256	0.331	
25.930	0.666	0.381	
25.935	0.654	0.438	
25.940	0.215	0.487	
25.945	0.373	0.488	
25.950	0.532	0.468	
25.955	0.052	0.440	
25.960	-0.026	0.373	
25.965	0.285	0.285	
25.970	-0.006	0.213	
25.975	-0.186	0.143	
25.980	0.085	0.068	
25.985	0.076	0.022	
25.990	-0.198	-0.003	
25.995	-0.053	-0.032	
26.000	0.149	-0.048	
26.005	-0.166	-0.043	
26.010	-0.159	-0.048	
26.015	0.151	-0.057	
26.020	-0.069	-0.048	
26.025	-0.210	-0.043	
26.030	0.047	-0.054	
26.035	0.003	-0.054	
26.040	-0.255	-0.053	
26.045	-0.139	-0.073	
26.050	-0.017	-0.095	
26.055	-0.271	-0.108	
26.060	-0.285	-0.134	
26.065	-0.093	-0.165	
26.070	-0.253	-0.183	
26.075	-0.383	-0.204	
26.080	-0.174	-0.231	
26.085	-0.175	-0.244	
26.090	-0.370	-0.246	
26.095	-0.238	-0.255	
26.100	-0.145	-0.258	
26.105	-0.413	-0.256	
26.110	-0.450	-0.273	
26.115	-0.241	-0.302	
26.120	-0.239	-0.315	
26.125	-0.085	-0.301	
26.130	0.934	-0.214	
26.135	1.245	0.008	
26.140	0.762	0.309	
26.145	0.556	0.553	
26.150	0.116	0.663	
26.155	-0.427	0.612	
26.160	-0.534	0.415	
26.165	-0.355	0.156	
26.170	-0.424	-0.077	
26.175	-0.468	-0.254	
26.180	-0.209	-0.367	
26.185	-0.163	-0.403	
26.190	-0.319	-0.386	
26.195	-0.142	-0.350	
26.200	0.059	-0.292	
26.205	-0.197	-0.220	
26.210	-0.160	-0.167	
26.215	0.187	-0.125	
26.220	-0.034	-0.073	
26.225	-0.153	-0.036	
26.230	0.239	-0.015	
26.235	0.273	0.025	
26.240	-0.024	0.076	
26.245	0.306	0.111	
26.250	0.608	0.163	
26.255	0.303	0.243	
26.260	0.408	0.312	
26.265	0.803	0.377	
26.270	0.550	0.458	
26.275	0.288	0.514	
26.280	0.616	0.528	
26.285	0.521	0.531	
26.290	0.065	0.514	
26.295	0.245	0.452	
26.300	0.358	0.381	
26.305	-0.084	0.316	
26.310	-0.090	0.230	
26.315	0.201	0.143	
26.320	-0.067	0.085	
26.325	-0.195	0.035	
26.330	0.094	-0.013	
26.335	0.062	-0.032	
26.340	-0.201	-0.034	
26.345	-0.035	-0.046	
26.350	0.146	-0.050	
26.355	-0.168	-0.038	
26.360	-0.154	-0.041	
26.365	0.139	-0.050	
26.370	-0.104	-0.045	
26.375	-0.241	-0.048	
26.380	-0.003	-0.068	
26.385	-0.063	-0.080	
26.390	-0.294	-0.090	
26.395	-0.168	-0.116	
26.400	-0.079	-0.141	
26.405	-0.325	-0.157	
26.410	-0.322	-0.184	
26.415	-0.116	-0.214	
26.420	-0.256	-0.226	
26.425	-0.367	-0.236	
26.430	-0.163	-0.251	
26.435	-0.178	-0.252	
26.440	-0.377	-0.248	
26.445	-0.256	-0.254	
26.450	-0.169	-0.260	
26.455	-0.366	-0.259	
26.460	-0.267	-0.264	
26.465	0.258	-0.248	
26.470	0.454	-0.162	
26.475	0.505	-0.012	
26.480	0.846	0.170	
26.485	0.430	0.349	
26.490	-0.282	0.439	
26.495	-0.331	0.380	
26.500	-0.320	0.223	
26.505	-0.523	0.036	
26.510	-0.448	-0.147	
26.515	-0.191	-0.284	
26.520	-0.270	-0.349	
26.525	-0.329	-0.366	
26.530	-0.070	-0.353	
26.535	-0.055	-0.305	
26.540	-0.238	-0.245	
26.545	-0.053	-0.197	
26.550	0.148	-0.146	
26.555	-0.149	-0.090	
26.560	-0.105	-0.057	
26.565	0.270	-0.035	
26.570	0.040	0.004	
26.575	-0.087	0.035	
26.580	0.346	0.053	
26.585	0.338	0.096	
26.590	0.044	0.149	
26.595	0.407	0.185	
26.600	0.658	0.239	
26.605	0.290	0.315	
26.610	0.322	0.365	
26.615	0.666	0.397	
26.620	0.334	0.431	
26.625	0.104	0.434	
26.630	0.439	0.401	
26.635	0.288	0.369	
26.640	-0.111	0.327	
26.645	0.070	0.252	
26.650	0.190	0.179	
26.655	-0.163	0.123	
26.660	-0.128	0.061	
26.665	0.151	0.007	
26.670	-0.113	-0.019	
26.675	-0.236	-0.042	
26.680	0.050	-0.070	
26.685	-0.002	-0.078	
26.690	-0.235	-0.076	
26.695	-0.070	-0.086	
26.700	0.075	-0.089	
26.705	-0.215	-0.080	
26.710	-0.191	-0.086	
26.715	0.046	-0.099	
26.720	-0.166	-0.099	
26.725	-0.277	-0.107	
26.730	-0.060	-0.127	
26.735	-0.125	-0.138	
26.740	-0.346	-0.148	
26.745	-0.223	-0.173	
26.750	-0.133	-0.197	
26.755	-0.342	-0.210	
26.760	-0.308	-0.230	
26.765	-0.113	-0.246	
26.770	-0.262	-0.246	
26.775	-0.345	-0.246	
26.780	-0.137	-0.250	
26.785	-0.204	-0.244	
26.790	-0.409	-0.240	
26.795	-0.261	-0.253	
26.800	-0.116	-0.261	
26.805	-0.185	-0.248	
26.810	0.174	-0.210	
26.815	0.773	-0.110	
26.820	0.459	0.061	
26.825	0.021	0.212	
26.830	0.026	0.272	
26.835	-0.239	0.243	
26.840	-0.508	0.140	
26.845	-0.386	-0.012	
26.850	-0.276	-0.157	
26.855	-0.422	-0.261	
26.860	-0.326	-0.332	
26.865	-0.064	-0.357	
26.870	-0.191	-0.334	
26.875	-0.265	-0.294	
26.880	0.015	-0.252	
26.885	-0.024	-0.197	
26.890	-0.247	-0.147	
26.895	-0.061	-0.122	
26.900	0.122	-0.098	
26.905	-0.160	-0.068	
26.910	-0.105	-0.054	
26.915	0.239	-0.043	
26.920	0.017	-0.012	
26.925	-0.081	0.014	
26.930	0.341	0.034	
26.935	0.323	0.080	
26.940	0.062	0.136	
26.945	0.444	0.180	
26.950	0.655	0.242	
26.955	0.233	0.320	
26.960	0.247	0.362	
26.965	0.518	0.374	
26.970	0.145	0.376	
26.975	-0.069	0.342	
26.980	0.258	0.274	
26.985	0.120	0.217	
26.990	-0.192	0.162	
26.995	-0.023	0.093	
27.000	0.096	0.035	
27.005	-0.221	-0.003	
27.010	-0.182	-0.045	
27.015	0.052	-0.082	
27.020	-0.174	-0.097	
27.025	-0.271	-0.112	
27.030	0.004	-0.132	
27.035	-0.038	-0.131	
27.040	-0.250	-0.122	
27.045	-0.082	-0.123	
27.050	0.043	-0.118	
27.055	-0.227	-0.104	
27.060	-0.197	-0.106	
27.065	0.012	-0.116	
27.070	-0.209	-0.117	
27.075	-0.299	-0.128	
27.080	-0.082	-0.151	
27.085	-0.163	-0.163	
27.090	-0.357	-0.175	
27.095	-0.227	-0.199	
27.100	-0.151	-0.218	
27.105	-0.364	-0.229	
27.110	-0.310	-0.247	
27.115	-0.108	-0.260	
27.120	-0.276	-0.256	
27.125	-0.375	-0.254	
27.130	-0.194	-0.263	
27.135	-0.239	-0.265	
27.140	-0.381	-0.265	
27.145	-0.111	-0.268	
27.150	0.337	-0.232	
27.155	0.244	-0.135	
27.160	0.340	-0.008	
27.165	0.497	0.121	
27.170	-0.124	0.218	
27.175	-0.396	0.219	
27.180	-0.302	0.123	
27.185	-0.390	-0.011	
27.190	-0.544	-0.150	
27.195	-0.345	-0.275	
27.200	-0.206	-0.352	
27.205	-0.369	-0.377	
27.210	-0.281	-0.376	
27.215	-0.046	-0.351	
27.220	-0.206	-0.301	
27.225	-0.268	-0.254	
27.230	0.044	-0.216	
27.235	-0.021	-0.167	
27.240	-0.218	-0.122	
27.245	0.023	-0.098	
27.250	0.209	-0.066	
27.255	-0.120	-0.023	
27.260	-0.029	-0.001	
27.265	0.383	0.020	
27.270	0.157	0.067	
27.275	0.084	0.114	
27.280	0.564	0.157	
27.285	0.523	0.230	
27.290	0.195	0.306	
27.295	0.477	0.351	
27.300	0.598	0.389	
27.305	0.139	0.420	
27.310	0.169	0.405	
27.315	0.450	0.366	
27.320	0.110	0.334	
27.325	-0.066	0.284	
27.330	0.294	0.220	
27.335	0.184	0.180	
27.340	-0.125	0.152	
27.345	0.116	0.113	
27.350	0.248	0.089	
27.355	-0.122	0.083	
27.360	-0.052	0.063	
27.365	0.277	0.044	
27.370	0.017	0.050	
27.375	-0.034	0.057	
27.380	0.476	0.069	
27.385	0.437	0.125	
27.390	0.152	0.199	
27.395	0.472	0.254	
27.400	0.579	0.312	
27.405	0.152	0.365	
27.410	0.223	0.375	
27.415	0.492	0.361	
27.420	0.119	0.348	
27.425	-0.050	0.309	
27.430	0.311	0.248	
27.435	0.152	0.206	
27.440	-0.146	0.169	
27.445	0.085	0.117	
27.450	0.189	0.079	
27.455	-0.156	0.061	
27.460	-0.089	0.030	
27.465	0.166	0.002	
27.470	-0.148	-0.008	
27.475	-0.250	-0.028	
27.480	0.027	-0.062	
27.485	0.087	-0.072	
27.490	0.093	-0.050	
27.495	0.805	0.019	
27.500	1.040	0.177	
27.505	0.482	0.377	
27.510	0.186	0.506	
27.515	0.084	0.520	
27.520	-0.293	0.434	
27.525	-0.424	0.268	
27.530	-0.210	0.075	
27.535	-0.209	-0.082	
27.540	-0.316	-0.188	
27.545	-0.075	-0.248	
27.550	0.091	-0.248	
27.555	-0.177	-0.206	
27.560	-0.090	-0.164	
27.565	0.239	-0.118	
27.570	-0.031	-0.057	
27.575	-0.110	-0.014	
27.580	0.279	0.012	
27.585	0.186	0.051	
27.590	-0.081	0.087	
27.595	0.264	0.102	
27.600	0.453	0.132	
27.605	0.125	0.182	
27.610	0.312	0.220	
27.615	0.698	0.265	
27.620	0.407	0.336	
27.625	0.283	0.391	
27.630	0.672	0.422	
27.635	0.521	0.459	
27.640	0.134	0.477	
27.645	0.399	0.453	
27.650	0.453	0.422	
27.655	-0.011	0.388	
27.660	0.040	0.322	
27.665	0.302	0.247	
27.670	-0.046	0.192	
27.675	-0.133	0.133	
27.680	0.201	0.075	
27.685	0.079	0.048	
27.690	-0.157	0.036	
27.695	0.093	0.016	
27.700	0.203	0.014	
27.705	-0.134	0.028	
27.710	-0.049	0.024	
27.715	0.244	0.018	
27.720	-0.070	0.029	
27.725	-0.142	0.027	
27.730	0.183	0.013	
27.735	0.020	0.015	
27.740	-0.206	0.014	
27.745	0.040	-0.005	
27.750	0.184	-0.011	
27.755	-0.140	0.000	
27.760	-0.063	-0.001	
27.765	0.204	-0.005	
27.770	-0.114	0.005	
27.775	-0.201	-0.001	
27.780	0.055	-0.026	
27.785	-0.085	-0.041	
27.790	-0.271	-0.059	
27.795	-0.078	-0.089	
27.800	0.035	-0.106	
27.805	-0.233	-0.106	
27.810	-0.191	-0.115	
27.815	-0.055	-0.129	
27.820	-0.262	-0.138	
27.825	-0.279	-0.157	
27.830	0.209	-0.165	
27.835	0.527	-0.108	
27.840	0.649	0.028	
27.845	1.062	0.223	
27.850	0.942	0.449	
27.855	0.021	0.615	
27.860	-0.212	0.618	
27.865	-0.221	0.477	
27.870	-0.439	0.269	
27.875	-0.464	0.045	
27.880	-0.195	-0.145	
27.885	-0.207	-0.261	
27.890	-0.320	-0.313	
27.895	-0.093	-0.324	
27.900	0.026	-0.292	
27.905	-0.215	-0.234	
27.910	-0.114	-0.186	
27.915	0.175	-0.141	
27.920	-0.093	-0.086	
27.925	-0.140	-0.050	
27.930	0.224	-0.030	
27.935	0.128	0.005	
27.940	-0.101	0.039	
27.945	0.251	0.057	
27.950	0.404	0.092	
27.955	0.087	0.146	
27.960	0.309	0.186	
27.965	0.654	0.234	
27.970	0.348	0.305	
27.975	0.248	0.358	
27.980	0.633	0.385	
27.985	0.436	0.418	
27.990	0.053	0.429	
27.995	0.314	0.394	
28.000	0.337	0.352	
28.005	-0.099	0.307	
28.010	-0.040	0.233	
28.015	0.166	0.153	
28.020	-0.149	0.092	
28.025	-0.218	0.029	
28.030	0.046	-0.033	
28.035	-0.084	-0.066	
28.040	-0.255	-0.088	
28.045	-0.049	-0.112	
28.050	0.024	-0.118	
28.055	-0.241	-0.111	
28.060	-0.156	-0.115	
28.065	0.079	-0.118	
28.070	-0.156	-0.104	
28.075	-0.221	-0.099	
28.080	0.001	-0.106	
28.085	-0.134	-0.106	
28.090	-0.303	-0.113	
28.095	-0.122	-0.135	
28.100	-0.087	-0.150	
28.105	-0.331	-0.159	
28.110	-0.282	-0.182	
28.115	-0.145	-0.207	
28.120	-0.337	-0.223	
28.125	-0.390	-0.246	
28.130	-0.185	-0.272	
28.135	-0.261	-0.281	
28.140	-0.403	-0.285	
28.145	-0.244	-0.295	
28.150	-0.236	-0.297	
28.155	-0.486	-0.299	
28.160	-0.442	-0.321	
28.165	-0.294	-0.349	
28.170	-0.348	-0.362	
28.175	-0.149	-0.354	
28.180	0.803	-0.278	
28.185	0.977	-0.077	
28.190	0.593	0.191	
28.195	0.491	0.410	
28.200	-0.040	0.513	
28.205	-0.494	0.465	
28.210	-0.514	0.284	
28.215	-0.381	0.055	
28.220	-0.499	-0.149	
28.225	-0.476	-0.308	
28.230	-0.217	-0.406	
28.235	-0.250	-0.433	
28.240	-0.357	-0.416	
28.245	-0.139	-0.381	
28.250	-0.070	-0.327	
28.255	-0.264	-0.264	
28.260	-0.140	-0.219	
28.265	0.123	-0.176	
28.270	-0.131	-0.123	
28.275	-0.149	-0.088	
28.280	0.247	-0.063	
28.285	0.166	-0.015	
28.290	-0.037	0.036	
28.295	0.375	0.076	
28.300	0.527	0.139	
28.305	0.201	0.220	
28.310	0.401	0.280	
28.315	0.692	0.336	
28.320	0.326	0.399	
28.325	0.223	0.429	
28.330	0.572	0.426	
28.335	0.326	0.424	
28.340	-0.035	0.400	
28.345	0.233	0.337	
