Vernier Format 2
ecg7.txt 10/20/2025 8:12:49
Run 1
Time	Potential	EKG	
T	P	E	
s	mV	mV	

0.000	-0.061	-0.003	
0.005	-0.024	-0.010	
0.010	-0.134	-0.024	
0.015	-0.142	-0.046	
0.020	-0.072	-0.071	
0.025	-0.140	-0.090	
0.030	-0.188	-0.107	
0.035	-0.107	-0.125	
0.040	-0.116	-0.134	
0.045	-0.197	-0.139	
0.050	-0.148	-0.146	
0.055	-0.095	-0.149	
0.060	-0.169	-0.147	
0.065	-0.148	-0.145	
0.070	-0.050	-0.142	
0.075	-0.107	-0.130	
0.080	-0.140	-0.119	
0.085	-0.047	-0.112	
0.090	-0.043	-0.100	
0.095	-0.130	-0.088	
0.100	-0.067	-0.083	
0.105	-0.002	-0.077	
0.110	-0.099	-0.068	
0.115	-0.089	-0.064	
0.120	0.017	-0.063	
0.125	-0.056	-0.055	
0.130	-0.105	-0.051	
0.135	-0.003	-0.052	
0.140	-0.005	-0.048	
0.145	-0.104	-0.043	
0.150	-0.060	-0.045	
0.155	-0.008	-0.048	
0.160	-0.110	-0.049	
0.165	-0.114	-0.057	
0.170	-0.029	-0.067	
0.175	-0.093	-0.072	
0.180	-0.154	-0.078	
0.185	-0.082	-0.089	
0.190	-0.098	-0.097	
0.195	-0.180	-0.104	
0.200	-0.137	-0.116	
0.205	-0.084	-0.125	
0.210	-0.160	-0.128	
0.215	-0.157	-0.132	
0.220	-0.070	-0.134	
0.225	-0.122	-0.130	
0.230	-0.166	-0.126	
0.235	-0.079	-0.126	
0.240	-0.078	-0.121	
0.245	-0.165	-0.115	
0.250	-0.139	-0.116	
0.255	-0.110	-0.120	
0.260	-0.162	-0.124	
0.265	-0.047	-0.126	
0.270	0.300	-0.101	
0.275	0.514	-0.021	
0.280	0.779	0.119	
0.285	1.155	0.315	
0.290	1.122	0.548	
0.295	0.707	0.750	
0.300	0.256	0.840	
0.305	-0.085	0.782	
0.310	-0.322	0.598	
0.315	-0.392	0.345	
0.320	-0.337	0.091	
0.325	-0.340	-0.116	
0.330	-0.337	-0.259	
0.335	-0.223	-0.338	
0.340	-0.186	-0.360	
0.345	-0.233	-0.342	
0.350	-0.169	-0.308	
0.355	-0.102	-0.266	
0.360	-0.165	-0.221	
0.365	-0.146	-0.184	
0.370	-0.046	-0.156	
0.375	-0.090	-0.128	
0.380	-0.131	-0.107	
0.385	-0.032	-0.095	
0.390	-0.011	-0.081	
0.395	-0.101	-0.066	
0.400	-0.024	-0.058	
0.405	0.076	-0.046	
0.410	-0.014	-0.027	
0.415	0.020	-0.009	
0.420	0.194	0.011	
0.425	0.155	0.045	
0.430	0.108	0.082	
0.435	0.261	0.114	
0.440	0.270	0.150	
0.445	0.142	0.184	
0.450	0.206	0.201	
0.455	0.262	0.210	
0.460	0.107	0.215	
0.465	0.076	0.203	
0.470	0.163	0.179	
0.475	0.044	0.155	
0.480	-0.064	0.123	
0.485	0.009	0.081	
0.490	-0.027	0.042	
0.495	-0.134	0.007	
0.500	-0.102	-0.030	
			
Vernier Format 2
ecg7.txt 10/20/2025 8:12:49
Run 2
Time	Potential	EKG	
T	P	E	
s	mV	mV	

0.000	-0.430	-0.020	
0.005	-0.262	-0.078	
0.010	0.248	-0.124	
0.015	0.009	-0.113	
0.020	-0.040	-0.076	
0.025	0.645	-0.018	
0.030	0.640	0.102	
0.035	0.305	0.244	
0.040	0.828	0.365	
0.045	1.084	0.498	
0.050	0.581	0.636	
0.055	0.726	0.724	
0.060	1.175	0.781	
0.065	0.762	0.842	
0.070	0.526	0.866	
0.075	1.000	0.847	
0.080	0.802	0.836	
0.085	0.300	0.809	
0.090	0.660	0.742	
0.095	0.799	0.684	
0.100	0.265	0.645	
0.105	0.383	0.586	
0.110	0.819	0.534	
0.115	0.431	0.523	
0.120	0.242	0.510	
0.125	0.787	0.488	
0.130	0.692	0.503	
0.135	0.251	0.529	
0.140	0.639	0.529	
0.145	0.838	0.540	
0.150	0.261	0.565	
0.155	0.337	0.551	
0.160	0.761	0.521	
0.165	0.355	0.512	
0.170	0.171	0.489	
0.175	0.753	0.454	
0.180	0.646	0.460	
0.185	0.158	0.480	
0.190	0.556	0.471	
0.195	0.793	0.475	
0.200	0.283	0.501	
0.205	0.413	0.503	
0.210	0.857	0.502	
0.215	0.517	0.531	
0.220	0.405	0.553	
0.225	1.133	0.575	
0.230	1.316	0.664	
0.235	1.143	0.811	
0.240	1.593	0.974	
0.245	1.654	1.150	
0.250	0.739	1.285	
0.255	0.410	1.277	
0.260	0.596	1.137	
0.265	0.073	0.936	
0.270	-0.124	0.693	
0.275	0.442	0.458	
0.280	0.402	0.311	
0.285	-0.023	0.238	
0.290	0.404	0.193	
0.295	0.668	0.203	
0.300	0.157	0.257	
0.305	0.259	0.294	
0.310	0.718	0.322	
0.315	0.340	0.370	
0.320	0.110	0.395	
0.325	0.622	0.389	
0.330	0.517	0.400	
0.335	0.068	0.412	
0.340	0.483	0.394	
0.345	0.687	0.392	
0.350	0.187	0.413	
0.355	0.283	0.409	
0.360	0.742	0.401	
0.365	0.401	0.423	
0.370	0.175	0.435	
0.375	0.645	0.425	
0.380	0.480	0.431	
0.385	-0.017	0.428	
0.390	0.270	0.381	
0.395	0.421	0.331	
0.400	-0.096	0.292	
0.405	-0.096	0.225	
0.410	0.226	0.148	
0.415	-0.108	0.094	
0.420	-0.246	0.039	
0.425	0.067	-0.020	
0.430	-0.040	-0.052	
0.435	-0.293	-0.072	
0.440	-0.124	-0.103	
0.445	0.014	-0.124	
0.450	-0.267	-0.128	
0.455	-0.229	-0.141	
0.460	0.017	-0.154	
0.465	-0.198	-0.150	
0.470	-0.314	-0.152	
0.475	-0.061	-0.166	
0.480	-0.113	-0.168	
0.485	-0.351	-0.167	
0.490	-0.195	-0.182	
0.495	-0.090	-0.195	
0.500	-0.348	-0.198	
0.505	-0.331	-0.215	
0.510	-0.119	-0.235	
0.515	-0.308	-0.243	
0.520	-0.464	-0.257	
0.525	-0.241	-0.284	
0.530	-0.267	-0.301	
0.535	-0.473	-0.312	
0.540	-0.302	-0.329	
0.545	-0.165	-0.334	
0.550	-0.345	-0.320	
0.555	-0.201	-0.303	
0.560	0.395	-0.255	
0.565	0.151	-0.150	
0.570	-0.128	-0.044	
0.575	0.000	0.011	
0.580	-0.236	0.019	
0.585	-0.547	-0.027	
0.590	-0.439	-0.127	
0.595	-0.355	-0.235	
0.600	-0.561	-0.323	
0.605	-0.497	-0.398	
0.610	-0.238	-0.444	
0.615	-0.354	-0.446	
0.620	-0.432	-0.428	
0.625	-0.151	-0.404	
0.630	-0.151	-0.358	
0.635	-0.351	-0.306	
0.640	-0.156	-0.271	
0.645	0.024	-0.233	
0.650	-0.247	-0.188	
0.655	-0.201	-0.162	
0.660	0.163	-0.142	
0.665	-0.089	-0.104	
0.670	-0.200	-0.076	
0.675	0.210	-0.061	
0.680	0.229	-0.022	
0.685	-0.099	0.028	
0.690	0.224	0.059	
0.695	0.457	0.100	
0.700	-0.012	0.154	
0.705	-0.017	0.171	
0.710	0.360	0.163	
0.715	-0.009	0.160	
0.720	-0.186	0.137	
0.725	0.139	0.089	
0.730	0.038	0.055	
0.735	-0.256	0.026	
0.740	-0.075	-0.018	
0.745	0.117	-0.050	
0.750	-0.221	-0.059	
0.755	-0.203	-0.077	
0.760	0.125	-0.095	
0.765	-0.124	-0.090	
0.770	-0.246	-0.087	
0.775	0.099	-0.094	
0.780	0.085	-0.078	
0.785	-0.215	-0.053	
0.790	-0.023	-0.048	
0.795	0.180	-0.041	
0.800	-0.180	-0.022	
0.805	-0.172	-0.025	
0.810	0.137	-0.040	
0.815	-0.131	-0.041	
0.820	-0.270	-0.052	
0.825	0.017	-0.078	
0.830	-0.021	-0.089	
0.835	-0.277	-0.091	
0.840	-0.098	-0.107	
0.845	0.067	-0.114	
0.850	-0.276	-0.107	
0.855	-0.285	-0.119	
0.860	-0.089	-0.147	
0.865	-0.331	-0.170	
0.870	-0.491	-0.207	
0.875	-0.212	-0.257	
0.880	-0.095	-0.281	
0.885	-0.165	-0.267	
0.890	0.255	-0.219	
0.895	0.468	-0.117	
0.900	-0.159	0.002	
0.905	-0.323	0.052	
0.910	-0.218	0.020	
0.915	-0.444	-0.055	
0.920	-0.605	-0.161	
0.925	-0.375	-0.276	
0.930	-0.335	-0.361	
0.935	-0.486	-0.406	
0.940	-0.284	-0.427	
0.945	-0.117	-0.412	
0.950	-0.334	-0.369	
0.955	-0.299	-0.329	
0.960	-0.008	-0.292	
0.965	-0.178	-0.243	
0.970	-0.293	-0.204	
0.975	0.023	-0.182	
0.980	0.026	-0.147	
0.985	-0.249	-0.111	
0.990	-0.037	-0.096	
0.995	0.242	-0.075	
1.000	-0.119	-0.035	
1.005	-0.043	-0.011	
1.010	0.474	0.015	
1.015	0.253	0.079	
1.020	0.027	0.142	
1.025	0.520	0.185	
1.030	0.514	0.245	
1.035	0.087	0.305	
1.040	0.363	0.326	
1.045	0.544	0.339	
1.050	-0.008	0.350	
1.055	-0.047	0.312	
1.060	0.335	0.247	
1.065	0.008	0.199	
1.070	-0.185	0.146	
1.075	0.139	0.083	
1.080	0.012	0.041	
1.085	-0.308	0.006	
1.090	-0.175	-0.048	
1.095	-0.102	-0.101	
1.100	-0.464	-0.147	
1.105	-0.621	-0.219	
1.110	-0.541	-0.317	
1.115	-0.717	-0.419	
1.120	-0.822	-0.520	
1.125	-0.564	-0.609	
1.130	-0.563	-0.656	
1.135	-0.771	-0.672	
1.140	-0.631	-0.682	
1.145	-0.531	-0.679	
1.150	-0.776	-0.666	
1.155	-0.787	-0.670	
1.160	-0.608	-0.684	
1.165	-0.805	-0.694	
1.170	-0.956	-0.718	
1.175	-0.765	-0.758	
1.180	-0.765	-0.787	
1.185	-0.965	-0.807	
1.190	-0.846	-0.831	
1.195	-0.753	-0.847	
1.200	-0.988	-0.853	
1.205	-0.913	-0.866	
1.210	-0.508	-0.866	
1.215	-0.470	-0.817	
1.220	-0.566	-0.735	
1.225	-0.409	-0.652	
1.230	-0.633	-0.583	
1.235	-0.994	-0.565	
1.240	-0.965	-0.617	
1.245	-0.855	-0.704	
1.250	-0.996	-0.785	
1.255	-0.927	-0.855	
1.260	-0.610	-0.891	
1.265	-0.657	-0.873	
1.270	-0.710	-0.825	
1.275	-0.415	-0.764	
1.280	-0.361	-0.681	
1.285	-0.541	-0.592	
1.290	-0.345	-0.521	
1.295	-0.148	-0.454	
1.300	-0.363	-0.383	
1.305	-0.303	-0.332	
1.310	0.149	-0.284	
1.315	-0.015	-0.208	
1.320	-0.142	-0.134	
1.325	0.431	-0.066	
1.330	0.523	0.036	
1.335	0.143	0.155	
1.340	0.530	0.246	
1.345	0.880	0.342	
1.350	0.474	0.454	
1.355	0.594	0.536	
1.360	1.203	0.610	
1.365	1.038	0.720	
1.370	0.808	0.830	
1.375	1.316	0.914	
1.380	1.279	1.004	
1.385	0.793	1.079	
1.390	1.075	1.098	
1.395	1.316	1.101	
1.400	0.806	1.108	
1.405	0.774	1.077	
1.410	1.212	1.028	
1.415	0.918	1.004	
1.420	0.651	0.978	
1.425	1.143	0.939	
1.430	1.125	0.935	
1.435	0.622	0.945	
1.440	0.864	0.925	
1.445	1.098	0.903	
1.450	0.590	0.894	
1.455	0.547	0.855	
1.460	0.973	0.801	
1.465	0.625	0.770	
1.470	0.270	0.728	
1.475	0.687	0.658	
1.480	0.599	0.606	
1.485	0.026	0.557	
1.490	0.256	0.472	
1.495	0.511	0.391	
1.500	0.038	0.340	
1.505	0.015	0.280	
1.510	0.472	0.224	
1.515	0.114	0.204	
1.520	-0.156	0.182	
1.525	0.334	0.144	
1.530	0.559	0.148	
1.535	0.483	0.212	
1.540	1.296	0.335	
1.545	1.790	0.557	
1.550	1.160	0.843	
1.555	0.655	1.047	
1.560	0.538	1.093	
1.565	-0.098	0.990	
1.570	-0.349	0.756	
1.575	-0.063	0.462	
1.580	0.049	0.212	
1.585	-0.198	0.043	
1.590	0.120	-0.059	
1.595	0.506	-0.073	
1.600	0.096	-0.009	
1.605	0.142	0.062	
1.610	0.703	0.136	
1.615	0.468	0.240	
1.620	0.204	0.332	
1.625	0.718	0.389	
1.630	0.745	0.456	
1.635	0.277	0.519	
1.640	0.601	0.542	
1.645	0.937	0.565	
1.650	0.527	0.610	
1.655	0.582	0.639	
1.660	1.163	0.667	
1.665	0.959	0.736	
1.670	0.687	0.808	
1.675	1.188	0.857	
1.680	1.189	0.919	
1.685	0.662	0.975	
1.690	0.863	0.978	
1.695	1.061	0.958	
1.700	0.498	0.932	
1.705	0.389	0.861	
1.710	0.802	0.762	
1.715	0.454	0.686	
1.720	0.094	0.605	
1.725	0.540	0.508	
1.730	0.521	0.445	
1.735	0.011	0.405	
1.740	0.244	0.347	
1.745	0.512	0.301	
1.750	0.017	0.282	
1.755	-0.020	0.245	
1.760	0.442	0.201	
1.765	0.154	0.189	
1.770	-0.119	0.177	
1.775	0.279	0.148	
1.780	0.116	0.132	
1.785	-0.404	0.104	
1.790	-0.396	0.021	
1.795	-0.319	-0.093	
1.800	-0.590	-0.207	
1.805	-0.633	-0.324	
1.810	-0.398	-0.425	
1.815	-0.526	-0.487	
1.820	-0.671	-0.525	
1.825	-0.430	-0.553	
1.830	-0.406	-0.554	
1.835	-0.637	-0.539	
1.840	-0.509	-0.533	
1.845	-0.363	-0.525	
1.850	-0.576	-0.508	
1.855	-0.515	-0.499	
1.860	-0.087	-0.481	
1.865	0.055	-0.413	
1.870	0.133	-0.296	
1.875	0.643	-0.139	
1.880	0.392	0.047	
1.885	-0.375	0.178	
1.890	-0.436	0.173	
1.895	-0.381	0.064	
1.900	-0.628	-0.086	
1.905	-0.598	-0.247	
1.910	-0.287	-0.378	
1.915	-0.399	-0.445	
1.920	-0.534	-0.471	
1.925	-0.274	-0.477	
1.930	-0.217	-0.452	
1.935	-0.447	-0.409	
1.940	-0.285	-0.377	
1.945	-0.078	-0.342	
1.950	-0.317	-0.297	
1.955	-0.305	-0.267	
1.960	0.076	-0.242	
1.965	-0.125	-0.198	
1.970	-0.282	-0.161	
1.975	0.126	-0.139	
1.980	0.212	-0.094	
1.985	-0.188	-0.038	
1.990	0.073	-0.007	
1.995	0.483	0.029	
2.000	0.047	0.092	
2.005	0.030	0.134	
2.010	0.518	0.159	
2.015	0.267	0.203	
2.020	-0.063	0.233	
2.025	0.381	0.229	
2.030	0.331	0.232	
2.035	-0.188	0.230	
2.040	-0.076	0.181	
2.045	0.110	0.113	
2.050	-0.332	0.050	
2.055	-0.421	-0.035	
2.060	-0.183	-0.133	
2.065	-0.378	-0.211	
2.070	-0.590	-0.280	
2.075	-0.369	-0.352	
2.080	-0.332	-0.399	
2.085	-0.543	-0.421	
2.090	-0.396	-0.438	
2.095	-0.224	-0.437	
2.100	-0.448	-0.416	
2.105	-0.448	-0.401	
2.110	-0.177	-0.390	
2.115	-0.319	-0.364	
2.120	-0.494	-0.345	
2.125	-0.233	-0.343	
2.130	-0.180	-0.331	
2.135	-0.433	-0.311	
2.140	-0.296	-0.306	
2.145	-0.087	-0.299	
2.150	-0.346	-0.277	
2.155	-0.332	-0.267	
2.160	0.271	-0.247	
2.165	0.187	-0.173	
2.170	-0.139	-0.081	
2.175	0.268	-0.013	
2.180	0.303	0.055	
2.185	-0.055	0.117	
2.190	0.505	0.157	
2.195	1.177	0.247	
2.200	0.796	0.414	
2.205	0.582	0.574	
2.210	0.706	0.670	
2.215	0.076	0.689	
2.220	-0.288	0.598	
2.225	-0.058	0.417	
2.230	-0.021	0.231	
2.235	-0.261	0.080	
2.240	-0.040	-0.035	
2.245	0.427	-0.082	
2.250	0.076	-0.048	
2.255	0.105	0.008	
2.260	0.623	0.077	
2.265	0.422	0.178	
2.270	0.108	0.268	
2.275	0.628	0.321	
2.280	0.678	0.382	
2.285	0.166	0.441	
2.290	0.431	0.455	
2.295	0.793	0.462	
2.300	0.373	0.490	
2.305	0.363	0.502	
2.310	0.953	0.509	
2.315	0.797	0.560	
2.320	0.476	0.622	
2.325	0.951	0.662	
2.330	1.005	0.715	
2.335	0.451	0.767	
2.340	0.663	0.769	
2.345	0.904	0.752	
2.350	0.387	0.737	
2.355	0.247	0.682	
2.360	0.710	0.603	
2.365	0.425	0.549	
2.370	-0.024	0.492	
2.375	0.402	0.409	
2.380	0.445	0.350	
2.385	-0.060	0.313	
2.390	0.123	0.257	
2.395	0.466	0.213	
2.400	0.011	0.201	
2.405	-0.044	0.178	
2.410	0.491	0.154	
2.415	0.294	0.170	
2.420	-0.061	0.193	
2.425	0.354	0.194	
2.430	0.393	0.206	
2.435	-0.093	0.222	
2.440	0.085	0.203	
2.445	0.433	0.179	
2.450	-0.014	0.178	
2.455	-0.079	0.159	
2.460	0.354	0.129	
2.465	0.116	0.125	
2.470	-0.166	0.119	
2.475	0.174	0.092	
2.480	0.250	0.082	
2.485	-0.172	0.085	
2.490	-0.046	0.064	
2.495	0.227	0.040	
2.500	-0.157	0.033	
2.505	-0.180	0.011	
2.510	0.358	-0.009	
2.515	0.364	0.024	
2.520	0.306	0.100	
2.525	0.901	0.206	
2.530	0.887	0.358	
2.535	0.145	0.497	
2.540	0.009	0.528	
2.545	0.096	0.458	
2.550	-0.291	0.335	
2.555	-0.369	0.173	
2.560	-0.073	0.011	
2.565	-0.140	-0.101	
2.570	-0.302	-0.168	
2.575	0.001	-0.204	
2.580	0.119	-0.192	
2.585	-0.212	-0.150	
2.590	-0.061	-0.118	
2.595	0.303	-0.082	
2.600	-0.075	-0.028	
2.605	-0.110	0.006	
2.610	0.395	0.026	
2.615	0.250	0.074	
2.620	-0.064	0.123	
2.625	0.418	0.149	
2.630	0.538	0.194	
2.635	0.064	0.253	
2.640	0.331	0.281	
2.645	0.756	0.311	
2.650	0.352	0.370	
2.655	0.264	0.410	
2.660	0.759	0.430	
2.665	0.511	0.466	
2.670	0.110	0.485	
2.675	0.488	0.461	
2.680	0.511	0.438	
2.685	-0.040	0.413	
2.690	0.123	0.351	
2.695	0.447	0.285	
2.700	-0.003	0.247	
2.705	-0.084	0.199	
2.710	0.346	0.147	
2.715	0.096	0.127	
2.720	-0.186	0.110	
2.725	0.172	0.076	
2.730	0.256	0.065	
2.735	-0.169	0.071	
2.740	-0.063	0.054	
2.745	0.242	0.034	
2.750	-0.133	0.031	
2.755	-0.198	0.013	
2.760	0.180	-0.014	
2.765	-0.026	-0.018	
2.770	-0.262	-0.023	
2.775	-0.037	-0.049	
2.780	-0.012	-0.068	
2.785	-0.320	-0.083	
2.790	-0.230	-0.115	
2.795	-0.031	-0.148	
2.800	-0.285	-0.163	
2.805	-0.334	-0.183	
2.810	-0.053	-0.206	
2.815	-0.183	-0.208	
2.820	-0.374	-0.207	
2.825	-0.156	-0.219	
2.830	-0.089	-0.220	
2.835	-0.322	-0.210	
2.840	-0.136	-0.206	
2.845	0.444	-0.173	
2.850	0.245	-0.079	
2.855	0.130	0.031	
2.860	0.465	0.124	
2.865	-0.040	0.194	
2.870	-0.396	0.192	
2.875	-0.265	0.105	
2.880	-0.241	-0.011	
2.885	-0.456	-0.122	
2.890	-0.303	-0.221	
2.895	-0.037	-0.279	
2.900	-0.223	-0.284	
2.905	-0.227	-0.267	
2.910	0.242	-0.229	
2.915	0.117	-0.151	
2.920	-0.157	-0.070	
2.925	0.192	-0.017	
2.930	0.315	0.037	
2.935	-0.119	0.089	
2.940	0.032	0.103	
2.945	0.445	0.109	
2.950	0.067	0.138	
2.955	-0.012	0.152	
2.960	0.556	0.159	
2.965	0.462	0.205	
2.970	0.134	0.264	
2.975	0.617	0.307	
2.980	0.748	0.369	
2.985	0.253	0.440	
2.990	0.412	0.471	
2.995	0.784	0.485	
3.000	0.319	0.509	
3.005	0.134	0.498	
3.010	0.593	0.455	
3.015	0.343	0.427	
3.020	-0.072	0.390	
3.025	0.271	0.321	
3.030	0.340	0.266	
3.035	-0.111	0.228	
3.040	-0.011	0.173	
3.045	0.323	0.122	
3.050	-0.069	0.101	
3.055	-0.142	0.074	
3.060	0.297	0.044	
3.065	0.125	0.048	
3.070	-0.168	0.059	
3.075	0.134	0.050	
3.080	0.218	0.051	
3.085	-0.178	0.060	
3.090	-0.089	0.043	
3.095	0.235	0.021	
3.100	-0.142	0.017	
3.105	-0.241	-0.001	
3.110	0.029	-0.037	
3.115	-0.145	-0.063	
3.120	-0.366	-0.093	
3.125	-0.160	-0.139	
3.130	-0.108	-0.172	
3.135	-0.374	-0.191	
3.140	-0.288	-0.218	
3.145	-0.079	-0.239	
3.150	-0.319	-0.240	
3.155	-0.415	-0.249	
3.160	-0.166	-0.268	
3.165	-0.223	-0.272	
3.170	-0.320	-0.267	
3.175	0.203	-0.246	
3.180	0.652	-0.156	
3.185	0.201	-0.004	
3.190	0.192	0.129	
3.195	0.130	0.203	
3.200	-0.398	0.205	
3.205	-0.570	0.111	
3.210	-0.349	-0.043	
3.215	-0.406	-0.188	
3.220	-0.531	-0.303	
3.225	-0.239	-0.382	
3.230	-0.095	-0.401	
3.235	-0.323	-0.371	
3.240	-0.218	-0.333	
3.245	0.053	-0.285	
3.250	-0.217	-0.224	
3.255	-0.288	-0.183	
3.260	0.038	-0.164	
3.265	-0.098	-0.139	
3.270	-0.317	-0.123	
3.275	-0.079	-0.130	
3.280	0.030	-0.130	
3.285	-0.259	-0.118	
3.290	-0.130	-0.120	
3.295	0.271	-0.110	
3.300	-0.053	-0.068	
3.305	-0.102	-0.032	
3.310	0.437	-0.000	
3.315	0.290	0.065	
3.320	-0.093	0.127	
3.325	0.259	0.151	
3.330	0.331	0.170	
3.335	-0.156	0.183	
3.340	-0.073	0.153	
3.345	0.245	0.108	
3.350	-0.157	0.077	
3.355	-0.264	0.033	
3.360	0.044	-0.025	
3.365	-0.108	-0.061	
3.370	-0.348	-0.092	
3.375	-0.151	-0.134	
3.380	-0.119	-0.166	
3.385	-0.428	-0.188	
3.390	-0.367	-0.227	
3.395	-0.165	-0.265	
3.400	-0.396	-0.285	
3.405	-0.489	-0.309	
3.410	-0.232	-0.338	
3.415	-0.320	-0.349	
3.420	-0.523	-0.354	
3.425	-0.319	-0.369	
3.430	-0.259	-0.374	
3.435	-0.521	-0.370	
3.440	-0.447	-0.380	
3.445	-0.252	-0.392	
3.450	-0.460	-0.391	
3.455	-0.526	-0.396	
3.460	-0.249	-0.407	
3.465	-0.325	-0.399	
3.470	-0.521	-0.388	
3.475	-0.308	-0.387	
3.480	-0.258	-0.380	
3.485	-0.537	-0.369	
3.490	-0.441	-0.378	
3.495	-0.095	-0.382	
3.500	-0.095	-0.347	
3.505	0.283	-0.266	
3.510	1.140	-0.102	
3.515	0.887	0.156	
3.520	0.004	0.389	
3.525	-0.120	0.468	
3.530	-0.264	0.397	
3.535	-0.613	0.231	
3.540	-0.540	0.013	
3.545	-0.271	-0.187	
3.550	-0.410	-0.320	
3.555	-0.430	-0.396	
3.560	-0.082	-0.423	
3.565	-0.124	-0.392	
3.570	-0.303	-0.333	
3.575	-0.005	-0.276	
3.580	0.183	-0.204	
3.585	-0.188	-0.122	
3.590	-0.052	-0.071	
3.595	0.407	-0.027	
3.600	0.047	0.037	
3.605	-0.038	0.083	
3.610	0.565	0.115	
3.615	0.527	0.184	
3.620	0.255	0.271	
3.625	0.860	0.351	
3.630	1.188	0.471	
3.635	0.791	0.629	
3.640	0.976	0.764	
3.645	1.376	0.879	
3.650	0.902	0.987	
3.655	0.669	1.036	
3.660	1.122	1.024	
3.665	0.886	1.004	
3.670	0.357	0.959	
3.675	0.677	0.865	
3.680	0.739	0.772	
3.685	0.155	0.691	
3.690	0.242	0.583	
3.695	0.614	0.480	
3.700	0.165	0.416	
3.705	-0.027	0.350	
3.710	0.460	0.280	
3.715	0.244	0.246	
3.720	-0.151	0.220	
3.725	0.168	0.172	
3.730	0.274	0.138	
3.735	-0.200	0.120	
3.740	-0.157	0.075	
3.745	0.140	0.022	
3.750	-0.188	-0.011	
3.755	-0.291	-0.049	
3.760	0.009	-0.094	
3.765	-0.113	-0.117	
3.770	-0.360	-0.133	
3.775	-0.149	-0.162	
3.780	-0.049	-0.179	
3.785	-0.342	-0.181	
3.790	-0.265	-0.195	
3.795	0.014	-0.205	
3.800	-0.238	-0.195	
3.805	-0.334	-0.190	
3.810	-0.050	-0.197	
3.815	-0.151	-0.191	
3.820	-0.339	-0.185	
3.825	0.049	-0.183	
3.830	0.581	-0.133	
3.835	0.505	-0.005	
3.840	0.841	0.171	
3.845	1.160	0.381	
3.850	0.340	0.575	
3.855	-0.227	0.639	
3.860	-0.120	0.542	
3.865	-0.277	0.359	
3.870	-0.494	0.149	
3.875	-0.236	-0.051	
3.880	-0.070	-0.188	
3.885	-0.306	-0.252	
3.890	-0.178	-0.277	
3.895	0.247	-0.257	
3.900	-0.064	-0.188	
3.905	-0.156	-0.122	
3.910	0.352	-0.067	
3.915	0.253	0.009	
3.920	-0.113	0.079	
3.925	0.293	0.114	
3.930	0.520	0.156	
3.935	0.038	0.211	
3.940	0.207	0.236	
3.945	0.719	0.259	
3.950	0.419	0.318	
3.955	0.319	0.375	
3.960	0.944	0.426	
3.965	0.834	0.512	
3.970	0.389	0.599	
3.975	0.780	0.641	
3.980	0.916	0.676	
3.985	0.323	0.704	
3.990	0.340	0.675	
3.995	0.713	0.616	
4.000	0.242	0.566	
4.005	-0.018	0.491	
4.010	0.441	0.393	
4.015	0.233	0.323	
4.020	-0.178	0.263	
4.025	0.061	0.182	
4.030	0.186	0.114	
4.035	-0.226	0.070	
4.040	-0.163	0.015	
4.045	0.195	-0.031	
4.050	-0.140	-0.044	
4.055	-0.239	-0.057	
4.060	0.108	-0.077	
4.065	-0.053	-0.076	
4.070	-0.331	-0.076	
4.075	-0.130	-0.102	
4.080	-0.041	-0.124	
4.085	-0.335	-0.138	
4.090	-0.281	-0.165	
4.095	-0.040	-0.191	
4.100	-0.274	-0.198	
4.105	-0.372	-0.209	
4.110	-0.076	-0.226	
4.115	-0.163	-0.225	
4.120	-0.396	-0.220	
4.125	-0.169	-0.228	
4.130	-0.024	-0.226	
4.135	-0.323	-0.208	
4.140	-0.276	-0.204	
4.145	-0.018	-0.206	
4.150	-0.230	-0.194	
4.155	-0.235	-0.185	
4.160	0.471	-0.157	
4.165	0.672	-0.051	
4.170	0.250	0.106	
4.175	0.454	0.239	
4.180	0.213	0.323	
4.185	-0.412	0.327	
4.190	-0.479	0.218	
4.195	-0.308	0.047	
4.200	-0.505	-0.120	
4.205	-0.573	-0.267	
4.210	-0.246	-0.377	
4.215	-0.252	-0.423	
4.220	-0.460	-0.423	
4.225	-0.224	-0.409	
4.230	-0.098	-0.374	
4.235	-0.360	-0.323	
4.240	-0.274	-0.289	
4.245	0.076	-0.257	
4.250	-0.169	-0.208	
4.255	-0.259	-0.169	
4.260	0.142	-0.144	
4.265	0.055	-0.101	
4.270	-0.215	-0.060	
4.275	0.130	-0.040	
4.280	0.383	-0.003	
4.285	-0.078	0.053	
4.290	0.055	0.084	
4.295	0.564	0.111	
4.300	0.180	0.167	
4.305	-0.047	0.204	
4.310	0.471	0.210	
4.315	0.296	0.229	
4.320	-0.162	0.238	
4.325	0.113	0.202	
4.330	0.273	0.163	
4.335	-0.198	0.135	
4.340	-0.166	0.083	
4.345	0.200	0.026	
4.350	-0.124	-0.001	
4.355	-0.273	-0.029	
4.360	0.055	-0.066	
4.365	-0.050	-0.082	
4.370	-0.310	-0.091	
4.375	-0.082	-0.113	
4.380	0.085	-0.121	
4.385	-0.270	-0.111	
4.390	-0.221	-0.117	
4.395	0.131	-0.125	
4.400	-0.143	-0.111	
4.405	-0.268	-0.103	
4.410	0.072	-0.108	
4.415	-0.035	-0.098	
4.420	-0.313	-0.089	
4.425	-0.113	-0.104	
4.430	0.037	-0.116	
4.435	-0.294	-0.115	
4.440	-0.235	-0.130	
4.445	0.091	-0.144	
4.450	-0.182	-0.136	
4.455	-0.291	-0.132	
4.460	0.081	-0.138	
4.465	-0.024	-0.122	
4.470	-0.322	-0.105	
4.475	-0.105	-0.113	
4.480	0.155	-0.114	
4.485	-0.119	-0.089	
4.490	0.264	-0.052	
4.495	1.059	0.044	
4.500	0.703	0.225	
4.505	0.287	0.399	
4.510	0.479	0.492	
4.515	0.078	0.508	
4.520	-0.352	0.435	
4.525	-0.195	0.281	
4.530	-0.037	0.118	
4.535	-0.281	-0.010	
4.540	-0.180	-0.107	
4.545	0.303	-0.150	
4.550	0.026	-0.123	
4.555	0.003	-0.070	
4.560	0.724	0.003	
4.565	0.753	0.141	
4.570	0.299	0.299	
4.575	0.680	0.415	
4.580	0.878	0.513	
4.585	0.335	0.594	
4.590	0.408	0.615	
4.595	0.887	0.605	
4.600	0.547	0.615	
4.605	0.309	0.612	
4.610	0.873	0.592	
4.615	0.846	0.606	
4.620	0.396	0.638	
4.625	0.785	0.648	
4.630	1.011	0.671	
4.635	0.450	0.708	
4.640	0.477	0.706	
4.645	0.902	0.681	
4.650	0.483	0.671	
4.655	0.197	0.637	
4.660	0.671	0.574	
4.665	0.518	0.532	
4.670	-0.029	0.491	
4.675	0.277	0.414	
4.680	0.468	0.346	
4.685	-0.060	0.301	
4.690	-0.009	0.240	
4.695	0.463	0.183	
4.700	0.070	0.167	
4.705	-0.124	0.150	
4.710	0.322	0.121	
4.715	0.212	0.118	
4.720	-0.194	0.120	
4.725	0.003	0.091	
4.730	0.187	0.060	
4.735	-0.220	0.041	
4.740	-0.203	0.003	
4.745	0.108	-0.040	
4.750	-0.182	-0.062	
4.755	-0.342	-0.088	
4.760	-0.066	-0.128	
4.765	-0.127	-0.152	
4.770	-0.381	-0.168	
4.775	-0.185	-0.194	
4.780	-0.058	-0.208	
4.785	-0.349	-0.207	
4.790	-0.317	-0.218	
4.795	-0.044	-0.230	
4.800	-0.256	-0.224	
4.805	-0.381	-0.223	
4.810	-0.006	-0.229	
4.815	0.174	-0.200	
4.820	0.032	-0.131	
4.825	0.579	-0.036	
4.830	0.755	0.108	
4.835	-0.052	0.252	
4.840	-0.264	0.295	
4.845	-0.159	0.227	
4.850	-0.406	0.106	
4.855	-0.535	-0.042	
4.860	-0.229	-0.186	
4.865	-0.197	-0.277	
4.870	-0.389	-0.318	
4.875	-0.142	-0.330	
4.880	0.097	-0.302	
4.885	-0.221	-0.240	
4.890	-0.145	-0.188	
4.895	0.337	-0.136	
4.900	0.012	-0.060	
4.905	-0.153	-0.002	
4.910	0.322	0.028	
4.915	0.296	0.074	
4.920	-0.110	0.120	
4.925	0.251	0.136	
4.930	0.555	0.162	
4.935	0.091	0.212	
4.940	0.221	0.242	
4.945	0.785	0.273	
4.950	0.462	0.341	
4.955	0.201	0.400	
4.960	0.727	0.429	
4.965	0.645	0.470	
4.970	0.090	0.500	
4.975	0.392	0.479	
4.980	0.590	0.448	
4.985	0.008	0.423	
4.990	-0.009	0.360	
4.995	0.421	0.281	
5.000	0.032	0.231	
5.005	-0.168	0.178	
5.010	0.238	0.116	
5.015	0.181	0.087	
5.020	-0.189	0.075	
5.025	0.059	0.049	
5.030	0.338	0.040	
5.035	-0.102	0.057	
5.040	-0.069	0.058	
5.045	0.392	0.055	
5.050	0.043	0.078	
5.055	-0.159	0.090	
5.060	0.256	0.078	
5.065	0.195	0.083	
5.070	-0.194	0.091	
5.075	0.021	0.071	
5.080	0.262	0.052	
5.085	-0.177	0.051	
5.090	-0.171	0.029	
5.095	0.206	-0.002	
5.100	-0.102	-0.010	
5.105	-0.259	-0.024	
5.110	0.091	-0.051	
5.115	0.059	-0.056	
5.120	-0.264	-0.050	
5.125	-0.111	-0.065	
5.130	0.033	-0.081	
5.135	-0.291	-0.090	
5.140	-0.221	-0.113	
5.145	0.393	-0.119	
5.150	0.476	-0.052	
5.155	0.520	0.076	
5.160	1.067	0.245	
5.165	0.767	0.440	
5.170	-0.168	0.567	
5.175	-0.221	0.535	
5.180	-0.200	0.383	
5.185	-0.489	0.186	
5.190	-0.435	-0.019	
5.195	-0.095	-0.184	
5.200	-0.204	-0.269	
5.205	-0.284	-0.298	
5.210	0.128	-0.286	
5.215	0.155	-0.222	
5.220	-0.183	-0.138	
5.225	0.087	-0.077	
5.230	0.399	-0.014	
5.235	-0.058	0.057	
5.240	-0.017	0.094	
5.245	0.524	0.115	
5.250	0.247	0.163	
5.255	0.014	0.204	
5.260	0.596	0.227	
5.265	0.649	0.282	
5.270	0.227	0.355	
5.275	0.651	0.406	
5.280	1.003	0.473	
5.285	0.514	0.565	
5.290	0.518	0.624	
5.295	0.998	0.655	
5.300	0.636	0.695	
5.305	0.264	0.703	
5.310	0.700	0.663	
5.315	0.575	0.625	
5.320	-0.035	0.574	
5.325	0.197	0.476	
5.330	0.427	0.376	
5.335	-0.081	0.302	
5.340	-0.085	0.218	
5.345	0.361	0.142	
5.350	0.026	0.109	
5.355	-0.175	0.083	
5.360	0.229	0.051	
5.365	0.200	0.048	
5.370	-0.188	0.058	
5.375	0.008	0.044	
5.380	0.267	0.034	
5.385	-0.168	0.040	
5.390	-0.185	0.024	
5.395	0.168	-0.006	
5.400	-0.107	-0.017	
5.405	-0.285	-0.035	
5.410	-0.008	-0.069	
5.415	-0.060	-0.089	
5.420	-0.369	-0.106	
5.425	-0.226	-0.142	
5.430	-0.069	-0.174	
5.435	-0.342	-0.190	
5.440	-0.342	-0.214	
5.445	-0.069	-0.236	
5.450	-0.256	-0.238	
5.455	-0.451	-0.242	
5.460	-0.230	-0.264	
5.465	-0.226	-0.278	
5.470	-0.399	-0.284	
5.475	-0.026	-0.283	
5.480	0.806	-0.214	
5.485	0.645	-0.037	
5.490	0.576	0.180	
5.495	0.662	0.367	
5.500	-0.166	0.471	
5.505	-0.549	0.425	
5.510	-0.416	0.247	
5.515	-0.450	0.029	
5.520	-0.650	-0.174	
5.525	-0.433	-0.343	
5.530	-0.213	-0.442	
5.535	-0.409	-0.468	
5.540	-0.377	-0.459	
5.545	-0.078	-0.427	
5.550	-0.223	-0.368	
5.555	-0.363	-0.311	
5.560	-0.064	-0.273	
5.565	-0.047	-0.228	
5.570	-0.308	-0.186	
5.575	-0.113	-0.167	
5.580	0.187	-0.142	
5.585	-0.168	-0.100	
5.590	-0.131	-0.073	
5.595	0.395	-0.048	
5.600	0.180	0.011	
5.605	-0.038	0.072	
5.610	0.527	0.117	
5.615	0.562	0.191	
5.620	0.029	0.269	
5.625	0.303	0.301	
5.630	0.567	0.316	
5.635	0.008	0.332	
5.640	-0.052	0.303	
5.645	0.361	0.245	
5.650	-0.011	0.202	
5.655	-0.238	0.148	
5.660	0.064	0.075	
5.665	0.024	0.021	
5.670	-0.303	-0.018	
5.675	-0.149	-0.068	
5.680	0.076	-0.104	
5.685	-0.255	-0.114	
5.690	-0.258	-0.130	
5.695	0.067	-0.146	
5.700	-0.159	-0.140	
5.705	-0.323	-0.138	
5.710	-0.034	-0.150	
5.715	-0.044	-0.148	
5.720	-0.345	-0.142	
5.725	-0.206	-0.156	
5.730	-0.038	-0.170	
5.735	-0.323	-0.174	
5.740	-0.348	-0.191	
5.745	-0.087	-0.216	
5.750	-0.258	-0.224	
5.755	-0.435	-0.234	
5.760	-0.186	-0.257	
5.765	-0.177	-0.266	
5.770	-0.427	-0.266	
5.775	-0.270	-0.277	
5.780	-0.104	-0.280	
5.785	-0.387	-0.270	
5.790	-0.415	-0.275	
5.795	-0.136	-0.289	
5.800	-0.215	-0.284	
5.805	-0.233	-0.266	
5.810	0.526	-0.215	
5.815	0.797	-0.076	
5.820	0.189	0.113	
5.825	0.152	0.246	
5.830	-0.002	0.289	
5.835	-0.460	0.243	
5.840	-0.558	0.107	
5.845	-0.319	-0.067	
5.850	-0.413	-0.215	
5.855	-0.515	-0.324	
5.860	-0.209	-0.394	
5.865	-0.134	-0.405	
5.870	-0.367	-0.375	
5.875	-0.180	-0.339	
5.880	0.075	-0.289	
5.885	-0.241	-0.224	
5.890	-0.255	-0.181	
5.895	0.117	-0.156	
5.900	-0.104	-0.120	
5.905	-0.267	-0.097	
5.910	0.130	-0.091	
5.915	0.227	-0.061	
5.920	-0.157	-0.016	
5.925	0.131	0.012	
5.930	0.584	0.055	
5.935	0.163	0.133	
5.940	0.171	0.197	
5.945	0.730	0.249	
5.950	0.445	0.324	
5.955	0.073	0.380	
5.960	0.544	0.389	
5.965	0.526	0.400	
5.970	-0.049	0.403	
5.975	0.131	0.356	
5.980	0.381	0.294	
5.985	-0.113	0.246	
5.990	-0.174	0.176	
5.995	0.174	0.096	
6.000	-0.064	0.044	
6.005	-0.264	-0.000	
6.010	0.046	-0.047	
6.015	0.058	-0.066	
6.020	-0.271	-0.069	
6.025	-0.136	-0.086	
6.030	0.119	-0.098	
6.035	-0.226	-0.092	
6.040	-0.264	-0.099	
6.045	0.049	-0.117	
6.050	-0.159	-0.119	
6.055	-0.363	-0.127	
6.060	-0.165	-0.156	
6.065	-0.183	-0.182	
6.070	-0.427	-0.205	
6.075	-0.285	-0.240	
6.080	-0.120	-0.264	
6.085	-0.393	-0.270	
6.090	-0.421	-0.284	
6.095	-0.145	-0.302	
6.100	-0.274	-0.301	
6.105	-0.436	-0.297	
6.110	-0.186	-0.302	
6.115	-0.175	-0.294	
6.120	-0.448	-0.281	
6.125	-0.303	-0.286	
6.130	-0.023	-0.286	
6.135	-0.175	-0.257	
6.140	0.001	-0.213	
6.145	0.675	-0.128	
6.150	0.299	0.013	
6.155	-0.207	0.129	
6.160	-0.143	0.151	
6.165	-0.252	0.099	
6.170	-0.573	-0.001	
6.175	-0.448	-0.135	
6.180	-0.209	-0.254	
6.185	-0.390	-0.323	
6.190	-0.381	-0.361	
6.195	-0.058	-0.369	
6.200	-0.110	-0.332	
6.205	-0.201	-0.275	
6.210	0.334	-0.205	
6.215	0.469	-0.089	
6.220	-0.011	0.042	
6.225	0.279	0.133	
6.230	0.628	0.207	
6.235	0.148	0.283	
6.240	0.076	0.314	
6.245	0.631	0.315	
6.250	0.392	0.336	
6.255	0.044	0.352	
6.260	0.576	0.344	
6.265	0.666	0.362	
6.270	0.139	0.399	
6.275	0.387	0.405	
6.280	0.724	0.408	
6.285	0.221	0.430	
6.290	0.113	0.420	
6.295	0.598	0.386	
6.300	0.303	0.372	
6.305	-0.102	0.348	
6.310	0.261	0.288	
6.315	0.261	0.237	
6.320	-0.195	0.195	
6.325	-0.056	0.130	
6.330	0.241	0.071	
6.335	-0.172	0.040	
6.340	-0.200	0.004	
6.345	0.210	-0.031	
6.350	-0.052	-0.035	
6.355	-0.265	-0.038	
6.360	0.030	-0.058	
6.365	0.085	-0.062	
6.370	-0.270	-0.056	
6.375	-0.156	-0.071	
6.380	0.064	-0.089	
6.385	-0.250	-0.094	
6.390	-0.314	-0.114	
6.395	-0.055	-0.146	
6.400	-0.238	-0.165	
6.405	-0.462	-0.190	
6.410	-0.250	-0.232	
6.415	-0.220	-0.265	
6.420	-0.480	-0.286	
6.425	-0.363	-0.315	
6.430	-0.163	-0.334	
6.435	-0.389	-0.331	
6.440	-0.419	-0.332	
6.445	-0.153	-0.335	
6.450	-0.288	-0.321	
6.455	-0.456	-0.309	
6.460	-0.139	-0.309	
6.465	0.133	-0.279	
6.470	-0.063	-0.210	
6.475	0.325	-0.122	
6.480	0.608	-0.001	
6.485	-0.082	0.126	
6.490	-0.317	0.171	
6.495	-0.156	0.121	
6.500	-0.340	0.030	
6.505	-0.534	-0.084	
6.510	-0.258	-0.201	
6.515	-0.139	-0.276	
6.520	-0.348	-0.303	
6.525	-0.182	-0.307	
6.530	0.197	-0.276	
6.535	-0.078	-0.204	
6.540	-0.058	-0.131	
6.545	0.535	-0.056	
6.550	0.363	0.055	
6.555	0.001	0.158	
6.560	0.495	0.219	
6.565	0.617	0.283	
6.570	0.122	0.347	
6.575	0.415	0.374	
6.580	0.811	0.399	
6.585	0.340	0.448	
6.590	0.227	0.468	
6.595	0.791	0.465	
6.600	0.622	0.490	
6.605	0.287	0.519	
6.610	0.819	0.530	
6.615	0.956	0.571	
6.620	0.495	0.634	
6.625	0.767	0.674	
6.630	1.203	0.718	
6.635	0.738	0.787	
6.640	0.663	0.830	
6.645	1.250	0.851	
6.650	1.075	0.900	
6.655	0.726	0.948	
6.660	1.245	0.971	
6.665	1.341	1.013	
6.670	0.791	1.065	
6.675	1.021	1.076	
6.680	1.473	1.081	
6.685	1.096	1.118	
6.690	1.041	1.147	
6.695	1.599	1.170	
6.700	1.357	1.223	
6.705	0.921	1.265	
6.710	1.340	1.262	
6.715	1.366	1.256	
6.720	0.713	1.243	
6.725	0.832	1.174	
6.730	1.142	1.086	
6.735	0.544	1.011	
6.740	0.213	0.900	
6.745	0.578	0.751	
6.750	0.206	0.612	
6.755	-0.201	0.467	
6.760	0.029	0.302	
6.765	0.068	0.161	
6.770	-0.290	0.057	
6.775	-0.210	-0.038	
6.780	0.008	-0.111	
6.785	-0.256	-0.146	
6.790	-0.267	-0.173	
6.795	0.282	-0.177	
6.800	0.332	-0.118	
6.805	-0.008	-0.023	
6.810	0.280	0.055	
6.815	0.038	0.111	
6.820	-0.477	0.112	
6.825	-0.503	0.026	
6.830	-0.361	-0.106	
6.835	-0.575	-0.234	
6.840	-0.592	-0.351	
6.845	-0.276	-0.438	
6.850	-0.331	-0.468	
6.855	-0.497	-0.462	
6.860	-0.249	-0.447	
6.865	-0.171	-0.411	
6.870	-0.433	-0.364	
6.875	-0.334	-0.337	
6.880	-0.114	-0.318	
6.885	-0.340	-0.291	
6.890	-0.401	-0.280	
6.895	-0.105	-0.280	
6.900	-0.198	-0.266	
6.905	-0.403	-0.251	
6.910	-0.160	-0.252	
6.915	-0.072	-0.242	
6.920	-0.337	-0.222	
6.925	-0.213	-0.216	
6.930	0.114	-0.203	
6.935	-0.186	-0.167	
6.940	-0.271	-0.143	
6.945	0.020	-0.137	
6.950	-0.153	-0.127	
6.955	-0.392	-0.130	
6.960	-0.186	-0.159	
6.965	-0.154	-0.186	
6.970	-0.464	-0.210	
6.975	-0.409	-0.251	
6.980	-0.232	-0.295	
6.985	-0.479	-0.324	
6.990	-0.570	-0.360	
6.995	-0.329	-0.401	
7.000	-0.436	-0.424	
7.005	-0.640	-0.442	
7.010	-0.433	-0.469	
7.015	-0.372	-0.482	
7.020	-0.633	-0.483	
7.025	-0.549	-0.495	
7.030	-0.361	-0.506	
7.035	-0.624	-0.506	
7.040	-0.720	-0.520	
7.045	-0.474	-0.548	
7.050	-0.576	-0.564	
7.055	-0.791	-0.579	
7.060	-0.598	-0.607	
7.065	-0.555	-0.626	
7.070	-0.826	-0.637	
7.075	-0.752	-0.661	
7.080	-0.569	-0.685	
7.085	-0.784	-0.693	
7.090	-0.854	-0.708	
7.095	-0.595	-0.726	
7.100	-0.659	-0.726	
7.105	-0.860	-0.720	
7.110	-0.675	-0.725	
7.115	-0.617	-0.724	
7.120	-0.819	-0.716	
7.125	-0.599	-0.711	
7.130	-0.151	-0.678	
7.135	-0.119	-0.584	
7.140	-0.149	-0.454	
7.145	0.123	-0.320	
7.150	-0.339	-0.207	
7.155	-0.774	-0.174	
7.160	-0.688	-0.244	
7.165	-0.650	-0.363	
7.170	-0.854	-0.486	
7.175	-0.691	-0.597	
7.180	-0.409	-0.663	
7.185	-0.549	-0.668	
7.190	-0.572	-0.644	
7.195	-0.262	-0.603	
7.200	-0.325	-0.537	
7.205	-0.511	-0.471	
7.210	-0.253	-0.426	
7.215	-0.153	-0.379	
7.220	-0.401	-0.330	
7.225	-0.274	-0.302	
7.230	0.049	-0.274	
7.235	-0.215	-0.228	
7.240	-0.258	-0.192	
7.245	0.238	-0.162	
7.250	0.174	-0.099	
7.255	-0.120	-0.029	
7.260	0.381	0.026	
7.265	0.588	0.105	
7.270	0.068	0.199	
7.275	0.250	0.254	
7.280	0.646	0.290	
7.285	0.143	0.332	
7.290	-0.073	0.331	
7.295	0.381	0.287	
7.300	0.120	0.250	
7.305	-0.247	0.202	
7.310	0.038	0.126	
7.315	0.148	0.065	
7.320	-0.268	0.025	
7.325	-0.175	-0.025	
7.330	0.189	-0.065	
7.335	-0.174	-0.071	
7.340	-0.261	-0.080	
7.345	0.158	-0.095	
7.350	0.011	-0.082	
7.355	-0.273	-0.064	
7.360	0.011	-0.068	
7.365	0.133	-0.063	
7.370	-0.274	-0.049	
7.375	-0.204	-0.061	
7.380	0.090	-0.084	
7.385	-0.239	-0.091	
7.390	-0.337	-0.112	
7.395	-0.026	-0.145	
7.400	-0.157	-0.159	
7.405	-0.410	-0.172	
7.410	-0.201	-0.200	
7.415	-0.107	-0.220	
7.420	-0.390	-0.226	
7.425	-0.300	-0.242	
7.430	-0.026	-0.252	
7.435	-0.303	-0.241	
7.440	-0.425	-0.240	
7.445	-0.148	-0.255	
7.450	-0.197	-0.258	
7.455	-0.296	-0.250	
7.460	0.447	-0.216	
7.465	1.201	-0.076	
7.470	0.892	0.179	
7.475	0.878	0.450	
7.480	0.767	0.657	
7.485	-0.197	0.740	
7.490	-0.496	0.639	
7.495	-0.310	0.402	
7.500	-0.390	0.142	
7.505	-0.547	-0.088	
7.510	-0.256	-0.265	
7.515	-0.066	-0.355	
7.520	-0.308	-0.366	
7.525	-0.207	-0.345	
7.530	0.210	-0.294	
7.535	-0.117	-0.211	
7.540	-0.192	-0.141	
7.545	0.312	-0.089	
7.550	0.190	-0.019	
7.555	-0.166	0.044	
7.560	0.256	0.072	
7.565	0.492	0.111	
7.570	0.001	0.167	
7.575	0.213	0.196	
7.580	0.750	0.229	
7.585	0.444	0.302	
7.590	0.334	0.373	
7.595	0.956	0.435	
7.600	0.826	0.527	
7.605	0.341	0.611	
7.610	0.730	0.642	
7.615	0.835	0.661	
7.620	0.192	0.668	
7.625	0.261	0.616	
7.630	0.630	0.539	
7.635	0.122	0.478	
7.640	-0.095	0.395	
7.645	0.376	0.296	
7.650	0.187	0.231	
7.655	-0.186	0.183	
7.660	0.160	0.124	
7.665	0.346	0.095	
7.670	-0.148	0.095	
7.675	-0.067	0.077	
7.680	0.376	0.058	
7.685	-0.038	0.068	
7.690	-0.177	0.066	
7.695	0.267	0.047	
7.700	0.105	0.050	
7.705	-0.233	0.054	
7.710	0.035	0.031	
7.715	0.166	0.014	
7.720	-0.261	0.008	
7.725	-0.220	-0.023	
7.730	0.053	-0.064	
7.735	-0.255	-0.089	
7.740	-0.372	-0.123	
7.745	-0.058	-0.166	
7.750	-0.145	-0.186	
7.755	-0.395	-0.195	
7.760	-0.165	-0.215	
7.765	-0.047	-0.220	
7.770	-0.375	-0.212	
7.775	-0.314	-0.220	
7.780	0.026	-0.228	
7.785	-0.127	-0.208	
7.790	0.000	-0.170	
7.795	0.912	-0.084	
7.800	0.831	0.096	
7.805	0.128	0.292	
7.810	0.126	0.390	
7.815	-0.085	0.380	
7.820	-0.529	0.279	
7.825	-0.526	0.100	
7.830	-0.277	-0.092	
7.835	-0.409	-0.238	
7.840	-0.435	-0.336	
7.845	-0.044	-0.384	
7.850	-0.064	-0.363	
7.855	-0.296	-0.308	
7.860	-0.014	-0.255	
7.865	0.227	-0.186	
7.870	-0.175	-0.106	
7.875	-0.084	-0.056	
7.880	0.381	-0.020	
7.885	0.017	0.034	
7.890	-0.110	0.068	
7.895	0.451	0.084	
7.900	0.373	0.130	
7.905	-0.041	0.182	
7.910	0.456	0.208	
7.915	0.729	0.257	
7.920	0.242	0.333	
7.925	0.407	0.383	
7.930	0.905	0.428	
7.935	0.483	0.496	
7.940	0.213	0.534	
7.945	0.701	0.528	
7.950	0.523	0.527	
7.955	-0.023	0.508	
7.960	0.309	0.442	
7.965	0.476	0.377	
7.970	-0.078	0.330	
7.975	-0.006	0.261	
7.980	0.454	0.195	
7.985	0.041	0.170	
7.990	-0.136	0.145	
7.995	0.331	0.111	
8.000	0.212	0.107	
8.005	-0.168	0.113	
8.010	0.161	0.097	
8.015	0.361	0.095	
8.020	-0.136	0.111	
8.025	-0.067	0.099	
8.030	0.361	0.079	
8.035	-0.032	0.084	
8.040	-0.174	0.076	
8.045	0.273	0.053	
8.050	0.137	0.056	
8.055	-0.258	0.060	
8.060	-0.066	0.031	
8.065	0.096	-0.003	
8.070	-0.265	-0.025	
8.075	-0.207	-0.061	
8.080	0.180	-0.091	
8.085	-0.145	-0.088	
8.090	-0.265	-0.088	
8.095	0.111	-0.098	
8.100	-0.027	-0.088	
8.105	-0.326	-0.079	
8.110	-0.114	-0.097	
8.115	0.175	-0.105	
8.120	-0.067	-0.082	
8.125	0.363	-0.037	
8.130	1.059	0.071	
8.135	0.613	0.254	
8.140	0.093	0.407	
8.145	0.288	0.457	
8.150	-0.058	0.426	
8.155	-0.399	0.321	
8.160	-0.218	0.161	
8.165	-0.035	0.012	
8.170	-0.287	-0.090	
8.175	-0.209	-0.161	
8.180	0.230	-0.188	
8.185	-0.063	-0.158	
8.190	-0.180	-0.118	
8.195	0.323	-0.081	
8.200	0.268	-0.014	
8.205	-0.136	0.055	
8.210	0.229	0.089	
8.215	0.474	0.126	
8.220	-0.011	0.175	
8.225	0.113	0.193	
8.230	0.623	0.204	
8.235	0.279	0.248	
8.240	0.052	0.281	
8.245	0.642	0.292	
8.250	0.575	0.332	
8.255	0.123	0.379	
8.260	0.552	0.395	
8.265	0.770	0.422	
8.270	0.180	0.463	
8.275	0.212	0.459	
8.280	0.665	0.431	
8.285	0.226	0.419	
8.290	-0.069	0.384	
8.295	0.390	0.318	
8.300	0.271	0.272	
8.305	-0.166	0.235	
8.310	0.120	0.176	
8.315	0.355	0.134	
8.320	-0.128	0.121	
8.325	-0.072	0.094	
8.330	0.358	0.067	
8.335	-0.017	0.070	
8.340	-0.178	0.066	
8.345	0.274	0.047	
8.350	0.203	0.055	
8.355	-0.194	0.072	
8.360	0.099	0.063	
8.365	0.332	0.062	
8.370	-0.151	0.079	
8.375	-0.116	0.068	
8.380	0.308	0.047	
8.385	-0.069	0.048	
8.390	-0.236	0.036	
8.395	0.116	0.004	
8.400	0.017	-0.012	
8.405	-0.293	-0.024	
8.410	-0.101	-0.056	
8.415	0.123	-0.079	
8.420	-0.233	-0.080	
8.425	-0.207	-0.091	
8.430	0.133	-0.103	
8.435	-0.174	-0.096	
8.440	-0.308	-0.098	
8.445	0.073	-0.115	
8.450	0.229	-0.098	
8.455	0.097	-0.043	
8.460	0.738	0.045	
8.465	0.963	0.198	
8.470	0.210	0.369	
8.475	-0.089	0.444	
8.480	0.075	0.405	
8.485	-0.264	0.301	
8.490	-0.432	0.154	
8.495	-0.140	-0.005	
8.500	-0.117	-0.121	
8.505	-0.320	-0.188	
8.510	-0.093	-0.225	
8.515	0.174	-0.217	
8.520	-0.180	-0.170	
8.525	-0.125	-0.130	
8.530	0.335	-0.090	
8.535	0.020	-0.028	
8.540	-0.145	0.018	
8.545	0.361	0.042	
8.550	0.332	0.088	
8.555	-0.110	0.136	
8.560	0.194	0.149	
8.565	0.483	0.163	
8.570	0.047	0.196	
8.575	0.160	0.209	
8.580	0.732	0.228	
8.585	0.444	0.291	
8.590	0.161	0.350	
8.595	0.681	0.381	
8.600	0.610	0.425	
8.605	0.093	0.460	
8.610	0.408	0.448	
8.615	0.639	0.431	
8.620	0.073	0.424	
8.625	0.070	0.382	
8.630	0.517	0.324	
8.635	0.119	0.293	
8.640	-0.134	0.252	
8.645	0.302	0.192	
8.650	0.241	0.160	
8.655	-0.171	0.143	
8.660	0.067	0.107	
8.665	0.328	0.083	
8.670	-0.122	0.083	
8.675	-0.085	0.068	
8.680	0.393	0.053	
8.685	0.061	0.071	
8.690	-0.148	0.083	
8.695	0.271	0.076	
8.700	0.189	0.085	
8.705	-0.203	0.095	
8.710	-0.003	0.072	
8.715	0.200	0.047	
8.720	-0.238	0.033	
8.725	-0.250	-0.004	
8.730	0.062	-0.053	
8.735	-0.178	-0.081	
8.740	-0.329	-0.109	
8.745	-0.038	-0.143	
8.750	-0.058	-0.154	
8.755	-0.325	-0.154	
8.760	-0.148	-0.165	
8.765	0.011	-0.168	
8.770	-0.313	-0.159	
8.775	-0.300	-0.167	
8.780	0.133	-0.176	
8.785	0.125	-0.144	
8.790	0.238	-0.073	
8.795	0.959	0.047	
8.800	0.841	0.236	
8.805	-0.005	0.407	
8.810	-0.107	0.449	
8.815	-0.139	0.371	
8.820	-0.476	0.224	
8.825	-0.474	0.038	
8.830	-0.180	-0.134	
8.835	-0.284	-0.246	
8.840	-0.372	-0.307	
8.845	-0.031	-0.329	
8.850	0.009	-0.299	
8.855	-0.267	-0.242	
8.860	-0.072	-0.197	
8.865	0.187	-0.148	
8.870	-0.177	-0.091	
8.875	-0.146	-0.061	
8.880	0.315	-0.042	
8.885	0.040	-0.001	
8.890	-0.136	0.032	
8.895	0.357	0.048	
8.900	0.389	0.091	
8.905	-0.024	0.147	
8.910	0.378	0.180	
8.915	0.727	0.231	
8.920	0.251	0.309	
8.925	0.276	0.360	
8.930	0.751	0.390	
8.935	0.402	0.434	
8.940	0.062	0.450	
8.945	0.534	0.424	
8.950	0.468	0.406	
8.955	-0.076	0.387	
8.960	0.131	0.327	
8.965	0.360	0.262	
8.970	-0.125	0.215	
8.975	-0.146	0.151	
8.980	0.244	0.083	
8.985	-0.063	0.048	
8.990	-0.244	0.015	
8.995	0.117	-0.023	
9.000	0.082	-0.035	
9.005	-0.253	-0.032	
9.010	-0.056	-0.048	
9.015	0.209	-0.054	
9.020	-0.197	-0.039	
9.025	-0.206	-0.043	
9.030	0.146	-0.058	
9.035	-0.127	-0.057	
9.040	-0.297	-0.064	
9.045	-0.011	-0.090	
9.050	-0.047	-0.103	
9.055	-0.351	-0.111	
9.060	-0.215	-0.139	
9.065	-0.066	-0.166	
9.070	-0.354	-0.181	
9.075	-0.360	-0.208	
9.080	-0.084	-0.235	
9.085	-0.253	-0.242	
9.090	-0.403	-0.246	
9.095	-0.154	-0.259	
9.100	-0.206	-0.259	
9.105	-0.476	-0.260	
9.110	-0.265	-0.278	
9.115	0.175	-0.274	
9.120	0.187	-0.209	
9.125	0.697	-0.081	
9.130	1.328	0.131	
9.135	0.768	0.402	
9.140	-0.102	0.588	
9.145	-0.125	0.591	
9.150	-0.311	0.453	
9.155	-0.630	0.238	
9.160	-0.470	-0.006	
9.165	-0.261	-0.209	
9.170	-0.451	-0.337	
9.175	-0.403	-0.410	
9.180	-0.078	-0.432	
9.185	-0.213	-0.398	
9.190	-0.342	-0.348	
9.195	-0.012	-0.300	
9.200	0.049	-0.236	
9.205	-0.249	-0.169	
9.210	-0.034	-0.127	
9.215	0.293	-0.084	
9.220	-0.107	-0.027	
9.225	-0.078	0.007	
9.230	0.476	0.031	
9.235	0.253	0.090	
9.240	0.032	0.149	
9.245	0.649	0.195	
9.250	0.735	0.277	
9.255	0.261	0.376	
9.260	0.558	0.439	
9.265	0.844	0.491	
9.270	0.300	0.544	
9.275	0.226	0.547	
9.280	0.680	0.513	
9.285	0.305	0.489	
9.290	-0.067	0.443	
9.295	0.360	0.364	
9.300	0.296	0.301	
9.305	-0.171	0.251	
9.310	0.021	0.178	
9.315	0.325	0.119	
9.320	-0.120	0.093	
9.325	-0.130	0.061	
9.330	0.326	0.032	
9.335	0.027	0.037	
9.340	-0.192	0.041	
9.345	0.207	0.029	
9.350	0.206	0.037	
9.355	-0.223	0.053	
9.360	-0.076	0.036	
9.365	0.160	0.011	
9.370	-0.238	-0.003	
9.375	-0.259	-0.036	
9.380	0.065	-0.077	
9.385	-0.172	-0.097	
9.390	-0.363	-0.119	
9.395	-0.101	-0.153	
9.400	-0.110	-0.173	
9.405	-0.393	-0.184	
9.410	-0.241	-0.208	
9.415	-0.041	-0.223	
9.420	-0.317	-0.219	
9.425	-0.342	-0.224	
9.430	-0.096	-0.235	
9.435	-0.291	-0.236	
9.440	-0.435	-0.244	
9.445	-0.056	-0.259	
9.450	0.315	-0.229	
9.455	0.273	-0.133	
9.460	0.823	0.016	
9.465	1.070	0.225	
9.470	0.158	0.430	
9.475	-0.250	0.504	
9.480	-0.178	0.423	
9.485	-0.430	0.258	
9.490	-0.613	0.052	
9.495	-0.322	-0.149	
9.500	-0.246	-0.290	
9.505	-0.456	-0.365	
9.510	-0.258	-0.399	
9.515	-0.023	-0.388	
9.520	-0.293	-0.339	
9.525	-0.282	-0.293	
9.530	0.099	-0.251	
9.535	-0.105	-0.193	
9.540	-0.271	-0.147	
9.545	0.107	-0.122	
9.550	0.168	-0.082	
9.555	-0.206	-0.036	
9.560	0.012	-0.018	
9.565	0.407	0.005	
9.570	-0.003	0.053	
9.575	0.038	0.087	
9.580	0.642	0.121	
9.585	0.387	0.194	
9.590	0.064	0.262	
9.595	0.588	0.299	
9.600	0.562	0.344	
9.605	-0.034	0.381	
9.610	0.183	0.360	
9.615	0.471	0.320	
9.620	-0.089	0.289	
9.625	-0.156	0.227	
9.630	0.253	0.148	
9.635	-0.049	0.096	
9.640	-0.261	0.047	
9.645	0.067	-0.008	
9.650	0.081	-0.036	
9.655	-0.282	-0.046	
9.660	-0.130	-0.070	
9.665	0.161	-0.087	
9.670	-0.198	-0.079	
9.675	-0.213	-0.082	
9.680	0.203	-0.087	
9.685	-0.066	-0.068	
9.690	-0.276	-0.055	
9.695	0.037	-0.066	
9.700	0.058	-0.066	
9.705	-0.296	-0.060	
9.710	-0.160	-0.078	
9.715	0.065	-0.098	
9.720	-0.279	-0.104	
9.725	-0.322	-0.125	
9.730	-0.035	-0.157	
9.735	-0.212	-0.171	
9.740	-0.403	-0.186	
9.745	-0.136	-0.213	
9.750	-0.110	-0.223	
9.755	-0.380	-0.220	
9.760	-0.244	-0.230	
9.765	-0.084	-0.236	
9.770	-0.370	-0.232	
9.775	-0.358	-0.241	
9.780	0.134	-0.245	
9.785	0.207	-0.197	
9.790	0.172	-0.103	
9.795	0.758	0.022	
9.800	0.617	0.186	
9.805	-0.218	0.314	
9.810	-0.264	0.315	
9.815	-0.201	0.214	
9.820	-0.502	0.071	
9.825	-0.518	-0.092	
9.830	-0.200	-0.235	
9.835	-0.277	-0.318	
9.840	-0.398	-0.353	
9.845	-0.078	-0.358	
9.850	0.009	-0.320	
9.855	-0.294	-0.258	
9.860	-0.137	-0.213	
9.865	0.142	-0.172	
9.870	-0.209	-0.122	
9.875	-0.218	-0.098	
9.880	0.241	-0.087	
9.885	0.008	-0.053	
9.890	-0.210	-0.024	
9.895	0.212	-0.015	
9.900	0.291	0.016	
9.905	-0.131	0.058	
9.910	0.151	0.077	
9.915	0.569	0.106	
9.920	0.123	0.166	
9.925	0.068	0.205	
9.930	0.585	0.226	
9.935	0.259	0.264	
9.940	-0.124	0.279	
9.945	0.291	0.249	
9.950	0.305	0.223	
9.955	-0.192	0.202	
9.960	-0.058	0.148	
9.965	0.233	0.091	
9.970	-0.185	0.056	
9.975	-0.227	0.012	
9.980	0.148	-0.035	
9.985	-0.098	-0.052	
9.990	-0.306	-0.068	
9.995	0.003	-0.096	
10.000	0.058	-0.103	
10.005	-0.294	-0.095	
10.010	-0.143	-0.105	
10.015	0.131	-0.112	
10.020	-0.239	-0.100	
10.025	-0.265	-0.104	
10.030	0.088	-0.118	
10.035	-0.145	-0.114	
10.040	-0.358	-0.117	
10.045	-0.087	-0.140	
10.050	-0.058	-0.153	
10.055	-0.398	-0.159	
10.060	-0.282	-0.185	
10.065	-0.093	-0.212	
10.070	-0.369	-0.225	
10.075	-0.410	-0.247	
10.080	-0.116	-0.273	
10.085	-0.247	-0.276	
10.090	-0.430	-0.275	
10.095	-0.191	-0.283	
10.100	-0.171	-0.280	
10.105	-0.433	-0.272	
10.110	-0.247	-0.277	
10.115	0.204	-0.261	
10.120	0.033	-0.197	
10.125	0.190	-0.107	
10.130	0.710	0.008	
10.135	0.195	0.147	
10.140	-0.310	0.225	
10.145	-0.195	0.193	
10.150	-0.236	0.098	
10.155	-0.535	-0.022	
10.160	-0.401	-0.156	
10.165	-0.165	-0.262	
10.170	-0.372	-0.317	
10.175	-0.392	-0.345	
10.180	-0.060	-0.352	
10.185	-0.182	-0.322	
10.190	-0.345	-0.283	
10.195	-0.044	-0.254	
10.200	0.029	-0.212	
10.205	-0.282	-0.164	
10.210	-0.136	-0.141	
10.215	0.210	-0.120	
10.220	-0.185	-0.083	
10.225	-0.203	-0.066	
10.230	0.314	-0.058	
10.235	0.082	-0.020	
10.240	-0.168	0.017	
10.245	0.320	0.035	
10.250	0.424	0.078	
10.255	-0.072	0.136	
10.260	0.175	0.160	
10.265	0.503	0.179	
10.270	-0.005	0.209	
10.275	-0.093	0.204	
10.280	0.376	0.172	
10.285	0.052	0.158	
10.290	-0.241	0.133	
10.295	0.091	0.080	
10.300	0.137	0.043	
10.305	-0.268	0.021	
10.310	-0.139	-0.018	
10.315	0.175	-0.051	
10.320	-0.206	-0.058	
10.325	-0.264	-0.073	
10.330	0.143	-0.095	
10.335	-0.061	-0.090	
10.340	-0.279	-0.082	
10.345	0.046	-0.090	
10.350	0.126	-0.080	
10.355	-0.261	-0.059	
10.360	-0.111	-0.061	
10.365	0.226	-0.062	
10.370	-0.182	-0.044	
10.375	-0.250	-0.045	
10.380	0.122	-0.063	
10.385	-0.105	-0.065	
10.390	-0.325	-0.074	
10.395	-0.047	-0.101	
10.400	0.008	-0.115	
10.405	-0.329	-0.117	
10.410	-0.200	-0.136	
10.415	0.101	-0.149	
10.420	-0.239	-0.139	
10.425	-0.299	-0.140	
10.430	0.033	-0.151	
10.435	-0.143	-0.146	
10.440	-0.329	-0.144	
10.445	0.090	-0.149	
10.450	0.422	-0.111	
10.455	0.142	-0.023	
10.460	0.491	0.080	
10.465	0.767	0.203	
10.470	0.020	0.321	
10.475	-0.258	0.344	
10.480	-0.067	0.267	
10.485	-0.246	0.150	
10.490	-0.439	0.019	
10.495	-0.143	-0.108	
10.500	-0.023	-0.185	
10.505	-0.311	-0.211	
10.510	-0.146	-0.222	
10.515	0.239	-0.203	
10.520	-0.143	-0.148	
10.525	-0.185	-0.104	
10.530	0.337	-0.071	
10.535	0.134	-0.013	
10.540	-0.165	0.038	
10.545	0.311	0.061	
10.550	0.419	0.102	
10.555	-0.099	0.152	
10.560	0.134	0.164	
10.565	0.550	0.174	
10.570	0.130	0.209	
10.575	0.079	0.229	
10.580	0.716	0.243	
10.585	0.524	0.299	
10.590	0.114	0.358	
10.595	0.594	0.383	
10.600	0.643	0.415	
10.605	0.027	0.442	
10.610	0.215	0.415	
10.615	0.582	0.374	
10.620	0.047	0.350	
10.625	-0.092	0.301	
10.630	0.410	0.234	
10.635	0.165	0.199	
10.640	-0.189	0.170	
10.645	0.187	0.124	
10.650	0.287	0.100	
10.655	-0.182	0.096	
10.660	-0.043	0.071	
10.665	0.341	0.049	
10.670	-0.096	0.054	
10.675	-0.156	0.047	
10.680	0.322	0.030	
10.685	0.087	0.043	
10.690	-0.226	0.054	
10.695	0.110	0.038	
10.700	0.189	0.031	
10.705	-0.253	0.033	
10.710	-0.149	0.006	
10.715	0.174	-0.026	
10.720	-0.209	-0.037	
10.725	-0.310	-0.061	
10.730	0.009	-0.100	
10.735	-0.151	-0.121	
10.740	-0.364	-0.139	
10.745	-0.096	-0.167	
10.750	-0.015	-0.177	
10.755	-0.340	-0.170	
10.760	-0.232	-0.179	
10.765	0.026	-0.186	
10.770	-0.279	-0.176	
10.775	-0.316	-0.178	
10.780	0.218	-0.178	
10.785	0.309	-0.125	
10.790	0.140	-0.031	
10.795	0.623	0.077	
10.800	0.537	0.204	
10.805	-0.253	0.296	
10.810	-0.297	0.274	
10.815	-0.169	0.166	
10.820	-0.445	0.032	
10.825	-0.491	-0.111	
10.830	-0.142	-0.233	
10.835	-0.188	-0.295	
10.840	-0.354	-0.311	
10.845	-0.031	-0.304	
10.850	0.140	-0.257	
10.855	-0.244	-0.187	
10.860	-0.107	-0.138	
10.865	0.300	-0.096	
10.870	-0.108	-0.040	
10.875	-0.159	-0.008	
10.880	0.375	0.006	
10.885	0.171	0.048	
10.890	-0.151	0.085	
10.895	0.329	0.097	
10.900	0.465	0.130	
10.905	-0.049	0.178	
10.910	0.259	0.198	
10.915	0.751	0.227	
10.920	0.329	0.296	
10.925	0.190	0.349	
10.930	0.674	0.375	
10.935	0.454	0.410	
10.940	-0.018	0.424	
10.945	0.421	0.391	
10.950	0.515	0.365	
10.955	-0.095	0.347	
10.960	0.033	0.291	
10.965	0.419	0.227	
10.970	-0.067	0.192	
10.975	-0.168	0.144	
10.980	0.311	0.090	
10.985	0.097	0.072	
10.990	-0.221	0.063	
10.995	0.111	0.036	
11.000	0.230	0.027	
11.005	-0.182	0.036	
11.010	-0.046	0.025	
11.015	0.311	0.017	
11.020	-0.134	0.030	
11.025	-0.198	0.024	
11.030	0.210	0.002	
11.035	-0.026	-0.001	
11.040	-0.296	-0.008	
11.045	-0.032	-0.040	
11.050	0.041	-0.063	
11.055	-0.334	-0.076	
11.060	-0.230	-0.108	
11.065	0.059	-0.137	
11.070	-0.258	-0.144	
11.075	-0.348	-0.157	
11.080	-0.006	-0.179	
11.085	-0.137	-0.180	
11.090	-0.351	-0.176	
11.095	-0.105	-0.185	
11.100	-0.066	-0.185	
11.105	-0.390	-0.179	
11.110	-0.249	-0.194	
11.115	0.287	-0.193	
11.120	0.261	-0.130	
11.125	0.495	-0.015	
11.130	1.152	0.155	
11.135	0.761	0.375	
11.140	-0.128	0.531	
11.145	-0.105	0.528	
11.150	-0.172	0.406	
11.155	-0.488	0.227	
11.160	-0.348	0.029	
11.165	-0.032	-0.130	
11.170	-0.247	-0.215	
11.175	-0.262	-0.253	
11.180	0.238	-0.250	
11.185	0.090	-0.188	
11.190	-0.186	-0.113	
11.195	0.256	-0.056	
11.200	0.469	0.019	
11.205	-0.031	0.106	
11.210	0.190	0.157	
11.215	0.681	0.201	
11.220	0.232	0.267	
11.225	0.146	0.310	
11.230	0.785	0.335	
11.235	0.665	0.395	
11.240	0.308	0.463	
11.245	0.861	0.510	
11.250	1.061	0.582	
11.255	0.512	0.671	
11.260	0.750	0.722	
11.265	1.171	0.760	
11.270	0.662	0.812	
11.275	0.459	0.824	
11.280	0.962	0.795	
11.285	0.689	0.776	
11.290	0.155	0.738	
11.295	0.540	0.655	
11.300	0.620	0.578	
11.305	0.000	0.516	
11.310	0.148	0.426	
11.315	0.529	0.341	
11.320	0.024	0.293	
11.325	-0.114	0.237	
11.330	0.410	0.175	
11.335	0.195	0.154	
11.340	-0.180	0.144	
11.345	0.181	0.113	
11.350	0.343	0.101	
11.355	-0.148	0.110	
11.360	-0.061	0.093	
11.365	0.294	0.069	
11.370	-0.143	0.062	
11.375	-0.252	0.036	
11.380	0.088	-0.009	
11.385	-0.120	-0.039	
11.390	-0.383	-0.071	
11.395	-0.162	-0.122	
11.400	-0.104	-0.162	
11.405	-0.425	-0.188	
11.410	-0.346	-0.227	
11.415	-0.107	-0.260	
11.420	-0.348	-0.270	
11.425	-0.432	-0.283	
11.430	-0.160	-0.300	
11.435	-0.305	-0.301	
11.440	-0.521	-0.306	
11.445	-0.182	-0.323	
11.450	0.245	-0.301	
11.455	0.229	-0.210	
11.460	0.790	-0.057	
11.465	1.174	0.166	
11.470	0.329	0.405	
11.475	-0.264	0.520	
11.480	-0.218	0.461	
11.485	-0.448	0.295	
11.490	-0.691	0.075	
11.495	-0.424	-0.151	
11.500	-0.294	-0.319	
11.505	-0.511	-0.413	
11.510	-0.377	-0.461	
11.515	-0.117	-0.463	
11.520	-0.326	-0.422	
11.525	-0.380	-0.377	
11.530	-0.041	-0.337	
11.535	-0.128	-0.283	
11.540	-0.346	-0.233	
11.545	-0.084	-0.208	
11.550	0.072	-0.177	
11.555	-0.271	-0.139	
11.560	-0.142	-0.123	
11.565	0.296	-0.105	
11.570	-0.064	-0.058	
11.575	-0.096	-0.021	
11.580	0.540	0.014	
11.585	0.415	0.093	
11.590	-0.020	0.177	
11.595	0.436	0.223	
11.600	0.575	0.270	
11.605	-0.026	0.316	
11.610	0.088	0.308	
11.615	0.445	0.275	
11.620	-0.066	0.250	
11.625	-0.200	0.197	
11.630	0.206	0.122	
11.635	-0.008	0.073	
11.640	-0.284	0.030	
11.645	-0.029	-0.024	
11.650	0.090	-0.058	
11.655	-0.282	-0.070	
11.660	-0.194	-0.094	
11.665	0.136	-0.113	
11.670	-0.186	-0.106	
11.675	-0.267	-0.107	
11.680	0.136	-0.114	
11.685	-0.032	-0.098	
11.690	-0.311	-0.083	
11.695	-0.067	-0.094	
11.700	0.033	-0.101	
11.705	-0.332	-0.101	
11.710	-0.259	-0.123	
11.715	-0.005	-0.151	
11.720	-0.293	-0.163	
11.725	-0.399	-0.184	
11.730	-0.105	-0.216	
11.735	-0.213	-0.230	
11.740	-0.432	-0.239	
11.745	-0.180	-0.257	
11.750	-0.093	-0.259	
11.755	-0.390	-0.247	
11.760	-0.313	-0.251	
11.765	-0.082	-0.257	
11.770	-0.334	-0.250	
11.775	-0.389	-0.253	
11.780	0.062	-0.256	
11.785	0.180	-0.214	
11.790	0.134	-0.129	
11.795	0.832	-0.004	
11.800	0.910	0.183	
11.805	-0.011	0.363	
11.810	-0.192	0.417	
11.815	-0.111	0.343	
11.820	-0.439	0.204	
11.825	-0.546	0.027	
11.830	-0.215	-0.145	
11.835	-0.236	-0.259	
11.840	-0.416	-0.318	
11.845	-0.120	-0.344	
11.850	0.070	-0.320	
11.855	-0.271	-0.261	
11.860	-0.145	-0.212	
11.865	0.291	-0.161	
11.870	-0.085	-0.090	
11.875	-0.177	-0.042	
11.880	0.328	-0.015	
11.885	0.209	0.033	
11.890	-0.136	0.078	
11.895	0.319	0.098	
11.900	0.546	0.138	
11.905	0.046	0.199	
11.910	0.277	0.235	
11.915	0.794	0.273	
11.920	0.383	0.346	
11.925	0.195	0.398	
11.930	0.771	0.422	
11.935	0.565	0.462	
11.940	0.058	0.487	
11.945	0.450	0.461	
11.950	0.535	0.433	
11.955	-0.070	0.405	
11.960	0.024	0.337	
11.965	0.431	0.260	
11.970	-0.027	0.213	
11.975	-0.165	0.161	
11.980	0.287	0.102	
11.985	0.088	0.078	
11.990	-0.261	0.060	
11.995	0.009	0.021	
12.000	0.192	-0.004	
12.005	-0.232	-0.009	
12.010	-0.133	-0.028	
12.015	0.285	-0.042	
12.020	-0.111	-0.026	
12.025	-0.230	-0.021	
12.030	0.177	-0.033	
12.035	-0.020	-0.028	
12.040	-0.305	-0.028	
12.045	-0.084	-0.056	
12.050	0.033	-0.080	
12.055	-0.326	-0.092	
12.060	-0.268	-0.123	
12.065	-0.023	-0.156	
12.070	-0.287	-0.171	
12.075	-0.389	-0.192	
12.080	-0.064	-0.219	
12.085	-0.145	-0.223	
12.090	-0.387	-0.218	
12.095	-0.162	-0.225	
12.100	-0.087	-0.224	
12.105	-0.407	-0.216	
12.110	-0.310	-0.228	
12.115	0.123	-0.234	
12.120	-0.017	-0.197	
12.125	0.097	-0.134	
12.130	0.806	-0.033	
12.135	0.544	0.127	
12.140	-0.159	0.262	
12.145	-0.113	0.286	
12.150	-0.162	0.219	
12.155	-0.503	0.103	
12.160	-0.451	-0.048	
12.165	-0.185	-0.187	
12.170	-0.355	-0.275	
12.175	-0.407	-0.327	
12.180	-0.041	-0.349	
12.185	-0.096	-0.322	
12.190	-0.325	-0.275	
12.195	-0.047	-0.238	
12.200	0.169	-0.187	
12.205	-0.226	-0.125	
12.210	-0.122	-0.090	
12.215	0.332	-0.062	
12.220	-0.043	-0.014	
12.225	-0.146	0.017	
12.230	0.427	0.033	
12.235	0.369	0.085	
12.240	-0.023	0.147	
12.245	0.511	0.189	
12.250	0.784	0.257	
12.255	0.276	0.352	
12.260	0.460	0.416	
12.265	0.942	0.470	
12.270	0.523	0.542	
12.275	0.323	0.584	
12.280	0.866	0.591	
12.285	0.691	0.612	
12.290	0.177	0.621	
12.295	0.570	0.585	
12.300	0.739	0.555	
12.305	0.168	0.540	
12.310	0.303	0.496	
12.315	0.799	0.456	
12.320	0.399	0.458	
12.325	0.166	0.456	
12.330	0.753	0.439	
12.335	0.634	0.456	
12.340	0.174	0.482	
12.345	0.643	0.480	
12.350	0.895	0.500	
12.355	0.302	0.543	
12.360	0.392	0.551	
12.365	0.860	0.544	
12.370	0.431	0.557	
12.375	0.209	0.549	
12.380	0.767	0.519	
12.385	0.598	0.516	
12.390	0.070	0.513	
12.395	0.457	0.472	
12.400	0.623	0.439	
12.405	0.038	0.422	
12.410	0.137	0.375	
12.415	0.591	0.324	
12.420	0.143	0.306	
12.425	-0.052	0.280	
12.430	0.450	0.237	
12.435	0.255	0.224	
12.440	-0.174	0.212	
12.445	0.165	0.170	
12.450	0.495	0.148	
12.455	0.197	0.173	
12.460	0.668	0.224	
12.465	1.285	0.338	
12.470	0.738	0.516	
12.475	0.155	0.642	
12.480	0.282	0.647	
12.485	-0.102	0.559	
12.490	-0.421	0.396	
12.495	-0.226	0.189	
12.500	-0.087	0.008	
12.505	-0.343	-0.116	
12.510	-0.241	-0.203	
12.515	0.133	-0.240	
12.520	-0.120	-0.219	
12.525	-0.137	-0.179	
12.530	0.512	-0.121	
12.535	0.479	-0.007	
12.540	0.023	0.119	
12.545	0.436	0.203	
12.550	0.637	0.278	
12.555	0.085	0.346	
12.560	0.190	0.362	
12.565	0.652	0.354	
12.570	0.238	0.365	
12.575	0.030	0.357	
12.580	0.608	0.328	
12.585	0.501	0.335	
12.590	0.020	0.351	
12.595	0.410	0.338	
12.600	0.556	0.334	
12.605	-0.064	0.338	
12.610	-0.052	0.294	
12.615	0.274	0.224	
12.620	-0.149	0.164	
12.625	-0.316	0.088	
12.630	-0.066	-0.004	
12.635	-0.186	-0.078	
12.640	-0.448	-0.141	
12.645	-0.253	-0.207	
12.650	-0.156	-0.253	
12.655	-0.453	-0.276	
12.660	-0.404	-0.304	
12.665	-0.157	-0.327	
12.670	-0.361	-0.328	
12.675	-0.470	-0.330	
12.680	-0.183	-0.339	
12.685	-0.241	-0.330	
12.690	-0.488	-0.318	
12.695	-0.284	-0.323	
12.700	-0.188	-0.323	
12.705	-0.486	-0.316	
12.710	-0.444	-0.328	
12.715	-0.209	-0.347	
12.720	-0.428	-0.352	
12.725	-0.563	-0.364	
12.730	-0.303	-0.389	
12.735	-0.378	-0.400	
12.740	-0.634	-0.411	
12.745	-0.438	-0.436	
12.750	-0.322	-0.452	
12.755	-0.590	-0.454	
12.760	-0.529	-0.465	
12.765	-0.282	-0.473	
12.770	-0.502	-0.464	
12.775	-0.628	-0.462	
12.780	-0.320	-0.471	
12.785	-0.281	-0.461	
12.790	-0.364	-0.428	
12.795	0.233	-0.369	
12.800	0.712	-0.234	
12.805	0.084	-0.044	
12.810	-0.107	0.093	
12.815	-0.119	0.132	
12.820	-0.518	0.087	
12.825	-0.721	-0.038	
12.830	-0.460	-0.204	
12.835	-0.459	-0.345	
12.840	-0.642	-0.444	
12.845	-0.389	-0.509	
12.850	-0.223	-0.523	
12.855	-0.459	-0.493	
12.860	-0.377	-0.457	
12.865	-0.081	-0.415	
12.870	-0.276	-0.355	
12.875	-0.377	-0.307	
12.880	-0.037	-0.276	
12.885	-0.076	-0.234	
12.890	-0.332	-0.194	
12.895	-0.081	-0.177	
12.900	0.181	-0.150	
12.905	-0.195	-0.105	
12.910	-0.105	-0.078	
12.915	0.404	-0.051	
12.920	0.085	0.009	
12.925	-0.079	0.059	
12.930	0.472	0.091	
12.935	0.349	0.146	
12.940	-0.134	0.194	
12.945	0.146	0.192	
12.950	0.309	0.178	
12.955	-0.197	0.164	
12.960	-0.178	0.115	
12.965	0.133	0.050	
12.970	-0.215	0.003	
12.975	-0.363	-0.051	
12.980	-0.072	-0.115	
12.985	-0.136	-0.155	
12.990	-0.393	-0.180	
12.995	-0.182	-0.210	
13.000	-0.037	-0.222	
13.005	-0.342	-0.215	
13.010	-0.276	-0.218	
13.015	0.049	-0.218	
13.020	-0.210	-0.196	
13.025	-0.328	-0.181	
13.030	0.021	-0.179	
13.035	-0.067	-0.162	
13.040	-0.360	-0.145	
13.045	-0.157	-0.154	
13.050	-0.015	-0.161	
13.055	-0.358	-0.160	
13.060	-0.331	-0.179	
13.065	-0.072	-0.206	
13.070	-0.303	-0.217	
13.075	-0.430	-0.234	
13.080	-0.146	-0.259	
13.085	-0.221	-0.267	
13.090	-0.467	-0.271	
13.095	-0.247	-0.287	
13.100	-0.131	-0.293	
13.105	-0.467	-0.286	
13.110	-0.451	-0.300	
13.115	-0.157	-0.322	
13.120	-0.233	-0.320	
13.125	-0.119	-0.294	
13.130	0.973	-0.203	
13.135	1.117	0.014	
13.140	0.471	0.288	
13.145	0.367	0.482	
13.150	-0.009	0.543	
13.155	-0.537	0.465	
13.160	-0.587	0.263	
13.165	-0.339	0.021	
13.170	-0.471	-0.182	
13.175	-0.528	-0.332	
13.180	-0.177	-0.423	
13.185	-0.174	-0.438	
13.190	-0.398	-0.407	
13.195	-0.162	-0.369	
13.200	0.043	-0.314	
13.205	-0.290	-0.245	
13.210	-0.220	-0.201	
13.215	0.195	-0.167	
13.220	-0.114	-0.117	
13.225	-0.236	-0.083	
13.230	0.242	-0.067	
13.235	0.224	-0.025	
13.240	-0.140	0.026	
13.245	0.299	0.057	
13.250	0.637	0.112	
13.255	0.163	0.199	
13.260	0.315	0.264	
13.265	0.854	0.323	
13.270	0.457	0.407	
13.275	0.160	0.462	
13.280	0.654	0.470	
13.285	0.477	0.477	
13.290	-0.085	0.462	
13.295	0.210	0.394	
13.300	0.390	0.321	
13.305	-0.160	0.264	
13.310	-0.140	0.184	
13.315	0.279	0.103	
13.320	-0.098	0.059	
13.325	-0.247	0.019	
13.330	0.174	-0.023	
13.335	0.073	-0.032	
13.340	-0.270	-0.028	
13.345	-0.035	-0.044	
13.350	0.189	-0.051	
13.355	-0.232	-0.040	
13.360	-0.191	-0.048	
13.365	0.192	-0.063	
13.370	-0.151	-0.057	
13.375	-0.300	-0.062	
13.380	0.044	-0.086	
13.385	-0.052	-0.094	
13.390	-0.357	-0.100	
13.395	-0.171	-0.127	
13.400	-0.038	-0.151	
13.405	-0.366	-0.164	
13.410	-0.335	-0.190	
13.415	-0.046	-0.218	
13.420	-0.259	-0.224	
13.425	-0.381	-0.228	
13.430	-0.063	-0.239	
13.435	-0.131	-0.229	
13.440	-0.424	-0.217	
13.445	-0.233	-0.226	
13.450	-0.069	-0.234	
13.455	-0.300	-0.225	
13.460	-0.058	-0.213	
13.465	0.925	-0.144	
13.470	0.829	0.037	
13.475	0.497	0.262	
13.480	0.710	0.441	
13.485	0.097	0.540	
13.490	-0.454	0.510	
13.495	-0.364	0.347	
13.500	-0.262	0.136	
13.505	-0.499	-0.057	
13.510	-0.399	-0.218	
13.515	-0.040	-0.318	
13.520	-0.217	-0.341	
13.525	-0.326	-0.326	
13.530	0.076	-0.295	
13.535	0.059	-0.231	
13.540	-0.261	-0.160	
13.545	0.020	-0.116	
13.550	0.302	-0.069	
13.555	-0.159	-0.012	
13.560	-0.089	0.014	
13.565	0.444	0.029	
13.570	0.107	0.073	
13.575	-0.072	0.108	
13.580	0.553	0.129	
13.585	0.553	0.189	
13.590	0.096	0.264	
13.595	0.547	0.312	
13.600	0.823	0.371	
13.605	0.245	0.444	
13.610	0.274	0.471	
13.615	0.748	0.469	
13.620	0.309	0.477	
13.625	-0.023	0.455	
13.630	0.466	0.394	
13.635	0.328	0.348	
13.640	-0.172	0.305	
13.645	0.073	0.231	
13.650	0.296	0.164	
13.655	-0.183	0.123	
13.660	-0.160	0.069	
13.665	0.253	0.019	
13.670	-0.108	0.001	
13.675	-0.258	-0.018	
13.680	0.166	-0.045	
13.685	0.113	-0.041	
13.690	-0.246	-0.025	
13.695	-0.002	-0.030	
13.700	0.248	-0.027	
13.705	-0.209	-0.007	
13.710	-0.192	-0.013	
13.715	0.187	-0.032	
13.720	-0.143	-0.034	
13.725	-0.316	-0.047	
13.730	-0.002	-0.081	
13.735	-0.084	-0.101	
13.740	-0.384	-0.118	
13.745	-0.197	-0.153	
13.750	-0.035	-0.179	
13.755	-0.349	-0.188	
13.760	-0.311	-0.205	
13.765	0.012	-0.220	
13.770	-0.235	-0.211	
13.775	-0.401	-0.207	
13.780	-0.110	-0.220	
13.785	-0.133	-0.220	
13.790	-0.329	-0.212	
13.795	0.130	-0.200	
13.800	0.780	-0.124	
13.805	0.387	0.032	
13.810	0.338	0.190	
13.815	0.518	0.306	
13.820	-0.188	0.361	
13.825	-0.471	0.306	
13.830	-0.264	0.159	
13.835	-0.306	-0.003	
13.840	-0.515	-0.147	
13.845	-0.259	-0.264	
13.850	-0.032	-0.322	
13.855	-0.311	-0.320	
13.860	-0.247	-0.302	
13.865	0.175	-0.266	
13.870	-0.124	-0.201	
13.875	-0.261	-0.147	
13.880	0.194	-0.114	
13.885	0.183	-0.062	
13.890	-0.213	-0.010	
13.895	0.075	0.010	
13.900	0.364	0.032	
13.905	-0.119	0.068	
13.910	-0.032	0.078	
13.915	0.543	0.085	
13.920	0.227	0.132	
13.925	0.027	0.178	
13.930	0.637	0.210	
13.935	0.599	0.275	
13.940	0.067	0.344	
13.945	0.424	0.367	
13.950	0.611	0.382	
13.955	-0.017	0.394	
13.960	-0.032	0.352	
13.965	0.421	0.282	
13.970	-0.017	0.232	
13.975	-0.226	0.172	
13.980	0.172	0.097	
13.985	0.078	0.052	
13.990	-0.277	0.022	
13.995	-0.060	-0.022	
14.000	0.189	-0.048	
14.005	-0.227	-0.049	
14.010	-0.185	-0.060	
14.015	0.273	-0.070	
14.020	-0.072	-0.048	
14.025	-0.241	-0.034	
14.030	0.186	-0.038	
14.035	0.120	-0.021	
14.040	-0.255	-0.001	
14.045	-0.023	-0.010	
14.050	0.227	-0.016	
14.055	-0.224	-0.006	
14.060	-0.209	-0.020	
14.065	0.152	-0.046	
14.070	-0.166	-0.053	
14.075	-0.317	-0.070	
14.080	0.026	-0.101	
14.085	-0.037	-0.112	
14.090	-0.337	-0.114	
14.095	-0.130	-0.133	
14.100	0.101	-0.140	
14.105	-0.284	-0.128	
14.110	-0.288	-0.133	
14.115	0.012	-0.150	
14.120	-0.210	-0.153	
14.125	-0.271	-0.157	
14.130	0.436	-0.145	
14.135	0.771	-0.049	
14.140	0.398	0.117	
14.145	0.657	0.280	
14.150	0.569	0.413	
14.155	-0.247	0.474	
14.160	-0.358	0.403	
14.165	-0.151	0.243	
14.170	-0.345	0.073	
14.175	-0.439	-0.083	
14.180	-0.081	-0.205	
14.185	-0.056	-0.257	
14.190	-0.308	-0.259	
14.195	-0.066	-0.246	
14.200	0.213	-0.204	
14.205	-0.207	-0.139	
14.210	-0.172	-0.099	
14.215	0.302	-0.072	
14.220	-0.012	-0.026	
14.225	-0.180	0.005	
14.230	0.325	0.018	
14.235	0.294	0.056	
14.240	-0.127	0.101	
14.245	0.261	0.118	
14.250	0.602	0.151	
14.255	0.110	0.212	
14.260	0.218	0.250	
14.265	0.776	0.284	
14.270	0.418	0.349	
14.275	0.114	0.397	
14.280	0.625	0.405	
14.285	0.512	0.421	
14.290	-0.063	0.425	
14.295	0.230	0.376	
14.300	0.460	0.323	
14.305	-0.102	0.285	
14.310	-0.116	0.221	
14.315	0.315	0.147	
14.320	-0.061	0.105	
14.325	-0.246	0.062	
14.330	0.168	0.012	
14.335	0.116	-0.005	
14.340	-0.267	-0.007	
14.345	-0.058	-0.028	
14.350	0.221	-0.041	
14.355	-0.197	-0.031	
14.360	-0.165	-0.036	
14.365	0.274	-0.043	
14.370	-0.089	-0.025	
14.375	-0.274	-0.020	
14.380	0.093	-0.039	
14.385	0.037	-0.043	
14.390	-0.311	-0.044	
14.395	-0.133	-0.070	
14.400	0.047	-0.094	
14.405	-0.319	-0.105	
14.410	-0.317	-0.133	
14.415	-0.021	-0.167	
14.420	-0.241	-0.181	
14.425	-0.395	-0.196	
14.430	-0.102	-0.219	
14.435	-0.136	-0.224	
14.440	-0.418	-0.222	
14.445	-0.246	-0.236	
14.450	-0.101	-0.246	
14.455	-0.386	-0.244	
14.460	-0.308	-0.252	
14.465	0.297	-0.242	
14.470	0.326	-0.165	
14.475	0.248	-0.041	
14.480	0.764	0.101	
14.485	0.445	0.254	
14.490	-0.316	0.345	
14.495	-0.299	0.303	
14.500	-0.238	0.174	
14.505	-0.518	0.018	
14.510	-0.454	-0.141	
14.515	-0.114	-0.265	
14.520	-0.247	-0.320	
14.525	-0.345	-0.332	
14.530	0.052	-0.317	
14.535	0.050	-0.260	
14.540	-0.273	-0.190	
14.545	-0.020	-0.144	
14.550	0.305	-0.095	
14.555	-0.151	-0.033	
14.560	-0.113	-0.002	
14.565	0.425	0.016	
14.570	0.120	0.062	
14.575	-0.089	0.099	
14.580	0.511	0.120	
14.585	0.540	0.177	
14.590	0.050	0.247	
14.595	0.476	0.288	
14.600	0.820	0.339	
14.605	0.305	0.413	
14.610	0.340	0.455	
14.615	0.848	0.476	
14.620	0.437	0.513	
14.625	0.067	0.519	
14.630	0.573	0.479	
14.635	0.466	0.448	
14.640	-0.098	0.415	
14.645	0.172	0.343	
14.650	0.425	0.275	
14.655	-0.113	0.233	
14.660	-0.114	0.173	
14.665	0.366	0.113	
14.670	0.003	0.091	
14.675	-0.206	0.071	
14.680	0.239	0.040	
14.685	0.210	0.040	
14.690	-0.206	0.054	
14.695	0.046	0.043	
14.700	0.328	0.040	
14.705	-0.163	0.056	
14.710	-0.162	0.046	
14.715	0.274	0.023	
14.720	-0.072	0.022	
14.725	-0.265	0.011	
14.730	0.087	-0.020	
14.735	0.020	-0.035	
14.740	-0.329	-0.045	
14.745	-0.162	-0.079	
14.750	0.029	-0.110	
14.755	-0.314	-0.124	
14.760	-0.311	-0.150	
14.765	0.001	-0.178	
14.770	-0.220	-0.184	
14.775	-0.381	-0.190	
14.780	-0.116	-0.209	
14.785	-0.180	-0.216	
14.790	-0.460	-0.223	
14.795	-0.220	-0.246	
14.800	0.270	-0.241	
14.805	0.221	-0.169	
14.810	0.677	-0.039	
14.815	1.244	0.163	
14.820	0.616	0.406	
14.825	-0.182	0.557	
14.830	-0.134	0.534	
14.835	-0.299	0.389	
14.840	-0.602	0.185	
14.845	-0.390	-0.037	
14.850	-0.163	-0.211	
14.855	-0.386	-0.308	
14.860	-0.326	-0.357	
14.865	0.067	-0.360	
14.870	-0.148	-0.311	
14.875	-0.293	-0.254	
14.880	0.117	-0.207	
14.885	0.134	-0.142	
14.890	-0.232	-0.077	
14.895	0.027	-0.045	
14.900	0.378	-0.011	
14.905	-0.098	0.039	
14.910	-0.053	0.062	
14.915	0.543	0.078	
14.920	0.277	0.132	
14.925	0.040	0.186	
14.930	0.707	0.228	
14.935	0.768	0.309	
14.940	0.255	0.407	
14.945	0.596	0.466	
14.950	0.855	0.516	
14.955	0.241	0.562	
14.960	0.187	0.552	
14.965	0.666	0.504	
14.970	0.248	0.469	
14.975	-0.107	0.414	
14.980	0.338	0.328	
14.985	0.255	0.263	
14.990	-0.210	0.212	
14.995	-0.008	0.140	
15.000	0.282	0.081	
15.005	-0.174	0.055	
15.010	-0.172	0.021	
15.015	0.274	-0.011	
15.020	-0.053	-0.010	
15.025	-0.244	-0.011	
15.030	0.168	-0.027	
15.035	0.134	-0.019	
15.040	-0.268	-0.004	
15.045	-0.089	-0.019	
15.050	0.166	-0.035	
15.055	-0.247	-0.037	
15.060	-0.256	-0.058	
15.065	0.085	-0.089	
15.070	-0.195	-0.100	
15.075	-0.390	-0.120	
15.080	-0.114	-0.157	
15.085	-0.137	-0.182	
15.090	-0.430	-0.198	
15.095	-0.262	-0.228	
15.100	-0.093	-0.248	
15.105	-0.374	-0.251	
15.110	-0.363	-0.261	
15.115	-0.102	-0.273	
15.120	-0.332	-0.271	
15.125	-0.499	-0.278	
15.130	-0.159	-0.299	
15.135	0.062	-0.288	
15.140	0.046	-0.230	
15.145	0.898	-0.110	
15.150	1.335	0.116	
15.155	0.546	0.395	
15.160	-0.044	0.570	
15.165	-0.058	0.569	
15.170	-0.416	0.437	
15.175	-0.639	0.221	
15.180	-0.354	-0.021	
15.185	-0.305	-0.212	
15.190	-0.505	-0.334	
15.195	-0.274	-0.406	
15.200	-0.035	-0.417	
15.205	-0.306	-0.375	
15.210	-0.276	-0.328	
15.215	0.152	-0.277	
15.220	-0.098	-0.204	
15.225	-0.258	-0.144	
15.230	0.180	-0.108	
15.235	0.204	-0.056	
15.240	-0.188	-0.002	
15.245	0.113	0.022	
15.250	0.500	0.055	
15.255	0.044	0.114	
15.260	0.130	0.156	
15.265	0.756	0.196	
15.270	0.486	0.278	
15.275	0.194	0.355	
15.280	0.774	0.404	
15.285	0.745	0.468	
15.290	0.122	0.523	
15.295	0.383	0.517	
15.300	0.625	0.489	
15.305	-0.003	0.459	
15.310	-0.053	0.386	
15.315	0.407	0.293	
15.320	0.021	0.229	
15.325	-0.210	0.166	
15.330	0.207	0.096	
15.335	0.194	0.062	
15.340	-0.223	0.051	
15.345	-0.026	0.023	
15.350	0.271	0.005	
15.355	-0.172	0.011	
15.360	-0.180	0.001	
15.365	0.258	-0.018	
15.370	-0.064	-0.011	
15.375	-0.267	-0.012	
15.380	0.093	-0.033	
15.385	0.070	-0.038	
15.390	-0.300	-0.037	
15.395	-0.139	-0.060	
15.400	0.094	-0.083	
15.405	-0.279	-0.089	
15.410	-0.310	-0.112	
15.415	-0.002	-0.144	
15.420	-0.217	-0.157	
15.425	-0.393	-0.173	
15.430	-0.090	-0.199	
15.435	-0.082	-0.206	
15.440	-0.378	-0.200	
15.445	-0.212	-0.209	
15.450	0.008	-0.211	
15.455	-0.337	-0.198	
15.460	-0.355	-0.202	
15.465	-0.024	-0.216	
15.470	-0.113	-0.207	
15.475	-0.108	-0.181	
15.480	0.808	-0.113	
15.485	0.928	0.054	
15.490	0.198	0.258	
15.495	0.151	0.379	
15.500	0.058	0.394	
15.505	-0.438	0.321	
15.510	-0.515	0.164	
15.515	-0.235	-0.022	
15.520	-0.339	-0.170	
15.525	-0.442	-0.274	
15.530	-0.090	-0.335	
15.535	-0.034	-0.334	
15.540	-0.322	-0.294	
15.545	-0.113	-0.256	
15.550	0.198	-0.206	
15.555	-0.204	-0.140	
15.560	-0.197	-0.101	
15.565	0.294	-0.077	
15.570	0.035	-0.031	
15.575	-0.177	0.006	
15.580	0.315	0.023	
15.585	0.378	0.065	
15.590	-0.098	0.119	
15.595	0.244	0.143	
15.600	0.649	0.177	
15.605	0.157	0.239	
15.610	0.160	0.277	
15.615	0.724	0.300	
15.620	0.378	0.348	
15.625	0.001	0.375	
15.630	0.492	0.360	
15.635	0.442	0.352	
15.640	-0.104	0.342	
15.645	0.107	0.289	
15.650	0.344	0.231	
15.655	-0.169	0.189	
15.660	-0.198	0.124	
15.665	0.244	0.055	
15.670	-0.073	0.020	
15.675	-0.285	-0.009	
15.680	0.094	-0.047	
15.685	0.136	-0.055	
15.690	-0.253	-0.044	
15.695	-0.078	-0.051	
15.700	0.224	-0.054	
15.705	-0.200	-0.037	
15.710	-0.207	-0.040	
15.715	0.195	-0.053	
15.720	-0.114	-0.047	
15.725	-0.325	-0.052	
15.730	-0.018	-0.080	
15.735	-0.008	-0.097	
15.740	-0.343	-0.104	
15.745	-0.200	-0.130	
15.750	0.001	-0.153	
15.755	-0.317	-0.160	
15.760	-0.325	-0.178	
15.765	-0.005	-0.199	
15.770	-0.209	-0.197	
15.775	-0.392	-0.198	
15.780	-0.104	-0.212	
15.785	-0.096	-0.212	
15.790	-0.413	-0.206	
15.795	-0.267	-0.219	
15.800	-0.050	-0.232	
15.805	-0.276	-0.225	
15.810	-0.148	-0.214	
15.815	0.724	-0.163	
15.820	0.616	-0.019	
15.825	0.161	0.153	
15.830	0.407	0.271	
15.835	0.038	0.326	
15.840	-0.433	0.295	
15.845	-0.345	0.172	
15.850	-0.188	0.019	
15.855	-0.428	-0.113	
15.860	-0.396	-0.223	
15.865	-0.008	-0.293	
15.870	-0.156	-0.300	
15.875	-0.319	-0.277	
15.880	0.041	-0.249	
15.885	0.101	-0.196	
15.890	-0.253	-0.134	
15.895	-0.044	-0.100	
15.900	0.328	-0.065	
15.905	-0.124	-0.013	
15.910	-0.119	0.013	
15.915	0.428	0.026	
15.920	0.172	0.070	
15.925	-0.098	0.110	
15.930	0.474	0.130	
15.935	0.569	0.181	
15.940	0.058	0.250	
15.945	0.401	0.288	
15.950	0.767	0.328	
15.955	0.233	0.388	
15.960	0.154	0.409	
15.965	0.680	0.401	
15.970	0.322	0.407	
15.975	-0.079	0.393	
15.980	0.380	0.338	
15.985	0.361	0.297	
15.990	-0.156	0.265	
15.995	0.018	0.204	
16.000	0.334	0.146	
16.005	-0.139	0.116	
16.010	-0.175	0.074	
16.015	0.273	0.030	
16.020	-0.014	0.019	
16.025	-0.233	0.011	
16.030	0.174	-0.009	
16.035	0.229	-0.002	
16.040	-0.212	0.022	
16.045	-0.026	0.019	
16.050	0.300	0.016	
16.055	-0.166	0.030	
16.060	-0.203	0.021	
16.065	0.219	-0.004	
16.070	-0.076	-0.008	
16.075	-0.302	-0.019	
16.080	0.004	-0.052	
16.085	0.017	-0.072	
16.090	-0.337	-0.082	
16.095	-0.201	-0.111	
16.100	0.035	-0.138	
16.105	-0.285	-0.145	
16.110	-0.313	-0.160	
16.115	0.037	-0.179	
16.120	-0.160	-0.173	
16.125	-0.378	-0.169	
16.130	-0.128	-0.184	
16.135	-0.108	-0.192	
16.140	-0.363	-0.193	
16.145	-0.079	-0.200	
16.150	0.622	-0.162	
16.155	0.424	-0.040	
16.160	0.402	0.114	
16.165	0.761	0.260	
16.170	0.037	0.374	
16.175	-0.415	0.381	
16.180	-0.265	0.265	
16.185	-0.276	0.103	
16.190	-0.528	-0.058	
16.195	-0.326	-0.203	
16.200	-0.053	-0.294	
16.205	-0.290	-0.317	
16.210	-0.277	-0.312	
16.215	0.169	-0.284	
16.220	-0.047	-0.216	
16.225	-0.249	-0.151	
16.230	0.165	-0.109	
16.235	0.238	-0.053	
16.240	-0.198	0.004	
16.245	0.018	0.025	
16.250	0.427	0.043	
16.255	-0.034	0.083	
16.260	-0.034	0.102	
16.265	0.584	0.115	
16.270	0.380	0.170	
16.275	0.076	0.231	
16.280	0.663	0.274	
16.285	0.732	0.342	
16.290	0.154	0.418	
16.295	0.415	0.446	
16.300	0.739	0.456	
16.305	0.161	0.472	
16.310	0.032	0.443	
16.315	0.543	0.383	
16.320	0.190	0.343	
16.325	-0.166	0.295	
16.330	0.216	0.220	
16.335	0.235	0.166	
16.340	-0.220	0.130	
16.345	-0.052	0.077	
16.350	0.303	0.035	
16.355	-0.156	0.027	
16.360	-0.197	0.008	
16.365	0.259	-0.016	
16.370	-0.014	-0.010	
16.375	-0.253	-0.007	
16.380	0.107	-0.023	
16.385	0.143	-0.022	
16.390	-0.273	-0.012	
16.395	-0.136	-0.029	
16.400	0.139	-0.051	
16.405	-0.247	-0.058	
16.410	-0.300	-0.080	
16.415	0.033	-0.114	
16.420	-0.186	-0.129	
16.425	-0.412	-0.147	
16.430	-0.160	-0.183	
16.435	-0.139	-0.207	
16.440	-0.430	-0.221	
16.445	-0.288	-0.246	
16.450	-0.073	-0.263	
16.455	-0.349	-0.259	
16.460	-0.395	-0.263	
16.465	-0.137	-0.275	
16.470	-0.320	-0.276	
16.475	-0.502	-0.285	
16.480	-0.146	-0.304	
16.485	0.204	-0.285	
16.490	0.143	-0.204	
16.495	0.747	-0.070	
16.500	1.066	0.134	
16.505	0.168	0.350	
16.510	-0.285	0.443	
16.515	-0.215	0.379	
16.520	-0.464	0.223	
16.525	-0.660	0.022	
16.530	-0.352	-0.180	
16.535	-0.255	-0.320	
16.540	-0.479	-0.392	
16.545	-0.293	-0.425	
16.550	-0.027	-0.413	
16.555	-0.297	-0.360	
16.560	-0.308	-0.311	
16.565	0.101	-0.267	
16.570	-0.098	-0.205	
16.575	-0.294	-0.155	
16.580	0.081	-0.130	
16.585	0.181	-0.091	
16.590	-0.217	-0.045	
16.595	0.006	-0.025	
16.600	0.454	0.001	
16.605	0.020	0.056	
16.610	0.037	0.098	
16.615	0.706	0.137	
16.620	0.485	0.220	
16.625	0.114	0.303	
16.630	0.631	0.350	
16.635	0.655	0.402	
16.640	0.021	0.444	
16.645	0.233	0.426	
16.650	0.556	0.386	
16.655	-0.014	0.357	
16.660	-0.122	0.296	
16.665	0.325	0.214	
16.670	0.015	0.159	
16.675	-0.258	0.107	
16.680	0.079	0.043	
16.685	0.136	0.005	
16.690	-0.267	-0.011	
16.695	-0.114	-0.040	
16.700	0.218	-0.060	
16.705	-0.195	-0.053	
16.710	-0.238	-0.059	
16.715	0.201	-0.072	
16.720	-0.043	-0.060	
16.725	-0.282	-0.051	
16.730	0.015	-0.064	
16.735	0.053	-0.068	
16.740	-0.319	-0.066	
16.745	-0.192	-0.089	
16.750	0.055	-0.114	
16.755	-0.297	-0.122	
16.760	-0.361	-0.146	
16.765	-0.076	-0.181	
16.770	-0.246	-0.200	
16.775	-0.451	-0.219	
16.780	-0.185	-0.250	
16.785	-0.146	-0.263	
16.790	-0.433	-0.263	
16.795	-0.299	-0.275	
16.800	-0.124	-0.284	
16.805	-0.447	-0.281	
16.810	-0.505	-0.298	
16.815	-0.148	-0.326	
16.820	-0.089	-0.320	
16.825	0.068	-0.270	
16.830	1.178	-0.139	
16.835	1.398	0.127	
16.840	0.559	0.444	
16.845	0.195	0.643	
16.850	-0.031	0.665	
16.855	-0.514	0.535	
16.860	-0.639	0.294	
16.865	-0.352	0.023	
16.870	-0.407	-0.196	
16.875	-0.528	-0.345	
16.880	-0.198	-0.432	
16.885	-0.095	-0.442	
16.890	-0.361	-0.399	
16.895	-0.197	-0.352	
16.900	0.139	-0.292	
16.905	-0.204	-0.214	
16.910	-0.226	-0.159	
16.915	0.267	-0.121	
16.920	0.050	-0.063	
16.925	-0.192	-0.015	
16.930	0.293	0.009	
16.935	0.437	0.058	
16.940	-0.050	0.123	
16.945	0.296	0.161	
16.950	0.779	0.211	
16.955	0.329	0.298	
16.960	0.276	0.364	
16.965	0.864	0.410	
16.970	0.584	0.477	
16.975	0.113	0.520	
16.980	0.564	0.509	
16.985	0.572	0.493	
16.990	-0.069	0.470	
16.995	0.102	0.397	
17.000	0.439	0.314	
17.005	-0.095	0.256	
17.010	-0.180	0.184	
17.015	0.258	0.105	
17.020	-0.003	0.062	
17.025	-0.246	0.030	
17.030	0.123	-0.008	
17.035	0.204	-0.016	
17.040	-0.229	-0.003	
17.045	-0.075	-0.011	
17.050	0.285	-0.018	
17.055	-0.157	-0.002	
17.060	-0.223	-0.005	
17.065	0.192	-0.025	
17.070	-0.055	-0.025	
17.075	-0.288	-0.030	
17.080	0.021	-0.055	
17.085	0.070	-0.065	
17.090	-0.313	-0.065	
17.095	-0.195	-0.088	
17.100	0.061	-0.112	
17.105	-0.294	-0.121	
17.110	-0.360	-0.143	
17.115	-0.029	-0.176	
17.120	-0.178	-0.187	
17.125	-0.383	-0.194	
17.130	-0.104	-0.209	
17.135	-0.050	-0.208	
17.140	-0.393	-0.197	
17.145	-0.284	-0.206	
17.150	-0.026	-0.219	
17.155	-0.226	-0.210	
17.160	-0.060	-0.192	
17.165	0.965	-0.119	
17.170	0.936	0.068	
17.175	0.390	0.297	
17.180	0.514	0.457	
17.185	0.105	0.522	
17.190	-0.453	0.470	
17.195	-0.415	0.302	
17.200	-0.220	0.094	
17.205	-0.416	-0.084	
17.210	-0.410	-0.224	
17.215	-0.027	-0.309	
17.220	-0.120	-0.321	
17.225	-0.305	-0.294	
17.230	0.061	-0.258	
17.235	0.195	-0.192	
17.240	-0.218	-0.113	
17.245	-0.047	-0.067	
17.250	0.373	-0.029	
17.255	-0.082	0.024	
17.260	-0.131	0.049	
17.265	0.460	0.057	
17.270	0.297	0.101	
17.275	-0.063	0.150	
17.280	0.505	0.177	
17.285	0.677	0.233	
17.290	0.152	0.310	
17.295	0.445	0.357	
17.300	0.866	0.402	
17.305	0.349	0.466	
17.310	0.184	0.493	
17.315	0.713	0.481	
17.320	0.395	0.479	
17.325	-0.078	0.455	
17.330	0.331	0.386	
17.335	0.340	0.323	
17.340	-0.195	0.270	
17.345	-0.079	0.188	
17.350	0.290	0.110	
17.355	-0.153	0.068	
17.360	-0.221	0.023	
17.365	0.218	-0.020	
17.370	-0.015	-0.029	
17.375	-0.268	-0.031	
17.380	0.084	-0.048	
17.385	0.197	-0.044	
17.390	-0.223	-0.021	
17.395	-0.105	-0.023	
17.400	0.218	-0.029	
17.405	-0.197	-0.021	
17.410	-0.259	-0.033	
17.415	0.171	-0.058	
17.420	-0.050	-0.058	
17.425	-0.323	-0.059	
17.430	-0.063	-0.084	
17.435	0.000	-0.101	
17.440	-0.351	-0.110	
17.445	-0.249	-0.138	
17.450	-0.005	-0.166	
17.455	-0.293	-0.174	
17.460	-0.340	-0.189	
17.465	0.012	-0.206	
17.470	-0.146	-0.197	
17.475	-0.383	-0.187	
17.480	-0.136	-0.196	
17.485	-0.087	-0.199	
17.490	-0.377	-0.195	
17.495	-0.156	-0.203	
17.500	0.511	-0.178	
17.505	0.389	-0.075	
17.510	0.373	0.067	
17.515	0.838	0.215	
17.520	0.258	0.354	
17.525	-0.355	0.404	
17.530	-0.246	0.321	
17.535	-0.249	0.171	
17.540	-0.537	0.006	
17.545	-0.395	-0.155	
17.550	-0.105	-0.272	
17.555	-0.310	-0.321	
17.560	-0.335	-0.335	
17.565	0.073	-0.322	
17.570	-0.085	-0.269	
17.575	-0.303	-0.212	
17.580	0.038	-0.175	
17.585	0.158	-0.127	
17.590	-0.232	-0.075	
17.595	-0.081	-0.053	
17.600	0.344	-0.035	
17.605	-0.085	0.005	
17.610	-0.139	0.025	
17.615	0.441	0.034	
17.620	0.259	0.078	
17.625	-0.081	0.126	
17.630	0.457	0.152	
17.635	0.634	0.204	
17.640	0.064	0.275	
17.645	0.261	0.306	
17.650	0.648	0.322	
17.655	0.131	0.348	
17.660	-0.040	0.337	
17.665	0.468	0.293	
17.670	0.175	0.267	
17.675	-0.206	0.233	
17.680	0.140	0.169	
17.685	0.230	0.120	
17.690	-0.224	0.092	
17.695	-0.113	0.045	
17.700	0.235	0.004	
17.705	-0.175	-0.008	
17.710	-0.256	-0.030	
17.715	0.161	-0.060	
17.720	-0.031	-0.061	
17.725	-0.282	-0.059	
17.730	0.044	-0.073	
17.735	0.163	-0.067	
17.740	-0.261	-0.047	
17.745	-0.142	-0.052	
17.750	0.223	-0.059	
17.755	-0.169	-0.046	
17.760	-0.253	-0.048	
17.765	0.134	-0.065	
17.770	-0.089	-0.065	
17.775	-0.342	-0.070	
17.780	-0.082	-0.100	
17.785	0.009	-0.119	
17.790	-0.346	-0.125	
17.795	-0.249	-0.148	
17.800	0.040	-0.169	
17.805	-0.261	-0.168	
17.810	-0.332	-0.174	
17.815	-0.017	-0.189	
17.820	-0.182	-0.186	
17.825	-0.406	-0.187	
17.830	-0.099	-0.203	
17.835	0.209	-0.192	
17.840	-0.015	-0.137	
17.845	0.509	-0.053	
17.850	0.953	0.088	
17.855	0.274	0.266	
17.860	-0.162	0.366	
17.865	-0.008	0.345	
17.870	-0.267	0.250	
17.875	-0.518	0.109	
17.880	-0.244	-0.052	
17.885	-0.111	-0.173	
17.890	-0.363	-0.239	
17.895	-0.204	-0.276	
17.900	0.195	-0.269	
17.905	-0.154	-0.215	
17.910	-0.209	-0.163	
17.915	0.311	-0.120	
17.920	0.133	-0.051	
17.925	-0.182	0.010	
17.930	0.239	0.039	
17.935	0.399	0.078	
17.940	-0.119	0.125	
17.945	0.073	0.136	
17.950	0.556	0.143	
17.955	0.143	0.182	
17.960	0.055	0.208	
17.965	0.698	0.227	
17.970	0.559	0.287	
17.975	0.131	0.353	
17.980	0.627	0.388	
17.985	0.735	0.431	
17.990	0.101	0.474	
17.995	0.242	0.462	
18.000	0.607	0.426	
18.005	0.064	0.400	
18.010	-0.098	0.342	
18.015	0.408	0.264	
18.020	0.165	0.217	
18.025	-0.224	0.178	
18.030	0.081	0.116	
18.035	0.192	0.071	
18.040	-0.252	0.045	
18.045	-0.148	0.003	
18.050	0.221	-0.033	
18.055	-0.169	-0.039	
18.060	-0.247	-0.052	
18.065	0.209	-0.069	
18.070	0.024	-0.056	
18.075	-0.253	-0.039	
18.080	0.070	-0.043	
18.085	0.194	-0.033	
18.090	-0.255	-0.012	
18.095	-0.156	-0.022	
18.100	0.184	-0.040	
18.105	-0.204	-0.041	
18.110	-0.310	-0.059	
18.115	0.030	-0.093	
18.120	-0.128	-0.110	
18.125	-0.375	-0.126	
18.130	-0.117	-0.156	
18.135	-0.017	-0.171	
18.140	-0.351	-0.170	
18.145	-0.249	-0.183	
18.150	0.047	-0.192	
18.155	-0.279	-0.181	
18.160	-0.393	-0.184	
18.165	-0.066	-0.204	
18.170	-0.119	-0.206	
18.175	-0.227	-0.193	
18.180	0.524	-0.153	
18.185	0.945	-0.024	
18.190	0.314	0.170	
18.195	0.235	0.317	
18.200	0.213	0.377	
18.205	-0.355	0.351	
18.210	-0.520	0.227	
18.215	-0.241	0.048	
18.220	-0.287	-0.108	
18.225	-0.450	-0.223	
18.230	-0.142	-0.300	
18.235	0.043	-0.314	
18.240	-0.287	-0.279	
18.245	-0.160	-0.242	
18.250	0.253	-0.196	
18.255	-0.125	-0.126	
18.260	-0.200	-0.078	
18.265	0.315	-0.050	
18.270	0.148	0.000	
18.275	-0.191	0.044	
18.280	0.226	0.057	
18.285	0.425	0.085	
18.290	-0.075	0.129	
18.295	0.160	0.147	
18.300	0.710	0.173	
18.305	0.322	0.241	
18.310	0.216	0.303	
18.315	0.841	0.351	
18.320	0.643	0.427	
18.325	0.142	0.490	
18.330	0.578	0.500	
18.335	0.660	0.503	
18.340	-0.005	0.499	
18.345	0.116	0.440	
18.350	0.511	0.364	
18.355	-0.012	0.311	
18.360	-0.157	0.243	
18.365	0.319	0.164	
18.370	0.105	0.122	
18.375	-0.232	0.093	
18.380	0.090	0.049	
18.385	0.232	0.026	
18.390	-0.227	0.025	
18.395	-0.131	0.004	
18.400	0.290	-0.016	
18.405	-0.119	-0.008	
18.410	-0.223	-0.011	
18.415	0.223	-0.026	
18.420	0.037	-0.016	
18.425	-0.270	-0.008	
18.430	0.011	-0.025	
18.435	0.151	-0.033	
18.440	-0.276	-0.029	
18.445	-0.201	-0.050	
18.450	0.085	-0.078	
18.455	-0.262	-0.091	
18.460	-0.364	-0.118	
18.465	-0.044	-0.157	
18.470	-0.166	-0.176	
18.475	-0.415	-0.189	
18.480	-0.169	-0.215	
18.485	-0.056	-0.225	
18.490	-0.381	-0.219	
18.495	-0.317	-0.228	
18.500	-0.098	-0.242	
18.505	-0.339	-0.243	
18.510	-0.363	-0.252	
18.515	0.274	-0.246	
18.520	0.575	-0.162	
18.525	0.482	-0.004	
18.530	0.963	0.191	
18.535	0.841	0.401	
18.540	-0.198	0.543	
18.545	-0.354	0.517	
18.550	-0.255	0.355	
18.555	-0.517	0.147	
18.560	-0.561	-0.068	
18.565	-0.198	-0.246	
18.570	-0.227	-0.343	
18.575	-0.416	-0.377	
18.580	-0.119	-0.378	
18.585	0.070	-0.336	
18.590	-0.284	-0.265	
18.595	-0.169	-0.212	
18.600	0.261	-0.164	
18.605	-0.113	-0.099	
18.610	-0.194	-0.056	
18.615	0.335	-0.032	
18.620	0.224	0.018	
18.625	-0.139	0.069	
18.630	0.322	0.094	
18.635	0.569	0.138	
18.640	0.075	0.205	
18.645	0.331	0.249	
18.650	0.873	0.298	
18.655	0.445	0.384	
18.660	0.242	0.448	
18.665	0.803	0.477	
18.670	0.594	0.516	
18.675	0.056	0.534	
18.680	0.459	0.498	
18.685	0.558	0.460	
18.690	-0.076	0.425	
18.695	-0.014	0.347	
18.700	0.384	0.258	
18.705	-0.081	0.198	
18.710	-0.204	0.132	
18.715	0.268	0.066	
18.720	0.102	0.041	
18.725	-0.242	0.031	
18.730	0.055	0.006	
18.735	0.221	-0.004	
18.740	-0.221	0.005	
18.745	-0.133	-0.008	
18.750	0.276	-0.023	
18.755	-0.131	-0.012	
18.760	-0.253	-0.016	
18.765	0.148	-0.038	
18.770	-0.026	-0.040	
18.775	-0.316	-0.045	
18.780	-0.072	-0.072	
18.785	0.035	-0.092	
18.790	-0.345	-0.101	
18.795	-0.281	-0.129	
18.800	-0.015	-0.162	
18.805	-0.293	-0.176	
18.810	-0.392	-0.196	
18.815	-0.076	-0.223	
18.820	-0.166	-0.228	
18.825	-0.409	-0.226	
18.830	-0.175	-0.237	
18.835	-0.098	-0.238	
18.840	-0.430	-0.232	
18.845	-0.335	-0.245	
18.850	0.094	-0.253	
18.855	0.021	-0.216	
18.860	0.340	-0.136	
18.865	1.209	0.017	
18.870	0.944	0.259	
18.875	0.055	0.476	
18.880	-0.023	0.543	
18.885	-0.149	0.469	
18.890	-0.543	0.306	
18.895	-0.494	0.090	
18.900	-0.212	-0.114	
18.905	-0.375	-0.252	
18.910	-0.412	-0.337	
18.915	-0.029	-0.374	
18.920	-0.090	-0.348	
18.925	-0.326	-0.296	
18.930	-0.038	-0.252	
18.935	0.172	-0.194	
18.940	-0.239	-0.127	
18.945	-0.130	-0.091	
18.950	0.328	-0.064	
18.955	-0.060	-0.017	
18.960	-0.145	0.012	
18.965	0.436	0.028	
18.970	0.340	0.080	
18.975	-0.058	0.139	
18.980	0.466	0.175	
18.985	0.739	0.235	
18.990	0.204	0.320	
18.995	0.378	0.373	
19.000	0.857	0.414	
19.005	0.369	0.472	
19.010	0.108	0.491	
19.015	0.645	0.467	
19.020	0.404	0.452	
19.025	-0.110	0.423	
19.030	0.230	0.350	
19.035	0.349	0.282	
19.040	-0.183	0.231	
19.045	-0.120	0.156	
19.050	0.293	0.085	
19.055	-0.110	0.051	
19.060	-0.224	0.017	
19.065	0.229	-0.017	
19.070	0.072	-0.017	
19.075	-0.256	-0.009	
19.080	0.026	-0.022	
19.085	0.216	-0.024	
19.090	-0.229	-0.010	
19.095	-0.159	-0.020	
19.100	0.223	-0.036	
19.105	-0.149	-0.031	
19.110	-0.277	-0.039	
19.115	0.081	-0.065	
19.120	-0.072	-0.074	
19.125	-0.351	-0.084	
19.130	-0.134	-0.115	
19.135	-0.018	-0.139	
19.140	-0.357	-0.149	
19.145	-0.296	-0.174	
19.150	-0.009	-0.198	
19.155	-0.265	-0.201	
19.160	-0.375	-0.207	
19.165	-0.049	-0.221	
19.170	-0.143	-0.215	
19.175	-0.428	-0.208	
19.180	-0.220	-0.223	
19.185	-0.098	-0.233	
19.190	-0.352	-0.231	
19.195	-0.136	-0.230	
19.200	0.684	-0.185	
19.205	0.485	-0.049	
19.210	0.218	0.113	
19.215	0.541	0.239	
19.220	-0.035	0.316	
19.225	-0.480	0.295	
19.230	-0.349	0.168	
19.235	-0.273	0.007	
19.240	-0.528	-0.138	
19.245	-0.413	-0.265	
19.250	-0.090	-0.345	
19.255	-0.267	-0.360	
19.260	-0.335	-0.346	
19.265	0.072	-0.315	
19.270	-0.029	-0.251	
19.275	-0.296	-0.187	
19.280	-0.002	-0.150	
19.285	0.229	-0.107	
19.290	-0.200	-0.054	
19.295	-0.099	-0.031	
19.300	0.407	-0.013	
19.305	0.043	0.033	
19.310	-0.089	0.068	
19.315	0.494	0.089	
19.320	0.408	0.144	
19.325	-0.032	0.203	
19.330	0.465	0.232	
19.335	0.709	0.277	
19.340	0.088	0.340	
19.345	0.166	0.356	
19.350	0.613	0.346	
19.355	0.122	0.347	
19.360	-0.099	0.319	
19.365	0.384	0.260	
19.370	0.192	0.223	
19.375	-0.218	0.189	
19.380	0.047	0.128	
19.385	0.212	0.079	
19.390	-0.235	0.051	
19.395	-0.178	0.008	
19.400	0.216	-0.032	
19.405	-0.127	-0.040	
19.410	-0.253	-0.050	
19.415	0.195	-0.066	
19.420	0.065	-0.052	
19.425	-0.264	-0.033	
19.430	-0.002	-0.039	
19.435	0.183	-0.038	
19.440	-0.249	-0.026	
19.445	-0.182	-0.038	
19.450	0.192	-0.056	
19.455	-0.174	-0.053	
19.460	-0.308	-0.064	
19.465	0.043	-0.091	
19.470	-0.084	-0.102	
19.475	-0.364	-0.111	
19.480	-0.157	-0.140	
19.485	-0.023	-0.161	
19.490	-0.358	-0.167	
19.495	-0.297	-0.187	
19.500	0.011	-0.206	
19.505	-0.256	-0.202	
19.510	-0.386	-0.203	
19.515	-0.101	-0.219	
19.520	-0.177	-0.221	
19.525	-0.407	-0.221	
19.530	-0.117	-0.232	
19.535	0.297	-0.210	
19.540	0.079	-0.135	
19.545	0.358	-0.035	
19.550	0.742	0.091	
19.555	0.015	0.222	
19.560	-0.343	0.265	
19.565	-0.169	0.199	
19.570	-0.296	0.084	
19.575	-0.546	-0.048	
19.580	-0.288	-0.181	
19.585	-0.122	-0.271	
19.590	-0.389	-0.307	
19.595	-0.294	-0.324	
19.600	0.082	-0.313	
19.605	-0.177	-0.265	
19.610	-0.279	-0.217	
19.615	0.133	-0.182	
19.620	0.037	-0.129	
19.625	-0.261	-0.083	
19.630	0.023	-0.066	
19.635	0.264	-0.043	
19.640	-0.177	-0.007	
19.645	-0.082	0.005	
19.650	0.439	0.014	
19.655	0.085	0.056	
19.660	-0.063	0.092	
19.665	0.559	0.117	
19.670	0.468	0.178	
19.675	-0.012	0.243	
19.680	0.421	0.270	
19.685	0.627	0.301	
19.690	0.033	0.339	
19.695	0.075	0.331	
19.700	0.503	0.297	
19.705	0.029	0.277	
19.710	-0.178	0.234	
19.715	0.258	0.166	
19.720	0.119	0.123	
19.725	-0.253	0.090	
19.730	-0.009	0.039	
19.735	0.203	0.004	
19.740	-0.233	-0.007	
19.745	-0.175	-0.031	
19.750	0.242	-0.053	
19.755	-0.110	-0.045	
19.760	-0.229	-0.042	
19.765	0.233	-0.048	
19.770	0.128	-0.026	
19.775	-0.230	0.002	
19.780	0.047	0.002	
19.785	0.276	0.008	
19.790	-0.204	0.028	
19.795	-0.177	0.018	
19.800	0.203	-0.006	
19.805	-0.157	-0.014	
19.810	-0.300	-0.034	
19.815	0.062	-0.070	
19.820	-0.047	-0.085	
19.825	-0.335	-0.093	
19.830	-0.113	-0.119	
19.835	0.046	-0.133	
19.840	-0.323	-0.132	
19.845	-0.270	-0.147	
19.850	0.056	-0.164	
19.855	-0.238	-0.161	
19.860	-0.380	-0.166	
19.865	-0.056	-0.187	
19.870	-0.056	-0.188	
19.875	-0.218	-0.172	
19.880	0.433	-0.135	
19.885	0.855	-0.022	
19.890	0.207	0.145	
19.895	0.037	0.261	
19.900	0.161	0.291	
19.905	-0.300	0.254	
19.910	-0.485	0.147	
19.915	-0.209	-0.002	
19.920	-0.226	-0.126	
19.925	-0.427	-0.214	
19.930	-0.159	-0.275	
19.935	0.081	-0.285	
19.940	-0.264	-0.249	
19.945	-0.189	-0.215	
19.950	0.247	-0.177	
19.955	-0.090	-0.115	
19.960	-0.218	-0.071	
19.965	0.262	-0.048	
19.970	0.184	-0.005	
19.975	-0.186	0.037	
19.980	0.177	0.051	
19.985	0.459	0.077	
19.990	-0.046	0.124	
19.995	0.097	0.146	
20.000	0.687	0.168	
20.005	0.343	0.232	
20.010	0.123	0.289	
20.015	0.722	0.325	
20.020	0.628	0.384	
20.025	0.094	0.437	
20.030	0.457	0.442	
20.035	0.645	0.439	
20.040	0.003	0.437	
20.045	0.021	0.387	
20.050	0.463	0.314	
20.055	0.001	0.264	
20.060	-0.197	0.203	
20.065	0.245	0.129	
20.070	0.125	0.088	
20.075	-0.252	0.063	
20.080	-0.002	0.021	
20.085	0.244	-0.003	
20.090	-0.206	-0.002	
20.095	-0.156	-0.016	
20.100	0.282	-0.031	
20.105	-0.084	-0.017	
20.110	-0.229	-0.013	
20.115	0.186	-0.025	
20.120	0.062	-0.016	
20.125	-0.285	-0.008	
20.130	-0.063	-0.029	
20.135	0.139	-0.046	
20.140	-0.277	-0.049	
20.145	-0.249	-0.072	
20.150	0.075	-0.103	
20.155	-0.227	-0.114	
20.160	-0.375	-0.133	
20.165	-0.073	-0.166	
20.170	-0.133	-0.182	
20.175	-0.407	-0.191	
20.180	-0.200	-0.213	
20.185	-0.049	-0.224	
20.190	-0.357	-0.218	
20.195	-0.340	-0.226	
20.200	-0.092	-0.240	
20.205	-0.313	-0.241	
20.210	-0.407	-0.249	
20.215	0.113	-0.254	
20.220	0.419	-0.198	
20.225	0.212	-0.081	
20.230	0.627	0.060	
20.235	0.646	0.215	
20.240	-0.244	0.329	
20.245	-0.409	0.313	
20.250	-0.258	0.186	
20.255	-0.483	0.025	
20.260	-0.579	-0.142	
20.265	-0.229	-0.285	
20.270	-0.206	-0.359	
20.275	-0.422	-0.379	
20.280	-0.174	-0.375	
20.285	0.061	-0.337	
20.290	-0.276	-0.271	
20.295	-0.221	-0.221	
20.300	0.207	-0.180	
20.305	-0.108	-0.122	
20.310	-0.241	-0.083	
20.315	0.233	-0.065	
20.320	0.203	-0.024	
20.325	-0.174	0.022	
20.330	0.198	0.043	
20.335	0.530	0.080	
20.340	0.044	0.144	
20.345	0.180	0.185	
20.350	0.771	0.226	
20.355	0.424	0.303	
20.360	0.136	0.366	
20.365	0.686	0.393	
20.370	0.567	0.430	
20.375	-0.020	0.451	
20.380	0.311	0.417	
20.385	0.527	0.376	
20.390	-0.066	0.346	
20.395	-0.056	0.283	
20.400	0.402	0.210	
20.405	-0.026	0.169	
20.410	-0.218	0.124	
20.415	0.218	0.067	
20.420	0.161	0.045	
20.425	-0.227	0.040	
20.430	0.033	0.018	
20.435	0.297	0.010	
20.440	-0.182	0.025	
20.445	-0.153	0.018	
20.450	0.299	0.002	
20.455	-0.058	0.012	
20.460	-0.236	0.012	
20.465	0.163	-0.007	
20.470	0.076	-0.007	
20.475	-0.285	-0.005	
20.480	-0.078	-0.029	
20.485	0.139	-0.050	
20.490	-0.273	-0.054	
20.495	-0.267	-0.077	
20.500	0.062	-0.109	
20.505	-0.215	-0.121	
20.510	-0.372	-0.138	
20.515	-0.055	-0.168	
20.520	-0.084	-0.178	
20.525	-0.369	-0.177	
20.530	-0.172	-0.190	
20.535	-0.015	-0.195	
20.540	-0.374	-0.188	
20.545	-0.366	-0.202	
20.550	-0.037	-0.224	
20.555	-0.140	-0.220	
20.560	-0.081	-0.196	
20.565	0.931	-0.119	
20.570	1.066	0.072	
20.575	0.376	0.311	
20.580	0.303	0.470	
20.585	0.053	0.509	
20.590	-0.462	0.431	
20.595	-0.517	0.250	
20.600	-0.244	0.034	
20.605	-0.374	-0.142	
20.610	-0.459	-0.269	
20.615	-0.110	-0.347	
20.620	-0.090	-0.356	
20.625	-0.343	-0.324	
20.630	-0.104	-0.290	
20.635	0.189	-0.236	
20.640	-0.212	-0.163	
20.645	-0.166	-0.115	
20.650	0.320	-0.081	
20.655	-0.008	-0.028	
20.660	-0.171	0.010	
20.665	0.373	0.027	
20.670	0.386	0.076	
20.675	-0.055	0.135	
20.680	0.404	0.171	
20.685	0.796	0.229	
20.690	0.309	0.321	
20.695	0.387	0.390	
20.700	0.927	0.445	
20.705	0.527	0.518	
20.710	0.175	0.557	
20.715	0.686	0.546	
20.720	0.579	0.538	
20.725	-0.026	0.519	
20.730	0.258	0.449	
20.735	0.485	0.378	
20.740	-0.102	0.324	
20.745	-0.120	0.246	
20.750	0.322	0.161	
20.755	-0.044	0.111	
20.760	-0.227	0.067	
20.765	0.207	0.019	
20.770	0.158	0.008	
20.775	-0.242	0.014	
20.780	-0.026	-0.002	
20.785	0.261	-0.011	
20.790	-0.185	0.001	
20.795	-0.168	-0.006	
20.800	0.250	-0.021	
20.805	-0.099	-0.014	
20.810	-0.281	-0.018	
20.815	0.068	-0.044	
20.820	0.009	-0.055	
20.825	-0.325	-0.061	
20.830	-0.143	-0.089	
20.835	0.043	-0.113	
20.840	-0.325	-0.121	
20.845	-0.323	-0.146	
20.850	-0.017	-0.177	
20.855	-0.238	-0.187	
20.860	-0.404	-0.199	
20.865	-0.105	-0.221	
20.870	-0.124	-0.225	
20.875	-0.418	-0.221	
20.880	-0.268	-0.235	
20.885	-0.139	-0.249	
20.890	-0.409	-0.254	
20.895	-0.308	-0.268	
20.900	0.410	-0.254	
20.905	0.622	-0.147	
20.910	0.672	0.039	
20.915	1.206	0.270	
20.920	0.799	0.513	
20.925	-0.221	0.657	
20.930	-0.267	0.611	
20.935	-0.249	0.429	
20.940	-0.558	0.199	
20.945	-0.512	-0.037	
20.950	-0.174	-0.227	
20.955	-0.294	-0.332	
20.960	-0.403	-0.376	
20.965	-0.050	-0.382	
20.970	-0.018	-0.338	
20.975	-0.305	-0.272	
20.980	-0.081	-0.222	
20.985	0.236	-0.167	
20.990	-0.178	-0.100	
20.995	-0.146	-0.060	
21.000	0.383	-0.034	
21.005	0.090	0.018	
21.010	-0.130	0.060	
21.015	0.437	0.082	
21.020	0.498	0.135	
21.025	0.037	0.204	
21.030	0.476	0.249	
21.035	0.851	0.310	
21.040	0.320	0.398	
21.045	0.320	0.451	
21.050	0.831	0.477	
21.055	0.430	0.513	
21.060	0.026	0.515	
21.065	0.505	0.466	
21.070	0.404	0.423	
21.075	-0.146	0.377	
21.080	0.078	0.294	
21.085	0.332	0.214	
21.090	-0.166	0.162	
21.095	-0.177	0.099	
21.100	0.262	0.037	
21.105	-0.047	0.014	
21.110	-0.241	-0.003	
21.115	0.155	-0.029	
21.120	0.137	-0.026	
21.125	-0.246	-0.012	
21.130	-0.040	-0.020	
21.135	0.259	-0.024	
21.140	-0.185	-0.008	
21.145	-0.195	-0.013	
21.150	0.215	-0.029	
21.155	-0.099	-0.026	
21.160	-0.287	-0.032	
21.165	0.062	-0.057	
21.170	0.026	-0.065	
21.175	-0.325	-0.067	
21.180	-0.175	-0.092	
21.185	-0.005	-0.119	
21.190	-0.340	-0.135	
21.195	-0.343	-0.165	
21.200	-0.026	-0.198	
21.205	-0.221	-0.206	
21.210	-0.383	-0.211	
21.215	-0.075	-0.224	
21.220	-0.096	-0.218	
21.225	-0.406	-0.206	
21.230	-0.241	-0.215	
21.235	-0.038	-0.222	
21.240	-0.246	-0.211	
21.245	-0.038	-0.193	
21.250	0.887	-0.122	
21.255	0.695	0.047	
21.260	0.206	0.237	
21.265	0.390	0.355	
21.270	-0.037	0.391	
21.275	-0.491	0.329	
21.280	-0.395	0.173	
21.285	-0.229	-0.006	
21.290	-0.435	-0.152	
21.295	-0.383	-0.264	
21.300	-0.032	-0.327	
21.305	-0.168	-0.326	
21.310	-0.302	-0.297	
21.315	0.097	-0.258	
21.320	0.142	-0.190	
21.325	-0.236	-0.115	
21.330	-0.023	-0.073	
21.335	0.326	-0.037	
21.340	-0.113	0.011	
21.345	-0.095	0.033	
21.350	0.472	0.046	
21.355	0.200	0.092	
21.360	-0.064	0.135	
21.365	0.523	0.159	
21.370	0.573	0.213	
21.375	0.079	0.281	
21.380	0.433	0.316	
21.385	0.768	0.354	
21.390	0.239	0.409	
21.395	0.201	0.428	
21.400	0.710	0.420	
21.405	0.344	0.430	
21.410	-0.043	0.418	
21.415	0.415	0.366	
21.420	0.338	0.325	
21.425	-0.185	0.286	
21.430	0.000	0.213	
21.435	0.273	0.142	
21.440	-0.189	0.097	
21.445	-0.186	0.044	
21.450	0.287	-0.003	
21.455	-0.044	-0.010	
21.460	-0.247	-0.014	
21.465	0.149	-0.031	
21.470	0.174	-0.023	
21.475	-0.223	-0.003	
21.480	-0.014	-0.005	
21.485	0.303	-0.003	
21.490	-0.163	0.018	
21.495	-0.171	0.017	
21.500	0.279	0.002	
21.505	-0.069	0.009	
21.510	-0.305	0.004	
21.515	-0.006	-0.031	
21.520	-0.020	-0.058	
21.525	-0.346	-0.079	
21.530	-0.194	-0.116	
21.535	0.026	-0.146	
21.540	-0.303	-0.154	
21.545	-0.316	-0.171	
21.550	-0.015	-0.192	
21.555	-0.201	-0.192	
21.560	-0.374	-0.193	
21.565	-0.111	-0.207	
21.570	-0.116	-0.208	
21.575	-0.404	-0.205	
21.580	-0.207	-0.218	
21.585	0.207	-0.212	
21.590	0.044	-0.159	
21.595	0.332	-0.074	
21.600	0.892	0.055	
21.605	0.404	0.225	
21.610	-0.194	0.336	
21.615	-0.087	0.326	
21.620	-0.212	0.234	
21.625	-0.524	0.098	
21.630	-0.374	-0.063	
21.635	-0.124	-0.194	
21.640	-0.349	-0.268	
21.645	-0.337	-0.308	
21.650	0.046	-0.316	
21.655	-0.139	-0.280	
21.660	-0.322	-0.235	
21.665	0.041	-0.205	
21.670	0.125	-0.157	
21.675	-0.236	-0.102	
21.680	-0.040	-0.074	
21.685	0.317	-0.047	
21.690	-0.105	-0.002	
21.695	-0.104	0.021	
21.700	0.442	0.034	
21.705	0.190	0.079	
21.710	-0.070	0.121	
21.715	0.511	0.145	
21.720	0.569	0.201	
21.725	0.046	0.269	
21.730	0.392	0.301	
21.735	0.805	0.337	
21.740	0.186	0.393	
21.745	-0.026	0.402	
21.750	0.501	0.361	
21.755	0.229	0.330	
21.760	-0.226	0.287	
21.765	-0.008	0.203	
21.770	0.037	0.115	
21.775	-0.303	0.039	
21.780	-0.145	-0.038	
21.785	0.122	-0.091	
21.790	-0.250	-0.107	
21.795	-0.258	-0.125	
21.800	0.133	-0.139	
21.805	-0.101	-0.125	
21.810	-0.290	-0.112	
21.815	0.065	-0.113	
21.820	0.108	-0.095	
21.825	-0.265	-0.068	
21.830	-0.127	-0.067	
21.835	0.122	-0.073	
21.840	-0.232	-0.068	
21.845	-0.258	-0.080	
21.850	0.123	-0.100	
21.855	-0.136	-0.098	
21.860	-0.360	-0.103	
21.865	-0.124	-0.131	
21.870	-0.125	-0.155	
21.875	-0.453	-0.176	
21.880	-0.317	-0.216	
21.885	-0.128	-0.252	
21.890	-0.398	-0.268	
21.895	-0.407	-0.288	
21.900	-0.095	-0.305	
21.905	-0.253	-0.296	
21.910	-0.451	-0.286	
21.915	-0.227	-0.292	
21.920	-0.213	-0.292	
21.925	-0.451	-0.290	
21.930	-0.171	-0.294	
21.935	0.524	-0.255	
21.940	0.244	-0.137	
21.945	0.128	-0.001	
21.950	0.488	0.112	
21.955	-0.136	0.191	
21.960	-0.544	0.180	
21.965	-0.412	0.066	
21.970	-0.398	-0.084	
21.975	-0.627	-0.227	
21.980	-0.432	-0.351	
21.985	-0.201	-0.426	
21.990	-0.428	-0.442	
21.995	-0.436	-0.437	
22.000	-0.089	-0.418	
22.005	-0.232	-0.371	
22.010	-0.457	-0.326	
22.015	-0.217	-0.306	
22.020	-0.192	-0.290	
22.025	-0.505	-0.280	
22.030	-0.364	-0.295	
22.035	-0.041	-0.307	
22.040	-0.354	-0.293	
22.045	-0.438	-0.287	
22.050	-0.136	-0.294	
22.055	-0.293	-0.289	
22.060	-0.451	-0.288	
22.065	-0.104	-0.294	
22.070	-0.009	-0.273	
22.075	-0.323	-0.233	
22.080	-0.105	-0.206	
22.085	0.238	-0.168	
22.090	-0.212	-0.111	
22.095	-0.340	-0.087	
22.100	-0.015	-0.101	
22.105	-0.166	-0.114	
22.110	-0.427	-0.135	
22.115	-0.175	-0.176	
22.120	-0.127	-0.205	
22.125	-0.477	-0.223	
22.130	-0.425	-0.261	
22.135	-0.215	-0.302	
22.140	-0.499	-0.329	
22.145	-0.561	-0.364	
22.150	-0.358	-0.405	
22.155	-0.494	-0.432	
22.160	-0.624	-0.457	
22.165	-0.282	-0.478	
22.170	-0.229	-0.465	
22.175	-0.528	-0.432	
22.180	-0.329	-0.410	
22.185	-0.131	-0.384	
22.190	-0.474	-0.350	
22.195	-0.590	-0.346	
22.200	-0.326	-0.371	
22.205	-0.407	-0.391	
22.210	-0.776	-0.417	
22.215	-0.596	-0.471	
22.220	-0.602	-0.529	
22.225	-0.846	-0.582	
22.230	-0.662	-0.637	
22.235	-0.456	-0.668	
22.240	-0.662	-0.663	
22.245	-0.654	-0.650	
22.250	-0.256	-0.627	
22.255	-0.445	-0.574	
22.260	-0.654	-0.525	
22.265	-0.372	-0.502	
22.270	-0.227	-0.473	
22.275	-0.242	-0.421	
22.280	0.181	-0.342	
22.285	0.454	-0.214	
22.290	-0.154	-0.068	
22.295	-0.255	0.011	
22.300	-0.168	0.010	
22.305	-0.480	-0.042	
22.310	-0.698	-0.144	
22.315	-0.360	-0.271	
22.320	-0.197	-0.358	
22.325	-0.569	-0.395	
22.330	-0.380	-0.420	
22.335	-0.064	-0.419	
22.340	-0.281	-0.377	
22.345	-0.306	-0.330	
22.350	0.245	-0.276	
22.355	0.166	-0.182	
22.360	-0.288	-0.089	
22.365	-0.124	-0.052	
22.370	-0.023	-0.049	
22.375	-0.319	-0.062	
22.380	-0.136	-0.093	
22.385	0.270	-0.106	
22.390	-0.024	-0.075	
22.395	0.015	-0.036	
22.400	0.870	0.031	
22.405	0.540	0.164	
22.410	0.064	0.292	
22.415	0.495	0.355	
22.420	0.610	0.397	
22.425	0.415	0.443	
22.430	0.549	0.475	
22.435	0.657	0.504	
22.440	0.380	0.528	
22.445	0.369	0.525	
22.450	0.572	0.504	
22.455	0.018	0.472	
22.460	-0.224	0.387	
22.465	0.082	0.257	
22.470	0.041	0.145	
22.475	-0.282	0.058	
22.480	-0.023	-0.021	
22.485	0.657	-0.041	
22.490	0.550	0.042	
22.495	0.569	0.182	
22.500	0.954	0.340	
22.505	0.393	0.487	
22.510	0.030	0.551	
22.515	0.450	0.522	
22.520	0.450	0.476	
22.525	-0.005	0.427	
22.530	0.372	0.362	
22.535	0.878	0.337	
22.540	0.357	0.378	
22.545	0.194	0.410	
22.550	0.851	0.424	
22.555	0.905	0.482	
22.560	0.308	0.558	
22.565	0.442	0.583	
22.570	0.360	0.560	
22.575	-0.024	0.497	
22.580	0.303	0.403	
22.585	0.637	0.339	
22.590	-0.049	0.315	
22.595	-0.195	0.261	
22.600	0.178	0.174	
22.605	-0.044	0.105	
22.610	-0.210	0.046	
22.615	0.401	0.005	
22.620	0.872	0.052	
22.625	0.924	0.207	
22.630	1.508	0.440	
22.635	2.027	0.749	
22.640	1.136	1.071	
22.645	0.236	1.241	
22.650	0.024	1.171	
22.655	-0.351	0.918	
22.660	-0.683	0.561	
22.665	-0.483	0.180	
22.670	-0.364	-0.133	
22.675	-0.480	-0.341	
22.680	-0.185	-0.449	
22.685	0.495	-0.436	
22.690	0.340	-0.297	
22.695	0.418	-0.100	
22.700	1.174	0.124	
22.705	1.130	0.391	
22.710	0.834	0.647	
22.715	1.247	0.840	
22.720	1.328	0.995	
22.725	0.944	1.111	
22.730	1.189	1.166	
22.735	1.582	1.204	
22.740	1.218	1.258	
22.745	1.168	1.291	
22.750	1.752	1.314	
22.755	1.492	1.367	
22.760	1.046	1.408	
22.765	1.546	1.405	
22.770	1.488	1.403	
22.775	0.681	1.384	
22.780	0.785	1.286	
22.785	1.091	1.155	
22.790	0.572	1.041	
22.795	0.376	0.913	
22.800	0.794	0.780	
22.805	0.543	0.686	
22.810	0.169	0.607	
22.815	0.584	0.524	
22.820	0.630	0.478	
22.825	0.126	0.457	
22.830	0.287	0.417	
22.835	0.652	0.382	
22.840	0.247	0.380	
22.845	0.206	0.371	
22.850	0.768	0.364	
22.855	0.616	0.402	
22.860	0.283	0.452	
22.865	0.625	0.476	
22.870	0.596	0.499	
22.875	-0.021	0.501	
22.880	0.023	0.436	
22.885	0.209	0.334	
22.890	-0.207	0.233	
22.895	-0.323	0.116	
22.900	-0.111	-0.007	
22.905	-0.215	-0.102	
22.910	-0.320	-0.169	
22.915	0.091	-0.206	
22.920	0.378	-0.176	
22.925	0.023	-0.088	
22.930	0.425	0.011	
22.935	1.189	0.152	
22.940	1.137	0.376	
22.945	1.143	0.629	
22.950	1.677	0.872	
22.955	1.534	1.109	
22.960	1.244	1.298	
22.965	1.808	1.420	
22.970	2.178	1.542	
22.975	1.892	1.690	
22.980	1.968	1.816	
22.985	2.096	1.909	
22.990	1.279	1.945	
22.995	0.863	1.859	
23.000	1.146	1.665	
23.005	0.828	1.446	
23.010	0.451	1.221	
23.015	0.883	1.006	
23.020	0.991	0.863	
23.025	0.495	0.788	
23.030	0.619	0.726	
23.035	0.927	0.684	
23.040	0.485	0.674	
23.045	0.325	0.647	
23.050	0.777	0.602	
23.055	0.555	0.582	
23.060	0.169	0.559	
23.065	0.530	0.510	
23.070	0.639	0.478	
23.075	0.174	0.466	
23.080	0.311	0.434	
23.085	0.681	0.406	
23.090	0.340	0.410	
23.095	0.270	0.412	
23.100	0.782	0.413	
23.105	0.657	0.453	
23.110	0.302	0.499	
23.115	0.712	0.521	
23.120	0.852	0.554	
23.125	0.314	0.594	
23.130	0.357	0.589	
23.135	0.590	0.553	
23.140	0.088	0.507	
23.145	-0.093	0.423	
23.150	0.175	0.307	
23.155	-0.052	0.202	
23.160	-0.290	0.104	
23.165	-0.127	0.001	
23.170	-0.098	-0.079	
23.175	-0.357	-0.135	
23.180	-0.300	-0.189	
23.185	-0.136	-0.231	
23.190	-0.342	-0.251	
23.195	-0.409	-0.272	
23.200	-0.159	-0.292	
23.205	-0.246	-0.293	
23.210	-0.435	-0.290	
23.215	-0.246	-0.297	
23.220	-0.204	-0.298	
23.225	-0.450	-0.295	
23.230	-0.398	-0.308	
23.235	-0.249	-0.326	
23.240	-0.450	-0.337	
23.245	-0.538	-0.358	
23.250	-0.351	-0.389	
23.255	-0.438	-0.410	
23.260	-0.625	-0.430	
23.265	-0.447	-0.459	
23.270	-0.375	-0.476	
23.275	-0.566	-0.478	
23.280	-0.468	-0.481	
23.285	-0.270	-0.476	
23.290	-0.464	-0.454	
23.295	-0.569	-0.440	
23.300	-0.357	-0.443	
23.305	-0.403	-0.440	
23.310	-0.480	-0.433	
23.315	-0.165	-0.420	
23.320	0.148	-0.367	
23.325	-0.125	-0.273	
23.330	-0.104	-0.186	
23.335	-0.076	-0.127	
23.340	-0.453	-0.108	
23.345	-0.642	-0.153	
23.350	-0.499	-0.251	
23.355	-0.550	-0.353	
23.360	-0.672	-0.443	
23.365	-0.438	-0.513	
23.370	-0.296	-0.538	
23.375	-0.470	-0.520	
23.380	-0.352	-0.489	
23.385	-0.130	-0.443	
23.390	-0.284	-0.380	
23.395	-0.326	-0.326	
23.400	-0.023	-0.284	
23.405	-0.105	-0.233	
23.410	-0.317	-0.190	
23.415	-0.101	-0.173	
23.420	0.021	-0.155	
23.425	-0.236	-0.132	
23.430	-0.136	-0.123	
23.435	0.238	-0.108	
23.440	-0.015	-0.066	
23.445	-0.087	-0.028	
23.450	0.352	0.004	
23.455	0.261	0.059	
23.460	-0.075	0.112	
23.465	0.213	0.133	
23.470	0.323	0.149	
23.475	-0.124	0.164	
23.480	-0.087	0.140	
23.485	0.180	0.097	
23.490	-0.148	0.064	
23.495	-0.261	0.018	
23.500	-0.027	-0.040	
23.505	-0.133	-0.081	
23.510	-0.340	-0.116	
23.515	-0.163	-0.157	
23.520	-0.090	-0.183	
23.525	-0.332	-0.193	
23.530	-0.270	-0.210	
23.535	-0.044	-0.221	
23.540	-0.213	-0.213	
23.545	-0.288	-0.204	
23.550	-0.055	-0.201	
23.555	-0.137	-0.187	
23.560	-0.345	-0.177	
23.565	-0.166	-0.185	
23.570	-0.108	-0.191	
23.575	-0.375	-0.194	
23.580	-0.339	-0.215	
23.585	-0.174	-0.242	
23.590	-0.374	-0.259	
23.595	-0.476	-0.285	
23.600	-0.271	-0.318	
23.605	-0.337	-0.338	
23.610	-0.515	-0.353	
23.615	-0.340	-0.374	
23.620	-0.265	-0.383	
23.625	-0.492	-0.379	
23.630	-0.432	-0.385	
23.635	-0.259	-0.392	
23.640	-0.445	-0.387	
23.645	-0.534	-0.391	
23.650	-0.279	-0.403	
23.655	-0.258	-0.397	
23.660	-0.285	-0.371	
23.665	0.226	-0.317	
23.670	0.485	-0.202	
23.675	-0.064	-0.056	
23.680	-0.191	0.034	
23.685	-0.192	0.042	
23.690	-0.494	-0.011	
23.695	-0.628	-0.118	
23.700	-0.403	-0.249	
23.705	-0.404	-0.352	
23.710	-0.535	-0.418	
23.715	-0.320	-0.456	
23.720	-0.200	-0.454	
23.725	-0.392	-0.421	
23.730	-0.323	-0.387	
23.735	-0.104	-0.352	
23.740	-0.271	-0.306	
23.745	-0.334	-0.273	
23.750	-0.056	-0.252	
23.755	-0.107	-0.221	
23.760	-0.303	-0.191	
23.765	-0.099	-0.179	
23.770	0.082	-0.159	
23.775	-0.191	-0.126	
23.780	-0.076	-0.104	
23.785	0.358	-0.073	
23.790	0.091	-0.011	
23.795	-0.032	0.046	
23.800	0.422	0.085	
23.805	0.299	0.141	
23.810	-0.066	0.186	
23.815	0.236	0.192	
23.820	0.331	0.194	
23.825	-0.130	0.195	
23.830	-0.113	0.157	
23.835	0.165	0.101	
23.840	-0.137	0.058	
23.845	-0.250	0.010	
23.850	0.018	-0.044	
23.855	-0.095	-0.077	
23.860	-0.322	-0.102	
23.865	-0.148	-0.136	
23.870	-0.032	-0.158	
23.875	-0.276	-0.162	
23.880	-0.209	-0.170	
23.885	0.049	-0.173	
23.890	-0.162	-0.155	
23.895	-0.233	-0.141	
23.900	0.111	-0.132	
23.905	0.029	-0.102	
23.910	-0.226	-0.071	
23.915	-0.037	-0.064	
23.920	0.110	-0.058	
23.925	-0.212	-0.045	
23.930	-0.180	-0.053	
23.935	0.070	-0.071	
23.940	-0.182	-0.076	
23.945	-0.297	-0.092	
23.950	-0.053	-0.121	
23.955	-0.113	-0.137	
23.960	-0.331	-0.148	
23.965	-0.171	-0.169	
23.970	-0.076	-0.183	
23.975	-0.306	-0.185	
23.980	-0.261	-0.196	
23.985	-0.079	-0.207	
23.990	-0.293	-0.207	
23.995	-0.372	-0.217	
24.000	-0.060	-0.232	
24.005	0.117	-0.214	
24.010	0.174	-0.150	
24.015	0.848	-0.030	
24.020	1.032	0.169	
24.025	0.334	0.385	
24.030	-0.090	0.494	
24.035	-0.139	0.458	
24.040	-0.438	0.318	
24.045	-0.566	0.118	
24.050	-0.320	-0.090	
24.055	-0.299	-0.244	
24.060	-0.432	-0.338	
24.065	-0.217	-0.385	
24.070	-0.073	-0.380	
24.075	-0.284	-0.338	
24.080	-0.221	-0.294	
24.085	0.070	-0.249	
24.090	-0.148	-0.191	
24.095	-0.233	-0.149	
24.100	0.111	-0.124	
24.105	0.081	-0.085	
24.110	-0.166	-0.046	
24.115	0.130	-0.023	
24.120	0.358	0.013	
24.125	0.003	0.067	
24.130	0.148	0.105	
24.135	0.611	0.146	
24.140	0.352	0.219	
24.145	0.192	0.284	
24.150	0.634	0.327	
24.155	0.514	0.379	
24.160	0.070	0.414	
24.165	0.332	0.401	
24.170	0.451	0.375	
24.175	-0.043	0.348	
24.180	-0.040	0.285	
24.185	0.262	0.209	
24.190	-0.075	0.151	
24.195	-0.209	0.091	
24.200	0.088	0.025	
24.205	0.000	-0.013	
24.210	-0.249	-0.037	
24.215	-0.064	-0.067	
24.220	0.085	-0.084	
24.225	-0.220	-0.081	
24.230	-0.177	-0.090	
24.235	0.133	-0.098	
24.240	-0.113	-0.085	
24.245	-0.226	-0.077	
24.250	0.068	-0.082	
24.255	-0.021	-0.075	
24.260	-0.268	-0.068	
24.265	-0.102	-0.083	
24.270	0.027	-0.096	
24.275	-0.259	-0.098	
24.280	-0.235	-0.115	
24.285	-0.014	-0.136	
24.290	-0.230	-0.144	
24.295	-0.339	-0.159	
24.300	-0.113	-0.184	
24.305	-0.168	-0.196	
24.310	-0.369	-0.204	
24.315	-0.207	-0.221	
24.320	-0.099	-0.230	
24.325	-0.334	-0.226	
24.330	-0.328	-0.232	
24.335	-0.172	-0.247	
24.340	-0.349	-0.255	
24.345	-0.396	-0.271	
24.350	0.061	-0.278	
24.355	0.523	-0.219	
24.360	0.701	-0.066	
24.365	1.184	0.165	
24.370	1.174	0.444	
24.375	0.175	0.670	
24.380	-0.235	0.717	
24.385	-0.241	0.583	
24.390	-0.476	0.355	
24.395	-0.552	0.097	
24.400	-0.264	-0.133	
24.405	-0.226	-0.282	
24.410	-0.367	-0.353	
24.415	-0.168	-0.375	
24.420	0.008	-0.349	
24.425	-0.230	-0.289	
24.430	-0.166	-0.235	
24.435	0.197	-0.182	
24.440	-0.044	-0.114	
24.445	-0.145	-0.061	
24.450	0.265	-0.027	
24.455	0.227	0.023	
24.460	-0.102	0.072	
24.465	0.236	0.094	
24.470	0.511	0.129	
24.475	0.171	0.188	
24.480	0.320	0.236	
24.485	0.791	0.290	
24.490	0.543	0.376	
24.495	0.340	0.451	
24.500	0.745	0.496	
24.505	0.623	0.539	
24.510	0.134	0.559	
24.515	0.363	0.524	
24.520	0.477	0.471	
24.525	-0.031	0.418	
24.530	-0.055	0.331	
24.535	0.247	0.232	
24.540	-0.082	0.157	
24.545	-0.217	0.085	
24.550	0.093	0.014	
24.555	0.029	-0.023	
24.560	-0.236	-0.041	
24.565	-0.055	-0.066	
24.570	0.113	-0.076	
24.575	-0.209	-0.069	
24.580	-0.178	-0.075	
24.585	0.131	-0.084	
24.590	-0.114	-0.075	
24.595	-0.230	-0.071	
24.600	0.052	-0.081	
24.605	-0.041	-0.078	
24.610	-0.291	-0.077	
24.615	-0.128	-0.097	
24.620	-0.002	-0.115	
24.625	-0.284	-0.121	
24.630	-0.274	-0.141	
24.635	-0.061	-0.166	
24.640	-0.256	-0.178	
24.645	-0.390	-0.195	
24.650	-0.171	-0.223	
24.655	-0.207	-0.239	
24.660	-0.410	-0.249	
24.665	-0.242	-0.266	
24.670	-0.128	-0.273	
24.675	-0.363	-0.266	
24.680	-0.364	-0.269	
24.685	-0.175	-0.280	
24.690	-0.313	-0.281	
24.695	-0.340	-0.282	
24.700	0.207	-0.267	
24.705	0.663	-0.176	
24.710	0.547	-0.003	
24.715	0.825	0.202	
24.720	0.687	0.398	
24.725	-0.206	0.513	
24.730	-0.404	0.469	
24.735	-0.317	0.300	
24.740	-0.496	0.090	
24.745	-0.573	-0.116	
24.750	-0.294	-0.286	
24.755	-0.253	-0.382	
24.760	-0.403	-0.414	
24.765	-0.209	-0.412	
24.770	-0.037	-0.374	
24.775	-0.270	-0.312	
24.780	-0.223	-0.261	
24.785	0.096	-0.216	
24.790	-0.124	-0.161	
24.795	-0.233	-0.122	
24.800	0.139	-0.101	
24.805	0.143	-0.064	
24.810	-0.151	-0.021	
24.815	0.152	0.004	
24.820	0.425	0.042	
24.825	0.061	0.102	
24.830	0.161	0.145	
24.835	0.649	0.188	
24.840	0.376	0.258	
24.845	0.128	0.316	
24.850	0.524	0.340	
24.855	0.431	0.363	
24.860	-0.043	0.369	
24.865	0.184	0.329	
24.870	0.352	0.279	
24.875	-0.105	0.240	
24.880	-0.120	0.177	
24.885	0.178	0.106	
24.890	-0.125	0.056	
24.895	-0.276	0.006	
24.900	-0.005	-0.052	
24.905	-0.023	-0.085	
24.910	-0.282	-0.101	
24.915	-0.124	-0.123	
24.920	0.067	-0.132	
24.925	-0.227	-0.122	
24.930	-0.210	-0.123	
24.935	0.084	-0.126	
24.940	-0.131	-0.113	
24.945	-0.268	-0.106	
24.950	-0.012	-0.114	
24.955	-0.046	-0.113	
24.960	-0.308	-0.111	
24.965	-0.169	-0.127	
24.970	-0.029	-0.143	
24.975	-0.285	-0.148	
24.980	-0.291	-0.164	
24.985	-0.070	-0.185	
24.990	-0.239	-0.192	
24.995	-0.367	-0.203	
25.000	-0.153	-0.222	
25.005	-0.172	-0.230	
25.010	-0.387	-0.232	
25.015	-0.239	-0.245	
25.020	-0.096	-0.251	
25.025	-0.331	-0.242	
25.030	-0.332	-0.244	
25.035	-0.101	-0.250	
25.040	-0.217	-0.242	
25.045	-0.261	-0.230	
25.050	0.375	-0.198	
25.055	0.713	-0.091	
25.060	0.340	0.078	
25.065	0.431	0.230	
25.070	0.306	0.333	
25.075	-0.281	0.357	
25.080	-0.378	0.274	
25.085	-0.197	0.125	
25.090	-0.314	-0.021	
25.095	-0.404	-0.146	
25.100	-0.137	-0.238	
25.105	-0.102	-0.276	
25.110	-0.284	-0.272	
25.115	-0.073	-0.255	
25.120	0.209	-0.209	
25.125	-0.133	-0.138	
25.130	-0.110	-0.086	
25.135	0.322	-0.045	
25.140	0.114	0.013	
25.145	-0.101	0.060	
25.150	0.338	0.083	
25.155	0.344	0.122	
25.160	-0.027	0.165	
25.165	0.314	0.183	
25.170	0.617	0.215	
25.175	0.238	0.273	
25.180	0.268	0.314	
25.185	0.748	0.346	
25.190	0.514	0.404	
25.195	0.178	0.447	
25.200	0.573	0.453	
25.205	0.523	0.457	
25.210	0.058	0.452	
25.215	0.273	0.409	
25.220	0.462	0.361	
25.225	-0.009	0.325	
25.230	-0.075	0.265	
25.235	0.273	0.192	
25.240	-0.014	0.141	
25.245	-0.192	0.093	
25.250	0.177	0.042	
25.255	0.181	0.025	
25.260	-0.178	0.028	
25.265	-0.012	0.016	
25.270	0.233	0.009	
25.275	-0.125	0.019	
25.280	-0.124	0.014	
25.285	0.250	0.003	
25.290	-0.005	0.014	
25.295	-0.185	0.020	
25.300	0.148	0.008	
25.305	0.111	0.012	
25.310	-0.220	0.018	
25.315	-0.070	-0.001	
25.320	0.161	-0.019	
25.325	-0.191	-0.021	
25.330	-0.226	-0.039	
25.335	0.024	-0.069	
25.340	-0.149	-0.086	
25.345	-0.310	-0.106	
25.350	-0.084	-0.135	
25.355	-0.085	-0.151	
25.360	-0.323	-0.157	
25.365	-0.178	-0.173	
25.370	-0.018	-0.182	
25.375	-0.303	-0.176	
25.380	-0.325	-0.185	
25.385	-0.041	-0.201	
25.390	-0.104	-0.195	
25.395	-0.122	-0.173	
25.400	0.622	-0.118	
25.405	0.854	0.022	
25.410	0.380	0.212	
25.415	0.386	0.358	
25.420	0.276	0.430	
25.425	-0.265	0.417	
25.430	-0.377	0.304	
25.435	-0.175	0.138	
25.440	-0.274	-0.016	
25.445	-0.374	-0.139	
25.450	-0.098	-0.226	
25.455	-0.034	-0.254	
25.460	-0.262	-0.241	
25.465	-0.085	-0.220	
25.470	0.207	-0.179	
25.475	-0.110	-0.116	
25.480	-0.101	-0.069	
25.485	0.363	-0.031	
25.490	0.128	0.029	
25.495	-0.110	0.076	
25.500	0.311	0.095	
25.505	0.375	0.128	
25.510	-0.020	0.169	
25.515	0.276	0.186	
25.520	0.591	0.212	
25.525	0.219	0.263	
25.530	0.216	0.297	
25.535	0.684	0.321	
25.540	0.447	0.367	
25.545	0.143	0.401	
25.550	0.537	0.403	
25.555	0.518	0.409	
25.560	0.024	0.410	
25.565	0.219	0.372	
25.570	0.468	0.327	
25.575	-0.014	0.297	
25.580	-0.075	0.245	
25.585	0.315	0.181	
25.590	0.070	0.145	
25.595	-0.166	0.114	
25.600	0.139	0.072	
25.605	0.163	0.051	
25.610	-0.185	0.044	
25.615	-0.041	0.021	
25.620	0.245	0.005	
25.625	-0.107	0.012	
25.630	-0.108	0.010	
25.635	0.325	0.007	
25.640	0.091	0.033	
25.645	-0.151	0.057	
25.650	0.186	0.057	
25.655	0.184	0.065	
25.660	-0.182	0.074	
25.665	-0.056	0.054	
25.670	0.166	0.028	
25.675	-0.195	0.014	
25.680	-0.247	-0.017	
25.685	0.008	-0.061	
25.690	-0.166	-0.089	
25.695	-0.335	-0.118	
25.700	-0.110	-0.153	
25.705	-0.076	-0.172	
25.710	-0.322	-0.176	
25.715	-0.197	-0.188	
25.720	-0.017	-0.193	
25.725	-0.276	-0.183	
25.730	-0.306	-0.185	
25.735	0.003	-0.193	
25.740	-0.027	-0.176	
25.745	-0.006	-0.138	
25.750	0.729	-0.062	
25.755	0.767	0.089	
25.760	0.133	0.257	
25.765	-0.002	0.340	
25.770	-0.038	0.322	
25.775	-0.375	0.233	
25.780	-0.441	0.090	
25.785	-0.195	-0.064	
25.790	-0.261	-0.179	
25.795	-0.367	-0.252	
25.800	-0.081	-0.291	
25.805	0.024	-0.280	
25.810	-0.230	-0.235	
25.815	-0.072	-0.193	
25.820	0.247	-0.142	
25.825	-0.089	-0.076	
25.830	-0.113	-0.031	
25.835	0.314	-0.003	
25.840	0.128	0.040	
25.845	-0.120	0.075	
25.850	0.264	0.086	
25.855	0.346	0.110	
25.860	-0.041	0.143	
25.865	0.224	0.156	
25.870	0.594	0.180	
25.875	0.251	0.235	
25.880	0.221	0.280	
25.885	0.680	0.313	
25.890	0.457	0.366	
25.895	0.116	0.403	
25.900	0.479	0.401	
25.905	0.486	0.398	
25.910	-0.011	0.389	
25.915	0.143	0.341	
25.920	0.396	0.286	
25.925	-0.034	0.247	
25.930	-0.124	0.192	
25.935	0.204	0.126	
25.940	-0.017	0.083	
25.945	-0.210	0.044	
25.950	0.079	0.001	
25.955	0.125	-0.018	
25.960	-0.201	-0.017	
25.965	-0.076	-0.030	
25.970	0.219	-0.037	
25.975	-0.110	-0.022	
25.980	-0.143	-0.017	
25.985	0.245	-0.019	
25.990	0.027	0.001	
25.995	-0.201	0.016	
26.000	0.075	0.006	
26.005	0.119	0.003	
26.010	-0.217	0.005	
26.015	-0.114	-0.014	
26.020	0.097	-0.037	
26.025	-0.220	-0.048	
26.030	-0.281	-0.073	
26.035	-0.038	-0.110	
26.040	-0.174	-0.132	
26.045	-0.351	-0.153	
26.050	-0.148	-0.182	
26.055	-0.110	-0.197	
26.060	-0.345	-0.202	
26.065	-0.238	-0.214	
26.070	-0.087	-0.223	
26.075	-0.334	-0.220	
26.080	-0.375	-0.231	
26.085	-0.076	-0.247	
26.090	-0.032	-0.235	
26.095	0.037	-0.190	
26.100	0.820	-0.094	
26.105	0.963	0.093	
26.110	0.315	0.309	
26.115	0.027	0.433	
26.120	-0.089	0.427	
26.125	-0.439	0.318	
26.130	-0.526	0.137	
26.135	-0.279	-0.059	
26.140	-0.316	-0.209	
26.145	-0.418	-0.306	
26.150	-0.157	-0.357	
26.155	-0.050	-0.353	
26.160	-0.281	-0.310	
26.165	-0.163	-0.268	
26.170	0.091	-0.221	
26.175	-0.175	-0.165	
26.180	-0.204	-0.128	
26.185	0.168	-0.106	
26.190	0.009	-0.069	
26.195	-0.206	-0.039	
26.200	0.107	-0.030	
26.205	0.241	-0.009	
26.210	-0.107	0.025	
26.215	0.108	0.043	
26.220	0.494	0.072	
26.225	0.158	0.131	
26.230	0.111	0.178	
26.235	0.598	0.214	
26.240	0.407	0.271	
26.245	0.052	0.316	
26.250	0.419	0.323	
26.255	0.444	0.329	
26.260	-0.063	0.328	
26.265	0.038	0.284	
26.270	0.297	0.224	
26.275	-0.111	0.177	
26.280	-0.198	0.116	
26.285	0.119	0.046	
26.290	-0.061	0.003	
26.295	-0.265	-0.032	
26.300	-0.041	-0.072	
26.305	0.014	-0.094	
26.310	-0.274	-0.101	
26.315	-0.180	-0.118	
26.320	0.050	-0.132	
26.325	-0.212	-0.128	
26.330	-0.262	-0.132	
26.335	0.038	-0.141	
26.340	-0.105	-0.134	
26.345	-0.303	-0.127	
26.350	-0.098	-0.138	
26.355	-0.072	-0.144	
26.360	-0.357	-0.148	
26.365	-0.279	-0.172	
26.370	-0.111	-0.199	
26.375	-0.351	-0.215	
26.380	-0.424	-0.240	
26.385	-0.188	-0.272	
26.390	-0.293	-0.288	
26.395	-0.467	-0.300	
26.400	-0.247	-0.318	
26.405	-0.183	-0.321	
26.410	-0.419	-0.311	
26.415	-0.325	-0.311	
26.420	-0.166	-0.310	
26.425	-0.404	-0.302	
26.430	-0.451	-0.308	
26.435	-0.108	-0.319	
26.440	0.049	-0.294	
26.445	0.245	-0.217	
26.450	1.066	-0.065	
26.455	1.162	0.185	
26.460	0.314	0.445	
26.465	-0.098	0.568	
26.470	-0.178	0.522	
26.475	-0.520	0.357	
26.480	-0.604	0.127	
26.485	-0.316	-0.105	
26.490	-0.340	-0.272	
26.495	-0.462	-0.371	
26.500	-0.195	-0.419	
26.505	-0.079	-0.408	
26.510	-0.313	-0.358	
26.515	-0.188	-0.309	
26.520	0.128	-0.253	
26.525	-0.168	-0.184	
26.530	-0.212	-0.135	
26.535	0.206	-0.104	
26.540	0.072	-0.057	
26.545	-0.174	-0.015	
26.550	0.207	0.005	
26.555	0.384	0.043	
26.560	-0.009	0.098	
26.565	0.265	0.136	
26.570	0.730	0.188	
26.575	0.380	0.275	
26.580	0.285	0.350	
26.585	0.774	0.401	
26.590	0.555	0.463	
26.595	0.108	0.499	
26.600	0.450	0.482	
26.605	0.489	0.453	
26.610	-0.066	0.418	
26.615	0.017	0.341	
26.620	0.306	0.253	
26.625	-0.113	0.187	
26.630	-0.215	0.114	
26.635	0.123	0.037	
26.640	-0.046	-0.008	
26.645	-0.271	-0.040	
26.650	-0.031	-0.076	
26.655	0.078	-0.092	
26.660	-0.256	-0.089	
26.665	-0.160	-0.098	
26.670	0.149	-0.105	
26.675	-0.165	-0.090	
26.680	-0.224	-0.084	
26.685	0.158	-0.087	
26.690	-0.023	-0.069	
26.695	-0.271	-0.055	
26.700	-0.037	-0.066	
26.705	0.061	-0.072	
26.710	-0.276	-0.070	
26.715	-0.194	-0.088	
26.720	0.058	-0.109	
26.725	-0.246	-0.114	
26.730	-0.331	-0.130	
26.735	-0.061	-0.159	
26.740	-0.172	-0.173	
26.745	-0.375	-0.184	
26.750	-0.149	-0.205	
26.755	-0.052	-0.211	
26.760	-0.322	-0.201	
26.765	-0.244	-0.203	
26.770	-0.052	-0.206	
26.775	-0.316	-0.200	
26.780	-0.387	-0.210	
26.785	-0.049	-0.228	
26.790	0.058	-0.215	
26.795	0.110	-0.161	
26.800	0.931	-0.048	
26.805	1.152	0.160	
26.810	0.453	0.403	
26.815	0.093	0.547	
26.820	0.004	0.547	
26.825	-0.383	0.433	
26.830	-0.514	0.238	
26.835	-0.250	0.022	
26.840	-0.261	-0.147	
26.845	-0.389	-0.257	
26.850	-0.107	-0.316	
26.855	0.078	-0.311	
26.860	-0.227	-0.260	
26.865	-0.101	-0.208	
26.870	0.323	-0.150	
26.875	-0.027	-0.069	
26.880	-0.119	-0.010	
26.885	0.369	0.026	
26.890	0.261	0.079	
26.895	-0.078	0.128	
26.900	0.363	0.150	
26.905	0.561	0.189	
26.910	0.119	0.247	
26.915	0.322	0.282	
26.920	0.782	0.318	
26.925	0.463	0.386	
26.930	0.344	0.442	
26.935	0.828	0.480	
26.940	0.658	0.533	
26.945	0.192	0.568	
26.950	0.537	0.553	
26.955	0.631	0.532	
26.960	0.070	0.509	
26.965	0.149	0.446	
26.970	0.506	0.374	
26.975	0.067	0.326	
26.980	-0.107	0.266	
26.985	0.322	0.196	
26.990	0.166	0.158	
26.995	-0.162	0.133	
27.000	0.142	0.095	
27.005	0.293	0.078	
27.010	-0.149	0.082	
27.015	-0.067	0.065	
27.020	0.299	0.046	
27.025	-0.031	0.051	
27.030	-0.128	0.049	
27.035	0.323	0.041	
27.040	0.181	0.061	
27.045	-0.162	0.084	
27.050	0.120	0.079	
27.055	0.270	0.078	
27.060	-0.159	0.086	
27.065	-0.104	0.067	
27.070	0.244	0.040	
27.075	-0.104	0.032	
27.080	-0.201	0.015	
27.085	0.133	-0.014	
27.090	-0.038	-0.024	
27.095	-0.290	-0.036	
27.100	-0.073	-0.066	
27.105	0.068	-0.086	
27.110	-0.261	-0.089	
27.115	-0.212	-0.105	
27.120	0.000	-0.125	
27.125	-0.258	-0.133	
27.130	-0.346	-0.153	
27.135	-0.018	-0.179	
27.140	0.059	-0.173	
27.145	-0.031	-0.136	
27.150	0.649	-0.062	
27.155	0.867	0.084	
27.160	0.209	0.260	
27.165	-0.055	0.355	
27.170	-0.027	0.340	
27.175	-0.357	0.248	
27.180	-0.492	0.100	
27.185	-0.227	-0.063	
27.190	-0.247	-0.187	
27.195	-0.406	-0.266	
27.200	-0.157	-0.311	
27.205	0.027	-0.308	
27.210	-0.242	-0.266	
27.215	-0.153	-0.224	
27.220	0.218	-0.177	
27.225	-0.075	-0.112	
27.230	-0.174	-0.064	
27.235	0.250	-0.037	
27.240	0.160	0.006	
27.245	-0.140	0.046	
27.250	0.218	0.061	
27.255	0.445	0.092	
27.260	0.001	0.141	
27.265	0.160	0.167	
27.270	0.637	0.194	
27.275	0.352	0.253	
27.280	0.184	0.306	
27.285	0.646	0.339	
27.290	0.501	0.384	
27.295	0.029	0.412	
27.300	0.343	0.392	
27.305	0.471	0.364	
27.310	-0.049	0.340	
27.315	-0.023	0.282	
27.320	0.320	0.212	
27.325	-0.061	0.164	
27.330	-0.207	0.109	
27.335	0.105	0.045	
27.340	-0.005	0.006	
27.345	-0.262	-0.023	
27.350	-0.055	-0.060	
27.355	0.107	-0.079	
27.360	-0.233	-0.077	
27.365	-0.177	-0.087	
27.370	0.136	-0.097	
27.375	-0.136	-0.085	
27.380	-0.236	-0.081	
27.385	0.102	-0.088	
27.390	0.011	-0.076	
27.395	-0.258	-0.062	
27.400	-0.064	-0.070	
27.405	0.090	-0.075	
27.410	-0.241	-0.069	
27.415	-0.201	-0.081	
27.420	0.073	-0.098	
27.425	-0.186	-0.100	
27.430	-0.308	-0.110	
27.435	-0.043	-0.134	
27.440	-0.107	-0.144	
27.445	-0.337	-0.150	
27.450	-0.160	-0.168	
27.455	-0.027	-0.178	
27.460	-0.300	-0.174	
27.465	-0.256	-0.180	
27.470	-0.018	-0.189	
27.475	-0.252	-0.183	
27.480	-0.357	-0.187	
27.485	-0.038	-0.201	
27.490	0.033	-0.189	
27.495	-0.073	-0.150	
27.500	0.617	-0.080	
27.505	0.893	0.064	
27.510	0.256	0.246	
27.515	-0.024	0.353	
27.520	-0.014	0.350	
27.525	-0.351	0.265	
27.530	-0.508	0.118	
27.535	-0.261	-0.051	
27.540	-0.253	-0.184	
27.545	-0.421	-0.270	
27.550	-0.200	-0.322	
27.555	-0.021	-0.328	
27.560	-0.268	-0.293	
27.565	-0.209	-0.258	
27.570	0.126	-0.218	
27.575	-0.124	-0.162	
27.580	-0.227	-0.121	
27.585	0.140	-0.098	
27.590	0.097	-0.062	
27.595	-0.194	-0.026	
27.600	0.082	-0.014	
27.605	0.325	0.009	
27.610	-0.066	0.049	
27.615	0.050	0.071	
27.620	0.534	0.095	
27.625	0.264	0.153	
27.630	0.073	0.205	
27.635	0.547	0.238	
27.640	0.453	0.284	
27.645	-0.014	0.321	
27.650	0.270	0.312	
27.655	0.422	0.294	
27.660	-0.079	0.278	
27.665	-0.073	0.228	
27.670	0.270	0.163	
27.675	-0.085	0.119	
27.680	-0.246	0.068	
27.685	0.035	0.006	
27.690	-0.044	-0.036	
27.695	-0.305	-0.067	
27.700	-0.139	-0.106	
27.705	0.008	-0.132	
27.710	-0.285	-0.140	
27.715	-0.264	-0.156	
27.720	-0.006	-0.173	
27.725	-0.206	-0.171	
27.730	-0.316	-0.173	
27.735	-0.023	-0.181	
27.740	-0.063	-0.172	
27.745	-0.311	-0.156	
27.750	-0.140	-0.158	
27.755	0.000	-0.157	
27.760	-0.293	-0.148	
27.765	-0.273	-0.155	
27.770	-0.023	-0.170	
27.775	-0.238	-0.172	
27.780	-0.366	-0.181	
27.785	-0.120	-0.202	
27.790	-0.169	-0.211	
27.795	-0.399	-0.216	
27.800	-0.221	-0.234	
27.805	-0.078	-0.242	
27.810	-0.332	-0.234	
27.815	-0.303	-0.235	
27.820	-0.058	-0.238	
27.825	-0.270	-0.228	
27.830	-0.404	-0.227	
27.835	-0.131	-0.240	
27.840	-0.078	-0.237	
27.845	-0.182	-0.213	
27.850	0.466	-0.161	
27.855	0.928	-0.028	
27.860	0.390	0.168	
27.865	0.145	0.318	
27.870	0.120	0.371	
27.875	-0.328	0.331	
27.880	-0.531	0.201	
27.885	-0.303	0.022	
27.890	-0.284	-0.136	
27.895	-0.457	-0.250	
27.900	-0.249	-0.326	
27.905	-0.063	-0.351	
27.910	-0.291	-0.329	
27.915	-0.238	-0.298	
27.920	0.119	-0.258	
27.925	-0.120	-0.196	
27.930	-0.246	-0.146	
27.935	0.136	-0.117	
27.940	0.137	-0.073	
27.945	-0.178	-0.028	
27.950	0.113	-0.005	
27.955	0.405	0.028	
27.960	-0.003	0.081	
27.965	0.117	0.117	
27.970	0.649	0.153	
27.975	0.416	0.227	
27.980	0.229	0.301	
27.985	0.747	0.356	
27.990	0.674	0.428	
27.995	0.157	0.488	
28.000	0.427	0.493	
28.005	0.605	0.479	
28.010	0.053	0.462	
28.015	0.024	0.402	
28.020	0.395	0.321	
28.025	0.014	0.260	
28.030	-0.194	0.193	
28.035	0.145	0.114	
28.040	0.073	0.061	
28.045	-0.244	0.027	
28.050	-0.056	-0.017	
28.055	0.169	-0.044	
28.060	-0.195	-0.045	
28.065	-0.171	-0.056	
28.070	0.223	-0.065	
28.075	-0.066	-0.048	
28.080	-0.221	-0.037	
28.085	0.149	-0.041	
28.090	0.110	-0.027	
28.095	-0.232	-0.009	
28.100	-0.055	-0.017	
28.105	0.151	-0.027	
28.110	-0.232	-0.026	
28.115	-0.227	-0.046	
28.120	0.087	-0.075	
28.125	-0.169	-0.085	
28.130	-0.328	-0.102	
28.135	-0.076	-0.132	
28.140	-0.113	-0.151	
28.145	-0.372	-0.163	
28.150	-0.212	-0.188	
28.155	-0.050	-0.205	
28.160	-0.325	-0.205	
28.165	-0.311	-0.213	
28.170	-0.043	-0.224	
28.175	-0.259	-0.218	
28.180	-0.432	-0.221	
28.185	-0.182	-0.242	
28.190	-0.139	-0.250	
28.195	-0.235	-0.240	
28.200	0.454	-0.198	
28.205	1.235	-0.053	
28.210	0.866	0.203	
28.215	0.680	0.460	
28.220	0.598	0.631	
28.225	-0.188	0.677	
28.230	-0.511	0.561	
28.235	-0.337	0.330	
28.240	-0.325	0.085	
28.245	-0.502	-0.120	
28.250	-0.290	-0.273	
28.255	-0.090	-0.352	
28.260	-0.311	-0.362	
28.265	-0.265	-0.345	
28.270	0.082	-0.308	
28.275	-0.117	-0.243	
28.280	-0.244	-0.185	
28.285	0.131	-0.144	
28.290	0.146	-0.089	
28.295	-0.191	-0.036	
28.300	0.059	-0.011	
28.305	0.373	0.018	
28.310	-0.023	0.064	
28.315	0.068	0.094	
28.320	0.642	0.126	
28.325	0.437	0.201	
28.330	0.232	0.281	
28.335	0.770	0.346	
28.340	0.764	0.431	
28.345	0.265	0.511	
28.350	0.532	0.541	
28.355	0.733	0.551	
28.360	0.183	0.555	
28.365	0.119	0.510	
