Time	Potential	EKG	Unnamed: 3
0.0	-0.061	-0.002515058956210636	
0.005	-0.024	-0.009457007831628858	
0.01	-0.134	-0.024877561228012626	
0.015	-0.142	-0.04602072604794825	
0.02	-0.072	-0.07006271633773525	
0.025	-0.140	-0.09057533630159088	
0.03	-0.188	-0.10761070046760422	
0.035	-0.107	-0.12400153092877948	
0.04	-0.116	-0.13399461101923624	
0.045	-0.197	-0.14003760228096368	
0.05	-0.148	-0.14533891132154253	
0.055	-0.095	-0.14834311261615968	
0.06	-0.169	-0.1481010143848709	
0.065	-0.148	-0.14497177088421098	
0.07	-0.050	-0.1408754965255749	
0.075	-0.107	-0.13074243882762782	
0.08	-0.140	-0.11968090691901286	
0.085	-0.047	-0.11080244064792419	
0.09	-0.043	-0.10006672707147864	
0.095	-0.130	-0.0891843230831173	
0.1	-0.067	-0.08217821668164979	
0.105	-0.002	-0.0763184867118781	
0.11	-0.099	-0.06927414846099161	
0.115	-0.089	-0.06388028667645423	
0.12	0.017	-0.06178252093000271	
0.125	-0.056	-0.05590102282723638	
0.13	-0.105	-0.051657492871907615	
0.135	-0.003	-0.05066840119286879	
0.14	-0.005	-0.04819014977466129	
0.145	-0.104	-0.044221857458339314	
0.15	-0.060	-0.044024534974597324	
0.155	-0.008	-0.04740138571131418	
0.16	-0.110	-0.05037338803248397	
0.165	-0.114	-0.056718222813399485	
0.17	-0.029	-0.06580129168498364	
0.175	-0.093	-0.07306082067780706	
0.18	-0.154	-0.07851626440046955	
0.185	-0.082	-0.0875967011246983	
0.19	-0.098	-0.09739840114728102	
0.195	-0.180	-0.10515418491936915	
0.2	-0.137	-0.11484125794398488	
0.205	-0.084	-0.12459576342708778	
0.21	-0.160	-0.12943187901302866	
0.215	-0.157	-0.13145865417147054	
0.22	-0.070	-0.13290588015406618	
0.225	-0.122	-0.13126924572365106	
0.23	-0.166	-0.12626455352017385	
0.235	-0.079	-0.12453698423697074	
0.24	-0.078	-0.1217055317989633	
0.245	-0.165	-0.11601474890295492	
0.25	-0.139	-0.11460647345988603	
0.255	-0.110	-0.11990858887704824	
0.26	-0.162	-0.1254902528269828	
0.265	-0.047	-0.12508469539870354	
0.27	0.300	-0.10005229230655907	
0.275	0.514	-0.02249458188942051	
0.28	0.779	0.11914022539501948	
0.285	1.155	0.3165334879447501	
0.29	1.122	0.5468761492471054	
0.295	0.707	0.7491501225540246	
0.3	0.256	0.8415603566214966	
0.305	-0.085	0.7815560881813157	
0.31	-0.322	0.5964732621527603	
0.315	-0.392	0.3464039400587425	
0.32	-0.337	0.09163308608148198	
0.325	-0.340	-0.11782432722416794	
0.33	-0.337	-0.2583086452841547	
0.335	-0.223	-0.3364529968078749	
0.34	-0.186	-0.36169357615052544	
0.345	-0.233	-0.34241173298207594	
0.35	-0.169	-0.3059033820637005	
0.355	-0.102	-0.26698407823849696	
0.36	-0.165	-0.22254795525500154	
0.365	-0.146	-0.1819128864166572	
0.37	-0.046	-0.15578925890000414	
0.375	-0.090	-0.13036757828719442	
0.38	-0.131	-0.10562373703144258	
0.385	-0.032	-0.09342368799272327	
0.39	-0.011	-0.08353862630375085	
0.395	-0.101	-0.06595974573376268	
0.4	-0.024	-0.05532147113233061	
0.405	0.076	-0.04785436799424437	
0.41	-0.014	-0.02860064832555968	
0.415	0.020	-0.005932024474993299	
0.42	0.194	0.01064643069211973	
0.425	0.155	0.04196800403074141	
0.43	0.108	0.0844324762584188	
0.435	0.261	0.11560988842963292	
0.44	0.270	0.14630554975474813	
0.445	0.142	0.18475273878963483	
0.45	0.206	0.20444352198341909	
0.455	0.262	0.20686082573522685	
0.46	0.107	0.21339331564619848	
0.465	0.076	0.2074329422946441	
0.47	0.163	0.17774031012680092	
0.475	0.044	0.15106685703388326	
0.48	-0.064	0.1269745113225494	
0.485	0.009	0.08256798424517611	
0.49	-0.027	0.03667699401990594	
0.495	-0.134	0.008859944225274453	
0.5	-0.102	-0.025504677115383886	
0.0	-0.430	-0.024935817830042204	
0.005	-0.262	-0.07957470032876043	
0.01	0.248	-0.11777139025081959	
0.015	0.009	-0.11532432550449874	
0.02	-0.040	-0.08095301034845936	
0.025	0.645	-0.012328536505906148	
0.03	0.640	0.10357788485540771	
0.035	0.305	0.23713162647883435	
0.04	0.828	0.36775266151911623	
0.045	1.084	0.503352472108362	
0.05	0.581	0.6297369628231922	
0.055	0.726	0.7224114522830976	
0.06	1.175	0.7884111836642598	
0.065	0.762	0.838910918632233	
0.07	0.526	0.8603060128955102	
0.075	1.000	0.85372363599206	
0.08	0.802	0.8375656808532599	
0.085	0.300	0.8011098850534515	
0.09	0.660	0.7453378092069229	
0.095	0.799	0.6899514832999447	
0.1	0.265	0.6378649955021105	
0.105	0.383	0.5844130258273151	
0.11	0.819	0.5422744340609591	
0.115	0.431	0.5194603057327001	
0.12	0.242	0.5038189216493308	
0.125	0.787	0.4954713318621	
0.13	0.692	0.5046276909581638	
0.135	0.251	0.5204198632372522	
0.14	0.639	0.5327014592335015	
0.145	0.838	0.5463800695198936	
0.15	0.261	0.5572715313367778	
0.155	0.337	0.5493379681044692	
0.16	0.761	0.5298243024002418	
0.165	0.355	0.5081807404253219	
0.17	0.171	0.4824648636330396	
0.175	0.753	0.4619247779992062	
0.18	0.646	0.4616937293297689	
0.185	0.158	0.47098164345144206	
0.19	0.556	0.474886010712599	
0.195	0.793	0.4816613054780945	
0.2	0.283	0.4929682299354735	
0.205	0.413	0.5012846265353816	
0.21	0.857	0.5111319649163241	
0.215	0.517	0.5270708267081697	
0.22	0.405	0.5462735510099498	
0.225	1.133	0.5831310484246305	
0.23	1.316	0.6657797239835805	
0.235	1.143	0.8018364106818865	
0.24	1.593	0.9779537784501273	
0.245	1.654	1.1567438256511158	
0.25	0.739	1.2767803203745993	
0.255	0.410	1.2751393881519826	
0.26	0.596	1.1461651137816098	
0.265	0.073	0.9320637139464752	
0.27	-0.124	0.6862288090985961	
0.275	0.442	0.4661563501960828	
0.28	0.402	0.3128328147445786	
0.285	-0.023	0.22883806264157436	
0.29	0.404	0.1969027385311022	
0.295	0.668	0.20979310842140406	
0.3	0.157	0.24896493920250762	
0.305	0.259	0.29218899922708175	
0.31	0.718	0.3311079876140782	
0.315	0.340	0.366186128683498	
0.32	0.110	0.3882681948284088	
0.325	0.622	0.39691565807120616	
0.33	0.517	0.4018137819974736	
0.335	0.068	0.4030137275113182	
0.34	0.483	0.39771736687812004	
0.345	0.687	0.39864212160262225	
0.35	0.187	0.40524058195745816	
0.355	0.283	0.4071739581677719	
0.36	0.742	0.40980938337596784	
0.365	0.401	0.4194132810019793	
0.37	0.175	0.4284802339205721	
0.375	0.645	0.43254023859357377	
0.38	0.480	0.43281950484186826	
0.385	-0.017	0.41941003751538475	
0.39	0.270	0.3844312232071356	
0.395	0.421	0.33736243975902	
0.4	-0.096	0.28471011078483477	
0.405	-0.096	0.22317267678826255	
0.41	0.226	0.15629899825417007	
0.415	-0.108	0.09072482277709049	
0.42	-0.246	0.032833879552696135	
0.425	0.067	-0.0129793103275796	
0.43	-0.040	-0.05020128789344391	
0.435	-0.293	-0.08001323748833471	
0.44	-0.124	-0.09985852970342052	
0.445	0.014	-0.1180111553477772	
0.45	-0.267	-0.13476473214285728	
0.455	-0.229	-0.14276030435841774	
0.46	0.017	-0.14623172270114881	
0.465	-0.198	-0.15302200157719098	
0.47	-0.314	-0.15782791272206562	
0.475	-0.061	-0.15943601310318195	
0.48	-0.113	-0.16626139838965331	
0.485	-0.351	-0.1745671347008897	
0.49	-0.195	-0.17907774690361367	
0.495	-0.090	-0.1893000692339138	
0.5	-0.348	-0.20440367275708313	
0.505	-0.331	-0.216719164273063	
0.51	-0.119	-0.2275873044782453	
0.515	-0.308	-0.24585385496763745	
0.52	-0.464	-0.26261224798383137	
0.525	-0.241	-0.27771121467546434	
0.53	-0.267	-0.29929195325626046	
0.535	-0.473	-0.3193095801134548	
0.54	-0.302	-0.32618482397759785	
0.545	-0.165	-0.3284365556783392	
0.55	-0.345	-0.3262288416070823	
0.555	-0.201	-0.30469036657846293	
0.56	0.395	-0.24768806325172837	
0.565	0.151	-0.1527492211596994	
0.57	-0.128	-0.0495822272971271	
0.575	0.000	0.01711858402733103	
0.58	-0.236	0.02069373130489206	
0.585	-0.547	-0.03423707520311181	
0.59	-0.439	-0.12428223697582268	
0.595	-0.355	-0.22947512346037544	
0.6	-0.561	-0.3291100668248801	
0.605	-0.497	-0.39970517668171274	
0.61	-0.238	-0.43678925520989526	
0.615	-0.354	-0.44870398721543736	
0.62	-0.432	-0.4335060683067674	
0.625	-0.151	-0.39786251040341414	
0.63	-0.151	-0.3562664794750605	
0.635	-0.351	-0.31321879545624776	
0.64	-0.156	-0.2682759333613881	
0.645	0.024	-0.22745133510499657	
0.65	-0.247	-0.194171473806183	
0.655	-0.201	-0.16375850725839525	
0.66	0.163	-0.1347231928687096	
0.665	-0.089	-0.10673281203076006	
0.67	-0.200	-0.0816163203405322	
0.675	0.210	-0.05478952135287729	
0.68	0.229	-0.020189338287745773	
0.685	-0.099	0.020666937588179952	
0.69	0.224	0.06171119541606237	
0.695	0.457	0.10567673895947069	
0.7	-0.012	0.1477828107394008	
0.705	-0.017	0.16912361411034332	
0.71	0.360	0.1703377136024711	
0.715	-0.009	0.1573333992793932	
0.72	-0.186	0.13129360932277684	
0.725	0.139	0.09516195512702015	
0.73	0.038	0.05689930716990796	
0.735	-0.256	0.018680714555389596	
0.74	-0.075	-0.015385071719727708	
0.745	0.117	-0.0442942288974187	
0.75	-0.221	-0.06511128537193069	
0.755	-0.203	-0.07892193633144702	
0.76	0.125	-0.08770833819615137	
0.765	-0.124	-0.09256608601856783	
0.77	-0.246	-0.09269230964243366	
0.775	0.099	-0.08792458288465774	
0.78	0.085	-0.07604918636193458	
0.785	-0.215	-0.06025786772120327	
0.79	-0.023	-0.045479118416270954	
0.795	0.180	-0.03531743466209306	
0.8	-0.180	-0.0280212367869392	
0.805	-0.172	-0.026967517756770244	
0.81	0.137	-0.03279250529683986	
0.815	-0.131	-0.043486861473438276	
0.82	-0.270	-0.0576607030283888	
0.825	0.017	-0.07203267986488848	
0.83	-0.021	-0.08703042173648393	
0.835	-0.277	-0.09816222480753233	
0.84	-0.098	-0.1045420708996549	
0.845	0.067	-0.10836411383584837	
0.85	-0.276	-0.1129286114683968	
0.855	-0.285	-0.12097464394202012	
0.86	-0.089	-0.13988005724706284	
0.865	-0.331	-0.1724432945374008	
0.87	-0.491	-0.2126151943305782	
0.875	-0.212	-0.2510923264752732	
0.88	-0.095	-0.2790206974280218	
0.885	-0.165	-0.27407940131516106	
0.89	0.255	-0.21652379659315496	
0.895	0.468	-0.11136869145018191	
0.9	-0.159	-0.003939365853294319	
0.905	-0.323	0.049945140380576875	
0.91	-0.218	0.027071105894569104	
0.915	-0.444	-0.05740094167292804	
0.92	-0.605	-0.16661801036241347	
0.925	-0.375	-0.27012637750059965	
0.93	-0.335	-0.35898035539333684	
0.935	-0.486	-0.4130730886214589	
0.94	-0.284	-0.424584905491011	
0.945	-0.117	-0.4063595988774256	
0.95	-0.334	-0.3748875451593734	
0.955	-0.299	-0.33100217664222187	
0.96	-0.008	-0.2848484128794224	
0.965	-0.178	-0.24542363171774648	
0.97	-0.293	-0.2096913900230546	
0.975	0.023	-0.17604571776375588	
0.98	0.026	-0.1449693192396285	
0.985	-0.249	-0.11824581525801006	
0.99	-0.037	-0.09356235004787315	
0.995	0.242	-0.0692268291970884	
1.0	-0.119	-0.0410156658463074	
1.005	-0.043	-0.013075966988274507	
1.01	0.474	0.02233213367888971	
1.015	0.253	0.07657755584164234	
1.02	0.027	0.13616097018813217	
1.025	0.520	0.19102505554492188	
1.03	0.514	0.24712033037727235	
1.035	0.087	0.2976598159825411	
1.04	0.363	0.3283847360719142	
1.045	0.544	0.34483171880208635	
1.05	-0.008	0.34399903818976574	
1.055	-0.047	0.3098379812539638	
1.06	0.335	0.25426931343338205	
1.065	0.008	0.19667316498658766	
1.07	-0.185	0.1402102047268421	
1.075	0.139	0.08888098170891638	
1.08	0.012	0.043145398948597605	
1.085	-0.308	-0.0011592098878944197	
1.09	-0.175	-0.04573240962107116	
1.095	-0.102	-0.09528677861668626	
1.1	-0.464	-0.15277732409134404	
1.105	-0.621	-0.2211425549117769	
1.11	-0.541	-0.30996931300325953	
1.115	-0.717	-0.421232284366907	
1.12	-0.822	-0.5256196687107128	
1.125	-0.564	-0.6032665023105426	
1.13	-0.563	-0.6538862637105729	
1.135	-0.771	-0.6789861440981853	
1.14	-0.631	-0.6797657045769824	
1.145	-0.531	-0.6733868912932481	
1.15	-0.776	-0.6717050673996449	
1.155	-0.787	-0.6720982371524351	
1.16	-0.608	-0.6770028318521599	
1.165	-0.805	-0.6962374162720837	
1.17	-0.956	-0.7236436177334828	
1.175	-0.765	-0.7522768987224325	
1.18	-0.765	-0.784877218153573	
1.185	-0.965	-0.8140484850402345	
1.19	-0.846	-0.8287573736078655	
1.195	-0.753	-0.8412956941863691	
1.2	-0.988	-0.8587894683043796	
1.205	-0.913	-0.8681544561822637	
1.21	-0.508	-0.8588105259159043	
1.215	-0.470	-0.8192281205921839	
1.22	-0.566	-0.740801884458471	
1.225	-0.409	-0.6461307588286596	
1.23	-0.633	-0.5808288105515123	
1.235	-0.994	-0.5723625250115316	
1.24	-0.965	-0.614715472527662	
1.245	-0.855	-0.6980364969957765	
1.25	-0.996	-0.7910242274476429	
1.255	-0.927	-0.8572529399539662	
1.26	-0.610	-0.8834386757401983	
1.265	-0.657	-0.8753576693890632	
1.27	-0.710	-0.8311446478067905	
1.275	-0.415	-0.7577482474136971	
1.28	-0.361	-0.678639363916472	
1.285	-0.541	-0.5998166744971949	
1.29	-0.345	-0.5185364537545805	
1.295	-0.148	-0.4476013623448334	
1.3	-0.363	-0.38950661766072936	
1.305	-0.303	-0.33446574731589934	
1.31	0.149	-0.27584149828766347	
1.315	-0.015	-0.21055651219803442	
1.32	-0.142	-0.1406975892892527	
1.325	0.431	-0.05922343051462109	
1.33	0.523	0.038622279284032175	
1.335	0.143	0.14650603663181128	
1.34	0.530	0.2486045072047467	
1.345	0.880	0.34899189573406114	
1.35	0.474	0.4470191064727717	
1.355	0.594	0.5332309956804258	
1.36	1.203	0.6187776372502962	
1.365	1.038	0.7173827948411652	
1.37	0.808	0.8227624079574865	
1.375	1.316	0.9211188390873004	
1.38	1.279	1.0068781125605648	
1.385	0.793	1.0699948050267634	
1.39	1.075	1.10062444013318	
1.395	1.316	1.108420618387392	
1.4	0.806	1.100736730689515	
1.405	0.774	1.0739914901078729	
1.41	1.212	1.0371598544000573	
1.415	0.918	1.0013635162549226	
1.42	0.651	0.9704192788280145	
1.425	1.143	0.9463540087236918	
1.43	1.125	0.9380999790162048	
1.435	0.622	0.9357017945282292	
1.44	0.864	0.9276214059865461	
1.445	1.098	0.9107078158139502	
1.45	0.590	0.886591578019013	
1.455	0.547	0.8518220554913478	
1.46	0.973	0.8103912397518687	
1.465	0.625	0.7673858085183288	
1.47	0.270	0.7201844489921863	
1.475	0.687	0.6654399086541105	
1.48	0.599	0.609239741664736	
1.485	0.026	0.5475328299178801	
1.49	0.256	0.47458100919731405	
1.495	0.511	0.39888536544020736	
1.5	0.038	0.3325603294828925	
1.505	0.015	0.27671628360888634	
1.51	0.472	0.23349450472884653	
1.515	0.114	0.20144273513276423	
1.52	-0.156	0.1740830959555596	
1.525	0.334	0.1514499802689277	
1.53	0.559	0.15135178843032282	
1.535	0.483	0.20255430281093714	
1.54	1.296	0.33760629622597227	
1.545	1.790	0.5649922279778556	
1.55	1.160	0.8355445113000972	
1.555	0.655	0.2154275723464227	
1.56	0.538	0.20255430281093714	
1.565	-0.098	0.20255430281093714	
1.57	-0.349	0.7480469281058518	
1.575	-0.063	0.46941210230951147	
1.58	0.049	0.2154275723464227	
1.585	-0.198	0.03358579689208763	
1.59	0.120	-0.056479073720810444	
1.595	0.506	-0.06500748437521996	
1.6	0.096	-0.016366877698169816	
1.605	0.142	0.05858566149599406	
1.61	0.703	0.14548802220839446	
1.615	0.468	0.2375731518574248	
1.62	0.204	0.3240032889964514	
1.625	0.718	0.3963316679279958	
1.63	0.745	0.459454650579761	
1.635	0.277	0.5095323664088056	
1.64	0.601	0.5443581278931681	
1.645	0.937	0.5729857932497455	
1.65	0.527	0.6027338252163308	
1.655	0.582	0.6355115088737877	
1.66	1.163	0.6764057890821135	
1.665	0.959	0.7337142002700181	
1.67	0.687	0.8000486726911126	
1.675	1.188	0.8641672255277639	
1.68	1.189	0.9224990504678814	
1.685	0.662	0.9656884556220824	
1.69	0.863	0.9802032879385589	
1.695	1.061	0.9658639887478231	
1.7	0.498	0.9249304924396474	
1.705	0.389	0.857487561690903	
1.71	0.802	0.7711599492566558	
1.715	0.454	0.6838541434114433	
1.72	0.094	0.5972249422663813	
1.725	0.540	0.5149166134112697	
1.73	0.521	0.44848788001051093	
1.735	0.011	0.3960193819364455	
1.74	0.244	0.34906700131914936	
1.745	0.512	0.3086398298272721	
1.75	0.017	0.27527120609928973	
1.755	-0.020	0.24156514890891667	
1.76	0.442	0.20977131060234228	
1.765	0.154	0.18702956297507123	
1.77	-0.119	0.16954209129868048	
1.775	0.279	0.1545266707933573	
1.78	0.116	0.13536733923363437	
1.785	-0.404	0.09545411048208982	
1.79	-0.396	0.022855546242986812	
1.795	-0.319	-0.08574710942321012	
1.8	-0.590	-0.21331107550050932	
1.805	-0.633	-0.3272824989224268	
1.81	-0.398	-0.41669807940358405	
1.815	-0.526	-0.48881589880205406	
1.82	-0.671	-0.532074931300864	
1.825	-0.430	-0.5468064740787291	
1.83	-0.406	-0.5507652307802051	
1.835	-0.637	-0.5471332186681819	
1.84	-0.509	-0.5311948002571691	
1.845	-0.363	-0.5180211456574293	
1.85	-0.576	-0.5141102759798376	
1.855	-0.515	-0.5021819166921557	
1.86	-0.087	-0.4729201961893015	
1.865	0.055	-0.414763414793875	
1.87	0.133	-0.3028955378432483	
1.875	0.643	-0.13288947627215159	
1.88	0.392	-0.44669111071823453	
1.885	-0.375	-0.41703979257430046	
1.89	-0.436	-0.414763414793875	
1.895	-0.381	0.0709258790851357	
1.9	-0.628	-0.09202158687753176	
1.905	-0.598	-0.2501990474881085	
1.91	-0.287	-0.3699491212464711	
1.915	-0.399	-0.44669111071823453	
1.92	-0.534	-0.4779429364363531	
1.925	-0.274	-0.4709721989639705	
1.93	-0.217	-0.4487379852733009	
1.935	-0.447	-0.41703979257430046	
1.94	-0.285	-0.3752964249330611	
1.945	-0.078	-0.33498732325896285	
1.95	-0.317	-0.3030514694222127	
1.955	-0.305	-0.270307029025891	
1.96	0.076	-0.2338726412002736	
1.965	-0.125	-0.19969552866787202	
1.97	-0.282	-0.1681275127860595	
1.975	0.126	-0.13289391964359448	
1.98	0.212	-0.0905899609862981	
1.985	-0.188	-0.046234284927166955	
1.99	0.073	-0.0053568785375849	
1.995	0.483	0.036257540446351384	
2.0	0.047	0.08588936274238607	
2.005	0.030	0.13048080956557867	
2.01	0.518	0.16728162216089554	
2.015	0.267	0.20141856963078086	
2.02	-0.063	0.22566608605961874	
2.025	0.381	0.2350778554383478	
2.03	0.331	0.2355817562584338	
2.035	-0.188	0.2216956485931222	
2.04	-0.076	0.18249216800520313	
2.045	0.110	0.12034423276792311	
2.05	-0.332	0.04396634447712282	
2.055	-0.421	-0.03863268566822284	
2.06	-0.183	-0.12473773449585787	
2.065	-0.378	-0.21246067948232497	
2.07	-0.590	-0.2873450132615517	
2.075	-0.369	-0.345982004298578	
2.08	-0.332	-0.3953459163912884	
2.085	-0.543	-0.4292621230557964	
2.09	-0.396	-0.43651899589640836	
2.095	-0.224	-0.42960330554535797	
2.1	-0.448	-0.42205711080692226	
2.105	-0.448	-0.40467521658298633	
2.11	-0.177	-0.3816275256959097	
2.115	-0.319	-0.36549031997649506	
2.12	-0.494	-0.35251205802546537	
2.125	-0.233	-0.3368488376799314	
2.13	-0.180	-0.3272439250489361	
2.135	-0.433	-0.319530071627317	
2.14	-0.296	-0.30449678098196553	
2.145	-0.087	-0.2913229130021927	
2.15	-0.346	-0.28328385978780457	
2.155	-0.332	-0.2708549349931235	
2.16	0.271	-0.23823617883035353	
2.165	0.187	-0.1744852023712813	
2.17	-0.139	-0.08888748282931759	
2.175	0.268	-0.006619967511511912	
2.18	0.303	0.05897208139920213	
2.185	-0.055	0.10807537303002904	
2.19	0.505	0.1585237022793154	
2.195	1.177	0.25511690883307553	
2.2	0.796	0.40754452339041597	
2.205	0.582	0.5698520502500174	
2.21	0.706	0.6789692466867759	
2.215	0.076	0.6874614924418123	
2.22	-0.288	0.5897637215283402	
2.225	-0.058	0.4235298100169973	
2.23	-0.021	0.23521764652373905	
2.235	-0.261	0.07086438995781855	
2.24	-0.040	-0.033504305449364155	
2.245	0.427	-0.07362557915284407	
2.25	0.076	-0.0545948952593005	
2.255	0.105	0.0037100601601060433	
2.26	0.623	0.08632442826948743	
2.265	0.422	0.17656451705264634	
2.27	0.108	0.2594932857806294	
2.275	0.628	0.32767698867175005	
2.28	0.678	0.386413743097016	
2.285	0.166	0.43154365296982095	
2.29	0.431	0.45637254813608774	
2.295	0.793	0.4706314830057002	
2.3	0.373	0.4832939777496275	
2.305	0.363	0.4974768937072341	
2.31	0.953	0.5185309485538998	
2.315	0.797	0.5586845379986527	
2.32	0.476	0.6132792680576472	
2.325	0.951	0.6687032155348744	
2.33	1.005	0.719593331359069	
2.335	0.451	0.7574293493892345	
2.34	0.663	0.7702689683643309	
2.345	0.904	0.7607632136867228	
2.35	0.387	0.7302925471562941	
2.355	0.247	0.6773336214963639	
2.36	0.710	0.6125672039243018	
2.365	0.425	0.5477715336470763	
2.37	-0.024	0.4831936233148274	
2.375	0.402	0.41564958126725327	
2.38	0.445	0.3547092977114074	
2.385	-0.060	0.30347335651003493	
2.39	0.123	0.2581767900237104	
2.395	0.466	0.22179707722217357	
2.4	0.011	0.19442179335494586	
2.405	-0.044	0.17328157258638416	
2.41	0.491	0.16348319601060995	
2.415	0.294	0.16889487423295382	
2.42	-0.061	0.18423891750807922	
2.425	0.354	0.20049375775993056	
2.43	0.393	0.2107303539084961	
2.435	-0.093	0.2126002191106504	
2.44	0.085	0.20405282438386182	
2.445	0.433	0.1877112622840929	
2.45	-0.014	0.17158744164639755	
2.455	-0.079	0.15426639583788088	
2.46	0.354	0.13830420811177613	
2.465	0.116	0.12399287832911361	
2.47	-0.166	0.1103514426641779	
2.475	0.174	0.09832665503353175	
2.48	0.250	0.08672532970981517	
2.485	-0.172	0.07578971096113049	
2.49	-0.046	0.06495918715365169	
2.495	0.227	0.04858087714240124	
2.5	-0.157	0.0267516773196574	
2.505	-0.180	0.0062937709365869145	
2.51	0.358	0.00014623500392148302	
2.515	0.364	0.023105550565335104	
2.52	0.306	0.0915016204302165	
2.525	0.901	0.2122061380429137	
2.53	0.887	0.3627086313862955	
2.535	0.145	0.4878815280855692	
2.54	0.009	0.5287785878593576	
2.545	0.096	0.46643773820478307	
2.55	-0.291	0.3289168340470031	
2.555	-0.369	0.16830362322791106	
2.56	-0.073	0.019979004978050177	
2.565	-0.140	-0.101802901910972	
2.57	-0.302	-0.17639586811691282	
2.575	0.001	-0.1979401211055697	
2.58	0.119	-0.18729513579704998	
2.585	-0.212	-0.15893572466728112	
2.59	-0.061	-0.11717620323327427	
2.595	0.303	-0.0735632936904016	
2.6	-0.075	-0.034037440972775036	
2.605	-0.110	0.0012737908244940049	
2.61	0.395	0.03495678645045366	
2.615	0.250	0.07320958850783739	
2.62	-0.064	0.1145320481664545	
2.625	0.418	0.15501445646292472	
2.63	0.538	0.19876090824177126	
2.635	0.064	0.24405348302513052	
2.64	0.331	0.2817506325427457	
2.645	0.756	0.31946974984342086	
2.65	0.352	0.3640397351972958	
2.655	0.264	0.405221527791322	
2.66	0.759	0.43887648553583714	
2.665	0.511	0.46528238886832396	
2.67	0.110	0.47657363112328816	
2.675	0.488	0.466873677599253	
2.68	0.511	0.44275095637242967	
2.685	-0.040	0.4042063079235444	
2.69	0.123	0.35166253242789114	
2.695	0.447	0.2933335497543862	
2.7	-0.003	0.24122056733779323	
2.705	-0.084	0.1942799690723563	
2.71	0.346	0.1556618998284014	
2.715	0.096	0.12637724302868214	
2.72	-0.186	0.10178241739681032	
2.725	0.172	0.08167712570563554	
2.73	0.256	0.06968607253686807	
2.735	-0.169	0.062490420309888585	
2.74	-0.063	0.05457339600610134	
2.745	0.242	0.042090144707290514	
2.75	-0.133	0.025452733386613448	
2.755	-0.198	0.008374021286050103	
2.76	0.180	-0.005643891611378909	
2.765	-0.026	-0.018536418651717713	
2.77	-0.262	-0.030969926390053994	
2.775	-0.037	-0.04357178565061822	
2.78	-0.012	-0.0634256479811014	
2.785	-0.320	-0.09121857395514539	
2.79	-0.230	-0.11449533382897704	
2.795	-0.031	-0.14013111233666453	
2.8	-0.285	-0.1683469611315755	
2.805	-0.334	-0.18753795622768432	
2.81	-0.053	-0.19786160872565578	
2.815	-0.183	-0.20848389451915142	
2.82	-0.374	-0.21481865936341044	
2.825	-0.156	-0.21368908813119625	
2.83	-0.089	-0.21546502338947449	
2.835	-0.322	-0.2181068843002303	
2.84	-0.136	-0.20551702569654803	
2.845	0.444	-0.16514645012054865	
2.85	0.245	-0.08426233879923174	
2.855	0.130	0.026444527764390966	
2.86	0.465	-0.20551702569654803	
2.865	-0.040	-0.20551702569654803	
2.87	-0.396	0.1841240136412482	
2.875	-0.265	0.11025116963655938	
2.88	-0.241	-0.0064259599027866755	
2.885	-0.456	-0.13008580841124037	
2.89	-0.303	-0.22053868628472528	
2.895	-0.037	-0.27111701303600666	
2.9	-0.223	-0.2892786009201195	
2.905	-0.227	-0.27159789522009736	
2.91	0.242	-0.22081295683543972	
2.915	0.117	-0.15140681228589864	
2.92	-0.157	-0.07796303627561102	
2.925	0.192	-0.011690696362417317	
2.93	0.315	0.04169792436722874	
2.935	-0.119	0.08074944151266077	
2.94	0.032	0.10335104190551768	
2.945	0.445	0.11704693367445512	
2.95	0.067	0.1326856817978456	
2.955	-0.012	0.14721192635473596	
2.96	0.556	0.16728450986566806	
2.965	0.462	0.20471373432316395	
2.97	0.134	0.25590647943072253	
2.975	0.617	0.3122833204526358	
2.98	0.748	0.3738462361971321	
2.985	0.253	0.43172716729933075	
2.99	0.412	0.4712248846631285	
2.995	0.784	0.49309668094804227	
3.0	0.319	0.5037718032418936	
3.005	0.134	0.4931106523813752	
3.01	0.593	0.46319179939885796	
3.015	0.343	0.42682088232321724	
3.02	-0.072	0.38194040918985145	
3.025	0.271	0.32611859488079353	
3.03	0.340	0.27087089369342965	
3.035	-0.111	0.2199228196167039	
3.04	-0.011	0.17312746136195067	
3.045	0.323	0.1299586981816668	
3.05	-0.069	0.09599230267119278	
3.055	-0.142	0.06918095999176081	
3.06	0.297	0.051952557909711365	
3.065	0.125	0.04791906971691727	
3.07	-0.168	0.05116438674832213	
3.075	0.134	0.05489514975232129	
3.08	0.218	0.05576622724097819	
3.085	-0.178	0.05220527351450242	
3.09	-0.089	0.0430495920067243	
3.095	0.235	0.028698384751763145	
3.1	-0.142	0.012216839554438443	
3.105	-0.241	-0.005702310802854379	
3.11	0.029	-0.029370238547185974	
3.115	-0.145	-0.06303888430175797	
3.12	-0.366	-0.10055946795159	
3.125	-0.160	-0.13430571332028024	
3.13	-0.108	-0.1673734384804853	
3.135	-0.374	-0.19851050075041982	
3.14	-0.288	-0.21796378969440033	
3.145	-0.079	-0.23153724034618636	
3.15	-0.319	-0.24463017444274018	
3.155	-0.415	-0.25357623552696007	
3.16	-0.166	-0.26056463323680745	
3.165	-0.223	-0.27202618598999684	
3.17	-0.320	-0.2743896272834012	
3.175	0.203	-0.24136942915628584	
3.18	0.652	-0.1513897287529185	
3.185	0.201	-0.011371331837218222	
3.19	0.192	0.12895127644968424	
3.195	0.130	-0.24463017444274018	
3.2	-0.398	-0.24463017444274018	
3.205	-0.570	0.10643907617327569	
3.21	-0.349	-0.03568662463617875	
3.215	-0.406	-0.1879729067912182	
3.22	-0.531	-0.310265161214502	
3.225	-0.239	-0.3774595819377964	
3.23	-0.095	-0.39646772066760017	
3.235	-0.323	-0.378277856092309	
3.24	-0.218	-0.3329990978334746	
3.245	0.053	-0.27770800075198293	
3.25	-0.217	-0.22851139930682857	
3.255	-0.288	-0.18752641675550868	
3.26	0.038	-0.1567056273165251	
3.265	-0.098	-0.1389913031355801	
3.27	-0.317	-0.13032420115706525	
3.275	-0.079	-0.12549203061286432	
3.28	0.030	-0.1254525242340787	
3.285	-0.259	-0.1253274748883191	
3.29	-0.130	-0.12002207924690728	
3.295	0.271	-0.10262561290402847	
3.3	-0.053	-0.0725113114719709	
3.305	-0.102	-0.03659169024598943	
3.31	0.437	0.007360227199286067	
3.315	0.290	0.0650766023701837	
3.32	-0.093	0.1195924156948358	
3.325	0.259	0.15545661418468254	
3.33	0.331	0.17462453164760589	
3.335	-0.156	0.17567864765150387	
3.34	-0.073	0.15285727036271207	
3.345	0.245	0.11536324672789453	
3.35	-0.157	0.07260590169556225	
3.355	-0.264	0.028363823235598988	
3.36	0.044	-0.017771522000932204	
3.365	-0.108	-0.06082568017481197	
3.37	-0.348	-0.09929999280354998	
3.375	-0.151	-0.12967055741427708	
3.38	-0.119	-0.16138790005422807	
3.385	-0.428	-0.195161173921485	
3.39	-0.367	-0.2271893275932542	
3.395	-0.165	-0.25773573705676733	
3.4	-0.396	-0.289284893145174	
3.405	-0.489	-0.31360499029461075	
3.41	-0.232	-0.33087098897606493	
3.415	-0.320	-0.34879042806642835	
3.42	-0.523	-0.3612520667337599	
3.425	-0.319	-0.3647230834615015	
3.43	-0.259	-0.3693784603315322	
3.435	-0.521	-0.37714206134813644	
3.44	-0.447	-0.38021744891254816	
3.445	-0.252	-0.38470372757984694	
3.45	-0.460	-0.39529838851157284	
3.455	-0.526	-0.40066382390914523	
3.46	-0.249	-0.39978736032121154	
3.465	-0.325	-0.39877178398048574	
3.47	-0.521	-0.39539038532990245	
3.475	-0.308	-0.3826460158099195	
3.48	-0.258	-0.3752573628775526	
3.485	-0.537	-0.37633615589317715	
3.49	-0.441	-0.3782430804572636	
3.495	-0.095	-0.37444563268808206	
3.5	-0.095	-0.3514038965053865	
3.505	0.283	-0.27081362994190306	
3.51	1.140	-0.3514038965053865	
3.515	0.887	-0.3514038965053865	
3.52	0.004	-0.3410175799738021	
3.525	-0.120	-0.32442952981000434	
3.53	-0.264	-0.27143028112813183	
3.535	-0.613	0.2234253847054511	
3.54	-0.540	0.012627059602850491	
3.545	-0.271	-0.17911105364243377	
3.55	-0.410	-0.32442952981000434	
3.555	-0.430	-0.40110209868626384	
3.56	-0.082	-0.4152776453147431	
3.565	-0.124	-0.39157742880373037	
3.57	-0.303	-0.3410175799738021	
3.575	-0.005	-0.27143028112813183	
3.58	0.183	-0.19872837531107995	
3.585	-0.188	-0.12989217290396826	
3.59	-0.052	-0.07144729399914385	
3.595	0.407	-0.018764065164791302	
3.6	0.047	0.032345704228615005	
3.605	-0.038	0.07756575286349865	
3.61	0.565	0.12305767292740512	
3.615	0.527	0.18451193645364847	
3.62	0.255	0.26259372249906554	
3.625	0.860	0.35570918586193795	
3.63	1.188	0.4765856656598185	
3.635	0.791	0.6208501906671305	
3.64	0.976	0.7634262022578393	
3.645	1.376	0.8875098733884472	
3.65	0.902	0.9822688820335909	
3.655	0.669	1.0303144960719486	
3.66	1.122	1.0321852139029313	
3.665	0.886	1.0045968720573204	
3.67	0.357	0.9503940358796626	
3.675	0.677	0.8696760006039486	
3.68	0.739	0.7777065009106929	
3.685	0.155	0.6827976733476859	
3.69	0.242	0.5823496631799306	
3.695	0.614	0.4886046761309861	
3.7	0.165	0.4113693224612529	
3.705	-0.027	0.3442832269575484	
3.71	0.460	0.2881579859522422	
3.715	0.244	0.2466986477828841	
3.72	-0.151	0.21144730073809043	
3.725	0.168	0.1765676236630871	
3.73	0.274	0.14371364930899258	
3.735	-0.200	0.1119361180133056	
3.74	-0.157	0.07426289793715121	
3.745	0.140	0.03047229468989701	
3.75	-0.188	-0.015482766575671254	
3.755	-0.291	-0.054668354802123294	
3.76	0.009	-0.08603200203455788	
3.765	-0.113	-0.11625518713659276	
3.77	-0.360	-0.14139590403922703	
3.775	-0.149	-0.1575568092475978	
3.78	-0.049	-0.17335885402810075	
3.785	-0.342	-0.18891345222153796	
3.79	-0.265	-0.1957421739144104	
3.795	0.014	-0.19662572759341973	
3.8	-0.238	-0.19942444866457446	
3.805	-0.334	-0.19563889196744522	
3.81	-0.050	-0.1890862091122481	
3.815	-0.151	-0.1902513413926627	
3.82	-0.339	-0.1933957376764222	
3.825	0.049	-0.17854242535193204	
3.83	0.581	-0.12728113572410016	
3.835	0.505	-0.012905631679821498	
3.84	0.841	0.17026419357614675	
3.845	1.160	-0.17854242535193204	
3.85	0.340	-0.17854242535193204	
3.855	-0.227	-0.12784961866813332	
3.86	-0.120	-0.12728113572410016	
3.865	-0.277	0.3598098352569289	
3.87	-0.494	0.14052216089153577	
3.875	-0.236	-0.046514465839969335	
3.88	-0.070	-0.18218751896518492	
3.885	-0.306	-0.26000922097906176	
3.89	-0.178	-0.27778748084434923	
3.895	0.247	-0.24839676565711366	
3.9	-0.064	-0.19249231545393886	
3.905	-0.156	-0.12784961866813332	
3.91	0.352	-0.058867902132367735	
3.915	0.253	0.009848278272293613	
3.92	-0.113	0.07029952968056527	
3.925	0.293	0.1185029122197156	
3.93	0.520	0.16194063011894017	
3.935	0.038	0.20281324528374733	
3.94	0.207	0.23508530377512696	
3.945	0.719	0.26776614571548885	
3.95	0.419	0.3135272101397598	
3.955	0.319	0.3690012252513947	
3.96	0.944	0.4341897685599139	
3.965	0.834	0.512970498226338	
3.97	0.389	0.5902152558909122	
3.975	0.780	0.6454111253750383	
3.98	0.916	0.6820197153828611	
3.985	0.323	0.6958591377818808	
3.99	0.340	0.6739575656643076	
3.995	0.713	0.6247077812365918	
4.0	0.242	0.5616596330069812	
4.005	-0.018	0.4849850098022227	
4.01	0.441	0.4010048104586656	
4.015	0.233	0.3240692893767346	
4.02	-0.178	0.2544002791760941	
4.025	0.061	0.18622611558049237	
4.03	0.186	0.11994595141949912	
4.035	-0.226	0.06215809080902177	
4.04	-0.163	0.013934123436100891	
4.045	0.195	-0.022540176707346142	
4.05	-0.140	-0.04812744778427147	
4.055	-0.239	-0.06284595795763605	
4.06	0.108	-0.06929320922009369	
4.065	-0.053	-0.07493139068778665	
4.07	-0.331	-0.08431867401174103	
4.075	-0.130	-0.09795390540822521	
4.08	-0.041	-0.1182327683385268	
4.085	-0.335	-0.1455768085169538	
4.09	-0.281	-0.16606822224094617	
4.095	-0.040	-0.18279641489939008	
4.1	-0.274	-0.20198573077079973	
4.105	-0.372	-0.21471158416930514	
4.11	-0.076	-0.21849902128051082	
4.115	-0.163	-0.2239214471692698	
4.12	-0.396	-0.22814782447609677	
4.125	-0.169	-0.22404897688373832	
4.13	-0.024	-0.22029274851072092	
4.135	-0.323	-0.21546443735915144	
4.14	-0.276	-0.2050965856193865	
4.145	-0.018	-0.19786117648921434	
4.15	-0.230	-0.1979367456964925	
4.155	-0.235	-0.19071074727853693	
4.16	0.471	-0.1494867085944563	
4.165	0.672	-0.04982479264682997	
4.17	0.250	0.0978429921821937	
4.175	0.454	0.24285703570371575	
4.18	0.213	0.3286799410624035	
4.185	-0.412	0.31948591149174865	
4.19	-0.479	0.2168094857979023	
4.195	-0.308	0.05515529587849509	
4.2	-0.505	-0.1238627195359491	
4.205	-0.573	-0.27272817412666384	
4.21	-0.246	-0.36951486384598425	
4.215	-0.252	-0.4218119485823934	
4.22	-0.460	-0.4311730057248439	
4.225	-0.224	-0.40508771674266275	
4.23	-0.098	-0.3681985862854254	
4.235	-0.360	-0.3305183998274868	
4.24	-0.274	-0.2901734951481328	
4.245	0.076	-0.24871698986288598	
4.25	-0.169	-0.21195110362047426	
4.255	-0.259	-0.17488496700252015	
4.26	0.142	-0.1363818749389873	
4.265	0.055	-0.09979666582195745	
4.27	-0.215	-0.06841570378470749	
4.275	0.130	-0.03600663087280192	
4.28	0.383	0.00300773119974799	
4.285	-0.078	0.04527829222349888	
4.29	0.055	0.08272216054643822	
4.295	0.564	0.11954607842477762	
4.3	0.180	0.16301763463225483	
4.305	-0.047	0.1978712172567432	
4.31	0.471	0.21775051073739551	
4.315	0.296	0.23034951112239882	
4.32	-0.162	0.22938585326411015	
4.325	0.113	0.20592560873057386	
4.33	0.273	0.16917673295155344	
4.335	-0.198	0.12725906084481717	
4.34	-0.166	0.08159034848090063	
4.345	0.200	0.034606796090839075	
4.35	-0.124	-0.0048881548218735115	
4.355	-0.273	-0.035189134681368	
4.36	0.055	-0.05828461753676761	
4.365	-0.050	-0.0805710896794227	
4.37	-0.310	-0.09959372547641741	
4.375	-0.082	-0.1091121572313374	
4.38	0.085	-0.11479150088800137	
4.385	-0.270	-0.11872262166778953	
4.39	-0.221	-0.11844325802585026	
4.395	0.131	-0.11637116863822844	
4.4	-0.143	-0.11488372238630687	
4.405	-0.268	-0.10924173266384378	
4.41	0.072	-0.10024552211030677	
4.415	-0.035	-0.09654025022174101	
4.42	-0.313	-0.09768825572161104	
4.425	-0.113	-0.10009718579619341	
4.43	0.037	-0.10970223238752146	
4.435	-0.294	-0.1228202434152341	
4.44	-0.235	-0.13148024693908078	
4.445	0.091	-0.13521984767653797	
4.45	-0.182	-0.13994523429669314	
4.455	-0.291	-0.13837839080857864	
4.46	0.081	-0.13007296950069702	
4.465	-0.024	-0.12048802487269372	
4.47	-0.322	-0.11391525475950462	
4.475	-0.105	-0.10900790101233858	
4.48	0.155	-0.10750423237258455	
4.485	-0.119	-0.0970298769321791	
4.49	0.264	-0.0535194906381473	
4.495	1.059	0.05312023847209867	
4.5	0.703	-0.0970298769321791	
4.505	0.287	-0.07681733483611133	
4.51	0.479	-0.0535194906381473	
4.515	0.078	-0.018172996392391123	
4.52	-0.352	0.4258013220595726	
4.525	-0.195	0.28502174260900964	
4.53	-0.037	0.12472716579173937	
4.535	-0.281	-0.018172996392391123	
4.54	-0.180	-0.10862708959474829	
4.545	0.303	-0.14067953435227037	
4.55	0.026	-0.12705758278226248	
4.555	0.003	-0.07681733483611133	
4.56	0.724	0.011352971848397208	
4.565	0.753	0.1427625897568531	
4.57	0.299	0.28954714800339787	
4.575	0.680	0.41903442207997943	
4.58	0.878	0.5199507011135304	
4.585	0.335	0.585612047437639	
4.59	0.408	0.6131422658492277	
4.595	0.887	0.6145141727266094	
4.6	0.547	0.610988109404387	
4.605	0.309	0.6049427748475503	
4.61	0.873	0.6003686065090827	
4.615	0.846	0.60792309689916	
4.62	0.396	0.6284625196201448	
4.625	0.785	0.6519618309701084	
4.63	1.011	0.6780964498401478	
4.635	0.450	0.6996608510056992	
4.64	0.477	0.7040212252940995	
4.645	0.902	0.6905198083188094	
4.65	0.483	0.6670954772519488	
4.655	0.197	0.6298845885558281	
4.66	0.671	0.5822599009650398	
4.665	0.518	0.5340105141011092	
4.67	-0.029	0.48152401622044283	
4.675	0.277	0.4178095211432075	
4.68	0.468	0.3530902564237539	
4.685	-0.060	0.2928556127356301	
4.69	-0.009	0.23795856042009383	
4.695	0.463	0.1923736203918932	
4.7	0.070	0.16329293226504682	
4.705	-0.124	0.14297273612207	
4.71	0.322	0.1290111762992443	
4.715	0.212	0.12007108346077937	
4.72	-0.194	0.1107667325975036	
4.725	0.003	0.09460206559014729	
4.73	0.187	0.06694449406184617	
4.735	-0.220	0.033142453489456075	
4.74	-0.203	0.0009298648450722538	
4.745	0.108	-0.030913259761867467	
4.75	-0.182	-0.06553331247961561	
4.755	-0.342	-0.09486041048763318	
4.76	-0.066	-0.12025393245406643	
4.765	-0.127	-0.14994397349827893	
4.77	-0.381	-0.1769809935207301	
4.775	-0.185	-0.19049617098088908	
4.78	-0.058	-0.20119389428484724	
4.785	-0.349	-0.21469757074878693	
4.79	-0.317	-0.2200418706497366	
4.795	-0.044	-0.2210397575871427	
4.8	-0.256	-0.22749193053962466	
4.805	-0.381	-0.22980766335192898	
4.81	-0.006	-0.2212877184392253	
4.815	0.174	-0.19792110968487592	
4.82	0.032	-0.13995918353639825	
4.825	0.579	-0.03247101840491325	
4.83	0.755	0.11486782708520314	
4.835	-0.052	-0.21469757074878693	
4.84	-0.264	-0.19792110968487592	
4.845	-0.159	-0.19018848695373058	
4.85	-0.406	0.10255145655126315	
4.855	-0.535	-0.04889510027082303	
4.86	-0.229	-0.17825092212031643	
4.865	-0.197	-0.2748198123767868	
4.87	-0.389	-0.32705117749573087	
4.875	-0.142	-0.3265164795130182	
4.88	0.097	-0.2950116096985125	
4.885	-0.221	-0.24779927175476457	
4.89	-0.145	-0.19018848695373058	
4.895	0.337	-0.12679716608150787	
4.9	0.012	-0.06348878147045346	
4.905	-0.153	-0.00910734739586444	
4.91	0.322	0.03588149122261393	
4.915	0.296	0.07626502110615115	
4.92	-0.110	0.11067651095311085	
4.925	0.251	0.13947266132878738	
4.93	0.555	0.16921852563692524	
4.935	0.091	0.20406646449361687	
4.94	0.221	0.23965489703896428	
4.945	0.785	0.28241445265933895	
4.95	0.462	0.33756404803632506	
4.955	0.201	0.39268593409340635	
4.96	0.727	0.4369346462895774	
4.965	0.645	0.4724165492664448	
4.97	0.090	0.49054436376627214	
4.975	0.392	0.48236906108704636	
4.98	0.590	0.4553492455843884	
4.985	0.008	0.41508582495185187	
4.99	-0.009	0.35750618111418764	
4.995	0.421	0.2904239296766373	
5.0	0.032	0.22769321308690887	
5.005	-0.168	0.17064145691153954	
5.01	0.238	0.1238431559319716	
5.015	0.181	0.08953480601010103	
5.02	-0.189	0.06563219663508467	
5.025	0.059	0.05224856668145108	
5.03	0.338	0.04736143684567763	
5.035	-0.102	0.04924107801867307	
5.04	-0.069	0.055434233923268385	
5.045	0.392	0.06432301199214616	
5.05	0.043	0.07482798986002864	
5.055	-0.159	0.08264730792682072	
5.06	0.256	0.08567749867463197	
5.065	0.195	0.08560658586821471	
5.07	-0.194	0.08173637176067808	
5.075	0.021	0.07409016074080024	
5.08	0.262	0.059328344774129016	
5.085	-0.177	0.043405967913767364	
5.09	-0.171	0.026364426107225673	
5.095	0.206	0.007192521017059248	
5.1	-0.102	-0.013032691814371106	
5.105	-0.259	-0.03129812779337366	
5.11	0.091	-0.04347341065232039	
5.115	0.059	-0.05334715358801874	
5.12	-0.264	-0.05913891247543063	
5.125	-0.111	-0.06201470552539911	
5.13	0.033	-0.07372607087098537	
5.135	-0.291	-0.09748494079435478	
5.14	-0.221	-0.1156524712663907	
5.145	0.393	-0.10984603315439181	
5.15	0.476	-0.05491747293795985	
5.155	0.520	0.06875392765088158	
5.16	1.067	0.25248711875759866	
5.165	0.767	0.4426504151801946	
5.17	-0.168	-0.06201470552539911	
5.175	-0.221	0.5378219934230957	
5.18	-0.200	0.3902866747692734	
5.185	-0.489	0.1785910737682015	
5.19	-0.435	-0.021690174948011332	
5.195	-0.095	-0.17485005113640142	
5.2	-0.204	-0.27187100039859535	
5.205	-0.284	-0.3052917136596993	
5.21	0.128	-0.2785275977034143	
5.215	0.155	-0.21925518423024604	
5.22	-0.183	-0.147171430201638	
5.225	0.087	-0.07408783202112466	
5.23	0.399	-0.006609692227376845	
5.235	-0.058	0.04949877411914028	
5.24	-0.017	0.09119813159250865	
5.245	0.524	0.12423562963424406	
5.25	0.247	0.16011126991635555	
5.255	0.014	0.19653382812475223	
5.26	0.596	0.23450096391120173	
5.265	0.649	0.2848633361525399	
5.27	0.227	0.34574750703812746	
5.275	0.651	0.40884602289517835	
5.28	1.003	0.480504222838652	
5.285	0.514	0.557542922768147	
5.29	0.518	0.6210830157701767	
5.295	0.998	0.6642048286761502	
5.3	0.636	0.6922150084911485	
5.305	0.264	0.695505089876131	
5.31	0.700	0.6703453143646114	
5.315	0.575	0.6279132566062711	
5.32	-0.035	0.5648693671593924	
5.325	0.197	0.4786817787579988	
5.33	0.427	0.3834126593021385	
5.335	-0.081	0.2947881369129487	
5.34	-0.085	0.21508639025972232	
5.345	0.361	0.15097508690175998	
5.35	0.026	0.10640690334499678	
5.355	-0.175	0.07570787114063948	
5.36	0.229	0.05806962187012365	
5.365	0.200	0.05091107181995706	
5.37	-0.188	0.049207768297128654	
5.375	0.008	0.04650745809795581	
5.38	0.267	0.04117632401317678	
5.385	-0.168	0.03310473235110195	
5.39	-0.185	0.0211102171395576	
5.395	0.168	0.002601490182662542	
5.4	-0.107	-0.019422179212377	
5.405	-0.285	-0.04204120766701699	
5.41	-0.008	-0.062271572125392465	
5.415	-0.060	-0.08615186346605425	
5.42	-0.369	-0.11443098100582545	
5.425	-0.226	-0.13964775430057733	
5.43	-0.069	-0.16707462185909594	
5.435	-0.342	-0.19659348544939242	
5.44	-0.342	-0.21681971106185788	
5.445	-0.069	-0.22769614818808723	
5.45	-0.256	-0.24029710908084093	
5.455	-0.451	-0.24885144568467482	
5.46	-0.230	-0.2574977268754918	
5.465	-0.226	-0.2751869256786607	
5.47	-0.399	-0.2922166842649573	
5.475	-0.026	-0.2807095180047991	
5.48	0.806	-0.20712042228198926	
5.485	0.645	-0.04337632314617409	
5.49	0.576	0.177175634144832	
5.495	0.662	0.37506404878500016	
5.5	-0.166	0.4686701704077258	
5.505	-0.549	0.4181682831726984	
5.51	-0.416	0.2533501594703894	
5.515	-0.450	0.03181533117816412	
5.52	-0.650	-0.18204886102009724	
5.525	-0.433	-0.34076098981931613	
5.53	-0.213	-0.43524561077169066	
5.535	-0.409	-0.4743124588165164	
5.54	-0.377	-0.461780952013339	
5.545	-0.078	-0.4189277910790549	
5.55	-0.223	-0.37018876285248214	
5.555	-0.363	-0.31772711470860715	
5.56	-0.064	-0.2666563248364238	
5.565	-0.047	-0.22519276333927044	
5.57	-0.308	-0.19410701930046756	
5.575	-0.113	-0.16481176936550784	
5.58	0.187	-0.13522126215330674	
5.585	-0.168	-0.10637960617190037	
5.59	-0.131	-0.07585840757978081	
5.595	0.395	-0.03983000340591908	
5.6	0.180	0.008841871084973639	
5.605	-0.038	0.06515769394614357	
5.61	0.527	0.12338735697346728	
5.615	0.562	0.19392401450295127	
5.62	0.029	0.2608095296642572	
5.625	0.303	0.30308681293998396	
5.63	0.567	0.3228538977509484	
5.635	0.008	0.3256718575012405	
5.64	-0.052	0.30002346728146734	
5.645	0.361	0.253099942669309	
5.65	-0.011	0.19996977007691918	
5.655	-0.238	0.14118419697106224	
5.66	0.064	0.08120670994461832	
5.665	0.024	0.023967419919084285	
5.67	-0.303	-0.02598565173966849	
5.675	-0.149	-0.06602671201080651	
5.68	0.076	-0.09725673353232418	
5.685	-0.255	-0.12009657301302037	
5.69	-0.258	-0.13294477703961485	
5.695	0.067	-0.13811104075791872	
5.7	-0.159	-0.14191803507510325	
5.705	-0.323	-0.1446725824035475	
5.71	-0.034	-0.14398323058879675	
5.715	-0.044	-0.14505530674772268	
5.72	-0.345	-0.1498094952265784	
5.725	-0.206	-0.15413423432310214	
5.73	-0.038	-0.16336850839721007	
5.735	-0.323	-0.1799493199231924	
5.74	-0.348	-0.19395575899785983	
5.745	-0.087	-0.20824058870036286	
5.75	-0.258	-0.22582964080931714	
5.755	-0.435	-0.24062229435584115	
5.76	-0.186	-0.25108511621679397	
5.765	-0.177	-0.2630251139982747	
5.77	-0.427	-0.2737484065870097	
5.775	-0.270	-0.2751873104198939	
5.78	-0.104	-0.2733534389474188	
5.785	-0.387	-0.2759194065055778	
5.79	-0.415	-0.27801228584648	
5.795	-0.136	-0.2812095772817753	
5.8	-0.215	-0.285787179215201	
5.805	-0.233	-0.27269101290297837	
5.81	0.526	-0.2090061509832477	
5.815	0.797	-0.07286344851684019	
5.82	0.189	-0.2733534389474188	
5.825	0.152	-0.2733534389474188	
5.83	-0.002	-0.2733534389474188	
5.835	-0.460	-0.27269101290297837	
5.84	-0.558	0.10384914003597598	
5.845	-0.319	-0.05914235629347803	
5.85	-0.413	-0.2166775540940046	
5.855	-0.515	-0.33077487552049656	
5.86	-0.209	-0.3880443264240079	
5.865	-0.134	-0.4018100550035436	
5.87	-0.367	-0.38290311903508356	
5.875	-0.180	-0.3372824068379318	
5.88	0.075	-0.28210228899886136	
5.885	-0.241	-0.22999621207793441	
5.89	-0.255	-0.1842412336466836	
5.895	0.117	-0.14797943069481007	
5.9	-0.104	-0.12171434214438454	
5.905	-0.267	-0.10402066934116641	
5.91	0.130	-0.08493663611812305	
5.915	0.227	-0.05767089867629285	
5.92	-0.157	-0.024141635798185034	
5.925	0.131	0.013684444262544067	
5.93	0.584	0.062157841193717665	
5.935	0.163	0.12691600408090672	
5.94	0.171	0.1935746045709547	
5.945	0.730	0.2572107222910823	
5.95	0.445	0.3223699670057374	
5.955	0.073	0.37276062555091066	
5.96	0.544	0.395052008568189	
5.965	0.526	0.40348358322867084	
5.97	-0.049	0.39478472204246084	
5.975	0.131	0.35753982879322954	
5.98	0.381	0.30121507920304347	
5.985	-0.113	0.24001421560061986	
5.99	-0.174	0.17248998800226345	
5.995	0.174	0.10412025049814423	
6.0	-0.064	0.0425060616424638	
6.005	-0.264	-0.007146831734231504	
6.01	0.046	-0.041088875135319856	
6.015	0.058	-0.06250146330476915	
6.02	-0.271	-0.07702955565877964	
6.025	-0.136	-0.08453513117224255	
6.03	0.119	-0.09089830436139432	
6.035	-0.226	-0.09783227811819739	
6.04	-0.264	-0.10248577419179691	
6.045	0.049	-0.10904004179538598	
6.05	-0.159	-0.12043494008794363	
6.055	-0.363	-0.13405937487533598	
6.06	-0.165	-0.15022111986054332	
6.065	-0.183	-0.17853338602319233	
6.07	-0.427	-0.21292176595242612	
6.075	-0.285	-0.23856459370463423	
6.08	-0.120	-0.2569502923994189	
6.085	-0.393	-0.27578525164994805	
6.09	-0.421	-0.28748036217807904	
6.095	-0.145	-0.29404836441110904	
6.1	-0.274	-0.3024220057107312	
6.105	-0.436	-0.3040874920037393	
6.11	-0.186	-0.29617968726785443	
6.115	-0.175	-0.2904827260449815	
6.12	-0.448	-0.2890278509402324	
6.125	-0.303	-0.28456946392887517	
6.13	-0.023	-0.27881104718811467	
6.135	-0.175	-0.2628722387385829	
6.14	0.001	-0.21655434875067464	
6.145	0.675	-0.11981582510476904	
6.15	0.299	-0.27881104718811467	
6.155	-0.207	-0.27881104718811467	
6.16	-0.143	-0.2628722387385829	
6.165	-0.252	0.10265492263672152	
6.17	-0.573	-0.009228344215768009	
6.175	-0.448	-0.1336042366954564	
6.18	-0.209	-0.2465671671232686	
6.185	-0.390	-0.3289558766126477	
6.19	-0.381	-0.3647220937987025	
6.195	-0.058	-0.360634147905325	
6.2	-0.110	-0.33339819866871623	
6.205	-0.201	-0.28253385074393966	
6.21	0.334	-0.19887393298398268	
6.215	0.469	-0.08514663337589742	
6.22	-0.011	0.03345203377345489	
6.225	0.279	0.13437075045337507	
6.23	0.628	0.21472711579639558	
6.235	0.148	0.2768200661070508	
6.24	0.076	0.3100017817942675	
6.245	0.631	0.32364603253339846	
6.25	0.392	0.3346785152783375	
6.255	0.044	0.34413488189921637	
6.26	0.576	0.3501716167251469	
6.265	0.666	0.36609477141523533	
6.27	0.139	0.3903056438794814	
6.275	0.387	0.406247756835088	
6.28	0.724	0.41591997615579496	
6.285	0.221	0.4238680469704537	
6.29	0.113	0.41584106571078333	
6.295	0.598	0.3946631984661432	
6.3	0.303	0.37081328056975915	
6.305	-0.102	0.340079035245886	
6.31	0.261	0.2940368530306936	
6.315	0.261	0.24116539528107134	
6.32	-0.195	0.18641882037540236	
6.325	-0.056	0.1311331145151696	
6.33	0.241	0.07885395939681769	
6.335	-0.172	0.034047244099971875	
6.34	-0.200	-0.00014106447103468748	
6.345	0.210	-0.022503209618729477	
6.35	-0.052	-0.03609217352312745	
6.355	-0.265	-0.04578481543621213	
6.36	0.030	-0.052117786125374654	
6.365	0.085	-0.05786337585589937	
6.37	-0.270	-0.06440595642903496	
6.375	-0.156	-0.06994897227021295	
6.38	0.064	-0.08127632715620903	
6.385	-0.250	-0.09981434707248488	
6.39	-0.314	-0.11812351256666977	
6.395	-0.055	-0.1376593742439846	
6.4	-0.238	-0.16603518564682518	
6.405	-0.462	-0.19769815710305078	
6.41	-0.250	-0.22621696341625033	
6.415	-0.220	-0.26087564350798825	
6.42	-0.480	-0.2943301836176341	
6.425	-0.363	-0.3139675123378674	
6.43	-0.163	-0.3262793162412952	
6.435	-0.389	-0.33680043971318974	
6.44	-0.419	-0.3361448998924847	
6.445	-0.153	-0.3266033285436162	
6.45	-0.288	-0.32203311171778004	
6.455	-0.456	-0.3168001610277497	
6.46	-0.139	-0.3031268554834713	
6.465	0.133	-0.2747677326118676	
6.47	-0.063	-0.218481435155866	
6.475	0.325	-0.12094652777045076	
6.48	0.608	-0.27155079211160194	
6.485	-0.082	-0.26775867310120033	
6.49	-0.317	0.1666053951332197	
6.495	-0.156	0.1295859585571567	
6.5	-0.340	0.029018128354072418	
6.505	-0.534	-0.0920542057103098	
6.51	-0.258	-0.1950092620587093	
6.515	-0.139	-0.27155079211160194	
6.52	-0.348	-0.31172585891189836	
6.525	-0.182	-0.30601962992707077	
6.53	0.197	-0.26775867310120033	
6.535	-0.078	-0.21005668581719944	
6.54	-0.058	-0.13554287508414953	
6.545	0.535	-0.047058883860762235	
6.55	0.363	0.05407098209914364	
6.555	0.001	0.14955608342125104	
6.56	0.495	0.22512285969235754	
6.565	0.617	0.2876943124114495	
6.57	0.122	0.3379218086751804	
6.575	0.415	0.3748648785787223	
6.58	0.811	0.40758694613111374	
6.585	0.340	0.4418328363611607	
6.59	0.227	0.4631644491790584	
6.595	0.791	0.4741538983533721	
6.6	0.622	0.48921019857106235	
6.605	0.287	0.5103200040732958	
6.61	0.819	0.5361516922163518	
6.615	0.956	0.5759229675615651	
6.62	0.495	0.624821833748801	
6.625	0.767	0.6747273722416688	
6.63	1.203	0.7267392669071353	
6.635	0.738	0.7808942371465921	
6.64	0.663	0.8250059804328793	
6.645	1.250	0.8601603996350697	
6.65	1.075	0.8993569598296545	
6.655	0.726	0.9392536205030314	
6.66	1.245	0.9770172306519636	
6.665	1.341	1.0180300013744805	
6.67	0.791	1.05590510966337	
6.675	1.021	1.0765492776451988	
6.68	1.473	1.0897055920995404	
6.685	1.096	1.1121201729734467	
6.69	1.041	1.141965618073929	
6.695	1.599	1.1789492760747342	
6.7	1.357	1.2225200306837603	
6.705	0.921	1.2563895482773606	
6.71	1.340	1.2677239300648266	
6.715	1.366	1.2610067144714066	
6.72	0.713	1.2342224964771908	
6.725	0.832	1.1743689280703218	
6.73	1.142	1.0944341553520802	
6.735	0.544	1.005457658952953	
6.74	0.213	0.895023438589288	
6.745	0.578	0.7594828099990807	
6.75	0.206	0.6117023545362876	
6.755	-0.201	0.4588018258365357	
6.76	0.029	0.30731290621562946	
6.765	0.068	0.16585339574759916	
6.77	-0.290	0.04882218698170184	
6.775	-0.210	-0.037732975108200846	
6.78	0.008	-0.1030575314318057	
6.785	-0.256	-0.1511094460084618	
6.79	-0.267	-0.17767901445958528	
6.795	0.282	-0.16903608205277082	
6.8	0.332	-0.11819309067297598	
6.805	-0.008	-0.03068374000844752	
6.81	0.280	0.059909778206134676	
6.815	0.038	0.11551609343509561	
6.82	-0.477	0.10428151812987413	
6.825	-0.503	0.026165675769764182	
6.83	-0.361	-0.09855574786035305	
6.835	-0.575	-0.23874514614473918	
6.84	-0.592	-0.3554062810747804	
6.845	-0.276	-0.430545833369879	
6.85	-0.331	-0.4681548572936788	
6.855	-0.497	-0.46922132032293407	
6.86	-0.249	-0.4423758567316217	
6.865	-0.171	-0.4066776032220584	
6.87	-0.433	-0.37123162507472607	
6.875	-0.334	-0.33684425781526955	
6.88	-0.114	-0.3109446650570169	
6.885	-0.340	-0.2955036024531308	
6.89	-0.401	-0.284232851265825	
6.895	-0.105	-0.2729356360025435	
6.9	-0.198	-0.26614662115446586	
6.905	-0.403	-0.257917603254359	
6.91	-0.160	-0.24759885256249406	
6.915	-0.072	-0.2378407557270947	
6.92	-0.337	-0.2289271208174759	
6.925	-0.213	-0.21586542546828502	
6.93	0.114	-0.19619454638841374	
6.935	-0.186	-0.17130710410401412	
6.94	-0.271	-0.14710955837656517	
6.945	0.020	-0.13021092796967543	
6.95	-0.153	-0.1271132345736561	
6.955	-0.392	-0.13669156292255824	
6.96	-0.186	-0.15478832938245898	
6.965	-0.154	-0.1819542436822425	
6.97	-0.464	-0.21668221970044432	
6.975	-0.409	-0.2509149288987826	
6.98	-0.232	-0.2884105464942993	
6.985	-0.479	-0.3281418913263483	
6.99	-0.570	-0.3640029452089224	
6.995	-0.329	-0.39440549929809077	
7.0	-0.436	-0.4240708338191085	
7.005	-0.640	-0.44851851735630177	
7.01	-0.433	-0.46490325447754116	
7.015	-0.372	-0.4780196074611822	
7.02	-0.633	-0.4895341791997395	
7.025	-0.549	-0.4949373812553233	
7.03	-0.361	-0.4995155214604324	
7.035	-0.624	-0.5100663482219414	
7.04	-0.720	-0.5239770472616975	
7.045	-0.474	-0.541492165934444	
7.05	-0.576	-0.5640445422201603	
7.055	-0.791	-0.5854765363065657	
7.06	-0.598	-0.6029543975447631	
7.065	-0.555	-0.6220191776178079	
7.07	-0.826	-0.6435086973304442	
7.075	-0.752	-0.6609634664954791	
7.08	-0.569	-0.6785023398405612	
7.085	-0.784	-0.6970513802694109	
7.09	-0.854	-0.7120044117109702	
7.095	-0.595	-0.7194545928207622	
7.1	-0.659	-0.7260228321142439	
7.105	-0.860	-0.7265464884186359	
7.11	-0.675	-0.7209209831104959	
7.115	-0.617	-0.7199520976685636	
7.12	-0.819	-0.7226115334673295	
7.125	-0.599	-0.7109627494229229	
7.13	-0.151	-0.6713277776164737	
7.135	-0.119	-0.58809918422795	
7.14	-0.149	-0.4581007104915401	
7.145	0.123	-0.648291044241432	
7.15	-0.339	-0.20707989559781592	
7.155	-0.774	-0.18082911795294024	
7.16	-0.688	-0.23982760165466657	
7.165	-0.650	-0.3587968336591486	
7.17	-0.854	-0.4928302868113907	
7.175	-0.691	-0.5969567970675755	
7.18	-0.409	-0.6560630306834111	
7.185	-0.549	-0.6722771189954363	
7.19	-0.572	-0.648291044241432	
7.195	-0.262	-0.5959760512849335	
7.2	-0.325	-0.5370088883379096	
7.205	-0.511	-0.4780976169105842	
7.21	-0.253	-0.42159264227273024	
7.215	-0.153	-0.374568645311146	
7.22	-0.401	-0.3372242698125499	
7.225	-0.274	-0.3020064075801624	
7.23	0.049	-0.26668258337697426	
7.235	-0.215	-0.23253427966429288	
7.24	-0.258	-0.19659341668805747	
7.245	0.238	-0.1545517364914231	
7.25	0.174	-0.09895072417035151	
7.255	-0.120	-0.03655084132312908	
7.26	0.381	0.030634383143011118	
7.265	0.588	0.10977623823438222	
7.27	0.068	0.19137214574890446	
7.275	0.250	0.25387193422830956	
7.28	0.646	0.29773574881239784	
7.285	0.143	0.32732567835678816	
7.29	-0.073	0.326060568909652	
7.295	0.381	0.29470093806739195	
7.3	0.120	0.2501857959369355	
7.305	-0.247	0.194139670294472	
7.31	0.038	0.13065077107333078	
7.315	0.148	0.07002050850961716	
7.32	-0.268	0.017252498201221825	
7.325	-0.175	-0.0252420821950452	
7.33	0.189	-0.05706434765097199	
7.335	-0.174	-0.07563212723552099	
7.34	-0.261	-0.0850843749708623	
7.345	0.158	-0.08721038992024321	
7.35	0.011	-0.08169668883516149	
7.355	-0.273	-0.07198626903901656	
7.36	0.011	-0.06338027430819249	
7.365	0.133	-0.057852874094729625	
7.37	-0.274	-0.056809567013099055	
7.375	-0.204	-0.06134855987230049	
7.38	0.090	-0.07597437297062215	
7.385	-0.239	-0.09561432184493107	
7.39	-0.337	-0.11719452670943663	
7.395	-0.026	-0.1371669113198217	
7.4	-0.157	-0.15863126948059342	
7.405	-0.410	-0.18008016081964084	
7.41	-0.201	-0.19537374278698563	
7.415	-0.107	-0.21475242574600728	
7.42	-0.390	-0.2338887990338015	
7.425	-0.300	-0.24237970152182628	
7.43	-0.026	-0.24382420209076267	
7.435	-0.303	-0.2456738566159668	
7.44	-0.425	-0.24533080794822568	
7.445	-0.148	-0.2470019902017091	
7.45	-0.197	-0.257597500636516	
7.455	-0.296	-0.2582952481147752	
7.46	0.447	-0.21120259029309932	
7.465	1.201	-0.07046980015740685	
7.47	0.892	0.1709195890725634	
7.475	0.878	-0.24237970152182628	
7.48	0.767	-0.24382420209076267	
7.485	-0.197	-0.21590969115038183	
7.49	-0.496	-0.21120259029309932	
7.495	-0.310	0.41021332976740443	
7.5	-0.390	0.14250796292677295	
7.505	-0.547	-0.09652235050770597	
7.51	-0.256	-0.2601211479372263	
7.515	-0.066	-0.3493210592888319	
7.52	-0.308	-0.37432972786030305	
7.525	-0.207	-0.3454857217774202	
7.53	0.210	-0.2852561314904578	
7.535	-0.117	-0.21590969115038183	
7.54	-0.192	-0.1467799821257052	
7.545	0.312	-0.08047734206481424	
7.55	0.190	-0.01845204256243131	
7.555	-0.166	0.0350564958251819	
7.56	0.256	0.07696245504315578	
7.565	0.492	0.11693598324074934	
7.57	0.001	0.1583352759324262	
7.575	0.213	0.19537705422204193	
7.58	0.750	0.23810776720980886	
7.585	0.444	0.29702313849619033	
7.59	0.334	0.36694052701808383	
7.595	0.956	0.4437542883121169	
7.6	0.826	0.527688054514123	
7.605	0.341	0.6017750323718534	
7.61	0.730	0.6469613818025486	
7.615	0.835	0.6671446805439474	
7.62	0.192	0.6591958342052981	
7.625	0.261	0.6152226512028384	
7.63	0.630	0.5482538046313388	
7.635	0.122	0.47306203315195927	
7.64	-0.095	0.38877850438541206	
7.645	0.376	0.30476546579032593	
7.65	0.187	0.2318370400274398	
7.655	-0.186	0.17375129886911195	
7.66	0.160	0.1288783203583755	
7.665	0.346	0.10125784765447526	
7.67	-0.148	0.08629949669552348	
7.675	-0.067	0.07611396157153585	
7.68	0.376	0.06722927876689697	
7.685	-0.038	0.06321115276314608	
7.69	-0.177	0.0597426595004096	
7.695	0.267	0.055624642487038384	
7.7	0.105	0.0509328831835516	
7.705	-0.233	0.044823458314743686	
7.71	0.035	0.035711096823123664	
7.715	0.166	0.020243617013874532	
7.72	-0.261	-0.0005500401023917368	
7.725	-0.220	-0.023969737231709934	
7.73	0.053	-0.054881912663106734	
7.735	-0.255	-0.09366104316927291	
7.74	-0.372	-0.12922867358755807	
7.745	-0.058	-0.15749354195372417	
7.75	-0.145	-0.1850164637170124	
7.755	-0.395	-0.2041006925838205	
7.76	-0.165	-0.21034948468578293	
7.765	-0.047	-0.2137564948672299	
7.77	-0.375	-0.22051424745581882	
7.775	-0.314	-0.22099289943778	
7.78	0.026	-0.2188482886839014	
7.785	-0.127	-0.21265101580760848	
7.79	0.000	-0.17626814767775947	
7.795	0.912	-0.07536547359303183	
7.8	0.831	0.09708282514268982	
7.805	0.128	0.28271133422699124	
7.81	0.126	-0.21265101580760848	
7.815	-0.085	-0.21265101580760848	
7.82	-0.529	0.2704102322061764	
7.825	-0.526	0.0988954801399715	
7.83	-0.277	-0.08272422124008653	
7.835	-0.409	-0.2425828446285649	
7.84	-0.435	-0.3423825348305083	
7.845	-0.044	-0.3753494203204122	
7.85	-0.064	-0.36186359325915785	
7.855	-0.296	-0.3173495683390288	
7.86	-0.014	-0.25033095944410017	
7.865	0.227	-0.1794772703325386	
7.87	-0.175	-0.11473997762083504	
7.875	-0.084	-0.05717077002559265	
7.88	0.381	-0.010497056518607025	
7.885	0.017	0.02928752301727598	
7.89	-0.110	0.06134438243784898	
7.895	0.451	0.09285363308361058	
7.9	0.373	0.13122982913149145	
7.905	-0.041	0.17234579596547664	
7.91	0.456	0.21272723457630774	
7.915	0.729	0.2637908218725731	
7.92	0.242	0.32407887812825914	
7.925	0.407	0.38168875209077785	
7.93	0.905	0.43775174105788717	
7.935	0.483	0.49129763795729586	
7.94	0.213	0.5271020155757484	
7.945	0.701	0.5369214850002966	
7.95	0.523	0.5283769164686645	
7.955	-0.023	0.4981927958787266	
7.96	0.309	0.4466310330648914	
7.965	0.476	0.3839381176160589	
7.97	-0.078	0.32109525878478773	
7.975	-0.006	0.2595534330700516	
7.98	0.454	0.20480095486917538	
7.985	0.041	0.1654296606307949	
7.99	-0.136	0.13804543004243713	
7.995	0.331	0.1198625898200723	
8.0	0.212	0.10849582600565139	
8.005	-0.168	0.1032359120697742	
8.01	0.161	0.10152817836951375	
8.015	0.361	0.1019642215981405	
8.02	-0.136	0.1021865636875709	
8.025	-0.067	0.09746923554762252	
8.03	0.361	0.08873506992354885	
8.035	-0.032	0.07952952736027599	
8.04	-0.174	0.06903659805304213	
8.045	0.273	0.06175346992745182	
8.05	0.137	0.057565566545700185	
8.055	-0.258	0.05029833889070914	
8.06	-0.066	0.03539573816227366	
8.065	0.096	0.003952520835606194	
8.07	-0.265	-0.03368427015670195	
8.075	-0.207	-0.06257802478761373	
8.08	0.180	-0.08133217771535545	
8.085	-0.145	-0.09237317646648577	
8.09	-0.265	-0.09495446057635346	
8.095	0.111	-0.08932668228265675	
8.1	-0.027	-0.08639589443143678	
8.105	-0.326	-0.0886753345186426	
8.11	-0.114	-0.09264252524891325	
8.115	0.175	-0.09800577639210853	
8.12	-0.067	-0.09066130106612635	
8.125	0.363	-0.03859695890819161	
8.13	1.059	0.08076941398537237	
8.135	0.613	-0.0886753345186426	
8.14	0.093	-0.0886753345186426	
8.145	0.288	-0.08639589443143678	
8.15	-0.058	-0.07226761376947388	
8.155	-0.399	0.3112585337793358	
8.16	-0.218	0.16528759552087874	
8.165	-0.035	0.01911225771548901	
8.17	-0.287	-0.0986364008937066	
8.175	-0.209	-0.16271531898669392	
8.18	0.230	-0.17820489389661037	
8.185	-0.063	-0.16227865857658513	
8.19	-0.180	-0.12515527019291148	
8.195	0.323	-0.07226761376947388	
8.2	0.268	-0.012197439880348743	
8.205	-0.136	0.0451217640135966	
8.21	0.229	0.09327058443615463	
8.215	0.474	0.1332615294165782	
8.22	-0.011	0.16622737167345852	
8.225	0.113	0.19111644238353362	
8.23	0.623	0.21395306085124602	
8.235	0.279	0.2437607999650565	
8.24	0.052	0.27364473806968026	
8.245	0.642	0.3007744471113813	
8.25	0.575	0.3339616668942454	
8.255	0.123	0.369016704846135	
8.26	0.552	0.3991816987723849	
8.265	0.770	0.4294040474565329	
8.27	0.180	0.45425577399510436	
8.275	0.212	0.45695426929997457	
8.28	0.665	0.4409559798793503	
8.285	0.226	0.414902263508498	
8.29	-0.069	0.3765727128310728	
8.295	0.390	0.32663512112137394	
8.3	0.271	0.2740894218981331	
8.305	-0.166	0.22511404608776045	
8.31	0.120	0.18000476415819383	
8.315	0.355	0.1413976409267421	
8.32	-0.128	0.11247331421213835	
8.325	-0.072	0.09188821034141725	
8.33	0.358	0.07680330677623126	
8.335	-0.017	0.06607798551706415	
8.34	-0.178	0.05865103502525597	
8.345	0.274	0.055435141005374174	
8.35	0.203	0.05713958148043947	
8.355	-0.194	0.062286224609658776	
8.36	0.099	0.06684411064712502	
8.365	0.332	0.06930665884164317	
8.37	-0.151	0.07067343488628118	
8.375	-0.116	0.06583982346609707	
8.38	0.308	0.05661041180217478	
8.385	-0.069	0.044233972183713235	
8.39	-0.236	0.02874645232669691	
8.395	0.116	0.012207190695766552	
8.4	0.017	-0.009832869602798973	
8.405	-0.293	-0.03350958433090736	
8.41	-0.101	-0.052302478295157516	
8.415	0.123	-0.07179745584007186	
8.42	-0.233	-0.08811626959271099	
8.425	-0.207	-0.09316805061271265	
8.43	0.133	-0.09355782372235885	
8.435	-0.174	-0.09966254029108262	
8.44	-0.308	-0.10517376455404916	
8.445	0.073	-0.10691256015973205	
8.45	0.229	-0.09580326314922605	
8.455	0.097	-0.05238851326104186	
8.46	0.738	0.04868286880620336	
8.465	0.963	0.20520864444584586	
8.47	0.210	-0.09316805061271265	
8.475	-0.089	-0.09355782372235885	
8.48	0.075	-0.09355782372235885	
8.485	-0.264	0.29743712676868084	
8.49	-0.432	0.1468088062910172	
8.495	-0.140	0.003002722915761381	
8.5	-0.117	-0.11870607919496218	
8.505	-0.320	-0.19735306553790477	
8.51	-0.093	-0.22144297120095463	
8.515	0.174	-0.20977060041132733	
8.52	-0.180	-0.1779972756164585	
8.525	-0.125	-0.1322898872343539	
8.53	0.335	-0.08056004054871156	
8.535	0.020	-0.031535235737917486	
8.54	-0.145	0.010705766061255683	
8.545	0.361	0.05003949372268147	
8.55	0.332	0.09035561677504708	
8.555	-0.110	0.12648483563656093	
8.56	0.194	0.1524899655811315	
8.565	0.483	0.17036760809653137	
8.57	0.047	0.18795959501290288	
8.575	0.160	0.20658285219736097	
8.58	0.732	0.23755685296164397	
8.585	0.444	0.2875597300786159	
8.59	0.161	0.3425712030227328	
8.595	0.681	0.3890015433471651	
8.6	0.610	0.4274803888592461	
8.605	0.093	0.45045794444436954	
8.61	0.408	0.45136450384742255	
8.615	0.639	0.43843005011766045	
8.62	0.073	0.41605760196980063	
8.625	0.070	0.3794561527658755	
8.63	0.517	0.3334676421622491	
8.635	0.119	0.2897136146789896	
8.64	-0.134	0.24459115131366005	
8.645	0.302	0.19982695434418396	
8.65	0.241	0.16257430627809097	
8.655	-0.171	0.13364207728111546	
8.66	0.067	0.11019859349638904	
8.665	0.328	0.09035021233176704	
8.67	-0.122	0.07530568544354424	
8.675	-0.085	0.06542512282198193	
8.68	0.393	0.062247928008990386	
8.685	0.061	0.06788973610110348	
8.69	-0.148	0.07571948581956245	
8.695	0.271	0.08356460942677602	
8.7	0.189	0.08758655083205596	
8.705	-0.203	0.08588048565666688	
8.71	-0.003	0.07501727260575233	
8.715	0.200	0.05419747943210053	
8.72	-0.238	0.02556574889803572	
8.725	-0.250	-0.006593698881713097	
8.73	0.062	-0.04401960925575731	
8.735	-0.178	-0.08394686734336554	
8.74	-0.329	-0.11611069261029043	
8.745	-0.038	-0.1356727274666492	
8.75	-0.058	-0.15142111625930493	
8.755	-0.325	-0.16288060875646987	
8.76	-0.148	-0.1620877531882548	
8.765	0.011	-0.16093258027856971	
8.77	-0.313	-0.1662681258585524	
8.775	-0.300	-0.16958004642212998	
8.78	0.133	-0.16714325219455334	
8.785	0.125	-0.14685449724352234	
8.79	0.238	-0.0800239768183508	
8.795	0.959	0.05429014081976574	
8.8	0.841	0.23862002543669866	
8.805	-0.005	-0.16093258027856971	
8.81	-0.107	-0.16093258027856971	
8.815	-0.139	-0.14685449724352234	
8.82	-0.476	0.21684180079255988	
8.825	-0.474	0.03536017404040604	
8.83	-0.180	-0.12518860702452586	
8.835	-0.284	-0.2487324488574276	
8.84	-0.372	-0.31403845982607737	
8.845	-0.031	-0.321834663347849	
8.85	0.009	-0.2963213639241248	
8.855	-0.267	-0.25080375363874635	
8.86	-0.072	-0.1942334400021256	
8.865	0.187	-0.14088732347467361	
8.87	-0.177	-0.09818416552328364	
8.875	-0.146	-0.06371027311176208	
8.88	0.315	-0.03312639931536251	
8.885	0.040	-0.003762170279187623	
8.89	-0.136	0.0248048240829536	
8.895	0.357	0.055214061896839355	
8.9	0.389	0.09377312345563535	
8.905	-0.024	0.1380680594047697	
8.91	0.378	0.18273284868506984	
8.915	0.727	0.23827289703401033	
8.92	0.251	0.3017977466575363	
8.925	0.276	0.35715107701571636	
8.93	0.751	0.39893268307126933	
8.935	0.402	0.43133006653181166	
8.94	0.062	0.442693875156576	
8.945	0.534	0.4311246143857135	
8.95	0.468	0.4088873628917773	
8.955	-0.076	0.37810907852958126	
8.96	0.131	0.3295668501078626	
8.965	0.360	0.269256334938445	
8.97	-0.125	0.20797720203489783	
8.975	-0.146	0.14810228383980284	
8.98	0.244	0.09177899148964701	
8.985	-0.063	0.0454934673502261	
8.99	-0.244	0.00782340066017873	
8.995	0.117	-0.01607193899535396	
9.0	0.082	-0.03210640508259621	
9.005	-0.253	-0.04066527457901552	
9.01	-0.056	-0.04554236574283198	
9.015	0.209	-0.046884007557325635	
9.02	-0.197	-0.04581958243949438	
9.025	-0.206	-0.045885985747439254	
9.03	0.146	-0.04944550371075021	
9.035	-0.127	-0.05940047664226286	
9.04	-0.297	-0.07104025629173333	
9.045	-0.011	-0.08327809878516818	
9.05	-0.047	-0.10013382553098485	
9.055	-0.351	-0.1194635700632357	
9.06	-0.215	-0.13664137490723943	
9.065	-0.066	-0.159023505072328	
9.07	-0.354	-0.18766054514278785	
9.075	-0.360	-0.21084885156198865	
9.08	-0.084	-0.2265835344214406	
9.085	-0.253	-0.24434296024021887	
9.09	-0.403	-0.25295736380800427	
9.095	-0.154	-0.25234867315502396	
9.1	-0.206	-0.2561467983106529	
9.105	-0.476	-0.26843523159032956	
9.11	-0.265	-0.2756499497017775	
9.115	0.175	-0.2669731338286736	
9.12	0.187	-0.2156315699543259	
9.125	0.697	-0.08383084624528928	
9.13	1.328	0.13955106529933772	
9.135	0.768	0.3996400942793231	
9.14	-0.102	-0.25234867315502396	
9.145	-0.125	-0.25234867315502396	
9.15	-0.311	-0.23294178229732898	
9.155	-0.630	0.2295066388991438	
9.16	-0.470	-0.003719820677424107	
9.165	-0.261	-0.20184445201140463	
9.17	-0.451	-0.3436124790192907	
9.175	-0.403	-0.4129784053851261	
9.18	-0.078	-0.42343586419190005	
9.185	-0.213	-0.40025238165703636	
9.19	-0.342	-0.3551751436585235	
9.195	-0.012	-0.29328030842097896	
9.2	0.049	-0.23294178229732898	
9.205	-0.249	-0.17765635026073023	
9.21	-0.034	-0.12472943247841187	
9.215	0.293	-0.07670178789604414	
9.22	-0.107	-0.03380495495970843	
9.225	-0.078	0.003856925047177252	
9.23	0.476	0.0397854526216568	
9.235	0.253	0.08774374273521596	
9.24	0.032	0.1415801018722237	
9.245	0.649	0.20185933913887316	
9.25	0.735	0.2802351741529394	
9.255	0.261	0.3671406796869982	
9.26	0.558	0.4412079771583898	
9.265	0.844	0.49848163582710875	
9.27	0.300	0.5371441801689092	
9.275	0.226	0.5436983103376771	
9.28	0.680	0.521845798646567	
9.285	0.305	0.486822299861752	
9.29	-0.067	0.43548814752205	
9.295	0.360	0.3707816175984037	
9.3	0.296	0.3043121606484667	
9.305	-0.171	0.24220283935189724	
9.31	0.021	0.1801206445450637	
9.315	0.325	0.12647029060041423	
9.32	-0.120	0.08630663883854037	
9.325	-0.130	0.057701753059847066	
9.33	0.326	0.04071340800236445	
9.335	0.027	0.03493453766949836	
9.34	-0.192	0.03360623795384041	
9.345	0.207	0.03561008821551802	
9.35	0.206	0.040294439810644345	
9.355	-0.223	0.044395507203319	
9.36	-0.076	0.038002869513500154	
9.365	0.160	0.01830324119036699	
9.37	-0.238	-0.00950142402205957	
9.375	-0.259	-0.039262143490608734	
9.38	0.065	-0.06852314465730032	
9.385	-0.172	-0.09897681632801007	
9.39	-0.363	-0.12621313158554281	
9.395	-0.101	-0.14657923348699248	
9.4	-0.110	-0.16977449201293382	
9.405	-0.393	-0.1923864845113666	
9.41	-0.241	-0.2060329453125476	
9.415	-0.041	-0.21584072983982144	
9.42	-0.317	-0.22537734053758188	
9.425	-0.342	-0.22720329870158784	
9.43	-0.096	-0.22664844655991437	
9.435	-0.291	-0.23796879320193853	
9.44	-0.435	-0.2511456570568317	
9.445	-0.056	-0.25260149200213927	
9.45	0.315	-0.22575700202185273	
9.455	0.273	-0.14132393320305126	
9.46	0.823	0.018016581720094453	
9.465	1.070	-0.22537734053758188	
9.47	0.158	-0.22575700202185273	
9.475	-0.250	-0.22664844655991437	
9.48	-0.178	-0.22664844655991437	
9.485	-0.430	0.2560811669249926	
9.49	-0.613	0.04481701387737919	
9.495	-0.322	-0.14261032987657357	
9.5	-0.246	-0.286684864874646	
9.505	-0.456	-0.3733543505826083	
9.51	-0.258	-0.3970666940512432	
9.515	-0.023	-0.38075674646690494	
9.52	-0.293	-0.3453867588507308	
9.525	-0.282	-0.29630334490040267	
9.53	0.099	-0.2425397251912006	
9.535	-0.105	-0.19492108582119266	
9.54	-0.271	-0.15432202475270546	
9.545	0.107	-0.11554938626658456	
9.55	0.168	-0.07863063623320046	
9.555	-0.206	-0.044566584133553744	
9.56	0.012	-0.016101200845531363	
9.565	0.407	0.01242907717508164	
9.57	-0.003	0.046513881696619415	
9.575	0.038	0.08355496826912504	
9.58	0.642	0.12964662664726528	
9.585	0.387	0.1921433344589691	
9.59	0.064	0.25448459424499825	
9.595	0.588	0.30547396353064515	
9.6	0.562	0.3475161078560648	
9.605	-0.034	0.37233341310756407	
9.61	0.183	0.3617725888486767	
9.615	0.471	0.3275220760335919	
9.62	-0.089	0.2825840517241928	
9.625	-0.156	0.2234302192965506	
9.63	0.253	0.15657843915790348	
9.635	-0.049	0.09428328989338415	
9.64	-0.261	0.039525701726552176	
9.645	0.067	-0.0016730880342505842	
9.65	0.081	-0.03242889822002548	
9.655	-0.282	-0.05448655457726886	
9.66	-0.130	-0.06832686982038347	
9.665	0.161	-0.07956706525188703	
9.67	-0.198	-0.08523534104472412	
9.675	-0.213	-0.08556038990005509	
9.68	0.203	-0.07858422072779372	
9.685	-0.066	-0.0696257205788374	
9.69	-0.276	-0.06239095012419077	
9.695	0.037	-0.059840030223965696	
9.7	0.058	-0.06243146016750805	
9.705	-0.296	-0.06834041861741251	
9.71	-0.160	-0.07642779038751306	
9.715	0.065	-0.0906613411795272	
9.72	-0.279	-0.1100946733243048	
9.725	-0.322	-0.12856533468730472	
9.73	-0.035	-0.1487238908863353	
9.735	-0.212	-0.17254855961172127	
9.74	-0.403	-0.1933034929669261	
9.745	-0.136	-0.20693879448976982	
9.75	-0.110	-0.21943915877243925	
9.755	-0.380	-0.22824993688978112	
9.76	-0.244	-0.2284559822957639	
9.765	-0.084	-0.22869948577657281	
9.77	-0.370	-0.23806567348698165	
9.775	-0.358	-0.24456579168318593	
9.78	0.134	-0.2367013224837656	
9.785	0.207	-0.19850590546623817	
9.79	0.172	-0.11030905300978913	
9.795	0.758	0.028107881030857006	
9.8	0.617	-0.2266655892416418	
9.805	-0.218	-0.22824993688978112	
9.81	-0.264	-0.2266655892416418	
9.815	-0.201	0.2213585823319328	
9.82	-0.502	0.06495950374217806	
9.825	-0.518	-0.09563455239690634	
9.83	-0.200	-0.2266655892416418	
9.835	-0.277	-0.31944460775421457	
9.84	-0.398	-0.3603776431492926	
9.845	-0.078	-0.3519181049004113	
9.85	0.009	-0.3163175483367984	
9.855	-0.294	-0.266358180779827	
9.86	-0.137	-0.2115202029855453	
9.865	0.142	-0.16453782387927046	
9.87	-0.209	-0.12812088810147532	
9.875	-0.218	-0.1017182826396418	
9.88	0.241	-0.07856117677877214	
9.885	0.008	-0.05448587263808903	
9.89	-0.210	-0.031549929186465875	
9.895	0.212	-0.008842722260154088	
9.9	0.291	0.01977493740618075	
9.905	-0.131	0.04949813317788586	
9.91	0.151	0.07846350053712606	
9.915	0.569	0.11362452852697728	
9.92	0.123	0.15984591650947672	
9.925	0.068	0.20116149892619525	
9.93	0.585	0.23450889368461697	
9.935	0.259	0.2625821523499992	
9.94	-0.124	0.2713460350953657	
9.945	0.291	0.2550909578535283	
9.95	0.305	0.22686599901790178	
9.955	-0.192	0.1935381846329542	
9.96	-0.058	0.14934319432089987	
9.965	0.233	0.09859290288761402	
9.97	-0.185	0.04998702980548538	
9.975	-0.227	0.008152388135322085	
9.98	0.148	-0.026627478098799374	
9.985	-0.098	-0.053315975315291204	
9.99	-0.306	-0.07552016929152858	
9.995	0.003	-0.09004691449654176	
10.0	0.058	-0.09916658418174064	
10.005	-0.294	-0.10328379113101763	
10.01	-0.143	-0.10371112109386783	
10.015	0.131	-0.10454104987242319	
10.02	-0.239	-0.1058815773481342	
10.025	-0.265	-0.10780827213848153	
10.03	0.088	-0.10979336748792445	
10.035	-0.145	-0.1152658399942266	
10.04	-0.358	-0.12440496207695066	
10.045	-0.087	-0.1341787726080062	
10.05	-0.058	-0.1492090992766893	
10.055	-0.398	-0.16714678122569399	
10.06	-0.282	-0.18375991789617147	
10.065	-0.093	-0.2046389763119699	
10.07	-0.369	-0.23078580492017425	
10.075	-0.410	-0.2507766429551967	
10.08	-0.116	-0.2648762545093536	
10.085	-0.247	-0.27723560711734024	
10.09	-0.430	-0.28235279084255727	
10.095	-0.191	-0.27720697582126796	
10.1	-0.171	-0.27621960770583476	
10.105	-0.433	-0.28015038735001635	
10.11	-0.247	-0.27574370116803315	
10.115	0.204	-0.2535756186902759	
10.12	0.033	-0.20280389450730024	
10.125	0.190	-0.11079833640799054	
10.13	0.710	0.016230627259723476	
10.135	0.195	-0.25444587459708246	
10.14	-0.310	-0.25444587459708246	
10.145	-0.195	-0.2535756186902759	
10.15	-0.236	-0.24807600753830575	
10.155	-0.535	-0.030239300959479614	
10.16	-0.401	-0.15479088641909997	
10.165	-0.165	-0.25444587459708246	
10.17	-0.372	-0.3228294933551018	
10.175	-0.392	-0.34891513561928666	
10.18	-0.060	-0.34367612899640404	
10.185	-0.182	-0.3231929234388581	
10.19	-0.345	-0.290610779998802	
10.195	-0.044	-0.24807600753830575	
10.2	0.029	-0.20801400911241447	
10.205	-0.282	-0.17243682371310662	
10.21	-0.136	-0.13979188111775198	
10.215	0.210	-0.11226331194771172	
10.22	-0.185	-0.0890155033332159	
10.225	-0.203	-0.07006720495999878	
10.23	0.314	-0.04942617338884812	
10.235	0.082	-0.021204421479044666	
10.24	-0.168	0.009127758023543245	
10.245	0.320	0.04108214715295346	
10.25	0.424	0.08216268728169862	
10.255	-0.072	0.12732587578978466	
10.26	0.175	0.16116661724084386	
10.265	0.503	0.1869656649085218	
10.27	-0.005	0.2028973625814383	
10.275	-0.093	0.19975516779864677	
10.28	0.376	0.18070732669482065	
10.285	0.052	0.1568708240541743	
10.29	-0.241	0.12497159048848339	
10.295	0.091	0.08606773029315899	
10.3	0.137	0.047290009061596985	
10.305	-0.268	0.012294031905883405	
10.31	-0.139	-0.016915896283253355	
10.315	0.175	-0.04295488364629532	
10.32	-0.206	-0.06403857802752635	
10.325	-0.264	-0.07731252614175212	
10.33	0.143	-0.08628958781617041	
10.335	-0.061	-0.09105503458661046	
10.34	-0.279	-0.09005640262526705	
10.345	0.046	-0.08396224044726772	
10.35	0.126	-0.07566138491781194	
10.355	-0.261	-0.06772223144026955	
10.36	-0.111	-0.05995854968579515	
10.365	0.226	-0.053914229147720566	
10.37	-0.182	-0.050038316738258315	
10.375	-0.250	-0.04937048280364678	
10.38	0.122	-0.054264705009988735	
10.385	-0.105	-0.06603001839170003	
10.39	-0.325	-0.08211680543041383	
10.395	-0.047	-0.09495265469871976	
10.4	0.008	-0.11060372441370153	
10.405	-0.329	-0.12577760351783496	
10.41	-0.200	-0.1349761253004191	
10.415	0.101	-0.14082348269309364	
10.42	-0.239	-0.14507803321905594	
10.425	-0.299	-0.14444001155556452	
10.43	0.033	-0.14215191465170812	
10.435	-0.143	-0.14702351319672963	
10.44	-0.329	-0.15225738748718518	
10.445	0.090	-0.14284547974724526	
10.45	0.422	-0.10646633855147093	
10.455	0.142	-0.03192814952956297	
10.46	0.491	-0.1349761253004191	
10.465	0.767	-0.14082348269309364	
10.47	0.020	-0.14215191465170812	
10.475	-0.258	-0.10877425820179366	
10.48	-0.067	-0.10646633855147093	
10.485	-0.246	0.14903270847926803	
10.49	-0.439	0.010536746461437308	
10.495	-0.143	-0.10175446614481502	
10.5	-0.023	-0.18029901749443583	
10.505	-0.311	-0.22012816219615067	
10.51	-0.146	-0.22102295045082193	
10.515	0.239	-0.19437865781442668	
10.52	-0.143	-0.15429569745060645	
10.525	-0.185	-0.10877425820179366	
10.53	0.337	-0.06171063208464632	
10.535	0.134	-0.013940486594732165	
10.54	-0.165	0.02923092871093268	
10.545	0.311	0.06735797569642256	
10.55	0.419	0.10688875789958531	
10.555	-0.099	0.14258634081903873	
10.56	0.134	0.16488182752256092	
10.565	0.550	0.18289772029128587	
10.57	0.130	0.20262849890440018	
10.575	0.079	0.22400598859560494	
10.58	0.716	0.25248157839133245	
10.585	0.524	0.29818624040913727	
10.59	0.114	0.34901160200834036	
10.595	0.594	0.3893395173246648	
10.6	0.643	0.42007311497338173	
10.605	0.027	0.4325054079254498	
10.61	0.215	0.4157298268683801	
10.615	0.582	0.38301193637075115	
10.62	0.047	0.3437182275774935	
10.625	-0.092	0.29585385009857323	
10.63	0.410	0.24342683725985576	
10.635	0.165	0.1983482845746109	
10.64	-0.189	0.16101157679240818	
10.645	0.187	0.13018558363510707	
10.65	0.287	0.10516928776719553	
10.655	-0.182	0.08666291120985323	
10.66	-0.043	0.07159281999895872	
10.665	0.341	0.057947311230142066	
10.67	-0.096	0.04791019796770693	
10.675	-0.156	0.04183198517118279	
10.68	0.322	0.039256256676399995	
10.685	0.087	0.042465312390722015	
10.69	-0.226	0.04510496407037216	
10.695	0.110	0.04399601540034152	
10.7	0.189	0.036166239961512754	
10.705	-0.253	0.023840009999174534	
10.71	-0.149	0.006479624791836529	
10.715	0.174	-0.017176505234127993	
10.72	-0.209	-0.04291222001504539	
10.725	-0.310	-0.06615007611109325	
10.73	0.009	-0.0909361618771909	
10.735	-0.151	-0.1214580586637776	
10.74	-0.364	-0.1477541836392241	
10.745	-0.096	-0.16112615159740407	
10.75	-0.015	-0.1718736610911591	
10.755	-0.340	-0.17902748881796643	
10.76	-0.232	-0.17854123179272402	
10.765	0.026	-0.1772548186781044	
10.77	-0.279	-0.18186685739084973	
10.775	-0.316	-0.18312601915830184	
10.78	0.218	-0.1689415942217537	
10.785	0.309	-0.12541735655297134	
10.79	0.140	-0.03974313549146585	
10.795	0.623	-0.1689415942217537	
10.8	0.537	-0.1718736610911591	
10.805	-0.253	-0.1772548186781044	
10.81	-0.297	-0.1689415942217537	
10.815	-0.169	0.17477727495708517	
10.82	-0.445	0.02615806034752601	
10.825	-0.491	-0.11616540953894651	
10.83	-0.142	-0.22390133034092202	
10.835	-0.188	-0.2953886494108916	
10.84	-0.354	-0.31981335029475727	
10.845	-0.031	-0.2980871772979605	
10.85	0.140	-0.2517719004003469	
10.855	-0.244	-0.1961605508510596	
10.86	-0.107	-0.1375798136508423	
10.865	0.300	-0.08706728947783984	
10.87	-0.108	-0.04596964519999161	
10.875	-0.159	-0.01329223424363128	
10.88	0.375	0.015269434668916993	
10.885	0.171	0.047581706202190564	
10.89	-0.151	0.07594821436360175	
10.895	0.329	0.10301419281800854	
10.9	0.465	0.13537346147235035	
10.905	-0.049	0.1686494259667696	
10.91	0.259	0.19837991386222006	
10.915	0.751	0.23614883478012053	
10.92	0.329	0.28999921839576703	
10.925	0.190	0.34354553814104893	
10.93	0.674	0.38434994547595813	
10.935	0.454	0.4096629459110538	
10.94	-0.018	0.41482515256292257	
10.945	0.421	0.39696303938065325	
10.95	0.515	0.3704762319450664	
10.955	-0.095	0.3376590104246941	
10.96	0.033	0.29127160128472984	
10.965	0.419	0.23614047622795148	
10.97	-0.067	0.1860990249458629	
10.975	-0.168	0.1385308349859702	
10.98	0.311	0.09926444128906808	
10.985	0.097	0.07175987263273134	
10.99	-0.221	0.05393145167454694	
10.995	0.111	0.04183539318414861	
11.0	0.230	0.032443953742443875	
11.005	-0.182	0.026835404014614008	
11.01	-0.046	0.025230453663183605	
11.015	0.311	0.025994393225930293	
11.02	-0.134	0.024223625417725138	
11.025	-0.198	0.018588909142470092	
11.03	0.210	0.011087489921236416	
11.035	-0.026	-0.0012103625908743837	
11.04	-0.296	-0.01693592176889063	
11.045	-0.032	-0.034288295281461795	
11.05	0.041	-0.05761495965130716	
11.055	-0.334	-0.0850230311384361	
11.06	-0.230	-0.10780743232543416	
11.065	0.059	-0.12810589683192516	
11.07	-0.258	-0.14967614563918127	
11.075	-0.348	-0.1623756412558484	
11.08	-0.006	-0.16999996182678193	
11.085	-0.137	-0.18018180593069721	
11.09	-0.351	-0.18488688735678646	
11.095	-0.105	-0.17931272143088176	
11.1	-0.066	-0.1796170059047749	
11.105	-0.390	-0.18804352901157317	
11.11	-0.249	-0.19380588559134151	
11.115	0.287	-0.18402699566660063	
11.12	0.261	-0.13568678262160264	
11.125	0.495	-0.020382901233211362	
11.13	1.152	-0.16999996182678193	
11.135	0.761	-0.17931272143088176	
11.14	-0.128	-0.13568678262160264	
11.145	-0.105	-0.12219215588734737	
11.15	-0.172	-0.12088666962209872	
11.155	-0.488	0.21786532296382835	
11.16	-0.348	0.029186930015122327	
11.165	-0.032	-0.12088666962209872	
11.17	-0.247	-0.22075305938445075	
11.175	-0.262	-0.2584941995787856	
11.18	0.238	-0.24072971565499465	
11.185	0.090	-0.18816850589356104	
11.19	-0.186	-0.12219215588734737	
11.195	0.256	-0.050134127407135	
11.2	0.469	0.024610701111464198	
11.205	-0.031	0.09663174162146415	
11.21	0.190	0.157142749458925	
11.215	0.681	0.21030466150519198	
11.22	0.232	0.2610996634938217	
11.225	0.146	0.3043022083046626	
11.23	0.785	0.34443294717511286	
11.235	0.665	0.39489737750462806	
11.24	0.308	0.4536266231736751	
11.245	0.861	0.5158986313500176	
11.25	1.061	0.5877544821466698	
11.255	0.512	0.6615498274685567	
11.26	0.750	0.7220565142809339	
11.265	1.171	0.7693912304815693	
11.27	0.662	0.8061341570182445	
11.275	0.459	0.8182030076379387	
11.28	0.962	0.804388241464557	
11.285	0.689	0.7759731706972801	
11.29	0.155	0.7286289139739022	
11.295	0.540	0.660767622004035	
11.3	0.620	0.5837691125818765	
11.305	0.000	0.5067024555988564	
11.31	0.148	0.42597971057370054	
11.315	0.529	0.3502705391101424	
11.32	0.024	0.2873315005537846	
11.325	-0.114	0.23128414667229308	
11.33	0.410	0.1841636699607628	
11.335	0.195	0.15406541105661303	
11.34	-0.180	0.134878494871415	
11.345	0.181	0.11854911356841537	
11.35	0.343	0.10664430129309471	
11.355	-0.148	0.10103262613910971	
11.36	-0.061	0.09291650003845245	
11.365	0.294	0.07793182259569435	
11.37	-0.143	0.05657620422750745	
11.375	-0.252	0.030475414075058806	
11.38	0.088	-0.0002289903395950722	
11.385	-0.120	-0.03893150914910475	
11.39	-0.383	-0.07974677790817407	
11.395	-0.162	-0.11667674404858404	
11.4	-0.104	-0.15659841442233557	
11.405	-0.425	-0.19661558690762207	
11.41	-0.346	-0.22704374354387488	
11.415	-0.107	-0.25139903401159036	
11.42	-0.348	-0.2752573612279808	
11.425	-0.432	-0.28830143638470895	
11.43	-0.160	-0.29148024921528604	
11.435	-0.305	-0.30098173797670136	
11.44	-0.521	-0.314512758168949	
11.445	-0.182	-0.31775474848357044	
11.45	0.245	-0.29570739118696754	
11.455	0.229	-0.21841727745868786	
11.46	0.790	-0.05695599550268284	
11.465	1.174	0.17449794085316278	
11.47	0.329	-0.28830143638470895	
11.475	-0.264	-0.29148024921528604	
11.48	-0.218	-0.29570739118696754	
11.485	-0.448	-0.29570739118696754	
11.49	-0.691	0.06659090923765705	
11.495	-0.424	-0.14583944415800718	
11.5	-0.294	-0.31371871368036414	
11.505	-0.511	-0.4213141941255094	
11.51	-0.377	-0.4610425433065268	
11.515	-0.117	-0.4545926749998137	
11.52	-0.326	-0.4271160610450805	
11.525	-0.380	-0.38223105137839763	
11.53	-0.041	-0.32863350704953065	
11.535	-0.128	-0.2829382957444311	
11.54	-0.346	-0.24143411972365414	
11.545	-0.084	-0.20285130257922518	
11.55	0.072	-0.17173439994607304	
11.555	-0.271	-0.14743358444181814	
11.56	-0.142	-0.1230687904790567	
11.565	0.296	-0.09648821276298655	
11.57	-0.064	-0.06318733055352249	
11.575	-0.096	-0.02632530111906703	
11.58	0.540	0.022511619712257284	
11.585	0.415	0.09311251605038888	
11.59	-0.020	0.16841575765250666	
11.595	0.436	0.2281624769375168	
11.6	0.575	0.2753770435200956	
11.605	-0.026	0.3074999328805978	
11.61	0.088	0.3078282088325874	
11.615	0.445	0.2835483389673663	
11.62	-0.066	0.24487827081373514	
11.625	-0.200	0.19161422501387648	
11.63	0.206	0.1304115534472924	
11.635	-0.008	0.07318778348029123	
11.64	-0.284	0.021516268023676864	
11.645	-0.029	-0.018946334746394577	
11.65	0.090	-0.05264807853742466	
11.655	-0.282	-0.07832195903630987	
11.66	-0.194	-0.09419231380199099	
11.665	0.136	-0.10457595623113608	
11.67	-0.186	-0.11099558576398842	
11.675	-0.267	-0.11231294278588101	
11.68	0.136	-0.1057321096563193	
11.685	-0.032	-0.0977916029866776	
11.69	-0.311	-0.09137970613286081	
11.695	-0.067	-0.08905094896453614	
11.7	0.033	-0.09570111397619638	
11.705	-0.332	-0.10921731415344657	
11.71	-0.259	-0.12322518007304423	
11.715	-0.005	-0.14266024554334045	
11.72	-0.293	-0.1679308279867687	
11.725	-0.399	-0.1892875420634717	
11.73	-0.105	-0.20779771844869718	
11.735	-0.213	-0.22978269179871605	
11.74	-0.432	-0.24733925284268257	
11.745	-0.180	-0.25204276371003154	
11.75	-0.093	-0.25370178554418515	
11.755	-0.390	-0.25524752716842636	
11.76	-0.313	-0.2512051413063747	
11.765	-0.082	-0.24859755889144725	
11.77	-0.334	-0.25500727973918225	
11.775	-0.389	-0.2583400846182575	
11.78	0.062	-0.24764194022431388	
11.785	0.180	-0.2137706939509593	
11.79	0.134	-0.1374825443787306	
11.795	0.832	0.0011159639046566623	
11.8	0.910	-0.24764194022431388	
11.805	-0.011	-0.24764194022431388	
11.81	-0.192	-0.2137706939509593	
11.815	-0.111	-0.21231179859070004	
11.82	-0.439	0.1989419188617521	
11.825	-0.546	0.02147667703400191	
11.83	-0.215	-0.13647672290134452	
11.835	-0.236	-0.25866437310241475	
11.84	-0.416	-0.3266883222722444	
11.845	-0.120	-0.3388746681901317	
11.85	0.070	-0.31437809231226527	
11.855	-0.271	-0.2696060693114385	
11.86	-0.145	-0.21231179859070004	
11.865	0.291	-0.1521420247177765	
11.87	-0.085	-0.09517570385700713	
11.875	-0.177	-0.04772328436274348	
11.88	0.328	-0.00626241493335951	
11.885	0.209	0.03334890895173273	
11.89	-0.136	0.06899267757842084	
11.895	0.319	0.10321454109137605	
11.9	0.546	0.14384034597501466	
11.905	0.046	0.19016169946493325	
11.91	0.277	0.23459073551122578	
11.915	0.794	0.2821297631693379	
11.92	0.383	0.34078949746813325	
11.925	0.195	0.39205566437360323	
11.93	0.771	0.4308671780964245	
11.935	0.565	0.4624705211723808	
11.94	0.058	0.47781259458796727	
11.945	0.450	0.4661534878213507	
11.95	0.535	0.43898053719637387	
11.955	-0.070	0.3961451748479919	
11.96	0.024	0.33645416847821924	
11.965	0.431	0.2691644725621375	
11.97	-0.027	0.20791117540488435	
11.975	-0.165	0.15500284123348035	
11.98	0.287	0.11078324942772036	
11.985	0.088	0.07859127790503093	
11.99	-0.261	0.05088622883483602	
11.995	0.009	0.026020847975517528	
12.0	0.192	0.0019993483620254437	
12.005	-0.232	-0.017692381373398843	
12.01	-0.133	-0.028620166825151304	
12.015	0.285	-0.03293680895120851	
12.02	-0.111	-0.03095254136014593	
12.025	-0.230	-0.026986653536197863	
12.03	0.177	-0.024377059997242583	
12.035	-0.020	-0.027346279635796042	
12.04	-0.305	-0.037014115220474	
12.045	-0.084	-0.051110081194332656	
12.05	0.033	-0.07402801360167144	
12.055	-0.326	-0.10056643696513115	
12.06	-0.268	-0.1236790075588396	
12.065	-0.023	-0.14702447759968112	
12.07	-0.287	-0.17586277226851083	
12.075	-0.389	-0.19796736502312287	
12.08	-0.064	-0.21043893173185632	
12.085	-0.145	-0.22230653289025598	
12.09	-0.387	-0.22699270594741605	
12.095	-0.162	-0.22012472416204507	
12.1	-0.087	-0.21799886209668823	
12.105	-0.407	-0.22461501642436912	
12.11	-0.310	-0.228698676641931	
12.115	0.123	-0.22490465348596012	
12.12	-0.017	-0.20189359431324322	
12.125	0.097	-0.14005327664987838	
12.13	0.806	-0.024256189635830712	
12.135	0.544	0.12774490408477585	
12.14	-0.159	-0.21799886209668823	
12.145	-0.113	-0.21799886209668823	
12.15	-0.162	-0.20189359431324322	
12.155	-0.503	0.09424911256943783	
12.16	-0.451	-0.04878247948096311	
12.165	-0.185	-0.17770076439890528	
12.17	-0.355	-0.27992561790376513	
12.175	-0.407	-0.3332290001120347	
12.18	-0.041	-0.34011104628150457	
12.185	-0.096	-0.3211954357924096	
12.19	-0.325	-0.2844281634861092	
12.195	-0.047	-0.23294567266225708	
12.2	0.169	-0.18062585373214607	
12.205	-0.226	-0.134058321459151	
12.21	-0.122	-0.09081944985845518	
12.215	0.332	-0.05236067258476915	
12.22	-0.043	-0.019158327879571415	
12.225	-0.146	0.010468075704713727	
12.23	0.427	0.042255329552247235	
12.235	0.369	0.08586773683455431	
12.24	-0.023	0.1371468312623636	
12.245	0.511	0.1942365351775344	
12.25	0.784	0.2637005582603913	
12.255	0.276	0.34259534976012984	
12.26	0.460	0.4150692477700962	
12.265	0.942	0.4800223532027025	
12.27	0.523	0.5367235928746266	
12.275	0.323	0.5771644306648849	
12.28	0.866	0.6005027350335161	
12.285	0.691	0.6129751405473725	
12.29	0.177	0.6108323162891727	
12.295	0.570	0.590276955480495	
12.3	0.739	0.5619298280907075	
12.305	0.168	0.5304208429549329	
12.31	0.303	0.4949610398595311	
12.315	0.799	0.46625450095773285	
12.32	0.399	0.4527346044666592	
12.325	0.166	0.44899221939696893	
12.33	0.753	0.4486054114994447	
12.335	0.634	0.45709829354223325	
12.34	0.174	0.471717062872551	
12.345	0.643	0.48524894667838175	
12.35	0.895	0.5070546493099021	
12.355	0.302	0.5334090385942031	
12.36	0.392	0.5498533963306405	
12.365	0.860	0.5542666872081365	
12.37	0.431	0.5518009335616794	
12.375	0.209	0.5419469747436361	
12.38	0.767	0.5285333959215033	
12.385	0.598	0.5171635440557003	
12.39	0.070	0.5027681737590324	
12.395	0.457	0.47712974879993675	
12.4	0.623	0.44602893839432345	
12.405	0.038	0.412552316212849	
12.41	0.137	0.3738111082390826	
12.415	0.591	0.3341419566957405	
12.42	0.143	0.3009441517775243	
12.425	-0.052	0.2730258907923418	
12.43	0.450	0.24633410625869256	
12.435	0.255	0.2251950372488006	
12.44	-0.174	0.20197577485428436	
12.445	0.165	0.1749782485818961	
12.45	0.495	0.15490998248018045	
12.455	0.197	0.1638349488427146	
12.46	0.668	0.22285363883551015	
12.465	1.285	0.34792117469367756	
12.47	0.738	0.5111035674809542	
12.475	0.155	0.6351042735352156	
12.48	0.282	0.6559281890320631	
12.485	-0.102	0.5601630485745765	
12.49	-0.421	0.38630645782379114	
12.495	-0.226	0.19378358542771484	
12.5	-0.087	0.01471034415614893	
12.505	-0.343	-0.12482276972354843	
12.51	-0.241	-0.20414671651794694	
12.515	0.133	-0.23043471433160279	
12.52	-0.120	-0.22369986999693792	
12.525	-0.137	-0.18558604081697105	
12.53	0.512	-0.11221148408944714	
12.535	0.479	-0.005798137219157886	
12.54	0.023	0.10953002096905871	
12.545	0.436	0.20759877186031697	
12.55	0.637	0.2845525333857412	
12.555	0.085	0.3373675881352724	
12.56	0.190	0.3607503201539298	
12.565	0.652	0.36330610848776257	
12.57	0.238	0.36051594152430044	
12.575	0.030	0.3505146179270495	
12.58	0.608	0.33642037958504806	
12.585	0.501	0.336274860384314	
12.59	0.020	0.34189676506451094	
12.595	0.410	0.3423127900510381	
12.6	0.556	0.3403495642856986	
12.605	-0.064	0.3298376607253962	
12.61	-0.052	0.2926915536377275	
12.615	0.274	0.23281496019392206	
12.62	-0.149	0.1598763245196167	
12.625	-0.316	0.08182657850472023	
12.63	-0.066	0.003842849224561991	
12.635	-0.186	-0.076714690895906	
12.64	-0.448	-0.149513041196592	
12.645	-0.253	-0.20302790951762623	
12.65	-0.156	-0.24700840929418091	
12.655	-0.453	-0.28358482002172913	
12.66	-0.404	-0.3052543818197165	
12.665	-0.157	-0.3187159562380919	
12.67	-0.361	-0.3318367125849771	
12.675	-0.470	-0.3358367647074324	
12.68	-0.183	-0.33160522087466715	
12.685	-0.241	-0.3287551781933995	
12.69	-0.488	-0.32609623427026757	
12.695	-0.284	-0.31925892753671603	
12.7	-0.188	-0.31726945183164235	
12.705	-0.486	-0.3232450957987897	
12.71	-0.444	-0.3292430683412733	
12.715	-0.209	-0.3390419950346	
12.72	-0.428	-0.355665075199141	
12.725	-0.563	-0.36965843841979706	
12.73	-0.303	-0.38186905234648116	
12.735	-0.378	-0.3987623571428664	
12.74	-0.634	-0.41886685600259244	
12.745	-0.438	-0.4323844142148038	
12.75	-0.322	-0.4463819193011367	
12.755	-0.590	-0.46106532624146435	
12.76	-0.529	-0.46624354895276654	
12.765	-0.282	-0.4651691648592196	
12.77	-0.502	-0.46758391861174553	
12.775	-0.628	-0.4676187450721955	
12.78	-0.320	-0.4639490588367686	
12.785	-0.281	-0.4597224331975658	
12.79	-0.364	-0.4358210024117469	
12.795	0.233	-0.36538715957822654	
12.8	0.712	-0.22828927411552585	
12.805	0.084	-0.45179214125297185	
12.81	-0.107	-0.45179214125297185	
12.815	-0.119	-0.4358210024117469	
12.82	-0.518	-0.40713229257987144	
12.825	-0.721	-0.043680282858103436	
12.83	-0.460	-0.1969945774332386	
12.835	-0.459	-0.3436296413562068	
12.84	-0.642	-0.45179214125297185	
12.845	-0.389	-0.5054750341945184	
12.85	-0.223	-0.5173088250112161	
12.855	-0.459	-0.5000045273736038	
12.86	-0.377	-0.45834012647130495	
12.865	-0.081	-0.40713229257987144	
12.87	-0.276	-0.35852564878968296	
12.875	-0.377	-0.31272013445780267	
12.88	-0.037	-0.2689265329076243	
12.885	-0.076	-0.23264204262584698	
12.89	-0.332	-0.2019535077587053	
12.895	-0.081	-0.17344730838251976	
12.9	0.181	-0.14420749059540347	
12.905	-0.195	-0.11214712783025564	
12.91	-0.105	-0.0793941054584331	
12.915	0.404	-0.04295741053076837	
12.92	0.085	0.005441124734820585	
12.925	-0.079	0.05313874701250029	
12.93	0.472	0.09818275364514618	
12.935	0.349	0.14743758085528538	
12.94	-0.134	0.18591281020088418	
12.945	0.146	0.1955092744242687	
12.95	0.309	0.18387735484755502	
12.955	-0.197	0.15684929587731983	
12.96	-0.178	0.11352111065094901	
12.965	0.133	0.05802724071926347	
12.97	-0.215	-0.00048125485634361133	
12.975	-0.363	-0.05685469592138055	
12.98	-0.072	-0.10790779861236797	
12.985	-0.136	-0.15352694533131891	
12.99	-0.393	-0.18796909515538013	
12.995	-0.182	-0.20652703885965615	
13.0	-0.037	-0.21617248394632887	
13.005	-0.342	-0.2220613911663826	
13.01	-0.276	-0.21945169119393884	
13.015	0.049	-0.21003456467290513	
13.02	-0.210	-0.1994641184990473	
13.025	-0.328	-0.1868246856058249	
13.03	0.021	-0.17193556090710815	
13.035	-0.067	-0.16053843492661118	
13.04	-0.360	-0.1529784870213668	
13.045	-0.157	-0.1505429763002852	
13.05	-0.015	-0.15516054148243946	
13.055	-0.358	-0.16707829545636496	
13.06	-0.331	-0.18047761501610143	
13.065	-0.072	-0.19800251020009862	
13.07	-0.303	-0.22047051045600866	
13.075	-0.430	-0.23986603775447782	
13.08	-0.146	-0.2518818914637597	
13.085	-0.221	-0.2655174551845088	
13.09	-0.467	-0.2790621081491955	
13.095	-0.247	-0.2834909030728163	
13.1	-0.131	-0.2870655102414593	
13.105	-0.467	-0.293203054524592	
13.11	-0.451	-0.3015140273146402	
13.115	-0.157	-0.31382643398511784	
13.12	-0.233	-0.3235352251866854	
13.125	-0.119	-0.2999908505632315	
13.13	0.973	-0.1956150875303555	
13.135	1.117	0.01563601337749506	
13.14	0.471	-0.2834909030728163	
13.145	0.367	-0.2870655102414593	
13.15	-0.009	-0.293203054524592	
13.155	-0.537	-0.293203054524592	
13.16	-0.587	-0.25255374623201554	
13.165	-0.339	0.029371314092874565	
13.17	-0.471	-0.18552042568782579	
13.175	-0.528	-0.3381347514909123	
13.18	-0.177	-0.4155453424683279	
13.185	-0.174	-0.4363555736999202	
13.19	-0.398	-0.41545870748611136	
13.195	-0.162	-0.3653740360914065	
13.2	0.043	-0.3077145406902686	
13.205	-0.290	-0.25255374623201554	
13.21	-0.220	-0.20266069398975323	
13.215	0.195	-0.15836812523079064	
13.22	-0.114	-0.12068517522351338	
13.225	-0.236	-0.08942415724910971	
13.23	0.242	-0.05931057849297619	
13.235	0.224	-0.023282038290640808	
13.24	-0.140	0.01720136194515261	
13.245	0.299	0.060720737270257855	
13.25	0.637	0.1185705829407078	
13.255	0.163	0.1912193158840203	
13.26	0.315	0.2622078474531323	
13.265	0.854	0.33191619499130576	
13.27	0.457	0.40329217357382396	
13.275	0.160	0.4553238836016724	
13.28	0.654	0.4777894175724501	
13.285	0.477	0.47884231159110124	
13.29	-0.085	0.45303058353804054	
13.295	0.210	0.39764293127166206	
13.3	0.390	0.3276959648586839	
13.305	-0.160	0.2562310241582094	
13.31	-0.140	0.18209991692877975	
13.315	0.279	0.11193161750035291	
13.32	-0.098	0.05541153771849536	
13.325	-0.247	0.012322518287380575	
13.33	0.174	-0.015283287000330378	
13.335	0.073	-0.03007237620394275	
13.34	-0.270	-0.036872841668494416	
13.345	-0.035	-0.0404533817835135	
13.35	0.189	-0.04433448810866729	
13.355	-0.232	-0.04764398731765848	
13.36	-0.191	-0.04993771897611703	
13.365	0.192	-0.054182129282471084	
13.37	-0.151	-0.06050583420118664	
13.375	-0.300	-0.06863909997281167	
13.38	0.044	-0.07841185885761881	
13.385	-0.052	-0.09205862062707504	
13.39	-0.357	-0.1087744603300614	
13.395	-0.171	-0.12352677746462257	
13.4	-0.038	-0.14438567448227935	
13.405	-0.366	-0.171560764515933	
13.41	-0.335	-0.1919399535843757	
13.415	-0.046	-0.20923134489498102	
13.42	-0.259	-0.2274745861683566	
13.425	-0.381	-0.23462100594618288	
13.43	-0.063	-0.23140713006653454	
13.435	-0.131	-0.22705557588119132	
13.44	-0.424	-0.2258213985541688	
13.445	-0.233	-0.22249496892272244	
13.45	-0.069	-0.22732349548008984	
13.455	-0.300	-0.23265659400887792	
13.46	-0.058	-0.2149364772581353	
13.465	0.925	-0.13501981749625977	
13.47	0.829	0.03353323080856725	
13.475	0.497	-0.21995242036238113	
13.48	0.710	-0.21995242036238113	
13.485	0.097	-0.21995242036238113	
13.49	-0.454	-0.2149364772581353	
13.495	-0.364	0.35051283130071753	
13.5	-0.262	0.1427924936735393	
13.505	-0.499	-0.0647213469252734	
13.51	-0.399	-0.21995242036238113	
13.515	-0.040	-0.3089346029856156	
13.52	-0.217	-0.34456805309946387	
13.525	-0.326	-0.33283085285267133	
13.53	0.076	-0.2871308496734979	
13.535	0.059	-0.22898482666745396	
13.54	-0.261	-0.16916370828697402	
13.545	0.020	-0.11235643589866431	
13.55	0.302	-0.06204680859436108	
13.555	-0.159	-0.01998562708630279	
13.56	-0.089	0.0119358039411499	
13.565	0.444	0.03830113585517295	
13.57	0.107	0.06932120360709901	
13.575	-0.072	0.10093365859458568	
13.58	0.553	0.13707484595561154	
13.585	0.553	0.19112404953610054	
13.59	0.096	0.2546029542658256	
13.595	0.547	0.3156751914383904	
13.6	0.823	0.3781462822192413	
13.605	0.245	0.4358995929456142	
13.61	0.274	0.46881224167321	
13.615	0.748	0.4784138829447519	
13.62	0.309	0.47335628338451763	
13.625	-0.023	0.44781274774431856	
13.63	0.466	0.40203977991901885	
13.635	0.328	0.35020589904005617	
13.64	-0.172	0.2956158528553473	
13.645	0.073	0.23457680604338094	
13.65	0.296	0.1711473019926791	
13.655	-0.183	0.11503529925900345	
13.66	-0.160	0.06680312789001983	
13.665	0.253	0.028308180382709592	
13.67	-0.108	-0.002540492555479984	
13.675	-0.258	-0.02508237228625502	
13.68	0.166	-0.03708667877097989	
13.685	0.113	-0.038804146522186306	
13.69	-0.246	-0.03423176251739159	
13.695	-0.002	-0.026492682315054562	
13.7	0.248	-0.019961810327252527	
13.705	-0.209	-0.014839409881339714	
13.71	-0.192	-0.015187583699682268	
13.715	0.187	-0.022849207963064912	
13.72	-0.143	-0.0374751236187375	
13.725	-0.316	-0.05398080987364971	
13.73	-0.002	-0.07323033623026202	
13.735	-0.084	-0.09884464584002811	
13.74	-0.384	-0.12708523555026272	
13.745	-0.197	-0.1495327864702798	
13.75	-0.035	-0.17207005717818372	
13.755	-0.349	-0.195745630769448	
13.76	-0.311	-0.20712342976645293	
13.765	0.012	-0.21092791507488967	
13.77	-0.235	-0.21448424334261113	
13.775	-0.401	-0.21392026310957146	
13.78	-0.110	-0.2122275206791315	
13.785	-0.133	-0.21788976963357806	
13.79	-0.329	-0.22109499715081335	
13.795	0.130	-0.19644641395803195	
13.8	0.780	-0.11699780226668319	
13.805	0.387	0.024208834503619436	
13.81	0.338	0.18785220193335309	
13.815	0.518	-0.21092791507488967	
13.82	-0.188	-0.20463018088377613	
13.825	-0.471	-0.19644641395803195	
13.83	-0.264	0.16683374516526267	
13.835	-0.306	-0.0008732668302872787	
13.84	-0.515	-0.1561441573942408	
13.845	-0.259	-0.2603920279736683	
13.85	-0.032	-0.31497904919262776	
13.855	-0.311	-0.3279067470844725	
13.86	-0.247	-0.3040983177235346	
13.865	0.175	-0.2567220974205015	
13.87	-0.124	-0.20463018088377613	
13.875	-0.261	-0.15408102114023295	
13.88	0.194	-0.10597100853564195	
13.885	0.183	-0.05985669226182799	
13.89	-0.213	-0.01940319602085504	
13.895	0.075	0.013653888093810093	
13.9	0.364	0.03917573161911557	
13.905	-0.119	0.059879605622708706	
13.91	-0.032	0.07581007989622476	
13.915	0.543	0.09451436600740881	
13.92	0.227	0.12833323188647094	
13.925	0.027	0.17073783612248788	
13.93	0.637	0.2181770204309504	
13.935	0.599	0.27723878540412183	
13.94	0.067	0.33442469739297986	
13.945	0.424	0.3706448923599449	
13.95	0.611	0.3892977850820866	
13.955	-0.017	0.38581710677052694	
13.96	-0.032	0.34970821185357326	
13.965	0.421	0.2915506459270435	
13.97	-0.017	0.22838982486719112	
13.975	-0.226	0.16469662325123918	
13.98	0.172	0.10511138937544906	
13.985	0.078	0.05429819418271687	
13.99	-0.277	0.012506160399443914	
13.995	-0.060	-0.018424832616508003	
14.0	0.189	-0.040718367500968876	
14.005	-0.227	-0.057046003676452836	
14.01	-0.185	-0.06229324642810645	
14.015	0.273	-0.060541153564759795	
14.02	-0.072	-0.05153363326912749	
14.025	-0.241	-0.041259733262446356	
14.03	0.186	-0.029997369470331714	
14.035	0.120	-0.018687142565196414	
14.04	-0.255	-0.01041561614839572	
14.045	-0.023	-0.006513138009858759	
14.05	0.227	-0.008761505871957424	
14.055	-0.224	-0.01394673803900652	
14.06	-0.209	-0.022328553440318685	
14.065	0.152	-0.036642095203415645	
14.07	-0.166	-0.056456563233740514	
14.075	-0.317	-0.07721032708939944	
14.08	0.026	-0.093095061838569	
14.085	-0.037	-0.10967364003907934	
14.09	-0.337	-0.12332949069255685	
14.095	-0.130	-0.12955771611884723	
14.1	0.101	-0.13279233012274305	
14.105	-0.284	-0.13588966418329124	
14.11	-0.288	-0.13533483500717686	
14.115	0.012	-0.14067099569420555	
14.12	-0.210	-0.15644363074061257	
14.125	-0.271	-0.16420765347347382	
14.13	0.436	-0.13704468158433414	
14.135	0.771	-0.04659797380853547	
14.14	0.398	0.10765692586375201	
14.145	0.657	-0.13279233012274305	
14.15	0.569	-0.13533483500717686	
14.155	-0.247	-0.13588966418329124	
14.16	-0.358	-0.13533483500717686	
14.165	-0.151	0.2523659523784864	
14.17	-0.345	0.0695810523282912	
14.175	-0.439	-0.0902225191710126	
14.18	-0.081	-0.19702498269207244	
14.185	-0.056	-0.25461778354960696	
14.19	-0.308	-0.2684015186564367	
14.195	-0.066	-0.24251427482035742	
14.2	0.213	-0.19669278168223076	
14.205	-0.207	-0.14701403430622367	
14.21	-0.172	-0.10138342089294142	
14.215	0.302	-0.0624935599027273	
14.22	-0.012	-0.029497839331257842	
14.225	-0.180	-0.0023844543798287386	
14.23	0.325	0.026076127181408074	
14.235	0.294	0.058424695614818216	
14.24	-0.127	0.0914010079705378	
14.245	0.261	0.12149350797604033	
14.25	0.602	0.15847477084582945	
14.255	0.110	0.20389866568027937	
14.26	0.218	0.24751161948958827	
14.265	0.776	0.2936473301245251	
14.27	0.418	0.34555040144649724	
14.275	0.114	0.3894674638807673	
14.28	0.625	0.4130610279507286	
14.285	0.512	0.42353388608633247	
14.29	-0.063	0.41536277424046375	
14.295	0.230	0.3793679301284385	
14.3	0.460	0.330513398882607	
14.305	-0.102	0.2770115437493108	
14.31	-0.116	0.21842494778214527	
14.315	0.315	0.15653827655272742	
14.32	-0.061	0.10170002570527212	
14.325	-0.246	0.054548792608180935	
14.33	0.168	0.019890201976442083	
14.335	0.116	-0.0024191234899295973	
14.34	-0.267	-0.016429231819314882	
14.345	-0.058	-0.024759809023196314	
14.35	0.221	-0.03360642231133788	
14.355	-0.197	-0.038774471537373345	
14.36	-0.165	-0.038565272977687984	
14.365	0.274	-0.033670895490836114	
14.37	-0.089	-0.028189672218827115	
14.375	-0.274	-0.027332415245196685	
14.38	0.093	-0.03131841689951029	
14.385	0.037	-0.04043504805484199	
14.39	-0.311	-0.053233242244883454	
14.395	-0.133	-0.06687242645900895	
14.4	0.047	-0.08673610682979013	
14.405	-0.319	-0.11259952721626242	
14.41	-0.317	-0.1355565935008154	
14.415	-0.021	-0.157843823569565	
14.42	-0.241	-0.18409802299280795	
14.425	-0.395	-0.20322081451176222	
14.43	-0.102	-0.21143531850183955	
14.435	-0.136	-0.22145072450078945	
14.44	-0.418	-0.23113891232105377	
14.445	-0.246	-0.23289891908000365	
14.45	-0.101	-0.23876840309356395	
14.455	-0.386	-0.25158552206773477	
14.46	-0.308	-0.2545514841863824	
14.465	0.297	-0.232780535565314	
14.47	0.326	-0.16807271728921694	
14.475	0.248	-0.04825937052682009	
14.48	0.764	0.1086356557179191	
14.485	0.445	-0.23113891232105377	
14.49	-0.316	-0.23113891232105377	
14.495	-0.299	-0.19945939930191642	
14.5	-0.238	0.1813307019140623	
14.505	-0.518	0.010348535311447544	
14.51	-0.454	-0.14358954462618737	
14.515	-0.114	-0.25564859738668455	
14.52	-0.247	-0.32312014516541465	
14.525	-0.345	-0.3393856919087376	
14.53	0.052	-0.3092170906443226	
14.535	0.050	-0.2573587187357316	
14.54	-0.273	-0.19945939930191642	
14.545	-0.020	-0.14079939024550273	
14.55	0.305	-0.08746971180584742	
14.555	-0.151	-0.04089696297491253	
14.56	-0.113	-0.004701338672736748	
14.565	0.425	0.0256077938956024	
14.57	0.120	0.058770447887525695	
14.575	-0.089	0.09134174739687166	
14.58	0.511	0.12798993295943262	
14.585	0.540	0.1797721644438317	
14.59	0.050	0.2372769115450658	
14.595	0.476	0.2912200814460175	
14.6	0.820	0.34676350715065607	
14.605	0.305	0.4049821721994183	
14.61	0.340	0.45215697651380105	
14.615	0.848	0.48576348741734016	
14.62	0.437	0.5098035689081764	
14.625	0.067	0.5111720223041527	
14.63	0.573	0.4869849238282812	
14.635	0.466	0.45087894707487997	
14.64	-0.098	0.40523575181133775	
14.645	0.172	0.34612588033775704	
14.65	0.425	0.2828106366310912	
14.655	-0.113	0.22507401202949745	
14.66	-0.114	0.17010243306156142	
14.665	0.366	0.12269911105864417	
14.67	0.003	0.08792972582974083	
14.675	-0.206	0.06324207850323921	
14.68	0.239	0.04785298780997857	
14.685	0.210	0.04290687220353008	
14.69	-0.206	0.04439711795159912	
14.695	0.046	0.04601999675168767	
14.7	0.328	0.0477014143260817	
14.705	-0.163	0.04824906844205495	
14.71	-0.162	0.04309832248553738	
14.715	0.274	0.03249189440189707	
14.72	-0.072	0.019039119413696574	
14.725	-0.265	0.0033748877379047334	
14.73	0.087	-0.01236032448626332	
14.735	0.020	-0.032118742363039944	
14.74	-0.329	-0.05438333197208355	
14.745	-0.162	-0.07609104120658594	
14.75	0.029	-0.10245196952223724	
14.755	-0.314	-0.13155308859764342	
14.76	-0.311	-0.15285766804871914	
14.765	0.001	-0.1686972743683443	
14.77	-0.220	-0.18688765980927652	
14.775	-0.381	-0.19749582965366835	
14.78	-0.116	-0.20147827216125896	
14.785	-0.180	-0.21316296854653777	
14.79	-0.460	-0.2322862654303392	
14.795	-0.220	-0.2430948824665379	
14.8	0.270	-0.23347058905877388	
14.805	0.221	-0.17648999036768498	
14.81	0.677	-0.04179084650662717	
14.815	1.244	0.1723573427028775	
14.82	0.616	-0.19749582965366835	
14.825	-0.182	-0.20147827216125896	
14.83	-0.134	-0.20147827216125896	
14.835	-0.299	-0.1993839220812959	
14.84	-0.602	0.17569370291357664	
14.845	-0.390	-0.03411513669857962	
14.85	-0.163	-0.20339881420556225	
14.855	-0.386	-0.31550142561687156	
14.86	-0.326	-0.3598732243642969	
14.865	0.067	-0.3506175852777862	
14.87	-0.148	-0.31388233662229437	
14.875	-0.293	-0.26161031716381145	
14.88	0.117	-0.1993839220812959	
14.885	0.134	-0.13907300932428876	
14.89	-0.232	-0.08647155861919303	
14.895	0.027	-0.04209341592363808	
14.9	0.378	-0.003295209750855803	
14.905	-0.098	0.03131018676258676	
14.91	-0.053	0.0590107947520199	
14.915	0.543	0.0875645693282313	
14.92	0.277	0.12910576154129338	
14.925	0.040	0.17821363909239377	
14.93	0.707	0.23572126445290698	
14.935	0.768	0.3120584059579654	
14.94	0.255	0.3974009045837514	
14.945	0.596	0.4688451262952695	
14.95	0.855	0.5238114552826061	
14.955	0.241	0.5543038003275846	
14.96	0.187	0.5488886530399684	
14.965	0.666	0.5135526602524763	
14.97	0.248	0.46619852383983906	
14.975	-0.107	0.4061849477432341	
14.98	0.338	0.3355892409090406	
14.985	0.255	0.26611222610887203	
14.99	-0.210	0.202534760166504	
14.995	-0.008	0.14273718844541394	
15.0	0.282	0.08874539106571537	
15.005	-0.174	0.04752154454019058	
15.01	-0.172	0.017918940516865198	
15.015	0.274	-0.0016437127977995836	
15.02	-0.053	-0.01268781840456197	
15.025	-0.244	-0.0186454123665993	
15.03	0.168	-0.019608012938051304	
15.035	0.134	-0.015940384476126862	
15.04	-0.268	-0.013238161519079975	
15.045	-0.089	-0.01636358015692048	
15.05	0.166	-0.02744801195627117	
15.055	-0.247	-0.04428240791070281	
15.06	-0.256	-0.06102678919383529	
15.065	0.085	-0.07989101961894826	
15.07	-0.195	-0.10260795003562634	
15.075	-0.390	-0.1274617669581392	
15.08	-0.114	-0.1498027743377126	
15.085	-0.137	-0.1790118918187506	
15.09	-0.430	-0.20701574453390925	
15.095	-0.262	-0.22540289702466362	
15.1	-0.093	-0.2406023956810113	
15.105	-0.374	-0.2581607236272372	
15.11	-0.363	-0.2639540439761402	
15.115	-0.102	-0.2640064666770341	
15.12	-0.332	-0.2736131264281705	
15.125	-0.499	-0.2853955167355635	
15.13	-0.159	-0.29180526215048497	
15.135	0.062	-0.2850193514378586	
15.14	0.046	-0.23899729699153016	
15.145	0.898	-0.10730105630208264	
15.15	1.335	0.12352202975848492	
15.155	0.546	-0.2581607236272372	
15.16	-0.044	-0.2639540439761402	
15.165	-0.058	-0.2640064666770341	
15.17	-0.416	-0.23899729699153016	
15.175	-0.639	0.213513408976016	
15.18	-0.354	-0.013780402633013864	
15.185	-0.305	-0.20891033770626766	
15.19	-0.505	-0.3430536487650341	
15.195	-0.274	-0.4033807382945716	
15.2	-0.035	-0.4094511130694314	
15.205	-0.306	-0.38225574252132005	
15.21	-0.276	-0.3310535368029298	
15.215	0.152	-0.2678007142818959	
15.22	-0.098	-0.20663236418724398	
15.225	-0.258	-0.15162678564623452	
15.23	0.180	-0.10063817683583189	
15.235	0.204	-0.052895701056610095	
15.24	-0.188	-0.01132962628363677	
15.245	0.113	0.02464386053210484	
15.25	0.500	0.06274086442060442	
15.255	0.044	0.10656626133011472	
15.26	0.130	0.15282758310837935	
15.265	0.756	0.2054328748959294	
15.27	0.486	0.2753767167290996	
15.275	0.194	0.34717117116851176	
15.28	0.774	0.4114516367106344	
15.285	0.745	0.4712294952968847	
15.29	0.122	0.5135252467575331	
15.295	0.383	0.5195622029695477	
15.3	0.625	0.49684068393286984	
15.305	-0.003	0.45157236372881465	
15.31	-0.053	0.38271628433379745	
15.315	0.407	0.3024172920121644	
15.32	0.021	0.22648007537460502	
15.325	-0.210	0.15817451212706943	
15.33	0.207	0.10335120950148853	
15.335	0.194	0.06530169109228978	
15.34	-0.223	0.04166199221200476	
15.345	-0.026	0.025469172795009636	
15.35	0.271	0.012790839063509606	
15.355	-0.172	0.003747115025717269	
15.36	-0.180	-0.0022928960273591345	
15.365	0.258	-0.008743693778752707	
15.37	-0.064	-0.013419729620305677	
15.375	-0.267	-0.01973264495401906	
15.38	0.093	-0.025828004726340923	
15.385	0.070	-0.034715476555427685	
15.39	-0.300	-0.04617337755519052	
15.395	-0.139	-0.057624962149484434	
15.4	0.094	-0.07532562196857034	
15.405	-0.279	-0.09610429450976334	
15.41	-0.310	-0.11527170746681042	
15.415	-0.002	-0.1348951575656471	
15.42	-0.217	-0.1593581843665423	
15.425	-0.393	-0.18063106068704826	
15.43	-0.090	-0.1919214915475705	
15.435	-0.082	-0.20273922169494973	
15.44	-0.378	-0.20908540747663762	
15.445	-0.212	-0.2066373543782352	
15.45	0.008	-0.2033657107953955	
15.455	-0.337	-0.20508946049372412	
15.46	-0.355	-0.2052640690987726	
15.465	-0.024	-0.20688097885264314	
15.47	-0.113	-0.20937024294645099	
15.475	-0.108	-0.1886475684169283	
15.48	0.808	-0.10580256857436512	
15.485	0.928	0.05735544136898332	
15.49	0.198	-0.2033657107953955	
15.495	0.151	-0.2033657107953955	
15.5	0.058	-0.1981864693583395	
15.505	-0.438	-0.1886475684169283	
15.51	-0.515	0.16064104181832184	
15.515	-0.235	-0.012820960387975297	
15.52	-0.339	-0.17228190215883601	
15.525	-0.442	-0.28170472445532146	
15.53	-0.090	-0.327852827526807	
15.535	-0.034	-0.33062321272139733	
15.54	-0.322	-0.3032148190153124	
15.545	-0.113	-0.25365859294884713	
15.55	0.198	-0.1981864693583395	
15.555	-0.204	-0.14719271586447813	
15.56	-0.197	-0.10441131169503677	
15.565	0.294	-0.06767666012162672	
15.57	0.035	-0.03334392467181577	
15.575	-0.177	-0.0019148833272788638	
15.58	0.315	0.03024612786393549	
15.585	0.378	0.06847475733078282	
15.59	-0.098	0.10958774835622155	
15.595	0.244	0.14532198328466567	
15.6	0.649	0.18500449394577181	
15.605	0.157	0.23174389767697648	
15.61	0.160	0.27345760051121604	
15.615	0.724	0.30943773381297734	
15.62	0.378	0.3457207470417178	
15.625	0.001	0.3669517695465778	
15.63	0.492	0.3672038310515074	
15.635	0.442	0.35557772972815316	
15.64	-0.104	0.3325904135557711	
15.645	0.107	0.2912003167788606	
15.65	0.344	0.23900918857074488	
15.655	-0.169	0.18186777931839607	
15.66	-0.198	0.12040342548429411	
15.665	0.244	0.064325992000083	
15.67	-0.073	0.017861944454639046	
15.675	-0.285	-0.01695777391081122	
15.68	0.094	-0.03995769266236841	
15.685	0.136	-0.05138655915663444	
15.69	-0.253	-0.053222587467540786	
15.695	-0.078	-0.04891790462340387	
15.7	0.224	-0.04609434692192314	
15.705	-0.200	-0.04394262526707752	
15.71	-0.207	-0.043605045573524875	
15.715	0.195	-0.04386567882528006	
15.72	-0.114	-0.04903546377657686	
15.725	-0.325	-0.05985883532003244	
15.73	-0.018	-0.07314158042449967	
15.735	-0.008	-0.09339366811272888	
15.74	-0.343	-0.11306029190561818	
15.745	-0.200	-0.12801072960303106	
15.75	0.001	-0.1451859605140772	
15.755	-0.317	-0.1668083824468221	
15.76	-0.325	-0.1815999696844783	
15.765	-0.005	-0.1899653646677596	
15.77	-0.209	-0.19897202793253696	
15.775	-0.392	-0.2058172294049959	
15.78	-0.104	-0.20519651383314136	
15.785	-0.096	-0.20837314017574624	
15.79	-0.413	-0.21505765481993366	
15.795	-0.267	-0.21704155851079757	
15.8	-0.050	-0.2241314947958849	
15.805	-0.276	-0.23182797332169383	
15.81	-0.148	-0.217650422582156	
15.815	0.724	-0.153816629954382	
15.82	0.616	-0.020896838078042136	
15.825	0.161	-0.2058172294049959	
15.83	0.407	-0.20837314017574624	
15.835	0.038	-0.20837314017574624	
15.84	-0.433	-0.19218392538959228	
15.845	-0.345	0.17390147194076527	
15.85	-0.188	0.026992510745692772	
15.855	-0.428	-0.11984167262151627	
15.86	-0.396	-0.2267281557773619	
15.865	-0.008	-0.283747644401414	
15.87	-0.156	-0.3019156172173112	
15.875	-0.319	-0.28506045820647374	
15.88	0.041	-0.24204879433088575	
15.885	0.101	-0.19218392538959228	
15.89	-0.253	-0.14335722806393028	
15.895	-0.044	-0.09805405676931235	
15.9	0.328	-0.05679683306893207	
15.905	-0.124	-0.02004066403124758	
15.91	-0.119	0.009094571579753291	
15.915	0.428	0.03549017824337959	
15.92	0.172	0.0680648293520499	
15.925	-0.098	0.10166527186359824	
15.93	0.474	0.13709666116592434	
15.935	0.569	0.18499985463156754	
15.94	0.058	0.24042323311827657	
15.945	0.401	0.2898940821351738	
15.95	0.767	0.3364223288549969	
15.955	0.233	0.38090175547427707	
15.96	0.154	0.40492060420356335	
15.965	0.680	0.41058496992157556	
15.97	0.322	0.40515347203530755	
15.975	-0.079	0.384536975842056	
15.98	0.380	0.3450313542169466	
15.985	0.361	0.3011081984289674	
15.99	-0.156	0.25545184942227844	
15.995	0.018	0.20577661118374635	
16.0	0.334	0.15442668736569776	
16.005	-0.139	0.10904479600107891	
16.01	-0.175	0.06989344802359479	
16.015	0.273	0.03947729508360079	
16.02	-0.014	0.017269017304204645	
16.025	-0.233	0.002628512246671242	
16.03	0.174	-0.0021043199874371176	
16.035	0.229	0.0021152725946678866	
16.04	-0.212	0.012600334316391291	
16.045	-0.026	0.020682989357030383	
16.05	0.300	0.024324014198520236	
16.055	-0.166	0.02318962022304502	
16.06	-0.203	0.016891030575551885	
16.065	0.219	0.005308887157905981	
16.07	-0.076	-0.009643778811273188	
16.075	-0.302	-0.027266798043526653	
16.08	0.004	-0.04527267971859343	
16.085	0.017	-0.06790922481611639	
16.09	-0.337	-0.09122882060323177	
16.095	-0.201	-0.10938608905959135	
16.1	0.035	-0.12978865845621151	
16.105	-0.285	-0.15167818804010685	
16.11	-0.313	-0.16406629596398753	
16.115	0.037	-0.16980638760513378	
16.12	-0.160	-0.17461135972878805	
16.125	-0.378	-0.17719210643244054	
16.13	-0.128	-0.1773256956729226	
16.135	-0.108	-0.18794175925757015	
16.14	-0.363	-0.2021987515020629	
16.145	-0.079	-0.19835376330222965	
16.15	0.622	-0.15374189142270145	
16.155	0.424	-0.04665672145861403	
16.16	0.402	0.10993406989742087	
16.165	0.761	0.26919014603616187	
16.17	0.037	-0.17719210643244054	
16.175	-0.415	-0.17719210643244054	
16.18	-0.265	0.2716820585463976	
16.185	-0.276	0.10708662012492809	
16.19	-0.528	-0.06722648697307369	
16.195	-0.326	-0.20132224939514867	
16.2	-0.053	-0.28571110234138	
16.205	-0.290	-0.32374035453786976	
16.21	-0.277	-0.316073871862804	
16.215	0.169	-0.27466314307892725	
16.22	-0.047	-0.21766735293422326	
16.225	-0.249	-0.15933774979686832	
16.23	0.165	-0.10217263796477351	
16.235	0.238	-0.04885952942537774	
16.24	-0.198	-0.005425584322446626	
16.245	0.018	0.026652335856342448	
16.25	0.427	0.05142435413003346	
16.255	-0.034	0.07613560404743663	
16.26	-0.034	0.0977911664574536	
16.265	0.584	0.12448663377348844	
16.27	0.380	0.16838360559156051	
16.275	0.076	0.22251699829242985	
16.28	0.663	0.28085983748718873	
16.285	0.732	0.3462637336359027	
16.29	0.154	0.40850677957121645	
16.295	0.415	0.44755980092371495	
16.3	0.739	0.46448362420738193	
16.305	0.161	0.4651861700918924	
16.31	0.032	0.43869910453790073	
16.315	0.543	0.39241109187192225	
16.32	0.190	0.34148002075466133	
16.325	-0.166	0.2865592588269764	
16.33	0.216	0.22670467619427637	
16.335	0.235	0.17027552618994107	
16.34	-0.220	0.12070682603710584	
16.345	-0.052	0.07848032743577522	
16.35	0.303	0.043345003204647736	
16.355	-0.156	0.020403688477488427	
16.36	-0.197	0.0037766893235002662	
16.365	0.259	-0.006832371266152153	
16.37	-0.014	-0.01143949316991488	
16.375	-0.253	-0.015222445540427978	
16.38	0.107	-0.01650615242494439	
16.385	0.143	-0.017823851606570983	
16.39	-0.273	-0.02102659325436517	
16.395	-0.136	-0.02760143943159483	
16.4	0.139	-0.04290066710231414	
16.405	-0.247	-0.06438798962500539	
16.41	-0.300	-0.08411757211615842	
16.415	0.033	-0.1051081983187828	
16.42	-0.186	-0.13039129213455164	
16.425	-0.412	-0.1549916988261716	
16.43	-0.160	-0.17668102143412734	
16.435	-0.139	-0.20294489571851085	
16.44	-0.430	-0.22980114734744078	
16.445	-0.288	-0.24459306548968432	
16.45	-0.073	-0.25507889855349475	
16.455	-0.349	-0.2652978940508923	
16.46	-0.395	-0.26700790524624063	
16.465	-0.137	-0.26622300680242095	
16.47	-0.320	-0.2774372613717228	
16.475	-0.502	-0.29290344556070136	
16.48	-0.146	-0.29765802136810815	
16.485	0.204	-0.2809756885964085	
16.49	0.143	-0.2127704365883532	
16.495	0.747	-0.06848250784887358	
16.5	1.066	0.14196536216168318	
16.505	0.168	-0.26622300680242095	
16.51	-0.285	-0.26700790524624063	
16.515	-0.215	-0.26622300680242095	
16.52	-0.464	0.22156836357975035	
16.525	-0.660	0.01404019748679861	
16.53	-0.352	-0.1736125949721306	
16.535	-0.255	-0.315902625058628	
16.54	-0.479	-0.4008428523941717	
16.545	-0.293	-0.42354535963880857	
16.55	-0.027	-0.40496635700434613	
16.555	-0.297	-0.3663992939161217	
16.56	-0.308	-0.31508824729603774	
16.565	0.101	-0.25803793629530797	
16.57	-0.098	-0.20644480172320456	
16.575	-0.294	-0.16312209143400191	
16.58	0.081	-0.12353396071475545	
16.585	0.181	-0.08684051231736167	
16.59	-0.217	-0.05407231904348748	
16.595	0.006	-0.023576984661058953	
16.6	0.454	0.009237487485169863	
16.605	0.020	0.04949253119630242	
16.61	0.037	0.0937565804541568	
16.615	0.706	0.14616392414547102	
16.62	0.485	0.2186264851360007	
16.625	0.114	0.29467342155581566	
16.63	0.631	0.35649290455086013	
16.635	0.655	0.4063053683973146	
16.64	0.021	0.43481932356774755	
16.645	0.233	0.4273040957174591	
16.65	0.556	0.3943241262678949	
16.655	-0.014	0.35055053299910166	
16.66	-0.122	0.2916515122137425	
16.665	0.325	0.2230940813619567	
16.67	0.015	0.15773404297717095	
16.675	-0.258	0.09873056434689895	
16.68	0.079	0.04936987293169964	
16.685	0.136	0.009329175235184268	
16.69	-0.267	-0.019997920852005822	
16.695	-0.114	-0.03875325971575194	
16.7	0.218	-0.0517922339564459	
16.705	-0.195	-0.05929498367410409	
16.71	-0.238	-0.06329268446956637	
16.715	0.201	-0.0630750561161002	
16.72	-0.043	-0.06122014231148119	
16.725	-0.282	-0.05914208317783278	
16.73	0.015	-0.0577672838507534	
16.735	0.053	-0.06373508083474866	
16.74	-0.319	-0.07485382235221621	
16.745	-0.192	-0.08779617075785484	
16.75	0.055	-0.10591676025457859	
16.755	-0.297	-0.1281960433675075	
16.76	-0.361	-0.1502425625050583	
16.765	-0.076	-0.1721959581235707	
16.77	-0.246	-0.20120782069440446	
16.775	-0.451	-0.22704855922951958	
16.78	-0.185	-0.24380601416214612	
16.785	-0.146	-0.2587730448538269	
16.79	-0.433	-0.2718078651187118	
16.795	-0.299	-0.2737724539274706	
