Time	Potential	EKG	Unnamed: 3
0.0	-0.061	-0.0027881260175056347	
0.005	-0.024	-0.009091124723724659	
0.01	-0.134	-0.024820239476585515	
0.015	-0.142	-0.046446928229566635	
0.02	-0.072	-0.06985180387219947	
0.025	-0.140	-0.0902560575088956	
0.03	-0.188	-0.10803902697287454	
0.035	-0.107	-0.12406821887640031	
0.04	-0.116	-0.13349593692833878	
0.045	-0.197	-0.14028478411987327	
0.05	-0.148	-0.14571222185539529	
0.055	-0.095	-0.14784168621732927	
0.06	-0.169	-0.14802343254464714	
0.065	-0.148	-0.14555523970294582	
0.07	-0.050	-0.1405858091184707	
0.075	-0.107	-0.13030595331647302	
0.08	-0.140	-0.12026790826148913	
0.085	-0.047	-0.11089269277514549	
0.09	-0.043	-0.09938404545227826	
0.095	-0.130	-0.08952382437047415	
0.1	-0.067	-0.08268856752149562	
0.105	-0.002	-0.07563130649315769	
0.11	-0.099	-0.06916916055353198	
0.115	-0.089	-0.06467905066848509	
0.12	0.017	-0.0613846410400334	
0.125	-0.056	-0.055304307423910105	
0.13	-0.105	-0.05246194806493466	
0.135	-0.003	-0.05079052642141809	
0.14	-0.005	-0.04725556552326665	
0.145	-0.104	-0.04468815305195922	
0.15	-0.060	-0.04472222911533863	
0.155	-0.008	-0.046459642007400714	
0.16	-0.110	-0.05023133333918424	
0.165	-0.114	-0.05781172120560901	
0.17	-0.029	-0.0652548178207972	
0.175	-0.093	-0.07224506085088847	
0.18	-0.154	-0.07961872543103918	
0.185	-0.082	-0.08776193142002006	
0.19	-0.098	-0.09611896814259224	
0.195	-0.180	-0.10579462167182073	
0.2	-0.137	-0.11579506155607047	
0.205	-0.084	-0.12330515818429134	
0.21	-0.160	-0.12923969933117346	
0.215	-0.157	-0.1329556364568812	
0.22	-0.070	-0.13215532628729415	
0.225	-0.122	-0.1301540399204657	
0.23	-0.166	-0.1277754101661731	
0.235	-0.079	-0.12476050031066063	
0.24	-0.078	-0.11995401025753977	
0.245	-0.165	-0.11689435100806306	
0.25	-0.139	-0.11591039207914595	
0.255	-0.110	-0.11813989468260222	
0.26	-0.162	-0.125230300718033	
0.265	-0.047	-0.1271340353900119	
0.27	0.300	-0.09902145665507993	
0.275	0.514	-0.02097001894300747	
0.28	0.779	0.1170696936270465	
0.285	1.155	0.31623117202443607	
0.29	1.122	0.5492739453908966	
0.295	0.707	0.7479420545535416	
0.3	0.256	0.8397778151610225	
0.305	-0.085	0.7839799658826065	
0.31	-0.322	0.5968248319576555	
0.315	-0.392	0.34359844046654203	
0.32	-0.337	0.09304885415799749	
0.325	-0.340	-0.11574015633812765	
0.33	-0.337	-0.26114616681744324	
0.335	-0.223	-0.3368618287114463	
0.34	-0.186	-0.35841105243495647	
0.345	-0.233	-0.3440709058514396	
0.35	-0.169	-0.3083402186925732	
0.355	-0.102	-0.2636623256178686	
0.36	-0.165	-0.22207255388165695	
0.365	-0.146	-0.18575354095727087	
0.37	-0.046	-0.15384483947612426	
0.375	-0.090	-0.12751840472105697	
0.38	-0.131	-0.1095123530837584	
0.385	-0.032	-0.09397647560643829	
0.39	-0.011	-0.0790449443917169	
0.395	-0.101	-0.06823844524270195	
0.4	-0.024	-0.05865274855141037	
0.405	0.076	-0.04330215576474805	
0.41	-0.014	-0.027957904127716114	
0.415	0.020	-0.01118976463860722	
0.42	0.194	0.013316871554231504	
0.425	0.155	0.04586295591183348	
0.43	0.108	0.07910342869786542	
0.435	0.261	0.11486258016628598	
0.44	0.270	0.15245725646006103	
0.445	0.142	0.18162321921380004	
0.45	0.206	0.19988952443435062	
0.455	0.262	0.21309927072788373	
0.46	0.107	0.2142621618844296	
0.465	0.076	0.2002352739225744	
0.47	0.163	0.18140781910199646	
0.475	0.044	0.15639140676272906	
0.48	-0.064	0.11967148673371744	
0.485	0.009	0.08155787732784878	
0.49	-0.027	0.04509846107367438	
0.495	-0.134	0.00456197296879895	
0.5	-0.102	-0.03173015049681816	
0.0	-0.142	-0.0033737001036897975	
0.005	-0.203	-0.03136985488113403	
0.01	-0.479	-0.08868035904277247	
0.015	-0.314	-0.16044988355161602	
0.02	-0.095	-0.22460475184321255	
0.025	-0.188	-0.25307995305857833	
0.03	0.232	-0.22399922026496624	
0.035	1.015	-0.10655727058903616	
0.04	0.668	0.09747136791058014	
0.045	0.068	0.29387288155784175	
0.05	0.097	0.38536298843666283	
0.055	-0.201	0.35440288243575946	
0.06	-0.544	0.23206776218762704	
0.065	-0.404	0.05952008779702805	
0.07	-0.223	-0.11041439845775156	
0.075	-0.432	-0.24174741754820714	
0.08	-0.366	-0.32072487811042427	
0.085	-0.064	-0.3535608424007086	
0.09	-0.212	-0.34653178663851353	
0.095	-0.316	-0.31503453492079314	
0.1	-0.002	-0.2708805001342344	
0.105	0.059	-0.2189707974493259	
0.11	-0.244	-0.16291598005289937	
0.115	-0.040	-0.11642608624382644	
0.12	0.288	-0.0755018288965387	
0.125	-0.128	-0.03242598423830883	
0.13	-0.084	-0.0002852040371473646	
0.135	0.393	0.02635424316829303	
0.14	0.084	0.05839942292265394	
0.145	-0.116	0.08609443065377842	
0.15	0.398	0.10567776596140188	
0.155	0.421	0.13851981746820258	
0.16	-0.002	0.18028834460823812	
0.165	0.386	0.21658869918786847	
0.17	0.695	0.26123702275910693	
0.175	0.149	0.3121540148853601	
0.18	0.128	0.33926058313092156	
0.185	0.593	0.3429489921721938	
0.19	0.248	0.34046695195792703	
0.195	-0.075	0.3255271595965894	
0.2	0.323	0.2888963041590278	
0.205	0.223	0.2458684486917344	
0.21	-0.198	0.19890558105829065	
0.215	0.001	0.1434807630749738	
0.22	0.264	0.09261033672606708	
0.225	-0.182	0.054069700329522005	
0.23	-0.174	0.02102893301445453	
0.235	0.195	-0.007826201357465035	
0.24	-0.113	-0.02843052355943394	
0.245	-0.268	-0.04569304840548156	
0.25	0.052	-0.0620541768562363	
0.255	0.014	-0.0739488080798861	
0.26	-0.284	-0.08221734918944062	
0.265	-0.092	-0.08860769999791313	
0.27	0.134	-0.09123579411006374	
0.275	-0.261	-0.09194220123084236	
0.28	-0.247	-0.09612079185550262	
0.285	0.087	-0.10375005442375061	
0.29	-0.185	-0.1133411952537191	
0.295	-0.364	-0.12682272858553195	
0.3	-0.140	-0.14608202597590145	
0.305	-0.183	-0.17482616757101452	
0.31	-0.435	-0.20727303171778355	
0.315	-0.290	-0.23469203841030103	
0.32	-0.168	-0.25912443785803374	
0.325	-0.442	-0.28593543545567535	
0.33	-0.445	-0.30623387009463415	
0.335	-0.174	-0.3226569930792361	
0.34	-0.291	-0.33327459345550325	
0.345	-0.468	-0.33395748392312763	
0.35	-0.276	-0.32902982834696903	
0.355	-0.297	-0.33471005133487214	
0.36	-0.521	-0.3474351991197501	
0.365	-0.253	-0.35070127227656667	
0.37	0.302	-0.32088729969786756	
0.375	0.247	-0.2329987041833423	
0.38	0.469	-0.07933928651249031	
0.385	0.843	-0.3226569930792361	
0.39	0.046	-0.32902982834696903	
0.395	-0.474	-0.32902982834696903	
0.4	-0.389	-0.32088729969786756	
0.405	-0.450	0.0714896629291769	
0.41	-0.685	-0.1256227757232157	
0.415	-0.486	-0.2917540522688532	
0.42	-0.264	-0.40864562761523354	
0.425	-0.465	-0.4720909607110709	
0.43	-0.439	-0.4835548908001388	
0.435	-0.113	-0.458242124037303	
0.44	-0.235	-0.41718960571561364	
0.445	-0.380	-0.3634435691719217	
0.45	-0.089	-0.30681064699100524	
0.455	-0.090	-0.2603452758451398	
0.46	-0.339	-0.2258990550580758	
0.465	-0.124	-0.194803676954672	
0.47	0.161	-0.1633884694626595	
0.475	-0.195	-0.1312968327126703	
0.48	-0.180	-0.10178176996010399	
0.485	0.255	-0.07293640861324582	
0.49	0.062	-0.04217125431379368	
0.495	-0.128	-0.006780394197952278	
0.5	0.424	0.03638621719026022	
0.505	0.491	0.09791515853874523	
0.51	-0.020	0.16478642124089943	
0.515	0.300	0.21610865947109528	
0.52	0.631	0.2579336514814681	
0.525	0.117	0.29360396944480754	
0.53	0.047	0.3079547468905655	
0.535	0.485	0.2992491833192633	
0.54	0.137	0.27895136975684565	
0.545	-0.166	0.24398298563019025	
0.55	0.207	0.19735002985256206	
0.555	0.160	0.14810817861778708	
0.56	-0.247	0.09973885018530057	
0.565	-0.069	0.05397743518668307	
0.57	0.216	0.014053361784566853	
0.575	-0.246	-0.01730288660483497	
0.58	-0.282	-0.047169006207804384	
0.585	0.102	-0.07575282964997462	
0.59	-0.114	-0.09889878861041103	
0.595	-0.297	-0.11305656976092499	
0.6	0.023	-0.11574535610306298	
0.605	0.011	-0.11478766234834097	
0.61	-0.329	-0.11623167080373586	
0.615	-0.160	-0.11815298367280189	
0.62	0.097	-0.12290690150329134	
0.625	-0.268	-0.12721013630712819	
0.63	-0.297	-0.1312724051715126	
0.635	-0.031	-0.14178276653142208	
0.64	-0.256	-0.16280212634955346	
0.645	-0.406	-0.18712095298458928	
0.65	-0.117	-0.20480040717274706	
0.655	-0.108	-0.21867732192327294	
0.66	-0.412	-0.22925283860542292	
0.665	-0.270	-0.2332388175940245	
0.67	-0.066	-0.23780991049837485	
0.675	-0.328	-0.24520155801486587	
0.68	-0.352	-0.24438314484888682	
0.685	-0.108	-0.24167963156022312	
0.69	-0.319	-0.2517513322808357	
0.695	-0.534	-0.26930147195022774	
0.7	-0.274	-0.2907358911577207	
0.705	-0.165	-0.31252201445672734	
0.71	-0.255	-0.31542935893489943	
0.715	0.415	-0.25620827402587826	
0.72	1.098	-0.10146368181482464	
0.725	0.498	-0.24520155801486587	
0.73	0.012	-0.2517513322808357	
0.735	0.049	-0.25620827402587826	
0.74	-0.357	-0.25620827402587826	
0.745	-0.625	0.17543088185602748	
0.75	-0.384	-0.007666374349864936	
0.755	-0.299	-0.18329375468954287	
0.76	-0.496	-0.31358891017230706	
0.765	-0.287	-0.37830966683125467	
0.77	-0.014	-0.3883173417372763	
0.775	-0.281	-0.3654070300219348	
0.78	-0.271	-0.3167362659843413	
0.785	0.139	-0.25621191511209085	
0.79	-0.095	-0.19767925763637045	
0.795	-0.277	-0.14883372857307695	
0.8	0.101	-0.10647095234470433	
0.805	0.223	-0.06814944299427002	
0.81	-0.166	-0.029963760110259606	
0.815	0.104	0.009668471904134385	
0.82	0.497	0.05300681265848882	
0.825	0.011	0.09936978789728133	
0.83	0.081	0.14102984252959197	
0.835	0.713	0.18613198505399117	
0.84	0.476	0.2503786676361335	
0.845	0.152	0.3178339786207349	
0.85	0.718	0.3786568140791031	
0.855	0.791	0.43908468081713653	
0.86	0.223	0.4927958779562255	
0.865	0.486	0.5235487654713875	
0.87	0.796	0.536233944206131	
0.875	0.197	0.5313497049242439	
0.88	0.055	0.4968151539100161	
0.885	0.508	0.4371863498676923	
0.89	0.151	0.36751070883576503	
0.895	-0.162	0.29373366263625944	
0.9	0.256	0.22358064461840316	
0.905	0.265	0.16822825071554715	
0.91	-0.188	0.12585139734522766	
0.915	0.004	0.0924180380541342	
0.92	0.349	0.06827147109463896	
0.925	-0.145	0.05351467465106372	
0.93	-0.195	0.037736461037221926	
0.935	0.230	0.021082100552247292	
0.94	-0.038	0.0036708562774296206	
0.945	-0.273	-0.013236856512649388	
0.95	0.061	-0.02661152860998731	
0.955	0.123	-0.03770613357256221	
0.96	-0.277	-0.04600341864858661	
0.965	-0.154	-0.05375041419278412	
0.97	0.133	-0.06679610141325981	
0.975	-0.236	-0.08229442105965576	
0.98	-0.290	-0.096310843632328	
0.985	0.052	-0.10906681968805261	
0.99	-0.137	-0.1251966802732477	
0.995	-0.339	-0.13817874742357822	
1.0	-0.063	-0.14276005278391324	
1.005	0.006	-0.14766612129489506	
1.01	-0.325	-0.15190582950342904	
1.015	-0.197	-0.1498419716865474	
1.02	0.044	-0.14980382601554446	
1.025	-0.282	-0.156219229678745	
1.03	-0.335	-0.1623756814672446	
1.035	-0.079	-0.17207578491194575	
1.04	-0.267	-0.1941359459659204	
1.045	-0.438	-0.22025712545163925	
1.05	-0.003	-0.22874591638764008	
1.055	0.505	-0.19651135301057004	
1.06	0.439	-0.08893070899490492	
1.065	0.918	0.10214531661488724	
1.07	1.178	-0.156219229678745	
1.075	0.259	-0.1623756814672446	
1.08	-0.241	-0.17207578491194575	
1.085	-0.133	-0.17207578491194575	
1.09	-0.358	0.338946668433521	
1.095	-0.555	0.11360440810324293	
1.1	-0.247	-0.07970602771121868	
1.105	-0.131	-0.2223796041660942	
1.11	-0.367	-0.3040804263112804	
1.115	-0.177	-0.3209312967700411	
1.12	0.190	-0.29246375143064596	
1.125	-0.188	-0.24031642319512148	
1.13	-0.204	-0.18066715032396113	
1.135	0.317	-0.11876523718983731	
1.14	0.091	-0.05701481242735348	
1.145	-0.200	-0.005665522493644058	
1.15	0.250	0.03534987930855903	
1.155	0.431	0.0747794617649685	
1.16	-0.041	0.11768314382434357	
1.165	0.232	0.15895207355578445	
1.17	0.657	0.2027606984505663	
1.175	0.149	0.24764464409671955	
1.18	0.085	0.28012037225692554	
1.185	0.701	0.30335632871602775	
1.19	0.489	0.3351309303712447	
1.195	0.070	0.36618170519990173	
1.2	0.572	0.38728185135910304	
1.205	0.630	0.40293223182129057	
1.21	-0.005	0.4076779898633003	
1.215	0.203	0.38877745455645896	
1.22	0.538	0.3537919376008532	
1.225	0.011	0.3138110453494163	
1.23	-0.119	0.2640334676094647	
1.235	0.335	0.20820570486399614	
1.24	0.073	0.15629150473129955	
1.245	-0.230	0.11028358654451227	
1.25	0.119	0.07207257818854758	
1.255	0.157	0.03995337464925314	
1.26	-0.265	0.01191895933267279	
1.265	-0.145	-0.012345884916101656	
1.27	0.224	-0.03435938310101489	
1.275	-0.182	-0.04995255027410169	
1.28	-0.244	-0.05892995021254862	
1.285	0.178	-0.06303776127863478	
1.29	-0.047	-0.06459915538966088	
1.295	-0.302	-0.06755238296438482	
1.3	-0.009	-0.07014937407814972	
1.305	0.081	-0.07608589684354183	
1.31	-0.290	-0.08384772271318823	
1.315	-0.172	-0.0884520134783994	
1.32	0.110	-0.0955251694199986	
1.325	-0.265	-0.10776532952562332	
1.33	-0.334	-0.1219045648590631	
1.335	-0.041	-0.13924026962065306	
1.34	-0.183	-0.16350864284456268	
1.345	-0.392	-0.18642447243574545	
1.35	-0.142	-0.1972905415175561	
1.355	-0.075	-0.20809628874848257	
1.36	-0.406	-0.21872700056494784	
1.365	-0.297	-0.22452093179358587	
1.37	0.011	-0.22756307680792143	
1.375	-0.305	-0.2306761378840072	
1.38	-0.403	-0.2289381637637002	
1.385	-0.114	-0.23027693197780785	
1.39	-0.236	-0.24245258665440655	
1.395	-0.393	-0.25246088304828207	
1.4	0.209	-0.2322844795506664	
1.405	0.726	-0.15095271651094197	
1.41	0.276	-0.006729429347949442	
1.415	0.401	-0.22756307680792143	
1.42	0.444	-0.2289381637637002	
1.425	-0.276	-0.23027693197780785	
1.43	-0.474	-0.23027693197780785	
1.435	-0.262	0.1277382666272879	
1.44	-0.387	-0.03934561345526612	
1.445	-0.564	-0.19250874569306842	
1.45	-0.274	-0.2983330794072535	
1.455	-0.172	-0.3608982449106124	
1.46	-0.412	-0.3857721038100298	
1.465	-0.277	-0.3706485703226595	
1.47	-0.005	-0.33637743618604266	
1.475	-0.255	-0.29867329399799025	
1.48	-0.285	-0.2551569325370977	
1.485	0.117	-0.20710223905465586	
1.49	-0.070	-0.16531607257461078	
1.495	-0.317	-0.13377388046371877	
1.5	-0.021	-0.11027768931034843	
1.505	0.148	-0.09471499859140331	
1.51	-0.229	-0.08002626517014041	
1.515	-0.078	-0.0617369063783942	
1.52	0.399	-0.036066337791215444	
1.525	-0.032	-0.0027715526333925654	
1.53	-0.064	0.03358078415796671	
1.535	0.602	0.07916313872274752	
1.54	0.402	0.1428215979103601	
1.545	-0.046	0.2069095480348731	
1.55	0.396	0.24975203603187549	
1.555	0.494	0.2755422371378968	
1.56	-0.072	0.28479208280786583	
1.565	0.067	0.270087566080214	
1.57	0.431	0.2411443774502418	
1.575	-0.056	0.20426810599433692	
1.58	-0.172	0.1623684008759001	
1.585	0.253	0.11820358359037142	
1.59	0.017	0.07597112905997429	
1.595	-0.281	0.03681061016496999	
1.6	-0.011	0.002695783623798486	
1.605	0.119	-0.029304369936899107	
1.61	-0.256	-0.0542035944117411	
1.615	-0.133	-0.06701346085600254	
1.62	0.268	-0.06675288135110599	
1.625	-0.160	-0.06167485132947441	
1.63	-0.226	-0.05376636795662232	
1.635	0.293	-0.04075629371105827	
1.64	0.130	-0.019902554865521664	
1.645	-0.221	0.004688053018031917	
1.65	0.142	0.026631119978412575	
1.655	0.291	0.04184795722769012	
1.66	-0.207	0.051749995807438845	
1.665	-0.102	0.0508276674748315	
1.67	0.294	0.041351540386567506	
1.675	-0.145	0.026404037872862565	
1.68	-0.258	0.009083358378430805	
1.685	0.152	-0.010756623479556984	
1.69	-0.020	-0.03177523725557585	
1.695	-0.296	-0.05038833779900726	
1.7	0.004	-0.05942650991498329	
1.705	0.169	-0.06502302230744574	
1.71	-0.267	-0.06626339720442201	
1.715	-0.168	-0.06427244924714676	
1.72	0.174	-0.06655311167884267	
1.725	-0.221	-0.07456572735964932	
1.73	-0.319	-0.08604134719315579	
1.735	0.126	-0.09569035483975227	
1.74	0.184	-0.09167065432961874	
1.745	0.143	-0.048481622095746316	
1.75	1.047	0.06963429816030062	
1.755	1.376	0.27617780036546596	
1.76	0.613	-0.06427244924714676	
1.765	0.302	-0.06427244924714676	
1.77	0.285	-0.06655311167884267	
1.775	-0.282	-0.048481622095746316	
1.78	-0.439	0.4178030252903513	
1.785	-0.136	0.2013496464492442	
1.79	-0.175	0.0014744203135414434	
1.795	-0.354	-0.14157858960495467	
1.8	-0.014	-0.20844623845630816	
1.805	0.184	-0.21772153425648688	
1.81	-0.210	-0.1903989706693385	
1.815	-0.078	-0.1414730592117974	
1.82	0.373	-0.08525559297250947	
1.825	-0.053	-0.03154537567052631	
1.83	-0.160	0.010618164191012473	
1.835	0.380	0.04549310726344528	
1.84	0.236	0.0775486596927612	
1.845	-0.162	0.10512612922148135	
1.85	0.276	0.12652786778256486	
1.855	0.514	0.14950004625618768	
1.86	-0.032	0.17645536012343804	
1.865	0.175	0.20136338150883556	
1.87	0.719	0.2299630805640802	
1.875	0.312	0.2725181886719572	
1.88	0.165	0.3174092337199125	
1.885	0.793	0.36254433458472785	
1.89	0.633	0.41272211505871886	
1.895	0.102	0.4550039859478692	
1.9	0.547	0.47439579686326483	
1.905	0.692	0.4776347123611419	
1.91	0.032	0.46651138130605335	
1.915	0.140	0.4311831343276542	
1.92	0.558	0.380937789746955	
1.925	0.020	0.32569752534013374	
1.93	-0.168	0.2633494438199382	
1.935	0.288	0.19836235709352956	
1.94	0.114	0.1398795096446653	
1.945	-0.232	0.09115494247168845	
1.95	0.096	0.057192522304236854	
1.955	0.302	0.037635814166365536	
1.96	-0.197	0.028772516289830838	
1.965	-0.110	0.02406571437931932	
1.97	0.306	0.018757730587894598	
1.975	-0.114	0.01193562340856125	
1.98	-0.232	0.004395361653573131	
1.985	0.230	-0.0009006752780645446	
1.99	0.065	-0.004007290828344149	
1.995	-0.285	-0.007667185091220375	
2.0	0.015	-0.013058687848070386	
2.005	0.239	-0.018411200371028877	
2.01	-0.230	-0.02095651379768982	
2.015	-0.165	-0.02205703927102165	
2.02	0.206	-0.028444427710896756	
2.025	-0.197	-0.04182736974303128	
2.03	-0.337	-0.06055532297168546	
2.035	-0.011	-0.08417513989277396	
2.04	-0.124	-0.1159051366000836	
2.045	-0.392	-0.14746432982705004	
2.05	-0.146	-0.16625724060163072	
2.055	0.029	-0.17946594681952588	
2.06	-0.314	-0.18674043511872823	
2.065	-0.252	-0.18112820035744467	
2.07	-0.046	-0.1785770499334099	
2.075	-0.348	-0.1937011286400163	
2.08	-0.438	-0.21554383577864522	
2.085	0.065	-0.2252513941942223	
2.09	0.413	-0.19678367607321667	
2.095	0.497	-0.08938724605317264	
2.1	1.308	0.12273302651401764	
2.105	1.471	-0.17946594681952588	
2.11	0.357	-0.18112820035744467	
2.115	-0.148	-0.18112820035744467	
2.12	-0.145	-0.1937011286400163	
2.125	-0.499	0.4674226388580203	
2.13	-0.630	0.18938559410719438	
2.135	-0.303	-0.06329692690276245	
2.14	-0.293	-0.2586629495818521	
2.145	-0.483	-0.3774159761821126	
2.15	-0.197	-0.4164024939561473	
2.155	0.040	-0.4003224485614826	
2.16	-0.282	-0.3526845607536193	
2.165	-0.160	-0.28229866277368587	
2.17	0.287	-0.20347541754844067	
2.175	-0.102	-0.13058923649069068	
2.18	-0.210	-0.07174208647217062	
2.185	0.277	-0.02625607534811325	
2.19	0.154	0.010350335509476895	
2.195	-0.215	0.03638490024500223	
2.2	0.178	0.05656703360180999	
2.205	0.466	0.07982568338392872	
2.21	-0.053	0.10922541580388206	
2.215	0.137	0.14057446604108048	
2.22	0.764	0.18267931380168806	
2.225	0.419	0.24749718461032122	
2.23	0.232	0.3221117916157453	
2.235	0.872	0.3957419011703466	
2.24	0.741	0.47149819686089195	
2.245	0.169	0.5303288360060843	
2.25	0.596	0.5564045052011091	
2.255	0.742	0.5598946217950811	
2.26	0.032	0.5403426992145244	
2.265	0.055	0.4844013963034242	
2.27	0.465	0.40255043039280763	
2.275	-0.041	0.31371521543478775	
2.28	-0.229	0.22313966517515	
2.285	0.155	0.13647319929871116	
2.29	0.044	0.06163116912079698	
2.295	-0.279	0.0046103330160999845	
2.3	-0.052	-0.03282601766462899	
2.305	0.120	-0.06121767680798547	
2.31	-0.288	-0.0833071678255137	
2.315	-0.213	-0.0966266559624746	
2.32	0.149	-0.10473064843956834	
2.325	-0.192	-0.11107630883623985	
2.33	-0.331	-0.11671353674803238	
2.335	-0.003	-0.12282020354991931	
2.34	-0.102	-0.13535670260490018	
2.345	-0.364	-0.150155926432874	
2.35	-0.149	-0.1579981275012624	
2.355	-0.041	-0.16833946582904646	
2.36	-0.413	-0.1870975251619454	
2.365	-0.331	-0.2046646513498651	
2.37	-0.020	-0.2188917550059745	
2.375	-0.274	-0.23193576776267213	
2.38	-0.404	-0.23766264412627391	
2.385	-0.093	-0.23596045411827118	
2.39	-0.131	-0.23629070860089116	
2.395	-0.390	-0.23508663877595268	
2.4	-0.172	-0.22510485957265572	
2.405	0.003	-0.21430327700258014	
2.41	-0.377	-0.21002944376751082	
2.415	-0.389	-0.20977049706294118	
2.42	-0.163	-0.22388700291253033	
2.425	-0.363	-0.2558688085133542	
2.43	-0.409	-0.2817503010338268	
2.435	0.282	-0.2689019299678673	
2.44	0.558	-0.19211599405212623	
2.445	0.126	-0.05618249200532219	
2.45	0.390	0.0927959403523272	
2.455	0.223	0.1987952488183553	
2.46	-0.444	0.21686613907172989	
2.465	-0.544	0.14205054472951026	
2.47	-0.351	0.0002524468041176821	
2.475	-0.535	-0.16878530381015075	
2.48	-0.608	-0.3119109667008374	
2.485	-0.268	-0.40285249077407825	
2.49	-0.226	-0.4480088573377525	
2.495	-0.406	-0.4473533316368083	
2.5	-0.140	-0.40216169818899805	
2.505	0.161	-0.33191582407122355	
2.51	-0.258	-0.25522918348235546	
2.515	-0.217	-0.18506247981562687	
2.52	0.258	-0.12746275283395056	
2.525	-0.099	-0.08383333366430562	
2.53	-0.259	-0.054254471048379244	
2.535	0.207	-0.03267776932508907	
2.54	0.161	-0.012837322795981067	
2.545	-0.223	0.004289854222923204	
2.55	0.126	0.022812909403274514	
2.555	0.488	0.04842785681778378	
2.56	-0.053	0.08460198147619684	
2.565	0.059	0.11971155922786497	
2.57	0.665	0.15684854561099817	
2.575	0.355	0.20924820803321603	
2.58	0.090	0.26544115160495896	
2.585	0.669	0.3164122693238053	
2.59	0.553	0.362384202309706	
2.595	-0.040	0.38907619399423643	
2.6	0.293	0.3836734051070943	
2.605	0.553	0.35863645850983	
2.61	-0.069	0.3256148238921467	
2.615	-0.082	0.276507041383686	
2.62	0.364	0.21589105880706794	
2.625	-0.058	0.15640280648203245	
2.63	-0.249	0.0993461155803378	
2.635	0.195	0.05331285517162364	
2.64	0.126	0.021549623737517426	
2.645	-0.268	0.00015478145221130835	
2.65	-0.031	-0.012481904641202501	
2.655	0.291	-0.020329723739416314	
2.66	-0.194	-0.020215258447003608	
2.665	-0.159	-0.016595186950562762	
2.67	0.308	-0.011206249415200497	
2.675	-0.081	-0.007434393709562074	
2.68	-0.277	-0.008666540143330423	
2.685	0.116	-0.014869971417301602	
2.69	0.076	-0.02535542679763593	
2.695	-0.299	-0.03673781898200906	
2.7	-0.082	-0.04564896510257247	
2.705	0.229	-0.05434164272823227	
2.71	-0.268	-0.060050449347409614	
2.715	-0.288	-0.06769113040103972	
2.72	0.062	-0.08532570729828722	
2.725	-0.218	-0.11328720395242514	
2.73	-0.380	-0.1396324311696397	
2.735	-0.018	-0.15599989350708254	
2.74	-0.063	-0.16929523039251765	
2.745	-0.339	-0.17565508131529425	
2.75	-0.122	-0.16973571646768007	
2.755	-0.011	-0.1633486207562807	
2.76	-0.409	-0.1720052764774978	
2.765	-0.393	-0.18974828098093174	
2.77	-0.008	-0.2092911322562043	
2.775	-0.098	-0.22121582706454773	
2.78	-0.067	-0.19770060271001977	
2.785	0.857	-0.10392716720592118	
2.79	0.910	0.0678809610642643	
2.795	0.126	0.25918679801425026	
2.8	0.133	-0.1720052764774978	
2.805	0.062	-0.17904346497816295	
2.81	-0.448	-0.18499606461841142	
2.815	-0.506	0.1480572817982012	
2.82	-0.223	-0.021237772642750702	
2.825	-0.367	-0.17904346497816295	
2.83	-0.496	-0.28983017217345597	
2.835	-0.124	-0.3420339262157355	
2.84	-0.092	-0.3549947951422488	
2.845	-0.372	-0.33680132561632703	
2.85	-0.131	-0.2929339784927515	
2.855	0.186	-0.23903270828114948	
2.86	-0.239	-0.18499606461841142	
2.865	-0.203	-0.1360775017138719	
2.87	0.326	-0.09107762598099214	
2.875	-0.002	-0.05003453930647149	
2.88	-0.212	-0.01410052630247876	
2.885	0.315	0.018035993824981198	
2.89	0.332	0.054182079764930745	
2.895	-0.146	0.08997643136992019	
2.9	0.223	0.12097622801067165	
2.905	0.599	0.15422011753614293	
2.91	0.027	0.19196197408287818	
2.915	0.041	0.21870048810317277	
2.92	0.613	0.235060331591472	
2.925	0.244	0.25110782471563864	
2.93	-0.087	0.2607107725153502	
2.935	0.453	0.25797414548379194	
2.94	0.408	0.255372060707112	
2.945	-0.149	0.24795931216702735	
2.95	0.120	0.22678852348779327	
2.955	0.383	0.1952854002768959	
2.96	-0.178	0.16011781057966068	
2.965	-0.204	0.11557456138629346	
2.97	0.270	0.06795416374043244	
2.975	-0.101	0.025302346444620857	
2.98	-0.323	-0.011246930176852023	
2.985	0.038	-0.04323763607095007	
2.99	0.030	-0.07155192068580585	
2.995	-0.314	-0.09284162623129455	
3.0	-0.089	-0.10036506633790951	
3.005	0.206	-0.0987958533462811	
3.01	-0.242	-0.09366529274835783	
3.015	-0.229	-0.08646444738962701	
3.02	0.241	-0.07722543794901693	
3.025	-0.076	-0.06755265210515835	
3.03	-0.290	-0.060179238997336584	
3.035	0.111	-0.05343188146251175	
3.04	0.075	-0.049497635950482136	
3.045	-0.311	-0.05170565464035035	
3.05	-0.142	-0.058540613396976915	
3.055	0.091	-0.07384227533022876	
3.06	-0.323	-0.09747671543307537	
3.065	-0.339	-0.12255025089379985	
3.07	-0.003	-0.1473560630181939	
3.075	-0.227	-0.17638504416330994	
3.08	-0.399	-0.197158310370142	
3.085	-0.063	-0.20457966796223195	
3.09	-0.058	-0.20739600271202463	
3.095	-0.377	-0.20663467823359255	
3.1	-0.218	-0.19967146657067722	
3.105	-0.043	-0.19779310562483599	
3.11	-0.372	-0.20840189796021918	
3.115	-0.348	-0.21767120563268644	
3.12	0.274	-0.20829515599730272	
3.125	0.372	-0.15522750334339275	
3.13	0.247	-0.04225963236794765	
3.135	0.880	0.11839922957874645	
3.14	0.768	-0.19779310562483599	
3.145	-0.172	-0.19779310562483599	
3.15	-0.204	-0.19779310562483599	
3.155	-0.142	0.3223089893781195	
3.16	-0.476	0.14867930884499528	
3.165	-0.479	-0.026795395381832787	
3.17	-0.154	-0.17027723721306667	
3.175	-0.274	-0.27513809713758086	
3.18	-0.410	-0.32834550433601317	
3.185	-0.052	-0.32862167011297655	
3.19	0.018	-0.30213934770801976	
3.195	-0.319	-0.25877144616211434	
3.2	-0.140	-0.20882610817126468	
3.205	0.224	-0.16153513721772564	
3.21	-0.180	-0.1204286177083217	
3.215	-0.188	-0.0829147561650836	
3.22	0.271	-0.05112227263052474	
3.225	-0.008	-0.026188935971823646	
3.23	-0.183	-0.0075806602719825185	
3.235	0.349	0.01951457840526765	
3.24	0.412	0.062003978038879366	
3.245	-0.095	0.1099907739296003	
3.25	0.248	0.15214717861333033	
3.255	0.678	0.1957191211075189	
3.26	0.175	0.24547932234910028	
3.265	0.145	0.28788894770254053	
3.27	0.710	0.3220543841734762	
3.275	0.375	0.35191363581278645	
3.28	-0.034	0.366199876572099	
3.285	0.471	0.35947458517127495	
3.29	0.451	0.3421796821851148	
3.295	-0.122	0.31694386477931813	
3.3	0.091	0.2769945789897995	
3.305	0.422	0.22980292309643618	
3.31	-0.119	0.1835904844666273	
3.315	-0.163	0.137776276094632	
3.32	0.303	0.09499918685515973	
3.325	0.004	0.060070977803972456	
3.33	-0.226	0.034224476679274085	
3.335	0.197	0.022345542421404546	
3.34	0.250	0.021255837989372087	
3.345	-0.197	0.028061731511830442	
3.35	0.008	0.03687127747330037	
3.355	0.323	0.04276241729078842	
3.36	-0.127	0.043731628067929615	
3.365	-0.127	0.04372409517284696	
3.37	0.372	0.04689244934618361	
3.375	0.041	0.05318750100598477	
3.38	-0.232	0.055235693032098306	
3.385	0.177	0.05218842230204832	
3.39	0.187	0.04632178197095946	
3.395	-0.267	0.03616634741976487	
3.4	-0.136	0.01872119849679125	
3.405	0.143	-0.01026456281021097	
3.41	-0.261	-0.0450999211833164	
3.415	-0.294	-0.07534381231662157	
3.42	0.084	-0.10022919027021043	
3.425	-0.142	-0.12267249305338623	
3.43	-0.354	-0.13872082158398163	
3.435	-0.047	-0.143944488952291	
3.44	-0.002	-0.15062562787214398	
3.445	-0.377	-0.15775361706138663	
3.45	-0.265	-0.16236357691180447	
3.455	-0.035	-0.17625711441354205	
3.46	-0.265	-0.19604461471217532	
3.465	-0.125	-0.19238439999224194	
3.47	0.863	-0.12714246255035472	
3.475	0.936	0.029458664400136735	
3.48	0.553	0.25019351995710815	
3.485	0.790	-0.143944488952291	
3.49	0.325	-0.15062562787214398	
3.495	-0.386	-0.13946981264906583	
3.5	-0.355	-0.12714246255035472	
3.505	-0.180	0.23884474105844095	
3.51	-0.407	0.025007649254738615	
3.515	-0.396	-0.13946981264906583	
3.52	-0.018	-0.2391260023959638	
3.525	-0.104	-0.2845293456192234	
3.53	-0.273	-0.27989120755979846	
3.535	0.142	-0.23190690063149885	
3.54	0.247	-0.16241634173405198	
3.545	-0.186	-0.08995352811235995	
3.55	0.043	-0.024471009423224773	
3.555	0.451	0.030038527574518817	
3.56	-0.053	0.07486721223670018	
3.565	-0.090	0.10330458982517321	
3.57	0.503	0.1240431383059324	
3.575	0.267	0.14852068632954069	
3.58	-0.073	0.1758453458296932	
3.585	0.466	0.20212914665336376	
3.59	0.556	0.23378542096474056	
3.595	0.122	0.2719145744425909	
3.6	0.529	0.3184364858144453	
3.605	0.968	0.38424531268709566	
3.61	0.433	0.46088844001382984	
3.615	0.302	0.5211024049042621	
3.62	0.848	0.5540802840825971	
3.625	0.538	0.5686628573061141	
3.63	0.065	0.5597207590225897	
3.635	0.538	0.5260033776889737	
3.64	0.559	0.4819363095993559	
3.645	-0.072	0.43197275881871566	
3.65	0.088	0.3672223481592591	
3.655	0.425	0.29522646391440727	
3.66	-0.104	0.22511485964138583	
3.665	-0.163	0.1600512654648789	
3.67	0.320	0.10691386815575432	
3.675	0.046	0.06785999146645566	
3.68	-0.244	0.041849221698197554	
3.685	0.161	0.025770446160299096	
3.69	0.274	0.021967994691687094	
3.695	-0.209	0.025224269430429092	
3.7	-0.038	0.031060534411189594	
3.705	0.413	0.036074595318266296	
3.71	-0.104	0.04637864765903347	
3.715	-0.195	0.05103796401033113	
3.72	0.216	0.0436100362881852	
3.725	-0.058	0.025010105880085284	
3.73	-0.299	-0.0009537145575459608	
3.735	0.011	-0.02651651097027208	
3.74	0.062	-0.051078541462476125	
3.745	-0.326	-0.07546686950079218	
3.75	-0.218	-0.09507531921579931	
3.755	0.041	-0.11815376739589205	
3.76	-0.300	-0.14436209179593512	
3.765	-0.361	-0.16588853158192002	
3.77	-0.049	-0.18265152077518998	
3.775	-0.192	-0.2028826868654133	
3.78	-0.401	-0.21676792834203437	
3.785	-0.136	-0.2187056297563461	
3.79	-0.151	-0.22412635399742048	
3.795	-0.494	-0.24130338229314316	
3.8	-0.334	-0.2581479201381291	
3.805	0.037	-0.26721468872032217	
3.81	-0.089	-0.25622740351515716	
3.815	0.302	-0.1878747179020774	
3.82	1.271	-0.024625539957109817	
3.825	1.053	0.22426480150807918	
3.83	0.277	-0.21676792834203437	
3.835	0.195	-0.2187056297563461	
3.84	-0.114	-0.22412635399742048	
3.845	-0.540	0.41875665452932265	
3.85	-0.453	0.20267970283842018	
3.855	-0.209	-0.014174782380871043	
3.86	-0.413	-0.1950521395692794	
3.865	-0.416	-0.30699895457244497	
3.87	-0.075	-0.353757167995605	
3.875	-0.182	-0.361626545107843	
3.88	-0.351	-0.3378380114748737	
3.885	-0.014	-0.28788224057670303	
3.89	0.128	-0.2298876122433454	
3.895	-0.255	-0.17129831688441366	
3.9	-0.101	-0.11840464837266364	
3.905	0.308	-0.07404372836778526	
3.91	-0.111	-0.037137545406967114	
3.915	-0.160	-0.00821572669258019	
3.92	0.410	0.019376058297990446	
3.925	0.226	0.05546226662398745	
3.93	-0.113	0.09293259274445996	
3.935	0.410	0.13112691378913585	
3.94	0.593	0.17832528017111926	
3.945	0.116	0.2345966169900995	
3.95	0.398	0.2904591194048161	
3.955	0.849	0.34913264305964975	
3.96	0.370	0.40992300522299246	
3.965	0.216	0.45458484221799694	
3.97	0.764	0.4783706269133468	
3.975	0.480	0.4886243976540795	
3.98	-0.035	0.4778461355626413	
3.985	0.380	0.4379582404228284	
3.99	0.430	0.38444131733322995	
3.995	-0.140	0.3237094418973384	
4.0	-0.031	0.2552764857141934	
4.005	0.357	0.18608086985194328	
4.01	-0.122	0.12515835053261634	
4.015	-0.209	0.07456494458384698	
4.02	0.265	0.037173261316609224	
4.025	0.041	0.013797268186393676	
4.03	-0.265	-0.0009908552417897106	
4.035	0.021	-0.012273243328563685	
4.04	0.183	-0.023570028102951054	
4.045	-0.232	-0.03102949041627334	
4.05	-0.113	-0.03284761305496209	
4.055	0.241	-0.033102515884783974	
4.06	-0.192	-0.036624350966490686	
4.065	-0.282	-0.04440941429794208	
4.07	0.091	-0.058084329660851974	
4.075	-0.111	-0.07810284676633208	
4.08	-0.372	-0.10081995540969028	
4.085	-0.127	-0.12147347565742886	
4.09	-0.064	-0.14761487950924262	
4.095	-0.410	-0.17682729164450134	
4.1	-0.303	-0.19893171168521412	
4.105	-0.047	-0.21822721866368588	
4.11	-0.320	-0.23746778007650443	
4.115	-0.399	-0.24738294396281585	
4.12	-0.089	-0.24920782741823608	
4.125	-0.200	-0.25403774475431906	
4.13	-0.442	-0.2567704107329851	
4.135	-0.227	-0.25454798000411205	
4.14	-0.166	-0.2615910565931727	
4.145	-0.453	-0.276815266935373	
4.15	-0.256	-0.27996969678999484	
4.155	0.437	-0.2501292855935794	
4.16	0.465	-0.1564094812051056	
4.165	0.582	0.014569620380273826	
4.17	1.108	-0.2501292855935794	
4.175	0.460	-0.25403774475431906	
4.18	-0.328	-0.25454798000411205	
4.185	-0.270	-0.2501292855935794	
4.19	-0.290	-0.2274789153471331	
4.195	-0.578	0.07812409431507021	
4.2	-0.435	-0.1170372289162261	
4.205	-0.169	-0.2609910567035931	
4.21	-0.377	-0.3544439562599659	
4.215	-0.395	-0.3896000755666155	
4.22	0.014	-0.3739938869521784	
4.225	-0.108	-0.33389078693254176	
4.23	-0.354	-0.2831121561743718	
4.235	-0.029	-0.2274789153471331	
4.24	0.218	-0.17324194424953476	
4.245	-0.206	-0.11911242252464663	
4.25	-0.078	-0.06816893694263026	
4.255	0.370	-0.025738941951603107	
4.26	-0.061	0.010434481057376757	
4.265	-0.145	0.03711092888506009	
4.27	0.450	0.06223133439331332	
4.275	0.351	0.09923459488790345	
4.28	-0.034	0.1455972891395168	
4.285	0.517	0.19657688930526815	
4.29	0.767	0.26101386729956166	
4.295	0.236	0.33571155992176394	
4.3	0.427	0.4016905595603631	
4.305	0.861	0.4554776713004679	
4.31	0.355	0.49544296375061025	
4.315	0.137	0.5078978015730796	
4.32	0.669	0.4952810472402484	
4.325	0.413	0.46936460077544767	
4.33	-0.098	0.4294771291889735	
4.335	0.276	0.3714740201906015	
4.34	0.380	0.30712933164025624	
4.345	-0.162	0.24476265057988306	
4.35	-0.055	0.18357354890315883	
4.355	0.348	0.12849019371961834	
4.36	-0.119	0.08359721494003164	
4.365	-0.217	0.04687158718248225	
4.37	0.290	0.022178391545944146	
4.375	0.119	0.014489197231246198	
4.38	-0.235	0.015564748318796765	
4.385	0.114	0.02031839638283953	
4.39	0.294	0.026134447217478093	
4.395	-0.182	0.03393026829505518	
4.4	-0.093	0.03846184830048212	
4.405	0.288	0.0353559593906781	
4.41	-0.137	0.025768904615425102	
4.415	-0.258	0.009888776331891426	
4.42	0.158	-0.008033118356897656	
4.425	-0.008	-0.026427632897446048	
4.43	-0.313	-0.04528471551819666	
4.435	-0.066	-0.05985641919511025	
4.44	0.030	-0.08091470350632389	
4.445	-0.351	-0.10688293160607765	
4.45	-0.270	-0.12960105671556643	
4.455	0.040	-0.1497595343164667	
4.46	-0.250	-0.17008743787435543	
4.465	-0.363	-0.18208575791544124	
4.47	-0.021	-0.18515516871562243	
4.475	-0.153	-0.19336800760602676	
4.48	-0.432	-0.2012404296254664	
4.485	-0.195	-0.2069328944006806	
4.49	-0.014	-0.2148764956674834	
4.495	-0.220	-0.21384236120344052	
4.5	0.280	-0.1686199264278452	
4.505	1.267	-0.03462387630003587	
4.51	1.011	0.1960077992191779	
4.515	0.646	-0.18208575791544124	
4.52	0.706	-0.18515516871562243	
4.525	-0.006	-0.18715719589969648	
4.53	-0.468	-0.1686199264278452	
4.535	-0.310	-0.12947240485404576	
4.54	-0.191	0.1732674637841543	
4.545	-0.454	-0.04381197631771856	
4.55	-0.352	-0.19574711441609743	
4.555	0.027	-0.28060072821346127	
4.56	-0.209	-0.31096314572783523	
4.565	-0.288	-0.29529916123754263	
4.57	0.165	-0.24708591419496528	
4.575	0.050	-0.18715719589969648	
4.58	-0.253	-0.12947240485404576	
4.585	0.068	-0.07701627499691177	
4.59	0.290	-0.033574572066178164	
4.595	-0.175	0.0010206967446233371	
4.6	-0.055	0.0260702564004384	
4.605	0.469	0.04858153219291868	
4.61	0.082	0.07703622248169796	
4.615	-0.084	0.10745238185002136	
4.62	0.521	0.13701206718860762	
4.625	0.454	0.17802226455420417	
4.63	0.047	0.2263560567073322	
4.635	0.561	0.27792262762684194	
4.64	0.812	0.33863383673964736	
4.645	0.219	0.4019967743469089	
4.65	0.357	0.44688228679656844	
4.655	0.780	0.4726516888288897	
4.66	0.262	0.48015292470319915	
4.665	-0.029	0.45830216371784116	
4.67	0.477	0.40990988811060236	
4.675	0.268	0.3521897908021778	
4.68	-0.204	0.28838169354473053	
4.685	0.052	0.21871242231270843	
4.69	0.238	0.1456841472563127	
4.695	-0.221	0.08120822270553579	
4.7	-0.140	0.03276866801145726	
4.705	0.293	-0.00045560944219562717	
4.71	-0.114	-0.018620673624384295	
4.715	-0.255	-0.028656359184664776	
4.72	0.175	-0.03429691296343655	
4.725	0.046	-0.037716406157729726	
4.73	-0.271	-0.039458296120116504	
4.735	0.020	-0.037458425376145646	
4.74	0.242	-0.03336293408228147	
4.745	-0.220	-0.026603772542130172	
4.75	-0.166	-0.02232493514666605	
4.755	0.219	-0.02462259913713337	
4.76	-0.168	-0.03345927024819445	
4.765	-0.319	-0.04760786363188019	
4.77	0.001	-0.0685001813491143	
4.775	-0.117	-0.09865980571384998	
4.78	-0.390	-0.13130322965549715	
4.785	-0.156	-0.15459618691250998	
4.79	0.006	-0.17341939481696964	
4.795	-0.343	-0.18744177375129967	
4.8	-0.279	-0.19135647484195323	
4.805	0.040	-0.19072397806406827	
4.81	-0.246	-0.1933649844621307	
4.815	-0.360	-0.19257987395260934	
4.82	-0.053	-0.18857218567286105	
4.825	-0.178	-0.1946251067076931	
4.83	-0.453	-0.20830028999049396	
4.835	-0.198	-0.21863833172331407	
4.84	0.110	-0.22135903300216475	
4.845	-0.105	-0.2004354418210777	
4.85	0.348	-0.12937906935655547	
4.855	1.017	0.011418455965860247	
4.86	0.456	-0.19257987395260934	
4.865	-0.148	-0.19257987395260934	
4.87	0.008	-0.1946251067076931	
4.875	-0.238	-0.1946251067076931	
4.88	-0.549	0.1336182816511615	
4.885	-0.329	-0.02272016774549267	
4.89	-0.168	-0.1622165548179433	
4.895	-0.428	-0.26641448540794876	
4.9	-0.317	-0.3175267215561451	
4.905	0.064	-0.3225492460200014	
4.91	-0.194	-0.3012582919532698	
4.915	-0.314	-0.2608298254135222	
4.92	0.096	-0.21049624696332292	
4.925	0.058	-0.1633947473296053	
4.93	-0.247	-0.11853825055044093	
4.935	0.026	-0.07672575533366671	
4.94	0.250	-0.04206671738949366	
4.945	-0.195	-0.017593636433075127	
4.95	-0.067	0.0003288150651842282	
4.955	0.483	0.024674539797144988	
4.96	0.061	0.05772616901953257	
4.965	-0.119	0.08992034820424806	
4.97	0.474	0.1186473272494328	
4.975	0.442	0.15578362127844075	
4.98	-0.046	0.198240886167802	
4.985	0.399	0.23521877405312402	
4.99	0.700	0.2741755679968175	
4.995	0.107	0.31436055085228565	
5.0	0.149	0.33811956755563455	
5.005	0.614	0.3427648438233283	
5.01	0.093	0.3308421548585189	
5.015	-0.163	0.2967701674376858	
5.02	0.332	0.2455738073665637	
5.025	0.155	0.19294082400391843	
5.03	-0.250	0.14125408618814816	
5.035	0.023	0.09305955815608799	
5.04	0.226	0.05023688554602847	
5.045	-0.256	0.013510856589436801	
5.05	-0.218	-0.0169933408410929	
5.055	0.146	-0.046300592073621326	
5.06	-0.133	-0.07297367411685554	
5.065	-0.247	-0.0862192341498978	
5.07	0.212	-0.08055937081993567	
5.075	0.099	-0.06196151643726771	
5.08	-0.279	-0.043683947547938584	
5.085	-0.018	-0.031093009507812304	
5.09	0.268	-0.02474051517355893	
5.095	-0.206	-0.017364929449081443	
5.1	-0.185	-0.014105788740279606	
5.105	0.204	-0.018366879083374057	
5.11	-0.153	-0.03183915510031633	
5.115	-0.319	-0.049262005253168706	
5.12	0.085	-0.06469526982189203	
5.125	-0.032	-0.08185670410014499	
5.13	-0.425	-0.10161937478742812	
5.135	-0.212	-0.1262298951880117	
5.14	-0.024	-0.15772001058040844	
5.145	-0.386	-0.1892503342929429	
5.15	-0.326	-0.21017984869012213	
5.155	0.012	-0.22039072451982028	
5.16	-0.252	-0.22773293334923467	
5.165	-0.406	-0.22830709647953354	
5.17	-0.110	-0.22475380286585964	
5.175	-0.149	-0.2287753650406691	
5.18	-0.393	-0.2346396656128625	
5.185	-0.063	-0.22226259206902127	
5.19	0.527	-0.17758822361692506	
5.195	0.258	-0.08124034816159505	
5.2	0.437	0.06173101594459051	
5.205	0.904	-0.21247474774669808	
5.21	0.122	-0.21247474774669808	
5.215	-0.342	-0.20858246023850302	
5.22	-0.117	-0.17758822361692506	
5.225	-0.192	0.181364148624109	
5.23	-0.512	0.023278063960635805	
5.235	-0.290	-0.1103292900093028	
5.24	-0.081	-0.21247474774669808	
5.245	-0.352	-0.27626820812762803	
5.25	-0.281	-0.29436818574396323	
5.255	0.111	-0.276186640502073	
5.26	-0.175	-0.2456652481197601	
5.265	-0.325	-0.20858246023850302	
5.27	0.047	-0.17163384629804523	
5.275	0.053	-0.1425644022540956	
5.28	-0.242	-0.11491787462688403	
5.285	0.061	-0.07930374149761787	
5.29	0.405	-0.03629987392079689	
5.295	-0.067	0.012529546712803008	
5.3	-0.029	0.05749265183141452	
5.305	0.508	0.09605324019753252	
5.31	0.136	0.13029512983646654	
5.315	-0.082	0.15818157070465627	
5.32	0.598	0.18555251707169473	
5.325	0.604	0.23158911099853866	
5.33	-0.026	0.28383935440265895	
5.335	0.317	0.31564953196531065	
5.34	0.593	0.32688385070352993	
5.345	-0.009	0.32345679276412764	
5.35	0.059	0.30436574618484724	
5.355	0.556	0.27815879139063937	
5.36	0.093	0.2543667400918771	
5.365	-0.183	0.22308272752564312	
5.37	0.274	0.18449826238017433	
5.375	0.239	0.14666533186201375	
5.38	-0.198	0.11688467032257623	
5.385	0.047	0.0935904009301325	
5.39	0.297	0.07288692137134391	
5.395	-0.188	0.052548803546511036	
5.4	-0.055	0.03934755353291135	
5.405	0.468	0.04210010883094332	
5.41	-0.012	0.05844493276060923	
5.415	-0.244	0.06610001120649944	
5.42	0.197	0.06138504078828782	
5.425	0.136	0.04770535102617339	
5.43	-0.253	0.032972145932279595	
5.435	-0.018	0.01947685148834362	
5.44	0.256	0.006861618049285896	
5.445	-0.233	-0.006307063827172282	
5.45	-0.235	-0.019728255529255497	
5.455	0.165	-0.03804076889967778	
5.46	-0.092	-0.058417146281147185	
5.465	-0.300	-0.06981939613085424	
5.47	0.003	-0.07775809142809711	
5.475	-0.041	-0.09529120077247569	
5.48	-0.319	-0.11391436161332151	
5.485	-0.035	-0.11656145641940736	
5.49	0.184	-0.10818340152179194	
5.495	-0.285	-0.09826724105397726	
5.5	-0.268	-0.0937272949218087	
5.505	0.072	-0.09905582790711488	
5.51	-0.209	-0.11642977362724377	
5.515	-0.418	-0.13784641477527954	
5.52	-0.171	-0.16171837780450915	
5.525	-0.192	-0.19927384981698093	
5.53	-0.313	-0.23099146117784486	
5.535	0.221	-0.21348707585519128	
5.54	0.819	-0.12301917191554668	
5.545	0.401	0.031647597715524445	
5.55	0.512	0.21118675454239466	
5.555	0.870	-0.11642977362724377	
5.56	-0.020	-0.12301917191554668	
5.565	-0.390	-0.12301917191554668	
5.57	-0.146	0.3363563211839149	
5.575	-0.111	0.16694890823551894	
5.58	-0.381	0.00783427369977485	
5.585	-0.204	-0.10262212457860154	
5.59	0.027	-0.1748181790367245	
5.595	-0.233	-0.21338581106747553	
5.6	-0.166	-0.20898629961834062	
5.605	0.262	-0.17167459026950904	
5.61	-0.085	-0.12735166458720037	
5.615	-0.270	-0.08933468406175712	
5.62	0.184	-0.05650147233060396	
5.625	0.297	-0.023850995593885416	
5.63	-0.210	0.01251650358139648	
5.635	0.154	0.04829399767690005	
5.64	0.558	0.08551274490048501	
5.645	-0.098	0.12444474405214243	
5.65	-0.070	0.1466980356580762	
5.655	0.559	0.1555990132425099	
5.66	0.276	0.17379253056901933	
5.665	0.011	0.20337128139498784	
5.67	0.599	0.2395448082214383	
5.675	0.561	0.28338883340247245	
5.68	-0.032	0.3193447546003829	
5.685	0.395	0.3381403234165321	
5.69	0.744	0.3537202808774279	
5.695	0.015	0.36449472538476024	
5.7	-0.006	0.35047812551260804	
5.705	0.684	0.3216250015079709	
5.71	0.366	0.3090108263724878	
5.715	-0.090	0.3072731447649555	
5.72	0.544	0.3023301022214693	
5.725	0.630	0.3065738036055128	
5.73	-0.124	0.31954027026015286	
5.735	-0.024	0.3008415703597521	
5.74	0.212	0.23855780413674796	
5.745	-0.238	0.15286810281907548	
5.75	-0.224	0.071529555036624	
5.755	0.230	0.008243317760913423	
5.76	-0.093	-0.035842264257612125	
5.765	-0.267	-0.061390337844510576	
5.77	0.245	-0.06196954938719046	
5.775	0.223	-0.04158243581294854	
5.78	-0.261	-0.015067185053258346	
5.785	-0.034	0.003792608700832647	
5.79	0.297	0.01025173013709612	
5.795	-0.209	0.010136014446837188	
5.8	-0.226	0.003648884605277154	
5.805	0.453	0.0008662248957622188	
5.81	0.117	0.01827657639338735	
5.815	-0.210	0.04592517194401081	
5.82	0.171	0.06165232146184848	
5.825	-0.122	0.0482330669020734	
5.83	-0.474	-0.002625720083063437	
5.835	-0.277	-0.0733092883443772	
5.84	-0.076	-0.14512362710794144	
5.845	-0.378	-0.2074924227298923	
5.85	-0.366	-0.24515835407199787	
5.855	-0.122	-0.26459968643596143	
5.86	-0.329	-0.28565276097847286	
5.865	-0.462	-0.30069511994952214	
5.87	-0.226	-0.30360833508253615	
5.875	-0.116	-0.3078998740696388	
5.88	0.035	-0.2822353673886583	
5.885	0.797	-0.16626333588443357	
5.89	1.235	0.05370266470191977	
5.895	0.625	0.3146107923755657	
5.9	0.290	-0.24515835407199787	
5.905	0.393	-0.26459968643596143	
5.91	-0.213	-0.22534730847025464	
5.915	-0.517	0.41531692682124216	
5.92	-0.320	0.20723936742490964	
5.925	-0.355	-0.012797365350723552	
5.93	-0.631	-0.20514290439195207	
5.935	-0.357	-0.3374904527768853	
5.94	-0.024	-0.4033103642805877	
5.945	-0.355	-0.41213700346001403	
5.95	-0.328	-0.37923420599524804	
5.955	0.300	-0.31684883230304095	
5.96	0.105	-0.22534730847025464	
5.965	-0.339	-0.13167286155313057	
5.97	-0.084	-0.07500537293662576	
5.975	-0.055	-0.06974079089507035	
5.98	-0.334	-0.08801941302837654	
5.985	-0.111	-0.10368237646629505	
5.99	0.165	-0.1104132996609408	
5.995	-0.270	-0.11098246790158203	
6.0	-0.284	-0.11226549739221771	
6.005	0.168	-0.11302172725294717	
6.01	-0.067	-0.10826957133310494	
6.015	-0.229	-0.0955424747356389	
6.02	0.274	-0.06806744716582364	
6.025	0.370	-0.018717505964650848	
6.03	-0.075	0.0420911815966111	
6.035	0.283	0.10321102883819844	
6.04	0.614	0.16551067866420555	
6.045	0.101	0.22417815668653068	
6.05	-0.063	0.25568508403533097	
6.055	0.216	0.24275099651146392	
6.06	-0.081	0.18984669417455385	
6.065	-0.256	0.11859540084887168	
6.07	0.037	0.05170837444259349	
6.075	-0.040	-0.0097480033819618	
6.08	-0.413	-0.06967636907039598	
6.085	-0.226	-0.12089198479705801	
6.09	0.027	-0.1626388270477534	
6.095	-0.310	-0.1906066293413018	
6.1	-0.334	-0.2022444060274338	
6.105	-0.069	-0.20940957151319367	
6.11	-0.171	-0.2190627137242636	
6.115	-0.290	-0.21628373757758923	
6.12	0.043	-0.19241451081067912	
6.125	-0.027	-0.16477361014027073	
6.13	-0.363	-0.1475905895797695	
6.135	-0.188	-0.14095031682273323	
6.14	0.128	-0.13868005014377627	
6.145	-0.326	-0.13956022370587484	
6.15	-0.348	-0.14528527099626481	
6.155	-0.040	-0.16043257724129975	
6.16	-0.258	-0.18500828795218863	
6.165	-0.508	-0.21233453255730964	
6.17	-0.252	-0.24147152426987983	
6.175	-0.172	-0.27469440320719607	
6.18	-0.424	-0.2975619126318765	
6.185	-0.252	-0.29698624882140323	
6.19	-0.084	-0.28864516482774083	
6.195	-0.416	-0.28457598170073206	
6.2	-0.462	-0.28532335332855663	
6.205	-0.236	-0.2953560749220785	
6.21	-0.442	-0.3250373416828787	
6.215	-0.595	-0.35843902543310513	
6.22	-0.185	-0.3773255242990591	
6.225	0.219	-0.3605960611518052	
6.23	0.241	-0.2727184398999983	
6.235	0.898	-0.0898730634103383	
6.24	1.244	-0.28457598170073206	
6.245	0.413	-0.28457598170073206	
6.25	-0.131	-0.28532335332855663	
6.255	-0.061	-0.28778362566011106	
6.26	-0.375	-0.2727184398999983	
6.265	-0.589	0.18035093713175288	
6.27	-0.274	-0.026141465884046384	
6.275	-0.253	-0.1964994733234733	
6.28	-0.517	-0.3139946706244192	
6.285	-0.323	-0.3728506476728767	
6.29	-0.069	-0.3892071627832237	
6.295	-0.314	-0.3769645597999111	
6.3	-0.328	-0.33949229946480924	
6.305	0.105	-0.28778362566011106	
6.31	-0.087	-0.23520379695204977	
6.315	-0.258	-0.1809303148275967	
6.32	0.218	-0.12183902426303445	
6.325	0.337	-0.05643662209576628	
6.33	-0.162	0.008561251466462631	
6.335	0.055	0.05924925309791717	
6.34	0.375	0.08808675096407756	
6.345	-0.078	0.10267877745818342	
6.35	-0.040	0.10938817892133308	
6.355	0.733	0.1296420704065195	
6.36	0.405	0.1837001120733168	
6.365	-0.081	0.24374747518748835	
6.37	0.332	0.2713857111064831	
6.375	0.367	0.2686406331073693	
6.38	-0.114	0.25130155224267825	
6.385	0.418	0.23838489459332304	
6.39	0.573	0.24828455567850666	
6.395	-0.159	0.25547305306863766	
6.4	-0.238	0.22229815913283751	
6.405	0.110	0.1517601858124767	
6.41	-0.116	0.0656436191881783	
6.415	-0.242	0.23838489459332304	
6.42	0.288	0.22229815913283751	
6.425	0.337	-0.025303221557174158	
6.43	-0.053	0.016207041178404463	
6.435	0.479	0.08338458973830673	
6.44	0.765	0.1783715793252589	
6.445	0.184	0.27646347701626045	
6.45	-0.021	0.3352150259509932	
6.455	0.319	0.33376369955066554	
6.46	-0.075	0.27968141282841685	
6.465	-0.215	0.19863409342240063	
6.47	0.265	0.12848552571535501	
6.475	0.343	0.09080387945288362	
6.48	-0.142	0.08122994749159829	
6.485	0.102	0.08623100342247114	
6.49	0.495	0.09939148843157122	
6.495	0.123	0.125629371583266	
6.5	0.067	0.16317979961593548	
6.505	0.343	0.18969952628426867	
6.51	-0.153	0.17878183370387135	
6.515	-0.415	0.12260097462017794	
6.52	-0.125	0.038342181225170524	
6.525	-0.096	-0.055136231935725824	
6.53	-0.392	-0.13469696908968978	
6.535	-0.157	-0.17984128585676148	
6.54	0.203	-0.1915738047566522	
6.545	-0.236	-0.17831031693992827	
6.55	-0.329	-0.15691580960199622	
6.555	-0.082	-0.15129576306994635	
6.56	-0.195	-0.16910418365730082	
6.565	-0.232	-0.18041916711970027	
6.57	0.567	-0.13961937322435494	
6.575	0.941	-0.017982923119748112	
6.58	0.439	0.166238012688872	
6.585	0.620	-0.15129576306994635	
6.59	0.657	-0.15129576306994635	
6.595	-0.210	-0.15129576306994635	
6.6	-0.406	-0.14612671047557937	
6.605	-0.130	-0.13961937322435494	
6.61	-0.235	0.09805576895495227	
6.615	-0.395	-0.06150239300945119	
6.62	-0.079	-0.16171906668115985	
6.625	-0.023	-0.21790463720343134	
6.63	-0.354	-0.23877085658531988	
6.635	-0.180	-0.23003242063090495	
6.64	0.139	-0.20839519724786448	
6.645	-0.194	-0.18128062287976282	
6.65	-0.198	-0.14612671047557937	
6.655	0.297	-0.10313157656965719	
6.66	0.023	-0.06095119283648713	
6.665	-0.201	-0.023711669546552953	
6.67	0.277	0.012332814883426246	
6.675	0.402	0.05322797712114135	
6.68	-0.067	0.09803909400730033	
6.685	0.285	0.144903824632	
6.69	0.689	0.19682732070583372	
6.695	0.158	0.2526542411952292	
6.7	0.166	0.29766315090171747	
6.705	0.770	0.33401693422499057	
6.71	0.521	0.3761791087094018	
6.715	0.116	0.41509686839683646	
6.72	0.623	0.43928219259711815	
6.725	0.596	0.45039426768865304	
6.73	-0.078	0.44098758134669946	
6.735	0.181	0.4007269683210226	
6.74	0.488	0.34390321874533614	
6.745	-0.122	0.28279578084303214	
6.75	-0.169	0.21354264464842626	
6.755	0.363	0.1469201253354901	
6.76	0.041	0.09837200728142388	
6.765	-0.287	0.06214719123071542	
6.77	0.020	0.0260582287152244	
6.775	0.119	-0.010533233883489413	
6.78	-0.274	-0.03975660288337801	
6.785	-0.102	-0.055424057105668945	
6.79	0.312	-0.05824078713743566	
6.795	-0.165	-0.04993801395372712	
6.8	-0.223	-0.03844185131117647	
6.805	0.213	-0.032374453953134125	
6.81	-0.056	-0.032514546135032074	
6.815	-0.316	-0.03865074190205035	
6.82	0.033	-0.04717580894013616	
6.825	0.078	-0.05959734347890207	
6.83	-0.300	-0.0714990650018278	
6.835	-0.102	-0.07752693063269327	
6.84	0.175	-0.07844337407681348	
6.845	-0.273	-0.08373496259294452	
6.85	-0.293	-0.09238538039810906	
6.855	0.174	-0.09959609390306426	
6.86	-0.009	-0.09840196724243358	
6.865	-0.096	-0.07847474273298673	
6.87	0.183	-0.03835844872787593	
6.875	-0.056	-0.010647711981960354	
6.88	-0.404	-0.021364864441944527	
6.885	-0.270	-0.05964143256052053	
6.89	0.024	-0.10749561467098673	
6.895	-0.401	-0.15757307039218915	
6.9	-0.451	-0.20145454342885896	
6.905	-0.043	-0.2356880459246826	
6.91	-0.110	-0.2542385959730188	
6.915	-0.160	-0.2384962066291756	
6.92	0.645	-0.15945774575489174	
6.925	0.840	-0.009400930614873083	
6.93	0.119	0.16770179483978526	
6.935	0.064	0.29201935125746104	
6.94	0.151	0.31948780388360826	
6.945	-0.395	0.256641956813414	
6.95	-0.509	0.1323448011864316	
6.955	-0.197	-0.01484525334814795	
6.96	-0.297	-0.15495511011433435	
6.965	-0.569	-0.2614889933055564	
6.97	-0.255	-0.32577764350315985	
6.975	-0.102	-0.3602989255352676	
6.98	-0.323	-0.35804737022576355	
6.985	-0.165	-0.31807761338436613	
6.99	0.210	-0.25749162850491925	
6.995	-0.206	-0.1951522247926272	
7.0	-0.270	-0.1417398382159943	
7.005	0.163	-0.10495848568525609	
7.01	-0.060	-0.08184476088108036	
7.015	-0.302	-0.07053649162839606	
7.02	0.032	-0.06391365649575367	
7.025	0.120	-0.06221260859307673	
7.03	-0.296	-0.06303540131840041	
7.035	-0.122	-0.06423189107331151	
7.04	0.349	-0.058427617406569335	
7.045	-0.120	-0.041019759342344704	
7.05	-0.212	-0.021860762642493384	
7.055	0.302	-0.008007382521332838	
7.06	0.116	0.009325820454621698	
7.065	-0.226	0.027443623366661014	
7.07	0.168	0.039926833750970406	
7.075	0.224	0.046879926897632346	
7.08	-0.320	0.043073890978458027	
7.085	-0.188	0.019593721116808356	
7.09	0.151	-0.016492883299214216	
7.095	-0.253	-0.0548227938014383	
7.1	-0.367	-0.08988772125267486	
7.105	-0.035	-0.12519384766399105	
7.11	-0.200	-0.16355263148056526	
7.115	-0.447	-0.19642936971055805	
7.12	-0.172	-0.2182429187505445	
7.125	-0.090	-0.23612958930274702	
7.13	-0.416	-0.2487375292129135	
7.135	-0.271	-0.25046269392346737	
7.14	0.088	-0.2415917151103196	
7.145	-0.247	-0.22470369177098426	
7.15	-0.326	-0.20187254591323264	
7.155	0.064	-0.18030330944783557	
7.16	-0.140	-0.16550490609080476	
7.165	-0.393	-0.15938782723873682	
7.17	-0.105	-0.15833539736276422	
7.175	-0.008	-0.1641202369555236	
7.18	-0.386	-0.17167203112021823	
7.185	-0.268	-0.17752678309931402	
7.19	0.037	-0.18562537542441138	
7.195	-0.317	-0.1946429986190487	
7.2	-0.395	-0.20288910771601554	
7.205	-0.069	-0.21133970745465552	
7.21	-0.198	-0.22446277310557564	
7.215	-0.396	-0.23237451972366877	
7.22	-0.096	-0.22734335563003688	
7.225	-0.043	-0.21909856348733014	
7.23	-0.392	-0.21270088863870612	
7.235	-0.291	-0.2075393380603842	
7.24	-0.018	-0.2095707112085307	
7.245	-0.319	-0.2176844371338528	
7.25	-0.380	-0.22293674134514288	
7.255	0.097	-0.21722708085897335	
7.26	0.126	-0.1914434088451677	
7.265	-0.037	-0.1324788802176898	
7.27	0.637	-0.030242425355053032	
7.275	0.668	0.10600664773091355	
7.28	-0.197	0.2231119887888488	
7.285	-0.253	0.25533459495152583	
7.29	-0.149	0.1885268548939209	
7.295	-0.489	0.05529773598039896	
7.3	-0.570	-0.0910297998522381	
7.305	-0.242	-0.2211500578406929	
7.31	-0.300	-0.32038720946807187	
7.315	-0.457	-0.3745606928980873	
7.32	-0.133	-0.37723503988531937	
7.325	-0.055	-0.35093108125556893	
7.33	-0.409	-0.3169129411484496	
7.335	-0.268	-0.27957504561228763	
7.34	0.053	-0.24631528964919788	
7.345	-0.282	-0.22281345049012677	
7.35	-0.342	-0.20213929053896845	
7.355	0.058	-0.18397759645303824	
7.36	-0.111	-0.1714228718988192	
7.365	-0.358	-0.16181886772253368	
7.37	0.021	-0.14711135262971342	
7.375	0.245	-0.12275553524761912	
7.38	-0.213	-0.08715027307007803	
7.385	-0.073	-0.050609004678933284	
7.39	0.328	-0.02105275925392319	
7.395	-0.128	0.0010549306164139044	
7.4	-0.119	0.016675444992368223	
7.405	0.459	0.03827780991716001	
7.41	0.215	0.07363516770001179	
7.415	-0.194	0.10590814167473878	
7.42	0.177	0.11995321451026472	
7.425	0.247	0.11641465122723549	
7.43	-0.273	0.09766199640969733	
7.435	-0.136	0.06631832054863321	
7.44	0.245	0.028156620643132423	
7.445	-0.239	-0.007972573099211313	
7.45	-0.337	-0.04348582563771624	
7.455	0.068	-0.07862561380410306	
7.46	-0.116	-0.11129065259272033	
7.465	-0.383	-0.13620386363558423	
7.47	-0.095	-0.1500038960971109	
7.475	0.053	-0.1604705226386436	
7.48	-0.313	-0.1634250932104182	
7.485	-0.107	-0.1506950792934967	
7.49	0.398	-0.11769915052406199	
7.495	-0.153	-0.07403615961551192	
7.5	-0.246	-0.038612065425749215	
7.505	0.351	-0.013502506982393511	
7.51	0.108	0.011760097092971012	
7.515	-0.261	0.03163167604375921	
7.52	0.105	0.04000198817411092	
7.525	0.212	0.03665559383931263	
7.53	-0.299	0.025490334045780598	
7.535	-0.220	0.002193623170840712	
7.54	0.101	-0.034625355943375596	
7.545	-0.293	-0.07799506157648634	
7.55	-0.399	-0.11967406942782836	
7.555	-0.090	-0.15848805259327658	
7.56	-0.252	-0.20220382574155404	
7.565	-0.471	-0.2393970066625055	
7.57	-0.142	-0.25795605339644456	
7.575	-0.018	-0.26128909765559893	
7.58	-0.403	-0.2555789650273183	
7.585	-0.332	-0.243797750056378	
7.59	-0.078	-0.24052371459269428	
7.595	-0.352	-0.2520912011757998	
7.6	-0.345	-0.2567449696824321	
7.605	0.364	-0.22827366251568212	
7.61	0.511	-0.14616000335552773	
7.615	0.171	-0.012588165293135558	
7.62	0.665	0.14513377187852536	
7.625	0.444	-0.24052371459269428	
7.63	-0.378	-0.24052371459269428	
7.635	-0.422	-0.22827366251568212	
7.64	-0.227	0.1397087215066664	
7.645	-0.477	-0.03616080633502873	
7.65	-0.515	-0.18689921399072265	
7.655	-0.151	-0.2890773124342876	
7.66	-0.235	-0.35014559767764386	
7.665	-0.413	-0.36783089497414617	
7.67	-0.087	-0.3426988609064241	
7.675	0.062	-0.29896871066889663	
7.68	-0.320	-0.2490818279496922	
7.685	-0.183	-0.19783036652403035	
7.69	0.229	-0.15294884492096145	
7.695	-0.207	-0.11841889443243839	
7.7	-0.297	-0.09517305242356423	
7.705	0.288	-0.07470890276011294	
7.71	0.139	-0.04814407357586585	
7.715	-0.220	-0.015270218436460866	
7.72	0.221	0.020511782088154625	
7.725	0.428	0.056313287771723036	
7.73	-0.082	0.09452956074290716	
7.735	0.226	0.13513249695944834	
7.74	0.765	0.18747971805926902	
7.745	0.264	0.25139662072351493	
7.75	0.078	0.3075333250940162	
7.755	0.681	0.3446133720824206	
7.76	0.427	0.3679081186704251	
7.765	-0.053	0.37536782064561824	
7.77	0.457	0.36564692023227535	
7.775	0.593	0.35355773081219466	
7.78	-0.072	0.3382706347096584	
7.785	0.065	0.310036625034241	
7.79	0.503	0.26971832525646383	
7.795	-0.020	0.22833096437764694	
7.8	-0.143	0.18738317710146568	
7.805	0.401	0.15378612752435383	
7.81	0.172	0.12997833795722355	
7.815	-0.210	0.1132160189094649	
7.82	0.226	0.10369650540874153	
7.825	0.401	0.1026800507831858	
7.83	-0.159	0.10617195158152237	
7.835	0.008	0.109996826735664	
7.84	0.508	0.11484858775998993	
7.845	0.003	0.1213060627966009	
7.85	-0.127	0.12826985073687278	
7.855	0.451	0.1328574733950437	
7.86	0.216	0.13903336045154174	
7.865	-0.198	0.14310820624782725	
7.87	0.203	0.13968311965271704	
7.875	0.373	0.13276404341679698	
7.88	-0.204	0.12213188020337001	
7.885	-0.108	0.10493574939220515	
7.89	0.344	0.07989859672358125	
7.895	-0.130	0.05232685421932301	
7.9	-0.235	0.029227579566427513	
7.905	0.241	0.012872213940158366	
7.91	0.043	-0.0019379913465737142	
7.915	-0.273	-0.01191508756119767	
7.92	0.099	-0.012301743272689684	
7.925	0.253	-0.009201834087567445	
7.93	-0.274	-0.007913664438102631	
7.935	-0.188	-0.010070920052599934	
7.94	0.223	-0.0230368817166744	
7.945	-0.078	-0.03871779870338627	
7.95	0.161	-0.02079163955991486	
7.955	1.346	0.08206383408734239	
7.96	1.491	0.30015709596186707	
7.965	1.061	-0.007913664438102631	
7.97	1.169	-0.007913664438102631	
7.975	0.721	0.02001462810259828	
7.98	-0.233	0.06711679877704047	
7.985	-0.262	0.07583482102591065	
7.99	0.023	0.5621005964826877	
7.995	-0.247	0.2833001059362877	
8.0	-0.277	0.06711679877704047	
8.005	0.279	-0.05988828169566947	
8.01	0.158	-0.10784230013122756	
8.015	-0.143	-0.09715253060820804	
8.02	0.280	-0.045207337404405	
8.025	0.415	0.02001462810259828	
8.03	-0.125	0.07583482102591065	
8.035	0.146	0.12183349423254339	
8.04	0.726	0.16931044451472452	
8.045	0.204	0.22320198009300032	
8.05	0.059	0.270840666536203	
8.055	0.806	0.31321688978102935	
8.06	0.622	0.3642728231792717	
8.065	-0.015	0.40959825210962303	
8.07	0.483	0.4277083501356693	
8.075	0.744	0.4292366892872569	
8.08	0.247	0.434840804881464	
8.085	0.538	0.4576744372193218	
8.09	1.084	0.5013885303135724	
8.095	0.596	0.5613296017878429	
8.1	0.407	0.617728761935465	
8.105	0.998	0.6601201671727366	
8.11	0.777	0.6883859776840875	
8.115	0.273	0.6986336575863861	
8.12	0.698	0.6905885351534615	
8.125	0.748	0.6632601305797051	
8.13	0.078	0.6149190052055378	
8.135	0.239	0.547546599030222	
8.14	0.680	0.4773312862806163	
8.145	0.142	0.4134923643632712	
8.15	-0.056	0.35470935081014865	
8.155	0.537	0.30298311902503283	
8.16	0.418	0.2705407675121737	
8.165	-0.044	0.25975598051007914	
8.17	0.447	0.2634011246328828	
8.175	0.611	0.2772791002205507	
8.18	-0.003	0.29314931171779773	
8.185	0.175	0.29940996396785485	
8.19	0.620	0.29915325795687453	
8.195	0.062	0.2907219117919675	
8.2	-0.099	0.2687375068885479	
8.205	0.518	0.24369711716812226	
8.21	0.317	0.22667202821254862	
8.215	-0.151	0.21696422180020666	
8.22	0.258	0.20510059293328098	
8.225	0.413	0.19121928700932306	
8.23	-0.165	0.17450509706459366	
8.235	-0.099	0.15025631830948735	
8.24	0.261	0.11186197021355547	
8.245	-0.182	0.06305274970455746	
8.25	-0.296	0.015859559870418746	
8.255	0.094	-0.02569175625489364	
8.26	-0.061	-0.0652294402367149	
8.265	-0.346	-0.09671552962358647	
8.27	-0.099	-0.11315882523009452	
8.275	-0.017	-0.1319213955907859	
8.28	-0.393	-0.15818568617457535	
8.285	-0.271	-0.1747829148623229	
8.29	0.317	-0.17333160602386488	
8.295	0.175	-0.13572948743677596	
8.3	0.390	-0.03702671937178235	
8.305	1.431	0.14416686076022517	
8.31	1.322	0.4018829732608928	
8.315	0.469	-0.11315882523009452	
8.32	0.265	-0.1319213955907859	
8.325	-0.053	-0.1319213955907859	
8.33	-0.509	0.5660070539662232	
8.335	-0.460	0.31214954920825044	
8.34	-0.182	0.06151054649280087	
8.345	-0.367	-0.14756891963582439	
8.35	-0.389	-0.27794504415805876	
8.355	0.099	-0.3220100323499999	
8.36	-0.006	-0.3101289385784074	
8.365	-0.284	-0.26248792374032925	
8.37	0.076	-0.19336718672530712	
8.375	0.337	-0.1199653489068686	
8.38	-0.142	-0.049993469204184994	
8.385	0.029	0.01311236324813202	
8.39	0.588	0.0715516049288766	
8.395	0.192	0.1313751444068385	
8.4	0.073	0.19090762620994595	
8.405	0.768	0.2520123517630257	
8.41	0.648	0.32393244430426044	
8.415	0.219	0.398415312102391	
8.42	0.776	0.46758926979717236	
8.425	1.047	0.5391331183734476	
8.43	0.442	0.612021245117973	
8.435	0.660	0.6690088365721937	
8.44	1.178	0.7165485010310461	
8.445	0.665	0.7574826653248655	
8.45	0.393	0.7778548446293578	
8.455	0.994	0.7728543040411462	
8.46	0.733	0.7560281241924158	
8.465	0.142	0.7215399239491724	
8.47	0.570	0.6643760136044442	
8.475	0.747	0.6020779887124307	
8.48	0.017	0.5403148764968002	
8.485	0.081	0.4649094130084972	
8.49	0.527	0.3812582239313408	
8.495	0.035	0.3047886935753242	
8.5	-0.142	0.23705462043503228	
8.505	0.367	0.18144516245979075	
8.51	0.157	0.14009876261673054	
8.515	-0.229	0.10798933606705277	
8.52	0.090	0.08206560307340871	
8.525	0.273	0.058804293821280385	
8.53	-0.221	0.04081500908785344	
8.535	-0.140	0.023909023438875326	
8.54	0.259	0.006757788831639187	
8.545	-0.171	-0.011914558709640826	
8.55	-0.314	-0.031638766165074855	
8.555	0.018	-0.05706724919397925	
8.56	-0.114	-0.09093186969199114	
8.565	-0.392	-0.12449926879266139	
8.57	-0.146	-0.14920422107699982	
8.575	-0.047	-0.17153386112642005	
8.58	-0.406	-0.19573075764900538	
8.585	-0.332	-0.21303348664320018	
8.59	-0.060	-0.22770016163288326	
8.595	-0.328	-0.24670009530133985	
8.6	-0.428	-0.2583327239350922	
8.605	-0.087	-0.26041890058034145	
8.61	-0.183	-0.26298703371919735	
8.615	-0.453	-0.2641543501069725	
8.62	-0.229	-0.2593633750926372	
8.625	-0.142	-0.2617529665645037	
8.63	-0.471	-0.27448211836623454	
8.635	-0.366	-0.2839969198713179	
8.64	0.068	-0.2819144132957435	
8.645	0.003	-0.2565692758981448	
8.65	0.020	-0.18817933007413337	
8.655	0.645	-0.07355789491294133	
8.66	0.361	0.05999881690657246	
8.665	-0.325	-0.2617529665645037	
8.67	-0.201	-0.2617529665645037	
8.675	-0.226	0.09616922786864901	
8.68	-0.636	-0.03132674552707633	
8.685	-0.550	-0.16903181261212932	
8.69	-0.235	-0.2910373953749641	
8.695	-0.407	-0.3794433396836124	
8.7	-0.462	-0.41912422060591514	
8.705	-0.104	-0.41271779650202506	
8.71	-0.116	-0.382957797744488	
8.715	-0.340	-0.3348931447903116	
8.72	-0.056	-0.2715287746645122	
8.725	0.166	-0.20786541270190056	
8.73	-0.236	-0.15127402807853443	
8.735	-0.142	-0.10304063881931663	
8.74	0.323	-0.06309091253981726	
8.745	-0.089	-0.029471666113937388	
8.75	-0.209	-0.006164401173683725	
8.755	0.306	0.011266953097454286	
8.76	0.187	0.03206460806572837	
8.765	-0.175	0.05408581023601019	
8.77	0.245	0.074432657221213	
8.775	0.498	0.10517952268468014	
8.78	-0.058	0.14078087055435534	
8.785	0.073	0.16588460611563846	
8.79	0.565	0.18486343253203819	
8.795	0.067	0.2016562807353313	
8.8	-0.139	0.202828775728789	
8.805	0.334	0.1850825362455446	
8.81	0.155	0.16215687124223382	
8.815	-0.258	0.132253667920073	
8.82	-0.020	0.09120618943805062	
8.825	0.131	0.04308593328873341	
8.83	-0.300	-0.0049122937446643275	
8.835	-0.221	-0.047170232251357	
8.84	0.130	-0.08141614369469743	
8.845	-0.244	-0.10910060197202351	
8.85	-0.386	-0.13299443408499287	
8.855	-0.052	-0.15624837566979238	
8.86	-0.140	-0.17881254106438188	
8.865	-0.418	-0.19841683804509272	
8.87	-0.188	-0.20899636278869407	
8.875	-0.052	-0.21909832914799485	
8.88	-0.381	-0.227603635951481	
8.885	-0.311	-0.2301814186929414	
8.89	-0.047	-0.23071127976049566	
8.895	-0.319	-0.2379310903131424	
8.9	-0.454	-0.24583226977189443	
8.905	-0.154	-0.2555008960198899	
8.91	-0.227	-0.26981551176185703	
8.915	-0.470	-0.2831965469500255	
8.92	-0.264	-0.2881214470648649	
8.925	-0.175	-0.29521799079182853	
8.93	-0.486	-0.3074395363328757	
8.935	-0.428	-0.31818519505883297	
8.94	-0.159	-0.3278408748472822	
8.945	-0.381	-0.3398470864181651	
8.95	-0.499	-0.34477155281520383	
8.955	-0.175	-0.342583686750714	
8.96	-0.215	-0.33880067169185357	
8.965	-0.508	-0.33115274736460604	
8.97	-0.319	-0.32316537915237903	
8.975	-0.186	-0.3242234953926878	
8.98	-0.444	-0.33041867225473864	
8.985	-0.291	-0.32418336286440397	
8.99	0.373	-0.2847888031625001	
8.995	0.270	-0.19480965758814328	
9.0	0.116	-0.06379521583508732	
9.005	0.588	0.07541062251610517	
9.01	0.032	0.18016445441166912	
9.015	-0.524	0.19773567970920675	
9.02	-0.460	0.11677321058967303	
9.025	-0.416	-0.03317744369841362	
9.03	-0.701	-0.206390481432742	
9.035	-0.599	-0.3532216450245744	
9.04	-0.294	-0.45578351745480195	
9.045	-0.457	-0.5127751306322874	
9.05	-0.535	-0.523825442134876	
9.055	-0.116	-0.49456605048273217	
9.06	-0.075	-0.4397127567941729	
9.065	-0.325	-0.3652129951522012	
9.07	-0.075	-0.2822052886313116	
9.075	0.078	-0.21112809009984335	
9.08	-0.340	-0.16246968006961593	
9.085	-0.293	-0.1383114448837059	
9.09	0.009	-0.1367320654746731	
9.095	-0.290	-0.1528210338114857	
9.1	-0.393	-0.17294134577772804	
9.105	-0.017	-0.1884836952873714	
9.11	-0.040	-0.19366816621553978	
9.115	-0.313	-0.1863475478883195	
9.12	-0.043	-0.16515493398036232	
9.125	0.215	-0.13598409966184768	
9.13	-0.239	-0.1035759193788214	
9.135	-0.171	-0.07636138933652331	
9.14	0.244	-0.05856914246628401	
9.145	-0.165	-0.046859626641519304	
9.15	-0.331	-0.049087651186065756	
9.155	-0.006	-0.06538890946861774	
9.16	-0.125	-0.09462167758944844	
9.165	-0.427	-0.1294936926467489	
9.17	-0.213	-0.16212620803056438	
9.175	-0.078	-0.19487263210582595	
9.18	-0.409	-0.22367474276328048	
9.185	-0.340	-0.24238561125068164	
9.19	-0.021	-0.2514205652029704	
9.195	-0.282	-0.2559115839284942	
9.2	-0.401	-0.25318782929829964	
9.205	-0.047	-0.24322743036533406	
9.21	-0.110	-0.23359157769208586	
9.215	-0.372	-0.22168599328557803	
9.22	-0.125	-0.20402808729718702	
9.225	0.097	-0.18471805329787067	
9.23	-0.294	-0.16588934936553573	
9.235	-0.226	-0.14743486088419286	
9.24	0.161	-0.131174459654391	
9.245	-0.191	-0.11903012098664474	
9.25	-0.326	-0.1133944237147389	
9.255	0.056	-0.11199165487124764	
9.26	-0.053	-0.11453027739042268	
9.265	-0.358	-0.12097404193953139	
9.27	-0.124	-0.1259228683417883	
9.275	0.058	-0.13449325179397523	
9.28	-0.337	-0.1441383071819064	
9.285	-0.277	-0.1505073861279951	
9.29	0.065	-0.157867080858109	
9.295	-0.238	-0.16614524206069958	
9.3	-0.363	-0.1726299844220379	
9.305	0.020	-0.17170263005907016	
9.31	-0.063	-0.17045610696706986	
9.315	-0.378	-0.1683232303619897	
9.32	-0.171	-0.16377503173706642	
9.325	0.021	-0.16722270746003187	
9.33	-0.281	-0.17247586294699777	
9.335	-0.023	-0.15655620786568766	
9.34	0.899	-0.08539477117699956	
9.345	0.716	0.06273961315365373	
9.35	0.447	-0.15655620786568766	
9.355	0.776	-0.15655620786568766	
9.36	0.175	-0.14165117929930288	
9.365	-0.413	-0.12925504262289855	
9.37	-0.271	-0.08539477117699956	
9.375	-0.148	0.18210542352226194	
9.38	-0.422	-0.0037629967498046327	
9.385	-0.311	-0.14165117929930288	
9.39	0.126	-0.2180454674458214	
9.395	-0.154	-0.24342595829181674	
9.4	-0.273	-0.2282350420554909	
9.405	0.215	-0.1850096072093223	
9.41	0.143	-0.12925504262289855	
9.415	-0.227	-0.0731499527472442	
9.42	0.143	-0.0214794055160821	
9.425	0.439	0.02743066235799636	
9.43	-0.102	0.07183408501980343	
9.435	0.021	0.10617072953224074	
9.44	0.593	0.13636017158224778	
9.445	0.197	0.17143710862713243	
9.45	-0.024	0.20539393678815304	
9.455	0.648	0.23729424090160384	
9.46	0.619	0.28291732726545216	
9.465	0.137	0.3374899028627505	
9.47	0.645	0.3925736706231599	
9.475	0.951	0.45373298722013033	
9.48	0.344	0.515634279591482	
9.485	0.433	0.561004823603751	
9.49	0.951	0.5875923634655528	
9.495	0.474	0.6034392068096265	
9.5	0.149	0.5971770941626053	
9.505	0.716	0.5703610158826031	
9.51	0.561	0.5360382835029568	
9.515	-0.034	0.4953719663654427	
9.52	0.354	0.44250190771648346	
9.525	0.565	0.3888393252955791	
9.53	-0.070	0.3386751955658647	
9.535	-0.012	0.28391804681896193	
9.54	0.491	0.23158973783147735	
9.545	0.021	0.1895667117364253	
9.55	-0.195	0.15318201258791914	
9.555	0.293	0.12024053831275591	
9.56	0.183	0.09511043880541263	
9.565	-0.233	0.07550184098178003	
9.57	0.075	0.06136952780129967	
9.575	0.340	0.05177679372661781	
9.58	-0.183	0.04686428432010789	
9.585	-0.139	0.04187908892079534	
9.59	0.326	0.034402399053093155	
9.595	-0.085	0.024702248673295582	
9.6	-0.256	0.014283896004491002	
9.605	0.174	0.004034117330736232	
9.61	0.044	-0.009881368566768288	
9.615	-0.332	-0.02631191049684842	
9.62	-0.116	-0.0447615470125227	
9.625	0.079	-0.07034280080863112	
9.63	-0.328	-0.1009541271006679	
9.635	-0.282	-0.12310700906858742	
9.64	0.068	-0.1407542494946991	
9.645	-0.238	-0.1602194516907023	
9.65	-0.380	-0.17262313383566097	
9.655	-0.017	-0.17806510482287505	
9.66	-0.113	-0.18489696122475807	
9.665	-0.445	-0.19423830046227852	
9.67	-0.241	-0.2017796873079733	
9.675	-0.038	-0.21636958799448885	
9.68	-0.264	-0.2269403281071824	
9.685	0.136	-0.1960609075335359	
9.69	1.213	-0.08063970424620254	
9.695	1.018	0.1378331232443709	
9.7	0.601	-0.17806510482287505	
9.705	0.718	-0.18489696122475807	
9.71	0.041	-0.19423830046227852	
9.715	-0.499	-0.19423830046227852	
9.72	-0.367	-0.19043948327985877	
9.725	-0.221	0.1626967850615829	
9.73	-0.483	-0.06192918676278172	
9.735	-0.395	-0.2200883882419693	
9.74	-0.032	-0.3096465810850557	
9.745	-0.242	-0.3472302871019873	
9.75	-0.358	-0.33870604413729666	
9.755	0.065	-0.29693230541489957	
9.76	0.024	-0.24385487277658868	
9.765	-0.296	-0.19043948327985877	
9.77	0.004	-0.1356948079222587	
9.775	0.326	-0.08517544693164014	
9.78	-0.182	-0.039179217127989205	
9.785	-0.101	-0.0031967066919407886	
9.79	0.463	0.02857458500705782	
9.795	0.073	0.0606652657517605	
9.8	-0.120	0.09105901596648343	
9.805	0.561	0.1242663288333959	
9.81	0.567	0.17726821373356608	
9.815	0.056	0.24132738126013595	
9.82	0.559	0.30531776789701903	
9.825	0.890	0.3730292246564832	
9.83	0.258	0.43972069932982666	
9.835	0.328	0.4846602481452301	
9.84	0.858	0.5086880108829823	
9.845	0.376	0.5187261190170184	
9.85	0.015	0.5059248800683754	
9.855	0.588	0.46920773159285045	
9.86	0.453	0.42737322606794265	
9.865	-0.133	0.3813514428017601	
9.87	0.178	0.32417879703684294	
9.875	0.416	0.2630279340374126	
9.88	-0.165	0.20589738973899308	
9.885	-0.125	0.1516192882233078	
9.89	0.363	0.10353868604468106	
9.895	-0.067	0.06689410606860126	
9.9	-0.253	0.03705313258676671	
9.905	0.200	0.01599055013621288	
9.91	0.110	0.0013831486844178844	
9.915	-0.276	-0.008405977747791702	
9.92	0.000	-0.013960072089117218	
9.925	0.302	-0.015125766395700825	
9.93	-0.215	-0.011859484109641119	
9.935	-0.180	-0.009380569432346081	
9.94	0.268	-0.011729426362347995	
9.945	-0.120	-0.01796214997955511	
9.95	-0.297	-0.027780621626451153	
9.955	0.116	-0.038271055957618975	
9.96	0.008	-0.0516371875370883	
9.965	-0.354	-0.06814256174933445	
9.97	-0.140	-0.08410869797823949	
9.975	0.052	-0.10530742032016	
9.98	-0.355	-0.1316182689786612	
9.985	-0.319	-0.15234780226834552	
9.99	0.023	-0.1699603325201395	
9.995	-0.246	-0.18984771738377149	
10.0	-0.404	-0.2026321943276131	
10.005	-0.061	-0.20544123118747376	
10.01	-0.142	-0.212660857157456	
10.015	-0.473	-0.22399933544162196	
10.02	-0.252	-0.2311672988799916	
10.025	0.018	-0.2393663587956929	
10.03	-0.197	-0.23452939103631848	
10.035	0.250	-0.18230678119364951	
10.04	1.235	-0.042907774755850024	
10.045	0.886	0.18223293439569796	
10.05	0.279	0.412258019972168	
10.055	0.375	-0.20544123118747376	
10.06	-0.117	-0.212660857157456	
10.065	-0.567	0.4150000622644897	
10.07	-0.415	0.2147317990280542	
10.075	-0.247	-0.0013315217736672505	
10.08	-0.506	-0.18941081302979315	
10.085	-0.418	-0.311377568703516	
10.09	-0.049	-0.3700166849330335	
10.095	-0.252	-0.3827131569145855	
10.1	-0.378	-0.3596519487230676	
10.105	0.021	-0.3105177923804394	
10.11	-0.003	-0.25756091432081624	
10.115	-0.340	-0.20801779108764532	
10.12	-0.095	-0.16326748590678686	
10.125	0.224	-0.1272701694615672	
10.13	-0.238	-0.09752993469258411	
10.135	-0.168	-0.0714891217931799	
10.14	0.358	-0.04690729948188321	
10.145	-0.021	-0.019736490327409543	
10.15	-0.201	0.005186197517400178	
10.155	0.383	0.030571014647085153	
10.16	0.410	0.07055682334388502	
10.165	-0.101	0.11885611538872912	
10.17	0.322	0.16269414543838184	
10.175	0.648	0.2078654666560989	
10.18	-0.011	0.24845382863381127	
10.185	0.027	0.26537493464323786	
10.19	0.588	0.263114834267857	
10.195	0.130	0.25638269805919384	
10.2	-0.175	0.2391308040195242	
10.205	0.291	0.20642513628321155	
10.21	0.163	0.1666386058604441	
10.215	-0.294	0.12198021856042884	
10.22	-0.089	0.07153288296943891	
10.225	0.158	0.01679277730212151	
10.23	-0.305	-0.033310701726930986	
10.235	-0.279	-0.07262106228903316	
10.24	0.117	-0.10409602896030812	
10.245	-0.197	-0.12948674029702495	
10.25	-0.360	-0.14570174339334502	
10.255	0.015	-0.15176158164318665	
10.26	-0.024	-0.15439957697976697	
10.265	-0.358	-0.1548123275464967	
10.27	-0.128	-0.14953352127147798	
10.275	0.131	-0.14234956932921128	
10.28	-0.300	-0.13717780917054587	
10.285	-0.281	-0.1325898831734741	
10.29	0.093	-0.13124874296886502	
10.295	-0.218	-0.13844172359605084	
10.3	-0.404	-0.14961787481206884	
10.305	-0.073	-0.16186640876604091	
10.31	-0.130	-0.18041748195688148	
10.315	-0.457	-0.20272538930314485	
10.32	-0.252	-0.21857328982896565	
10.325	-0.066	-0.23438677539462904	
10.33	-0.416	-0.2531304920351513	
10.335	-0.404	-0.26359243350548667	
10.34	-0.084	-0.2712499595144082	
10.345	-0.300	-0.28242976822456267	
10.35	-0.460	-0.28764822241809246	
10.355	-0.120	-0.281816755803727	
10.36	-0.169	-0.27938349665054973	
10.365	-0.492	-0.2798415491833133	
10.37	-0.273	-0.27653977577692523	
10.375	0.037	-0.2712457183079353	
10.38	-0.188	-0.2532584509476325	
10.385	0.151	-0.19463077547724722	
10.39	0.927	-0.0719658231507754	
10.395	0.421	-0.2712457183079353	
10.4	-0.178	-0.2712457183079353	
10.405	-0.024	-0.2712457183079353	
10.41	-0.223	-0.2532584509476325	
10.415	-0.611	0.08592495957882587	
10.42	-0.421	-0.06153975422471512	
10.425	-0.213	-0.20200262017003878	
10.43	-0.480	-0.3113804499822036	
10.435	-0.407	-0.36877308364639694	
10.44	-0.008	-0.3797766875790264	
10.445	-0.229	-0.36249899151766607	
10.45	-0.389	-0.32609785888385506	
10.455	0.004	-0.2764408469960307	
10.46	0.003	-0.23014744351987276	
10.465	-0.339	-0.19040509180125487	
10.47	-0.085	-0.1524331380293025	
10.475	0.262	-0.11772260339312626	
10.48	-0.221	-0.08773157608371616	
10.485	-0.171	-0.05994216526673252	
10.49	0.392	-0.033373468427676155	
10.495	0.003	-0.004613974604894304	
10.5	-0.206	0.02152390619785034	
10.505	0.416	0.047889653108622386	
10.51	0.434	0.08905461532450286	
10.515	-0.105	0.13617577814452045	
10.52	0.297	0.1776121286862841	
10.525	0.660	0.21664500661667954	
10.53	-0.009	0.2520211018466856	
10.535	-0.002	0.264833921441402	
10.54	0.582	0.25993730507212454	
10.545	0.119	0.24841195044989647	
10.55	-0.204	0.22723505548974082	
10.555	0.288	0.1929889875301825	
10.56	0.235	0.1562267368917848	
10.565	-0.265	0.1210058328533486	
10.57	-0.034	0.08555784043660287	
10.575	0.288	0.04881233842496906	
10.58	-0.229	0.0179985678262561	
10.585	-0.209	-0.005249967485724132	
10.59	0.276	-0.021964949694015155	
10.595	-0.095	-0.034560271258313846	
10.6	-0.282	-0.0418459308391991	
10.605	0.186	-0.04095285408304704	
10.61	0.161	-0.033718832706537215	
10.615	-0.270	-0.02408832783536284	
10.62	0.001	-0.012433663480266177	
10.625	0.360	-0.002094039875843268	
10.63	-0.183	0.009922552951945156	
10.635	-0.169	0.018685541109597813	
10.64	0.343	0.022134339454014752	
10.645	-0.064	0.02142869650445907	
10.65	-0.279	0.015048040310633209	
10.655	0.168	0.0071067590310777825	
10.66	0.119	-0.0026637689303383016	
10.665	-0.310	-0.014186149273863946	
10.67	-0.070	-0.023427575816407295	
10.675	0.239	-0.033999838298051394	
10.68	-0.246	-0.04514453615996469	
10.685	-0.230	-0.05136199966117873	
10.69	0.245	-0.05474763764191786	
10.695	-0.105	-0.059588386660891925	
10.7	-0.300	-0.06206480094343531	
10.705	0.116	-0.05978663121546732	
10.71	0.035	-0.06160549476855757	
10.715	-0.346	-0.07035891919150042	
10.72	-0.078	-0.07538280922241661	
10.725	0.448	-0.06781078438722966	
10.73	0.145	-0.02626651523647031	
10.735	0.517	0.06958664753091472	
10.74	1.210	0.22551612943870586	
10.745	0.671	-0.059588386660891925	
10.75	-0.047	-0.05978663121546732	
10.755	0.238	-0.038483038659247217	
10.76	-0.008	-0.02626651523647031	
10.765	-0.422	0.3234383318578862	
10.77	-0.207	0.16061329915044797	
10.775	0.110	0.01739747789350349	
10.78	-0.273	-0.08937849382498884	
10.785	-0.221	-0.14155136269806629	
10.79	0.326	-0.14731056126500652	
10.795	-0.017	-0.12462103759655753	
10.8	-0.224	-0.08648248888122362	
10.805	0.320	-0.038483038659247217	
10.81	0.332	0.013648580985261222	
10.815	-0.165	0.062177408404246515	
10.82	0.209	0.10563356355231297	
10.825	0.611	0.1466268141450815	
10.83	0.003	0.18539845563993287	
10.835	0.050	0.21425206176221978	
10.84	0.700	0.23794341583385545	
10.845	0.346	0.2683926173940918	
10.85	0.023	0.29925306644234784	
10.855	0.730	0.3316345882403443	
10.86	0.762	0.3768394878406655	
10.865	0.155	0.4279928313327746	
10.87	0.590	0.4725519761988581	
10.875	0.962	0.5118173489751712	
10.88	0.296	0.5463849831798092	
10.885	0.267	0.5590807993632472	
10.89	0.840	0.5519927748584177	
10.895	0.383	0.5335070484007429	
10.9	-0.043	0.49815184658810485	
10.905	0.543	0.4485297271594481	
10.91	0.492	0.3989585364101381	
10.915	-0.119	0.3530630730124329	
10.92	0.213	0.308403047652149	
10.925	0.547	0.267814300164412	
10.93	-0.087	0.23457575172588785	
10.935	-0.098	0.20102043710374046	
10.94	0.466	0.16784006326793255	
10.945	0.062	0.14168613898308813	
10.95	-0.210	0.12025570179006818	
10.955	0.296	0.10530522812732095	
10.96	0.279	0.09598781443259755	
10.965	-0.220	0.09028562579699492	
10.97	0.052	0.08623766595654717	
10.975	0.412	0.08167315588554083	
10.98	-0.165	0.07682359181086486	
10.985	-0.165	0.07001092278522546	
10.99	0.355	0.058585604241928046	
10.995	-0.044	0.04583840507927893	
11.0	-0.277	0.030408793826560098	
11.005	0.151	0.017050118690207075	
11.01	0.091	-2.0517388869856353e-05	
11.015	-0.329	-0.020467629708878502	
11.02	-0.117	-0.0389079315018728	
11.025	0.195	-0.05747502834483234	
11.03	-0.262	-0.07494060789862272	
11.035	-0.249	-0.08498195399975675	
11.04	0.239	-0.08562235414913635	
11.045	-0.105	-0.08402432525791484	
11.05	-0.329	-0.08148568555673782	
11.055	0.033	-0.07914892833538847	
11.06	-0.012	-0.08899682340005141	
11.065	-0.370	-0.10531252728132331	
11.07	-0.084	-0.11302352951916253	
11.075	0.547	-0.09549680088136119	
11.08	0.270	-0.02975060530701453	
11.085	0.480	0.09198892183913054	
11.09	1.062	0.2532758176862498	
11.095	0.351	0.4020507760080407	
11.1	-0.288	-0.08148568555673782	
11.105	-0.101	-0.08899682340005141	
11.11	-0.188	0.2750809655271441	
11.115	-0.529	0.09481340803918004	
11.12	-0.299	-0.06314497899487023	
11.125	0.000	-0.18151884903936452	
11.13	-0.323	-0.2536275746770087	
11.135	-0.273	-0.2730794362473769	
11.14	0.251	-0.24878841618942393	
11.145	-0.069	-0.20279824682892564	
11.15	-0.281	-0.150484446281196	
11.155	0.192	-0.09735536826507991	
11.16	0.230	-0.049844176946539816	
11.165	-0.238	-0.0112255053386488	
11.17	0.041	0.020745874332841453	
11.175	0.462	0.04653515559806858	
11.18	-0.021	0.07437623523649341	
11.185	0.248	0.11779188978823622	
11.19	1.116	0.20228440753011953	
11.195	0.941	0.345354053410591	
11.2	0.613	0.5174016592934968	
11.205	1.201	0.6825348323089967	
11.21	1.143	0.8172844049824796	
11.215	0.279	0.8937602571084887	
11.22	0.315	0.8795017662556285	
11.225	0.439	0.7725213391012807	
11.23	-0.249	0.6015445768709042	
11.235	-0.377	0.3976688900715448	
11.24	-0.122	0.18508650328661233	
11.245	-0.322	-0.01649580156133272	
11.25	-0.512	-0.1724555381313159	
11.255	-0.230	-0.2705818640960177	
11.26	-0.244	-0.3356922427406883	
11.265	-0.573	-0.378048101714735	
11.27	-0.450	-0.3954523822135664	
11.275	-0.279	-0.4105015593119599	
11.28	-0.526	-0.43243811763149087	
11.285	-0.473	-0.43528823113829984	
11.29	-0.092	-0.415835557222368	
11.295	-0.218	-0.3895843258648566	
11.3	-0.348	-0.3456072966759319	
11.305	0.149	-0.2754131119099732	
11.31	0.315	-0.18961506220983396	
11.315	-0.130	-0.09534908270601178	
11.32	0.245	0.002612570659722669	
11.325	0.671	0.09780977764614349	
11.33	0.117	0.18528525682569152	
11.335	0.113	0.25348820976030406	
11.34	0.730	0.3025323638307951	
11.345	0.402	0.34138744326075277	
11.35	0.029	0.3690010723971462	
11.355	0.620	0.3847954401792043	
11.36	0.631	0.397604881878948	
11.365	-0.002	0.40430592293821177	
11.37	0.331	0.3965839099741461	
11.375	0.710	0.38413442818274646	
11.38	0.122	0.3731460252503379	
11.385	0.105	0.3592998345488918	
11.39	0.703	0.34778694140427263	
11.395	0.358	0.3434447282414578	
11.4	-0.043	0.3407642037081386	
11.405	0.471	0.33187364607348235	
11.41	0.434	0.31576668522366325	
11.415	-0.108	0.29215093864024755	
11.42	0.358	0.2745435050289242	
11.425	1.088	0.2943559314943689	
11.43	0.963	0.3901752938277399	
11.435	1.218	0.5722178176776868	
11.44	1.782	0.8088864365270162	
11.445	1.049	1.0244227403704365	
11.45	0.096	1.1235055865856065	
11.455	0.314	1.0577868405011865	
11.46	0.155	0.8598643396000778	
11.465	-0.285	0.6051264554245059	
11.47	-0.047	0.3674972058639288	
11.475	0.441	0.18642971133591718	
11.48	-0.020	0.07917359240258247	
11.485	0.033	0.04412661944150209	
11.49	0.741	0.06893363274042498	
11.495	0.558	0.1435765317483661	
11.5	0.334	0.25361280529249364	
11.505	1.108	0.38987953063738734	
11.51	1.285	0.54993844321703	
11.515	0.745	0.7170876580422018	
11.52	1.133	0.8683946081051146	
11.525	1.540	0.9933808289735964	
11.53	0.953	1.088153261154067	
11.535	0.924	1.1480407060881388	
11.54	1.546	1.1798501621653879	
11.545	1.252	1.200618788154441	
11.55	0.864	1.214637214698886	
11.555	1.486	1.2237636921743849	
11.56	1.549	1.239935089043119	
11.565	0.939	1.2602285514128224	
11.57	1.265	1.2733333623605136	
11.575	1.604	1.2812759718175961	
11.58	0.922	1.276325402562291	
11.585	0.777	1.2450760925849216	
11.59	1.277	1.1866221716809426	
11.595	0.831	1.1107122584313989	
11.6	0.314	1.0178269558396043	
11.605	0.806	0.9085150169857807	
11.61	0.733	0.7988627906438426	
11.615	0.038	0.6905535259137853	
11.62	0.322	0.5822158108521329	
11.625	0.700	0.48601371799272663	
11.63	0.078	0.4116757428019536	
11.635	0.030	0.3512134686009229	
11.64	0.642	0.3062154023042677	
11.645	0.322	0.28388061671732395	
11.65	-0.047	0.2762202602998281	
11.655	0.514	0.27511809843053325	
11.66	0.549	0.2837017979109599	
11.665	-0.056	0.29408641723991547	
11.67	0.232	0.2950394338679081	
11.675	0.602	0.28852083410244533	
11.68	-0.021	0.27813397878518664	
11.685	-0.082	0.2544091451417161	
11.69	0.422	0.21856123318489123	
11.695	0.032	0.18004320541523589	
11.7	-0.261	0.13678093012575537	
11.705	0.053	0.08857597855576313	
11.71	0.024	0.03243029385342652	
11.715	-0.360	-0.02519170030007007	
11.72	-0.212	-0.07310169633545466	
11.725	-0.020	-0.11910266088114278	
11.73	-0.367	-0.16633992881350915	
11.735	-0.413	-0.20326561324710427	
11.74	-0.111	-0.23211284571065913	
11.745	-0.303	-0.26386206267064033	
11.75	-0.549	-0.29062954636010474	
11.755	-0.314	-0.3118410445105402	
11.76	-0.313	-0.3428729922302644	
11.765	-0.573	-0.3756405066799945	
11.77	-0.259	-0.3861245994829116	
11.775	0.436	-0.348525192557543	
11.78	0.331	-0.23896521272061344	
11.785	0.434	-0.06199864554463276	
11.79	0.844	0.14241397692630275	
11.795	-0.044	0.29609367039997825	
11.8	-0.557	0.3256446968864398	
11.805	-0.444	0.22280482862923803	
11.81	-0.492	0.03296317753543745	
11.815	-0.778	-0.18019920521286611	
11.82	-0.563	-0.35521955682511397	
11.825	-0.306	-0.47688714125427295	
11.83	-0.547	-0.5446650596660204	
11.835	-0.541	-0.5578746025580295	
11.84	-0.210	-0.5359475625420067	
11.845	-0.357	-0.5027001735128407	
11.85	-0.547	-0.461942257590174	
11.855	-0.235	-0.41942014232575286	
11.86	-0.194	-0.3851631317039926	
11.865	-0.491	-0.3589207820072434	
11.87	-0.303	-0.33332812574199505	
11.875	-0.052	-0.3111526118597651	
11.88	-0.352	-0.29350429052211313	
11.885	-0.357	-0.2738085297575221	
11.89	0.049	-0.24916672100954695	
11.895	-0.130	-0.2246427125044776	
11.9	-0.314	-0.19679023448696897	
11.905	0.139	-0.15955213134119123	
11.91	0.250	-0.11018289813572199	
11.915	-0.218	-0.05676760255348646	
11.92	-0.015	-0.014425587023308404	
11.925	0.360	0.01574208403572745	
11.93	-0.174	0.03565519993667046	
11.935	-0.249	0.03717229763380804	
11.94	0.123	0.01563100689577259	
11.945	-0.162	-0.019527696343529282	
11.95	-0.418	-0.06365285360531577	
11.955	-0.140	-0.11077656164505933	
11.96	-0.137	-0.1592225100679085	
11.965	-0.489	-0.20651053889570878	
11.97	-0.339	-0.24450783036572965	
11.975	-0.124	-0.2754388078193526	
11.98	-0.436	-0.3031319993850331	
11.985	-0.468	-0.3197404974463135	
11.99	-0.151	-0.32857582468521607	
11.995	-0.322	-0.3374584853289937	
12.0	-0.532	-0.3424964233072898	
12.005	-0.224	-0.3399171343409666	
12.01	-0.185	-0.33826607216954296	
12.015	-0.503	-0.33537307780401393	
12.02	-0.340	-0.32856140148542046	
12.025	-0.128	-0.32352485943348297	
12.03	-0.453	-0.3250568324145244	
12.035	-0.494	-0.32874085470982967	
12.04	-0.182	-0.33363919791346314	
12.045	-0.355	-0.3454237397446416	
12.05	-0.573	-0.35648861444553803	
12.055	-0.277	-0.36294675854765457	
12.06	-0.264	-0.3712375557066002	
12.065	-0.604	-0.3823909734418127	
12.07	-0.451	-0.39158933775109694	
12.075	-0.233	-0.40246115746727784	
12.08	-0.526	-0.41507239457317696	
12.085	-0.558	-0.42280434481044793	
12.09	-0.235	-0.4235476960029789	
12.095	-0.398	-0.4264022144808304	
12.1	-0.625	-0.4276206972950693	
12.105	-0.354	-0.42587948082001875	
12.11	-0.316	-0.4301306637356892	
12.115	-0.578	-0.43554978368174047	
12.12	-0.265	-0.42358424993964133	
12.125	0.451	-0.3682118969374403	
12.13	0.184	-0.25113626968725744	
12.135	0.165	-0.42280434481044793	
12.14	0.559	-0.4235476960029789	
12.145	-0.171	-0.38929658447579146	
12.15	-0.601	-0.37365026846938804	
12.155	-0.415	-0.3682118969374403	
12.16	-0.421	-0.08594902499379302	
12.165	-0.709	-0.24768627273950003	
12.17	-0.499	-0.37365026846938804	
12.175	-0.218	-0.45403916738262473	
12.18	-0.460	-0.490200265615708	
12.185	-0.442	-0.48210449149725204	
12.19	-0.047	-0.44218508309258964	
12.195	-0.191	-0.38929658447579146	
12.2	-0.390	-0.3320591285636116	
12.205	-0.021	-0.2717168291902807	
12.21	0.114	-0.2147750368236949	
12.215	-0.288	-0.1619381301828821	
12.22	-0.075	-0.11574090370363664	
12.225	0.393	-0.07179090705660605	
12.23	-0.108	-0.025331466010150364	
12.235	-0.128	0.012648506490831483	
12.24	0.515	0.04703616714038613	
12.245	0.194	0.09080661876063406	
12.25	-0.172	0.1266686399554215	
12.255	0.389	0.14930347992627463	
12.26	0.521	0.17646295149218455	
12.265	-0.078	0.2079604803930898	
12.27	0.216	0.22708350832301732	
12.275	0.587	0.24034660178128053	
12.28	-0.113	0.24478014604653156	
12.285	-0.256	0.21444950911309113	
12.29	0.038	0.14492362457475216	
12.295	-0.229	0.05001364626019278	
12.3	-0.517	-0.05128716059466525	
12.305	-0.313	-0.14791984337221545	
12.31	-0.322	-0.24347620442925938	
12.315	-0.643	-0.3308297602632955	
12.32	-0.496	-0.3950495572213614	
12.325	-0.253	-0.4387404284952216	
12.33	-0.480	-0.4630003393960857	
12.335	-0.482	-0.4605171760917018	
12.34	-0.090	-0.4341881292925361	
12.345	-0.171	-0.3928867559786928	
12.35	-0.332	-0.3392442974758486	
12.355	0.097	-0.26701464031081945	
12.36	0.276	-0.18341632531198465	
12.365	-0.186	-0.09880357438126833	
12.37	-0.035	-0.031193915793458322	
12.375	0.334	0.01526887904272111	
12.38	-0.185	0.03907624303701185	
12.385	-0.290	0.03534034062582456	
12.39	0.055	0.006741529063463543	
12.395	-0.151	-0.03874567753788424	
12.4	-0.396	-0.08627683608065559	
12.405	-0.136	-0.127152697758318	
12.41	-0.085	-0.16631952685991847	
12.415	-0.425	-0.19972140651508677	
12.42	-0.305	-0.22229553509814107	
12.425	-0.084	-0.24169914587358626	
12.43	-0.381	-0.26182240791805045	
12.435	-0.457	-0.27671794768771085	
12.44	-0.163	-0.2882514675187885	
12.445	-0.305	-0.3056737640959156	
12.45	-0.550	-0.3213583719284941	
12.455	-0.325	-0.3341589693211117	
12.46	-0.252	-0.3522240539384723	
12.465	-0.460	-0.3678163586577129	
12.47	-0.169	-0.35531262867004143	
12.475	0.546	-0.2914851698503841	
12.48	0.181	-0.1718562978224067	
12.485	-0.003	-0.032896533521144654	
12.49	0.245	-0.2914851698503841	
12.495	-0.223	-0.2914851698503841	
12.5	-0.549	-0.28887080292086864	
12.505	-0.348	-0.023104262043245862	
12.51	-0.282	-0.14205124561169105	
12.515	-0.526	-0.25296855260579565	
12.52	-0.348	-0.3233671202110139	
12.525	-0.021	-0.35230331745765586	
12.53	-0.288	-0.3499674039601831	
12.535	-0.377	-0.3220248077257841	
12.54	-0.105	-0.28887080292086864	
12.545	-0.258	-0.2736180489086124	
12.55	-0.489	-0.2698446279867434	
12.555	-0.226	-0.2688979128772524	
12.56	-0.130	-0.2748639854694523	
12.565	-0.398	-0.28134977612292733	
12.57	-0.247	-0.27136640827276737	
12.575	0.128	-0.24791754812675168	
12.58	-0.160	-0.21526282331547758	
12.585	-0.165	-0.16828057035175414	
12.59	0.413	-0.10436102418314742	
12.595	0.296	-0.025615219305290208	
12.6	-0.024	0.05964315178248824	
12.605	0.558	0.1454252965374127	
12.61	0.745	0.23848171879212707	
12.615	0.216	0.33111477219444974	
12.62	0.471	0.4075666578338862	
12.625	0.896	0.4685971656396186	
12.63	0.392	0.5154641565864005	
12.635	0.236	0.540338498052213	
12.64	0.768	0.5420564533258669	
12.645	0.515	0.5314570024717427	
12.65	0.070	0.5111941537712248	
12.655	0.535	0.4806036843967392	
12.66	0.620	0.4497791439746428	
12.665	0.023	0.42078166587744475	
12.67	0.248	0.3875072281939268	
12.675	0.680	0.35896368561039405	
12.68	0.210	0.34334530419143183	
12.685	0.101	0.3351213666633638	
12.69	0.674	0.33432933924284636	
12.695	0.476	0.3445297488437391	
12.7	0.064	0.35893141514791593	
12.705	0.578	0.3736959584870684	
12.71	0.724	0.3939685960033689	
12.715	0.155	0.417603128874476	
12.72	0.373	0.433430541579855	
12.725	0.790	0.44414211310928386	
12.73	0.293	0.4512994413005917	
12.735	0.151	0.44896742515273136	
12.74	0.724	0.4414228911613208	
12.745	0.497	0.43560826000434494	
12.75	0.032	0.428811775383988	
12.755	0.511	0.41566912395375766	
12.76	0.649	0.40307287516213275	
12.765	0.076	0.39459184104370704	
12.77	0.320	0.38635345154970635	
12.775	0.771	0.3841899233579214	
12.78	0.277	0.3913764423247063	
12.785	0.111	0.3959082314183609	
12.79	0.672	0.3943560217266881	
12.795	0.410	0.3906901565163254	
12.8	-0.092	0.37584747169311145	
12.805	0.329	0.3455388350471874	
12.81	0.505	0.3080788488745922	
12.815	0.073	0.2827524888146762	
12.82	0.579	0.2923084466862945	
12.825	1.335	0.3661195994348974	
12.83	0.930	0.5075727214239107	
12.835	0.639	0.667921990352912	
12.84	0.820	0.7780599714854467	
12.845	0.190	0.7856859994005159	
12.85	-0.310	0.6810027369202227	
12.855	-0.107	0.49834835402550076	
12.86	-0.005	0.2849990557821729	
12.865	-0.294	0.09401895083830294	
12.87	-0.128	-0.03472669289914757	
12.875	0.309	-0.09811733698412967	
12.88	-0.090	-0.11128830065752643	
12.885	-0.162	-0.09192830921838932	
12.89	0.348	-0.054050497103852145	
12.895	0.163	-0.009211547229091541	
12.9	-0.169	0.03320785146763641	
12.905	0.253	0.07023447662332884	
12.91	0.396	0.10191198760068644	
12.915	-0.122	0.12713511243444625	
12.92	0.053	0.14116834679464887	
12.925	0.512	0.14971374686550043	
12.93	0.058	0.15985351992265798	
12.935	-0.043	0.169113312124875	
12.94	0.561	0.1817450213749494	
12.945	0.401	0.20687823972733194	
12.95	0.003	0.23939633749088157	
12.955	0.524	0.2730300226865747	
12.96	0.675	0.31184217355155536	
12.965	0.075	0.3494180166206846	
12.97	0.248	0.3680622438153619	
12.975	0.637	0.3694400071705475	
12.98	0.097	0.3591207017682679	
12.985	-0.079	0.32822600454925754	
12.99	0.393	0.28234360996995456	
12.995	0.128	0.2309759871989708	
13.0	-0.227	0.17776240957303496	
13.005	0.067	0.12469122295638842	
13.01	0.177	0.07365542780127445	
13.015	-0.262	0.027904890416287284	
13.02	-0.165	-0.009004830112490706	
13.025	0.157	-0.039982963484034774	
13.03	-0.207	-0.06852456520222844	
13.035	-0.284	-0.0885293546101869	
13.04	0.082	-0.1011202648163125	
13.045	-0.093	-0.11196872399280013	
13.05	-0.332	-0.1218189136466145	
13.055	-0.058	-0.12460965868603359	
13.06	0.070	-0.12655910944730667	
13.065	-0.299	-0.12768597351634325	
13.07	-0.203	-0.1240603280021107	
13.075	0.088	-0.12334406237751408	
13.08	-0.249	-0.12926767554713983	
13.085	-0.337	-0.13736453600312792	
13.09	-0.011	-0.14547150426603142	
13.095	-0.157	-0.16091780529644303	
13.1	-0.416	-0.1765322513357061	
13.105	-0.186	-0.1898319012150473	
13.11	-0.113	-0.20869577181676233	
13.115	-0.421	-0.23041389764022596	
13.12	-0.334	-0.24509439451641046	
13.125	-0.119	-0.25755291272200387	
13.13	-0.378	-0.2771160855996343	
13.135	-0.457	-0.29127276883689357	
13.14	-0.156	-0.2986325617926967	
13.145	-0.285	-0.30889052136353307	
13.15	-0.555	-0.32043297055080844	
13.155	-0.328	-0.33091135164732444	
13.16	-0.203	-0.3447080713267333	
13.165	-0.370	-0.35234734718617094	
13.17	-0.021	-0.32209794607914366	
13.175	0.805	-0.2254791999476713	
13.18	0.431	-0.05903555086145734	
13.185	0.084	-0.2986325617926967	
13.19	0.203	-0.2986325617926967	
13.195	-0.256	-0.2786288695592661	
13.2	-0.607	-0.27328936692412414	
13.205	-0.406	0.017021408570434778	
13.21	-0.288	-0.14064320088476506	
13.215	-0.509	-0.27328936692412414	
13.22	-0.348	-0.35115630296797845	
13.225	-0.029	-0.37752081121209496	
13.23	-0.267	-0.36802788114164314	
13.235	-0.332	-0.3313512310187908	
13.24	0.064	-0.2786288695592661	
13.245	-0.056	-0.22780855953218349	
13.25	-0.293	-0.18052541858014964	
13.255	0.026	-0.1359255782692499	
13.26	0.221	-0.09558583756092212	
13.265	-0.215	-0.0594480310351765	
13.27	-0.082	-0.030220253378204158	
13.275	0.378	-0.006394657564040235	
13.28	-0.047	0.019900970551024008	
13.285	-0.120	0.04152031826958886	
13.29	0.483	0.06649895952660213	
13.295	0.364	0.10926411164606395	
13.3	-0.034	0.15934727318357655	
13.305	0.495	0.2080713221367555	
13.31	0.672	0.262526786007386	
13.315	0.064	0.3165295781967153	
13.32	0.232	0.3446688518483363	
13.325	0.657	0.35561425907319333	
13.33	0.126	0.3550132969288462	
13.335	-0.075	0.3334642991287575	
13.34	0.408	0.29233187707616387	
13.345	0.133	0.24537160406614722	
13.35	-0.250	0.19148593809102982	
13.355	0.020	0.1298486550553383	
13.36	0.102	0.0654708765923082	
13.365	-0.354	0.002829294337849053	
13.37	-0.319	-0.05840899107173227	
13.375	-0.131	-0.12464359438680442	
13.38	-0.416	-0.19573949550948638	
13.385	-0.515	-0.25837627131973706	
13.39	-0.218	-0.3049575761665916	
13.395	-0.314	-0.3435850312802792	
13.4	-0.532	-0.36723842174719307	
13.405	-0.274	-0.3713131348390667	
13.41	-0.174	-0.3676639077477641	
13.415	-0.474	-0.3619548187572834	
13.42	-0.372	-0.34841312335283425	
13.425	-0.133	-0.33480631169217767	
13.43	-0.399	-0.3296477849009154	
13.435	-0.496	-0.32732606624494176	
13.44	-0.195	-0.3260755916942576	
13.445	-0.300	-0.3335708637961629	
13.45	-0.541	-0.34119340637314266	
13.455	-0.300	-0.3443681177620507	
13.46	-0.223	-0.3506581726297162	
13.465	-0.529	-0.35994209431193497	
13.47	-0.428	-0.3644432645150992	
13.475	-0.175	-0.36676039301311225	
13.48	-0.413	-0.3706462440802882	
13.485	-0.486	-0.3683882647623355	
13.49	-0.180	-0.3579953725667582	
13.495	-0.329	-0.35454085003140634	
13.5	-0.640	-0.3603425977176568	
13.505	-0.444	-0.3753218599963597	
13.51	-0.311	-0.4035232103199021	
13.515	-0.444	-0.4250886135241688	
13.52	-0.014	-0.4004416630634339	
13.525	0.956	-0.2874500128455807	
13.53	0.549	-0.08168328678915968	
13.535	0.072	0.13734121598858473	
13.54	0.056	-0.3603425977176568	
13.545	-0.387	-0.3753218599963597	
13.55	-0.765	0.13444590976344295	
13.555	-0.578	-0.051256810353405895	
13.56	-0.451	-0.24736116532747465	
13.565	-0.675	-0.4102072553806959	
13.57	-0.528	-0.509477393669792	
13.575	-0.230	-0.5493566004176039	
13.58	-0.425	-0.5498217789246537	
13.585	-0.479	-0.514659198274682	
13.59	-0.125	-0.4595970170716466	
13.595	-0.194	-0.40251350450846524	
13.6	-0.407	-0.3487796911101221	
13.605	-0.102	-0.2920356276834524	
13.61	0.107	-0.23822796256864348	
13.615	-0.277	-0.1896017415442399	
13.62	-0.136	-0.14448967536846144	
13.625	0.366	-0.09801538804596766	
13.63	-0.029	-0.048076259215578544	
13.635	-0.095	8.701006175709924e-05	
13.64	0.608	0.055791780934241364	
13.645	0.530	0.13554418364476403	
13.65	0.128	0.22683709034478472	
13.655	0.704	0.3161200630139923	
13.66	0.921	0.4100445760063765	
13.665	0.312	0.4981158749868563	
13.67	0.485	0.5573821460636519	
13.675	0.915	0.5902450702463851	
13.68	0.351	0.6028804006790516	
13.685	0.084	0.5818552905937228	
13.69	0.622	0.5308642503322294	
13.695	0.378	0.47266322213807355	
13.7	-0.133	0.4087312512848251	
13.705	0.233	0.33503684229770625	
13.71	0.357	0.26414575263782003	
13.715	-0.195	0.20020218328179357	
13.72	-0.101	0.14029907673653919	
13.725	0.314	0.08620966277420065	
13.73	-0.148	0.04404200080103318	
13.735	-0.293	0.007890757484114051	
13.74	-0.006	-0.031300966371805274	
13.745	-0.235	-0.08429552316888905	
13.75	-0.575	-0.1481231107036177	
13.755	-0.416	-0.21808569768844674	
13.76	-0.390	-0.2999478559117582	
13.765	-0.730	-0.3886505734829881	
13.77	-0.691	-0.46368637182093037	
13.775	-0.503	-0.5299124496301675	
13.78	-0.762	-0.5949252659185281	
13.785	-0.880	-0.6470354571195618	
13.79	-0.605	-0.6833120857502442	
13.795	-0.680	-0.7163149350037836	
13.8	-0.903	-0.7381224417041921	
13.805	-0.660	-0.7410152120718303	
13.81	-0.547	-0.7379125532532875	
13.815	-0.816	-0.7337756562309075	
13.82	-0.704	-0.714669130472452	
13.825	-0.444	-0.6917445197785161	
13.83	-0.657	-0.6730685660735702	
13.835	-0.730	-0.6501788598186462	
13.84	-0.418	-0.6210503407852707	
13.845	-0.512	-0.6023287344925896	
13.85	-0.778	-0.5904626220137801	
13.855	-0.521	-0.5768080677159411	
13.86	-0.329	-0.567665019834967	
13.865	-0.438	-0.5481692142534578	
13.87	0.040	-0.47664351592034837	
13.875	1.090	-0.3141834095373234	
13.88	0.756	-0.05727807229355228	
13.885	0.294	0.2184008138353438	
13.89	0.343	0.40728341037409765	
13.895	-0.221	0.4446490359843762	
13.9	-0.614	0.3419968110442557	
13.905	-0.425	0.16043876575301907	
13.91	-0.300	-0.04529911074889577	
13.915	-0.538	-0.2256227135268829	
13.92	-0.366	-0.33769273114211074	
13.925	0.047	-0.38071617466827684	
13.93	-0.221	-0.373614712340953	
13.935	-0.277	-0.32687022928107773	
13.94	0.300	-0.24899409816079765	
13.945	0.206	-0.1562316358063845	
13.95	-0.185	-0.06461767026331319	
13.955	0.303	0.019801526977973823	
13.96	0.565	0.09714185907415843	
13.965	-0.017	0.1656791527223604	
13.97	0.218	0.22015392440343232	
13.975	0.806	0.26895829339649435	
13.98	0.386	0.32506766341328663	
13.985	0.259	0.38360837315933005	
13.99	0.992	0.446584454741118	
13.995	0.910	0.5239233231151388	
14.0	0.451	0.6087559392391753	
14.005	1.018	0.6890321070850391	
14.01	1.252	0.7685988315380213	
14.015	0.596	0.8381984089871686	
14.02	0.741	0.8809924472749938	
14.025	1.215	0.8994628341135325	
14.03	0.669	0.8978894699762651	
14.035	0.372	0.872208521901052	
14.04	0.942	0.824935844532283	
14.045	0.710	0.770057816708722	
14.05	0.108	0.7063399064459066	
14.055	0.559	0.6361356378448498	
14.06	0.745	0.5689279202593147	
14.065	0.076	0.5109491498410366	
14.07	0.247	0.45787762857890874	
14.075	0.768	0.41680564901167194	
14.08	0.270	0.3928580079865976	
14.085	0.038	0.3759620820489194	
14.09	0.678	0.36413105893906667	
14.095	0.503	0.3611993301635298	
14.1	-0.037	0.36110653130031845	
14.105	0.483	0.3591360867201544	
14.11	0.729	0.36213570882846846	
14.115	0.062	0.3708431661822426	
14.12	0.206	0.37272991802612976	
14.125	0.727	0.3679382998197773	
14.13	0.218	0.36290347051538685	
14.135	-0.046	0.34981080792123775	
14.14	0.540	0.32913400960574757	
14.145	0.323	0.3033133910792325	
14.15	-0.174	0.2730526189806587	
14.155	0.210	0.23904857426131038	
14.16	0.408	0.20220977773771054	
14.165	-0.162	0.16789223620617627	
14.17	-0.066	0.13865266712330332	
14.175	0.453	0.1139442883982045	
14.18	-0.015	0.09698714245807635	
14.185	-0.162	0.08778201189781476	
14.19	0.413	0.08909715176336315	
14.195	0.219	0.09738146531589505	
14.2	-0.244	0.10305180010175766	
14.205	0.108	0.10197439352548789	
14.21	0.439	0.09625021365990077	
14.215	0.055	0.10395611588548441	
14.22	0.610	0.15963202018872896	
14.225	1.463	0.29200861959462066	
14.23	0.992	0.4900795459486033	
14.235	0.480	0.6836498263811062	
14.24	0.646	0.7909189709526241	
14.245	0.097	0.7673986257957923	
14.25	-0.389	0.6270454667948966	
14.255	-0.178	0.42487773155354636	
14.26	0.015	0.20730955618818286	
14.265	-0.308	0.023047682463617776	
14.27	-0.169	-0.09144653306601772	
14.275	0.381	-0.13403112772824563	
14.28	-0.009	-0.12585942631054872	
14.285	-0.149	-0.08332125275326155	
14.29	0.462	-0.02096763957524528	
14.295	0.340	0.04753712622911601	
14.3	-0.128	0.11099309387453432	
14.305	0.323	0.1628491212864676	
14.31	0.584	0.20339871280401425	
14.315	-0.046	0.233946771354129	
14.32	0.107	0.25038923573455646	
14.325	0.680	0.26004448544547565	
14.33	0.250	0.27318892102299863	
14.335	0.043	0.2915429102547392	
14.34	0.751	0.3150371044206731	
14.345	0.686	0.3556725190713853	
14.35	0.197	0.40795770157203154	
14.355	0.729	0.46375910664811726	
14.36	0.973	0.5214815945845304	
14.365	0.311	0.5730119084008818	
14.37	0.421	0.6022704798316929	
14.375	0.919	0.6089957699493956	
14.38	0.398	0.6013117699732093	
14.385	0.087	0.5745138260340896	
14.39	0.672	0.5308719713153202	
14.395	0.472	0.4837549717419959	
14.4	-0.108	0.4310828016593824	
14.405	0.262	0.37257769714084665	
14.41	0.482	0.311431096443	
14.415	-0.128	0.2552621399389156	
14.42	-0.050	0.20522620553113757	
14.425	0.465	0.162795183502947	
14.43	0.000	0.13051820469425274	
14.435	-0.175	0.10864838141407682	
14.44	0.390	0.09861704071400718	
14.445	0.258	0.09879431966392432	
14.45	-0.183	0.10533577380547196	
14.455	0.209	0.1153981326389932	
14.46	0.469	0.12729143780590396	
14.465	-0.133	0.13752195920955218	
14.47	-0.058	0.14018446459820147	
14.475	0.442	0.13252876775769423	
14.48	-0.052	0.11970137326147787	
14.485	-0.212	0.10078407579371351	
14.49	0.293	0.08332608907918368	
14.495	0.130	0.06682481211169765	
14.5	-0.281	0.04960470354086232	
14.505	-0.003	0.033191218417974205	
14.51	0.244	0.01314212187446346	
14.515	-0.250	-0.007175622834906988	
14.52	-0.204	-0.02083544419186375	
14.525	0.192	-0.037739031039350966	
14.53	-0.165	-0.058114978842276004	
14.535	-0.308	-0.07406211545548488	
14.54	0.125	-0.08092055581181495	
14.545	-0.015	-0.08717077380248212	
14.55	-0.364	-0.09618218933171802	
14.555	-0.102	-0.10093261630596018	
14.56	0.223	-0.10496212651953776	
14.565	-0.113	-0.09499351693670906	
14.57	0.282	-0.04380564662863251	
14.575	1.096	0.06918966140807109	
14.58	0.625	0.23399856304693953	
14.585	0.137	0.39090972685695696	
14.59	0.408	-0.08717077380248212	
14.595	-0.011	-0.0938313174315328	
14.6	-0.435	-0.0938313174315328	
14.605	-0.244	0.2049371749046675	
14.61	-0.063	0.045003395401478664	
14.615	-0.369	-0.0938313174315328	
14.62	-0.268	-0.17884652304448234	
14.625	0.181	-0.21295220188949843	
14.63	-0.151	-0.21292126918766732	
14.635	-0.284	-0.18897738813954487	
14.64	0.216	-0.1471277855790754	
14.645	0.139	-0.1011025272265462	
14.65	-0.233	-0.056053854100702405	
14.655	0.111	-0.014082584871263674	
14.66	0.396	0.024023164971285427	
14.665	-0.140	0.05511795068144795	
14.67	-0.044	0.07805384955293165	
14.675	0.529	0.0980837777517423	
14.68	0.070	0.11911427164899903	
14.685	-0.108	0.13692145704526415	
14.69	0.521	0.15586485838455463	
14.695	0.450	0.18601462221901416	
14.7	-0.046	0.220911334521637	
14.705	0.465	0.2548119500948448	
14.71	0.790	0.299122860399154	
14.715	0.130	0.3472127238970416	
14.72	0.201	0.37889166723625567	
14.725	0.735	0.39302062832228096	
14.73	0.244	0.3943110572609646	
14.735	-0.075	0.3798801906160842	
14.74	0.459	0.34562831768171276	
14.745	0.305	0.30315227881468265	
14.75	-0.197	0.2580925190397257	
14.755	0.102	0.2085566408186369	
14.76	0.366	0.1600498738428519	
14.765	-0.206	0.1175296787406987	
14.77	-0.168	0.07882320574658636	
14.775	0.287	0.04275787068269666	
14.78	-0.104	0.011557465425192608	
14.785	-0.259	-0.010951819500808615	
14.79	0.215	-0.021676098870665492	
14.795	0.117	-0.02280927409401009	
14.8	-0.270	-0.02061170468604306	
14.805	-0.015	-0.0166568156356822	
14.81	0.259	-0.016120153803838112	
14.815	-0.230	-0.018166848198254697	
14.82	-0.185	-0.019202925205666035	
14.825	0.255	-0.023528928094161537	
14.83	-0.136	-0.032254507690861745	
14.835	-0.311	-0.041805817960581394	
14.84	0.097	-0.05296498113254597	
14.845	-0.002	-0.06679354330474463	
14.85	-0.352	-0.08235398000811214	
14.855	-0.133	-0.09482256487844777	
14.86	0.081	-0.11126264026622984	
14.865	-0.326	-0.12892864640498414	
14.87	-0.294	-0.14120434802099974	
14.875	0.056	-0.1517377244198278	
14.88	-0.232	-0.1661301802582817	
14.885	-0.380	-0.17668795228791073	
14.89	-0.037	-0.17912796130374087	
14.895	-0.125	-0.18779742463198187	
14.9	-0.457	-0.20023041987367762	
14.905	-0.242	-0.20989030322529398	
14.91	-0.014	-0.22330787426323812	
14.915	-0.264	-0.2298521246480021	
14.92	-0.037	-0.20418832476442667	
14.925	0.844	-0.12170078300598415	
14.93	0.457	0.01993414794174863	
14.935	0.015	-0.17912796130374087	
14.94	0.290	-0.18779742463198187	
14.945	-0.087	-0.18871246097470945	
14.95	-0.496	-0.18871246097470945	
14.955	-0.313	0.08204805493740533	
14.96	-0.143	-0.0522710078919308	
14.965	-0.430	-0.17279732293903025	
14.97	-0.355	-0.2502355495555575	
14.975	0.035	-0.28374128062203147	
14.98	-0.210	-0.2900541878840547	
14.985	-0.346	-0.27074164694752695	
14.99	0.081	-0.23212224585975777	
14.995	0.065	-0.18871246097470945	
15.0	-0.265	-0.144321173528053	
15.005	0.055	-0.09591239134221052	
15.01	0.376	-0.04716394526808943	
15.015	-0.140	5.08157956138315e-05	
15.02	-0.076	0.036652019379700716	
15.025	0.468	0.0654151915600727	
15.03	0.072	0.09091548420338726	
15.035	-0.130	0.11207308002634739	
15.04	0.498	0.13298944711656013	
15.045	0.498	0.1684131961213846	
15.05	-0.032	0.21352528113171398	
15.055	0.434	0.25504458165081373	
15.06	0.765	0.29998457496439296	
15.065	0.126	0.3460350400604476	
15.07	0.174	0.3725239072327298	
15.075	0.700	0.3804449102029786	
15.08	0.215	0.37801786001856597	
15.085	-0.104	0.3560102380673948	
15.09	0.430	0.31786184812348395	
15.095	0.291	0.27549939879003216	
15.1	-0.197	0.2316342324380477	
15.105	0.085	0.1858862360773742	
15.11	0.299	0.13892958232875208	
15.115	-0.230	0.09425301448523646	
15.12	-0.200	0.0504902011207241	
15.125	0.242	0.011258096629667385	
15.13	-0.114	-0.020802228258338874	
15.135	-0.281	-0.042856835210617915	
15.14	0.139	-0.05336329349785449	
15.145	0.073	-0.05848111218381888	
15.15	-0.288	-0.059145600264130134	
15.155	-0.027	-0.05525936216460044	
15.16	0.290	-0.04718991249723195	
15.165	-0.209	-0.03552580023131291	
15.17	-0.182	-0.025533396070319774	
15.175	0.277	-0.019958935845488184	
15.18	-0.101	-0.019664185087004633	
15.185	-0.293	-0.022749171354042103	
15.19	0.101	-0.03158914860021619	
15.195	-0.006	-0.04647067553732217	
15.2	-0.363	-0.06694122834197222	
15.205	-0.166	-0.0884019277485818	
15.21	0.017	-0.11531792548782714	
15.215	-0.360	-0.14732412299492248	
15.22	-0.335	-0.17152322366403872	
15.225	-0.005	-0.19013106895359316	
15.23	-0.250	-0.2095633891992405	
15.235	-0.409	-0.22064773006260505	
15.24	-0.069	-0.22170888594722984	
15.245	-0.122	-0.22346873475924653	
15.25	-0.448	-0.22785553982717194	
15.255	-0.241	-0.22845005465273321	
15.26	-0.021	-0.23233069204212	
15.265	-0.279	-0.23328463827648088	
15.27	-0.061	-0.20853216537162592	
15.275	0.811	-0.13005935497740126	
15.28	0.468	0.008506132551435112	
15.285	-0.020	-0.22170888594722984	
15.29	0.203	-0.22346873475924653	
15.295	-0.140	-0.22346873475924653	
15.3	-0.546	0.1601115033431395	
15.305	-0.375	0.03247605820146462	
15.31	-0.191	-0.10626950870162778	
15.315	-0.453	-0.22721932381498613	
15.32	-0.375	-0.3005911055191779	
15.325	0.003	-0.32809368516481285	
15.33	-0.218	-0.32547646464236746	
15.335	-0.363	-0.2987486462336325	
15.34	0.040	-0.2557016115369408	
15.345	0.044	-0.21035120774618932	
15.35	-0.308	-0.16696752409724283	
15.355	-0.061	-0.12650201367085054	
15.36	0.268	-0.09216768262169661	
15.365	-0.204	-0.062361080226211216	
15.37	-0.151	-0.037697753077803195	
15.375	0.401	-0.013944377333680872	
15.38	0.037	0.013495833363178724	
15.385	-0.157	0.041081450410454357	
15.39	0.462	0.07241061684162196	
15.395	0.486	0.12076574028167524	
15.4	-0.041	0.17588359189042532	
15.405	0.405	0.22646481667371687	
15.41	0.759	0.27898456410297656	
15.415	0.120	0.3296137697481061	
15.42	0.134	0.3581570174804434	
15.425	0.666	0.3650887188634331	
15.43	0.194	0.3596061716515299	
15.435	-0.137	0.33399862670427416	
15.44	0.373	0.29027696384736645	
15.445	0.276	0.24387609190800458	
15.45	-0.230	0.1989918941536399	
15.455	-0.003	0.14928601712704223	
15.46	0.277	0.09793556827131968	
15.465	-0.235	0.051855719278402906	
15.47	-0.226	0.012126053906136674	
15.475	0.187	-0.023120950918236724	
15.48	-0.162	-0.05421499071670763	
15.485	-0.354	-0.080843898653822	
15.49	-0.002	-0.10196527914543248	
15.495	-0.035	-0.12413841350882229	
15.5	-0.364	-0.14075611630516566	
15.505	-0.137	-0.14782517649762583	
15.51	0.137	-0.14822646407123552	
15.515	-0.290	-0.14494706831179655	
15.52	-0.277	-0.13784373119016366	
15.525	0.093	-0.13433110868631531	
15.53	-0.210	-0.13913968915839475	
15.535	-0.396	-0.14771168710076937	
15.54	-0.056	-0.15711334446562353	
15.545	-0.099	-0.17217843669358165	
15.55	-0.435	-0.18961587970870233	
15.555	-0.244	-0.2018769090686768	
15.56	-0.073	-0.2173252198321803	
15.565	-0.421	-0.2388685315606759	
15.57	-0.403	-0.2548091520806496	
15.575	-0.085	-0.2663854059064318	
15.58	-0.302	-0.28113070329356205	
15.585	-0.468	-0.2886858880009456	
15.59	-0.134	-0.28509555121372365	
15.595	-0.156	-0.28418127105616453	
15.6	-0.488	-0.2836759678819114	
15.605	-0.314	-0.27983867052161215	
15.61	-0.143	-0.2862523273187303	
15.615	-0.412	-0.2999895944175369	
15.62	-0.252	-0.29581756371915463	
15.625	0.637	-0.24214731005799325	
15.63	0.588	-0.11415038129762492	
15.635	0.285	-0.27983867052161215	
15.64	0.683	-0.27983867052161215	
15.645	0.131	-0.27983867052161215	
15.65	-0.494	-0.2508897555038717	
15.655	-0.404	-0.24214731005799325	
15.66	-0.270	0.07994711458810953	
15.665	-0.550	-0.10512552156561922	
15.67	-0.479	-0.2508897555038717	
15.675	-0.107	-0.3409567838409304	
15.68	-0.274	-0.3842391754550296	
15.685	-0.412	-0.38302994519801625	
15.69	-0.006	-0.3457134327594459	
15.695	0.009	-0.2940256255242569	
15.7	-0.335	-0.2391829548141155	
15.705	-0.087	-0.18469077111189888	
15.71	0.258	-0.1368021741639582	
15.715	-0.223	-0.09542290921608423	
15.72	-0.180	-0.06305140648565705	
15.725	0.376	-0.03463559725888679	
15.73	0.012	-0.005345142991454962	
15.735	-0.191	0.02063637713137297	
15.74	0.436	0.05054452937975038	
15.745	0.480	0.09715164774162409	
15.75	-0.049	0.1544821726467978	
15.755	0.427	0.20933085757375028	
15.76	0.820	0.27250967594291253	
15.765	0.204	0.3394142567415825	
15.77	0.221	0.3887416911683432	
15.775	0.782	0.4175777677137699	
15.78	0.315	0.4337188552910273	
15.785	-0.075	0.42340162582239216	
15.79	0.497	0.38953916682471545	
15.795	0.425	0.35032607270394833	
15.8	-0.165	0.3104235595177179	
15.805	0.107	0.2621791060937241	
15.81	0.398	0.20959126410174594	
15.815	-0.188	0.15954090589825043	
15.82	-0.195	0.10963963525183455	
15.825	0.274	0.0615089705522619	
15.83	-0.101	0.019889298775853437	
15.835	-0.311	-0.014552540923647198	
15.84	0.099	-0.03961846280356147	
15.845	0.081	-0.05761963469893345	
15.85	-0.308	-0.06943134787587177	
15.855	-0.066	-0.07093628714908737	
15.86	0.294	-0.06646736898766636	
15.865	-0.213	-0.05530249030787199	
15.87	-0.212	-0.04439873617521635	
15.875	0.247	-0.03763129398033137	
15.88	-0.124	-0.038006422129993514	
15.885	-0.335	-0.04650441938256044	
15.89	0.043	-0.05877127420287064	
15.895	0.014	-0.0765875376419525	
15.9	-0.369	-0.09531570208383916	
15.905	-0.175	-0.11104862914219245	
15.91	0.064	-0.12851990566392935	
15.915	-0.355	-0.15017820211157742	
15.92	-0.360	-0.16742850938404413	
15.925	-0.009	-0.1847107337047749	
15.93	-0.253	-0.20592251088449912	
15.935	-0.441	-0.22248338768386086	
15.94	-0.099	-0.22882696134474903	
15.945	-0.107	-0.23554773223605935	
15.95	-0.468	-0.2413162971034807	
15.955	-0.322	-0.24508710235552209	
15.96	-0.153	-0.26047433280170146	
15.965	-0.444	-0.2872095300218851	
15.97	-0.300	-0.29746216360325695	
15.975	0.617	-0.2565450256955209	
15.98	0.748	-0.12985237024293614	
15.985	0.543	0.07941284049762694	
15.99	1.021	-0.23554773223605935	
15.995	0.469	-0.2413162971034807	
16.0	-0.410	-0.24508710235552209	
16.005	-0.386	-0.24508710235552209	
16.01	-0.274	-0.22704662365287098	
16.015	-0.573	0.03874632043054222	
16.02	-0.523	-0.1635446603025244	
16.025	-0.143	-0.3024304258011514	
16.03	-0.296	-0.3848862850550978	
16.035	-0.448	-0.40874164571516236	
16.04	-0.056	-0.3836199007214952	
16.045	-0.017	-0.339364487424944	
16.05	-0.351	-0.2866687997319589	
16.055	-0.101	-0.22704662365287098	
16.06	0.293	-0.1680903361363073	
16.065	-0.203	-0.11349472439147897	
16.07	-0.178	-0.06772221861670172	
16.075	0.407	-0.028159133240151128	
16.08	0.068	0.010034211382359303	
16.085	-0.177	0.043925893420072394	
16.09	0.453	0.07959469621913201	
16.095	0.543	0.1288282928295224	
16.1	-0.012	0.1880160761557342	
16.105	0.453	0.24594030147581597	
16.11	0.893	0.3122177791825552	
16.115	0.276	0.3833711509466263	
16.12	0.270	0.43906152794262193	
16.125	0.895	0.4760435372901042	
16.13	0.468	0.5041177866340445	
16.135	0.011	0.5096960608023718	
16.14	0.587	0.48657196618073356	
16.145	0.515	0.45299597523705804	
16.15	-0.139	0.4089657693110363	
16.155	0.125	0.34778127478352844	
16.16	0.442	0.27928262282822514	
16.165	-0.169	0.21351553804674683	
16.17	-0.198	0.14897224618816196	
16.175	0.319	0.0899436112114614	
16.18	-0.052	0.043296003124817656	
16.185	-0.290	0.00877993628599583	
16.19	0.154	-0.012612688464921615	
16.195	0.157	-0.023958871187390908	
16.2	-0.290	-0.02983457105089177	
16.205	-0.070	-0.030354772121457502	
16.21	0.306	-0.030828496041048734	
16.215	-0.206	-0.0282779399769387	
16.22	-0.212	-0.026043517295813716	
16.225	0.293	-0.02326309470192852	
16.23	-0.081	-0.022580737302626327	
16.235	-0.326	-0.028118722705204352	
16.24	0.064	-0.036826927409612596	
16.245	0.041	-0.05294865113969598	
16.25	-0.367	-0.07364591840379572	
16.255	-0.178	-0.09148838700212882	
16.26	0.090	-0.11292955789643705	
16.265	-0.339	-0.136092519110193	
16.27	-0.369	-0.15606499113380995	
16.275	-0.015	-0.17541737131799193	
16.28	-0.242	-0.20046696693933672	
16.285	-0.450	-0.22004623681305274	
16.29	-0.108	-0.2279411441894457	
16.295	-0.090	-0.23591835437354144	
16.3	-0.438	-0.2415787163315399	
16.305	-0.279	-0.2385483073445984	
16.31	-0.104	-0.24392521212040436	
16.315	-0.439	-0.2620831823159014	
16.32	-0.399	-0.2761056802573171	
16.325	0.283	-0.2633179581194936	
16.33	0.437	-0.1994000270956803	
16.335	0.492	-0.05611372535378536	
16.34	1.256	-0.2279411441894457	
16.345	1.018	-0.23591835437354144	
16.35	-0.153	-0.2385483073445984	
16.355	-0.224	-0.2196178622890279	
16.36	-0.180	-0.1994000270956803	
16.365	-0.557	0.2498946144127288	
16.37	-0.558	0.01675103442603894	
16.375	-0.175	-0.1741829633704183	
16.38	-0.291	-0.30933144967685033	
16.385	-0.442	-0.3753063956490015	
16.39	-0.043	-0.3758084664736159	
16.395	0.044	-0.33965914335575165	
16.4	-0.328	-0.2848873129701658	
16.405	-0.099	-0.2196178622890279	
16.41	0.319	-0.15553044260709062	
16.415	-0.188	-0.09826128643839147	
16.42	-0.195	-0.05242775230035359	
16.425	0.402	-0.015974633883885748	
16.43	0.085	0.01762797019347017	
16.435	-0.192	0.048386528607733396	
16.44	0.407	0.07832340450537151	
16.445	0.523	0.12052497322618613	
16.45	-0.046	0.1708671465269723	
16.455	0.390	0.22133612632830055	
16.46	0.881	0.2807309941387705	
16.465	0.276	0.35067141742340474	
16.47	0.232	0.4083786028777258	
16.475	0.895	0.4491559965632948	
16.48	0.552	0.4867334588175576	
16.485	0.091	0.5102323932081592	
16.49	0.686	0.513252883845011	
16.495	0.666	0.5066467234424101	
16.5	-0.046	0.48788696980361285	
16.505	0.209	0.44417644976894904	
16.51	0.532	0.38370623212975596	
16.515	-0.120	0.31684388656516294	
16.52	-0.171	0.24134668015329708	
16.525	0.354	0.16798413167650608	
16.53	-0.023	0.10588901116627555	
16.535	-0.294	0.05438825743623336	
16.54	0.125	0.017031279837467248	
16.545	0.158	-0.010358926243005497	
16.55	-0.300	-0.027831712574365126	
16.555	-0.111	-0.038945899959777486	
16.56	0.256	-0.04748129755794673	
16.565	-0.223	-0.05389743395851662	
16.57	-0.252	-0.057609351614528785	
16.575	0.227	-0.05830055440236517	
16.58	-0.095	-0.061997191327819764	
16.585	-0.339	-0.06742681023793154	
16.59	0.024	-0.07321321392284816	
16.595	0.058	-0.08340820689570852	
16.6	-0.355	-0.09558527641404055	
16.605	-0.182	-0.10405616932435492	
16.61	0.116	-0.11564921317808051	
16.615	-0.322	-0.13170293073717226	
16.62	-0.367	-0.14658007309306476	
16.625	-0.015	-0.16349673360317124	
16.63	-0.226	-0.1879128866958855	
16.635	-0.445	-0.20930359258998602	
16.64	-0.104	-0.2183355992630093	
16.645	-0.047	-0.22542236713838087	
16.65	-0.406	-0.22748083401897695	
16.655	-0.229	-0.21909670395216232	
16.66	0.014	-0.21168564760939476	
16.665	-0.380	-0.21467124543124771	
16.67	-0.422	-0.22060046311344642	
16.675	0.017	-0.22547237568597045	
16.68	-0.056	-0.22488230851846508	
16.685	-0.087	-0.1933496594157902	
16.69	0.831	-0.09523972152709631	
16.695	0.936	0.07671236748730967	
16.7	0.035	0.2603527474208135	
16.705	-0.056	-0.21467124543124771	
16.71	-0.037	-0.21168564760939476	
16.715	-0.494	0.22334079675759394	
16.72	-0.560	0.059259330513571934	
16.725	-0.210	-0.10340239064612186	
16.73	-0.322	-0.2417498541918288	
16.735	-0.485	-0.32946177721471986	
16.74	-0.098	-0.3563110651188275	
16.745	0.026	-0.3441923746110833	
