Vernier Format 2
ecg3.txt 10/20/2025 7:51:12
Run 1
Time	Potential	EKG	
T	P	E	
s	mV	mV	

0.000	-0.061	-0.003	
0.005	-0.024	-0.010	
0.010	-0.134	-0.024	
0.015	-0.142	-0.046	
0.020	-0.072	-0.071	
0.025	-0.140	-0.090	
0.030	-0.188	-0.107	
0.035	-0.107	-0.125	
0.040	-0.116	-0.134	
0.045	-0.197	-0.139	
0.050	-0.148	-0.146	
0.055	-0.095	-0.149	
0.060	-0.169	-0.147	
0.065	-0.148	-0.145	
0.070	-0.050	-0.142	
0.075	-0.107	-0.130	
0.080	-0.140	-0.119	
0.085	-0.047	-0.112	
0.090	-0.043	-0.100	
0.095	-0.130	-0.088	
0.100	-0.067	-0.083	
0.105	-0.002	-0.077	
0.110	-0.099	-0.068	
0.115	-0.089	-0.064	
0.120	0.017	-0.063	
0.125	-0.056	-0.055	
0.130	-0.105	-0.051	
0.135	-0.003	-0.052	
0.140	-0.005	-0.048	
0.145	-0.104	-0.043	
0.150	-0.060	-0.045	
0.155	-0.008	-0.048	
0.160	-0.110	-0.049	
0.165	-0.114	-0.057	
0.170	-0.029	-0.067	
0.175	-0.093	-0.072	
0.180	-0.154	-0.078	
0.185	-0.082	-0.089	
0.190	-0.098	-0.097	
0.195	-0.180	-0.104	
0.200	-0.137	-0.116	
0.205	-0.084	-0.125	
0.210	-0.160	-0.128	
0.215	-0.157	-0.132	
0.220	-0.070	-0.134	
0.225	-0.122	-0.130	
0.230	-0.166	-0.126	
0.235	-0.079	-0.126	
0.240	-0.078	-0.121	
0.245	-0.165	-0.115	
0.250	-0.139	-0.116	
0.255	-0.110	-0.120	
0.260	-0.162	-0.124	
0.265	-0.047	-0.126	
0.270	0.300	-0.101	
0.275	0.514	-0.021	
0.280	0.779	0.119	
0.285	1.155	0.315	
0.290	1.122	0.548	
0.295	0.707	0.750	
0.300	0.256	0.840	
0.305	-0.085	0.782	
0.310	-0.322	0.598	
0.315	-0.392	0.345	
0.320	-0.337	0.091	
0.325	-0.340	-0.116	
0.330	-0.337	-0.259	
0.335	-0.223	-0.338	
0.340	-0.186	-0.360	
0.345	-0.233	-0.342	
0.350	-0.169	-0.308	
0.355	-0.102	-0.266	
0.360	-0.165	-0.221	
0.365	-0.146	-0.184	
0.370	-0.046	-0.156	
0.375	-0.090	-0.128	
0.380	-0.131	-0.107	
0.385	-0.032	-0.095	
0.390	-0.011	-0.081	
0.395	-0.101	-0.066	
0.400	-0.024	-0.058	
0.405	0.076	-0.046	
0.410	-0.014	-0.027	
0.415	0.020	-0.009	
0.420	0.194	0.011	
0.425	0.155	0.045	
0.430	0.108	0.082	
0.435	0.261	0.114	
0.440	0.270	0.150	
0.445	0.142	0.184	
0.450	0.206	0.201	
0.455	0.262	0.210	
0.460	0.107	0.215	
0.465	0.076	0.203	
0.470	0.163	0.179	
0.475	0.044	0.155	
0.480	-0.064	0.123	
0.485	0.009	0.081	
0.490	-0.027	0.042	
0.495	-0.134	0.007	
0.500	-0.102	-0.030	
			
Vernier Format 2
ecg3.txt 10/20/2025 7:51:12
Run 2
Time	Potential	EKG	
T	P	E	
s	mV	mV	

0.000	0.697	0.032	
0.005	-0.241	0.095	
0.010	-0.343	0.103	
0.015	-0.070	0.041	
0.020	-0.247	-0.030	
0.025	-0.329	-0.101	
0.030	0.197	-0.150	
0.035	0.229	-0.133	
0.040	-0.169	-0.078	
0.045	0.200	-0.032	
0.050	0.515	0.031	
0.055	-0.073	0.109	
0.060	-0.035	0.143	
0.065	0.546	0.152	
0.070	0.158	0.184	
0.075	-0.130	0.200	
0.080	0.416	0.185	
0.085	0.433	0.196	
0.090	-0.084	0.221	
0.095	0.297	0.218	
0.100	0.658	0.230	
0.105	0.094	0.273	
0.110	0.133	0.288	
0.115	0.706	0.292	
0.120	0.349	0.327	
0.125	0.033	0.351	
0.130	0.598	0.344	
0.135	0.491	0.357	
0.140	-0.084	0.366	
0.145	0.268	0.330	
0.150	0.587	0.300	
0.155	-0.069	0.293	
0.160	-0.075	0.253	
0.165	0.413	0.195	
0.170	-0.003	0.165	
0.175	-0.213	0.129	
0.180	0.262	0.080	
0.185	0.215	0.065	
0.190	-0.203	0.068	
0.195	0.145	0.055	
0.200	0.451	0.063	
0.205	-0.105	0.099	
0.210	-0.055	0.107	
0.215	0.489	0.104	
0.220	0.090	0.130	
0.225	-0.156	0.142	
0.230	0.384	0.130	
0.235	0.317	0.142	
0.240	-0.182	0.161	
0.245	0.114	0.144	
0.250	0.416	0.130	
0.255	-0.143	0.136	
0.260	-0.133	0.114	
0.265	0.314	0.078	
0.270	-0.098	0.064	
0.275	-0.290	0.037	
0.280	0.101	-0.009	
0.285	0.037	-0.033	
0.290	-0.300	-0.044	
0.295	-0.064	-0.071	
0.300	0.192	-0.082	
0.305	-0.282	-0.070	
0.310	-0.256	-0.081	
0.315	0.248	-0.096	
0.320	0.070	-0.072	
0.325	0.140	-0.022	
0.330	1.223	0.079	
0.335	1.412	0.299	
0.340	0.716	0.571	
0.345	0.640	0.760	
0.350	0.358	0.822	
0.355	-0.378	0.746	
0.360	-0.474	0.530	
0.365	-0.233	0.255	
0.370	-0.403	0.010	
0.375	-0.511	-0.184	
0.380	-0.145	-0.317	
0.385	-0.122	-0.367	
0.390	-0.361	-0.358	
0.395	-0.104	-0.332	
0.400	0.239	-0.273	
0.405	-0.180	-0.184	
0.410	-0.114	-0.118	
0.415	0.453	-0.061	
0.420	0.114	0.020	
0.425	-0.108	0.082	
0.430	0.480	0.115	
0.435	0.472	0.171	
0.440	-0.047	0.231	
0.445	0.392	0.253	
0.450	0.755	0.286	
0.455	0.204	0.347	
0.460	0.262	0.378	
0.465	0.814	0.395	
0.470	0.454	0.439	
0.475	0.172	0.466	
0.480	0.748	0.466	
0.485	0.636	0.485	
0.490	-0.017	0.498	
0.495	0.323	0.455	
0.500	0.576	0.406	
0.505	-0.070	0.371	
0.510	-0.072	0.303	
0.515	0.402	0.222	
0.520	-0.021	0.174	
0.525	-0.232	0.124	
0.530	0.204	0.064	
0.535	0.140	0.037	
0.540	-0.252	0.028	
0.545	-0.038	-0.000	
0.550	0.241	-0.018	
0.555	-0.215	-0.013	
0.560	-0.160	-0.024	
0.565	0.308	-0.036	
0.570	-0.099	-0.018	
0.575	-0.267	-0.014	
0.580	0.180	-0.030	
0.585	0.130	-0.022	
0.590	-0.267	-0.006	
0.595	-0.053	-0.018	
0.600	0.197	-0.029	
0.605	-0.258	-0.025	
0.610	-0.255	-0.045	
0.615	0.068	-0.079	
0.620	-0.194	-0.095	
0.625	-0.358	-0.117	
0.630	0.014	-0.147	
0.635	0.003	-0.150	
0.640	-0.348	-0.139	
0.645	-0.136	-0.146	
0.650	0.091	-0.147	
0.655	-0.325	-0.133	
0.660	-0.299	-0.141	
0.665	0.163	-0.154	
0.670	-0.005	-0.131	
0.675	0.001	-0.088	
0.680	0.887	-0.010	
0.685	0.959	0.156	
0.690	0.264	0.351	
0.695	0.274	0.463	
0.700	0.204	0.480	
0.705	-0.374	0.414	
0.710	-0.404	0.261	
0.715	-0.130	0.077	
0.720	-0.297	-0.072	
0.725	-0.403	-0.184	
0.730	-0.049	-0.258	
0.735	-0.031	-0.271	
0.740	-0.339	-0.249	
0.745	-0.110	-0.229	
0.750	0.209	-0.194	
0.755	-0.183	-0.134	
0.760	-0.146	-0.095	
0.765	0.328	-0.064	
0.770	0.004	-0.014	
0.775	-0.146	0.022	
0.780	0.454	0.044	
0.785	0.483	0.103	
0.790	-0.089	0.175	
0.795	0.253	0.204	
0.800	0.614	0.228	
0.805	0.021	0.267	
0.810	0.097	0.272	
0.815	0.683	0.266	
0.820	0.297	0.295	
0.825	-0.052	0.311	
0.830	0.469	0.292	
0.835	0.418	0.289	
0.840	-0.125	0.289	
0.845	0.155	0.250	
0.850	0.433	0.214	
0.855	-0.127	0.197	
0.860	-0.116	0.156	
0.865	0.393	0.108	
0.870	0.009	0.096	
0.875	-0.217	0.082	
0.880	0.265	0.052	
0.885	0.248	0.054	
0.890	-0.215	0.070	
0.895	0.070	0.060	
0.900	0.389	0.058	
0.905	-0.137	0.080	
0.910	-0.114	0.075	
0.915	0.386	0.060	
0.920	-0.043	0.070	
0.925	-0.259	0.064	
0.930	0.169	0.031	
0.935	0.139	0.019	
0.940	-0.285	0.017	
0.945	-0.072	-0.010	
0.950	0.207	-0.032	
0.955	-0.256	-0.033	
0.960	-0.246	-0.053	
0.965	0.148	-0.080	
0.970	-0.168	-0.084	
0.975	-0.354	-0.096	
0.980	0.015	-0.124	
0.985	-0.017	-0.130	
0.990	-0.355	-0.126	
0.995	-0.160	-0.142	
1.000	0.062	-0.152	
1.005	-0.343	-0.146	
1.010	-0.316	-0.160	
1.015	0.171	-0.174	
1.020	0.044	-0.146	
1.025	0.078	-0.089	
1.030	0.896	0.005	
1.035	0.808	0.175	
1.040	-0.041	0.340	
1.045	-0.035	0.390	
1.050	-0.014	0.337	
1.055	-0.436	0.226	
1.060	-0.453	0.068	
1.065	-0.139	-0.091	
1.070	-0.306	-0.200	
1.075	-0.433	-0.271	
1.080	-0.089	-0.315	
1.085	-0.081	-0.310	
1.090	-0.390	-0.280	
1.095	-0.163	-0.261	
1.100	0.107	-0.231	
1.105	-0.282	-0.185	
1.110	-0.271	-0.162	
1.115	0.145	-0.152	
1.120	-0.125	-0.124	
1.125	-0.306	-0.106	
1.130	0.102	-0.107	
1.135	0.130	-0.087	
1.140	-0.259	-0.056	
1.145	-0.017	-0.049	
1.150	0.349	-0.034	
1.155	-0.139	0.004	
1.160	-0.107	0.021	
1.165	0.453	0.030	
1.170	0.076	0.069	
1.175	-0.198	0.094	
1.180	0.229	0.085	
1.185	0.177	0.085	
1.190	-0.261	0.084	
1.195	-0.072	0.049	
1.200	0.207	0.013	
1.205	-0.259	-0.003	
1.210	-0.261	-0.036	
1.215	0.133	-0.076	
1.220	-0.165	-0.089	
1.225	-0.343	-0.104	
1.230	0.023	-0.130	
1.235	0.012	-0.132	
1.240	-0.322	-0.122	
1.245	-0.120	-0.129	
1.250	0.174	-0.126	
1.255	-0.249	-0.103	
1.260	-0.230	-0.098	
1.265	0.212	-0.100	
1.270	-0.108	-0.079	
1.275	-0.297	-0.068	
1.280	0.073	-0.079	
1.285	0.043	-0.075	
1.290	-0.316	-0.066	
1.295	-0.128	-0.083	
1.300	0.104	-0.097	
1.305	-0.274	-0.096	
1.310	-0.258	-0.109	
1.315	0.161	-0.125	
1.320	-0.136	-0.113	
1.325	-0.310	-0.105	
1.330	0.116	-0.112	
1.335	0.117	-0.092	
1.340	-0.258	-0.062	
1.345	-0.031	-0.055	
1.350	0.253	-0.044	
1.355	-0.217	-0.019	
1.360	-0.166	-0.019	
1.365	0.501	-0.018	
1.370	0.421	0.044	
1.375	0.407	0.147	
1.380	1.166	0.281	
1.385	1.078	0.472	
1.390	0.131	0.637	
1.395	0.046	0.665	
1.400	0.035	0.568	
1.405	-0.412	0.402	
1.410	-0.418	0.190	
1.415	-0.085	-0.010	
1.420	-0.227	-0.145	
1.425	-0.346	-0.225	
1.430	0.061	-0.263	
1.435	0.079	-0.239	
1.440	-0.277	-0.186	
1.445	-0.041	-0.150	
1.450	0.291	-0.107	
1.455	-0.183	-0.050	
1.460	-0.169	-0.024	
1.465	0.331	-0.016	
1.470	0.008	0.015	
1.475	-0.188	0.034	
1.480	0.319	0.035	
1.485	0.370	0.067	
1.490	-0.111	0.114	
1.495	0.238	0.134	
1.500	0.639	0.165	
1.505	0.111	0.225	
1.510	0.126	0.259	
1.515	0.718	0.277	
1.520	0.358	0.324	
1.525	-0.029	0.352	
1.530	0.518	0.338	
1.535	0.495	0.339	
1.540	-0.085	0.342	
1.545	0.200	0.305	
1.550	0.492	0.267	
1.555	-0.102	0.250	
1.560	-0.120	0.202	
1.565	0.349	0.142	
1.570	-0.018	0.112	
1.575	-0.227	0.081	
1.580	0.198	0.038	
1.585	0.206	0.027	
1.590	-0.217	0.035	
1.595	0.021	0.023	
1.600	0.314	0.019	
1.605	-0.172	0.036	
1.610	-0.160	0.029	
1.615	0.312	0.011	
1.620	-0.052	0.020	
1.625	-0.258	0.018	
1.630	0.093	-0.008	
1.635	0.029	-0.021	
1.640	-0.329	-0.032	
1.645	-0.157	-0.068	
1.650	0.075	-0.099	
1.655	-0.320	-0.111	
1.660	-0.328	-0.138	
1.665	0.021	-0.170	
1.670	-0.250	-0.179	
1.675	-0.447	-0.193	
1.680	-0.142	-0.224	
1.685	-0.133	-0.237	
1.690	-0.416	-0.238	
1.695	-0.244	-0.250	
1.700	-0.089	-0.256	
1.705	-0.386	-0.249	
1.710	-0.314	-0.253	
1.715	0.303	-0.242	
1.720	0.329	-0.163	
1.725	0.503	-0.026	
1.730	1.369	0.170	
1.735	1.219	0.441	
1.740	0.157	0.676	
1.745	-0.029	0.736	
1.750	-0.056	0.632	
1.755	-0.460	0.436	
1.760	-0.480	0.192	
1.765	-0.145	-0.036	
1.770	-0.273	-0.189	
1.775	-0.399	-0.280	
1.780	-0.021	-0.323	
1.785	0.033	-0.304	
1.790	-0.297	-0.250	
1.795	-0.081	-0.207	
1.800	0.255	-0.157	
1.805	-0.185	-0.092	
1.810	-0.166	-0.056	
1.815	0.320	-0.037	
1.820	-0.006	0.000	
1.825	-0.217	0.023	
1.830	0.256	0.022	
1.835	0.280	0.043	
1.840	-0.149	0.077	
1.845	0.189	0.087	
1.850	0.588	0.114	
1.855	0.064	0.172	
1.860	0.088	0.206	
1.865	0.665	0.226	
1.870	0.300	0.274	
1.875	-0.063	0.302	
1.880	0.472	0.290	
1.885	0.431	0.291	
1.890	-0.131	0.294	
1.895	0.114	0.254	
1.900	0.384	0.209	
1.905	-0.166	0.182	
1.910	-0.203	0.128	
1.915	0.212	0.061	
1.920	-0.108	0.022	
1.925	-0.305	-0.015	
1.930	0.070	-0.061	
1.935	0.017	-0.079	
1.940	-0.331	-0.084	
1.945	-0.117	-0.106	
1.950	0.232	-0.113	
1.955	-0.201	-0.088	
1.960	-0.188	-0.077	
1.965	0.325	-0.069	
1.970	-0.035	-0.032	
1.975	-0.264	-0.009	
1.980	0.149	-0.015	
1.985	0.145	-0.007	
1.990	-0.274	0.006	
1.995	-0.089	-0.011	
2.000	0.172	-0.031	
2.005	-0.279	-0.036	
2.010	-0.302	-0.063	
2.015	0.055	-0.103	
2.020	-0.195	-0.122	
2.025	-0.375	-0.141	
2.030	-0.027	-0.170	
2.035	0.001	-0.172	
2.040	-0.337	-0.158	
2.045	-0.171	-0.161	
2.050	0.014	-0.163	
2.055	-0.335	-0.157	
2.060	-0.282	-0.168	
2.065	0.328	-0.169	
2.070	0.424	-0.101	
2.075	0.596	0.032	
2.080	1.476	0.235	
2.085	1.392	0.519	
2.090	0.277	0.772	
2.095	-0.014	0.843	
2.100	-0.095	0.730	
2.105	-0.521	0.506	
2.110	-0.550	0.225	
2.115	-0.233	-0.041	
2.120	-0.357	-0.227	
2.125	-0.491	-0.343	
2.130	-0.139	-0.405	
2.135	-0.075	-0.400	
2.140	-0.360	-0.353	
2.145	-0.146	-0.309	
2.150	0.186	-0.251	
2.155	-0.217	-0.176	
2.160	-0.185	-0.127	
2.165	0.352	-0.090	
2.170	0.058	-0.028	
2.175	-0.159	0.021	
2.180	0.424	0.049	
2.185	0.492	0.109	
2.190	-0.011	0.182	
2.195	0.433	0.226	
2.200	0.886	0.287	
2.205	0.372	0.382	
2.210	0.380	0.451	
2.215	0.985	0.500	
2.220	0.643	0.569	
2.225	0.244	0.614	
2.230	0.805	0.613	
2.235	0.794	0.621	
2.240	0.165	0.628	
2.245	0.460	0.589	
2.250	0.770	0.547	
2.255	0.122	0.523	
2.260	0.038	0.463	
2.265	0.572	0.384	
2.270	0.181	0.337	
2.275	-0.140	0.288	
2.280	0.352	0.223	
2.285	0.354	0.192	
2.290	-0.148	0.183	
2.295	0.110	0.153	
2.300	0.412	0.132	
2.305	-0.125	0.135	
2.310	-0.136	0.112	
2.315	0.367	0.079	
2.320	0.017	0.077	
2.325	-0.247	0.068	
2.330	0.126	0.036	
2.335	0.107	0.018	
2.340	-0.299	0.008	
2.345	-0.130	-0.027	
2.350	0.122	-0.059	
2.355	-0.303	-0.073	
2.360	-0.335	-0.104	
2.365	-0.014	-0.146	
2.370	-0.218	-0.166	
2.375	-0.399	-0.185	
2.380	-0.084	-0.211	
2.385	-0.076	-0.214	
2.390	-0.395	-0.205	
2.395	-0.249	-0.215	
2.400	-0.084	-0.225	
2.405	-0.389	-0.225	
2.410	-0.345	-0.240	
2.415	0.206	-0.243	
2.420	0.264	-0.184	
2.425	0.247	-0.076	
2.430	0.933	0.069	
2.435	0.806	0.262	
2.440	-0.153	0.419	
2.445	-0.220	0.432	
2.450	-0.192	0.323	
2.455	-0.557	0.156	
2.460	-0.589	-0.043	
2.465	-0.262	-0.224	
2.470	-0.354	-0.340	
2.475	-0.482	-0.401	
2.480	-0.151	-0.425	
2.485	-0.110	-0.399	
2.490	-0.399	-0.349	
2.495	-0.188	-0.310	
2.500	0.128	-0.264	
2.505	-0.247	-0.200	
2.510	-0.253	-0.161	
2.515	0.197	-0.137	
2.520	-0.078	-0.098	
2.525	-0.282	-0.071	
2.530	0.142	-0.068	
2.535	0.233	-0.043	
2.540	-0.194	-0.004	
2.545	0.072	0.012	
2.550	0.494	0.039	
2.555	-0.023	0.092	
2.560	-0.023	0.121	
2.565	0.544	0.135	
2.570	0.198	0.175	
2.575	-0.133	0.200	
2.580	0.361	0.189	
2.585	0.346	0.192	
2.590	-0.177	0.198	
2.595	0.021	0.165	
2.600	0.328	0.128	
2.605	-0.180	0.108	
2.610	-0.218	0.067	
2.615	0.198	0.016	
2.620	-0.099	-0.009	
2.625	-0.306	-0.034	
2.630	0.056	-0.070	
2.635	0.075	-0.080	
2.640	-0.306	-0.075	
2.645	-0.122	-0.089	
2.650	0.239	-0.094	
2.655	-0.197	-0.072	
2.660	-0.210	-0.064	
2.665	0.239	-0.066	
2.670	-0.067	-0.046	
2.675	-0.285	-0.035	
2.680	0.101	-0.049	
2.685	0.107	-0.045	
2.690	-0.291	-0.034	
2.695	-0.122	-0.050	
2.700	0.171	-0.065	
2.705	-0.265	-0.063	
2.710	-0.296	-0.080	
2.715	0.056	-0.111	
2.720	-0.185	-0.123	
2.725	-0.386	-0.138	
2.730	-0.067	-0.167	
2.735	-0.027	-0.176	
2.740	-0.354	-0.170	
2.745	-0.200	-0.179	
2.750	0.026	-0.183	
2.755	-0.311	-0.173	
2.760	-0.265	-0.176	
2.765	0.352	-0.167	
2.770	0.363	-0.095	
2.775	0.305	0.021	
2.780	0.950	0.164	
2.785	0.829	0.343	
2.790	-0.110	0.484	
2.795	-0.137	0.485	
2.800	-0.067	0.376	
2.805	-0.438	0.220	
2.810	-0.468	0.037	
2.815	-0.143	-0.129	
2.820	-0.262	-0.234	
2.825	-0.407	-0.292	
2.830	-0.043	-0.318	
2.835	0.026	-0.294	
2.840	-0.317	-0.242	
2.845	-0.127	-0.206	
2.850	0.223	-0.166	
2.855	-0.198	-0.110	
2.860	-0.200	-0.080	
2.865	0.328	-0.062	
2.870	0.072	-0.018	
2.875	-0.183	0.020	
2.880	0.348	0.038	
2.885	0.462	0.084	
2.890	-0.047	0.148	
2.895	0.328	0.184	
2.900	0.785	0.232	
2.905	0.315	0.315	
2.910	0.293	0.377	
2.915	0.848	0.418	
2.920	0.495	0.476	
2.925	0.078	0.505	
2.930	0.617	0.484	
2.935	0.625	0.474	
2.940	-0.015	0.467	
2.945	0.242	0.416	
2.950	0.588	0.363	
2.955	-0.005	0.335	
2.960	-0.050	0.284	
2.965	0.506	0.225	
2.970	0.163	0.206	
2.975	-0.163	0.190	
2.980	0.317	0.154	
2.985	0.367	0.146	
2.990	-0.163	0.157	
2.995	0.052	0.137	
3.000	0.439	0.120	
3.005	-0.090	0.128	
3.010	-0.128	0.114	
3.015	0.392	0.089	
3.020	0.058	0.092	
3.025	-0.213	0.091	
3.030	0.204	0.066	
3.035	0.235	0.061	
3.040	-0.232	0.068	
3.045	-0.064	0.045	
3.050	0.282	0.022	
3.055	-0.198	0.021	
3.060	-0.236	-0.000	
3.065	0.165	-0.034	
3.070	-0.114	-0.045	
3.075	-0.339	-0.061	
3.080	-0.015	-0.095	
3.085	0.041	-0.109	
3.090	-0.322	-0.108	
3.095	-0.169	-0.123	
3.100	0.085	-0.134	
3.105	-0.284	-0.128	
3.110	-0.268	-0.136	
3.115	0.308	-0.138	
3.120	0.303	-0.084	
3.125	0.242	0.012	
3.130	0.896	0.134	
3.135	0.799	0.300	
3.140	-0.119	0.436	
3.145	-0.162	0.441	
3.150	-0.082	0.338	
3.155	-0.445	0.189	
3.160	-0.485	0.014	
3.165	-0.163	-0.148	
3.170	-0.276	-0.250	
3.175	-0.430	-0.307	
3.180	-0.093	-0.335	
3.185	-0.021	-0.317	
3.190	-0.337	-0.271	
3.195	-0.169	-0.238	
3.200	0.169	-0.202	
3.205	-0.215	-0.149	
3.210	-0.247	-0.118	
3.215	0.180	-0.106	
3.220	-0.060	-0.078	
3.225	-0.267	-0.059	
3.230	0.136	-0.060	
3.235	0.242	-0.038	
3.240	-0.198	-0.001	
3.245	0.024	0.012	
3.250	0.463	0.030	
3.255	-0.038	0.076	
3.260	-0.081	0.098	
3.265	0.469	0.104	
3.270	0.152	0.134	
3.275	-0.180	0.151	
3.280	0.248	0.134	
3.285	0.287	0.128	
3.290	-0.221	0.130	
3.295	-0.066	0.096	
3.300	0.277	0.059	
3.305	-0.180	0.043	
3.310	-0.220	0.014	
3.315	0.197	-0.022	
3.320	-0.084	-0.032	
3.325	-0.320	-0.044	
3.330	0.020	-0.075	
3.335	0.099	-0.084	
3.340	-0.297	-0.077	
3.345	-0.142	-0.089	
3.350	0.184	-0.096	
3.355	-0.215	-0.082	
3.360	-0.244	-0.082	
3.365	0.198	-0.090	
3.370	-0.066	-0.074	
3.375	-0.311	-0.063	
3.380	-0.009	-0.079	
3.385	0.037	-0.085	
3.390	-0.331	-0.085	
3.395	-0.186	-0.107	
3.400	0.076	-0.127	
3.405	-0.297	-0.128	
3.410	-0.357	-0.146	
3.415	-0.046	-0.176	
3.420	-0.217	-0.189	
3.425	-0.421	-0.202	
3.430	-0.139	-0.227	
3.435	-0.104	-0.234	
3.440	-0.421	-0.230	
3.445	-0.300	-0.243	
3.450	-0.119	-0.257	
3.455	-0.415	-0.260	
3.460	-0.435	-0.278	
3.465	-0.015	-0.295	
3.470	0.014	-0.270	
3.475	-0.041	-0.209	
3.480	0.631	-0.115	
3.485	0.627	0.038	
3.490	-0.203	0.184	
3.495	-0.256	0.220	
3.500	-0.175	0.156	
3.505	-0.505	0.045	
3.510	-0.546	-0.098	
3.515	-0.217	-0.234	
3.520	-0.300	-0.317	
3.525	-0.457	-0.358	
3.530	-0.139	-0.374	
3.535	-0.050	-0.350	
3.540	-0.351	-0.300	
3.545	-0.191	-0.264	
3.550	0.148	-0.224	
3.555	-0.209	-0.168	
3.560	-0.233	-0.133	
3.565	0.244	-0.111	
3.570	0.018	-0.067	
3.575	-0.232	-0.031	
3.580	0.201	-0.019	
3.585	0.332	0.014	
3.590	-0.136	0.061	
3.595	0.142	0.082	
3.600	0.587	0.112	
3.605	0.093	0.170	
3.610	0.021	0.204	
3.615	0.590	0.217	
3.620	0.303	0.252	
3.625	-0.111	0.273	
3.630	0.341	0.253	
3.635	0.413	0.241	
3.640	-0.154	0.238	
3.645	-0.009	0.197	
3.650	0.325	0.147	
3.655	-0.165	0.118	
3.660	-0.238	0.070	
3.665	0.161	0.012	
3.670	-0.087	-0.019	
3.675	-0.331	-0.047	
3.680	-0.020	-0.087	
3.685	0.090	-0.104	
3.690	-0.303	-0.100	
3.695	-0.169	-0.111	
3.700	0.163	-0.118	
3.705	-0.217	-0.102	
3.710	-0.268	-0.101	
3.715	0.142	-0.110	
3.720	-0.084	-0.097	
3.725	-0.331	-0.089	
3.730	-0.040	-0.105	
3.735	0.032	-0.111	
3.740	-0.332	-0.108	
3.745	-0.203	-0.125	
3.750	0.056	-0.142	
3.755	-0.311	-0.142	
3.760	-0.381	-0.160	
3.765	-0.073	-0.192	
3.770	-0.224	-0.207	
3.775	-0.444	-0.221	
3.780	-0.180	-0.246	
3.785	-0.117	-0.256	
3.790	-0.433	-0.253	
3.795	-0.317	-0.264	
3.800	-0.127	-0.276	
3.805	-0.422	-0.277	
3.810	-0.454	-0.292	
3.815	-0.046	-0.309	
3.820	0.021	-0.285	
3.825	0.000	-0.220	
3.830	0.799	-0.110	
3.835	0.916	0.080	
3.840	0.012	0.281	
3.845	-0.166	0.364	
3.850	-0.151	0.315	
3.855	-0.517	0.188	
3.860	-0.595	0.009	
3.865	-0.265	-0.172	
3.870	-0.329	-0.296	
3.875	-0.509	-0.369	
3.880	-0.204	-0.408	
3.885	-0.098	-0.399	
3.890	-0.380	-0.357	
3.895	-0.221	-0.320	
3.900	0.123	-0.275	
3.905	-0.233	-0.212	
3.910	-0.279	-0.170	
3.915	0.148	-0.148	
3.920	-0.061	-0.112	
3.925	-0.288	-0.086	
3.930	0.096	-0.082	
3.935	0.268	-0.057	
3.940	-0.171	-0.013	
3.945	0.068	0.011	
3.950	0.564	0.045	
3.955	0.093	0.113	
3.960	0.021	0.161	
3.965	0.631	0.190	
3.970	0.364	0.246	
3.975	-0.078	0.287	
3.980	0.387	0.281	
3.985	0.465	0.280	
3.990	-0.120	0.283	
3.995	0.033	0.245	
4.000	0.405	0.196	
4.005	-0.111	0.170	
4.010	-0.203	0.125	
4.015	0.241	0.067	
4.020	-0.029	0.038	
4.025	-0.296	0.011	
4.030	0.053	-0.030	
4.035	0.172	-0.046	
4.040	-0.256	-0.038	
4.045	-0.119	-0.049	
4.050	0.253	-0.056	
4.055	-0.178	-0.040	
4.060	-0.239	-0.040	
4.065	0.210	-0.054	
4.070	-0.050	-0.044	
4.075	-0.314	-0.041	
4.080	-0.005	-0.063	
4.085	0.087	-0.074	
4.090	-0.308	-0.071	
4.095	-0.194	-0.091	
4.100	0.110	-0.110	
4.105	-0.268	-0.111	
4.110	-0.342	-0.126	
4.115	-0.008	-0.155	
4.120	-0.172	-0.165	
4.125	-0.407	-0.174	
4.130	-0.131	-0.198	
4.135	-0.044	-0.206	
4.140	-0.372	-0.200	
4.145	-0.253	-0.208	
4.150	-0.038	-0.215	
4.155	-0.367	-0.212	
4.160	-0.409	-0.225	
4.165	0.084	-0.241	
4.170	0.215	-0.206	
4.175	0.277	-0.114	
4.180	1.151	0.041	
4.185	1.258	0.287	
4.190	0.258	0.535	
4.195	-0.084	0.637	
4.200	-0.110	0.568	
4.205	-0.518	0.392	
4.210	-0.611	0.152	
4.215	-0.279	-0.088	
4.220	-0.334	-0.259	
4.225	-0.503	-0.362	
4.230	-0.174	-0.416	
4.235	-0.044	-0.407	
4.240	-0.357	-0.356	
4.245	-0.197	-0.309	
4.250	0.197	-0.255	
4.255	-0.201	-0.181	
4.260	-0.252	-0.133	
4.265	0.245	-0.106	
4.270	0.044	-0.060	
4.275	-0.239	-0.022	
4.280	0.226	-0.009	
4.285	0.421	0.028	
4.290	-0.087	0.087	
4.295	0.241	0.122	
4.300	0.779	0.171	
4.305	0.302	0.260	
4.310	0.207	0.330	
4.315	0.860	0.376	
4.320	0.582	0.445	
4.325	0.079	0.494	
4.330	0.581	0.488	
4.335	0.652	0.482	
4.340	-0.024	0.476	
4.345	0.166	0.421	
4.350	0.549	0.356	
4.355	-0.078	0.313	
4.360	-0.203	0.242	
4.365	0.253	0.153	
4.370	-0.014	0.094	
4.375	-0.296	0.044	
4.380	0.075	-0.013	
4.385	0.213	-0.035	
4.390	-0.247	-0.028	
4.395	-0.095	-0.037	
4.400	0.343	-0.039	
4.405	-0.140	-0.012	
4.410	-0.210	-0.003	
4.415	0.322	-0.009	
4.420	0.044	0.011	
4.425	-0.285	0.025	
4.430	0.065	0.006	
4.435	0.180	-0.003	
4.440	-0.294	-0.001	
4.445	-0.177	-0.027	
4.450	0.158	-0.057	
4.455	-0.259	-0.067	
4.460	-0.354	-0.093	
4.465	-0.017	-0.133	
4.470	-0.186	-0.155	
4.475	-0.430	-0.175	
4.480	-0.136	-0.207	
4.485	-0.038	-0.219	
4.490	-0.390	-0.212	
4.495	-0.258	-0.219	
4.500	0.015	-0.223	
4.505	-0.339	-0.210	
4.510	-0.401	-0.214	
4.515	0.061	-0.226	
4.520	0.105	-0.199	
4.525	0.004	-0.136	
4.530	0.913	-0.032	
4.535	1.139	0.162	
4.540	0.279	0.387	
4.545	0.037	0.507	
4.550	0.047	0.490	
4.555	-0.436	0.378	
4.560	-0.566	0.188	
4.565	-0.241	-0.023	
4.570	-0.310	-0.185	
4.575	-0.494	-0.293	
4.580	-0.156	-0.359	
4.585	0.017	-0.362	
4.590	-0.329	-0.317	
4.595	-0.178	-0.275	
4.600	0.256	-0.223	
4.605	-0.160	-0.148	
4.610	-0.223	-0.097	
4.615	0.306	-0.068	
4.620	0.084	-0.019	
4.625	-0.238	0.019	
4.630	0.207	0.026	
4.635	0.416	0.052	
4.640	-0.117	0.098	
4.645	0.140	0.117	
4.650	0.680	0.144	
4.655	0.187	0.208	
4.660	0.078	0.254	
4.665	0.750	0.280	
4.670	0.471	0.335	
4.675	-0.053	0.376	
4.680	0.444	0.364	
4.685	0.565	0.356	
4.690	-0.098	0.354	
4.695	0.058	0.308	
4.700	0.483	0.251	
4.705	-0.070	0.221	
4.710	-0.188	0.173	
4.715	0.294	0.110	
4.720	0.052	0.080	
4.725	-0.273	0.056	
4.730	0.084	0.015	
4.735	0.239	-0.002	
4.740	-0.246	0.005	
4.745	-0.114	-0.010	
4.750	0.303	-0.023	
4.755	-0.153	-0.009	
4.760	-0.229	-0.012	
4.765	0.262	-0.027	
4.770	0.026	-0.014	
4.775	-0.291	-0.005	
4.780	0.061	-0.022	
4.785	0.198	-0.025	
4.790	-0.293	-0.014	
4.795	-0.169	-0.032	
4.800	0.189	-0.055	
4.805	-0.255	-0.059	
4.810	-0.364	-0.081	
4.815	-0.026	-0.124	
4.820	-0.183	-0.149	
4.825	-0.447	-0.173	
4.830	-0.172	-0.211	
4.835	-0.078	-0.230	
4.840	-0.415	-0.232	
4.845	-0.306	-0.246	
4.850	-0.061	-0.257	
4.855	-0.380	-0.253	
4.860	-0.467	-0.263	
4.865	-0.095	-0.285	
4.870	-0.093	-0.277	
4.875	-0.195	-0.245	
4.880	0.569	-0.179	
4.885	0.823	-0.033	
4.890	0.000	0.148	
4.895	-0.122	0.241	
4.900	-0.081	0.228	
4.905	-0.497	0.143	
4.910	-0.625	-0.003	
4.915	-0.332	-0.171	
4.920	-0.418	-0.300	
4.925	-0.617	-0.391	
4.930	-0.317	-0.454	
4.935	-0.197	-0.468	
4.940	-0.492	-0.444	
4.945	-0.361	-0.422	
4.950	-0.066	-0.392	
4.955	-0.342	-0.343	
4.960	-0.419	-0.310	
4.965	-0.044	-0.293	
4.970	-0.133	-0.260	
4.975	-0.370	-0.227	
4.980	-0.044	-0.211	
4.985	0.140	-0.179	
4.990	-0.287	-0.133	
4.995	-0.137	-0.112	
5.000	0.392	-0.089	
5.005	-0.073	-0.034	
5.010	-0.162	0.002	
5.015	0.434	0.022	
5.020	0.236	0.071	
5.025	-0.220	0.114	
5.030	0.137	0.111	
5.035	0.273	0.104	
5.040	-0.252	0.101	
5.045	-0.159	0.063	
5.050	0.209	0.016	
5.055	-0.229	-0.008	
5.060	-0.352	-0.047	
5.065	0.001	-0.100	
5.070	-0.169	-0.132	
5.075	-0.448	-0.159	
5.080	-0.186	-0.201	
5.085	-0.061	-0.225	
5.090	-0.422	-0.229	
5.095	-0.331	-0.246	
5.100	-0.047	-0.261	
5.105	-0.334	-0.255	
5.110	-0.415	-0.257	
5.115	-0.044	-0.267	
5.120	-0.177	-0.253	
5.125	-0.454	-0.240	
5.130	-0.194	-0.247	
5.135	-0.090	-0.249	
5.140	-0.448	-0.241	
5.145	-0.345	-0.255	
5.150	-0.072	-0.270	
5.155	-0.377	-0.268	
5.160	-0.494	-0.278	
5.165	-0.180	-0.303	
5.170	-0.279	-0.312	
5.175	-0.524	-0.317	
5.180	-0.238	-0.333	
5.185	-0.107	-0.331	
5.190	-0.428	-0.309	
5.195	-0.311	-0.300	
5.200	0.001	-0.289	
5.205	-0.329	-0.259	
5.210	-0.441	-0.248	
5.215	-0.070	-0.255	
5.220	-0.111	-0.244	
5.225	-0.253	-0.218	
5.230	0.482	-0.172	
5.235	0.886	-0.044	
5.240	0.248	0.143	
5.245	0.219	0.282	
5.250	0.354	0.347	
5.255	-0.294	0.343	
5.260	-0.471	0.246	
5.265	-0.151	0.089	
5.270	-0.212	-0.051	
5.275	-0.419	-0.156	
5.280	-0.070	-0.230	
5.285	0.232	-0.240	
5.290	-0.229	-0.192	
5.295	-0.157	-0.151	
5.300	0.059	-0.126	
5.305	-0.369	-0.108	
5.310	-0.502	-0.135	
5.315	-0.148	-0.193	
5.320	-0.165	-0.230	
5.325	-0.352	-0.244	
5.330	0.082	-0.243	
5.335	0.419	-0.186	
5.340	-0.078	-0.085	
5.345	0.148	-0.001	
5.350	0.686	0.082	
5.355	0.258	0.190	
5.360	0.104	0.268	
5.365	0.758	0.314	
5.370	0.604	0.380	
5.375	0.093	0.438	
5.380	0.569	0.448	
5.385	0.765	0.463	
5.390	0.139	0.487	
5.395	0.300	0.472	
5.400	0.794	0.448	
5.405	0.311	0.455	
5.410	0.134	0.446	
5.415	0.825	0.424	
5.420	0.785	0.453	
5.425	0.683	0.526	
5.430	1.927	0.653	
5.435	2.811	0.934	
5.440	2.582	1.367	
5.445	2.872	1.828	
5.450	3.070	2.243	
5.455	2.874	2.582	
5.460	2.559	2.797	
5.465	3.049	2.896	
5.470	2.799	2.939	
5.475	2.165	2.916	
5.480	2.480	2.810	
5.485	2.556	2.686	
5.490	1.799	2.563	
5.495	1.800	2.396	
5.500	2.157	2.221	
5.505	1.558	2.078	
5.510	1.178	1.923	
5.515	1.660	1.748	
5.520	1.422	1.613	
5.525	0.820	1.495	
5.530	1.180	1.356	
5.535	1.308	1.245	
5.540	0.642	1.165	
5.545	0.712	1.063	
5.550	1.134	0.965	
5.555	0.582	0.902	
5.560	0.223	0.822	
5.565	0.747	0.712	
5.570	0.623	0.635	
5.575	0.244	0.583	
5.580	0.962	0.545	
5.585	1.447	0.593	
5.590	0.922	0.727	
5.595	0.912	0.853	
5.600	0.992	0.930	
5.605	0.087	0.934	
5.610	-0.277	0.804	
5.615	-0.043	0.569	
5.620	-0.151	0.324	
5.625	-0.392	0.110	
5.630	-0.127	-0.064	
5.635	0.088	-0.164	
5.640	-0.250	-0.192	
5.645	-0.159	-0.197	
5.650	0.247	-0.177	
5.655	-0.114	-0.125	
5.660	-0.242	-0.087	
5.665	0.168	-0.072	
5.670	0.043	-0.045	
5.675	-0.268	-0.024	
5.680	-0.015	-0.033	
5.685	0.195	-0.036	
5.690	-0.223	-0.024	
5.695	-0.143	-0.032	
5.700	0.277	-0.040	
5.705	-0.168	-0.026	
5.710	-0.442	-0.037	
5.715	-0.177	-0.092	
5.720	-0.162	-0.147	
5.725	-0.335	-0.185	
5.730	-0.134	-0.214	
5.735	-0.401	-0.235	
5.740	-0.996	-0.292	
5.745	-0.996	-0.422	
5.750	-0.996	-0.592	
5.755	-0.996	-0.750	
5.760	-0.996	-0.873	
5.765	-0.996	-0.956	
5.770	-0.996	-1.004	
5.775	-0.996	-1.026	
5.780	-0.994	-1.031	
5.785	-0.996	-1.027	
5.790	-0.996	-1.019	
5.795	-0.996	-1.011	
5.800	-0.996	-1.004	
5.805	-0.996	-0.999	
5.810	-0.996	-0.996	
5.815	-0.996	-0.994	
5.820	-0.996	-0.994	
5.825	-0.996	-0.994	
5.830	-0.996	-0.994	
5.835	-0.892	-0.990	
5.840	-0.994	-0.979	
5.845	-0.994	-0.972	
5.850	-0.755	-0.961	
5.855	-0.941	-0.938	
5.860	-0.994	-0.920	
5.865	-0.709	-0.910	
5.870	-0.741	-0.882	
5.875	-0.973	-0.852	
5.880	-0.744	-0.838	
5.885	-0.617	-0.818	
5.890	-0.915	-0.791	
5.895	-0.864	-0.785	
5.900	-0.601	-0.786	
5.905	-0.805	-0.774	
5.910	-0.936	-0.771	
5.915	-0.654	-0.781	
5.920	-0.683	-0.776	
5.925	-0.857	-0.764	
5.930	-0.476	-0.749	
5.935	-0.122	-0.693	
5.940	-0.326	-0.585	
5.945	-0.238	-0.471	
5.950	-0.053	-0.368	
5.955	-0.540	-0.290	
5.960	-0.782	-0.286	
5.965	-0.517	-0.353	
5.970	-0.569	-0.430	
5.975	-0.813	-0.503	
5.980	-0.537	-0.572	
5.985	-0.348	-0.603	
5.990	-0.605	-0.592	
5.995	-0.497	-0.572	
6.000	-0.116	-0.536	
6.005	-0.322	-0.468	
6.010	-0.436	-0.403	
6.015	-0.006	-0.352	
6.020	-0.082	-0.287	
6.025	-0.381	-0.227	
6.030	-0.082	-0.199	
6.035	0.198	-0.164	
6.040	-0.293	-0.116	
6.045	-0.204	-0.098	
6.050	0.337	-0.088	
6.055	-0.104	-0.050	
6.060	-0.227	-0.027	
6.065	0.431	-0.016	
6.070	0.332	0.037	
6.075	-0.159	0.099	
6.080	0.337	0.128	
6.085	0.596	0.170	
6.090	-0.076	0.226	
6.095	0.008	0.233	
6.100	0.523	0.214	
6.105	0.035	0.216	
6.110	-0.188	0.196	
6.115	0.421	0.153	
6.120	0.268	0.147	
6.125	-0.213	0.151	
6.130	0.218	0.128	
6.135	0.515	0.127	
6.140	-0.098	0.156	
6.145	0.081	0.160	
6.150	0.718	0.169	
6.155	0.309	0.226	
6.160	0.090	0.278	
6.165	0.811	0.313	
6.170	0.773	0.386	
6.175	0.198	0.469	
6.180	0.753	0.512	
6.185	1.102	0.568	
6.190	0.465	0.649	
6.195	0.620	0.691	
6.200	1.232	0.720	
6.205	0.748	0.778	
6.210	0.431	0.809	
6.215	1.032	0.797	
6.220	0.863	0.799	
6.225	0.233	0.790	
6.230	0.700	0.734	
6.235	0.969	0.691	
6.240	0.308	0.678	
6.245	0.398	0.638	
6.250	0.915	0.594	
6.255	0.404	0.584	
6.260	0.055	0.553	
6.265	0.637	0.489	
6.270	0.497	0.452	
6.275	-0.058	0.422	
6.280	0.517	0.371	
6.285	1.061	0.372	
6.290	0.692	0.457	
6.295	0.889	0.568	
6.300	1.364	0.695	
6.305	0.604	0.824	
6.310	-0.075	0.850	
6.315	0.277	0.740	
6.320	0.017	0.572	
6.325	-0.366	0.382	
6.330	-0.066	0.181	
6.335	0.290	0.040	
6.340	-0.178	-0.022	
6.345	-0.070	-0.054	
6.350	0.520	-0.051	
6.355	0.081	0.008	
6.360	-0.133	0.061	
6.365	0.468	0.089	
6.370	0.355	0.140	
6.375	-0.149	0.186	
6.380	0.297	0.191	
6.385	0.649	0.209	
6.390	0.037	0.254	
6.395	0.161	0.270	
6.400	0.764	0.280	
6.405	0.357	0.328	
6.410	0.158	0.366	
6.415	0.893	0.390	
6.420	0.870	0.459	
6.425	0.326	0.545	
6.430	0.793	0.594	
6.435	1.061	0.645	
6.440	0.332	0.701	
6.445	0.413	0.698	
6.450	1.017	0.668	
6.455	0.524	0.667	
6.460	0.186	0.647	
6.465	0.784	0.596	
6.470	0.569	0.567	
6.475	-0.078	0.534	
6.480	0.322	0.453	
6.485	0.593	0.383	
6.490	-0.070	0.344	
6.495	-0.027	0.281	
6.500	0.549	0.218	
6.505	0.078	0.199	
6.510	-0.192	0.177	
6.515	0.344	0.135	
6.520	0.302	0.127	
6.525	-0.159	0.135	
6.530	0.209	0.124	
6.535	0.451	0.128	
6.540	-0.169	0.150	
6.545	-0.139	0.132	
6.550	0.315	0.092	
6.555	-0.140	0.072	
6.560	-0.308	0.036	
6.565	0.128	-0.017	
6.570	-0.027	-0.044	
6.575	-0.370	-0.063	
6.580	-0.119	-0.101	
6.585	0.123	-0.124	
6.590	-0.339	-0.122	
6.595	-0.277	-0.137	
6.600	0.133	-0.154	
6.605	-0.200	-0.144	
6.610	-0.349	-0.141	
6.615	0.043	-0.153	
6.620	-0.081	-0.146	
6.625	-0.398	-0.140	
6.630	-0.044	-0.154	
6.635	0.503	-0.131	
6.640	0.294	-0.038	
6.645	0.814	0.103	
6.650	1.486	0.310	
6.655	0.759	0.565	
6.660	-0.070	0.721	
6.665	0.120	0.699	
6.670	-0.165	0.559	
6.675	-0.508	0.354	
6.680	-0.229	0.123	
6.685	0.079	-0.054	
6.690	-0.273	-0.147	
6.695	-0.162	-0.195	
6.700	0.486	-0.187	
6.705	0.114	-0.106	
6.710	-0.104	-0.019	
6.715	0.604	0.051	
6.720	0.576	0.154	
6.725	0.017	0.258	
6.730	0.535	0.314	
6.735	0.886	0.375	
6.740	0.248	0.453	
6.745	0.428	0.492	
6.750	1.123	0.523	
6.755	0.703	0.597	
6.760	0.430	0.660	
6.765	1.200	0.697	
6.770	1.140	0.769	
6.775	0.558	0.849	
6.780	1.091	0.886	
6.785	1.405	0.932	
6.790	0.614	0.991	
6.795	0.639	0.988	
6.800	1.223	0.948	
6.805	0.709	0.928	
6.810	0.279	0.882	
6.815	0.895	0.796	
6.820	0.674	0.734	
6.825	-0.081	0.667	
6.830	0.300	0.549	
6.835	0.613	0.442	
6.840	-0.107	0.373	
6.845	-0.063	0.286	
6.850	0.649	0.209	
6.855	0.198	0.199	
6.860	-0.092	0.202	
6.865	0.593	0.194	
6.870	0.538	0.229	
6.875	-0.076	0.278	
6.880	0.396	0.287	
6.885	0.666	0.302	
6.890	-0.090	0.329	
6.895	-0.073	0.301	
6.900	0.509	0.244	
6.905	0.011	0.215	
6.910	-0.242	0.175	
6.915	0.323	0.115	
6.920	0.267	0.096	
6.925	-0.262	0.096	
6.930	0.003	0.067	
6.935	0.381	0.046	
6.940	-0.198	0.053	
6.945	-0.153	0.039	
6.950	0.422	0.021	
6.955	-0.037	0.039	
6.960	-0.261	0.044	
6.965	0.232	0.024	
6.970	0.110	0.024	
6.975	-0.342	0.024	
6.980	-0.055	-0.009	
6.985	0.572	-0.018	
6.990	0.357	0.047	
6.995	1.168	0.184	
7.000	2.358	0.450	
7.005	1.837	0.854	
7.010	0.928	1.216	
7.015	0.953	1.384	
7.020	0.441	1.363	
7.025	-0.267	1.173	
7.030	-0.012	0.858	
7.035	0.480	0.554	
7.040	-0.058	0.343	
7.045	0.119	0.198	
7.050	0.875	0.139	
7.055	0.532	0.195	
7.060	0.279	0.289	
7.065	1.066	0.381	
7.070	1.090	0.518	
7.075	0.511	0.663	
7.080	1.052	0.757	
7.085	1.538	0.856	
7.090	0.916	0.979	
7.095	1.001	1.061	
7.100	1.755	1.121	
7.105	1.366	1.214	
7.110	1.003	1.290	
7.115	1.777	1.326	
7.120	1.832	1.394	
7.125	1.174	1.476	
7.130	1.599	1.510	
7.135	2.017	1.543	
7.140	1.319	1.595	
7.145	1.282	1.600	
7.150	1.860	1.572	
7.155	1.308	1.560	
7.160	0.755	1.507	
7.165	1.322	1.394	
7.170	1.223	1.294	
7.175	0.442	1.200	
7.180	0.756	1.065	
7.185	1.037	0.940	
7.190	0.255	0.847	
7.195	0.200	0.726	
7.200	0.867	0.602	
7.205	0.412	0.539	
7.210	-0.024	0.485	
7.215	0.587	0.413	
7.220	0.521	0.378	
7.225	-0.119	0.361	
7.230	0.180	0.307	
7.235	0.534	0.260	
7.240	-0.090	0.242	
7.245	-0.119	0.199	
7.250	0.369	0.144	
7.255	-0.043	0.116	
7.260	-0.294	0.081	
7.265	0.091	0.024	
7.270	0.050	-0.012	
7.275	-0.358	-0.035	
7.280	-0.185	-0.079	
7.285	0.021	-0.118	
7.290	-0.367	-0.140	
7.295	-0.374	-0.174	
7.300	-0.038	-0.213	
7.305	-0.265	-0.225	
7.310	-0.474	-0.238	
7.315	-0.160	-0.264	
7.320	-0.175	-0.272	
7.325	-0.546	-0.275	
7.330	-0.387	-0.302	
7.335	-0.165	-0.328	
7.340	-0.383	-0.331	
7.345	-0.220	-0.324	
7.350	0.651	-0.269	
7.355	0.419	-0.123	
7.360	-0.110	0.035	
7.365	-0.064	0.113	
7.370	-0.369	0.102	
7.375	-0.863	0.001	
7.380	-0.793	-0.182	
7.385	-0.656	-0.382	
7.390	-0.916	-0.549	
7.395	-0.881	-0.685	
7.400	-0.566	-0.775	
7.405	-0.706	-0.802	
7.410	-0.852	-0.798	
7.415	-0.523	-0.784	
7.420	-0.503	-0.743	
7.425	-0.793	-0.693	
7.430	-0.608	-0.665	
7.435	-0.406	-0.640	
7.440	-0.674	-0.606	
7.445	-0.659	-0.589	
7.450	-0.337	-0.579	
7.455	-0.482	-0.551	
7.460	-0.645	-0.525	
7.465	-0.316	-0.512	
7.470	-0.271	-0.483	
7.475	-0.535	-0.443	
7.480	-0.303	-0.418	
7.485	-0.069	-0.384	
7.490	-0.375	-0.334	
7.495	-0.374	-0.303	
7.500	-0.055	-0.286	
7.505	-0.276	-0.260	
7.510	-0.483	-0.250	
7.515	-0.165	-0.263	
7.520	-0.153	-0.266	
7.525	-0.470	-0.262	
7.530	-0.316	-0.276	
7.535	-0.114	-0.288	
7.540	-0.424	-0.286	
7.545	-0.439	-0.296	
7.550	-0.128	-0.313	
7.555	-0.291	-0.309	
7.560	-0.444	-0.303	
7.565	-0.104	-0.303	
7.570	-0.084	-0.282	
7.575	-0.410	-0.250	
7.580	-0.191	-0.239	
7.585	0.148	-0.219	
7.590	-0.279	-0.177	
7.595	-0.306	-0.157	
7.600	0.099	-0.154	
7.605	-0.117	-0.135	
7.610	-0.299	-0.121	
7.615	0.084	-0.121	
7.620	0.123	-0.099	
7.625	-0.277	-0.067	
7.630	-0.099	-0.064	
7.635	0.244	-0.061	
7.640	-0.175	-0.039	
7.645	-0.159	-0.033	
7.650	0.341	-0.031	
7.655	0.035	0.002	
7.660	-0.178	0.028	
7.665	0.412	0.040	
7.670	0.419	0.088	
7.675	-0.175	0.144	
7.680	0.024	0.150	
7.685	0.498	0.142	
7.690	0.040	0.161	
7.695	0.171	0.175	
7.700	1.116	0.219	
7.705	1.213	0.367	
7.710	1.012	0.582	
7.715	1.553	0.801	
7.720	1.294	1.011	
7.725	0.392	1.137	
7.730	0.722	1.118	
7.735	1.276	1.046	
7.740	0.910	1.011	
7.745	1.018	0.997	
7.750	1.614	1.016	
7.755	1.415	1.099	
7.760	1.110	1.194	
7.765	1.750	1.268	
7.770	1.817	1.367	
7.775	1.180	1.467	
7.780	1.367	1.500	
7.785	1.593	1.494	
7.790	0.962	1.470	
7.795	0.860	1.389	
7.800	1.374	1.280	
7.805	0.985	1.202	
7.810	0.509	1.119	
7.815	1.058	1.013	
7.820	1.085	0.945	
7.825	0.444	0.907	
7.830	0.733	0.846	
7.835	1.102	0.798	
7.840	0.495	0.786	
7.845	0.352	0.748	
7.850	0.838	0.685	
7.855	0.447	0.642	
7.860	-0.017	0.581	
7.865	0.439	0.484	
7.870	0.393	0.404	
7.875	-0.166	0.339	
7.880	-0.050	0.245	
7.885	0.233	0.152	
7.890	-0.212	0.088	
7.895	-0.281	0.018	
7.900	0.023	-0.054	
7.905	-0.163	-0.098	
7.910	-0.396	-0.134	
7.915	-0.127	-0.177	
7.920	-0.079	-0.199	
7.925	-0.393	-0.204	
7.930	-0.253	-0.221	
7.935	-0.041	-0.232	
7.940	-0.332	-0.225	
7.945	-0.369	-0.230	
7.950	-0.073	-0.243	
7.955	-0.242	-0.239	
7.960	-0.456	-0.240	
7.965	-0.192	-0.258	
7.970	-0.154	-0.265	
7.975	-0.450	-0.264	
7.980	-0.331	-0.278	
7.985	-0.149	-0.292	
7.990	-0.433	-0.294	
7.995	-0.477	-0.310	
8.000	-0.203	-0.334	
8.005	-0.342	-0.340	
8.010	-0.537	-0.346	
8.015	-0.285	-0.364	
8.020	-0.253	-0.368	
8.025	-0.534	-0.363	
8.030	-0.415	-0.374	
8.035	-0.250	-0.385	
8.040	-0.508	-0.385	
8.045	-0.485	-0.394	
8.050	-0.060	-0.397	
8.055	-0.040	-0.355	
8.060	-0.119	-0.281	
8.065	0.418	-0.186	
8.070	0.329	-0.057	
8.075	-0.343	0.051	
8.080	-0.399	0.060	
8.085	-0.331	-0.015	
8.090	-0.602	-0.126	
8.095	-0.617	-0.256	
8.100	-0.313	-0.372	
8.105	-0.430	-0.438	
8.110	-0.569	-0.470	
8.115	-0.241	-0.482	
8.120	-0.182	-0.456	
8.125	-0.464	-0.408	
8.130	-0.316	-0.375	
8.135	-0.078	-0.344	
8.140	-0.355	-0.303	
8.145	-0.399	-0.282	
8.150	-0.075	-0.276	
8.155	-0.226	-0.258	
8.160	-0.425	-0.246	
8.165	-0.122	-0.249	
8.170	-0.014	-0.237	
8.175	-0.308	-0.208	
8.180	-0.169	-0.192	
8.185	0.143	-0.172	
8.190	-0.195	-0.134	
8.195	-0.194	-0.111	
8.200	0.326	-0.091	
8.205	0.040	-0.041	
8.210	-0.255	-0.002	
8.215	0.107	0.000	
8.220	0.224	0.010	
8.225	-0.252	0.027	
8.230	-0.171	0.010	
8.235	0.058	-0.025	
8.240	-0.291	-0.054	
8.245	-0.352	-0.098	
8.250	0.059	-0.145	
8.255	-0.149	-0.159	
8.260	-0.406	-0.167	
8.265	-0.153	-0.191	
8.270	-0.125	-0.206	
8.275	-0.401	-0.213	
8.280	-0.201	-0.229	
8.285	0.052	-0.229	
8.290	-0.293	-0.205	
8.295	-0.293	-0.193	
8.300	0.076	-0.189	
8.305	-0.143	-0.165	
8.310	-0.299	-0.146	
8.315	0.136	-0.138	
8.320	0.029	-0.108	
8.325	-0.384	-0.083	
8.330	-0.252	-0.100	
8.335	-0.060	-0.134	
8.340	-0.364	-0.160	
8.345	-0.464	-0.201	
8.350	-0.195	-0.253	
8.355	-0.310	-0.285	
8.360	-0.547	-0.311	
8.365	-0.314	-0.346	
8.370	-0.252	-0.365	
8.375	-0.541	-0.370	
8.380	-0.404	-0.384	
8.385	-0.227	-0.393	
8.390	-0.746	-0.399	
8.395	-0.994	-0.453	
8.400	-0.820	-0.560	
8.405	-0.921	-0.674	
8.410	-0.951	-0.772	
8.415	-0.671	-0.839	
8.420	-0.654	-0.853	
8.425	-0.994	-0.840	
8.430	-0.996	-0.846	
8.435	-0.996	-0.877	
8.440	-0.997	-0.914	
8.445	-0.997	-0.947	
8.450	-0.996	-0.973	
8.455	-0.996	-0.990	
8.460	-0.996	-0.999	
8.465	-0.996	-1.003	
8.470	-0.996	-1.004	
8.475	-0.996	-1.002	
8.480	-0.996	-1.001	
8.485	-0.960	-0.997	
8.490	-0.994	-0.992	
8.495	-0.996	-0.988	
8.500	-0.753	-0.976	
8.505	-0.767	-0.941	
8.510	-0.919	-0.898	
8.515	-0.590	-0.859	
8.520	-0.442	-0.798	
8.525	-0.665	-0.720	
8.530	-0.479	-0.652	
8.535	-0.200	-0.583	
8.540	-0.381	-0.499	
8.545	-0.392	-0.428	
8.550	0.094	-0.364	
8.555	-0.014	-0.275	
8.560	-0.308	-0.192	
8.565	0.055	-0.142	
8.570	0.219	-0.090	
8.575	-0.230	-0.036	
8.580	0.014	-0.013	
8.585	0.546	0.016	
8.590	0.090	0.083	
8.595	0.101	0.138	
8.600	0.646	0.183	
8.605	0.288	0.249	
8.610	-0.168	0.284	
8.615	0.363	0.264	
8.620	0.407	0.249	
8.625	-0.160	0.243	
8.630	0.105	0.204	
8.635	0.608	0.178	
8.640	0.154	0.200	
8.645	0.203	0.226	
8.650	0.848	0.261	
8.655	0.582	0.345	
8.660	0.122	0.421	
8.665	0.654	0.449	
8.670	0.838	0.485	
8.675	0.244	0.531	
8.680	0.448	0.538	
8.685	0.875	0.535	
8.690	0.308	0.551	
8.695	0.200	0.535	
8.700	0.733	0.494	
8.705	0.329	0.476	
8.710	-0.186	0.434	
8.715	0.157	0.339	
8.720	0.198	0.245	
8.725	-0.290	0.165	
8.730	-0.185	0.070	
8.735	0.174	-0.013	
8.740	-0.226	-0.054	
8.745	-0.358	-0.093	
8.750	-0.044	-0.141	
8.755	-0.127	-0.165	
8.760	-0.218	-0.170	
8.765	0.761	-0.132	
8.770	1.375	0.035	
8.775	0.848	0.311	
8.780	0.931	0.574	
8.785	0.890	0.764	
8.790	-0.162	0.834	
8.795	-0.462	0.719	
8.800	-0.241	0.469	
8.805	-0.348	0.200	
8.810	-0.518	-0.037	
8.815	-0.162	-0.217	
8.820	0.108	-0.300	
8.825	-0.250	-0.294	
8.830	-0.058	-0.258	
8.835	0.466	-0.188	
8.840	0.040	-0.077	
8.845	-0.060	0.015	
8.850	0.601	0.081	
8.855	0.622	0.180	
8.860	0.444	0.301	
8.865	1.232	0.431	
8.870	1.633	0.625	
8.875	1.212	0.869	
8.880	1.480	1.083	
8.885	1.999	1.274	
8.890	1.613	1.459	
8.895	1.495	1.591	
8.900	2.052	1.670	
8.905	1.851	1.744	
8.910	1.319	1.785	
8.915	1.668	1.759	
8.920	1.748	1.718	
8.925	1.075	1.668	
8.930	1.140	1.568	
8.935	1.451	1.451	
8.940	0.908	1.355	
8.945	0.579	1.235	
8.950	0.989	1.089	
8.955	0.722	0.967	
8.960	0.215	0.851	
8.965	0.636	0.720	
8.970	0.793	0.627	
8.975	0.226	0.579	
8.980	0.381	0.523	
8.985	0.841	0.484	
8.990	0.410	0.489	
8.995	0.174	0.486	
9.000	0.687	0.462	
9.005	0.523	0.460	
9.010	0.064	0.457	
9.015	0.482	0.424	
9.020	0.620	0.405	
9.025	0.020	0.401	
9.030	0.139	0.362	
9.035	0.541	0.315	
9.040	0.056	0.293	
9.045	-0.120	0.252	
9.050	0.293	0.191	
9.055	0.076	0.150	
9.060	-0.256	0.111	
9.065	0.006	0.052	
9.070	0.172	0.010	
9.075	-0.273	-0.009	
9.080	-0.220	-0.044	
9.085	0.125	-0.080	
9.090	-0.200	-0.091	
9.095	-0.345	-0.108	
9.100	-0.087	-0.142	
9.105	-0.171	-0.164	
9.110	-0.384	-0.182	
9.115	-0.084	-0.204	
9.120	0.466	-0.182	
9.125	0.384	-0.080	
9.130	0.715	0.074	
9.135	1.076	0.270	
9.140	0.161	0.456	
9.145	-0.346	0.512	
9.150	-0.252	0.409	
9.155	-0.401	0.225	
9.160	-0.607	0.017	
9.165	-0.383	-0.181	
9.170	-0.276	-0.321	
9.175	-0.523	-0.398	
9.180	-0.421	-0.443	
9.185	-0.159	-0.453	
9.190	-0.343	-0.425	
9.195	-0.403	-0.390	
9.200	-0.092	-0.358	
9.205	-0.130	-0.309	
9.210	-0.340	-0.260	
9.215	-0.095	-0.230	
9.220	0.078	-0.193	
9.225	-0.261	-0.149	
9.230	-0.156	-0.127	
9.235	0.282	-0.106	
9.240	-0.073	-0.061	
9.245	-0.171	-0.029	
9.250	0.380	-0.010	
9.255	0.361	0.045	
9.260	-0.040	0.113	
9.265	0.387	0.156	
9.270	0.559	0.209	
9.275	-0.031	0.264	
9.280	0.142	0.272	
9.285	0.674	0.268	
9.290	0.285	0.299	
9.295	0.099	0.321	
9.300	0.628	0.324	
9.305	0.471	0.349	
9.310	-0.041	0.368	
9.315	0.311	0.342	
9.320	0.476	0.314	
9.325	-0.084	0.297	
9.330	-0.020	0.247	
9.335	0.390	0.189	
9.340	-0.029	0.160	
9.345	-0.172	0.123	
9.350	0.255	0.077	
9.355	0.133	0.061	
9.360	-0.195	0.058	
9.365	0.105	0.038	
9.370	0.236	0.033	
9.375	-0.206	0.042	
9.380	-0.148	0.023	
9.385	0.259	-0.001	
9.390	-0.085	-0.000	
9.395	-0.224	-0.006	
9.400	0.117	-0.027	
9.405	-0.027	-0.033	
9.410	-0.306	-0.041	
9.415	-0.082	-0.071	
9.420	0.137	-0.088	
9.425	-0.213	-0.081	
9.430	-0.137	-0.082	
9.435	0.288	-0.077	
9.440	-0.049	-0.042	
9.445	-0.183	-0.017	
9.450	0.200	-0.011	
9.455	0.062	0.006	
9.460	-0.242	0.018	
9.465	0.093	0.005	
9.470	0.520	0.019	
9.475	0.311	0.089	
9.480	0.736	0.194	
9.485	1.264	0.350	
9.490	0.718	0.546	
9.495	0.070	0.669	
9.500	0.184	0.655	
9.505	-0.131	0.541	
9.510	-0.462	0.360	
9.515	-0.297	0.142	
9.520	-0.146	-0.046	
9.525	-0.372	-0.175	
9.530	-0.262	-0.259	
9.535	0.130	-0.288	
9.540	-0.110	-0.254	
9.545	-0.204	-0.205	
9.550	0.283	-0.153	
9.555	0.248	-0.071	
9.560	-0.133	0.012	
9.565	0.200	0.059	
9.570	0.422	0.103	
9.575	-0.085	0.150	
9.580	-0.026	0.156	
9.585	0.448	0.144	
9.590	0.123	0.158	
9.595	-0.040	0.166	
9.600	0.540	0.166	
9.605	0.515	0.207	
9.610	0.068	0.265	
9.615	0.468	0.296	
9.620	0.722	0.336	
9.625	0.190	0.391	
9.630	0.268	0.409	
9.635	0.719	0.409	
9.640	0.267	0.425	
9.645	-0.055	0.409	
9.650	0.373	0.351	
9.655	0.235	0.300	
9.660	-0.178	0.250	
9.665	0.052	0.176	
9.670	0.247	0.115	
9.675	-0.197	0.080	
9.680	-0.165	0.034	
9.685	0.223	-0.009	
9.690	-0.108	-0.021	
9.695	-0.268	-0.035	
9.700	0.059	-0.062	
9.705	-0.012	-0.072	
9.710	-0.293	-0.075	
9.715	-0.084	-0.094	
9.720	0.152	-0.101	
9.725	-0.227	-0.085	
9.730	-0.197	-0.085	
9.735	0.142	-0.091	
9.740	-0.151	-0.081	
9.745	-0.306	-0.082	
9.750	-0.031	-0.104	
9.755	-0.096	-0.117	
9.760	-0.375	-0.130	
9.765	-0.213	-0.161	
9.770	-0.082	-0.187	
9.775	-0.363	-0.200	
9.780	-0.334	-0.222	
9.785	-0.067	-0.242	
9.790	-0.273	-0.242	
9.795	-0.416	-0.245	
9.800	-0.131	-0.258	
9.805	-0.174	-0.256	
9.810	-0.433	-0.250	
9.815	-0.229	-0.259	
9.820	-0.018	-0.258	
9.825	-0.210	-0.232	
9.830	0.049	-0.194	
9.835	0.844	-0.106	
9.840	0.549	0.062	
9.845	0.117	0.229	
9.850	0.329	0.320	
9.855	-0.026	0.340	
9.860	-0.422	0.280	
9.865	-0.306	0.145	
9.870	-0.183	-0.004	
9.875	-0.418	-0.127	
9.880	-0.334	-0.227	
9.885	-0.023	-0.285	
9.890	-0.213	-0.288	
9.895	-0.331	-0.273	
9.900	0.033	-0.254	
9.905	0.059	-0.207	
9.910	-0.250	-0.150	
9.915	-0.031	-0.116	
9.920	0.236	-0.082	
9.925	-0.186	-0.038	
9.930	-0.156	-0.023	
9.935	0.290	-0.021	
9.940	-0.006	0.003	
9.945	-0.163	0.020	
9.950	0.322	0.024	
9.955	0.334	0.059	
9.960	-0.093	0.107	
9.965	0.247	0.129	
9.970	0.543	0.159	
9.975	0.011	0.207	
9.980	0.032	0.220	
9.985	0.508	0.212	
9.990	0.137	0.224	
9.995	-0.130	0.219	
10.000	0.291	0.183	
10.005	0.213	0.163	
10.010	-0.209	0.146	
10.015	-0.020	0.101	
10.020	0.213	0.058	
10.025	-0.210	0.036	
10.030	-0.204	-0.001	
10.035	0.155	-0.040	
10.040	-0.113	-0.053	
10.045	-0.282	-0.065	
10.050	0.046	-0.088	
10.055	0.024	-0.091	
10.060	-0.277	-0.084	
10.065	-0.076	-0.093	
10.070	0.206	-0.091	
10.075	-0.197	-0.066	
10.080	-0.185	-0.059	
10.085	0.190	-0.062	
10.090	-0.102	-0.048	
10.095	-0.268	-0.045	
10.100	0.076	-0.061	
10.105	0.035	-0.062	
10.110	-0.300	-0.058	
10.115	-0.134	-0.077	
10.120	0.049	-0.097	
10.125	-0.303	-0.104	
10.130	-0.310	-0.129	
10.135	-0.027	-0.161	
10.140	-0.223	-0.174	
10.145	-0.378	-0.188	
10.150	-0.089	-0.209	
10.155	-0.095	-0.211	
10.160	-0.392	-0.204	
10.165	-0.253	-0.215	
10.170	-0.090	-0.226	
10.175	-0.334	-0.226	
10.180	-0.232	-0.229	
10.185	0.433	-0.206	
10.190	0.412	-0.108	
10.195	0.204	0.028	
10.200	0.608	0.155	
10.205	0.226	0.265	
10.210	-0.378	0.302	
10.215	-0.334	0.224	
10.220	-0.239	0.085	
10.225	-0.502	-0.059	
10.230	-0.467	-0.198	
10.235	-0.163	-0.304	
10.240	-0.279	-0.349	
10.245	-0.404	-0.359	
10.250	-0.116	-0.353	
10.255	-0.095	-0.319	
10.260	-0.351	-0.273	
10.265	-0.168	-0.245	
10.270	0.084	-0.214	
10.275	-0.249	-0.170	
10.280	-0.229	-0.147	
10.285	0.186	-0.133	
10.290	-0.055	-0.097	
10.295	-0.215	-0.068	
10.300	0.212	-0.054	
10.305	0.271	-0.015	
10.310	-0.131	0.036	
10.315	0.172	0.063	
10.320	0.521	0.098	
10.325	0.037	0.155	
10.330	0.032	0.183	
10.335	0.509	0.192	
10.340	0.180	0.217	
10.345	-0.120	0.224	
10.350	0.287	0.197	
10.355	0.235	0.178	
10.360	-0.204	0.162	
10.365	-0.031	0.115	
10.370	0.227	0.068	
10.375	-0.197	0.044	
10.380	-0.218	0.006	
10.385	0.134	-0.037	
10.390	-0.119	-0.055	
10.395	-0.297	-0.071	
10.400	0.008	-0.099	
10.405	0.030	-0.106	
10.410	-0.284	-0.100	
10.415	-0.119	-0.109	
10.420	0.168	-0.109	
10.425	-0.200	-0.089	
10.430	-0.212	-0.083	
10.435	0.152	-0.086	
10.440	-0.111	-0.073	
10.445	-0.300	-0.070	
10.450	-0.003	-0.089	
10.455	0.000	-0.096	
10.460	-0.316	-0.096	
10.465	-0.171	-0.116	
10.470	0.032	-0.133	
10.475	-0.293	-0.135	
10.480	-0.316	-0.151	
10.485	-0.029	-0.175	
10.490	-0.198	-0.181	
10.495	-0.358	-0.187	
10.500	-0.076	-0.201	
10.505	-0.044	-0.196	
10.510	-0.334	-0.181	
10.515	-0.209	-0.182	
10.520	-0.058	-0.187	
10.525	-0.351	-0.186	
10.530	-0.334	-0.201	
10.535	0.123	-0.213	
10.540	0.212	-0.174	
10.545	0.322	-0.082	
10.550	1.073	0.067	
10.555	1.064	0.291	
10.560	0.157	0.502	
10.565	-0.075	0.574	
10.570	-0.108	0.498	
10.575	-0.473	0.334	
10.580	-0.520	0.119	
10.585	-0.239	-0.090	
10.590	-0.323	-0.237	
10.595	-0.445	-0.327	
10.600	-0.145	-0.373	
10.605	-0.075	-0.365	
10.610	-0.325	-0.322	
10.615	-0.153	-0.282	
10.620	0.145	-0.232	
10.625	-0.207	-0.169	
10.630	-0.217	-0.128	
10.635	0.201	-0.105	
10.640	-0.023	-0.067	
10.645	-0.213	-0.038	
10.650	0.198	-0.029	
10.655	0.302	0.003	
10.660	-0.108	0.051	
10.665	0.197	0.078	
10.670	0.607	0.118	
10.675	0.163	0.188	
10.680	0.145	0.238	
10.685	0.674	0.270	
10.690	0.416	0.324	
10.695	0.035	0.362	
10.700	0.479	0.359	
10.705	0.474	0.358	
10.710	-0.085	0.354	
10.715	0.093	0.305	
10.720	0.378	0.246	
10.725	-0.117	0.206	
10.730	-0.189	0.146	
10.735	0.174	0.075	
10.740	-0.082	0.029	
10.745	-0.291	-0.011	
10.750	-0.005	-0.060	
10.755	0.055	-0.084	
10.760	-0.270	-0.088	
10.765	-0.116	-0.102	
10.770	0.198	-0.104	
10.775	-0.172	-0.080	
10.780	-0.210	-0.071	
10.785	0.204	-0.071	
10.790	-0.018	-0.049	
10.795	-0.246	-0.033	
10.800	0.059	-0.040	
10.805	0.101	-0.037	
10.810	-0.264	-0.029	
10.815	-0.134	-0.046	
10.820	0.122	-0.064	
10.825	-0.242	-0.068	
10.830	-0.300	-0.088	
10.835	-0.029	-0.121	
10.840	-0.198	-0.141	
10.845	-0.389	-0.163	
10.850	-0.136	-0.194	
10.855	-0.081	-0.208	
10.860	-0.367	-0.207	
10.865	-0.236	-0.217	
10.870	-0.034	-0.222	
10.875	-0.342	-0.214	
10.880	-0.404	-0.222	
10.885	-0.102	-0.242	
10.890	-0.122	-0.242	
10.895	-0.110	-0.218	
10.900	0.887	-0.141	
10.905	1.360	0.063	
10.910	0.831	0.356	
10.915	0.713	0.607	
10.920	0.434	0.742	
10.925	-0.323	0.730	
10.930	-0.511	0.556	
10.935	-0.305	0.292	
10.940	-0.392	0.038	
10.945	-0.524	-0.168	
10.950	-0.232	-0.316	
10.955	-0.128	-0.381	
10.960	-0.367	-0.383	
10.965	-0.218	-0.363	
10.970	0.075	-0.320	
10.975	-0.236	-0.253	
10.980	-0.277	-0.205	
10.985	0.090	-0.176	
10.990	-0.073	-0.137	
10.995	-0.262	-0.107	
11.000	0.090	-0.096	
11.005	0.238	-0.066	
11.010	-0.149	-0.020	
11.015	0.076	0.007	
11.020	0.532	0.044	
11.025	0.151	0.113	
11.030	0.139	0.172	
11.035	0.695	0.220	
11.040	0.486	0.297	
11.045	0.091	0.360	
11.050	0.541	0.381	
11.055	0.607	0.403	
11.060	0.020	0.421	
11.065	0.163	0.390	
11.070	0.482	0.341	
11.075	-0.032	0.304	
11.080	-0.137	0.243	
11.085	0.259	0.166	
11.090	-0.023	0.114	
11.095	-0.294	0.063	
11.100	-0.044	-0.003	
11.105	0.035	-0.052	
11.110	-0.296	-0.078	
11.115	-0.172	-0.111	
11.120	0.126	-0.130	
11.125	-0.217	-0.122	
11.130	-0.271	-0.122	
11.135	0.102	-0.130	
11.140	-0.064	-0.116	
11.145	-0.300	-0.103	
11.150	-0.079	-0.112	
11.155	-0.076	-0.120	
11.160	-0.412	-0.132	
11.165	-0.331	-0.170	
11.170	-0.148	-0.214	
11.175	-0.401	-0.243	
11.180	-0.473	-0.279	
11.185	-0.218	-0.317	
11.190	-0.348	-0.335	
11.195	-0.560	-0.350	
11.200	-0.339	-0.376	
11.205	-0.270	-0.389	
11.210	-0.526	-0.388	
11.215	-0.418	-0.397	
11.220	-0.215	-0.400	
11.225	-0.432	-0.387	
11.230	-0.497	-0.382	
11.235	-0.250	-0.386	
11.240	-0.358	-0.380	
11.245	-0.521	-0.375	
11.250	-0.165	-0.376	
11.255	0.285	-0.333	
11.260	0.232	-0.221	
11.265	0.721	-0.057	
11.270	1.099	0.162	
11.275	0.250	0.386	
11.280	-0.267	0.486	
11.285	-0.204	0.423	
11.290	-0.419	0.264	
11.295	-0.654	0.058	
11.300	-0.407	-0.152	
11.305	-0.281	-0.308	
11.310	-0.483	-0.395	
11.315	-0.335	-0.438	
11.320	-0.069	-0.434	
11.325	-0.291	-0.388	
11.330	-0.335	-0.339	
11.335	0.017	-0.296	
11.340	-0.092	-0.238	
11.345	-0.282	-0.187	
11.350	0.061	-0.154	
11.355	0.247	-0.106	
11.360	-0.156	-0.044	
11.365	0.030	-0.007	
11.370	0.492	0.031	
11.375	0.108	0.095	
11.380	0.037	0.144	
11.385	0.643	0.179	
11.390	0.515	0.249	
11.395	0.116	0.319	
11.400	0.565	0.356	
11.405	0.691	0.397	
11.410	0.125	0.440	
11.415	0.258	0.435	
11.420	0.633	0.411	
11.425	0.120	0.399	
11.430	-0.072	0.357	
11.435	0.381	0.287	
11.440	0.178	0.239	
11.445	-0.195	0.197	
11.450	0.110	0.135	
11.455	0.226	0.091	
11.460	-0.215	0.069	
11.465	-0.107	0.031	
11.470	0.312	0.001	
11.475	-0.058	0.007	
11.480	-0.156	0.011	
11.485	0.315	0.008	
11.490	0.183	0.036	
11.495	-0.146	0.067	
11.500	0.251	0.077	
11.505	0.410	0.103	
11.510	-0.102	0.141	
11.515	0.014	0.144	
11.520	0.407	0.134	
11.525	-0.046	0.141	
11.530	-0.168	0.125	
11.535	0.235	0.087	
11.540	0.032	0.068	
11.545	-0.268	0.047	
11.550	-0.020	0.004	
11.555	0.093	-0.028	
11.560	-0.276	-0.043	
11.565	-0.197	-0.073	
11.570	0.123	-0.100	
11.575	-0.192	-0.101	
11.580	-0.273	-0.107	
11.585	0.094	-0.121	
11.590	-0.063	-0.111	
11.595	-0.314	-0.102	
11.600	-0.055	-0.113	
11.605	0.198	-0.108	
11.610	-0.076	-0.074	
11.615	0.416	-0.022	
11.620	1.163	0.096	
11.625	0.823	0.301	
11.630	0.479	0.498	
11.635	0.599	0.613	
11.640	0.037	0.635	
11.645	-0.386	0.542	
11.650	-0.241	0.351	
11.655	-0.145	0.146	
11.660	-0.383	-0.024	
11.665	-0.247	-0.157	
11.670	0.093	-0.229	
11.675	-0.171	-0.233	
11.680	-0.232	-0.214	
11.685	0.195	-0.186	
11.690	0.070	-0.127	
11.695	-0.212	-0.069	
11.700	0.101	-0.039	
11.705	0.334	-0.003	
11.710	-0.108	0.046	
11.715	0.047	0.069	
11.720	0.509	0.091	
11.725	0.114	0.139	
11.730	-0.023	0.170	
11.735	0.543	0.182	
11.740	0.448	0.224	
11.745	0.064	0.273	
11.750	0.532	0.297	
11.755	0.709	0.339	
11.760	0.175	0.395	
11.765	0.294	0.413	
11.770	0.694	0.412	
11.775	0.245	0.425	
11.780	-0.006	0.407	
11.785	0.456	0.355	
11.790	0.273	0.318	
11.795	-0.148	0.281	
11.800	0.148	0.216	
11.805	0.299	0.165	
11.810	-0.168	0.136	
11.815	-0.102	0.091	
11.820	0.264	0.046	
11.825	-0.102	0.031	
11.830	-0.223	0.010	
11.835	0.151	-0.020	
11.840	0.029	-0.027	
11.845	-0.256	-0.027	
11.850	0.000	-0.044	
11.855	0.198	-0.048	
11.860	-0.204	-0.031	
11.865	-0.140	-0.034	
11.870	0.221	-0.041	
11.875	-0.117	-0.028	
11.880	-0.233	-0.028	
11.885	0.136	-0.044	
11.890	0.004	-0.041	
11.895	-0.276	-0.039	
11.900	-0.066	-0.058	
11.905	0.088	-0.072	
11.910	-0.259	-0.072	
11.915	-0.209	-0.089	
11.920	0.072	-0.108	
11.925	-0.210	-0.111	
11.930	-0.314	-0.122	
11.935	-0.018	-0.145	
11.940	-0.096	-0.150	
11.945	-0.337	-0.150	
11.950	-0.156	-0.165	
11.955	-0.058	-0.175	
11.960	-0.325	-0.175	
11.965	-0.194	-0.184	
11.970	0.405	-0.169	
11.975	0.386	-0.084	
11.980	0.428	0.047	
11.985	0.939	0.204	
11.990	0.594	0.377	
11.995	-0.166	0.483	
12.000	-0.134	0.452	
12.005	-0.156	0.326	
12.010	-0.476	0.161	
12.015	-0.416	-0.020	
12.020	-0.142	-0.172	
12.025	-0.303	-0.261	
12.030	-0.387	-0.310	
12.035	-0.085	-0.330	
12.040	-0.131	-0.311	
12.045	-0.354	-0.276	
12.050	-0.137	-0.253	
12.055	0.035	-0.223	
12.060	-0.276	-0.182	
12.065	-0.212	-0.163	
12.070	0.133	-0.149	
12.075	-0.139	-0.119	
12.080	-0.223	-0.099	
12.085	0.233	-0.087	
12.090	0.201	-0.045	
12.095	-0.136	0.007	
12.100	0.235	0.039	
12.105	0.501	0.086	
12.110	-0.012	0.150	
12.115	0.079	0.179	
12.120	0.521	0.191	
12.125	0.133	0.220	
12.130	-0.107	0.225	
12.135	0.331	0.197	
12.140	0.186	0.181	
12.145	-0.207	0.163	
12.150	0.020	0.114	
12.155	0.207	0.071	
12.160	-0.218	0.047	
12.165	-0.183	0.007	
12.170	0.133	-0.035	
12.175	-0.165	-0.052	
12.180	-0.293	-0.074	
12.185	0.026	-0.105	
12.190	-0.055	-0.114	
12.195	-0.314	-0.116	
12.200	-0.107	-0.132	
12.205	0.093	-0.135	
12.210	-0.244	-0.120	
12.215	-0.191	-0.117	
12.220	0.175	-0.115	
12.225	-0.127	-0.091	
12.230	-0.265	-0.078	
12.235	0.059	-0.085	
12.240	-0.020	-0.081	
12.245	-0.306	-0.077	
12.250	-0.120	-0.095	
12.255	0.037	-0.111	
12.260	-0.308	-0.114	
12.265	-0.282	-0.134	
12.270	-0.034	-0.161	
12.275	-0.259	-0.173	
12.280	-0.387	-0.190	
12.285	-0.111	-0.216	
12.290	-0.154	-0.224	
12.295	-0.396	-0.225	
12.300	-0.206	-0.237	
12.305	-0.070	-0.239	
12.310	-0.374	-0.230	
12.315	-0.354	-0.237	
12.320	-0.089	-0.250	
12.325	-0.224	-0.246	
12.330	-0.218	-0.233	
12.335	0.569	-0.188	
12.340	0.784	-0.053	
12.345	0.326	0.137	
12.350	0.425	0.291	
12.355	0.198	0.377	
12.360	-0.401	0.368	
12.365	-0.476	0.247	
12.370	-0.296	0.065	
12.375	-0.453	-0.106	
12.380	-0.531	-0.251	
12.385	-0.223	-0.356	
12.390	-0.203	-0.396	
12.395	-0.406	-0.391	
12.400	-0.200	-0.372	
12.405	-0.002	-0.331	
12.410	-0.297	-0.273	
12.415	-0.258	-0.234	
12.420	0.079	-0.205	
12.425	-0.162	-0.165	
12.430	-0.291	-0.140	
12.435	0.070	-0.133	
12.440	0.046	-0.109	
12.445	-0.241	-0.082	
12.450	0.030	-0.071	
12.455	0.352	-0.045	
12.460	-0.070	0.006	
12.465	0.030	0.042	
12.470	0.537	0.076	
12.475	0.210	0.139	
12.480	-0.046	0.187	
12.485	0.444	0.202	
12.490	0.355	0.227	
12.495	-0.128	0.245	
12.500	0.111	0.218	
12.505	0.315	0.184	
12.510	-0.156	0.160	
12.515	-0.156	0.112	
12.520	0.200	0.055	
12.525	-0.125	0.023	
12.530	-0.296	-0.014	
12.535	0.003	-0.062	
12.540	-0.034	-0.089	
12.545	-0.308	-0.103	
12.550	-0.116	-0.126	
12.555	0.113	-0.134	
12.560	-0.250	-0.120	
12.565	-0.220	-0.119	
12.570	0.151	-0.121	
12.575	-0.119	-0.101	
12.580	-0.267	-0.090	
12.585	0.076	-0.094	
12.590	0.017	-0.083	
12.595	-0.294	-0.071	
12.600	-0.113	-0.084	
12.605	0.111	-0.093	
12.610	-0.258	-0.088	
12.615	-0.249	-0.099	
12.620	0.049	-0.119	
12.625	-0.207	-0.123	
12.630	-0.367	-0.136	
12.635	-0.105	-0.166	
12.640	-0.125	-0.182	
12.645	-0.378	-0.191	
12.650	-0.220	-0.210	
12.655	-0.050	-0.221	
12.660	-0.328	-0.216	
12.665	-0.308	-0.220	
12.670	-0.067	-0.228	
12.675	-0.282	-0.223	
12.680	-0.425	-0.229	
12.685	-0.104	-0.246	
12.690	0.102	-0.234	
12.695	0.038	-0.178	
12.700	0.794	-0.073	
12.705	1.239	0.124	
12.710	0.601	0.377	
12.715	0.139	0.551	
12.720	0.070	0.578	
12.725	-0.357	0.482	
12.730	-0.582	0.289	
12.735	-0.342	0.054	
12.740	-0.302	-0.143	
12.745	-0.494	-0.280	
12.750	-0.285	-0.369	
12.755	-0.076	-0.397	
12.760	-0.316	-0.372	
12.765	-0.281	-0.337	
12.770	0.064	-0.295	
12.775	-0.153	-0.234	
12.780	-0.291	-0.185	
12.785	0.078	-0.158	
12.790	0.099	-0.117	
12.795	-0.235	-0.073	
12.800	-0.008	-0.056	
12.805	0.326	-0.033	
12.810	-0.093	0.009	
12.815	-0.040	0.033	
12.820	0.508	0.054	
12.825	0.258	0.111	
12.830	0.015	0.167	
12.835	0.540	0.202	
12.840	0.541	0.257	
12.845	0.037	0.313	
12.850	0.323	0.326	
12.855	0.575	0.331	
12.860	0.032	0.341	
12.865	-0.020	0.312	
12.870	0.390	0.258	
12.875	0.033	0.220	
12.880	-0.209	0.172	
12.885	0.137	0.106	
12.890	0.099	0.061	
12.895	-0.255	0.031	
12.900	-0.090	-0.012	
12.905	0.172	-0.043	
12.910	-0.217	-0.049	
12.915	-0.215	-0.065	
12.920	0.163	-0.083	
12.925	-0.093	-0.076	
12.930	-0.264	-0.071	
12.935	0.088	-0.081	
12.940	0.111	-0.069	
12.945	-0.241	-0.048	
12.950	-0.066	-0.048	
12.955	0.190	-0.048	
12.960	-0.213	-0.034	
12.965	-0.229	-0.043	
12.970	0.102	-0.065	
12.975	-0.151	-0.072	
12.980	-0.331	-0.087	
12.985	-0.069	-0.119	
12.990	-0.098	-0.139	
12.995	-0.383	-0.153	
13.000	-0.246	-0.182	
13.005	-0.076	-0.207	
13.010	-0.345	-0.216	
13.015	-0.345	-0.231	
13.020	-0.061	-0.247	
13.025	-0.232	-0.241	
13.030	-0.401	-0.236	
13.035	-0.183	-0.247	
13.040	-0.203	-0.251	
13.045	-0.425	-0.254	
13.050	-0.163	-0.264	
13.055	0.471	-0.234	
13.060	0.524	-0.115	
13.065	0.904	0.076	
13.070	1.428	0.329	
13.075	0.797	0.604	
13.080	-0.119	0.761	
13.085	-0.134	0.718	
13.090	-0.296	0.532	
13.095	-0.596	0.282	
13.100	-0.433	0.018	
13.105	-0.215	-0.192	
13.110	-0.399	-0.319	
13.115	-0.358	-0.385	
13.120	-0.021	-0.399	
13.125	-0.168	-0.359	
13.130	-0.313	-0.304	
13.135	0.023	-0.256	
13.140	0.078	-0.194	
13.145	-0.247	-0.131	
13.150	-0.041	-0.097	
13.155	0.315	-0.063	
13.160	-0.099	-0.012	
13.165	-0.082	0.017	
13.170	0.468	0.037	
13.175	0.262	0.092	
13.180	0.032	0.149	
13.185	0.617	0.193	
13.190	0.704	0.270	
13.195	0.235	0.362	
13.200	0.547	0.420	
13.205	0.875	0.473	
13.210	0.351	0.534	
13.215	0.279	0.551	
13.220	0.729	0.533	
13.225	0.378	0.523	
13.230	-0.027	0.489	
13.235	0.392	0.415	
13.240	0.364	0.354	
13.245	-0.137	0.304	
13.250	0.003	0.227	
13.255	0.285	0.155	
13.260	-0.162	0.110	
13.265	-0.185	0.057	
13.270	0.221	0.006	
13.275	-0.032	-0.010	
13.280	-0.232	-0.019	
13.285	0.131	-0.037	
13.290	0.180	-0.029	
13.295	-0.209	-0.007	
13.300	-0.024	-0.007	
13.305	0.314	-0.003	
13.310	-0.113	0.022	
13.315	-0.151	0.027	
13.320	0.245	0.017	
13.325	-0.041	0.023	
13.330	-0.261	0.017	
13.335	0.044	-0.013	
13.340	0.055	-0.031	
13.345	-0.297	-0.041	
13.350	-0.171	-0.071	
13.355	0.041	-0.100	
13.360	-0.288	-0.113	
13.365	-0.325	-0.139	
13.370	-0.029	-0.170	
13.375	-0.204	-0.181	
13.380	-0.384	-0.191	
13.385	-0.114	-0.211	
13.390	-0.067	-0.213	
13.395	-0.367	-0.203	
13.400	-0.265	-0.210	
13.405	-0.105	-0.221	
13.410	-0.335	-0.223	
13.415	-0.252	-0.230	
13.420	0.532	-0.206	
13.425	0.855	-0.078	
13.430	0.936	0.145	
13.435	1.482	0.422	
13.440	1.197	0.716	
13.445	-0.024	0.906	
13.450	-0.229	0.874	
13.455	-0.230	0.665	
13.460	-0.538	0.382	
13.465	-0.557	0.087	
13.470	-0.253	-0.162	
13.475	-0.326	-0.319	
13.480	-0.451	-0.400	
13.485	-0.153	-0.429	
13.490	-0.073	-0.403	
13.495	-0.328	-0.345	
13.500	-0.165	-0.294	
13.505	0.126	-0.239	
13.510	-0.215	-0.174	
13.515	-0.227	-0.134	
13.520	0.187	-0.112	
13.525	-0.026	-0.075	
13.530	-0.223	-0.047	
13.535	0.210	-0.036	
13.540	0.335	-0.000	
13.545	-0.087	0.055	
13.550	0.212	0.089	
13.555	0.636	0.134	
13.560	0.201	0.209	
13.565	0.158	0.263	
13.570	0.684	0.296	
13.575	0.410	0.347	
13.580	-0.012	0.377	
13.585	0.416	0.359	
13.590	0.424	0.342	
13.595	-0.120	0.323	
13.600	0.024	0.263	
13.605	0.331	0.197	
13.610	-0.139	0.154	
13.615	-0.206	0.097	
13.620	0.157	0.033	
13.625	-0.093	-0.004	
13.630	-0.311	-0.037	
13.635	-0.024	-0.081	
13.640	0.061	-0.101	
13.645	-0.273	-0.100	
13.650	-0.133	-0.110	
13.655	0.186	-0.111	
13.660	-0.194	-0.089	
13.665	-0.235	-0.081	
13.670	0.180	-0.085	
13.675	-0.035	-0.067	
13.680	-0.261	-0.053	
13.685	0.041	-0.060	
13.690	0.102	-0.056	
13.695	-0.273	-0.045	
13.700	-0.159	-0.059	
13.705	0.114	-0.077	
13.710	-0.232	-0.079	
13.715	-0.299	-0.095	
13.720	0.003	-0.124	
13.725	-0.166	-0.136	
13.730	-0.380	-0.150	
13.735	-0.139	-0.178	
13.740	-0.069	-0.193	
13.745	-0.358	-0.193	
13.750	-0.227	-0.205	
13.755	0.046	-0.208	
13.760	-0.268	-0.190	
13.765	-0.337	-0.184	
13.770	-0.070	-0.194	
13.775	-0.215	-0.195	
13.780	-0.358	-0.199	
13.785	0.136	-0.201	
13.790	0.660	-0.139	
13.795	0.550	0.010	
13.800	0.942	0.206	
13.805	1.194	0.432	
13.810	0.264	0.629	
13.815	-0.226	0.679	
13.820	-0.134	0.563	
13.825	-0.343	0.364	
13.830	-0.544	0.136	
13.835	-0.267	-0.080	
13.840	-0.154	-0.228	
13.845	-0.369	-0.302	
13.850	-0.197	-0.333	
13.855	0.169	-0.314	
13.860	-0.166	-0.248	
13.865	-0.203	-0.187	
13.870	0.255	-0.137	
13.875	0.059	-0.070	
13.880	-0.198	-0.016	
13.885	0.198	0.007	
13.890	0.334	0.041	
13.895	-0.116	0.085	
13.900	0.130	0.102	
13.905	0.570	0.124	
13.910	0.168	0.178	
13.915	0.111	0.219	
13.920	0.681	0.248	
13.925	0.472	0.306	
13.930	0.090	0.358	
13.935	0.552	0.372	
13.940	0.634	0.395	
13.945	0.056	0.420	
13.950	0.218	0.399	
13.955	0.569	0.364	
13.960	0.059	0.345	
13.965	-0.084	0.300	
13.970	0.363	0.234	
13.975	0.107	0.193	
13.980	-0.221	0.153	
13.985	0.070	0.094	
13.990	0.151	0.050	
13.995	-0.253	0.025	
14.000	-0.145	-0.015	
14.005	0.190	-0.048	
14.010	-0.175	-0.053	
14.015	-0.247	-0.064	
14.020	0.130	-0.083	
14.025	-0.043	-0.078	
14.030	-0.267	-0.072	
14.035	0.043	-0.080	
14.040	0.172	-0.070	
14.045	-0.223	-0.044	
14.050	-0.116	-0.041	
14.055	0.209	-0.044	
14.060	-0.177	-0.031	
14.065	-0.255	-0.038	
14.070	0.116	-0.060	
14.075	-0.082	-0.065	
14.080	-0.322	-0.073	
14.085	-0.081	-0.100	
14.090	-0.003	-0.118	
14.095	-0.332	-0.124	
14.100	-0.244	-0.146	
14.105	-0.003	-0.168	
14.110	-0.276	-0.172	
14.115	-0.331	-0.183	
14.120	-0.014	-0.199	
14.125	-0.143	-0.193	
14.130	-0.354	-0.185	
14.135	-0.122	-0.191	
14.140	-0.041	-0.189	
14.145	-0.325	-0.177	
14.150	-0.159	-0.178	
14.155	0.433	-0.155	
14.160	0.357	-0.066	
14.165	0.512	0.066	
14.170	1.108	0.234	
14.175	0.745	0.434	
14.180	-0.095	0.567	
14.185	-0.076	0.550	
14.190	-0.163	0.422	
14.195	-0.491	0.239	
14.200	-0.399	0.034	
14.205	-0.146	-0.139	
14.210	-0.326	-0.246	
14.215	-0.349	-0.306	
14.220	0.021	-0.325	
14.225	-0.058	-0.292	
14.230	-0.262	-0.238	
14.235	0.058	-0.192	
14.240	0.215	-0.130	
14.245	-0.213	-0.064	
14.250	-0.096	-0.033	
14.255	0.308	-0.017	
14.260	-0.084	0.015	
14.265	-0.145	0.027	
14.270	0.361	0.028	
14.275	0.236	0.060	
14.280	-0.102	0.099	
14.285	0.367	0.118	
14.290	0.567	0.161	
14.295	0.056	0.224	
14.300	0.236	0.256	
14.305	0.636	0.278	
14.310	0.175	0.316	
14.315	-0.009	0.321	
14.320	0.489	0.294	
14.325	0.262	0.283	
14.330	-0.143	0.266	
14.335	0.157	0.214	
14.340	0.258	0.169	
14.345	-0.198	0.138	
14.350	-0.108	0.085	
14.355	0.223	0.035	
14.360	-0.156	0.012	
14.365	-0.255	-0.017	
14.370	0.116	-0.054	
14.375	-0.035	-0.065	
14.380	-0.281	-0.069	
14.385	0.014	-0.085	
14.390	0.168	-0.081	
14.395	-0.220	-0.058	
14.400	-0.093	-0.053	
14.405	0.312	-0.045	
14.410	-0.073	-0.012	
14.415	-0.169	0.007	
14.420	0.259	0.008	
14.425	0.075	0.026	
14.430	-0.238	0.038	
14.435	0.038	0.020	
14.440	0.184	0.009	
14.445	-0.239	0.009	
14.450	-0.159	-0.013	
14.455	0.148	-0.041	
14.460	-0.204	-0.050	
14.465	-0.302	-0.071	
14.470	0.011	-0.105	
14.475	-0.122	-0.121	
14.480	-0.360	-0.134	
14.485	-0.124	-0.160	
14.490	-0.002	-0.172	
14.495	-0.319	-0.166	
14.500	-0.232	-0.173	
14.505	0.014	-0.180	
14.510	-0.281	-0.172	
14.515	-0.360	-0.179	
14.520	0.043	-0.193	
14.525	0.126	-0.171	
14.530	0.040	-0.114	
14.535	0.796	-0.018	
14.540	1.056	0.156	
14.545	0.348	0.363	
14.550	0.084	0.483	
14.555	0.097	0.481	
14.560	-0.343	0.388	
14.565	-0.497	0.221	
14.570	-0.250	0.025	
14.575	-0.293	-0.136	
14.580	-0.459	-0.250	
14.585	-0.198	-0.324	
14.590	-0.053	-0.343	
14.595	-0.319	-0.318	
14.600	-0.207	-0.288	
14.605	0.142	-0.248	
14.610	-0.174	-0.187	
14.615	-0.249	-0.143	
14.620	0.184	-0.118	
14.625	0.078	-0.074	
14.630	-0.198	-0.033	
14.635	0.169	-0.013	
14.640	0.370	0.022	
14.645	-0.098	0.073	
14.650	0.068	0.096	
14.655	0.537	0.116	
14.660	0.174	0.165	
14.665	0.041	0.202	
14.670	0.570	0.220	
14.675	0.412	0.262	
14.680	-0.037	0.297	
14.685	0.354	0.291	
14.690	0.508	0.289	
14.695	-0.061	0.295	
14.700	0.029	0.263	
14.705	0.451	0.219	
14.710	-0.011	0.199	
14.715	-0.175	0.165	
14.720	0.230	0.111	
14.725	0.067	0.081	
14.730	-0.241	0.056	
14.735	0.024	0.016	
14.740	0.187	-0.007	
14.745	-0.215	-0.009	
14.750	-0.131	-0.025	
14.755	0.245	-0.039	
14.760	-0.117	-0.028	
14.765	-0.235	-0.027	
14.770	0.152	-0.042	
14.775	0.067	-0.035	
14.780	-0.206	-0.022	
14.785	0.126	-0.021	
14.790	0.315	-0.000	
14.795	-0.153	0.038	
14.800	-0.090	0.046	
14.805	0.311	0.041	
14.810	-0.084	0.051	
14.815	-0.235	0.043	
14.820	0.125	0.011	
14.825	-0.035	-0.008	
14.830	-0.331	-0.028	
14.835	-0.087	-0.069	
14.840	0.061	-0.097	
14.845	-0.296	-0.105	
14.850	-0.247	-0.125	
14.855	0.029	-0.147	
14.860	-0.227	-0.150	
14.865	-0.323	-0.158	
14.870	0.009	-0.173	
14.875	-0.096	-0.167	
14.880	-0.357	-0.158	
14.885	-0.143	-0.168	
14.890	0.056	-0.170	
14.895	-0.183	-0.149	
14.900	0.186	-0.117	
14.905	1.023	-0.024	
14.910	0.834	0.168	
14.915	0.582	0.382	
14.920	0.765	0.545	
14.925	0.146	0.628	
14.930	-0.389	0.584	
14.935	-0.297	0.412	
14.940	-0.241	0.195	
14.945	-0.491	-0.007	
14.950	-0.383	-0.179	
14.955	-0.093	-0.292	
14.960	-0.261	-0.333	
14.965	-0.339	-0.335	
14.970	-0.009	-0.318	
14.975	-0.053	-0.270	
14.980	-0.282	-0.215	
14.985	-0.021	-0.178	
14.990	0.209	-0.132	
14.995	-0.186	-0.075	
15.000	-0.108	-0.046	
15.005	0.319	-0.027	
15.010	-0.023	0.010	
15.015	-0.140	0.033	
15.020	0.380	0.042	
15.025	0.320	0.082	
15.030	-0.060	0.130	
15.035	0.364	0.156	
15.040	0.593	0.199	
15.045	0.084	0.258	
15.050	0.186	0.283	
15.055	0.604	0.292	
15.060	0.160	0.314	
15.065	-0.075	0.306	
15.070	0.386	0.264	
15.075	0.230	0.238	
15.080	-0.174	0.212	
15.085	0.064	0.157	
15.090	0.232	0.110	
15.095	-0.209	0.081	
15.100	-0.168	0.036	
15.105	0.136	-0.012	
15.110	-0.186	-0.037	
15.115	-0.308	-0.068	
15.120	0.000	-0.107	
15.125	-0.078	-0.125	
15.130	-0.317	-0.132	
15.135	-0.084	-0.148	
15.140	0.126	-0.145	
15.145	-0.233	-0.120	
15.150	-0.154	-0.108	
15.155	0.241	-0.096	
15.160	-0.089	-0.062	
15.165	-0.210	-0.040	
15.170	0.184	-0.037	
15.175	0.072	-0.018	
15.180	-0.241	-0.001	
15.185	-0.006	-0.012	
15.190	0.180	-0.019	
15.195	-0.239	-0.013	
15.200	-0.209	-0.031	
15.205	0.084	-0.061	
15.210	-0.206	-0.076	
15.215	-0.335	-0.100	
15.220	-0.034	-0.135	
15.225	-0.090	-0.150	
15.230	-0.339	-0.155	
15.235	-0.130	-0.171	
15.240	0.037	-0.173	
15.245	-0.296	-0.158	
15.250	-0.279	-0.160	
15.255	-0.052	-0.173	
15.260	-0.259	-0.178	
15.265	-0.323	-0.188	
15.270	0.261	-0.188	
15.275	0.625	-0.116	
15.280	0.620	0.040	
15.285	1.216	0.251	
15.290	1.323	0.510	
15.295	0.273	0.735	
15.300	-0.140	0.789	
15.305	-0.124	0.664	
15.310	-0.428	0.443	
15.315	-0.567	0.181	
15.320	-0.277	-0.067	
15.325	-0.270	-0.240	
15.330	-0.450	-0.339	
15.335	-0.215	-0.390	
15.340	-0.047	-0.385	
15.345	-0.319	-0.341	
15.350	-0.247	-0.299	
15.355	0.099	-0.256	
15.360	-0.153	-0.197	
15.365	-0.256	-0.153	
15.370	0.133	-0.128	
15.375	0.091	-0.087	
15.380	-0.204	-0.046	
15.385	0.111	-0.027	
15.390	0.395	0.007	
15.395	-0.063	0.061	
15.400	0.062	0.091	
15.405	0.579	0.119	
15.410	0.253	0.179	
15.415	0.038	0.227	
15.420	0.552	0.249	
15.425	0.451	0.288	
15.430	-0.041	0.319	
15.435	0.300	0.306	
15.440	0.483	0.291	
15.445	-0.067	0.286	
15.450	-0.043	0.244	
15.455	0.352	0.188	
15.460	-0.055	0.154	
15.465	-0.226	0.109	
15.470	0.133	0.050	
15.475	0.004	0.014	
15.480	-0.310	-0.015	
15.485	-0.128	-0.060	
15.490	0.035	-0.096	
15.495	-0.281	-0.111	
15.500	-0.235	-0.133	
15.505	0.082	-0.151	
15.510	-0.178	-0.143	
15.515	-0.290	-0.139	
15.520	0.052	-0.143	
15.525	0.011	-0.128	
15.530	-0.264	-0.105	
15.535	-0.026	-0.100	
15.540	0.219	-0.083	
15.545	-0.207	-0.050	
15.550	-0.191	-0.042	
15.555	0.165	-0.050	
15.560	-0.145	-0.045	
15.565	-0.293	-0.054	
15.570	-0.008	-0.082	
15.575	-0.092	-0.099	
15.580	-0.366	-0.115	
15.585	-0.201	-0.149	
15.590	-0.076	-0.177	
15.595	-0.358	-0.191	
15.600	-0.310	-0.214	
15.605	-0.035	-0.232	
15.610	-0.246	-0.227	
15.615	-0.361	-0.224	
15.620	-0.079	-0.229	
15.625	-0.149	-0.220	
15.630	-0.421	-0.212	
15.635	-0.217	-0.225	
15.640	0.081	-0.225	
15.645	-0.055	-0.189	
15.650	0.559	-0.112	
15.655	1.578	0.069	
15.660	1.421	0.382	
15.665	0.957	0.713	
15.670	0.858	0.938	
15.675	0.107	1.004	
15.680	-0.465	0.879	
15.685	-0.401	0.599	
15.690	-0.299	0.278	
15.695	-0.514	-0.000	
15.700	-0.421	-0.218	
15.705	-0.116	-0.353	
15.710	-0.259	-0.396	
15.715	-0.355	-0.390	
15.720	-0.027	-0.361	
15.725	-0.018	-0.300	
15.730	-0.271	-0.230	
15.735	-0.035	-0.181	
15.740	0.253	-0.127	
15.745	-0.156	-0.063	
15.750	-0.093	-0.027	
15.755	0.386	-0.002	
15.760	0.087	0.046	
15.765	-0.076	0.083	
15.770	0.498	0.106	
15.775	0.517	0.164	
15.780	0.094	0.237	
15.785	0.520	0.286	
15.790	0.812	0.347	
15.795	0.253	0.424	
15.800	0.268	0.456	
15.805	0.703	0.457	
15.810	0.283	0.463	
15.815	-0.049	0.437	
15.820	0.387	0.370	
15.825	0.267	0.315	
15.830	-0.180	0.263	
15.835	0.038	0.187	
15.840	0.251	0.122	
15.845	-0.207	0.083	
15.850	-0.203	0.031	
15.855	0.134	-0.022	
15.860	-0.157	-0.048	
15.865	-0.303	-0.075	
15.870	0.020	-0.108	
15.875	-0.031	-0.118	
15.880	-0.305	-0.117	
15.885	-0.117	-0.130	
15.890	0.088	-0.133	
15.895	-0.259	-0.120	
15.900	-0.229	-0.121	
15.905	0.113	-0.127	
15.910	-0.156	-0.114	
15.915	-0.303	-0.110	
15.920	0.026	-0.121	
15.925	-0.029	-0.118	
15.930	-0.316	-0.110	
15.935	-0.125	-0.122	
15.940	0.096	-0.127	
15.945	-0.265	-0.116	
15.950	-0.277	-0.121	
15.955	-0.034	-0.141	
15.960	-0.249	-0.152	
15.965	-0.396	-0.172	
15.970	-0.148	-0.205	
15.975	-0.168	-0.223	
15.980	-0.416	-0.232	
15.985	-0.233	-0.251	
15.990	-0.064	-0.257	
15.995	-0.342	-0.246	
16.000	-0.346	-0.245	
16.005	-0.102	-0.252	
16.010	-0.264	-0.246	
16.015	-0.326	-0.242	
16.020	0.271	-0.225	
16.025	0.678	-0.134	
16.030	0.594	0.038	
16.035	1.096	0.252	
16.040	1.215	0.496	
16.045	0.203	0.696	
16.050	-0.197	0.732	
16.055	-0.130	0.600	
16.060	-0.398	0.384	
16.065	-0.546	0.140	
16.070	-0.252	-0.087	
16.075	-0.191	-0.239	
16.080	-0.381	-0.317	
16.085	-0.160	-0.348	
16.090	0.085	-0.327	
16.095	-0.233	-0.267	
16.100	-0.180	-0.214	
16.105	0.247	-0.165	
16.110	-0.050	-0.098	
16.115	-0.203	-0.049	
16.120	0.248	-0.026	
16.125	0.261	0.016	
16.130	-0.108	0.064	
16.135	0.232	0.089	
16.140	0.553	0.126	
16.145	0.091	0.187	
16.150	0.177	0.225	
16.155	0.748	0.257	
16.160	0.450	0.323	
16.165	0.101	0.377	
16.170	0.605	0.392	
16.175	0.509	0.411	
16.180	0.008	0.419	
16.185	0.305	0.385	
16.190	0.532	0.349	
16.195	-0.032	0.329	
16.200	-0.056	0.278	
16.205	0.360	0.211	
16.210	-0.014	0.169	
16.215	-0.227	0.122	
16.220	0.133	0.061	
16.225	0.087	0.026	
16.230	-0.250	0.006	
16.235	-0.063	-0.027	
16.240	0.192	-0.046	
16.245	-0.200	-0.042	
16.250	-0.165	-0.049	
16.255	0.258	-0.056	
16.260	-0.029	-0.034	
16.265	-0.200	-0.017	
16.270	0.210	-0.016	
16.275	0.189	0.007	
16.280	-0.178	0.035	
16.285	0.065	0.038	
16.290	0.296	0.044	
16.295	-0.146	0.062	
16.300	-0.137	0.054	
16.305	0.280	0.033	
16.310	-0.047	0.034	
16.315	-0.252	0.025	
16.320	0.078	-0.006	
16.325	0.035	-0.022	
16.330	-0.303	-0.034	
16.335	-0.122	-0.065	
16.340	0.104	-0.089	
16.345	-0.246	-0.092	
16.350	-0.223	-0.104	
16.355	0.123	-0.117	
16.360	-0.128	-0.107	
16.365	-0.270	-0.101	
16.370	0.087	-0.106	
16.375	0.020	-0.092	
16.380	-0.320	-0.078	
16.385	-0.133	-0.091	
16.390	0.230	-0.097	
16.395	-0.002	-0.067	
16.400	0.352	-0.013	
16.405	1.142	0.101	
16.410	0.872	0.300	
16.415	0.370	0.493	
16.420	0.456	0.592	
16.425	0.012	0.591	
16.430	-0.444	0.484	
16.435	-0.355	0.285	
16.440	-0.235	0.070	
16.445	-0.483	-0.109	
16.450	-0.453	-0.253	
16.455	-0.146	-0.348	
16.460	-0.268	-0.377	
16.465	-0.406	-0.372	
16.470	-0.095	-0.355	
16.475	-0.076	-0.312	
16.480	-0.351	-0.261	
16.485	-0.171	-0.232	
16.490	0.035	-0.205	
16.495	-0.270	-0.171	
16.500	-0.253	-0.157	
16.505	0.131	-0.152	
16.510	-0.085	-0.124	
16.515	-0.229	-0.100	
16.520	0.232	-0.084	
16.525	0.259	-0.038	
16.530	-0.151	0.019	
16.535	0.146	0.049	
16.540	0.483	0.083	
16.545	-0.024	0.135	
16.550	-0.034	0.154	
16.555	0.441	0.151	
16.560	0.072	0.164	
16.565	-0.198	0.158	
16.570	0.195	0.120	
16.575	0.157	0.095	
16.580	-0.259	0.077	
16.585	-0.098	0.033	
16.590	0.116	-0.011	
16.595	-0.279	-0.037	
16.600	-0.305	-0.077	
16.605	-0.021	-0.125	
16.610	-0.217	-0.151	
16.615	-0.383	-0.175	
16.620	-0.110	-0.205	
16.625	-0.119	-0.215	
16.630	-0.396	-0.215	
16.635	-0.223	-0.227	
16.640	-0.015	-0.231	
16.645	-0.311	-0.216	
16.650	-0.308	-0.213	
16.655	0.055	-0.212	
16.660	-0.156	-0.189	
16.665	-0.339	-0.170	
16.670	-0.058	-0.171	
16.675	-0.070	-0.163	
16.680	-0.346	-0.155	
16.685	-0.192	-0.166	
16.690	-0.024	-0.176	
16.695	-0.346	-0.175	
16.700	-0.361	-0.192	
16.705	-0.098	-0.219	
16.710	-0.262	-0.230	
16.715	-0.416	-0.240	
16.720	-0.131	-0.258	
16.725	-0.111	-0.255	
16.730	-0.375	-0.241	
16.735	-0.212	-0.238	
16.740	0.027	-0.229	
16.745	-0.291	-0.203	
16.750	-0.293	-0.192	
16.755	0.041	-0.189	
16.760	-0.172	-0.171	
16.765	-0.291	-0.158	
16.770	0.253	-0.145	
16.775	0.625	-0.074	
16.780	0.453	0.065	
16.785	0.907	0.234	
16.790	1.130	0.431	
16.795	0.259	0.606	
16.800	-0.125	0.650	
16.805	0.024	0.554	
16.810	-0.279	0.388	
16.815	-0.474	0.188	
16.820	-0.201	-0.011	
16.825	-0.134	-0.153	
16.830	-0.363	-0.233	
16.835	-0.171	-0.277	
16.840	0.137	-0.274	
16.845	-0.213	-0.227	
16.850	-0.217	-0.185	
16.855	0.195	-0.151	
16.860	-0.049	-0.101	
16.865	-0.226	-0.064	
16.870	0.154	-0.049	
16.875	0.181	-0.021	
16.880	-0.198	0.011	
16.885	0.055	0.018	
16.890	0.454	0.035	
16.895	0.011	0.081	
16.900	0.015	0.112	
16.905	0.572	0.135	
16.910	0.323	0.189	
16.915	0.033	0.239	
16.920	0.530	0.262	
16.925	0.537	0.300	
16.930	-0.009	0.337	
16.935	0.219	0.327	
16.940	0.497	0.304	
16.945	-0.040	0.291	
16.950	-0.078	0.247	
16.955	0.386	0.188	
16.960	0.056	0.159	
16.965	-0.209	0.129	
16.970	0.178	0.082	
16.975	0.195	0.059	
16.980	-0.226	0.053	
16.985	-0.073	0.025	
16.990	0.197	-0.001	
16.995	-0.200	-0.009	
17.000	-0.207	-0.030	
17.005	0.213	-0.053	
17.010	-0.049	-0.047	
17.015	-0.247	-0.041	
17.020	0.152	-0.049	
17.025	0.212	-0.031	
17.030	-0.204	0.000	
17.035	0.003	0.007	
17.040	0.343	0.016	
17.045	-0.122	0.043	
17.050	-0.136	0.047	
17.055	0.317	0.037	
17.060	0.008	0.048	
17.065	-0.220	0.050	
17.070	0.158	0.029	
17.075	0.123	0.024	
17.080	-0.276	0.023	
17.085	-0.137	-0.008	
17.090	0.104	-0.042	
17.095	-0.264	-0.060	
17.100	-0.293	-0.091	
17.105	0.030	-0.127	
17.110	-0.174	-0.140	
17.115	-0.345	-0.151	
17.120	-0.046	-0.171	
17.125	-0.021	-0.170	
17.130	-0.343	-0.158	
17.135	-0.201	-0.165	
17.140	0.096	-0.168	
17.145	-0.142	-0.145	
17.150	0.101	-0.111	
17.155	1.029	-0.024	
17.160	1.018	0.170	
17.165	0.666	0.406	
17.170	0.883	0.597	
17.175	0.404	0.711	
17.180	-0.323	0.699	
17.185	-0.306	0.539	
17.190	-0.182	0.309	
17.195	-0.427	0.088	
17.200	-0.409	-0.103	
17.205	-0.078	-0.239	
17.210	-0.185	-0.297	
17.215	-0.340	-0.306	
17.220	-0.044	-0.297	
17.225	0.008	-0.256	
17.230	-0.284	-0.204	
17.235	-0.110	-0.171	
17.240	0.215	-0.137	
17.245	-0.171	-0.088	
17.250	-0.174	-0.061	
17.255	0.279	-0.048	
17.260	0.029	-0.014	
17.265	-0.185	0.013	
17.270	0.223	0.018	
17.275	0.308	0.044	
17.280	-0.113	0.081	
17.285	0.204	0.098	
17.290	0.579	0.129	
17.295	0.093	0.187	
17.300	0.018	0.217	
17.305	0.503	0.221	
17.310	0.186	0.238	
17.315	-0.137	0.237	
17.320	0.261	0.200	
17.325	0.251	0.175	
17.330	-0.215	0.155	
17.335	-0.073	0.105	
17.340	0.189	0.053	
17.345	-0.232	0.021	
17.350	-0.271	-0.024	
17.355	0.053	-0.075	
17.360	-0.175	-0.102	
17.365	-0.361	-0.126	
17.370	-0.096	-0.161	
17.375	-0.075	-0.178	
17.380	-0.360	-0.181	
17.385	-0.204	-0.195	
17.390	0.062	-0.199	
17.395	-0.258	-0.179	
17.400	-0.271	-0.170	
17.405	0.075	-0.168	
17.410	-0.117	-0.147	
17.415	-0.296	-0.130	
17.420	0.015	-0.130	
17.425	0.053	-0.116	
17.430	-0.288	-0.095	
17.435	-0.151	-0.098	
17.440	0.122	-0.104	
17.445	-0.242	-0.094	
17.450	-0.273	-0.101	
17.455	0.049	-0.120	
17.460	-0.191	-0.124	
17.465	-0.389	-0.137	
17.470	-0.142	-0.169	
17.475	-0.108	-0.189	
17.480	-0.383	-0.199	
17.485	-0.253	-0.219	
17.490	-0.038	-0.231	
17.495	-0.329	-0.225	
17.500	-0.352	-0.229	
17.505	-0.061	-0.239	
17.510	-0.249	-0.233	
17.515	-0.412	-0.232	
17.520	-0.079	-0.242	
17.525	0.152	-0.221	
17.530	-0.023	-0.161	
17.535	0.718	-0.064	
17.540	1.370	0.124	
17.545	0.858	0.393	
17.550	0.462	0.616	
17.555	0.387	0.713	
17.560	-0.235	0.675	
17.565	-0.550	0.502	
17.570	-0.358	0.247	
17.575	-0.310	0.003	
17.580	-0.517	-0.187	
17.585	-0.323	-0.322	
17.590	-0.075	-0.387	
17.595	-0.311	-0.383	
17.600	-0.300	-0.357	
17.605	0.096	-0.315	
17.610	-0.093	-0.246	
17.615	-0.279	-0.184	
17.620	0.091	-0.145	
17.625	0.187	-0.095	
17.630	-0.206	-0.041	
17.635	0.017	-0.016	
17.640	0.425	0.011	
17.645	-0.020	0.061	
17.650	-0.023	0.091	
17.655	0.569	0.112	
17.660	0.392	0.172	
17.665	0.079	0.235	
17.670	0.625	0.277	
17.675	0.692	0.340	
17.680	0.126	0.407	
17.685	0.404	0.427	
17.690	0.724	0.434	
17.695	0.157	0.450	
17.700	0.011	0.424	
17.705	0.460	0.362	
17.710	0.130	0.314	
17.715	-0.195	0.256	
17.720	0.142	0.175	
17.725	0.154	0.114	
17.730	-0.256	0.072	
17.735	-0.120	0.016	
17.740	0.175	-0.029	
17.745	-0.224	-0.046	
17.750	-0.259	-0.070	
17.755	0.117	-0.098	
17.760	-0.093	-0.099	
17.765	-0.279	-0.097	
17.770	0.065	-0.106	
17.775	0.134	-0.091	
17.780	-0.256	-0.063	
17.785	-0.104	-0.060	
17.790	0.238	-0.058	
17.795	-0.166	-0.037	
17.800	-0.206	-0.033	
17.805	0.190	-0.043	
17.810	-0.069	-0.035	
17.815	-0.297	-0.036	
17.820	-0.009	-0.061	
17.825	0.044	-0.074	
17.830	-0.314	-0.078	
17.835	-0.206	-0.102	
17.840	0.024	-0.127	
17.845	-0.293	-0.137	
17.850	-0.339	-0.158	
17.855	-0.024	-0.185	
17.860	-0.185	-0.191	
17.865	-0.380	-0.194	
17.870	-0.117	-0.209	
17.875	-0.041	-0.208	
17.880	-0.334	-0.193	
17.885	-0.207	-0.193	
17.890	-0.020	-0.193	
17.895	-0.329	-0.184	
17.900	-0.308	-0.191	
17.905	0.320	-0.188	
17.910	0.529	-0.112	
17.915	0.721	0.043	
17.920	1.598	0.276	
17.925	1.672	0.597	
17.930	0.704	0.905	
17.935	0.235	1.043	
17.940	0.032	0.974	
17.945	-0.448	0.753	
17.950	-0.550	0.440	
17.955	-0.267	0.122	
17.960	-0.343	-0.124	
17.965	-0.471	-0.287	
17.970	-0.172	-0.382	
17.975	-0.089	-0.400	
17.980	-0.352	-0.367	
17.985	-0.204	-0.329	
17.990	0.075	-0.282	
17.995	-0.244	-0.220	
18.000	-0.262	-0.180	
18.005	0.155	-0.156	
18.010	-0.037	-0.114	
18.015	-0.239	-0.080	
18.020	0.189	-0.064	
18.025	0.329	-0.022	
18.030	-0.119	0.036	
18.035	0.180	0.070	
18.040	0.658	0.116	
18.045	0.247	0.197	
18.050	0.223	0.264	
18.055	0.779	0.316	
18.060	0.527	0.390	
18.065	0.125	0.445	
18.070	0.588	0.452	
18.075	0.608	0.461	
18.080	-0.003	0.463	
18.085	0.184	0.415	
18.090	0.479	0.354	
18.095	-0.053	0.309	
18.100	-0.143	0.240	
18.105	0.273	0.159	
18.110	-0.027	0.107	
18.115	-0.282	0.059	
18.120	0.008	-0.003	
18.125	0.072	-0.042	
18.130	-0.281	-0.059	
18.135	-0.131	-0.085	
18.140	0.210	-0.098	
18.145	-0.182	-0.081	
18.150	-0.218	-0.075	
18.155	0.213	-0.077	
18.160	-0.014	-0.054	
18.165	-0.255	-0.037	
18.170	0.105	-0.040	
18.175	0.195	-0.028	
18.180	-0.226	-0.004	
18.185	-0.085	-0.007	
18.190	0.244	-0.015	
18.195	-0.194	-0.006	
18.200	-0.262	-0.019	
18.205	0.079	-0.052	
18.210	-0.148	-0.070	
18.215	-0.375	-0.093	
18.220	-0.127	-0.135	
18.225	-0.096	-0.164	
18.230	-0.398	-0.181	
18.235	-0.271	-0.210	
18.240	-0.046	-0.231	
18.245	-0.331	-0.230	
18.250	-0.375	-0.238	
18.255	-0.053	-0.250	
18.260	-0.197	-0.241	
18.265	-0.401	-0.231	
18.270	-0.154	-0.237	
18.275	-0.140	-0.235	
18.280	-0.413	-0.230	
18.285	-0.203	-0.239	
18.290	0.395	-0.219	
18.295	0.373	-0.124	
18.300	0.768	0.033	
18.305	1.505	0.262	
18.310	1.117	0.552	
18.315	0.165	0.773	
18.320	0.064	0.809	
18.325	-0.174	0.682	
18.330	-0.555	0.456	
18.335	-0.448	0.180	
18.340	-0.210	-0.065	
18.345	-0.410	-0.233	
18.350	-0.396	-0.338	
18.355	-0.043	-0.385	
18.360	-0.143	-0.366	
18.365	-0.316	-0.319	
18.370	0.033	-0.271	
18.375	0.166	-0.201	
18.380	-0.223	-0.123	
18.385	-0.056	-0.078	
18.390	0.376	-0.039	
18.395	-0.046	0.017	
18.400	-0.087	0.051	
18.405	0.474	0.070	
18.410	0.293	0.119	
18.415	-0.027	0.169	
18.420	0.537	0.198	
18.425	0.692	0.256	
18.430	0.186	0.335	
18.435	0.450	0.381	
18.440	0.848	0.423	
18.445	0.348	0.480	
18.450	0.195	0.500	
18.455	0.674	0.483	
18.460	0.361	0.473	
18.465	-0.073	0.442	
18.470	0.358	0.371	
18.475	0.408	0.317	
18.480	-0.140	0.279	
18.485	-0.008	0.215	
18.490	0.340	0.152	
18.495	-0.131	0.118	
18.500	-0.198	0.074	
18.505	0.247	0.026	
18.510	0.001	0.011	
18.515	-0.252	0.002	
18.520	0.082	-0.023	
18.525	0.187	-0.026	
18.530	-0.217	-0.011	
18.535	-0.069	-0.017	
18.540	0.311	-0.018	
18.545	-0.122	0.004	
18.550	-0.178	0.009	
18.555	0.297	0.002	
18.560	0.082	0.021	
18.565	-0.200	0.038	
18.570	0.203	0.035	
18.575	0.341	0.052	
18.580	-0.130	0.085	
18.585	0.058	0.093	
18.590	0.428	0.098	
18.595	-0.069	0.122	
18.600	-0.160	0.117	
18.605	0.271	0.088	
18.610	0.003	0.075	
18.615	-0.261	0.055	
18.620	0.041	0.014	
18.625	0.137	-0.011	
18.630	-0.249	-0.018	
18.635	-0.116	-0.040	
18.640	0.229	-0.055	
18.645	-0.171	-0.045	
18.650	-0.236	-0.047	
18.655	0.116	-0.064	
18.660	-0.102	-0.066	
18.665	-0.291	-0.072	
18.670	0.154	-0.086	
18.675	0.552	-0.051	
18.680	0.392	0.052	
18.685	0.883	0.195	
18.690	1.267	0.387	
18.695	0.488	0.591	
18.700	-0.076	0.682	
18.705	0.056	0.619	
18.710	-0.241	0.464	
18.715	-0.489	0.260	
18.720	-0.230	0.045	
18.725	-0.095	-0.117	
18.730	-0.331	-0.210	
18.735	-0.156	-0.259	
18.740	0.213	-0.255	
18.745	-0.148	-0.200	
18.750	-0.169	-0.148	
18.755	0.351	-0.101	
18.760	0.149	-0.028	
18.765	-0.151	0.036	
18.770	0.291	0.067	
18.775	0.433	0.110	
18.780	-0.053	0.162	
18.785	0.192	0.181	
18.790	0.616	0.201	
18.795	0.148	0.246	
18.800	0.090	0.269	
18.805	0.692	0.278	
18.810	0.495	0.322	
18.815	0.091	0.366	
18.820	0.591	0.378	
18.825	0.675	0.405	
18.830	0.105	0.438	
18.835	0.305	0.428	
18.840	0.674	0.408	
18.845	0.125	0.405	
18.850	-0.038	0.370	
18.855	0.418	0.306	
18.860	0.131	0.261	
18.865	-0.201	0.212	
18.870	0.136	0.143	
18.875	0.218	0.096	
18.880	-0.223	0.071	
18.885	-0.089	0.031	
18.890	0.261	-0.001	
18.895	-0.169	-0.004	
18.900	-0.226	-0.019	
18.905	0.201	-0.042	
18.910	-0.014	-0.038	
18.915	-0.255	-0.033	
18.920	0.079	-0.045	
18.925	0.213	-0.037	
18.930	-0.204	-0.012	
18.935	-0.063	-0.010	
18.940	0.338	-0.006	
18.945	-0.105	0.020	
18.950	-0.189	0.026	
18.955	0.242	0.014	
18.960	0.008	0.019	
18.965	-0.261	0.018	
18.970	0.033	-0.008	
18.975	0.130	-0.022	
18.980	-0.268	-0.024	
18.985	-0.172	-0.047	
18.990	0.116	-0.073	
18.995	-0.218	-0.079	
19.000	-0.268	-0.095	
19.005	0.148	-0.113	
19.010	-0.047	-0.102	
19.015	-0.273	-0.088	
19.020	0.032	-0.091	
19.025	0.152	-0.078	
19.030	-0.242	-0.053	
19.035	-0.143	-0.053	
19.040	0.152	-0.060	
19.045	-0.192	-0.054	
19.050	-0.220	-0.062	
19.055	0.369	-0.067	
19.060	0.477	-0.011	
19.065	0.410	0.099	
19.070	1.055	0.243	
19.075	1.098	0.436	
19.080	0.197	0.609	
19.085	-0.023	0.650	
19.090	0.050	0.559	
19.095	-0.354	0.399	
19.100	-0.451	0.195	
19.105	-0.156	-0.006	
19.110	-0.223	-0.150	
19.115	-0.392	-0.238	
19.120	-0.095	-0.289	
19.125	0.056	-0.284	
19.130	-0.273	-0.242	
19.135	-0.140	-0.205	
19.140	0.233	-0.164	
19.145	-0.142	-0.105	
19.150	-0.198	-0.068	
19.155	0.265	-0.050	
19.160	0.105	-0.012	
19.165	-0.172	0.023	
19.170	0.215	0.035	
19.175	0.369	0.063	
19.180	-0.101	0.105	
19.185	0.123	0.119	
19.190	0.582	0.138	
19.195	0.143	0.188	
19.200	0.024	0.219	
19.205	0.561	0.228	
19.210	0.323	0.259	
19.215	-0.096	0.277	
19.220	0.308	0.255	
19.225	0.381	0.239	
19.230	-0.139	0.230	
19.235	-0.027	0.186	
19.240	0.322	0.137	
19.245	-0.136	0.109	
19.250	-0.235	0.067	
19.255	0.122	0.011	
19.260	-0.096	-0.022	
19.265	-0.335	-0.053	
19.270	-0.092	-0.098	
19.275	-0.015	-0.127	
19.280	-0.326	-0.138	
19.285	-0.212	-0.159	
19.290	0.076	-0.171	
19.295	-0.233	-0.159	
19.300	-0.296	-0.155	
19.305	0.075	-0.159	
19.310	-0.063	-0.142	
19.315	-0.293	-0.123	
19.320	0.000	-0.121	
19.325	0.152	-0.104	
19.330	-0.244	-0.074	
19.335	-0.139	-0.067	
19.340	0.178	-0.067	
19.345	-0.207	-0.055	
19.350	-0.288	-0.062	
19.355	0.052	-0.088	
19.360	-0.114	-0.099	
19.365	-0.361	-0.110	
19.370	-0.136	-0.141	
19.375	-0.084	-0.163	
19.380	-0.395	-0.176	
19.385	-0.299	-0.204	
19.390	-0.066	-0.229	
19.395	-0.314	-0.233	
19.400	-0.377	-0.242	
19.405	-0.081	-0.254	
19.410	-0.188	-0.247	
19.415	-0.401	-0.237	
19.420	-0.174	-0.243	
19.425	-0.120	-0.240	
19.430	-0.412	-0.233	
19.435	-0.261	-0.242	
19.440	0.204	-0.235	
19.445	0.107	-0.177	
19.450	0.351	-0.080	
19.455	1.062	0.069	
19.460	0.776	0.279	
19.465	-0.038	0.450	
19.470	-0.050	0.481	
19.475	-0.178	0.393	
19.480	-0.531	0.234	
19.485	-0.444	0.035	
19.490	-0.209	-0.145	
19.495	-0.393	-0.264	
19.500	-0.415	-0.339	
19.505	-0.076	-0.373	
19.510	-0.151	-0.354	
19.515	-0.352	-0.313	
19.520	-0.061	-0.278	
19.525	0.099	-0.226	
19.530	-0.265	-0.165	
19.535	-0.137	-0.131	
19.540	0.251	-0.103	
19.545	-0.127	-0.059	
19.550	-0.194	-0.036	
19.555	0.293	-0.028	
19.560	0.154	0.006	
19.565	-0.143	0.043	
19.570	0.326	0.062	
19.575	0.514	0.107	
19.580	0.006	0.172	
19.585	0.213	0.207	
19.590	0.611	0.234	
19.595	0.143	0.277	
19.600	-0.011	0.288	
19.605	0.497	0.268	
19.610	0.259	0.267	
19.615	-0.142	0.257	
19.620	0.226	0.214	
19.625	0.311	0.182	
19.630	-0.186	0.163	
19.635	-0.098	0.116	
19.640	0.233	0.065	
19.645	-0.169	0.037	
19.650	-0.261	-0.000	
19.655	0.101	-0.046	
19.660	-0.056	-0.065	
19.665	-0.302	-0.077	
19.670	-0.026	-0.101	
19.675	0.120	-0.104	
19.680	-0.264	-0.089	
19.685	-0.156	-0.091	
19.690	0.187	-0.093	
19.695	-0.192	-0.076	
19.700	-0.288	-0.076	
19.705	0.081	-0.093	
19.710	-0.064	-0.094	
19.715	-0.314	-0.093	
19.720	-0.055	-0.110	
19.725	0.052	-0.115	
19.730	-0.302	-0.108	
19.735	-0.209	-0.120	
19.740	0.064	-0.134	
19.745	-0.258	-0.132	
19.750	-0.351	-0.143	
19.755	-0.061	-0.170	
19.760	-0.192	-0.182	
19.765	-0.415	-0.194	
19.770	-0.194	-0.220	
19.775	-0.117	-0.235	
19.780	-0.399	-0.237	
19.785	-0.297	-0.250	
19.790	-0.060	-0.259	
19.795	-0.310	-0.249	
19.800	-0.383	-0.247	
19.805	-0.105	-0.255	
19.810	-0.236	-0.250	
19.815	-0.450	-0.249	
19.820	-0.171	-0.263	
19.825	0.105	-0.253	
19.830	-0.053	-0.202	
19.835	0.582	-0.113	
19.840	1.265	0.062	
19.845	0.773	0.315	
19.850	0.241	0.522	
19.855	0.218	0.596	
19.860	-0.238	0.542	
19.865	-0.567	0.378	
19.870	-0.381	0.146	
19.875	-0.279	-0.069	
19.880	-0.502	-0.228	
19.885	-0.358	-0.340	
19.890	-0.082	-0.393	
19.895	-0.306	-0.384	
19.900	-0.358	-0.358	
19.905	-0.011	-0.326	
19.910	-0.110	-0.273	
19.915	-0.322	-0.222	
19.920	-0.032	-0.192	
19.925	0.161	-0.153	
19.930	-0.207	-0.101	
19.935	-0.046	-0.071	
19.940	0.415	-0.037	
19.945	0.017	0.023	
19.950	-0.058	0.066	
19.955	0.556	0.096	
19.960	0.457	0.163	
19.965	0.081	0.238	
19.970	0.579	0.286	
19.975	0.756	0.348	
19.980	0.189	0.420	
19.985	0.326	0.445	
19.990	0.706	0.447	
19.995	0.212	0.455	
20.000	-0.002	0.427	
20.005	0.483	0.367	
20.010	0.250	0.325	
20.015	-0.157	0.283	
20.020	0.183	0.215	
20.025	0.277	0.165	
20.030	-0.204	0.134	
20.035	-0.117	0.083	
20.040	0.239	0.033	
20.045	-0.149	0.012	
20.050	-0.236	-0.014	
20.055	0.174	-0.045	
20.060	0.024	-0.046	
20.065	-0.236	-0.038	
20.070	0.094	-0.044	
20.075	0.253	-0.029	
20.080	-0.188	0.003	
20.085	-0.090	0.008	
20.090	0.290	0.005	
20.095	-0.104	0.021	
20.100	-0.185	0.020	
20.105	0.242	0.005	
20.110	0.046	0.013	
20.115	-0.258	0.018	
20.120	0.004	-0.005	
20.125	0.130	-0.020	
20.130	-0.261	-0.024	
20.135	-0.178	-0.048	
20.140	0.110	-0.074	
20.145	-0.229	-0.082	
20.150	-0.319	-0.102	
20.155	0.009	-0.132	
20.160	-0.114	-0.142	
20.165	-0.345	-0.146	
20.170	-0.096	-0.163	
20.175	0.032	-0.165	
20.180	-0.300	-0.150	
20.185	-0.203	-0.151	
20.190	0.059	-0.153	
20.195	-0.277	-0.143	
20.200	-0.380	-0.152	
20.205	-0.035	-0.178	
20.210	0.033	-0.177	
20.215	0.044	-0.140	
20.220	1.056	-0.042	
20.225	1.556	0.185	
20.230	0.992	0.501	
20.235	0.748	0.762	
20.240	0.503	0.887	
20.245	-0.279	0.854	
20.250	-0.508	0.653	
20.255	-0.290	0.361	
20.260	-0.345	0.085	
20.265	-0.508	-0.135	
20.270	-0.233	-0.292	
20.275	-0.095	-0.365	
20.280	-0.351	-0.369	
20.285	-0.230	-0.350	
20.290	0.105	-0.309	
20.295	-0.195	-0.242	
20.300	-0.256	-0.189	
20.305	0.177	-0.153	
20.310	0.067	-0.099	
20.315	-0.206	-0.050	
20.320	0.163	-0.024	
20.325	0.380	0.015	
20.330	-0.079	0.071	
20.335	0.130	0.102	
20.340	0.623	0.135	
20.345	0.242	0.201	
20.350	0.149	0.254	
20.355	0.753	0.293	
20.360	0.611	0.363	
20.365	0.163	0.429	
20.370	0.590	0.453	
20.375	0.704	0.475	
20.380	0.084	0.495	
20.385	0.181	0.462	
20.390	0.544	0.406	
20.395	0.037	0.364	
20.400	-0.124	0.299	
20.405	0.287	0.215	
20.410	0.050	0.157	
20.415	-0.258	0.106	
20.420	-0.011	0.039	
20.425	0.116	-0.009	
20.430	-0.261	-0.032	
20.435	-0.169	-0.064	
20.440	0.163	-0.089	
20.445	-0.177	-0.085	
20.450	-0.265	-0.089	
20.455	0.104	-0.102	
20.460	-0.052	-0.095	
20.465	-0.306	-0.088	
20.470	-0.055	-0.101	
20.475	0.094	-0.104	
20.480	-0.267	-0.093	
20.485	-0.182	-0.098	
20.490	0.128	-0.106	
20.495	-0.206	-0.097	
20.500	-0.306	-0.101	
20.505	0.006	-0.122	
20.510	-0.128	-0.130	
20.515	-0.370	-0.138	
20.520	-0.146	-0.163	
20.525	-0.053	-0.179	
20.530	-0.372	-0.182	
20.535	-0.294	-0.201	
20.540	-0.064	-0.220	
20.545	-0.314	-0.223	
20.550	-0.393	-0.233	
20.555	-0.090	-0.250	
20.560	-0.182	-0.247	
20.565	-0.404	-0.240	
20.570	-0.166	-0.245	
20.575	-0.084	-0.240	
20.580	-0.413	-0.228	
20.585	-0.349	-0.238	
20.590	-0.082	-0.254	
20.595	-0.221	-0.249	
20.600	-0.117	-0.230	
20.605	0.901	-0.158	
20.610	1.163	0.038	
20.615	0.805	0.313	
20.620	1.000	0.565	
20.625	0.576	0.741	
20.630	-0.297	0.776	
20.635	-0.384	0.631	
20.640	-0.242	0.383	
20.645	-0.460	0.129	
20.650	-0.489	-0.096	
20.655	-0.157	-0.262	
20.660	-0.188	-0.342	
20.665	-0.375	-0.359	
20.670	-0.107	-0.350	
20.675	0.065	-0.305	
20.680	-0.270	-0.238	
20.685	-0.160	-0.190	
20.690	0.216	-0.149	
20.695	-0.120	-0.094	
20.700	-0.195	-0.060	
20.705	0.303	-0.042	
20.710	0.172	0.002	
20.715	-0.154	0.046	
20.720	0.285	0.066	
20.725	0.520	0.107	
20.730	0.038	0.170	
20.735	0.288	0.210	
20.740	0.777	0.256	
20.745	0.348	0.332	
20.750	0.166	0.384	
20.755	0.704	0.402	
20.760	0.508	0.433	
20.765	0.014	0.448	
20.770	0.402	0.416	
20.775	0.506	0.385	
20.780	-0.076	0.360	
20.785	0.004	0.298	
20.790	0.366	0.226	
20.795	-0.089	0.179	
20.800	-0.203	0.122	
20.805	0.198	0.058	
20.810	0.004	0.025	
20.815	-0.274	0.001	
20.820	-0.021	-0.037	
20.825	0.122	-0.058	
20.830	-0.252	-0.059	
20.835	-0.154	-0.073	
20.840	0.203	-0.083	
20.845	-0.157	-0.068	
20.850	-0.256	-0.065	
20.855	0.131	-0.077	
20.860	-0.031	-0.069	
20.865	-0.284	-0.063	
20.870	-0.014	-0.076	
20.875	0.134	-0.077	
20.880	-0.255	-0.063	
20.885	-0.169	-0.070	
20.890	0.143	-0.081	
20.895	-0.204	-0.076	
20.900	-0.310	-0.085	
20.905	-0.008	-0.113	
20.910	-0.148	-0.127	
20.915	-0.393	-0.143	
20.920	-0.171	-0.176	
20.925	-0.075	-0.196	
20.930	-0.374	-0.202	
20.935	-0.273	-0.219	
20.940	-0.011	-0.229	
20.945	-0.268	-0.218	
20.950	-0.346	-0.213	
20.955	-0.046	-0.218	
20.960	-0.153	-0.208	
20.965	-0.403	-0.199	
20.970	-0.188	-0.211	
20.975	-0.098	-0.218	
20.980	-0.339	-0.215	
20.985	-0.093	-0.213	
20.990	0.704	-0.165	
20.995	0.611	-0.022	
21.000	0.527	0.166	
21.005	0.870	0.344	
21.010	0.245	0.485	
21.015	-0.367	0.510	
21.020	-0.282	0.393	
21.025	-0.252	0.208	
21.030	-0.515	0.019	
21.035	-0.393	-0.155	
21.040	-0.111	-0.277	
21.045	-0.296	-0.328	
21.050	-0.332	-0.340	
21.055	0.050	-0.326	
21.060	-0.037	-0.271	
21.065	-0.261	-0.207	
21.070	0.053	-0.161	
21.075	0.247	-0.104	
21.080	-0.178	-0.040	
21.085	-0.049	-0.008	
21.090	0.401	0.014	
21.095	0.004	0.058	
21.100	-0.087	0.084	
21.105	0.463	0.094	
21.110	0.329	0.136	
21.115	-0.037	0.182	
21.120	0.474	0.204	
21.125	0.683	0.251	
21.130	0.145	0.319	
21.135	0.297	0.353	
21.140	0.701	0.370	
21.145	0.219	0.399	
21.150	0.000	0.392	
21.155	0.486	0.349	
21.160	0.259	0.320	
21.165	-0.159	0.286	
21.170	0.168	0.221	
21.175	0.288	0.170	
21.180	-0.194	0.139	
21.185	-0.122	0.088	
21.190	0.230	0.037	
21.195	-0.160	0.013	
21.200	-0.264	-0.017	
21.205	0.082	-0.057	
21.210	-0.060	-0.073	
21.215	-0.299	-0.083	
21.220	-0.023	-0.104	
21.225	0.160	-0.104	
21.230	-0.224	-0.081	
21.235	-0.110	-0.073	
21.240	0.290	-0.063	
21.245	-0.089	-0.029	
21.250	-0.186	-0.010	
21.255	0.229	-0.010	
21.260	0.044	0.007	
21.265	-0.256	0.016	
21.270	0.021	-0.002	
21.275	0.163	-0.014	
21.280	-0.249	-0.012	
21.285	-0.178	-0.033	
21.290	0.130	-0.059	
21.295	-0.201	-0.066	
21.300	-0.300	-0.084	
21.305	0.029	-0.113	
21.310	-0.101	-0.122	
21.315	-0.340	-0.128	
21.320	-0.102	-0.148	
21.325	0.044	-0.153	
21.330	-0.302	-0.142	
21.335	-0.223	-0.147	
21.340	0.070	-0.153	
21.345	-0.227	-0.142	
21.350	-0.332	-0.144	
21.355	-0.053	-0.162	
21.360	-0.136	-0.167	
21.365	-0.311	-0.168	
21.370	0.154	-0.166	
21.375	0.678	-0.103	
21.380	0.474	0.039	
21.385	0.707	0.209	
21.390	0.969	0.386	
21.395	0.130	0.530	
21.400	-0.259	0.547	
21.405	-0.116	0.432	
21.410	-0.288	0.259	
21.415	-0.511	0.071	
21.420	-0.259	-0.107	
21.425	-0.113	-0.227	
21.430	-0.351	-0.283	
21.435	-0.232	-0.307	
21.440	0.094	-0.295	
21.445	-0.195	-0.246	
21.450	-0.273	-0.202	
21.455	0.111	-0.173	
21.460	-0.018	-0.129	
21.465	-0.267	-0.093	
21.470	0.024	-0.083	
21.475	0.213	-0.062	
21.480	-0.197	-0.029	
21.485	-0.081	-0.019	
21.490	0.349	-0.012	
21.495	-0.011	0.022	
21.500	-0.085	0.046	
21.505	0.480	0.063	
21.510	0.372	0.117	
21.515	-0.024	0.178	
21.520	0.428	0.209	
21.525	0.585	0.252	
21.530	0.026	0.301	
21.535	0.163	0.307	
21.540	0.543	0.294	
21.545	0.068	0.294	
21.550	-0.105	0.267	
21.555	0.363	0.214	
21.560	0.165	0.185	
21.565	-0.206	0.159	
21.570	0.072	0.109	
21.575	0.189	0.070	
21.580	-0.229	0.048	
21.585	-0.143	0.009	
21.590	0.187	-0.027	
21.595	-0.163	-0.036	
21.600	-0.255	-0.052	
21.605	0.125	-0.076	
21.610	-0.029	-0.075	
21.615	-0.274	-0.070	
21.620	-0.005	-0.082	
21.625	0.157	-0.078	
21.630	-0.226	-0.058	
21.635	-0.110	-0.056	
21.640	0.293	-0.052	
21.645	-0.117	-0.024	
21.650	-0.232	-0.014	
21.655	0.125	-0.027	
21.660	-0.040	-0.030	
21.665	-0.299	-0.037	
21.670	-0.058	-0.066	
21.675	0.058	-0.085	
21.680	-0.299	-0.089	
21.685	-0.227	-0.110	
21.690	0.044	-0.133	
21.695	-0.247	-0.138	
21.700	-0.339	-0.151	
21.705	-0.037	-0.174	
21.710	-0.146	-0.179	
21.715	-0.380	-0.181	
21.720	-0.142	-0.197	
21.725	-0.043	-0.201	
21.730	-0.355	-0.193	
21.735	-0.291	-0.201	
21.740	-0.084	-0.216	
21.745	-0.329	-0.219	
21.750	-0.366	-0.232	
21.755	0.133	-0.238	
21.760	0.338	-0.186	
21.765	0.274	-0.076	
21.770	0.863	0.073	
21.775	0.930	0.267	
21.780	-0.002	0.440	
21.785	-0.194	0.477	
21.790	-0.128	0.383	
21.795	-0.435	0.226	
21.800	-0.521	0.037	
21.805	-0.223	-0.142	
21.810	-0.265	-0.260	
21.815	-0.432	-0.325	
21.820	-0.153	-0.356	
21.825	-0.018	-0.340	
21.830	-0.303	-0.293	
21.835	-0.185	-0.253	
21.840	0.181	-0.209	
21.845	-0.149	-0.148	
21.850	-0.224	-0.106	
21.855	0.221	-0.083	
21.860	0.093	-0.042	
21.865	-0.209	-0.005	
21.870	0.171	0.007	
21.875	0.367	0.034	
21.880	-0.101	0.079	
21.885	0.101	0.098	
21.890	0.614	0.123	
21.895	0.242	0.185	
21.900	0.097	0.236	
21.905	0.634	0.267	
21.910	0.459	0.318	
21.915	0.015	0.356	
21.920	0.427	0.351	
21.925	0.544	0.349	
21.930	-0.032	0.352	
21.935	0.087	0.315	
21.940	0.454	0.266	
21.945	-0.031	0.237	
21.950	-0.157	0.190	
21.955	0.207	0.126	
21.960	-0.021	0.082	
21.965	-0.296	0.039	
21.970	-0.056	-0.020	
21.975	0.059	-0.062	
21.980	-0.293	-0.081	
21.985	-0.203	-0.110	
21.990	0.102	-0.131	
21.995	-0.206	-0.127	
22.000	-0.270	-0.128	
22.005	0.085	-0.135	
22.010	-0.078	-0.122	
22.015	-0.320	-0.111	
22.020	-0.076	-0.122	
22.025	0.053	-0.124	
22.030	-0.284	-0.114	
22.035	-0.195	-0.121	
22.040	0.116	-0.127	
22.045	-0.207	-0.115	
22.050	-0.294	-0.115	
22.055	0.026	-0.130	
22.060	-0.133	-0.130	
22.065	-0.374	-0.134	
22.070	-0.159	-0.160	
22.075	-0.093	-0.179	
22.080	-0.386	-0.189	
22.085	-0.299	-0.213	
22.090	-0.053	-0.233	
22.095	-0.290	-0.232	
22.100	-0.366	-0.235	
22.105	-0.075	-0.243	
22.110	-0.174	-0.235	
22.115	-0.393	-0.225	
22.120	-0.188	-0.231	
22.125	-0.142	-0.234	
22.130	-0.432	-0.234	
22.135	-0.300	-0.251	
22.140	0.125	-0.255	
22.145	0.055	-0.209	
22.150	0.349	-0.122	
22.155	1.117	0.030	
22.160	0.869	0.259	
22.165	0.018	0.456	
22.170	-0.078	0.507	
22.175	-0.232	0.421	
22.180	-0.601	0.249	
22.185	-0.538	0.027	
22.190	-0.294	-0.178	
22.195	-0.450	-0.319	
22.200	-0.479	-0.406	
22.205	-0.168	-0.447	
22.210	-0.221	-0.432	
22.215	-0.399	-0.392	
22.220	-0.139	-0.353	
22.225	0.011	-0.300	
22.230	-0.296	-0.237	
22.235	-0.185	-0.198	
22.240	0.168	-0.165	
22.245	-0.159	-0.119	
22.250	-0.212	-0.091	
22.255	0.242	-0.076	
22.260	0.120	-0.037	
22.265	-0.156	0.005	
22.270	0.303	0.029	
22.275	0.517	0.081	
22.280	0.041	0.155	
22.285	0.264	0.202	
22.290	0.694	0.247	
22.295	0.245	0.310	
22.300	0.075	0.343	
22.305	0.567	0.339	
22.310	0.335	0.347	
22.315	-0.105	0.338	
22.320	0.242	0.289	
22.325	0.309	0.243	
22.330	-0.188	0.207	
22.335	-0.101	0.143	
22.340	0.241	0.078	
22.345	-0.159	0.042	
22.350	-0.255	0.002	
22.355	0.093	-0.045	
22.360	-0.070	-0.066	
22.365	-0.305	-0.081	
22.370	-0.046	-0.106	
22.375	0.091	-0.114	
22.380	-0.261	-0.102	
22.385	-0.148	-0.104	
22.390	0.197	-0.102	
22.395	-0.160	-0.079	
22.400	-0.249	-0.070	
22.405	0.142	-0.076	
22.410	-0.023	-0.065	
22.415	-0.271	-0.055	
22.420	0.003	-0.066	
22.425	0.134	-0.066	
22.430	-0.261	-0.053	
22.435	-0.180	-0.063	
22.440	0.128	-0.079	
22.445	-0.217	-0.079	
22.450	-0.311	-0.093	
22.455	-0.011	-0.121	
22.460	-0.156	-0.136	
22.465	-0.381	-0.150	
22.470	-0.157	-0.179	
22.475	-0.070	-0.196	
22.480	-0.360	-0.198	
22.485	-0.264	-0.211	
22.490	-0.006	-0.220	
22.495	-0.267	-0.209	
22.500	-0.337	-0.205	
22.505	-0.075	-0.212	
22.510	-0.229	-0.210	
22.515	-0.436	-0.214	
22.520	-0.142	-0.234	
22.525	0.212	-0.225	
22.530	0.169	-0.157	
22.535	0.915	-0.028	
22.540	1.593	0.207	
22.545	1.064	0.522	
22.550	0.433	0.773	
22.555	0.306	0.856	
22.560	-0.227	0.777	
22.565	-0.569	0.562	
22.570	-0.381	0.272	
22.575	-0.271	0.005	
22.580	-0.479	-0.192	
22.585	-0.332	-0.325	
22.590	-0.061	-0.386	
22.595	-0.271	-0.379	
22.600	-0.310	-0.347	
22.605	0.065	-0.306	
22.610	-0.060	-0.240	
22.615	-0.277	-0.178	
22.620	0.035	-0.142	
22.625	0.201	-0.098	
22.630	-0.186	-0.047	
22.635	-0.029	-0.022	
22.640	0.413	0.002	
22.645	0.049	0.052	
22.650	-0.014	0.090	
22.655	0.578	0.120	
22.660	0.480	0.187	
22.665	0.154	0.264	
22.670	0.678	0.320	
22.675	0.835	0.397	
22.680	0.290	0.484	
22.685	0.457	0.523	
22.690	0.799	0.538	
22.695	0.288	0.555	
22.700	0.085	0.528	
22.705	0.547	0.463	
22.710	0.273	0.413	
22.715	-0.139	0.356	
22.720	0.200	0.272	
22.725	0.267	0.204	
22.730	-0.194	0.158	
22.735	-0.108	0.096	
22.740	0.207	0.038	
22.745	-0.168	0.009	
22.750	-0.241	-0.024	
22.755	0.154	-0.059	
22.760	-0.021	-0.063	
22.765	-0.252	-0.060	
22.770	0.076	-0.068	
22.775	0.218	-0.054	
22.780	-0.201	-0.023	
22.785	-0.078	-0.015	
22.790	0.306	-0.011	
22.795	-0.102	0.013	
22.800	-0.178	0.019	
22.805	0.248	0.009	
22.810	0.033	0.018	
22.815	-0.253	0.022	
22.820	0.020	-0.001	
22.825	0.119	-0.016	
22.830	-0.267	-0.021	
22.835	-0.172	-0.047	
22.840	0.102	-0.074	
22.845	-0.242	-0.084	
22.850	-0.328	-0.106	
22.855	-0.032	-0.140	
22.860	-0.154	-0.156	
22.865	-0.369	-0.168	
22.870	-0.120	-0.190	
22.875	-0.020	-0.194	
22.880	-0.311	-0.182	
22.885	-0.191	-0.181	
22.890	0.073	-0.176	
22.895	-0.284	-0.156	
22.900	-0.377	-0.158	
22.905	-0.050	-0.179	
22.910	-0.020	-0.180	
22.915	0.030	-0.150	
22.920	1.110	-0.054	
22.925	1.691	0.185	
22.930	1.184	0.530	
22.935	1.005	0.835	
22.940	0.700	1.011	
22.945	-0.229	1.011	
22.950	-0.482	0.814	
22.955	-0.290	0.498	
22.960	-0.363	0.185	
22.965	-0.509	-0.073	
22.970	-0.220	-0.261	
22.975	-0.090	-0.353	
22.980	-0.340	-0.367	
22.985	-0.200	-0.351	
22.990	0.148	-0.306	
22.995	-0.180	-0.231	
23.000	-0.227	-0.172	
23.005	0.216	-0.130	
23.010	0.044	-0.074	
23.015	-0.213	-0.029	
23.020	0.187	-0.010	
23.025	0.376	0.026	
23.030	-0.076	0.078	
23.035	0.192	0.109	
23.040	0.675	0.149	
23.045	0.274	0.225	
23.050	0.223	0.288	
23.055	0.820	0.337	
23.060	0.648	0.414	
23.065	0.242	0.485	
23.070	0.686	0.514	
23.075	0.742	0.542	
23.080	0.134	0.562	
23.085	0.267	0.527	
23.090	0.572	0.470	
23.095	0.035	0.422	
23.100	-0.113	0.345	
23.105	0.291	0.248	
23.110	0.030	0.177	
23.115	-0.261	0.114	
23.120	0.000	0.039	
23.125	0.087	-0.013	
23.130	-0.274	-0.041	
23.135	-0.172	-0.076	
23.140	0.125	-0.102	
23.145	-0.204	-0.102	
23.150	-0.264	-0.109	
23.155	0.105	-0.121	
23.160	-0.070	-0.110	
23.165	-0.290	-0.099	
23.170	0.008	-0.106	
23.175	0.133	-0.096	
23.180	-0.224	-0.071	
23.185	-0.098	-0.065	
23.190	0.244	-0.058	
23.195	-0.154	-0.033	
23.200	-0.212	-0.027	
23.205	0.203	-0.037	
23.210	-0.015	-0.027	
23.215	-0.281	-0.022	
23.220	-0.014	-0.042	
23.225	0.043	-0.057	
23.230	-0.310	-0.065	
23.235	-0.209	-0.093	
23.240	0.046	-0.121	
23.245	-0.261	-0.130	
23.250	-0.316	-0.147	
23.255	-0.003	-0.169	
23.260	-0.145	-0.171	
23.265	-0.352	-0.170	
23.270	-0.093	-0.181	
23.275	-0.008	-0.179	
23.280	-0.340	-0.165	
23.285	-0.265	-0.172	
23.290	-0.069	-0.187	
23.295	-0.303	-0.192	
23.300	-0.238	-0.202	
23.305	0.579	-0.178	
23.310	0.834	-0.053	
23.315	0.694	0.154	
23.320	1.117	0.382	
23.325	0.812	0.596	
23.330	-0.177	0.709	
23.335	-0.279	0.643	
23.340	-0.198	0.448	
23.345	-0.474	0.217	
23.350	-0.502	-0.013	
23.355	-0.175	-0.200	
23.360	-0.224	-0.305	
23.365	-0.366	-0.346	
23.370	-0.075	-0.349	
23.375	0.043	-0.309	
23.380	-0.273	-0.244	
23.385	-0.120	-0.196	
23.390	0.255	-0.148	
23.395	-0.125	-0.085	
23.400	-0.163	-0.046	
23.405	0.332	-0.023	
23.410	0.158	0.022	
23.415	-0.127	0.065	
23.420	0.348	0.085	
23.425	0.514	0.130	
23.430	0.037	0.193	
23.435	0.338	0.231	
23.440	0.790	0.276	
23.445	0.337	0.352	
23.450	0.232	0.402	
23.455	0.755	0.424	
23.460	0.505	0.461	
23.465	0.068	0.478	
23.470	0.506	0.451	
23.475	0.565	0.431	
23.480	-0.040	0.415	
23.485	0.128	0.359	
23.490	0.456	0.296	
23.495	-0.070	0.255	
23.500	-0.156	0.195	
23.505	0.255	0.124	
23.510	-0.015	0.082	
23.515	-0.268	0.044	
23.520	0.030	-0.007	
23.525	0.105	-0.035	
23.530	-0.268	-0.044	
23.535	-0.136	-0.067	
23.540	0.192	-0.081	
23.545	-0.166	-0.070	
23.550	-0.197	-0.067	
23.555	0.224	-0.068	
23.560	0.011	-0.045	
23.565	-0.217	-0.023	
23.570	0.140	-0.022	
23.575	0.218	-0.004	
23.580	-0.209	0.023	
23.585	-0.084	0.018	
23.590	0.215	0.005	
23.595	-0.194	0.005	
23.600	-0.238	-0.015	
23.605	0.133	-0.047	
23.610	-0.087	-0.057	
23.615	-0.311	-0.067	
23.620	-0.055	-0.095	
23.625	0.014	-0.110	
23.630	-0.319	-0.113	
23.635	-0.198	-0.132	
23.640	0.084	-0.146	
23.645	-0.246	-0.138	
23.650	-0.291	-0.141	
23.655	0.037	-0.153	
23.660	-0.149	-0.148	
23.665	-0.345	-0.146	
23.670	-0.078	-0.160	
23.675	-0.044	-0.163	
23.680	-0.349	-0.158	
23.685	-0.188	-0.169	
23.690	0.294	-0.163	
23.695	0.180	-0.104	
23.700	0.477	-0.003	
23.705	1.165	0.153	
23.710	0.822	0.369	
23.715	0.044	0.539	
23.720	0.078	0.568	
23.725	-0.102	0.482	
23.730	-0.459	0.324	
23.735	-0.358	0.123	
23.740	-0.125	-0.059	
23.745	-0.345	-0.181	
23.750	-0.332	-0.261	
23.755	0.047	-0.296	
23.760	-0.119	-0.276	
23.765	-0.302	-0.237	
23.770	0.037	-0.206	
23.775	0.160	-0.156	
23.780	-0.209	-0.096	
23.785	-0.035	-0.062	
23.790	0.334	-0.031	
23.795	-0.093	0.014	
23.800	-0.117	0.036	
23.805	0.421	0.044	
23.810	0.226	0.083	
23.815	-0.076	0.124	
23.820	0.442	0.145	
23.825	0.564	0.192	
23.830	0.084	0.256	
23.835	0.381	0.291	
23.840	0.736	0.328	
23.845	0.230	0.382	
23.850	0.126	0.399	
23.855	0.596	0.383	
23.860	0.287	0.379	
23.865	-0.107	0.356	
23.870	0.285	0.295	
23.875	0.319	0.247	
23.880	-0.166	0.213	
23.885	-0.018	0.155	
23.890	0.287	0.102	
23.895	-0.156	0.075	
23.900	-0.201	0.038	
23.905	0.186	-0.005	
23.910	-0.064	-0.020	
23.915	-0.276	-0.034	
23.920	0.043	-0.061	
23.925	0.122	-0.066	
23.930	-0.223	-0.053	
23.935	-0.067	-0.055	
23.940	0.277	-0.050	
23.945	-0.125	-0.021	
23.950	-0.156	-0.009	
23.955	0.291	-0.008	
23.960	0.058	0.016	
23.965	-0.194	0.035	
23.970	0.174	0.031	
23.975	0.218	0.040	
23.980	-0.201	0.056	
23.985	-0.056	0.042	
23.990	0.261	0.025	
23.995	-0.162	0.026	
24.000	-0.206	0.010	
24.005	0.194	-0.018	
24.010	-0.052	-0.022	
24.015	-0.277	-0.029	
24.020	0.004	-0.055	
24.025	0.044	-0.068	
24.030	-0.285	-0.070	
24.035	-0.139	-0.089	
24.040	0.133	-0.102	
24.045	-0.221	-0.094	
24.050	-0.258	-0.099	
24.055	0.090	-0.113	
24.060	-0.127	-0.108	
24.065	-0.345	-0.109	
24.070	-0.067	-0.131	
24.075	0.056	-0.136	
24.080	-0.165	-0.120	
24.085	0.369	-0.085	
24.090	1.122	0.026	
24.095	0.780	0.232	
24.100	0.588	0.442	
24.105	0.692	0.586	
24.110	-0.031	0.638	
24.115	-0.401	0.556	
24.120	-0.221	0.365	
24.125	-0.201	0.155	
24.130	-0.435	-0.025	
24.135	-0.253	-0.170	
24.140	0.012	-0.253	
24.145	-0.239	-0.269	
24.150	-0.244	-0.260	
24.155	0.155	-0.234	
24.160	-0.049	-0.177	
24.165	-0.244	-0.125	
24.170	0.149	-0.094	
24.175	0.235	-0.048	
24.180	-0.166	0.004	
24.185	0.032	0.026	
24.190	0.419	0.047	
24.195	-0.032	0.087	
24.200	-0.046	0.105	
24.205	0.511	0.112	
24.210	0.291	0.154	
24.215	0.004	0.196	
24.220	0.556	0.220	
24.225	0.623	0.272	
24.230	0.111	0.335	
24.235	0.378	0.361	
24.240	0.672	0.378	
24.245	0.128	0.402	
24.250	0.029	0.384	
24.255	0.500	0.336	
24.260	0.152	0.305	
24.265	-0.171	0.262	
24.270	0.187	0.193	
24.275	0.194	0.142	
24.280	-0.210	0.107	
24.285	-0.075	0.056	
24.290	0.184	0.013	
24.295	-0.207	-0.007	
24.300	-0.233	-0.037	
24.305	0.114	-0.070	
24.310	-0.107	-0.079	
24.315	-0.284	-0.087	
24.320	0.052	-0.103	
24.325	0.110	-0.095	
24.330	-0.239	-0.072	
24.335	-0.075	-0.068	
24.340	0.251	-0.060	
24.345	-0.172	-0.033	
24.350	-0.194	-0.027	
24.355	0.226	-0.034	
24.360	-0.032	-0.021	
24.365	-0.252	-0.015	
24.370	0.058	-0.031	
24.375	0.078	-0.036	
24.380	-0.270	-0.034	
24.385	-0.117	-0.054	
24.390	0.120	-0.071	
24.395	-0.261	-0.073	
24.400	-0.308	-0.093	
24.405	-0.026	-0.128	
24.410	-0.201	-0.147	
24.415	-0.372	-0.166	
24.420	-0.102	-0.193	
24.425	-0.049	-0.200	
24.430	-0.319	-0.190	
24.435	-0.165	-0.189	
24.440	0.073	-0.181	
24.445	-0.258	-0.156	
24.450	-0.296	-0.149	
24.455	-0.041	-0.159	
24.460	-0.230	-0.163	
24.465	-0.374	-0.175	
24.470	0.090	-0.190	
24.475	0.515	-0.147	
24.480	0.448	-0.027	
24.485	0.950	0.146	
24.490	1.172	0.367	
24.495	0.248	0.571	
24.500	-0.200	0.634	
24.505	-0.124	0.535	
24.510	-0.366	0.350	
24.515	-0.546	0.130	
24.520	-0.262	-0.081	
24.525	-0.183	-0.228	
24.530	-0.380	-0.305	
24.535	-0.185	-0.338	
24.540	0.073	-0.324	
24.545	-0.239	-0.269	
24.550	-0.229	-0.222	
24.555	0.166	-0.183	
24.560	-0.070	-0.128	
24.565	-0.236	-0.087	
24.570	0.174	-0.068	
24.575	0.235	-0.030	
24.580	-0.162	0.016	
24.585	0.091	0.036	
24.590	0.454	0.061	
24.595	0.014	0.109	
24.600	0.061	0.137	
24.605	0.643	0.162	
24.610	0.410	0.225	
24.615	0.125	0.288	
24.620	0.633	0.325	
24.625	0.630	0.377	
24.630	0.097	0.424	
24.635	0.360	0.424	
24.640	0.628	0.412	
24.645	0.062	0.408	
24.650	-0.006	0.365	
24.655	0.425	0.298	
24.660	0.061	0.252	
24.665	-0.189	0.200	
24.670	0.151	0.129	
24.675	0.084	0.080	
24.680	-0.284	0.042	
24.685	-0.140	-0.013	
24.690	0.065	-0.060	
24.695	-0.268	-0.086	
24.700	-0.271	-0.116	
24.705	0.065	-0.144	
24.710	-0.143	-0.145	
24.715	-0.305	-0.142	
24.720	0.011	-0.149	
24.725	0.009	-0.138	
24.730	-0.288	-0.119	
24.735	-0.117	-0.119	
24.740	0.158	-0.114	
24.745	-0.210	-0.091	
24.750	-0.213	-0.085	
24.755	0.137	-0.089	
24.760	-0.127	-0.078	
24.765	-0.308	-0.078	
24.770	-0.018	-0.098	
24.775	-0.032	-0.108	
24.780	-0.332	-0.112	
24.785	-0.180	-0.133	
24.790	-0.009	-0.152	
24.795	-0.319	-0.157	
24.800	-0.331	-0.175	
24.805	-0.067	-0.200	
24.810	-0.250	-0.209	
24.815	-0.407	-0.219	
24.820	-0.137	-0.239	
24.825	-0.124	-0.242	
24.830	-0.384	-0.234	
24.835	-0.217	-0.238	
24.840	-0.050	-0.236	
24.845	-0.377	-0.224	
24.850	-0.401	-0.232	
24.855	-0.114	-0.253	
24.860	-0.172	-0.253	
24.865	-0.111	-0.233	
24.870	0.951	-0.155	
24.875	1.369	0.058	
24.880	0.899	0.364	
24.885	0.883	0.634	
24.890	0.514	0.796	
24.895	-0.329	0.802	
24.900	-0.496	0.628	
24.905	-0.308	0.351	
24.910	-0.433	0.079	
24.915	-0.528	-0.148	
24.920	-0.220	-0.311	
24.925	-0.178	-0.387	
24.930	-0.393	-0.397	
24.935	-0.194	-0.383	
24.940	0.029	-0.339	
24.945	-0.262	-0.274	
24.950	-0.236	-0.225	
24.955	0.161	-0.186	
24.960	-0.076	-0.132	
24.965	-0.226	-0.091	
24.970	0.171	-0.071	
24.975	0.203	-0.033	
24.980	-0.145	0.012	
24.985	0.194	0.036	
24.990	0.559	0.079	
24.995	0.123	0.151	
25.000	0.215	0.206	
25.005	0.761	0.256	
25.010	0.482	0.335	
25.015	0.195	0.401	
25.020	0.692	0.431	
25.025	0.627	0.469	
25.030	0.072	0.493	
25.035	0.344	0.466	
25.040	0.567	0.428	
25.045	-0.006	0.398	
25.050	-0.052	0.333	
25.055	0.338	0.250	
25.060	-0.044	0.190	
25.065	-0.249	0.125	
25.070	0.067	0.049	
25.075	0.027	-0.002	
25.080	-0.285	-0.034	
25.085	-0.110	-0.074	
25.090	0.136	-0.097	
25.095	-0.224	-0.093	
25.100	-0.204	-0.098	
25.105	0.171	-0.104	
25.110	-0.105	-0.086	
25.115	-0.261	-0.075	
25.120	0.084	-0.081	
25.125	0.056	-0.071	
25.130	-0.267	-0.056	
25.135	-0.087	-0.064	
25.140	0.143	-0.070	
25.145	-0.230	-0.062	
25.150	-0.229	-0.071	
25.155	0.084	-0.091	
25.160	-0.172	-0.094	
25.165	-0.343	-0.107	
25.170	-0.075	-0.136	
25.175	-0.099	-0.153	
25.180	-0.364	-0.162	
25.185	-0.203	-0.184	
25.190	-0.056	-0.199	
25.195	-0.355	-0.201	
25.200	-0.339	-0.216	
25.205	-0.072	-0.234	
25.210	-0.253	-0.234	
25.215	-0.404	-0.236	
25.220	-0.131	-0.248	
25.225	-0.139	-0.246	
25.230	-0.378	-0.235	
25.235	-0.221	-0.238	
25.240	-0.111	-0.239	
25.245	-0.389	-0.233	
25.250	-0.329	-0.244	
25.255	0.155	-0.245	
25.260	0.256	-0.190	
25.265	0.546	-0.071	
25.270	1.425	0.128	
25.275	1.369	0.422	
25.280	0.437	0.701	
25.285	0.128	0.818	
25.290	-0.087	0.753	
25.295	-0.494	0.557	
25.300	-0.520	0.284	
25.305	-0.259	0.015	
25.310	-0.374	-0.185	
25.315	-0.453	-0.317	
25.320	-0.131	-0.388	
25.325	-0.099	-0.389	
25.330	-0.332	-0.348	
25.335	-0.120	-0.305	
25.340	0.137	-0.247	
25.345	-0.217	-0.176	
25.350	-0.171	-0.130	
25.355	0.247	-0.098	
25.360	-0.038	-0.051	
25.365	-0.180	-0.019	
25.370	0.288	-0.005	
25.375	0.291	0.035	
25.380	-0.096	0.084	
25.385	0.308	0.111	
25.390	0.636	0.157	
25.395	0.168	0.231	
25.400	0.261	0.282	
25.405	0.779	0.323	
25.410	0.444	0.387	
25.415	0.133	0.431	
25.420	0.602	0.433	
25.425	0.482	0.438	
25.430	-0.053	0.430	
25.435	0.226	0.374	
25.440	0.428	0.315	
25.445	-0.107	0.274	
25.450	-0.096	0.208	
25.455	0.305	0.138	
25.460	-0.056	0.099	
25.465	-0.241	0.059	
25.470	0.082	0.008	
25.475	0.009	-0.022	
25.480	-0.296	-0.042	
25.485	-0.095	-0.075	
25.490	0.131	-0.094	
25.495	-0.224	-0.088	
25.500	-0.180	-0.092	
25.505	0.204	-0.095	
25.510	-0.095	-0.072	
25.515	-0.230	-0.058	
25.520	0.142	-0.059	
25.525	0.068	-0.043	
25.530	-0.258	-0.026	
25.535	-0.043	-0.036	
25.540	0.197	-0.041	
25.545	-0.221	-0.030	
25.550	-0.195	-0.039	
25.555	0.142	-0.058	
25.560	-0.148	-0.060	
25.565	-0.291	-0.070	
25.570	0.000	-0.096	
25.575	-0.081	-0.108	
25.580	-0.354	-0.118	
25.585	-0.172	-0.145	
25.590	-0.037	-0.166	
25.595	-0.331	-0.172	
25.600	-0.297	-0.189	
25.605	-0.029	-0.207	
25.610	-0.242	-0.205	
25.615	-0.358	-0.206	
25.620	-0.047	-0.215	
25.625	-0.087	-0.205	
25.630	-0.364	-0.189	
25.635	-0.203	-0.193	
25.640	-0.079	-0.199	
25.645	-0.340	-0.197	
25.650	-0.194	-0.204	
25.655	0.529	-0.179	
25.660	0.590	-0.066	
25.665	0.605	0.108	
25.670	1.113	0.308	
25.675	0.694	0.512	
25.680	-0.200	0.624	
25.685	-0.220	0.568	
25.690	-0.210	0.396	
25.695	-0.508	0.185	
25.700	-0.447	-0.030	
25.705	-0.171	-0.202	
25.710	-0.314	-0.301	
25.715	-0.383	-0.348	
25.720	-0.053	-0.360	
25.725	-0.060	-0.324	
25.730	-0.291	-0.268	
25.735	-0.070	-0.224	
25.740	0.169	-0.173	
25.745	-0.212	-0.114	
25.750	-0.154	-0.082	
25.755	0.248	-0.064	
25.760	-0.066	-0.031	
25.765	-0.183	-0.012	
25.770	0.293	-0.006	
25.775	0.282	0.029	
25.780	-0.072	0.077	
25.785	0.338	0.109	
25.790	0.610	0.160	
25.795	0.139	0.234	
25.800	0.259	0.280	
25.805	0.697	0.314	
25.810	0.265	0.361	
25.815	-0.005	0.374	
25.820	0.485	0.345	
25.825	0.392	0.330	
25.830	-0.079	0.317	
25.835	0.204	0.272	
25.840	0.352	0.231	
25.845	-0.156	0.203	
25.850	-0.133	0.148	
25.855	0.223	0.084	
25.860	-0.127	0.046	
25.865	-0.268	0.005	
25.870	0.061	-0.044	
25.875	-0.021	-0.068	
25.880	-0.284	-0.079	
25.885	-0.052	-0.100	
25.890	0.186	-0.101	
25.895	-0.204	-0.077	
25.900	-0.139	-0.068	
25.905	0.290	-0.060	
25.910	-0.052	-0.027	
25.915	-0.197	-0.006	
25.920	0.229	-0.005	
25.925	0.140	0.015	
25.930	-0.201	0.036	
25.935	0.087	0.032	
25.940	0.293	0.036	
25.945	-0.177	0.054	
25.950	-0.131	0.044	
25.955	0.233	0.022	
25.960	-0.099	0.018	
25.965	-0.235	0.003	
25.970	0.088	-0.027	
25.975	-0.046	-0.041	
25.980	-0.313	-0.055	
25.985	-0.102	-0.088	
25.990	0.068	-0.108	
25.995	-0.273	-0.109	
26.000	-0.218	-0.122	
26.005	0.102	-0.133	
26.010	-0.180	-0.123	
26.015	-0.290	-0.121	
26.020	0.052	-0.130	
26.025	-0.064	-0.122	
26.030	-0.343	-0.115	
26.035	-0.146	-0.132	
26.040	0.047	-0.143	
26.045	-0.178	-0.132	
26.050	0.152	-0.110	
26.055	0.985	-0.028	
26.060	0.815	0.154	
26.065	0.565	0.361	
26.070	0.791	0.523	
26.075	0.197	0.614	
26.080	-0.354	0.584	
26.085	-0.253	0.426	
26.090	-0.183	0.222	
26.095	-0.430	0.032	
26.100	-0.329	-0.131	
26.105	-0.006	-0.237	
26.110	-0.209	-0.271	
26.115	-0.288	-0.271	
26.120	0.102	-0.252	
26.125	0.041	-0.198	
26.130	-0.250	-0.138	
26.135	0.012	-0.104	
26.140	0.241	-0.067	
26.145	-0.171	-0.022	
26.150	-0.089	-0.004	
26.155	0.315	0.004	
26.160	-0.041	0.030	
26.165	-0.143	0.042	
26.170	0.387	0.042	
26.175	0.326	0.079	
26.180	-0.053	0.128	
26.185	0.390	0.157	
26.190	0.633	0.204	
26.195	0.108	0.272	
26.200	0.241	0.305	
26.205	0.643	0.322	
26.210	0.195	0.350	
26.215	-0.035	0.346	
26.220	0.412	0.304	
26.225	0.223	0.274	
26.230	-0.174	0.241	
26.235	0.058	0.176	
26.240	0.201	0.119	
26.245	-0.230	0.079	
26.250	-0.188	0.025	
26.255	0.107	-0.030	
26.260	-0.204	-0.059	
26.265	-0.306	-0.091	
26.270	0.000	-0.127	
26.275	-0.096	-0.140	
26.280	-0.323	-0.145	
26.285	-0.105	-0.159	
26.290	0.038	-0.160	
26.295	-0.277	-0.145	
26.300	-0.194	-0.143	
26.305	0.134	-0.141	
26.310	-0.177	-0.118	
26.315	-0.270	-0.108	
26.320	0.078	-0.112	
26.325	-0.037	-0.101	
26.330	-0.293	-0.090	
26.335	-0.070	-0.100	
26.340	0.046	-0.104	
26.345	-0.296	-0.100	
26.350	-0.235	-0.115	
26.355	0.040	-0.135	
26.360	-0.233	-0.138	
26.365	-0.335	-0.149	
26.370	-0.061	-0.171	
26.375	-0.162	-0.179	
26.380	-0.390	-0.186	
26.385	-0.174	-0.206	
26.390	-0.069	-0.216	
26.395	-0.351	-0.211	
26.400	-0.273	-0.218	
26.405	-0.027	-0.224	
26.410	-0.270	-0.213	
26.415	-0.361	-0.211	
26.420	-0.098	-0.222	
26.425	-0.215	-0.221	
26.430	-0.445	-0.225	
26.435	-0.201	-0.246	
26.440	0.029	-0.249	
26.445	-0.119	-0.216	
26.450	0.413	-0.151	
26.455	1.120	-0.007	
26.460	0.715	0.221	
26.465	0.248	0.421	
26.470	0.250	0.509	
26.475	-0.204	0.484	
26.480	-0.528	0.350	
26.485	-0.363	0.145	
26.490	-0.265	-0.053	
26.495	-0.474	-0.203	
26.500	-0.349	-0.312	
26.505	-0.070	-0.365	
26.510	-0.270	-0.359	
26.515	-0.323	-0.333	
26.520	0.020	-0.300	
26.525	-0.072	-0.245	
26.530	-0.290	-0.192	
26.535	0.021	-0.159	
26.540	0.226	-0.115	
26.545	-0.180	-0.058	
26.550	-0.064	-0.029	
26.555	0.373	-0.006	
26.560	0.004	0.038	
26.565	-0.084	0.066	
26.570	0.462	0.082	
26.575	0.346	0.129	
26.580	-0.027	0.180	
26.585	0.410	0.205	
26.590	0.562	0.241	
26.595	0.038	0.287	
26.600	0.186	0.295	
26.605	0.543	0.288	
26.610	0.059	0.293	
26.615	-0.122	0.266	
26.620	0.251	0.207	
26.625	0.017	0.158	
26.630	-0.279	0.105	
26.635	-0.069	0.031	
26.640	-0.008	-0.030	
26.645	-0.337	-0.074	
26.650	-0.271	-0.126	
26.655	-0.066	-0.172	
26.660	-0.310	-0.196	
26.665	-0.380	-0.220	
26.670	-0.095	-0.246	
26.675	-0.195	-0.248	
26.680	-0.401	-0.244	
26.685	-0.163	-0.251	
26.690	-0.049	-0.244	
26.695	-0.322	-0.222	
26.700	-0.226	-0.213	
26.705	0.059	-0.202	
26.710	-0.229	-0.175	
26.715	-0.296	-0.161	
26.720	0.047	-0.160	
26.725	-0.081	-0.143	
26.730	-0.311	-0.128	
26.735	-0.067	-0.133	
26.740	0.041	-0.129	
26.745	-0.296	-0.116	
26.750	-0.220	-0.124	
26.755	-0.015	-0.140	
26.760	-0.302	-0.147	
26.765	-0.393	-0.170	
26.770	-0.143	-0.207	
26.775	-0.246	-0.230	
26.780	-0.451	-0.248	
26.785	-0.235	-0.276	
26.790	-0.154	-0.288	
26.795	-0.418	-0.285	
26.800	-0.322	-0.291	
26.805	-0.085	-0.294	
26.810	-0.323	-0.278	
26.815	-0.404	-0.272	
26.820	-0.171	-0.279	
26.825	-0.294	-0.278	
26.830	-0.474	-0.284	
26.835	-0.163	-0.299	
26.840	0.244	-0.277	
26.845	0.255	-0.188	
26.850	0.901	-0.034	
26.855	1.409	0.208	
26.860	0.727	0.494	
26.865	-0.005	0.675	
26.870	-0.053	0.670	
26.875	-0.354	0.523	
26.880	-0.624	0.290	
26.885	-0.412	0.029	
26.890	-0.297	-0.185	
26.895	-0.486	-0.325	
26.900	-0.331	-0.408	
26.905	-0.066	-0.429	
26.910	-0.284	-0.395	
26.915	-0.319	-0.349	
26.920	0.043	-0.303	
26.925	-0.069	-0.238	
26.930	-0.271	-0.179	
26.935	0.032	-0.144	
26.940	0.187	-0.101	
26.945	-0.183	-0.051	
26.950	-0.008	-0.025	
26.955	0.430	0.002	
26.960	0.038	0.057	
26.965	-0.002	0.096	
26.970	0.599	0.127	
26.975	0.483	0.196	
26.980	0.145	0.273	
26.985	0.639	0.326	
26.990	0.761	0.392	
26.995	0.223	0.462	
27.000	0.380	0.485	
27.005	0.692	0.483	
27.010	0.175	0.483	
27.015	0.008	0.442	
27.020	0.460	0.371	
27.025	0.189	0.318	
27.030	-0.169	0.265	
27.035	0.142	0.189	
27.040	0.192	0.131	
27.045	-0.230	0.092	
27.050	-0.125	0.038	
27.055	0.168	-0.010	
27.060	-0.204	-0.032	
27.065	-0.264	-0.060	
27.070	0.088	-0.092	
27.075	-0.069	-0.098	
27.080	-0.274	-0.098	
27.085	0.027	-0.107	
27.090	0.155	-0.095	
27.095	-0.223	-0.066	
27.100	-0.102	-0.058	
27.105	0.226	-0.052	
27.110	-0.153	-0.031	
27.115	-0.207	-0.028	
27.120	0.212	-0.038	
27.125	-0.006	-0.026	
27.130	-0.249	-0.018	
27.135	0.043	-0.031	
27.140	0.107	-0.035	
27.145	-0.265	-0.031	
27.150	-0.156	-0.050	
27.155	0.111	-0.071	
27.160	-0.236	-0.077	
27.165	-0.294	-0.095	
27.170	0.023	-0.124	
27.175	-0.148	-0.133	
27.180	-0.360	-0.143	
27.185	-0.116	-0.166	
27.190	-0.050	-0.177	
27.195	-0.337	-0.175	
27.200	-0.218	-0.185	
27.205	0.038	-0.190	
27.210	-0.261	-0.176	
27.215	-0.335	-0.174	
27.220	-0.113	-0.189	
27.225	-0.244	-0.199	
27.230	-0.366	-0.212	
27.235	0.166	-0.216	
27.240	0.790	-0.144	
27.245	0.892	0.040	
27.250	1.444	0.308	
27.255	1.719	0.637	
27.260	0.732	0.940	
27.265	-0.064	1.060	
27.270	-0.081	0.947	
27.275	-0.355	0.690	
27.280	-0.570	0.373	
27.285	-0.317	0.065	
27.290	-0.217	-0.164	
27.295	-0.410	-0.300	
27.300	-0.244	-0.371	
27.305	0.049	-0.376	
27.310	-0.224	-0.327	
27.315	-0.241	-0.271	
27.320	0.160	-0.219	
27.325	-0.018	-0.151	
27.330	-0.227	-0.094	
27.335	0.165	-0.063	
27.340	0.296	-0.018	
27.345	-0.125	0.037	
27.350	0.128	0.065	
27.355	0.541	0.098	
27.360	0.148	0.159	
27.365	0.154	0.205	
27.370	0.751	0.245	
27.375	0.578	0.323	
27.380	0.267	0.402	
27.385	0.774	0.454	
27.390	0.835	0.518	
27.395	0.290	0.580	
27.400	0.492	0.591	
27.405	0.785	0.583	
27.410	0.258	0.578	
27.415	0.134	0.535	
27.420	0.584	0.467	
27.425	0.268	0.419	
27.430	-0.116	0.365	
27.435	0.253	0.284	
27.440	0.282	0.223	
27.445	-0.163	0.182	
27.450	-0.014	0.126	
27.455	0.319	0.080	
27.460	-0.127	0.066	
27.465	-0.163	0.043	
27.470	0.268	0.015	
27.475	0.029	0.017	
27.480	-0.206	0.020	
27.485	0.148	0.007	
27.490	0.200	0.013	
27.495	-0.204	0.029	
27.500	-0.047	0.020	
27.505	0.250	0.009	
27.510	-0.156	0.016	
27.515	-0.195	0.005	
27.520	0.206	-0.017	
27.525	-0.049	-0.017	
27.530	-0.261	-0.021	
27.535	0.038	-0.044	
27.540	0.065	-0.052	
27.545	-0.285	-0.052	
27.550	-0.154	-0.073	
27.555	0.079	-0.093	
27.560	-0.261	-0.098	
27.565	-0.300	-0.116	
27.570	-0.023	-0.145	
27.575	-0.200	-0.157	
27.580	-0.374	-0.171	
27.585	-0.104	-0.195	
27.590	-0.064	-0.200	
27.595	-0.342	-0.192	
27.600	-0.192	-0.196	
27.605	0.046	-0.194	
27.610	-0.267	-0.173	
27.615	-0.331	-0.169	
27.620	-0.099	-0.183	
27.625	-0.242	-0.192	
27.630	-0.360	-0.204	
27.635	0.136	-0.211	
27.640	0.649	-0.149	
27.645	0.610	0.003	
27.650	1.067	0.213	
27.655	1.284	0.462	
27.660	0.311	0.682	
27.665	-0.188	0.743	
27.670	-0.131	0.627	
27.675	-0.378	0.416	
27.680	-0.563	0.169	
27.685	-0.291	-0.067	
27.690	-0.217	-0.233	
27.695	-0.410	-0.324	
27.700	-0.217	-0.367	
27.705	0.053	-0.357	
27.710	-0.242	-0.302	
27.715	-0.232	-0.250	
27.720	0.180	-0.203	
27.725	-0.043	-0.138	
27.730	-0.235	-0.087	
27.735	0.139	-0.063	
27.740	0.209	-0.028	
27.745	-0.165	0.012	
27.750	0.078	0.028	
27.755	0.448	0.051	
27.760	0.027	0.099	
27.765	0.079	0.131	
27.770	0.634	0.161	
27.775	0.412	0.227	
27.780	0.113	0.290	
27.785	0.616	0.325	
27.790	0.628	0.373	
27.795	0.084	0.419	
27.800	0.344	0.416	
27.805	0.627	0.403	
27.810	0.075	0.399	
27.815	0.006	0.359	
27.820	0.433	0.298	
27.825	0.101	0.257	
27.830	-0.174	0.211	
27.835	0.189	0.147	
27.840	0.154	0.105	
27.845	-0.233	0.077	
27.850	-0.095	0.030	
27.855	0.155	-0.011	
27.860	-0.227	-0.029	
27.865	-0.224	-0.057	
27.870	0.163	-0.084	
27.875	-0.098	-0.081	
27.880	-0.277	-0.080	
27.885	0.056	-0.091	
27.890	0.090	-0.084	
27.895	-0.247	-0.065	
27.900	-0.082	-0.066	
27.905	0.189	-0.065	
27.910	-0.195	-0.048	
27.915	-0.195	-0.049	
27.920	0.198	-0.058	
27.925	-0.078	-0.046	
27.930	-0.268	-0.042	
27.935	0.044	-0.059	
27.940	0.032	-0.063	
27.945	-0.293	-0.062	
27.950	-0.137	-0.082	
27.955	0.050	-0.100	
27.960	-0.291	-0.106	
27.965	-0.313	-0.128	
27.970	-0.055	-0.160	
27.975	-0.235	-0.177	
27.980	-0.386	-0.194	
27.985	-0.117	-0.219	
27.990	-0.119	-0.225	
27.995	-0.375	-0.220	
28.000	-0.206	-0.226	
28.005	0.027	-0.223	
28.010	-0.290	-0.200	
28.015	-0.337	-0.193	
28.020	-0.087	-0.203	
28.025	-0.244	-0.205	
28.030	-0.335	-0.210	
28.035	0.204	-0.207	
28.040	0.620	-0.135	
28.045	0.428	0.012	
28.050	0.768	0.185	
28.055	0.822	0.365	
28.060	-0.104	0.492	
28.065	-0.334	0.477	
28.070	-0.220	0.336	
28.075	-0.425	0.149	
28.080	-0.552	-0.045	
28.085	-0.255	-0.215	
28.090	-0.197	-0.316	
28.095	-0.387	-0.356	
28.100	-0.165	-0.362	
28.105	0.105	-0.326	
28.110	-0.217	-0.257	
28.115	-0.207	-0.200	
28.120	0.175	-0.156	
28.125	-0.099	-0.103	
28.130	-0.261	-0.072	
28.135	0.091	-0.067	
28.140	0.145	-0.050	
28.145	-0.192	-0.023	
28.150	0.029	-0.015	
28.155	0.358	0.001	
28.160	-0.053	0.041	
28.165	0.029	0.066	
28.170	0.558	0.092	
28.175	0.288	0.154	
28.180	0.040	0.210	
28.185	0.575	0.242	
28.190	0.567	0.295	
28.195	0.050	0.347	
28.200	0.341	0.355	
28.205	0.581	0.354	
28.210	0.050	0.360	
28.215	0.012	0.329	
28.220	0.389	0.274	
28.225	0.000	0.233	
28.230	-0.215	0.178	
28.235	0.139	0.104	
28.240	0.079	0.055	
28.245	-0.267	0.023	
28.250	-0.087	-0.023	
28.255	0.169	-0.053	
28.260	-0.212	-0.057	
28.265	-0.201	-0.069	
28.270	0.155	-0.083	
28.275	-0.110	-0.075	
28.280	-0.249	-0.072	
28.285	0.146	-0.078	
28.290	0.143	-0.058	
28.295	-0.206	-0.027	
28.300	0.017	-0.018	
28.305	0.296	-0.005	
28.310	-0.148	0.024	
28.315	-0.143	0.027	
28.320	0.267	0.016	
