Vernier Format 2
ecg1.txt 10/20/2025 7:40:16
Run 1
Time	Potential	EKG	
T	P	E	
s	mV	mV	

0.000	-0.061	-0.003	
0.005	-0.024	-0.010	
0.010	-0.134	-0.024	
0.015	-0.142	-0.046	
0.020	-0.072	-0.071	
0.025	-0.140	-0.090	
0.030	-0.188	-0.107	
0.035	-0.107	-0.125	
0.040	-0.116	-0.134	
0.045	-0.197	-0.139	
0.050	-0.148	-0.146	
0.055	-0.095	-0.149	
0.060	-0.169	-0.147	
0.065	-0.148	-0.145	
0.070	-0.050	-0.142	
0.075	-0.107	-0.130	
0.080	-0.140	-0.119	
0.085	-0.047	-0.112	
0.090	-0.043	-0.100	
0.095	-0.130	-0.088	
0.100	-0.067	-0.083	
0.105	-0.002	-0.077	
0.110	-0.099	-0.068	
0.115	-0.089	-0.064	
0.120	0.017	-0.063	
0.125	-0.056	-0.055	
0.130	-0.105	-0.051	
0.135	-0.003	-0.052	
0.140	-0.005	-0.048	
0.145	-0.104	-0.043	
0.150	-0.060	-0.045	
0.155	-0.008	-0.048	
0.160	-0.110	-0.049	
0.165	-0.114	-0.057	
0.170	-0.029	-0.067	
0.175	-0.093	-0.072	
0.180	-0.154	-0.078	
0.185	-0.082	-0.089	
0.190	-0.098	-0.097	
0.195	-0.180	-0.104	
0.200	-0.137	-0.116	
0.205	-0.084	-0.125	
0.210	-0.160	-0.128	
0.215	-0.157	-0.132	
0.220	-0.070	-0.134	
0.225	-0.122	-0.130	
0.230	-0.166	-0.126	
0.235	-0.079	-0.126	
0.240	-0.078	-0.121	
0.245	-0.165	-0.115	
0.250	-0.139	-0.116	
0.255	-0.110	-0.120	
0.260	-0.162	-0.124	
0.265	-0.047	-0.126	
0.270	0.300	-0.101	
0.275	0.514	-0.021	
0.280	0.779	0.119	
0.285	1.155	0.315	
0.290	1.122	0.548	
0.295	0.707	0.750	
0.300	0.256	0.840	
0.305	-0.085	0.782	
0.310	-0.322	0.598	
0.315	-0.392	0.345	
0.320	-0.337	0.091	
0.325	-0.340	-0.116	
0.330	-0.337	-0.259	
0.335	-0.223	-0.338	
0.340	-0.186	-0.360	
0.345	-0.233	-0.342	
0.350	-0.169	-0.308	
0.355	-0.102	-0.266	
0.360	-0.165	-0.221	
0.365	-0.146	-0.184	
0.370	-0.046	-0.156	
0.375	-0.090	-0.128	
0.380	-0.131	-0.107	
0.385	-0.032	-0.095	
0.390	-0.011	-0.081	
0.395	-0.101	-0.066	
0.400	-0.024	-0.058	
0.405	0.076	-0.046	
0.410	-0.014	-0.027	
0.415	0.020	-0.009	
0.420	0.194	0.011	
0.425	0.155	0.045	
0.430	0.108	0.082	
0.435	0.261	0.114	
0.440	0.270	0.150	
0.445	0.142	0.184	
0.450	0.206	0.201	
0.455	0.262	0.210	
0.460	0.107	0.215	
0.465	0.076	0.203	
0.470	0.163	0.179	
0.475	0.044	0.155	
0.480	-0.064	0.123	
0.485	0.009	0.081	
0.490	-0.027	0.042	
0.495	-0.134	0.007	
0.500	-0.102	-0.030	
			
Vernier Format 2
ecg1.txt 10/20/2025 7:40:16
Run 2
Time	Potential	EKG	
T	P	E	
s	mV	mV	

0.000	0.258	0.012	
0.005	0.308	0.053	
0.010	0.200	0.114	
0.015	0.200	0.164	
0.020	0.271	0.199	
0.025	0.177	0.221	
0.030	0.096	0.225	
0.035	0.172	0.210	
0.040	0.134	0.191	
0.045	0.008	0.167	
0.050	0.044	0.133	
0.055	0.072	0.099	
0.060	-0.041	0.071	
0.065	-0.052	0.042	
0.070	0.006	0.013	
0.075	-0.067	-0.009	
0.080	-0.111	-0.029	
0.085	-0.044	-0.049	
0.090	-0.060	-0.061	
0.095	-0.125	-0.070	
0.100	-0.079	-0.079	
0.105	-0.037	-0.084	
0.110	-0.098	-0.082	
0.115	-0.082	-0.081	
0.120	0.008	-0.077	
0.125	-0.040	-0.066	
0.130	-0.060	-0.054	
0.135	0.047	-0.044	
0.140	0.047	-0.027	
0.145	-0.041	-0.009	
0.150	0.018	0.001	
0.155	0.075	0.009	
0.160	-0.014	0.018	
0.165	-0.003	0.021	
0.170	0.093	0.022	
0.175	0.015	0.028	
0.180	-0.040	0.029	
0.185	0.038	0.023	
0.190	0.023	0.019	
0.195	-0.070	0.014	
0.200	-0.031	0.002	
0.205	-0.008	-0.011	
0.210	-0.099	-0.022	
0.215	-0.101	-0.037	
0.220	-0.032	-0.053	
0.225	-0.085	-0.063	
0.230	-0.127	-0.071	
0.235	-0.063	-0.081	
0.240	-0.069	-0.085	
0.245	-0.122	-0.087	
0.250	-0.072	-0.089	
0.255	-0.029	-0.087	
0.260	-0.096	-0.081	
0.265	-0.093	-0.077	
0.270	-0.047	-0.076	
0.275	-0.110	-0.076	
0.280	-0.114	-0.079	
0.285	0.052	-0.079	
0.290	0.215	-0.055	
0.295	0.367	0.006	
0.300	0.716	0.112	
0.305	0.933	0.269	
0.310	0.773	0.452	
0.315	0.472	0.594	
0.320	0.114	0.639	
0.325	-0.188	0.567	
0.330	-0.320	0.400	
0.335	-0.305	0.192	
0.340	-0.300	-0.003	
0.345	-0.316	-0.154	
0.350	-0.236	-0.254	
0.355	-0.165	-0.300	
0.360	-0.192	-0.303	
0.365	-0.163	-0.281	
0.370	-0.093	-0.246	
0.375	-0.119	-0.206	
0.380	-0.137	-0.169	
0.385	-0.067	-0.141	
0.390	-0.064	-0.117	
0.395	-0.122	-0.098	
0.400	-0.075	-0.088	
0.405	-0.029	-0.081	
0.410	-0.093	-0.073	
0.415	-0.076	-0.069	
0.420	0.018	-0.065	
0.425	-0.029	-0.054	
0.430	-0.060	-0.043	
0.435	0.053	-0.034	
0.440	0.072	-0.018	
0.445	0.008	0.003	
0.450	0.099	0.021	
0.455	0.171	0.043	
0.460	0.078	0.070	
0.465	0.084	0.089	
0.470	0.178	0.102	
0.475	0.099	0.114	
0.480	0.017	0.117	
0.485	0.088	0.107	
0.490	0.053	0.094	
0.495	-0.056	0.076	
0.500	-0.027	0.050	
0.505	-0.002	0.022	
0.510	-0.090	-0.001	
0.515	-0.101	-0.025	
0.520	-0.044	-0.048	
0.525	-0.096	-0.064	
0.530	-0.136	-0.077	
0.535	-0.076	-0.089	
0.540	-0.087	-0.096	
0.545	-0.156	-0.101	
0.550	-0.114	-0.108	
0.555	-0.085	-0.113	
0.560	-0.154	-0.115	
0.565	-0.154	-0.120	
0.570	-0.089	-0.126	
0.575	-0.122	-0.126	
0.580	-0.143	-0.125	
0.585	-0.075	-0.124	
0.590	-0.067	-0.117	
0.595	-0.116	-0.107	
0.600	-0.067	-0.099	
0.605	-0.023	-0.090	
0.610	-0.098	-0.078	
0.615	-0.089	-0.072	
0.620	-0.008	-0.069	
0.625	-0.056	-0.062	
0.630	-0.102	-0.058	
0.635	-0.044	-0.059	
0.640	-0.055	-0.060	
0.645	-0.137	-0.063	
0.650	-0.105	-0.073	
0.655	-0.058	-0.083	
0.660	-0.136	-0.089	
0.665	-0.153	-0.098	
0.670	-0.108	-0.110	
0.675	-0.157	-0.119	
0.680	-0.194	-0.131	
0.685	-0.133	-0.143	
0.690	-0.131	-0.150	
0.695	-0.186	-0.153	
0.700	-0.153	-0.156	
0.705	-0.117	-0.157	
0.710	-0.171	-0.154	
0.715	-0.168	-0.153	
0.720	-0.108	-0.153	
0.725	-0.160	-0.150	
0.730	-0.203	-0.150	
0.735	-0.125	-0.154	
0.740	-0.064	-0.151	
0.745	-0.027	-0.135	
0.750	0.279	-0.095	
0.755	0.646	-0.003	
0.760	0.750	0.149	
0.765	0.761	0.331	
0.770	0.627	0.493	
0.775	0.107	0.579	
0.780	-0.213	0.544	
0.785	-0.279	0.398	
0.790	-0.339	0.202	
0.795	-0.396	0.006	
0.800	-0.335	-0.159	
0.805	-0.262	-0.273	
0.810	-0.277	-0.330	
0.815	-0.244	-0.347	
0.820	-0.163	-0.334	
0.825	-0.183	-0.301	
0.830	-0.206	-0.263	
0.835	-0.133	-0.229	
0.840	-0.130	-0.198	
0.845	-0.175	-0.172	
0.850	-0.122	-0.156	
0.855	-0.075	-0.142	
0.860	-0.131	-0.127	
0.865	-0.124	-0.118	
0.870	-0.052	-0.111	
0.875	-0.085	-0.102	
0.880	-0.108	-0.094	
0.885	-0.011	-0.087	
0.890	0.001	-0.073	
0.895	-0.060	-0.056	
0.900	0.020	-0.042	
0.905	0.120	-0.023	
0.910	0.043	0.005	
0.915	0.055	0.030	
0.920	0.169	0.051	
0.925	0.113	0.076	
0.930	0.035	0.094	
0.935	0.128	0.099	
0.940	0.117	0.103	
0.945	-0.009	0.102	
0.950	0.021	0.088	
0.955	0.052	0.069	
0.960	-0.067	0.050	
0.965	-0.076	0.023	
0.970	-0.008	-0.004	
0.975	-0.067	-0.024	
0.980	-0.113	-0.041	
0.985	-0.047	-0.058	
0.990	-0.064	-0.068	
0.995	-0.137	-0.075	
1.000	-0.099	-0.084	
1.005	-0.056	-0.092	
1.010	-0.130	-0.094	
1.015	-0.130	-0.099	
1.020	-0.053	-0.103	
1.025	-0.096	-0.101	
1.030	-0.134	-0.099	
1.035	-0.052	-0.099	
1.040	-0.035	-0.094	
1.045	-0.095	-0.083	
1.050	-0.034	-0.075	
1.055	0.035	-0.063	
1.060	-0.044	-0.046	
1.065	-0.037	-0.033	
1.070	0.064	-0.023	
1.075	0.012	-0.009	
1.080	-0.034	0.002	
1.085	0.055	0.007	
1.090	0.035	0.013	
1.095	-0.066	0.017	
1.100	-0.023	0.010	
1.105	0.020	0.000	
1.110	-0.075	-0.007	
1.115	-0.087	-0.019	
1.120	-0.023	-0.034	
1.125	-0.087	-0.046	
1.130	-0.142	-0.058	
1.135	-0.082	-0.075	
1.140	-0.090	-0.087	
1.145	-0.157	-0.097	
1.150	-0.116	-0.108	
1.155	-0.066	-0.114	
1.160	-0.128	-0.113	
1.165	-0.127	-0.113	
1.170	-0.046	-0.112	
1.175	-0.089	-0.104	
1.180	-0.140	-0.098	
1.185	-0.093	-0.099	
1.190	-0.099	-0.100	
1.195	-0.131	-0.102	
1.200	0.017	-0.100	
1.205	0.283	-0.072	
1.210	0.453	0.003	
1.215	0.753	0.129	
1.220	1.050	0.306	
1.225	0.948	0.512	
1.230	0.553	0.680	
1.235	0.143	0.739	
1.240	-0.154	0.663	
1.245	-0.323	0.481	
1.250	-0.334	0.250	
1.255	-0.288	0.032	
1.260	-0.303	-0.138	
1.265	-0.264	-0.249	
1.270	-0.171	-0.304	
1.275	-0.177	-0.311	
1.280	-0.194	-0.290	
1.285	-0.119	-0.258	
1.290	-0.099	-0.219	
1.295	-0.153	-0.181	
1.300	-0.108	-0.153	
1.305	-0.053	-0.130	
1.310	-0.113	-0.110	
1.315	-0.110	-0.098	
1.320	-0.020	-0.090	
1.325	-0.055	-0.079	
1.330	-0.095	-0.069	
1.335	-0.005	-0.063	
1.340	0.027	-0.052	
1.345	-0.044	-0.037	
1.350	0.030	-0.024	
1.355	0.134	-0.006	
1.360	0.058	0.020	
1.365	0.075	0.044	
1.370	0.212	0.067	
1.375	0.172	0.097	
1.380	0.111	0.125	
1.385	0.209	0.143	
1.390	0.206	0.160	
1.395	0.076	0.170	
1.400	0.102	0.165	
1.405	0.145	0.152	
1.410	0.015	0.136	
1.415	-0.018	0.111	
1.420	0.058	0.079	
1.425	-0.021	0.053	
1.430	-0.087	0.027	
1.435	-0.024	-0.001	
1.440	-0.027	-0.022	
1.445	-0.114	-0.037	
1.450	-0.095	-0.054	
1.455	-0.055	-0.069	
1.460	-0.131	-0.079	
1.465	-0.137	-0.090	
1.470	-0.070	-0.101	
1.475	-0.114	-0.106	
1.480	-0.154	-0.110	
1.485	-0.081	-0.114	
1.490	-0.063	-0.113	
1.495	-0.117	-0.107	
1.500	-0.070	-0.101	
1.505	-0.003	-0.091	
1.510	-0.070	-0.076	
1.515	-0.063	-0.065	
1.520	0.032	-0.054	
1.525	-0.021	-0.040	
1.530	-0.082	-0.030	
1.535	0.000	-0.028	
1.540	0.014	-0.025	
1.545	-0.069	-0.021	
1.550	-0.032	-0.022	
1.555	0.020	-0.024	
1.560	-0.072	-0.023	
1.565	-0.087	-0.028	
1.570	-0.018	-0.038	
1.575	-0.070	-0.045	
1.580	-0.128	-0.053	
1.585	-0.082	-0.066	
1.590	-0.090	-0.078	
1.595	-0.162	-0.089	
1.600	-0.139	-0.104	
1.605	-0.093	-0.116	
1.610	-0.153	-0.123	
1.615	-0.160	-0.129	
1.620	-0.093	-0.135	
1.625	-0.124	-0.134	
1.630	-0.166	-0.133	
1.635	-0.104	-0.133	
1.640	-0.093	-0.130	
1.645	-0.172	-0.126	
1.650	-0.160	-0.129	
1.655	-0.095	-0.133	
1.660	-0.081	-0.131	
1.665	0.075	-0.114	
1.670	0.479	-0.059	
1.675	0.785	0.062	
1.680	0.976	0.250	
1.685	1.098	0.473	
1.690	0.848	0.681	
1.695	0.184	0.795	
1.700	-0.159	0.753	
1.705	-0.271	0.575	
1.710	-0.387	0.331	
1.715	-0.392	0.083	
1.720	-0.305	-0.122	
1.725	-0.290	-0.260	
1.730	-0.294	-0.334	
1.735	-0.212	-0.359	
1.740	-0.186	-0.347	
1.745	-0.233	-0.315	
1.750	-0.194	-0.280	
1.755	-0.136	-0.246	
1.760	-0.178	-0.214	
1.765	-0.178	-0.189	
1.770	-0.108	-0.172	
1.775	-0.134	-0.156	
1.780	-0.163	-0.145	
1.785	-0.087	-0.137	
1.790	-0.067	-0.127	
1.795	-0.127	-0.115	
1.800	-0.081	-0.106	
1.805	-0.003	-0.096	
1.810	-0.063	-0.080	
1.815	-0.049	-0.065	
1.820	0.084	-0.050	
1.825	0.062	-0.025	
1.830	0.021	0.003	
1.835	0.160	0.028	
1.840	0.192	0.060	
1.845	0.062	0.093	
1.850	0.102	0.111	
1.855	0.160	0.119	
1.860	0.040	0.122	
1.865	-0.002	0.112	
1.870	0.062	0.091	
1.875	-0.023	0.069	
1.880	-0.099	0.041	
1.885	-0.046	0.008	
1.890	-0.055	-0.022	
1.895	-0.143	-0.046	
1.900	-0.127	-0.071	
1.905	-0.093	-0.093	
1.910	-0.165	-0.108	
1.915	-0.185	-0.124	
1.920	-0.127	-0.139	
1.925	-0.160	-0.149	
1.930	-0.203	-0.156	
1.935	-0.149	-0.164	
1.940	-0.137	-0.167	
1.945	-0.188	-0.166	
1.950	-0.153	-0.165	
1.955	-0.099	-0.162	
1.960	-0.149	-0.153	
1.965	-0.154	-0.146	
1.970	-0.076	-0.141	
1.975	-0.102	-0.131	
1.980	-0.140	-0.121	
1.985	-0.072	-0.115	
1.990	-0.058	-0.107	
1.995	-0.133	-0.098	
2.000	-0.101	-0.095	
2.005	-0.038	-0.093	
2.010	-0.105	-0.088	
2.015	-0.111	-0.086	
2.020	-0.041	-0.086	
2.025	-0.082	-0.083	
2.030	-0.140	-0.082	
2.035	-0.087	-0.087	
2.040	-0.078	-0.092	
2.045	-0.149	-0.095	
2.050	-0.131	-0.103	
2.055	-0.096	-0.111	
2.060	-0.166	-0.117	
2.065	-0.185	-0.127	
2.070	-0.116	-0.138	
2.075	-0.143	-0.144	
2.080	-0.191	-0.148	
2.085	-0.125	-0.152	
2.090	-0.107	-0.152	
2.095	-0.165	-0.147	
2.100	-0.137	-0.144	
2.105	-0.081	-0.139	
2.110	-0.145	-0.132	
2.115	-0.171	-0.129	
2.120	-0.108	-0.131	
2.125	-0.093	-0.130	
2.130	-0.024	-0.121	
2.135	0.312	-0.086	
2.140	0.703	0.008	
2.145	0.971	0.176	
2.150	1.204	0.404	
2.155	1.200	0.653	
2.160	0.666	0.852	
2.165	0.032	0.911	
2.170	-0.183	0.797	
2.175	-0.325	0.563	
2.180	-0.401	0.288	
2.185	-0.332	0.032	
2.190	-0.279	-0.162	
2.195	-0.294	-0.282	
2.200	-0.233	-0.340	
2.205	-0.159	-0.348	
2.210	-0.197	-0.322	
2.215	-0.191	-0.284	
2.220	-0.108	-0.245	
2.225	-0.124	-0.205	
2.230	-0.163	-0.171	
2.235	-0.095	-0.148	
2.240	-0.066	-0.129	
2.245	-0.124	-0.112	
2.250	-0.079	-0.101	
2.255	0.000	-0.090	
2.260	-0.069	-0.075	
2.265	-0.069	-0.063	
2.270	0.056	-0.052	
2.275	0.046	-0.034	
2.280	-0.008	-0.012	
2.285	0.130	0.009	
2.290	0.189	0.037	
2.295	0.111	0.073	
2.300	0.187	0.105	
2.305	0.299	0.137	
2.310	0.201	0.173	
2.315	0.165	0.199	
2.320	0.253	0.211	
2.325	0.187	0.218	
2.330	0.073	0.213	
2.335	0.146	0.194	
2.340	0.140	0.172	
2.345	-0.005	0.149	
2.350	0.004	0.116	
2.355	0.053	0.081	
2.360	-0.056	0.052	
2.365	-0.095	0.021	
2.370	-0.027	-0.011	
2.375	-0.081	-0.035	
2.380	-0.142	-0.056	
2.385	-0.084	-0.077	
2.390	-0.073	-0.090	
2.395	-0.145	-0.098	
2.400	-0.120	-0.105	
2.405	-0.061	-0.111	
2.410	-0.127	-0.110	
2.415	-0.142	-0.110	
2.420	-0.061	-0.112	
2.425	-0.090	-0.108	
2.430	-0.139	-0.104	
2.435	-0.067	-0.103	
2.440	-0.041	-0.098	
2.445	-0.116	-0.090	
2.450	-0.081	-0.085	
2.455	-0.015	-0.081	
2.460	-0.092	-0.073	
2.465	-0.107	-0.070	
2.470	-0.020	-0.071	
2.475	-0.047	-0.067	
2.480	-0.102	-0.063	
2.485	-0.032	-0.062	
2.490	-0.014	-0.059	
2.495	-0.098	-0.053	
2.500	-0.081	-0.054	
2.505	-0.027	-0.058	
2.510	-0.108	-0.060	
2.515	-0.125	-0.067	
2.520	-0.052	-0.077	
2.525	-0.101	-0.083	
2.530	-0.171	-0.090	
2.535	-0.119	-0.103	
2.540	-0.108	-0.114	
2.545	-0.172	-0.122	
2.550	-0.153	-0.131	
2.555	-0.098	-0.138	
2.560	-0.143	-0.139	
2.565	-0.160	-0.138	
2.570	-0.089	-0.138	
2.575	-0.114	-0.134	
2.580	-0.162	-0.129	
2.585	-0.116	-0.128	
2.590	-0.119	-0.128	
2.595	-0.172	-0.128	
2.600	-0.085	-0.130	
2.605	0.146	-0.116	
2.610	0.315	-0.064	
2.615	0.611	0.038	
2.620	0.979	0.197	
2.625	0.954	0.401	
2.630	0.623	0.590	
2.635	0.229	0.686	
2.640	-0.117	0.651	
2.645	-0.322	0.498	
2.650	-0.366	0.279	
2.655	-0.329	0.056	
2.660	-0.342	-0.127	
2.665	-0.316	-0.255	
2.670	-0.210	-0.325	
2.675	-0.191	-0.343	
2.680	-0.215	-0.325	
2.685	-0.140	-0.292	
2.690	-0.102	-0.249	
2.695	-0.160	-0.205	
2.700	-0.130	-0.171	
2.705	-0.066	-0.146	
2.710	-0.113	-0.123	
2.715	-0.127	-0.109	
2.720	-0.037	-0.100	
2.725	-0.058	-0.089	
2.730	-0.110	-0.080	
2.735	-0.029	-0.074	
2.740	0.012	-0.065	
2.745	-0.058	-0.052	
2.750	-0.008	-0.040	
2.755	0.107	-0.026	
2.760	0.046	-0.003	
2.765	0.037	0.020	
2.770	0.181	0.042	
2.775	0.152	0.070	
2.780	0.067	0.096	
2.785	0.163	0.112	
2.790	0.180	0.126	
2.795	0.046	0.136	
2.800	0.056	0.130	
2.805	0.113	0.116	
2.810	-0.008	0.101	
2.815	-0.050	0.076	
2.820	0.021	0.046	
2.825	-0.026	0.022	
2.830	-0.104	-0.001	
2.835	-0.056	-0.025	
2.840	-0.047	-0.045	
2.845	-0.133	-0.059	
2.850	-0.116	-0.075	
2.855	-0.066	-0.089	
2.860	-0.137	-0.097	
2.865	-0.157	-0.106	
2.870	-0.079	-0.115	
2.875	-0.111	-0.118	
2.880	-0.166	-0.120	
2.885	-0.113	-0.124	
2.890	-0.079	-0.125	
2.895	-0.146	-0.122	
2.900	-0.111	-0.120	
2.905	-0.037	-0.116	
2.910	-0.104	-0.105	
2.915	-0.111	-0.097	
2.920	-0.003	-0.091	
2.925	-0.027	-0.077	
2.930	-0.096	-0.064	
2.935	-0.020	-0.056	
2.940	0.014	-0.048	
2.945	-0.079	-0.038	
2.950	-0.058	-0.036	
2.955	0.011	-0.037	
2.960	-0.070	-0.035	
2.965	-0.101	-0.039	
2.970	-0.026	-0.047	
2.975	-0.061	-0.052	
2.980	-0.125	-0.058	
2.985	-0.064	-0.067	
2.990	-0.055	-0.074	
2.995	-0.142	-0.078	
3.000	-0.133	-0.087	
3.005	-0.081	-0.098	
3.010	-0.146	-0.106	
3.015	-0.171	-0.115	
3.020	-0.096	-0.126	
3.025	-0.114	-0.129	
3.030	-0.171	-0.130	
3.035	-0.117	-0.133	
3.040	-0.090	-0.133	
3.045	-0.156	-0.129	
3.050	-0.139	-0.128	
3.055	-0.079	-0.128	
3.060	-0.139	-0.124	
3.065	-0.143	-0.123	
3.070	0.012	-0.118	
3.075	0.152	-0.093	
3.080	0.293	-0.035	
3.085	0.655	0.064	
3.090	0.877	0.215	
3.095	0.724	0.395	
3.100	0.474	0.539	
3.105	0.136	0.594	
3.110	-0.194	0.537	
3.115	-0.319	0.383	
3.120	-0.300	0.185	
3.125	-0.314	-0.004	
3.130	-0.325	-0.154	
3.135	-0.238	-0.254	
3.140	-0.175	-0.302	
3.145	-0.210	-0.307	
3.150	-0.169	-0.288	
3.155	-0.087	-0.255	
3.160	-0.128	-0.213	
3.165	-0.151	-0.176	
3.170	-0.067	-0.148	
3.175	-0.078	-0.124	
3.180	-0.133	-0.106	
3.185	-0.066	-0.096	
3.190	-0.015	-0.086	
3.195	-0.102	-0.075	
3.200	-0.073	-0.069	
3.205	0.027	-0.063	
3.210	-0.043	-0.052	
3.215	-0.063	-0.042	
3.220	0.058	-0.035	
3.225	0.061	-0.019	
3.230	-0.003	-0.000	
3.235	0.119	0.017	
3.240	0.184	0.042	
3.245	0.068	0.072	
3.250	0.097	0.093	
3.255	0.192	0.107	
3.260	0.093	0.121	
3.265	0.029	0.124	
3.270	0.123	0.115	
3.275	0.067	0.106	
3.280	-0.049	0.091	
3.285	0.012	0.066	
3.290	0.030	0.042	
3.295	-0.082	0.022	
3.300	-0.078	-0.002	
3.305	-0.011	-0.025	
3.310	-0.087	-0.040	
3.315	-0.125	-0.054	
3.320	-0.050	-0.069	
3.325	-0.079	-0.078	
3.330	-0.149	-0.084	
3.335	-0.098	-0.094	
3.340	-0.069	-0.100	
3.345	-0.145	-0.103	
3.350	-0.128	-0.107	
3.355	-0.056	-0.111	
3.360	-0.117	-0.109	
3.365	-0.131	-0.107	
3.370	-0.040	-0.106	
3.375	-0.053	-0.098	
3.380	-0.114	-0.088	
3.385	-0.043	-0.082	
3.390	0.009	-0.073	
3.395	-0.078	-0.059	
3.400	-0.053	-0.051	
3.405	0.033	-0.045	
3.410	-0.041	-0.034	
3.415	-0.063	-0.028	
3.420	0.023	-0.027	
3.425	0.001	-0.022	
3.430	-0.089	-0.018	
3.435	-0.032	-0.023	
3.440	-0.006	-0.028	
3.445	-0.107	-0.032	
3.450	-0.096	-0.043	
3.455	-0.026	-0.056	
3.460	-0.099	-0.063	
3.465	-0.140	-0.072	
3.470	-0.079	-0.084	
3.475	-0.104	-0.093	
3.480	-0.168	-0.101	
3.485	-0.113	-0.112	
3.490	-0.082	-0.119	
3.495	-0.149	-0.120	
3.500	-0.133	-0.122	
3.505	-0.064	-0.123	
3.510	-0.122	-0.118	
3.515	-0.151	-0.115	
3.520	-0.075	-0.115	
3.525	-0.110	-0.113	
3.530	-0.180	-0.113	
3.535	-0.099	-0.118	
3.540	0.040	-0.115	
3.545	0.093	-0.089	
3.550	0.367	-0.032	
3.555	0.771	0.076	
3.560	0.855	0.242	
3.565	0.770	0.429	
3.570	0.614	0.581	
3.575	0.108	0.646	
3.580	-0.230	0.586	
3.585	-0.297	0.418	
3.590	-0.317	0.206	
3.595	-0.372	0.004	
3.600	-0.325	-0.161	
3.605	-0.232	-0.270	
3.610	-0.233	-0.321	
3.615	-0.229	-0.329	
3.620	-0.153	-0.312	
3.625	-0.151	-0.277	
3.630	-0.197	-0.239	
3.635	-0.140	-0.208	
3.640	-0.096	-0.181	
3.645	-0.157	-0.156	
3.650	-0.136	-0.141	
3.655	-0.055	-0.130	
3.660	-0.105	-0.116	
3.665	-0.130	-0.107	
3.670	-0.040	-0.101	
3.675	-0.046	-0.091	
3.680	-0.104	-0.080	
3.685	-0.024	-0.073	
3.690	0.047	-0.061	
3.695	-0.029	-0.042	
3.700	0.015	-0.024	
3.705	0.145	-0.005	
3.710	0.084	0.024	
3.715	0.052	0.050	
3.720	0.180	0.071	
3.725	0.160	0.094	
3.730	0.041	0.113	
3.735	0.111	0.118	
3.740	0.137	0.117	
3.745	-0.009	0.112	
3.750	-0.015	0.094	
3.755	0.061	0.069	
3.760	-0.041	0.047	
3.765	-0.102	0.021	
3.770	-0.037	-0.008	
3.775	-0.063	-0.032	
3.780	-0.134	-0.051	
3.785	-0.090	-0.071	
3.790	-0.069	-0.085	
3.795	-0.153	-0.094	
3.800	-0.153	-0.105	
3.805	-0.093	-0.117	
3.810	-0.143	-0.123	
3.815	-0.174	-0.129	
3.820	-0.102	-0.136	
3.825	-0.107	-0.136	
3.830	-0.162	-0.133	
3.835	-0.107	-0.132	
3.840	-0.064	-0.127	
3.845	-0.120	-0.118	
3.850	-0.093	-0.110	
3.855	-0.002	-0.100	
3.860	-0.061	-0.084	
3.865	-0.089	-0.070	
3.870	0.004	-0.061	
3.875	-0.011	-0.050	
3.880	-0.085	-0.040	
3.885	-0.021	-0.037	
3.890	0.023	-0.033	
3.895	-0.072	-0.028	
3.900	-0.058	-0.028	
3.905	0.018	-0.031	
3.910	-0.070	-0.031	
3.915	-0.114	-0.036	
3.920	-0.040	-0.048	
3.925	-0.064	-0.056	
3.930	-0.143	-0.065	
3.935	-0.107	-0.078	
3.940	-0.085	-0.090	
3.945	-0.168	-0.100	
3.950	-0.162	-0.114	
3.955	-0.104	-0.127	
3.960	-0.154	-0.134	
3.965	-0.183	-0.140	
3.970	-0.117	-0.147	
3.975	-0.127	-0.148	
3.980	-0.183	-0.147	
3.985	-0.136	-0.148	
3.990	-0.099	-0.147	
3.995	-0.169	-0.143	
4.000	-0.180	-0.143	
4.005	-0.116	-0.146	
4.010	-0.110	-0.145	
4.015	-0.012	-0.134	
4.020	0.360	-0.093	
4.025	0.701	0.009	
4.030	0.931	0.182	
4.035	1.146	0.404	
4.040	1.062	0.637	
4.045	0.485	0.807	
4.050	-0.044	0.834	
4.055	-0.197	0.702	
4.060	-0.332	0.472	
4.065	-0.389	0.214	
4.070	-0.306	-0.017	
4.075	-0.270	-0.187	
4.080	-0.279	-0.288	
4.085	-0.203	-0.332	
4.090	-0.151	-0.331	
4.095	-0.204	-0.302	
4.100	-0.180	-0.266	
4.105	-0.107	-0.230	
4.110	-0.146	-0.195	
4.115	-0.166	-0.168	
4.120	-0.084	-0.150	
4.125	-0.079	-0.132	
4.130	-0.137	-0.117	
4.135	-0.072	-0.107	
4.140	-0.008	-0.096	
4.145	-0.084	-0.081	
4.150	-0.056	-0.069	
4.155	0.055	-0.057	
4.160	0.008	-0.038	
4.165	-0.020	-0.019	
4.170	0.123	-0.002	
4.175	0.143	0.024	
4.180	0.070	0.054	
4.185	0.183	0.081	
4.190	0.251	0.110	
4.195	0.128	0.142	
4.200	0.146	0.162	
4.205	0.233	0.172	
4.210	0.119	0.179	
4.215	0.030	0.172	
4.220	0.113	0.151	
4.225	0.065	0.127	
4.230	-0.060	0.101	
4.235	-0.018	0.066	
4.240	0.006	0.032	
4.245	-0.096	0.005	
4.250	-0.098	-0.022	
4.255	-0.032	-0.047	
4.260	-0.101	-0.062	
4.265	-0.136	-0.075	
4.270	-0.058	-0.088	
4.275	-0.070	-0.092	
4.280	-0.140	-0.093	
4.285	-0.081	-0.097	
4.290	-0.031	-0.096	
4.295	-0.095	-0.088	
4.300	-0.076	-0.082	
4.305	0.023	-0.074	
4.310	-0.032	-0.060	
4.315	-0.066	-0.046	
4.320	0.035	-0.037	
4.325	0.038	-0.024	
4.330	-0.038	-0.010	
4.335	0.052	-0.000	
4.340	0.128	0.013	
4.345	0.040	0.034	
4.350	0.047	0.049	
4.355	0.157	0.061	
4.360	0.076	0.076	
4.365	0.018	0.084	
4.370	0.136	0.084	
4.375	0.131	0.088	
4.380	0.017	0.093	
4.385	0.079	0.089	
4.390	0.116	0.085	
4.395	-0.014	0.080	
4.400	-0.009	0.067	
4.405	0.073	0.050	
4.410	-0.020	0.038	
4.415	-0.078	0.023	
4.420	-0.011	0.003	
4.425	-0.041	-0.014	
4.430	-0.114	-0.030	
4.435	-0.061	-0.047	
4.440	-0.014	-0.058	
4.445	-0.085	-0.061	
4.450	-0.064	-0.063	
4.455	0.024	-0.061	
4.460	-0.040	-0.051	
4.465	-0.066	-0.042	
4.470	0.050	-0.036	
4.475	0.021	-0.024	
4.480	-0.081	-0.013	
4.485	0.011	-0.011	
4.490	0.206	-0.001	
4.495	0.328	0.038	
4.500	0.652	0.120	
4.505	1.169	0.268	
4.510	1.425	0.495	
4.515	1.439	0.767	
4.520	1.311	1.018	
4.525	0.718	1.174	
4.530	0.081	1.165	
4.535	-0.110	0.981	
4.540	-0.157	0.696	
4.545	-0.224	0.397	
4.550	-0.172	0.141	
4.555	-0.046	-0.039	
4.560	-0.035	-0.134	
4.565	-0.024	-0.163	
4.570	0.137	-0.144	
4.575	0.171	-0.089	
4.580	0.102	-0.019	
4.585	0.215	0.046	
4.590	0.309	0.109	
4.595	0.230	0.168	
4.600	0.288	0.215	
4.605	0.445	0.257	
4.610	0.413	0.303	
4.615	0.399	0.347	
4.620	0.555	0.386	
4.625	0.604	0.431	
4.630	0.549	0.481	
4.635	0.680	0.526	
4.640	0.791	0.576	
4.645	0.732	0.632	
4.650	0.808	0.685	
4.655	0.995	0.738	
4.660	0.988	0.803	
4.665	0.971	0.869	
4.670	1.123	0.927	
4.675	1.139	0.986	
4.680	1.043	1.038	
4.685	1.122	1.073	
4.690	1.174	1.097	
4.695	1.059	1.116	
4.700	1.058	1.120	
4.705	1.151	1.115	
4.710	1.067	1.111	
4.715	0.997	1.101	
4.720	1.090	1.085	
4.725	1.069	1.073	
4.730	0.960	1.062	
4.735	1.032	1.046	
4.740	1.094	1.035	
4.745	0.974	1.032	
4.750	0.989	1.027	
4.755	1.111	1.022	
4.760	1.062	1.028	
4.765	1.024	1.038	
4.770	1.169	1.049	
4.775	1.204	1.071	
4.780	1.145	1.102	
4.785	1.268	1.134	
4.790	1.369	1.173	
4.795	1.314	1.222	
4.800	1.375	1.268	
4.805	1.556	1.316	
4.810	1.558	1.375	
4.815	1.572	1.439	
4.820	1.764	1.503	
4.825	1.846	1.578	
4.830	1.834	1.659	
4.835	1.995	1.740	
4.840	2.159	1.827	
4.845	2.146	1.923	
4.850	2.265	2.017	
4.855	2.485	2.114	
4.860	2.515	2.221	
4.865	2.569	2.329	
4.870	2.782	2.434	
4.875	2.892	2.545	
4.880	2.899	2.659	
4.885	3.064	2.766	
4.890	3.067	2.867	
4.895	3.066	2.953	
4.900	3.066	3.016	
4.905	3.064	3.056	
4.910	3.063	3.078	
4.915	3.063	3.085	
4.920	3.061	3.085	
4.925	3.058	3.080	
4.930	3.060	3.074	
4.935	3.058	3.068	
4.940	3.055	3.063	
4.945	3.053	3.059	
4.950	3.052	3.056	
4.955	3.050	3.054	
4.960	3.047	3.052	
4.965	3.049	3.051	
4.970	3.044	3.049	
4.975	3.041	3.048	
4.980	3.040	3.046	
4.985	3.034	3.044	
4.990	3.029	3.041	
4.995	3.026	3.037	
5.000	3.027	3.034	
5.005	3.029	3.031	
5.010	3.029	3.029	
5.015	3.034	3.028	
5.020	3.029	3.028	
5.025	3.029	3.029	
5.030	3.026	3.029	
5.035	3.024	3.029	
5.040	3.021	3.027	
5.045	3.021	3.026	
5.050	3.020	3.024	
5.055	3.020	3.023	
5.060	3.020	3.021	
5.065	3.020	3.021	
5.070	3.023	3.020	
5.075	3.021	3.020	
5.080	3.021	3.021	
5.085	3.023	3.021	
5.090	3.023	3.021	
5.095	3.020	3.022	
5.100	3.021	3.022	
5.105	3.020	3.022	
5.110	3.020	3.021	
5.115	3.021	3.021	
5.120	3.023	3.021	
5.125	3.023	3.021	
5.130	3.023	3.022	
5.135	3.024	3.022	
5.140	3.021	3.023	
5.145	3.021	3.023	
5.150	3.021	3.023	
5.155	3.021	3.022	
5.160	3.021	3.022	
5.165	3.024	3.022	
5.170	3.023	3.022	
5.175	3.024	3.022	
5.180	3.024	3.023	
5.185	3.021	3.023	
5.190	3.023	3.023	
5.195	3.021	3.023	
5.200	3.023	3.023	
5.205	3.024	3.023	
5.210	3.023	3.023	
5.215	3.029	3.023	
5.220	3.038	3.025	
5.225	3.046	3.028	
5.230	3.053	3.033	
5.235	3.063	3.039	
5.240	2.418	3.016	
5.245	1.511	2.883	
5.250	0.719	2.569	
5.255	0.215	2.087	
5.260	-0.180	1.509	
5.265	-0.552	0.914	
5.270	-0.814	0.356	
5.275	-0.994	-0.130	
5.280	-0.994	-0.521	
5.285	-0.994	-0.800	
5.290	-0.996	-0.973	
5.295	-0.996	-1.063	
5.300	-0.996	-1.094	
5.305	-0.996	-1.091	
5.310	-0.996	-1.072	
5.315	-0.996	-1.049	
5.320	-0.996	-1.027	
5.325	-0.997	-1.011	
5.330	-0.997	-1.000	
5.335	-0.997	-0.995	
5.340	-0.997	-0.992	
5.345	-0.997	-0.992	
5.350	-0.997	-0.993	
5.355	-0.997	-0.994	
5.360	-0.997	-0.995	
5.365	-0.997	-0.996	
5.370	-0.996	-0.997	
5.375	-0.997	-0.997	
5.380	-0.997	-0.997	
5.385	-0.997	-0.997	
5.390	-0.997	-0.997	
5.395	-0.997	-0.997	
5.400	-0.997	-0.997	
5.405	-0.997	-0.997	
5.410	-0.997	-0.997	
5.415	-0.997	-0.997	
5.420	-0.997	-0.997	
5.425	-0.997	-0.997	
5.430	-0.997	-0.997	
5.435	-0.997	-0.997	
5.440	-0.997	-0.997	
5.445	-0.997	-0.997	
5.450	-0.997	-0.997	
5.455	-0.997	-0.997	
5.460	-0.997	-0.997	
5.465	-0.997	-0.997	
5.470	-0.997	-0.997	
5.475	-0.996	-0.997	
5.480	-0.997	-0.997	
5.485	-0.997	-0.997	
5.490	-0.997	-0.997	
5.495	-0.997	-0.997	
5.500	-0.997	-0.997	
5.505	-0.997	-0.997	
5.510	-0.997	-0.997	
5.515	-0.997	-0.997	
5.520	-0.996	-0.997	
5.525	-0.997	-0.997	
5.530	-0.997	-0.997	
5.535	-0.997	-0.997	
5.540	-0.997	-0.997	
5.545	-0.997	-0.997	
5.550	-0.997	-0.997	
5.555	-0.997	-0.997	
5.560	-0.999	-0.997	
5.565	-0.997	-0.997	
5.570	-0.997	-0.997	
5.575	-0.997	-0.997	
5.580	-0.997	-0.997	
5.585	-0.997	-0.997	
5.590	-0.997	-0.997	
5.595	-0.997	-0.997	
5.600	-0.997	-0.997	
5.605	-0.997	-0.997	
5.610	-0.997	-0.997	
5.615	-0.997	-0.997	
5.620	-0.997	-0.997	
5.625	-0.996	-0.997	
5.630	-0.997	-0.997	
5.635	-0.997	-0.997	
5.640	-0.997	-0.997	
5.645	-0.997	-0.997	
5.650	-0.997	-0.997	
5.655	-0.997	-0.997	
5.660	-0.997	-0.997	
5.665	-0.997	-0.997	
5.670	-0.997	-0.997	
5.675	-0.997	-0.997	
5.680	-0.997	-0.997	
5.685	-0.997	-0.997	
5.690	-0.997	-0.997	
5.695	-0.997	-0.997	
5.700	-0.997	-0.997	
5.705	-0.997	-0.997	
5.710	-0.997	-0.997	
5.715	-0.997	-0.997	
5.720	-0.997	-0.997	
5.725	-0.997	-0.997	
5.730	-0.997	-0.997	
5.735	-0.997	-0.997	
5.740	-0.997	-0.997	
5.745	-0.997	-0.997	
5.750	-0.997	-0.997	
5.755	-0.997	-0.997	
5.760	-0.997	-0.997	
5.765	-0.997	-0.997	
5.770	-0.997	-0.997	
5.775	-0.997	-0.997	
5.780	-0.996	-0.997	
5.785	-0.996	-0.997	
5.790	-0.996	-0.996	
5.795	-0.996	-0.996	
5.800	-0.996	-0.996	
5.805	-0.996	-0.996	
5.810	-0.996	-0.996	
5.815	-0.996	-0.996	
5.820	-0.996	-0.996	
5.825	-0.996	-0.996	
5.830	-0.996	-0.996	
5.835	-0.996	-0.996	
5.840	-0.996	-0.996	
5.845	-0.996	-0.996	
5.850	-0.996	-0.996	
5.855	-0.994	-0.996	
5.860	-0.996	-0.995	
5.865	-0.996	-0.995	
5.870	-0.996	-0.995	
5.875	-0.996	-0.995	
5.880	-0.997	-0.995	
5.885	-0.997	-0.996	
5.890	-0.997	-0.996	
5.895	-0.996	-0.996	
5.900	-0.996	-0.997	
5.905	-0.996	-0.996	
5.910	-0.996	-0.996	
5.915	-0.996	-0.996	
5.920	-0.996	-0.996	
5.925	-0.994	-0.996	
5.930	-0.996	-0.995	
5.935	-0.996	-0.995	
5.940	-0.994	-0.995	
5.945	-0.956	-0.993	
5.950	-0.977	-0.988	
5.955	-0.994	-0.983	
5.960	-0.996	-0.982	
5.965	-0.996	-0.984	
5.970	-0.996	-0.987	
5.975	-0.996	-0.990	
5.980	-0.996	-0.993	
5.985	-0.996	-0.994	
5.990	-0.996	-0.996	
5.995	-0.996	-0.996	
6.000	-0.968	-0.995	
6.005	-0.826	-0.984	
6.010	-0.764	-0.953	
6.015	-0.721	-0.904	
6.020	-0.582	-0.842	
6.025	-0.477	-0.765	
6.030	-0.444	-0.677	
6.035	-0.329	-0.587	
6.040	-0.177	-0.494	
6.045	-0.127	-0.394	
6.050	0.009	-0.292	
6.055	0.296	-0.179	
6.060	0.415	-0.044	
6.065	0.482	0.105	
6.070	0.747	0.257	
6.075	0.939	0.419	
6.080	0.960	0.586	
6.085	1.162	0.746	
6.090	1.399	0.903	
6.095	1.447	1.063	
6.100	1.535	1.214	
6.105	1.755	1.354	
6.110	1.799	1.489	
6.115	1.776	1.609	
6.120	1.944	1.708	
6.125	2.029	1.796	
6.130	1.947	1.875	
6.135	2.020	1.934	
6.140	2.156	1.982	
6.145	2.081	2.028	
6.150	2.067	2.063	
6.155	2.210	2.088	
6.160	2.206	2.116	
6.165	2.122	2.143	
6.170	2.239	2.162	
6.175	2.284	2.182	
6.180	2.172	2.203	
6.185	2.230	2.216	
6.190	2.337	2.227	
6.195	2.249	2.244	
6.200	2.224	2.256	
6.205	2.364	2.264	
6.210	2.340	2.278	
6.215	2.259	2.294	
6.220	2.383	2.305	
6.225	2.418	2.321	
6.230	2.305	2.339	
6.235	2.346	2.349	
6.240	2.450	2.357	
6.245	2.346	2.368	
6.250	2.314	2.373	
6.255	2.428	2.371	
6.260	2.378	2.373	
6.265	2.265	2.372	
6.270	2.332	2.360	
6.275	2.340	2.347	
6.280	2.201	2.332	
6.285	2.197	2.307	
6.290	2.259	2.277	
6.295	2.119	2.250	
6.300	2.026	2.215	
6.305	2.084	2.169	
6.310	1.994	2.124	
6.315	1.849	2.076	
6.320	1.901	2.019	
6.325	1.867	1.965	
6.330	1.663	1.913	
6.335	1.617	1.849	
6.340	1.651	1.778	
6.345	1.486	1.710	
6.350	1.375	1.638	
6.355	1.448	1.563	
6.360	1.375	1.498	
6.365	1.244	1.440	
6.370	1.340	1.386	
6.375	1.369	1.348	
6.380	1.252	1.326	
6.385	1.268	1.308	
6.390	1.312	1.293	
6.395	1.154	1.280	
6.400	1.119	1.256	
6.405	1.345	1.231	
6.410	1.506	1.236	
6.415	1.691	1.290	
6.420	2.154	1.403	
6.425	2.468	1.591	
6.430	2.367	1.825	
6.435	2.137	2.035	
6.440	1.646	2.145	
6.445	1.014	2.100	
6.450	0.642	1.890	
6.455	0.605	1.572	
6.460	0.543	1.236	
6.465	0.498	0.943	
6.470	0.680	0.728	
6.475	0.799	0.610	
6.480	0.721	0.578	
6.485	0.785	0.595	
6.490	0.915	0.642	
6.495	0.840	0.705	
6.500	0.799	0.763	
6.505	0.928	0.806	
6.510	0.899	0.842	
6.515	0.817	0.868	
6.520	0.922	0.880	
6.525	0.966	0.891	
6.530	0.869	0.904	
6.535	0.918	0.910	
6.540	1.029	0.918	
6.545	0.933	0.932	
6.550	0.907	0.943	
6.555	1.052	0.949	
6.560	1.043	0.964	
6.565	0.963	0.983	
6.570	1.091	0.998	
6.575	1.155	1.020	
6.580	1.044	1.047	
6.585	1.082	1.067	
6.590	1.177	1.082	
6.595	1.050	1.097	
6.600	0.948	1.097	
6.605	1.027	1.078	
6.610	0.951	1.052	
6.615	0.803	1.017	
6.620	0.852	0.970	
6.625	0.843	0.922	
6.630	0.669	0.876	
6.635	0.658	0.823	
6.640	0.726	0.770	
6.645	0.584	0.726	
6.650	0.498	0.681	
6.655	0.587	0.633	
6.660	0.518	0.594	
6.665	0.383	0.557	
6.670	0.456	0.517	
6.675	0.488	0.484	
6.680	0.338	0.460	
6.685	0.355	0.433	
6.690	0.457	0.410	
6.695	0.358	0.398	
6.700	0.306	0.387	
6.705	0.427	0.374	
6.710	0.387	0.371	
6.715	0.274	0.368	
6.720	0.366	0.359	
6.725	0.416	0.354	
6.730	0.297	0.355	
6.735	0.315	0.351	
6.740	0.416	0.347	
6.745	0.312	0.348	
6.750	0.261	0.344	
6.755	0.367	0.334	
6.760	0.337	0.329	
6.765	0.221	0.324	
6.770	0.290	0.311	
6.775	0.308	0.298	
6.780	0.172	0.287	
6.785	0.172	0.266	
6.790	0.241	0.242	
6.795	0.114	0.221	
6.800	0.053	0.194	
6.805	0.137	0.161	
6.810	0.085	0.134	
6.815	-0.023	0.110	
6.820	0.014	0.080	
6.825	0.030	0.052	
6.830	-0.058	0.029	
6.835	-0.047	0.007	
6.840	0.018	-0.012	
6.845	-0.040	-0.021	
6.850	-0.066	-0.028	
6.855	0.014	-0.033	
6.860	0.009	-0.031	
6.865	-0.044	-0.025	
6.870	0.009	-0.020	
6.875	0.024	-0.015	
6.880	-0.073	-0.010	
6.885	-0.067	-0.014	
6.890	0.050	-0.021	
6.895	0.133	-0.013	
6.900	0.348	0.024	
6.905	0.857	0.115	
6.910	1.227	0.291	
6.915	1.316	0.537	
6.920	1.306	0.797	
6.925	0.905	1.001	
6.930	0.169	1.068	
6.935	-0.119	0.956	
6.940	-0.186	0.713	
6.945	-0.265	0.427	
6.950	-0.271	0.162	
6.955	-0.162	-0.043	
6.960	-0.125	-0.169	
6.965	-0.142	-0.226	
6.970	-0.061	-0.233	
6.975	-0.011	-0.207	
6.980	-0.060	-0.162	
6.985	-0.031	-0.118	
6.990	0.058	-0.077	
6.995	-0.005	-0.039	
7.000	-0.020	-0.012	
7.005	0.087	0.006	
7.010	0.073	0.024	
7.015	0.001	0.039	
7.020	0.072	0.046	
7.025	0.139	0.054	
7.030	0.062	0.067	
7.035	0.097	0.078	
7.040	0.229	0.091	
7.045	0.166	0.114	
7.050	0.149	0.137	
7.055	0.302	0.158	
7.060	0.312	0.189	
7.065	0.244	0.223	
7.070	0.344	0.251	
7.075	0.401	0.281	
7.080	0.270	0.308	
7.085	0.274	0.321	
7.090	0.354	0.322	
7.095	0.206	0.318	
7.100	0.125	0.298	
7.105	0.198	0.264	
7.110	0.148	0.229	
7.115	0.029	0.194	
7.120	0.067	0.153	
7.125	0.082	0.116	
7.130	-0.020	0.086	
7.135	-0.023	0.057	
7.140	0.029	0.030	
7.145	-0.044	0.011	
7.150	-0.079	-0.007	
7.155	-0.017	-0.025	
7.160	-0.034	-0.036	
7.165	-0.095	-0.043	
7.170	-0.050	-0.051	
7.175	-0.018	-0.055	
7.180	-0.082	-0.055	
7.185	-0.072	-0.057	
7.190	-0.008	-0.058	
7.195	-0.056	-0.054	
7.200	-0.084	-0.052	
7.205	-0.009	-0.052	
7.210	-0.014	-0.048	
7.215	-0.073	-0.042	
7.220	-0.026	-0.040	
7.225	0.012	-0.037	
7.230	-0.053	-0.031	
7.235	-0.044	-0.029	
7.240	0.026	-0.028	
7.245	-0.026	-0.023	
7.250	-0.060	-0.020	
7.255	0.014	-0.021	
7.260	0.004	-0.019	
7.265	-0.064	-0.016	
7.270	-0.034	-0.019	
7.275	0.003	-0.023	
7.280	-0.067	-0.025	
7.285	-0.081	-0.031	
7.290	-0.023	-0.040	
7.295	-0.082	-0.047	
7.300	-0.133	-0.056	
7.305	-0.081	-0.070	
7.310	-0.095	-0.082	
7.315	-0.153	-0.092	
7.320	-0.108	-0.104	
7.325	-0.081	-0.111	
7.330	-0.143	-0.113	
7.335	-0.134	-0.116	
7.340	-0.072	-0.119	
7.345	-0.120	-0.117	
7.350	-0.148	-0.115	
7.355	-0.076	-0.116	
7.360	-0.084	-0.113	
7.365	-0.160	-0.109	
7.370	-0.119	-0.111	
7.375	-0.043	-0.112	
7.380	-0.026	-0.102	
7.385	0.169	-0.075	
7.390	0.593	-0.006	
7.395	0.799	0.128	
7.400	0.817	0.309	
7.405	0.768	0.489	
7.410	0.332	0.611	
7.415	-0.113	0.619	
7.420	-0.238	0.503	
7.425	-0.294	0.312	
7.430	-0.366	0.106	
7.435	-0.337	-0.078	
7.440	-0.241	-0.213	
7.445	-0.239	-0.289	
7.450	-0.232	-0.317	
7.455	-0.140	-0.311	
7.460	-0.131	-0.281	
7.465	-0.171	-0.240	
7.470	-0.119	-0.203	
7.475	-0.078	-0.170	
7.480	-0.136	-0.141	
7.485	-0.125	-0.123	
7.490	-0.058	-0.112	
7.495	-0.095	-0.101	
7.500	-0.124	-0.094	
7.505	-0.047	-0.091	
7.510	-0.043	-0.085	
7.515	-0.096	-0.077	
7.520	-0.043	-0.072	
7.525	0.012	-0.064	
7.530	-0.047	-0.051	
7.535	-0.037	-0.041	
7.540	0.062	-0.031	
7.545	0.023	-0.015	
7.550	-0.008	-0.000	
7.555	0.099	0.012	
7.560	0.091	0.029	
7.565	-0.002	0.045	
7.570	0.037	0.050	
7.575	0.058	0.049	
7.580	-0.037	0.045	
7.585	-0.055	0.032	
7.590	-0.011	0.012	
7.595	-0.063	-0.006	
7.600	-0.114	-0.026	
7.605	-0.061	-0.047	
7.610	-0.073	-0.063	
7.615	-0.128	-0.075	
7.620	-0.104	-0.087	
7.625	-0.087	-0.096	
7.630	-0.163	-0.103	
7.635	-0.171	-0.115	
7.640	-0.114	-0.128	
7.645	-0.156	-0.136	
7.650	-0.188	-0.144	
7.655	-0.125	-0.151	
7.660	-0.134	-0.153	
7.665	-0.194	-0.153	
7.670	-0.149	-0.156	
7.675	-0.099	-0.156	
7.680	-0.153	-0.150	
7.685	-0.146	-0.145	
7.690	-0.079	-0.140	
7.695	-0.119	-0.131	
7.700	-0.146	-0.124	
7.705	-0.072	-0.120	
7.710	-0.061	-0.112	
7.715	-0.128	-0.102	
7.720	-0.089	-0.097	
7.725	-0.056	-0.094	
7.730	-0.117	-0.089	
7.735	-0.117	-0.089	
7.740	-0.058	-0.092	
7.745	-0.093	-0.091	
7.750	-0.128	-0.091	
7.755	-0.050	-0.093	
7.760	-0.072	-0.090	
7.765	-0.146	-0.088	
7.770	-0.122	-0.093	
7.775	-0.096	-0.101	
7.780	-0.163	-0.108	
7.785	-0.172	-0.119	
7.790	-0.119	-0.132	
7.795	-0.159	-0.140	
7.800	-0.200	-0.147	
7.805	-0.140	-0.156	
7.810	-0.137	-0.160	
7.815	-0.191	-0.160	
7.820	-0.148	-0.162	
7.825	-0.116	-0.160	
7.830	-0.175	-0.156	
7.835	-0.166	-0.154	
7.840	-0.105	-0.153	
7.845	-0.157	-0.149	
7.850	-0.206	-0.148	
7.855	-0.120	-0.152	
7.860	-0.049	-0.149	
7.865	-0.012	-0.131	
7.870	0.287	-0.088	
7.875	0.649	0.006	
7.880	0.718	0.157	
7.885	0.680	0.330	
7.890	0.505	0.473	
7.895	0.004	0.534	
7.900	-0.239	0.478	
7.905	-0.293	0.327	
7.910	-0.339	0.139	
7.915	-0.392	-0.042	
7.920	-0.320	-0.190	
7.925	-0.242	-0.286	
7.930	-0.265	-0.330	
7.935	-0.235	-0.338	
7.940	-0.153	-0.320	
7.945	-0.178	-0.285	
7.950	-0.206	-0.248	
7.955	-0.137	-0.218	
7.960	-0.128	-0.191	
7.965	-0.178	-0.169	
7.970	-0.133	-0.155	
7.975	-0.082	-0.144	
7.980	-0.145	-0.133	
7.985	-0.143	-0.126	
7.990	-0.064	-0.123	
7.995	-0.090	-0.115	
8.000	-0.119	-0.107	
8.005	-0.049	-0.100	
8.010	-0.032	-0.090	
8.015	-0.087	-0.078	
8.020	-0.023	-0.068	
8.025	0.059	-0.054	
8.030	-0.015	-0.033	
8.035	-0.003	-0.016	
8.040	0.102	-0.001	
8.045	0.032	0.018	
8.050	-0.034	0.030	
8.055	0.040	0.030	
8.060	0.023	0.028	
8.065	-0.069	0.023	
8.070	-0.050	0.008	
8.075	-0.026	-0.010	
8.080	-0.108	-0.026	
8.085	-0.122	-0.046	
8.090	-0.069	-0.067	
8.095	-0.122	-0.083	
8.100	-0.169	-0.097	
8.105	-0.117	-0.113	
8.110	-0.127	-0.125	
8.115	-0.195	-0.133	
8.120	-0.162	-0.144	
8.125	-0.127	-0.153	
8.130	-0.185	-0.157	
8.135	-0.192	-0.161	
8.140	-0.137	-0.166	
8.145	-0.168	-0.167	
8.150	-0.198	-0.168	
8.155	-0.131	-0.169	
8.160	-0.125	-0.166	
8.165	-0.180	-0.159	
8.170	-0.140	-0.156	
8.175	-0.084	-0.150	
8.180	-0.139	-0.140	
8.185	-0.137	-0.133	
8.190	-0.064	-0.126	
8.195	-0.102	-0.117	
8.200	-0.136	-0.109	
8.205	-0.067	-0.106	
8.210	-0.066	-0.100	
8.215	-0.128	-0.094	
8.220	-0.098	-0.093	
8.225	-0.049	-0.092	
8.230	-0.122	-0.090	
8.235	-0.131	-0.091	
8.240	-0.075	-0.097	
8.245	-0.124	-0.100	
8.250	-0.172	-0.106	
8.255	-0.117	-0.116	
8.260	-0.125	-0.125	
8.265	-0.197	-0.132	
8.270	-0.172	-0.143	
8.275	-0.136	-0.153	
8.280	-0.198	-0.160	
8.285	-0.201	-0.167	
8.290	-0.143	-0.174	
8.295	-0.172	-0.176	
8.300	-0.209	-0.177	
8.305	-0.145	-0.178	
8.310	-0.136	-0.175	
8.315	-0.198	-0.170	
8.320	-0.157	-0.168	
8.325	-0.130	-0.165	
8.330	-0.206	-0.162	
8.335	-0.203	-0.165	
8.340	-0.099	-0.169	
8.345	-0.038	-0.160	
8.350	0.090	-0.130	
8.355	0.521	-0.061	
8.360	0.837	0.076	
8.365	0.837	0.268	
8.370	0.774	0.465	
8.375	0.407	0.605	
8.380	-0.124	0.630	
8.385	-0.306	0.519	
8.390	-0.335	0.319	
8.395	-0.389	0.099	
8.400	-0.404	-0.097	
8.405	-0.303	-0.245	
8.410	-0.261	-0.331	
8.415	-0.288	-0.364	
8.420	-0.233	-0.362	
8.425	-0.177	-0.338	
8.430	-0.220	-0.300	
8.435	-0.215	-0.265	
8.440	-0.139	-0.235	
8.445	-0.160	-0.207	
8.450	-0.198	-0.185	
8.455	-0.131	-0.172	
8.460	-0.119	-0.161	
8.465	-0.175	-0.151	
8.470	-0.133	-0.146	
8.475	-0.079	-0.140	
8.480	-0.120	-0.131	
8.485	-0.117	-0.122	
8.490	-0.032	-0.113	
8.495	-0.056	-0.099	
8.500	-0.082	-0.084	
8.505	0.011	-0.071	
8.510	0.046	-0.052	
8.515	-0.023	-0.030	
8.520	0.035	-0.012	
8.525	0.113	0.007	
8.530	0.009	0.027	
8.535	-0.011	0.038	
8.540	0.076	0.039	
8.545	0.003	0.039	
8.550	-0.078	0.032	
8.555	-0.026	0.014	
8.560	-0.029	-0.004	
8.565	-0.122	-0.022	
8.570	-0.105	-0.044	
8.575	-0.070	-0.066	
8.580	-0.145	-0.082	
8.585	-0.163	-0.099	
8.590	-0.110	-0.116	
8.595	-0.153	-0.128	
8.600	-0.207	-0.138	
8.605	-0.156	-0.152	
8.610	-0.148	-0.161	
8.615	-0.207	-0.166	
8.620	-0.177	-0.172	
8.625	-0.128	-0.175	
8.630	-0.180	-0.173	
8.635	-0.192	-0.171	
8.640	-0.125	-0.170	
8.645	-0.145	-0.166	
8.650	-0.182	-0.160	
8.655	-0.117	-0.157	
8.660	-0.099	-0.150	
8.665	-0.154	-0.141	
8.670	-0.117	-0.134	
8.675	-0.070	-0.128	
8.680	-0.127	-0.118	
8.685	-0.127	-0.113	
8.690	-0.052	-0.109	
8.695	-0.096	-0.102	
8.700	-0.142	-0.098	
8.705	-0.078	-0.099	
8.710	-0.064	-0.098	
8.715	-0.134	-0.095	
8.720	-0.104	-0.096	
8.725	-0.058	-0.097	
8.730	-0.133	-0.096	
8.735	-0.153	-0.100	
8.740	-0.095	-0.108	
8.745	-0.128	-0.114	
8.750	-0.182	-0.120	
8.755	-0.136	-0.130	
8.760	-0.139	-0.138	
8.765	-0.210	-0.145	
8.770	-0.186	-0.157	
8.775	-0.139	-0.166	
8.780	-0.186	-0.171	
8.785	-0.195	-0.174	
8.790	-0.133	-0.176	
8.795	-0.156	-0.173	
8.800	-0.198	-0.169	
8.805	-0.139	-0.168	
8.810	-0.124	-0.164	
8.815	-0.189	-0.158	
8.820	-0.175	-0.158	
8.825	-0.140	-0.160	
8.830	-0.160	-0.159	
8.835	-0.070	-0.154	
8.840	0.270	-0.125	
8.845	0.605	-0.038	
8.850	0.902	0.122	
8.855	1.186	0.344	
8.860	1.101	0.591	
8.865	0.527	0.785	
8.870	-0.012	0.834	
8.875	-0.209	0.718	
8.880	-0.372	0.491	
8.885	-0.424	0.225	
8.890	-0.351	-0.019	
8.895	-0.334	-0.203	
8.900	-0.332	-0.319	
8.905	-0.250	-0.374	
8.910	-0.218	-0.381	
8.915	-0.256	-0.357	
8.920	-0.217	-0.324	
8.925	-0.159	-0.286	
8.930	-0.206	-0.249	
8.935	-0.207	-0.221	
8.940	-0.133	-0.201	
8.945	-0.149	-0.183	
8.950	-0.188	-0.169	
8.955	-0.113	-0.160	
8.960	-0.090	-0.149	
8.965	-0.145	-0.137	
8.970	-0.107	-0.128	
8.975	-0.040	-0.118	
8.980	-0.096	-0.105	
8.985	-0.087	-0.093	
8.990	0.026	-0.082	
8.995	0.021	-0.062	
9.000	-0.018	-0.038	
9.005	0.110	-0.015	
9.010	0.161	0.016	
9.015	0.061	0.051	
9.020	0.099	0.076	
9.025	0.178	0.095	
9.030	0.058	0.110	
9.035	0.009	0.111	
9.040	0.091	0.099	
9.045	0.003	0.084	
9.050	-0.084	0.061	
9.055	-0.040	0.030	
9.060	-0.040	-0.001	
9.065	-0.131	-0.027	
9.070	-0.124	-0.055	
9.075	-0.085	-0.080	
9.080	-0.156	-0.098	
9.085	-0.180	-0.115	
9.090	-0.124	-0.132	
9.095	-0.151	-0.143	
9.100	-0.201	-0.151	
9.105	-0.145	-0.159	
9.110	-0.125	-0.162	
9.115	-0.180	-0.160	
9.120	-0.157	-0.159	
9.125	-0.108	-0.157	
9.130	-0.157	-0.152	
9.135	-0.172	-0.149	
9.140	-0.110	-0.148	
9.145	-0.131	-0.144	
9.150	-0.178	-0.141	
9.155	-0.124	-0.142	
9.160	-0.102	-0.140	
9.165	-0.162	-0.136	
9.170	-0.136	-0.135	
9.175	-0.078	-0.133	
9.180	-0.136	-0.127	
9.185	-0.142	-0.124	
9.190	-0.063	-0.121	
9.195	-0.090	-0.114	
9.200	-0.140	-0.107	
9.205	-0.078	-0.105	
9.210	-0.055	-0.100	
9.215	-0.128	-0.094	
9.220	-0.110	-0.093	
9.225	-0.056	-0.094	
9.230	-0.130	-0.094	
9.235	-0.154	-0.098	
9.240	-0.096	-0.106	
9.245	-0.120	-0.112	
9.250	-0.172	-0.118	
9.255	-0.130	-0.127	
9.260	-0.128	-0.133	
9.265	-0.201	-0.139	
9.270	-0.178	-0.149	
9.275	-0.124	-0.158	
9.280	-0.177	-0.161	
9.285	-0.191	-0.163	
9.290	-0.124	-0.166	
9.295	-0.140	-0.163	
9.300	-0.186	-0.159	
9.305	-0.128	-0.157	
9.310	-0.107	-0.153	
9.315	-0.178	-0.146	
9.320	-0.174	-0.145	
9.325	-0.136	-0.149	
9.330	-0.162	-0.151	
9.335	-0.093	-0.150	
9.340	0.204	-0.128	
9.345	0.483	-0.057	
9.350	0.759	0.078	
9.355	1.082	0.272	
9.360	1.061	0.501	
9.365	0.596	0.696	
9.370	0.070	0.771	
9.375	-0.174	0.692	
9.380	-0.349	0.496	
9.385	-0.409	0.249	
9.390	-0.351	0.012	
9.395	-0.331	-0.174	
9.400	-0.334	-0.295	
9.405	-0.239	-0.357	
9.410	-0.195	-0.368	
9.415	-0.236	-0.346	
9.420	-0.198	-0.311	
9.425	-0.136	-0.272	
9.430	-0.175	-0.232	
9.435	-0.185	-0.201	
9.440	-0.102	-0.178	
9.445	-0.116	-0.157	
9.450	-0.160	-0.141	
9.455	-0.095	-0.131	
9.460	-0.069	-0.122	
9.465	-0.127	-0.111	
9.470	-0.084	-0.104	
9.475	-0.002	-0.095	
9.480	-0.056	-0.080	
9.485	-0.053	-0.065	
9.490	0.065	-0.051	
9.495	0.058	-0.028	
9.500	-0.003	-0.003	
9.505	0.116	0.017	
9.510	0.174	0.043	
9.515	0.072	0.072	
9.520	0.113	0.093	
9.525	0.192	0.109	
9.530	0.061	0.122	
9.535	0.043	0.123	
9.540	0.110	0.112	
9.545	0.023	0.099	
9.550	-0.095	0.078	
9.555	-0.050	0.042	
9.560	-0.034	0.007	
9.565	-0.122	-0.023	
9.570	-0.113	-0.051	
9.575	-0.063	-0.075	
9.580	-0.137	-0.090	
9.585	-0.172	-0.104	
9.590	-0.113	-0.119	
9.595	-0.145	-0.130	
9.600	-0.203	-0.139	
9.605	-0.146	-0.150	
9.610	-0.125	-0.156	
9.615	-0.194	-0.158	
9.620	-0.172	-0.161	
9.625	-0.114	-0.163	
9.630	-0.154	-0.160	
9.635	-0.166	-0.156	
9.640	-0.101	-0.152	
9.645	-0.119	-0.145	
9.650	-0.160	-0.137	
9.655	-0.095	-0.133	
9.660	-0.069	-0.126	
9.665	-0.136	-0.116	
9.670	-0.119	-0.111	
9.675	-0.043	-0.107	
9.680	-0.093	-0.099	
9.685	-0.116	-0.093	
9.690	-0.037	-0.089	
9.695	-0.066	-0.083	
9.700	-0.128	-0.078	
9.705	-0.064	-0.079	
9.710	-0.026	-0.078	
9.715	-0.105	-0.073	
9.720	-0.101	-0.073	
9.725	-0.041	-0.075	
9.730	-0.108	-0.076	
9.735	-0.148	-0.081	
9.740	-0.089	-0.091	
9.745	-0.101	-0.099	
9.750	-0.153	-0.105	
9.755	-0.116	-0.113	
9.760	-0.099	-0.118	
9.765	-0.174	-0.121	
9.770	-0.165	-0.129	
9.775	-0.107	-0.137	
9.780	-0.156	-0.140	
9.785	-0.175	-0.143	
9.790	-0.101	-0.146	
9.795	-0.113	-0.144	
9.800	-0.163	-0.138	
9.805	-0.105	-0.135	
9.810	-0.073	-0.129	
9.815	-0.145	-0.121	
9.820	-0.148	-0.118	
9.825	-0.104	-0.120	
9.830	-0.148	-0.122	
9.835	-0.120	-0.124	
9.840	0.101	-0.116	
9.845	0.309	-0.072	
9.850	0.515	0.019	
9.855	0.840	0.161	
9.860	0.892	0.344	
9.865	0.547	0.516	
9.870	0.120	0.603	
9.875	-0.105	0.566	
9.880	-0.281	0.426	
9.885	-0.363	0.231	
9.890	-0.314	0.032	
9.895	-0.296	-0.131	
9.900	-0.297	-0.243	
9.905	-0.206	-0.304	
9.910	-0.159	-0.317	
9.915	-0.204	-0.299	
9.920	-0.171	-0.269	
9.925	-0.099	-0.234	
9.930	-0.142	-0.198	
9.935	-0.159	-0.168	
9.940	-0.076	-0.147	
9.945	-0.084	-0.128	
9.950	-0.137	-0.113	
9.955	-0.075	-0.104	
9.960	-0.029	-0.095	
9.965	-0.101	-0.084	
9.970	-0.075	-0.077	
9.975	0.008	-0.071	
9.980	-0.053	-0.060	
9.985	-0.072	-0.051	
9.990	0.047	-0.044	
9.995	0.046	-0.030	
10.000	-0.012	-0.011	
10.005	0.105	0.006	
10.010	0.165	0.030	
10.015	0.052	0.059	
10.020	0.079	0.078	
10.025	0.171	0.091	
10.030	0.055	0.102	
10.035	-0.011	0.101	
10.040	0.067	0.087	
10.045	0.004	0.070	
10.050	-0.092	0.048	
10.055	-0.050	0.017	
10.060	-0.027	-0.011	
10.065	-0.113	-0.033	
10.070	-0.111	-0.054	
10.075	-0.060	-0.073	
10.080	-0.125	-0.085	
10.085	-0.153	-0.097	
10.090	-0.084	-0.108	
10.095	-0.111	-0.114	
10.100	-0.177	-0.118	
10.105	-0.133	-0.126	
10.110	-0.111	-0.132	
10.115	-0.178	-0.135	
10.120	-0.160	-0.141	
10.125	-0.090	-0.145	
10.130	-0.137	-0.142	
10.135	-0.157	-0.139	
10.140	-0.085	-0.136	
10.145	-0.093	-0.129	
10.150	-0.146	-0.121	
10.155	-0.090	-0.117	
10.160	-0.049	-0.111	
10.165	-0.111	-0.101	
10.170	-0.090	-0.094	
10.175	-0.008	-0.087	
10.180	-0.061	-0.075	
10.185	-0.092	-0.066	
10.190	-0.006	-0.061	
10.195	-0.021	-0.053	
10.200	-0.090	-0.045	
10.205	-0.032	-0.044	
10.210	0.026	-0.041	
10.215	-0.066	-0.035	
10.220	-0.066	-0.033	
10.225	-0.002	-0.035	
10.230	-0.076	-0.036	
10.235	-0.122	-0.043	
10.240	-0.061	-0.056	
10.245	-0.082	-0.067	
10.250	-0.151	-0.078	
10.255	-0.111	-0.091	
10.260	-0.085	-0.102	
10.265	-0.154	-0.109	
10.270	-0.154	-0.117	
10.275	-0.087	-0.125	
10.280	-0.136	-0.127	
10.285	-0.159	-0.129	
10.290	-0.075	-0.130	
10.295	-0.089	-0.125	
10.300	-0.156	-0.118	
10.305	-0.096	-0.116	
10.310	-0.055	-0.112	
10.315	-0.139	-0.105	
10.320	-0.146	-0.105	
10.325	-0.095	-0.109	
10.330	-0.110	-0.112	
10.335	-0.066	-0.110	
10.340	0.215	-0.090	
10.345	0.471	-0.025	
10.350	0.666	0.096	
10.355	0.892	0.262	
10.360	0.858	0.448	
10.365	0.398	0.595	
10.370	-0.023	0.633	
10.375	-0.165	0.544	
10.380	-0.303	0.369	
10.385	-0.367	0.162	
10.390	-0.300	-0.031	
10.395	-0.261	-0.177	
10.400	-0.274	-0.267	
10.405	-0.200	-0.308	
10.410	-0.137	-0.309	
10.415	-0.188	-0.283	
10.420	-0.165	-0.249	
10.425	-0.095	-0.215	
10.430	-0.139	-0.181	
10.435	-0.159	-0.155	
10.440	-0.079	-0.139	
10.445	-0.078	-0.123	
10.450	-0.133	-0.110	
10.455	-0.073	-0.102	
10.460	-0.021	-0.093	
10.465	-0.087	-0.081	
10.470	-0.070	-0.073	
10.475	0.020	-0.064	
10.480	-0.024	-0.051	
10.485	-0.038	-0.038	
10.490	0.081	-0.026	
10.495	0.088	-0.005	
10.500	0.014	0.018	
10.505	0.101	0.037	
10.510	0.174	0.057	
10.515	0.072	0.080	
10.520	0.093	0.096	
10.525	0.184	0.106	
10.530	0.085	0.117	
10.535	-0.002	0.117	
10.540	0.070	0.102	
10.545	0.029	0.084	
10.550	-0.069	0.062	
10.555	-0.031	0.034	
10.560	-0.011	0.007	
10.565	-0.114	-0.015	
10.570	-0.122	-0.040	
10.575	-0.060	-0.064	
10.580	-0.120	-0.081	
10.585	-0.160	-0.095	
10.590	-0.104	-0.110	
10.595	-0.117	-0.119	
10.600	-0.182	-0.126	
10.605	-0.139	-0.134	
10.610	-0.101	-0.140	
10.615	-0.166	-0.140	
10.620	-0.153	-0.141	
10.625	-0.085	-0.141	
10.630	-0.139	-0.137	
10.635	-0.171	-0.134	
10.640	-0.099	-0.135	
10.645	-0.089	-0.131	
10.650	-0.142	-0.125	
10.655	-0.095	-0.120	
10.660	-0.044	-0.113	
10.665	-0.110	-0.102	
10.670	-0.098	-0.095	
10.675	-0.009	-0.088	
10.680	-0.063	-0.077	
10.685	-0.098	-0.068	
10.690	-0.017	-0.064	
10.695	-0.026	-0.057	
10.700	-0.101	-0.051	
10.705	-0.049	-0.051	
10.710	0.003	-0.051	
10.715	-0.090	-0.048	
10.720	-0.093	-0.050	
10.725	-0.020	-0.055	
10.730	-0.084	-0.058	
10.735	-0.134	-0.063	
10.740	-0.073	-0.074	
10.745	-0.081	-0.082	
10.750	-0.153	-0.089	
10.755	-0.127	-0.100	
10.760	-0.101	-0.110	
10.765	-0.175	-0.118	
10.770	-0.171	-0.129	
10.775	-0.102	-0.139	
10.780	-0.145	-0.142	
10.785	-0.178	-0.144	
10.790	-0.108	-0.146	
10.795	-0.107	-0.144	
10.800	-0.165	-0.138	
10.805	-0.117	-0.136	
10.810	-0.070	-0.131	
10.815	-0.151	-0.123	
10.820	-0.172	-0.122	
10.825	-0.120	-0.127	
10.830	-0.120	-0.131	
10.835	-0.060	-0.128	
10.840	0.256	-0.102	
10.845	0.565	-0.024	
10.850	0.790	0.120	
10.855	1.029	0.315	
10.860	0.995	0.530	
10.865	0.512	0.701	
10.870	-0.002	0.749	
10.875	-0.174	0.649	
10.880	-0.317	0.450	
10.885	-0.389	0.214	
10.890	-0.320	-0.007	
10.895	-0.284	-0.175	
10.900	-0.296	-0.280	
10.905	-0.226	-0.331	
10.910	-0.171	-0.337	
10.915	-0.215	-0.314	
10.920	-0.197	-0.281	
10.925	-0.117	-0.247	
10.930	-0.145	-0.211	
10.935	-0.177	-0.181	
10.940	-0.102	-0.161	
10.945	-0.093	-0.143	
10.950	-0.153	-0.128	
10.955	-0.101	-0.120	
10.960	-0.044	-0.113	
10.965	-0.105	-0.102	
10.970	-0.090	-0.093	
10.975	0.011	-0.085	
10.980	-0.027	-0.069	
10.985	-0.061	-0.054	
10.990	0.058	-0.040	
10.995	0.096	-0.019	
11.000	0.026	0.007	
11.005	0.113	0.031	
11.010	0.204	0.058	
11.015	0.108	0.090	
11.020	0.105	0.113	
11.025	0.204	0.128	
11.030	0.110	0.140	
11.035	0.011	0.140	
11.040	0.087	0.125	
11.045	0.061	0.105	
11.050	-0.058	0.083	
11.055	-0.031	0.053	
11.060	0.001	0.023	
11.065	-0.096	-0.002	
11.070	-0.110	-0.027	
11.075	-0.043	-0.052	
11.080	-0.102	-0.068	
11.085	-0.151	-0.081	
11.090	-0.098	-0.096	
11.095	-0.107	-0.107	
11.100	-0.172	-0.115	
11.105	-0.140	-0.125	
11.110	-0.092	-0.132	
11.115	-0.154	-0.133	
11.120	-0.160	-0.135	
11.125	-0.087	-0.137	
11.130	-0.117	-0.133	
11.135	-0.154	-0.129	
11.140	-0.078	-0.126	
11.145	-0.063	-0.119	
11.150	-0.125	-0.108	
11.155	-0.087	-0.102	
11.160	-0.035	-0.095	
11.165	-0.105	-0.086	
11.170	-0.102	-0.082	
11.175	-0.012	-0.080	
11.180	-0.063	-0.073	
11.185	-0.114	-0.067	
11.190	-0.035	-0.067	
11.195	-0.015	-0.064	
11.200	-0.087	-0.058	
11.205	-0.044	-0.055	
11.210	0.015	-0.051	
11.215	-0.066	-0.043	
11.220	-0.069	-0.040	
11.225	0.017	-0.039	
11.230	-0.041	-0.035	
11.235	-0.101	-0.035	
11.240	-0.024	-0.040	
11.245	-0.029	-0.044	
11.250	-0.120	-0.047	
11.255	-0.095	-0.056	
11.260	-0.050	-0.067	
11.265	-0.130	-0.075	
11.270	-0.134	-0.086	
11.275	-0.081	-0.097	
11.280	-0.133	-0.105	
11.285	-0.177	-0.113	
11.290	-0.113	-0.124	
11.295	-0.104	-0.130	
11.300	-0.165	-0.131	
11.305	-0.127	-0.133	
11.310	-0.070	-0.132	
11.315	-0.133	-0.126	
11.320	-0.134	-0.121	
11.325	-0.053	-0.117	
11.330	-0.105	-0.110	
11.335	-0.177	-0.106	
11.340	-0.120	-0.112	
11.345	-0.053	-0.115	
11.350	0.020	-0.106	
11.355	0.341	-0.066	
11.360	0.800	0.035	
11.365	1.075	0.217	
11.370	1.218	0.459	
11.375	1.204	0.711	
11.380	0.678	0.902	
11.385	0.012	0.948	
11.390	-0.195	0.820	
11.395	-0.310	0.573	
11.400	-0.403	0.290	
11.405	-0.352	0.030	
11.410	-0.270	-0.167	
11.415	-0.285	-0.288	
11.420	-0.262	-0.345	
11.425	-0.178	-0.355	
11.430	-0.191	-0.331	
11.435	-0.217	-0.295	
11.440	-0.146	-0.258	
11.445	-0.125	-0.221	
11.450	-0.178	-0.189	
11.455	-0.133	-0.167	
11.460	-0.073	-0.149	
11.465	-0.131	-0.131	
11.470	-0.131	-0.120	
11.475	-0.043	-0.113	
11.480	-0.070	-0.101	
11.485	-0.105	-0.090	
11.490	-0.009	-0.082	
11.495	0.020	-0.067	
11.500	-0.053	-0.049	
11.505	0.029	-0.033	
11.510	0.142	-0.013	
11.515	0.076	0.017	
11.520	0.097	0.047	
11.525	0.244	0.077	
11.530	0.186	0.113	
11.535	0.110	0.143	
11.540	0.210	0.160	
11.545	0.206	0.173	
11.550	0.058	0.179	
11.555	0.082	0.167	
11.560	0.130	0.147	
11.565	-0.011	0.125	
11.570	-0.049	0.094	
11.575	0.021	0.057	
11.580	-0.044	0.026	
11.585	-0.120	-0.002	
11.590	-0.070	-0.032	
11.595	-0.064	-0.056	
11.600	-0.146	-0.073	
11.605	-0.131	-0.091	
11.610	-0.085	-0.106	
11.615	-0.154	-0.114	
11.620	-0.165	-0.123	
11.625	-0.099	-0.132	
11.630	-0.128	-0.134	
11.635	-0.165	-0.135	
11.640	-0.095	-0.136	
11.645	-0.078	-0.131	
11.650	-0.146	-0.123	
11.655	-0.119	-0.119	
11.660	-0.070	-0.116	
11.665	-0.133	-0.111	
11.670	-0.137	-0.110	
11.675	-0.061	-0.111	
11.680	-0.101	-0.107	
11.685	-0.149	-0.105	
11.690	-0.084	-0.107	
11.695	-0.073	-0.106	
11.700	-0.143	-0.103	
11.705	-0.105	-0.104	
11.710	-0.032	-0.103	
11.715	-0.113	-0.097	
11.720	-0.124	-0.093	
11.725	-0.031	-0.092	
11.730	-0.061	-0.086	
11.735	-0.111	-0.079	
11.740	-0.035	-0.076	
11.745	-0.014	-0.070	
11.750	-0.093	-0.061	
11.755	-0.050	-0.057	
11.760	0.021	-0.052	
11.765	-0.069	-0.044	
11.770	-0.090	-0.041	
11.775	-0.017	-0.045	
11.780	-0.072	-0.047	
11.785	-0.137	-0.053	
11.790	-0.079	-0.066	
11.795	-0.072	-0.077	
11.800	-0.149	-0.086	
11.805	-0.130	-0.097	
11.810	-0.079	-0.107	
11.815	-0.146	-0.113	
11.820	-0.156	-0.119	
11.825	-0.075	-0.124	
11.830	-0.108	-0.123	
11.835	-0.159	-0.121	
11.840	-0.090	-0.121	
11.845	-0.069	-0.118	
11.850	-0.128	-0.111	
11.855	-0.101	-0.106	
11.860	-0.055	-0.102	
11.865	-0.145	-0.098	
11.870	-0.171	-0.101	
11.875	-0.064	-0.110	
11.880	0.049	-0.105	
11.885	0.195	-0.073	
11.890	0.628	0.005	
11.895	1.015	0.157	
11.900	1.079	0.375	
11.905	1.024	0.607	
11.910	0.709	0.786	
11.915	0.053	0.844	
11.920	-0.239	0.743	
11.925	-0.296	0.523	
11.930	-0.357	0.264	
11.935	-0.389	0.023	
11.940	-0.297	-0.166	
11.945	-0.238	-0.284	
11.950	-0.261	-0.338	
11.955	-0.213	-0.347	
11.960	-0.143	-0.325	
11.965	-0.182	-0.286	
11.970	-0.185	-0.246	
11.975	-0.105	-0.211	
11.980	-0.119	-0.179	
11.985	-0.159	-0.153	
11.990	-0.089	-0.136	
11.995	-0.061	-0.121	
12.000	-0.128	-0.107	
12.005	-0.095	-0.099	
12.010	-0.012	-0.092	
12.015	-0.066	-0.080	
12.020	-0.069	-0.070	
12.025	0.049	-0.058	
12.030	0.020	-0.040	
12.035	-0.032	-0.021	
12.040	0.093	-0.005	
12.045	0.142	0.017	
12.050	0.056	0.045	
12.055	0.126	0.068	
12.060	0.229	0.091	
12.065	0.142	0.120	
12.070	0.105	0.140	
12.075	0.192	0.149	
12.080	0.116	0.154	
12.085	0.003	0.148	
12.090	0.058	0.126	
12.095	0.058	0.100	
12.100	-0.066	0.074	
12.105	-0.049	0.042	
12.110	0.003	0.011	
12.115	-0.098	-0.013	
12.120	-0.133	-0.037	
12.125	-0.070	-0.062	
12.130	-0.108	-0.081	
12.135	-0.169	-0.096	
12.140	-0.120	-0.112	
12.145	-0.107	-0.123	
12.150	-0.178	-0.129	
12.155	-0.153	-0.137	
12.160	-0.092	-0.142	
12.165	-0.153	-0.141	
12.170	-0.162	-0.140	
12.175	-0.084	-0.140	
12.180	-0.101	-0.133	
12.185	-0.143	-0.126	
12.190	-0.081	-0.120	
12.195	-0.064	-0.112	
12.200	-0.137	-0.104	
12.205	-0.108	-0.101	
12.210	-0.037	-0.099	
12.215	-0.099	-0.093	
12.220	-0.116	-0.089	
12.225	-0.037	-0.087	
12.230	-0.060	-0.082	
12.235	-0.111	-0.077	
12.240	-0.046	-0.075	
12.245	-0.014	-0.070	
12.250	-0.102	-0.063	
12.255	-0.075	-0.061	
12.260	0.008	-0.061	
12.265	-0.069	-0.055	
12.270	-0.090	-0.052	
12.275	0.004	-0.052	
12.280	-0.032	-0.048	
12.285	-0.099	-0.044	
12.290	-0.038	-0.047	
12.295	-0.017	-0.048	
12.300	-0.113	-0.049	
12.305	-0.099	-0.056	
12.310	-0.034	-0.065	
12.315	-0.102	-0.070	
12.320	-0.137	-0.076	
12.325	-0.075	-0.087	
12.330	-0.108	-0.094	
12.335	-0.160	-0.101	
12.340	-0.099	-0.110	
12.345	-0.084	-0.115	
12.350	-0.151	-0.115	
12.355	-0.131	-0.118	
12.360	-0.073	-0.120	
12.365	-0.131	-0.118	
12.370	-0.142	-0.117	
12.375	-0.058	-0.117	
12.380	-0.081	-0.111	
12.385	-0.160	-0.105	
12.390	-0.122	-0.107	
12.395	-0.085	-0.111	
12.400	-0.104	-0.110	
12.405	0.059	-0.101	
12.410	0.390	-0.059	
12.415	0.585	0.039	
12.420	0.799	0.188	
12.425	0.960	0.372	
12.430	0.716	0.552	
12.435	0.165	0.657	
12.440	-0.092	0.631	
12.445	-0.218	0.491	
12.450	-0.348	0.291	
12.455	-0.346	0.081	
12.460	-0.273	-0.098	
12.465	-0.274	-0.222	
12.470	-0.256	-0.291	
12.475	-0.160	-0.315	
12.480	-0.157	-0.303	
12.485	-0.188	-0.272	
12.490	-0.119	-0.236	
12.495	-0.076	-0.198	
12.500	-0.151	-0.162	
12.505	-0.128	-0.138	
12.510	-0.052	-0.122	
12.515	-0.102	-0.107	
12.520	-0.114	-0.097	
12.525	-0.020	-0.090	
12.530	-0.029	-0.079	
12.535	-0.095	-0.067	
12.540	-0.014	-0.059	
12.545	0.027	-0.049	
12.550	-0.055	-0.035	
12.555	-0.006	-0.026	
12.560	0.105	-0.015	
12.565	0.047	0.005	
12.570	0.030	0.024	
12.575	0.161	0.042	
12.580	0.139	0.065	
12.585	0.043	0.087	
12.590	0.134	0.098	
12.595	0.168	0.108	
12.600	0.023	0.115	
12.605	0.033	0.109	
12.610	0.107	0.095	
12.615	-0.006	0.082	
12.620	-0.060	0.062	
12.625	0.032	0.036	
12.630	-0.021	0.016	
12.635	-0.116	-0.003	
12.640	-0.073	-0.026	
12.645	-0.047	-0.047	
12.650	-0.134	-0.063	
12.655	-0.124	-0.079	
12.660	-0.064	-0.093	
12.665	-0.127	-0.100	
12.670	-0.165	-0.108	
12.675	-0.098	-0.117	
12.680	-0.113	-0.122	
12.685	-0.169	-0.124	
12.690	-0.113	-0.129	
12.695	-0.075	-0.129	
12.700	-0.137	-0.123	
12.705	-0.113	-0.119	
12.710	-0.026	-0.113	
12.715	-0.093	-0.101	
12.720	-0.114	-0.092	
12.725	-0.012	-0.086	
12.730	-0.032	-0.075	
12.735	-0.108	-0.064	
12.740	-0.041	-0.060	
12.745	-0.003	-0.056	
12.750	-0.089	-0.050	
12.755	-0.066	-0.049	
12.760	0.027	-0.049	
12.765	-0.047	-0.042	
12.770	-0.076	-0.038	
12.775	0.021	-0.037	
12.780	-0.003	-0.031	
12.785	-0.078	-0.026	
12.790	0.006	-0.025	
12.795	0.041	-0.022	
12.800	-0.063	-0.015	
12.805	-0.044	-0.014	
12.810	0.038	-0.017	
12.815	-0.046	-0.016	
12.820	-0.084	-0.018	
12.825	-0.009	-0.027	
12.830	-0.046	-0.033	
12.835	-0.124	-0.040	
12.840	-0.082	-0.053	
12.845	-0.058	-0.066	
12.850	-0.136	-0.076	
12.855	-0.124	-0.087	
12.860	-0.061	-0.097	
12.865	-0.119	-0.101	
12.870	-0.142	-0.105	
12.875	-0.069	-0.109	
12.880	-0.081	-0.107	
12.885	-0.140	-0.104	
12.890	-0.085	-0.104	
12.895	-0.046	-0.101	
12.900	-0.127	-0.095	
12.905	-0.127	-0.094	
12.910	-0.079	-0.098	
12.915	-0.125	-0.100	
12.920	-0.095	-0.102	
12.925	0.171	-0.091	
12.930	0.401	-0.039	
12.935	0.614	0.067	
12.940	0.945	0.226	
12.945	1.005	0.424	
12.950	0.675	0.611	
12.955	0.230	0.709	
12.960	-0.049	0.677	
12.965	-0.258	0.530	
12.970	-0.355	0.318	
12.975	-0.302	0.096	
12.980	-0.284	-0.088	
12.985	-0.300	-0.216	
12.990	-0.215	-0.290	
12.995	-0.154	-0.314	
13.000	-0.197	-0.301	
13.005	-0.174	-0.272	
13.010	-0.096	-0.237	
13.015	-0.134	-0.200	
13.020	-0.156	-0.168	
13.025	-0.072	-0.146	
13.030	-0.067	-0.124	
13.035	-0.134	-0.107	
13.040	-0.084	-0.098	
13.045	-0.038	-0.091	
13.050	-0.105	-0.083	
13.055	-0.085	-0.079	
13.060	0.017	-0.075	
13.065	-0.046	-0.063	
13.070	-0.073	-0.053	
13.075	0.050	-0.044	
13.080	0.068	-0.028	
13.085	0.003	-0.006	
13.090	0.120	0.015	
13.095	0.194	0.043	
13.100	0.096	0.076	
13.105	0.119	0.102	
13.110	0.209	0.121	
13.115	0.110	0.138	
13.120	0.037	0.142	
13.125	0.128	0.132	
13.130	0.076	0.120	
13.135	-0.049	0.103	
13.140	-0.006	0.074	
13.145	0.018	0.044	
13.150	-0.090	0.018	
13.155	-0.093	-0.009	
13.160	-0.040	-0.036	
13.165	-0.110	-0.055	
13.170	-0.154	-0.074	
13.175	-0.082	-0.092	
13.180	-0.099	-0.104	
13.185	-0.175	-0.111	
13.190	-0.133	-0.121	
13.195	-0.099	-0.129	
13.200	-0.166	-0.132	
13.205	-0.159	-0.136	
13.210	-0.087	-0.139	
13.215	-0.133	-0.137	
13.220	-0.160	-0.134	
13.225	-0.079	-0.132	
13.230	-0.082	-0.126	
13.235	-0.137	-0.117	
13.240	-0.078	-0.111	
13.245	-0.040	-0.103	
13.250	-0.113	-0.092	
13.255	-0.095	-0.087	
13.260	-0.008	-0.082	
13.265	-0.061	-0.073	
13.270	-0.087	-0.065	
13.275	-0.008	-0.060	
13.280	0.001	-0.051	
13.285	-0.076	-0.041	
13.290	-0.023	-0.037	
13.295	0.017	-0.033	
13.300	-0.082	-0.028	
13.305	-0.069	-0.030	
13.310	0.029	-0.035	
13.315	-0.040	-0.033	
13.320	-0.090	-0.032	
13.325	-0.006	-0.037	
13.330	-0.029	-0.038	
13.335	-0.117	-0.040	
13.340	-0.072	-0.049	
13.345	-0.026	-0.058	
13.350	-0.114	-0.062	
13.355	-0.125	-0.071	
13.360	-0.073	-0.082	
13.365	-0.128	-0.091	
13.370	-0.165	-0.101	
13.375	-0.089	-0.113	
13.380	-0.098	-0.118	
13.385	-0.166	-0.120	
13.390	-0.117	-0.123	
13.395	-0.075	-0.125	
13.400	-0.143	-0.121	
13.405	-0.134	-0.120	
13.410	-0.061	-0.119	
13.415	-0.111	-0.114	
13.420	-0.157	-0.110	
13.425	-0.104	-0.113	
13.430	-0.104	-0.115	
13.435	-0.108	-0.114	
13.440	0.111	-0.102	
13.445	0.424	-0.053	
13.450	0.651	0.056	
13.455	0.977	0.223	
13.460	1.162	0.438	
13.465	0.913	0.658	
13.470	0.383	0.800	
13.475	-0.002	0.799	
13.480	-0.218	0.659	
13.485	-0.361	0.432	
13.490	-0.351	0.180	
13.495	-0.300	-0.039	
13.500	-0.314	-0.198	
13.505	-0.270	-0.295	
13.510	-0.177	-0.336	
13.515	-0.194	-0.332	
13.520	-0.210	-0.304	
13.525	-0.139	-0.269	
13.530	-0.131	-0.231	
13.535	-0.182	-0.196	
13.540	-0.130	-0.172	
13.545	-0.076	-0.152	
13.550	-0.139	-0.134	
13.555	-0.125	-0.122	
13.560	-0.041	-0.114	
13.565	-0.085	-0.102	
13.570	-0.119	-0.093	
13.575	-0.023	-0.087	
13.580	0.000	-0.076	
13.585	-0.075	-0.061	
13.590	0.000	-0.049	
13.595	0.097	-0.033	
13.600	0.023	-0.009	
13.605	0.058	0.013	
13.610	0.198	0.038	
13.615	0.165	0.071	
13.620	0.101	0.104	
13.625	0.219	0.127	
13.630	0.203	0.150	
13.635	0.055	0.164	
13.640	0.108	0.161	
13.645	0.151	0.149	
13.650	-0.002	0.134	
13.655	-0.026	0.108	
13.660	0.049	0.075	
13.665	-0.035	0.046	
13.670	-0.096	0.018	
13.675	-0.037	-0.011	
13.680	-0.061	-0.034	
13.685	-0.146	-0.053	
13.690	-0.114	-0.074	
13.695	-0.078	-0.092	
13.700	-0.157	-0.103	
13.705	-0.165	-0.116	
13.710	-0.095	-0.127	
13.715	-0.137	-0.132	
13.720	-0.177	-0.135	
13.725	-0.104	-0.139	
13.730	-0.098	-0.138	
13.735	-0.156	-0.133	
13.740	-0.105	-0.129	
13.745	-0.058	-0.123	
13.750	-0.127	-0.114	
13.755	-0.116	-0.108	
13.760	-0.032	-0.103	
13.765	-0.090	-0.094	
13.770	-0.125	-0.088	
13.775	-0.041	-0.086	
13.780	-0.047	-0.081	
13.785	-0.124	-0.076	
13.790	-0.072	-0.076	
13.795	-0.006	-0.075	
13.800	-0.093	-0.068	
13.805	-0.087	-0.066	
13.810	0.012	-0.064	
13.815	-0.047	-0.056	
13.820	-0.096	-0.050	
13.825	-0.014	-0.050	
13.830	-0.006	-0.046	
13.835	-0.085	-0.041	
13.840	-0.035	-0.041	
13.845	0.020	-0.040	
13.850	-0.079	-0.035	
13.855	-0.090	-0.037	
13.860	-0.011	-0.043	
13.865	-0.075	-0.047	
13.870	-0.127	-0.054	
13.875	-0.053	-0.064	
13.880	-0.072	-0.072	
13.885	-0.151	-0.078	
13.890	-0.117	-0.090	
13.895	-0.084	-0.100	
13.900	-0.151	-0.107	
13.905	-0.145	-0.115	
13.910	-0.075	-0.122	
13.915	-0.117	-0.122	
13.920	-0.156	-0.120	
13.925	-0.078	-0.121	
13.930	-0.069	-0.116	
13.935	-0.134	-0.109	
13.940	-0.095	-0.105	
13.945	-0.070	-0.102	
13.950	-0.165	-0.100	
13.955	-0.156	-0.106	
13.960	0.030	-0.110	
13.965	0.189	-0.088	
13.970	0.433	-0.021	
13.975	0.945	0.107	
13.980	1.277	0.317	
13.985	1.195	0.578	
13.990	1.032	0.817	
13.995	0.529	0.958	
14.000	-0.090	0.943	
14.005	-0.290	0.764	
14.010	-0.322	0.490	
14.015	-0.366	0.204	
14.020	-0.374	-0.040	
14.025	-0.276	-0.216	
14.030	-0.233	-0.317	
14.035	-0.261	-0.354	
14.040	-0.206	-0.351	
14.045	-0.145	-0.323	
14.050	-0.192	-0.281	
14.055	-0.185	-0.242	
14.060	-0.108	-0.208	
14.065	-0.130	-0.178	
14.070	-0.159	-0.155	
14.075	-0.078	-0.139	
14.080	-0.072	-0.123	
14.085	-0.137	-0.109	
14.090	-0.079	-0.102	
14.095	-0.009	-0.094	
14.100	-0.079	-0.080	
14.105	-0.064	-0.070	
14.110	0.059	-0.059	
14.115	0.018	-0.039	
14.120	-0.014	-0.018	
14.125	0.136	0.001	
14.130	0.192	0.031	
14.135	0.116	0.069	
14.140	0.203	0.104	
14.145	0.294	0.140	
14.150	0.180	0.176	
14.155	0.160	0.199	
14.160	0.273	0.209	
14.165	0.168	0.216	
14.170	0.046	0.210	
14.175	0.125	0.185	
14.180	0.091	0.157	
14.185	-0.043	0.127	
14.190	-0.015	0.088	
14.195	0.014	0.050	
14.200	-0.095	0.018	
14.205	-0.119	-0.015	
14.210	-0.060	-0.046	
14.215	-0.111	-0.069	
14.220	-0.165	-0.088	
14.225	-0.105	-0.107	
14.230	-0.104	-0.118	
14.235	-0.172	-0.124	
14.240	-0.137	-0.131	
14.245	-0.090	-0.135	
14.250	-0.148	-0.134	
14.255	-0.145	-0.133	
14.260	-0.067	-0.131	
14.265	-0.107	-0.124	
14.270	-0.148	-0.117	
14.275	-0.072	-0.114	
14.280	-0.066	-0.108	
14.285	-0.134	-0.101	
14.290	-0.104	-0.099	
14.295	-0.053	-0.098	
14.300	-0.119	-0.094	
14.305	-0.125	-0.095	
14.310	-0.056	-0.097	
14.315	-0.098	-0.096	
14.320	-0.137	-0.095	
14.325	-0.055	-0.097	
14.330	-0.044	-0.094	
14.335	-0.122	-0.087	
14.340	-0.072	-0.084	
14.345	0.001	-0.079	
14.350	-0.078	-0.069	
14.355	-0.089	-0.063	
14.360	0.014	-0.059	
14.365	-0.027	-0.050	
14.370	-0.082	-0.043	
14.375	-0.006	-0.040	
14.380	-0.006	-0.036	
14.385	-0.099	-0.033	
14.390	-0.075	-0.038	
14.395	-0.024	-0.046	
14.400	-0.108	-0.052	
14.405	-0.125	-0.063	
14.410	-0.066	-0.076	
14.415	-0.111	-0.085	
14.420	-0.168	-0.095	
14.425	-0.101	-0.108	
14.430	-0.084	-0.115	
14.435	-0.154	-0.117	
14.440	-0.122	-0.120	
14.445	-0.069	-0.121	
14.450	-0.134	-0.117	
14.455	-0.142	-0.116	
14.460	-0.061	-0.116	
14.465	-0.093	-0.111	
14.470	-0.140	-0.106	
14.475	-0.082	-0.105	
14.480	-0.098	-0.104	
14.485	-0.175	-0.105	
14.490	-0.102	-0.111	
14.495	0.111	-0.107	
14.500	0.238	-0.068	
14.505	0.564	0.017	
14.510	1.056	0.167	
14.515	1.197	0.389	
14.520	1.003	0.631	
14.525	0.721	0.815	
14.530	0.163	0.876	
14.535	-0.229	0.781	
14.540	-0.319	0.563	
14.545	-0.314	0.297	
14.550	-0.361	0.051	
14.555	-0.334	-0.143	
14.560	-0.232	-0.270	
14.565	-0.220	-0.329	
14.570	-0.233	-0.340	
14.575	-0.148	-0.320	
14.580	-0.119	-0.282	
14.585	-0.177	-0.237	
14.590	-0.136	-0.199	
14.595	-0.064	-0.167	
14.600	-0.116	-0.138	
14.605	-0.120	-0.118	
14.610	-0.035	-0.104	
14.615	-0.070	-0.090	
14.620	-0.120	-0.080	
14.625	-0.034	-0.077	
14.630	-0.006	-0.070	
14.635	-0.079	-0.059	
14.640	-0.023	-0.052	
14.645	0.088	-0.040	
14.650	0.026	-0.019	
14.655	0.026	0.003	
14.660	0.174	0.024	
14.665	0.158	0.055	
14.670	0.096	0.087	
14.675	0.209	0.113	
14.680	0.236	0.139	
14.685	0.111	0.163	
14.690	0.133	0.172	
14.695	0.201	0.171	
14.700	0.047	0.166	
14.705	-0.014	0.146	
14.710	0.064	0.113	
14.715	-0.009	0.081	
14.720	-0.089	0.048	
14.725	-0.035	0.013	
14.730	-0.026	-0.015	
14.735	-0.125	-0.036	
14.740	-0.104	-0.057	
14.745	-0.060	-0.075	
14.750	-0.140	-0.087	
14.755	-0.159	-0.100	
14.760	-0.090	-0.113	
14.765	-0.131	-0.120	
14.770	-0.185	-0.126	
14.775	-0.124	-0.135	
14.780	-0.111	-0.139	
14.785	-0.163	-0.139	
14.790	-0.127	-0.139	
14.795	-0.060	-0.136	
14.800	-0.128	-0.126	
14.805	-0.136	-0.119	
14.810	-0.052	-0.114	
14.815	-0.081	-0.106	
14.820	-0.134	-0.098	
14.825	-0.064	-0.095	
14.830	-0.035	-0.090	
14.835	-0.117	-0.082	
14.840	-0.089	-0.080	
14.845	-0.017	-0.078	
14.850	-0.089	-0.073	
14.855	-0.105	-0.071	
14.860	-0.015	-0.071	
14.865	-0.041	-0.066	
14.870	-0.096	-0.061	
14.875	-0.012	-0.058	
14.880	0.017	-0.051	
14.885	-0.072	-0.040	
14.890	-0.043	-0.035	
14.895	0.041	-0.032	
14.900	-0.055	-0.025	
14.905	-0.084	-0.024	
14.910	-0.011	-0.030	
14.915	-0.060	-0.035	
14.920	-0.131	-0.043	
14.925	-0.066	-0.057	
14.930	-0.049	-0.068	
14.935	-0.145	-0.075	
14.940	-0.128	-0.086	
14.945	-0.073	-0.097	
14.950	-0.139	-0.104	
14.955	-0.154	-0.112	
14.960	-0.081	-0.119	
14.965	-0.108	-0.120	
14.970	-0.149	-0.119	
14.975	-0.078	-0.119	
14.980	-0.058	-0.114	
14.985	-0.134	-0.105	
14.990	-0.107	-0.102	
14.995	-0.047	-0.099	
15.000	-0.125	-0.095	
15.005	-0.157	-0.096	
15.010	-0.087	-0.103	
15.015	-0.073	-0.106	
15.020	-0.029	-0.100	
15.025	0.267	-0.073	
15.030	0.578	0.004	
15.035	0.730	0.141	
15.040	0.860	0.315	
15.045	0.831	0.495	
15.050	0.349	0.624	
15.055	-0.073	0.639	
15.060	-0.169	0.531	
15.065	-0.281	0.347	
15.070	-0.346	0.143	
15.075	-0.282	-0.041	
15.080	-0.232	-0.177	
15.085	-0.250	-0.257	
15.090	-0.186	-0.291	
15.095	-0.107	-0.288	
15.100	-0.151	-0.259	
15.105	-0.159	-0.223	
15.110	-0.066	-0.189	
15.115	-0.085	-0.154	
15.120	-0.136	-0.126	
15.125	-0.063	-0.108	
15.130	-0.035	-0.093	
15.135	-0.108	-0.080	
15.140	-0.072	-0.073	
15.145	0.015	-0.068	
15.150	-0.049	-0.056	
15.155	-0.064	-0.047	
15.160	0.049	-0.040	
15.165	0.018	-0.027	
15.170	-0.041	-0.013	
15.175	0.073	-0.004	
15.180	0.140	0.013	
15.185	0.049	0.037	
15.190	0.114	0.059	
15.195	0.236	0.082	
15.200	0.131	0.111	
15.205	0.091	0.133	
15.210	0.201	0.142	
15.215	0.143	0.150	
15.220	0.023	0.150	
15.225	0.094	0.135	
15.230	0.101	0.117	
15.235	-0.035	0.099	
15.240	-0.035	0.071	
15.245	0.023	0.041	
15.250	-0.078	0.015	
15.255	-0.104	-0.011	
15.260	-0.041	-0.037	
15.265	-0.087	-0.056	
15.270	-0.149	-0.071	
15.275	-0.089	-0.088	
15.280	-0.072	-0.098	
15.285	-0.154	-0.103	
15.290	-0.136	-0.110	
15.295	-0.070	-0.116	
15.300	-0.139	-0.117	
15.305	-0.157	-0.119	
15.310	-0.082	-0.123	
15.315	-0.105	-0.122	
15.320	-0.154	-0.119	
15.325	-0.081	-0.119	
15.330	-0.053	-0.114	
15.335	-0.127	-0.105	
15.340	-0.099	-0.100	
15.345	-0.023	-0.095	
15.350	-0.079	-0.085	
15.355	-0.101	-0.078	
15.360	-0.002	-0.073	
15.365	-0.027	-0.063	
15.370	-0.090	-0.053	
15.375	-0.006	-0.049	
15.380	0.023	-0.041	
15.385	-0.073	-0.031	
15.390	-0.046	-0.028	
15.395	0.038	-0.028	
15.400	-0.049	-0.023	
15.405	-0.070	-0.023	
15.410	0.037	-0.025	
15.415	-0.005	-0.022	
15.420	-0.089	-0.019	
15.425	-0.021	-0.024	
15.430	0.004	-0.027	
15.435	-0.102	-0.029	
15.440	-0.090	-0.038	
15.445	-0.015	-0.049	
15.450	-0.090	-0.055	
15.455	-0.125	-0.063	
15.460	-0.063	-0.074	
15.465	-0.102	-0.082	
15.470	-0.168	-0.090	
15.475	-0.104	-0.103	
15.480	-0.075	-0.111	
15.485	-0.151	-0.113	
15.490	-0.127	-0.117	
15.495	-0.060	-0.118	
15.500	-0.122	-0.114	
15.505	-0.142	-0.112	
15.510	-0.058	-0.111	
15.515	-0.084	-0.106	
15.520	-0.153	-0.102	
15.525	-0.114	-0.104	
15.530	-0.093	-0.108	
15.535	-0.119	-0.109	
15.540	0.029	-0.104	
15.545	0.335	-0.069	
15.550	0.530	0.017	
15.555	0.811	0.158	
15.560	1.058	0.347	
15.565	0.887	0.551	
15.570	0.386	0.699	
15.575	0.009	0.719	
15.580	-0.185	0.607	
15.585	-0.339	0.407	
15.590	-0.351	0.178	
15.595	-0.281	-0.029	
15.600	-0.294	-0.180	
15.605	-0.271	-0.274	
15.610	-0.168	-0.316	
15.615	-0.166	-0.314	
15.620	-0.207	-0.288	
15.625	-0.137	-0.255	
15.630	-0.104	-0.219	
15.635	-0.165	-0.184	
15.640	-0.133	-0.159	
15.645	-0.058	-0.140	
15.650	-0.116	-0.122	
15.655	-0.131	-0.110	
15.660	-0.037	-0.103	
15.665	-0.058	-0.092	
15.670	-0.107	-0.082	
15.675	-0.020	-0.075	
15.680	0.024	-0.064	
15.685	-0.060	-0.048	
15.690	-0.011	-0.036	
15.695	0.113	-0.022	
15.700	0.043	0.001	
15.705	0.035	0.023	
15.710	0.183	0.043	
15.715	0.171	0.071	
15.720	0.087	0.100	
15.725	0.181	0.120	
15.730	0.213	0.138	
15.735	0.070	0.153	
15.740	0.078	0.152	
15.745	0.149	0.141	
15.750	0.018	0.127	
15.755	-0.041	0.104	
15.760	0.037	0.072	
15.765	-0.018	0.044	
15.770	-0.105	0.017	
15.775	-0.053	-0.013	
15.780	-0.040	-0.036	
15.785	-0.139	-0.054	
15.790	-0.128	-0.073	
15.795	-0.073	-0.091	
15.800	-0.142	-0.102	
15.805	-0.169	-0.113	
15.810	-0.099	-0.124	
15.815	-0.117	-0.129	
15.820	-0.175	-0.131	
15.825	-0.122	-0.135	
15.830	-0.093	-0.136	
15.835	-0.154	-0.133	
15.840	-0.130	-0.131	
15.845	-0.056	-0.128	
15.850	-0.110	-0.119	
15.855	-0.124	-0.111	
15.860	-0.040	-0.105	
15.865	-0.064	-0.095	
15.870	-0.122	-0.086	
15.875	-0.049	-0.082	
15.880	-0.008	-0.075	
15.885	-0.098	-0.066	
15.890	-0.075	-0.062	
15.895	0.017	-0.059	
15.900	-0.061	-0.051	
15.905	-0.089	-0.047	
15.910	0.015	-0.047	
15.915	-0.011	-0.041	
15.920	-0.089	-0.035	
15.925	-0.008	-0.035	
15.930	0.033	-0.031	
15.935	-0.069	-0.024	
15.940	-0.053	-0.024	
15.945	0.033	-0.026	
15.950	-0.052	-0.023	
15.955	-0.095	-0.026	
15.960	-0.020	-0.034	
15.965	-0.056	-0.041	
15.970	-0.128	-0.049	
15.975	-0.076	-0.061	
15.980	-0.058	-0.072	
15.985	-0.142	-0.079	
15.990	-0.131	-0.090	
15.995	-0.073	-0.101	
16.000	-0.134	-0.106	
16.005	-0.154	-0.112	
16.010	-0.075	-0.119	
16.015	-0.096	-0.118	
16.020	-0.157	-0.116	
16.025	-0.095	-0.116	
16.030	-0.053	-0.114	
16.035	-0.131	-0.107	
16.040	-0.119	-0.104	
16.045	-0.079	-0.104	
16.050	-0.157	-0.105	
16.055	-0.151	-0.111	
16.060	0.058	-0.112	
16.065	0.256	-0.082	
16.070	0.469	-0.004	
16.075	0.947	0.134	
16.080	1.267	0.345	
16.085	1.131	0.597	
16.090	0.884	0.815	
16.095	0.415	0.924	
16.100	-0.125	0.881	
16.105	-0.313	0.690	
16.110	-0.320	0.420	
16.115	-0.339	0.150	
16.120	-0.357	-0.073	
16.125	-0.268	-0.230	
16.130	-0.204	-0.316	
16.135	-0.244	-0.342	
16.140	-0.213	-0.334	
16.145	-0.128	-0.305	
16.150	-0.171	-0.264	
16.155	-0.188	-0.225	
16.160	-0.105	-0.195	
16.165	-0.108	-0.167	
16.170	-0.159	-0.145	
16.175	-0.096	-0.131	
16.180	-0.055	-0.119	
16.185	-0.124	-0.106	
16.190	-0.099	-0.099	
16.195	-0.002	-0.092	
16.200	-0.056	-0.079	
16.205	-0.075	-0.067	
16.210	0.049	-0.056	
16.215	0.049	-0.037	
16.220	-0.014	-0.014	
16.225	0.114	0.005	
16.230	0.210	0.034	
16.235	0.120	0.072	
16.240	0.166	0.106	
16.245	0.287	0.137	
16.250	0.194	0.170	
16.255	0.123	0.192	
16.260	0.226	0.198	
16.265	0.183	0.199	
16.270	0.044	0.192	
16.275	0.087	0.170	
16.280	0.096	0.142	
16.285	-0.044	0.113	
16.290	-0.055	0.076	
16.295	0.003	0.036	
16.300	-0.085	0.004	
16.305	-0.127	-0.026	
16.310	-0.064	-0.055	
16.315	-0.096	-0.075	
16.320	-0.172	-0.091	
16.325	-0.130	-0.108	
16.330	-0.090	-0.121	
16.335	-0.166	-0.127	
16.340	-0.153	-0.133	
16.345	-0.085	-0.137	
16.350	-0.134	-0.135	
16.355	-0.149	-0.132	
16.360	-0.076	-0.130	
16.365	-0.090	-0.123	
16.370	-0.149	-0.116	
16.375	-0.085	-0.112	
16.380	-0.044	-0.107	
16.385	-0.122	-0.098	
16.390	-0.108	-0.094	
16.395	-0.035	-0.092	
16.400	-0.104	-0.087	
16.405	-0.142	-0.086	
16.410	-0.066	-0.091	
16.415	-0.066	-0.092	
16.420	-0.136	-0.091	
16.425	-0.076	-0.093	
16.430	-0.023	-0.091	
16.435	-0.101	-0.083	
16.440	-0.075	-0.078	
16.445	0.027	-0.071	
16.450	-0.040	-0.058	
16.455	-0.084	-0.047	
16.460	0.004	-0.042	
16.465	-0.006	-0.036	
16.470	-0.082	-0.030	
16.475	-0.014	-0.030	
16.480	0.037	-0.028	
16.485	-0.069	-0.022	
16.490	-0.069	-0.023	
16.495	0.009	-0.028	
16.500	-0.075	-0.032	
16.505	-0.117	-0.039	
16.510	-0.040	-0.052	
16.515	-0.073	-0.061	
16.520	-0.151	-0.070	
16.525	-0.107	-0.083	
16.530	-0.073	-0.095	
16.535	-0.149	-0.102	
16.540	-0.142	-0.110	
16.545	-0.078	-0.117	
16.550	-0.131	-0.119	
16.555	-0.153	-0.121	
16.560	-0.066	-0.122	
16.565	-0.078	-0.117	
16.570	-0.139	-0.110	
16.575	-0.079	-0.106	
16.580	-0.046	-0.100	
16.585	-0.151	-0.094	
16.590	-0.163	-0.097	
16.595	-0.072	-0.106	
16.600	0.001	-0.105	
16.605	0.190	-0.079	
16.610	0.651	-0.005	
16.615	1.040	0.150	
16.620	1.232	0.381	
16.625	1.300	0.646	
16.630	1.032	0.881	
16.635	0.283	1.003	
16.640	-0.154	0.944	
16.645	-0.265	0.728	
16.650	-0.374	0.438	
16.655	-0.404	0.150	
16.660	-0.308	-0.089	
16.665	-0.273	-0.249	
16.670	-0.293	-0.335	
16.675	-0.221	-0.365	
16.680	-0.159	-0.354	
16.685	-0.207	-0.317	
16.690	-0.192	-0.276	
16.695	-0.113	-0.238	
16.700	-0.149	-0.201	
16.705	-0.171	-0.173	
16.710	-0.084	-0.153	
16.715	-0.089	-0.135	
16.720	-0.149	-0.120	
16.725	-0.087	-0.113	
16.730	-0.027	-0.104	
16.735	-0.093	-0.092	
16.740	-0.063	-0.081	
16.745	0.052	-0.069	
16.750	0.000	-0.048	
16.755	-0.018	-0.028	
16.760	0.130	-0.008	
16.765	0.158	0.021	
16.770	0.088	0.057	
16.775	0.213	0.089	
16.780	0.291	0.125	
16.785	0.184	0.166	
16.790	0.192	0.194	
16.795	0.296	0.212	
16.800	0.184	0.226	
16.805	0.093	0.227	
16.810	0.186	0.211	
16.815	0.125	0.191	
16.820	-0.023	0.165	
16.825	0.017	0.126	
16.830	0.044	0.087	
16.835	-0.079	0.052	
16.840	-0.095	0.016	
16.845	-0.034	-0.019	
16.850	-0.108	-0.045	
16.855	-0.159	-0.068	
16.860	-0.093	-0.091	
16.865	-0.108	-0.106	
16.870	-0.180	-0.117	
16.875	-0.139	-0.128	
16.880	-0.098	-0.136	
16.885	-0.163	-0.138	
16.890	-0.148	-0.139	
16.895	-0.070	-0.139	
16.900	-0.119	-0.132	
16.905	-0.154	-0.125	
16.910	-0.079	-0.122	
16.915	-0.085	-0.117	
16.920	-0.154	-0.111	
16.925	-0.105	-0.111	
16.930	-0.056	-0.110	
16.935	-0.134	-0.105	
16.940	-0.133	-0.105	
16.945	-0.066	-0.106	
16.950	-0.114	-0.105	
16.955	-0.154	-0.106	
16.960	-0.076	-0.110	
16.965	-0.081	-0.109	
16.970	-0.148	-0.107	
16.975	-0.105	-0.108	
16.980	-0.060	-0.108	
16.985	-0.130	-0.104	
16.990	-0.117	-0.103	
16.995	-0.037	-0.102	
17.000	-0.079	-0.095	
17.005	-0.110	-0.089	
17.010	-0.027	-0.084	
17.015	-0.040	-0.075	
17.020	-0.110	-0.067	
17.025	-0.050	-0.065	
17.030	0.017	-0.061	
17.035	-0.084	-0.053	
17.040	-0.089	-0.050	
17.045	-0.011	-0.052	
17.050	-0.084	-0.052	
17.055	-0.131	-0.057	
17.060	-0.055	-0.067	
17.065	-0.076	-0.075	
17.070	-0.159	-0.081	
17.075	-0.131	-0.094	
17.080	-0.098	-0.107	
17.085	-0.168	-0.116	
17.090	-0.163	-0.127	
17.095	-0.096	-0.136	
17.100	-0.139	-0.138	
17.105	-0.166	-0.139	
17.110	-0.095	-0.139	
17.115	-0.104	-0.135	
17.120	-0.168	-0.130	
17.125	-0.117	-0.129	
17.130	-0.069	-0.127	
17.135	-0.146	-0.120	
17.140	-0.162	-0.119	
17.145	-0.120	-0.124	
17.150	-0.162	-0.129	
17.155	-0.133	-0.135	
17.160	0.136	-0.126	
17.165	0.410	-0.073	
17.170	0.658	0.041	
17.175	1.035	0.217	
17.180	1.140	0.442	
17.185	0.814	0.661	
17.190	0.270	0.788	
17.195	-0.093	0.762	
17.200	-0.314	0.599	
17.205	-0.433	0.354	
17.210	-0.395	0.096	
17.215	-0.372	-0.122	
17.220	-0.387	-0.277	
17.225	-0.308	-0.370	
17.230	-0.244	-0.404	
17.235	-0.279	-0.396	
17.240	-0.259	-0.368	
17.245	-0.185	-0.332	
17.250	-0.207	-0.291	
17.255	-0.223	-0.255	
17.260	-0.151	-0.228	
17.265	-0.151	-0.203	
17.270	-0.198	-0.184	
17.275	-0.149	-0.172	
17.280	-0.099	-0.163	
17.285	-0.166	-0.151	
17.290	-0.151	-0.145	
17.295	-0.061	-0.139	
17.300	-0.096	-0.128	
17.305	-0.124	-0.116	
17.310	-0.023	-0.106	
17.315	0.003	-0.089	
17.320	-0.060	-0.068	
17.325	0.044	-0.048	
17.330	0.160	-0.021	
17.335	0.070	0.016	
17.340	0.090	0.050	
17.345	0.207	0.078	
17.350	0.116	0.106	
17.355	0.040	0.122	
17.360	0.131	0.123	
17.365	0.091	0.119	
17.370	-0.037	0.107	
17.375	0.004	0.083	
17.380	0.044	0.057	
17.385	-0.081	0.034	
17.390	-0.108	0.006	
17.395	-0.043	-0.025	
17.400	-0.096	-0.049	
17.405	-0.146	-0.069	
17.410	-0.087	-0.088	
17.415	-0.096	-0.101	
17.420	-0.169	-0.109	
17.425	-0.146	-0.120	
17.430	-0.105	-0.129	
17.435	-0.172	-0.134	
17.440	-0.178	-0.141	
17.445	-0.116	-0.148	
17.450	-0.153	-0.150	
17.455	-0.185	-0.151	
17.460	-0.120	-0.154	
17.465	-0.111	-0.151	
17.470	-0.178	-0.146	
17.475	-0.140	-0.145	
17.480	-0.087	-0.143	
17.485	-0.149	-0.137	
17.490	-0.139	-0.133	
17.495	-0.055	-0.128	
17.500	-0.098	-0.119	
17.505	-0.145	-0.110	
17.510	-0.070	-0.107	
17.515	-0.063	-0.101	
17.520	-0.122	-0.095	
17.525	-0.075	-0.092	
17.530	-0.003	-0.086	
17.535	-0.081	-0.075	
17.540	-0.072	-0.066	
17.545	0.043	-0.058	
17.550	-0.002	-0.043	
17.555	-0.064	-0.029	
17.560	0.040	-0.021	
17.565	0.064	-0.009	
17.570	-0.018	0.005	
17.575	0.044	0.014	
17.580	0.119	0.025	
17.585	0.011	0.039	
17.590	0.008	0.046	
17.595	0.113	0.047	
17.600	0.047	0.052	
17.605	-0.026	0.053	
17.610	0.059	0.046	
17.615	0.052	0.041	
17.620	-0.052	0.036	
17.625	-0.029	0.023	
17.630	0.021	0.009	
17.635	-0.073	-0.003	
17.640	-0.079	-0.018	
17.645	0.017	-0.031	
17.650	-0.037	-0.036	
17.655	-0.098	-0.039	
17.660	-0.012	-0.044	
17.665	-0.002	-0.045	
17.670	-0.085	-0.041	
17.675	-0.031	-0.041	
17.680	0.046	-0.038	
17.685	-0.056	-0.030	
17.690	-0.082	-0.027	
17.695	-0.014	-0.031	
17.700	-0.038	-0.035	
17.705	-0.011	-0.034	
17.710	0.256	-0.019	
17.715	0.508	0.039	
17.720	0.687	0.150	
17.725	0.951	0.308	
17.730	1.011	0.495	
17.735	0.663	0.663	
17.740	0.189	0.740	
17.745	-0.064	0.686	
17.750	-0.239	0.525	
17.755	-0.329	0.309	
17.760	-0.277	0.091	
17.765	-0.236	-0.085	
17.770	-0.247	-0.201	
17.775	-0.168	-0.263	
17.780	-0.076	-0.275	
17.785	-0.119	-0.251	
17.790	-0.107	-0.212	
17.795	0.011	-0.168	
17.800	-0.018	-0.121	
17.805	-0.067	-0.079	
17.810	0.035	-0.050	
17.815	0.058	-0.023	
17.820	-0.038	-0.001	
17.825	0.050	0.012	
17.830	0.142	0.025	
17.835	0.040	0.045	
17.840	0.044	0.058	
17.845	0.181	0.068	
17.850	0.139	0.086	
17.855	0.079	0.103	
17.860	0.210	0.116	
17.865	0.248	0.136	
17.870	0.151	0.160	
17.875	0.239	0.179	
17.880	0.355	0.200	
17.885	0.258	0.230	
17.890	0.245	0.253	
17.895	0.348	0.269	
17.900	0.267	0.282	
17.905	0.165	0.285	
17.910	0.244	0.273	
17.915	0.229	0.257	
17.920	0.064	0.237	
17.925	0.087	0.204	
17.930	0.133	0.167	
17.935	-0.006	0.134	
17.940	-0.049	0.096	
17.945	0.029	0.057	
17.950	-0.040	0.025	
17.955	-0.108	-0.002	
17.960	-0.043	-0.029	
17.965	-0.040	-0.048	
17.970	-0.133	-0.060	
17.975	-0.107	-0.074	
17.980	-0.060	-0.086	
17.985	-0.128	-0.092	
17.990	-0.139	-0.099	
17.995	-0.063	-0.106	
18.000	-0.104	-0.107	
18.005	-0.143	-0.106	
18.010	-0.070	-0.108	
18.015	-0.064	-0.105	
18.020	-0.128	-0.099	
18.025	-0.087	-0.097	
18.030	-0.026	-0.093	
18.035	-0.095	-0.085	
18.040	-0.095	-0.079	
18.045	0.011	-0.075	
18.050	-0.037	-0.064	
18.055	-0.093	-0.054	
18.060	-0.009	-0.050	
18.065	0.001	-0.043	
18.070	-0.090	-0.037	
18.075	-0.044	-0.037	
18.080	0.026	-0.037	
18.085	-0.058	-0.033	
18.090	-0.061	-0.032	
18.095	0.038	-0.032	
18.100	-0.020	-0.026	
18.105	-0.081	-0.022	
18.110	0.004	-0.025	
18.115	0.023	-0.023	
18.120	-0.067	-0.019	
18.125	-0.029	-0.020	
18.130	0.040	-0.021	
18.135	-0.064	-0.018	
18.140	-0.079	-0.021	
18.145	0.001	-0.029	
18.150	-0.050	-0.033	
18.155	-0.114	-0.039	
18.160	-0.049	-0.050	
18.165	-0.049	-0.058	
18.170	-0.131	-0.064	
18.175	-0.104	-0.074	
18.180	-0.055	-0.084	
18.185	-0.122	-0.089	
18.190	-0.125	-0.094	
18.195	-0.041	-0.099	
18.200	-0.078	-0.096	
18.205	-0.133	-0.092	
18.210	-0.061	-0.092	
18.215	-0.046	-0.088	
18.220	-0.120	-0.083	
18.225	-0.082	-0.082	
18.230	-0.041	-0.082	
18.235	-0.133	-0.080	
18.240	-0.137	-0.085	
18.245	0.014	-0.090	
18.250	0.128	-0.075	
18.255	0.279	-0.028	
18.260	0.686	0.063	
18.265	0.991	0.218	
18.270	0.947	0.421	
18.275	0.848	0.615	
18.280	0.498	0.742	
18.285	-0.052	0.750	
18.290	-0.244	0.623	
18.295	-0.268	0.408	
18.300	-0.323	0.176	
18.305	-0.346	-0.029	
18.310	-0.256	-0.183	
18.315	-0.198	-0.274	
18.320	-0.227	-0.308	
18.325	-0.175	-0.307	
18.330	-0.107	-0.281	
18.335	-0.160	-0.242	
18.340	-0.168	-0.205	
18.345	-0.090	-0.177	
18.350	-0.110	-0.151	
18.355	-0.149	-0.132	
18.360	-0.072	-0.120	
18.365	-0.058	-0.108	
18.370	-0.130	-0.097	
18.375	-0.087	-0.093	
18.380	-0.012	-0.088	
18.385	-0.081	-0.078	
18.390	-0.084	-0.071	
18.395	0.026	-0.064	
18.400	0.001	-0.051	
18.405	-0.049	-0.036	
18.410	0.067	-0.023	
18.415	0.120	-0.003	
18.420	0.038	0.023	
18.425	0.116	0.046	
18.430	0.210	0.071	
18.435	0.105	0.100	
18.440	0.072	0.118	
18.445	0.171	0.125	
18.450	0.087	0.128	
18.455	-0.014	0.121	
18.460	0.047	0.100	
18.465	0.035	0.077	
18.470	-0.082	0.053	
18.475	-0.069	0.022	
18.480	-0.021	-0.008	
18.485	-0.114	-0.032	
18.490	-0.140	-0.056	
18.495	-0.078	-0.079	
18.500	-0.127	-0.095	
18.505	-0.191	-0.110	
18.510	-0.133	-0.126	
18.515	-0.124	-0.138	
18.520	-0.194	-0.144	
18.525	-0.169	-0.152	
18.530	-0.125	-0.159	
18.535	-0.178	-0.160	
18.540	-0.175	-0.161	
18.545	-0.102	-0.161	
18.550	-0.133	-0.155	
18.555	-0.177	-0.149	
18.560	-0.107	-0.145	
18.565	-0.081	-0.139	
18.570	-0.145	-0.129	
18.575	-0.105	-0.122	
18.580	-0.037	-0.114	
18.585	-0.107	-0.103	
18.590	-0.120	-0.095	
18.595	-0.032	-0.091	
18.600	-0.064	-0.084	
18.605	-0.124	-0.078	
18.610	-0.046	-0.077	
18.615	-0.023	-0.074	
18.620	-0.104	-0.067	
18.625	-0.061	-0.065	
18.630	0.011	-0.062	
18.635	-0.076	-0.054	
18.640	-0.093	-0.051	
18.645	0.004	-0.052	
18.650	-0.023	-0.048	
18.655	-0.084	-0.043	
18.660	-0.006	-0.042	
18.665	0.012	-0.037	
18.670	-0.085	-0.031	
18.675	-0.063	-0.033	
18.680	-0.014	-0.038	
18.685	-0.104	-0.042	
18.690	-0.125	-0.053	
18.695	-0.053	-0.067	
18.700	-0.093	-0.076	
18.705	-0.154	-0.085	
18.710	-0.105	-0.097	
18.715	-0.101	-0.107	
18.720	-0.169	-0.114	
18.725	-0.145	-0.123	
18.730	-0.089	-0.130	
18.735	-0.146	-0.131	
18.740	-0.157	-0.132	
18.745	-0.082	-0.134	
18.750	-0.108	-0.129	
18.755	-0.159	-0.125	
18.760	-0.089	-0.123	
18.765	-0.075	-0.118	
18.770	-0.166	-0.113	
18.775	-0.151	-0.115	
18.780	-0.047	-0.119	
18.785	-0.003	-0.110	
18.790	0.190	-0.079	
18.795	0.630	-0.003	
18.800	0.925	0.145	
18.805	1.023	0.352	
18.810	1.058	0.575	
18.815	0.751	0.758	
18.820	0.076	0.830	
18.825	-0.194	0.745	
18.830	-0.274	0.538	
18.835	-0.378	0.286	
18.840	-0.387	0.044	
18.845	-0.285	-0.150	
18.850	-0.268	-0.274	
18.855	-0.277	-0.335	
18.860	-0.195	-0.350	
18.865	-0.163	-0.332	
18.870	-0.212	-0.295	
18.875	-0.172	-0.258	
18.880	-0.108	-0.222	
18.885	-0.156	-0.189	
18.890	-0.160	-0.165	
18.895	-0.075	-0.148	
18.900	-0.102	-0.131	
18.905	-0.148	-0.118	
18.910	-0.075	-0.112	
18.915	-0.041	-0.104	
18.920	-0.114	-0.093	
18.925	-0.069	-0.086	
18.930	0.029	-0.077	
18.935	-0.043	-0.061	
18.940	-0.049	-0.047	
18.945	0.091	-0.033	
18.950	0.091	-0.010	
18.955	0.047	0.018	
18.960	0.181	0.045	
18.965	0.232	0.080	
18.970	0.126	0.118	
18.975	0.169	0.145	
18.980	0.250	0.164	
18.985	0.123	0.180	
18.990	0.061	0.180	
18.995	0.149	0.166	
19.000	0.068	0.147	
19.005	-0.049	0.122	
19.010	0.018	0.087	
19.015	0.017	0.054	
19.020	-0.105	0.025	
19.025	-0.102	-0.008	
19.030	-0.056	-0.039	
19.035	-0.136	-0.063	
19.040	-0.163	-0.086	
19.045	-0.098	-0.108	
19.050	-0.131	-0.121	
19.055	-0.188	-0.130	
19.060	-0.137	-0.141	
19.065	-0.119	-0.146	
19.070	-0.183	-0.148	
19.075	-0.153	-0.151	
19.080	-0.093	-0.151	
19.085	-0.146	-0.146	
19.090	-0.153	-0.141	
19.095	-0.072	-0.137	
19.100	-0.093	-0.128	
19.105	-0.142	-0.118	
19.110	-0.070	-0.112	
19.115	-0.049	-0.104	
19.120	-0.125	-0.094	
19.125	-0.095	-0.090	
19.130	-0.027	-0.087	
19.135	-0.107	-0.082	
19.140	-0.125	-0.081	
19.145	-0.038	-0.084	
19.150	-0.072	-0.082	
19.155	-0.131	-0.081	
19.160	-0.060	-0.083	
19.165	-0.034	-0.082	
19.170	-0.114	-0.078	
19.175	-0.082	-0.077	
19.180	-0.002	-0.075	
19.185	-0.072	-0.068	
19.190	-0.099	-0.063	
19.195	-0.003	-0.062	
19.200	-0.027	-0.056	
19.205	-0.090	-0.049	
19.210	-0.008	-0.047	
19.215	0.014	-0.041	
19.220	-0.089	-0.034	
19.225	-0.070	-0.035	
19.230	-0.011	-0.040	
19.235	-0.098	-0.044	
19.240	-0.124	-0.053	
19.245	-0.046	-0.066	
19.250	-0.089	-0.074	
19.255	-0.156	-0.082	
19.260	-0.099	-0.093	
19.265	-0.082	-0.102	
19.270	-0.159	-0.107	
19.275	-0.130	-0.114	
19.280	-0.067	-0.119	
19.285	-0.131	-0.118	
19.290	-0.140	-0.117	
19.295	-0.055	-0.117	
19.300	-0.084	-0.110	
19.305	-0.142	-0.104	
19.310	-0.070	-0.101	
19.315	-0.055	-0.097	
19.320	-0.153	-0.093	
19.325	-0.151	-0.097	
19.330	-0.073	-0.105	
19.335	-0.038	-0.106	
19.340	0.158	-0.086	
19.345	0.607	-0.019	
19.350	0.979	0.125	
19.355	1.212	0.347	
19.360	1.349	0.612	
19.365	1.143	0.862	
19.370	0.424	1.013	
19.375	-0.073	0.989	
19.380	-0.220	0.797	
19.385	-0.358	0.516	
19.390	-0.392	0.221	
19.395	-0.294	-0.031	
19.400	-0.267	-0.207	
19.405	-0.281	-0.306	
19.410	-0.197	-0.346	
19.415	-0.157	-0.340	
19.420	-0.209	-0.307	
19.425	-0.174	-0.269	
19.430	-0.108	-0.232	
19.435	-0.159	-0.196	
19.440	-0.171	-0.169	
19.445	-0.093	-0.152	
19.450	-0.110	-0.138	
19.455	-0.156	-0.127	
19.460	-0.087	-0.121	
19.465	-0.064	-0.114	
19.470	-0.136	-0.106	
19.475	-0.095	-0.102	
19.480	-0.012	-0.097	
19.485	-0.075	-0.086	
19.490	-0.081	-0.075	
19.495	0.052	-0.065	
19.500	0.041	-0.045	
19.505	-0.017	-0.021	
19.510	0.119	0.000	
19.515	0.183	0.029	
19.520	0.076	0.064	
19.525	0.120	0.090	
19.530	0.212	0.111	
19.535	0.094	0.130	
19.540	0.026	0.135	
19.545	0.113	0.125	
19.550	0.037	0.110	
19.555	-0.081	0.087	
19.560	-0.035	0.052	
19.565	-0.027	0.017	
19.570	-0.140	-0.014	
19.575	-0.139	-0.047	
19.580	-0.095	-0.078	
19.585	-0.172	-0.102	
19.590	-0.204	-0.125	
19.595	-0.137	-0.146	
19.600	-0.166	-0.159	
19.605	-0.226	-0.169	
19.610	-0.174	-0.178	
19.615	-0.149	-0.184	
19.620	-0.213	-0.184	
19.625	-0.191	-0.186	
19.630	-0.125	-0.185	
19.635	-0.183	-0.180	
19.640	-0.198	-0.176	
19.645	-0.122	-0.174	
19.650	-0.133	-0.167	
19.655	-0.180	-0.159	
19.660	-0.117	-0.154	
19.665	-0.084	-0.146	
19.670	-0.159	-0.136	
19.675	-0.130	-0.130	
19.680	-0.052	-0.125	
19.685	-0.117	-0.116	
19.690	-0.140	-0.109	
19.695	-0.050	-0.107	
19.700	-0.075	-0.100	
19.705	-0.139	-0.094	
19.710	-0.061	-0.093	
19.715	-0.032	-0.089	
19.720	-0.113	-0.081	
19.725	-0.078	-0.078	
19.730	0.027	-0.073	
19.735	-0.041	-0.060	
19.740	-0.056	-0.048	
19.745	0.072	-0.037	
19.750	0.046	-0.018	
19.755	-0.040	-0.000	
19.760	0.067	0.010	
19.765	0.110	0.023	
19.770	-0.009	0.038	
19.775	0.014	0.043	
19.780	0.097	0.043	
19.785	-0.008	0.044	
19.790	-0.053	0.038	
19.795	0.047	0.025	
19.800	-0.008	0.015	
19.805	-0.099	0.005	
19.810	-0.031	-0.012	
19.815	-0.008	-0.026	
19.820	-0.114	-0.036	
19.825	-0.101	-0.049	
19.830	-0.027	-0.063	
19.835	-0.102	-0.070	
19.840	-0.127	-0.077	
19.845	-0.031	-0.084	
19.850	-0.058	-0.083	
19.855	-0.127	-0.080	
19.860	-0.052	-0.081	
19.865	-0.023	-0.078	
19.870	-0.113	-0.072	
19.875	-0.081	-0.071	
19.880	-0.023	-0.071	
19.885	-0.128	-0.070	
19.890	-0.166	-0.077	
19.895	-0.038	-0.089	
19.900	0.065	-0.087	
19.905	0.175	-0.057	
19.910	0.565	0.013	
19.915	0.918	0.148	
19.920	0.954	0.342	
19.925	0.904	0.546	
19.930	0.658	0.703	
19.935	0.040	0.755	
19.940	-0.242	0.664	
19.945	-0.284	0.463	
19.950	-0.345	0.226	
19.955	-0.392	0.004	
19.960	-0.305	-0.172	
19.965	-0.235	-0.283	
19.970	-0.259	-0.334	
19.975	-0.209	-0.341	
19.980	-0.125	-0.319	
19.985	-0.171	-0.278	
19.990	-0.186	-0.237	
19.995	-0.093	-0.202	
20.000	-0.104	-0.170	
20.005	-0.159	-0.144	
20.010	-0.087	-0.128	
20.015	-0.050	-0.114	
20.020	-0.127	-0.101	
20.025	-0.089	-0.094	
20.030	0.001	-0.087	
20.035	-0.070	-0.075	
20.040	-0.084	-0.065	
20.045	0.044	-0.057	
20.050	0.029	-0.041	
20.055	-0.035	-0.023	
20.060	0.079	-0.008	
20.065	0.157	0.014	
20.070	0.058	0.043	
20.075	0.122	0.067	
20.080	0.241	0.092	
20.085	0.139	0.121	
20.090	0.078	0.141	
20.095	0.204	0.148	
20.100	0.155	0.153	
20.105	0.021	0.152	
20.110	0.097	0.138	
20.115	0.126	0.121	
20.120	-0.029	0.105	
20.125	-0.027	0.080	
20.130	0.044	0.051	
20.135	-0.064	0.027	
20.140	-0.119	0.001	
20.145	-0.046	-0.028	
20.150	-0.085	-0.051	
20.155	-0.151	-0.070	
20.160	-0.095	-0.088	
20.165	-0.069	-0.100	
20.170	-0.153	-0.105	
20.175	-0.136	-0.112	
20.180	-0.073	-0.117	
20.185	-0.131	-0.117	
20.190	-0.145	-0.118	
20.195	-0.058	-0.119	
20.200	-0.072	-0.112	
20.205	-0.124	-0.104	
20.210	-0.046	-0.097	
20.215	-0.011	-0.086	
20.220	-0.096	-0.073	
20.225	-0.064	-0.065	
20.230	0.035	-0.058	
20.235	-0.056	-0.046	
20.240	-0.084	-0.039	
20.245	0.029	-0.038	
20.250	-0.005	-0.031	
20.255	-0.087	-0.026	
20.260	-0.009	-0.027	
20.265	0.029	-0.026	
20.270	-0.073	-0.022	
20.275	-0.034	-0.023	
20.280	0.072	-0.022	
20.285	-0.017	-0.014	
20.290	-0.047	-0.007	
20.295	0.058	-0.005	
20.300	0.024	0.001	
20.305	-0.063	0.006	
20.310	0.030	0.004	
20.315	0.079	0.006	
20.320	-0.038	0.013	
20.325	-0.024	0.013	
20.330	0.070	0.010	
20.335	-0.038	0.010	
20.340	-0.087	0.004	
20.345	-0.008	-0.010	
20.350	-0.044	-0.022	
20.355	-0.127	-0.034	
20.360	-0.069	-0.050	
20.365	-0.044	-0.063	
20.370	-0.136	-0.072	
20.375	-0.117	-0.082	
20.380	-0.047	-0.092	
20.385	-0.114	-0.095	
20.390	-0.140	-0.098	
20.395	-0.058	-0.102	
20.400	-0.082	-0.101	
20.405	-0.149	-0.099	
20.410	-0.089	-0.101	
20.415	-0.052	-0.101	
20.420	-0.137	-0.098	
20.425	-0.130	-0.099	
20.430	-0.087	-0.104	
20.435	-0.159	-0.108	
20.440	-0.154	-0.116	
20.445	0.040	-0.118	
20.450	0.209	-0.091	
20.455	0.384	-0.022	
20.460	0.797	0.097	
20.465	1.023	0.277	
20.470	0.811	0.483	
20.475	0.511	0.640	
20.480	0.128	0.690	
20.485	-0.212	0.613	
20.490	-0.348	0.432	
20.495	-0.326	0.207	
20.500	-0.343	-0.004	
20.505	-0.360	-0.171	
20.510	-0.261	-0.282	
20.515	-0.197	-0.334	
20.520	-0.238	-0.340	
20.525	-0.198	-0.320	
20.530	-0.117	-0.286	
20.535	-0.159	-0.243	
20.540	-0.171	-0.206	
20.545	-0.081	-0.176	
20.550	-0.101	-0.149	
20.555	-0.159	-0.128	
20.560	-0.085	-0.118	
20.565	-0.044	-0.108	
20.570	-0.124	-0.097	
20.575	-0.093	-0.092	
20.580	0.011	-0.086	
20.585	-0.053	-0.073	
20.590	-0.078	-0.061	
20.595	0.056	-0.051	
20.600	0.056	-0.032	
20.605	-0.021	-0.011	
20.610	0.113	0.008	
20.615	0.195	0.034	
20.620	0.090	0.068	
20.625	0.137	0.096	
20.630	0.264	0.121	
20.635	0.146	0.148	
20.640	0.082	0.164	
20.645	0.194	0.164	
20.650	0.134	0.162	
20.655	-0.005	0.152	
20.660	0.072	0.128	
20.665	0.093	0.104	
20.670	-0.060	0.081	
20.675	-0.066	0.051	
20.680	0.000	0.018	
20.685	-0.090	-0.009	
20.690	-0.127	-0.034	
20.695	-0.053	-0.059	
20.700	-0.085	-0.075	
20.705	-0.159	-0.087	
20.710	-0.110	-0.100	
20.715	-0.081	-0.109	
20.720	-0.160	-0.114	
20.725	-0.148	-0.120	
20.730	-0.078	-0.126	
20.735	-0.142	-0.126	
20.740	-0.160	-0.127	
20.745	-0.075	-0.129	
20.750	-0.092	-0.124	
20.755	-0.145	-0.118	
20.760	-0.081	-0.114	
20.765	-0.034	-0.107	
20.770	-0.116	-0.096	
20.775	-0.089	-0.089	
20.780	0.012	-0.082	
20.785	-0.067	-0.070	
20.790	-0.110	-0.061	
20.795	-0.005	-0.059	
20.800	-0.020	-0.054	
20.805	-0.096	-0.048	
20.810	-0.021	-0.047	
20.815	0.033	-0.042	
20.820	-0.072	-0.034	
20.825	-0.058	-0.031	
20.830	0.058	-0.030	
20.835	-0.026	-0.022	
20.840	-0.067	-0.017	
20.845	0.047	-0.017	
20.850	0.037	-0.011	
20.855	-0.066	-0.003	
20.860	0.017	-0.002	
20.865	0.064	-0.000	
20.870	-0.069	0.004	
20.875	-0.049	0.000	
20.880	0.046	-0.007	
20.885	-0.058	-0.011	
20.890	-0.107	-0.018	
20.895	-0.020	-0.032	
20.900	-0.060	-0.043	
20.905	-0.146	-0.053	
20.910	-0.099	-0.069	
20.915	-0.061	-0.083	
20.920	-0.139	-0.091	
20.925	-0.117	-0.099	
20.930	-0.052	-0.105	
20.935	-0.122	-0.104	
20.940	-0.148	-0.105	
20.945	-0.058	-0.108	
20.950	-0.073	-0.105	
20.955	-0.142	-0.100	
20.960	-0.079	-0.099	
20.965	-0.050	-0.097	
20.970	-0.153	-0.093	
20.975	-0.149	-0.097	
20.980	-0.046	-0.104	
20.985	-0.008	-0.100	
20.990	0.157	-0.075	
20.995	0.599	-0.007	
21.000	0.944	0.134	
21.005	1.102	0.344	
21.010	1.210	0.585	
21.015	1.000	0.804	
21.020	0.291	0.925	
21.025	-0.131	0.881	
21.030	-0.232	0.687	
21.035	-0.352	0.421	
21.040	-0.393	0.152	
21.045	-0.296	-0.075	
21.050	-0.264	-0.231	
21.055	-0.287	-0.316	
21.060	-0.209	-0.347	
21.065	-0.154	-0.339	
21.070	-0.210	-0.305	
21.075	-0.183	-0.268	
21.080	-0.102	-0.231	
21.085	-0.151	-0.195	
21.090	-0.174	-0.168	
21.095	-0.084	-0.151	
21.100	-0.087	-0.134	
21.105	-0.148	-0.120	
21.110	-0.081	-0.112	
21.115	-0.029	-0.103	
21.120	-0.110	-0.091	
21.125	-0.079	-0.084	
21.130	0.024	-0.076	
21.135	-0.040	-0.061	
21.140	-0.063	-0.048	
21.145	0.085	-0.036	
21.150	0.099	-0.014	
21.155	0.024	0.013	
21.160	0.168	0.039	
21.165	0.261	0.073	
21.170	0.145	0.115	
21.175	0.172	0.147	
21.180	0.288	0.172	
21.185	0.163	0.195	
21.190	0.085	0.202	
21.195	0.190	0.193	
21.200	0.126	0.180	
21.205	-0.024	0.160	
21.210	0.018	0.125	
21.215	0.029	0.086	
21.220	-0.095	0.051	
21.225	-0.096	0.012	
21.230	-0.031	-0.024	
21.235	-0.113	-0.050	
21.240	-0.160	-0.072	
21.245	-0.099	-0.095	
21.250	-0.120	-0.110	
21.255	-0.191	-0.122	
21.260	-0.139	-0.135	
21.265	-0.098	-0.142	
21.270	-0.174	-0.143	
21.275	-0.162	-0.145	
21.280	-0.082	-0.146	
21.285	-0.136	-0.141	
21.290	-0.163	-0.136	
21.295	-0.073	-0.133	
21.300	-0.081	-0.126	
21.305	-0.153	-0.116	
21.310	-0.089	-0.112	
21.315	-0.040	-0.107	
21.320	-0.127	-0.098	
21.325	-0.111	-0.094	
21.330	-0.027	-0.092	
21.335	-0.098	-0.086	
21.340	-0.137	-0.084	
21.345	-0.046	-0.087	
21.350	-0.056	-0.085	
21.355	-0.133	-0.082	
21.360	-0.070	-0.084	
21.365	-0.018	-0.082	
21.370	-0.098	-0.076	
21.375	-0.078	-0.072	
21.380	0.030	-0.067	
21.385	-0.038	-0.055	
21.390	-0.081	-0.045	
21.395	0.024	-0.039	
21.400	0.009	-0.031	
21.405	-0.078	-0.022	
21.410	-0.002	-0.021	
21.415	0.067	-0.017	
21.420	-0.044	-0.008	
21.425	-0.040	-0.005	
21.430	0.050	-0.006	
21.435	-0.041	-0.004	
21.440	-0.099	-0.009	
21.445	-0.017	-0.021	
21.450	-0.041	-0.031	
21.455	-0.133	-0.041	
21.460	-0.085	-0.057	
21.465	-0.053	-0.070	
21.470	-0.149	-0.080	
21.475	-0.139	-0.092	
21.480	-0.060	-0.104	
21.485	-0.119	-0.108	
21.490	-0.154	-0.111	
21.495	-0.064	-0.114	
21.500	-0.069	-0.111	
21.505	-0.137	-0.105	
21.510	-0.078	-0.102	
21.515	-0.026	-0.096	
21.520	-0.124	-0.087	
21.525	-0.125	-0.085	
21.530	-0.078	-0.089	
21.535	-0.140	-0.094	
21.540	-0.117	-0.101	
21.545	0.168	-0.096	
21.550	0.424	-0.046	
21.555	0.694	0.066	
21.560	1.174	0.247	
21.565	1.370	0.493	
21.570	1.081	0.754	
21.575	0.616	0.935	
21.580	0.133	0.964	
21.585	-0.233	0.830	
21.590	-0.375	0.578	
21.595	-0.349	0.286	
21.600	-0.342	0.025	
21.605	-0.361	-0.173	
21.610	-0.268	-0.300	
21.615	-0.203	-0.357	
21.620	-0.247	-0.362	
21.625	-0.218	-0.340	
21.630	-0.137	-0.304	
21.635	-0.175	-0.261	
21.640	-0.203	-0.224	
21.645	-0.124	-0.197	
21.650	-0.110	-0.173	
21.655	-0.169	-0.153	
21.660	-0.105	-0.140	
21.665	-0.049	-0.128	
21.670	-0.124	-0.113	
21.675	-0.105	-0.104	
21.680	0.011	-0.095	
21.685	-0.052	-0.079	
21.690	-0.085	-0.065	
21.695	0.041	-0.055	
21.700	0.058	-0.037	
21.705	-0.027	-0.015	
21.710	0.097	0.003	
21.715	0.209	0.028	
21.720	0.110	0.065	
21.725	0.139	0.097	
21.730	0.265	0.125	
21.735	0.171	0.154	
21.740	0.090	0.172	
21.745	0.201	0.175	
21.750	0.155	0.174	
21.755	-0.006	0.165	
21.760	0.044	0.138	
21.765	0.084	0.107	
21.770	-0.060	0.079	
21.775	-0.069	0.046	
21.780	-0.003	0.012	
21.785	-0.098	-0.015	
21.790	-0.151	-0.041	
21.795	-0.079	-0.069	
21.800	-0.105	-0.089	
21.805	-0.186	-0.104	
21.810	-0.139	-0.121	
21.815	-0.104	-0.133	
21.820	-0.183	-0.139	
21.825	-0.178	-0.146	
21.830	-0.102	-0.152	
21.835	-0.148	-0.152	
21.840	-0.180	-0.150	
21.845	-0.101	-0.150	
21.850	-0.099	-0.144	
21.855	-0.169	-0.136	
21.860	-0.116	-0.133	
21.865	-0.072	-0.128	
21.870	-0.145	-0.121	
21.875	-0.130	-0.118	
21.880	-0.041	-0.115	
21.885	-0.105	-0.107	
21.890	-0.139	-0.101	
21.895	-0.044	-0.100	
21.900	-0.063	-0.094	
21.905	-0.143	-0.088	
21.910	-0.085	-0.089	
21.915	-0.024	-0.089	
21.920	-0.117	-0.084	
21.925	-0.096	-0.082	
21.930	-0.002	-0.081	
21.935	-0.070	-0.073	
21.940	-0.107	-0.067	
21.945	0.003	-0.065	
21.950	-0.009	-0.057	
21.955	-0.098	-0.048	
21.960	-0.018	-0.045	
21.965	0.053	-0.039	
21.970	-0.060	-0.027	
21.975	-0.055	-0.022	
21.980	0.044	-0.021	
21.985	-0.046	-0.018	
21.990	-0.096	-0.019	
21.995	-0.002	-0.027	
22.000	-0.029	-0.032	
22.005	-0.122	-0.037	
22.010	-0.067	-0.048	
22.015	-0.024	-0.058	
22.020	-0.127	-0.063	
22.025	-0.117	-0.072	
22.030	-0.038	-0.082	
22.035	-0.105	-0.085	
22.040	-0.145	-0.089	
22.045	-0.050	-0.095	
22.050	-0.050	-0.094	
22.055	-0.130	-0.090	
22.060	-0.064	-0.088	
22.065	-0.017	-0.083	
22.070	-0.111	-0.076	
22.075	-0.095	-0.073	
22.080	-0.009	-0.073	
22.085	-0.101	-0.069	
22.090	-0.160	-0.072	
22.095	-0.061	-0.082	
22.100	0.026	-0.084	
22.105	0.064	-0.067	
22.110	0.390	-0.021	
22.115	0.747	0.079	
22.120	0.840	0.239	
22.125	0.855	0.425	
22.130	0.785	0.592	
22.135	0.248	0.688	
22.140	-0.143	0.661	
22.145	-0.213	0.514	
22.150	-0.284	0.308	
22.155	-0.363	0.096	
22.160	-0.293	-0.085	
22.165	-0.210	-0.212	
22.170	-0.236	-0.279	
22.175	-0.203	-0.302	
22.180	-0.101	-0.291	
22.185	-0.131	-0.257	
22.190	-0.160	-0.217	
22.195	-0.067	-0.181	
22.200	-0.060	-0.146	
22.205	-0.136	-0.117	
22.210	-0.075	-0.100	
22.215	-0.011	-0.087	
22.220	-0.101	-0.073	
22.225	-0.078	-0.066	
22.230	0.035	-0.061	
22.235	-0.035	-0.049	
22.240	-0.076	-0.039	
22.245	0.056	-0.033	
22.250	0.064	-0.020	
22.255	-0.031	-0.002	
22.260	0.070	0.010	
22.265	0.168	0.027	
22.270	0.061	0.052	
22.275	0.096	0.072	
22.280	0.247	0.092	
22.285	0.171	0.120	
22.290	0.093	0.143	
22.295	0.213	0.154	
22.300	0.184	0.164	
22.305	0.033	0.167	
22.310	0.085	0.153	
22.315	0.126	0.133	
22.320	-0.031	0.113	
22.325	-0.050	0.083	
22.330	0.033	0.048	
22.335	-0.061	0.020	
22.340	-0.120	-0.007	
22.345	-0.044	-0.035	
22.350	-0.067	-0.055	
22.355	-0.151	-0.070	
22.360	-0.107	-0.086	
22.365	-0.069	-0.098	
22.370	-0.157	-0.105	
22.375	-0.156	-0.113	
22.380	-0.082	-0.122	
22.385	-0.140	-0.125	
22.390	-0.180	-0.129	
22.395	-0.104	-0.134	
22.400	-0.105	-0.135	
22.405	-0.171	-0.133	
22.410	-0.108	-0.133	
22.415	-0.055	-0.129	
22.420	-0.133	-0.119	
22.425	-0.116	-0.113	
22.430	-0.014	-0.106	
22.435	-0.078	-0.093	
22.440	-0.117	-0.083	
22.445	-0.018	-0.078	
22.450	-0.029	-0.070	
22.455	-0.114	-0.061	
22.460	-0.052	-0.060	
22.465	0.017	-0.058	
22.470	-0.081	-0.051	
22.475	-0.079	-0.048	
22.480	0.021	-0.048	
22.485	-0.050	-0.043	
22.490	-0.096	-0.041	
22.495	0.014	-0.043	
22.500	0.003	-0.039	
22.505	-0.096	-0.033	
22.510	-0.031	-0.035	
22.515	0.040	-0.034	
22.520	-0.067	-0.029	
22.525	-0.058	-0.028	
22.530	0.041	-0.029	
22.535	-0.049	-0.025	
22.540	-0.105	-0.026	
22.545	-0.018	-0.035	
22.550	-0.032	-0.040	
22.555	-0.124	-0.045	
22.560	-0.085	-0.056	
22.565	-0.040	-0.067	
22.570	-0.139	-0.073	
22.575	-0.137	-0.084	
22.580	-0.053	-0.096	
22.585	-0.114	-0.100	
22.590	-0.159	-0.104	
22.595	-0.070	-0.110	
22.600	-0.070	-0.110	
22.605	-0.148	-0.106	
22.610	-0.093	-0.106	
22.615	-0.038	-0.103	
22.620	-0.125	-0.097	
22.625	-0.119	-0.094	
22.630	-0.038	-0.094	
22.635	-0.122	-0.091	
22.640	-0.177	-0.094	
22.645	-0.056	-0.103	
22.650	0.061	-0.099	
22.655	0.146	-0.069	
22.660	0.521	-0.001	
22.665	0.905	0.129	
22.670	0.962	0.321	
22.675	0.919	0.529	
22.680	0.750	0.698	
22.685	0.157	0.771	
22.690	-0.200	0.704	
22.695	-0.253	0.519	
22.700	-0.308	0.285	
22.705	-0.374	0.060	
22.710	-0.299	-0.124	
22.715	-0.217	-0.247	
22.720	-0.249	-0.306	
22.725	-0.213	-0.322	
22.730	-0.117	-0.307	
22.735	-0.157	-0.271	
22.740	-0.182	-0.231	
22.745	-0.089	-0.197	
22.750	-0.087	-0.165	
22.755	-0.162	-0.138	
22.760	-0.102	-0.123	
22.765	-0.044	-0.112	
22.770	-0.125	-0.100	
22.775	-0.111	-0.095	
22.780	-0.005	-0.091	
22.785	-0.063	-0.081	
22.790	-0.101	-0.071	
22.795	0.020	-0.065	
22.800	0.037	-0.051	
22.805	-0.058	-0.033	
22.810	0.038	-0.020	
22.815	0.148	-0.002	
22.820	0.052	0.025	
22.825	0.093	0.049	
22.830	0.248	0.075	
22.835	0.172	0.109	
22.840	0.096	0.137	
22.845	0.221	0.153	
22.850	0.200	0.166	
22.855	0.044	0.173	
22.860	0.094	0.162	
22.865	0.142	0.144	
22.870	-0.021	0.125	
22.875	-0.053	0.095	
22.880	0.032	0.058	
22.885	-0.064	0.027	
22.890	-0.131	-0.004	
22.895	-0.060	-0.036	
22.900	-0.078	-0.061	
22.905	-0.165	-0.079	
22.910	-0.131	-0.098	
22.915	-0.087	-0.113	
22.920	-0.172	-0.122	
22.925	-0.171	-0.131	
22.930	-0.098	-0.140	
22.935	-0.151	-0.142	
22.940	-0.191	-0.144	
22.945	-0.108	-0.148	
22.950	-0.108	-0.147	
22.955	-0.178	-0.142	
22.960	-0.122	-0.141	
22.965	-0.063	-0.136	
22.970	-0.134	-0.127	
22.975	-0.120	-0.119	
22.980	-0.021	-0.112	
22.985	-0.076	-0.099	
22.990	-0.122	-0.088	
22.995	-0.027	-0.082	
23.000	-0.035	-0.074	
23.005	-0.120	-0.066	
23.010	-0.064	-0.066	
23.015	0.000	-0.065	
23.020	-0.095	-0.060	
23.025	-0.085	-0.059	
23.030	0.017	-0.059	
23.035	-0.052	-0.053	
23.040	-0.098	-0.049	
23.045	0.008	-0.049	
23.050	0.004	-0.043	
23.055	-0.095	-0.036	
23.060	-0.027	-0.036	
23.065	0.053	-0.034	
23.070	-0.055	-0.025	
23.075	-0.055	-0.021	
23.080	0.050	-0.021	
23.085	-0.029	-0.016	
23.090	-0.096	-0.016	
23.095	-0.014	-0.023	
23.100	-0.038	-0.030	
23.105	-0.128	-0.038	
23.110	-0.084	-0.052	
23.115	-0.043	-0.065	
23.120	-0.139	-0.074	
23.125	-0.146	-0.086	
23.130	-0.064	-0.099	
23.135	-0.117	-0.105	
23.140	-0.163	-0.110	
23.145	-0.076	-0.116	
23.150	-0.075	-0.116	
23.155	-0.153	-0.112	
23.160	-0.095	-0.111	
23.165	-0.031	-0.107	
23.170	-0.120	-0.098	
23.175	-0.122	-0.094	
23.180	-0.043	-0.093	
23.185	-0.124	-0.091	
23.190	-0.177	-0.095	
23.195	-0.049	-0.103	
23.200	0.113	-0.096	
23.205	0.227	-0.056	
23.210	0.643	0.030	
23.215	1.082	0.186	
23.220	1.123	0.410	
23.225	1.027	0.646	
23.230	0.779	0.825	
23.235	0.123	0.886	
23.240	-0.229	0.789	
23.245	-0.279	0.568	
23.250	-0.328	0.302	
23.255	-0.386	0.055	
23.260	-0.308	-0.141	
23.265	-0.224	-0.268	
23.270	-0.261	-0.328	
23.275	-0.232	-0.342	
23.280	-0.140	-0.326	
23.285	-0.166	-0.289	
23.290	-0.197	-0.248	
23.295	-0.108	-0.213	
23.300	-0.098	-0.180	
23.305	-0.166	-0.153	
23.310	-0.114	-0.136	
23.315	-0.049	-0.123	
23.320	-0.127	-0.110	
23.325	-0.114	-0.102	
23.330	-0.015	-0.097	
23.335	-0.070	-0.086	
23.340	-0.111	-0.077	
23.345	0.012	-0.072	
23.350	0.032	-0.058	
23.355	-0.056	-0.040	
23.360	0.049	-0.025	
23.365	0.165	-0.004	
23.370	0.061	0.028	
23.375	0.099	0.056	
23.380	0.259	0.083	
23.385	0.184	0.118	
23.390	0.104	0.148	
23.395	0.233	0.163	
23.400	0.207	0.177	
23.405	0.049	0.183	
23.410	0.096	0.171	
23.415	0.143	0.151	
23.420	-0.020	0.130	
23.425	-0.047	0.098	
23.430	0.037	0.061	
23.435	-0.061	0.030	
23.440	-0.133	-0.001	
23.445	-0.063	-0.034	
23.450	-0.081	-0.060	
23.455	-0.169	-0.079	
23.460	-0.133	-0.100	
23.465	-0.087	-0.116	
23.470	-0.177	-0.124	
23.475	-0.183	-0.134	
23.480	-0.104	-0.144	
23.485	-0.148	-0.148	
23.490	-0.194	-0.149	
23.495	-0.111	-0.152	
23.500	-0.107	-0.150	
23.505	-0.172	-0.144	
23.510	-0.120	-0.141	
23.515	-0.060	-0.135	
23.520	-0.137	-0.125	
23.525	-0.131	-0.118	
23.530	-0.040	-0.113	
23.535	-0.090	-0.104	
23.540	-0.136	-0.097	
23.545	-0.049	-0.094	
23.550	-0.053	-0.089	
23.555	-0.134	-0.083	
23.560	-0.081	-0.084	
23.565	-0.024	-0.083	
23.570	-0.116	-0.079	
23.575	-0.113	-0.079	
23.580	-0.026	-0.082	
23.585	-0.084	-0.079	
23.590	-0.128	-0.078	
23.595	-0.034	-0.081	
23.600	-0.029	-0.077	
23.605	-0.111	-0.071	
23.610	-0.052	-0.068	
23.615	0.018	-0.064	
23.620	-0.084	-0.054	
23.625	-0.079	-0.050	
23.630	0.033	-0.049	
23.635	-0.026	-0.041	
23.640	-0.069	-0.033	
23.645	0.035	-0.029	
23.650	0.021	-0.021	
23.655	-0.095	-0.014	
23.660	-0.046	-0.018	
23.665	-0.002	-0.025	
23.670	-0.110	-0.031	
23.675	-0.117	-0.044	
23.680	-0.043	-0.060	
23.685	-0.110	-0.071	
23.690	-0.162	-0.083	
23.695	-0.085	-0.098	
23.700	-0.087	-0.106	
23.705	-0.157	-0.110	
23.710	-0.110	-0.115	
23.715	-0.056	-0.116	
23.720	-0.134	-0.112	
23.725	-0.131	-0.110	
23.730	-0.046	-0.109	
23.735	-0.090	-0.103	
23.740	-0.134	-0.098	
23.745	-0.047	-0.096	
23.750	-0.061	-0.090	
23.755	-0.166	-0.087	
23.760	-0.134	-0.093	
23.765	-0.035	-0.101	
23.770	0.014	-0.095	
23.775	0.274	-0.062	
23.780	0.764	0.027	
23.785	1.091	0.199	
23.790	1.279	0.442	
23.795	1.348	0.710	
23.800	0.969	0.939	
23.805	0.198	1.039	
23.810	-0.151	0.953	
23.815	-0.273	0.717	
23.820	-0.403	0.418	
23.825	-0.395	0.126	
23.830	-0.294	-0.110	
23.835	-0.291	-0.264	
23.840	-0.294	-0.345	
23.845	-0.191	-0.371	
23.850	-0.168	-0.354	
23.855	-0.226	-0.315	
23.860	-0.168	-0.274	
23.865	-0.119	-0.235	
23.870	-0.175	-0.199	
23.875	-0.159	-0.174	
23.880	-0.085	-0.156	
23.885	-0.120	-0.139	
23.890	-0.149	-0.127	
23.895	-0.056	-0.120	
23.900	-0.055	-0.109	
23.905	-0.117	-0.096	
23.910	-0.053	-0.088	
23.915	0.020	-0.077	
23.920	-0.060	-0.061	
23.925	-0.027	-0.048	
23.930	0.113	-0.032	
23.935	0.072	-0.006	
23.940	0.041	0.021	
23.945	0.204	0.047	
23.950	0.224	0.083	
23.955	0.126	0.121	
23.960	0.219	0.149	
23.965	0.273	0.174	
23.970	0.133	0.196	
23.975	0.122	0.201	
23.980	0.201	0.193	
23.985	0.076	0.181	
23.990	-0.020	0.157	
23.995	0.058	0.121	
24.000	0.004	0.085	
24.005	-0.104	0.050	
24.010	-0.072	0.011	
24.015	-0.049	-0.024	
24.020	-0.145	-0.051	
24.025	-0.153	-0.078	
24.030	-0.099	-0.102	
24.035	-0.148	-0.118	
24.040	-0.186	-0.131	
24.045	-0.120	-0.143	
24.050	-0.134	-0.148	
24.055	-0.195	-0.150	
24.060	-0.148	-0.155	
24.065	-0.105	-0.156	
24.070	-0.169	-0.152	
24.075	-0.154	-0.150	
24.080	-0.082	-0.147	
24.085	-0.128	-0.139	
24.090	-0.156	-0.132	
24.095	-0.072	-0.128	
24.100	-0.084	-0.120	
24.105	-0.153	-0.112	
24.110	-0.101	-0.110	
24.115	-0.050	-0.107	
24.120	-0.128	-0.101	
24.125	-0.117	-0.099	
24.130	-0.032	-0.098	
24.135	-0.093	-0.092	
24.140	-0.134	-0.089	
24.145	-0.050	-0.089	
24.150	-0.049	-0.086	
24.155	-0.134	-0.082	
24.160	-0.084	-0.083	
24.165	-0.035	-0.084	
24.170	-0.122	-0.082	
24.175	-0.108	-0.083	
24.180	0.000	-0.084	
24.185	-0.053	-0.077	
24.190	-0.092	-0.068	
24.195	0.023	-0.061	
24.200	0.021	-0.047	
24.205	-0.076	-0.033	
24.210	0.003	-0.025	
24.215	0.084	-0.016	
24.220	-0.032	-0.002	
24.225	-0.038	0.004	
24.230	0.075	0.005	
24.235	-0.011	0.009	
24.240	-0.076	0.008	
24.245	0.004	-0.001	
24.250	-0.011	-0.009	
24.255	-0.104	-0.017	
24.260	-0.055	-0.030	
24.265	-0.015	-0.042	
24.270	-0.122	-0.049	
24.275	-0.122	-0.062	
24.280	-0.032	-0.075	
24.285	-0.085	-0.080	
24.290	-0.134	-0.083	
24.295	-0.038	-0.088	
24.300	-0.038	-0.085	
24.305	-0.125	-0.079	
24.310	-0.070	-0.078	
24.315	0.003	-0.075	
24.320	-0.099	-0.068	
24.325	-0.101	-0.065	
24.330	-0.018	-0.066	
24.335	-0.105	-0.066	
24.340	-0.163	-0.072	
24.345	-0.043	-0.083	
24.350	0.085	-0.081	
24.355	0.161	-0.052	
24.360	0.515	0.015	
24.365	0.915	0.142	
24.370	0.971	0.331	
24.375	0.908	0.537	
24.380	0.733	0.701	
24.385	0.145	0.769	
24.390	-0.210	0.698	
24.395	-0.267	0.509	
24.400	-0.317	0.273	
24.405	-0.377	0.048	
24.410	-0.296	-0.135	
24.415	-0.207	-0.254	
24.420	-0.238	-0.309	
24.425	-0.207	-0.321	
24.430	-0.101	-0.302	
24.435	-0.130	-0.262	
24.440	-0.168	-0.218	
24.445	-0.082	-0.182	
24.450	-0.072	-0.149	
24.455	-0.146	-0.122	
24.460	-0.084	-0.108	
24.465	-0.009	-0.095	
24.470	-0.099	-0.081	
24.475	-0.101	-0.073	
24.480	0.015	-0.069	
24.485	-0.041	-0.059	
24.490	-0.089	-0.051	
24.495	0.029	-0.046	
24.500	0.047	-0.034	
24.505	-0.053	-0.019	
24.510	0.043	-0.009	
24.515	0.157	0.007	
24.520	0.053	0.032	
24.525	0.081	0.054	
24.530	0.238	0.076	
24.535	0.168	0.106	
24.540	0.078	0.131	
24.545	0.201	0.144	
24.550	0.178	0.154	
24.555	0.021	0.157	
24.560	0.072	0.143	
24.565	0.126	0.123	
24.570	-0.037	0.104	
24.575	-0.055	0.075	
24.580	0.032	0.042	
24.585	-0.063	0.015	
24.590	-0.136	-0.011	
24.595	-0.067	-0.041	
24.600	-0.089	-0.064	
24.605	-0.174	-0.083	
24.610	-0.137	-0.104	
24.615	-0.095	-0.120	
24.620	-0.172	-0.128	
24.625	-0.182	-0.138	
24.630	-0.107	-0.146	
24.635	-0.149	-0.149	
24.640	-0.185	-0.150	
24.645	-0.101	-0.151	
24.650	-0.104	-0.147	
24.655	-0.177	-0.140	
24.660	-0.122	-0.137	
24.665	-0.061	-0.133	
24.670	-0.139	-0.124	
24.675	-0.130	-0.118	
24.680	-0.032	-0.113	
24.685	-0.087	-0.103	
24.690	-0.131	-0.095	
24.695	-0.027	-0.090	
24.700	-0.018	-0.081	
24.705	-0.116	-0.070	
24.710	-0.060	-0.066	
24.715	0.015	-0.062	
24.720	-0.087	-0.054	
24.725	-0.093	-0.051	
24.730	0.008	-0.053	
24.735	-0.058	-0.050	
24.740	-0.111	-0.050	
24.745	-0.012	-0.054	
24.750	-0.009	-0.053	
24.755	-0.099	-0.048	
24.760	-0.037	-0.049	
24.765	0.041	-0.046	
24.770	-0.067	-0.037	
24.775	-0.067	-0.033	
24.780	0.061	-0.032	
24.785	-0.012	-0.023	
24.790	-0.075	-0.016	
24.795	0.027	-0.016	
24.800	0.017	-0.013	
24.805	-0.098	-0.011	
24.810	-0.046	-0.018	
24.815	0.015	-0.027	
24.820	-0.096	-0.031	
24.825	-0.105	-0.040	
24.830	-0.023	-0.053	
24.835	-0.095	-0.060	
24.840	-0.146	-0.070	
24.845	-0.061	-0.082	
24.850	-0.063	-0.088	
24.855	-0.151	-0.091	
24.860	-0.093	-0.096	
24.865	-0.026	-0.098	
24.870	-0.124	-0.093	
24.875	-0.119	-0.092	
24.880	-0.021	-0.092	
24.885	-0.082	-0.086	
24.890	-0.133	-0.082	
24.895	-0.047	-0.083	
24.900	-0.072	-0.082	
24.905	-0.171	-0.083	
24.910	-0.098	-0.092	
24.915	0.062	-0.093	
24.920	0.107	-0.071	
24.925	0.354	-0.017	
24.930	0.811	0.087	
24.935	0.963	0.258	
24.940	0.873	0.461	
24.945	0.784	0.637	
24.950	0.322	0.733	
24.955	-0.156	0.704	
24.960	-0.261	0.548	
24.965	-0.284	0.326	
24.970	-0.360	0.102	
24.975	-0.334	-0.089	
24.980	-0.220	-0.224	
24.985	-0.221	-0.295	
24.990	-0.236	-0.317	
24.995	-0.137	-0.307	
25.000	-0.120	-0.275	
25.005	-0.180	-0.234	
25.010	-0.127	-0.199	
25.015	-0.058	-0.168	
25.020	-0.133	-0.139	
25.025	-0.130	-0.120	
25.030	-0.027	-0.108	
25.035	-0.081	-0.094	
25.040	-0.133	-0.085	
25.045	-0.035	-0.082	
25.050	-0.020	-0.076	
25.055	-0.107	-0.067	
25.060	-0.035	-0.063	
25.065	0.064	-0.055	
25.070	-0.040	-0.038	
25.075	-0.023	-0.024	
25.080	0.140	-0.011	
25.085	0.093	0.014	
25.090	0.032	0.040	
25.095	0.190	0.062	
25.100	0.224	0.090	
25.105	0.097	0.122	
25.110	0.165	0.141	
25.115	0.224	0.155	
25.120	0.068	0.165	
25.125	0.035	0.157	
25.130	0.140	0.137	
25.135	0.026	0.118	
25.140	-0.075	0.092	
25.145	0.009	0.057	
25.150	-0.014	0.026	
25.155	-0.130	-0.001	
25.160	-0.102	-0.031	
25.165	-0.047	-0.058	
25.170	-0.143	-0.076	
25.175	-0.159	-0.094	
25.180	-0.076	-0.110	
25.185	-0.133	-0.118	
25.190	-0.186	-0.125	
25.195	-0.113	-0.133	
25.200	-0.110	-0.137	
25.205	-0.191	-0.138	
25.210	-0.145	-0.142	
25.215	-0.087	-0.144	
25.220	-0.163	-0.141	
25.225	-0.160	-0.140	
25.230	-0.063	-0.138	
25.235	-0.105	-0.130	
25.240	-0.154	-0.122	
25.245	-0.058	-0.117	
25.250	-0.037	-0.107	
25.255	-0.122	-0.094	
25.260	-0.066	-0.087	
25.265	0.018	-0.078	
25.270	-0.090	-0.064	
25.275	-0.101	-0.058	
25.280	0.011	-0.057	
25.285	-0.052	-0.052	
25.290	-0.116	-0.050	
25.295	-0.018	-0.053	
25.300	-0.006	-0.053	
25.305	-0.107	-0.049	
25.310	-0.052	-0.051	
25.315	0.027	-0.050	
25.320	-0.075	-0.044	
25.325	-0.078	-0.043	
25.330	0.040	-0.043	
25.335	-0.035	-0.036	
25.340	-0.085	-0.032	
25.345	0.038	-0.032	
25.350	0.040	-0.024	
25.355	-0.078	-0.014	
25.360	-0.018	-0.013	
25.365	0.049	-0.013	
25.370	-0.078	-0.011	
25.375	-0.095	-0.017	
25.380	0.009	-0.029	
25.385	-0.064	-0.036	
25.390	-0.131	-0.044	
25.395	-0.056	-0.058	
25.400	-0.063	-0.068	
25.405	-0.157	-0.076	
25.410	-0.114	-0.089	
25.415	-0.053	-0.099	
25.420	-0.133	-0.102	
25.425	-0.127	-0.105	
25.430	-0.021	-0.106	
25.435	-0.075	-0.098	
25.440	-0.136	-0.090	
25.445	-0.047	-0.088	
25.450	-0.044	-0.083	
25.455	-0.134	-0.078	
25.460	-0.099	-0.080	
25.465	-0.063	-0.085	
25.470	-0.146	-0.088	
25.475	-0.099	-0.095	
25.480	0.189	-0.088	
25.485	0.343	-0.039	
25.490	0.578	0.059	
25.495	1.049	0.214	
25.500	1.219	0.430	
25.505	0.962	0.662	
25.510	0.643	0.829	
25.515	0.183	0.870	
25.520	-0.220	0.766	
25.525	-0.342	0.546	
25.530	-0.314	0.281	
25.535	-0.343	0.038	
25.540	-0.352	-0.151	
25.545	-0.242	-0.275	
25.550	-0.200	-0.334	
25.555	-0.246	-0.342	
25.560	-0.185	-0.323	
25.565	-0.117	-0.288	
25.570	-0.180	-0.245	
25.575	-0.171	-0.209	
25.580	-0.072	-0.180	
25.585	-0.116	-0.152	
25.590	-0.156	-0.132	
25.595	-0.058	-0.120	
25.600	-0.046	-0.106	
25.605	-0.136	-0.093	
25.610	-0.076	-0.088	
25.615	0.015	-0.082	
25.620	-0.078	-0.069	
25.625	-0.078	-0.060	
25.630	0.065	-0.053	
25.635	0.024	-0.036	
25.640	-0.034	-0.017	
25.645	0.123	-0.001	
25.650	0.165	0.025	
25.655	0.059	0.056	
25.660	0.168	0.082	
25.665	0.277	0.111	
25.670	0.149	0.145	
25.675	0.136	0.167	
25.680	0.245	0.178	
25.685	0.149	0.187	
25.690	0.029	0.183	
25.695	0.119	0.162	
25.700	0.085	0.138	
25.705	-0.063	0.112	
25.710	-0.037	0.074	
25.715	0.009	0.036	
25.720	-0.111	0.005	
25.725	-0.137	-0.027	
25.730	-0.055	-0.059	
25.735	-0.114	-0.080	
25.740	-0.182	-0.097	
25.745	-0.113	-0.115	
25.750	-0.114	-0.126	
25.755	-0.197	-0.134	
25.760	-0.154	-0.143	
25.765	-0.104	-0.149	
25.770	-0.180	-0.150	
25.775	-0.180	-0.152	
25.780	-0.079	-0.154	
25.785	-0.124	-0.148	
25.790	-0.166	-0.140	
25.795	-0.076	-0.135	
25.800	-0.066	-0.125	
25.805	-0.145	-0.114	
25.810	-0.098	-0.108	
25.815	-0.020	-0.102	
25.820	-0.107	-0.091	
25.825	-0.107	-0.085	
25.830	-0.008	-0.081	
25.835	-0.063	-0.073	
25.840	-0.128	-0.068	
25.845	-0.043	-0.069	
25.850	-0.034	-0.068	
25.855	-0.128	-0.066	
25.860	-0.081	-0.070	
25.865	-0.011	-0.073	
25.870	-0.110	-0.071	
25.875	-0.116	-0.073	
25.880	-0.014	-0.076	
25.885	-0.066	-0.074	
25.890	-0.119	-0.071	
25.895	-0.018	-0.072	
25.900	0.003	-0.066	
25.905	-0.095	-0.055	
25.910	-0.041	-0.051	
25.915	0.047	-0.045	
25.920	-0.069	-0.035	
25.925	-0.072	-0.031	
25.930	0.059	-0.030	
25.935	-0.003	-0.022	
25.940	-0.079	-0.015	
25.945	0.023	-0.016	
25.950	0.023	-0.013	
25.955	-0.095	-0.011	
25.960	-0.049	-0.018	
25.965	0.009	-0.026	
25.970	-0.107	-0.032	
25.975	-0.130	-0.044	
25.980	-0.047	-0.061	
25.985	-0.108	-0.074	
25.990	-0.169	-0.086	
25.995	-0.082	-0.101	
26.000	-0.073	-0.108	
26.005	-0.160	-0.110	
26.010	-0.117	-0.114	
26.015	-0.049	-0.115	
26.020	-0.131	-0.111	
26.025	-0.130	-0.108	
26.030	-0.026	-0.106	
26.035	-0.084	-0.098	
26.040	-0.143	-0.091	
26.045	-0.066	-0.091	
26.050	-0.078	-0.091	
26.055	-0.177	-0.092	
26.060	-0.095	-0.100	
26.065	0.149	-0.095	
26.070	0.262	-0.054	
26.075	0.608	0.035	
26.080	1.151	0.194	
26.085	1.328	0.432	
26.090	1.166	0.699	
26.095	0.950	0.913	
26.100	0.326	1.007	
26.105	-0.203	0.932	
26.110	-0.319	0.704	
26.115	-0.334	0.409	
26.120	-0.393	0.124	
26.125	-0.358	-0.107	
26.130	-0.242	-0.263	
26.135	-0.246	-0.342	
26.140	-0.264	-0.363	
26.145	-0.172	-0.351	
26.150	-0.153	-0.315	
26.155	-0.213	-0.271	
26.160	-0.163	-0.234	
26.165	-0.095	-0.201	
26.170	-0.162	-0.172	
26.175	-0.160	-0.153	
26.180	-0.061	-0.140	
26.185	-0.105	-0.126	
26.190	-0.151	-0.115	
26.195	-0.058	-0.110	
26.200	-0.037	-0.101	
26.205	-0.117	-0.090	
26.210	-0.049	-0.082	
26.215	0.056	-0.071	
26.220	-0.044	-0.051	
26.225	-0.023	-0.035	
26.230	0.148	-0.017	
26.235	0.122	0.012	
26.240	0.078	0.046	
26.245	0.245	0.079	
26.250	0.274	0.119	
26.255	0.143	0.160	
26.260	0.213	0.186	
26.265	0.285	0.204	
26.270	0.131	0.218	
26.275	0.084	0.213	
26.280	0.187	0.194	
26.285	0.076	0.174	
26.290	-0.044	0.145	
26.295	0.038	0.105	
26.300	0.021	0.069	
26.305	-0.111	0.037	
26.310	-0.082	0.001	
26.315	-0.038	-0.031	
26.320	-0.142	-0.055	
26.325	-0.162	-0.079	
26.330	-0.085	-0.102	
26.335	-0.139	-0.116	
26.340	-0.192	-0.127	
26.345	-0.120	-0.139	
26.350	-0.125	-0.145	
26.355	-0.204	-0.147	
26.360	-0.157	-0.153	
26.365	-0.090	-0.156	
26.370	-0.162	-0.152	
26.375	-0.163	-0.148	
26.380	-0.070	-0.145	
26.385	-0.107	-0.135	
26.390	-0.157	-0.126	
26.395	-0.070	-0.121	
26.400	-0.060	-0.113	
26.405	-0.143	-0.103	
26.410	-0.102	-0.100	
26.415	-0.034	-0.098	
26.420	-0.120	-0.092	
26.425	-0.122	-0.090	
26.430	-0.029	-0.091	
26.435	-0.087	-0.087	
26.440	-0.142	-0.085	
26.445	-0.055	-0.088	
26.450	-0.047	-0.087	
26.455	-0.139	-0.084	
26.460	-0.098	-0.086	
26.465	-0.020	-0.088	
26.470	-0.117	-0.084	
26.475	-0.127	-0.084	
26.480	-0.027	-0.087	
26.485	-0.079	-0.085	
26.490	-0.136	-0.083	
26.495	-0.044	-0.085	
26.500	-0.029	-0.082	
26.505	-0.117	-0.075	
26.510	-0.067	-0.073	
26.515	0.020	-0.070	
26.520	-0.075	-0.060	
26.525	-0.078	-0.053	
26.530	0.041	-0.049	
26.535	-0.018	-0.039	
26.540	-0.069	-0.029	
26.545	0.058	-0.024	
26.550	0.067	-0.011	
26.555	-0.063	0.003	
26.560	-0.009	0.006	
26.565	0.062	0.006	
26.570	-0.063	0.007	
26.575	-0.081	-0.000	
26.580	0.021	-0.013	
26.585	-0.055	-0.021	
26.590	-0.128	-0.032	
26.595	-0.049	-0.047	
26.600	-0.044	-0.059	
26.605	-0.139	-0.066	
26.610	-0.098	-0.077	
26.615	-0.024	-0.085	
26.620	-0.116	-0.085	
26.625	-0.117	-0.087	
26.630	-0.027	-0.089	
26.635	-0.078	-0.085	
26.640	-0.131	-0.082	
26.645	-0.035	-0.083	
26.650	-0.021	-0.078	
26.655	-0.113	-0.070	
26.660	-0.082	-0.069	
26.665	-0.038	-0.070	
26.670	-0.128	-0.071	
26.675	-0.087	-0.076	
26.680	0.198	-0.069	
26.685	0.360	-0.022	
26.690	0.588	0.075	
26.695	1.047	0.227	
26.700	1.203	0.440	
26.705	0.953	0.667	
26.710	0.619	0.827	
26.715	0.154	0.861	
26.720	-0.229	0.752	
26.725	-0.343	0.529	
26.730	-0.311	0.265	
26.735	-0.337	0.027	
26.740	-0.343	-0.157	
26.745	-0.229	-0.276	
26.750	-0.178	-0.329	
26.755	-0.224	-0.331	
26.760	-0.160	-0.308	
26.765	-0.095	-0.269	
26.770	-0.159	-0.224	
26.775	-0.157	-0.186	
26.780	-0.060	-0.158	
26.785	-0.099	-0.132	
26.790	-0.146	-0.114	
26.795	-0.050	-0.104	
26.800	-0.035	-0.093	
26.805	-0.127	-0.082	
26.810	-0.067	-0.078	
26.815	0.029	-0.072	
26.820	-0.069	-0.060	
26.825	-0.063	-0.050	
26.830	0.075	-0.042	
26.835	0.023	-0.025	
26.840	-0.047	-0.009	
26.845	0.114	0.003	
26.850	0.165	0.024	
26.855	0.046	0.052	
26.860	0.142	0.075	
26.865	0.251	0.099	
26.870	0.125	0.128	
26.875	0.099	0.147	
26.880	0.224	0.154	
26.885	0.120	0.160	
26.890	-0.009	0.154	
26.895	0.094	0.132	
26.900	0.072	0.108	
26.905	-0.081	0.084	
26.910	-0.043	0.050	
26.915	0.021	0.018	
26.920	-0.107	-0.006	
26.925	-0.137	-0.032	
26.930	-0.058	-0.059	
26.935	-0.119	-0.079	
26.940	-0.183	-0.096	
26.945	-0.110	-0.114	
26.950	-0.107	-0.126	
26.955	-0.192	-0.132	
26.960	-0.159	-0.140	
26.965	-0.105	-0.147	
26.970	-0.180	-0.149	
26.975	-0.174	-0.151	
26.980	-0.087	-0.153	
26.985	-0.131	-0.148	
26.990	-0.186	-0.143	
26.995	-0.101	-0.142	
27.000	-0.087	-0.137	
27.005	-0.162	-0.129	
27.010	-0.108	-0.126	
27.015	-0.034	-0.120	
27.020	-0.113	-0.108	
27.025	-0.114	-0.100	
27.030	-0.012	-0.093	
27.035	-0.064	-0.082	
27.040	-0.122	-0.074	
27.045	-0.029	-0.072	
27.050	-0.015	-0.066	
27.055	-0.114	-0.060	
27.060	-0.067	-0.060	
27.065	0.015	-0.059	
27.070	-0.093	-0.054	
27.075	-0.113	-0.055	
27.080	-0.015	-0.060	
27.085	-0.075	-0.062	
27.090	-0.127	-0.065	
27.095	-0.027	-0.071	
27.100	-0.011	-0.069	
27.105	-0.107	-0.063	
27.110	-0.043	-0.061	
27.115	0.046	-0.055	
27.120	-0.069	-0.043	
27.125	-0.073	-0.037	
27.130	0.056	-0.034	
27.135	0.001	-0.025	
27.140	-0.075	-0.016	
27.145	0.037	-0.014	
27.150	0.037	-0.009	
27.155	-0.085	-0.004	
27.160	-0.040	-0.008	
27.165	0.032	-0.015	
27.170	-0.089	-0.019	
27.175	-0.105	-0.029	
27.180	-0.021	-0.043	
27.185	-0.081	-0.053	
27.190	-0.143	-0.063	
27.195	-0.058	-0.076	
27.200	-0.047	-0.082	
27.205	-0.140	-0.084	
27.210	-0.095	-0.089	
27.215	-0.014	-0.091	
27.220	-0.119	-0.086	
27.225	-0.128	-0.085	
27.230	-0.014	-0.087	
27.235	-0.055	-0.082	
27.240	-0.117	-0.075	
27.245	-0.026	-0.073	
27.250	-0.014	-0.066	
27.255	-0.133	-0.060	
27.260	-0.095	-0.063	
27.265	0.021	-0.066	
27.270	0.014	-0.058	
27.275	0.189	-0.032	
27.280	0.611	0.033	
27.285	0.829	0.162	
27.290	0.875	0.341	
27.295	0.933	0.528	
27.300	0.637	0.678	
27.305	0.023	0.730	
27.310	-0.180	0.644	
27.315	-0.247	0.456	
27.320	-0.361	0.231	
27.325	-0.366	0.017	
27.330	-0.258	-0.154	
27.335	-0.255	-0.262	
27.340	-0.264	-0.315	
27.345	-0.163	-0.326	
27.350	-0.130	-0.305	
27.355	-0.195	-0.266	
27.360	-0.142	-0.229	
27.365	-0.072	-0.194	
27.370	-0.146	-0.161	
27.375	-0.142	-0.138	
27.380	-0.038	-0.123	
27.385	-0.085	-0.107	
27.390	-0.145	-0.096	
27.395	-0.060	-0.093	
27.400	-0.035	-0.088	
27.405	-0.117	-0.081	
27.410	-0.064	-0.078	
27.415	0.029	-0.072	
27.420	-0.064	-0.059	
27.425	-0.060	-0.049	
27.430	0.088	-0.040	
27.435	0.043	-0.020	
27.440	-0.014	0.000	
27.445	0.145	0.018	
27.450	0.187	0.044	
27.455	0.059	0.076	
27.460	0.146	0.098	
27.465	0.236	0.118	
27.470	0.085	0.139	
27.475	0.044	0.144	
27.480	0.158	0.135	
27.485	0.055	0.125	
27.490	-0.053	0.107	
27.495	0.032	0.078	
27.500	0.004	0.049	
27.505	-0.117	0.023	
27.510	-0.079	-0.009	
27.515	-0.038	-0.037	
27.520	-0.140	-0.058	
27.525	-0.154	-0.079	
27.530	-0.079	-0.099	
27.535	-0.136	-0.112	
27.540	-0.191	-0.122	
27.545	-0.117	-0.134	
27.550	-0.114	-0.140	
27.555	-0.195	-0.142	
27.560	-0.151	-0.147	
27.565	-0.090	-0.150	
27.570	-0.165	-0.146	
27.575	-0.172	-0.145	
27.580	-0.085	-0.145	
27.585	-0.117	-0.139	
27.590	-0.162	-0.133	
27.595	-0.067	-0.129	
27.600	-0.053	-0.119	
27.605	-0.137	-0.107	
27.610	-0.079	-0.100	
27.615	-0.002	-0.092	
27.620	-0.096	-0.079	
27.625	-0.098	-0.072	
27.630	0.024	-0.067	
27.635	-0.049	-0.057	
27.640	-0.111	-0.050	
27.645	-0.009	-0.050	
27.650	-0.005	-0.047	
27.655	-0.117	-0.043	
27.660	-0.070	-0.048	
27.665	0.004	-0.053	
27.670	-0.095	-0.053	
27.675	-0.099	-0.056	
27.680	0.015	-0.060	
27.685	-0.043	-0.056	
27.690	-0.105	-0.052	
27.695	0.011	-0.052	
27.700	0.024	-0.045	
27.705	-0.089	-0.034	
27.710	-0.024	-0.031	
27.715	0.078	-0.026	
27.720	-0.044	-0.015	
27.725	-0.063	-0.010	
27.730	0.049	-0.012	
27.735	-0.027	-0.010	
27.740	-0.105	-0.012	
27.745	-0.023	-0.023	
27.750	-0.026	-0.032	
27.755	-0.128	-0.040	
27.760	-0.093	-0.054	
27.765	-0.034	-0.067	
27.770	-0.130	-0.074	
27.775	-0.139	-0.084	
27.780	-0.052	-0.095	
27.785	-0.101	-0.098	
27.790	-0.153	-0.100	
27.795	-0.067	-0.105	
27.800	-0.064	-0.104	
27.805	-0.142	-0.100	
27.810	-0.090	-0.100	
27.815	-0.017	-0.097	
27.820	-0.110	-0.088	
27.825	-0.113	-0.084	
27.830	-0.031	-0.083	
27.835	-0.111	-0.081	
27.840	-0.159	-0.083	
27.845	0.000	-0.089	
27.850	0.200	-0.074	
27.855	0.302	-0.020	
27.860	0.694	0.079	
27.865	1.098	0.242	
27.870	1.053	0.459	
27.875	0.895	0.670	
27.880	0.604	0.809	
27.885	0.011	0.826	
27.890	-0.265	0.698	
27.895	-0.293	0.469	
27.900	-0.311	0.216	
27.905	-0.363	-0.007	
27.910	-0.293	-0.177	
