Vernier Format 2
ecg5.txt 10/20/2025 7:59:36
Run 1
Time	Potential	EKG	
T	P	E	
s	mV	mV	

0.000	-0.061	-0.003	
0.005	-0.024	-0.010	
0.010	-0.134	-0.024	
0.015	-0.142	-0.046	
0.020	-0.072	-0.071	
0.025	-0.140	-0.090	
0.030	-0.188	-0.107	
0.035	-0.107	-0.125	
0.040	-0.116	-0.134	
0.045	-0.197	-0.139	
0.050	-0.148	-0.146	
0.055	-0.095	-0.149	
0.060	-0.169	-0.147	
0.065	-0.148	-0.145	
0.070	-0.050	-0.142	
0.075	-0.107	-0.130	
0.080	-0.140	-0.119	
0.085	-0.047	-0.112	
0.090	-0.043	-0.100	
0.095	-0.130	-0.088	
0.100	-0.067	-0.083	
0.105	-0.002	-0.077	
0.110	-0.099	-0.068	
0.115	-0.089	-0.064	
0.120	0.017	-0.063	
0.125	-0.056	-0.055	
0.130	-0.105	-0.051	
0.135	-0.003	-0.052	
0.140	-0.005	-0.048	
0.145	-0.104	-0.043	
0.150	-0.060	-0.045	
0.155	-0.008	-0.048	
0.160	-0.110	-0.049	
0.165	-0.114	-0.057	
0.170	-0.029	-0.067	
0.175	-0.093	-0.072	
0.180	-0.154	-0.078	
0.185	-0.082	-0.089	
0.190	-0.098	-0.097	
0.195	-0.180	-0.104	
0.200	-0.137	-0.116	
0.205	-0.084	-0.125	
0.210	-0.160	-0.128	
0.215	-0.157	-0.132	
0.220	-0.070	-0.134	
0.225	-0.122	-0.130	
0.230	-0.166	-0.126	
0.235	-0.079	-0.126	
0.240	-0.078	-0.121	
0.245	-0.165	-0.115	
0.250	-0.139	-0.116	
0.255	-0.110	-0.120	
0.260	-0.162	-0.124	
0.265	-0.047	-0.126	
0.270	0.300	-0.101	
0.275	0.514	-0.021	
0.280	0.779	0.119	
0.285	1.155	0.315	
0.290	1.122	0.548	
0.295	0.707	0.750	
0.300	0.256	0.840	
0.305	-0.085	0.782	
0.310	-0.322	0.598	
0.315	-0.392	0.345	
0.320	-0.337	0.091	
0.325	-0.340	-0.116	
0.330	-0.337	-0.259	
0.335	-0.223	-0.338	
0.340	-0.186	-0.360	
0.345	-0.233	-0.342	
0.350	-0.169	-0.308	
0.355	-0.102	-0.266	
0.360	-0.165	-0.221	
0.365	-0.146	-0.184	
0.370	-0.046	-0.156	
0.375	-0.090	-0.128	
0.380	-0.131	-0.107	
0.385	-0.032	-0.095	
0.390	-0.011	-0.081	
0.395	-0.101	-0.066	
0.400	-0.024	-0.058	
0.405	0.076	-0.046	
0.410	-0.014	-0.027	
0.415	0.020	-0.009	
0.420	0.194	0.011	
0.425	0.155	0.045	
0.430	0.108	0.082	
0.435	0.261	0.114	
0.440	0.270	0.150	
0.445	0.142	0.184	
0.450	0.206	0.201	
0.455	0.262	0.210	
0.460	0.107	0.215	
0.465	0.076	0.203	
0.470	0.163	0.179	
0.475	0.044	0.155	
0.480	-0.064	0.123	
0.485	0.009	0.081	
0.490	-0.027	0.042	
0.495	-0.134	0.007	
0.500	-0.102	-0.030	
			
Vernier Format 2
ecg5.txt 10/20/2025 7:59:36
Run 2
Time	Potential	EKG	
T	P	E	
s	mV	mV	

0.000	-0.378	-0.017	
0.005	-0.335	-0.073	
0.010	-0.441	-0.156	
0.015	-0.428	-0.244	
0.020	-0.346	-0.318	
0.025	-0.444	-0.368	
0.030	-0.524	-0.405	
0.035	-0.445	-0.439	
0.040	-0.470	-0.461	
0.045	-0.547	-0.476	
0.050	-0.491	-0.490	
0.055	-0.453	-0.498	
0.060	-0.590	-0.502	
0.065	-0.630	-0.516	
0.070	-0.512	-0.536	
0.075	-0.528	-0.548	
0.080	-0.589	-0.552	
0.085	-0.486	-0.553	
0.090	-0.471	-0.546	
0.095	-0.575	-0.534	
0.100	-0.515	-0.528	
0.105	-0.432	-0.521	
0.110	-0.543	-0.511	
0.115	-0.575	-0.508	
0.120	-0.508	-0.514	
0.125	-0.605	-0.524	
0.130	-0.712	-0.544	
0.135	-0.651	-0.577	
0.140	-0.683	-0.611	
0.145	-0.774	-0.644	
0.150	-0.729	-0.678	
0.155	-0.689	-0.704	
0.160	-0.805	-0.722	
0.165	-0.816	-0.741	
0.170	-0.721	-0.759	
0.175	-0.774	-0.768	
0.180	-0.832	-0.774	
0.185	-0.727	-0.780	
0.190	-0.712	-0.777	
0.195	-0.803	-0.769	
0.200	-0.749	-0.764	
0.205	-0.710	-0.760	
0.210	-0.797	-0.755	
0.215	-0.791	-0.755	
0.220	-0.721	-0.760	
0.225	-0.787	-0.761	
0.230	-0.852	-0.766	
0.235	-0.771	-0.778	
0.240	-0.788	-0.787	
0.245	-0.895	-0.796	
0.250	-0.837	-0.811	
0.255	-0.762	-0.822	
0.260	-0.860	-0.825	
0.265	-0.895	-0.830	
0.270	-0.843	-0.840	
0.275	-0.915	-0.851	
0.280	-0.993	-0.869	
0.285	-0.867	-0.891	
0.290	-0.721	-0.897	
0.295	-0.646	-0.870	
0.300	-0.497	-0.813	
0.305	-0.477	-0.732	
0.310	-0.744	-0.659	
0.315	-0.910	-0.634	
0.320	-0.921	-0.665	
0.325	-0.994	-0.731	
0.330	-0.996	-0.808	
0.335	-0.909	-0.877	
0.340	-0.864	-0.918	
0.345	-0.916	-0.933	
0.350	-0.796	-0.930	
0.355	-0.691	-0.904	
0.360	-0.747	-0.859	
0.365	-0.703	-0.812	
0.370	-0.581	-0.765	
0.375	-0.637	-0.716	
0.380	-0.683	-0.677	
0.385	-0.566	-0.651	
0.390	-0.552	-0.628	
0.395	-0.628	-0.606	
0.400	-0.534	-0.592	
0.405	-0.456	-0.575	
0.410	-0.557	-0.553	
0.415	-0.524	-0.536	
0.420	-0.355	-0.520	
0.425	-0.352	-0.489	
0.430	-0.374	-0.450	
0.435	-0.290	-0.411	
0.440	-0.313	-0.375	
0.445	-0.430	-0.350	
0.450	-0.381	-0.345	
0.455	-0.361	-0.350	
0.460	-0.502	-0.362	
0.465	-0.494	-0.387	
0.470	-0.413	-0.416	
0.475	-0.479	-0.436	
0.480	-0.573	-0.455	
0.485	-0.500	-0.479	
0.490	-0.511	-0.498	
0.495	-0.616	-0.514	
0.500	-0.560	-0.534	
0.505	-0.468	-0.546	
0.510	-0.596	-0.548	
0.515	-0.610	-0.553	
0.520	-0.534	-0.561	
0.525	-0.592	-0.567	
0.530	-0.640	-0.573	
0.535	-0.543	-0.582	
0.540	-0.546	-0.584	
0.545	-0.640	-0.582	
0.550	-0.575	-0.584	
0.555	-0.538	-0.585	
0.560	-0.669	-0.585	
0.565	-0.704	-0.596	
0.570	-0.672	-0.618	
0.575	-0.791	-0.646	
0.580	-0.909	-0.686	
0.585	-0.799	-0.737	
0.590	-0.866	-0.781	
0.595	-0.994	-0.822	
0.600	-0.996	-0.867	
0.605	-0.996	-0.913	
0.610	-0.996	-0.951	
0.615	-0.994	-0.978	
0.620	-0.994	-0.994	
0.625	-0.912	-0.998	
0.630	-0.886	-0.987	
0.635	-0.800	-0.960	
0.640	-0.985	-0.930	
0.645	-0.996	-0.917	
0.650	-0.996	-0.925	
0.655	-0.996	-0.942	
0.660	-0.996	-0.960	
0.665	-0.996	-0.975	
0.670	-0.996	-0.987	
0.675	-0.996	-0.994	
0.680	-0.996	-0.998	
0.685	-0.996	-0.999	
0.690	-0.996	-0.999	
0.695	-0.996	-0.999	
0.700	-0.996	-0.998	
0.705	-0.996	-0.997	
0.710	-0.996	-0.996	
0.715	-0.996	-0.996	
0.720	-0.996	-0.996	
0.725	-0.986	-0.995	
0.730	-0.941	-0.991	
0.735	-0.807	-0.976	
0.740	-0.849	-0.946	
0.745	-0.945	-0.915	
0.750	-0.884	-0.899	
0.755	-0.867	-0.890	
0.760	-0.993	-0.888	
0.765	-0.980	-0.900	
0.770	-0.904	-0.918	
0.775	-0.994	-0.932	
0.780	-0.996	-0.946	
0.785	-0.994	-0.962	
0.790	-0.996	-0.976	
0.795	-0.996	-0.986	
0.800	-0.994	-0.993	
0.805	-0.994	-0.997	
0.810	-0.996	-0.998	
0.815	-0.996	-0.998	
0.820	-0.997	-0.998	
0.825	-0.996	-0.997	
0.830	-0.996	-0.997	
0.835	-0.996	-0.996	
0.840	-0.996	-0.996	
0.845	-0.997	-0.996	
0.850	-0.996	-0.996	
0.855	-0.996	-0.996	
0.860	-0.997	-0.996	
0.865	-0.996	-0.996	
0.870	-0.997	-0.996	
0.875	-0.997	-0.996	
0.880	-0.997	-0.997	
0.885	-0.994	-0.997	
0.890	-0.994	-0.996	
0.895	-0.996	-0.996	
0.900	-0.997	-0.996	
0.905	-0.997	-0.996	
0.910	-0.997	-0.996	
0.915	-0.997	-0.996	
0.920	-0.997	-0.997	
0.925	-0.996	-0.997	
0.930	-0.997	-0.997	
0.935	-0.999	-0.997	
0.940	-0.997	-0.997	
0.945	-0.997	-0.997	
0.950	-0.996	-0.997	
0.955	-0.971	-0.996	
0.960	-0.898	-0.988	
0.965	-0.807	-0.967	
0.970	-0.794	-0.931	
0.975	-0.997	-0.898	
0.980	-0.996	-0.890	
0.985	-0.996	-0.906	
0.990	-0.996	-0.930	
0.995	-0.996	-0.954	
1.000	-0.996	-0.974	
1.005	-0.982	-0.987	
1.010	-0.996	-0.993	
1.015	-0.996	-0.997	
1.020	-0.826	-0.990	
1.025	-0.874	-0.967	
1.030	-0.904	-0.937	
1.035	-0.741	-0.908	
1.040	-0.764	-0.871	
1.045	-0.898	-0.838	
1.050	-0.787	-0.822	
1.055	-0.698	-0.808	
1.060	-0.770	-0.789	
1.065	-0.625	-0.766	
1.070	-0.378	-0.724	
1.075	-0.374	-0.650	
1.080	-0.310	-0.561	
1.085	0.165	-0.451	
1.090	0.309	-0.299	
1.095	0.303	-0.119	
1.100	0.691	0.066	
1.105	0.948	0.266	
1.110	0.761	0.470	
1.115	0.950	0.641	
1.120	1.363	0.793	
1.125	1.276	0.949	
1.130	1.262	1.090	
1.135	1.669	1.210	
1.140	1.674	1.336	
1.145	1.454	1.449	
1.150	1.723	1.529	
1.155	1.907	1.600	
1.160	1.652	1.671	
1.165	1.781	1.720	
1.170	2.111	1.765	
1.175	1.916	1.827	
1.180	1.822	1.878	
1.185	2.156	1.913	
1.190	2.081	1.956	
1.195	1.784	1.990	
1.200	1.991	1.992	
1.205	2.079	1.987	
1.210	1.692	1.980	
1.215	1.700	1.941	
1.220	1.889	1.886	
1.225	1.579	1.837	
1.230	1.503	1.775	
1.235	1.872	1.716	
1.240	1.806	1.695	
1.245	1.503	1.694	
1.250	1.719	1.683	
1.255	1.857	1.680	
1.260	1.540	1.691	
1.265	1.587	1.685	
1.270	1.875	1.675	
1.275	1.721	1.686	
1.280	1.822	1.710	
1.285	2.502	1.769	
1.290	2.672	1.910	
1.295	2.338	2.097	
1.300	2.198	2.242	
1.305	1.793	2.293	
1.310	1.105	2.213	
1.315	1.003	1.996	
1.320	1.223	1.721	
1.325	1.125	1.479	
1.330	1.154	1.301	
1.335	1.593	1.205	
1.340	1.626	1.210	
1.345	1.442	1.280	
1.350	1.703	1.365	
1.355	1.840	1.463	
1.360	1.540	1.561	
1.365	1.620	1.622	
1.370	1.855	1.660	
1.375	1.613	1.692	
1.380	1.480	1.698	
1.385	1.771	1.681	
1.390	1.672	1.671	
1.395	1.376	1.657	
1.400	1.569	1.621	
1.405	1.637	1.588	
1.410	1.322	1.563	
1.415	1.358	1.523	
1.420	1.534	1.479	
1.425	1.247	1.446	
1.430	1.030	1.396	
1.435	1.224	1.323	
1.440	1.055	1.252	
1.445	0.726	1.174	
1.450	0.904	1.076	
1.455	0.948	0.990	
1.460	0.549	0.919	
1.465	0.582	0.836	
1.470	0.764	0.755	
1.475	0.454	0.694	
1.480	0.320	0.628	
1.485	0.617	0.559	
1.490	0.524	0.517	
1.495	0.244	0.490	
1.500	0.506	0.456	
1.505	0.697	0.445	
1.510	0.373	0.462	
1.515	0.436	0.472	
1.520	0.648	0.477	
1.525	0.378	0.489	
1.530	0.242	0.481	
1.535	0.509	0.451	
1.540	0.410	0.430	
1.545	0.184	0.410	
1.550	0.358	0.377	
1.555	0.413	0.352	
1.560	0.062	0.332	
1.565	0.128	0.292	
1.570	0.358	0.249	
1.575	0.101	0.226	
1.580	-0.024	0.198	
1.585	0.268	0.162	
1.590	0.168	0.146	
1.595	-0.101	0.134	
1.600	0.104	0.107	
1.605	0.264	0.091	
1.610	0.139	0.102	
1.615	0.543	0.138	
1.620	1.044	0.235	
1.625	0.931	0.404	
1.630	0.555	0.572	
1.635	0.393	0.662	
1.640	-0.038	0.644	
1.645	-0.306	0.516	
1.650	-0.217	0.319	
1.655	-0.114	0.123	
1.660	-0.232	-0.027	
1.665	-0.148	-0.129	
1.670	0.085	-0.176	
1.675	-0.098	-0.170	
1.680	-0.156	-0.148	
1.685	0.075	-0.125	
1.690	0.018	-0.090	
1.695	-0.139	-0.058	
1.700	0.079	-0.040	
1.705	0.332	-0.007	
1.710	0.047	0.047	
1.715	0.137	0.091	
1.720	0.412	0.129	
1.725	0.190	0.178	
1.730	0.142	0.212	
1.735	0.497	0.234	
1.740	0.477	0.276	
1.745	0.277	0.326	
1.750	0.544	0.363	
1.755	0.674	0.408	
1.760	0.392	0.460	
1.765	0.450	0.489	
1.770	0.640	0.502	
1.775	0.369	0.513	
1.780	0.213	0.497	
1.785	0.454	0.455	
1.790	0.346	0.418	
1.795	0.062	0.379	
1.800	0.216	0.321	
1.805	0.255	0.268	
1.810	-0.041	0.224	
1.815	-0.006	0.169	
1.820	0.212	0.118	
1.825	0.011	0.091	
1.830	-0.037	0.070	
1.835	0.259	0.056	
1.840	0.195	0.070	
1.845	-0.023	0.093	
1.850	0.195	0.103	
1.855	0.264	0.118	
1.860	-0.024	0.136	
1.865	0.032	0.131	
1.870	0.203	0.115	
1.875	-0.038	0.105	
1.880	-0.114	0.081	
1.885	0.120	0.048	
1.890	0.004	0.028	
1.895	-0.178	0.011	
1.900	-0.046	-0.017	
1.905	0.044	-0.039	
1.910	-0.160	-0.048	
1.915	-0.110	-0.061	
1.920	0.050	-0.071	
1.925	-0.148	-0.071	
1.930	-0.213	-0.078	
1.935	0.040	-0.092	
1.940	0.128	-0.083	
1.945	0.187	-0.040	
1.950	0.741	0.045	
1.955	0.883	0.197	
1.960	0.436	0.371	
1.965	0.161	0.476	
1.970	0.075	0.479	
1.975	-0.213	0.396	
1.980	-0.314	0.252	
1.985	-0.160	0.088	
1.990	-0.157	-0.045	
1.995	-0.235	-0.135	
2.000	-0.052	-0.186	
2.005	0.094	-0.188	
2.010	-0.096	-0.152	
2.015	-0.023	-0.112	
2.020	0.212	-0.068	
2.025	0.122	-0.010	
2.030	-0.009	0.041	
2.035	0.308	0.077	
2.040	0.258	0.121	
2.045	-0.021	0.157	
2.050	0.241	0.167	
2.055	0.395	0.180	
2.060	0.079	0.205	
2.065	0.198	0.214	
2.070	0.511	0.224	
2.075	0.305	0.258	
2.080	0.197	0.288	
2.085	0.543	0.307	
2.090	0.445	0.339	
2.095	0.148	0.365	
2.100	0.401	0.363	
2.105	0.466	0.361	
2.110	0.085	0.358	
2.115	0.123	0.326	
2.120	0.354	0.282	
2.125	0.075	0.250	
2.130	-0.061	0.208	
2.135	0.215	0.157	
2.140	0.131	0.126	
2.145	-0.101	0.105	
2.150	0.093	0.076	
2.155	0.206	0.061	
2.160	-0.073	0.063	
2.165	-0.009	0.054	
2.170	0.236	0.047	
2.175	0.021	0.057	
2.180	-0.055	0.061	
2.185	0.181	0.057	
2.190	0.084	0.062	
2.195	-0.102	0.065	
2.200	0.088	0.052	
2.205	0.155	0.047	
2.210	-0.107	0.050	
2.215	-0.087	0.035	
2.220	0.047	0.010	
2.225	-0.134	-0.009	
2.230	-0.186	-0.036	
2.235	-0.014	-0.067	
2.240	-0.075	-0.083	
2.245	-0.206	-0.092	
2.250	-0.099	-0.107	
2.255	-0.087	-0.117	
2.260	-0.249	-0.125	
2.265	-0.186	-0.141	
2.270	0.062	-0.149	
2.275	0.111	-0.123	
2.280	0.322	-0.059	
2.285	0.770	0.053	
2.290	0.602	0.212	
2.295	0.033	0.344	
2.300	-0.037	0.374	
2.305	-0.114	0.313	
2.310	-0.343	0.197	
2.315	-0.299	0.053	
2.320	-0.137	-0.077	
2.325	-0.241	-0.165	
2.330	-0.265	-0.218	
2.335	-0.047	-0.242	
2.340	-0.061	-0.228	
2.345	-0.134	-0.194	
2.350	0.035	-0.154	
2.355	0.131	-0.103	
2.360	-0.130	-0.052	
2.365	-0.079	-0.026	
2.370	0.174	-0.014	
2.375	-0.043	0.005	
2.380	-0.089	0.013	
2.385	0.226	0.015	
2.390	0.194	0.039	
2.395	0.012	0.072	
2.400	0.235	0.096	
2.405	0.314	0.127	
2.410	0.190	0.167	
2.415	0.334	0.204	
2.420	0.436	0.244	
2.425	0.233	0.285	
2.430	0.201	0.303	
2.435	0.381	0.303	
2.440	0.218	0.302	
2.445	0.020	0.284	
2.450	0.174	0.243	
2.455	0.166	0.202	
2.460	-0.066	0.165	
2.465	-0.021	0.117	
2.470	0.102	0.072	
2.475	-0.064	0.042	
2.480	-0.099	0.013	
2.485	0.088	-0.011	
2.490	0.000	-0.018	
2.495	-0.104	-0.018	
2.500	0.082	-0.021	
2.505	0.122	-0.010	
2.510	-0.075	0.009	
2.515	-0.012	0.015	
2.520	0.128	0.016	
2.525	-0.049	0.023	
2.530	-0.073	0.020	
2.535	0.099	0.010	
2.540	-0.018	0.009	
2.545	-0.136	0.003	
2.550	-0.015	-0.015	
2.555	0.020	-0.027	
2.560	-0.125	-0.033	
2.565	-0.050	-0.043	
2.570	0.085	-0.046	
2.575	-0.079	-0.037	
2.580	-0.099	-0.034	
2.585	0.004	-0.039	
2.590	-0.142	-0.045	
2.595	-0.264	-0.064	
2.600	-0.153	-0.100	
2.605	-0.050	-0.128	
2.610	-0.027	-0.131	
2.615	0.300	-0.099	
2.620	0.468	-0.017	
2.625	0.072	0.087	
2.630	-0.200	0.141	
2.635	-0.250	0.115	
2.640	-0.390	0.030	
2.645	-0.496	-0.087	
2.650	-0.375	-0.210	
2.655	-0.322	-0.304	
2.660	-0.389	-0.359	
2.665	-0.256	-0.382	
2.670	-0.148	-0.372	
2.675	-0.241	-0.334	
2.680	-0.233	-0.294	
2.685	-0.069	-0.256	
2.690	-0.136	-0.213	
2.695	-0.238	-0.180	
2.700	-0.098	-0.163	
2.705	-0.040	-0.146	
2.710	-0.232	-0.130	
2.715	-0.177	-0.129	
2.720	-0.021	-0.133	
2.725	-0.169	-0.128	
2.730	-0.206	-0.129	
2.735	0.014	-0.131	
2.740	-0.034	-0.118	
2.745	-0.151	-0.099	
2.750	0.041	-0.085	
2.755	0.126	-0.060	
2.760	-0.049	-0.025	
2.765	0.072	0.001	
2.770	0.216	0.028	
2.775	0.009	0.060	
2.780	-0.031	0.074	
2.785	0.128	0.071	
2.790	-0.031	0.065	
2.795	-0.195	0.044	
2.800	-0.145	-0.000	
2.805	-0.119	-0.050	
2.810	-0.230	-0.093	
2.815	-0.156	-0.131	
2.820	-0.014	-0.152	
2.825	-0.108	-0.147	
2.830	-0.066	-0.131	
2.835	0.233	-0.100	
2.840	0.181	-0.039	
2.845	0.038	0.028	
2.850	0.283	0.080	
2.855	0.349	0.135	
2.860	0.123	0.188	
2.865	0.226	0.217	
2.870	0.346	0.234	
2.875	0.087	0.246	
2.880	0.012	0.230	
2.885	0.209	0.195	
2.890	0.061	0.164	
2.895	-0.104	0.129	
2.900	0.055	0.084	
2.905	0.078	0.050	
2.910	-0.120	0.028	
2.915	-0.063	0.002	
2.920	0.021	-0.022	
2.925	-0.157	-0.038	
2.930	-0.172	-0.060	
2.935	0.062	-0.080	
2.940	0.198	-0.068	
2.945	0.407	-0.010	
2.950	0.843	0.106	
2.955	0.828	0.278	
2.960	0.325	0.442	
2.965	0.012	0.510	
2.970	-0.122	0.459	
2.975	-0.322	0.324	
2.980	-0.351	0.146	
2.985	-0.067	-0.018	
2.990	-0.117	-0.124	
2.995	-0.200	-0.176	
3.000	-0.060	-0.196	
3.005	-0.020	-0.185	
3.010	-0.146	-0.157	
3.015	-0.075	-0.132	
3.020	0.047	-0.107	
3.025	-0.093	-0.078	
3.030	-0.079	-0.060	
3.035	0.131	-0.045	
3.040	0.059	-0.019	
3.045	-0.015	0.009	
3.050	0.232	0.033	
3.055	0.294	0.073	
3.060	0.155	0.124	
3.065	0.386	0.172	
3.070	0.555	0.232	
3.075	0.344	0.304	
3.080	0.300	0.354	
3.085	0.486	0.380	
3.090	0.340	0.397	
3.095	0.161	0.393	
3.100	0.306	0.363	
3.105	0.256	0.329	
3.110	-0.020	0.289	
3.115	0.044	0.227	
3.120	0.111	0.164	
3.125	-0.102	0.110	
3.130	-0.131	0.052	
3.135	0.015	-0.001	
3.140	-0.104	-0.037	
3.145	-0.207	-0.066	
3.150	-0.084	-0.096	
3.155	-0.082	-0.114	
3.160	-0.213	-0.123	
3.165	-0.140	-0.135	
3.170	-0.053	-0.141	
3.175	-0.183	-0.138	
3.180	-0.194	-0.139	
3.185	-0.072	-0.144	
3.190	-0.146	-0.142	
3.195	-0.227	-0.142	
3.200	-0.119	-0.149	
3.205	-0.134	-0.153	
3.210	-0.279	-0.157	
3.215	-0.223	-0.172	
3.220	-0.151	-0.189	
3.225	-0.264	-0.198	
3.230	-0.246	-0.209	
3.235	-0.093	-0.215	
3.240	-0.163	-0.205	
3.245	-0.239	-0.193	
3.250	-0.127	-0.187	
3.255	-0.172	-0.180	
3.260	-0.335	-0.181	
3.265	-0.230	-0.197	
3.270	-0.024	-0.207	
3.275	0.096	-0.182	
3.280	0.562	-0.102	
3.285	1.015	0.059	
3.290	0.774	0.283	
3.295	0.169	0.467	
3.300	-0.046	0.520	
3.305	-0.143	0.447	
3.310	-0.392	0.296	
3.315	-0.355	0.107	
3.320	-0.247	-0.067	
3.325	-0.349	-0.196	
3.330	-0.354	-0.283	
3.335	-0.213	-0.332	
3.340	-0.285	-0.344	
3.345	-0.378	-0.340	
3.350	-0.226	-0.334	
3.355	-0.198	-0.317	
3.360	-0.332	-0.294	
3.365	-0.253	-0.280	
3.370	-0.163	-0.267	
3.375	-0.276	-0.252	
3.380	-0.264	-0.242	
3.385	-0.111	-0.235	
3.390	-0.159	-0.218	
3.395	-0.200	-0.199	
3.400	0.011	-0.178	
3.405	0.093	-0.138	
3.410	-0.053	-0.087	
3.415	0.125	-0.041	
3.420	0.291	0.012	
3.425	0.065	0.072	
3.430	0.030	0.108	
3.435	0.171	0.120	
3.440	-0.070	0.118	
3.445	-0.227	0.086	
3.450	-0.160	0.023	
3.455	-0.217	-0.048	
3.460	-0.364	-0.118	
3.465	-0.316	-0.189	
3.470	-0.276	-0.247	
3.475	-0.396	-0.289	
3.480	-0.395	-0.324	
3.485	-0.279	-0.348	
3.490	-0.345	-0.356	
3.495	-0.403	-0.358	
3.500	-0.252	-0.357	
3.505	-0.236	-0.343	
3.510	-0.360	-0.323	
3.515	-0.271	-0.311	
3.520	-0.168	-0.296	
3.525	-0.329	-0.278	
3.530	-0.358	-0.272	
3.535	-0.212	-0.277	
3.540	-0.303	-0.279	
3.545	-0.425	-0.285	
3.550	-0.302	-0.303	
3.555	-0.291	-0.317	
3.560	-0.450	-0.327	
3.565	-0.372	-0.343	
3.570	-0.259	-0.355	
3.575	-0.386	-0.354	
3.580	-0.392	-0.354	
3.585	-0.238	-0.354	
3.590	-0.345	-0.344	
3.595	-0.456	-0.340	
3.600	-0.252	-0.344	
3.605	-0.073	-0.331	
3.610	0.043	-0.279	
3.615	0.715	-0.169	
3.620	1.151	0.037	
3.625	0.825	0.309	
3.630	0.221	0.525	
3.635	-0.046	0.591	
3.640	-0.346	0.504	
3.645	-0.537	0.310	
3.650	-0.403	0.073	
3.655	-0.334	-0.134	
3.660	-0.427	-0.281	
3.665	-0.296	-0.369	
3.670	-0.133	-0.398	
3.675	-0.249	-0.376	
3.680	-0.238	-0.336	
3.685	-0.020	-0.288	
3.690	-0.104	-0.229	
3.695	-0.207	-0.178	
3.700	0.011	-0.144	
3.705	0.062	-0.106	
3.710	-0.154	-0.068	
3.715	-0.027	-0.050	
3.720	0.184	-0.033	
3.725	-0.049	-0.005	
3.730	-0.026	0.013	
3.735	0.372	0.031	
3.740	0.262	0.080	
3.745	0.065	0.134	
3.750	0.384	0.171	
3.755	0.373	0.214	
3.760	0.037	0.249	
3.765	0.136	0.247	
3.770	0.262	0.227	
3.775	-0.047	0.204	
3.780	-0.111	0.157	
3.785	0.079	0.096	
3.790	-0.114	0.046	
3.795	-0.281	-0.008	
3.800	-0.139	-0.070	
3.805	-0.143	-0.120	
3.810	-0.325	-0.157	
3.815	-0.227	-0.193	
3.820	-0.105	-0.216	
3.825	-0.290	-0.221	
3.830	-0.297	-0.228	
3.835	-0.089	-0.234	
3.840	-0.166	-0.224	
3.845	-0.270	-0.209	
3.850	-0.102	-0.201	
3.855	-0.087	-0.185	
3.860	-0.261	-0.168	
3.865	-0.159	-0.164	
3.870	-0.041	-0.161	
3.875	-0.213	-0.150	
3.880	-0.235	-0.150	
3.885	-0.108	-0.158	
3.890	-0.229	-0.165	
3.895	-0.346	-0.180	
3.900	-0.087	-0.200	
3.905	-0.087	-0.201	
3.910	-0.361	-0.194	
3.915	-0.299	-0.205	
3.920	-0.203	-0.227	
3.925	-0.370	-0.245	
3.930	-0.351	-0.268	
3.935	-0.015	-0.281	
3.940	0.008	-0.252	
3.945	0.161	-0.184	
3.950	0.841	-0.063	
3.955	0.898	0.135	
3.960	0.387	0.347	
3.965	0.091	0.469	
3.970	-0.081	0.464	
3.975	-0.436	0.353	
3.980	-0.514	0.166	
3.985	-0.288	-0.038	
3.990	-0.288	-0.195	
3.995	-0.288	-0.289	
4.000	-0.061	-0.325	
4.005	-0.008	-0.302	
4.010	-0.163	-0.246	
4.015	0.166	-0.181	
4.020	0.422	-0.088	
4.025	0.419	0.040	
4.030	0.815	0.191	
4.035	0.835	0.363	
4.040	0.351	0.512	
4.045	-0.046	0.559	
4.050	0.361	0.508	
4.055	0.444	0.441	
4.060	0.050	0.386	
4.065	0.344	0.329	
4.070	0.748	0.309	
4.075	0.703	0.359	
4.080	0.599	0.445	
4.085	1.085	0.543	
4.090	1.172	0.672	
4.095	1.306	0.831	
4.100	1.479	0.998	
4.105	0.840	1.132	
4.110	0.174	1.142	
4.115	0.387	1.009	
4.120	0.805	0.839	
4.125	0.149	0.699	
4.130	-0.070	0.549	
4.135	0.171	0.382	
4.140	-0.023	0.241	
4.145	-0.185	0.124	
4.150	0.052	0.028	
4.155	0.125	-0.022	
4.160	-0.139	-0.035	
4.165	-0.043	-0.044	
4.170	0.126	-0.045	
4.175	-0.116	-0.033	
4.180	0.198	-0.016	
4.185	0.364	0.024	
4.190	-0.116	0.077	
4.195	-0.349	0.079	
4.200	-0.163	0.020	
4.205	-0.166	-0.051	
4.210	-0.345	-0.116	
4.215	-0.197	-0.175	
4.220	-0.079	-0.209	
4.225	-0.200	-0.213	
4.230	-0.113	-0.203	
4.235	0.408	-0.161	
4.240	0.373	-0.061	
4.245	0.238	0.063	
4.250	0.498	0.175	
4.255	0.302	0.269	
4.260	-0.105	0.311	
4.265	0.136	0.285	
4.270	0.314	0.242	
4.275	0.101	0.216	
4.280	0.389	0.205	
4.285	0.956	0.246	
4.290	0.800	0.364	
4.295	0.424	0.492	
4.300	0.369	0.558	
4.305	-0.075	0.537	
4.310	-0.421	0.418	
4.315	-0.438	0.220	
4.320	-0.393	0.004	
4.325	-0.572	-0.185	
4.330	-0.566	-0.342	
4.335	-0.370	-0.451	
4.340	-0.453	-0.503	
4.345	-0.561	-0.520	
4.350	-0.416	-0.525	
4.355	-0.451	-0.515	
4.360	-0.566	-0.502	
4.365	-0.445	-0.497	
4.370	-0.322	-0.485	
4.375	-0.462	-0.461	
4.380	-0.419	-0.441	
4.385	-0.244	-0.421	
4.390	-0.348	-0.391	
4.395	-0.451	-0.369	
4.400	-0.210	-0.357	
4.405	-0.076	-0.329	
4.410	-0.197	-0.280	
4.415	0.027	-0.225	
4.420	0.354	-0.147	
4.425	0.120	-0.042	
4.430	0.274	0.058	
4.435	0.776	0.163	
4.440	0.762	0.304	
4.445	0.899	0.465	
4.450	1.854	0.662	
4.455	2.486	0.964	
4.460	2.463	1.363	
4.465	2.380	1.760	
4.470	1.863	2.049	
4.475	0.782	2.131	
4.480	0.171	1.944	
4.485	0.053	1.548	
4.490	-0.279	1.067	
4.495	-0.485	0.588	
4.500	-0.360	0.170	
4.505	-0.398	-0.141	
4.510	-0.564	-0.347	
4.515	-0.456	-0.476	
4.520	-0.352	-0.536	
4.525	-0.499	-0.543	
4.530	-0.459	-0.530	
4.535	-0.268	-0.503	
4.540	-0.352	-0.459	
4.545	-0.442	-0.418	
4.550	-0.273	-0.391	
4.555	-0.256	-0.362	
4.560	-0.390	-0.336	
4.565	-0.242	-0.320	
4.570	-0.117	-0.299	
4.575	-0.265	-0.267	
4.580	-0.220	-0.243	
4.585	0.107	-0.213	
4.590	-0.014	-0.161	
4.595	-0.157	-0.109	
4.600	0.091	-0.074	
4.605	0.190	-0.033	
4.610	0.037	0.016	
4.615	0.561	0.076	
4.620	1.029	0.192	
4.625	0.819	0.372	
4.630	0.666	0.546	
4.635	0.590	0.657	
4.640	0.079	0.679	
4.645	-0.171	0.591	
4.650	0.033	0.429	
4.655	0.068	0.268	
4.660	-0.096	0.143	
4.665	0.206	0.059	
4.670	0.433	0.041	
4.675	0.116	0.080	
4.680	0.111	0.120	
4.685	0.399	0.151	
4.690	0.160	0.188	
4.695	-0.047	0.203	
4.700	0.242	0.187	
4.705	0.242	0.176	
4.710	-0.070	0.168	
4.715	0.085	0.142	
4.720	0.236	0.118	
4.725	-0.067	0.108	
4.730	-0.053	0.085	
4.735	0.279	0.063	
4.740	0.143	0.070	
4.745	0.041	0.089	
4.750	0.349	0.108	
4.755	0.311	0.146	
4.760	-0.008	0.182	
4.765	0.187	0.189	
4.770	0.337	0.189	
4.775	-0.014	0.194	
4.780	-0.046	0.173	
4.785	0.175	0.133	
4.790	-0.067	0.100	
4.795	-0.207	0.058	
4.800	-0.044	0.002	
4.805	-0.064	-0.042	
4.810	-0.235	-0.075	
4.815	-0.120	-0.108	
4.820	-0.003	-0.126	
4.825	-0.163	-0.125	
4.830	-0.133	-0.123	
4.835	0.073	-0.115	
4.840	-0.084	-0.094	
4.845	-0.175	-0.078	
4.850	0.061	-0.073	
4.855	0.038	-0.058	
4.860	-0.174	-0.042	
4.865	0.001	-0.040	
4.870	0.131	-0.034	
4.875	-0.157	-0.020	
4.880	-0.169	-0.025	
4.885	0.017	-0.045	
4.890	-0.148	-0.060	
4.895	-0.258	-0.081	
4.900	-0.081	-0.111	
4.905	-0.053	-0.127	
4.910	-0.242	-0.131	
4.915	-0.133	-0.140	
4.920	-0.017	-0.143	
4.925	-0.224	-0.136	
4.930	-0.246	-0.140	
4.935	-0.095	-0.154	
4.940	-0.188	-0.161	
4.945	-0.203	-0.166	
4.950	0.343	-0.149	
4.955	0.680	-0.060	
4.960	0.488	0.096	
4.965	0.575	0.258	
4.970	0.331	0.381	
4.975	-0.259	0.416	
4.980	-0.389	0.330	
4.985	-0.268	0.166	
4.990	-0.381	-0.005	
4.995	-0.442	-0.156	
5.000	-0.233	-0.271	
5.005	-0.201	-0.329	
5.010	-0.342	-0.341	
5.015	-0.220	-0.336	
5.020	-0.082	-0.311	
5.025	-0.081	-0.263	
5.030	0.107	-0.197	
5.035	0.413	-0.103	
5.040	0.128	0.011	
5.045	-0.099	0.091	
5.050	0.104	0.116	
5.055	0.049	0.113	
5.060	-0.172	0.093	
5.065	0.012	0.052	
5.070	0.206	0.025	
5.075	-0.050	0.025	
5.080	0.020	0.026	
5.085	0.364	0.038	
5.090	0.178	0.079	
5.095	0.003	0.119	
5.100	0.308	0.139	
5.105	0.259	0.164	
5.110	-0.056	0.181	
5.115	0.093	0.167	
5.120	0.215	0.146	
5.125	-0.108	0.127	
5.130	-0.111	0.089	
5.135	0.105	0.044	
5.140	-0.095	0.014	
5.145	-0.200	-0.017	
5.150	0.026	-0.050	
5.155	0.023	-0.063	
5.160	-0.175	-0.063	
5.165	-0.034	-0.068	
5.170	0.139	-0.062	
5.175	-0.110	-0.042	
5.180	-0.073	-0.031	
5.185	0.227	-0.022	
5.190	0.029	0.006	
5.195	-0.096	0.027	
5.200	0.181	0.033	
5.205	0.160	0.050	
5.210	-0.102	0.067	
5.215	0.084	0.065	
5.220	0.340	0.071	
5.225	0.221	0.106	
5.230	0.491	0.162	
5.235	1.184	0.270	
5.240	1.547	0.477	
5.245	1.936	0.777	
5.250	2.753	1.158	
5.255	3.073	1.617	
5.260	3.072	2.097	
5.265	3.066	2.512	
5.270	3.063	2.819	
5.275	3.063	3.015	
5.280	3.060	3.120	
5.285	3.050	3.160	
5.290	3.046	3.160	
5.295	3.043	3.139	
5.300	3.040	3.111	
5.305	3.038	3.084	
5.310	3.038	3.062	
5.315	3.034	3.047	
5.320	3.032	3.037	
5.325	3.034	3.032	
5.330	3.037	3.029	
5.335	3.034	3.029	
5.340	3.040	3.030	
5.345	3.043	3.033	
5.350	3.044	3.035	
5.355	3.046	3.038	
5.360	3.052	3.042	
5.365	3.053	3.045	
5.370	3.055	3.048	
5.375	3.060	3.051	
5.380	3.061	3.054	
5.385	3.061	3.057	
5.390	3.066	3.059	
5.395	3.070	3.061	
5.400	3.070	3.064	
5.405	3.029	3.064	
5.410	2.631	3.042	
5.415	2.633	2.973	
5.420	2.643	2.877	
5.425	2.244	2.768	
5.430	2.035	2.626	
5.435	2.044	2.457	
5.440	1.677	2.281	
5.445	1.290	2.082	
5.450	1.322	1.857	
5.455	1.087	1.635	
5.460	0.593	1.413	
5.465	0.511	1.171	
5.470	0.451	0.932	
5.475	0.068	0.710	
5.480	-0.023	0.496	
5.485	0.037	0.302	
5.490	-0.107	0.148	
5.495	-0.236	0.026	
5.500	-0.166	-0.073	
5.505	-0.217	-0.145	
5.510	-0.383	-0.198	
5.515	-0.352	-0.250	
5.520	-0.325	-0.294	
5.525	-0.491	-0.331	
5.530	-0.531	-0.372	
5.535	-0.465	-0.417	
5.540	-0.587	-0.457	
5.545	-0.683	-0.499	
5.550	-0.608	-0.546	
5.555	-0.653	-0.586	
5.560	-0.807	-0.623	
5.565	-0.761	-0.666	
5.570	-0.730	-0.705	
5.575	-0.874	-0.737	
5.580	-0.900	-0.773	
5.585	-0.808	-0.808	
5.590	-0.903	-0.834	
5.595	-0.977	-0.859	
5.600	-0.881	-0.885	
5.605	-0.933	-0.904	
5.610	-0.994	-0.919	
5.615	-0.918	-0.934	
5.620	-0.712	-0.932	
5.625	-0.619	-0.896	
5.630	-0.412	-0.822	
5.635	-0.258	-0.712	
5.640	-0.480	-0.592	
5.645	-0.843	-0.518	
5.650	-0.973	-0.531	
5.655	-0.994	-0.614	
5.660	-0.996	-0.724	
5.665	-0.996	-0.828	
5.670	-0.996	-0.910	
5.675	-0.994	-0.966	
5.680	-0.994	-0.999	
5.685	-0.993	-1.014	
5.690	-0.994	-1.018	
5.695	-0.994	-1.015	
5.700	-0.938	-1.007	
5.705	-0.924	-0.993	
5.710	-0.994	-0.977	
5.715	-0.928	-0.966	
5.720	-0.848	-0.953	
5.725	-0.954	-0.936	
5.730	-0.919	-0.924	
5.735	-0.767	-0.912	
5.740	-0.808	-0.888	
5.745	-0.843	-0.862	
5.750	-0.680	-0.836	
5.755	-0.646	-0.800	
5.760	-0.733	-0.760	
5.765	-0.634	-0.727	
5.770	-0.567	-0.695	
5.775	-0.697	-0.665	
5.780	-0.704	-0.650	
5.785	-0.611	-0.648	
5.790	-0.721	-0.650	
5.795	-0.816	-0.663	
5.800	-0.720	-0.689	
5.805	-0.746	-0.713	
5.810	-0.881	-0.736	
5.815	-0.817	-0.765	
5.820	-0.764	-0.789	
5.825	-0.889	-0.805	
5.830	-0.881	-0.822	
5.835	-0.767	-0.836	
5.840	-0.842	-0.839	
5.845	-0.895	-0.840	
5.850	-0.758	-0.842	
5.855	-0.759	-0.834	
5.860	-0.872	-0.821	
5.865	-0.782	-0.815	
5.870	-0.724	-0.807	
5.875	-0.851	-0.797	
5.880	-0.852	-0.796	
5.885	-0.749	-0.801	
5.890	-0.832	-0.802	
5.895	-0.896	-0.808	
5.900	-0.785	-0.819	
5.905	-0.793	-0.823	
5.910	-0.896	-0.824	
5.915	-0.823	-0.830	
5.920	-0.756	-0.832	
5.925	-0.878	-0.828	
5.930	-0.861	-0.828	
5.935	-0.744	-0.830	
5.940	-0.839	-0.825	
5.945	-0.912	-0.824	
5.950	-0.758	-0.829	
5.955	-0.674	-0.822	
5.960	-0.631	-0.793	
5.965	-0.381	-0.739	
5.970	-0.274	-0.653	
5.975	-0.477	-0.555	
5.980	-0.639	-0.491	
5.985	-0.701	-0.482	
5.990	-0.887	-0.524	
5.995	-0.991	-0.608	
6.000	-0.867	-0.709	
6.005	-0.820	-0.792	
6.010	-0.864	-0.842	
6.015	-0.723	-0.862	
6.020	-0.619	-0.848	
6.025	-0.709	-0.808	
6.030	-0.663	-0.764	
6.035	-0.529	-0.719	
6.040	-0.598	-0.672	
6.045	-0.645	-0.634	
6.050	-0.500	-0.608	
6.055	-0.483	-0.582	
6.060	-0.572	-0.555	
6.065	-0.468	-0.536	
6.070	-0.375	-0.515	
6.075	-0.476	-0.488	
6.080	-0.432	-0.465	
6.085	-0.288	-0.444	
6.090	-0.339	-0.413	
6.095	-0.374	-0.384	
6.100	-0.230	-0.359	
6.105	-0.239	-0.330	
6.110	-0.361	-0.305	
6.115	-0.281	-0.293	
6.120	-0.226	-0.286	
6.125	-0.378	-0.281	
6.130	-0.387	-0.290	
6.135	-0.294	-0.308	
6.140	-0.395	-0.323	
6.145	-0.467	-0.342	
6.150	-0.340	-0.366	
6.155	-0.358	-0.379	
6.160	-0.480	-0.387	
6.165	-0.378	-0.397	
6.170	-0.316	-0.401	
6.175	-0.438	-0.395	
6.180	-0.415	-0.394	
6.185	-0.258	-0.391	
6.190	-0.342	-0.376	
6.195	-0.418	-0.362	
6.200	-0.282	-0.355	
6.205	-0.308	-0.346	
6.210	-0.430	-0.339	
6.215	-0.343	-0.343	
6.220	-0.291	-0.346	
6.225	-0.441	-0.347	
6.230	-0.433	-0.357	
6.235	-0.322	-0.372	
6.240	-0.421	-0.379	
6.245	-0.480	-0.389	
6.250	-0.351	-0.402	
6.255	-0.360	-0.405	
6.260	-0.467	-0.403	
6.265	-0.367	-0.404	
6.270	-0.308	-0.400	
6.275	-0.460	-0.390	
6.280	-0.445	-0.391	
6.285	-0.306	-0.396	
6.290	-0.316	-0.388	
6.295	-0.221	-0.366	
6.300	0.256	-0.311	
6.305	0.338	-0.198	
6.310	0.023	-0.061	
6.315	-0.070	0.032	
6.320	-0.207	0.056	
6.325	-0.454	0.015	
6.330	-0.492	-0.082	
6.335	-0.374	-0.199	
6.340	-0.422	-0.296	
6.345	-0.439	-0.366	
6.350	-0.264	-0.405	
6.355	-0.241	-0.405	
6.360	-0.313	-0.379	
6.365	-0.163	-0.344	
6.370	-0.079	-0.296	
6.375	-0.235	-0.244	
6.380	-0.198	-0.208	
6.385	-0.021	-0.182	
6.390	-0.140	-0.153	
6.395	-0.203	-0.134	
6.400	-0.006	-0.125	
6.405	-0.060	-0.111	
6.410	-0.226	-0.099	
6.415	-0.096	-0.103	
6.420	0.056	-0.103	
6.425	-0.116	-0.088	
6.430	-0.044	-0.075	
6.435	0.229	-0.053	
6.440	0.085	-0.010	
6.445	-0.024	0.030	
6.450	0.227	0.057	
6.455	0.166	0.087	
6.460	-0.073	0.108	
6.465	0.067	0.102	
6.470	0.148	0.090	
6.475	-0.114	0.079	
6.480	-0.095	0.051	
6.485	0.122	0.019	
6.490	-0.072	0.004	
6.495	-0.146	-0.012	
6.500	0.049	-0.033	
6.505	0.018	-0.038	
6.510	-0.162	-0.037	
6.515	-0.018	-0.045	
6.520	0.110	-0.044	
6.525	-0.117	-0.032	
6.530	-0.073	-0.029	
6.535	0.126	-0.029	
6.540	-0.069	-0.018	
6.545	-0.153	-0.017	
6.550	0.061	-0.028	
6.555	0.009	-0.029	
6.560	-0.174	-0.029	
6.565	-0.061	-0.042	
6.570	0.024	-0.053	
6.575	-0.194	-0.058	
6.580	-0.177	-0.075	
6.585	-0.021	-0.096	
6.590	-0.149	-0.105	
6.595	-0.212	-0.115	
6.600	-0.050	-0.127	
6.605	-0.095	-0.129	
6.610	-0.244	-0.128	
6.615	-0.136	-0.137	
6.620	-0.032	-0.142	
6.625	-0.142	-0.133	
6.630	0.082	-0.116	
6.635	0.625	-0.056	
6.640	0.575	0.072	
6.645	0.405	0.222	
6.650	0.453	0.340	
6.655	0.032	0.397	
6.660	-0.291	0.362	
6.665	-0.252	0.241	
6.670	-0.195	0.092	
6.675	-0.291	-0.042	
6.680	-0.212	-0.146	
6.685	-0.034	-0.204	
6.690	-0.140	-0.215	
6.695	-0.178	-0.203	
6.700	0.055	-0.180	
6.705	0.029	-0.138	
6.710	-0.131	-0.092	
6.715	0.037	-0.062	
6.720	0.166	-0.031	
6.725	-0.058	0.005	
6.730	0.006	0.024	
6.735	0.262	0.039	
6.740	0.082	0.067	
6.745	0.003	0.089	
6.750	0.308	0.101	
6.755	0.302	0.131	
6.760	0.122	0.169	
6.765	0.381	0.200	
6.770	0.508	0.242	
6.775	0.224	0.293	
6.780	0.262	0.320	
6.785	0.480	0.331	
6.790	0.235	0.342	
6.795	0.094	0.333	
6.800	0.334	0.302	
6.805	0.192	0.275	
6.810	-0.089	0.240	
6.815	0.043	0.181	
6.820	0.119	0.124	
6.825	-0.113	0.081	
6.830	-0.084	0.036	
6.835	0.099	-0.001	
6.840	-0.076	-0.018	
6.845	-0.146	-0.032	
6.850	0.047	-0.047	
6.855	-0.011	-0.049	
6.860	-0.165	-0.048	
6.865	0.012	-0.053	
6.870	0.123	-0.047	
6.875	-0.143	-0.030	
6.880	-0.119	-0.029	
6.885	0.059	-0.038	
6.890	-0.120	-0.041	
6.895	-0.197	-0.052	
6.900	-0.044	-0.074	
6.905	-0.096	-0.089	
6.910	-0.255	-0.102	
6.915	-0.159	-0.125	
6.920	-0.110	-0.145	
6.925	-0.256	-0.157	
6.930	-0.226	-0.173	
6.935	-0.093	-0.186	
6.940	-0.212	-0.187	
6.945	-0.277	-0.189	
6.950	-0.143	-0.198	
6.955	-0.178	-0.200	
6.960	-0.258	-0.199	
6.965	-0.061	-0.196	
6.970	0.273	-0.164	
6.975	0.271	-0.083	
6.980	0.392	0.028	
6.985	0.505	0.149	
6.990	-0.027	0.245	
6.995	-0.288	0.254	
7.000	-0.253	0.172	
7.005	-0.325	0.048	
7.010	-0.422	-0.082	
7.015	-0.277	-0.198	
7.020	-0.174	-0.272	
7.025	-0.274	-0.299	
7.030	-0.212	-0.301	
7.035	-0.043	-0.280	
7.040	-0.156	-0.239	
7.045	-0.200	-0.200	
7.050	0.018	-0.169	
7.055	0.000	-0.130	
7.060	-0.162	-0.094	
7.065	0.014	-0.073	
7.070	0.113	-0.050	
7.075	-0.095	-0.023	
7.080	0.006	-0.009	
7.085	0.261	0.008	
7.090	0.102	0.044	
7.095	0.041	0.077	
7.100	0.381	0.105	
7.105	0.351	0.153	
7.110	0.140	0.204	
7.115	0.354	0.237	
7.120	0.442	0.269	
7.125	0.137	0.299	
7.130	0.174	0.299	
7.135	0.344	0.282	
7.140	0.073	0.265	
7.145	-0.052	0.228	
7.150	0.152	0.173	
7.155	0.046	0.128	
7.160	-0.139	0.087	
7.165	0.027	0.041	
7.170	0.133	0.014	
7.175	-0.095	0.006	
7.180	-0.050	-0.003	
7.185	0.116	-0.011	
7.190	-0.082	-0.008	
7.195	-0.140	-0.014	
7.200	0.076	-0.028	
7.205	-0.008	-0.029	
7.210	-0.169	-0.029	
7.215	-0.031	-0.041	
7.220	0.055	-0.048	
7.225	-0.163	-0.046	
7.230	-0.130	-0.055	
7.235	0.011	-0.068	
7.240	-0.174	-0.075	
7.245	-0.247	-0.092	
7.250	-0.104	-0.119	
7.255	-0.160	-0.138	
7.260	-0.279	-0.155	
7.265	-0.168	-0.175	
7.270	-0.125	-0.187	
7.275	-0.284	-0.191	
7.280	-0.249	-0.201	
7.285	-0.142	-0.211	
7.290	-0.273	-0.215	
7.295	-0.316	-0.223	
7.300	-0.107	-0.232	
7.305	0.000	-0.219	
7.310	0.073	-0.173	
7.315	0.454	-0.091	
7.320	0.480	0.033	
7.325	-0.046	0.152	
7.330	-0.212	0.190	
7.335	-0.229	0.142	
7.340	-0.401	0.042	
7.345	-0.448	-0.083	
7.350	-0.273	-0.201	
7.355	-0.261	-0.280	
7.360	-0.332	-0.319	
7.365	-0.168	-0.330	
7.370	-0.082	-0.309	
7.375	-0.224	-0.267	
7.380	-0.163	-0.230	
7.385	0.020	-0.193	
7.390	-0.133	-0.151	
7.395	-0.153	-0.121	
7.400	0.079	-0.101	
7.405	0.024	-0.071	
7.410	-0.136	-0.043	
7.415	0.059	-0.030	
7.420	0.174	-0.011	
7.425	-0.037	0.017	
7.430	0.111	0.038	
7.435	0.399	0.068	
7.440	0.218	0.122	
7.445	0.139	0.171	
7.450	0.437	0.207	
7.455	0.338	0.249	
7.460	0.075	0.278	
7.465	0.285	0.277	
7.470	0.311	0.269	
7.475	-0.035	0.256	
7.480	-0.011	0.213	
7.485	0.166	0.157	
7.490	-0.076	0.112	
7.495	-0.153	0.063	
7.500	0.029	0.011	
7.505	-0.043	-0.023	
7.510	-0.191	-0.047	
7.515	-0.049	-0.072	
7.520	0.015	-0.083	
7.525	-0.180	-0.083	
7.530	-0.122	-0.089	
7.535	0.064	-0.092	
7.540	-0.096	-0.081	
7.545	-0.137	-0.073	
7.550	0.055	-0.070	
7.555	-0.031	-0.058	
7.560	-0.182	-0.050	
7.565	-0.064	-0.058	
7.570	-0.024	-0.067	
7.575	-0.221	-0.074	
7.580	-0.186	-0.094	
7.585	-0.073	-0.117	
7.590	-0.223	-0.133	
7.595	-0.271	-0.152	
7.600	-0.116	-0.174	
7.605	-0.168	-0.184	
7.610	-0.284	-0.189	
7.615	-0.156	-0.197	
7.620	-0.099	-0.197	
7.625	-0.265	-0.189	
7.630	-0.235	-0.190	
7.635	-0.107	-0.195	
7.640	-0.171	-0.189	
7.645	-0.061	-0.175	
7.650	0.501	-0.126	
7.655	0.511	-0.012	
7.660	0.198	0.126	
7.665	0.139	0.219	
7.670	-0.098	0.241	
7.675	-0.375	0.188	
7.680	-0.381	0.070	
7.685	-0.270	-0.065	
7.690	-0.343	-0.178	
7.695	-0.331	-0.260	
7.700	-0.122	-0.305	
7.705	-0.128	-0.303	
7.710	-0.223	-0.274	
7.715	-0.050	-0.238	
7.720	0.027	-0.190	
7.725	-0.169	-0.139	
7.730	-0.098	-0.107	
7.735	0.114	-0.083	
7.740	-0.076	-0.054	
7.745	-0.105	-0.036	
7.750	0.166	-0.026	
7.755	0.078	-0.002	
7.760	-0.089	0.020	
7.765	0.175	0.031	
7.770	0.311	0.057	
7.775	0.096	0.101	
7.780	0.256	0.139	
7.785	0.518	0.184	
7.790	0.287	0.245	
7.795	0.190	0.289	
7.800	0.427	0.308	
7.805	0.282	0.321	
7.810	0.018	0.315	
7.815	0.206	0.278	
7.820	0.224	0.239	
7.825	-0.081	0.202	
7.830	-0.044	0.147	
7.835	0.111	0.091	
7.840	-0.117	0.049	
7.845	-0.168	0.006	
7.850	0.035	-0.036	
7.855	-0.058	-0.057	
7.860	-0.192	-0.069	
7.865	-0.014	-0.084	
7.870	0.079	-0.082	
7.875	-0.134	-0.065	
7.880	-0.044	-0.056	
7.885	0.139	-0.045	
7.890	-0.119	-0.026	
7.895	-0.183	-0.025	
7.900	0.008	-0.042	
7.905	-0.038	-0.052	
7.910	-0.177	-0.059	
7.915	-0.081	-0.073	
7.920	-0.076	-0.086	
7.925	-0.246	-0.098	
7.930	-0.171	-0.120	
7.935	-0.024	-0.137	
7.940	-0.253	-0.142	
7.945	-0.340	-0.158	
7.950	-0.195	-0.189	
7.955	-0.246	-0.214	
7.960	-0.387	-0.237	
7.965	-0.331	-0.266	
7.970	-0.367	-0.297	
7.975	-0.547	-0.332	
7.980	-0.477	-0.377	
7.985	-0.303	-0.413	
7.990	-0.399	-0.423	
7.995	-0.526	-0.425	
8.000	-0.595	-0.442	
8.005	-0.925	-0.490	
8.010	-0.996	-0.583	
8.015	-0.996	-0.701	
8.020	-0.996	-0.813	
8.025	-0.996	-0.902	
8.030	-0.996	-0.963	
8.035	-0.994	-0.999	
8.040	-0.996	-1.016	
8.045	-0.994	-1.020	
8.050	-0.814	-1.009	
8.055	-0.829	-0.977	
8.060	-0.892	-0.936	
8.065	-0.718	-0.897	
8.070	-0.639	-0.849	
8.075	-0.730	-0.794	
8.080	-0.611	-0.746	
8.085	-0.462	-0.696	
8.090	-0.543	-0.639	
8.095	-0.514	-0.588	
8.100	-0.305	-0.541	
8.105	-0.296	-0.483	
8.110	-0.345	-0.423	
8.115	-0.136	-0.367	
8.120	-0.017	-0.301	
8.125	-0.183	-0.229	
8.130	-0.049	-0.172	
8.135	0.183	-0.116	
8.140	-0.064	-0.056	
8.145	-0.111	-0.018	
8.150	0.169	-0.002	
8.155	0.040	0.019	
8.160	-0.151	0.030	
8.165	0.076	0.021	
8.170	0.113	0.018	
8.175	-0.153	0.020	
8.180	-0.038	0.007	
8.185	0.181	-0.003	
8.190	-0.052	0.005	
8.195	-0.075	0.008	
8.200	0.232	0.010	
8.205	0.133	0.033	
8.210	-0.027	0.060	
8.215	0.288	0.079	
8.220	0.355	0.115	
8.225	0.067	0.161	
8.230	0.204	0.186	
8.235	0.395	0.204	
8.240	0.133	0.227	
8.245	0.081	0.231	
8.250	0.372	0.221	
8.255	0.224	0.223	
8.260	-0.014	0.221	
8.265	0.236	0.199	
8.270	0.242	0.183	
8.275	-0.053	0.173	
8.280	0.085	0.146	
8.285	0.303	0.125	
8.290	0.052	0.126	
8.295	0.017	0.123	
8.300	0.279	0.115	
8.305	0.101	0.122	
8.310	-0.085	0.120	
8.315	0.267	0.107	
8.320	0.534	0.125	
8.325	0.616	0.202	
8.330	1.081	0.333	
8.335	1.340	0.526	
8.340	0.883	0.738	
8.345	0.376	0.867	
8.350	0.259	0.858	
8.355	-0.093	0.732	
8.360	-0.256	0.526	
8.365	-0.049	0.298	
8.370	0.101	0.119	
8.375	-0.070	0.013	
8.380	0.146	-0.037	
8.385	0.410	-0.025	
8.390	0.201	0.039	
8.395	0.212	0.111	
8.400	0.547	0.179	
8.405	0.434	0.261	
8.410	0.247	0.329	
8.415	0.543	0.370	
8.420	0.616	0.412	
8.425	0.376	0.455	
8.430	0.549	0.481	
8.435	0.776	0.509	
8.440	0.550	0.551	
8.445	0.572	0.583	
8.450	0.780	0.605	
8.455	0.380	0.620	
8.460	-0.014	0.584	
8.465	0.152	0.481	
8.470	0.146	0.362	
8.475	-0.128	0.251	
8.480	-0.040	0.144	
8.485	0.102	0.059	
8.490	-0.171	0.007	
8.495	-0.249	-0.043	
8.500	-0.151	-0.097	
8.505	-0.294	-0.145	
8.510	-0.457	-0.197	
8.515	-0.357	-0.258	
8.520	-0.378	-0.312	
8.525	-0.546	-0.358	
8.530	-0.489	-0.405	
8.535	-0.412	-0.442	
8.540	-0.555	-0.465	
8.545	-0.581	-0.488	
8.550	-0.479	-0.510	
8.555	-0.610	-0.526	
8.560	-0.739	-0.549	
8.565	-0.628	-0.585	
8.570	-0.636	-0.616	
8.575	-0.790	-0.641	
8.580	-0.732	-0.672	
8.585	-0.650	-0.696	
8.590	-0.790	-0.710	
8.595	-0.803	-0.726	
8.600	-0.659	-0.741	
8.605	-0.712	-0.742	
8.610	-0.781	-0.738	
8.615	-0.617	-0.733	
8.620	-0.575	-0.715	
8.625	-0.678	-0.687	
8.630	-0.579	-0.662	
8.635	-0.467	-0.634	
8.640	-0.604	-0.601	
8.645	-0.628	-0.580	
8.650	-0.473	-0.570	
8.655	-0.486	-0.555	
8.660	-0.453	-0.533	
8.665	0.014	-0.487	
8.670	0.530	-0.370	
8.675	0.357	-0.178	
8.680	0.312	0.021	
8.685	-0.046	0.158	
8.690	-0.520	0.183	
8.695	-0.714	0.078	
8.700	-0.645	-0.107	
8.705	-0.718	-0.304	
8.710	-0.779	-0.477	
8.715	-0.608	-0.607	
8.720	-0.595	-0.678	
8.725	-0.768	-0.707	
8.730	-0.701	-0.721	
8.735	-0.599	-0.723	
8.740	-0.724	-0.711	
8.745	-0.689	-0.701	
8.750	-0.473	-0.685	
8.755	-0.473	-0.648	
8.760	-0.505	-0.599	
8.765	-0.293	-0.546	
8.770	-0.215	-0.480	
8.775	-0.319	-0.406	
8.780	-0.143	-0.341	
8.785	0.149	-0.267	
8.790	-0.005	-0.175	
8.795	0.136	-0.084	
8.800	0.552	0.014	
8.805	0.453	0.137	
8.810	0.305	0.254	
8.815	0.636	0.343	
8.820	0.652	0.426	
8.825	0.320	0.493	
8.830	0.472	0.516	
8.835	0.634	0.520	
8.840	0.300	0.520	
8.845	0.255	0.493	
8.850	0.549	0.451	
8.855	0.384	0.427	
8.860	0.209	0.407	
8.865	0.556	0.385	
8.870	0.613	0.392	
8.875	0.340	0.421	
8.880	0.561	0.443	
8.885	0.799	0.477	
8.890	0.540	0.529	
8.895	0.585	0.571	
8.900	0.921	0.608	
8.905	0.722	0.659	
8.910	0.498	0.695	
8.915	0.787	0.700	
8.920	0.784	0.705	
8.925	0.431	0.706	
8.930	0.671	0.683	
8.935	1.070	0.677	
8.940	0.934	0.722	
8.945	1.014	0.793	
8.950	1.363	0.881	
8.955	1.212	0.990	
8.960	1.030	1.084	
8.965	1.386	1.144	
8.970	1.445	1.205	
8.975	1.242	1.267	
8.980	1.486	1.314	
8.985	1.663	1.365	
8.990	1.358	1.424	
8.995	1.419	1.457	
9.000	1.941	1.488	
9.005	2.157	1.572	
9.010	2.276	1.717	
9.015	2.576	1.900	
9.020	2.297	2.088	
9.025	1.445	2.193	
9.030	1.125	2.131	
9.035	0.995	1.923	
9.040	0.549	1.636	
9.045	0.530	1.313	
9.050	0.916	1.029	
9.055	0.832	0.847	
9.060	0.707	0.752	
9.065	1.084	0.721	
9.070	1.102	0.756	
9.075	0.782	0.821	
9.080	0.957	0.869	
9.085	1.137	0.909	
9.090	0.809	0.947	
9.095	0.776	0.954	
9.100	1.069	0.940	
9.105	0.890	0.935	
9.110	0.687	0.923	
9.115	1.008	0.898	
9.120	1.043	0.893	
9.125	0.805	0.905	
9.130	1.044	0.915	
9.135	1.255	0.942	
9.140	0.971	0.990	
9.145	0.954	1.023	
9.150	1.227	1.040	
9.155	1.003	1.059	
9.160	0.747	1.057	
9.165	0.998	1.022	
9.170	0.936	0.986	
9.175	0.556	0.945	
9.180	0.678	0.876	
9.185	0.809	0.806	
9.190	0.450	0.749	
9.195	0.380	0.680	
9.200	0.657	0.606	
9.205	0.457	0.557	
9.210	0.253	0.515	
9.215	0.555	0.469	
9.220	0.553	0.448	
9.225	0.232	0.442	
9.230	0.412	0.424	
9.235	0.572	0.412	
9.240	0.241	0.412	
9.245	0.197	0.394	
9.250	0.472	0.364	
9.255	0.268	0.347	
9.260	0.081	0.325	
9.265	0.369	0.291	
9.270	0.309	0.272	
9.275	-0.043	0.257	
9.280	0.130	0.218	
9.285	0.302	0.183	
9.290	0.004	0.165	
9.295	-0.023	0.140	
9.300	0.270	0.112	
9.305	0.070	0.105	
9.310	-0.102	0.096	
9.315	0.145	0.074	
9.320	0.125	0.064	
9.325	-0.140	0.059	
9.330	-0.061	0.036	
9.335	0.126	0.012	
9.340	0.014	0.007	
9.345	0.296	0.024	
9.350	0.872	0.096	
9.355	0.736	0.242	
9.360	0.402	0.396	
9.365	0.348	0.485	
9.370	-0.012	0.490	
9.375	-0.313	0.402	
9.380	-0.279	0.243	
9.385	-0.191	0.070	
9.390	-0.322	-0.073	
9.395	-0.306	-0.182	
9.400	-0.157	-0.253	
9.405	-0.247	-0.281	
9.410	-0.331	-0.288	
9.415	-0.183	-0.289	
9.420	-0.201	-0.277	
9.425	-0.354	-0.264	
9.430	-0.253	-0.262	
9.435	-0.145	-0.259	
9.440	-0.284	-0.248	
9.445	-0.253	-0.241	
9.450	-0.066	-0.233	
9.455	-0.133	-0.210	
9.460	-0.191	-0.184	
9.465	0.093	-0.156	
9.470	0.186	-0.106	
9.475	0.020	-0.039	
9.480	0.299	0.025	
9.485	0.558	0.106	
9.490	0.325	0.207	
9.495	0.398	0.292	
9.500	0.755	0.367	
9.505	0.642	0.453	
9.510	0.509	0.530	
9.515	0.809	0.583	
9.520	0.793	0.637	
9.525	0.512	0.680	
9.530	0.675	0.690	
9.535	0.823	0.692	
9.540	0.462	0.694	
9.545	0.358	0.664	
9.550	0.495	0.603	
9.555	0.161	0.532	
9.560	-0.119	0.431	
9.565	-0.050	0.296	
9.570	-0.143	0.158	
9.575	-0.349	0.030	
9.580	-0.277	-0.091	
9.585	-0.207	-0.184	
9.590	-0.364	-0.245	
9.595	-0.366	-0.290	
9.600	-0.206	-0.319	
9.605	-0.284	-0.323	
9.610	-0.367	-0.318	
9.615	-0.212	-0.314	
9.620	-0.229	-0.301	
9.625	-0.403	-0.288	
9.630	-0.290	-0.290	
9.635	-0.122	-0.288	
9.640	-0.169	-0.267	
9.645	-0.052	-0.231	
9.650	0.344	-0.167	
9.655	0.291	-0.062	
9.660	0.270	0.056	
9.665	0.652	0.172	
9.670	0.780	0.306	
9.675	0.636	0.447	
9.680	0.983	0.574	
9.685	1.424	0.716	
9.690	1.438	0.897	
9.695	1.486	1.087	
9.700	1.598	1.257	
9.705	1.099	1.376	
9.710	0.517	1.379	
9.715	0.454	1.245	
9.720	0.181	1.024	
9.725	-0.172	0.756	
9.730	-0.143	0.470	
9.735	-0.136	0.216	
9.740	-0.320	0.017	
9.745	-0.348	-0.136	
9.750	-0.271	-0.245	
9.755	-0.392	-0.313	
9.760	-0.477	-0.359	
9.765	-0.343	-0.394	
9.770	-0.345	-0.407	
9.775	-0.465	-0.408	
9.780	-0.369	-0.409	
9.785	-0.253	-0.401	
9.790	-0.374	-0.381	
9.795	-0.328	-0.362	
9.800	-0.133	-0.339	
9.805	-0.206	-0.303	
9.810	-0.258	-0.266	
9.815	-0.049	-0.234	
9.820	0.033	-0.190	
9.825	-0.107	-0.138	
9.830	0.094	-0.090	
9.835	0.261	-0.035	
9.840	0.011	0.028	
9.845	0.035	0.068	
9.850	0.296	0.093	
9.855	0.091	0.121	
9.860	-0.070	0.131	
9.865	0.221	0.120	
9.870	0.130	0.115	
9.875	-0.127	0.108	
9.880	-0.002	0.079	
9.885	0.161	0.051	
9.890	-0.117	0.038	
9.895	-0.130	0.015	
9.900	0.090	-0.013	
9.905	-0.027	-0.023	
9.910	-0.116	-0.027	
9.915	0.143	-0.030	
9.920	0.158	-0.010	
9.925	-0.098	0.018	
9.930	0.033	0.028	
9.935	0.232	0.037	
9.940	-0.029	0.057	
9.945	-0.044	0.062	
9.950	0.172	0.055	
9.955	-0.049	0.053	
9.960	-0.165	0.039	
9.965	-0.008	0.006	
9.970	-0.049	-0.021	
9.975	-0.246	-0.047	
9.980	-0.165	-0.084	
9.985	-0.082	-0.116	
9.990	-0.244	-0.138	
9.995	-0.226	-0.159	
10.000	-0.041	-0.175	
10.005	-0.160	-0.171	
10.010	-0.249	-0.166	
10.015	-0.067	-0.167	
10.020	-0.023	-0.155	
10.025	-0.055	-0.128	
10.030	0.448	-0.077	
10.035	0.910	0.043	
10.040	0.678	0.230	
10.045	0.575	0.411	
10.050	0.582	0.535	
10.055	0.154	0.585	
10.060	-0.107	0.537	
10.065	0.052	0.415	
10.070	0.075	0.281	
10.075	-0.098	0.168	
10.080	0.090	0.080	
10.085	0.267	0.038	
10.090	0.001	0.039	
10.095	0.044	0.047	
10.100	0.326	0.061	
10.105	0.108	0.094	
10.110	-0.060	0.115	
10.115	0.195	0.113	
10.120	0.130	0.112	
10.125	-0.140	0.105	
10.130	-0.055	0.073	
10.135	0.008	0.033	
10.140	-0.195	-0.004	
10.145	-0.207	-0.049	
10.150	-0.096	-0.094	
10.155	-0.259	-0.130	
10.160	-0.398	-0.170	
10.165	-0.310	-0.221	
10.170	-0.361	-0.269	
10.175	-0.526	-0.315	
10.180	-0.462	-0.366	
10.185	-0.415	-0.410	
10.190	-0.567	-0.441	
10.195	-0.564	-0.473	
10.200	-0.439	-0.500	
10.205	-0.549	-0.512	
10.210	-0.625	-0.524	
10.215	-0.477	-0.538	
10.220	-0.473	-0.540	
10.225	-0.593	-0.535	
10.230	-0.468	-0.531	
10.235	-0.381	-0.520	
10.240	-0.518	-0.499	
10.245	-0.483	-0.484	
10.250	-0.334	-0.472	
10.255	-0.412	-0.450	
10.260	-0.474	-0.432	
10.265	-0.305	-0.420	
10.270	-0.299	-0.401	
10.275	-0.421	-0.378	
10.280	-0.306	-0.364	
10.285	-0.221	-0.348	
10.290	-0.380	-0.328	
10.295	-0.367	-0.320	
10.300	-0.236	-0.319	
10.305	-0.367	-0.315	
10.310	-0.445	-0.321	
10.315	-0.300	-0.336	
10.320	-0.319	-0.345	
10.325	-0.444	-0.349	
10.330	-0.335	-0.358	
10.335	-0.264	-0.360	
10.340	-0.403	-0.353	
10.345	-0.370	-0.351	
10.350	-0.246	-0.349	
10.355	-0.343	-0.339	
10.360	-0.383	-0.333	
10.365	-0.154	-0.326	
10.370	-0.017	-0.295	
10.375	-0.061	-0.237	
10.380	0.104	-0.167	
10.385	0.041	-0.092	
10.390	-0.352	-0.047	
10.395	-0.485	-0.068	
10.400	-0.451	-0.148	
10.405	-0.584	-0.251	
10.410	-0.645	-0.360	
10.415	-0.464	-0.455	
10.420	-0.436	-0.510	
10.425	-0.529	-0.529	
10.430	-0.383	-0.528	
10.435	-0.271	-0.502	
10.440	-0.396	-0.457	
10.445	-0.355	-0.417	
10.450	-0.200	-0.380	
10.455	-0.282	-0.340	
10.460	-0.323	-0.307	
10.465	-0.134	-0.284	
10.470	-0.122	-0.253	
10.475	-0.239	-0.219	
10.480	-0.075	-0.194	
10.485	0.104	-0.158	
10.490	-0.108	-0.111	
10.495	-0.024	-0.073	
10.500	0.291	-0.035	
10.505	0.133	0.022	
10.510	0.029	0.073	
10.515	0.344	0.109	
10.520	0.285	0.153	
10.525	0.004	0.189	
10.530	0.200	0.194	
10.535	0.337	0.195	
10.540	0.017	0.201	
10.545	0.018	0.184	
10.550	0.223	0.155	
10.555	-0.020	0.132	
10.560	-0.145	0.099	
10.565	0.075	0.053	
10.570	0.014	0.022	
10.575	-0.180	-0.001	
10.580	-0.038	-0.030	
10.585	0.076	-0.047	
10.590	-0.151	-0.048	
10.595	-0.110	-0.056	
10.600	0.145	-0.059	
10.605	-0.023	-0.043	
10.610	-0.095	-0.027	
10.615	0.239	-0.013	
10.620	0.255	0.026	
10.625	0.058	0.078	
10.630	0.392	0.124	
10.635	0.691	0.194	
10.640	0.591	0.302	
10.645	0.960	0.430	
10.650	2.203	0.631	
10.655	3.072	1.003	
10.660	3.064	1.527	
10.665	3.060	2.069	
10.670	3.056	2.518	
10.675	3.058	2.838	
10.680	3.060	3.037	
10.685	3.061	3.138	
10.690	3.066	3.174	
10.695	3.067	3.172	
10.700	3.067	3.151	
10.705	3.069	3.126	
10.710	3.072	3.103	
10.715	3.069	3.085	
10.720	3.067	3.074	
10.725	3.072	3.067	
10.730	3.073	3.065	
10.735	2.691	3.047	
10.740	1.884	2.953	
10.745	1.547	2.732	
10.750	1.581	2.421	
10.755	1.285	2.098	
10.760	1.110	1.795	
10.765	1.363	1.539	
10.770	1.290	1.366	
10.775	0.988	1.256	
10.780	1.120	1.172	
10.785	1.168	1.118	
10.790	0.803	1.081	
10.795	0.759	1.027	
10.800	0.934	0.961	
10.805	0.687	0.904	
10.810	0.506	0.839	
10.815	0.733	0.765	
10.820	0.642	0.707	
10.825	0.351	0.658	
10.830	0.523	0.598	
10.835	0.634	0.552	
10.840	0.343	0.526	
10.845	0.373	0.494	
10.850	0.607	0.466	
10.855	0.373	0.456	
10.860	0.169	0.438	
10.865	0.363	0.397	
10.870	0.242	0.357	
10.875	-0.044	0.308	
10.880	0.027	0.235	
10.885	0.041	0.159	
10.890	-0.182	0.088	
10.895	-0.206	0.013	
10.900	-0.130	-0.060	
10.905	-0.274	-0.119	
10.910	-0.370	-0.174	
10.915	-0.252	-0.228	
10.920	-0.281	-0.265	
10.925	-0.428	-0.292	
10.930	-0.343	-0.320	
10.935	-0.287	-0.339	
10.940	-0.418	-0.347	
10.945	-0.393	-0.357	
10.950	-0.276	-0.365	
10.955	-0.383	-0.362	
10.960	-0.462	-0.364	
10.965	-0.334	-0.373	
10.970	-0.363	-0.377	
10.975	-0.497	-0.382	
10.980	-0.412	-0.395	
10.985	-0.351	-0.406	
10.990	-0.512	-0.411	
10.995	-0.520	-0.425	
11.000	-0.418	-0.445	
11.005	-0.537	-0.460	
11.010	-0.611	-0.479	
11.015	-0.470	-0.503	
11.020	-0.483	-0.516	
11.025	-0.605	-0.521	
11.030	-0.520	-0.530	
11.035	-0.491	-0.535	
11.040	-0.656	-0.538	
11.045	-0.637	-0.553	
11.050	-0.479	-0.569	
11.055	-0.450	-0.567	
11.060	-0.320	-0.539	
11.065	-0.002	-0.477	
11.070	-0.012	-0.373	
11.075	-0.288	-0.268	
11.080	-0.421	-0.213	
11.085	-0.550	-0.225	
11.090	-0.770	-0.295	
11.095	-0.767	-0.406	
11.100	-0.621	-0.521	
11.105	-0.662	-0.605	
11.110	-0.663	-0.654	
11.115	-0.489	-0.672	
11.120	-0.476	-0.655	
11.125	-0.567	-0.618	
11.130	-0.448	-0.581	
11.135	-0.370	-0.540	
11.140	-0.494	-0.498	
11.145	-0.457	-0.469	
11.150	-0.323	-0.448	
11.155	-0.409	-0.425	
11.160	-0.445	-0.408	
11.165	-0.279	-0.398	
11.170	-0.273	-0.378	
11.175	-0.363	-0.353	
11.180	-0.212	-0.332	
11.185	-0.110	-0.301	
11.190	-0.229	-0.261	
11.195	-0.169	-0.227	
11.200	-0.017	-0.196	
11.205	-0.149	-0.160	
11.210	-0.233	-0.139	
11.215	-0.104	-0.136	
11.220	-0.157	-0.137	
11.225	-0.311	-0.146	
11.230	-0.236	-0.170	
11.235	-0.212	-0.197	
11.240	-0.392	-0.222	
11.245	-0.393	-0.257	
11.250	-0.290	-0.295	
11.255	-0.393	-0.322	
11.260	-0.454	-0.347	
11.265	-0.316	-0.369	
11.270	-0.339	-0.378	
11.275	-0.454	-0.379	
11.280	-0.343	-0.383	
11.285	-0.268	-0.380	
11.290	-0.398	-0.367	
11.295	-0.366	-0.359	
11.300	-0.241	-0.352	
11.305	-0.332	-0.338	
11.310	-0.396	-0.329	
11.315	-0.262	-0.328	
11.320	-0.296	-0.323	
11.325	-0.427	-0.320	
11.330	-0.335	-0.328	
11.335	-0.294	-0.336	
11.340	-0.447	-0.341	
11.345	-0.427	-0.355	
11.350	-0.311	-0.371	
11.355	-0.415	-0.378	
11.360	-0.473	-0.386	
11.365	-0.331	-0.397	
11.370	-0.355	-0.397	
11.375	-0.474	-0.394	
11.380	-0.398	-0.399	
11.385	-0.372	-0.403	
11.390	-0.499	-0.406	
11.395	-0.406	-0.415	
11.400	-0.114	-0.408	
11.405	0.114	-0.354	
11.410	0.363	-0.240	
11.415	0.680	-0.069	
11.420	0.311	0.121	
11.425	-0.296	0.239	
11.430	-0.416	0.221	
11.435	-0.485	0.096	
11.440	-0.653	-0.077	
11.445	-0.585	-0.257	
11.450	-0.410	-0.401	
11.455	-0.453	-0.484	
11.460	-0.456	-0.517	
11.465	-0.274	-0.514	
11.470	-0.273	-0.476	
11.475	-0.370	-0.425	
11.480	-0.239	-0.379	
11.485	-0.163	-0.333	
11.490	-0.294	-0.289	
11.495	-0.244	-0.260	
11.500	-0.107	-0.238	
11.505	-0.207	-0.215	
11.510	-0.244	-0.199	
11.515	-0.052	-0.189	
11.520	-0.056	-0.168	
11.525	-0.165	-0.141	
11.530	0.044	-0.118	
11.535	0.230	-0.078	
11.540	0.020	-0.020	
11.545	0.131	0.031	
11.550	0.363	0.080	
11.555	0.099	0.134	
11.560	-0.047	0.159	
11.565	0.169	0.150	
11.570	0.046	0.133	
11.575	-0.178	0.105	
11.580	-0.098	0.052	
11.585	-0.081	-0.004	
11.590	-0.270	-0.056	
11.595	-0.255	-0.111	
11.600	-0.140	-0.160	
11.605	-0.267	-0.192	
11.610	-0.325	-0.218	
11.615	-0.177	-0.241	
11.620	-0.206	-0.249	
11.625	-0.308	-0.248	
11.630	-0.180	-0.248	
11.635	-0.114	-0.238	
11.640	-0.270	-0.221	
11.645	-0.236	-0.213	
11.650	-0.117	-0.209	
11.655	-0.244	-0.202	
11.660	-0.297	-0.202	
11.665	-0.133	-0.210	
11.670	-0.195	-0.210	
11.675	-0.335	-0.211	
11.680	-0.246	-0.224	
11.685	-0.213	-0.237	
11.690	-0.380	-0.248	
11.695	-0.357	-0.269	
11.700	-0.235	-0.291	
11.705	-0.334	-0.302	
11.710	-0.392	-0.311	
11.715	-0.253	-0.321	
11.720	-0.299	-0.322	
11.725	-0.450	-0.323	
11.730	-0.369	-0.337	
11.735	-0.319	-0.350	
11.740	-0.390	-0.357	
11.745	-0.178	-0.353	
11.750	0.421	-0.301	
11.755	0.491	-0.167	
11.760	0.360	0.011	
11.765	0.296	0.166	
11.770	-0.209	0.246	
11.775	-0.526	0.210	
11.780	-0.514	0.072	
11.785	-0.474	-0.103	
11.790	-0.575	-0.264	
11.795	-0.485	-0.392	
11.800	-0.310	-0.468	
11.805	-0.370	-0.487	
11.810	-0.381	-0.472	
11.815	-0.194	-0.439	
11.820	-0.197	-0.387	
11.825	-0.299	-0.330	
11.830	-0.154	-0.285	
11.835	-0.070	-0.242	
11.840	-0.217	-0.199	
11.845	-0.148	-0.172	
11.850	0.065	-0.147	
11.855	-0.084	-0.112	
11.860	-0.113	-0.085	
11.865	0.242	-0.058	
11.870	0.226	-0.007	
11.875	0.037	0.053	
11.880	0.326	0.102	
11.885	0.486	0.161	
11.890	0.232	0.231	
11.895	0.332	0.282	
11.900	0.537	0.321	
11.905	0.253	0.358	
11.910	0.102	0.362	
11.915	0.329	0.334	
11.920	0.177	0.302	
11.925	-0.107	0.257	
11.930	0.038	0.187	
11.935	0.085	0.121	
11.940	-0.168	0.068	
11.945	-0.119	0.012	
11.950	0.040	-0.034	
11.955	-0.153	-0.060	
11.960	-0.221	-0.084	
11.965	-0.038	-0.109	
11.970	-0.067	-0.118	
11.975	-0.201	-0.118	
11.980	-0.050	-0.120	
11.985	0.047	-0.111	
11.990	-0.160	-0.091	
11.995	-0.116	-0.083	
12.000	0.049	-0.079	
12.005	-0.136	-0.070	
12.010	-0.201	-0.072	
12.015	-0.017	-0.085	
12.020	-0.098	-0.091	
12.025	-0.249	-0.099	
12.030	-0.139	-0.118	
12.035	-0.105	-0.135	
12.040	-0.276	-0.147	
12.045	-0.238	-0.167	
12.050	-0.101	-0.186	
12.055	-0.238	-0.192	
12.060	-0.281	-0.199	
12.065	-0.104	-0.207	
12.070	-0.165	-0.203	
12.075	-0.322	-0.199	
12.080	-0.209	-0.207	
12.085	-0.090	-0.211	
12.090	-0.111	-0.197	
12.095	0.315	-0.154	
12.100	0.774	-0.044	
12.105	0.517	0.127	
12.110	0.151	0.279	
12.115	0.041	0.341	
12.120	-0.224	0.310	
12.125	-0.436	0.198	
12.130	-0.352	0.040	
12.135	-0.284	-0.111	
12.140	-0.383	-0.225	
12.145	-0.294	-0.301	
12.150	-0.111	-0.333	
12.155	-0.197	-0.320	
12.160	-0.224	-0.289	
12.165	-0.017	-0.250	
12.170	-0.079	-0.201	
12.175	-0.204	-0.157	
12.180	-0.032	-0.130	
12.185	0.047	-0.103	
12.190	-0.160	-0.076	
12.195	-0.081	-0.064	
12.200	0.137	-0.055	
12.205	-0.058	-0.035	
12.210	-0.090	-0.021	
12.215	0.262	-0.009	
12.220	0.259	0.030	
12.225	0.097	0.084	
12.230	0.370	0.134	
12.235	0.453	0.193	
12.240	0.140	0.252	
12.245	0.151	0.275	
12.250	0.314	0.270	
12.255	0.043	0.256	
12.260	-0.082	0.217	
12.265	0.151	0.158	
12.270	0.011	0.111	
12.275	-0.192	0.067	
12.280	-0.084	0.011	
12.285	-0.041	-0.037	
12.290	-0.227	-0.072	
12.295	-0.172	-0.106	
12.300	-0.002	-0.130	
12.305	-0.160	-0.133	
12.310	-0.210	-0.135	
12.315	-0.005	-0.138	
12.320	-0.056	-0.127	
12.325	-0.197	-0.112	
12.330	-0.040	-0.107	
12.335	0.030	-0.096	
12.340	-0.183	-0.080	
12.345	-0.148	-0.080	
12.350	-0.024	-0.088	
12.355	-0.201	-0.095	
12.360	-0.271	-0.112	
12.365	-0.131	-0.141	
12.370	-0.203	-0.163	
12.375	-0.332	-0.184	
12.380	-0.212	-0.210	
12.385	-0.163	-0.226	
12.390	-0.303	-0.232	
12.395	-0.244	-0.238	
12.400	-0.117	-0.239	
12.405	-0.235	-0.229	
12.410	-0.281	-0.221	
12.415	-0.154	-0.221	
12.420	-0.224	-0.217	
12.425	-0.332	-0.218	
12.430	-0.140	-0.226	
12.435	0.131	-0.211	
12.440	0.219	-0.148	
12.445	0.543	-0.039	
12.450	0.744	0.117	
12.455	0.279	0.278	
12.460	-0.140	0.360	
12.465	-0.151	0.326	
12.470	-0.293	0.216	
12.475	-0.422	0.068	
12.480	-0.271	-0.082	
12.485	-0.174	-0.193	
12.490	-0.267	-0.253	
12.495	-0.175	-0.277	
12.500	0.047	-0.264	
12.505	-0.107	-0.217	
12.510	-0.127	-0.168	
12.515	0.169	-0.121	
12.520	0.122	-0.061	
12.525	-0.069	-0.004	
12.530	0.160	0.032	
12.535	0.262	0.067	
12.540	0.011	0.104	
12.545	0.134	0.122	
12.550	0.386	0.139	
12.555	0.206	0.173	
12.560	0.178	0.203	
12.565	0.518	0.230	
12.570	0.472	0.279	
12.575	0.267	0.331	
12.580	0.518	0.366	
12.585	0.619	0.404	
12.590	0.291	0.443	
12.595	0.341	0.451	
12.600	0.500	0.440	
12.605	0.207	0.425	
12.610	0.065	0.384	
12.615	0.288	0.322	
12.620	0.137	0.268	
12.625	-0.110	0.213	
12.630	0.055	0.145	
12.635	0.107	0.090	
12.640	-0.143	0.052	
12.645	-0.084	0.012	
12.650	0.105	-0.020	
12.655	-0.098	-0.030	
12.660	-0.140	-0.041	
12.665	0.099	-0.051	
12.670	0.021	-0.043	
12.675	-0.134	-0.031	
12.680	0.033	-0.029	
12.685	0.085	-0.022	
12.690	-0.148	-0.012	
12.695	-0.089	-0.018	
12.700	0.085	-0.029	
12.705	-0.119	-0.031	
12.710	-0.174	-0.041	
12.715	0.004	-0.060	
12.720	-0.092	-0.070	
12.725	-0.230	-0.081	
12.730	-0.102	-0.101	
12.735	-0.053	-0.115	
12.740	-0.220	-0.121	
12.745	-0.157	-0.131	
12.750	-0.006	-0.137	
12.755	-0.175	-0.130	
12.760	-0.244	-0.131	
12.765	-0.099	-0.142	
12.770	-0.149	-0.149	
12.775	-0.224	-0.153	
12.780	0.152	-0.148	
12.785	0.585	-0.087	
12.790	0.492	0.043	
12.795	0.552	0.196	
12.800	0.477	0.331	
12.805	-0.154	0.399	
12.810	-0.378	0.349	
12.815	-0.331	0.203	
12.820	-0.398	0.027	
12.825	-0.468	-0.138	
12.830	-0.293	-0.269	
12.835	-0.201	-0.341	
12.840	-0.306	-0.360	
12.845	-0.218	-0.351	
12.850	-0.053	-0.318	
12.855	-0.177	-0.266	
12.860	-0.203	-0.220	
12.865	0.021	-0.182	
12.870	-0.038	-0.140	
12.875	-0.159	-0.102	
12.880	0.055	-0.079	
12.885	0.149	-0.049	
12.890	-0.072	-0.012	
12.895	0.072	0.012	
12.900	0.337	0.041	
12.905	0.183	0.090	
12.910	0.180	0.138	
12.915	0.518	0.185	
12.920	0.439	0.251	
12.925	0.226	0.311	
12.930	0.459	0.346	
12.935	0.501	0.375	
12.940	0.160	0.395	
12.945	0.204	0.379	
12.950	0.351	0.344	
12.955	0.043	0.307	
12.960	-0.075	0.249	
12.965	0.134	0.175	
12.970	-0.014	0.115	
12.975	-0.177	0.061	
12.980	-0.035	0.005	
12.985	0.009	-0.035	
12.990	-0.194	-0.058	
12.995	-0.136	-0.082	
13.000	0.014	-0.100	
13.005	-0.151	-0.102	
13.010	-0.183	-0.106	
13.015	0.035	-0.111	
13.020	-0.050	-0.100	
13.025	-0.197	-0.089	
13.030	-0.067	-0.090	
13.035	-0.050	-0.092	
13.040	-0.227	-0.094	
13.045	-0.165	-0.109	
13.050	-0.037	-0.123	
13.055	-0.201	-0.128	
13.060	-0.252	-0.138	
13.065	-0.120	-0.156	
13.070	-0.207	-0.168	
13.075	-0.340	-0.184	
13.080	-0.209	-0.208	
13.085	-0.165	-0.224	
13.090	-0.308	-0.230	
13.095	-0.242	-0.237	
13.100	-0.114	-0.239	
13.105	-0.276	-0.230	
13.110	-0.348	-0.230	
13.115	-0.212	-0.242	
13.120	-0.221	-0.249	
13.125	-0.200	-0.246	
13.130	0.369	-0.211	
13.135	0.828	-0.092	
13.140	0.642	0.107	
13.145	0.569	0.309	
13.150	0.287	0.446	
13.155	-0.267	0.472	
13.160	-0.442	0.365	
13.165	-0.358	0.176	
13.170	-0.393	-0.021	
13.175	-0.445	-0.188	
13.180	-0.262	-0.306	
13.185	-0.174	-0.361	
13.190	-0.285	-0.362	
13.195	-0.191	-0.339	
13.200	-0.023	-0.297	
13.205	-0.169	-0.240	
13.210	-0.186	-0.193	
13.215	0.047	-0.157	
13.220	-0.032	-0.116	
13.225	-0.145	-0.082	
13.230	0.075	-0.062	
13.235	0.155	-0.033	
13.240	-0.079	0.002	
13.245	0.078	0.022	
13.250	0.370	0.048	
13.255	0.203	0.099	
13.260	0.221	0.152	
13.265	0.561	0.206	
13.270	0.477	0.278	
13.275	0.264	0.344	
13.280	0.506	0.383	
13.285	0.524	0.415	
13.290	0.180	0.433	
13.295	0.218	0.414	
13.300	0.331	0.371	
13.305	-0.003	0.322	
13.310	-0.117	0.248	
13.315	0.064	0.158	
13.320	-0.070	0.082	
13.325	-0.215	0.016	
13.330	-0.073	-0.046	
13.335	-0.040	-0.087	
13.340	-0.217	-0.107	
13.345	-0.146	-0.127	
13.350	-0.002	-0.136	
13.355	-0.171	-0.130	
13.360	-0.192	-0.128	
13.365	0.021	-0.128	
13.370	-0.078	-0.115	
13.375	-0.215	-0.103	
13.380	-0.061	-0.105	
13.385	-0.034	-0.103	
13.390	-0.229	-0.100	
13.395	-0.174	-0.111	
13.400	-0.061	-0.125	
13.405	-0.232	-0.133	
13.410	-0.279	-0.150	
13.415	-0.143	-0.173	
13.420	-0.224	-0.189	
13.425	-0.342	-0.205	
13.430	-0.209	-0.227	
13.435	-0.178	-0.239	
13.440	-0.329	-0.242	
13.445	-0.262	-0.250	
13.450	-0.186	-0.255	
13.455	-0.367	-0.257	
13.460	-0.407	-0.272	
13.465	-0.200	-0.293	
13.470	-0.075	-0.290	
13.475	0.230	-0.240	
13.480	0.988	-0.108	
13.485	1.151	0.132	
13.490	0.593	0.404	
13.495	0.104	0.576	
13.500	-0.159	0.584	
13.505	-0.457	0.449	
13.510	-0.550	0.225	
13.515	-0.389	-0.016	
13.520	-0.390	-0.212	
13.525	-0.439	-0.343	
13.530	-0.261	-0.414	
13.535	-0.188	-0.426	
13.540	-0.310	-0.397	
13.545	-0.197	-0.356	
13.550	-0.038	-0.304	
13.555	-0.188	-0.244	
13.560	-0.197	-0.197	
13.565	0.049	-0.162	
13.570	-0.027	-0.121	
13.575	-0.142	-0.085	
13.580	0.116	-0.061	
13.585	0.224	-0.023	
13.590	0.000	0.026	
13.595	0.204	0.065	
13.600	0.509	0.114	
13.605	0.337	0.189	
13.610	0.352	0.262	
13.615	0.694	0.330	
13.620	0.562	0.408	
13.625	0.332	0.471	
13.630	0.550	0.497	
13.635	0.518	0.508	
13.640	0.133	0.499	
13.645	0.180	0.447	
13.650	0.285	0.375	
13.655	-0.050	0.302	
13.660	-0.137	0.213	
13.665	0.052	0.117	
13.670	-0.081	0.043	
13.675	-0.210	-0.016	
13.680	-0.037	-0.067	
13.685	0.014	-0.092	
13.690	-0.177	-0.096	
13.695	-0.090	-0.100	
13.700	0.094	-0.096	
13.705	-0.116	-0.077	
13.710	-0.136	-0.066	
13.715	0.099	-0.062	
13.720	-0.055	-0.048	
13.725	-0.212	-0.043	
13.730	-0.060	-0.057	
13.735	-0.031	-0.070	
13.740	-0.235	-0.080	
13.745	-0.177	-0.101	
13.750	-0.060	-0.123	
13.755	-0.226	-0.135	
13.760	-0.258	-0.152	
13.765	-0.095	-0.170	
13.770	-0.186	-0.177	
13.775	-0.294	-0.183	
13.780	-0.136	-0.194	
13.785	-0.101	-0.195	
13.790	-0.271	-0.187	
13.795	-0.223	-0.189	
13.800	-0.151	-0.195	
13.805	-0.316	-0.200	
13.810	-0.300	-0.216	
13.815	0.053	-0.224	
13.820	0.355	-0.179	
13.825	0.556	-0.063	
13.830	0.957	0.118	
13.835	0.844	0.338	
13.840	0.058	0.508	
13.845	-0.182	0.534	
13.850	-0.232	0.424	
13.855	-0.427	0.242	
13.860	-0.438	0.037	
13.865	-0.218	-0.140	
13.870	-0.230	-0.253	
13.875	-0.285	-0.306	
13.880	-0.078	-0.316	
13.885	0.018	-0.282	
13.890	-0.169	-0.223	
13.895	-0.046	-0.170	
13.900	0.180	-0.116	
13.905	-0.031	-0.055	
13.910	-0.050	-0.012	
13.915	0.264	0.018	
13.920	0.161	0.058	
13.925	-0.008	0.094	
13.930	0.305	0.115	
13.935	0.383	0.150	
13.940	0.140	0.195	
13.945	0.355	0.228	
13.950	0.634	0.271	
13.955	0.413	0.336	
13.960	0.404	0.392	
13.965	0.691	0.435	
13.970	0.509	0.482	
13.975	0.227	0.505	
13.980	0.427	0.488	
13.985	0.398	0.457	
13.990	0.038	0.416	
13.995	0.119	0.346	
14.000	0.270	0.273	
14.005	-0.043	0.215	
14.010	-0.102	0.151	
14.015	0.145	0.087	
14.020	0.009	0.048	
14.025	-0.154	0.021	
14.030	0.027	-0.009	
14.035	0.056	-0.024	
14.040	-0.159	-0.028	
14.045	-0.055	-0.039	
14.050	0.149	-0.043	
14.055	-0.076	-0.029	
14.060	-0.101	-0.022	
14.065	0.157	-0.020	
14.070	0.003	-0.005	
14.075	-0.156	0.003	
14.080	0.046	-0.005	
14.085	0.058	-0.009	
14.090	-0.174	-0.009	
14.095	-0.098	-0.026	
14.100	0.053	-0.044	
14.105	-0.186	-0.053	
14.110	-0.227	-0.073	
14.115	-0.063	-0.101	
14.120	-0.151	-0.120	
14.125	-0.264	-0.136	
14.130	-0.102	-0.155	
14.135	-0.075	-0.161	
14.140	-0.270	-0.158	
14.145	-0.233	-0.166	
14.150	-0.136	-0.180	
14.155	-0.253	-0.189	
14.160	-0.180	-0.196	
14.165	0.352	-0.175	
14.170	0.559	-0.083	
14.175	0.448	0.066	
14.180	0.584	0.222	
14.185	0.291	0.345	
14.190	-0.224	0.386	
14.195	-0.296	0.313	
14.200	-0.255	0.171	
14.205	-0.407	0.013	
14.210	-0.401	-0.135	
14.215	-0.215	-0.248	
14.220	-0.238	-0.307	
14.225	-0.277	-0.325	
14.230	-0.081	-0.313	
14.235	-0.026	-0.272	
14.240	-0.206	-0.216	
14.245	-0.099	-0.174	
14.250	0.114	-0.135	
14.255	-0.090	-0.089	
14.260	-0.087	-0.057	
14.265	0.242	-0.031	
14.270	0.123	0.011	
14.275	-0.046	0.050	
14.280	0.245	0.073	
14.285	0.319	0.106	
14.290	0.076	0.147	
14.295	0.296	0.175	
14.300	0.550	0.213	
14.305	0.317	0.271	
14.310	0.276	0.317	
14.315	0.553	0.347	
14.320	0.375	0.379	
14.325	0.146	0.391	
14.330	0.378	0.373	
14.335	0.375	0.355	
14.340	0.020	0.333	
14.345	0.146	0.287	
14.350	0.315	0.240	
14.355	0.018	0.209	
14.360	-0.035	0.170	
14.365	0.262	0.129	
14.370	0.091	0.112	
14.375	-0.117	0.098	
14.380	0.110	0.072	
14.385	0.143	0.057	
14.390	-0.116	0.052	
14.395	-0.002	0.036	
14.400	0.200	0.025	
14.405	-0.060	0.031	
14.410	-0.098	0.027	
14.415	0.148	0.015	
14.420	-0.008	0.015	
14.425	-0.148	0.012	
14.430	0.026	-0.005	
14.435	0.032	-0.015	
14.440	-0.192	-0.022	
14.445	-0.133	-0.044	
14.450	0.008	-0.067	
14.455	-0.182	-0.080	
14.460	-0.212	-0.098	
14.465	-0.020	-0.117	
14.470	-0.110	-0.122	
14.475	-0.223	-0.123	
14.480	-0.041	-0.128	
14.485	-0.017	-0.122	
14.490	-0.252	-0.112	
14.495	-0.200	-0.119	
14.500	-0.035	-0.132	
14.505	-0.095	-0.131	
14.510	0.128	-0.111	
14.515	0.759	-0.038	
14.520	0.808	0.118	
14.525	0.581	0.309	
14.530	0.581	0.464	
14.535	0.290	0.548	
14.540	-0.166	0.534	
14.545	-0.160	0.419	
14.550	-0.035	0.262	
14.555	-0.174	0.117	
14.560	-0.137	0.000	
14.565	0.210	-0.068	
14.570	0.157	-0.069	
14.575	-0.006	-0.033	
14.580	0.308	0.012	
14.585	0.421	0.079	
14.590	0.142	0.157	
14.595	0.265	0.211	
14.600	0.450	0.251	
14.605	0.187	0.286	
14.610	0.172	0.297	
14.615	0.521	0.296	
14.620	0.375	0.314	
14.625	0.146	0.331	
14.630	0.425	0.328	
14.635	0.459	0.333	
14.640	0.203	0.346	
14.645	0.393	0.346	
14.650	0.585	0.355	
14.655	0.268	0.378	
14.660	0.218	0.382	
14.665	0.462	0.367	
14.670	0.277	0.357	
14.675	0.029	0.335	
14.680	0.258	0.289	
14.685	0.245	0.250	
14.690	-0.066	0.216	
14.695	0.033	0.166	
14.700	0.180	0.119	
14.705	-0.073	0.089	
14.710	-0.092	0.055	
14.715	0.142	0.023	
14.720	-0.020	0.011	
14.725	-0.153	0.000	
14.730	0.055	-0.017	
14.735	0.090	-0.020	
14.740	-0.128	-0.013	
14.745	-0.015	-0.016	
14.750	0.198	-0.012	
14.755	-0.046	0.007	
14.760	-0.076	0.017	
14.765	0.172	0.017	
14.770	0.014	0.027	
14.775	-0.130	0.030	
14.780	0.067	0.018	
14.785	0.073	0.012	
14.790	-0.160	0.010	
14.795	-0.087	-0.009	
14.800	0.058	-0.029	
14.805	-0.163	-0.040	
14.810	-0.191	-0.059	
14.815	0.009	-0.082	
14.820	-0.111	-0.092	
14.825	-0.215	-0.099	
14.830	-0.064	-0.112	
14.835	-0.056	-0.117	
14.840	-0.258	-0.117	
14.845	-0.185	-0.131	
14.850	0.023	-0.141	
14.855	0.008	-0.126	
14.860	0.323	-0.079	
14.865	0.808	0.026	
14.870	0.602	0.190	
14.875	0.142	0.335	
14.880	0.087	0.390	
14.885	-0.085	0.355	
14.890	-0.320	0.254	
14.895	-0.250	0.112	
14.900	-0.131	-0.022	
14.905	-0.246	-0.119	
14.910	-0.233	-0.184	
14.915	-0.014	-0.216	
14.920	-0.089	-0.208	
14.925	-0.182	-0.182	
14.930	0.037	-0.156	
14.935	0.093	-0.114	
14.940	-0.122	-0.068	
14.945	0.001	-0.040	
14.950	0.236	-0.013	
14.955	-0.011	0.024	
14.960	-0.027	0.046	
14.965	0.279	0.058	
14.970	0.163	0.086	
14.975	0.015	0.112	
14.980	0.300	0.127	
14.985	0.358	0.156	
14.990	0.101	0.193	
14.995	0.287	0.214	
15.000	0.503	0.240	
15.005	0.230	0.278	
15.010	0.178	0.298	
15.015	0.415	0.300	
15.020	0.207	0.301	
15.025	-0.037	0.283	
15.030	0.181	0.236	
15.035	0.165	0.192	
15.040	-0.110	0.154	
15.045	-0.032	0.102	
15.050	0.122	0.056	
15.055	-0.131	0.026	
15.060	-0.157	-0.007	
15.065	0.058	-0.040	
15.070	-0.079	-0.054	
15.075	-0.197	-0.065	
15.080	-0.011	-0.081	
15.085	0.040	-0.082	
15.090	-0.166	-0.072	
15.095	-0.064	-0.070	
15.100	0.110	-0.065	
15.105	-0.113	-0.048	
15.110	-0.133	-0.043	
15.115	0.087	-0.046	
15.120	-0.064	-0.040	
15.125	-0.198	-0.040	
15.130	-0.053	-0.057	
15.135	-0.064	-0.072	
15.140	-0.249	-0.086	
15.145	-0.165	-0.110	
15.150	-0.066	-0.132	
15.155	-0.236	-0.142	
15.160	-0.252	-0.158	
15.165	-0.084	-0.174	
15.170	-0.160	-0.177	
15.175	-0.268	-0.177	
15.180	-0.131	-0.182	
15.185	-0.148	-0.183	
15.190	-0.313	-0.183	
15.195	-0.192	-0.194	
15.200	0.093	-0.192	
15.205	0.133	-0.149	
15.210	0.349	-0.068	
15.215	0.634	0.052	
15.220	0.279	0.189	
15.225	-0.180	0.268	
15.230	-0.183	0.245	
15.235	-0.258	0.152	
15.240	-0.427	0.026	
15.245	-0.320	-0.107	
15.250	-0.169	-0.210	
15.255	-0.271	-0.264	
15.260	-0.244	-0.286	
15.265	-0.035	-0.281	
15.270	-0.108	-0.246	
15.275	-0.207	-0.205	
15.280	-0.015	-0.171	
15.285	0.037	-0.133	
15.290	-0.154	-0.094	
15.295	-0.038	-0.071	
15.300	0.166	-0.050	
15.305	-0.066	-0.020	
15.310	-0.069	-0.003	
15.315	0.233	0.007	
15.320	0.126	0.035	
15.325	-0.017	0.064	
15.330	0.312	0.085	
15.335	0.415	0.127	
15.340	0.180	0.185	
15.345	0.370	0.232	
15.350	0.558	0.281	
15.355	0.250	0.333	
15.360	0.166	0.354	
15.365	0.395	0.344	
15.370	0.180	0.328	
15.375	-0.049	0.292	
15.380	0.160	0.232	
15.385	0.108	0.177	
15.390	-0.160	0.127	
15.395	-0.096	0.065	
15.400	0.029	0.008	
15.405	-0.168	-0.032	
15.410	-0.186	-0.068	
15.415	0.011	-0.097	
15.420	-0.108	-0.107	
15.425	-0.223	-0.111	
15.430	-0.049	-0.121	
15.435	-0.038	-0.120	
15.440	-0.215	-0.113	
15.445	-0.128	-0.116	
15.450	-0.018	-0.119	
15.455	-0.209	-0.116	
15.460	-0.238	-0.124	
15.465	-0.075	-0.140	
15.470	-0.186	-0.149	
15.475	-0.313	-0.160	
15.480	-0.185	-0.183	
15.485	-0.195	-0.200	
15.490	-0.363	-0.215	
15.495	-0.290	-0.239	
15.500	-0.194	-0.259	
15.505	-0.340	-0.268	
15.510	-0.349	-0.279	
15.515	-0.198	-0.290	
15.520	-0.271	-0.289	
15.525	-0.375	-0.287	
15.530	-0.246	-0.291	
15.535	-0.250	-0.291	
15.540	-0.384	-0.289	
15.545	-0.236	-0.293	
15.550	0.087	-0.276	
15.555	0.195	-0.211	
15.560	0.404	-0.099	
15.565	0.668	0.051	
15.570	0.232	0.206	
15.575	-0.253	0.285	
15.580	-0.285	0.246	
15.585	-0.363	0.126	
15.590	-0.520	-0.027	
15.595	-0.403	-0.180	
15.600	-0.247	-0.295	
15.605	-0.332	-0.354	
15.610	-0.302	-0.373	
15.615	-0.101	-0.362	
15.620	-0.156	-0.320	
15.625	-0.230	-0.270	
15.630	-0.023	-0.225	
15.635	0.043	-0.172	
15.640	-0.142	-0.118	
15.645	-0.009	-0.081	
15.650	0.181	-0.047	
15.655	-0.064	-0.008	
15.660	-0.055	0.012	
15.665	0.265	0.024	
15.670	0.177	0.056	
15.675	0.050	0.092	
15.680	0.399	0.124	
15.685	0.472	0.178	
15.690	0.224	0.244	
15.695	0.404	0.292	
15.700	0.593	0.337	
15.705	0.288	0.384	
15.710	0.226	0.400	
15.715	0.471	0.390	
15.720	0.255	0.379	
15.725	0.008	0.349	
15.730	0.227	0.293	
15.735	0.184	0.241	
15.740	-0.122	0.193	
15.745	-0.058	0.128	
15.750	0.084	0.066	
15.755	-0.134	0.022	
15.760	-0.148	-0.019	
15.765	0.072	-0.053	
15.770	-0.055	-0.062	
15.775	-0.174	-0.065	
15.780	0.015	-0.072	
15.785	0.075	-0.066	
15.790	-0.139	-0.049	
15.795	-0.041	-0.043	
15.800	0.113	-0.037	
15.805	-0.122	-0.025	
15.810	-0.142	-0.027	
15.815	0.068	-0.038	
15.820	-0.085	-0.041	
15.825	-0.221	-0.050	
15.830	-0.075	-0.073	
15.835	-0.090	-0.092	
15.840	-0.265	-0.108	
15.845	-0.192	-0.134	
15.850	-0.085	-0.156	
15.855	-0.246	-0.166	
15.860	-0.258	-0.179	
15.865	-0.082	-0.191	
15.870	-0.166	-0.189	
15.875	-0.285	-0.185	
15.880	-0.178	-0.192	
15.885	-0.188	-0.198	
15.890	-0.311	-0.204	
15.895	-0.096	-0.211	
15.900	0.477	-0.177	
15.905	0.668	-0.057	
15.910	0.838	0.135	
15.915	1.003	0.358	
15.920	0.341	0.549	
15.925	-0.247	0.608	
15.930	-0.273	0.505	
15.935	-0.339	0.309	
15.940	-0.476	0.090	
15.945	-0.335	-0.109	
15.950	-0.174	-0.248	
15.955	-0.268	-0.315	
15.960	-0.236	-0.333	
15.965	-0.029	-0.316	
15.970	-0.111	-0.268	
15.975	-0.203	-0.216	
15.980	0.000	-0.174	
15.985	0.052	-0.129	
15.990	-0.142	-0.084	
15.995	0.000	-0.058	
16.000	0.227	-0.030	
16.005	-0.009	0.010	
16.010	0.015	0.038	
16.015	0.343	0.061	
16.020	0.242	0.105	
16.025	0.125	0.151	
16.030	0.501	0.192	
16.035	0.604	0.256	
16.040	0.352	0.336	
16.045	0.517	0.397	
16.050	0.694	0.450	
16.055	0.363	0.497	
16.060	0.274	0.507	
16.065	0.488	0.483	
16.070	0.245	0.451	
16.075	-0.021	0.396	
16.080	0.186	0.314	
16.085	0.140	0.238	
16.090	-0.142	0.172	
16.095	-0.069	0.098	
16.100	0.062	0.033	
16.105	-0.148	-0.009	
16.110	-0.168	-0.046	
16.115	0.024	-0.077	
16.120	-0.108	-0.089	
16.125	-0.223	-0.097	
16.130	-0.052	-0.111	
16.135	-0.026	-0.114	
16.140	-0.203	-0.108	
16.145	-0.111	-0.111	
16.150	0.003	-0.111	
16.155	-0.200	-0.105	
16.160	-0.220	-0.111	
16.165	-0.058	-0.125	
16.170	-0.175	-0.133	
16.175	-0.285	-0.144	
16.180	-0.154	-0.165	
16.185	-0.168	-0.179	
16.190	-0.339	-0.192	
16.195	-0.267	-0.214	
16.200	-0.180	-0.234	
16.205	-0.328	-0.244	
16.210	-0.337	-0.259	
16.215	-0.183	-0.273	
16.220	-0.268	-0.274	
16.225	-0.393	-0.275	
16.230	-0.290	-0.287	
16.235	-0.277	-0.298	
16.240	-0.357	-0.304	
16.245	-0.092	-0.300	
16.250	0.610	-0.240	
16.255	0.837	-0.075	
16.260	0.931	0.168	
16.265	0.941	0.424	
16.270	0.168	0.610	
16.275	-0.335	0.632	
16.280	-0.369	0.486	
16.285	-0.424	0.255	
16.290	-0.544	0.014	
16.295	-0.401	-0.196	
16.300	-0.242	-0.336	
16.305	-0.335	-0.400	
16.310	-0.306	-0.413	
16.315	-0.120	-0.393	
16.320	-0.182	-0.344	
16.325	-0.255	-0.291	
16.330	-0.060	-0.245	
16.335	0.004	-0.195	
16.340	-0.168	-0.144	
16.345	-0.023	-0.109	
16.350	0.229	-0.071	
16.355	-0.037	-0.021	
16.360	-0.034	0.013	
16.365	0.319	0.038	
16.370	0.215	0.080	
16.375	0.043	0.123	
16.380	0.358	0.152	
16.385	0.402	0.191	
16.390	0.113	0.234	
16.395	0.265	0.254	
16.400	0.395	0.264	
16.405	0.030	0.271	
16.410	-0.031	0.243	
16.415	0.203	0.193	
16.420	-0.002	0.150	
16.425	-0.146	0.103	
16.430	-0.142	0.041	
16.435	-0.506	-0.040	
16.440	-0.928	-0.169	
16.445	-0.994	-0.356	
16.450	-0.996	-0.563	
16.455	-0.996	-0.744	
16.460	-0.996	-0.880	
16.465	-0.996	-0.968	
16.470	-0.994	-1.016	
16.475	-0.996	-1.036	
16.480	-0.866	-1.032	
16.485	-0.544	-0.991	
16.490	-0.404	-0.896	
16.495	-0.156	-0.754	
16.500	0.163	-0.571	
16.505	0.001	-0.367	
16.510	-0.023	-0.193	
16.515	0.218	-0.063	
16.520	0.079	0.035	
16.525	-0.130	0.088	
16.530	-0.061	0.087	
16.535	-0.175	0.050	
16.540	-0.392	-0.014	
16.545	-0.355	-0.104	
16.550	-0.273	-0.192	
16.555	-0.421	-0.261	
16.560	-0.444	-0.319	
16.565	-0.281	-0.362	
16.570	-0.340	-0.378	
16.575	-0.453	-0.381	
16.580	-0.352	-0.387	
16.585	-0.354	-0.387	
16.590	-0.316	-0.380	
16.595	0.532	-0.327	
16.600	1.663	-0.129	
16.605	1.971	0.261	
16.610	2.052	0.758	
16.615	2.009	1.235	
16.620	1.348	1.584	
16.625	0.748	1.715	
16.630	0.724	1.628	
16.635	0.630	1.415	
16.640	0.384	1.158	
16.645	0.602	0.910	
16.650	0.797	0.731	
16.655	0.529	0.633	
16.660	0.498	0.577	
16.665	0.848	0.552	
16.670	0.695	0.572	
16.675	0.456	0.600	
16.680	0.701	0.609	
16.685	0.738	0.622	
16.690	0.416	0.632	
16.695	0.547	0.619	
16.700	0.784	0.604	
16.705	0.526	0.607	
16.710	0.506	0.604	
16.715	0.861	0.602	
16.720	0.761	0.628	
16.725	0.604	0.663	
16.730	0.877	0.688	
16.735	0.916	0.725	
16.740	0.633	0.764	
16.745	0.745	0.777	
16.750	0.892	0.779	
16.755	0.309	0.767	
16.760	-0.473	0.668	
16.765	-0.994	0.420	
16.770	-0.996	0.062	
16.775	-0.996	-0.310	
16.780	-0.997	-0.619	
16.785	-0.997	-0.841	
16.790	-0.996	-0.979	
16.795	-0.997	-1.050	
16.800	-0.997	-1.075	
16.805	-0.997	-1.073	
16.810	-0.997	-1.058	
16.815	-0.997	-1.039	
16.820	-0.997	-1.022	
16.825	-0.996	-1.009	
16.830	-0.997	-1.001	
16.835	-0.997	-0.995	
16.840	-0.997	-0.993	
16.845	-0.996	-0.993	
16.850	-0.996	-0.993	
16.855	-0.996	-0.994	
16.860	-0.996	-0.994	
16.865	-0.852	-0.988	
16.870	-0.828	-0.966	
16.875	-0.836	-0.931	
16.880	-0.634	-0.886	
16.885	-0.547	-0.823	
16.890	-0.610	-0.748	
16.895	-0.459	-0.676	
16.900	-0.305	-0.600	
16.905	-0.374	-0.519	
16.910	-0.328	-0.447	
16.915	-0.104	-0.381	
16.920	-0.162	-0.311	
16.925	-0.267	-0.251	
16.930	-0.087	-0.211	
16.935	0.004	-0.173	
16.940	-0.134	-0.132	
16.945	0.224	-0.089	
16.950	0.713	-0.004	
16.955	0.553	0.140	
16.960	0.369	0.286	
16.965	0.224	0.375	
16.970	-0.320	0.372	
16.975	-0.646	0.253	
16.980	-0.653	0.044	
16.985	-0.686	-0.189	
16.990	-0.781	-0.398	
16.995	-0.627	-0.560	
17.000	-0.441	-0.651	
17.005	-0.450	-0.665	
17.010	-0.276	-0.624	
17.015	0.329	-0.520	
17.020	0.617	-0.327	
17.025	0.886	-0.058	
17.030	1.626	0.270	
17.035	2.457	0.686	
17.040	3.069	1.207	
17.045	3.055	1.778	
17.050	3.046	2.295	
17.055	3.043	2.688	
17.060	3.041	2.947	
17.065	3.040	3.091	
17.070	3.046	3.153	
17.075	3.053	3.164	
17.080	3.053	3.149	
17.085	3.055	3.123	
17.090	3.063	3.099	
17.095	3.061	3.080	
17.100	3.063	3.067	
17.105	3.066	3.060	
17.110	3.070	3.058	
17.115	3.069	3.058	
17.120	3.070	3.061	
17.125	1.771	3.004	
17.130	0.610	2.755	
17.135	-0.233	2.251	
17.140	-0.733	1.561	
17.145	-0.837	0.816	
17.150	-0.898	0.147	
17.155	-0.996	-0.377	
17.160	-0.994	-0.744	
17.165	-0.791	-0.961	
17.170	-0.771	-1.045	
17.175	-0.784	-1.038	
17.180	-0.438	-0.970	
17.185	-0.328	-0.850	
17.190	-0.491	-0.707	
17.195	-0.436	-0.587	
17.200	-0.337	-0.498	
17.205	-0.512	-0.437	
17.210	-0.503	-0.412	
17.215	-0.326	-0.409	
17.220	-0.366	-0.403	
17.225	-0.332	-0.389	
17.230	0.120	-0.353	
17.235	0.686	-0.242	
17.240	0.971	-0.030	
17.245	1.841	0.287	
17.250	2.433	0.716	
17.255	2.247	1.208	
17.260	2.540	1.664	
17.265	3.072	2.061	
17.270	3.073	2.418	
17.275	3.047	2.713	
17.280	3.072	2.923	
17.285	3.072	3.052	
17.290	2.874	3.110	
17.295	3.072	3.113	
17.300	3.072	3.098	
17.305	2.800	3.073	
17.310	2.494	3.009	
17.315	2.284	2.887	
17.320	1.256	2.678	
17.325	0.297	2.316	
17.330	-0.052	1.793	
17.335	-0.337	1.199	
17.340	-0.662	0.621	
17.345	-0.592	0.119	
17.350	-0.494	-0.258	
17.355	-0.668	-0.500	
17.360	-0.764	-0.646	
17.365	-0.657	-0.730	
17.370	-0.718	-0.766	
17.375	-0.811	-0.776	
17.380	-0.685	-0.777	
17.385	-0.634	-0.764	
17.390	-0.677	-0.738	
17.395	-0.518	-0.705	
17.400	-0.416	-0.657	
17.405	-0.467	-0.596	
17.410	-0.470	-0.540	
17.415	-0.361	-0.494	
17.420	-0.438	-0.456	
17.425	-0.505	-0.433	
17.430	-0.305	-0.423	
17.435	-0.265	-0.403	
17.440	-0.386	-0.376	
17.445	-0.311	-0.355	
17.450	-0.210	-0.336	
17.455	-0.374	-0.315	
17.460	-0.323	-0.306	
17.465	-0.143	-0.299	
17.470	-0.244	-0.279	
17.475	-0.314	-0.262	
17.480	-0.108	-0.250	
17.485	-0.212	-0.233	
17.490	-0.438	-0.226	
17.495	-0.383	-0.249	
17.500	-0.311	-0.284	
17.505	-0.465	-0.316	
17.510	-0.383	-0.349	
17.515	-0.183	-0.366	
17.520	-0.195	-0.350	
17.525	-0.357	-0.321	
17.530	-0.159	-0.296	
17.535	0.001	-0.261	
17.540	-0.265	-0.214	
17.545	-0.261	-0.189	
17.550	-0.218	-0.187	
17.555	-0.352	-0.201	
17.560	-0.357	-0.229	
17.565	-0.229	-0.261	
17.570	-0.303	-0.280	
17.575	-0.413	-0.295	
17.580	-0.268	-0.313	
17.585	-0.252	-0.319	
17.590	-0.398	-0.317	
17.595	-0.398	-0.325	
17.600	-0.646	-0.353	
17.605	-0.996	-0.426	
17.610	-0.996	-0.551	
17.615	-0.996	-0.694	
17.620	-0.996	-0.820	
17.625	-0.997	-0.915	
17.630	-0.997	-0.976	
17.635	-0.997	-1.010	
17.640	-0.996	-1.025	
17.645	-0.996	-1.026	
17.650	-0.996	-1.022	
17.655	-0.996	-1.014	
17.660	-0.922	-1.004	
17.665	-0.714	-0.978	
17.670	-0.875	-0.933	
17.675	-0.994	-0.898	
17.680	-0.846	-0.887	
17.685	-0.698	-0.873	
17.690	-0.668	-0.840	
17.695	-0.447	-0.783	
17.700	-0.204	-0.692	
17.705	-0.294	-0.573	
17.710	-0.157	-0.452	
17.715	0.366	-0.320	
17.720	0.232	-0.159	
17.725	-0.014	-0.013	
17.730	0.392	0.089	
17.735	0.439	0.178	
17.740	0.070	0.251	
17.745	0.238	0.278	
17.750	0.666	0.296	
17.755	0.477	0.345	
17.760	0.599	0.407	
17.765	1.049	0.489	
17.770	1.034	0.611	
17.775	1.015	0.748	
17.780	1.668	0.896	
17.785	2.399	1.115	
17.790	3.070	1.457	
17.795	3.061	1.891	
17.800	3.052	2.321	
17.805	3.052	2.667	
17.810	3.053	2.909	
17.815	3.055	3.054	
17.820	3.061	3.126	
17.825	3.066	3.149	
17.830	3.066	3.145	
17.835	3.069	3.129	
17.840	3.075	3.109	
17.845	3.072	3.093	
17.850	3.073	3.082	
17.855	2.701	3.057	
17.860	2.451	2.985	
17.865	2.546	2.867	
17.870	2.233	2.731	
17.875	1.884	2.570	
17.880	1.974	2.385	
17.885	1.893	2.210	
17.890	1.479	2.050	
17.895	1.517	1.887	
17.900	1.602	1.741	
17.905	1.219	1.622	
17.910	0.684	1.482	
17.915	-0.444	1.238	
17.920	-0.993	0.835	
17.925	-0.997	0.325	
17.930	-0.997	-0.170	
17.935	-0.997	-0.566	
17.940	-0.997	-0.840	
17.945	-0.997	-1.004	
17.950	-0.997	-1.083	
17.955	-0.997	-1.106	
17.960	-0.997	-1.098	
17.965	-0.997	-1.075	
17.970	-0.997	-1.049	
17.975	-0.997	-1.027	
17.980	-0.997	-1.011	
17.985	-0.997	-1.000	
17.990	-0.997	-0.994	
17.995	-0.997	-0.992	
18.000	-0.997	-0.992	
18.005	-0.996	-0.993	
18.010	-0.996	-0.994	
18.015	-0.996	-0.994	
18.020	-0.996	-0.995	
18.025	-0.996	-0.996	
18.030	-0.996	-0.996	
18.035	-0.996	-0.996	
18.040	-0.996	-0.996	
18.045	-0.996	-0.996	
18.050	-0.994	-0.996	
18.055	-0.994	-0.995	
18.060	-0.996	-0.995	
18.065	-0.832	-0.987	
18.070	-0.896	-0.966	
18.075	-0.994	-0.944	
18.080	-0.996	-0.938	
18.085	-0.997	-0.945	
18.090	-0.997	-0.959	
18.095	-0.996	-0.972	
18.100	-0.996	-0.983	
18.105	-0.997	-0.991	
18.110	-0.997	-0.996	
18.115	-0.996	-0.998	
18.120	-0.996	-0.999	
18.125	-0.996	-0.999	
18.130	-0.996	-0.998	
18.135	-0.960	-0.996	
18.140	-0.959	-0.990	
18.145	-0.738	-0.971	
18.150	-0.526	-0.919	
18.155	-0.563	-0.832	
18.160	-0.467	-0.734	
18.165	-0.206	-0.629	
18.170	-0.238	-0.512	
18.175	-0.279	-0.405	
18.180	0.050	-0.312	
18.185	0.143	-0.210	
18.190	-0.098	-0.110	
18.195	0.123	-0.038	
18.200	0.364	0.029	
18.205	0.093	0.100	
18.210	0.084	0.145	
18.215	0.418	0.172	
18.220	0.265	0.208	
18.225	0.120	0.237	
18.230	0.512	0.254	
18.235	0.619	0.297	
18.240	0.389	0.362	
18.245	0.651	0.422	
18.250	0.930	0.494	
18.255	0.729	0.588	
18.260	0.866	0.676	
18.265	1.393	0.772	
18.270	1.495	0.914	
18.275	1.659	1.094	
18.280	2.421	1.315	
18.285	2.903	1.614	
18.290	2.936	1.979	
18.295	3.073	2.339	
18.300	3.070	2.646	
18.305	3.069	2.875	
18.310	3.070	3.023	
18.315	3.067	3.105	
18.320	3.069	3.138	
18.325	3.072	3.142	
18.330	3.072	3.131	
18.335	3.072	3.114	
18.340	3.075	3.098	
18.345	3.070	3.086	
18.350	3.066	3.077	
18.355	3.066	3.071	
18.360	3.067	3.067	
18.365	3.066	3.065	
18.370	3.073	3.064	
18.375	2.389	3.034	
18.380	2.288	2.927	
18.385	2.105	2.752	
18.390	1.750	2.539	
18.395	1.994	2.317	
18.400	2.375	2.154	
18.405	2.309	2.094	
18.410	2.541	2.118	
18.415	3.073	2.222	
18.420	3.072	2.405	
18.425	3.070	2.619	
18.430	3.066	2.807	
18.435	3.063	2.947	
18.440	3.066	3.038	
18.445	3.063	3.087	
18.450	3.058	3.107	
18.455	3.060	3.108	
18.460	3.060	3.099	
18.465	3.053	3.088	
18.470	3.055	3.076	
18.475	3.058	3.066	
18.480	3.056	3.060	
18.485	3.056	3.056	
18.490	3.060	3.054	
18.495	3.061	3.055	
18.500	3.061	3.056	
18.505	3.067	3.058	
18.510	3.069	3.060	
18.515	3.069	3.063	
18.520	3.040	3.064	
18.525	2.552	3.039	
18.530	2.604	2.961	
18.535	2.424	2.847	
18.540	1.887	2.696	
18.545	1.828	2.494	
18.550	1.886	2.278	
18.555	1.538	2.080	
18.560	1.390	1.892	
18.565	1.625	1.725	
18.570	1.457	1.605	
18.575	1.273	1.519	
18.580	1.811	1.464	
18.585	2.636	1.514	
18.590	3.069	1.728	
18.595	3.058	2.060	
18.600	3.050	2.408	
18.605	3.053	2.698	
18.610	3.053	2.906	
18.615	3.053	3.035	
18.620	3.056	3.103	
18.625	3.061	3.127	
18.630	3.061	3.127	
18.635	3.064	3.115	
18.640	3.070	3.100	
18.645	3.070	3.086	
18.650	3.024	3.075	
18.655	2.553	3.040	
18.660	2.296	2.943	
18.665	2.406	2.793	
18.670	2.123	2.630	
18.675	1.686	2.449	
18.680	1.663	2.238	
18.685	1.527	2.023	
18.690	1.166	1.816	
18.695	1.314	1.617	
18.700	1.663	1.473	
18.705	1.558	1.416	
18.710	1.357	1.410	
18.715	1.287	1.403	
18.720	0.662	1.353	
18.725	0.037	1.200	
18.730	-0.040	0.936	
18.735	-0.131	0.625	
18.740	-0.310	0.329	
18.745	-0.230	0.077	
18.750	-0.111	-0.102	
18.755	-0.249	-0.203	
18.760	-0.296	-0.257	
18.765	-0.157	-0.282	
18.770	-0.229	-0.281	
18.775	-0.357	-0.274	
18.780	-0.271	-0.275	
18.785	-0.250	-0.279	
18.790	-0.410	-0.283	
18.795	-0.372	-0.300	
18.800	-0.288	-0.319	
18.805	-0.424	-0.333	
18.810	-0.451	-0.352	
18.815	-0.320	-0.372	
18.820	-0.367	-0.381	
18.825	-0.436	-0.383	
18.830	-0.314	-0.386	
18.835	-0.293	-0.378	
18.840	-0.438	-0.366	
18.845	-0.401	-0.365	
18.850	-0.325	-0.370	
18.855	-0.470	-0.374	
18.860	-0.534	-0.390	
18.865	-0.451	-0.417	
18.870	-0.555	-0.446	
18.875	-0.681	-0.481	
18.880	-0.599	-0.526	
18.885	-0.605	-0.565	
18.890	-0.746	-0.598	
18.895	-0.709	-0.634	
18.900	-0.621	-0.662	
18.905	-0.726	-0.678	
18.910	-0.779	-0.692	
18.915	-0.678	-0.708	
18.920	-0.744	-0.718	
18.925	-0.851	-0.730	
18.930	-0.738	-0.747	
18.935	-0.712	-0.759	
18.940	-0.828	-0.762	
18.945	-0.770	-0.768	
18.950	-0.677	-0.769	
18.955	-0.784	-0.762	
18.960	-0.808	-0.759	
18.965	-0.681	-0.759	
18.970	-0.749	-0.754	
18.975	-0.855	-0.752	
18.980	-0.750	-0.761	
18.985	-0.709	-0.766	
18.990	-0.846	-0.766	
18.995	-0.816	-0.773	
19.000	-0.736	-0.782	
19.005	-0.849	-0.787	
19.010	-0.869	-0.797	
19.015	-0.721	-0.807	
19.020	-0.771	-0.805	
19.025	-0.892	-0.802	
19.030	-0.797	-0.806	
19.035	-0.750	-0.809	
19.040	-0.825	-0.805	
19.045	-0.660	-0.796	
19.050	-0.386	-0.761	
19.055	-0.357	-0.686	
19.060	-0.392	-0.591	
19.065	-0.355	-0.505	
19.070	-0.582	-0.447	
19.075	-0.831	-0.444	
19.080	-0.802	-0.501	
19.085	-0.797	-0.586	
19.090	-0.903	-0.672	
19.095	-0.819	-0.748	
19.100	-0.674	-0.796	
19.105	-0.735	-0.806	
19.110	-0.721	-0.795	
19.115	-0.564	-0.769	
19.120	-0.587	-0.727	
19.125	-0.656	-0.682	
19.130	-0.529	-0.647	
19.135	-0.488	-0.611	
19.140	-0.607	-0.578	
19.145	-0.543	-0.559	
19.150	-0.430	-0.544	
19.155	-0.526	-0.526	
19.160	-0.532	-0.512	
19.165	-0.354	-0.501	
19.170	-0.381	-0.478	
19.175	-0.457	-0.451	
19.180	-0.310	-0.428	
19.185	-0.249	-0.399	
19.190	-0.363	-0.365	
19.195	-0.328	-0.341	
19.200	-0.244	-0.325	
19.205	-0.380	-0.312	
19.210	-0.435	-0.314	
19.215	-0.331	-0.330	
19.220	-0.413	-0.347	
19.225	-0.529	-0.369	
19.230	-0.428	-0.399	
19.235	-0.418	-0.424	
19.240	-0.584	-0.443	
19.245	-0.569	-0.470	
19.250	-0.502	-0.499	
19.255	-0.646	-0.524	
19.260	-0.701	-0.554	
19.265	-0.598	-0.589	
19.270	-0.645	-0.615	
19.275	-0.746	-0.635	
19.280	-0.622	-0.656	
19.285	-0.581	-0.663	
19.290	-0.698	-0.659	
19.295	-0.645	-0.656	
19.300	-0.549	-0.651	
19.305	-0.639	-0.638	
19.310	-0.678	-0.630	
19.315	-0.558	-0.627	
19.320	-0.614	-0.621	
19.325	-0.714	-0.619	
19.330	-0.613	-0.626	
19.335	-0.604	-0.631	
19.340	-0.741	-0.636	
19.345	-0.704	-0.649	
19.350	-0.599	-0.663	
19.355	-0.704	-0.668	
19.360	-0.736	-0.673	
19.365	-0.593	-0.680	
19.370	-0.625	-0.675	
19.375	-0.727	-0.667	
19.380	-0.622	-0.664	
19.385	-0.570	-0.658	
19.390	-0.648	-0.644	
19.395	-0.483	-0.627	
19.400	-0.340	-0.593	
19.405	-0.768	-0.556	
19.410	-0.994	-0.568	
19.415	-0.996	-0.642	
19.420	-0.996	-0.743	
19.425	-0.996	-0.840	
19.430	-0.996	-0.916	
19.435	-0.996	-0.968	
19.440	-0.996	-0.999	
19.445	-0.996	-1.013	
19.450	-0.996	-1.017	
19.455	-0.994	-1.015	
19.460	-0.996	-1.010	
19.465	-0.939	-1.002	
19.470	-0.793	-0.983	
19.475	-0.735	-0.942	
19.480	-0.502	-0.876	
19.485	-0.381	-0.779	
19.490	-0.447	-0.667	
19.495	-0.342	-0.563	
19.500	-0.195	-0.469	
19.505	-0.291	-0.384	
19.510	-0.302	-0.321	
19.515	-0.110	-0.277	
19.520	-0.124	-0.234	
19.525	-0.200	-0.195	
19.530	0.020	-0.164	
19.535	0.136	-0.119	
19.540	-0.098	-0.066	
19.545	-0.027	-0.032	
19.550	0.111	-0.011	
19.555	-0.168	0.002	
19.560	-0.279	-0.015	
19.565	-0.188	-0.062	
19.570	-0.277	-0.117	
19.575	-0.399	-0.175	
19.580	-0.277	-0.234	
19.585	-0.241	-0.275	
19.590	-0.386	-0.297	
19.595	-0.334	-0.315	
19.600	-0.218	-0.325	
19.605	-0.328	-0.320	
19.610	-0.346	-0.315	
19.615	-0.178	-0.310	
19.620	-0.207	-0.292	
19.625	-0.264	-0.269	
19.630	-0.101	-0.246	
19.635	-0.032	-0.213	
19.640	-0.201	-0.174	
19.645	-0.133	-0.149	
19.650	0.004	-0.130	
19.655	-0.178	-0.111	
19.660	-0.236	-0.108	
19.665	-0.098	-0.122	
19.670	-0.185	-0.134	
19.675	-0.316	-0.152	
19.680	-0.206	-0.179	
19.685	-0.195	-0.202	
19.690	-0.363	-0.221	
19.695	-0.349	-0.248	
19.700	-0.299	-0.278	
19.705	-0.451	-0.306	
19.710	-0.489	-0.341	
19.715	-0.332	-0.377	
19.720	-0.363	-0.395	
19.725	-0.468	-0.401	
19.730	-0.358	-0.407	
19.735	-0.300	-0.403	
19.740	-0.378	-0.388	
19.745	-0.192	-0.367	
19.750	0.326	-0.309	
19.755	0.527	-0.178	
19.760	0.620	0.012	
19.765	0.753	0.219	
19.770	0.168	0.387	
19.775	-0.343	0.432	
19.780	-0.401	0.332	
19.785	-0.476	0.147	
19.790	-0.630	-0.063	
19.795	-0.553	-0.260	
19.800	-0.401	-0.407	
19.805	-0.468	-0.489	
19.810	-0.457	-0.522	
19.815	-0.291	-0.519	
19.820	-0.317	-0.484	
19.825	-0.396	-0.439	
19.830	-0.244	-0.398	
19.835	-0.183	-0.354	
19.840	-0.319	-0.310	
19.845	-0.239	-0.280	
19.850	-0.087	-0.254	
19.855	-0.204	-0.223	
19.860	-0.210	-0.199	
19.865	0.049	-0.177	
19.870	0.009	-0.139	
19.875	-0.142	-0.098	
19.880	0.018	-0.071	
19.885	-0.066	-0.053	
19.890	-0.325	-0.054	
19.895	-0.306	-0.092	
19.900	-0.229	-0.148	
19.905	-0.381	-0.200	
19.910	-0.427	-0.255	
19.915	-0.297	-0.305	
19.920	-0.372	-0.338	
19.925	-0.508	-0.363	
19.930	-0.399	-0.391	
19.935	-0.363	-0.410	
19.940	-0.502	-0.418	
19.945	-0.433	-0.428	
19.950	-0.354	-0.434	
19.955	-0.483	-0.431	
19.960	-0.497	-0.434	
19.965	-0.322	-0.439	
19.970	-0.345	-0.428	
19.975	-0.421	-0.410	
19.980	-0.258	-0.392	
19.985	-0.191	-0.363	
19.990	-0.316	-0.326	
19.995	-0.239	-0.296	
20.000	-0.098	-0.268	
20.005	-0.238	-0.236	
20.010	-0.273	-0.216	
20.015	-0.102	-0.207	
20.020	-0.171	-0.194	
20.025	-0.325	-0.188	
20.030	-0.268	-0.200	
20.035	-0.331	-0.224	
20.040	-0.550	-0.263	
20.045	-0.543	-0.325	
20.050	-0.464	-0.392	
20.055	-0.596	-0.448	
20.060	-0.630	-0.498	
20.065	-0.471	-0.538	
20.070	-0.503	-0.555	
20.075	-0.624	-0.557	
20.080	-0.547	-0.562	
20.085	-0.520	-0.563	
20.090	-0.587	-0.561	
20.095	-0.369	-0.551	
20.100	0.154	-0.499	
20.105	0.433	-0.364	
20.110	0.517	-0.159	
20.115	0.623	0.067	
20.120	-0.038	0.246	
20.125	-0.467	0.292	
20.130	-0.499	0.193	
20.135	-0.518	0.017	
20.140	-0.619	-0.172	
20.145	-0.494	-0.337	
20.150	-0.302	-0.444	
20.155	-0.348	-0.481	
20.160	-0.320	-0.472	
20.165	-0.092	-0.430	
20.170	-0.110	-0.358	
20.175	-0.210	-0.281	
20.180	0.032	-0.214	
20.185	0.171	-0.141	
20.190	-0.056	-0.064	
20.195	0.107	-0.007	
20.200	0.376	0.047	
20.205	0.190	0.113	
20.210	0.180	0.168	
20.215	0.543	0.215	
20.220	0.521	0.280	
20.225	0.404	0.353	
20.230	0.758	0.419	
20.235	0.875	0.504	
20.240	0.524	0.592	
20.245	0.553	0.641	
20.250	0.684	0.653	
20.255	0.344	0.643	
20.260	0.201	0.592	
20.265	0.447	0.513	
20.270	0.268	0.442	
20.275	-0.029	0.370	
20.280	0.174	0.284	
20.285	0.195	0.213	
20.290	-0.117	0.159	
20.295	-0.040	0.100	
20.300	0.194	0.052	
20.305	-0.024	0.034	
20.310	-0.060	0.023	
20.315	0.250	0.018	
20.320	0.161	0.040	
20.325	-0.029	0.069	
20.330	0.248	0.086	
20.335	0.337	0.116	
20.340	0.072	0.155	
20.345	0.201	0.177	
20.350	0.410	0.196	
20.355	0.161	0.224	
20.360	0.108	0.235	
20.365	0.436	0.235	
20.370	0.341	0.252	
20.375	0.116	0.271	
20.380	0.358	0.273	
20.385	0.412	0.281	
20.390	0.097	0.292	
20.395	0.201	0.281	
20.400	0.424	0.266	
20.405	0.178	0.266	
20.410	0.094	0.258	
20.415	0.412	0.242	
20.420	0.326	0.247	
20.425	0.065	0.256	
20.430	0.227	0.244	
20.435	0.215	0.228	
20.440	-0.026	0.207	
20.445	0.320	0.180	
20.450	0.977	0.208	
20.455	1.300	0.348	
20.460	1.543	0.588	
20.465	1.774	0.883	
20.470	1.194	1.154	
20.475	0.314	1.281	
20.480	0.081	1.195	
20.485	-0.085	0.950	
20.490	-0.290	0.637	
20.495	-0.182	0.326	
20.500	0.079	0.087	
20.505	-0.043	-0.050	
20.510	-0.024	-0.110	
20.515	0.323	-0.108	
20.520	0.262	-0.046	
20.525	0.065	0.035	
20.530	0.358	0.103	
20.535	0.466	0.175	
20.540	0.200	0.247	
20.545	0.343	0.292	
20.550	0.602	0.329	
20.555	0.384	0.376	
20.560	0.348	0.409	
20.565	0.698	0.431	
20.570	0.668	0.474	
20.575	0.511	0.525	
20.580	0.851	0.570	
20.585	1.012	0.636	
20.590	0.748	0.718	
20.595	0.860	0.781	
20.600	1.053	0.831	
20.605	0.751	0.873	
20.610	0.608	0.879	
20.615	0.838	0.849	
20.620	0.662	0.814	
20.625	0.338	0.761	
20.630	0.506	0.680	
20.635	0.508	0.601	
20.640	0.143	0.527	
20.645	0.200	0.440	
20.650	0.381	0.358	
20.655	0.099	0.301	
20.660	0.001	0.244	
20.665	0.287	0.189	
20.670	0.174	0.161	
20.675	-0.049	0.145	
20.680	0.209	0.124	
20.685	0.314	0.122	
20.690	0.044	0.139	
20.695	0.146	0.147	
20.700	0.334	0.155	
20.705	0.055	0.170	
20.710	-0.031	0.165	
20.715	0.236	0.143	
20.720	0.088	0.130	
20.725	-0.124	0.113	
20.730	0.035	0.078	
20.735	0.064	0.047	
20.740	-0.182	0.022	
20.745	-0.131	-0.014	
20.750	0.052	-0.047	
20.755	-0.130	-0.062	
20.760	-0.174	-0.076	
20.765	0.032	-0.089	
20.770	-0.056	-0.087	
20.775	-0.201	-0.083	
20.780	-0.079	-0.090	
20.785	-0.056	-0.096	
20.790	-0.229	-0.101	
20.795	-0.096	-0.113	
20.800	0.405	-0.099	
20.805	0.573	-0.014	
20.810	0.755	0.137	
20.815	1.037	0.329	
20.820	0.619	0.522	
20.825	-0.082	0.622	
20.830	-0.148	0.570	
20.835	-0.226	0.412	
20.840	-0.410	0.211	
20.845	-0.328	0.010	
20.850	-0.154	-0.147	
20.855	-0.226	-0.237	
20.860	-0.212	-0.275	
20.865	0.043	-0.271	
20.870	-0.002	-0.225	
20.875	-0.130	-0.165	
20.880	0.114	-0.112	
20.885	0.218	-0.050	
20.890	-0.066	0.011	
20.895	0.027	0.045	
20.900	0.299	0.067	
20.905	0.102	0.098	
20.910	0.035	0.121	
20.915	0.378	0.135	
20.920	0.319	0.168	
20.925	0.140	0.207	
20.930	0.471	0.237	
20.935	0.605	0.286	
20.940	0.349	0.351	
20.945	0.472	0.400	
20.950	0.712	0.443	
20.955	0.425	0.489	
20.960	0.288	0.507	
20.965	0.552	0.494	
20.970	0.390	0.479	
20.975	0.084	0.448	
20.980	0.280	0.389	
20.985	0.309	0.332	
20.990	-0.044	0.282	
20.995	0.027	0.217	
21.000	0.250	0.157	
21.005	-0.005	0.123	
21.010	-0.070	0.091	
21.015	0.186	0.060	
21.020	0.084	0.052	
21.025	-0.095	0.050	
21.030	0.120	0.041	
21.035	0.213	0.045	
21.040	-0.067	0.061	
21.045	0.024	0.063	
21.050	0.265	0.063	
21.055	0.014	0.078	
21.060	-0.060	0.082	
21.065	0.194	0.072	
21.070	0.050	0.072	
21.075	-0.133	0.066	
21.080	0.061	0.044	
21.085	0.140	0.031	
21.090	-0.128	0.028	
21.095	-0.069	0.014	
21.100	0.143	-0.002	
21.105	-0.076	-0.003	
21.110	-0.136	-0.009	
21.115	0.070	-0.024	
21.120	-0.026	-0.027	
21.125	-0.182	-0.032	
21.130	-0.047	-0.048	
21.135	-0.026	-0.061	
21.140	-0.226	-0.071	
21.145	-0.130	-0.091	
21.150	0.241	-0.095	
21.155	0.354	-0.047	
21.160	0.604	0.057	
21.165	0.983	0.215	
21.170	0.744	0.406	
21.175	0.140	0.545	
21.180	0.021	0.561	
21.185	-0.110	0.469	
21.190	-0.320	0.313	
21.195	-0.262	0.132	
21.200	-0.081	-0.024	
21.205	-0.186	-0.125	
21.210	-0.201	-0.181	
21.215	0.068	-0.200	
21.220	0.040	-0.173	
21.225	-0.108	-0.126	
21.230	0.099	-0.083	
21.235	0.213	-0.033	
21.240	-0.063	0.019	
21.245	0.027	0.047	
21.250	0.285	0.064	
21.255	0.070	0.092	
21.260	-0.006	0.108	
21.265	0.317	0.113	
21.270	0.271	0.136	
21.275	0.073	0.166	
21.280	0.383	0.186	
21.285	0.524	0.225	
21.290	0.235	0.279	
21.295	0.340	0.316	
21.300	0.570	0.344	
21.305	0.320	0.378	
21.310	0.198	0.389	
21.315	0.447	0.377	
21.320	0.300	0.365	
21.325	0.008	0.341	
21.330	0.174	0.289	
21.335	0.180	0.234	
21.340	-0.116	0.184	
21.345	-0.092	0.118	
21.350	0.064	0.053	
21.355	-0.159	0.006	
21.360	-0.226	-0.041	
21.365	-0.029	-0.085	
21.370	-0.089	-0.109	
21.375	-0.223	-0.120	
21.380	-0.075	-0.132	
21.385	0.021	-0.129	
21.390	-0.169	-0.113	
21.395	-0.111	-0.104	
21.400	0.081	-0.095	
21.405	-0.113	-0.076	
21.410	-0.174	-0.067	
21.415	0.024	-0.071	
21.420	-0.047	-0.067	
21.425	-0.182	-0.065	
21.430	-0.056	-0.073	
21.435	-0.012	-0.078	
21.440	-0.201	-0.079	
21.445	-0.171	-0.092	
21.450	-0.043	-0.108	
21.455	-0.204	-0.118	
21.460	-0.262	-0.133	
21.465	-0.098	-0.155	
21.470	-0.146	-0.165	
21.475	-0.285	-0.170	
21.480	-0.171	-0.182	
21.485	-0.153	-0.191	
21.490	-0.331	-0.197	
21.495	-0.264	-0.213	
21.500	-0.049	-0.224	
21.505	-0.024	-0.206	
21.510	0.233	-0.152	
21.515	0.719	-0.045	
21.520	0.569	0.120	
21.525	0.038	0.266	
21.530	-0.061	0.316	
21.535	-0.171	0.270	
21.540	-0.406	0.161	
21.545	-0.369	0.015	
21.550	-0.221	-0.123	
21.555	-0.299	-0.219	
21.560	-0.299	-0.277	
21.565	-0.096	-0.301	
21.570	-0.114	-0.285	
21.575	-0.226	-0.250	
21.580	-0.070	-0.216	
21.585	0.027	-0.175	
21.590	-0.175	-0.131	
21.595	-0.116	-0.106	
21.600	0.079	-0.089	
21.605	-0.099	-0.067	
21.610	-0.149	-0.056	
21.615	0.093	-0.054	
21.620	0.033	-0.040	
21.625	-0.113	-0.024	
21.630	0.122	-0.015	
21.635	0.280	0.012	
21.640	0.041	0.056	
21.645	0.158	0.091	
21.650	0.416	0.128	
21.655	0.178	0.176	
21.660	0.068	0.206	
21.665	0.326	0.212	
21.670	0.213	0.219	
21.675	-0.046	0.215	
21.680	0.131	0.185	
21.685	0.189	0.155	
21.690	-0.099	0.130	
21.695	-0.085	0.090	
21.700	0.072	0.044	
21.705	-0.131	0.010	
21.710	-0.206	-0.027	
21.715	-0.021	-0.066	
21.720	-0.082	-0.088	
21.725	-0.232	-0.102	
21.730	-0.098	-0.120	
21.735	-0.012	-0.127	
21.740	-0.186	-0.121	
21.745	-0.137	-0.120	
21.750	-0.005	-0.119	
21.755	-0.175	-0.111	
21.760	-0.252	-0.115	
21.765	-0.105	-0.132	
21.770	-0.154	-0.144	
21.775	-0.306	-0.157	
21.780	-0.206	-0.179	
21.785	-0.168	-0.198	
21.790	-0.340	-0.211	
21.795	-0.319	-0.233	
21.800	-0.221	-0.256	
21.805	-0.396	-0.273	
21.810	-0.505	-0.301	
21.815	-0.389	-0.342	
21.820	-0.442	-0.379	
21.825	-0.567	-0.412	
21.830	-0.467	-0.446	
21.835	-0.450	-0.471	
21.840	-0.631	-0.488	
21.845	-0.611	-0.514	
21.850	-0.465	-0.539	
21.855	-0.500	-0.546	
21.860	-0.395	-0.534	
21.865	0.018	-0.489	
21.870	0.049	-0.390	
21.875	-0.223	-0.275	
21.880	-0.294	-0.199	
21.885	-0.445	-0.183	
21.890	-0.710	-0.229	
21.895	-0.726	-0.329	
21.900	-0.599	-0.445	
21.905	-0.653	-0.538	
21.910	-0.643	-0.603	
21.915	-0.438	-0.633	
21.920	-0.419	-0.620	
21.925	-0.496	-0.581	
21.930	-0.349	-0.536	
21.935	-0.276	-0.483	
21.940	-0.404	-0.428	
21.945	-0.342	-0.387	
21.950	-0.182	-0.355	
21.955	-0.287	-0.319	
21.960	-0.317	-0.292	
21.965	-0.120	-0.273	
21.970	-0.140	-0.245	
21.975	-0.247	-0.216	
21.980	-0.053	-0.194	
21.985	0.122	-0.158	
21.990	-0.090	-0.106	
21.995	0.018	-0.063	
22.000	0.306	-0.019	
22.005	0.096	0.040	
22.010	-0.002	0.085	
22.015	0.268	0.108	
22.020	0.126	0.129	
22.025	-0.142	0.134	
22.030	-0.009	0.104	
22.035	-0.011	0.062	
22.040	-0.253	0.017	
22.045	-0.238	-0.043	
22.050	-0.119	-0.104	
22.055	-0.262	-0.149	
22.060	-0.314	-0.187	
22.065	-0.134	-0.219	
22.070	-0.160	-0.229	
22.075	-0.282	-0.225	
22.080	-0.130	-0.221	
22.085	-0.026	-0.205	
22.090	-0.206	-0.177	
22.095	-0.142	-0.157	
22.100	0.090	-0.137	
22.105	-0.082	-0.104	
22.110	-0.133	-0.078	
22.115	0.119	-0.061	
22.120	0.049	-0.035	
22.125	-0.149	-0.012	
22.130	0.026	-0.009	
22.135	0.117	-0.005	
22.140	-0.149	0.003	
22.145	-0.125	-0.008	
22.150	0.043	-0.028	
22.155	-0.149	-0.042	
22.160	-0.230	-0.063	
22.165	-0.050	-0.092	
22.170	-0.113	-0.110	
22.175	-0.258	-0.123	
22.180	-0.137	-0.142	
22.185	-0.066	-0.153	
22.190	-0.274	-0.155	
22.195	-0.274	-0.168	
22.200	-0.145	-0.189	
22.205	-0.235	-0.201	
22.210	-0.175	-0.206	
22.215	0.454	-0.177	
22.220	0.837	-0.057	
22.225	0.764	0.146	
22.230	0.904	0.369	
22.235	0.588	0.557	
22.240	-0.151	0.635	
22.245	-0.300	0.556	
22.250	-0.271	0.367	
22.255	-0.404	0.149	
22.260	-0.427	-0.055	
22.265	-0.226	-0.214	
22.270	-0.212	-0.303	
22.275	-0.300	-0.334	
22.280	-0.130	-0.332	
22.285	-0.008	-0.295	
22.290	-0.188	-0.238	
22.295	-0.120	-0.190	
22.300	0.134	-0.144	
22.305	-0.044	-0.090	
22.310	-0.142	-0.052	
22.315	0.085	-0.034	
22.320	-0.006	-0.018	
22.325	-0.175	-0.012	
22.330	0.032	-0.022	
22.335	0.194	-0.018	
22.340	-0.046	0.004	
22.345	0.090	0.023	
22.350	0.413	0.053	
22.355	0.224	0.111	
22.360	0.126	0.164	
22.365	0.448	0.203	
22.370	0.364	0.249	
22.375	0.073	0.283	
22.380	0.277	0.284	
22.385	0.332	0.276	
22.390	-0.027	0.264	
22.395	-0.021	0.221	
22.400	0.169	0.163	
22.405	-0.092	0.115	
22.410	-0.183	0.061	
22.415	0.012	0.003	
22.420	-0.050	-0.036	
22.425	-0.204	-0.062	
22.430	-0.043	-0.086	
22.435	0.087	-0.092	
22.440	-0.142	-0.078	
22.445	-0.072	-0.069	
22.450	0.190	-0.057	
22.455	-0.024	-0.027	
22.460	-0.102	-0.005	
22.465	0.189	0.004	
22.470	0.111	0.026	
22.475	-0.125	0.045	
22.480	0.056	0.043	
22.485	0.160	0.040	
22.490	-0.119	0.043	
22.495	-0.089	0.029	
22.500	0.111	0.008	
22.505	-0.101	-0.002	
22.510	-0.182	-0.019	
22.515	0.018	-0.045	
22.520	-0.055	-0.058	
22.525	-0.217	-0.068	
22.530	-0.079	-0.087	
22.535	0.011	-0.097	
22.540	-0.203	-0.096	
22.545	-0.192	-0.105	
22.550	-0.093	-0.121	
22.555	-0.241	-0.136	
22.560	-0.264	-0.156	
22.565	0.149	-0.166	
22.570	0.547	-0.114	
22.575	0.780	0.027	
22.580	1.171	0.242	
22.585	1.094	0.498	
22.590	0.221	0.697	
22.595	-0.198	0.728	
22.600	-0.267	0.588	
22.605	-0.464	0.356	
22.610	-0.518	0.097	
22.615	-0.308	-0.132	
22.620	-0.273	-0.285	
22.625	-0.343	-0.363	
22.630	-0.171	-0.386	
22.635	-0.035	-0.360	
22.640	-0.171	-0.299	
22.645	-0.070	-0.235	
22.650	0.247	-0.163	
22.655	0.084	-0.074	
22.660	0.004	0.003	
22.665	0.352	0.060	
22.670	0.326	0.125	
22.675	0.084	0.184	
22.680	0.360	0.219	
22.685	0.538	0.257	
22.690	0.294	0.308	
22.695	0.450	0.349	
22.700	0.797	0.397	
22.705	0.634	0.471	
22.710	0.544	0.540	
22.715	0.869	0.595	
22.720	0.780	0.653	
22.725	0.472	0.695	
22.730	0.657	0.697	
22.735	0.712	0.685	
22.740	0.315	0.663	
22.745	0.302	0.606	
22.750	0.508	0.532	
22.755	0.206	0.467	
22.760	0.024	0.393	
22.765	0.302	0.310	
22.770	0.218	0.250	
22.775	-0.052	0.207	
22.780	0.172	0.160	
22.785	0.293	0.135	
22.790	-0.021	0.131	
22.795	0.044	0.119	
22.800	0.331	0.109	
22.805	0.110	0.122	
22.810	-0.011	0.131	
22.815	0.306	0.129	
22.820	0.245	0.143	
22.825	-0.027	0.160	
22.830	0.174	0.155	
22.835	0.273	0.151	
22.840	-0.050	0.153	
22.845	-0.032	0.131	
22.850	0.213	0.101	
22.855	-0.026	0.085	
22.860	-0.137	0.062	
22.865	0.093	0.030	
22.870	0.018	0.012	
22.875	-0.188	-0.002	
22.880	-0.040	-0.027	
22.885	0.076	-0.043	
22.890	-0.163	-0.045	
22.895	-0.114	-0.055	
22.900	0.068	-0.064	
22.905	-0.166	-0.064	
22.910	-0.259	-0.076	
22.915	-0.040	-0.101	
22.920	0.075	-0.107	
22.925	0.142	-0.079	
22.930	0.800	0.003	
22.935	1.154	0.176	
22.940	0.777	0.408	
22.945	0.469	0.594	
22.950	0.241	0.666	
22.955	-0.210	0.612	
22.960	-0.375	0.447	
22.965	-0.235	0.229	
22.970	-0.217	0.030	
22.975	-0.267	-0.116	
22.980	-0.031	-0.203	
22.985	0.238	-0.212	
22.990	0.014	-0.156	
22.995	0.120	-0.082	
23.000	0.444	0.001	
23.005	0.261	0.101	
23.010	0.189	0.184	
23.015	0.642	0.251	
23.020	0.710	0.338	
23.025	0.521	0.437	
23.030	0.797	0.523	
23.035	0.959	0.611	
23.040	0.669	0.697	
23.045	0.767	0.752	
23.050	1.081	0.792	
23.055	0.912	0.843	
23.060	0.822	0.884	
23.065	1.154	0.912	
23.070	1.072	0.952	
23.075	0.724	0.981	
23.080	0.899	0.972	
23.085	0.942	0.948	
23.090	0.547	0.915	
23.095	0.500	0.847	
23.100	0.654	0.759	
23.105	0.335	0.674	
23.110	0.133	0.575	
23.115	0.398	0.467	
23.120	0.270	0.382	
23.125	-0.014	0.313	
23.130	0.238	0.243	
23.135	0.402	0.204	
23.140	0.157	0.202	
23.145	0.256	0.209	
23.150	0.537	0.229	
23.155	0.326	0.273	
23.160	0.161	0.307	
23.165	0.468	0.318	
23.170	0.428	0.336	
23.175	0.160	0.351	
23.180	0.328	0.343	
23.185	0.421	0.333	
23.190	0.068	0.324	
23.195	0.081	0.289	
23.200	0.314	0.243	
23.205	0.053	0.211	
23.210	-0.093	0.172	
23.215	0.091	0.119	
23.220	-0.015	0.074	
23.225	-0.197	0.032	
23.230	-0.084	-0.017	
23.235	-0.011	-0.055	
23.240	-0.201	-0.078	
23.245	-0.165	-0.102	
23.250	0.015	-0.118	
23.255	-0.137	-0.117	
23.260	-0.242	-0.118	
23.265	-0.082	-0.129	
23.270	-0.096	-0.134	
23.275	-0.206	-0.134	
23.280	0.097	-0.128	
23.285	0.594	-0.075	
23.290	0.549	0.050	
23.295	0.584	0.207	
23.300	0.617	0.354	
23.305	-0.014	0.444	
23.310	-0.293	0.420	
23.315	-0.239	0.292	
23.320	-0.328	0.125	
23.325	-0.464	-0.044	
23.330	-0.296	-0.190	
23.335	-0.162	-0.283	
23.340	-0.281	-0.318	
23.345	-0.221	-0.320	
23.350	-0.012	-0.296	
23.355	-0.107	-0.246	
23.360	-0.166	-0.194	
23.365	0.055	-0.150	
23.370	0.035	-0.102	
23.375	-0.142	-0.060	
23.380	0.029	-0.039	
23.385	0.192	-0.016	
23.390	-0.060	0.014	
23.395	-0.003	0.030	
23.400	0.332	0.044	
23.405	0.166	0.081	
23.410	0.072	0.119	
23.415	0.424	0.149	
23.420	0.430	0.198	
23.425	0.166	0.253	
23.430	0.349	0.285	
23.435	0.457	0.308	
23.440	0.108	0.327	
23.445	0.064	0.309	
23.450	0.299	0.268	
23.455	0.044	0.231	
23.460	-0.099	0.184	
23.465	0.128	0.125	
23.470	0.046	0.083	
23.475	-0.177	0.048	
23.480	-0.067	0.005	
23.485	0.024	-0.030	
23.490	-0.168	-0.051	
23.495	-0.139	-0.072	
23.500	0.075	-0.086	
23.505	-0.081	-0.081	
23.510	-0.160	-0.075	
23.515	0.072	-0.073	
23.520	0.035	-0.058	
23.525	-0.159	-0.041	
23.530	-0.015	-0.038	
23.535	0.111	-0.034	
23.540	-0.090	-0.020	
23.545	-0.040	-0.014	
23.550	0.224	-0.007	
23.555	0.000	0.017	
23.560	-0.133	0.030	
23.565	0.064	0.022	
23.570	-0.005	0.013	
23.575	-0.203	-0.001	
23.580	-0.111	-0.031	
23.585	-0.046	-0.062	
23.590	-0.232	-0.086	
23.595	-0.218	-0.115	
23.600	-0.067	-0.143	
23.605	-0.200	-0.155	
23.610	-0.281	-0.167	
23.615	-0.153	-0.184	
23.620	-0.210	-0.195	
23.625	-0.360	-0.208	
23.630	-0.213	-0.228	
23.635	-0.009	-0.233	
23.640	-0.005	-0.203	
23.645	0.351	-0.136	
23.650	0.744	-0.011	
23.655	0.416	0.156	
23.660	-0.066	0.279	
23.665	-0.110	0.297	
23.670	-0.279	0.224	
23.675	-0.492	0.094	
23.680	-0.404	-0.065	
23.685	-0.302	-0.205	
23.690	-0.404	-0.301	
23.695	-0.351	-0.360	
23.700	-0.165	-0.381	
23.705	-0.241	-0.364	
23.710	-0.306	-0.332	
23.715	-0.136	-0.301	
23.720	-0.136	-0.263	
23.725	-0.259	-0.226	
23.730	-0.131	-0.203	
23.735	-0.029	-0.179	
23.740	-0.200	-0.153	
23.745	-0.157	-0.138	
23.750	0.047	-0.127	
23.755	-0.087	-0.105	
23.760	-0.151	-0.088	
23.765	0.107	-0.076	
23.770	0.125	-0.048	
23.775	-0.079	-0.012	
23.780	0.101	0.011	
23.785	0.279	0.038	
23.790	-0.024	0.074	
23.795	-0.047	0.087	
23.800	0.160	0.079	
23.805	-0.081	0.069	
23.810	-0.215	0.042	
23.815	-0.084	-0.007	
23.820	-0.124	-0.053	
23.825	-0.294	-0.095	
23.830	-0.210	-0.140	
23.835	-0.160	-0.177	
23.840	-0.342	-0.203	
23.845	-0.335	-0.232	
23.850	-0.217	-0.261	
23.855	-0.329	-0.277	
23.860	-0.404	-0.293	
23.865	-0.253	-0.311	
23.870	-0.264	-0.317	
23.875	-0.393	-0.315	
23.880	-0.270	-0.317	
23.885	-0.175	-0.311	
23.890	-0.323	-0.294	
23.895	-0.313	-0.284	
23.900	-0.177	-0.278	
23.905	-0.281	-0.268	
23.910	-0.358	-0.264	
23.915	-0.200	-0.269	
23.920	-0.223	-0.266	
23.925	-0.366	-0.263	
23.930	-0.274	-0.269	
23.935	-0.218	-0.275	
23.940	-0.380	-0.277	
23.945	-0.369	-0.289	
23.950	-0.224	-0.304	
23.955	-0.342	-0.308	
23.960	-0.428	-0.315	
23.965	-0.285	-0.329	
23.970	-0.317	-0.336	
23.975	-0.496	-0.342	
23.980	-0.425	-0.362	
23.985	-0.343	-0.383	
23.990	-0.441	-0.395	
23.995	-0.308	-0.398	
24.000	0.146	-0.368	
24.005	0.290	-0.273	
24.010	0.219	-0.132	
24.015	0.367	0.012	
24.020	-0.058	0.122	
24.025	-0.419	0.146	
24.030	-0.432	0.069	
24.035	-0.398	-0.059	
24.040	-0.526	-0.192	
24.045	-0.470	-0.310	
24.050	-0.262	-0.391	
24.055	-0.303	-0.418	
24.060	-0.343	-0.411	
24.065	-0.153	-0.384	
24.070	-0.149	-0.336	
24.075	-0.287	-0.285	
24.080	-0.157	-0.248	
24.085	-0.037	-0.213	
24.090	-0.209	-0.177	
24.095	-0.180	-0.156	
24.100	0.044	-0.141	
24.105	-0.084	-0.116	
24.110	-0.157	-0.095	
24.115	0.136	-0.079	
24.120	0.177	-0.043	
24.125	-0.031	0.003	
24.130	0.218	0.041	
24.135	0.405	0.089	
24.140	0.119	0.150	
24.145	0.149	0.188	
24.150	0.419	0.211	
24.155	0.187	0.238	
24.160	-0.014	0.243	
24.165	0.227	0.218	
24.170	0.143	0.193	
24.175	-0.134	0.162	
24.180	-0.037	0.110	
24.185	0.056	0.057	
24.190	-0.186	0.015	
24.195	-0.197	-0.032	
24.200	-0.041	-0.078	
24.205	-0.172	-0.107	
24.210	-0.265	-0.131	
24.215	-0.098	-0.156	
24.220	-0.102	-0.166	
24.225	-0.250	-0.165	
24.230	-0.133	-0.168	
24.235	-0.034	-0.164	
24.240	-0.235	-0.152	
24.245	-0.232	-0.152	
24.250	-0.082	-0.160	
24.255	-0.217	-0.162	
24.260	-0.317	-0.172	
24.265	-0.162	-0.192	
24.270	-0.177	-0.204	
24.275	-0.326	-0.211	
24.280	-0.230	-0.225	
24.285	-0.153	-0.233	
24.290	-0.328	-0.234	
24.295	-0.328	-0.244	
24.300	-0.192	-0.258	
24.305	-0.297	-0.264	
24.310	-0.374	-0.271	
24.315	-0.213	-0.283	
24.320	-0.215	-0.284	
24.325	-0.354	-0.277	
24.330	-0.258	-0.278	
24.335	-0.207	-0.276	
24.340	-0.427	-0.275	
24.345	-0.474	-0.295	
24.350	-0.352	-0.330	
24.355	-0.342	-0.356	
24.360	-0.206	-0.361	
24.365	0.343	-0.315	
24.370	0.357	-0.196	
24.375	-0.136	-0.059	
24.380	-0.308	0.009	
24.385	-0.441	-0.014	
24.390	-0.706	-0.110	
24.395	-0.736	-0.257	
24.400	-0.566	-0.408	
24.405	-0.598	-0.521	
24.410	-0.619	-0.590	
24.415	-0.416	-0.619	
24.420	-0.377	-0.603	
24.425	-0.485	-0.561	
24.430	-0.361	-0.515	
24.435	-0.265	-0.465	
24.440	-0.415	-0.415	
24.445	-0.412	-0.384	
24.450	-0.279	-0.367	
24.455	-0.378	-0.354	
24.460	-0.445	-0.350	
24.465	-0.259	-0.354	
24.470	-0.224	-0.346	
24.475	-0.322	-0.325	
24.480	-0.153	-0.302	
24.485	0.070	-0.261	
24.490	-0.108	-0.198	
24.495	-0.044	-0.139	
24.500	0.297	-0.080	
24.505	0.155	-0.004	
24.510	-0.008	0.062	
24.515	0.273	0.102	
24.520	0.215	0.138	
24.525	-0.104	0.157	
24.530	0.015	0.139	
24.535	0.133	0.107	
24.540	-0.154	0.077	
24.545	-0.171	0.033	
24.550	0.017	-0.018	
24.555	-0.148	-0.052	
24.560	-0.249	-0.084	
24.565	-0.055	-0.116	
24.570	-0.049	-0.130	
24.575	-0.218	-0.129	
24.580	-0.072	-0.131	
24.585	0.087	-0.120	
24.590	-0.145	-0.095	
24.595	-0.124	-0.080	
24.600	0.126	-0.070	
24.605	-0.056	-0.049	
24.610	-0.171	-0.037	
24.615	0.030	-0.041	
24.620	-0.066	-0.044	
24.625	-0.274	-0.054	
24.630	-0.204	-0.087	
24.635	-0.157	-0.126	
24.640	-0.355	-0.162	
24.645	-0.381	-0.208	
24.650	-0.262	-0.255	
24.655	-0.375	-0.291	
24.660	-0.464	-0.323	
24.665	-0.303	-0.353	
24.670	-0.294	-0.366	
24.675	-0.424	-0.365	
24.680	-0.317	-0.365	
24.685	-0.213	-0.356	
24.690	-0.363	-0.337	
24.695	-0.396	-0.327	
24.700	-0.281	-0.328	
24.705	-0.357	-0.329	
24.710	-0.332	-0.330	
24.715	0.207	-0.307	
24.720	0.793	-0.199	
24.725	0.922	0.017	
24.730	1.166	0.295	
24.735	1.008	0.574	
24.740	0.093	0.756	
24.745	-0.253	0.750	
24.750	-0.252	0.578	
24.755	-0.390	0.333	
24.760	-0.441	0.084	
24.765	-0.221	-0.123	
24.770	-0.157	-0.250	
24.775	-0.264	-0.303	
24.780	-0.102	-0.310	
24.785	0.123	-0.272	
24.790	-0.099	-0.201	
24.795	-0.063	-0.135	
24.800	0.253	-0.077	
24.805	0.101	-0.009	
24.810	-0.031	0.046	
24.815	0.320	0.081	
24.820	0.364	0.128	
24.825	0.119	0.182	
24.830	0.358	0.219	
24.835	0.598	0.263	
24.840	0.366	0.324	
24.845	0.465	0.378	
24.850	0.846	0.433	
24.855	0.697	0.512	
24.860	0.532	0.584	
24.865	0.835	0.632	
24.870	0.803	0.677	
24.875	0.451	0.708	
24.880	0.585	0.698	
24.885	0.692	0.671	
24.890	0.317	0.640	
24.895	0.245	0.579	
24.900	0.462	0.500	
24.905	0.219	0.434	
24.910	-0.003	0.362	
24.915	0.258	0.282	
24.920	0.229	0.225	
24.925	-0.067	0.185	
24.930	0.114	0.141	
24.935	0.308	0.115	
24.940	0.017	0.115	
24.945	0.027	0.111	
24.950	0.322	0.107	
24.955	0.149	0.123	
24.960	-0.023	0.136	
24.965	0.293	0.135	
24.970	0.290	0.149	
24.975	-0.032	0.167	
24.980	0.130	0.162	
24.985	0.309	0.154	
24.990	0.008	0.157	
24.995	0.004	0.144	
25.000	0.283	0.125	
25.005	0.084	0.123	
25.010	-0.087	0.116	
25.015	0.204	0.096	
25.020	0.230	0.094	
25.025	-0.052	0.104	
25.030	0.130	0.102	
25.035	0.311	0.106	
25.040	-0.011	0.122	
25.045	-0.012	0.121	
25.050	0.270	0.108	
25.055	0.038	0.108	
25.060	-0.156	0.097	
25.065	0.097	0.066	
25.070	0.255	0.052	
25.075	0.293	0.077	
25.080	0.969	0.158	
25.085	1.505	0.342	
25.090	1.189	0.607	
25.095	0.837	0.843	
25.100	0.579	0.963	
25.105	-0.020	0.935	
25.110	-0.261	0.762	
25.115	-0.096	0.506	
25.120	0.000	0.267	
25.125	-0.095	0.091	
25.130	0.242	-0.010	
25.135	0.575	-0.013	
25.140	0.364	0.068	
25.145	0.437	0.176	
25.150	0.806	0.291	
25.155	0.651	0.419	
25.160	0.466	0.523	
25.165	0.793	0.587	
25.170	0.822	0.643	
25.175	0.538	0.689	
25.180	0.719	0.705	
25.185	0.895	0.716	
25.190	0.598	0.732	
25.195	0.611	0.729	
25.200	0.963	0.722	
25.205	0.825	0.740	
25.210	0.642	0.763	
25.215	0.939	0.774	
25.220	0.942	0.796	
25.225	0.631	0.819	
25.230	0.771	0.817	
25.235	0.869	0.805	
25.240	0.472	0.789	
25.245	0.402	0.737	
25.250	0.651	0.665	
25.255	0.430	0.605	
25.260	0.186	0.542	
25.265	0.468	0.470	
25.270	0.485	0.422	
25.275	0.210	0.396	
25.280	0.439	0.373	
25.285	0.668	0.373	
25.290	0.372	0.404	
25.295	0.351	0.425	
25.300	0.639	0.437	
25.305	0.466	0.458	
25.310	0.277	0.469	
25.315	0.604	0.463	
25.320	0.620	0.472	
25.325	0.303	0.488	
25.330	0.434	0.483	
25.335	0.541	0.470	
25.340	0.175	0.455	
25.345	0.107	0.410	
25.350	0.357	0.346	
25.355	0.155	0.296	
25.360	-0.050	0.245	
25.365	0.152	0.185	
25.370	0.119	0.138	
25.375	-0.136	0.101	
25.380	-0.052	0.055	
25.385	0.090	0.015	
25.390	-0.124	-0.007	
25.395	-0.127	-0.030	
25.400	0.084	-0.049	
25.405	-0.064	-0.050	
25.410	-0.210	-0.054	
25.415	-0.089	-0.072	
25.420	-0.120	-0.091	
25.425	-0.274	-0.111	
25.430	-0.102	-0.136	
25.435	0.309	-0.131	
25.440	0.407	-0.062	
25.445	0.605	0.063	
25.450	0.863	0.228	
25.455	0.410	0.393	
25.460	-0.136	0.473	
25.465	-0.168	0.424	
25.470	-0.274	0.287	
25.475	-0.462	0.112	
25.480	-0.358	-0.066	
25.485	-0.213	-0.206	
25.490	-0.300	-0.287	
25.495	-0.264	-0.323	
25.500	-0.066	-0.323	
25.505	-0.128	-0.287	
25.510	-0.215	-0.241	
25.515	-0.021	-0.201	
25.520	0.003	-0.156	
25.525	-0.175	-0.114	
25.530	-0.060	-0.091	
25.535	0.140	-0.070	
25.540	-0.055	-0.039	
25.545	0.001	-0.015	
25.550	0.434	0.017	
25.555	0.369	0.087	
25.560	0.244	0.170	
25.565	0.608	0.248	
25.570	0.681	0.339	
25.575	0.413	0.431	
25.580	0.585	0.493	
25.585	0.759	0.541	
25.590	0.437	0.582	
25.595	0.344	0.586	
25.600	0.558	0.557	
25.605	0.311	0.522	
25.610	0.035	0.465	
25.615	0.271	0.381	
25.620	0.253	0.307	
25.625	-0.050	0.248	
25.630	0.043	0.182	
25.635	0.204	0.127	
25.640	-0.075	0.094	
25.645	-0.095	0.059	
25.650	0.172	0.026	
25.655	0.046	0.019	
25.660	-0.101	0.019	
25.665	0.143	0.015	
25.670	0.151	0.026	
25.675	-0.093	0.043	
25.680	0.055	0.044	
25.685	0.245	0.049	
25.690	-0.031	0.066	
25.695	-0.064	0.067	
25.700	0.175	0.057	
25.705	0.004	0.054	
25.710	-0.153	0.045	
25.715	0.004	0.018	
25.720	0.000	-0.005	
25.725	-0.215	-0.025	
25.730	-0.165	-0.058	
25.735	-0.082	-0.092	
25.740	-0.246	-0.119	
25.745	-0.256	-0.148	
25.750	-0.122	-0.176	
25.755	-0.223	-0.190	
25.760	-0.331	-0.204	
25.765	-0.178	-0.222	
25.770	-0.174	-0.230	
25.775	-0.367	-0.232	
25.780	-0.306	-0.247	
25.785	-0.195	-0.263	
25.790	-0.259	-0.266	
25.795	-0.124	-0.257	
25.800	0.491	-0.206	
25.805	0.540	-0.079	
25.810	0.276	0.084	
25.815	0.265	0.211	
25.820	-0.076	0.268	
25.825	-0.401	0.233	
25.830	-0.409	0.114	
25.835	-0.335	-0.038	
25.840	-0.451	-0.176	
25.845	-0.425	-0.288	
25.850	-0.232	-0.361	
25.855	-0.258	-0.383	
25.860	-0.351	-0.374	
25.865	-0.186	-0.353	
25.870	-0.153	-0.318	
25.875	-0.297	-0.279	
25.880	-0.201	-0.252	
25.885	-0.067	-0.227	
25.890	-0.212	-0.199	
25.895	-0.215	-0.180	
25.900	-0.015	-0.169	
25.905	-0.093	-0.147	
25.910	-0.191	-0.128	
25.915	0.041	-0.114	
25.920	0.133	-0.086	
25.925	-0.087	-0.046	
25.930	0.072	-0.016	
25.935	0.285	0.017	
25.940	-0.008	0.060	
25.945	-0.049	0.080	
25.950	0.229	0.080	
25.955	0.021	0.086	
25.960	-0.165	0.078	
25.965	-0.020	0.044	
25.970	-0.026	0.009	
25.975	-0.238	-0.024	
25.980	-0.194	-0.068	
25.985	-0.102	-0.111	
25.990	-0.270	-0.142	
25.995	-0.297	-0.175	
26.000	-0.148	-0.205	
26.005	-0.232	-0.220	
26.010	-0.340	-0.231	
26.015	-0.195	-0.245	
26.020	-0.172	-0.248	
26.025	-0.323	-0.244	
26.030	-0.242	-0.245	
26.035	-0.130	-0.244	
26.040	-0.273	-0.234	
26.045	-0.285	-0.231	
26.050	-0.133	-0.231	
26.055	-0.223	-0.225	
26.060	-0.342	-0.222	
26.065	-0.200	-0.231	
26.070	-0.188	-0.236	
26.075	-0.354	-0.237	
26.080	-0.288	-0.249	
26.085	-0.192	-0.260	
26.090	-0.345	-0.265	
26.095	-0.383	-0.277	
26.100	-0.238	-0.293	
26.105	-0.316	-0.302	
26.110	-0.419	-0.310	
26.115	-0.281	-0.323	
26.120	-0.261	-0.327	
26.125	-0.416	-0.325	
26.130	-0.360	-0.331	
26.135	-0.294	-0.339	
26.140	-0.457	-0.345	
26.145	-0.509	-0.364	
26.150	-0.340	-0.390	
26.155	-0.274	-0.398	
26.160	-0.166	-0.377	
26.165	0.255	-0.314	
26.170	0.239	-0.198	
26.175	-0.255	-0.082	
26.180	-0.419	-0.042	
26.185	-0.485	-0.087	
26.190	-0.717	-0.191	
26.195	-0.770	-0.330	
26.200	-0.604	-0.470	
26.205	-0.628	-0.572	
26.210	-0.698	-0.635	
26.215	-0.523	-0.666	
26.220	-0.468	-0.661	
26.225	-0.604	-0.631	
26.230	-0.518	-0.601	
26.235	-0.398	-0.570	
26.240	-0.514	-0.534	
26.245	-0.509	-0.506	
26.250	-0.325	-0.485	
26.255	-0.363	-0.456	
26.260	-0.464	-0.427	
26.265	-0.361	-0.410	
26.270	-0.355	-0.397	
26.275	-0.494	-0.390	
26.280	-0.381	-0.394	
26.285	-0.221	-0.391	
26.290	-0.322	-0.371	
26.295	-0.314	-0.346	
26.300	-0.153	-0.322	
26.305	-0.258	-0.290	
26.310	-0.380	-0.270	
26.315	-0.227	-0.267	
26.320	-0.198	-0.264	
26.325	-0.370	-0.260	
26.330	-0.296	-0.267	
26.335	-0.185	-0.274	
26.340	-0.343	-0.273	
26.345	-0.375	-0.280	
26.350	-0.218	-0.292	
26.355	-0.290	-0.295	
26.360	-0.398	-0.297	
26.365	-0.233	-0.304	
26.370	-0.185	-0.300	
26.375	-0.325	-0.285	
26.380	-0.226	-0.274	
26.385	-0.072	-0.257	
26.390	-0.223	-0.229	
26.395	-0.230	-0.207	
26.400	-0.023	-0.191	
26.405	-0.145	-0.167	
26.410	-0.290	-0.152	
26.415	-0.146	-0.157	
26.420	-0.124	-0.163	
26.425	-0.291	-0.167	
26.430	-0.213	-0.181	
26.435	-0.084	-0.191	
26.440	-0.255	-0.191	
26.445	-0.305	-0.196	
26.450	-0.165	-0.210	
26.455	-0.250	-0.219	
26.460	-0.372	-0.231	
26.465	-0.226	-0.251	
26.470	-0.244	-0.263	
26.475	-0.441	-0.274	
26.480	-0.406	-0.299	
26.485	-0.319	-0.329	
26.490	-0.468	-0.353	
26.495	-0.514	-0.381	
26.500	-0.386	-0.411	
26.505	-0.444	-0.430	
26.510	-0.474	-0.441	
26.515	-0.134	-0.435	
26.520	0.431	-0.366	
26.525	0.616	-0.203	
26.530	0.895	0.033	
26.535	0.924	0.296	
26.540	0.105	0.503	
26.545	-0.276	0.551	
26.550	-0.258	0.440	
26.555	-0.372	0.251	
26.560	-0.447	0.045	
26.565	-0.232	-0.134	
26.570	-0.116	-0.244	
26.575	-0.238	-0.286	
26.580	-0.107	-0.286	
26.585	0.171	-0.246	
26.590	-0.037	-0.172	
26.595	-0.049	-0.102	
26.600	0.309	-0.040	
26.605	0.212	0.034	
26.610	0.020	0.098	
26.615	0.334	0.139	
26.620	0.412	0.184	
26.625	0.139	0.232	
26.630	0.315	0.259	
26.635	0.562	0.286	
26.640	0.285	0.326	
26.645	0.253	0.350	
26.650	0.639	0.363	
26.655	0.556	0.398	
26.660	0.358	0.440	
26.665	0.672	0.469	
26.670	0.724	0.508	
26.675	0.380	0.549	
26.680	0.483	0.559	
26.685	0.666	0.553	
26.690	0.329	0.547	
26.695	0.212	0.514	
26.700	0.469	0.460	
26.705	0.282	0.414	
26.710	0.154	0.370	
26.715	0.582	0.334	
26.720	0.680	0.347	
26.725	0.323	0.394	
26.730	0.413	0.424	
26.735	0.596	0.442	
26.740	0.271	0.455	
26.745	0.178	0.439	
26.750	0.457	0.400	
26.755	0.226	0.367	
26.760	-0.060	0.323	
26.765	0.169	0.254	
26.770	0.189	0.195	
26.775	-0.142	0.149	
26.780	-0.085	0.090	
26.785	0.096	0.035	
26.790	-0.149	-0.001	
26.795	-0.203	-0.037	
26.800	0.004	-0.073	
26.805	-0.125	-0.092	
26.810	-0.276	-0.109	
26.815	-0.139	-0.134	
26.820	-0.105	-0.153	
26.825	-0.291	-0.163	
26.830	-0.209	-0.179	
26.835	-0.055	-0.190	
26.840	-0.217	-0.184	
26.845	-0.239	-0.181	
26.850	-0.032	-0.180	
26.855	-0.162	-0.167	
26.860	-0.343	-0.163	
26.865	-0.200	-0.179	
26.870	-0.073	-0.191	
26.875	-0.063	-0.181	
26.880	0.610	-0.124	
26.885	1.442	0.047	
26.890	1.363	0.347	
26.895	1.099	0.673	
26.900	0.826	0.912	
26.905	0.090	0.992	
26.910	-0.328	0.880	
26.915	-0.279	0.623	
26.920	-0.246	0.330	
26.925	-0.357	0.073	
26.930	-0.212	-0.121	
26.935	0.073	-0.227	
26.940	-0.055	-0.242	
26.945	-0.032	-0.209	
26.950	0.372	-0.142	
26.955	0.299	-0.036	
26.960	0.131	0.073	
26.965	0.486	0.162	
26.970	0.630	0.255	
26.975	0.331	0.350	
26.980	0.495	0.415	
26.985	0.800	0.468	
26.990	0.599	0.532	
26.995	0.584	0.584	
27.000	0.965	0.628	
27.005	0.902	0.692	
27.010	0.715	0.756	
27.015	1.044	0.804	
27.020	1.148	0.861	
27.025	0.808	0.922	
27.030	0.886	0.950	
27.035	1.090	0.958	
27.040	0.762	0.961	
27.045	0.607	0.934	
27.050	0.857	0.879	
27.055	0.666	0.828	
27.060	0.331	0.766	
27.065	0.524	0.680	
27.070	0.534	0.600	
27.075	0.181	0.532	
27.080	0.285	0.455	
27.085	0.549	0.393	
27.090	0.259	0.366	
27.095	0.183	0.342	
27.100	0.518	0.321	
27.105	0.425	0.327	
27.110	0.203	0.342	
27.115	0.500	0.348	
27.120	0.594	0.369	
27.125	0.287	0.403	
27.130	0.444	0.419	
27.135	0.726	0.438	
27.140	0.491	0.476	
27.145	0.427	0.505	
27.150	0.770	0.524	
27.155	0.701	0.560	
27.160	0.453	0.595	
27.165	0.710	0.609	
27.170	0.759	0.626	
27.175	0.416	0.640	
27.180	0.509	0.626	
27.185	0.744	0.604	
27.190	0.460	0.595	
27.195	0.363	0.574	
27.200	0.697	0.545	
27.205	0.579	0.538	
27.210	0.315	0.535	
27.215	0.546	0.516	
27.220	0.544	0.501	
27.225	0.158	0.484	
27.230	0.233	0.437	
27.235	0.601	0.390	
27.240	0.657	0.391	
27.245	0.991	0.453	
27.250	1.559	0.594	
27.255	1.393	0.808	
27.260	0.799	1.001	
27.265	0.613	1.077	
27.270	0.308	1.024	
27.275	-0.142	0.859	
27.280	-0.102	0.615	
27.285	0.152	0.373	
27.290	0.011	0.195	
27.295	0.018	0.080	
27.300	0.416	0.030	
27.305	0.380	0.057	
27.310	0.143	0.120	
27.315	0.427	0.180	
27.320	0.535	0.246	
27.325	0.215	0.313	
27.330	0.309	0.346	
27.335	0.573	0.364	
27.340	0.320	0.387	
27.345	0.230	0.394	
27.350	0.559	0.386	
27.355	0.448	0.394	
27.360	0.212	0.402	
27.365	0.517	0.396	
27.370	0.651	0.407	
27.375	0.343	0.437	
27.380	0.427	0.453	
27.385	0.619	0.461	
27.390	0.317	0.471	
27.395	0.172	0.455	
27.400	0.404	0.412	
27.405	0.230	0.371	
27.410	-0.046	0.320	
27.415	0.097	0.247	
27.420	0.120	0.178	
27.425	-0.149	0.120	
27.430	-0.130	0.055	
27.435	0.015	-0.005	
27.440	-0.131	-0.045	
27.445	-0.168	-0.075	
27.450	0.050	-0.095	
27.455	-0.009	-0.091	
27.460	-0.153	-0.078	
27.465	0.035	-0.070	
27.470	0.154	-0.050	
27.475	-0.101	-0.020	
27.480	-0.052	-0.006	
27.485	0.151	-0.000	
27.490	-0.072	0.011	
27.495	-0.145	0.008	
27.500	0.037	-0.010	
27.505	-0.064	-0.023	
27.510	-0.235	-0.041	
27.515	-0.108	-0.071	
27.520	-0.069	-0.097	
27.525	-0.256	-0.115	
27.530	-0.230	-0.140	
27.535	-0.125	-0.165	
27.540	-0.273	-0.182	
27.545	-0.332	-0.203	
27.550	-0.182	-0.227	
27.555	-0.235	-0.240	
27.560	-0.378	-0.250	
27.565	-0.250	-0.266	
27.570	-0.163	-0.273	
27.575	-0.320	-0.267	
27.580	-0.296	-0.266	
27.585	-0.183	-0.267	
27.590	-0.288	-0.262	
27.595	-0.259	-0.258	
27.600	0.165	-0.238	
27.605	0.471	-0.159	
27.610	0.576	-0.014	
27.615	0.907	0.177	
27.620	0.883	0.389	
27.625	0.235	0.556	
27.630	0.000	0.598	
27.635	0.012	0.519	
27.640	-0.197	0.377	
27.645	-0.241	0.209	
27.650	-0.014	0.055	
27.655	-0.008	-0.043	
27.660	-0.131	-0.091	
27.665	0.067	-0.107	
27.670	0.187	-0.086	
27.675	-0.069	-0.043	
27.680	-0.006	-0.012	
27.685	0.256	0.014	
27.690	0.055	0.050	
27.695	-0.034	0.074	
27.700	0.239	0.082	
27.705	0.160	0.099	
27.710	-0.055	0.112	
27.715	0.194	0.109	
27.720	0.317	0.118	
27.725	0.026	0.139	
27.730	0.110	0.146	
27.735	0.405	0.153	
27.740	0.203	0.180	
27.745	0.088	0.201	
27.750	0.366	0.209	
27.755	0.233	0.223	
27.760	-0.052	0.225	
27.765	0.075	0.193	
27.770	0.110	0.152	
27.775	-0.178	0.109	
27.780	-0.186	0.048	
27.785	-0.082	-0.021	
27.790	-0.253	-0.078	
27.795	-0.337	-0.135	
27.800	-0.198	-0.190	
27.805	-0.252	-0.227	
27.810	-0.392	-0.254	
27.815	-0.268	-0.281	
27.820	-0.200	-0.294	
27.825	-0.354	-0.293	
27.830	-0.310	-0.295	
27.835	-0.157	-0.294	
27.840	-0.256	-0.279	
27.845	-0.314	-0.266	
27.850	-0.143	-0.258	
27.855	-0.166	-0.242	
27.860	-0.308	-0.225	
27.865	-0.203	-0.221	
27.870	-0.149	-0.218	
27.875	-0.328	-0.215	
27.880	-0.306	-0.225	
27.885	-0.185	-0.240	
27.890	-0.319	-0.249	
27.895	-0.404	-0.264	
27.900	-0.274	-0.288	
27.905	-0.326	-0.305	
27.910	-0.465	-0.321	
27.915	-0.358	-0.345	
27.920	-0.311	-0.361	
27.925	-0.467	-0.370	
27.930	-0.436	-0.383	
27.935	-0.303	-0.395	
27.940	-0.427	-0.395	
27.945	-0.511	-0.400	
27.950	-0.386	-0.413	
27.955	-0.406	-0.421	
27.960	-0.474	-0.424	
27.965	-0.220	-0.420	
27.970	0.155	-0.376	
27.975	0.151	-0.273	
27.980	0.201	-0.142	
27.985	0.204	-0.016	
27.990	-0.261	0.064	
27.995	-0.492	0.055	
28.000	-0.427	-0.037	
28.005	-0.477	-0.159	
28.010	-0.592	-0.281	
28.015	-0.447	-0.387	
28.020	-0.346	-0.451	
28.025	-0.470	-0.474	
28.030	-0.459	-0.478	
28.035	-0.374	-0.473	
28.040	-0.508	-0.463	
28.045	-0.575	-0.463	
28.050	-0.419	-0.473	
28.055	-0.425	-0.476	
28.060	-0.526	-0.472	
28.065	-0.383	-0.469	
28.070	-0.291	-0.454	
28.075	-0.403	-0.426	
28.080	-0.345	-0.400	
28.085	-0.171	-0.372	
28.090	-0.246	-0.332	
28.095	-0.268	-0.294	
28.100	-0.031	-0.259	
28.105	-0.032	-0.210	
28.110	-0.178	-0.160	
28.115	-0.009	-0.124	
28.120	0.097	-0.088	
28.125	-0.163	-0.053	
28.130	-0.151	-0.044	
28.135	-0.009	-0.053	
28.140	-0.197	-0.065	
28.145	-0.300	-0.091	
28.150	-0.165	-0.131	
28.155	-0.233	-0.167	
28.160	-0.392	-0.201	
28.165	-0.293	-0.241	
28.170	-0.247	-0.273	
28.175	-0.424	-0.294	
28.180	-0.410	-0.319	
28.185	-0.279	-0.343	
28.190	-0.392	-0.354	
28.195	-0.454	-0.365	
28.200	-0.284	-0.375	
28.205	-0.300	-0.372	
28.210	-0.416	-0.362	
28.215	-0.273	-0.355	
28.220	-0.188	-0.339	
28.225	-0.346	-0.315	
28.230	-0.322	-0.300	
28.235	-0.182	-0.291	
28.240	-0.300	-0.279	
28.245	-0.369	-0.274	
28.250	-0.218	-0.279	
28.255	-0.253	-0.279	
28.260	-0.406	-0.280	
28.265	-0.300	-0.291	
28.270	-0.244	-0.301	
28.275	-0.412	-0.305	
