Time	Potential	EKG	Unnamed: 3
0.0	-0.061	-0.00270615172353536	
0.005	-0.024	-0.009208847172777377	
0.01	-0.134	-0.02483241610782624	
0.015	-0.142	-0.04631379680806461	
0.02	-0.072	-0.06992378646239467	
0.025	-0.140	-0.09035189694205345	
0.03	-0.188	-0.10790121943515206	
0.035	-0.107	-0.12405409339892386	
0.04	-0.116	-0.13365170032968274	
0.045	-0.197	-0.14020043567547505	
0.05	-0.148	-0.14560017229830602	
0.055	-0.095	-0.14800300551629425	
0.06	-0.169	-0.1480398175093869	
0.065	-0.148	-0.1453729970701988	
0.07	-0.050	-0.14068464749791454	
0.075	-0.107	-0.1304369545566167	
0.08	-0.140	-0.1200790659325923	
0.085	-0.047	-0.1108736883962839	
0.09	-0.043	-0.09959726854825555	
0.095	-0.130	-0.08940800716313102	
0.1	-0.067	-0.08253540940260681	
0.105	-0.002	-0.07585236744632345	
0.11	-0.099	-0.06919120133709794	
0.115	-0.089	-0.06442958073305008	
0.12	0.017	-0.06152035342987801	
0.125	-0.056	-0.05548336965561949	
0.13	-0.105	-0.05220317182516697	
0.135	-0.003	-0.05076496618112235	
0.14	-0.005	-0.04754744387808518	
0.145	-0.104	-0.04452912825575539	
0.15	-0.060	-0.044512881839614916	
0.155	-0.008	-0.04676256792137084	
0.16	-0.110	-0.05026097255713218	
0.165	-0.114	-0.05747022548171137	
0.17	-0.029	-0.06544115912880244	
0.175	-0.093	-0.07248981495602588	
0.18	-0.154	-0.07926411776066242	
0.185	-0.082	-0.08772756519819364	
0.19	-0.098	-0.09651851558534585	
0.195	-0.180	-0.1055762720836903	
0.2	-0.137	-0.11550891270609062	
0.205	-0.084	-0.12372026464589678	
0.21	-0.160	-0.1292795430067683	
0.215	-0.157	-0.13248816925476237	
0.22	-0.070	-0.13241118167269542	
0.225	-0.122	-0.1304885840186964	
0.23	-0.166	-0.1272894837242789	
0.235	-0.079	-0.12471431021549954	
0.24	-0.078	-0.12050094264452883	
0.245	-0.165	-0.11659454819786197	
0.25	-0.139	-0.1155192684199117	
0.255	-0.110	-0.11870872304225158	
0.26	-0.162	-0.12528384331738185	
0.265	-0.047	-0.12649412989234324	
0.27	0.300	-0.09937275474617781	
0.275	0.514	-0.021427290456855236	
0.28	0.779	0.11773556695542972	
0.285	1.155	0.31629323183345814	
0.29	1.122	0.5485252627799189	
0.295	0.707	0.7483536919635821	
0.3	0.256	0.8403124208201405	
0.305	-0.085	0.7832004918185818	
0.31	-0.322	0.5967529067634951	
0.315	-0.392	0.3444743905447124	
0.32	-0.337	0.09256651464172576	
0.325	-0.340	-0.11636517401305627	
0.33	-0.337	-0.26023371195528383	
0.335	-0.223	-0.3367784777740651	
0.34	-0.186	-0.3594359032944269	
0.345	-0.233	-0.3435057219121625	
0.35	-0.169	-0.3076094997126409	
0.355	-0.102	-0.2647304474238492	
0.36	-0.165	-0.2221691362744042	
0.365	-0.146	-0.18455447882422046	
0.37	-0.046	-0.15450709523801753	
0.375	-0.090	-0.12837269962865322	
0.38	-0.131	-0.10826200813374767	
0.385	-0.032	-0.09386457237586993	
0.39	-0.011	-0.08044783048635336	
0.395	-0.101	-0.06746244716303457	
0.4	-0.024	-0.057653980627068516	
0.405	0.076	-0.04476581028704593	
0.41	-0.014	-0.02808754550026012	
0.415	0.020	-0.009548408449030113	
0.42	0.194	0.012407598088392006	
0.425	0.155	0.0446952843766109	
0.43	0.108	0.08081678223406685	
0.435	0.261	0.11501275600352269	
0.44	0.270	0.15053689505984066	
0.445	0.142	0.18268865520157246	
0.45	0.206	0.20125466111816406	
0.455	0.262	0.2110936211171652	
0.46	0.107	0.214088217250613	
0.465	0.076	0.20248206557977144	
0.47	0.163	0.18015940351602738	
0.475	0.044	0.15479541400435504	
0.48	-0.064	0.1220192960094148	
0.485	0.009	0.08175933119044902	
0.49	-0.027	0.04246975310895857	
0.495	-0.134	0.18015940351602738	
0.5	-0.102	-0.029864264823472476	
0.0	0.258	0.01289674444338548	
0.005	0.308	0.05245665798806677	
0.01	0.200	0.11343553138411124	
0.015	0.200	0.16477739964532875	
0.02	0.271	0.1991438427396287	
0.025	0.177	0.22015528731248388	
0.03	0.096	0.22524617612337147	
0.035	0.172	0.21068854622182143	
0.04	0.134	0.19040261568289155	
0.045	0.008	0.16660454783536432	
0.05	0.044	0.1337929924515818	
0.055	0.072	0.09898838183355055	
0.06	-0.041	0.0702047777229809	
0.065	-0.052	0.04243680996404528	
0.07	0.006	0.013582513662277272	
0.075	-0.067	-0.009761626813453423	
0.08	-0.111	-0.02917711888526282	
0.085	-0.044	-0.048110057876377586	
0.09	-0.060	-0.06130873260377959	
0.095	-0.125	-0.0707421179613246	
0.1	-0.079	-0.07825521426802046	
0.105	-0.037	-0.08365163158563613	
0.11	-0.098	-0.08296653692150036	
0.115	-0.082	-0.08079801638997816	
0.12	0.008	-0.07611137697387754	
0.125	-0.040	-0.06672209637450796	
0.13	-0.060	-0.05449265754877709	
0.135	0.047	-0.04296185049686228	
0.14	0.047	-0.027100090330278333	
0.145	-0.041	-0.010008985059712882	
0.15	0.018	0.0016964066142697556	
0.155	0.075	0.009614967381458613	
0.16	-0.014	0.016914896301308664	
0.165	-0.003	0.021016489121644097	
0.17	0.093	0.02309882773016049	
0.175	0.015	0.027323761122417668	
0.18	-0.040	0.028282240817591807	
0.185	0.038	0.024113863016886332	
0.19	0.023	0.019055685630211105	
0.195	-0.070	0.012833452426362302	
0.2	-0.031	0.002643142642609346	
0.205	-0.008	-0.010210603491864461	
0.21	-0.099	-0.023130690496159366	
0.215	-0.101	-0.03711493823960567	
0.22	-0.032	-0.05178639874865395	
0.225	-0.085	-0.06361770426411244	
0.23	-0.127	-0.07184598087613683	
0.235	-0.063	-0.07985797963152286	
0.24	-0.069	-0.0848396155031072	
0.245	-0.122	-0.0882473520760965	
0.25	-0.072	-0.08839653259492167	
0.255	-0.029	-0.08610464140204374	
0.26	-0.096	-0.08215305650982846	
0.265	-0.093	-0.07719935338861017	
0.27	-0.047	-0.07471605700516196	
0.275	-0.110	-0.07659048382232765	
0.28	-0.114	-0.07994146510325288	
0.285	0.052	-0.07781927506375547	
0.29	0.215	-0.054740934290493405	
0.295	0.367	0.004704243829579985	
0.3	0.716	0.11260695199130294	
0.305	0.933	0.2700157887911575	
0.31	0.773	0.4508099922813817	
0.315	0.472	0.5936544827960886	
0.32	0.114	0.6402521869742585	
0.325	-0.188	0.5663838019811551	
0.33	-0.320	0.3989706991954449	
0.335	-0.305	0.193196146352212	
0.34	-0.300	-0.002675660989232445	
0.345	-0.316	-0.15533725244248375	
0.35	-0.236	-0.2534198144173935	
0.355	-0.165	-0.298926505442195	
0.36	-0.192	-0.30418279522831887	
0.365	-0.163	-0.2813157058056628	
0.37	-0.093	-0.2445904979627465	
0.375	-0.119	-0.2065452676440786	
0.38	-0.137	-0.17009565109655067	
0.385	-0.067	-0.1397813336017324	
0.39	-0.064	-0.11665285622244632	
0.395	-0.122	-0.09945846183044071	
0.4	-0.075	-0.08745877840798189	
0.405	-0.029	-0.07986321068459776	
0.41	-0.093	-0.07425449780599647	
0.415	-0.076	-0.06937666964857866	
0.42	0.018	-0.0634950245528436	
0.425	-0.029	-0.054544891005364735	
0.43	-0.060	-0.044182744103629365	
0.435	0.053	-0.032716808721066915	
0.44	0.072	-0.017593121340762827	
0.445	0.008	0.0014595907476478043	
0.45	0.099	0.021543903809353036	
0.455	0.171	0.04421925636176491	
0.46	0.078	0.06870244989330404	
0.465	0.084	0.08856931077833377	
0.47	0.178	0.10355994520952888	
0.475	0.099	0.11346307731327528	
0.48	0.017	0.11575546653618934	
0.485	0.088	0.1082900561874063	
0.49	0.053	0.09444047167064418	
0.495	-0.056	0.07442959572255492	
0.5	-0.027	0.05051954836661967	
0.505	-0.002	0.023246835719903245	
0.51	-0.090	-0.002286840865388856	
0.515	-0.101	-0.025448633868495538	
0.52	-0.044	-0.046432415402571224	
0.525	-0.096	-0.06451571433542841	
0.53	-0.136	-0.07824291018085988	
0.535	-0.076	-0.08770859424008248	
0.54	-0.087	-0.09555149989249001	
0.545	-0.156	-0.10257019738487104	
0.55	-0.114	-0.10747547853446919	
0.555	-0.085	-0.11174835673900899	
0.56	-0.154	-0.11630107786794631	
0.565	-0.154	-0.12045082802488453	
0.57	-0.089	-0.12441455697814378	
0.575	-0.122	-0.12652668682018148	
0.58	-0.143	-0.12626092926676674	
0.585	-0.075	-0.12268594920005046	
0.59	-0.067	-0.1165437675037077	
0.595	-0.116	-0.10859855791312258	
0.6	-0.067	-0.09846587375649973	
0.605	-0.023	-0.08872477621019018	
0.61	-0.098	-0.07932779304671136	
0.615	-0.089	-0.07246152148394838	
0.62	-0.008	-0.06738426511344064	
0.625	-0.056	-0.06253807224575123	
0.63	-0.102	-0.059289067386627745	
0.635	-0.044	-0.05766558032798699	
0.64	-0.055	-0.059537800288943586	
0.645	-0.137	-0.0646300957514811	
0.65	-0.105	-0.0724589162567162	
0.655	-0.058	-0.08170169540662058	
0.66	-0.136	-0.09034583064420904	
0.665	-0.153	-0.09846739768059973	
0.67	-0.108	-0.10836254651231514	
0.675	-0.157	-0.11954970798889464	
0.68	-0.194	-0.1323031666689477	
0.685	-0.133	-0.14163741074151232	
0.69	-0.131	-0.14953150216132832	
0.695	-0.186	-0.15465526842771946	
0.7	-0.153	-0.1554398281535264	
0.705	-0.117	-0.1556794567111907	
0.71	-0.171	-0.15538317403677698	
0.715	-0.168	-0.15346974031252092	
0.72	-0.108	-0.1513131850068929	
0.725	-0.160	-0.1505762834239673	
0.73	-0.203	-0.1513458573298821	
0.735	-0.125	-0.1525838593178916	
0.74	-0.064	-0.15051829966788974	
0.745	-0.027	-0.13671109995405134	
0.75	0.279	-0.09438232362009566	
0.755	0.646	-0.0015814838107682354	
0.76	0.750	0.14759220499702805	
0.765	0.761	0.3305033979620662	
0.77	0.627	-0.13671109995405134	
0.775	0.107	0.5783200556515042	
0.78	-0.213	0.542517339346162	
0.785	-0.279	0.399426228595843	
0.79	-0.339	0.20252626008100197	
0.795	-0.396	0.004251291000389913	
0.8	-0.335	-0.15839293409141397	
0.805	-0.262	-0.27154383043519603	
0.81	-0.277	-0.3314251126817697	
0.815	-0.244	-0.34751132418711217	
0.82	-0.163	-0.33221027614484633	
0.825	-0.183	-0.30156849704994937	
0.83	-0.206	-0.264435505768379	
0.835	-0.133	-0.2275446396847185	
0.84	-0.130	-0.19746741787646732	
0.845	-0.175	-0.17380207676486287	
0.85	-0.122	-0.1554291425846191	
0.855	-0.075	-0.1405470346753649	
0.86	-0.131	-0.12847571756435056	
0.865	-0.124	-0.11855148859276013	
0.87	-0.052	-0.10917759531070163	
0.875	-0.085	-0.1025738104021447	
0.88	-0.108	-0.09547977332523992	
0.885	-0.011	-0.08550415173857866	
0.89	0.001	-0.07242809843560322	
0.895	-0.060	-0.057856611279365366	
0.9	0.020	-0.041428699896064194	
0.905	0.120	-0.02147791529368644	
0.91	0.043	0.003494529908120792	
0.915	0.055	0.029400074500742095	
0.92	0.169	0.05287923321660435	
0.925	0.113	0.0754401428319866	
0.93	0.035	0.09245308135798026	
0.935	0.128	0.10050200454974481	
0.94	0.117	0.10361285417166827	
0.945	-0.009	0.1001115636088463	
0.95	0.021	0.08853886813214464	
0.955	0.052	0.07054376383255591	
0.96	-0.067	0.04850496830003461	
0.965	-0.076	0.022374755837121847	
0.97	-0.008	-0.0021235695600324185	
0.975	-0.067	-0.024524634369548083	
0.98	-0.113	-0.04254315132942571	
0.985	-0.047	-0.05652233317424761	
0.99	-0.064	-0.06736330316761813	
0.995	-0.137	-0.07686316596874768	
1.0	-0.099	-0.08348834836278005	
1.005	-0.056	-0.09045243767458355	
1.01	-0.130	-0.09546122536108362	
1.015	-0.130	-0.09964499497836374	
1.02	-0.053	-0.10114048144337554	
1.025	-0.096	-0.10149627335225782	
1.03	-0.134	-0.1005512085377174	
1.035	-0.052	-0.09754826346956233	
1.04	-0.035	-0.09333906917119597	
1.045	-0.095	-0.08485263071191063	
1.05	-0.034	-0.07451610680500144	
1.055	0.035	-0.06144333253374219	
1.06	-0.044	-0.047439565963630116	
1.065	-0.037	-0.03366971152753042	
1.07	0.064	-0.021152013044510982	
1.075	0.012	-0.009469802914515641	
1.08	-0.034	0.00044160538056101084	
1.085	0.055	0.008424582890146484	
1.09	0.035	0.013675627083725442	
1.095	-0.066	0.01515663153444349	
1.1	-0.023	0.010450466052218027	
1.105	0.020	0.001554247983402328	
1.11	-0.075	-0.008406687655073426	
1.115	-0.087	-0.019684384138237185	
1.12	-0.023	-0.03217984981325822	
1.125	-0.087	-0.046440585230153965	
1.13	-0.142	-0.05954185399015419	
1.135	-0.082	-0.07361055848094268	
1.14	-0.090	-0.08631978042070848	
1.145	-0.157	-0.09880202454540814	
1.15	-0.116	-0.10756295908764131	
1.155	-0.066	-0.11246670624693084	
1.16	-0.128	-0.11437481412870203	
1.165	-0.127	-0.11367877929349354	
1.17	-0.046	-0.11020767537957131	
1.175	-0.089	-0.10442219694509927	
1.18	-0.140	-0.09952712801700646	
1.185	-0.093	-0.09764581243113118	
1.19	-0.099	-0.09931710214826278	
1.195	-0.131	-0.10377264929688924	
1.2	0.017	-0.09958273407766396	
1.205	0.283	-0.07045271637284953	
1.21	0.453	0.0017020484160345313	
1.215	0.753	0.12833908133288213	
1.22	1.050	0.3077810601606262	
1.225	0.948	0.5116120426112367	
1.23	0.553	0.6784157647829914	
1.235	0.143	0.7401889515722163	
1.24	-0.154	0.6636217977332601	
1.245	-0.323	0.47926211441738603	
1.25	-0.334	0.25038815081162286	
1.255	-0.288	0.03351974205454496	
1.26	-0.303	-0.1392534197690671	
1.265	-0.264	-0.24965200067533044	
1.27	-0.171	-0.3022512992349471	
1.275	-0.177	-0.3113601799119333	
1.28	-0.194	-0.29148919487383984	
1.285	-0.119	-0.2566958993105745	
1.29	-0.099	-0.21830659231724686	
1.295	-0.153	-0.1827434473469922	
1.3	-0.108	-0.1526268262017569	
1.305	-0.053	-0.12848908961927685	
1.31	-0.113	-0.11131893339948165	
1.315	-0.110	-0.09871063932420304	
1.32	-0.020	-0.0882387105285592	
1.325	-0.055	-0.079375287550007	
1.33	-0.095	-0.07053943309893516	
1.335	-0.005	-0.06167127917627124	
1.34	0.027	-0.05127137114391923	
1.345	-0.044	-0.03878235044972858	
1.35	0.030	-0.02362714663316633	
1.355	0.134	-0.0044334115129224805	
1.36	0.058	0.018664409403717053	
1.365	0.075	0.04325397176361106	
1.37	0.212	0.06880195857179754	
1.375	0.172	0.09663959053064657	
1.38	0.111	0.12341543921731701	
1.385	0.209	0.14433016841656882	
1.39	0.206	0.1607566651198496	
1.395	0.076	0.16819179511419993	
1.4	0.102	0.1653407444650179	
1.405	0.145	0.15358244698968798	
1.41	0.015	0.1346759330880829	
1.415	-0.018	0.11022593233511482	
1.42	0.058	0.08079099368350218	
1.425	-0.021	0.05267017933569747	
1.43	-0.087	0.025420995186392403	
1.435	-0.024	0.0003027806950712861	
1.44	-0.027	-0.021223885608092165	
1.445	-0.114	-0.03876779945823426	
1.45	-0.095	-0.05368086637192625	
1.455	-0.055	-0.06743546945561732	
1.46	-0.131	-0.08027923963127923	
1.465	-0.137	-0.09076683264546061	
1.47	-0.070	-0.09925050452469991	
1.475	-0.114	-0.1063115392551624	
1.48	-0.154	-0.11154846753253303	
1.485	-0.081	-0.11273056302277602	
1.49	-0.063	-0.11223365624893174	
1.495	-0.117	-0.10873517293597668	
1.5	-0.070	-0.10068917778684447	
1.505	-0.003	-0.08945266666308158	
1.51	-0.070	-0.07726279449466891	
1.515	-0.063	-0.06576947386510329	
1.52	0.032	-0.05226282173876507	
1.525	-0.021	-0.040299078266884766	
1.53	-0.082	-0.03155854447911283	
1.535	0.000	-0.026750709681706522	
1.54	0.014	-0.024212497698187747	
1.545	-0.069	-0.022733040881107044	
1.55	-0.032	-0.021724108129592343	
1.555	0.020	-0.02243935116685117	
1.56	-0.072	-0.0242365179102794	
1.565	-0.087	-0.028803547905266676	
1.57	-0.018	-0.03627578527020533	
1.575	-0.070	-0.04525941809533367	
1.58	-0.128	-0.05456277505204976	
1.585	-0.082	-0.06478110525700825	
1.59	-0.090	-0.07719200447205785	
1.595	-0.162	-0.0907173240107542	
1.6	-0.139	-0.10374963009997516	
1.605	-0.093	-0.11443430719339386	
1.61	-0.153	-0.12421092084170371	
1.615	-0.160	-0.1298165653194152	
1.62	-0.093	-0.1332807197572624	
1.625	-0.124	-0.13423820392686586	
1.63	-0.166	-0.13457289851435128	
1.635	-0.104	-0.13179019425530036	
1.64	-0.093	-0.1291670402866831	
1.645	-0.172	-0.12772730270614568	
1.65	-0.160	-0.128776474943409	
1.655	-0.095	-0.13140896500067023	
1.66	-0.081	-0.13220072019786452	
1.665	0.075	-0.11483460390781389	
1.67	0.479	-0.05722101806770861	
1.675	0.785	0.061840309267251044	
1.68	0.976	0.24842006499788233	
1.685	1.098	0.4742017126502514	
1.69	0.848	0.6818225380702678	
1.695	0.184	-0.11483460390781389	
1.7	-0.159	0.7530752417427182	
1.705	-0.271	0.5765873538830527	
1.71	-0.387	0.32984543117596166	
1.715	-0.392	0.08213746397720037	
1.72	-0.305	-0.12024755253652258	
1.725	-0.290	-0.2601215357588197	
1.73	-0.294	-0.33557146152140394	
1.735	-0.212	-0.3578301604137003	
1.74	-0.186	-0.34610279909145775	
1.745	-0.233	-0.3166944263177558	
1.75	-0.194	-0.2798413743727073	
1.755	-0.136	-0.24440808239966144	
1.76	-0.178	-0.21514988450191797	
1.765	-0.178	-0.18988975181778361	
1.77	-0.108	-0.17030716731588302	
1.775	-0.134	-0.15616421504859027	
1.78	-0.163	-0.1466004848849687	
1.785	-0.087	-0.13584648336028132	
1.79	-0.067	-0.12610654904478014	
1.795	-0.127	-0.11671064763356664	
1.8	-0.081	-0.10583925697801765	
1.805	-0.003	-0.0943787110348171	
1.81	-0.063	-0.08116152618736747	
1.815	-0.049	-0.06590810894412205	
1.82	0.084	-0.04826745156376709	
1.825	0.062	-0.025151893244752893	
1.83	0.021	0.0013614169142265983	
1.835	0.160	0.029167160727148384	
1.84	0.192	0.06092537315108574	
1.845	0.062	0.09126101049212977	
1.85	0.102	0.11113195349677549	
1.855	0.160	0.12063581189753055	
1.86	0.040	0.12084786364587845	
1.865	-0.002	0.11106509353584756	
1.87	0.062	0.0927086432646767	
1.875	-0.023	0.06887100397831655	
1.88	-0.099	0.0393723771068804	
1.885	-0.046	0.009124689159926869	
1.89	-0.055	-0.02106946279482026	
1.895	-0.143	-0.04768543021748876	
1.9	-0.127	-0.07088527666523395	
1.905	-0.093	-0.09138912070628365	
1.91	-0.165	-0.10910019711908417	
1.915	-0.185	-0.12492347357937866	
1.92	-0.127	-0.13733391384389004	
1.925	-0.160	-0.1491014334637078	
1.93	-0.203	-0.15759363349989147	
1.935	-0.149	-0.16291423502984942	
1.94	-0.137	-0.1660751737292281	
1.945	-0.188	-0.16764916519399425	
1.95	-0.153	-0.1649033364941656	
1.955	-0.099	-0.1604083129284763	
1.96	-0.149	-0.15407449122999883	
1.965	-0.154	-0.14692735498156623	
1.97	-0.076	-0.139354578681684	
1.975	-0.102	-0.1310861364071651	
1.98	-0.140	-0.12259008292210462	
1.985	-0.072	-0.11393457893966547	
1.99	-0.058	-0.10606860024563225	
1.995	-0.133	-0.09964030505767013	
2.0	-0.101	-0.09492319340311824	
2.005	-0.038	-0.09141047105303862	
2.01	-0.105	-0.08905680134194126	
2.015	-0.111	-0.08693826982184916	
2.02	-0.041	-0.08436570300140339	
2.025	-0.082	-0.08306902149270651	
2.03	-0.140	-0.08359482967727039	
2.035	-0.087	-0.08595277695593587	
2.04	-0.078	-0.09105271733503728	
2.045	-0.149	-0.09663271566869122	
2.05	-0.131	-0.1029422334708295	
2.055	-0.096	-0.10940252291536161	
2.06	-0.166	-0.11804449623004169	
2.065	-0.185	-0.12795846991559792	
2.07	-0.116	-0.13636284454826997	
2.075	-0.143	-0.144044562154629	
2.08	-0.191	-0.1496103285513919	
2.085	-0.125	-0.150959486880573	
2.09	-0.107	-0.15102078029635024	
2.095	-0.165	-0.14864469593177526	
2.1	-0.137	-0.14396696908093531	
2.105	-0.081	-0.1373652603165496	
2.11	-0.145	-0.13304176820654634	
2.115	-0.171	-0.1300062023776502	
2.12	-0.108	-0.12933561890478287	
2.125	-0.093	-0.1300148681125453	
2.13	-0.024	-0.12265768349005768	
2.135	0.312	-0.08492211836102619	
2.14	0.703	0.009093731499699387	
2.145	0.971	0.17435600533994058	
2.15	1.204	0.4040121127888931	
2.155	1.200	0.6546894755651576	
2.16	0.666	0.8508724972104447	
2.165	0.032	0.9097759629320483	
2.17	-0.183	0.7986053034254716	
2.175	-0.325	0.5630411802381879	
2.18	-0.401	0.28631148906000303	
2.185	-0.332	0.03304780923386337	
2.19	-0.279	-0.160865082317809	
2.195	-0.294	-0.28364208663379914	
2.2	-0.233	-0.3400155518293565	
2.205	-0.159	-0.3462691118886163	
2.21	-0.197	-0.3230139165971563	
2.215	-0.191	-0.2850860609671582	
2.22	-0.108	-0.24330445259081884	
2.225	-0.124	-0.20496776918372248	
2.23	-0.163	-0.17273123705090077	
2.235	-0.095	-0.14696844183330215	
2.24	-0.066	-0.12791215013324486	
2.245	-0.124	-0.11371853979734409	
2.25	-0.079	-0.10102854162365216	
2.255	0.000	-0.0882551217890726	
2.26	-0.069	-0.0760543064755208	
2.265	-0.069	-0.0641005195347568	
2.27	0.056	-0.05025579324641673	
2.275	0.046	-0.03397034018492606	
2.28	-0.008	-0.01376612062217206	
2.285	0.130	0.010070696399035864	
2.29	0.189	0.03811772089827726	
2.295	0.111	0.07123835831921038	
2.3	0.187	0.10497258830722549	
2.305	0.299	0.13878407694795647	
2.31	0.201	0.17191993263806188	
2.315	0.165	0.197872598010026	
2.32	0.253	0.2127626193254945	
2.325	0.187	0.21801921622768936	
2.33	0.073	0.21120949043192278	
2.335	0.146	0.19507354544044297	
2.34	0.140	0.17311549777378915	
2.345	-0.005	0.1472334094573101	
2.35	0.004	0.11597126843512766	
2.355	0.053	0.08277468358933217	
2.36	-0.056	0.05093514216350385	
2.365	-0.095	0.019892662561520575	
2.37	-0.027	-0.0092549124389594	
2.375	-0.081	-0.034969933561929276	
2.38	-0.142	-0.05774874993057356	
2.385	-0.084	-0.07594603841699982	
2.39	-0.073	-0.0889024316731539	
2.395	-0.145	-0.09971867205443034	
2.4	-0.120	-0.10502915241103028	
2.405	-0.061	-0.1092667295285798	
2.41	-0.127	-0.11103617859685486	
2.415	-0.142	-0.111085464194487	
2.42	-0.061	-0.11029677514150726	
2.425	-0.090	-0.1079673705152281	
2.43	-0.139	-0.10571567575723717	
2.435	-0.067	-0.10197402834724756	
2.44	-0.041	-0.0969208850008988	
2.445	-0.116	-0.0916853846376659	
2.45	-0.081	-0.08503660901113165	
2.455	-0.015	-0.07929797823859602	
2.46	-0.092	-0.07401332852270755	
2.465	-0.107	-0.07107509210713639	
2.47	-0.020	-0.06933086681662334	
2.475	-0.047	-0.06695586085519581	
2.48	-0.102	-0.06468820134846835	
2.485	-0.032	-0.06100466702236715	
2.49	-0.014	-0.057930664486672	
2.495	-0.098	-0.05464962938595776	
2.5	-0.081	-0.054053008860854096	
2.505	-0.027	-0.05633015668479677	
2.51	-0.108	-0.06097872551975322	
2.515	-0.125	-0.06806251409573678	
2.52	-0.052	-0.07537377720817623	
2.525	-0.101	-0.08294243005713041	
2.53	-0.171	-0.0916545649827448	
2.535	-0.119	-0.10204375178021624	
2.54	-0.108	-0.11294319920560396	
2.545	-0.172	-0.12359886692080033	
2.55	-0.153	-0.131065250842847	
2.555	-0.098	-0.13636474436034535	
2.56	-0.143	-0.13993721895783354	
2.565	-0.160	-0.13904717710072026	
2.57	-0.089	-0.1364169918463518	
2.575	-0.114	-0.13393145318410582	
2.58	-0.162	-0.13062155207958356	
2.585	-0.116	-0.12706672884168738	
2.59	-0.119	-0.12696094971900115	
2.595	-0.172	-0.12958081778584982	
2.6	-0.085	-0.13005969432348952	
2.605	0.146	-0.1143608531279105	
2.61	0.315	-0.06490154794546096	
2.615	0.611	0.03699903961761093	
2.62	0.979	0.19861420900243432	
2.625	0.954	0.40107428908147774	
2.63	0.623	0.5883266187885574	
2.635	0.229	-0.1143608531279105	
2.64	-0.117	0.6519445339586093	
2.645	-0.322	0.4964036465969349	
2.65	-0.366	0.2789522204281224	
2.655	-0.329	0.05762894078848294	
2.66	-0.342	-0.12790444964980582	
2.665	-0.316	-0.25598309621322696	
2.67	-0.210	-0.3233874050652449	
2.675	-0.191	-0.342938706534629	
2.68	-0.215	-0.32660740496104024	
2.685	-0.140	-0.2910321762321949	
2.69	-0.102	-0.24797503156972273	
2.695	-0.160	-0.2066145773777293	
2.7	-0.130	-0.17103627621036374	
2.705	-0.066	-0.14436594041699136	
2.71	-0.113	-0.12399216531597276	
2.715	-0.127	-0.11003404422978602	
2.72	-0.037	-0.09836322933870247	
2.725	-0.058	-0.08898089162157777	
2.73	-0.110	-0.08166085302371248	
2.735	-0.029	-0.07298670012272215	
2.74	0.012	-0.06395581175157346	
2.745	-0.058	-0.05366723058521865	
2.75	-0.008	-0.04001190351716461	
2.755	0.107	-0.024308072091152762	
2.76	0.046	-0.0040344776212399335	
2.765	0.037	0.018944235045574558	
2.77	0.181	0.04370126602844275	
2.775	0.152	0.07000638561156275	
2.78	0.067	0.09428203374213476	
2.785	0.163	0.11305328131609185	
2.79	0.180	0.12706347205094976	
2.795	0.046	0.13427217586732057	
2.8	0.056	0.1299891068576338	
2.805	0.113	0.11772397879386068	
2.81	-0.008	0.09993465667585213	
2.815	-0.050	0.07492574186702088	
2.82	0.021	0.04772352366165653	
2.825	-0.026	0.022011321081252026	
2.83	-0.104	-0.002724427669555383	
2.835	-0.056	-0.023944718714535348	
2.84	-0.047	-0.04392525604120863	
2.845	-0.133	-0.060712837921091445	
2.85	-0.116	-0.07501280323076637	
2.855	-0.066	-0.08727791387299595	
2.86	-0.137	-0.0980477256551154	
2.865	-0.157	-0.10707153935328839	
2.87	-0.079	-0.11328797180271319	
2.875	-0.111	-0.11798206586838117	
2.88	-0.166	-0.1217212169821212	
2.885	-0.113	-0.12295395611824866	
2.89	-0.079	-0.12392114090734387	
2.895	-0.146	-0.12371141487144204	
2.9	-0.111	-0.12002011957825272	
2.905	-0.037	-0.11426811146036124	
2.91	-0.104	-0.10604629378232928	
2.915	-0.111	-0.09808907307891385	
2.92	-0.003	-0.08927944938725028	
2.925	-0.027	-0.07696629827408649	
2.93	-0.096	-0.06574080066104926	
2.935	-0.020	-0.05496530551347795	
2.94	0.014	-0.04689927187479352	
2.945	-0.079	-0.03971380152394229	
2.95	-0.058	-0.0360495666650299	
2.955	0.011	-0.035262450868135245	
2.96	-0.070	-0.036022704421588114	
2.965	-0.101	-0.04010876396520384	
2.97	-0.026	-0.045300797040737334	
2.975	-0.061	-0.05193960722470792	
2.98	-0.125	-0.05973397242951975	
2.985	-0.064	-0.0659943084488911	
2.99	-0.055	-0.07288542642376104	
2.995	-0.142	-0.07968994216125817	
3.0	-0.133	-0.08707615007163653	
3.005	-0.081	-0.0962667142447711	
3.01	-0.146	-0.10699241692724121	
3.015	-0.171	-0.11612110115217855	
3.02	-0.096	-0.12431408587147912	
3.025	-0.114	-0.12891309570784906	
3.03	-0.171	-0.13173525777183082	
3.035	-0.117	-0.13201534012452043	
3.04	-0.090	-0.13186991901647938	
3.045	-0.156	-0.13067990830512508	
3.05	-0.139	-0.12809331959966958	
3.055	-0.079	-0.1262616382951075	
3.06	-0.139	-0.12498070500273181	
3.065	-0.143	-0.12413550651219937	
3.07	0.012	-0.11631035553988957	
3.075	0.152	-0.09288115382052979	
3.08	0.293	-0.036717265369114786	
3.085	0.655	0.0650116296789161	
3.09	0.877	0.21617462994068726	
3.095	0.724	0.39331051539016415	
3.1	0.474	0.5388261068222298	
3.105	0.136	0.5956512890557895	
3.11	-0.194	0.5359653107594418	
3.115	-0.319	0.38183906328372663	
3.12	-0.300	0.18669025670268938	
3.125	-0.314	-0.003866066388201716	
3.13	-0.325	-0.15571521465537552	
3.135	-0.238	-0.25299235220975524	
3.14	-0.175	-0.3008208906164771	
3.145	-0.210	-0.30868041227603854	
3.15	-0.169	-0.28810593591822964	
3.155	-0.087	-0.25322170854124393	
3.16	-0.128	-0.2139871158667659	
3.165	-0.151	-0.17718400719974348	
3.17	-0.067	-0.14628369929796592	
3.175	-0.078	-0.12388180238465814	
3.18	-0.133	-0.10781251101992614	
3.185	-0.066	-0.09500273354770528	
3.19	-0.015	-0.08479301071622183	
3.195	-0.102	-0.07675568667444586	
3.2	-0.073	-0.06913230510056192	
3.205	0.027	-0.06114626812078452	
3.21	-0.043	-0.05301258023699772	
3.215	-0.063	-0.043242417547689996	
3.22	0.058	-0.033207749812801	
3.225	0.061	-0.01885165402592194	
3.23	-0.003	-0.0018927844286722399	
3.235	0.119	0.01802566148212993	
3.24	0.184	0.043278829934390806	
3.245	0.068	0.07018254298164883	
3.25	0.097	0.0928296930885977	
3.255	0.192	0.10891999638742411	
3.26	0.093	0.11997796468163172	
3.265	0.029	0.12269325203394639	
3.27	0.123	0.11681680966734875	
3.275	0.067	0.106180326789784	
3.28	-0.049	0.08906250113779884	
3.285	0.012	0.0670040131373573	
3.29	0.030	0.043316553384470505	
3.295	-0.082	0.020188133950152443	
3.3	-0.078	-0.0021996985860473287	
3.305	-0.011	-0.0230651998353628	
3.31	-0.087	-0.04098618667921328	
3.315	-0.125	-0.05532006517991351	
3.32	-0.050	-0.06719867428147755	
3.325	-0.079	-0.0777883517121155	
3.33	-0.149	-0.085927039936387	
3.335	-0.098	-0.09302153706944816	
3.34	-0.069	-0.09867633546387052	
3.345	-0.145	-0.10479308196964243	
3.35	-0.128	-0.10721480083208412	
3.355	-0.056	-0.10907063239409674	
3.36	-0.117	-0.10997476766160945	
3.365	-0.131	-0.10832725985400857	
3.37	-0.040	-0.10419915201192038	
3.375	-0.053	-0.09777928806174727	
3.38	-0.114	-0.08993864282580871	
3.385	-0.043	-0.08102201232290827	
3.39	0.009	-0.07166077329217205	
3.395	-0.078	-0.06080591030376786	
3.4	-0.053	-0.05122585069931629	
3.405	0.033	-0.04305501380730106	
3.41	-0.041	-0.03497729977453912	
3.415	-0.063	-0.029343794553184244	
3.42	0.023	-0.02519575507016395	
3.425	0.001	-0.02177233735814149	
3.43	-0.089	-0.01994521027175698	
3.435	-0.032	-0.02203198145215851	
3.44	-0.006	-0.026660581067926112	
3.445	-0.107	-0.033796012494913374	
3.45	-0.096	-0.043231516752113536	
3.455	-0.026	-0.054067822605393286	
3.46	-0.099	-0.06396036937083946	
3.465	-0.140	-0.0733321210885799	
3.47	-0.079	-0.08222018798972175	
3.475	-0.104	-0.09277217061827384	
3.48	-0.168	-0.1029165090420469	
3.485	-0.113	-0.11104043666615163	
3.49	-0.082	-0.11767658803111117	
3.495	-0.149	-0.12177292591890686	
3.5	-0.133	-0.12222035210444972	
3.505	-0.064	-0.12108869576173588	
3.51	-0.122	-0.11896188018709276	
3.515	-0.151	-0.11631437692296437	
3.52	-0.075	-0.11322387591089494	
3.525	-0.110	-0.11278819656923904	
3.53	-0.180	-0.11491326660938261	
3.535	-0.099	-0.11702828421798091	
3.54	0.040	-0.11367881063397828	
3.545	0.093	-0.0907644236650953	
3.55	0.367	-0.03217464554185588	
3.555	0.771	0.07795456544947504	
3.56	0.855	0.24104912644665652	
3.565	0.770	0.427678695832626	
3.57	0.614	0.5827244434786356	
3.575	0.108	0.6461068819412759	
3.58	-0.230	0.5840082420890443	
3.585	-0.297	0.41895707645750674	
3.59	-0.317	0.20733145353165933	
3.595	-0.372	0.0022423593256082315	
3.6	-0.325	-0.16118210526563717	
3.605	-0.232	-0.2680464970244645	
3.61	-0.233	-0.3219345971485721	
3.615	-0.229	-0.33030976873289103	
3.62	-0.153	-0.31021708223814626	
3.625	-0.151	-0.27676788996839974	
3.63	-0.197	-0.24092333007063352	
3.635	-0.140	-0.20705357825502402	
3.64	-0.096	-0.1796662934368962	
3.645	-0.157	-0.1577778250528088	
3.65	-0.136	-0.14124839879599393	
3.655	-0.055	-0.12807254507081356	
3.66	-0.105	-0.11694091736044997	
3.665	-0.130	-0.10835309356666084	
3.67	-0.040	-0.09922682942240393	
3.675	-0.046	-0.09073522914307619	
3.68	-0.104	-0.08193789372152577	
3.685	-0.024	-0.07207294112854781	
3.69	0.047	-0.05962539483915912	
3.695	-0.029	-0.04376720666114104	
3.7	0.015	-0.024285022810914922	
3.705	0.145	-0.003052174972873664	
3.71	0.084	0.023092941357596864	
3.715	0.052	0.04861186070967809	
3.72	0.180	0.07275605288543723	
3.725	0.160	0.09430336244897836	
3.73	0.041	0.11105383375519706	
3.735	0.111	0.11887967971186326	
3.74	0.137	0.11838674721205816	
3.745	-0.009	0.1102599655898469	
3.75	-0.015	0.09367479057084802	
3.755	0.061	0.0709225531390596	
3.76	-0.041	0.04613974472298737	
3.765	-0.102	0.019614070388735312	
3.77	-0.037	-0.00629383273845962	
3.775	-0.063	-0.03166689344894131	
3.78	-0.134	-0.05289665776823004	
3.785	-0.090	-0.07015942967462638	
3.79	-0.069	-0.0836234580015493	
3.795	-0.153	-0.09567960641403385	
3.8	-0.153	-0.10533621047849395	
3.805	-0.093	-0.11511972068097075	
3.81	-0.143	-0.12382055701123672	
3.815	-0.174	-0.1303651690692849	
3.82	-0.102	-0.13433809379248657	
3.825	-0.107	-0.13565862911061938	
3.83	-0.162	-0.13486269381710053	
3.835	-0.107	-0.13119013664812107	
3.84	-0.064	-0.1256384085274866	
3.845	-0.120	-0.11964405140291368	
3.85	-0.093	-0.11034346220779895	
3.855	-0.002	-0.09814243358496981	
3.86	-0.061	-0.08479727100259482	
3.865	-0.089	-0.07136537478978466	
3.87	0.004	-0.059365961126997095	
3.875	-0.011	-0.049644585665845814	
3.88	-0.085	-0.04185439589678641	
3.885	-0.021	-0.03621702428965903	
3.89	0.023	-0.03163125647901659	
3.895	-0.072	-0.029626889225844253	
3.9	-0.058	-0.02836964545245082	
3.905	0.018	-0.02914877028865949	
3.91	-0.070	-0.031772142248053	
3.915	-0.114	-0.03737995120523732	
3.92	-0.040	-0.04638474143815379	
3.925	-0.064	-0.05561626308943927	
3.93	-0.143	-0.06684974004661312	
3.935	-0.107	-0.07724761499448876	
3.94	-0.085	-0.08861484856195967	
3.945	-0.168	-0.10160432090670383	
3.95	-0.162	-0.11440056370499192	
3.955	-0.104	-0.12514716072000642	
3.96	-0.154	-0.13473282202087924	
3.965	-0.183	-0.1414009387288776	
3.97	-0.117	-0.14540291649769038	
3.975	-0.127	-0.14757418114559953	
3.98	-0.183	-0.148858937455113	
3.985	-0.136	-0.1472832939831219	
3.99	-0.099	-0.14557473936501092	
3.995	-0.169	-0.14459456606474108	
4.0	-0.180	-0.14345203734607798	
4.005	-0.116	-0.14412366433811513	
4.01	-0.110	-0.14570112704295765	
4.015	-0.012	-0.13544130241165594	
4.02	0.360	-0.091359743209048	
4.025	0.701	0.00953057039714891	
4.03	0.931	0.18013427995740688	
4.035	1.146	-0.091359743209048	
4.04	1.062	0.638463208961622	
4.045	0.485	0.8052971003435686	
4.05	-0.044	0.8333558184113923	
4.055	-0.197	0.7038447591226191	
4.06	-0.332	0.4713458590881615	
4.065	-0.389	0.21252852744085027	
4.07	-0.306	-0.015382257484263997	
4.075	-0.270	-0.1864396346906819	
4.08	-0.279	-0.2898634590623933	
4.085	-0.203	-0.3313086252736856	
4.09	-0.151	-0.3294943415699759	
4.095	-0.204	-0.30359448564513486	
4.1	-0.180	-0.2665053131851356	
4.105	-0.107	-0.22808265334913608	
4.11	-0.146	-0.19569337175966728	
4.115	-0.166	-0.16950763980854017	
4.12	-0.084	-0.14837272459990286	
4.125	-0.079	-0.1315008816725003	
4.13	-0.137	-0.1189538217722269	
4.135	-0.072	-0.10629024715156765	
4.14	-0.008	-0.09447246166364398	
4.145	-0.084	-0.08266437531221979	
4.15	-0.056	-0.06950426356159822	
4.155	0.055	-0.0550061221851428	
4.16	0.008	-0.03872795101087591	
4.165	-0.020	-0.020555164354478444	
4.17	0.123	-0.0002965012407318639	
4.175	0.143	0.02451511523756983	
4.18	0.070	0.0519695094279505	
4.185	0.183	0.08174436980306779	
4.19	0.251	0.11158350859101301	
4.195	0.128	0.14026559727061325	
4.2	0.146	0.16147277067712273	
4.205	0.233	0.1740568620061352	
4.21	0.119	0.1782410415214793	
4.215	0.030	0.1703878467407725	
4.22	0.113	0.1527436103429778	
4.225	0.065	0.12752742979567946	
4.23	-0.060	0.09891855319013668	
4.235	-0.018	0.06675573288820745	
4.24	0.006	0.03361691451992816	
4.245	-0.096	0.003243927480032645	
4.25	-0.098	-0.022524454058105763	
4.255	-0.032	-0.0449080136673231	
4.26	-0.101	-0.06276719343782679	
4.265	-0.136	-0.07661416167952367	
4.27	-0.058	-0.08622216122714457	
4.275	-0.070	-0.09147970245518988	
4.28	-0.140	-0.09510107220159385	
4.285	-0.081	-0.09621562678493184	
4.29	-0.031	-0.09437633328637876	
4.295	-0.095	-0.08978751653287442	
4.3	-0.076	-0.08251549526683191	
4.305	0.023	-0.07188501259996102	
4.31	-0.032	-0.0607908091245416	
4.315	-0.066	-0.047629356102938336	
4.32	0.035	-0.035197276660261435	
4.325	0.038	-0.023484821044664785	
4.33	-0.038	-0.012128511390816395	
4.335	0.052	0.0008050570612838995	
4.34	0.128	0.014639069973353572	
4.345	0.040	0.03217918182479765	
4.35	0.047	0.048486844681077536	
4.355	0.157	0.06313995466439934	
4.36	0.076	0.07518170987368544	
4.365	0.018	0.08235767842261077	
4.37	0.136	0.08583133982580411	
4.375	0.131	0.08850689462800532	
4.38	0.017	0.09085400855483977	
4.385	0.079	0.08981906948158538	
4.39	0.116	0.08663222716861851	
4.395	-0.014	0.07816435104017551	
4.4	-0.009	0.06649892877004883	
4.405	0.073	0.05214100771550006	
4.41	-0.020	0.03717478631949203	
4.415	-0.078	0.021370531341530833	
4.42	-0.011	0.0048314233082894535	
4.425	-0.041	-0.013507468886626439	
4.43	-0.114	-0.0321364094736421	
4.435	-0.061	-0.046164546674847595	
4.44	-0.014	-0.05637147258186999	
4.445	-0.085	-0.0628389911810962	
4.45	-0.064	-0.06348533740677477	
4.455	0.024	-0.058847689700552396	
4.46	-0.040	-0.051841228373871825	
4.465	-0.066	-0.043636932867831865	
4.47	0.050	-0.0341419465881518	
4.475	0.021	-0.023505196704368184	
4.48	-0.081	-0.015171586580071759	
4.485	0.011	-0.010160826727552074	
4.49	0.206	0.00066260898584725	
4.495	0.328	0.036168021204118536	
4.5	0.652	0.11954025035904305	
4.505	1.169	0.27022312239706303	
4.51	1.425	0.4942016335843615	
4.515	1.439	0.7653495304616866	
4.52	1.311	1.0198026629803616	
4.525	0.718	1.1743818337063772	
4.53	0.081	1.1626946372281313	
4.535	-0.110	0.9817681340146097	
4.54	-0.157	0.6976668067123584	
4.545	-0.224	0.3951887113102526	
4.55	-0.172	0.14053353164895052	
4.555	-0.046	-0.036784715271294025	
4.56	-0.035	-0.13477673023994727	
4.565	-0.024	-0.16462840464145684	
4.57	0.137	-0.14214418725354483	
4.575	0.171	-0.0884688238416401	
4.58	0.102	-0.02116074299445099	
4.585	0.215	0.04679845096252099	
4.59	0.309	0.11065819536370415	
4.595	0.230	0.16617242743729888	
4.6	0.288	0.21445536767112958	
4.605	0.445	0.2591522580290144	
4.61	0.413	0.3022219350357113	
4.615	0.399	0.3453291922483188	
4.62	0.555	0.38780069065258843	
4.625	0.604	0.4315635711134652	
4.63	0.549	0.4788629163159957	
4.635	0.680	0.5267530493158963	
4.64	0.791	0.5776699865821585	
4.645	0.732	0.6302282378332492	
4.65	0.808	0.6844262814745703	
4.655	0.995	0.7401185016994765	
4.66	0.988	0.8022789567108863	
4.665	0.971	0.8673430963030708	
4.67	1.123	0.928729143613506	
4.675	1.139	0.9865742116197782	
4.68	1.043	1.0359215437926832	
4.685	1.122	1.0736892070391875	
4.69	1.174	1.0986160505083227	
4.695	1.059	1.114309767136856	
4.7	1.058	1.119425048233869	
4.705	1.151	1.117012553395174	
4.71	1.067	1.1103255170003872	
4.715	0.997	1.0994207422325593	
4.72	1.090	1.0866315508834261	
4.725	1.069	1.073558015525864	
4.73	0.960	1.0600476549576001	
4.735	1.032	1.0466455704257696	
4.74	1.094	1.036534186982775	
4.745	0.974	1.0304316954660888	
4.75	0.989	1.0264517905405557	
4.755	1.111	1.023880885767963	
4.76	1.062	1.0273961477972855	
4.765	1.024	1.0365310882076673	
4.77	1.169	1.0504992212173336	
4.775	1.204	1.0715333503499775	
4.78	1.145	1.10021545919226	
4.785	1.268	1.134578859592458	
4.79	1.369	1.1744008932658814	
4.795	1.314	1.2205847160897254	
4.8	1.375	1.2675002175287013	
4.805	1.556	1.317689425721258	
4.81	1.558	1.3744644067619516	
4.815	1.572	1.4376935397079684	
4.82	1.764	1.5043247885698983	
4.825	1.846	1.5784675317550891	
4.83	1.834	1.6574399312313406	
4.835	1.995	1.7405046375296036	
4.84	2.159	1.8282070081209916	
4.845	2.146	1.921785851439526	
4.85	2.265	2.0165794075101253	
4.855	2.485	2.1154275672531493	
4.86	2.515	2.220546430291748	
4.865	2.569	2.3279128658995054	
4.87	2.782	2.435090627725735	
4.875	2.892	2.545379421749091	
4.88	2.899	2.6577385153965913	
4.885	3.064	2.766398063181404	
4.89	3.067	2.867940870162517	
4.895	3.066	2.952033761971016	
4.9	3.066	3.0156609584664906	
4.905	3.064	3.0570799908838984	
4.91	3.063	3.077641431667195	
4.915	3.063	3.084179048246132	
4.92	3.061	3.085819813647478	
4.925	3.058	3.0802747384859255	
4.93	3.060	3.0730602783176932	
4.935	3.058	3.068306784763502	
4.94	3.055	3.063703129424563	
4.945	3.053	3.058288880637032	
4.95	3.052	3.05576607884566	
4.955	3.050	3.0548135655991313	
4.96	3.047	3.051731286212191	
4.965	3.049	3.0503935917596126	
4.97	3.044	3.0496198271900963	
4.975	3.041	3.0481990760705377	
4.98	3.040	3.0452936094211838	
4.985	3.034	3.0442374688419087	
4.99	3.029	3.041523721409236	
4.995	3.026	3.0364573014813736	
5.0	3.027	3.0338323156809386	
5.005	3.029	3.0316180390055028	
5.01	3.029	3.0287851824866703	
5.015	3.034	3.0275441047261786	
5.02	3.029	3.028483638452198	
5.025	3.029	3.0291412078615947	
5.03	3.026	3.028452048801339	
5.035	3.024	3.029197516168745	
5.04	3.021	3.0274018707834647	
5.045	3.021	3.025565237775306	
5.05	3.020	3.0238815213375876	
5.055	3.020	3.0234893178230102	
5.06	3.020	3.02081335351457	
5.065	3.020	3.020645620961658	
5.07	3.023	3.020398891563155	
5.075	3.021	3.0200947160421645	
5.08	3.021	3.020558027945901	
5.085	3.023	3.0211836385708066	
5.09	3.023	3.0213103915013537	
5.095	3.020	3.0216298709041394	
5.1	3.021	3.021933016883076	
5.105	3.020	3.022397444405673	
5.11	3.020	3.020813676043126	
5.115	3.021	3.0207341340268723	
5.12	3.023	3.021349795511762	
5.125	3.023	3.0210357179012375	
5.13	3.023	3.0216373561194496	
5.135	3.024	3.0221975181620837	
5.14	3.021	3.0232270002077506	
5.145	3.021	3.022660775462221	
5.15	3.021	3.0229952970332175	
5.155	3.021	3.022334949349216	
5.16	3.021	3.021788523533562	
5.165	3.024	3.0218084008117403	
5.17	3.023	3.022332971702866	
5.175	3.024	3.0219719385700943	
5.18	3.024	3.022689679228958	
5.185	3.021	3.023231524937814	
5.19	3.023	3.0231548141836573	
5.195	3.021	3.0226669920914944	
5.2	3.023	3.023066451858287	
5.205	3.024	3.023289360908956	
5.21	3.023	3.0227406158755716	
5.215	3.029	3.0228812197121937	
5.22	3.038	3.025343435436654	
5.225	3.046	3.027895031339796	
5.23	3.053	3.0327226186823752	
5.235	3.063	3.0392934702103167	
5.24	2.418	3.016060533302226	
5.245	1.511	2.882507871210889	
5.25	0.719	2.5689536368720542	
5.255	0.215	2.0872306677202728	
5.26	-0.180	1.5087676025388472	
5.265	-0.552	0.9139138974258966	
5.27	-0.814	0.3563301251677985	
5.275	-0.994	-0.1300185911679822	
5.28	-0.994	-0.5211529931571439	
5.285	-0.994	-0.7997189656497119	
5.29	-0.996	-0.9728696069394803	
5.295	-0.996	-1.0632217229377612	
5.3	-0.996	-1.0939043268083084	
5.305	-0.996	-1.0907993290186166	
5.31	-0.996	-1.0721912825546678	
5.315	-0.996	-1.0490696402562714	
5.32	-0.996	-1.0267786015283553	
5.325	-0.997	-1.0110757050468218	
5.33	-0.997	-1.0001750004440533	
5.335	-0.997	-0.9948288616610927	
5.34	-0.997	-0.9919406570645181	
5.345	-0.997	-0.9922024317762408	
5.35	-0.997	-0.9929367877057482	
5.355	-0.997	-0.9938446550886804	
5.36	-0.997	-0.9951529147869178	
5.365	-0.997	-0.9960572794777766	
5.37	-0.996	-0.9968196474237426	
5.375	-0.997	-0.9970516189242569	
5.38	-0.997	-0.9971407441284458	
5.385	-0.997	-0.9968675609357613	
5.39	-0.997	-0.9969444930950835	
5.395	-0.997	-0.9971589569860831	
5.4	-0.997	-0.9969589015278701	
5.405	-0.997	-0.9968726491929525	
5.41	-0.997	-0.9971144740979886	
5.415	-0.997	-0.9970541530619246	
5.42	-0.997	-0.9968584959986863	
5.425	-0.997	-0.997031569293041	
5.43	-0.997	-0.9971171332049914	
5.435	-0.997	-0.9969006669394339	
5.44	-0.997	-0.9969458327004406	
5.445	-0.997	-0.997127561905924	
5.45	-0.997	-0.9969771988453414	
5.455	-0.997	-0.9968901646381163	
5.46	-0.997	-0.9970866447739241	
5.465	-0.997	-0.9970555449267967	
5.47	-0.997	-0.9968832139161097	
5.475	-0.996	-0.9970145821556958	
5.48	-0.997	-0.9971052740867438	
5.485	-0.997	-0.9969239013829898	
5.49	-0.997	-0.9969416844436324	
5.495	-0.997	-0.9971089105020058	
5.5	-0.997	-0.9969932863915364	
5.505	-0.997	-0.9968966656391324	
5.51	-0.997	-0.9970674369232533	
5.515	-0.997	-0.9970625437265576	
5.52	-0.996	-0.9968962588571986	
5.525	-0.997	-0.9969990052390733	
5.53	-0.997	-0.9971039664387328	
5.535	-0.997	-0.9969395513130278	
5.54	-0.997	-0.9969316696015654	
5.545	-0.997	-0.9971011512254869	
5.55	-0.997	-0.997008729410579	
5.555	-0.997	-0.9968928154261003	
5.56	-0.999	-0.9970549644250256	
5.565	-0.997	-0.9970758153630812	
5.57	-0.997	-0.9968989219027962	
5.575	-0.997	-0.9969833225099252	
5.58	-0.997	-0.9971130673373163	
5.585	-0.997	-0.9969491479313752	
5.59	-0.997	-0.996914819383862	
5.595	-0.997	-0.9971035217183836	
5.6	-0.997	-0.9970250313658668	
5.605	-0.997	-0.9968782404649505	
5.61	-0.997	-0.9970480137857833	
5.615	-0.997	-0.9970966547810526	
5.62	-0.997	-0.9968914552943896	
5.625	-0.996	-0.996966006725847	
5.63	-0.997	-0.997133475772236	
5.635	-0.997	-0.9969536163419724	
5.64	-0.997	-0.9968894813115076	
5.645	-0.997	-0.997116273934146	
5.65	-0.997	-0.9970437802136991	
5.655	-0.997	-0.9968514942490428	
5.66	-0.997	-0.9970459261562985	
5.665	-0.997	-0.997127112248041	
5.67	-0.997	-0.9968730962589281	
5.675	-0.997	-0.9969453708030931	
5.68	-0.997	-0.9971672214328073	
5.685	-0.997	-0.9969533646190107	
5.69	-0.997	-0.9968531572197242	
5.695	-0.997	-0.9971407008098845	
5.7	-0.997	-0.9970668029861168	
5.705	-0.997	-0.9968099137567755	
5.71	-0.997	-0.9970485350502648	
5.715	-0.997	-0.9971701950134334	
5.72	-0.997	-0.9968419891407292	
5.725	-0.997	-0.9969194035461115	
5.73	-0.997	-0.9972176665453254	
5.735	-0.997	-0.9969483207602947	
5.74	-0.997	-0.9968022570100437	
5.745	-0.997	-0.99717926730379	
5.75	-0.997	-0.9970963437211152	
5.755	-0.997	-0.9967493543327097	
5.76	-0.997	-0.997056153895355	
5.765	-0.997	-0.9972301641753366	
5.77	-0.997	-0.9967949978966398	
5.775	-0.997	-0.9968855737543374	
5.78	-0.996	-0.9972898408306871	
5.785	-0.996	-0.9969379208380535	
5.79	-0.996	-0.9957307552974932	
5.795	-0.996	-0.9962360936547251	
5.8	-0.996	-0.9961383394602954	
5.805	-0.996	-0.9956616456799091	
5.81	-0.996	-0.9960656516223595	
5.815	-0.996	-0.9963189244564259	
5.82	-0.996	-0.9957290365817477	
5.825	-0.996	-0.9958313357582413	
5.83	-0.996	-0.9963950323792551	
5.835	-0.996	-0.9959300494032322	
5.84	-0.996	-0.9956235341946669	
5.845	-0.996	-0.9963126149733053	
5.85	-0.996	-0.9962030810141517	
5.855	-0.994	-0.995538485379973	
5.86	-0.996	-0.995075097442841	
5.865	-0.996	-0.9954435204325051	
5.87	-0.996	-0.9946409667245995	
5.875	-0.996	-0.9947554422501175	
5.88	-0.997	-0.9955354884060222	
5.885	-0.997	-0.9959227296570516	
5.89	-0.997	-0.9954803816298966	
5.895	-0.996	-0.9964083233896377	
5.9	-0.996	-0.9972948672490335	
5.905	-0.996	-0.9953809713702417	
5.91	-0.996	-0.9960747035544714	
5.915	-0.996	-0.9966115971326889	
5.92	-0.996	-0.9955370513141205	
5.925	-0.994	-0.995639947431764	
5.93	-0.996	-0.995717807807003	
5.935	-0.996	-0.9949312723651484	
5.94	-0.994	-0.9942815593948772	
5.945	-0.956	-0.9935238515515529	
5.95	-0.977	-0.9949312723651484	
5.955	-0.994	-0.9942815593948772	
5.96	-0.996	-0.9939767034591225	
5.965	-0.996	-0.9848388816113816	
5.97	-0.996	-0.9863849095822752	
5.975	-0.996	-0.989495799579548	
5.98	-0.996	-0.9939767034591225	
5.985	-0.996	-0.9939148934747954	
5.99	-0.996	-0.9950105627363843	
5.995	-0.996	-0.9967210681833542	
6.0	-0.968	-0.9955935653618911	
6.005	-0.826	-0.9828403910965785	
6.01	-0.764	-0.9530750834213586	
6.015	-0.721	-0.9051515678859785	
6.02	-0.582	-0.8411689998216182	
6.025	-0.477	-0.7642885863934521	
6.03	-0.444	-0.6783099484783931	
6.035	-0.329	-0.58691492416763	
6.04	-0.177	-0.4926727666022309	
6.045	-0.127	-0.39492098755088845	
6.05	0.009	-0.2928041775739841	
6.055	0.296	-0.177512747918776	
6.06	0.415	-0.044063384515199824	
6.065	0.482	0.10351359925193111	
6.07	0.747	0.2580067736539837	
6.075	0.939	0.4199221547047078	
6.08	0.960	0.584386738969453	
6.085	1.162	0.7460491172071732	
6.09	1.399	0.9046293398566375	
6.095	1.447	1.061930856968738	
6.1	1.535	1.2129813068173205	
6.105	1.755	1.3557209263963115	
6.11	1.799	1.4889595314965864	
6.115	1.776	1.6072374008570887	
6.12	1.944	1.709111463514026	
6.125	2.029	1.7970928051151658	
6.13	1.947	1.873165508293986	
6.135	2.020	1.9340009952880564	
6.14	2.156	1.9838535168838827	
6.145	2.081	2.026837782362268	
6.15	2.067	2.061822513618761	
6.155	2.210	2.089902344613731	
6.16	2.206	2.1160128843871377	
6.165	2.122	2.14105866395545	
6.17	2.239	2.163188063993706	
6.175	2.284	2.183228522904688	
6.18	2.172	2.2010290545164652	
6.185	2.230	2.215973422795618	
6.19	2.337	2.229011237908802	
6.195	2.249	2.2427791132924524	
6.2	2.224	2.2547199500354482	
6.205	2.364	2.2660273764904493	
6.21	2.340	2.278038560916274	
6.215	2.259	2.291928930088939	
6.22	2.383	2.3062470364909062	
6.225	2.418	2.322321190925911	
6.23	2.305	2.33692037627317	
6.235	2.346	2.3489494550904726	
6.24	2.450	2.3591275904590314	
6.245	2.346	2.366731178254862	
6.25	2.314	2.3716330208593708	
6.255	2.428	2.373121417541138	
6.26	2.378	2.373063703497025	
6.265	2.265	2.3698170400530056	
6.27	2.332	2.361278257789933	
6.275	2.340	2.348401676888531	
6.28	2.201	2.3298378374102526	
6.285	2.197	2.3069169589585456	
6.29	2.259	2.2792230796940043	
6.295	2.119	2.2487043056883738	
6.3	2.026	2.213556207315785	
6.305	2.084	2.1711870236864423	
6.31	1.994	2.1240907379724243	
6.315	1.849	2.0737390620833547	
6.32	1.901	2.020304877967156	
6.325	1.867	1.9664636717439146	
6.33	1.663	1.9107808952181011	
6.335	1.617	1.848894401720342	
6.34	1.651	1.7802815676139967	
6.345	1.486	1.7086882950918687	
6.35	1.375	1.636523276670423	
6.355	1.448	1.5652319826043215	
6.36	1.375	1.4981036839271913	
6.365	1.244	1.4377081032775294	
6.37	1.340	1.3873311141437417	
6.375	1.369	1.3494925508447237	
6.38	1.252	1.3237603102130433	
6.385	1.268	1.3079058036815683	
6.39	1.312	1.2953099748863237	
6.395	1.154	1.2786571296303653	
6.4	1.119	1.2545015152259307	
6.405	1.345	1.2332738762795545	
6.41	1.506	1.2361307380057553	
6.415	1.691	1.2877157906932344	
6.42	2.154	1.404384155569884	
6.425	2.468	1.5925418031020289	
6.43	2.367	1.8227369156695294	
6.435	2.137	2.0348338652897198	
6.44	1.646	2.14721330147464	
6.445	1.014	2.0985415653484427	
6.45	0.642	1.8884231135946328	
6.455	0.605	1.5742727325727168	
6.46	0.543	1.2361476506919071	
6.465	0.498	0.9407035492676267	
6.47	0.680	0.7293982277343847	
6.475	0.799	0.6115872049268567	
6.48	0.721	0.5757472179907619	
6.485	0.785	0.5948806087709768	
6.49	0.915	0.644373027787178	
6.495	0.840	0.7036724925457178	
6.5	0.799	0.7614366132467341	
6.505	0.928	0.8082765615809742	
6.51	0.899	0.8421419030831039	
6.515	0.817	0.8656151857557801	
6.52	0.922	0.8813181715979922	
6.525	0.966	0.8925692252081252	
6.53	0.869	0.9017078266127322	
6.535	0.918	0.9098413435922421	
6.54	1.029	0.9203964686404056	
6.545	0.933	0.9306832985470129	
6.55	0.907	0.94140980503768	
6.555	1.052	0.9512981611624443	
6.56	1.043	0.9641799057914283	
6.565	0.963	0.9805943467218904	
6.57	1.091	0.9993067366766027	
6.575	1.155	1.021606002349848	
6.58	1.044	1.0447060599831202	
6.585	1.082	1.066804595765436	
6.59	1.177	1.084408128649247	
6.595	1.050	1.0957021999602916	
6.6	0.948	1.095375182417213	
6.605	1.027	1.0802747181859707	
6.61	0.951	1.0522011240557605	
6.615	0.803	1.0145896457050045	
6.62	0.852	0.9712761191491079	
6.625	0.843	0.9236157152652604	
6.63	0.669	0.8737250112542312	
6.635	0.658	0.8227867132021862	
6.64	0.726	0.772405608193212	
6.645	0.584	0.7247336136311651	
6.65	0.498	0.6793820815037142	
6.655	0.587	0.6352646158213472	
6.66	0.518	0.5942221053361498	
6.665	0.383	0.5546061697944494	
6.67	0.456	0.5182576705076032	
6.675	0.488	0.485619830322096	
6.68	0.338	0.45775415209062426	
6.685	0.355	0.4327728432657715	
6.69	0.457	0.4123853708746893	
6.695	0.358	0.39676542035378204	
6.7	0.306	0.3853889257995794	
6.705	0.427	0.37622607659826246	
6.71	0.387	0.37123928311314713	
6.715	0.274	0.36563759545890906	
6.72	0.366	0.36021270493276014	
6.725	0.416	0.3556068856568412	
6.73	0.297	0.35280954618053717	
6.735	0.315	0.35074852988100014	
6.74	0.416	0.34933337420406674	
6.745	0.312	0.3468163630223398	
6.75	0.261	0.34240291421024127	
6.755	0.367	0.33615410393059586	
6.76	0.337	0.3292651363300001	
6.765	0.221	0.32169526516433444	
6.77	0.290	0.31214779984887386	
6.775	0.308	0.2995816510137179	
6.78	0.172	0.2848846040454936	
6.785	0.172	0.26572170964811614	
6.79	0.241	0.24426676986082188	
6.795	0.114	0.21988228765027032	
6.8	0.053	0.19243050198715975	
6.805	0.137	0.16306792881685733	
6.81	0.085	0.13429096373968036	
6.815	-0.023	0.10777383289463366	
6.82	0.014	0.0810768899946255	
6.825	0.030	0.053545017446468696	
6.83	-0.058	0.026985001237457305	
6.835	-0.047	0.006712859282684639	
6.84	0.018	-0.009814974904854933	
6.845	-0.040	-0.022053380036762497	
6.85	-0.066	-0.02951579466932571	
6.855	0.014	-0.03101139533307267	
6.86	0.009	-0.030712179761512994	
6.865	-0.044	-0.027152891093133964	
6.87	0.009	-0.01895392002619264	
6.875	0.024	-0.013499609172437334	
6.88	-0.073	-0.011977735323629966	
6.885	-0.067	-0.014283657972773362	
6.89	0.050	-0.018852825833295984	
6.895	0.133	-0.014033143360288464	
6.9	0.348	0.02253856386688267	
6.905	0.857	0.11702613959098336	
6.91	1.227	0.29133108986857226	
6.915	1.316	0.534887381080503	
6.92	1.306	0.7980146292388793	
6.925	0.905	1.0023916745589272	
6.93	0.169	0.02253856386688267	
6.935	-0.119	0.9556222383407924	
6.94	-0.186	0.7151055741572234	
6.945	-0.265	0.42601524640024385	
6.95	-0.271	0.16056013432302235	
6.955	-0.162	-0.04103767062922636	
6.96	-0.125	-0.16866168125099085	
6.965	-0.142	-0.2280512917165765	
6.97	-0.061	-0.23199343884462464	
6.975	-0.011	-0.20553164801711846	
6.98	-0.060	-0.16388554893550533	
6.985	-0.031	-0.11829586983721571	
6.99	0.058	-0.07494393971926255	
6.995	-0.005	-0.039983176229837734	
7.0	-0.020	-0.013458044428110872	
7.005	0.087	0.007868490333356324	
7.01	0.073	0.024299208927780612	
7.015	0.001	0.03694635401741384	
7.02	0.072	0.04695929378317768	
7.025	0.139	0.05545719359492793	
7.03	0.062	0.06514862622169718	
7.035	0.097	0.07768900675445281	
7.04	0.229	0.09304341929508445	
7.045	0.166	0.11305917600663223	
7.05	0.149	0.13554577625243538	
7.055	0.302	0.15983498259528478	
7.06	0.312	0.18932638995109857	
7.065	0.244	0.22097822648750956	
7.07	0.344	0.25191636045949806	
7.075	0.401	0.2824450087371311	
7.08	0.270	0.306195583270521	
7.085	0.274	0.3206545406346143	
7.09	0.354	0.3239865449133415	
7.095	0.206	0.3171115056527943	
7.1	0.125	0.2965531208714544	
7.105	0.198	0.2657475306584721	
7.11	0.148	0.22935877642692654	
7.115	0.029	0.19204884663441557	
7.12	0.067	0.15383575189233406	
7.125	0.082	0.11742261608302261	
7.13	-0.020	0.08430972167432613	
7.135	-0.023	0.056632447604941114	
7.14	0.029	0.031903210601742074	
7.145	-0.044	0.01020386611129425	
7.15	-0.079	-0.008392748784367389	
7.155	-0.017	-0.02335433833221339	
7.16	-0.034	-0.035622900493988495	
7.165	-0.095	-0.04485645800837536	
7.17	-0.050	-0.05023246659639213	
7.175	-0.018	-0.05362591096460332	
7.18	-0.082	-0.05660095817582951	
7.185	-0.072	-0.0573814539091162	
7.19	-0.008	-0.05617435903539837	
7.195	-0.056	-0.054736881169805914	
7.2	-0.084	-0.05336296312181515	
7.205	-0.009	-0.050433583281571145	
7.21	-0.014	-0.04760155800252708	
7.215	-0.073	-0.04379975488182543	
7.22	-0.026	-0.03929517689768128	
7.225	0.012	-0.03564166704772389	
7.23	-0.053	-0.03253320443318009	
7.235	-0.044	-0.029413718631592516	
7.24	0.026	-0.026220833798422306	
7.245	-0.026	-0.023677380218259256	
7.25	-0.060	-0.021357467690401033	
7.255	0.014	-0.019495568003571523	
7.26	0.004	-0.018570066764785134	
7.265	-0.064	-0.017762047983725084	
7.27	-0.034	-0.018350724031056132	
7.275	0.003	-0.021646818208024415	
7.28	-0.067	-0.026479344652193804	
7.285	-0.081	-0.031440999928366895	
7.29	-0.023	-0.03825664955756271	
7.295	-0.082	-0.04763538496089315	
7.3	-0.133	-0.057349997352873605	
7.305	-0.081	-0.06853639415860746	
7.31	-0.095	-0.08155648973503163	
7.315	-0.153	-0.09373463873927929	
7.32	-0.108	-0.10336904966589393	
7.325	-0.081	-0.10965069447787783	
7.33	-0.143	-0.11445952522533814	
7.335	-0.134	-0.11644617869375326	
7.34	-0.072	-0.11726255223826103	
7.345	-0.120	-0.11762450662530159	
7.35	-0.148	-0.1163519087937702	
7.355	-0.076	-0.11453860873045213	
7.36	-0.084	-0.11254883668223546	
7.365	-0.160	-0.11074239355253854	
7.37	-0.119	-0.11037702001557059	
7.375	-0.043	-0.11064243364766752	
7.38	-0.026	-0.10345471625782499	
7.385	0.169	-0.07542852188653973	
7.39	0.593	-0.004215083880973678	
7.395	0.799	0.1274205669522055	
7.4	0.817	0.30765900750650865	
7.405	0.768	0.4904181562263345	
7.41	0.332	0.6113644961634761	
7.415	-0.113	0.6171751353260462	
7.42	-0.238	0.5035690918309744	
7.425	-0.294	0.3133493832819221	
7.43	-0.366	0.1045800879921521	
7.435	-0.337	-0.07842450734299705	
7.44	-0.241	-0.21124798864084415	
7.445	-0.239	-0.2895703284694989	
7.45	-0.232	-0.31831746268557226	
7.455	-0.140	-0.30956533883753823	
7.46	-0.131	-0.28053918086394186	
7.465	-0.171	-0.24170134554951286	
7.47	-0.119	-0.20241070253738241	
7.475	-0.078	-0.1686750310293033	
7.48	-0.136	-0.14241718890203264	
7.485	-0.125	-0.1234588209502782	
7.49	-0.058	-0.11031176205717017	
7.495	-0.095	-0.10159016638545681	
7.5	-0.124	-0.0953244228400876	
7.505	-0.047	-0.08959487400999294	
7.51	-0.043	-0.08454500901338388	
7.515	-0.096	-0.07868318927352405	
7.52	-0.043	-0.07141332197597336	
7.525	0.012	-0.06267837002560102	
7.53	-0.047	-0.05239971718582617	
7.535	-0.037	-0.04145476260417163	
7.54	0.062	-0.02932009061452951	
7.545	0.023	-0.015580144127653803	
7.55	-0.008	-0.0013176930225766046	
7.555	0.099	0.013391981280201743	
7.56	0.091	0.02945804367834423	
7.565	-0.002	0.043328029035741275	
7.57	0.037	0.050563184052037836	
7.575	0.058	0.05030561582303007	
7.58	-0.037	0.0436256156449333	
7.585	-0.055	0.031539312239311	
7.59	-0.011	0.01364340512342593	
7.595	-0.063	-0.0065598945646874246	
7.6	-0.114	-0.02728945663567881	
7.605	-0.061	-0.04564413964157374	
7.61	-0.073	-0.06255022926001366	
7.615	-0.128	-0.07662380571339036	
7.62	-0.104	-0.08643945264884698	
7.625	-0.087	-0.09472411239313082	
7.63	-0.163	-0.10434901947807053	
7.635	-0.171	-0.1154432964831496	
7.64	-0.114	-0.12638043881582472	
7.645	-0.156	-0.1365547658155	
7.65	-0.188	-0.14527194635995794	
7.655	-0.125	-0.14965703578588208	
7.66	-0.134	-0.15255262801702377	
7.665	-0.194	-0.15461685774971684	
7.67	-0.149	-0.15545079925730107	
7.675	-0.099	-0.15471869785029574	
7.68	-0.153	-0.15133385175078162	
7.685	-0.146	-0.14545602995282367	
7.69	-0.079	-0.13838337966462158	
7.695	-0.119	-0.13153997976662846	
7.7	-0.146	-0.12528560174094494	
7.705	-0.072	-0.11866794916522903	
7.71	-0.061	-0.11153276742730805	
7.715	-0.128	-0.10361921038520863	
7.72	-0.089	-0.09647108901404738	
7.725	-0.056	-0.09271053665643665	
7.73	-0.117	-0.09032829919067592	
7.735	-0.117	-0.08947172414361236	
7.74	-0.058	-0.09038184826748177	
7.745	-0.093	-0.09152934071933859	
7.75	-0.128	-0.09229053116581377	
7.755	-0.050	-0.09167047280620168	
7.76	-0.072	-0.08952862251235436	
7.765	-0.146	-0.08962285660695994	
7.77	-0.122	-0.09247533678797673	
7.775	-0.096	-0.09970709346983211	
7.78	-0.163	-0.10932699937068492	
7.785	-0.172	-0.11947462409037116	
7.79	-0.119	-0.13037939722347408	
7.795	-0.159	-0.1405265503290382	
7.8	-0.200	-0.14829260142134826	
7.805	-0.140	-0.15466975977520353	
7.81	-0.137	-0.15952849088464444	
7.815	-0.191	-0.16162000692430137	
7.82	-0.148	-0.16146315994710314	
7.825	-0.116	-0.1587080869332999	
7.83	-0.175	-0.1573387135195931	
7.835	-0.166	-0.15446480110540123	
7.84	-0.105	-0.15136861377355548	
7.845	-0.157	-0.1495458687170372	
7.85	-0.206	-0.14930179133615115	
7.855	-0.120	-0.15064830662015297	
7.86	-0.049	-0.14852789447765763	
7.865	-0.012	-0.13262938645734076	
7.87	0.287	-0.08741991389478991	
7.875	0.649	0.007349318130493073	
7.88	0.718	0.155672061831149	
7.885	0.680	0.32951968686531424	
7.89	0.505	0.47458374855017266	
7.895	0.004	0.5333617101297904	
7.9	-0.239	0.47662522805795643	
7.905	-0.293	0.32833858923174797	
7.91	-0.339	0.13949031981426438	
7.915	-0.392	-0.04362181018865931	
7.92	-0.320	-0.18943496492689355	
7.925	-0.242	-0.2846506735466592	
7.93	-0.265	-0.33131467761961275	
7.935	-0.235	-0.33848075098505104	
7.94	-0.153	-0.3183542142529848	
7.945	-0.178	-0.28550798652467274	
7.95	-0.206	-0.24932801022044668	
7.955	-0.137	-0.21668638205541962	
7.96	-0.128	-0.19048838610934118	
7.965	-0.178	-0.17063437289540553	
7.97	-0.133	-0.1545167464092455	
7.975	-0.082	-0.14266818283301652	
7.98	-0.145	-0.13430429200343874	
7.985	-0.143	-0.12653479723768807	
7.99	-0.064	-0.12136883201574324	
7.995	-0.090	-0.11546699207529447	
8.0	-0.119	-0.10834272548026604	
8.005	-0.049	-0.09870375318554223	
8.01	-0.032	-0.08945206486267845	
8.015	-0.087	-0.07963593285906773	
8.02	-0.023	-0.06753957796460819	
8.025	0.059	-0.05263807657416596	
8.03	-0.015	-0.03429475856336166	
8.035	-0.003	-0.016567865836740407	
8.04	0.102	0.0006438124635187105	
8.045	0.032	0.017557338439611134	
8.05	-0.034	0.02862145902238035	
8.055	0.040	0.03127422157293677	
8.06	0.023	0.02858429287269702	
8.065	-0.069	0.021365921259448414	
8.07	-0.050	0.008411697180055903	
8.075	-0.026	-0.008632854521795852	
8.08	-0.108	-0.027250291387155363	
8.085	-0.122	-0.04659371931575428	
8.09	-0.069	-0.06539200190274091	
8.095	-0.122	-0.08339392978350255	
8.1	-0.169	-0.0983539884538656	
8.105	-0.117	-0.11177361031406466	
8.11	-0.127	-0.12440499529443959	
8.115	-0.195	-0.1345836326069486	
8.12	-0.162	-0.1436149597132034	
8.125	-0.127	-0.15165997022798713	
8.13	-0.185	-0.15820648670227794	
8.135	-0.192	-0.1615858472868733	
8.14	-0.137	-0.16443519157962078	
8.145	-0.168	-0.16738339426740154	
8.15	-0.198	-0.16932145951707084	
8.155	-0.131	-0.16779639855673695	
8.16	-0.125	-0.1654222920048325	
8.165	-0.180	-0.1605566580933451	
8.17	-0.140	-0.15561238176264136	
8.175	-0.084	-0.1486843284253047	
8.18	-0.139	-0.14119857889187643	
8.185	-0.137	-0.13357162415648605	
8.19	-0.064	-0.12445003142492547	
8.195	-0.102	-0.11738736551974009	
8.2	-0.136	-0.110310593926532	
8.205	-0.067	-0.10480512506914344	
8.21	-0.066	-0.09942953291798372	
8.215	-0.128	-0.09554722201096966	
8.22	-0.098	-0.09261673218600944	
8.225	-0.049	-0.09069267465183825	
8.23	-0.122	-0.09119219090532253	
8.235	-0.131	-0.09157256199072603	
8.24	-0.075	-0.09545734625817288	
8.245	-0.124	-0.10038453184200179	
8.25	-0.172	-0.1073068151821634	
8.255	-0.117	-0.11480855124020334	
8.26	-0.125	-0.1244324793817752	
8.265	-0.197	-0.13354389818260293	
8.27	-0.172	-0.1426103874026407	
8.275	-0.136	-0.1516964418995821	
8.28	-0.198	-0.16119889341415355	
8.285	-0.201	-0.16755854474107276	
8.29	-0.143	-0.1724475274576265	
8.295	-0.172	-0.17640324088691292	
8.3	-0.209	-0.17830488652105903	
8.305	-0.145	-0.17677861793867505	
8.31	-0.136	-0.17444595940412433	
8.315	-0.198	-0.1715724406657898	
8.32	-0.157	-0.16757791521325738	
8.325	-0.130	-0.16367978597569305	
8.33	-0.206	-0.16325017176407017	
8.335	-0.203	-0.16555834262038138	
8.34	-0.099	-0.16739430989851156	
8.345	-0.038	-0.1604227784950244	
8.35	0.090	-0.13132207699132994	
8.355	0.521	-0.0596907664308269	
8.36	0.837	0.07661747153898169	
8.365	0.837	0.26639773323409677	
8.37	0.774	0.46539208427684764	
8.375	0.407	0.6062730477916969	
8.38	-0.124	0.6286327944896241	
8.385	-0.306	0.5183527309983917	
8.39	-0.335	0.32062563845761527	
8.395	-0.389	0.09862158452084346	
8.4	-0.404	-0.09834678472995592	
8.405	-0.303	-0.24371960924560013	
8.41	-0.261	-0.33034789098138195	
8.415	-0.288	-0.3655950311329197	
8.42	-0.233	-0.3616193572523346	
8.425	-0.177	-0.33660863953050385	
8.43	-0.220	-0.30121649782206705	
8.435	-0.215	-0.2656445108823472	
8.44	-0.139	-0.23339882019135877	
8.445	-0.160	-0.20734415741249368	
8.45	-0.198	-0.18639595376019236	
8.455	-0.131	-0.1708108885999854	
8.46	-0.119	-0.16034117450953772	
8.465	-0.175	-0.15259521552074645	
8.47	-0.133	-0.14568262890282568	
8.475	-0.079	-0.13860017593137428	
8.48	-0.120	-0.13217441161582	
8.485	-0.117	-0.12267785408832511	
8.49	-0.032	-0.11140519548193482	
8.495	-0.056	-0.09929746721300295	
8.5	-0.082	-0.08541363747436541	
8.505	0.011	-0.06983151373450174	
8.51	0.046	-0.05129618164092289	
8.515	-0.023	-0.03159978550927314	
8.52	0.035	-0.011724331936091912	
8.525	0.113	0.00843321559649816	
8.53	0.009	0.025843462191778768	
8.535	-0.011	0.03726366580140798	
8.54	0.076	0.040595239575131954	
8.545	0.003	0.03875143832441458	
8.55	-0.078	0.030549639468820028	
8.555	-0.026	0.015124515785747868	
8.56	-0.029	-0.003246725408618388	
8.565	-0.122	-0.023583245087154744	
8.57	-0.105	-0.04378355028985455	
8.575	-0.070	-0.0645541600708657	
8.58	-0.145	-0.08309780090150488	
8.585	-0.163	-0.09976559837928436	
8.59	-0.110	-0.11443447133283854	
8.595	-0.153	-0.12819365458739107	
8.6	-0.207	-0.13943927988752416	
8.605	-0.156	-0.1509235474851436	
8.61	-0.148	-0.16022424358132994	
8.615	-0.207	-0.16754422508022018	
8.62	-0.177	-0.17182127274812573	
8.625	-0.128	-0.1735675014587505	
8.63	-0.180	-0.17405412890810812	
8.635	-0.192	-0.17177816598634799	
8.64	-0.125	-0.16846890632474276	
8.645	-0.145	-0.16616471775296762	
8.65	-0.182	-0.16142597614283227	
8.655	-0.117	-0.15595487489413454	
8.66	-0.099	-0.14921760886790236	
8.665	-0.154	-0.14252604079556636	
8.67	-0.117	-0.13384007855968227	
8.675	-0.070	-0.12657241668624247	
8.68	-0.127	-0.11904219088797413	
8.685	-0.127	-0.1137869980763161	
8.69	-0.052	-0.10747245322065235	
8.695	-0.096	-0.1021540517134144	
8.7	-0.142	-0.09943666227252476	
8.705	-0.078	-0.09796574781170142	
8.71	-0.064	-0.09719918016627282	
8.715	-0.134	-0.09652627213963136	
8.72	-0.104	-0.09586358395812475	
8.725	-0.058	-0.09555767612652782	
8.73	-0.133	-0.09702445798475876	
8.735	-0.153	-0.10081776560923122	
8.74	-0.095	-0.10647637673305167	
8.745	-0.128	-0.11411937809803202	
8.75	-0.182	-0.12145184263569409	
8.755	-0.136	-0.12898815330434776	
8.76	-0.139	-0.1371692680762895	
8.765	-0.210	-0.14652570699088407	
8.77	-0.186	-0.15689572567624246	
8.775	-0.139	-0.16453386055073094	
8.78	-0.186	-0.17200091627764555	
8.785	-0.195	-0.1748506808994328	
8.79	-0.133	-0.17446839324036825	
8.795	-0.156	-0.1730838820656211	
8.8	-0.198	-0.17048576542308264	
8.805	-0.139	-0.16700191617647103	
8.81	-0.124	-0.16311923756489477	
8.815	-0.189	-0.15954433628825976	
8.82	-0.175	-0.1579391349178744	
8.825	-0.140	-0.15848976657387773	
8.83	-0.160	-0.15999072963423197	
8.835	-0.070	-0.15490110991543932	
8.84	0.270	-0.12341575083504862	
8.845	0.605	-0.03798552789395664	
8.85	0.902	0.12051783604967099	
8.855	1.186	0.3450032301678813	
8.86	1.101	0.5919129090796444	
8.865	0.527	0.7833541817161305	
8.87	-0.012	0.8338753381253274	
8.875	-0.209	0.7194466903566105	
8.88	-0.372	0.4900516385689162	
8.885	-0.424	0.22410008710650442	
8.89	-0.351	-0.017453881378031243	
8.895	-0.334	-0.20297457088385457	
8.9	-0.332	-0.32045154513755636	
8.905	-0.250	-0.37302371663557593	
8.91	-0.218	-0.3800864245929549	
8.915	-0.256	-0.3585036533177952	
8.92	-0.217	-0.3239583666616341	
8.925	-0.159	-0.28451660500997633	
8.93	-0.206	-0.24997006497487004	
8.935	-0.207	-0.22189336152404296	
8.94	-0.133	-0.19948350357083375	
8.945	-0.149	-0.18305435418070135	
8.95	-0.188	-0.17049196564555968	
8.955	-0.113	-0.1590221136949757	
8.96	-0.090	-0.14811076188999261	
8.965	-0.145	-0.13853342520296402	
8.97	-0.107	-0.12794167017079233	
8.975	-0.040	-0.11649504748805953	
8.98	-0.096	-0.10599122431550459	
8.985	-0.087	-0.09389764743196113	
8.99	0.026	-0.08044438572795012	
8.995	0.021	-0.06205528076773416	
9.0	-0.018	-0.039521126064379276	
9.005	0.110	-0.013997290712304492	
9.01	0.161	0.016911887849090763	
9.015	0.061	0.04943510509376462	
9.02	0.099	0.07604660807496576	
9.025	0.178	0.09652390997478509	
9.03	0.058	0.10900189838987383	
9.035	0.009	0.11007798459012379	
9.04	0.091	0.10054595528219759	
9.045	0.003	0.0839559304636459	
9.05	-0.084	0.059477627014452375	
9.055	-0.040	0.03097130847993343	
9.06	-0.040	-8.410921811817648e-05	
9.065	-0.131	-0.02852633334322102	
9.07	-0.124	-0.054968579951583184	
9.075	-0.085	-0.07849716614287357	
9.08	-0.156	-0.09895091824986661	
9.085	-0.180	-0.11590439560005189	
9.09	-0.124	-0.13049379011994275	
9.095	-0.151	-0.1430248131189618	
9.1	-0.201	-0.1524788179239874	
9.105	-0.145	-0.15805842165788395	
9.11	-0.125	-0.16110370537266416	
9.115	-0.180	-0.16148649435020052	
9.12	-0.157	-0.15897194881506183	
9.125	-0.108	-0.15553408932726287	
9.13	-0.157	-0.1529338107896897	
9.135	-0.172	-0.14988597512576018	
9.14	-0.110	-0.1465202145752545	
9.145	-0.131	-0.14403020471589395	
9.15	-0.178	-0.1424608522975409	
9.155	-0.124	-0.1410683389495888	
9.16	-0.102	-0.1391150509327917	
9.165	-0.162	-0.1374765025336005	
9.17	-0.136	-0.13497281862873578	
9.175	-0.078	-0.13153982163382527	
9.18	-0.136	-0.12792664843040746	
9.185	-0.142	-0.12488908506770993	
9.19	-0.063	-0.11952450727330612	
9.195	-0.090	-0.11401664741801205	
9.2	-0.140	-0.10846575447589527	
9.205	-0.078	-0.10408422685884364	
9.21	-0.055	-0.09909716512104988	
9.215	-0.128	-0.09547018823799355	
9.22	-0.110	-0.09300270633683144	
9.225	-0.056	-0.09253206038201361	
9.23	-0.130	-0.0949015032502559	
9.235	-0.154	-0.0989179380059634	
9.24	-0.096	-0.10453742420482423	
9.245	-0.120	-0.11198156130289912	
9.25	-0.172	-0.11947569694795847	
9.255	-0.130	-0.12611081613561148	
9.26	-0.128	-0.13206708119513572	
9.265	-0.201	-0.14046575664773925	
9.27	-0.178	-0.14903812617989226	
9.275	-0.124	-0.15650548977731016	
9.28	-0.177	-0.1618735605422339	
9.285	-0.191	-0.16395872903453346	
9.29	-0.124	-0.16453329464402106	
9.295	-0.140	-0.16293564625664436	
9.3	-0.186	-0.16050797087561153	
9.305	-0.128	-0.15613784924077512	
9.31	-0.107	-0.15201558081073951	
9.315	-0.178	-0.14746897417857963	
9.32	-0.174	-0.14508835294751898	
9.325	-0.136	-0.14747927462381577	
9.33	-0.162	-0.15185145417805188	
9.335	-0.093	-0.1509951386173004	
9.34	0.204	-0.12650145787968822	
9.345	0.483	-0.056853736385368815	
9.35	0.759	0.07650670200275389	
9.355	1.082	0.27287292797321466	
9.36	1.061	0.5020183996319653	
9.365	0.596	0.6944521728299526	
9.37	0.070	0.7707468852743369	
9.375	-0.174	0.6934506544998233	
9.38	-0.349	0.495167058627702	
9.385	-0.409	0.24799591008349667	
9.39	-0.351	0.0134816165749914	
9.395	-0.331	-0.17383742434694133	
9.4	-0.334	-0.29648646029645465	
9.405	-0.239	-0.35614061017699744	
9.41	-0.195	-0.3669676177470628	
9.415	-0.236	-0.3474597238557844	
9.42	-0.198	-0.31110580786402264	
9.425	-0.136	-0.2704602139743195	
9.43	-0.175	-0.23285720437587792	
9.435	-0.185	-0.20202610480739375	
9.44	-0.102	-0.1765089343451583	
9.445	-0.116	-0.1569021562318963	
9.45	-0.160	-0.14256920048790472	
9.455	-0.095	-0.13012849869211812	
9.46	-0.069	-0.1209636411919621	
9.465	-0.127	-0.11252415743494194	
9.47	-0.084	-0.10409732415330465	
9.475	-0.002	-0.09340021999985307	
9.48	-0.056	-0.08089174989894843	
9.485	-0.053	-0.06605578273806292	
9.49	0.065	-0.04944283428438583	
9.495	0.058	-0.027896759990612283	
9.5	-0.003	-0.004626756800039497	
9.505	0.116	0.017903434354668176	
9.51	0.174	0.04407723548977906	
9.515	0.072	0.07043069948266749	
9.52	0.113	0.09288397579322948	
9.525	0.192	0.11063429266843681	
9.53	0.061	0.12109845838675934	
9.535	0.043	0.12190567770999759	
9.54	0.110	0.11356071633201277	
9.545	0.023	0.09912392984894167	
9.55	-0.095	0.0763541381340655	
9.555	-0.050	0.04287131510049706	
9.56	-0.034	0.00809881622417909	
9.565	-0.122	-0.024534201923428107	
9.57	-0.113	-0.05114320623168534	
9.575	-0.063	-0.07337976717756549	
9.58	-0.137	-0.09084474550659052	
9.585	-0.172	-0.1050870361267273	
9.59	-0.113	-0.11749081232700383	
9.595	-0.145	-0.1298453825736393	
9.6	-0.203	-0.14059405641007572	
9.605	-0.146	-0.14917098836934878	
9.61	-0.125	-0.1549193626823969	
9.615	-0.194	-0.1594857748772447	
9.62	-0.172	-0.16116019662571748	
9.625	-0.114	-0.1614193963130211	
9.63	-0.154	-0.16080975964870914	
9.635	-0.166	-0.15707403630589947	
9.64	-0.101	-0.15052732619096856	
9.645	-0.119	-0.14483389571106836	
9.65	-0.160	-0.1385741836087729	
9.655	-0.095	-0.13219575238023498	
9.66	-0.069	-0.1249207636674547	
9.665	-0.136	-0.11746794252918043	
9.67	-0.119	-0.11117605847485314	
9.675	-0.043	-0.10542670091885953	
9.68	-0.093	-0.0997924307136984	
9.685	-0.116	-0.09408317300426466	
9.69	-0.037	-0.08754137096273164	
9.695	-0.066	-0.08281676037494935	
9.7	-0.128	-0.07957382568674398	
9.705	-0.064	-0.07821749120385518	
9.71	-0.026	-0.07690879726128616	
9.715	-0.105	-0.07445141708163194	
9.72	-0.101	-0.07319753276326632	
9.725	-0.041	-0.07343263273004617	
9.73	-0.108	-0.07677120340150306	
9.735	-0.148	-0.08209413508048749	
9.74	-0.089	-0.08955953459464419	
9.745	-0.101	-0.09879636913666331	
9.75	-0.153	-0.10656337576843165	
9.755	-0.116	-0.11223575873245939	
9.76	-0.099	-0.11690633485435765	
9.765	-0.174	-0.12244023849755518	
9.77	-0.165	-0.12920805339809255	
9.775	-0.107	-0.13543107026956977	
9.78	-0.156	-0.14075641611290368	
9.785	-0.175	-0.14410048103710066	
9.79	-0.101	-0.144561576293752	
9.795	-0.113	-0.1437817522723178	
9.8	-0.163	-0.13957067284055744	
9.805	-0.105	-0.13424680668258093	
9.81	-0.073	-0.12789129594855175	
9.815	-0.145	-0.12243905914046804	
9.82	-0.148	-0.11822443332540965	
9.825	-0.104	-0.11842612031711984	
9.83	-0.148	-0.1227547801625534	
9.835	-0.120	-0.12511005867933164	
9.84	0.101	-0.11453843150474616	
9.845	0.309	-0.07174409016275243	
9.85	0.515	0.017451399668967218	
9.855	0.840	0.1617859993333827	
9.86	0.892	0.34513254103048685	
9.865	0.547	0.51450385509729	
9.87	0.120	-0.11453843150474616	
9.875	-0.105	0.5675028324716971	
9.88	-0.281	0.4252408641087432	
9.885	-0.363	0.22988998900334562	
9.89	-0.314	0.033451537863142436	
9.895	-0.296	-0.1307374093196218	
9.9	-0.297	-0.24453851952797886	
9.905	-0.206	-0.3032221442153717	
9.91	-0.159	-0.3158687998943619	
9.915	-0.204	-0.30043884572939716	
9.92	-0.171	-0.26922241721591395	
9.925	-0.099	-0.2324094538831148	
9.93	-0.142	-0.19876540622883782	
9.935	-0.159	-0.1691334586358218	
9.94	-0.076	-0.14553641693035502	
9.945	-0.084	-0.12777532651187995	
9.95	-0.137	-0.11461951432253763	
9.955	-0.075	-0.10322556446580813	
9.96	-0.029	-0.09385094426385088	
9.965	-0.101	-0.08549456809761205	
9.97	-0.075	-0.07723146226648239	
9.975	0.008	-0.06935019999865738	
9.98	-0.053	-0.0607897732599596	
9.985	-0.072	-0.05217186173975251	
9.99	0.047	-0.042476240199797705	
9.995	0.046	-0.029760554291943776	
10.0	-0.012	-0.012675896703821968	
10.005	0.105	0.006803539192194621	
10.01	0.165	0.031192863061821417	
10.015	0.052	0.057457528989640516	
10.02	0.079	0.07775056301722857	
10.025	0.171	0.09268920432734	
10.03	0.055	0.10119709016880135	
10.035	-0.011	0.09979183538357506	
10.04	0.067	0.08853167860929737	
10.045	0.004	0.07025160611284799	
10.05	-0.092	0.04630768241896721	
10.055	-0.050	0.017784765541185743	
10.06	-0.027	-0.009795368561417139	
10.065	-0.113	-0.03451791560948177	
10.07	-0.111	-0.054259355381178875	
10.075	-0.060	-0.07132226130176667	
10.08	-0.125	-0.08577161668165378	
10.085	-0.153	-0.09819424008606177	
10.09	-0.084	-0.10648965657794704	
10.095	-0.111	-0.11373502506934512	
10.1	-0.177	-0.11966989069993779	
10.105	-0.133	-0.12523571987724508	
10.11	-0.111	-0.13080292791195375	
10.115	-0.178	-0.13650079556095637	
10.12	-0.160	-0.14127045391305115	
10.125	-0.090	-0.1433304186620017	
10.13	-0.137	-0.14275261671728695	
10.135	-0.157	-0.1402016706053865	
10.14	-0.085	-0.13450559948236335	
10.145	-0.093	-0.1287158845050975	
10.15	-0.146	-0.12266928921085313	
10.155	-0.090	-0.1162579484281988	
10.16	-0.049	-0.10978558819137194	
10.165	-0.111	-0.10248810207097805	
10.17	-0.090	-0.0942986583339829	
10.175	-0.008	-0.0853260263624543	
10.18	-0.061	-0.07572972388029839	
10.185	-0.092	-0.06722717074028561	
10.19	-0.006	-0.0595177707178645	
10.195	-0.021	-0.05268455465272007	
10.2	-0.090	-0.046677271009872026	
10.205	-0.032	-0.04328820702862403	
10.21	0.026	-0.03976261556013429	
10.215	-0.066	-0.03646972823877552	
10.22	-0.066	-0.033333756933583994	
10.225	-0.002	-0.033331529967510605	
10.23	-0.076	-0.03669771662227989	
10.235	-0.122	-0.044243415243148045	
10.24	-0.061	-0.05454400529623719	
10.245	-0.082	-0.06665533799428311	
10.25	-0.151	-0.07966667941064179	
10.255	-0.111	-0.09031837293146994	
10.26	-0.085	-0.10075059533752734	
10.265	-0.154	-0.1104490059250915	
10.27	-0.154	-0.11735640497502293	
10.275	-0.087	-0.12332678953442369	
10.28	-0.136	-0.12767137928551164	
10.285	-0.159	-0.13026024263993172	
10.29	-0.075	-0.128545524832489	
10.295	-0.089	-0.12462690398268844	
10.3	-0.156	-0.11968694545775765	
10.305	-0.096	-0.11533749954289396	
10.31	-0.055	-0.11071618527302693	
10.315	-0.139	-0.10645325273931999	
10.32	-0.146	-0.10539724058267637	
10.325	-0.095	-0.10730638447007083	
10.33	-0.110	-0.11264711900708106	
10.335	-0.066	-0.11129307717997991	
10.34	0.215	-0.088525453708866	
10.345	0.471	-0.02454669709888901	
10.35	0.666	0.0943295846519315	
10.355	0.892	0.2626534026834816	
10.36	0.858	0.44930635213387954	
10.365	0.398	0.5934834103379484	
10.37	-0.023	0.6324559885223862	
10.375	-0.165	0.5456427784863399	
10.38	-0.303	0.368391813830452	
10.385	-0.367	0.16069481111679926	
10.39	-0.300	-0.029556819092213294	
10.395	-0.261	-0.17651883027851234	
10.4	-0.274	-0.26865399468310813	
10.405	-0.200	-0.3073765616811266	
10.41	-0.137	-0.30767119138876575	
10.415	-0.188	-0.2844123103582544	
10.42	-0.165	-0.2494400393371687	
10.425	-0.095	-0.21331040104532148	
10.43	-0.139	-0.18161392133483395	
10.435	-0.159	-0.15632342994514176	
10.44	-0.079	-0.13757372191246148	
10.445	-0.078	-0.12256430203019816	
10.45	-0.133	-0.11170407294587631	
10.455	-0.073	-0.10138343690198559	
10.46	-0.021	-0.09167366735597177	
10.465	-0.087	-0.08243962696065248	
10.47	-0.070	-0.07343961754705375	
10.475	0.020	-0.062282262226307984	
10.48	-0.024	-0.051619400724078904	
10.485	-0.038	-0.03934019726164382	
10.49	0.081	-0.024546469083279968	
10.495	0.088	-0.0045447685653802585	
10.5	0.014	0.01626458531424472	
10.505	0.101	0.03761154864596801	
10.51	0.174	0.058362826422245426	
10.515	0.072	0.078547419572579	
10.52	0.093	0.0955239049297161	
10.525	0.184	0.10774079132001858	
10.53	0.085	0.11639888327959608	
10.535	-0.002	0.11561652815628862	
10.54	0.070	0.10343284176837367	
10.545	0.029	0.08448800188335376	
10.55	-0.069	0.060265170634054704	
10.555	-0.031	0.03457579418777883	
10.56	-0.011	0.008375925042638042	
10.565	-0.114	-0.016416961086899884	
10.57	-0.122	-0.040499861729250346	
10.575	-0.060	-0.06227844715366469	
10.58	-0.120	-0.08155404281575233	
10.585	-0.160	-0.09636939691854146	
10.59	-0.104	-0.10860188297515477	
10.595	-0.117	-0.11849120818771934	
10.6	-0.182	-0.12770461133062005	
10.605	-0.139	-0.13345661234782125	
10.61	-0.101	-0.13863028036835046	
10.615	-0.166	-0.1413822212520931	
10.62	-0.153	-0.1415132158399211	
10.625	-0.085	-0.13929979648311624	
10.63	-0.139	-0.13753352704173297	
10.635	-0.171	-0.13537193781130236	
10.64	-0.099	-0.13362176669419928	
10.645	-0.089	-0.13047545201819785	
10.65	-0.142	-0.12669897268800695	
10.655	-0.095	-0.11947503366711333	
10.66	-0.044	-0.11162055456769893	
10.665	-0.110	-0.10337500610901659	
10.67	-0.098	-0.0955351179575035	
10.675	-0.009	-0.08629242428946024	
10.68	-0.063	-0.07751397956142789	
10.685	-0.098	-0.0693958090091503	
10.69	-0.017	-0.06262906239680585	
10.695	-0.026	-0.05644596235497731	
10.7	-0.101	-0.052715970810992274	
10.705	-0.049	-0.05050432671157347	
10.71	0.003	-0.049587768351270614	
10.715	-0.090	-0.04936401415439458	
10.72	-0.093	-0.0505786566943963	
10.725	-0.020	-0.05328198885777161	
10.73	-0.084	-0.05847827854695305	
10.735	-0.134	-0.0644289255838299	
10.74	-0.073	-0.07264561952767107	
10.745	-0.081	-0.08140303547956745	
10.75	-0.153	-0.09072331117763965	
10.755	-0.127	-0.09953814679985779	
10.76	-0.101	-0.10855804254874668	
10.765	-0.175	-0.1193509677369479	
10.77	-0.171	-0.1296155593093543	
10.775	-0.102	-0.1372635015053177	
10.78	-0.145	-0.14244413133270298	
10.785	-0.178	-0.14546587313211945	
10.79	-0.108	-0.14465055575488975	
10.795	-0.107	-0.14335368004852267	
10.8	-0.165	-0.13975015677951813	
10.805	-0.117	-0.1355727325730839	
10.81	-0.070	-0.12950237613275106	
10.815	-0.151	-0.12434850797838956	
10.82	-0.172	-0.12268180116793541	
10.825	-0.120	-0.12523554077173155	
10.83	-0.120	-0.13140308998212769	
10.835	-0.060	-0.12951672682228502	
10.84	0.256	-0.1006252565532695	
10.845	0.565	-0.02324351256894579	
10.85	0.790	0.11825397624472848	
10.855	1.029	0.31540322163155166	
10.86	0.995	0.5315427474002172	
10.865	0.512	0.6995792809664392	
10.87	-0.002	0.7481346880442077	
10.875	-0.174	0.6507158523440539	
10.88	-0.317	0.44964489145721626	
10.885	-0.389	0.2124575694381584	
10.89	-0.320	-0.005658062950340367	
10.895	-0.284	-0.1742106714360709	
10.9	-0.296	-0.2817334476598381	
10.905	-0.226	-0.3306263897818209	
10.91	-0.171	-0.33543077219008377	
10.915	-0.215	-0.3153066608283168	
10.92	-0.197	-0.28174503305800924	
10.925	-0.117	-0.2452258666905544	
10.93	-0.145	-0.21135591572612467	
10.935	-0.177	-0.1825657456096568	
10.94	-0.102	-0.15968325370422998	
10.945	-0.093	-0.14225430416783108	
10.95	-0.153	-0.12978839991141505	
10.955	-0.101	-0.11964496336163317	
10.96	-0.044	-0.11142881099610316	
10.965	-0.105	-0.10332910910185081	
10.97	-0.090	-0.0937507722191069	
10.975	0.011	-0.08319946831393123	
10.98	-0.027	-0.0693589548598243	
10.985	-0.061	-0.05558060163465152	
10.99	0.058	-0.038659828836710645	
10.995	0.096	-0.018238839936447204	
11.0	0.026	0.0051925885097194105	
11.005	0.113	0.03135718747792145	
11.01	0.204	0.059593085382073065	
11.015	0.108	0.0886605650010542	
11.02	0.105	0.11222511440699999	
11.025	0.204	0.12980599284950772	
11.03	0.110	0.13965107477388594	
11.035	0.011	0.13839457450783896	
11.04	0.087	0.12631784454204936	
11.045	0.061	0.10577973304636368	
11.05	-0.058	0.08119908459707931	
11.055	-0.031	0.05332564285550611	
11.06	0.001	0.024594211178648136	
11.065	-0.096	-0.0033040266322421964	
11.07	-0.110	-0.02778291721915084	
11.075	-0.043	-0.050212709678074785	
11.08	-0.102	-0.06831497743438764	
11.085	-0.151	-0.08258180629909326	
11.09	-0.098	-0.09470684445934915	
11.095	-0.107	-0.10621995333970825	
11.1	-0.172	-0.11676997058687574	
11.105	-0.140	-0.12468175030696427	
11.11	-0.092	-0.1304264121865871	
11.115	-0.154	-0.1342866169598873	
11.12	-0.160	-0.13577308752147554	
11.125	-0.087	-0.13523449487156936	
11.13	-0.117	-0.13331635121456434	
11.135	-0.154	-0.13056658970902485	
11.14	-0.078	-0.12471317733354695	
11.145	-0.063	-0.11822593268473565	
11.15	-0.125	-0.1097629366591654	
11.155	-0.087	-0.10168455439116106	
11.16	-0.035	-0.09343291681691415	
11.165	-0.105	-0.08728547558066828	
11.17	-0.102	-0.08277638242644059	
11.175	-0.012	-0.07823612980336625	
11.18	-0.063	-0.07331027057040995	
11.185	-0.114	-0.06857221935357169	
11.19	-0.035	-0.06572331296241946	
11.195	-0.015	-0.06321770959025719	
11.2	-0.087	-0.05975594821456772	
11.205	-0.044	-0.054695642107325054	
11.21	0.015	-0.04943294757196208	
11.215	-0.066	-0.044271894413767846	
11.22	-0.069	-0.040782428255693975	
11.225	0.017	-0.03724795512844095	
11.23	-0.041	-0.03529996232381917	
11.235	-0.101	-0.0365697757231552	
11.24	-0.024	-0.03873717791036674	
11.245	-0.029	-0.04321028058427684	
11.25	-0.120	-0.04875032881045291	
11.255	-0.095	-0.05571450870999158	
11.26	-0.050	-0.0654292150252125	
11.265	-0.130	-0.07625575902427804	
11.27	-0.134	-0.08679654108554283	
11.275	-0.081	-0.09524980602035317	
11.28	-0.133	-0.1052817599993401	
11.285	-0.177	-0.11458062270438621	
11.29	-0.113	-0.12274090443433407	
11.295	-0.104	-0.12918859328702506	
11.3	-0.165	-0.13275921094081206	
11.305	-0.127	-0.13272300754980365	
11.31	-0.070	-0.13040182789316215	
11.315	-0.133	-0.12726325563867552	
11.32	-0.134	-0.1218223473461981	
11.325	-0.053	-0.11522043108846072	
11.33	-0.105	-0.11027463552622371	
11.335	-0.177	-0.1076240629885548	
11.34	-0.120	-0.11072754799549142	
11.345	-0.053	-0.11415843072771381	
11.35	0.020	-0.10778573380752415	
11.355	0.341	-0.06569175562322094	
11.36	0.800	0.03669964726849138	
11.365	1.075	0.21576071105687508	
11.37	1.218	-0.06569175562322094	
11.375	1.204	0.7127920338070846	
11.38	0.678	0.9016358760510169	
11.385	0.012	0.9461967526827617	
11.39	-0.195	0.8212021636156689	
11.395	-0.310	0.5738691385876362	
11.4	-0.403	0.2882082799245806	
11.405	-0.352	0.030292593412615483	
11.41	-0.270	-0.16529181814498153	
11.415	-0.285	-0.2892415606823804	
11.42	-0.262	-0.34583454750962095	
11.425	-0.178	-0.3531626634485828	
11.43	-0.191	-0.33126404170510526	
11.435	-0.217	-0.29665804791815087	
11.44	-0.146	-0.2566988757233939	
11.445	-0.125	-0.2201500717991131	
11.45	-0.178	-0.19084490445842078	
11.455	-0.133	-0.16671709200049617	
11.46	-0.073	-0.1473289483652736	
11.465	-0.131	-0.13232771919230887	
11.47	-0.131	-0.12086086273129173	
11.475	-0.043	-0.1111348075297984	
11.48	-0.070	-0.10129167279574536	
11.485	-0.105	-0.09169222225844229	
11.49	-0.009	-0.08065713337263583	
11.495	0.020	-0.06612767749089382	
11.5	-0.053	-0.0508845131816124	
11.505	0.029	-0.03270835088562621	
11.51	0.142	-0.011283061277083613	
11.515	0.076	0.01565487137922795	
11.52	0.097	0.04611457147271563	
11.525	0.244	0.07889929524172744	
11.53	0.186	0.112716224304194	
11.535	0.110	0.14126542039220336	
11.54	0.210	0.16134001775176218	
11.545	0.206	0.1738974617616424	
11.55	0.058	0.17709417112794126	
11.555	0.082	0.167257451723836	
11.56	0.130	0.1487284770573109	
11.565	-0.011	0.12367202821451115	
11.57	-0.049	0.09308495097273804	
11.575	0.021	0.05887933507740933	
11.58	-0.044	0.02575807752214399	
11.585	-0.120	-0.003716275202860211	
11.59	-0.070	-0.030699518333081058	
11.595	-0.064	-0.05508859275578753	
11.6	-0.146	-0.07484875327845049	
11.605	-0.131	-0.09076145995601231	
11.61	-0.085	-0.1043037149991391	
11.615	-0.154	-0.11528012436137579	
11.62	-0.165	-0.12389452898551277	
11.625	-0.099	-0.13017084360453446	
11.63	-0.128	-0.13423505259614715	
11.635	-0.165	-0.13667233909789672	
11.64	-0.095	-0.1347296966684169	
11.645	-0.078	-0.13011244222345142	
11.65	-0.146	-0.12481043882727859	
11.655	-0.119	-0.11876942531099752	
11.66	-0.070	-0.11433944241218663	
11.665	-0.133	-0.11225628548413816	
11.67	-0.137	-0.11088403330413867	
11.675	-0.061	-0.10920139757101506	
11.68	-0.101	-0.10722495977266118	
11.685	-0.149	-0.10665763833584913	
11.69	-0.084	-0.10575652486202716	
11.695	-0.073	-0.10511010236195208	
11.7	-0.143	-0.10478847023091586	
11.705	-0.105	-0.103788639881679	
11.71	-0.032	-0.10134218175440213	
11.715	-0.113	-0.09822766853858894	
11.72	-0.124	-0.09390022402567286	
11.725	-0.031	-0.09022111806261901	
11.73	-0.061	-0.08619459203756269	
11.735	-0.111	-0.08065476021559578	
11.74	-0.035	-0.07478603018911331	
11.745	-0.014	-0.06909535121199757	
11.75	-0.093	-0.06276925339616693	
11.755	-0.050	-0.056813000206455216	
11.76	0.021	-0.050348621358704056	
11.765	-0.069	-0.04520504076647244	
11.77	-0.090	-0.04190983906810037	
11.775	-0.017	-0.04324275312994667	
11.78	-0.072	-0.04718027655223795	
11.785	-0.137	-0.054646404879333414	
11.79	-0.079	-0.06480996266711496	
11.795	-0.072	-0.07609361849673721	
11.8	-0.149	-0.08774487222181956	
11.805	-0.130	-0.09682604548508887	
11.81	-0.079	-0.10536392977389497	
11.815	-0.146	-0.11418291484736026	
11.82	-0.156	-0.11990200508179051	
11.825	-0.075	-0.12225447570721855	
11.83	-0.108	-0.12317181964941483	
11.835	-0.159	-0.12263995347212342	
11.84	-0.090	-0.11981267223355897	
11.845	-0.069	-0.11708858463625554	
11.85	-0.128	-0.11275217661908049	
11.855	-0.101	-0.10582717607411048	
11.86	-0.055	-0.10034861921764157	
11.865	-0.145	-0.09920306541780696	
11.87	-0.171	-0.10192171124037532	
11.875	-0.064	-0.1082245358818243	
11.88	0.049	-0.10516506921116828	
11.885	0.195	-0.07464061773489837	
11.89	0.628	0.006261470354776515	
11.895	1.015	0.15797376974080596	
11.9	1.079	-0.07464061773489837	
11.905	1.024	0.6071550115123048	
11.91	0.709	0.7875896139982974	
11.915	0.053	0.8426603583320191	
11.92	-0.239	0.7419866781524775	
11.925	-0.296	0.5247771009061294	
11.93	-0.357	0.2638561862201622	
11.935	-0.389	0.02135370467250437	
11.94	-0.297	-0.16475689930846743	
11.945	-0.238	-0.2830178891513092	
11.95	-0.261	-0.3397457507706725	
11.955	-0.213	-0.34683417479124545	
11.96	-0.143	-0.3233146604059633	
11.965	-0.182	-0.28718048833531185	
11.97	-0.185	-0.24695529248301887	
11.975	-0.105	-0.20923826803083498	
11.98	-0.119	-0.17913675702485132	
11.985	-0.159	-0.15468915317914383	
11.99	-0.089	-0.13483189159047085	
11.995	-0.061	-0.12003269311752415	
12.0	-0.128	-0.10877140474645595	
12.005	-0.095	-0.09888256264317394	
12.01	-0.012	-0.0902969922136306	
12.015	-0.066	-0.08116588629707472	
12.02	-0.069	-0.0709883238369066	
12.025	0.049	-0.05621659075970851	
12.03	0.020	-0.04010071885836797	
12.035	-0.032	-0.022727569175162637	
12.04	0.093	-0.0038354783744731563	
12.045	0.142	0.018023841691881606	
12.05	0.056	0.04320736700646766	
12.055	0.126	0.0680743853308478	
12.06	0.229	0.09275045524623536	
12.065	0.142	0.11885182743343535	
12.07	0.105	0.1389470771051798	
12.075	0.192	0.1507797092769757	
12.08	0.116	0.15394613796796408	
12.085	0.003	0.14624101219976088	
12.09	0.058	0.12711429464304258	
12.095	0.058	0.10105923356283235	
12.1	-0.066	0.07223689579414064	
12.105	-0.049	0.04202422058418733	
12.11	0.003	0.012741575967537637	
12.115	-0.098	-0.014087428661304061	
12.12	-0.133	-0.038062489525874287	
12.125	-0.070	-0.06026358708574487	
12.13	-0.108	-0.0810051867150673	
12.135	-0.169	-0.097720316072754	
12.14	-0.120	-0.11093219826157659	
12.145	-0.107	-0.12193906894292225	
12.15	-0.178	-0.13071321574268843	
12.155	-0.153	-0.13699996567046996	
12.16	-0.092	-0.14028832595092589	
12.165	-0.153	-0.14204921959021377	
12.17	-0.162	-0.1410583733915708	
12.175	-0.084	-0.13829966315489062	
12.18	-0.101	-0.1329867576748186	
12.185	-0.143	-0.12770230898418555	
12.19	-0.081	-0.11896485511499821	
12.195	-0.064	-0.11093527932823748	
12.2	-0.137	-0.10569155909361203	
12.205	-0.108	-0.101029222851265	
12.21	-0.037	-0.09729066634984765	
12.215	-0.099	-0.09401994428085143	
12.22	-0.116	-0.09008435344711516	
12.225	-0.037	-0.08531214507762605	
12.23	-0.060	-0.08195110810282785	
12.235	-0.111	-0.07872265998096062	
12.24	-0.046	-0.07398925323878644	
12.245	-0.014	-0.06889112092658717	
12.25	-0.102	-0.064696466961908	
12.255	-0.075	-0.061073044016638135	
12.26	0.008	-0.059253985262454734	
12.265	-0.069	-0.05599884500907409	
12.27	-0.090	-0.05313688683959489	
12.275	0.004	-0.050300047750496804	
12.28	-0.032	-0.04790547985357514	
12.285	-0.099	-0.04576309482906603	
12.29	-0.038	-0.04601350647463713	
12.295	-0.017	-0.04684207302583375	
12.3	-0.113	-0.05070278529949195	
12.305	-0.099	-0.05611775769325592	
12.31	-0.034	-0.0632239716285454	
12.315	-0.102	-0.07097347646567828	
12.32	-0.137	-0.07718023160988938	
12.325	-0.075	-0.08529937649642333	
12.33	-0.108	-0.09386625590284588	
12.335	-0.160	-0.1027869437091788	
12.34	-0.099	-0.1090301413619469	
12.345	-0.084	-0.11380191992829734	
12.35	-0.151	-0.1167086462851668	
12.355	-0.131	-0.11814706335272024	
12.36	-0.073	-0.11819293189753162	
12.365	-0.131	-0.11896595365713637	
12.37	-0.142	-0.11821852320926454	
12.375	-0.058	-0.11527509548976993	
12.38	-0.081	-0.11083538514340285	
12.385	-0.160	-0.10683531781159634	
12.39	-0.122	-0.10603966079415932	
12.395	-0.085	-0.10975497825282712	
12.4	-0.104	-0.11173282307309623	
12.405	0.059	-0.10116407114810032	
12.41	0.390	-0.05710937266122059	
12.415	0.585	0.038079767519039846	
12.42	0.799	0.1867565838347473	
12.425	0.960	0.37375002937250235	
12.43	0.716	0.5521654994050346	
12.435	0.165	0.6550303843600281	
12.44	-0.092	0.6318384299885511	
12.445	-0.218	0.49226205615437935	
12.45	-0.348	0.2892949952938716	
12.455	-0.346	0.08078896267212338	
12.46	-0.273	-0.09611863648853076	
12.465	-0.274	-0.2228708864245312	
12.47	-0.256	-0.292252072877408	
12.475	-0.160	-0.31328177996743883	
12.48	-0.157	-0.30276300773763865	
12.485	-0.188	-0.27383890174086456	
12.49	-0.119	-0.2350860446760592	
12.495	-0.076	-0.19672346223732168	
12.5	-0.151	-0.16371523459366866	
12.505	-0.128	-0.13822972315679877	
12.51	-0.052	-0.12014971962620656	
12.515	-0.102	-0.107924109655764	
12.52	-0.114	-0.09828728876417128	
12.525	-0.020	-0.0882754999183493	
12.53	-0.029	-0.07877566094286441	
12.535	-0.095	-0.06886995288176834	
12.54	-0.014	-0.0580661066120219	
12.545	0.027	-0.04770024760988256	
12.55	-0.055	-0.03674342927040859	
12.555	-0.006	-0.026225070066092336	
12.56	0.105	-0.013107199641727749	
12.565	0.047	0.004060425198615512	
12.57	0.030	0.02268643014914405	
12.575	0.161	0.04375643094232107	
12.58	0.139	0.06523305799157267	
12.585	0.043	0.08509302236338123	
12.59	0.134	0.09893578525782543	
12.595	0.168	0.10932426184101116	
12.6	0.023	0.11323905055893076	
12.605	0.033	0.10874808991194511	
12.61	0.107	0.09690297707245736	
12.615	-0.006	0.08107346090700494	
12.62	-0.060	0.060665110816608164	
12.625	0.032	0.037741235866071934	
12.63	-0.021	0.016261598523299496	
12.635	-0.116	-0.0048936766691267015	
12.64	-0.073	-0.025096795022252764	
12.645	-0.047	-0.04566850167022153	
12.65	-0.134	-0.06471639418751174	
12.655	-0.124	-0.07926566121900921	
12.66	-0.064	-0.09111920644951693	
12.665	-0.127	-0.10089008672945415	
12.67	-0.165	-0.10932691552728699	
12.675	-0.098	-0.11529167998949501	
12.68	-0.113	-0.12172578094828629	
12.685	-0.169	-0.12587409721122295	
12.69	-0.113	-0.12811541826937517	
12.695	-0.075	-0.12766796102597838	
12.7	-0.137	-0.12470155980688409	
12.705	-0.113	-0.11927887712917379	
12.71	-0.026	-0.11112326523530625	
12.715	-0.093	-0.10187538856885361	
12.72	-0.114	-0.0933378527553417	
12.725	-0.012	-0.08430190395875856	
12.73	-0.032	-0.07470610148205817	
12.735	-0.108	-0.06587818037771868	
12.74	-0.041	-0.05914263731521867	
12.745	-0.003	-0.054654482143396785	
12.75	-0.089	-0.051685706302048315	
12.755	-0.066	-0.04930871350778165	
12.76	0.027	-0.047126490035496	
12.765	-0.047	-0.04284120302338344	
12.77	-0.076	-0.03935238069298234	
12.775	0.021	-0.03533069060728019	
12.78	-0.003	-0.030674888694726513	
12.785	-0.078	-0.027865304985605324	
12.79	0.006	-0.02418191696444854	
12.795	0.041	-0.02063951886405488	
12.8	-0.063	-0.016648733371651323	
12.805	-0.044	-0.014349498730242301	
12.81	0.038	-0.015146455344005045	
12.815	-0.046	-0.016789769834193592	
12.82	-0.084	-0.019363782349247308	
12.825	-0.009	-0.025380750375316695	
12.83	-0.046	-0.03263930082261679	
12.835	-0.124	-0.04183511470603829	
12.84	-0.082	-0.052234808602929256	
12.845	-0.058	-0.06464602384187618	
12.85	-0.136	-0.07759433172581932	
12.855	-0.124	-0.08736504592484544	
12.86	-0.061	-0.0951822570996609	
12.865	-0.119	-0.10175237210339906	
12.87	-0.142	-0.10634792274859077	
12.875	-0.069	-0.10741494228381164	
12.88	-0.081	-0.10662553960067686	
12.885	-0.140	-0.10581274110292148	
12.89	-0.085	-0.10325899804380084	
12.895	-0.046	-0.0996414448346997	
12.9	-0.127	-0.0965748206489502	
12.905	-0.127	-0.09439354649729459	
12.91	-0.079	-0.09618886920128766	
12.915	-0.125	-0.10072467175555656	
12.92	-0.095	-0.10336450548245545	
12.925	0.171	-0.08941494697963753	
12.93	0.401	-0.03855331992788097	
12.935	0.614	0.06522517849901169	
12.94	0.945	0.2267330868476149	
12.945	1.005	0.42538721489564824	
12.95	0.675	0.6094021684129198	
12.955	0.230	0.7084632751543061	
12.96	-0.049	0.6787121535294718	
12.965	-0.258	0.5292934169692981	
12.97	-0.355	0.3166303061531659	
12.975	-0.302	0.09754703100719547	
12.98	-0.284	-0.08752999728328963	
12.985	-0.300	-0.21775130757213532	
12.99	-0.215	-0.28929745168749876	
12.995	-0.154	-0.31260711738496066	
13.0	-0.197	-0.3025141967032221	
13.005	-0.174	-0.27242987887427633	
13.01	-0.096	-0.23520659465094332	
13.015	-0.134	-0.20068286798458398	
13.02	-0.156	-0.16938366940527838	
13.025	-0.072	-0.1444653513625084	
13.03	-0.067	-0.12357017215892674	
13.035	-0.134	-0.10881391116280592	
13.04	-0.084	-0.09731429374178355	
13.045	-0.038	-0.08960909272957161	
13.05	-0.105	-0.0845536232811149	
13.055	-0.085	-0.07943529737150566	
13.06	0.017	-0.07316758480391866	
13.065	-0.046	-0.06369315012408247	
13.07	-0.073	-0.05440900842725227	
13.075	0.050	-0.04243155107375761	
13.08	0.068	-0.027550133895835417	
13.085	0.003	-0.00784411606569406	
13.09	0.120	0.0156943685943072	
13.095	0.194	0.04442728585957443	
13.1	0.096	0.0744266979104646	
13.105	0.119	0.10153556816003567	
13.11	0.209	0.1228528520040015	
13.115	0.110	0.13731236510791806	
13.12	0.037	0.1405535596232939	
13.125	0.128	0.13356096393131606	
13.13	0.076	0.12047571526822039	
13.135	-0.049	0.10114104075978658	
13.14	-0.006	0.07465622252109497	
13.145	0.018	0.045444873885638434	
13.15	-0.090	0.01646080004305138	
13.155	-0.093	-0.009490509755327534	
13.16	-0.040	-0.03416208076009891	
13.165	-0.110	-0.05563705371248561	
13.17	-0.154	-0.07543568266557801	
13.175	-0.082	-0.09047807625485454	
13.18	-0.099	-0.10349888471356194	
13.185	-0.175	-0.11282058444977229	
13.19	-0.133	-0.12037774621253079	
13.195	-0.099	-0.12756641144452788	
13.2	-0.166	-0.1335012405873261	
13.205	-0.159	-0.13650194902645724	
13.21	-0.087	-0.13718860029932028	
13.215	-0.133	-0.137613613846494	
13.22	-0.160	-0.1354291610741652	
13.225	-0.079	-0.13050079398822284	
13.23	-0.082	-0.1254937640547564	
13.235	-0.137	-0.11881212656621537	
13.24	-0.078	-0.11038477517215414	
13.245	-0.040	-0.10156349279314116	
13.25	-0.113	-0.0935056412993768	
13.255	-0.095	-0.0875121271429425	
13.26	-0.008	-0.08017493949133406	
13.265	-0.061	-0.07361161059504348	
13.27	-0.087	-0.06645218737482526	
13.275	-0.008	-0.058490728502497445	
13.28	0.001	-0.05047334129464401	
13.285	-0.076	-0.04283888207737787	
13.29	-0.023	-0.03639675336758284	
13.295	0.017	-0.03153004589732452	
13.3	-0.082	-0.029514656977848837	
13.305	-0.069	-0.03054613048798344	
13.31	0.029	-0.03314767881744782	
13.315	-0.040	-0.03359044407320584	
13.32	-0.090	-0.03348937515515342	
13.325	-0.006	-0.03549495207650877	
13.33	-0.029	-0.03743875570212635	
13.335	-0.117	-0.041851693165036175	
13.34	-0.072	-0.04842596323346066	
13.345	-0.026	-0.056505856929540896	
13.35	-0.114	-0.06349065110388223	
13.355	-0.125	-0.07157471677271168	
13.36	-0.073	-0.08016141608490848	
13.365	-0.128	-0.09156011147798764	
13.37	-0.165	-0.1024916577869672	
13.375	-0.089	-0.11151991572834893	
13.38	-0.098	-0.11741533988274248	
13.385	-0.166	-0.12183476271753108	
13.39	-0.117	-0.12245281234976875	
13.395	-0.075	-0.12350024041526707	
13.4	-0.143	-0.12246899678180266	
13.405	-0.134	-0.1205936794974873	
13.41	-0.061	-0.1171628073955786	
13.415	-0.111	-0.11453763980857938	
13.42	-0.157	-0.11150840208989984	
13.425	-0.104	-0.11153510384990918	
13.43	-0.104	-0.11439882092111002	
13.435	-0.108	-0.11583751816196688	
13.44	0.111	-0.10144735429847848	
13.445	0.424	-0.05144635372707501	
13.45	0.651	0.05457462048839351	
13.455	0.977	0.2224224260909668	
13.46	1.162	0.4398624933944332	
13.465	0.913	0.657440965820496	
13.47	0.383	0.798367457337088	
13.475	-0.002	0.8003364358655789	
13.48	-0.218	0.659574109526877	
13.485	-0.361	0.43017728670349115	
13.49	-0.351	0.18053007019107742	
13.495	-0.300	-0.0374559022915325	
13.5	-0.314	-0.1993944394408902	
13.505	-0.270	-0.29557994244082647	
13.51	-0.177	-0.33415820103502814	
13.515	-0.194	-0.33249719522914656	
13.52	-0.210	-0.3054998503674612	
13.525	-0.139	-0.26755783250156573	
13.53	-0.131	-0.2303913817192208	
13.535	-0.182	-0.1978316477775687	
13.54	-0.130	-0.17148443437793123	
13.545	-0.076	-0.15049092057693908	
13.55	-0.139	-0.13546056121295916	
13.555	-0.125	-0.12261407205272348	
13.56	-0.041	-0.11215540954459852	
13.565	-0.085	-0.10252876191678736	
13.57	-0.119	-0.09452617567747248	
13.575	-0.023	-0.08552305879529783	
13.58	0.000	-0.07537980758195062	
13.585	-0.075	-0.06286382145025352	
13.59	0.000	-0.048465219326657205	
13.595	0.097	-0.03145636728416146	
13.6	0.023	-0.010487320525746666	
13.605	0.058	0.012376616375757743	
13.61	0.198	0.03988271443341274	
13.615	0.165	0.07046659249244681	
13.62	0.101	0.10244467207830625	
13.625	0.219	0.12848920366367123	
13.63	0.203	0.15062639272211137	
13.635	0.055	0.16211030286818437	
13.64	0.108	0.1615214942538385	
13.645	0.151	0.15054850124950742	
13.65	-0.002	0.13251375854539438	
13.655	-0.026	0.10736248050706912	
13.66	0.049	0.0768663373731319	
13.665	-0.035	0.04548176104580211	
13.67	-0.096	0.01646458985131569	
13.675	-0.037	-0.009530317938108561	
13.68	-0.061	-0.03337465931238148	
13.685	-0.146	-0.054848011772816424	
13.69	-0.114	-0.07347687247801923	
13.695	-0.078	-0.09047779773110436	
13.7	-0.157	-0.10445968355546785	
13.705	-0.165	-0.11661079624769292	
13.71	-0.095	-0.1251626181921836	
13.715	-0.137	-0.13252407398151778	
13.72	-0.177	-0.13650487601161532	
13.725	-0.104	-0.13754111587433837	
13.73	-0.098	-0.13739798749774812	
13.735	-0.156	-0.13482730267686138	
13.74	-0.105	-0.12846400159204613	
13.745	-0.058	-0.12150249057053499	
13.75	-0.127	-0.11546708302605312	
13.755	-0.116	-0.10858923646375296	
13.76	-0.032	-0.101162852517353	
13.765	-0.090	-0.09455028127075082	
13.77	-0.125	-0.08950303009824792	
13.775	-0.041	-0.08451696005723808	
13.78	-0.047	-0.08041247143102391	
13.785	-0.124	-0.07785397592181645	
13.79	-0.072	-0.07544200994827344	
13.795	-0.006	-0.07348513691712479	
13.8	-0.093	-0.06949651243029888	
13.805	-0.087	-0.06659180578079713	
13.81	0.012	-0.0621329093443174	
13.815	-0.047	-0.05656016227601281	
13.82	-0.096	-0.05152371784912474	
13.825	-0.014	-0.048500286185091154	
13.83	-0.006	-0.04540342938518134	
13.835	-0.085	-0.042868486043516785	
13.84	-0.035	-0.040442610640028284	
13.845	0.020	-0.038476641131340465	
13.85	-0.079	-0.036498656742390556	
13.855	-0.090	-0.03760010428899055	
13.86	-0.011	-0.04113732163991822	
13.865	-0.075	-0.04755458313536711	
13.87	-0.127	-0.055520531463883756	
13.875	-0.053	-0.06250675012191459	
13.88	-0.072	-0.0714025602451788	
13.885	-0.151	-0.07986365816545798	
13.89	-0.117	-0.08944683535977628	
13.895	-0.084	-0.09847754612504436	
13.9	-0.151	-0.10849429818759952	
13.905	-0.145	-0.11559799524249062	
13.91	-0.075	-0.1201291701084332	
13.915	-0.117	-0.12255342924165329	
13.92	-0.156	-0.121528607474042	
13.925	-0.078	-0.11949687734637844	
13.93	-0.069	-0.11539618591815591	
13.935	-0.134	-0.11087835727562621	
13.94	-0.095	-0.1044410787121886	
13.945	-0.070	-0.10046438621712861	
13.95	-0.165	-0.10151942525732945	
13.955	-0.156	-0.1066085273230216	
13.96	0.030	-0.10809502343617264	
13.965	0.189	-0.08853877611919767	
13.97	0.433	-0.022508999366588813	
13.975	0.945	0.10857924889434328	
13.98	1.277	0.31765473710437264	
13.985	1.195	0.5761000376831965	
13.99	1.032	0.8175035680568131	
13.995	0.529	0.9594315066182216	
14.0	-0.090	0.9413534836247859	
14.005	-0.290	0.7633306707707102	
14.01	-0.322	0.49191008459867036	
14.015	-0.366	0.20347777937598857	
14.02	-0.374	-0.041513343132900324	
14.025	-0.276	-0.21443697886742158	
14.03	-0.233	-0.3163364565648879	
14.035	-0.261	-0.3558773835039817	
14.04	-0.206	-0.35044088528817263	
14.045	-0.145	-0.3214287361975587	
14.05	-0.192	-0.2825161859073686	
14.055	-0.185	-0.2426385162218069	
14.06	-0.108	-0.2060921568045468	
14.065	-0.130	-0.17854897343512227	
14.07	-0.159	-0.15658699915240135	
14.075	-0.078	-0.13747316135716942	
14.08	-0.072	-0.12235145344858087	
14.085	-0.137	-0.11094227782804358	
14.09	-0.079	-0.10145748189102871	
14.095	-0.009	-0.0923805061339791	
14.1	-0.079	-0.08154279047542401	
14.105	-0.064	-0.07067579287415586	
14.11	0.059	-0.057029580666752025	
14.115	0.018	-0.039529031483529084	
14.12	-0.014	-0.019648728382310725	
14.125	0.136	0.0025490919283022604	
14.13	0.192	0.03170973601656112	
14.135	0.116	0.06702192279788474	
14.14	0.203	0.1045095920106678	
14.145	0.294	0.14166549313225016	
14.15	0.180	0.17445999414377017	
14.155	0.160	0.19826677197613565	
14.16	0.273	0.21097328371564372	
14.165	0.168	0.21550659643797637	
14.17	0.046	0.20831722709279055	
14.175	0.125	0.18650373768551226	
14.18	0.091	0.15773885392886172	
14.185	-0.043	0.12504624700233896	
14.19	-0.015	0.08846062931413076	
14.195	0.014	0.05165560742354705	
14.2	-0.095	0.016529851209012642	
14.205	-0.119	-0.01573608829706849	
14.21	-0.060	-0.04408419649110766	
14.215	-0.111	-0.06943961106528304	
14.22	-0.165	-0.08962509932688291	
14.225	-0.105	-0.10555873668762811	
14.23	-0.104	-0.11726530350203074	
14.235	-0.172	-0.12587722586447375	
14.24	-0.137	-0.13057188738025086	
14.245	-0.090	-0.13339444355585328	
14.25	-0.148	-0.13541028106527825	
14.255	-0.145	-0.13372603144933476	
14.26	-0.067	-0.1291450576920094	
14.265	-0.107	-0.12441628385043564	
14.27	-0.148	-0.11859191430940398	
14.275	-0.072	-0.1126050445554262	
14.28	-0.066	-0.10727200388121724	
14.285	-0.134	-0.10284061244278647	
14.29	-0.104	-0.09859389442700067	
14.295	-0.053	-0.09641580419699908	
14.3	-0.119	-0.09538377763862566	
14.305	-0.125	-0.09573008696712129	
14.31	-0.056	-0.09516868877211274	
14.315	-0.098	-0.09639967391282758	
14.32	-0.137	-0.0965834919142542	
14.325	-0.055	-0.0956227963316109	
14.33	-0.044	-0.09326310401398696	
14.335	-0.122	-0.08882838532168605	
14.34	-0.072	-0.0836078216782356	
14.345	0.001	-0.0774131009510737	
14.35	-0.078	-0.07036901884865843	
14.355	-0.089	-0.06374188500069089	
14.36	0.014	-0.0571757617424814	
14.365	-0.027	-0.05038274453598482	
14.37	-0.082	-0.04458673286229528	
14.375	-0.006	-0.038641601287670885	
14.38	-0.006	-0.035253885232898706	
14.385	-0.099	-0.03482167699434889	
14.39	-0.075	-0.0376294070093765	
14.395	-0.024	-0.04441279761257582	
14.4	-0.108	-0.053352210032684796	
14.405	-0.125	-0.06375527028834123	
14.41	-0.066	-0.0741830440232996	
14.415	-0.111	-0.08536487084897687	
14.42	-0.168	-0.09659270602427722	
14.425	-0.101	-0.10665248994386711	
14.43	-0.084	-0.11423308302385835	
14.435	-0.154	-0.11881510896285254	
14.44	-0.122	-0.11964400217415191	
14.445	-0.069	-0.11940054748658822	
14.45	-0.134	-0.11834169561592837	
14.455	-0.142	-0.11677317007711426	
14.46	-0.061	-0.11417864042662099	
14.465	-0.093	-0.11134792172069728	
14.47	-0.140	-0.10760859814601648	
14.475	-0.082	-0.10365884401586942	
14.48	-0.098	-0.1032195925450591	
14.485	-0.175	-0.10683369558411869	
14.49	-0.102	-0.11065316956253696	
14.495	0.111	-0.10536210922012168	
14.5	0.238	-0.06931635158084898	
14.505	0.564	0.0162493408096308	
14.51	1.056	0.16888642255638162	
14.515	1.197	0.38869323209668705	
14.52	1.003	0.6293495154950655	
14.525	0.721	0.8162441587093733	
14.53	0.163	0.8766758005938236	
14.535	-0.229	0.7790890512976847	
14.54	-0.319	0.5633112041858764	
14.545	-0.314	0.29864985926462845	
14.55	-0.361	0.049707888104579	
14.555	-0.334	-0.14376894205514643	
14.56	-0.232	-0.26812897017167836	
14.565	-0.220	-0.3292801227571888	
14.57	-0.233	-0.34162659021751896	
14.575	-0.148	-0.31867226987612174	
14.58	-0.119	-0.2811591558811106	
14.585	-0.177	-0.23884288578893995	
14.59	-0.136	-0.19871780280720214	
14.595	-0.064	-0.1653324348576149	
14.6	-0.116	-0.13931907713740294	
14.605	-0.120	-0.11887426071014406	
14.61	-0.035	-0.10214272553362748	
14.615	-0.070	-0.0902679850467521	
14.62	-0.120	-0.08170952982402294	
14.625	-0.034	-0.07568387887580541	
14.63	-0.006	-0.06908851536158425	
14.635	-0.079	-0.060880315901463825	
14.64	-0.023	-0.05175956289962768	
14.645	0.088	-0.03825339970697818	
14.65	0.026	-0.02030496542660091	
14.655	0.026	0.0020532634418190016	
14.66	0.174	0.025893821754756175	
14.665	0.158	0.05479290649733268	
14.67	0.096	0.08523313648410287	
14.675	0.209	0.11428977072969239	
14.68	0.236	0.13997198096500432	
14.685	0.111	0.16110490772612757	
14.69	0.133	0.17217760242969468	
14.695	0.201	0.17276859550349838	
14.7	0.047	0.16472216502488374	
14.705	-0.014	0.1450033797268649	
14.71	0.064	0.1148700718177366	
14.715	-0.009	0.08083732527750553	
14.72	-0.089	0.04623780739864608	
14.725	-0.035	0.014248367003673634	
14.73	-0.026	-0.014006294163043777	
14.735	-0.125	-0.0378466768315176	
14.74	-0.104	-0.056848042567197686	
14.745	-0.060	-0.07324927761100011	
14.75	-0.140	-0.08822573504481623	
14.755	-0.159	-0.10098865399448947	
14.76	-0.090	-0.11116593360133371	
14.765	-0.131	-0.12013923870520285	
14.77	-0.185	-0.1277425119548322	
14.775	-0.124	-0.13378741742622213	
14.78	-0.111	-0.13800395123710535	
14.785	-0.163	-0.14081987877349228	
14.79	-0.127	-0.1388701040779089	
14.795	-0.060	-0.13425600948548777	
14.8	-0.128	-0.12719927173310797	
14.805	-0.136	-0.12000483409821332	
14.81	-0.052	-0.11218361561005354	
14.815	-0.081	-0.10611365857879138	
14.82	-0.134	-0.0997473085574409	
14.825	-0.064	-0.09381138667220863	
14.83	-0.035	-0.0889847249237722	
14.835	-0.117	-0.08381501215171405	
14.84	-0.089	-0.07989842615483492	
14.845	-0.017	-0.07624821673694179	
14.85	-0.089	-0.07418239382802894	
14.855	-0.105	-0.07202501123319971	
14.86	-0.015	-0.06918420051306709	
14.865	-0.041	-0.06609148466564181	
14.87	-0.096	-0.06276130695703643	
14.875	-0.012	-0.05682113639476771	
14.88	0.017	-0.049958199302023346	
14.885	-0.072	-0.04182151143540537	
14.89	-0.043	-0.03492366671433563	
14.895	0.041	-0.03022553636806807	
14.9	-0.055	-0.02617167440751814	
14.905	-0.084	-0.02505763296802217	
14.91	-0.011	-0.02818212519820566	
14.915	-0.060	-0.03506895662356728	
14.92	-0.131	-0.0447803072572737	
14.925	-0.066	-0.05583517237827463	
14.93	-0.049	-0.06693730441615861	
14.935	-0.145	-0.07681882110956305	
14.94	-0.128	-0.08593950138309209	
14.945	-0.073	-0.09521824974013779	
14.95	-0.139	-0.10516119592086902	
14.955	-0.154	-0.11306416410328314	
14.96	-0.081	-0.11717443552664158	
14.965	-0.108	-0.12005743404614076	
14.97	-0.149	-0.12079257396236648	
14.975	-0.078	-0.11783070269782396	
14.98	-0.058	-0.11291870316298382	
14.985	-0.134	-0.10683995007012934	
14.99	-0.107	-0.10195101045091962	
14.995	-0.047	-0.09718502886071934	
15.0	-0.125	-0.09617223725112184	
15.005	-0.157	-0.09710429454435104	
15.01	-0.087	-0.1011458239814514	
15.015	-0.073	-0.10603640291660654	
15.02	-0.029	-0.10183013126430901	
15.025	0.267	-0.07179607836131717	
15.03	0.578	0.005168350564285619	
15.035	0.730	0.1391612359255995	
15.04	0.860	0.3150322202622692	
15.045	0.831	0.4968368652398925	
15.05	0.349	0.6227551345252256	
15.055	-0.073	0.6377482468394953	
15.06	-0.169	0.5328170346099208	
15.065	-0.281	0.3470112279351956	
15.07	-0.346	0.14115213583557296	
15.075	-0.282	-0.039831799248232456	
15.08	-0.232	-0.17579955147902807	
15.085	-0.250	-0.25882782526525583	
15.09	-0.186	-0.2909969680973725	
15.095	-0.107	-0.28611263075222615	
15.1	-0.151	-0.26013702308026265	
15.105	-0.159	-0.22417801994683909	
15.11	-0.066	-0.18712986050532887	
15.115	-0.085	-0.15397938586379745	
15.12	-0.136	-0.12790056053044294	
15.125	-0.063	-0.10685626937327204	
15.13	-0.035	-0.09180512542591246	
15.135	-0.108	-0.08189455262664846	
15.14	-0.072	-0.07303463335224358	
15.145	0.015	-0.06607413572496786	
15.15	-0.049	-0.05715393642323079	
15.155	-0.064	-0.048221630669287974	
15.16	0.049	-0.038084060251274976	
15.165	0.018	-0.026954497129968384	
15.17	-0.041	-0.014951981154694816	
15.175	0.073	-0.0028393933082654847	
15.18	0.140	0.014248773095169602	
15.185	0.049	0.03507281055842558	
15.19	0.114	0.05894029331385483	
15.195	0.236	0.08397097599169175	
15.2	0.131	0.10984545970975516	
15.205	0.091	0.13173216053074094	
15.21	0.201	0.14392403976868332	
15.215	0.143	0.150068760848372	
15.22	0.023	0.1480240785296409	
15.225	0.094	0.13613631353509031	
15.23	0.101	0.118259539156011	
15.235	-0.035	0.09708526878836193	
15.24	-0.035	0.07092056248050932	
15.245	0.023	0.04295092887249359	
15.25	-0.078	0.013875349568103715	
15.255	-0.104	-0.012245028958884524	
15.26	-0.041	-0.035106259958795114	
15.265	-0.087	-0.05592458553198239	
15.27	-0.149	-0.07292943077435812	
15.275	-0.089	-0.08687792102262998	
15.28	-0.072	-0.09676426979761031	
15.285	-0.154	-0.1048779145384427	
15.29	-0.136	-0.11006937315919613	
15.295	-0.070	-0.1140819599981938	
15.3	-0.139	-0.11811488907324003	
15.305	-0.157	-0.12022393880334778	
15.31	-0.082	-0.12112798515744905	
15.315	-0.105	-0.1219341414234137	
15.32	-0.154	-0.12090952925690285	
15.325	-0.081	-0.11788087165725382	
15.33	-0.053	-0.1127804928699077	
15.335	-0.127	-0.10687180037600992	
15.34	-0.099	-0.10006040731259971	
15.345	-0.023	-0.09309055180381218	
15.35	-0.079	-0.08612094996557945	
15.355	-0.101	-0.07921611038780585	
15.36	-0.002	-0.07112549772027896	
15.365	-0.027	-0.06294178632281065	
15.37	-0.090	-0.05491160836656835	
15.375	-0.006	-0.04787788239019271	
15.38	0.023	-0.039781155843693954	
15.385	-0.073	-0.03287481611200026	
15.39	-0.046	-0.028064622092482755	
15.395	0.038	-0.02609118388257794	
15.4	-0.049	-0.024114613145468165	
15.405	-0.070	-0.02421915483524334	
15.41	0.037	-0.023135809898590178	
15.415	-0.005	-0.021930947787695495	
15.42	-0.089	-0.020902980802829516	
15.425	-0.021	-0.022900594733443483	
15.43	0.004	-0.025782671779051216	
15.435	-0.102	-0.030847175480647755	
15.44	-0.090	-0.03807968425018568	
15.445	-0.015	-0.047113918413914185	
15.45	-0.090	-0.0560812475089654	
15.455	-0.125	-0.06421123646476007	
15.46	-0.063	-0.07217709327192032	
15.465	-0.102	-0.08191830089815051	
15.47	-0.168	-0.09186822013158993	
15.475	-0.104	-0.1019296332904984	
15.48	-0.075	-0.10979515920063043	
15.485	-0.151	-0.11480424597680526	
15.49	-0.127	-0.11708403878378162	
15.495	-0.060	-0.11614671233208747	
15.5	-0.122	-0.1150560807328599	
15.505	-0.142	-0.11319671775399835	
15.51	-0.058	-0.10920820526159143	
15.515	-0.084	-0.10590785406430576	
15.52	-0.153	-0.10384706828761506	
15.525	-0.114	-0.10295873484461607	
15.53	-0.093	-0.1068013263808404	
15.535	-0.119	-0.11078158276265002	
15.54	0.029	-0.10408745073760585	
15.545	0.335	-0.06712029633218783	
15.55	0.530	0.016004270513956954	
15.555	0.811	0.1568211234010562	
15.56	1.058	0.34880304628827813	
15.565	0.887	0.5510986675688718	
15.57	0.386	0.6970514044668604	
15.575	0.009	0.7199010810258447	
15.58	-0.185	0.608170971966591	
15.585	-0.339	0.40523870889099584	
15.59	-0.351	0.17788548313121913	
15.595	-0.281	-0.027127841631204616	
15.6	-0.294	-0.18096468589672293	
15.605	-0.271	-0.27518212984370743	
15.61	-0.168	-0.31421775428000864	
15.615	-0.166	-0.31386014263272477	
15.62	-0.207	-0.289836561996747	
15.625	-0.137	-0.25398653645734826	
15.63	-0.104	-0.21778612187545948	
15.635	-0.165	-0.18577597982768873	
15.64	-0.133	-0.1591255564522463	
15.645	-0.058	-0.1381487077865295	
15.65	-0.116	-0.12303018376562425	
15.655	-0.131	-0.11122560948118249	
15.66	-0.037	-0.10120806363192267	
15.665	-0.058	-0.09188099467247973	
15.67	-0.107	-0.08387474298349468	
15.675	-0.020	-0.0739569054840743	
15.68	0.024	-0.06275906120628333	
15.685	-0.060	-0.04981405423516051	
15.69	-0.011	-0.03612272016490592	
15.695	0.113	-0.020098769832318425	
15.7	0.043	-4.705653937280745e-05	
15.705	0.035	0.02174328864690357	
15.71	0.183	0.044828795341604645	
15.715	0.171	0.07113338578108465	
15.72	0.087	0.09808771416440588	
15.725	0.181	0.12104270366992678	
15.73	0.213	0.13926054166646962	
15.735	0.070	0.1511689916922888	
15.74	0.078	0.1518558931428391	
15.745	0.149	0.1429007877768424	
15.75	0.018	0.12595844792345146	
15.755	-0.041	0.10273745151091007	
15.76	0.037	0.0738102158120483	
15.765	-0.018	0.04413823171623679	
15.77	-0.105	0.015112943599924804	
15.775	-0.053	-0.011969273727928944	
15.78	-0.040	-0.03475149975029096	
15.785	-0.139	-0.05579195523651706	
15.79	-0.128	-0.07313455888113633	
15.795	-0.073	-0.0891289012401986	
15.8	-0.142	-0.10301741745834174	
15.805	-0.169	-0.11423288639286432	
15.81	-0.099	-0.12222031354359121	
15.815	-0.117	-0.1288662807127378	
15.82	-0.175	-0.1328546275112734	
15.825	-0.122	-0.13398359799159945	
15.83	-0.093	-0.13477504893570053	
15.835	-0.154	-0.13477215630625317	
15.84	-0.130	-0.13112349766584652	
15.845	-0.056	-0.12614736047026784	
15.85	-0.110	-0.12002290981256185	
15.855	-0.124	-0.11221849215537227	
15.86	-0.040	-0.10321818172345427	
15.865	-0.064	-0.09488493257302973	
15.87	-0.122	-0.08785884026661245	
15.875	-0.049	-0.0809637602376308	
15.88	-0.008	-0.07377848102601871	
15.885	-0.098	-0.06779632727993506	
15.89	-0.075	-0.0621136421635051	
15.895	0.017	-0.057129329740443754	
15.9	-0.061	-0.0520442959042938	
15.905	-0.089	-0.0482300012990771	
15.91	0.015	-0.045193970010344184	
15.915	-0.011	-0.04088393810224202	
15.92	-0.089	-0.036879255077971546	
15.925	-0.008	-0.03395635630626585	
15.93	0.033	-0.029764368174826136	
15.935	-0.069	-0.025805215212090726	
15.94	-0.053	-0.024124080094429547	
15.945	0.033	-0.0241240257054146	
15.95	-0.052	-0.02403302076846464	
15.955	-0.095	-0.02723777199972277	
15.96	-0.020	-0.032212328865221934	
15.965	-0.056	-0.040870831594662836	
15.97	-0.128	-0.050865185494442314	
15.975	-0.076	-0.05997949749836799	
15.98	-0.058	-0.07076716772428852	
15.985	-0.142	-0.08078000999943025	
15.99	-0.131	-0.09013204573757377	
15.995	-0.073	-0.09913881471765325	
16.0	-0.134	-0.10701619198867243	
16.005	-0.154	-0.11322975521356135	
16.01	-0.075	-0.11722131369981541	
16.015	-0.096	-0.11786510652667231	
16.02	-0.157	-0.11785780470889416	
16.025	-0.095	-0.1149863397039124	
16.03	-0.053	-0.11276749331441684	
16.035	-0.131	-0.10877319391588527	
16.04	-0.119	-0.10413565148796791	
16.045	-0.079	-0.1021453506833948	
16.05	-0.157	-0.10602046021562236	
16.055	-0.151	-0.11223199245967527	
16.06	0.058	-0.1102055649602118	
16.065	0.256	-0.08183679036526734	
16.07	0.469	-0.005825514779646629	
16.075	0.947	0.135065845972176	
16.08	1.267	0.3462793383816779	
16.085	1.131	0.5952133237277677	
16.09	0.884	0.8147841272521993	
16.095	0.415	0.9257474328816272	
16.1	-0.125	0.8798849648087936	
16.105	-0.313	0.6887089026992732	
16.11	-0.320	0.42179107442750546	
16.115	-0.339	0.15019454595380627	
16.12	-0.357	-0.07483388488971728	
16.125	-0.268	-0.22896200451290366	
16.13	-0.204	-0.3146927431379256	
16.135	-0.244	-0.34375497972012303	
16.14	-0.213	-0.3341760701509897	
16.145	-0.128	-0.30310239749581125	
16.15	-0.171	-0.2649765711397486	
16.155	-0.188	-0.22630460458002505	
16.16	-0.105	-0.1932282390778316	
16.165	-0.108	-0.16679005647134815	
16.17	-0.159	-0.14691574838141175	
16.175	-0.096	-0.13003997790423158	
16.18	-0.055	-0.11767152723171637	
16.185	-0.124	-0.10778508654616831	
16.19	-0.099	-0.09923947105738429	
16.195	-0.002	-0.0900585590162351	
16.2	-0.056	-0.07995047924399357	
16.205	-0.075	-0.06836458213422034	
16.21	0.049	-0.05420317814837849	
16.215	0.049	-0.036727369674923946	
16.22	-0.014	-0.015967428951889687	
16.225	0.114	0.005936958431490008	
16.23	0.210	0.035407369372297055	
16.235	0.120	0.07020917842335796	
16.24	0.166	0.10568922863888346	
16.245	0.287	0.1389776885925041	
16.25	0.194	0.1690951063232665	
16.255	0.123	0.19056571156876423	
16.26	0.226	0.19976218463246442	
16.265	0.183	0.1993367813436452	
16.27	0.044	0.1900241186101355	
16.275	0.087	0.17085944352899438	
16.28	0.096	0.1434292822993148	
16.285	-0.044	0.1112609514447481	
16.29	-0.055	0.07563769701277935	
16.295	0.003	0.03795051000018012	
16.3	-0.085	0.0031677099441599337	
16.305	-0.127	-0.02742256273683287	
16.31	-0.064	-0.053291977158789076	
16.315	-0.096	-0.07462653517628494	
16.32	-0.172	-0.09292278559050941	
16.325	-0.130	-0.10718709443830705	
16.33	-0.090	-0.11958163612265071	
16.335	-0.166	-0.12867534358885585	
16.34	-0.153	-0.13337697279150124	
16.345	-0.085	-0.135094641999728	
16.35	-0.134	-0.13579350312396993	
16.355	-0.149	-0.1334083614570763	
16.36	-0.076	-0.12833750103566083	
16.365	-0.090	-0.12261583338590315	
16.37	-0.149	-0.11789759151729116	
16.375	-0.085	-0.11121551972866422	
16.38	-0.044	-0.10558517815511241	
16.385	-0.122	-0.09965587847078569	
16.39	-0.108	-0.09439646840035584	
16.395	-0.035	-0.09010096801030439	
16.4	-0.104	-0.0877755130298555	
16.405	-0.142	-0.08742569686878332	
16.41	-0.066	-0.0893494536696991	
16.415	-0.066	-0.0915914273908381	
16.42	-0.136	-0.0929007503594574	
16.425	-0.076	-0.09223476125622881	
16.43	-0.023	-0.08956713459343849	
16.435	-0.101	-0.0846448764691892	
16.44	-0.075	-0.07841727491128103	
16.445	0.027	-0.06909467610208517	
16.45	-0.040	-0.05875245201250914	
16.455	-0.084	-0.048442639677834506	
16.46	0.004	-0.040363579259336424	
16.465	-0.006	-0.035569333009645286	
16.47	-0.082	-0.03190438619167264	
16.475	-0.014	-0.029258452060849535	
16.48	0.037	-0.026552243451501187	
16.485	-0.069	-0.023633260891838138	
16.49	-0.069	-0.023444119088910188	
16.495	0.009	-0.02609973153982932	
16.5	-0.075	-0.03273216206000108	
16.505	-0.117	-0.040450887968703525	
16.51	-0.040	-0.050375612490266376	
16.515	-0.073	-0.060552833477650635	
16.52	-0.151	-0.07190023892811856	
16.525	-0.107	-0.08227487640882306	
16.53	-0.073	-0.09354723409197199	
16.535	-0.149	-0.10362090784677434	
16.54	-0.142	-0.1104482626890366	
16.545	-0.078	-0.1150960618758961	
16.55	-0.131	-0.11972733656089025	
16.555	-0.153	-0.12245702424752197	
16.56	-0.066	-0.12036312607996041	
16.565	-0.078	-0.11654449685908103	
16.57	-0.139	-0.11192473155598942	
16.575	-0.079	-0.10526685850799126	
16.58	-0.046	-0.09851656614387319	
16.585	-0.151	-0.09565799540042419	
16.59	-0.163	-0.097477791305451	
16.595	-0.072	-0.1040446679295939	
16.6	0.001	-0.10572204755854178	
16.605	0.190	-0.08048490610971466	
16.61	0.651	-0.0032744740375347855	
16.615	1.040	0.15054619710406406	
16.62	1.232	0.379048619423999	
16.625	1.300	0.6467249173181261	
