Time	Potential	EKG	Unnamed: 3
0.0	-0.247	-0.012823184745030244	
0.005	-0.116	-0.04155770169178578	
0.01	-0.049	-0.07393391346484694	
0.015	-0.209	-0.09820574587696779	
0.02	-0.156	-0.11775544907109511	
0.025	0.015	-0.127781586815262	
0.03	-0.143	-0.12562875334948115	
0.035	-0.185	-0.12133189145451849	
0.04	0.020	-0.1154428815053173	
0.045	-0.053	-0.10518383723870747	
0.05	-0.191	-0.09357713713010152	
0.055	-0.044	-0.08820464926090499	
0.06	0.047	-0.08242098257770714	
0.065	-0.151	-0.0728604981706592	
0.07	-0.096	-0.06586209827850731	
0.075	0.107	-0.0601065281842027	
0.08	-0.089	-0.05094987856537493	
0.085	-0.139	-0.043788406804124616	
0.09	0.093	-0.04086405932901625	
0.095	0.008	-0.03410615463425386	
0.1	-0.154	-0.028175448257061024	
0.105	0.017	-0.026912360029194456	
0.11	0.105	-0.02402981856010033	
0.115	-0.125	-0.01937640317997437	
0.12	-0.067	-0.016921532085297064	
0.125	0.143	-0.016582115140649195	
0.13	-0.073	-0.013211719889079088	
0.135	-0.133	-0.013127385673211825	
0.14	0.105	-0.016412195702392003	
0.145	0.018	-0.016057764362586484	
0.15	-0.143	-0.014628391491778943	
0.155	0.033	-0.015681587459412803	
0.16	0.110	-0.013740298523458245	
0.165	-0.122	-0.009767352167250918	
0.17	-0.061	-0.008959308081823481	
0.175	0.146	-0.010194413065431875	
0.18	-0.066	-0.008408066357044072	
0.185	-0.117	-0.007367977642968562	
0.19	0.133	-0.008081964863152935	
0.195	0.035	-0.005032053162964511	
0.2	-0.140	-0.0009512386287990595	
0.205	0.038	-0.0015134630264914042	
0.21	0.116	-0.001547859466982337	
0.215	-0.117	-3.982585872852899e-05	
0.22	-0.058	-0.0009685447588940089	
0.225	0.152	-0.0029380199572360214	
0.23	-0.055	-0.0025565904328765003	
0.235	-0.111	-0.0025111499248634413	
0.24	0.125	-0.002857403888921159	
0.245	0.026	-0.0010398856491398872	
0.25	-0.140	-0.0011557016146060428	
0.255	0.040	-0.0023804214837718305	
0.26	0.125	-0.002435476394124272	
0.265	-0.111	-0.00022960906608641225	
0.27	-0.046	0.001041898965826084	
0.275	0.163	0.0022337997667589964	
0.28	-0.061	0.0033293192789766424	
0.285	-0.114	0.0033929067288348057	
0.29	0.136	0.0023055817973546685	
0.295	0.040	0.002953780495080209	
0.3	-0.122	0.005698968574838718	
0.305	0.070	0.007716699584595735	
0.31	0.163	0.012641939565224875	
0.315	-0.079	0.020633937039404065	
0.32	0.000	0.028055111686364535	
0.325	0.230	0.035351152981865946	
0.33	0.014	0.04624796125607923	
0.335	-0.049	0.05534055648774008	
0.34	0.218	0.062407074622071346	
0.345	0.102	0.06993248361987459	
0.35	-0.095	0.0736203600338855	
0.355	0.097	0.07077277287742312	
0.36	0.158	0.0656622641398166	
0.365	-0.104	0.058572780177968416	
0.37	-0.046	0.04707272644046401	
0.375	0.137	0.032378258848757495	
0.38	-0.089	0.017213893371064992	
0.385	-0.148	0.00034651351563664667	
0.39	0.050	-0.016572129567488412	
0.395	-0.053	-0.03308846174009262	
0.4	-0.183	-0.048369732063008146	
0.405	-0.040	-0.06020141994574028	
0.41	0.033	-0.06835754417412092	
0.415	-0.166	-0.07242792797390617	
0.42	-0.108	-0.0728952644445317	
0.425	0.084	-0.07163426255863359	
0.43	-0.104	-0.06780555248315076	
0.435	-0.145	-0.06262460270818679	
0.44	0.073	-0.057569082795606796	
0.445	-0.027	-0.05212160944981434	
0.45	-0.163	-0.048355246751866254	
0.455	0.006	-0.046183770131504126	
0.46	0.067	-0.04339179920891608	
0.465	-0.151	-0.04042726589784554	
0.47	-0.110	-0.040868458711134356	
0.475	0.023	-0.04766997858788785	
0.48	-0.130	-0.05882154960788658	
0.485	-0.066	-0.06457120363673849	
0.49	0.457	-0.04054894749039079	
0.495	0.736	0.0449051336718495	
0.5	1.001	0.2127468488283063	
0.505	1.605	0.46385819486788105	
0.51	1.646	0.7695639077969307	
0.515	0.966	1.0415315166890085	
0.52	0.392	1.1729849404426513	
0.525	0.078	1.1081302883749262	
0.53	-0.279	0.8751974748240328	
0.535	-0.380	0.5635093562356335	
0.54	-0.247	0.252342827410993	
0.545	-0.281	-0.00712727121644432	
0.55	-0.357	-0.1891268836213169	
0.555	-0.207	-0.2911900985198689	
0.56	-0.154	-0.3335352634570953	
0.565	-0.285	-0.3352742864752843	
0.57	-0.217	-0.3117698407093513	
0.575	-0.079	-0.2768585408365577	
0.58	-0.209	-0.24380315572598016	
0.585	-0.229	-0.21340515476401792	
0.59	-0.056	-0.18570907818222593	
0.595	-0.119	-0.16626755592568337	
0.6	-0.233	-0.15213824150698377	
0.605	-0.082	-0.1401670357913104	
0.61	-0.027	-0.1306166902267588	
0.615	-0.195	-0.12332039283519282	
0.62	-0.122	-0.11570668810649096	
0.625	0.049	-0.10584980543626954	
0.63	-0.124	-0.09686771180612903	
0.635	-0.148	-0.08738211150984579	
0.64	0.079	-0.07564563711344222	
0.645	-0.015	-0.0633081509003579	
0.65	-0.145	-0.05217666631647119	
0.655	0.047	-0.04010438797526806	
0.66	0.123	-0.027602872384660252	
0.665	-0.099	-0.013385996638270763	
0.67	0.000	0.0003123064929026014	
0.675	0.229	0.014203498465705466	
0.68	0.014	0.032088362121784356	
0.685	-0.023	0.048593072279991614	
0.69	0.265	0.06540395286258219	
0.695	0.165	0.08468680183195618	
0.7	-0.031	0.10278785025051777	
0.705	0.221	0.11691205287616419	
0.71	0.280	0.13040724006484544	
0.715	-0.002	0.14260132325636243	
0.72	0.108	0.1473051652634858	
0.725	0.315	0.1481928795459258	
0.73	0.047	0.15010632386522604	
0.735	-0.027	0.14360089820777883	
0.74	0.215	0.1303479616842314	
0.745	0.052	0.1126981187703438	
0.75	-0.139	0.09085608878941816	
0.755	-0.003	0.05984427326773432	
0.76	-0.003	0.02435344847915419	
0.765	-0.217	-0.014280955208307642	
0.77	-0.185	-0.052696503167628125	
0.775	-0.087	-0.09093384482732741	
0.78	-0.242	-0.12880993525650627	
0.785	-0.285	-0.1592981740690691	
0.79	-0.148	-0.18377478482879508	
0.795	-0.224	-0.20632028704355	
0.8	-0.329	-0.22300224533396165	
0.805	-0.200	-0.23219363221637185	
0.81	-0.163	-0.23874177068503885	
0.815	-0.306	-0.24219298596297995	
0.82	-0.241	-0.238647187884691	
0.825	-0.124	-0.23402830344660347	
0.83	-0.244	-0.22981645912220006	
0.835	-0.265	-0.22221862522620164	
0.84	-0.101	-0.21280293613295004	
0.845	-0.168	-0.20438758122532813	
0.85	-0.267	-0.19696051260844313	
0.855	-0.125	-0.18715115015005807	
0.86	-0.087	-0.1788032666352654	
0.865	-0.232	-0.1722204083681198	
0.87	-0.160	-0.16257860067427438	
0.875	-0.015	-0.1530279616397448	
0.88	-0.172	-0.14489204624652668	
0.885	-0.194	-0.13618928907024086	
0.89	0.000	-0.12673577887954424	
0.895	-0.090	-0.11845244057963496	
0.9	-0.201	-0.11200320737838056	
0.905	-0.038	-0.10405894550515231	
0.91	0.008	-0.09780534125860979	
0.915	-0.168	-0.09031820687731508	
0.92	-0.084	-0.08252106824326977	
0.925	0.101	-0.07295639587520865	
0.93	-0.101	-0.061990849288997604	
0.935	-0.130	-0.052205272567737604	
0.94	0.096	-0.04362927495080529	
0.945	-0.015	-0.0375023132914789	
0.95	-0.145	-0.03208003697865827	
0.955	0.047	-0.02696165519147821	
0.96	0.087	-0.02178816477679068	
0.965	-0.133	-0.01742668963967494	
0.97	-0.046	-0.014475332888588686	
0.975	0.143	-0.012881551455032302	
0.98	-0.078	-0.011084440851084993	
0.985	-0.108	-0.009220133235113885	
0.99	0.125	-0.008524901658670876	
0.995	0.001	-0.0075510815113092565	
1.0	-0.137	-0.007150852289972704	
1.005	0.059	-0.007869962799345844	
1.01	0.096	-0.006776661282197833	
1.015	-0.120	-0.004518397941798648	
1.02	-0.024	-0.003426017138512673	
1.025	0.160	-0.0008247086193058563	
1.03	-0.075	0.0018354437902886919	
1.035	-0.098	0.002775027756135162	
1.04	0.143	0.0035496521369727846	
1.045	0.004	0.003409515649074267	
1.05	-0.133	0.002805106905184894	
1.055	0.061	0.0011901611223298788	
1.06	0.093	0.00022725283221527225	
1.065	-0.122	-0.0005757861033624881	
1.07	-0.032	-0.0013966786784539594	
1.075	0.149	-0.0027900189502236233	
1.08	-0.075	-0.0022113846018130033	
1.085	-0.101	-0.002225758092464657	
1.09	0.131	-0.002405934336152189	
1.095	0.011	-0.0016173451030418518	
1.1	-0.131	-0.0012158874044440006	
1.105	0.068	-0.0007709658732279628	
1.11	0.090	-0.000780936068735989	
1.115	-0.134	-0.0006065684163315014	
1.12	-0.041	-0.0033701080884496297	
1.125	0.139	-0.005783122595485689	
1.13	-0.081	-0.008240012949523364	
1.135	-0.107	-0.009209875080396508	
1.14	0.128	-0.009389408080035655	
1.145	0.003	-0.008643214914841829	
1.15	-0.134	-0.00821335047470138	
1.155	0.058	-0.007748702494115954	
1.16	0.088	-0.006798065405720521	
1.165	-0.128	-0.005613793449057096	
1.17	-0.037	-0.006348398937815792	
1.175	0.155	-0.005790845691453798	
1.18	-0.067	-0.0042522385991313905	
1.185	-0.084	-0.0011929885202739152	
1.19	0.180	0.00460968470971113	
1.195	0.058	0.013346392491661769	
1.2	-0.099	0.023800913821609163	
1.205	0.117	0.031245649941892547	
1.21	0.145	0.03818370633607151	
1.215	-0.084	0.04340806037931287	
1.22	0.026	0.04665584004079945	
1.225	0.204	0.04817501798859349	
1.23	-0.043	0.049764151090533934	
1.235	-0.075	0.047831207573105966	
1.24	0.148	0.04156083943269574	
1.245	-0.008	0.03233823203150877	
1.25	-0.151	0.0208585052990755	
1.255	0.020	0.006216265340651125	
1.26	0.032	-0.009863367618331764	
1.265	-0.171	-0.026527660558413838	
1.27	-0.095	-0.04032666200142543	
1.275	0.052	-0.05289855211106365	
1.28	-0.142	-0.06320618296404516	
1.285	-0.163	-0.07110301510803813	
1.29	0.037	-0.07649704806371416	
1.295	-0.075	-0.07968552924643424	
1.3	-0.183	-0.08106424953892502	
1.305	-0.011	-0.07979797838970568	
1.31	0.009	-0.07792499232272804	
1.315	-0.174	-0.0754783620788456	
1.32	-0.087	-0.07229824797219664	
1.325	0.068	-0.0699658009405916	
1.33	-0.125	-0.06719806150464422	
1.335	-0.143	-0.06404495152736629	
1.34	0.067	-0.0615423747778105	
1.345	-0.070	-0.05972167818586585	
1.35	-0.200	-0.06200615151589746	
1.355	-0.070	-0.0678063419590949	
1.36	-0.008	-0.0789869560002757	
1.365	-0.060	-0.08142735810072547	
1.37	0.349	-0.05021873152529058	
1.375	0.948	0.04904050194934289	
1.38	1.184	0.23786027952560476	
1.385	1.456	0.512046644981591	
1.39	1.630	0.8214093927804331	
1.395	0.992	1.078144736692788	
1.4	0.130	-0.05021873152529058	
1.405	-0.075	1.0710629558800762	
1.41	-0.227	0.8059506820059477	
1.415	-0.410	0.4776579523877644	
1.42	-0.332	0.17179153036941416	
1.425	-0.209	-0.06806281351388827	
1.43	-0.311	-0.2311072494679783	
1.435	-0.297	-0.3158795975446661	
1.44	-0.139	-0.3426457371539393	
1.445	-0.204	-0.33577634617288793	
1.45	-0.290	-0.30983897281322526	
1.455	-0.143	-0.2748282625865591	
1.46	-0.122	-0.24313735158657498	
1.465	-0.250	-0.217339169372959	
1.47	-0.166	-0.19317129535203786	
1.475	-0.046	-0.1741768280315668	
1.48	-0.192	-0.16121657502904396	
1.485	-0.192	-0.14983451304848483	
1.49	0.006	-0.13763331760738984	
1.495	-0.098	-0.1258754135900984	
1.5	-0.191	-0.11583682510000112	
1.505	-0.021	-0.10473800789969237	
1.51	0.009	-0.09417760425645001	
1.515	-0.157	-0.08440536389220049	
1.52	-0.055	-0.07309134021983169	
1.525	0.110	-0.061141440357987575	
1.53	-0.085	-0.04730626463788466	
1.535	-0.092	-0.034818970788879966	
1.54	0.163	-0.02255534159674645	
1.545	0.032	-0.006931419435871858	
1.55	-0.090	0.007123775807169295	
1.555	0.152	0.021335331403805308	
1.56	0.181	0.03781797978161184	
1.565	-0.049	0.05553676455509749	
1.57	0.102	0.06994143575463274	
1.575	0.288	0.08488032085647704	
1.58	0.059	0.10266066269493015	
1.585	0.053	0.11818832770350778	
1.59	0.320	0.13145188262466567	
1.595	0.161	0.14605446488824964	
1.6	-0.014	0.1541371697101534	
1.605	0.229	0.15431643479146448	
1.61	0.218	0.15279492482542437	
1.615	-0.047	0.14658617779866162	
1.62	0.058	0.1329255281952001	
1.625	0.181	0.1128087503575893	
1.63	-0.090	0.08972536670000594	
1.635	-0.133	0.060226590154205145	
1.64	0.018	0.02433680430376189	
1.645	-0.136	-0.015920737144603424	
1.65	-0.258	-0.05674083301788574	
1.655	-0.148	-0.09577374636169611	
1.66	-0.163	-0.13427254031420427	
1.665	-0.306	-0.17027013280768744	
1.67	-0.238	-0.1950670818302298	
1.675	-0.157	-0.21431327436698824	
1.68	-0.291	-0.23120415616497486	
1.685	-0.300	-0.2396856783770006	
1.69	-0.156	-0.24375085943365585	
1.695	-0.235	-0.24694528040067068	
1.7	-0.314	-0.24665558583119818	
1.705	-0.171	-0.24078311436350386	
1.71	-0.160	-0.23633645784130503	
1.715	-0.291	-0.230250614267697	
1.72	-0.203	-0.22202521353586022	
1.725	-0.099	-0.21334692820047918	
1.73	-0.238	-0.20624539689738206	
1.735	-0.233	-0.19764543704946871	
1.74	-0.063	-0.1877232260095929	
1.745	-0.153	-0.17900564697747237	
1.75	-0.238	-0.1696652717793079	
1.755	-0.085	-0.15971436090809513	
1.76	-0.070	-0.15136420633258707	
1.765	-0.215	-0.14431590535864797	
1.77	-0.127	-0.13596051547395743	
1.775	0.003	-0.12831152650963762	
1.78	-0.166	-0.12133703257855669	
1.785	-0.160	-0.11363129529602026	
1.79	0.041	-0.10463154222372534	
1.795	-0.082	-0.09607485462522572	
1.8	-0.172	-0.08772329986619962	
1.805	0.014	-0.07860598303685035	
1.81	0.024	-0.07036588273624074	
1.815	-0.160	-0.0624284820793806	
1.82	-0.058	-0.055893291794219306	
1.825	0.096	-0.05023730669923947	
1.83	-0.113	-0.04545127904539463	
1.835	-0.116	-0.04063863692293411	
1.84	0.107	-0.037513830428423135	
1.845	-0.046	-0.03414177426152091	
1.85	-0.151	-0.03280103186269254	
1.855	0.056	-0.031492372167022484	
1.86	0.050	-0.02935785059308408	
1.865	-0.142	-0.027543467143630665	
1.87	-0.031	-0.024829072261513204	
1.875	0.130	-0.0231619708697562	
1.88	-0.096	-0.019558557596796422	
1.885	-0.099	-0.016645206171949253	
1.89	0.137	-0.01440515839734387	
1.895	-0.015	-0.011201180870767456	
1.9	-0.131	-0.00886749154608452	
1.905	0.065	-0.007394292787290478	
1.91	0.059	-0.008359733792932403	
1.915	-0.140	-0.009640467302539214	
1.92	-0.020	-0.011764396943900872	
1.925	0.140	-0.012107259609801085	
1.93	-0.089	-0.010654731000385583	
1.935	-0.082	-0.008635836770294227	
1.94	0.149	-0.005315667329461553	
1.945	-0.017	-0.0022660279819420215	
1.95	-0.128	-0.0009172170703481893	
1.955	0.082	-0.0003010849261798297	
1.96	0.075	-0.0003646668274978639	
1.965	-0.127	0.000274529496976471	
1.97	-0.005	-0.0007100855137262107	
1.975	0.151	-5.970848523603536e-05	
1.98	-0.084	0.002265949269084193	
1.985	-0.079	0.0033646606237785837	
1.99	0.158	0.0047549088705131255	
1.995	-0.009	0.0066930864857990355	
2.0	-0.125	0.007044647241400388	
2.005	0.087	0.006756833009935588	
2.01	0.090	0.005634686065846007	
2.015	-0.124	0.006226179724641897	
2.02	-0.002	0.006320721530659922	
2.025	0.152	0.005961422540984864	
2.03	-0.081	0.007223793309524955	
2.035	-0.081	0.0073746501967440915	
2.04	0.169	0.007786193302359993	
2.045	0.015	0.010663545766867472	
2.05	-0.099	0.015043259766865807	
2.055	0.133	0.01978924246877809	
2.06	0.140	0.027612060377450467	
2.065	-0.078	0.03721699034161312	
2.07	0.067	0.04535033643279414	
2.075	0.218	0.053941305417786356	
2.08	-0.021	0.06221102107598546	
2.085	-0.014	0.06740606283284653	
2.09	0.247	0.07176616082490916	
2.095	0.056	0.07664336040009842	
2.1	-0.085	0.07808005820782779	
2.105	0.130	0.07276647063017286	
2.11	0.099	0.06457271666473124	
2.115	-0.120	0.05327093926275907	
2.12	-0.006	0.039352042751766375	
2.125	0.128	0.02487399873198753	
2.13	-0.113	0.011260843257939053	
2.135	-0.124	-0.0025470736305802373	
2.14	0.073	-0.017322221856833533	
2.145	-0.089	-0.03235147558455492	
2.15	-0.183	-0.046821252554044186	
2.155	-0.006	-0.05828866201311021	
2.16	-0.027	-0.06948588506451991	
2.165	-0.183	-0.07763051280575625	
2.17	-0.075	-0.08063778510808595	
2.175	0.061	-0.0802204086597652	
2.18	-0.140	-0.07769314584717432	
2.185	-0.137	-0.07348194340698375	
2.19	0.064	-0.0694000338369877	
2.195	-0.084	-0.06637017539034061	
2.2	-0.174	-0.06574298311402685	
2.205	0.023	-0.06431863221754171	
2.21	0.004	-0.06254154848155216	
2.215	-0.178	-0.06157419688614296	
2.22	-0.107	-0.06263065113570684	
2.225	-0.018	-0.07129344903562113	
2.23	-0.157	-0.08366841374122758	
2.235	-0.026	-0.08641821960251209	
2.24	0.527	-0.051407206529694535	
2.245	0.796	0.05067934006874979	
2.25	1.133	0.24237225517913663	
2.255	1.678	0.5176969533481444	
2.26	1.527	0.8304017154919276	
2.265	0.738	1.0783586501330644	
2.27	0.233	1.159200225326408	
2.275	-0.064	1.0365474001303998	
2.28	-0.354	0.766378905710822	
2.285	-0.395	0.44363965341069705	
2.29	-0.253	0.14249355014855863	
2.295	-0.308	-0.0953322479498391	
2.3	-0.360	-0.25052615427701375	
2.305	-0.195	-0.33036187464411504	
2.31	-0.192	-0.3566612615783365	
2.315	-0.311	-0.3494165492351863	
2.32	-0.206	-0.32056001623890484	
2.325	-0.110	-0.28647176119365525	
2.33	-0.247	-0.25464127065487063	
2.335	-0.229	-0.22626936385543855	
2.34	-0.066	-0.20057042492213367	
2.345	-0.168	-0.18349626845689676	
2.35	-0.238	-0.17051503499512066	
2.355	-0.061	-0.15731339391824845	
2.36	-0.066	-0.14677052007364036	
2.365	-0.209	-0.13746625773520382	
2.37	-0.093	-0.1254522381309764	
2.375	0.046	-0.11347690070851527	
2.38	-0.143	-0.10074704319208022	
2.385	-0.124	-0.0882059180679029	
2.39	0.114	-0.07348409979287385	
2.395	-0.050	-0.05859671850969554	
2.4	-0.136	-0.045544760269642964	
2.405	0.102	-0.03319530334163479	
2.41	0.093	-0.018802795350766066	
2.415	-0.102	-0.0035600198743530884	
2.42	0.070	0.010629347173437833	
2.425	0.236	0.027564776556412533	
2.43	-0.020	0.04715894367616264	
2.435	0.032	0.06380772087067105	
2.44	0.314	0.08158527313293887	
2.445	0.134	0.10335855614636995	
2.45	-0.002	0.12242810280626513	
2.455	0.288	0.13684355036394732	
2.46	0.264	0.15118897897728648	
2.465	0.004	0.16442585686995617	
2.47	0.180	0.1696326626399824	
2.475	0.319	0.17154395159108243	
2.48	0.027	0.1721797612489356	
2.485	0.033	0.16482289598783761	
2.49	0.251	0.15151851091790894	
2.495	0.021	0.13437332376759775	
2.5	-0.128	0.10950187149936276	
2.505	0.041	0.07576271735371973	
2.51	-0.041	0.03614266600704295	
2.515	-0.233	-0.007448772937348265	
2.52	-0.156	-0.049387672087313796	
2.525	-0.099	-0.09157215177800121	
2.53	-0.268	-0.13171808366591176	
2.535	-0.270	-0.16310094922716434	
2.54	-0.139	-0.18860705810513545	
2.545	-0.244	-0.21061587888823483	
2.55	-0.320	-0.2253676914282927	
2.555	-0.175	-0.2322918426271742	
2.56	-0.192	-0.2379335187739996	
2.565	-0.314	-0.2413599220225076	
2.57	-0.212	-0.2383550113224517	
2.575	-0.127	-0.2336579701693706	
2.58	-0.271	-0.22971765779312053	
2.585	-0.249	-0.22203484693207903	
2.59	-0.089	-0.21263314657293456	
2.595	-0.198	-0.20567483134263154	
2.6	-0.264	-0.19833744635975298	
2.605	-0.098	-0.18824712438402924	
2.61	-0.113	-0.1809827525225679	
2.615	-0.246	-0.17339901491597937	
2.62	-0.133	-0.16428758181053923	
2.625	-0.032	-0.15564575476681486	
2.63	-0.198	-0.1478049729812926	
2.635	-0.171	-0.13900524221439203	
2.64	0.024	-0.12854989116228058	
2.645	-0.117	-0.11875365788738744	
2.65	-0.198	-0.11038592454408716	
2.655	-0.009	-0.10213659792333116	
2.66	-0.035	-0.09699745521995871	
2.665	-0.191	-0.09250971871627017	
2.67	-0.066	-0.08720676494847138	
2.675	0.064	-0.08157588853805148	
2.68	-0.143	-0.0749296297213628	
2.685	-0.114	-0.06800306306747816	
2.69	0.105	-0.060423369504254844	
2.695	-0.072	-0.05283300882728638	
2.7	-0.154	-0.04646671370947933	
2.705	0.067	-0.0420069950234299	
2.71	0.032	-0.03699336610156663	
2.715	-0.151	-0.03263880719692979	
2.72	-0.011	-0.02913439295065246	
2.725	0.120	-0.025496006775250827	
2.73	-0.120	-0.022048502773524378	
2.735	-0.102	-0.0200110153342519	
2.74	0.128	-0.02030898131368375	
2.745	-0.049	-0.02089627373024374	
2.75	-0.133	-0.020533677262604532	
2.755	0.088	-0.018899831768505918	
2.76	0.037	-0.0169943655985466	
2.765	-0.149	-0.016745198579897966	
2.77	-0.017	-0.01806896508892989	
2.775	0.114	-0.019431970816629444	
2.78	-0.119	-0.020151227709402336	
2.785	-0.089	-0.02000733118825611	
2.79	0.137	-0.02020614616835539	
2.795	-0.040	-0.01796034024117727	
2.8	-0.130	-0.015594717026337126	
2.805	0.101	-0.012802347134999236	
2.81	0.044	-0.009995855346368035	
2.815	-0.143	-0.008837380902490921	
2.82	0.000	-0.009010930838944251	
2.825	0.134	-0.009379442904987486	
2.83	-0.101	-0.00823817238396603	
2.835	-0.073	-0.006002748363764519	
2.84	0.155	-0.004126378471077028	
2.845	-0.035	-0.0020169013088653744	
2.85	-0.128	-0.0006387526207632326	
2.855	0.119	-0.0007221008893575549	
2.86	0.056	0.0009971878137091255	
2.865	-0.143	0.002093746898139406	
2.87	0.011	0.00103859861502843	
2.875	0.143	-0.0003490028150268708	
2.88	-0.099	-0.0003028445034894339	
2.885	-0.066	0.001012220578628032	
2.89	0.177	0.0029232234698128817	
2.895	-0.021	0.006939538770945941	
2.9	-0.124	0.009346884163488944	
2.905	0.116	0.010323276597067289	
2.91	0.076	0.009975657582755239	
2.915	-0.125	0.01106947886915759	
2.92	0.037	0.012081186617385694	
2.925	0.169	0.014645384570311835	
2.93	-0.084	0.017658972016543213	
2.935	-0.043	0.021043443720779147	
2.94	0.213	0.024937099220386325	
2.945	0.008	0.030899730787517943	
2.95	-0.084	0.03636356649237989	
2.955	0.177	0.041352203720086536	
2.96	0.131	0.04794136712302734	
2.965	-0.095	0.05406698741360817	
2.97	0.072	0.05710966861122483	
2.975	0.186	0.05661673793403214	
2.98	-0.099	0.05464899400203095	
2.985	-0.064	0.04607558241415696	
2.99	0.165	0.03490932391097597	
2.995	-0.047	0.023883567934998504	
3.0	-0.140	0.01241313781829462	
3.005	0.055	-0.000671299342742797	
3.01	-0.018	-0.015105014216406639	
3.015	-0.185	-0.03087262005335701	
3.02	-0.060	-0.04487486598912886	
3.025	0.044	-0.05745178138904056	
3.03	-0.165	-0.06631170278397039	
3.035	-0.136	-0.0718643525889184	
3.04	0.062	-0.07515981261946822	
3.045	-0.105	-0.07613258435576095	
3.05	-0.172	-0.07650563191799539	
3.055	0.035	-0.073698886336775	
3.06	-0.023	-0.07116373608347644	
3.065	-0.180	-0.068810577695301	
3.07	-0.044	-0.06585662248315075	
3.075	0.070	-0.06352512823844476	
3.08	-0.142	-0.06029043711695872	
3.085	-0.108	-0.0558101376771277	
3.09	0.101	-0.051214027868259196	
3.095	-0.104	-0.04915871670587882	
3.1	-0.209	-0.05144907608929388	
3.105	-0.029	-0.06171934090058537	
3.11	0.024	-0.07221353021019006	
3.115	0.008	-0.06673905791436428	
3.12	0.584	-0.013779438831668643	
3.125	1.204	0.12248255582224889	
3.13	1.360	0.35978858046181245	
3.135	1.517	-0.013779438831668643	
3.14	1.471	0.9706593538562669	
3.145	0.584	1.1636845609205677	
3.15	-0.102	1.1624799488260948	
3.155	-0.159	0.9661659811476955	
3.16	-0.288	0.6517440406394532	
3.165	-0.428	0.3193798500939326	
3.17	-0.302	0.03920861687866879	
3.175	-0.207	-0.1646498866365069	
3.18	-0.328	-0.2901553764835032	
3.185	-0.271	-0.3446531193765528	
3.19	-0.119	-0.34937752439246106	
3.195	-0.226	-0.3301797043563046	
3.2	-0.273	-0.2972436642703244	
3.205	-0.099	-0.2588030052094298	
3.21	-0.128	-0.2253701906272256	
3.215	-0.253	-0.19959851364386733	
3.22	-0.124	-0.17678321363382152	
3.225	-0.037	-0.1587802358386171	
3.23	-0.206	-0.1472246837553326	
3.235	-0.156	-0.13560638330227237	
3.24	0.037	-0.12338970228042198	
3.245	-0.117	-0.11225184637271175	
3.25	-0.171	-0.10122557269121929	
3.255	0.052	-0.08874125531992466	
3.26	-0.006	-0.07640513253470396	
3.265	-0.163	-0.06464002489634924	
3.27	-0.002	-0.053722204154951846	
3.275	0.125	-0.042759363270060455	
3.28	-0.107	-0.030290020876397747	
3.285	-0.044	-0.017588565352248273	
3.29	0.212	-0.004334760617368446	
3.295	0.009	0.011701578662606548	
3.3	-0.066	0.027752146708328294	
3.305	0.229	0.042312645855863425	
3.31	0.171	0.06158304071991673	
3.315	-0.041	0.0803270465838472	
3.32	0.175	0.09530432650077367	
3.325	0.305	0.11224316546745336	
3.33	0.043	0.1296961091639784	
3.335	0.107	0.14441969813487796	
3.34	0.343	0.15564757902047177	
3.345	0.123	0.1667045027209652	
3.35	-0.005	0.16977652275911903	
3.355	0.264	0.16526438077687294	
3.36	0.174	0.15757095212730288	
3.365	-0.073	0.1463993795734575	
3.37	0.079	0.12726122389265243	
3.375	0.137	0.10316931544029428	
3.38	-0.137	0.07479019294756449	
3.385	-0.131	0.04044074308858334	
3.39	0.003	0.0015196418350051544	
3.395	-0.180	-0.0402378890008344	
3.4	-0.262	-0.08010661587208227	
3.405	-0.137	-0.11685275027429222	
3.41	-0.203	-0.1534717292768514	
3.415	-0.335	-0.18744776374935632	
3.42	-0.229	-0.2117653665302372	
3.425	-0.172	-0.2309411992516561	
3.43	-0.323	-0.24611058730791835	
3.435	-0.282	-0.2524977240850967	
3.44	-0.151	-0.2545834672797759	
3.445	-0.264	-0.2552328199865337	
3.45	-0.310	-0.25202340918899696	
3.455	-0.145	-0.24489285692182447	
3.46	-0.178	-0.23852085862985187	
3.465	-0.293	-0.23040126706300143	
3.47	-0.165	-0.21874813954784894	
3.475	-0.093	-0.20799135821412806	
3.48	-0.249	-0.19912176144737936	
3.485	-0.200	-0.18745574173993784	
3.49	-0.041	-0.1765866500799132	
3.495	-0.177	-0.1672838628561072	
3.5	-0.229	-0.15900924682892997	
3.505	-0.050	-0.14984243805484124	
3.51	-0.093	-0.14356355099354223	
3.515	-0.224	-0.13844512461200076	
3.52	-0.087	-0.13067744073890925	
3.525	0.003	-0.12397671492680934	
3.53	-0.174	-0.11620965382242364	
3.535	-0.125	-0.10541962249210414	
3.54	0.076	-0.09450646512105884	
3.545	-0.108	-0.08337120677634777	
3.55	-0.162	-0.07404536554005989	
3.555	0.065	-0.06572662858162134	
3.56	-0.014	-0.058595731847448346	
3.565	-0.168	-0.052547653064262415	
3.57	-0.009	-0.04858392715482841	
3.575	0.088	-0.04393165602533966	
3.58	-0.133	-0.03933149491995615	
3.585	-0.078	-0.03439253441692687	
3.59	0.142	-0.02940541637617164	
3.595	-0.067	-0.024458145487355944	
3.6	-0.125	-0.020089615680689434	
3.605	0.111	-0.016614554156190134	
3.61	0.026	-0.01261932097877605	
3.615	-0.146	-0.010641254718282606	
3.62	0.018	-0.010506242492330172	
3.625	0.099	-0.011890266630366011	
3.63	-0.131	-0.013432637183971745	
3.635	-0.075	-0.015371642097144835	
3.64	0.148	-0.01732078317202897	
3.645	-0.066	-0.016526986515753385	
3.65	-0.133	-0.016125175485486407	
3.655	0.105	-0.015527934947153033	
3.66	0.021	-0.015640106070616642	
3.665	-0.146	-0.014707420785321277	
3.67	0.015	-0.015441446799305923	
3.675	0.102	-0.015868504829669915	
3.68	-0.117	-0.015506590037848381	
3.685	-0.060	-0.014341133175138887	
3.69	0.158	-0.012269825013517786	
3.695	-0.063	-0.008591123416645122	
3.7	-0.128	-0.007134182181213969	
3.705	0.111	-0.007464220341674767	
3.71	0.029	-0.007673992000264193	
3.715	-0.140	-0.007743243890508863	
3.72	0.030	-0.007385099464777617	
3.725	0.119	-0.006871560342818266	
3.73	-0.122	-0.0065580729280612735	
3.735	-0.061	-0.006307003192757364	
3.74	0.158	-0.005244732719665074	
3.745	-0.058	-0.004639825151241407	
3.75	-0.122	-0.004126524671411835	
3.755	0.130	-0.0034187001303334795	
3.76	0.044	-0.0017065008217070502	
3.765	-0.137	0.00023153568042275964	
3.77	0.030	0.0016597020434934954	
3.775	0.119	0.00012295035397644013	
3.78	-0.119	-0.0006004085310660942	
3.785	-0.055	-0.0012727232769360218	
3.79	0.168	-0.001223142613440812	
3.795	-0.047	0.00031150742612800635	
3.8	-0.108	0.0018860463686161339	
3.805	0.155	0.005624842028999774	
3.81	0.076	0.011253195194229992	
3.815	-0.101	0.019216543748704438	
3.82	0.104	0.02671292634190194	
3.825	0.203	0.03810809451466585	
3.83	-0.061	0.04936266838979561	
3.835	0.015	0.05775952695237706	
3.84	0.256	0.06478132337417553	
3.845	0.030	0.07228165474935642	
3.85	-0.050	0.07790341428375094	
3.855	0.219	0.08062692844795258	
3.86	0.113	0.08322779888599877	
3.865	-0.107	0.08123553367360181	
3.87	0.078	0.07370932371997307	
3.875	0.148	0.062071857897697466	
3.88	-0.110	0.050397240468710545	
3.885	-0.063	0.03578078150297981	
3.89	0.123	0.019720963874543206	
3.895	-0.090	0.004299078191670716	
3.9	-0.146	-0.011033000762466463	
3.905	0.075	-0.023430008584176786	
3.91	-0.032	-0.03379886710846353	
3.915	-0.185	-0.04367687170371688	
3.92	-0.031	-0.051308788823111504	
3.925	0.061	-0.05699813606953132	
3.93	-0.157	-0.059531911235713775	
3.935	-0.104	-0.059187241516493606	
3.94	0.088	-0.05736515613309952	
3.945	-0.104	-0.056678453043593965	
3.95	-0.151	-0.0559666948184542	
3.955	0.076	-0.05249306416375846	
3.96	-0.018	-0.04982372094200396	
3.965	-0.166	-0.047607079452217725	
3.97	-0.005	-0.04533104143687823	
3.975	0.068	-0.04305026137009144	
3.98	-0.165	-0.04348767821430436	
3.985	-0.143	-0.046178626550779	
3.99	0.046	-0.055418347865622095	
3.995	-0.034	-0.06265359565270281	
4.0	0.130	-0.04690465120962249	
4.005	0.819	0.02452888721839836	
4.01	1.209	0.18624098926703292	
4.015	1.363	0.4404831057786053	
4.02	1.611	0.748640973754616	
4.025	1.337	1.0328421182633323	
4.03	0.355	1.1884173336019757	
4.035	-0.078	1.1436715657080518	
4.04	-0.145	0.9164647868578399	
4.045	-0.348	0.5934330307011793	
4.05	-0.399	0.2711578829452672	
4.055	-0.232	0.005399811316284435	
4.06	-0.253	-0.184773448712773	
4.065	-0.342	-0.29639752514738127	
4.07	-0.195	-0.3404037659272571	
4.075	-0.137	-0.3421613491646436	
4.08	-0.277	-0.3213112599457977	
4.085	-0.213	-0.2861436356135656	
4.09	-0.069	-0.24960622075641045	
4.095	-0.201	-0.21958810789463368	
4.1	-0.239	-0.193793647761817	
4.105	-0.049	-0.17268886337811143	
4.11	-0.110	-0.1578888469804543	
4.115	-0.233	-0.14738645641482706	
4.12	-0.082	-0.13639224425198906	
4.125	-0.017	-0.12822957197397233	
4.13	-0.191	-0.12133157382719746	
4.135	-0.122	-0.11208482747318882	
4.14	0.070	-0.101605070936403	
4.145	-0.111	-0.09064145026329612	
4.15	-0.160	-0.07976504588026319	
4.155	0.076	-0.06963840906955633	
4.16	0.003	-0.05893589290028983	
4.165	-0.143	-0.048408943533178726	
4.17	0.044	-0.03632736668928617	
4.175	0.133	-0.023238542364728068	
4.18	-0.098	-0.009389548591765516	
4.185	-0.009	0.00295447925382656	
4.19	0.239	0.016424930200724525	
4.195	0.029	0.03430833405256928	
4.2	-0.021	0.05224274346702283	
4.205	0.277	0.07040029893480562	
4.21	0.180	0.09203469952808065	
4.215	-0.031	0.11158059426309047	
4.22	0.213	0.12469117366800689	
4.225	0.290	0.13674138973060768	
4.23	0.004	0.14761955054742146	
4.235	0.088	0.14996577976175726	
4.24	0.296	0.14837476408062766	
4.245	0.041	0.14532950985009968	
4.25	-0.058	0.13428845836872844	
4.255	0.168	0.11531431651600385	
4.26	0.020	0.09102333749603878	
4.265	-0.172	0.06169342466697715	
4.27	-0.058	0.026625513006937926	
4.275	-0.049	-0.01435250692970155	
4.28	-0.246	-0.05624472532795367	
4.285	-0.212	-0.09500275394552771	
4.29	-0.110	-0.12977457422577376	
4.295	-0.261	-0.163605179153638	
4.3	-0.310	-0.18958296120225573	
4.305	-0.162	-0.20979986560758498	
4.31	-0.230	-0.22802326974611367	
4.315	-0.345	-0.24116327207116942	
4.32	-0.213	-0.247388336484954	
4.325	-0.166	-0.2504610001852887	
4.33	-0.308	-0.25217551578630837	
4.335	-0.256	-0.2469388504338856	
4.34	-0.128	-0.2408637887749338	
4.345	-0.252	-0.23662936965594222	
4.35	-0.282	-0.23050324355177632	
4.355	-0.116	-0.22081109892676232	
4.36	-0.171	-0.21409528452413648	
4.365	-0.277	-0.2071386121798715	
4.37	-0.139	-0.1973316011240287	
4.375	-0.084	-0.18850651361658108	
4.38	-0.239	-0.18122791540737382	
4.385	-0.175	-0.1708741064955618	
4.39	-0.018	-0.1608311397780772	
4.395	-0.169	-0.1517188602369252	
4.4	-0.201	-0.14149813539347836	
4.405	-0.006	-0.131713951154728	
4.41	-0.084	-0.12215552879339042	
4.415	-0.203	-0.1152137143607344	
4.42	-0.052	-0.10722516822607632	
4.425	0.008	-0.10048851403861353	
4.43	-0.180	-0.09435198785634896	
4.435	-0.108	-0.08882210860503878	
4.44	0.072	-0.08273403752630892	
4.445	-0.122	-0.07682856090808703	
4.45	-0.153	-0.07153339419378801	
4.455	0.084	-0.06458167742376025	
4.46	-0.031	-0.058194445288460996	
4.465	-0.171	-0.0523239275317124	
4.47	0.008	-0.04812334979517856	
4.475	0.081	-0.044438579995952215	
4.48	-0.140	-0.039480469130159276	
4.485	-0.061	-0.0337921317519317	
4.49	0.143	-0.02862516854275746	
4.495	-0.089	-0.022925762564888666	
4.5	-0.128	-0.020583507353651557	
4.505	0.111	-0.019460308842871463	
4.51	0.004	-0.018221539524949842	
4.515	-0.149	-0.017421808124276666	
4.52	0.027	-0.018036654579023842	
4.525	0.094	-0.0183991314239843	
4.53	-0.136	-0.017585980987263695	
4.535	-0.064	-0.017766094152359142	
4.54	0.133	-0.01854506075638719	
4.545	-0.079	-0.01899788957967624	
4.55	-0.120	-0.018608176228230446	
4.555	0.126	-0.017372938036276528	
4.56	0.001	-0.015252743737536965	
4.565	-0.145	-0.013485088332687602	
4.57	0.041	-0.01296634162367451	
4.575	0.110	-0.011382897065454957	
4.58	-0.125	-0.009663366493656133	
4.585	-0.058	-0.007732803164411947	
4.59	0.145	-0.008492974634790984	
4.595	-0.072	-0.008064240653792267	
4.6	-0.117	-0.00861615598886408	
4.605	0.126	-0.009306422293909562	
4.61	0.012	-0.00828895727455779	
4.615	-0.136	-0.0075217951301103005	
4.62	0.061	-0.005905862121409419	
4.625	0.114	-0.0033878891403547923	
4.63	-0.120	0.0002830842849980827	
4.635	-0.034	0.0023072414443329973	
4.64	0.169	0.003529971526855439	
4.645	-0.060	0.005885035083695165	
4.65	-0.104	0.007397827854882223	
4.655	0.149	0.007727894591091236	
4.66	0.015	0.008672061869429194	
4.665	-0.131	0.007473024438670555	
4.67	0.065	0.006131192211880656	
4.675	0.114	0.0065895739346875665	
4.68	-0.119	0.006266948280289727	
4.685	-0.037	0.005338342483152002	
4.69	0.171	0.005522803389911062	
4.695	-0.052	0.006867132575696024	
4.7	-0.089	0.00841770452041694	
4.705	0.169	0.01172873306878893	
4.71	0.067	0.01866279737822359	
4.715	-0.101	0.025486670204424137	
4.72	0.126	0.03312341086645365	
4.725	0.175	0.04158022899570818	
4.73	-0.078	0.05028946001055246	
4.735	0.026	0.05532679359625099	
4.74	0.248	0.059495796654021424	
4.745	-0.009	0.06490267811945491	
4.75	-0.073	0.06742500515427227	
4.755	0.171	0.06266501306071823	
4.76	0.032	0.055680550771141035	
4.765	-0.139	0.04354647724103214	
4.77	0.029	0.029059803683269367	
4.775	0.065	0.011543137229364573	
4.78	-0.159	-0.004614498931331257	
4.785	-0.099	-0.020682654367877258	
4.79	0.067	-0.036602309738653076	
4.795	-0.134	-0.05102919751975953	
4.8	-0.165	-0.06150161584164201	
4.805	0.044	-0.0684327943861098	
4.81	-0.063	-0.07332709706487059	
4.815	-0.188	-0.07634387467146236	
4.82	-0.029	-0.07698723812056155	
4.825	0.020	-0.07653228107344326	
4.83	-0.172	-0.07652607305090559	
4.835	-0.099	-0.07366057025489886	
4.84	0.085	-0.07069633423068193	
4.845	-0.117	-0.06699757421191277	
4.85	-0.145	-0.06243706585222977	
4.855	0.062	-0.05850474708059926	
4.86	-0.053	-0.05635203773489115	
4.865	-0.192	-0.057269611594381084	
4.87	-0.050	-0.06201490258373113	
4.875	-0.044	-0.07159519189693468	
4.88	-0.188	-0.08446992307513598	
4.885	0.020	-0.08562291995969434	
4.89	0.506	-0.05272296500264919	
4.895	0.680	0.04407737008994135	
4.9	1.117	0.22467124749509004	
4.905	1.739	0.4924910800924899	
4.91	1.547	0.8096350221091156	
4.915	0.872	1.077689753883297	
4.92	0.433	-0.03986823833003442	
4.925	-0.018	1.1022452400536333	
4.93	-0.345	0.8516001863606617	
4.935	-0.345	0.5303836215957615	
4.94	-0.246	0.21716585764564988	
4.945	-0.349	-0.03986823833003442	
4.95	-0.346	-0.21525244941568233	
4.955	-0.166	-0.31162187813629816	
4.96	-0.218	-0.34937231579926487	
4.965	-0.310	-0.3480835341491953	
4.97	-0.165	-0.3200634335467777	
4.975	-0.124	-0.2867242614874981	
4.98	-0.264	-0.254351975830967	
4.985	-0.186	-0.22258490979679518	
4.99	-0.047	-0.19590352817329634	
4.995	-0.191	-0.17696694085682088	
5.0	-0.210	-0.1602739561042132	
5.005	-0.015	-0.14561478030576802	
5.01	-0.104	-0.1354437402838395	
5.015	-0.213	-0.1261309672298585	
5.02	-0.050	-0.11698964006806219	
5.025	0.000	-0.1097209482269284	
5.03	-0.172	-0.10144061043983088	
5.035	-0.087	-0.09152800894862276	
5.04	0.117	-0.07882647516470728	
5.045	-0.095	-0.06406402627504765	
5.05	-0.116	-0.049289815372609166	
5.055	0.146	-0.035500892019061654	
5.06	0.027	-0.020493852507285033	
5.065	-0.113	-0.006211175710315062	
5.07	0.125	0.007109073144408419	
5.075	0.186	0.02329939706488777	
5.08	-0.055	0.04145789663198781	
5.085	0.081	0.05751005467728411	
5.09	0.312	0.07523682653223329	
5.095	0.070	0.09786908514665223	
5.1	0.046	0.11769826284167555	
5.105	0.329	0.134552145653399	
5.11	0.195	0.15148052362289022	
5.115	0.000	0.1637676953477028	
5.12	0.247	0.16812684338279862	
5.125	0.280	0.17128474765902274	
5.13	-0.018	0.1714656118771908	
5.135	0.085	0.16251384821700027	
5.14	0.261	0.14918936261048585	
5.145	-0.026	0.13289717083748012	
5.15	-0.099	0.10973866355519737	
5.155	0.093	0.07746832161952959	
5.16	-0.079	0.040479783577962655	
5.165	-0.229	-0.00012426176598698691	
5.17	-0.114	-0.041937802759303686	
5.175	-0.122	-0.08479352035741054	
5.18	-0.294	-0.12640534881561472	
5.185	-0.242	-0.160462382212894	
5.19	-0.143	-0.1889390349504598	
5.195	-0.279	-0.21303857864144252	
5.2	-0.303	-0.2281533438254593	
5.205	-0.153	-0.2356281611632841	
5.21	-0.227	-0.24155427992963494	
5.215	-0.329	-0.2450151468362076	
5.22	-0.186	-0.24195443607823214	
5.225	-0.162	-0.2398729427322402	
5.23	-0.300	-0.23736141144663983	
5.235	-0.220	-0.23042069765039105	
5.24	-0.093	-0.2219914311220832	
5.245	-0.230	-0.2140639794464051	
5.25	-0.246	-0.20411315636337485	
5.255	-0.067	-0.19161785220001426	
5.26	-0.151	-0.1826008589368714	
5.265	-0.252	-0.17402423265244304	
5.27	-0.096	-0.16390080292227732	
5.275	-0.058	-0.15588413846945368	
5.28	-0.220	-0.14942662024707082	
5.285	-0.137	-0.13937650456002057	
5.29	0.012	-0.13093720404912412	
5.295	-0.162	-0.1231515741156088	
5.3	-0.174	-0.11512859211264052	
5.305	0.037	-0.10550595735677212	
5.31	-0.075	-0.09765029524667948	
5.315	-0.185	-0.09012042111429913	
5.32	0.006	-0.08178584216868684	
5.325	0.038	-0.07284658313044998	
5.33	-0.166	-0.0645730368573459	
5.335	-0.075	-0.05833200289873976	
5.34	0.113	-0.05281418530986379	
5.345	-0.104	-0.04626835090101657	
5.35	-0.127	-0.04118334382594538	
5.355	0.111	-0.03636021526324053	
5.36	-0.023	-0.03168245291438834	
5.365	-0.156	-0.028242907700780737	
5.37	0.035	-0.02768708082941662	
5.375	0.082	-0.02579035247698043	
5.38	-0.140	-0.023695563959753994	
5.385	-0.047	-0.021309351333869277	
5.39	0.133	-0.020714206303011462	
5.395	-0.098	-0.01935073640587002	
5.4	-0.120	-0.019226476807674475	
5.405	0.133	-0.01925660548050954	
5.41	-0.006	-0.016702798600611076	
5.415	-0.145	-0.015323292973166739	
5.42	0.052	-0.013618200911824606	
5.425	0.075	-0.013759224204391848	
5.43	-0.140	-0.013781606850029193	
5.435	-0.044	-0.015286954754256144	
5.44	0.142	-0.015644976594315622	
5.445	-0.085	-0.015410552464256112	
5.45	-0.102	-0.013253406366526286	
5.455	0.133	-0.01118266915234059	
5.46	-0.008	-0.009725237225570879	
5.465	-0.143	-0.008383771199751849	
5.47	0.064	-0.008557343441196068	
5.475	0.097	-0.007736376714766023	
5.48	-0.128	-0.005852889218450939	
5.485	-0.031	-0.0042621673052900995	
5.49	0.157	-0.0035936827379862463	
5.495	-0.082	-0.0014697957810690713	
5.5	-0.104	-0.0012658488705832199	
5.505	0.151	-0.0011210748880044104	
5.51	0.006	0.000248274463410392	
5.515	-0.136	0.001580612901391234	
5.52	0.073	0.0014881424683774454	
5.525	0.097	0.0012625250437535826	
5.53	-0.131	0.0021085050225067665	
5.535	-0.032	0.0007645908243467291	
5.54	0.157	-0.0005817582843884527	
5.545	-0.075	-0.0004995378991073268	
5.55	-0.085	0.0007519479940841198	
5.555	0.175	0.003894275342335128	
5.56	0.040	0.01022058560454773	
5.565	-0.096	0.018593872753191475	
5.57	0.134	0.026507940610237195	
5.575	0.152	0.03623122748002425	
5.58	-0.087	0.04411324466830094	
5.585	0.050	0.04979170158124831	
5.59	0.250	0.05639033648753158	
5.595	-0.011	0.06549869362209837	
5.6	-0.056	0.06977947703193171	
5.605	0.203	0.06885405560152841	
5.61	0.035	0.06520904669735304	
5.615	-0.120	0.05764711842643139	
5.62	0.079	0.046471069670758126	
5.625	0.087	0.03318846681079878	
5.63	-0.153	0.01918990976798059	
5.635	-0.073	0.003790270105384552	
5.64	0.082	-0.013701059847810651	
5.645	-0.134	-0.03044382307683161	
5.65	-0.149	-0.0441474529515972	
5.655	0.070	-0.05323528416011921	
5.66	-0.064	-0.05980188476503211	
5.665	-0.182	-0.06324736515457907	
5.67	-0.008	-0.06557220375778183	
5.675	0.015	-0.06688714814651592	
5.68	-0.169	-0.06772102921444537	
5.685	-0.072	-0.06618256173928988	
5.69	0.097	-0.06179652959205497	
5.695	-0.119	-0.05741225835526709	
5.7	-0.137	-0.05208037572392228	
5.705	0.094	-0.04831351982307878	
5.71	-0.041	-0.044825541757544544	
5.715	-0.166	-0.043162765664084904	
5.72	-0.005	-0.04260553105020068	
5.725	-0.021	-0.04895709196421969	
5.73	-0.201	-0.059658714178684576	
5.735	-0.035	-0.06715292665427092	
5.74	0.369	-0.05284621356866935	
5.745	0.465	0.008656357479072754	
5.75	0.941	0.14604015940734663	
5.755	1.680	0.37769509970032605	
5.76	1.622	0.6871820093045536	
5.765	1.142	0.9918357280395759	
5.77	0.739	1.181205592975654	
5.775	0.149	1.1798519710611233	
5.78	-0.303	0.9893631700152877	
5.785	-0.323	0.6848474878398272	
5.79	-0.250	0.35406450183394117	
5.795	-0.363	0.0637122101504244	
5.8	-0.351	-0.1478966105369022	
5.805	-0.171	-0.27641822192592125	
5.81	-0.226	-0.3388391322743324	
5.815	-0.303	-0.3499810207974715	
5.82	-0.156	-0.3286485406247378	
5.825	-0.131	-0.2960786430146052	
5.83	-0.267	-0.262542823214713	
5.835	-0.174	-0.22810908665671079	
5.84	-0.043	-0.19900930651170512	
5.845	-0.200	-0.17737803733916924	
5.85	-0.204	-0.1599127529022894	
5.855	-0.006	-0.14443058229321243	
5.86	-0.105	-0.1329191612171721	
5.865	-0.203	-0.12201612446697092	
5.87	-0.026	-0.1115873359937449	
5.875	0.001	-0.10208773995025677	
5.88	-0.175	-0.09261149581326111	
5.885	-0.063	-0.0820568751585759	
5.89	0.117	-0.06995405155572418	
5.895	-0.096	-0.055453205004217174	
5.9	-0.104	-0.041917874062295093	
5.905	0.157	-0.029348645415488275	
5.91	0.020	-0.01495969658629766	
5.915	-0.110	-0.0010671406173552458	
5.92	0.143	0.011481199662944157	
5.925	0.183	0.02691939560682175	
5.93	-0.053	0.04532967193976783	
5.935	0.097	0.061972027601024916	
5.94	0.296	0.08007024845253813	
5.945	0.047	0.09950946088765615	
5.95	0.052	0.11508846021445217	
5.955	0.338	0.13066770711931247	
5.96	0.180	0.1470248710502169	
5.965	-0.002	0.15993847409530348	
5.97	0.259	0.16547166012455752	
5.975	0.262	0.16890077044683505	
5.98	-0.023	0.16836122868952658	
5.985	0.097	0.15995890173224356	
5.99	0.253	0.14601806616170998	
5.995	-0.040	0.13056219056569535	
6.0	-0.085	0.10711561859325305	
6.005	0.113	0.07656817154166641	
6.01	-0.078	0.043048408921835084	
6.015	-0.224	0.005044722618441767	
6.02	-0.101	-0.03461997248926882	
6.025	-0.125	-0.07816008439178392	
6.03	-0.296	-0.12049289150563582	
6.035	-0.236	-0.15504552244013892	
6.04	-0.145	-0.18511118127508996	
6.045	-0.291	-0.21134644421579168	
6.05	-0.305	-0.22879283189604688	
6.055	-0.156	-0.2385454019833002	
6.06	-0.246	-0.24696291202491807	
6.065	-0.331	-0.2508432535544423	
6.07	-0.185	-0.24865293182615872	
6.075	-0.168	-0.24623037653844662	
6.08	-0.305	-0.24343972515064527	
6.085	-0.218	-0.23501481020096507	
6.09	-0.107	-0.22616501816040985	
6.095	-0.247	-0.2193644283670745	
6.1	-0.249	-0.20975502464007445	
6.105	-0.076	-0.19953808004317963	
6.11	-0.172	-0.19200982834781335	
6.115	-0.259	-0.18385025432129137	
6.12	-0.107	-0.17559697469843227	
6.125	-0.085	-0.16924997321737612	
6.13	-0.227	-0.16350430490756848	
6.135	-0.137	-0.15395630874596056	
6.14	-0.006	-0.14411994816632712	
6.145	-0.175	-0.13546128294439144	
6.15	-0.177	-0.1257505413859465	
6.155	0.033	-0.11643072369907506	
6.16	-0.093	-0.10707957903900259	
6.165	-0.198	-0.09892586346657797	
6.17	-0.017	-0.09247725826945147	
6.175	0.017	-0.08624268006277455	
6.18	-0.166	-0.07963274083963276	
6.185	-0.066	-0.07188632610068749	
6.19	0.107	-0.06303274510788964	
6.195	-0.117	-0.05358356993673796	
6.2	-0.125	-0.04576350511927193	
6.205	0.113	-0.0403066802326597	
6.21	-0.043	-0.03514494014044186	
6.215	-0.156	-0.03300662496178618	
6.22	0.052	-0.03136484157991001	
6.225	0.052	-0.029231235356751154	
6.23	-0.151	-0.02774789731670846	
6.235	-0.040	-0.027833439518754624	
6.24	0.120	-0.026956880691675407	
6.245	-0.117	-0.02667655646015115	
6.25	-0.119	-0.02678075707657804	
6.255	0.114	-0.028208216695663715	
6.26	-0.032	-0.028181469967180704	
6.265	-0.148	-0.028074149423707045	
6.27	0.065	-0.026288813312352492	
6.275	0.078	-0.02220853915231347	
6.28	-0.142	-0.018831396518916837	
6.285	-0.029	-0.015807865491395352	
6.29	0.145	-0.013893379255110989	
6.295	-0.098	-0.010736525466332287	
6.3	-0.102	-0.00980623466194246	
6.305	0.142	-0.009138721920695316	
6.31	-0.017	-0.00819694901807076	
6.315	-0.139	-0.008131317596684179	
6.32	0.078	-0.007245604026118438	
6.325	0.076	-0.007181855492883092	
6.33	-0.137	-0.006887241037134021	
6.335	-0.024	-0.006799727621727791	
6.34	0.146	-0.00784542262226251	
6.345	-0.095	-0.00677188031984874	
6.35	-0.095	-0.006828187899188223	
6.355	0.151	-0.006090711968986347	
6.36	-0.009	-0.004204222365091201	
6.365	-0.131	-0.0021704126884082723	
6.37	0.088	-0.0012163360957067933	
6.375	0.096	0.0008352248299370814	
6.38	-0.122	0.004080394718790488	
6.385	0.009	0.007206394114311048	
6.39	0.194	0.011176798262712147	
6.395	-0.043	0.019214912866449347	
6.4	-0.056	0.0271668370933664	
6.405	0.213	0.033915320709958674	
6.41	0.064	0.042792327911746156	
6.415	-0.076	0.05083783360368382	
6.42	0.175	0.0587792037519131	
6.425	0.169	0.0668193008503806	
6.43	-0.095	0.07209904428726255	
6.435	0.023	0.07020277337589	
6.44	0.187	0.063137211393855	
6.445	-0.082	0.053239679267891	
6.45	-0.096	0.04119474136958015	
6.455	0.146	0.026862433150944238	
6.46	-0.041	0.013795177955714026	
6.465	-0.171	-0.0011027336804113642	
6.47	0.008	-0.01626656559478565	
6.475	0.003	-0.03321949789776105	
6.48	-0.178	-0.04781912807202321	
6.485	-0.081	-0.058789905386503256	
6.49	0.076	-0.0649367598830056	
6.495	-0.134	-0.0667111469499522	
6.5	-0.133	-0.06575180047372811	
6.505	0.084	-0.062215101801940495	
6.51	-0.066	-0.0592104752417656	
6.515	-0.172	-0.057024057384304494	
6.52	0.021	-0.05430695712379113	
6.525	0.023	-0.05326977159371024	
6.53	-0.163	-0.05275420807557069	
6.535	-0.055	-0.05078687118257444	
6.54	0.110	-0.04800371231310212	
6.545	-0.116	-0.04367845068392599	
6.55	-0.131	-0.040715001185007815	
6.555	0.043	-0.04127565683160418	
6.56	-0.098	-0.04921960500180724	
6.565	-0.133	-0.05696526967993319	
6.57	0.294	-0.0453059431794148	
6.575	0.620	0.013747535688901755	
6.58	0.797	0.14234321623152127	
6.585	1.352	0.35225717389984357	
6.59	1.578	0.624975546921362	
6.595	1.015	0.8902970319430551	
6.6	0.367	1.044147660004774	
6.605	0.116	1.0195350051513508	
6.61	-0.227	0.8277805445570955	
6.615	-0.398	0.5471034729610733	
6.62	-0.282	0.2556164503389087	
6.625	-0.262	0.0037134618667489516	
6.63	-0.361	-0.17956110008606538	
6.635	-0.232	-0.28476547681227415	
6.64	-0.104	-0.3271119117837555	
6.645	-0.242	-0.32657855600105945	
6.65	-0.232	-0.29962994583891694	
6.655	-0.049	-0.26039508340927153	
6.66	-0.148	-0.22322594818863234	
6.665	-0.232	-0.19085680640906677	
6.67	-0.066	-0.16238997742550831	
6.675	-0.060	-0.14338680767335177	
6.68	-0.212	-0.1306284575867248	
6.685	-0.098	-0.118749457733618	
6.69	0.056	-0.10713312831900537	
6.695	-0.145	-0.09565209045319172	
6.7	-0.142	-0.0846147874007885	
6.705	0.084	-0.07533786485737043	
6.71	-0.063	-0.06627311179062889	
6.715	-0.154	-0.05788614432283678	
6.72	0.062	-0.05031423426427741	
6.725	0.068	-0.03938664093210521	
6.73	-0.134	-0.02969233459570659	
6.735	-0.008	-0.020712462094603586	
6.74	0.178	-0.011096491023709337	
6.745	-0.069	0.00029711795730070497	
6.75	-0.058	0.010382686041895359	
6.755	0.216	0.019705127083904646	
6.76	0.070	0.03271087339160738	
6.765	-0.061	0.04709587119345223	
6.77	0.213	0.06070347563673382	
6.775	0.218	0.07861415191364118	
6.78	-0.024	0.09630565592160628	
6.785	0.148	0.11028420445330765	
6.79	0.312	0.12388780624717366	
6.795	0.035	0.1363182861706407	
6.8	0.032	0.14138724851950213	
6.805	0.293	0.1416529474485227	
6.81	0.107	0.13973428707943486	
6.815	-0.066	0.13414384419254546	
6.82	0.168	0.12162649704850702	
6.825	0.131	0.1055934143278538	
6.83	-0.131	0.08740851190243928	
6.835	-0.058	0.06223887087743589	
6.84	0.030	0.02778428303015464	
6.845	-0.192	-0.010575697336009913	
6.85	-0.207	-0.048550572688279274	
6.855	-0.070	-0.08448377914632427	
6.86	-0.198	-0.12024884345239076	
6.865	-0.299	-0.15071393579237902	
6.87	-0.159	-0.1734481337460944	
6.875	-0.172	-0.19449427309415318	
6.88	-0.314	-0.21146709269861277	
6.885	-0.223	-0.21972305070958495	
6.89	-0.131	-0.22432613202146395	
6.895	-0.276	-0.22855069911580098	
6.9	-0.268	-0.2274638257079918	
6.905	-0.110	-0.22253640911021688	
6.91	-0.206	-0.21930432395903335	
6.915	-0.279	-0.21365697186281835	
6.92	-0.117	-0.2044197131168855	
6.925	-0.122	-0.19655793533681895	
6.93	-0.267	-0.19048696191074757	
6.935	-0.163	-0.18165943845864374	
6.94	-0.040	-0.17332882583973708	
6.945	-0.209	-0.1656257464455787	
6.95	-0.200	-0.1574342541867073	
6.955	-0.011	-0.14746704320736304	
6.96	-0.133	-0.1403750528947805	
6.965	-0.215	-0.13270246011021997	
6.97	-0.031	-0.12431795659792197	
6.975	-0.035	-0.11656406294977187	
6.98	-0.195	-0.10959519056437111	
6.985	-0.084	-0.10159033140730378	
6.99	0.064	-0.09325221754139562	
6.995	-0.140	-0.08374342812803903	
7.0	-0.125	-0.07444478051097687	
7.005	0.107	-0.06433807784758111	
7.01	-0.050	-0.05444050342736054	
7.015	-0.149	-0.0457955570431325	
7.02	0.070	-0.03719760261774019	
7.025	0.064	-0.029542757117506847	
7.03	-0.137	-0.021728114083195218	
7.035	-0.017	-0.01653450154793137	
7.04	0.143	-0.012158724306641895	
7.045	-0.104	-0.008857082638611631	
7.05	-0.096	-0.0074703339545495176	
7.055	0.154	-0.007214664092071579	
7.06	-0.024	-0.005489047893449455	
7.065	-0.143	-0.004882746754946156	
7.07	0.084	-0.006101027258349702	
7.075	0.072	-0.006519515555296898	
7.08	-0.139	-0.0068289276254699756	
7.085	-0.009	-0.006492586334981428	
7.09	0.146	-0.006088426231900476	
7.095	-0.105	-0.004935669801467319	
7.1	-0.095	-0.005486955797602069	
7.105	0.161	-0.006132494220067784	
7.11	-0.008	-0.0035201598017953924	
7.115	-0.122	6.573920569829919e-05	
7.12	0.123	0.003959815407258508	
7.125	0.111	0.010492365545408	
7.13	-0.111	0.01811295309576131	
7.135	0.033	0.02352819482535645	
7.14	0.206	0.027943076812934568	
7.145	-0.046	0.03603381388258049	
7.15	-0.027	0.04251297597218276	
7.155	0.241	0.04888361742200055	
7.16	0.044	0.05746533414250926	
7.165	-0.096	0.06306990944108078	
7.17	0.130	0.060952598874651494	
7.175	0.082	0.0544664877826037	
7.18	-0.134	0.04414484661731288	
7.185	-0.021	0.029536460908374133	
7.19	0.114	0.013887079375368221	
7.195	-0.127	-0.0009351530916239126	
7.2	-0.130	-0.015437869716159472	
7.205	0.091	-0.028187270016849682	
7.21	-0.082	-0.03854072227029041	
7.215	-0.182	-0.048840346697637614	
7.22	0.012	-0.056088627922104055	
7.225	-0.006	-0.06258861973652019	
7.23	-0.180	-0.06676688090990235	
7.235	-0.063	-0.06845626305693706	
7.24	0.073	-0.06719943075869783	
7.245	-0.140	-0.06588574867172825	
7.25	-0.128	-0.062385879042147235	
7.255	0.094	-0.058267751964491445	
7.26	-0.072	-0.054542791222997974	
7.265	-0.169	-0.052768362132010235	
7.27	0.033	-0.0511350535985758	
7.275	0.023	-0.049628809773369593	
7.28	-0.174	-0.049702262789309726	
7.285	-0.081	-0.05046671458594275	
7.29	0.018	-0.05626233942960438	
7.295	-0.156	-0.06684645933424266	
7.3	-0.044	-0.06934792209813034	
7.305	0.465	-0.043285583452175785	
7.31	0.645	0.040521621672312776	
7.315	0.936	0.19832572763896342	
7.32	1.527	0.43386364041214914	
7.325	1.448	0.7153612410024754	
7.33	0.780	0.9572628279656948	
7.335	0.338	-0.042439885117142424	
7.34	0.027	0.9855877841796088	
7.345	-0.305	0.7622198850765495	
7.35	-0.358	0.4736692897187154	
7.355	-0.226	0.19160342630941535	
7.36	-0.300	-0.042439885117142424	
7.365	-0.339	-0.20258620489626789	
7.37	-0.159	-0.2882299171824359	
7.375	-0.151	-0.3206688047761426	
7.38	-0.281	-0.3155372029806991	
7.385	-0.169	-0.2874870539975356	
7.39	-0.064	-0.25238883650013394	
7.395	-0.218	-0.22075720098255294	
7.4	-0.192	-0.19029145198332165	
7.405	0.003	-0.16344003815604113	
7.41	-0.125	-0.14254140534199813	
7.415	-0.204	-0.12662311516361074	
7.42	-0.020	-0.11321317263518156	
7.425	-0.023	-0.10271807083080634	
7.43	-0.186	-0.0955963900419601	
7.435	-0.064	-0.08643725180790837	
7.44	0.087	-0.07735397922621201	
7.445	-0.131	-0.06782732097313462	
7.45	-0.107	-0.0582883285800984	
7.455	0.139	-0.04735863181268418	
7.46	-0.034	-0.03557988591975342	
7.465	-0.133	-0.025681758984370993	
7.47	0.119	-0.016137804956190778	
7.475	0.099	-0.004693312544852128	
7.48	-0.111	0.0073199844126963865	
7.485	0.056	0.016580437432720297	
7.49	0.229	0.02771373431971431	
7.495	-0.023	0.04312836245839057	
7.5	0.015	0.057675555272107104	
7.505	0.296	0.07269132492757413	
7.51	0.125	0.0914316058964699	
7.515	-0.011	0.10927974487343294	
7.52	0.271	0.12385868538435826	
7.525	0.245	0.13733080904608824	
7.53	-0.018	0.14932377872541044	
7.535	0.146	0.15154717986145444	
7.54	0.288	0.15069873315774185	
7.545	0.004	0.14817473197354647	
7.55	-0.005	0.13766760884857118	
7.555	0.219	0.12261760917249254	
7.56	-0.021	0.102473701570314	
7.565	-0.162	0.07533836158121526	
7.57	0.009	0.040760146223015506	
7.575	-0.053	0.0013166902722295706	
7.58	-0.241	-0.0385491044461438	
7.585	-0.163	-0.07450124106653837	
7.59	-0.101	-0.11039705179686296	
7.595	-0.264	-0.14371064302609557	
7.6	-0.265	-0.17028714692037838	
7.605	-0.127	-0.18949949079514278	
7.61	-0.238	-0.20749093104530372	
7.615	-0.314	-0.2195599902436251	
7.62	-0.157	-0.22430391321085213	
7.625	-0.171	-0.22772483146918537	
7.63	-0.308	-0.22847634316931495	
7.635	-0.204	-0.2245017210724767	
7.64	-0.110	-0.2204497111776968	
7.645	-0.255	-0.21569383630766537	
7.65	-0.239	-0.20826235679331168	
7.655	-0.079	-0.1995204516644863	
7.66	-0.183	-0.19351206013579952	
7.665	-0.252	-0.18554910240357123	
7.67	-0.076	-0.17528262574561362	
7.675	-0.092	-0.16674685415697332	
7.68	-0.241	-0.15850607549021248	
7.685	-0.127	-0.1494624591075342	
7.69	-0.009	-0.1414332414886997	
7.695	-0.183	-0.13475700333816365	
7.7	-0.162	-0.12524729149333969	
7.705	0.046	-0.1144499733707752	
7.71	-0.108	-0.10457154909877817	
7.715	-0.192	-0.09659915263061915	
7.72	0.008	-0.0891899053745066	
7.725	-0.015	-0.0837489004480371	
7.73	-0.183	-0.07960734080850945	
7.735	-0.060	-0.07439893041618256	
7.74	0.078	-0.06936038419216561	
7.745	-0.136	-0.06386745212829995	
7.75	-0.113	-0.058259854454242185	
7.755	0.122	-0.051328494260032206	
7.76	-0.060	-0.0436290637185221	
7.765	-0.154	-0.03768792856356726	
7.77	0.075	-0.033079570119897164	
7.775	0.059	-0.028723888170767146	
7.78	-0.143	-0.022728293333408284	
7.785	-0.009	-0.018351761655182614	
7.79	0.133	-0.015275353901370123	
7.795	-0.110	-0.011965519837784898	
7.8	-0.096	-0.01028179854194285	
7.805	0.152	-0.010226620275612363	
7.81	-0.035	-0.009674347035480486	
7.815	-0.136	-0.008750771330888465	
7.82	0.085	-0.00899390513117086	
7.825	0.044	-0.009723787250558974	
7.83	-0.153	-0.011812768108124129	
7.835	-0.017	-0.014295575286045338	
7.84	0.117	-0.017229080603920716	
7.845	-0.119	-0.0190484775266936	
7.85	-0.101	-0.021270667411997735	
7.855	0.139	-0.022149939281800174	
7.86	-0.049	-0.020730519155148446	
7.865	-0.140	-0.0207901256453355	
7.87	0.096	-0.018916188184576462	
7.875	0.065	-0.015727282802288835	
7.88	-0.140	-0.010879148206264445	
7.885	-0.006	-0.008255974992926391	
7.89	0.133	-0.007195044063776496	
7.895	-0.113	-0.007105393234158023	
7.9	-0.090	-0.008270015971577366	
7.905	0.154	-0.009101583760073927	
7.91	-0.026	-0.007758484554169725	
7.915	-0.122	-0.005813816748237107	
7.92	0.125	-0.0018766685413418105	
7.925	0.107	0.005270554102640159	
7.93	-0.107	0.013089466447178462	
7.935	0.043	0.020764790588980824	
7.94	0.192	0.027821268757937116	
7.945	-0.063	0.034870809011091485	
7.95	-0.031	0.03972817097175929	
7.955	0.235	0.043914521605257856	
7.96	0.032	0.05123706966049393	
7.965	-0.095	0.05517632704863603	
7.97	0.143	0.055115169833339986	
7.975	0.085	0.05127083010678596	
7.98	-0.136	0.044101515709339664	
7.985	-0.006	0.03174940629931802	
7.99	0.126	0.017804541785106077	
7.995	-0.124	0.005908089257708496	
8.0	-0.113	-0.006266111463730879	
8.005	0.101	-0.018138513945788873	
8.01	-0.090	-0.029739364713051795	
8.015	-0.182	-0.04077161495456463	
8.02	0.024	-0.04993469836766939	
8.025	-0.014	-0.058748044592388596	
8.03	-0.188	-0.06482433516012324	
8.035	-0.064	-0.06826392751420081	
8.04	0.064	-0.07025796600105455	
8.045	-0.146	-0.0700417810978265	
8.05	-0.122	-0.0672306939835923	
8.055	0.088	-0.06320436573198716	
8.06	-0.081	-0.058736977807187625	
8.065	-0.162	-0.05571236618864509	
8.07	0.050	-0.052973573385075926	
8.075	0.015	-0.04978436316162248	
8.08	-0.171	-0.04676726892541121	
8.085	-0.078	-0.04727088020086035	
8.09	0.015	-0.05432446642415714	
8.095	-0.154	-0.06500487894320402	
8.1	-0.011	-0.06617897819437082	
8.105	0.529	-0.034227636241608905	
8.11	0.730	0.061321717631970314	
8.115	1.061	0.23840790067965464	
8.12	1.668	0.4980230723992691	
8.125	1.584	0.8041750746540727	
8.13	0.899	1.0662129268260874	
8.135	0.412	1.1815514116142478	
8.14	0.056	1.1014831339489075	
8.145	-0.305	0.8610520439695607	
8.15	-0.348	0.5488720607571785	
8.155	-0.217	0.2416461015258488	
8.16	-0.296	-0.01166720626533736	
8.165	-0.339	-0.18647499516958801	
8.17	-0.171	-0.2830628379618528	
8.175	-0.182	-0.3238874940080195	
8.18	-0.305	-0.32656571346074237	
8.185	-0.194	-0.3052439014176741	
8.19	-0.102	-0.2755141951284021	
8.195	-0.247	-0.2479224340382604	
8.2	-0.220	-0.2200552645743966	
8.205	-0.040	-0.19542206842047524	
8.21	-0.153	-0.17679448706293033	
8.215	-0.220	-0.15947590574290277	
8.22	-0.035	-0.14304189746444307	
8.225	-0.058	-0.12997918758012872	
8.23	-0.207	-0.12061009693416304	
8.235	-0.085	-0.11116027085305037	
8.24	0.029	-0.10351810580908757	
8.245	-0.165	-0.09701306326233444	
8.25	-0.128	-0.09000079837298836	
8.255	0.107	-0.08034506238356023	
8.26	-0.066	-0.06788293281812605	
8.265	-0.137	-0.05550227864454631	
8.27	0.111	-0.04293609057067348	
8.275	0.081	-0.026003866325723442	
8.28	-0.113	-0.010692189120526142	
8.285	0.058	0.003906525371998895	
8.29	0.212	0.01952283794038699	
8.295	-0.027	0.035910052440094084	
8.3	0.032	0.0530029918037424	
8.305	0.317	0.07171724998390697	
8.31	0.125	0.09508510864387446	
8.315	0.004	0.11746273938044492	
8.32	0.291	0.134096634707957	
8.325	0.242	0.14899756689790078	
8.33	-0.008	0.1612844035400444	
8.335	0.197	0.16491074087140917	
8.34	0.317	0.1675201972958291	
8.345	0.014	0.1689169484757964	
8.35	0.030	0.16200412351928328	
8.355	0.253	0.14766977646169943	
8.36	0.004	0.13010065426494488	
8.365	-0.127	0.10451685984420878	
8.37	0.050	0.07102645623775149	
8.375	-0.046	0.032969649330628736	
8.38	-0.232	-0.008604993199455593	
8.385	-0.149	-0.050122822798538885	
8.39	-0.096	-0.09057870330894843	
8.395	-0.277	-0.12997469181981103	
8.4	-0.265	-0.16194126890642527	
8.405	-0.131	-0.1874529829356714	
8.41	-0.246	-0.20886252056507845	
8.415	-0.322	-0.2233691789536205	
8.42	-0.171	-0.2310537347464333	
8.425	-0.197	-0.2370754626578259	
8.43	-0.328	-0.24150401045736153	
8.435	-0.210	-0.24013310988357997	
8.44	-0.128	-0.23665314796277429	
8.445	-0.276	-0.23293094698509886	
8.45	-0.246	-0.2249099558058223	
8.455	-0.089	-0.21550558086226146	
8.46	-0.200	-0.20787062760214137	
8.465	-0.261	-0.1993388595824372	
8.47	-0.087	-0.18805988591235243	
8.475	-0.110	-0.17909536881151727	
8.48	-0.247	-0.17050794928630997	
8.485	-0.122	-0.16011530603004773	
8.49	-0.027	-0.15064784804748516	
8.495	-0.203	-0.14296707322770066	
8.5	-0.168	-0.13490686849819852	
8.505	0.026	-0.1254574400285023	
8.51	-0.125	-0.11790211463221328	
8.515	-0.198	-0.11038346160913103	
8.52	0.001	-0.10199616866074351	
8.525	-0.034	-0.0960818969812676	
8.53	-0.195	-0.09159295928480338	
8.535	-0.067	-0.08607947226258938	
8.54	0.065	-0.08157267719230361	
8.545	-0.146	-0.07505091547165144	
8.55	-0.116	-0.06793392946119454	
8.555	0.105	-0.061350749932368276	
8.56	-0.075	-0.053941967970636676	
8.565	-0.157	-0.04846944415944465	
8.57	0.061	-0.04390259275509906	
8.575	0.015	-0.04105482041718739	
8.58	-0.165	-0.03870253356891454	
8.585	-0.021	-0.03803830782931267	
8.59	0.110	-0.036492175865855805	
8.595	-0.125	-0.03313926237453244	
8.6	-0.099	-0.029957088347062	
8.605	0.128	-0.02825500731552538	
8.61	-0.061	-0.026980310283503117	
8.615	-0.142	-0.025534461440377486	
8.62	0.084	-0.024822988075455223	
8.625	0.035	-0.02304152300746517	
8.63	-0.151	-0.02178422774555562	
8.635	-0.014	-0.020998482470372677	
8.64	0.117	-0.02144256216524914	
8.645	-0.120	-0.02121185645315226	
8.65	-0.087	-0.019956208595634458	
8.655	0.140	-0.019182099439515925	
8.66	-0.060	-0.018028457245360383	
8.665	-0.145	-0.01757538686091044	
8.67	0.090	-0.01875052357325114	
8.675	0.033	-0.01904982424337366	
8.68	-0.156	-0.019849083617615174	
8.685	-0.012	-0.020947161909011063	
8.69	0.120	-0.021411511437450806	
8.695	-0.114	-0.021280240257346712	
8.7	-0.079	-0.01894137107382845	
8.705	0.155	-0.01612404717805367	
8.71	-0.043	-0.012078177261227625	
8.715	-0.128	-0.008599407531531005	
8.72	0.094	-0.006687832680806044	
8.725	0.043	-0.006068581935587327	
8.73	-0.137	-0.006900976445535	
8.735	0.020	-0.006894705891844554	
8.74	0.161	-0.00438909941906591	
8.745	-0.087	0.0016577267491871242	
8.75	-0.032	0.009075809602411541	
8.755	0.226	0.017924515541186486	
8.76	0.009	0.029878044902022526	
8.765	-0.090	0.039382614502569316	
8.77	0.183	0.04435666846541999	
8.775	0.131	0.05192090683891407	
8.78	-0.101	0.05707581213257819	
8.785	0.059	0.05811904766875281	
8.79	0.171	0.05459998253726207	
8.795	-0.092	0.04965391984849649	
8.8	-0.063	0.04109101892368361	
8.805	0.163	0.02989575368118566	
8.81	-0.044	0.02087912576169909	
8.815	-0.145	0.01042995716156817	
8.82	0.055	-0.0016801555985891128	
8.825	-0.008	-0.015116114525190152	
8.83	-0.185	-0.02985412031859187	
8.835	-0.067	-0.04287712846758452	
8.84	0.038	-0.056472514543477056	
8.845	-0.165	-0.06729738307244679	
8.85	-0.130	-0.07385126089222525	
8.855	0.075	-0.07517831219454701	
8.86	-0.096	-0.07413100008162	
8.865	-0.172	-0.07249099880260812	
8.87	0.027	-0.06871196323848978	
8.875	-0.021	-0.06716989011553898	
8.88	-0.183	-0.0677983677757338	
8.885	-0.043	-0.06585945188221268	
8.89	0.078	-0.0635271069743893	
8.895	-0.139	-0.059285247303544605	
8.9	-0.102	-0.05381758050045942	
8.905	0.096	-0.04921192570989054	
8.91	-0.117	-0.0481509652186917	
8.915	-0.203	-0.05246361853176747	
8.92	0.078	-0.05771104885085809	
8.925	0.241	-0.04717211126495171	
8.93	0.329	0.004263418808914503	
8.935	1.011	0.12520993718676682	
8.94	1.626	0.34351230395657273	
8.945	1.518	0.004263418808914503	
8.95	1.369	0.9611468944323242	
8.955	1.034	1.1856048201505476	
8.96	0.172	1.235722282927627	
8.965	-0.241	1.086505096209096	
8.97	-0.210	0.7962013693575892	
8.975	-0.279	0.45681814354466377	
8.98	-0.398	0.147372140659283	
8.985	-0.264	-0.08483977734448905	
8.99	-0.168	-0.2355968625186444	
8.995	-0.302	-0.31514238333110167	
9.0	-0.265	-0.3377508773880823	
9.005	-0.111	-0.32635520481923064	
9.01	-0.221	-0.3020994902429277	
9.015	-0.276	-0.2703317094937933	
9.02	-0.105	-0.2388440092971688	
9.025	-0.128	-0.2132497053773186	
9.03	-0.250	-0.19362694902366584	
9.035	-0.125	-0.17389083384320542	
9.04	-0.020	-0.15767839696833036	
9.045	-0.198	-0.14517126782660356	
9.05	-0.160	-0.1327469792944984	
9.055	0.033	-0.12035961742294203	
9.06	-0.119	-0.11112545034172959	
9.065	-0.180	-0.10133716493107552	
9.07	0.037	-0.0908024182415463	
9.075	-0.002	-0.08025062591378335	
9.08	-0.159	-0.06967356550387455	
9.085	-0.017	-0.05885916926671851	
9.09	0.117	-0.0476369006381558	
9.095	-0.104	-0.03522672166945666	
9.1	-0.053	-0.02375709957763085	
9.105	0.207	-0.00929184235521634	
9.11	0.012	0.00785283286346512	
9.115	-0.072	0.023608800726803367	
9.12	0.230	0.039243512109820224	
9.125	0.209	0.06078255904225544	
9.13	-0.032	0.08527818473409005	
9.135	0.175	0.10512546577160775	
9.14	0.317	0.1224003729543062	
9.145	0.044	0.1407794650035371	
9.15	0.102	0.15320565179855122	
9.155	0.355	0.1626929110832681	
9.16	0.128	0.17189588356436875	
9.165	-0.018	0.17361402348327382	
9.17	0.245	0.16616670520999516	
9.175	0.158	0.153792508227154	
9.18	-0.098	0.13736207980310616	
9.185	0.033	0.11205906216552386	
9.19	0.093	0.08032804856485441	
9.195	-0.165	0.04489685235212722	
9.2	-0.165	0.007221376735877682	
9.205	-0.034	-0.033447810809371606	
9.21	-0.201	-0.0760384676624795	
9.215	-0.285	-0.1142603336803213	
9.22	-0.148	-0.14695044239466748	
9.225	-0.200	-0.17825541998515426	
9.23	-0.343	-0.20548557487322822	
9.235	-0.235	-0.22395621599756696	
9.24	-0.162	-0.23878675688094997	
9.245	-0.310	-0.2490197339185919	
9.25	-0.273	-0.2507047343348538	
9.255	-0.137	-0.24754339077607512	
9.26	-0.252	-0.24505724963200126	
9.265	-0.303	-0.24117692831071358	
9.27	-0.133	-0.2329703799610409	
9.275	-0.163	-0.22631887148225027	
9.28	-0.291	-0.21845379052069727	
9.285	-0.169	-0.2089186824827268	
9.29	-0.085	-0.19983135850890082	
9.295	-0.238	-0.19305173878941234	
9.3	-0.201	-0.182659663939354	
9.305	-0.032	-0.17152589145146166	
9.31	-0.163	-0.1621160920421973	
9.315	-0.227	-0.15317755075966663	
9.32	-0.050	-0.1439048137001559	
9.325	-0.079	-0.13835506784942114	
9.33	-0.218	-0.13251475047346173	
9.335	-0.078	-0.12484133840132484	
9.34	0.029	-0.11480039063833236	
9.345	-0.169	-0.10515509085241156	
9.35	-0.134	-0.09563745737953591	
9.355	0.073	-0.08642931900877612	
9.36	-0.102	-0.07819660595792632	
9.365	-0.168	-0.07223349480178715	
9.37	0.047	-0.06678911352415291	
9.375	-0.008	-0.061361676744085866	
9.38	-0.171	-0.05762799260021221	
9.385	-0.029	-0.053774642060000155	
9.39	0.084	-0.050729104229800974	
9.395	-0.134	-0.04726264801901531	
9.4	-0.092	-0.042643769176351695	
9.405	0.130	-0.038316778576109364	
9.41	-0.066	-0.032255041937382156	
9.415	-0.143	-0.028308449349226578	
9.42	0.090	-0.02568788353306487	
9.425	0.027	-0.02335027906587253	
9.43	-0.149	-0.02173248326760758	
9.435	0.015	-0.019720874193817663	
9.44	0.119	-0.01765963985333425	
9.445	-0.125	-0.014356048409894146	
9.45	-0.085	-0.013656992871603608	
9.455	0.145	-0.014225160000953831	
9.46	-0.056	-0.014297666119878488	
9.465	-0.131	-0.014365566747050093	
9.47	0.108	-0.013610690864783732	
9.475	0.037	-0.011340461058238592	
9.48	-0.148	-0.010810597800037689	
9.485	0.014	-0.010687033460920209	
9.49	0.128	-0.010607412251887546	
9.495	-0.114	-0.008414590850313748	
9.5	-0.075	-0.0076699800243955635	
9.505	0.152	-0.0071638984936067615	
9.51	-0.050	-0.006319301019604031	
9.515	-0.127	-0.006410374999674061	
9.52	0.096	-0.006569399600946014	
9.525	0.041	-0.00832504886432589	
9.53	-0.139	-0.008855079057624804	
9.535	0.026	-0.0076701134154033785	
9.54	0.133	-0.006575642230074886	
9.545	-0.114	-0.0034526746572013925	
9.55	-0.070	-0.0026761143827198517	
9.555	0.160	-0.0021236351498425485	
9.56	-0.055	-0.0023411065267552053	
9.565	-0.127	-0.0024347904001519	
9.57	0.117	-0.0035308393060670285	
9.575	0.047	-0.003325803144835398	
9.58	-0.142	-0.002890193364466715	
9.585	0.026	-0.0026491503497406716	
9.59	0.145	-0.0015593677986997377	
9.595	-0.104	0.0015213658907429661	
9.6	-0.052	0.004329312019884109	
9.605	0.195	0.007895441481234423	
9.61	0.011	0.014646094765808982	
9.615	-0.072	0.02456663124302034	
9.62	0.187	0.0354807765507819	
9.625	0.108	0.04565813422168716	
9.63	-0.090	0.05410904725126186	
9.635	0.111	0.05836443976701401	
9.64	0.226	0.06442499040283364	
9.645	-0.060	0.07052133712850545	
9.65	-0.020	0.07234369796275324	
9.655	0.200	0.06686567929960219	
9.66	-0.029	0.059639552789793104	
9.665	-0.117	0.048603261514038404	
9.67	0.113	0.034450766403752844	
9.675	0.043	0.021632859611254954	
9.68	-0.159	0.009175129308520737	
9.685	-0.034	-0.00364662329879642	
9.69	0.050	-0.019652787754970272	
9.695	-0.162	-0.03541844854134418	
9.7	-0.120	-0.04859561942662621	
9.705	0.070	-0.05722009156958606	
9.71	-0.108	-0.06436224305176541	
9.715	-0.171	-0.06830042330904303	
9.72	0.038	-0.0695959396693494	
9.725	-0.023	-0.06943241215498246	
9.73	-0.182	-0.06874409842323051	
9.735	-0.034	-0.06562636459370831	
9.74	0.070	-0.06273423689468202	
9.745	-0.151	-0.05939178531673834	
9.75	-0.108	-0.05553909722355394	
9.755	0.097	-0.052282032104200134	
9.76	-0.090	-0.050386853267489914	
9.765	-0.154	-0.049233591140889287	
9.77	0.053	-0.047612638558668194	
9.775	-0.058	-0.04949169337211183	
9.78	-0.224	-0.05770776554182408	
9.785	-0.026	-0.06759876454529601	
9.79	0.317	-0.05976207453541046	
9.795	0.369	-0.0073337445380428305	
9.8	0.921	0.11756100467012655	
9.805	1.655	0.33874420058497395	
9.81	1.605	0.6456468117614212	
9.815	1.288	0.963760030589905	
9.82	0.969	1.187198176468232	
9.825	0.247	1.2313397580179906	
9.83	-0.259	1.0782957382030105	
9.835	-0.264	0.7883544719747124	
9.84	-0.249	0.45016416783655555	
9.845	-0.383	0.1407535501021388	
9.85	-0.323	-0.09240956732812071	
9.855	-0.163	-0.2423832586738637	
9.86	-0.261	-0.3213365370145105	
9.865	-0.305	-0.34507913305634663	
9.87	-0.137	-0.33170962321949987	
9.875	-0.166	-0.3055569738294569	
9.88	-0.285	-0.2735569105675512	
9.885	-0.156	-0.24062158798312683	
9.89	-0.085	-0.2129210076622307	
9.895	-0.236	-0.19329890984802706	
9.9	-0.183	-0.17542613297541523	
9.905	-0.002	-0.1594309574043572	
9.91	-0.148	-0.14640623048202034	
9.915	-0.204	-0.1330908351101915	
9.92	-0.006	-0.12167370699727433	
9.925	-0.050	-0.11158488048671716	
9.93	-0.188	-0.10359806043848091	
9.935	-0.035	-0.0925644972120011	
9.94	0.073	-0.08089286006859812	
9.945	-0.139	-0.06936940229100977	
9.95	-0.084	-0.0564108552327324	
9.955	0.148	-0.04435873313595558	
9.96	-0.053	-0.031464080813253616	
9.965	-0.108	-0.020133096550653446	
9.97	0.174	-0.008586032144769745	
9.975	0.117	0.009416727919496012	
9.98	-0.084	0.02732064289166273	
9.985	0.137	0.04447394312306269	
9.99	0.268	0.06315896831936739	
9.995	-0.002	0.08457470860468391	
10.0	0.090	0.10257032982013176	
10.005	0.349	0.11968842728089306	
10.01	0.139	0.1405378116129103	
10.015	0.029	0.1568341575714779	
10.02	0.314	0.16740153466680835	
10.025	0.230	0.17543702482655313	
10.03	-0.024	0.17833515373450184	
10.035	0.175	0.17242899203558376	
10.04	0.247	0.1611395982594297	
10.045	-0.061	0.14764099881011106	
10.05	-0.043	0.12355191295911203	
10.055	0.142	0.09159624031328895	
10.06	-0.104	0.05760647975759893	
10.065	-0.198	0.01990788297385941	
10.07	-0.061	-0.02172304599021142	
10.075	-0.145	-0.06557259606185523	
10.08	-0.296	-0.10850763501981853	
10.085	-0.197	-0.14363347954985567	
10.09	-0.149	-0.17597432251282952	
10.095	-0.308	-0.20321432389008484	
10.1	-0.268	-0.22039265246185732	
10.105	-0.143	-0.2305508973305589	
10.11	-0.264	-0.2393554550613601	
10.115	-0.314	-0.24297170878226815	
10.12	-0.162	-0.24080559723302164	
10.125	-0.203	-0.24163006578560148	
10.13	-0.314	-0.24041768425705143	
10.135	-0.188	-0.23462788043362673	
10.14	-0.120	-0.22804916171706452	
10.145	-0.271	-0.22120077574373598	
10.15	-0.226	-0.21234747702997508	
10.155	-0.070	-0.20257881551024937	
10.16	-0.201	-0.1943933754909023	
10.165	-0.247	-0.18594441834576497	
10.17	-0.053	-0.17477532390533906	
10.175	-0.105	-0.16466670631560804	
10.18	-0.239	-0.15544241340418036	
10.185	-0.102	-0.1455825040990772	
10.19	-0.015	-0.13704408427932652	
10.195	-0.188	-0.1302579876715404	
10.2	-0.139	-0.11932417444788375	
10.205	0.050	-0.10952278145093676	
10.21	-0.127	-0.09945260246800458	
10.215	-0.175	-0.09197746007367644	
10.22	0.033	-0.08469266155860142	
10.225	-0.041	-0.07868178659273883	
10.23	-0.183	-0.07552584547684411	
10.235	-0.026	-0.0705154897220178	
10.24	0.067	-0.06599092179367448	
10.245	-0.153	-0.06035943989129486	
10.25	-0.099	-0.05532301713717211	
10.255	0.116	-0.050420841459238135	
10.26	-0.084	-0.045512095916776435	
10.265	-0.140	-0.0410441225723166	
10.27	0.090	-0.0365915439146913	
10.275	0.014	-0.03267318543786846	
10.28	-0.160	-0.028630867206752928	
10.285	0.003	-0.027462544482338497	
10.29	0.107	-0.02592350855123237	
10.295	-0.133	-0.024451805906836557	
10.3	-0.072	-0.022330088561130043	
10.305	0.145	-0.020327045602396496	
10.31	-0.066	-0.01756242658980795	
10.315	-0.136	-0.016103569795432343	
10.32	0.102	-0.015508844900111694	
10.325	0.021	-0.015668137290135453	
10.33	-0.156	-0.01671255076830707	
10.335	0.017	-0.017415411467154217	
10.34	0.114	-0.01787090654433052	
10.345	-0.124	-0.016528402225113203	
10.35	-0.066	-0.01433352006695143	
10.355	0.160	-0.012250257972384332	
10.36	-0.056	-0.008606088122905035	
10.365	-0.130	-0.007150955312579251	
10.37	0.119	-0.006438591491691927	
10.375	0.030	-0.0056647508168243075	
10.38	-0.148	-0.005780118053399702	
10.385	0.024	-0.006379430597738295	
10.39	0.133	-0.006830610268010719	
10.395	-0.108	-0.005584896215640175	
10.4	-0.060	-0.0023357424391151405	
10.405	0.154	-0.0011985358057358226	
10.41	-0.058	-0.0006401199600644066	
10.415	-0.122	-0.0011779717872960358	
10.42	0.123	-0.0023857271198388283	
10.425	0.038	-0.0016723391709362542	
10.43	-0.142	-0.0018254658065069936	
10.435	0.037	-0.002341629112723481	
10.44	0.140	-0.0008106666187389633	
10.445	-0.111	0.0013668845334081612	
10.45	-0.046	0.003672926448238673	
10.455	0.186	0.006841349032884733	
10.46	-0.029	0.011335493446149614	
10.465	-0.095	0.015802426406763152	
10.47	0.181	0.020643644612342023	
10.475	0.099	0.02933332661115154	
10.48	-0.095	0.03815200550387887	
10.485	0.099	0.044657962794317996	
10.49	0.206	0.051202273596701715	
10.495	-0.053	0.05936911337265082	
10.5	0.009	0.06365836879089626	
10.505	0.233	0.06682954241706637	
10.51	-0.015	0.0683582681734745	
10.515	-0.101	0.06280337597476787	
10.52	0.140	0.05359652798300736	
10.525	0.030	0.04135123636141132	
10.53	-0.151	0.026197570331231896	
10.535	-0.015	0.010605320802821165	
10.54	0.061	-0.007818344349175412	
10.545	-0.159	-0.024557997772055556	
10.55	-0.116	-0.038359092368894065	
10.555	0.067	-0.05022782925302908	
10.56	-0.111	-0.060582828223131636	
10.565	-0.165	-0.06616312298221011	
10.57	0.058	-0.06746243699061583	
10.575	-0.031	-0.06563764756426682	
10.58	-0.182	-0.06475408068222094	
10.585	-0.032	-0.06242970841330675	
10.59	0.056	-0.061838246868220384	
10.595	-0.159	-0.0605177544676519	
10.6	-0.107	-0.05836936511333314	
10.605	0.110	-0.056258417108132105	
10.61	-0.085	-0.052556289984425256	
10.615	-0.148	-0.048156431201864344	
10.62	0.090	-0.04249680047021048	
10.625	-0.006	-0.03862817499720017	
10.63	-0.186	-0.036732457615440105	
10.635	-0.066	-0.041458069774613485	
10.64	0.027	-0.05185287187105622	
10.645	-0.102	-0.05948204722158054	
10.65	0.171	-0.04634540582421659	
10.655	0.762	0.018766114040433258	
10.66	1.000	0.16252533454968152	
10.665	1.281	0.3919063638019893	
10.67	1.585	0.6774749651451939	
10.675	1.140	0.9433063669864347	
10.68	0.250	1.0871567411834162	
10.685	-0.029	1.0403704096351925	
10.69	-0.159	0.8240884200183648	
10.695	-0.383	0.5256122560339211	
10.7	-0.354	0.2296530481923699	
10.705	-0.213	-0.016334445395635902	
10.71	-0.300	-0.192435173636006	
10.715	-0.311	-0.2930245822667893	
10.72	-0.130	-0.32959950698059326	
10.725	-0.159	-0.3276513065072854	
10.73	-0.274	-0.3025769180652712	
10.735	-0.134	-0.26449134530386187	
10.74	-0.073	-0.2279833247394043	
10.745	-0.233	-0.19839275532514988	
10.75	-0.172	-0.17329948649568566	
10.755	-0.006	-0.15342475962741037	
10.76	-0.153	-0.13954954706249403	
10.765	-0.197	-0.12800301666609365	
10.77	0.015	-0.11558061425632261	
10.775	-0.052	-0.1057365206136607	
10.78	-0.197	-0.09659594777712871	
10.785	-0.046	-0.088411219575824	
10.79	0.052	-0.08200191760155054	
10.795	-0.146	-0.07445812656741288	
10.8	-0.078	-0.0652325953477485	
10.805	0.140	-0.05338096865316114	
10.81	-0.060	-0.03963421776593723	
10.815	-0.113	-0.026995430608003614	
10.82	0.163	-0.01450012688335578	
10.825	0.082	0.0012117047424983016	
10.83	-0.108	0.015361216029952988	
10.835	0.117	0.027661124426654308	
10.84	0.218	0.041995353271492085	
10.845	-0.038	0.057484311348154925	
10.85	0.059	0.07179945242334916	
10.855	0.302	0.0856388746870353	
10.86	0.068	0.10132980757398789	
10.865	0.001	0.11301370653512631	
10.87	0.300	0.12250990565094058	
10.875	0.203	0.13419424669515823	
10.88	-0.027	0.14437959109877335	
10.885	0.189	0.14665157883910643	
10.89	0.251	0.14595807770250652	
10.895	-0.050	0.14152717309304835	
10.9	0.008	0.1268050801458015	
10.905	0.201	0.10655761651908516	
10.91	-0.067	0.0843784237379164	
10.915	-0.149	0.05708379536466176	
10.92	0.015	0.023392199120170633	
10.925	-0.107	-0.01482208053698762	
10.93	-0.261	-0.05447245545157011	
10.935	-0.154	-0.09141301821184544	
10.94	-0.124	-0.12715144673126932	
10.945	-0.294	-0.16032518503492285	
10.95	-0.253	-0.18514966536329236	
10.955	-0.127	-0.20259423394242987	
10.96	-0.255	-0.21756639454214605	
10.965	-0.303	-0.22579313141762403	
10.97	-0.143	-0.22770859755451742	
10.975	-0.198	-0.22986595988529476	
10.98	-0.310	-0.23036136597282497	
10.985	-0.175	-0.22543126578796713	
10.99	-0.119	-0.2202309649427777	
10.995	-0.267	-0.21427781293067807	
11.0	-0.207	-0.20511692204676768	
11.005	-0.058	-0.19464895077295252	
11.01	-0.204	-0.1865776729880543	
11.015	-0.239	-0.17775824003281382	
11.02	-0.063	-0.1677116462178288	
11.025	-0.120	-0.1618965492379387	
11.03	-0.242	-0.15636296416700857	
11.035	-0.108	-0.14939927539125414	
11.04	-0.040	-0.14423769904809575	
11.045	-0.207	-0.14032313859159778	
11.05	-0.148	-0.13308868620176967	
11.055	0.041	-0.12360037310998648	
11.06	-0.139	-0.1146383873454293	
11.065	-0.178	-0.10478370688088634	
11.07	0.033	-0.09562359429416528	
11.075	-0.037	-0.0869181799088925	
11.08	-0.177	-0.0794491517167269	
11.085	-0.009	-0.07032252091517918	
11.09	0.075	-0.06218828592675933	
11.095	-0.149	-0.05343521199427549	
11.1	-0.090	-0.04707770191692489	
11.105	0.130	-0.041497267781341246	
11.11	-0.081	-0.03571379058745591	
11.115	-0.131	-0.030840934346107837	
11.12	0.111	-0.026514373954476672	
11.125	0.001	-0.022928542181532702	
11.13	-0.154	-0.02055075264636471	
11.135	0.020	-0.02025394774538456	
11.14	0.102	-0.020134000037988427	
11.145	-0.136	-0.0195319204861974	
11.15	-0.075	-0.019067865982559176	
11.155	0.142	-0.019410448614184835	
11.16	-0.066	-0.01877634622474694	
11.165	-0.122	-0.016882218351906085	
11.17	0.120	-0.0144253421766923	
11.175	0.014	-0.011944661139255863	
11.18	-0.157	-0.011627652076890305	
11.185	0.023	-0.01319019892131122	
11.19	0.110	-0.014098458815655633	
11.195	-0.128	-0.014614775949650447	
11.2	-0.056	-0.013049172286265296	
11.205	0.174	-0.011338641000935182	
11.21	-0.038	-0.005835906676844199	
11.215	-0.098	0.0010867668817498167	
11.22	0.165	0.008650586293181372	
11.225	0.065	0.01703827832411202	
11.23	-0.116	0.02331218068384285	
11.235	0.096	0.027863014743360885	
11.24	0.195	0.034926434946555895	
11.245	-0.072	0.0433238873782304	
11.25	0.001	0.049961641534301444	
11.255	0.224	0.0537004464119545	
11.26	-0.026	0.05612609454947591	
11.265	-0.095	0.05306869327830949	
11.27	0.155	0.04668171120357399	
11.275	0.033	0.03903401890508489	
11.28	-0.148	0.02829464129238424	
11.285	0.012	0.015870489017735596	
11.29	0.068	0.0009272550229020549	
11.295	-0.160	-0.01367987686000219	
11.3	-0.108	-0.02803230934381986	
11.305	0.085	-0.040298635765949206	
11.31	-0.116	-0.05087080989401509	
11.315	-0.160	-0.057921275568298326	
11.32	0.065	-0.06031660288616716	
11.325	-0.040	-0.060969071875649386	
11.33	-0.183	-0.06170425863049124	
11.335	-0.017	-0.06112375064761273	
11.34	0.065	-0.0600684959729323	
11.345	-0.159	-0.056686275866683046	
11.35	-0.093	-0.05403682706924464	
11.355	0.119	-0.0502897822644133	
11.36	-0.096	-0.04587126952712682	
11.365	-0.137	-0.04193676532442118	
11.37	0.099	-0.03731562899312196	
11.375	-0.014	-0.033956427290363404	
11.38	-0.188	-0.033715454320085284	
11.385	-0.050	-0.0381406161116304	
11.39	0.055	-0.04805829148115953	
11.395	-0.056	-0.05067029965539624	
11.4	0.291	-0.024015270131924695	
11.405	0.930	0.06277224583292937	
11.41	1.125	0.2362019000086293	
11.415	1.274	0.4860865214828907	
11.42	1.450	0.7626456145007678	
11.425	0.864	0.982956551859748	
11.43	0.032	1.0561573204752315	
11.435	-0.111	0.9437311029139202	
11.44	-0.201	0.6929187462564195	
11.445	-0.390	0.3934114042370396	
11.45	-0.334	0.11997920976689802	
11.455	-0.185	-0.09131851727503286	
11.46	-0.281	-0.23276657363110556	
11.465	-0.285	-0.30384833816085965	
11.47	-0.098	-0.319392393914494	
11.475	-0.148	-0.3049636842084411	
11.48	-0.261	-0.27360196101314294	
11.485	-0.113	-0.23517511708579952	
11.49	-0.049	-0.20015521380652349	
11.495	-0.217	-0.17360121624167207	
11.5	-0.146	-0.14900057017435075	
11.505	0.029	-0.13039873035521232	
11.51	-0.145	-0.11586128622036215	
11.515	-0.185	-0.10483882660913216	
11.52	0.023	-0.0963759274545804	
11.525	-0.061	-0.09102981017371733	
11.53	-0.180	-0.08661687314749053	
11.535	-0.005	-0.0791009223497102	
11.54	0.073	-0.06916585061025438	
11.545	-0.140	-0.05866372360894696	
11.55	-0.063	-0.04794903287082515	
11.555	0.158	-0.03635459793417785	
11.56	-0.063	-0.02393013732576132	
11.565	-0.105	-0.013842415597830478	
11.57	0.180	-0.003303443620995279	
11.575	0.084	0.009942978688602923	
11.58	-0.096	0.024333924590963507	
11.585	0.136	0.036943737399288204	
11.59	0.229	0.05184957912920913	
11.595	-0.023	0.06929573670276723	
11.6	0.094	0.08506022889826528	
11.605	0.340	0.10266594295082022	
11.61	0.099	0.12406004167173294	
11.615	0.026	0.14015375369842864	
11.62	0.325	0.15168214641678612	
11.625	0.206	0.16194475376187026	
11.63	-0.024	0.16836288091023072	
11.635	0.192	0.16490358528431706	
11.64	0.233	0.15681469379026097	
11.645	-0.060	0.14536943203309505	
11.65	-0.002	0.12504731345953565	
11.655	0.166	0.09856169904732191	
11.66	-0.101	0.07013487552848587	
11.665	-0.175	0.036232432616474956	
11.67	-0.021	-0.002457814244437899	
11.675	-0.130	-0.044060150109790204	
11.68	-0.273	-0.08446825764163239	
11.685	-0.160	-0.11817443552421927	
11.69	-0.139	-0.15030121101188454	
11.695	-0.303	-0.17947040539516862	
11.7	-0.252	-0.19891002007049385	
11.705	-0.131	-0.21359748645205326	
11.71	-0.262	-0.22480676852094839	
11.715	-0.294	-0.22964023659096192	
11.72	-0.136	-0.22956176701732903	
11.725	-0.197	-0.2291137968032462	
11.73	-0.308	-0.22735390251173332	
11.735	-0.163	-0.22118563146653955	
11.74	-0.116	-0.21439485744452777	
11.745	-0.267	-0.20942456178890728	
11.75	-0.204	-0.19985959349938154	
11.755	-0.067	-0.190661983244942	
11.76	-0.209	-0.18483212441593738	
11.765	-0.241	-0.17758691740382943	
11.77	-0.056	-0.1695586172459751	
11.775	-0.127	-0.16416487744928673	
11.78	-0.239	-0.15834970708597212	
11.785	-0.085	-0.14913207666972744	
11.79	-0.032	-0.14141602292636485	
11.795	-0.204	-0.1334832477254362	
11.8	-0.131	-0.12480891024446188	
11.805	0.044	-0.1146159723006681	
11.81	-0.136	-0.10591424446866815	
11.815	-0.163	-0.09559319933711874	
11.82	0.052	-0.08646249389179665	
11.825	-0.049	-0.07821520114598973	
11.83	-0.178	-0.07142692842119132	
11.835	-0.002	-0.06503502619853567	
11.84	0.064	-0.059394585012258534	
11.845	-0.148	-0.052596483691433105	
11.85	-0.070	-0.04676183142362977	
11.855	0.140	-0.039530548843074435	
11.86	-0.087	-0.03201361434027811	
11.865	-0.127	-0.026619110003085405	
11.87	0.119	-0.02235201268779363	
11.875	0.006	-0.018255507733515842	
11.88	-0.153	-0.015507292507220084	
11.885	0.040	-0.014951184198382197	
11.89	0.104	-0.014370125248986957	
11.895	-0.128	-0.011686090655603474	
11.9	-0.047	-0.01073072551585194	
11.905	0.163	-0.008470301359285833	
11.91	-0.076	-0.006076964464827861	
11.915	-0.117	-0.004632387455311572	
11.92	0.120	-0.005289073283237019	
11.925	-0.002	-0.006284551666912906	
11.93	-0.143	-0.009543747904101292	
11.935	0.046	-0.010899390490162997	
11.94	0.105	-0.011366310589381541	
11.945	-0.130	-0.009734324367667482	
11.95	-0.047	-0.008705800607769688	
11.955	0.163	-0.007441565649994912	
11.96	-0.070	-0.00511613269920346	
11.965	-0.116	-0.0036341139969810962	
11.97	0.123	-0.0032519721116326217	
11.975	0.008	-0.004305621190830457	
11.98	-0.143	-0.006564908777412536	
11.985	0.047	-0.00786710855715118	
11.99	0.119	-0.007366788613039325	
11.995	-0.111	-0.0047625269787477135	
12.0	-0.023	-0.0006855805719489167	
12.005	0.204	0.00557495717660424	
12.01	-0.029	0.014858454266243314	
12.015	-0.070	0.0243680055774555	
12.02	0.209	0.032769339216083104	
12.025	0.093	0.04368281597968322	
12.03	-0.093	0.05242825322940651	
12.035	0.125	0.058138479340616334	
12.04	0.169	0.061622758646380914	
12.045	-0.101	0.06123930055493038	
12.05	-0.021	0.05531428824576497	
12.055	0.172	0.04555240037027988	
12.06	-0.078	0.03487213067698741	
12.065	-0.127	0.021386439958801066	
12.07	0.105	0.007733037763382704	
12.075	-0.027	-0.006314577750052766	
12.08	-0.177	-0.01952680765826336	
12.085	-0.014	-0.03188994156174926	
12.09	0.038	-0.043402397617127546	
12.095	-0.177	-0.05270414470910403	
12.1	-0.105	-0.05968269274507982	
12.105	0.082	-0.06449906455358051	
12.11	-0.122	-0.06609248881135268	
12.115	-0.157	-0.06657702091722206	
12.12	0.064	-0.06432111334866547	
12.125	-0.046	-0.0633181841095348	
12.13	-0.174	-0.06147272627309578	
12.135	-0.006	-0.05891877715160506	
12.14	0.053	-0.057439137879984226	
12.145	-0.157	-0.05465812696908359	
12.15	-0.075	-0.050675303149985175	
12.155	0.125	-0.046548668649828685	
12.16	-0.110	-0.04107586506749955	
12.165	-0.165	-0.039545254417907925	
12.17	0.011	-0.044366862187916835	
12.175	-0.053	-0.055336028581444915	
12.18	-0.073	-0.060411245450911755	
12.185	0.442	-0.031889860159764465	
12.19	0.913	0.0645846015959591	
12.195	1.085	0.24743834887982558	
12.2	1.463	0.5093648011963863	
12.205	1.579	0.804384073628333	
12.21	0.869	1.0448555388569778	
12.215	0.177	1.1353315872571406	
12.22	0.012	1.0334644187897262	
12.225	-0.233	0.7836662820696401	
12.23	-0.392	0.4756815828849931	
12.235	-0.261	0.18603993588327902	
12.24	-0.212	-0.04648799333268697	
12.245	-0.334	-0.2054708981297046	
12.25	-0.250	-0.2906217397559935	
12.255	-0.117	-0.3206901064470696	
12.26	-0.238	-0.3179999271098761	
12.265	-0.256	-0.29441482196093544	
12.27	-0.087	-0.2604911378983036	
12.275	-0.165	-0.23038572989692435	
12.28	-0.265	-0.20628161508408865	
12.285	-0.108	-0.18496565375039936	
12.29	-0.056	-0.16860039387557904	
12.295	-0.223	-0.1565324651509398	
12.3	-0.153	-0.14459589561528832	
12.305	0.018	-0.13370928559354256	
12.31	-0.148	-0.12406678100434204	
12.315	-0.169	-0.1133991032869715	
12.32	0.055	-0.10143521980140678	
12.325	-0.049	-0.0894241413800426	
12.33	-0.172	-0.07831616649982351	
12.335	0.006	-0.0679003305754434	
12.34	0.068	-0.0575933193534777	
12.345	-0.137	-0.048601108545166485	
12.35	-0.038	-0.03856225500491761	
12.355	0.181	-0.026653272908057288	
12.36	-0.041	-0.011126641159215462	
12.365	-0.064	0.003579192780406474	
12.37	0.219	0.01863153387922125	
12.375	0.108	0.03756310869464433	
12.38	-0.061	0.05563394900037347	
12.385	0.192	0.07113290358337215	
12.39	0.258	0.08843164413713732	
12.395	-0.008	0.10636712363468166	
12.4	0.113	0.12042723346852197	
12.405	0.328	0.13135856752300476	
12.41	0.078	0.14288034038496195	
12.415	0.018	0.14957224461767293	
12.42	0.293	0.14960153764911116	
12.425	0.139	0.14857358699917061	
12.43	-0.076	0.14267341927286525	
12.435	0.122	0.12608236493479524	
12.44	0.133	0.10539131554703593	
12.445	-0.140	0.08045359292870254	
12.45	-0.098	0.049421748044772354	
12.455	0.026	0.012247586851239133	
12.46	-0.191	-0.027046787940261628	
12.465	-0.241	-0.06533573381522588	
12.47	-0.096	-0.10152561798921181	
12.475	-0.192	-0.13744314354200576	
12.48	-0.310	-0.1671674290860795	
12.485	-0.183	-0.1889678002736947	
12.49	-0.163	-0.20672219318117246	
12.495	-0.308	-0.22142492027754246	
12.5	-0.244	-0.22751820572725043	
12.505	-0.124	-0.22987953944809297	
12.51	-0.258	-0.23103202341175635	
12.515	-0.276	-0.22722665024524616	
12.52	-0.111	-0.2205867096555958	
12.525	-0.177	-0.21451406010938978	
12.53	-0.277	-0.2080905544494958	
12.535	-0.133	-0.197943989864642	
12.54	-0.099	-0.18980603505854596	
12.545	-0.250	-0.18342296226112384	
12.55	-0.178	-0.17544962916643578	
12.555	-0.037	-0.16691088354894779	
12.56	-0.185	-0.1600912839198117	
12.565	-0.200	-0.15217819018091655	
12.57	-0.006	-0.14054493626143788	
12.575	-0.105	-0.131580673877451	
12.58	-0.218	-0.12411345924458207	
12.585	-0.052	-0.1168667214230076	
12.59	-0.014	-0.11081523098604848	
12.595	-0.195	-0.10650299329002484	
12.6	-0.110	-0.10040037344031208	
12.605	0.068	-0.09384673969500965	
12.61	-0.130	-0.08617700402993993	
12.615	-0.154	-0.0782011655519719	
12.62	0.072	-0.07144452995906361	
12.625	-0.047	-0.06461607142039422	
12.63	-0.171	-0.060195114270244814	
12.635	0.018	-0.05478050056022396	
12.64	0.056	-0.049781690076111634	
12.645	-0.157	-0.04560985895899416	
12.65	-0.070	-0.042373213408778754	
12.655	0.126	-0.03975898341282745	
12.66	-0.098	-0.035255667361978514	
12.665	-0.125	-0.032240976591553006	
12.67	0.111	-0.02934527518082386	
12.675	-0.020	-0.026634304289071903	
12.68	-0.154	-0.02527950809671978	
12.685	0.035	-0.02471556776932477	
12.69	0.073	-0.024740303141533686	
12.695	-0.145	-0.024694351668967565	
12.7	-0.055	-0.024360414089358406	
12.705	0.139	-0.024686369769181933	
12.71	-0.089	-0.022310922264120455	
12.715	-0.117	-0.020274266046652896	
12.72	0.122	-0.018271909502957664	
12.725	-0.008	-0.016648899067826198	
12.73	-0.148	-0.01634007888156596	
12.735	0.041	-0.015662293229252222	
12.74	0.087	-0.01671599837178732	
12.745	-0.131	-0.015761025654615766	
12.75	-0.043	-0.014338296968282078	
12.755	0.143	-0.013636000478391426	
12.76	-0.087	-0.012369808613044538	
12.765	-0.120	-0.012287236934104863	
12.77	0.136	-0.012203733263775586	
12.775	-0.008	-0.011679810244038948	
12.78	-0.143	-0.011386620757962106	
12.785	0.056	-0.011600349871255182	
12.79	0.088	-0.010709530459285781	
12.795	-0.136	-0.0108263695021052	
12.8	-0.043	-0.010305947826493363	
12.805	0.160	-0.010593007656464048	
12.81	-0.070	-0.007422850758097715	
12.815	-0.101	-0.004291963419572748	
12.82	0.149	-0.0011519116632003295	
12.825	0.004	0.001289985904082847	
12.83	-0.136	0.002583012802465638	
12.835	0.075	0.002445951403487874	
12.84	0.105	0.0032882283741199093	
12.845	-0.131	0.004133690775131121	
12.85	-0.037	0.002720907033571979	
12.855	0.157	0.0004206019399623201	
12.86	-0.064	0.0005439303648354071	
12.865	-0.081	0.0017223852986134123	
12.87	0.194	0.0068708540067741975	
12.875	0.059	0.01726989843665021	
12.88	-0.096	0.027585812475428784	
12.885	0.128	0.036455814318650054	
12.89	0.157	0.044270443999359727	
12.895	-0.093	0.05014285128973352	
12.9	0.032	0.05172909998737533	
12.905	0.229	0.053395803743416514	
12.91	-0.032	0.056560523670598065	
12.915	-0.075	0.05673678994770426	
12.92	0.169	0.05081714116872264	
12.925	0.012	0.044276592876125107	
12.93	-0.142	0.03364558506584002	
12.935	0.049	0.020403108273618246	
12.94	0.059	0.007233508390512278	
12.945	-0.162	-0.006764349616223728	
12.95	-0.085	-0.020284231268676522	
12.955	0.073	-0.03470085594921954	
12.96	-0.139	-0.04736298593198285	
12.965	-0.163	-0.05719855355602188	
12.97	0.037	-0.0652926874912973	
12.975	-0.085	-0.07371803909600905	
12.98	-0.195	-0.08024162185141079	
12.985	-0.024	-0.0826592426428598	
12.99	0.014	-0.08383455618122271	
12.995	-0.180	-0.08366539746376705	
13.0	-0.096	-0.08027197965118202	
13.005	0.076	-0.0757956916806388	
13.01	-0.127	-0.07232529623031536	
13.015	-0.148	-0.0671379342200432	
13.02	0.087	-0.06235946247110637	
13.025	-0.043	-0.05673582658676923	
13.03	-0.177	-0.053176916311966374	
13.035	-0.031	-0.05268869543961369	
13.04	-0.038	-0.05989042980250665	
13.045	-0.201	-0.0716189006501563	
13.05	-0.024	-0.07824322561665387	
13.055	0.421	-0.05882090185340508	
13.06	0.535	0.016743379882775487	
13.065	0.962	0.16696475895455393	
13.07	1.642	0.40564070015541365	
13.075	1.541	0.7072685811783469	
13.08	1.032	0.9898152675455599	
13.085	0.660	1.151118589974943	
13.09	0.140	1.1289369457260667	
13.095	-0.293	0.9334281165672682	
13.1	-0.305	0.6387458473589054	
13.105	-0.221	0.3250695385426997	
13.11	-0.339	0.05181185938336322	
13.115	-0.331	-0.14396518090643193	
13.12	-0.159	-0.2614826847532348	
13.125	-0.227	-0.3197418699931647	
13.13	-0.313	-0.33198606880726367	
13.135	-0.166	-0.31674781088319126	
13.14	-0.137	-0.290014478479746	
13.145	-0.274	-0.26248128429455536	
13.15	-0.192	-0.23320948115406104	
13.155	-0.058	-0.20800909372548265	
13.16	-0.206	-0.18927508110821517	
13.165	-0.210	-0.17197203768177394	
13.17	-0.021	-0.15649586275154376	
13.175	-0.117	-0.14482155294957633	
13.18	-0.217	-0.13501170792588157	
13.185	-0.046	-0.12468665589864444	
13.19	-0.008	-0.11502989229678587	
13.195	-0.182	-0.10654913605543144	
13.2	-0.093	-0.09615459160582793	
13.205	0.088	-0.08495421135658768	
13.21	-0.114	-0.07435878582559548	
13.215	-0.130	-0.06298071574302938	
13.22	0.133	-0.05139631298961972	
13.225	0.008	-0.03786346875431609	
13.23	-0.130	-0.024087141936809796	
13.235	0.102	-0.010598895135111482	
13.24	0.160	0.003995819634836969	
13.245	-0.072	0.020350808565601366	
13.25	0.078	0.03788161818473529	
13.255	0.287	0.05712215187626861	
13.26	0.046	0.07956335187995173	
13.265	0.029	0.09899359336547872	
13.27	0.325	0.11568366337069355	
13.275	0.177	0.13410897255711177	
13.28	-0.006	0.1488588379957203	
13.285	0.259	0.15644561474081875	
13.29	0.268	0.163004005987273	
13.295	-0.017	0.16631304563771782	
13.3	0.113	0.1608860063413451	
13.305	0.268	0.15212253968867534	
13.31	-0.032	0.13956424609617057	
13.315	-0.082	0.11699819178073298	
13.32	0.120	0.08664526868850474	
13.325	-0.078	0.05212127301463085	
13.33	-0.220	0.012910861568550706	
13.335	-0.085	-0.028608164880026633	
13.34	-0.107	-0.07102152404622908	
13.345	-0.282	-0.11059282635781398	
13.35	-0.217	-0.14312733719058368	
13.355	-0.124	-0.17095472530389808	
13.36	-0.279	-0.19536069178730397	
13.365	-0.297	-0.21194837925154567	
13.37	-0.140	-0.2224346668491625	
13.375	-0.227	-0.23187251168142484	
13.38	-0.319	-0.23601363585216195	
13.385	-0.171	-0.23463831720442369	
13.39	-0.154	-0.23206446270224085	
13.395	-0.299	-0.22955848296722375	
13.4	-0.210	-0.22211149242570208	
13.405	-0.087	-0.21498486658209762	
13.41	-0.233	-0.2073755914908783	
13.415	-0.238	-0.19792877185729119	
13.42	-0.069	-0.1874216947438444	
13.425	-0.154	-0.17990654622099622	
13.43	-0.244	-0.17202963545300545	
13.435	-0.082	-0.1615897681275532	
13.44	-0.058	-0.15307105389509162	
13.445	-0.220	-0.14462124690803357	
13.45	-0.128	-0.1350690964724111	
13.455	0.026	-0.1259358517569081	
13.46	-0.163	-0.11745810096531033	
13.465	-0.168	-0.10793630559756438	
13.47	0.052	-0.09932346556794808	
13.475	-0.076	-0.09095901029862757	
13.48	-0.182	-0.08310432960502376	
13.485	0.004	-0.07648912487348669	
13.49	0.023	-0.07005757228407222	
13.495	-0.169	-0.06473419854815526	
13.5	-0.069	-0.060013321592173985	
13.505	0.101	-0.055857592034566	
13.51	-0.127	-0.051562742685222186	
13.515	-0.133	-0.04794964252450416	
13.52	0.113	-0.045212828206108724	
13.525	-0.038	-0.04101286248679603	
13.53	-0.157	-0.03717661483420878	
13.535	0.043	-0.034392756114321646	
13.54	0.047	-0.03304930946270453	
13.545	-0.160	-0.03283307382585497	
13.55	-0.055	-0.032958641213168424	
13.555	0.119	-0.03379589390834724	
13.56	-0.101	-0.032653513095163955	
13.565	-0.114	-0.030948400594968516	
13.57	0.120	-0.028122846919139806	
13.575	-0.034	-0.025072593506880788	
13.58	-0.156	-0.024230175796017255	
13.585	0.053	-0.02430146746677561	
13.59	0.073	-0.024050524270482362	
13.595	-0.145	-0.021916491105246075	
13.6	-0.038	-0.020905000416897933	
13.605	0.136	-0.019751013046895187	
13.61	-0.098	-0.017732620488156145	
13.615	-0.111	-0.016943538619612702	
13.62	0.137	-0.016055191735254118	
13.625	-0.020	-0.014117872546739952	
13.63	-0.143	-0.01326052903028438	
13.635	0.061	-0.013241467728821907	
13.64	0.075	-0.013062972778332325	
13.645	-0.137	-0.012963408326132634	
13.65	-0.026	-0.01286409396002864	
13.655	0.151	-0.011733276463610349	
13.66	-0.085	-0.008777727719620236	
13.665	-0.098	-0.005929794249025575	
13.67	0.137	-0.00502642137844396	
13.675	-0.020	-0.004152148189091405	
13.68	-0.139	-0.006264604825947637	
13.685	0.081	-0.0062059517089493015	
13.69	0.093	-0.005078608846198162	
13.695	-0.134	-0.003984552266612257	
13.7	-0.032	-0.0028394996901351566	
13.705	0.139	-0.004733374980739321	
13.71	-0.095	-0.005803395107693424	
13.715	-0.101	-0.007914007564745014	
13.72	0.149	-0.008008187837262502	
13.725	-0.017	-0.007172614888275242	
13.73	-0.142	-0.007268748872437015	
13.735	0.068	-0.00718736578104328	
13.74	0.082	-0.008088580744445129	
13.745	-0.134	-0.007995914545641806	
13.75	-0.021	-0.006819508884695815	
13.755	0.160	-0.005731311899174499	
13.76	-0.081	-0.0028217127320260623	
13.765	-0.089	9.629289601336648e-05	
13.77	0.169	0.003001223966970912	
13.775	0.018	0.007809783970149748	
13.78	-0.104	0.01273713102806534	
13.785	0.133	0.018829369400243243	
13.79	0.148	0.02789596780642541	
13.795	-0.092	0.037001502939993235	
13.8	0.049	0.0441929834374893	
13.805	0.230	0.05025386817401761	
13.81	-0.043	0.057179528660249786	
13.815	-0.060	0.05910933889255057	
13.82	0.186	0.055972146794430494	
13.825	0.008	0.04980814146210136	
13.83	-0.128	0.04077337245421542	
13.835	0.078	0.029797538446917436	
13.84	0.072	0.017867126889511416	
13.845	-0.153	0.00706006114618328	
13.85	-0.053	-0.004808492914919178	
13.855	0.099	-0.01681257260244219	
13.86	-0.137	-0.02777538862160558	
13.865	-0.148	-0.03783770543585121	
13.87	0.062	-0.0470994781094805	
13.875	-0.089	-0.05719917366266424	
13.88	-0.191	-0.06514243369287726	
13.885	0.009	-0.07023670662036272	
13.89	0.018	-0.07219195467473757	
13.895	-0.175	-0.07086714717876359	
13.9	-0.075	-0.06778851942939526	
13.905	0.085	-0.06389474485001853	
13.91	-0.122	-0.06074939749759409	
13.915	-0.120	-0.055773258365765827	
13.92	0.122	-0.048157565804487226	
13.925	-0.047	-0.041226135630204996	
13.93	-0.159	-0.0360781673818313	
13.935	0.030	-0.033257310766620696	
13.94	-0.011	-0.036251109963265256	
13.945	-0.212	-0.04582996475136751	
13.95	-0.093	-0.057764759091986494	
13.955	0.224	-0.06092896110303912	
13.96	0.229	-0.03270711366398832	
13.965	0.631	0.05231504408353179	
13.97	1.398	0.22387427228268608	
13.975	1.549	0.48781804770635434	
13.98	1.340	0.7969530322240207	
13.985	1.204	1.0606133127358626	
13.99	0.534	1.1865789607368713	
13.995	-0.168	1.1221208356501562	
14.0	-0.246	0.8891720950184121	
14.005	-0.218	0.5700021755095526	
14.01	-0.364	0.2513769956988353	
14.015	-0.346	-0.005647630804718687	
14.02	-0.177	-0.18325195026083158	
14.025	-0.247	-0.28917970912575713	
14.03	-0.322	-0.3329104647436	
14.035	-0.159	-0.3333412493616461	
14.04	-0.145	-0.31333057788937835	
14.045	-0.282	-0.28467355040035486	
14.05	-0.183	-0.2507692315652738	
14.055	-0.070	-0.22109662058617052	
14.06	-0.221	-0.1986594090276857	
14.065	-0.213	-0.17964405207141793	
14.07	-0.020	-0.16332342870578398	
14.075	-0.127	-0.15025650049832964	
14.08	-0.212	-0.13890552750207857	
14.085	-0.038	-0.12632145393870603	
14.09	-0.027	-0.11636940895643041	
14.095	-0.191	-0.10869993038298115	
14.1	-0.081	-0.09872081145481834	
14.105	0.075	-0.08907818156216014	
14.11	-0.128	-0.07871344587846957	
14.115	-0.116	-0.06763099748109844	
14.12	0.133	-0.05526209579064056	
14.125	-0.021	-0.04129831304055017	
14.13	-0.125	-0.027947438539269863	
14.135	0.122	-0.015253818906144084	
14.14	0.139	0.0006402862032804585	
14.145	-0.078	0.018234185411289388	
14.15	0.088	0.03530667221396454	
14.155	0.271	0.05396540176087061	
14.16	0.012	0.07424084456979907	
14.165	0.047	0.09235442321773775	
14.17	0.341	0.10977669066064492	
14.175	0.171	0.13069651714294192	
14.18	0.003	0.1490301503673069	
14.185	0.283	0.1597439387732974	
14.19	0.285	0.16964437853049583	
14.195	-0.006	0.17724858855370385	
14.2	0.152	0.17628449960205883	
14.205	0.293	0.17092994119640498	
14.21	-0.006	0.16129001358771955	
14.215	-0.027	0.1443684996762713	
14.22	0.190	0.11968525219398003	
14.225	-0.034	0.09272597198328329	
14.23	-0.175	0.060123571034352556	
14.235	-0.037	0.020646247280754895	
14.24	-0.087	-0.022406638373385867	
14.245	-0.264	-0.066604165372522	
14.25	-0.192	-0.1047346527043569	
14.255	-0.122	-0.14019935437089814	
14.26	-0.285	-0.17259988726434775	
14.265	-0.288	-0.19754714714510302	
14.27	-0.143	-0.2144503230204672	
14.275	-0.242	-0.22926408507374846	
14.28	-0.323	-0.23774408778252443	
14.285	-0.177	-0.23941631065352106	
14.29	-0.174	-0.24047827084787818	
14.295	-0.313	-0.23951522605523276	
14.3	-0.217	-0.23371980160037717	
14.305	-0.113	-0.22828075430306496	
14.31	-0.256	-0.2225829082197469	
14.315	-0.242	-0.2144950653040562	
14.32	-0.075	-0.20348721076251206	
14.325	-0.172	-0.19430111824598165	
14.33	-0.259	-0.18571143298060225	
14.335	-0.093	-0.1753975204271706	
14.34	-0.098	-0.1675165071105074	
14.345	-0.244	-0.16253194346127878	
14.35	-0.133	-0.15467860676438092	
14.355	-0.014	-0.14727220970928406	
14.36	-0.194	-0.14063582873160543	
14.365	-0.175	-0.13248719554360158	
14.37	0.027	-0.12342737373682124	
14.375	-0.114	-0.11534095451222202	
14.38	-0.201	-0.1077617496053617	
14.385	-0.020	-0.10132408565595452	
14.39	-0.026	-0.0975037762883274	
14.395	-0.191	-0.09362083990473657	
14.4	-0.078	-0.08863558475704139	
14.405	0.062	-0.08420348207997949	
14.41	-0.143	-0.07772527962495847	
14.415	-0.136	-0.07250189194892531	
14.42	0.087	-0.06632675730884557	
14.425	-0.072	-0.06139139290267049	
14.43	-0.175	-0.057832797448351785	
14.435	0.020	-0.05622857889448401	
14.44	0.020	-0.055491602621747904	
14.445	-0.172	-0.05472249891905141	
14.45	-0.061	-0.053584986202748756	
14.455	0.091	-0.053136044752904496	
14.46	-0.133	-0.051817831542419736	
14.465	-0.120	-0.04950925001679744	
14.47	0.114	-0.0462278691142172	
14.475	-0.060	-0.042445157153203183	
14.48	-0.160	-0.0398966418527098	
14.485	0.053	-0.03813331687451012	
14.49	0.044	-0.0364865180572118	
14.495	-0.154	-0.033819400928122086	
14.5	-0.034	-0.031529268769311836	
14.505	0.111	-0.030076287992757442	
14.51	-0.120	-0.0289118922352633	
14.515	-0.110	-0.028511458059893233	
14.52	0.133	-0.028136265675589557	
14.525	-0.043	-0.025498581701762196	
14.53	-0.154	-0.0239493748534778	
14.535	0.056	-0.02405072735506906	
14.54	0.046	-0.025491336128090385	
14.545	-0.146	-0.02589481797939735	
14.55	-0.024	-0.025473912838506325	
14.555	0.120	-0.024037485595717042	
14.56	-0.113	-0.022988924033419303	
14.565	-0.102	-0.02149884999749837	
14.57	0.134	-0.021070421840917952	
14.575	-0.041	-0.01955560511085252	
14.58	-0.136	-0.01897747716199335	
14.585	0.087	-0.016971980609933657	
14.59	0.064	-0.013508100267452718	
14.595	-0.143	-0.010963274857636483	
14.6	-0.014	-0.010422492193277656	
14.605	0.137	-0.010004651256501983	
14.61	-0.111	-0.009054743812119815	
14.615	-0.090	-0.009491918319652284	
14.62	0.163	-0.009014967561558777	
14.625	-0.029	-0.006589189611157181	
14.63	-0.137	-0.005007056202033807	
14.635	0.099	-0.0039317734228650186	
14.64	0.085	-0.002506107260161968	
14.645	-0.120	0.0010075066482398082	
14.65	0.049	0.0065976320171342966	
14.655	0.207	0.016012328976584486	
14.66	-0.061	0.02792422330699316	
14.665	-0.041	0.036503836086880403	
14.67	0.238	0.04299439957472548	
14.675	0.050	0.05141048662293046	
14.68	-0.085	0.0589943117633863	
14.685	0.157	0.062056007993078866	
14.69	0.117	0.061484916715440895	
14.695	-0.119	0.05802959500011908	
14.7	0.012	0.04958471143879491	
14.705	0.155	0.03797322736783632	
14.71	-0.110	0.02696234452238589	
14.715	-0.110	0.014534978050871223	
14.72	0.102	-7.182286416946107e-05	
14.725	-0.081	-0.015590944999043262	
14.73	-0.183	-0.030927486220810395	
14.735	0.001	-0.04498159697159933	
14.74	-0.024	-0.058570368609774714	
14.745	-0.192	-0.07088979676029339	
14.75	-0.075	-0.07639104476049373	
14.755	0.056	-0.0791095036373545	
14.76	-0.159	-0.08001288194476175	
14.765	-0.143	-0.0783969949746448	
14.77	0.081	-0.07512413892168471	
14.775	-0.081	-0.07162361691096475	
14.78	-0.169	-0.06686424240954243	
14.785	0.043	-0.06198320265587836	
14.79	0.015	-0.05662754839198373	
14.795	-0.168	-0.052864750515524875	
14.8	-0.047	-0.0493596949684922	
14.805	0.088	-0.04715646688624202	
14.81	-0.151	-0.0470221775628888	
14.815	-0.162	-0.049354066292740285	
14.82	0.072	-0.05514709781412189	
14.825	0.032	-0.05665006055882267	
14.83	0.133	-0.032793864963427725	
14.835	0.780	0.04208012499909747	
14.84	1.209	0.19938745873262034	
14.845	1.265	0.44120249355523417	
14.85	1.409	0.7246651826466417	
14.855	1.151	0.971703851264807	
14.86	0.223	1.0868368797716106	
14.865	-0.159	1.014581096730097	
14.87	-0.168	0.7847708692577966	
14.875	-0.332	0.4803547555966498	
14.88	-0.407	0.18529283948638256	
14.885	-0.235	-0.04997314665919433	
14.89	-0.218	-0.21268536617755912	
14.895	-0.325	-0.3037160996421041	
14.9	-0.201	-0.3332983685838826	
14.905	-0.098	-0.3252922828913798	
14.91	-0.238	-0.29796742082518834	
14.915	-0.206	-0.2602293210544655	
14.92	-0.031	-0.22027299725558613	
14.925	-0.149	-0.18771104808531253	
14.93	-0.224	-0.16167650422233065	
14.935	-0.047	-0.1410190144035448	
14.94	-0.058	-0.12779990533459124	
14.945	-0.207	-0.11973560756320561	
14.95	-0.082	-0.11026545610638916	
14.955	0.052	-0.10133118540124736	
14.96	-0.145	-0.09201238092070507	
14.965	-0.119	-0.08018511502571339	
14.97	0.111	-0.06824176124105967	
14.975	-0.067	-0.056765596597210935	
14.98	-0.149	-0.04767746852978072	
14.985	0.090	-0.0389507345772728	
14.99	0.065	-0.028823092351000206	
14.995	-0.125	-0.018786432448724064	
15.0	0.040	-0.008212962933811158	
15.005	0.200	0.0046914894003801414	
15.01	-0.049	0.019927291666156623	
15.015	0.000	0.03482524860000745	
15.02	0.277	0.049804872309642	
15.025	0.081	0.06920591835347753	
15.03	-0.040	0.08530289607015613	
15.035	0.248	0.09707248248552258	
15.04	0.230	0.11017475076137614	
15.045	-0.014	0.12421064738957907	
15.05	0.183	0.13478472911823053	
15.055	0.325	0.14567186773081486	
15.06	0.037	0.15595197233439967	
15.065	0.055	0.15883248157211532	
15.07	0.297	0.1557408757496121	
15.075	0.079	0.15023122190380223	
15.08	-0.067	0.13936892424721084	
15.085	0.157	0.12098851379199668	
15.09	0.070	0.09813992999681997	
15.095	-0.159	0.07032634522693033	
15.1	-0.064	0.03874474095270987	
15.105	-0.006	0.0005594556221164579	
15.11	-0.218	-0.03893667742011785	
15.115	-0.221	-0.0761022744760687	
15.12	-0.089	-0.11139979842658705	
15.125	-0.224	-0.14474611769639564	
15.13	-0.306	-0.17248880683131468	
15.135	-0.162	-0.19209125715351535	
15.14	-0.186	-0.20993978882083017	
15.145	-0.322	-0.22354677284026744	
15.15	-0.220	-0.22922999595177246	
15.155	-0.134	-0.23255465337873013	
15.16	-0.282	-0.23390042434037134	
15.165	-0.253	-0.2290141885329758	
15.17	-0.096	-0.22146751106655446	
15.175	-0.207	-0.21580130623181965	
15.18	-0.271	-0.2074140668730196	
15.185	-0.105	-0.19707215902172281	
15.19	-0.125	-0.19002554542861244	
15.195	-0.261	-0.18354428766554298	
15.2	-0.142	-0.17414657163021643	
15.205	-0.037	-0.16559459072126823	
15.21	-0.204	-0.15798124404237218	
15.215	-0.172	-0.14793744560304956	
15.22	0.011	-0.1364154777191388	
15.225	-0.142	-0.12691481483904749	
15.23	-0.212	-0.12041884454518141	
15.235	-0.006	-0.1139503457763289	
15.24	-0.037	-0.10708238459112873	
15.245	-0.195	-0.10063929234901736	
15.25	-0.066	-0.09403834015764581	
15.255	0.056	-0.0865572360181768	
15.26	-0.146	-0.07910937050877029	
15.265	-0.110	-0.07090498732275874	
15.27	0.119	-0.061307305927292194	
15.275	-0.066	-0.0510039463657396	
15.28	-0.145	-0.042471806862156986	
15.285	0.087	-0.03483446545753882	
15.29	0.035	-0.028099245698194376	
15.295	-0.149	-0.02274424831726723	
15.3	-0.002	-0.019964590323423556	
15.305	0.122	-0.017500956665600156	
15.31	-0.117	-0.015213214326849382	
15.315	-0.090	-0.013900061435165745	
15.32	0.142	-0.01421590220341698	
15.325	-0.050	-0.014064497042752082	
15.33	-0.136	-0.014519232745087405	
15.335	0.096	-0.013745358381805977	
15.34	0.040	-0.013106878159778089	
15.345	-0.153	-0.013824256191846691	
15.35	-0.009	-0.014907243703377867	
15.355	0.125	-0.01645669759501415	
15.36	-0.117	-0.01629424200630754	
15.365	-0.084	-0.015891425621405483	
15.37	0.146	-0.015139407425898213	
15.375	-0.053	-0.014118812291494523	
15.38	-0.136	-0.013562248519134755	
15.385	0.102	-0.012666793648739872	
15.39	0.058	-0.011111716712756988	
15.395	-0.136	-0.007894255782204849	
15.4	0.009	-0.005857347745882733	
15.405	0.133	-0.004422982934827789	
15.41	-0.107	-0.0033665408557199987	
15.415	-0.073	-0.002879103315935939	
15.42	0.163	-0.002077692206760528	
15.425	-0.040	-0.00016883662488988081	
15.43	-0.122	0.00041041635482854397	
15.435	0.119	0.00039574169439401144	
15.44	0.065	0.0028753294907132338	
15.445	-0.127	0.005057378254227798	
15.45	0.053	0.008183367367676539	
15.455	0.200	0.014601480043415325	
15.46	-0.060	0.02559365826948071	
15.465	-0.024	0.03512260713900429	
15.47	0.226	0.042945173887196944	
15.475	0.018	0.049816651869908926	
15.48	-0.072	0.05540555900764189	
15.485	0.198	0.05840242362745608	
15.49	0.125	0.06386978757913862	
15.495	-0.107	0.06606386864171498	
15.5	0.052	0.06217229976253588	
15.505	0.165	0.05457613482295547	
15.51	-0.105	0.04562224784332006	
15.515	-0.075	0.03413514651322345	
15.52	0.142	0.020895954102909745	
15.525	-0.076	0.006836611372465052	
15.53	-0.162	-0.0065438108553199995	
15.535	0.041	-0.02165454714966156	
15.54	-0.015	-0.035153051792295956	
15.545	-0.183	-0.04785156108644085	
15.55	-0.050	-0.05584018284842167	
15.555	0.055	-0.06149336596490047	
15.56	-0.154	-0.06531806762711338	
15.565	-0.122	-0.06582418207136714	
15.57	0.081	-0.06518052350743327	
15.575	-0.099	-0.06415731242062793	
15.58	-0.165	-0.06347488303560446	
15.585	0.055	-0.06069741116565964	
15.59	0.008	-0.05718960779256234	
15.595	-0.165	-0.052793427132646356	
15.6	-0.024	-0.047845713432197165	
15.605	0.090	-0.044549016615954035	
15.61	-0.142	-0.041285226783036144	
15.615	-0.119	-0.039796159325094296	
15.62	0.043	-0.044237960378602344	
15.625	-0.120	-0.054162814638508784	
15.63	-0.122	-0.06141434419870038	
15.635	0.348	-0.047697358867421734	
15.64	0.601	0.015819081294305495	
15.645	0.802	0.14931017236818409	
15.65	1.416	0.36320871825758827	
15.655	1.620	0.6414172461341038	
15.66	1.091	0.9176973572120158	
15.665	0.540	1.0910963942956462	
15.67	0.215	1.0885541214282286	
15.675	-0.230	0.9118030876367266	
15.68	-0.378	0.6296653883569872	
15.685	-0.250	0.32522694260519985	
15.69	-0.268	0.05576596906422021	
15.695	-0.358	-0.1425792059568679	
15.7	-0.215	-0.260800334375633	
15.705	-0.134	-0.3156941156563586	
15.71	-0.276	-0.32618351473263185	
15.715	-0.230	-0.3076642253802253	
15.72	-0.073	-0.2753852037502289	
15.725	-0.195	-0.24320108127980755	
15.73	-0.246	-0.2142568572265437	
15.735	-0.058	-0.18677932051746907	
15.74	-0.093	-0.1663665076792597	
15.745	-0.226	-0.15062979750733024	
15.75	-0.087	-0.13576347539118663	
15.755	0.021	-0.12274836084899766	
15.76	-0.175	-0.11126334780099109	
15.765	-0.125	-0.09961489433103037	
15.77	0.090	-0.08734114165062784	
15.775	-0.084	-0.07527466786916841	
15.78	-0.148	-0.0642630327728567	
15.785	0.084	-0.052693997170248155	
15.79	0.020	-0.042398491819242476	
15.795	-0.148	-0.03369579728072862	
15.8	0.023	-0.026694010568316235	
15.805	0.152	-0.01771762061045918	
15.81	-0.082	-0.006342626706803018	
15.815	-0.023	0.005401755978233151	
15.82	0.245	0.01872488370275918	
15.825	0.050	0.03767916647253828	
15.83	-0.038	0.05570806063592896	
15.835	0.261	0.07235754521208101	
15.84	0.209	0.0925987985871155	
15.845	-0.012	0.11327637714830632	
15.85	0.213	0.12931794886784811	
15.855	0.326	0.1452798608542572	
15.86	0.038	0.16065920270064427	
15.865	0.088	0.1684027133427956	
15.87	0.340	0.1696837985396922	
15.875	0.102	0.17069831360607216	
15.88	-0.017	0.1657546829128672	
15.885	0.239	0.1542832857492295	
15.89	0.119	0.14057605871891343	
15.895	-0.124	0.12038115967890145	
15.9	-0.003	0.09126409873065933	
15.905	0.037	0.053175115943844456	
15.91	-0.200	0.011785683831110554	
15.915	-0.183	-0.02954890232425155	
15.92	-0.055	-0.06947367829459715	
15.925	-0.217	-0.10824933558288237	
15.93	-0.294	-0.14209988983137195	
15.935	-0.151	-0.16883853669344442	
15.94	-0.201	-0.19448602002584667	
15.945	-0.328	-0.21445197799008206	
15.95	-0.215	-0.22574443114942108	
15.955	-0.156	-0.23395456632106781	
15.96	-0.305	-0.240131421543162	
15.965	-0.264	-0.24047063445907033	
15.97	-0.119	-0.2365795734409546	
15.975	-0.230	-0.23326807958719462	
15.98	-0.277	-0.22600571253214008	
15.985	-0.114	-0.21486449751071046	
15.99	-0.151	-0.20656042160287452	
15.995	-0.277	-0.1994135466001213	
16.0	-0.151	-0.1907012084943856	
16.005	-0.076	-0.18300645154835404	
16.01	-0.236	-0.17816328753300317	
16.015	-0.186	-0.16941512110894363	
16.02	-0.020	-0.1605640950141617	
16.025	-0.163	-0.15233827545277545	
16.03	-0.213	-0.1440005248442921	
16.035	-0.023	-0.13478894703731797	
16.04	-0.075	-0.1276038018798018	
16.045	-0.210	-0.12047638136920374	
16.05	-0.066	-0.11261663375565285	
16.055	0.026	-0.1049830290333055	
16.06	-0.171	-0.09726900905142802	
16.065	-0.124	-0.0893790489824961	
16.07	0.090	-0.0804739531761523	
16.075	-0.096	-0.07243047740097858	
16.08	-0.157	-0.06403947116017022	
16.085	0.073	-0.05667031871996299	
16.09	0.001	-0.04963568045724345	
16.095	-0.162	-0.044579631005319184	
16.1	-0.006	-0.039523609302494184	
16.105	0.097	-0.03593587106366201	
16.11	-0.137	-0.03239267864224136	
16.115	-0.085	-0.030353381152468526	
16.12	0.137	-0.028366914698376027	
16.125	-0.072	-0.025520286125411594	
16.13	-0.136	-0.02308988921461634	
16.135	0.101	-0.02255272064032821	
16.14	0.020	-0.020657778510454493	
16.145	-0.154	-0.019676768542406374	
16.15	0.011	-0.019442808572472006	
16.155	0.116	-0.01889331368112892	
16.16	-0.124	-0.017491909384391692	
16.165	-0.075	-0.015329063422896212	
16.17	0.142	-0.015290699454134861	
16.175	-0.070	-0.014594373185606416	
16.18	-0.131	-0.015113917422236327	
16.185	0.119	-0.015464815064297768	
16.19	0.027	-0.012688809869696106	
16.195	-0.151	-0.011739382798576291	
16.2	0.020	-0.011376022991051865	
16.205	0.113	-0.011878018497554689	
16.21	-0.127	-0.011563678082796505	
16.215	-0.066	-0.01229974823124957	
16.22	0.160	-0.011241419505059566	
16.225	-0.060	-0.008644877942311894	
16.23	-0.131	-0.008128584797659898	
16.235	0.116	-0.007417425233484826	
16.24	0.030	-0.007704177956877603	
16.245	-0.145	-0.007770733242206077	
16.25	0.027	-0.007343539566311225	
16.255	0.122	-0.007867819117367426	
16.26	-0.116	-0.0065976779548930446	
16.265	-0.056	-0.005287894503131999	
16.27	0.166	-0.003218078020173673	
16.275	-0.053	-0.0006721535075938513	
16.28	-0.119	0.0008668194474528204	
16.285	0.120	0.0006116261746558135	
16.29	0.032	0.00027927299319531614	
16.295	-0.137	-0.0007876093253220386	
16.3	0.055	-0.0003145172544200943	
16.305	0.161	0.0031329107284292315	
16.31	-0.096	0.00937947865358401	
16.315	-0.020	0.016726514940197314	
16.32	0.227	0.02379065628958605	
16.325	-0.006	0.03331117703276339	
16.33	-0.073	0.04187458222843081	
16.335	0.187	0.046616583344560036	
16.34	0.110	0.05226354011362774	
16.345	-0.090	0.057227092172658846	
16.35	0.099	0.059687974071510726	
16.355	0.171	0.060096403419938986	
16.36	-0.098	0.057396474866369895	
16.365	-0.046	0.049752081532250206	
16.37	0.160	0.0377393948702673	
16.375	-0.069	0.02631325344538108	
16.38	-0.139	0.012936811345843506	
16.385	0.073	-0.0014284969957210495	
16.39	-0.037	-0.016777521596643027	
16.395	-0.194	-0.03269458792213511	
16.4	-0.055	-0.04831640796296895	
16.405	0.021	-0.06197929791663687	
16.41	-0.174	-0.07353942912745101	
16.415	-0.120	-0.07919476126055638	
16.42	0.072	-0.08034569252457024	
16.425	-0.122	-0.07968226412330084	
16.43	-0.174	-0.07798171751652819	
16.435	0.033	-0.07547897898216474	
16.44	-0.046	-0.0748240023057331	
16.445	-0.186	-0.07462189859713635	
16.45	-0.043	-0.07331443919567378	
16.455	0.044	-0.07204720014074276	
16.46	-0.159	-0.0705085124481919	
16.465	-0.102	-0.0671559903439033	
16.47	0.094	-0.062398245452010635	
16.475	-0.128	-0.05969395075799539	
16.48	-0.203	-0.060936555746147286	
16.485	0.009	-0.0675004888326961	
16.49	0.082	-0.07085000818028764	
16.495	0.130	-0.04755193826446621	
16.5	0.755	0.03175520837047297	
16.505	1.319	0.19897579805502177	
16.51	1.364	0.45655361320714616	
16.515	1.418	0.7578625889207324	
16.52	1.247	1.0204648838793866	
16.525	0.357	1.1491631369266258	
16.53	-0.163	1.085995384253414	
16.535	-0.172	0.8554131689457556	
16.54	-0.293	0.5401397763391416	
16.545	-0.412	0.22853698204406486	
16.55	-0.274	-0.022283071952773036	
16.555	-0.203	-0.19811574995446582	
16.56	-0.326	-0.3013801267018002	
16.565	-0.259	-0.34107115865386206	
16.57	-0.119	-0.339522818319453	
16.575	-0.242	-0.3186714126649469	
16.58	-0.274	-0.2878056167574213	
16.585	-0.104	-0.253589641847031	
16.59	-0.149	-0.22593372387944233	
16.595	-0.258	-0.2034626688229759	
16.6	-0.120	-0.18330659749266137	
16.605	-0.063	-0.16820626940744554	
16.61	-0.220	-0.15743549666631684	
16.615	-0.159	-0.14705248357436052	
16.62	0.014	-0.13652146351334865	
16.625	-0.146	-0.1277237190556122	
16.63	-0.178	-0.1178028180423322	
16.635	0.049	-0.10552818086439306	
16.64	-0.031	-0.09195604989780301	
16.645	-0.172	-0.07951408257001208	
16.65	0.003	-0.06725075646146658	
16.655	0.090	-0.05517365803339491	
16.66	-0.130	-0.04350734261552723	
16.665	-0.055	-0.03304722452037898	
16.67	0.175	-0.022450738228699887	
16.675	-0.035	-0.009764527752878413	
16.68	-0.075	0.0031511616258008053	
16.685	0.213	0.016533374603331888	
16.69	0.133	0.035056384684915044	
16.695	-0.055	0.055430289028249285	
16.7	0.194	0.07376616644415893	
16.705	0.285	0.0948631858888299	
16.71	-0.002	0.11546703590014713	
16.715	0.090	0.12892828020906533	
16.72	0.335	0.1375613945279931	
16.725	0.091	0.14725696483501477	
16.73	-0.005	0.15113869430161603	
16.735	0.264	0.1484872243814399	
16.74	0.149	0.143076830897976	
16.745	-0.073	0.13448137199897187	
16.75	0.113	0.11970199086747224	
16.755	0.134	0.09982078250604669	
16.76	-0.145	0.07656625507792389	
16.765	-0.111	0.04492019645129697	
16.77	0.015	0.007445339294548683	
16.775	-0.183	-0.0326674305509807	
16.78	-0.250	-0.07176910255797271	
16.785	-0.113	-0.10763582331183483	
16.79	-0.191	-0.14293877959414358	
16.795	-0.317	-0.17337164539129118	
16.8	-0.197	-0.19534896347646735	
16.805	-0.160	-0.2132780905339852	
16.81	-0.313	-0.22731652420784268	
16.815	-0.253	-0.2330332928760794	
16.82	-0.128	-0.23466822456958747	
16.825	-0.249	-0.2356445269567339	
16.83	-0.287	-0.23168143989766873	
16.835	-0.117	-0.2236930784474728	
16.84	-0.171	-0.2169879477951477	
16.845	-0.284	-0.21031345867137718	
16.85	-0.143	-0.20033725476978462	
16.855	-0.087	-0.19233409831145426	
16.86	-0.250	-0.18531974135709925	
16.865	-0.186	-0.1759900837730003	
16.87	-0.026	-0.16667718084575872	
16.875	-0.175	-0.1586923843017426	
16.88	-0.210	-0.14966296222028058	
16.885	-0.011	-0.13964671802448297	
16.89	-0.087	-0.1300301299151732	
16.895	-0.213	-0.12234986760060595	
16.9	-0.067	-0.11427331774235387	
16.905	0.009	-0.10732741341453586	
16.91	-0.183	-0.10239533196243315	
16.915	-0.124	-0.09495619673153471	
16.92	0.070	-0.08861291258978017	
16.925	-0.124	-0.08276691333431874	
16.93	-0.159	-0.07669044889668086	
16.935	0.082	-0.06954925465210349	
16.94	-0.018	-0.06105619461255473	
16.945	-0.163	-0.05343671370648283	
16.95	0.004	-0.0461938038090661	
