Vernier Format 2
ecg6.txt 10/19/2025 9:39:47
Run 1
Time	Potential	EKG	
T	P	E	
s	mV	mV	

0.000	0.120	0.006	
0.005	-0.053	0.016	
0.010	-0.489	-0.004	
0.015	-0.424	-0.080	
0.020	-0.299	-0.178	
0.025	-0.593	-0.268	
0.030	-0.616	-0.360	
0.035	-0.346	-0.439	
0.040	-0.464	-0.478	
0.045	-0.642	-0.498	
0.050	-0.412	-0.515	
0.055	-0.413	-0.515	
0.060	-0.698	-0.510	
0.065	-0.572	-0.523	
0.070	-0.413	-0.537	
0.075	-0.657	-0.539	
0.080	-0.678	-0.552	
0.085	-0.442	-0.570	
0.090	-0.650	-0.575	
0.095	-0.805	-0.589	
0.100	-0.569	-0.618	
0.105	-0.595	-0.635	
0.110	-0.802	-0.644	
0.115	-0.627	-0.660	
0.120	-0.454	-0.662	
0.125	-0.636	-0.641	
0.130	-0.585	-0.619	
0.135	-0.340	-0.593	
0.140	-0.438	-0.549	
0.145	-0.517	-0.506	
0.150	-0.241	-0.471	
0.155	-0.215	-0.422	
0.160	-0.406	-0.370	
0.165	-0.223	-0.334	
0.170	-0.066	-0.297	
0.175	-0.332	-0.255	
0.180	-0.325	-0.237	
0.185	-0.003	-0.229	
0.190	-0.127	-0.204	
0.195	-0.186	-0.175	
0.200	0.332	-0.136	
0.205	0.367	-0.052	
0.210	-0.149	0.041	
0.215	-0.064	0.079	
0.220	0.004	0.071	
0.225	-0.305	0.037	
0.230	-0.244	-0.026	
0.235	0.241	-0.077	
0.240	0.070	-0.074	
0.245	-0.111	-0.046	
0.250	0.395	-0.013	
0.255	0.387	0.055	
0.260	-0.050	0.130	
0.265	0.258	0.168	
0.270	0.567	0.203	
0.275	0.186	0.256	
0.280	0.250	0.289	
0.285	0.654	0.314	
0.290	0.288	0.354	
0.295	0.003	0.365	
0.300	0.544	0.341	
0.305	0.547	0.343	
0.310	0.081	0.359	
0.315	0.418	0.353	
0.320	0.698	0.359	
0.325	0.232	0.391	
0.330	0.283	0.400	
0.335	0.797	0.405	
0.340	0.526	0.443	
0.345	0.256	0.478	
0.350	0.794	0.491	
0.355	0.794	0.528	
0.360	0.294	0.573	
0.365	0.680	0.584	
0.370	1.162	0.612	
0.375	0.761	0.686	
0.380	0.788	0.756	
0.385	1.244	0.816	
0.390	0.793	0.883	
0.395	0.430	0.903	
0.400	0.956	0.867	
0.405	0.913	0.839	
0.410	0.344	0.815	
0.415	0.866	0.766	
0.420	1.483	0.765	
0.425	1.023	0.848	
0.430	1.076	0.944	
0.435	1.846	1.049	
0.440	1.462	1.194	
0.445	0.883	1.306	
0.450	1.498	1.338	
0.455	1.491	1.355	
0.460	0.729	1.353	
0.465	1.053	1.287	
0.470	1.448	1.215	
0.475	0.727	1.171	
0.480	0.549	1.092	
0.485	1.157	0.990	
0.490	0.733	0.923	
0.495	0.187	0.849	
0.500	0.855	0.747	
0.505	0.877	0.687	
0.510	0.105	0.655	
0.515	0.441	0.590	
0.520	0.863	0.534	
0.525	0.154	0.515	
0.530	0.101	0.469	
0.535	0.800	0.413	
0.540	0.433	0.408	
0.545	-0.035	0.405	
0.550	0.726	0.380	
0.555	0.881	0.403	
0.560	0.216	0.465	
0.565	0.552	0.495	
0.570	0.933	0.523	
0.575	0.061	0.554	
0.580	-0.134	0.510	
0.585	0.436	0.405	
0.590	0.059	0.315	
0.595	-0.241	0.227	
0.600	0.302	0.136	
0.605	0.436	0.104	
0.610	-0.177	0.114	
0.615	0.101	0.107	
0.620	0.642	0.114	
0.625	-0.060	0.158	
0.630	-0.136	0.168	
0.635	0.559	0.153	
0.640	0.209	0.172	
0.645	-0.162	0.187	
0.650	0.415	0.174	
0.655	0.463	0.188	
0.660	-0.175	0.213	
0.665	0.053	0.194	
0.670	0.517	0.170	
0.675	-0.096	0.172	
0.680	-0.145	0.150	
0.685	0.509	0.117	
0.690	0.172	0.127	
0.695	-0.194	0.139	
0.700	0.357	0.126	
0.705	0.447	0.141	
0.710	-0.174	0.172	
0.715	0.011	0.160	
0.720	0.412	0.137	
0.725	-0.162	0.131	
0.730	-0.230	0.098	
0.735	0.334	0.050	
0.740	-0.014	0.037	
0.745	-0.299	0.024	
0.750	0.166	-0.008	
0.755	0.198	-0.011	
0.760	-0.323	0.001	
0.765	-0.140	-0.021	
0.770	0.198	-0.047	
0.775	-0.284	-0.052	
0.780	-0.311	-0.076	
0.785	0.189	-0.107	
0.790	-0.122	-0.105	
0.795	-0.421	-0.107	
0.800	-0.058	-0.135	
0.805	0.001	-0.149	
0.810	-0.418	-0.150	
0.815	-0.250	-0.173	
0.820	0.046	-0.192	
0.825	-0.355	-0.190	
0.830	-0.433	-0.205	
0.835	-0.012	-0.231	
0.840	-0.203	-0.232	
0.845	-0.439	-0.229	
0.850	-0.069	-0.238	
0.855	-0.049	-0.228	
0.860	-0.450	-0.209	
0.865	-0.262	-0.217	
0.870	0.043	-0.224	
0.875	-0.351	-0.210	
0.880	-0.395	-0.213	
0.885	0.037	-0.227	
0.890	-0.194	-0.215	
0.895	-0.453	-0.207	
0.900	-0.105	-0.220	
0.905	-0.090	-0.221	
0.910	-0.448	-0.214	
0.915	-0.204	-0.226	
0.920	0.351	-0.214	
0.925	-0.191	-0.154	
0.930	-0.270	-0.110	
0.935	0.151	-0.095	
0.940	-0.221	-0.079	
0.945	-0.514	-0.093	
0.950	-0.197	-0.150	
0.955	-0.148	-0.199	
0.960	-0.485	-0.231	
0.965	-0.262	-0.268	
0.970	0.082	-0.280	
0.975	-0.316	-0.253	
0.980	-0.331	-0.233	
0.985	0.226	-0.216	
0.990	-0.108	-0.166	
0.995	-0.390	-0.129	
1.000	0.087	-0.124	
1.005	0.175	-0.101	
1.010	-0.396	-0.069	
1.015	-0.204	-0.078	
1.020	0.230	-0.095	
1.025	-0.302	-0.088	
1.030	-0.351	-0.101	
1.035	0.235	-0.125	
1.040	-0.079	-0.112	
1.045	-0.351	-0.097	
1.050	0.113	-0.103	
1.055	0.226	-0.082	
1.060	-0.282	-0.044	
1.065	-0.067	-0.036	
1.070	0.369	-0.027	
1.075	-0.201	0.004	
1.080	-0.255	0.005	
1.085	0.262	-0.016	
1.090	-0.096	-0.016	
1.095	-0.354	-0.025	
1.100	0.072	-0.059	
1.105	0.053	-0.072	
1.110	-0.361	-0.074	
1.115	-0.136	-0.098	
1.120	0.261	-0.109	
1.125	-0.241	-0.088	
1.130	-0.279	-0.084	
1.135	0.277	-0.091	
1.140	-0.101	-0.069	
1.145	-0.372	-0.060	
1.150	0.049	-0.081	
1.155	0.067	-0.086	
1.160	-0.367	-0.081	
1.165	-0.166	-0.102	
1.170	0.160	-0.119	
1.175	-0.308	-0.112	
1.180	-0.340	-0.125	
1.185	0.120	-0.148	
1.190	-0.206	-0.146	
1.195	-0.468	-0.153	
1.200	-0.098	-0.186	
1.205	-0.108	-0.203	
1.210	-0.471	-0.210	
1.215	-0.273	-0.236	
1.220	0.008	-0.252	
1.225	-0.370	-0.242	
1.230	-0.392	-0.244	
1.235	0.018	-0.253	
1.240	-0.215	-0.237	
1.245	-0.436	-0.224	
1.250	-0.079	-0.231	
1.255	-0.061	-0.221	
1.260	-0.428	-0.205	
1.265	-0.192	-0.210	
1.270	0.271	-0.199	
1.275	-0.197	-0.150	
1.280	-0.244	-0.115	
1.285	0.247	-0.097	
1.290	-0.191	-0.067	
1.295	-0.494	-0.069	
1.300	-0.194	-0.121	
1.305	-0.165	-0.172	
1.310	-0.488	-0.212	
1.315	-0.247	-0.257	
1.320	0.107	-0.272	
1.325	-0.299	-0.244	
1.330	-0.302	-0.222	
1.335	0.230	-0.201	
1.340	-0.098	-0.151	
1.345	-0.331	-0.112	
1.350	0.151	-0.101	
1.355	0.177	-0.069	
1.360	-0.311	-0.032	
1.365	-0.090	-0.033	
1.370	0.309	-0.035	
1.375	-0.235	-0.017	
1.380	-0.213	-0.022	
1.385	0.378	-0.033	
1.390	0.032	-0.006	
1.395	-0.253	0.017	
1.400	0.308	0.017	
1.405	0.332	0.047	
1.410	-0.236	0.086	
1.415	0.046	0.085	
1.420	0.514	0.086	
1.425	-0.133	0.114	
1.430	-0.165	0.111	
1.435	0.503	0.090	
1.440	0.073	0.106	
1.445	-0.252	0.112	
1.450	0.227	0.085	
1.455	0.111	0.071	
1.460	-0.354	0.055	
1.465	-0.120	0.004	
1.470	0.317	-0.035	
1.475	-0.255	-0.035	
1.480	-0.259	-0.050	
1.485	0.293	-0.070	
1.490	-0.098	-0.057	
1.495	-0.346	-0.051	
1.500	0.120	-0.070	
1.505	0.136	-0.065	
1.510	-0.334	-0.048	
1.515	-0.127	-0.061	
1.520	0.212	-0.073	
1.525	-0.329	-0.068	
1.530	-0.375	-0.090	
1.535	0.008	-0.134	
1.540	-0.232	-0.158	
1.545	-0.457	-0.183	
1.550	-0.081	-0.218	
1.555	-0.060	-0.226	
1.560	-0.447	-0.219	
1.565	-0.241	-0.229	
1.570	0.047	-0.233	
1.575	-0.367	-0.216	
1.580	-0.370	-0.216	
1.585	0.101	-0.223	
1.590	-0.218	-0.203	
1.595	-0.445	-0.192	
1.600	-0.043	-0.204	
1.605	-0.041	-0.199	
1.610	-0.438	-0.185	
1.615	-0.236	-0.198	
1.620	0.044	-0.207	
1.625	-0.311	-0.195	
1.630	-0.259	-0.192	
1.635	0.442	-0.172	
1.640	0.035	-0.101	
1.645	-0.293	-0.037	
1.650	0.009	-0.024	
1.655	-0.119	-0.031	
1.660	-0.523	-0.063	
1.665	-0.300	-0.135	
1.670	0.009	-0.197	
1.675	-0.357	-0.221	
1.680	-0.329	-0.239	
1.685	0.212	-0.241	
1.690	-0.099	-0.198	
1.695	-0.303	-0.154	
1.700	0.232	-0.125	
1.705	0.235	-0.070	
1.710	-0.291	-0.011	
1.715	-0.081	0.000	
1.720	0.357	0.001	
1.725	-0.217	0.021	
1.730	-0.235	0.012	
1.735	0.326	-0.011	
1.740	-0.041	-0.003	
1.745	-0.296	-0.001	
1.750	0.235	-0.018	
1.755	0.259	-0.003	
1.760	-0.259	0.027	
1.765	0.064	0.028	
1.770	0.514	0.041	
1.775	-0.116	0.085	
1.780	-0.107	0.099	
1.785	0.562	0.098	
1.790	0.181	0.135	
1.795	-0.183	0.163	
1.800	0.405	0.156	
1.805	0.370	0.170	
1.810	-0.265	0.186	
1.815	-0.053	0.150	
1.820	0.268	0.100	
1.825	-0.244	0.068	
1.830	-0.271	0.017	
1.835	0.288	-0.034	
1.840	-0.066	-0.042	
1.845	-0.299	-0.045	
1.850	0.251	-0.057	
1.855	0.247	-0.031	
1.860	-0.284	0.008	
1.865	-0.012	0.011	
1.870	0.401	0.014	
1.875	-0.183	0.041	
1.880	-0.207	0.039	
1.885	0.381	0.021	
1.890	-0.058	0.031	
1.895	-0.314	0.028	
1.900	0.190	-0.002	
1.905	0.110	-0.008	
1.910	-0.374	-0.008	
1.915	-0.168	-0.043	
1.920	0.128	-0.080	
1.925	-0.340	-0.094	
1.930	-0.337	-0.125	
1.935	0.186	-0.156	
1.940	-0.145	-0.147	
1.945	-0.363	-0.137	
1.950	0.097	-0.143	
1.955	0.072	-0.123	
1.960	-0.361	-0.097	
1.965	-0.116	-0.101	
1.970	0.232	-0.101	
1.975	-0.279	-0.080	
1.980	-0.284	-0.082	
1.985	0.267	-0.095	
1.990	-0.078	-0.076	
1.995	-0.264	-0.060	
2.000	0.369	-0.051	
2.005	0.380	0.001	
2.010	-0.241	0.068	
2.015	-0.043	0.082	
2.020	0.259	0.070	
2.025	-0.349	0.057	
2.030	-0.389	0.002	
2.035	0.094	-0.073	
2.040	-0.151	-0.113	
2.045	-0.351	-0.137	
2.050	0.198	-0.154	
2.055	0.232	-0.121	
2.060	-0.288	-0.065	
2.065	-0.003	-0.042	
2.070	0.425	-0.017	
2.075	-0.183	0.029	
2.080	-0.195	0.040	
2.085	0.459	0.033	
2.090	-0.002	0.057	
2.095	-0.293	0.065	
2.100	0.245	0.042	
2.105	0.308	0.046	
2.110	-0.271	0.066	
2.115	-0.032	0.052	
2.120	0.392	0.038	
2.125	-0.194	0.050	
2.130	-0.201	0.037	
2.135	0.486	0.019	
2.140	0.059	0.045	
2.145	-0.242	0.066	
2.150	0.334	0.060	
2.155	0.398	0.084	
2.160	-0.227	0.122	
2.165	0.023	0.116	
2.170	0.430	0.104	
2.175	-0.191	0.110	
2.180	-0.197	0.086	
2.185	0.439	0.052	
2.190	-0.101	0.052	
2.195	-0.370	0.037	
2.200	0.119	-0.011	
2.205	0.075	-0.035	
2.210	-0.375	-0.046	
2.215	-0.114	-0.079	
2.220	0.273	-0.096	
2.225	-0.281	-0.079	
2.230	-0.290	-0.083	
2.235	0.314	-0.095	
2.240	-0.098	-0.072	
2.245	-0.369	-0.059	
2.250	0.064	-0.078	
2.255	0.072	-0.080	
2.260	-0.367	-0.074	
2.265	-0.125	-0.094	
2.270	0.155	-0.107	
2.275	-0.372	-0.103	
2.280	-0.366	-0.126	
2.285	0.117	-0.159	
2.290	-0.197	-0.162	
2.295	-0.409	-0.164	
2.300	-0.027	-0.184	
2.305	0.021	-0.179	
2.310	-0.409	-0.163	
2.315	-0.197	-0.170	
2.320	0.157	-0.172	
2.325	-0.317	-0.151	
2.330	-0.303	-0.148	
2.335	0.226	-0.152	
2.340	-0.206	-0.128	
2.345	-0.412	-0.121	
2.350	0.133	-0.136	
2.355	0.229	-0.115	
2.360	-0.250	-0.067	
2.365	0.076	-0.041	
2.370	0.404	-0.006	
2.375	-0.244	0.042	
2.380	-0.302	0.040	
2.385	0.130	-0.002	
2.390	-0.233	-0.035	
2.395	-0.459	-0.081	
2.400	-0.076	-0.146	
2.405	-0.031	-0.180	
2.410	-0.383	-0.188	
2.415	-0.113	-0.199	
2.420	0.346	-0.180	
2.425	-0.232	-0.121	
2.430	-0.238	-0.086	
2.435	0.361	-0.069	
2.440	-0.066	-0.029	
2.445	-0.320	-0.008	
2.450	0.218	-0.018	
2.455	0.241	-0.004	
2.460	-0.284	0.023	
2.465	0.006	0.017	
2.470	0.445	0.019	
2.475	-0.210	0.048	
2.480	-0.215	0.045	
2.485	0.445	0.026	
2.490	0.043	0.045	
2.495	-0.253	0.059	
2.500	0.344	0.049	
2.505	0.373	0.073	
2.510	-0.212	0.111	
2.515	0.163	0.115	
2.520	0.552	0.126	
2.525	-0.207	0.158	
2.530	-0.236	0.139	
2.535	0.444	0.094	
2.540	0.018	0.085	
2.545	-0.261	0.075	
2.550	0.367	0.050	
2.555	0.309	0.065	
2.560	-0.299	0.092	
2.565	-0.060	0.072	
2.570	0.405	0.048	
2.575	-0.169	0.055	
2.580	-0.163	0.043	
2.585	0.462	0.028	
2.590	0.000	0.051	
2.595	-0.277	0.061	
2.600	0.305	0.043	
2.605	0.242	0.053	
2.610	-0.313	0.070	
2.615	-0.046	0.046	
2.620	0.329	0.022	
2.625	-0.273	0.022	
2.630	-0.290	-0.006	
2.635	0.280	-0.044	
2.640	-0.117	-0.048	
2.645	-0.345	-0.055	
2.650	0.190	-0.077	
2.655	0.081	-0.068	
2.660	-0.427	-0.054	
2.665	-0.175	-0.081	
2.670	0.139	-0.109	
2.675	-0.326	-0.113	
2.680	-0.285	-0.131	
2.685	0.276	-0.144	
2.690	-0.140	-0.118	
2.695	-0.390	-0.102	
2.700	0.111	-0.112	
2.705	0.108	-0.100	
2.710	-0.357	-0.076	
2.715	-0.070	-0.082	
2.720	0.404	-0.074	
2.725	-0.204	-0.032	
2.730	-0.223	-0.016	
2.735	0.389	-0.017	
2.740	-0.093	0.007	
2.745	-0.393	0.009	
2.750	0.018	-0.032	
2.755	-0.020	-0.063	
2.760	-0.390	-0.086	
2.765	-0.107	-0.123	
2.770	0.315	-0.132	
2.775	-0.223	-0.098	
2.780	-0.185	-0.078	
2.785	0.514	-0.057	
2.790	0.073	0.006	
2.795	-0.218	0.056	
2.800	0.412	0.073	
2.805	0.430	0.115	
2.810	-0.171	0.166	
2.815	0.268	0.176	
2.820	0.668	0.197	
2.825	-0.067	0.241	
2.830	-0.056	0.241	
2.835	0.686	0.219	
2.840	0.258	0.241	
2.845	-0.102	0.258	
2.850	0.604	0.249	
2.855	0.593	0.277	
2.860	-0.111	0.317	
2.865	0.354	0.312	
2.870	0.793	0.315	
2.875	0.055	0.351	
2.880	0.088	0.350	
2.885	0.835	0.334	
2.890	0.325	0.360	
2.895	-0.140	0.369	
2.900	0.587	0.334	
2.905	0.532	0.328	
2.910	-0.160	0.333	
2.915	0.247	0.295	
2.920	0.610	0.266	
2.925	-0.151	0.263	
2.930	-0.099	0.222	
2.935	0.680	0.177	
2.940	0.244	0.191	
2.945	-0.142	0.210	
2.950	0.524	0.203	
2.955	0.468	0.226	
2.960	-0.186	0.254	
2.965	0.174	0.233	
2.970	0.556	0.213	
2.975	-0.130	0.217	
2.980	-0.153	0.186	
2.985	0.428	0.136	
2.990	-0.070	0.115	
2.995	-0.285	0.084	
3.000	0.268	0.036	
3.005	0.195	0.026	
3.010	-0.319	0.032	
3.015	-0.047	0.007	
3.020	0.349	-0.010	
3.025	-0.213	0.004	
3.030	-0.188	-0.002	
3.035	0.442	-0.012	
3.040	-0.056	0.015	
3.045	-0.308	0.027	
3.050	0.264	0.009	
3.055	0.213	0.018	
3.060	-0.313	0.037	
3.065	-0.037	0.019	
3.070	0.361	0.005	
3.075	-0.201	0.020	
3.080	-0.093	0.017	
3.085	0.625	0.024	
3.090	0.043	0.078	
3.095	-0.282	0.110	
3.100	0.212	0.091	
3.105	0.064	0.075	
3.110	-0.396	0.050	
3.115	-0.125	-0.011	
3.120	0.262	-0.056	
3.125	-0.252	-0.062	
3.130	-0.192	-0.073	
3.135	0.456	-0.073	
3.140	0.008	-0.026	
3.145	-0.255	0.012	
3.150	0.358	0.021	
3.155	0.332	0.059	
3.160	-0.236	0.103	
3.165	0.081	0.103	
3.170	0.419	0.099	
3.175	-0.183	0.114	
3.180	-0.151	0.095	
3.185	0.503	0.069	
3.190	0.047	0.085	
3.195	-0.206	0.096	
3.200	0.447	0.087	
3.205	0.413	0.117	
3.210	-0.175	0.161	
3.215	0.262	0.168	
3.220	0.636	0.186	
3.225	-0.102	0.226	
3.230	-0.070	0.221	
3.235	0.660	0.197	
3.240	0.155	0.214	
3.245	-0.178	0.219	
3.250	0.445	0.192	
3.255	0.287	0.190	
3.260	-0.262	0.188	
3.265	0.044	0.144	
3.270	0.433	0.108	
3.275	-0.180	0.103	
3.280	-0.168	0.078	
3.285	0.401	0.046	
3.290	-0.070	0.047	
3.295	-0.297	0.038	
3.300	0.273	0.008	
3.305	0.216	0.013	
3.310	-0.300	0.032	
3.315	-0.026	0.017	
3.320	0.323	0.005	
3.325	-0.252	0.015	
3.330	-0.241	-0.002	
3.335	0.296	-0.031	
3.340	-0.168	-0.030	
3.345	-0.381	-0.044	
3.350	0.073	-0.082	
3.355	0.000	-0.097	
3.360	-0.425	-0.102	
3.365	-0.191	-0.134	
3.370	0.050	-0.160	
3.375	-0.387	-0.165	
3.380	-0.322	-0.186	
3.385	0.197	-0.200	
3.390	-0.175	-0.175	
3.395	-0.363	-0.154	
3.400	0.116	-0.152	
3.405	0.032	-0.127	
3.410	-0.380	-0.101	
3.415	-0.124	-0.108	
3.420	0.157	-0.114	
3.425	-0.332	-0.102	
3.430	-0.258	-0.113	
3.435	0.366	-0.119	
3.440	-0.021	-0.080	
3.445	-0.270	-0.043	
3.450	0.130	-0.037	
3.455	-0.078	-0.031	
3.460	-0.502	-0.047	
3.465	-0.279	-0.109	
3.470	-0.044	-0.170	
3.475	-0.384	-0.204	
3.480	-0.314	-0.234	
3.485	0.213	-0.243	
3.490	-0.159	-0.205	
3.495	-0.339	-0.168	
3.500	0.213	-0.148	
3.505	0.158	-0.100	
3.510	-0.319	-0.047	
3.515	-0.011	-0.036	
3.520	0.262	-0.027	
3.525	-0.273	-0.007	
3.530	-0.233	-0.019	
3.535	0.337	-0.040	
3.540	-0.105	-0.028	
3.545	-0.311	-0.025	
3.550	0.277	-0.040	
3.555	0.200	-0.019	
3.560	-0.281	0.013	
3.565	0.078	0.013	
3.570	0.433	0.025	
3.575	-0.168	0.062	
3.580	-0.105	0.068	
3.585	0.550	0.067	
3.590	0.047	0.102	
3.595	-0.201	0.121	
3.600	0.459	0.113	
3.605	0.323	0.136	
3.610	-0.273	0.160	
3.615	0.014	0.133	
3.620	0.326	0.099	
3.625	-0.276	0.082	
3.630	-0.252	0.036	
3.635	0.229	-0.018	
3.640	-0.185	-0.041	
3.645	-0.337	-0.066	
3.650	0.203	-0.097	
3.655	0.114	-0.086	
3.660	-0.343	-0.060	
3.665	-0.037	-0.065	
3.670	0.288	-0.061	
3.675	-0.268	-0.035	
3.680	-0.226	-0.038	
3.685	0.306	-0.051	
3.690	-0.146	-0.037	
3.695	-0.328	-0.038	
3.700	0.177	-0.060	
3.705	0.023	-0.058	
3.710	-0.393	-0.054	
3.715	-0.139	-0.084	
3.720	0.075	-0.110	
3.725	-0.389	-0.121	
3.730	-0.323	-0.151	
3.735	0.093	-0.181	
3.740	-0.256	-0.181	
3.745	-0.409	-0.186	
3.750	0.079	-0.200	
3.755	-0.002	-0.181	
3.760	-0.389	-0.153	
3.765	-0.114	-0.152	
3.770	0.160	-0.145	
3.775	-0.339	-0.121	
3.780	-0.282	-0.123	
3.785	0.200	-0.134	
3.790	-0.153	-0.117	
3.795	-0.277	-0.104	
3.800	0.430	-0.091	
3.805	0.346	-0.026	
3.810	-0.249	0.052	
3.815	-0.027	0.072	
3.820	0.062	0.058	
3.825	-0.524	0.020	
3.830	-0.636	-0.077	
3.835	-0.409	-0.212	
3.840	-0.668	-0.337	
3.845	-0.817	-0.455	
3.850	-0.468	-0.556	
3.855	-0.518	-0.609	
3.860	-0.803	-0.628	
3.865	-0.549	-0.646	
3.870	-0.406	-0.641	
3.875	-0.726	-0.617	
3.880	-0.665	-0.608	
3.885	-0.334	-0.601	
3.890	-0.555	-0.574	
3.895	-0.688	-0.553	
3.900	-0.329	-0.545	
3.905	-0.424	-0.522	
3.910	-0.685	-0.500	
3.915	-0.372	-0.497	
3.920	-0.178	-0.478	
3.925	-0.491	-0.437	
3.930	-0.398	-0.408	
3.935	-0.023	-0.379	
3.940	-0.300	-0.329	
3.945	-0.393	-0.291	
3.950	0.137	-0.262	
3.955	0.044	-0.203	
3.960	-0.361	-0.143	
3.965	-0.049	-0.120	
3.970	0.250	-0.097	
3.975	-0.288	-0.060	
3.980	-0.177	-0.054	
3.985	0.425	-0.051	
3.990	-0.090	-0.013	
3.995	-0.294	0.006	
4.000	0.302	-0.004	
4.005	0.155	0.014	
4.010	-0.293	0.035	
4.015	0.113	0.024	
4.020	0.441	0.031	
4.025	-0.169	0.067	
4.030	-0.060	0.075	
4.035	0.617	0.079	
4.040	0.122	0.127	
4.045	-0.140	0.160	
4.050	0.601	0.167	
4.055	0.447	0.210	
4.060	-0.156	0.253	
4.065	0.351	0.251	
4.070	0.628	0.257	
4.075	-0.089	0.283	
4.080	0.024	0.265	
4.085	0.680	0.237	
4.090	0.097	0.248	
4.095	-0.159	0.241	
4.100	0.491	0.205	
4.105	0.344	0.204	
4.110	-0.213	0.210	
4.115	0.213	0.180	
4.120	0.569	0.169	
4.125	-0.125	0.188	
4.130	-0.060	0.175	
4.135	0.614	0.153	
4.140	0.091	0.173	
4.145	-0.148	0.180	
4.150	0.582	0.168	
4.155	0.501	0.201	
4.160	-0.038	0.252	
4.165	0.648	0.280	
4.170	0.925	0.342	
4.175	0.125	0.431	
4.180	0.146	0.456	
4.185	0.616	0.432	
4.190	-0.046	0.402	
4.195	-0.262	0.325	
4.200	0.372	0.218	
4.205	0.332	0.163	
4.210	-0.163	0.146	
4.215	0.398	0.129	
4.220	0.715	0.159	
4.225	-0.006	0.229	
4.230	0.168	0.261	
4.235	0.872	0.284	
4.240	0.349	0.347	
4.245	0.026	0.388	
4.250	0.745	0.389	
4.255	0.631	0.417	
4.260	-0.003	0.446	
4.265	0.538	0.432	
4.270	0.846	0.434	
4.275	0.084	0.461	
4.280	0.197	0.446	
4.285	0.889	0.419	
4.290	0.405	0.438	
4.295	0.105	0.450	
4.300	0.843	0.440	
4.305	0.729	0.470	
4.310	0.049	0.507	
4.315	0.681	0.501	
4.320	1.003	0.517	
4.325	0.215	0.563	
4.330	0.352	0.564	
4.335	1.014	0.550	
4.340	0.459	0.572	
4.345	0.113	0.572	
4.350	0.808	0.535	
4.355	0.614	0.526	
4.360	-0.079	0.515	
4.365	0.466	0.457	
4.370	0.774	0.419	
4.375	0.023	0.417	
4.380	0.146	0.384	
4.385	0.820	0.349	
4.390	0.245	0.361	
4.395	-0.046	0.359	
4.400	0.704	0.331	
4.405	0.561	0.345	
4.410	-0.076	0.369	
4.415	0.401	0.350	
4.420	0.651	0.340	
4.425	-0.082	0.346	
4.430	0.052	0.311	
4.435	0.633	0.266	
4.440	0.046	0.258	
4.445	-0.209	0.230	
4.450	0.456	0.178	
4.455	0.338	0.167	
4.460	-0.229	0.173	
4.465	0.143	0.145	
4.470	0.468	0.129	
4.475	-0.168	0.139	
4.480	-0.095	0.120	
4.485	0.521	0.096	
4.490	0.029	0.112	
4.495	-0.178	0.117	
4.500	0.444	0.104	
4.505	0.226	0.121	
4.510	-0.255	0.137	
4.515	0.116	0.111	
4.520	0.439	0.098	
4.525	-0.142	0.112	
4.530	0.003	0.106	
4.535	0.733	0.111	
4.540	0.215	0.170	
4.545	-0.090	0.218	
4.550	0.527	0.227	
4.555	0.264	0.246	
4.560	-0.290	0.245	
4.565	-0.005	0.185	
4.570	0.277	0.120	
4.575	-0.300	0.078	
4.580	-0.180	0.019	
4.585	0.437	-0.023	
4.590	-0.046	-0.010	
4.595	-0.227	0.004	
4.600	0.436	0.007	
4.605	0.380	0.054	
4.610	-0.178	0.115	
4.615	0.236	0.135	
4.620	0.463	0.155	
4.625	-0.206	0.181	
4.630	-0.125	0.156	
4.635	0.483	0.117	
4.640	-0.063	0.112	
4.645	-0.232	0.094	
4.650	0.439	0.065	
4.655	0.253	0.079	
4.660	-0.258	0.104	
4.665	0.140	0.091	
4.670	0.477	0.091	
4.675	-0.178	0.116	
4.680	-0.127	0.107	
4.685	0.491	0.086	
4.690	-0.024	0.097	
4.695	-0.183	0.097	
4.700	0.543	0.086	
4.705	0.364	0.123	
4.710	-0.217	0.167	
4.715	0.195	0.164	
4.720	0.491	0.163	
4.725	-0.221	0.176	
4.730	-0.197	0.143	
4.735	0.265	0.085	
4.740	-0.207	0.046	
4.745	-0.392	-0.006	
4.750	0.067	-0.074	
4.755	-0.095	-0.109	
4.760	-0.477	-0.134	
4.765	-0.188	-0.179	
4.770	0.001	-0.207	
4.775	-0.407	-0.210	
4.780	-0.302	-0.224	
4.785	0.168	-0.229	
4.790	-0.236	-0.198	
4.795	-0.389	-0.178	
4.800	0.143	-0.176	
4.805	0.001	-0.147	
4.810	-0.395	-0.117	
4.815	-0.110	-0.122	
4.820	0.136	-0.124	
4.825	-0.351	-0.111	
4.830	-0.261	-0.122	
4.835	0.241	-0.134	
4.840	-0.227	-0.116	
4.845	-0.381	-0.113	
4.850	0.148	-0.129	
4.855	-0.014	-0.118	
4.860	-0.380	-0.103	
4.865	-0.027	-0.113	
4.870	0.245	-0.106	
4.875	-0.306	-0.076	
4.880	-0.220	-0.074	
4.885	0.408	-0.075	
4.890	-0.107	-0.039	
4.895	-0.227	-0.016	
4.900	0.524	-0.003	
4.905	0.410	0.061	
4.910	-0.166	0.135	
4.915	0.261	0.162	
4.920	0.425	0.182	
4.925	-0.261	0.197	
4.930	-0.218	0.154	
4.935	0.264	0.084	
4.940	-0.172	0.041	
4.945	-0.296	-0.006	
4.950	0.344	-0.047	
4.955	0.206	-0.031	
4.960	-0.256	0.006	
4.965	0.213	0.019	
4.970	0.498	0.052	
4.975	-0.169	0.107	
4.980	-0.070	0.119	
4.985	0.558	0.114	
4.990	0.017	0.139	
4.995	-0.185	0.145	
5.000	0.472	0.127	
5.005	0.319	0.144	
5.010	-0.197	0.168	
5.015	0.270	0.158	
5.020	0.532	0.164	
5.025	-0.154	0.191	
5.030	-0.073	0.176	
5.035	0.584	0.149	
5.040	0.050	0.162	
5.045	-0.137	0.163	
5.050	0.587	0.150	
5.055	0.369	0.181	
5.060	-0.207	0.214	
5.065	0.209	0.199	
5.070	0.466	0.186	
5.075	-0.215	0.188	
5.080	-0.148	0.149	
5.085	0.383	0.096	
5.090	-0.124	0.076	
5.095	-0.268	0.045	
5.100	0.351	0.008	
5.105	0.183	0.016	
5.110	-0.273	0.038	
5.115	0.087	0.029	
5.120	0.348	0.030	
5.125	-0.256	0.050	
5.130	-0.171	0.035	
5.135	0.401	0.012	
5.140	-0.120	0.022	
5.145	-0.290	0.017	
5.150	0.273	-0.008	
5.155	0.108	-0.003	
5.160	-0.300	0.010	
5.165	0.040	-0.007	
5.170	0.294	-0.011	
5.175	-0.284	0.005	
5.180	-0.182	-0.009	
5.185	0.317	-0.029	
5.190	-0.194	-0.022	
5.195	-0.326	-0.033	
5.200	0.261	-0.059	
5.205	0.081	-0.048	
5.210	-0.339	-0.030	
5.215	-0.014	-0.044	
5.220	0.207	-0.050	
5.225	-0.334	-0.041	
5.230	-0.233	-0.060	
5.235	0.282	-0.083	
5.240	-0.188	-0.072	
5.245	-0.360	-0.074	
5.250	0.160	-0.096	
5.255	0.072	-0.088	
5.260	-0.291	-0.067	
5.265	0.204	-0.058	
5.270	0.530	-0.014	
5.275	-0.172	0.061	
5.280	-0.117	0.090	
5.285	0.343	0.085	
5.290	-0.218	0.082	
5.295	-0.403	0.043	
5.300	0.058	-0.028	
5.305	-0.078	-0.075	
5.310	-0.381	-0.107	
5.315	-0.079	-0.145	
5.320	0.171	-0.154	
5.325	-0.316	-0.132	
5.330	-0.186	-0.127	
5.335	0.384	-0.115	
5.340	-0.131	-0.067	
5.345	-0.249	-0.037	
5.350	0.357	-0.028	
5.355	0.160	0.011	
5.360	-0.281	0.046	
5.365	0.145	0.043	
5.370	0.364	0.051	
5.375	-0.226	0.075	
5.380	-0.069	0.066	
5.385	0.501	0.056	
5.390	-0.066	0.081	
5.395	-0.192	0.086	
5.400	0.463	0.074	
5.405	0.245	0.099	
5.410	-0.218	0.127	
5.415	0.268	0.121	
5.420	0.485	0.133	
5.425	-0.207	0.162	
5.430	-0.096	0.145	
5.435	0.512	0.115	
5.440	-0.044	0.120	
5.445	-0.194	0.111	
5.450	0.437	0.086	
5.455	0.200	0.099	
5.460	-0.270	0.113	
5.465	0.123	0.089	
5.470	0.366	0.077	
5.475	-0.241	0.085	
5.480	-0.117	0.062	
5.485	0.448	0.039	
5.490	-0.087	0.052	
5.495	-0.227	0.051	
5.500	0.370	0.033	
5.505	0.105	0.047	
5.510	-0.285	0.059	
5.515	0.107	0.037	
5.520	0.296	0.030	
5.525	-0.296	0.039	
5.530	-0.192	0.014	
5.535	0.296	-0.018	
5.540	-0.183	-0.021	
5.545	-0.314	-0.036	
5.550	0.258	-0.063	
5.555	0.037	-0.053	
5.560	-0.343	-0.039	
5.565	0.023	-0.054	
5.570	0.251	-0.053	
5.575	-0.284	-0.032	
5.580	-0.183	-0.039	
5.585	0.309	-0.051	
5.590	-0.191	-0.036	
5.595	-0.329	-0.040	
5.600	0.261	-0.062	
5.605	0.018	-0.052	
5.610	-0.367	-0.041	
5.615	-0.037	-0.062	
5.620	0.190	-0.073	
5.625	-0.300	-0.063	
5.630	-0.149	-0.072	
5.635	0.514	-0.067	
5.640	-0.053	-0.014	
5.645	-0.223	0.023	
5.650	0.309	0.028	
5.655	-0.041	0.042	
5.660	-0.424	0.032	
5.665	-0.102	-0.025	
5.670	0.123	-0.071	
5.675	-0.331	-0.090	
5.680	-0.213	-0.117	
5.685	0.290	-0.130	
5.690	-0.153	-0.103	
5.695	-0.256	-0.083	
5.700	0.361	-0.072	
5.705	0.123	-0.026	
5.710	-0.291	0.016	
5.715	0.119	0.018	
5.720	0.354	0.030	
5.725	-0.244	0.057	
5.730	-0.146	0.047	
5.735	0.433	0.028	
5.740	-0.090	0.043	
5.745	-0.227	0.044	
5.750	0.367	0.028	
5.755	0.186	0.047	
5.760	-0.247	0.070	
5.765	0.308	0.069	
5.770	0.578	0.099	
5.775	-0.119	0.158	
5.780	0.059	0.176	
5.785	0.645	0.182	
5.790	0.009	0.214	
5.795	-0.168	0.213	
5.800	0.501	0.182	
5.805	0.223	0.181	
5.810	-0.241	0.180	
5.815	0.158	0.142	
5.820	0.331	0.115	
5.825	-0.285	0.106	
5.830	-0.156	0.063	
5.835	0.393	0.021	
5.840	-0.143	0.019	
5.845	-0.268	0.007	
5.850	0.343	-0.016	
5.855	0.105	0.000	
5.860	-0.314	0.019	
5.865	0.067	0.004	
5.870	0.325	0.002	
5.875	-0.276	0.021	
5.880	-0.175	0.008	
5.885	0.288	-0.015	
5.890	-0.206	-0.015	
5.895	-0.328	-0.033	
5.900	0.232	-0.065	
5.905	-0.032	-0.064	
5.910	-0.413	-0.063	
5.915	-0.085	-0.094	
5.920	0.169	-0.111	
5.925	-0.348	-0.104	
5.930	-0.258	-0.117	
5.935	0.180	-0.133	
5.940	-0.253	-0.124	
5.945	-0.386	-0.129	
5.950	0.108	-0.150	
5.955	-0.047	-0.143	
5.960	-0.369	-0.129	
5.965	-0.032	-0.136	
5.970	0.163	-0.127	
5.975	-0.366	-0.103	
5.980	-0.271	-0.110	
5.985	0.165	-0.128	
5.990	-0.209	-0.120	
5.995	-0.261	-0.118	
6.000	0.416	-0.109	
6.005	0.158	-0.051	
6.010	-0.311	0.006	
6.015	-0.026	0.011	
6.020	0.084	-0.002	
6.025	-0.432	-0.021	
6.030	-0.339	-0.078	
6.035	0.101	-0.138	
6.040	-0.244	-0.160	
6.045	-0.322	-0.174	
6.050	0.283	-0.176	
6.055	0.084	-0.130	
6.060	-0.299	-0.076	
6.065	0.136	-0.053	
6.070	0.338	-0.018	
6.075	-0.252	0.029	
6.080	-0.125	0.033	
6.085	0.408	0.025	
6.090	-0.154	0.041	
6.095	-0.268	0.034	
6.100	0.380	0.009	
6.105	0.119	0.024	
6.110	-0.300	0.041	
6.115	0.180	0.028	
6.120	0.436	0.039	
6.125	-0.168	0.078	
6.130	0.003	0.088	
6.135	0.581	0.096	
6.140	-0.006	0.135	
6.145	-0.142	0.149	
6.150	0.602	0.143	
6.155	0.402	0.181	
6.160	-0.142	0.225	
6.165	0.398	0.229	
6.170	0.576	0.245	
6.175	-0.171	0.272	
6.180	-0.078	0.242	
6.185	0.445	0.188	
6.190	-0.131	0.158	
6.195	-0.259	0.111	
6.200	0.360	0.054	
6.205	0.131	0.043	
6.210	-0.277	0.046	
6.215	0.158	0.026	
6.220	0.344	0.030	
6.225	-0.273	0.052	
6.230	-0.133	0.038	
6.235	0.457	0.021	
6.240	-0.090	0.040	
6.245	-0.235	0.044	
6.250	0.349	0.028	
6.255	0.038	0.038	
6.260	-0.343	0.040	
6.265	0.085	0.008	
6.270	0.276	-0.005	
6.275	-0.293	0.006	
6.280	-0.188	-0.013	
6.285	0.244	-0.040	
6.290	-0.258	-0.043	
6.295	-0.355	-0.066	
6.300	0.172	-0.102	
6.305	-0.037	-0.103	
6.310	-0.378	-0.097	
6.315	-0.005	-0.113	
6.320	0.219	-0.108	
6.325	-0.303	-0.079	
6.330	-0.188	-0.077	
6.335	0.309	-0.079	
6.340	-0.201	-0.055	
6.345	-0.326	-0.052	
6.350	0.229	-0.070	
6.355	0.052	-0.057	
6.360	-0.277	-0.038	
6.365	0.253	-0.033	
6.370	0.514	0.010	
6.375	-0.182	0.080	
6.380	-0.111	0.101	
6.385	0.285	0.088	
6.390	-0.271	0.073	
6.395	-0.416	0.022	
6.400	0.059	-0.056	
6.405	-0.056	-0.100	
6.410	-0.343	-0.122	
6.415	0.070	-0.141	
6.420	0.288	-0.120	
6.425	-0.261	-0.070	
6.430	-0.125	-0.049	
6.435	0.378	-0.036	
6.440	-0.191	-0.002	
6.445	-0.329	-0.001	
6.450	0.172	-0.031	
6.455	-0.092	-0.044	
6.460	-0.410	-0.061	
6.465	-0.060	-0.104	
6.470	0.139	-0.123	
6.475	-0.355	-0.116	
6.480	-0.210	-0.128	
6.485	0.341	-0.130	
6.490	-0.191	-0.094	
6.495	-0.303	-0.075	
6.500	0.334	-0.073	
6.505	0.155	-0.035	
6.510	-0.252	0.009	
6.515	0.245	0.024	
6.520	0.465	0.059	
6.525	-0.192	0.111	
6.530	-0.021	0.119	
6.535	0.593	0.117	
6.540	-0.044	0.146	
6.545	-0.210	0.147	
6.550	0.405	0.118	
6.555	0.140	0.116	
6.560	-0.294	0.111	
6.565	0.148	0.075	
6.570	0.378	0.061	
6.575	-0.218	0.074	
6.580	-0.009	0.064	
6.585	0.707	0.069	
6.590	0.206	0.133	
6.595	0.238	0.202	
6.600	1.326	0.292	
6.605	1.245	0.473	
6.610	0.662	0.681	
6.615	1.331	0.838	
6.620	1.520	0.984	
6.625	0.655	1.106	
6.630	0.797	1.129	
6.635	1.337	1.098	
6.640	0.687	1.072	
6.645	0.386	1.004	
6.650	1.143	0.905	
6.655	0.867	0.853	
6.660	0.174	0.811	
6.665	0.803	0.733	
6.670	0.962	0.687	
6.675	0.119	0.668	
6.680	0.326	0.606	
6.685	0.960	0.544	
6.690	0.291	0.530	
6.695	0.017	0.497	
6.700	0.797	0.441	
6.705	0.508	0.430	
6.710	-0.127	0.423	
6.715	0.375	0.370	
6.720	0.562	0.331	
6.725	-0.148	0.313	
6.730	0.049	0.261	
6.735	0.768	0.220	
6.740	0.155	0.240	
6.745	-0.099	0.250	
6.750	0.555	0.233	
6.755	0.123	0.234	
6.760	-0.387	0.210	
6.765	-0.111	0.125	
6.770	0.090	0.036	
6.775	-0.348	-0.028	
6.780	-0.172	-0.090	
6.785	0.405	-0.117	
6.790	-0.143	-0.086	
6.795	-0.267	-0.061	
6.800	0.373	-0.052	
6.805	0.161	-0.008	
6.810	-0.270	0.034	
6.815	0.154	0.039	
6.820	0.364	0.052	
6.825	-0.268	0.078	
6.830	-0.146	0.061	
6.835	0.375	0.033	
6.840	-0.172	0.033	
6.845	-0.274	0.016	
6.850	0.390	-0.011	
6.855	0.130	0.007	
6.860	-0.317	0.030	
6.865	0.123	0.018	
6.870	0.399	0.024	
6.875	-0.232	0.055	
6.880	-0.089	0.052	
6.885	0.535	0.047	
6.890	-0.076	0.078	
6.895	-0.212	0.087	
6.900	0.465	0.073	
6.905	0.177	0.094	
6.910	-0.308	0.111	
6.915	0.108	0.083	
6.920	0.303	0.064	
6.925	-0.308	0.062	
6.930	-0.204	0.025	
6.935	0.265	-0.018	
6.940	-0.230	-0.032	
6.945	-0.369	-0.059	
6.950	0.136	-0.099	
6.955	-0.075	-0.109	
6.960	-0.424	-0.114	
6.965	-0.114	-0.143	
6.970	0.082	-0.157	
6.975	-0.372	-0.150	
6.980	-0.252	-0.161	
6.985	0.207	-0.168	
6.990	-0.241	-0.143	
6.995	-0.386	-0.136	
7.000	0.081	-0.150	
7.005	-0.113	-0.145	
7.010	-0.438	-0.142	
7.015	-0.101	-0.165	
7.020	0.023	-0.174	
7.025	-0.441	-0.170	
7.030	-0.337	-0.191	
7.035	0.017	-0.217	
7.040	-0.352	-0.220	
7.045	-0.471	-0.234	
7.050	-0.011	-0.258	
7.055	-0.183	-0.254	
7.060	-0.496	-0.245	
7.065	-0.172	-0.257	
7.070	-0.040	-0.257	
7.075	-0.471	-0.242	
7.080	-0.345	-0.252	
7.085	0.003	-0.263	
7.090	-0.372	-0.253	
7.095	-0.445	-0.256	
7.100	0.131	-0.263	
7.105	0.046	-0.224	
7.110	-0.284	-0.166	
7.115	0.152	-0.124	
7.120	0.223	-0.069	
7.125	-0.412	-0.021	
7.130	-0.374	-0.038	
7.135	-0.124	-0.099	
7.140	-0.468	-0.161	
7.145	-0.541	-0.235	
7.150	-0.075	-0.304	
7.155	-0.177	-0.321	
7.160	-0.457	-0.311	
7.165	-0.070	-0.303	
7.170	0.166	-0.263	
7.175	-0.352	-0.198	
7.180	-0.198	-0.164	
7.185	0.296	-0.138	
7.190	-0.233	-0.092	
7.195	-0.339	-0.076	
7.200	0.283	-0.083	
7.205	-0.027	-0.062	
7.210	-0.384	-0.047	
7.215	-0.006	-0.068	
7.220	0.200	-0.075	
7.225	-0.348	-0.063	
7.230	-0.201	-0.077	
7.235	0.329	-0.089	
7.240	-0.166	-0.065	
7.245	-0.252	-0.053	
7.250	0.375	-0.051	
7.255	0.093	-0.013	
7.260	-0.299	0.020	
7.265	0.151	0.016	
7.270	0.317	0.026	
7.275	-0.285	0.049	
7.280	-0.162	0.032	
7.285	0.296	0.004	
7.290	-0.241	-0.002	
7.295	-0.377	-0.031	
7.300	0.143	-0.078	
7.305	-0.096	-0.096	
7.310	-0.424	-0.109	
7.315	-0.061	-0.141	
7.320	0.102	-0.152	
7.325	-0.404	-0.141	
7.330	-0.268	-0.155	
7.335	0.146	-0.169	
7.340	-0.293	-0.158	
7.345	-0.393	-0.161	
7.350	0.093	-0.179	
7.355	-0.105	-0.169	
7.360	-0.445	-0.159	
7.365	-0.127	-0.176	
7.370	-0.020	-0.186	
7.375	-0.467	-0.185	
7.380	-0.337	-0.210	
7.385	0.018	-0.235	
7.390	-0.367	-0.235	
7.395	-0.477	-0.247	
7.400	-0.075	-0.271	
7.405	-0.213	-0.272	
7.410	-0.521	-0.270	
7.415	-0.175	-0.285	
7.420	-0.044	-0.282	
7.425	-0.476	-0.262	
7.430	-0.358	-0.267	
7.435	0.024	-0.274	
7.440	-0.342	-0.257	
7.445	-0.456	-0.252	
7.450	-0.021	-0.262	
7.455	-0.224	-0.252	
7.460	-0.543	-0.248	
7.465	-0.177	-0.268	
7.470	0.052	-0.268	
7.475	-0.339	-0.237	
7.480	-0.142	-0.214	
7.485	0.367	-0.175	
7.490	-0.229	-0.106	
7.495	-0.389	-0.075	
7.500	-0.040	-0.094	
7.505	-0.268	-0.120	
7.510	-0.582	-0.164	
7.515	-0.238	-0.233	
7.520	-0.099	-0.277	
7.525	-0.474	-0.289	
7.530	-0.314	-0.305	
7.535	0.152	-0.300	
7.540	-0.279	-0.256	
7.545	-0.381	-0.223	
7.550	0.172	-0.206	
7.555	-0.064	-0.164	
7.560	-0.395	-0.129	
7.565	-0.027	-0.129	
7.570	0.158	-0.119	
7.575	-0.370	-0.095	
7.580	-0.207	-0.103	
7.585	0.262	-0.112	
7.590	-0.261	-0.093	
7.595	-0.360	-0.095	
7.600	0.230	-0.113	
7.605	-0.015	-0.097	
7.610	-0.351	-0.078	
7.615	0.059	-0.085	
7.620	0.206	-0.074	
7.625	-0.326	-0.048	
7.630	-0.162	-0.055	
7.635	0.393	-0.060	
7.640	-0.191	-0.031	
7.645	-0.331	-0.026	
7.650	0.235	-0.047	
7.655	-0.058	-0.045	
7.660	-0.393	-0.049	
7.665	-0.002	-0.080	
7.670	0.142	-0.093	
7.675	-0.406	-0.088	
7.680	-0.273	-0.112	
7.685	0.183	-0.139	
7.690	-0.282	-0.135	
7.695	-0.392	-0.144	
7.700	0.133	-0.165	
7.705	-0.090	-0.155	
7.710	-0.439	-0.144	
7.715	-0.069	-0.159	
7.720	0.070	-0.161	
7.725	-0.407	-0.148	
7.730	-0.233	-0.159	
7.735	0.194	-0.167	
7.740	-0.322	-0.147	
7.745	-0.436	-0.152	
7.750	0.026	-0.180	
7.755	-0.174	-0.186	
7.760	-0.479	-0.192	
7.765	-0.107	-0.216	
7.770	-0.006	-0.221	
7.775	-0.473	-0.209	
7.780	-0.349	-0.225	
7.785	0.023	-0.244	
7.790	-0.386	-0.241	
7.795	-0.486	-0.251	
7.800	-0.018	-0.274	
7.805	-0.200	-0.268	
7.810	-0.523	-0.259	
7.815	-0.182	-0.272	
7.820	-0.064	-0.273	
7.825	-0.465	-0.258	
7.830	-0.332	-0.265	
7.835	0.041	-0.269	
7.840	-0.337	-0.249	
7.845	-0.389	-0.240	
7.850	0.288	-0.230	
7.855	0.043	-0.171	
7.860	-0.377	-0.111	
7.865	-0.038	-0.096	
7.870	0.017	-0.091	
7.875	-0.506	-0.095	
7.880	-0.410	-0.144	
7.885	-0.060	-0.206	
7.890	-0.393	-0.241	
7.895	-0.459	-0.274	
7.900	0.050	-0.298	
7.905	-0.169	-0.279	
7.910	-0.474	-0.253	
7.915	-0.070	-0.249	
7.920	0.136	-0.223	
7.925	-0.381	-0.177	
7.930	-0.212	-0.161	
7.935	0.300	-0.146	
7.940	-0.236	-0.105	
7.945	-0.340	-0.089	
7.950	0.233	-0.096	
7.955	-0.024	-0.077	
7.960	-0.363	-0.062	
7.965	0.104	-0.073	
7.970	0.306	-0.058	
7.975	-0.305	-0.021	
7.980	-0.154	-0.020	
7.985	0.424	-0.024	
7.990	-0.149	0.003	
7.995	-0.242	0.010	
8.000	0.421	0.002	
8.005	0.096	0.030	
8.010	-0.297	0.053	
8.015	0.236	0.042	
8.020	0.378	0.054	
8.025	-0.299	0.083	
8.030	-0.145	0.064	
8.035	0.419	0.036	
8.040	-0.172	0.039	
8.045	-0.288	0.024	
8.050	0.332	-0.008	
8.055	0.055	-0.002	
8.060	-0.323	0.007	
8.065	0.107	-0.012	
8.070	0.261	-0.013	
8.075	-0.302	0.005	
8.080	-0.114	-0.009	
8.085	0.437	-0.018	
8.090	-0.163	0.008	
8.095	-0.293	0.011	
8.100	0.344	-0.008	
8.105	0.049	0.005	
8.110	-0.340	0.015	
8.115	0.143	-0.006	
8.120	0.287	-0.004	
8.125	-0.335	0.015	
8.130	-0.189	-0.005	
8.135	0.334	-0.031	
8.140	-0.249	-0.028	
8.145	-0.331	-0.044	
8.150	0.296	-0.072	
8.155	0.004	-0.060	
8.160	-0.369	-0.046	
8.165	0.026	-0.064	
8.170	0.212	-0.065	
8.175	-0.351	-0.049	
8.180	-0.188	-0.064	
8.185	0.299	-0.079	
8.190	-0.255	-0.064	
8.195	-0.352	-0.071	
8.200	0.239	-0.095	
8.205	-0.023	-0.084	
8.210	-0.328	-0.070	
8.215	0.265	-0.069	
8.220	0.529	-0.022	
8.225	-0.207	0.057	
8.230	-0.076	0.087	
8.235	0.363	0.086	
8.240	-0.268	0.087	
8.245	-0.390	0.045	
8.250	0.142	-0.025	
8.255	-0.102	-0.065	
8.260	-0.392	-0.094	
8.265	0.101	-0.127	
8.270	0.315	-0.114	
8.275	-0.293	-0.066	
8.280	-0.102	-0.048	
8.285	0.486	-0.030	
8.290	-0.114	0.019	
8.295	-0.215	0.041	
8.300	0.480	0.042	
8.305	0.136	0.075	
8.310	-0.279	0.099	
8.315	0.285	0.087	
8.320	0.421	0.097	
8.325	-0.242	0.125	
8.330	-0.027	0.112	
8.335	0.587	0.098	
8.340	-0.078	0.122	
8.345	-0.204	0.122	
8.350	0.550	0.102	
8.355	0.288	0.129	
8.360	-0.182	0.161	
8.365	0.439	0.164	
8.370	0.611	0.196	
8.375	-0.133	0.246	
8.380	0.119	0.246	
8.385	0.677	0.237	
8.390	-0.009	0.257	
8.395	-0.146	0.242	
8.400	0.570	0.203	
8.405	0.194	0.201	
8.410	-0.271	0.194	
8.415	0.288	0.153	
8.420	0.424	0.137	
8.425	-0.256	0.145	
8.430	-0.093	0.114	
8.435	0.399	0.075	
8.440	-0.175	0.067	
8.445	-0.252	0.041	
8.450	0.441	0.010	
8.455	0.154	0.029	
8.460	-0.287	0.054	
8.465	0.198	0.046	
8.470	0.319	0.054	
8.475	-0.305	0.072	
8.480	-0.134	0.048	
8.485	0.381	0.018	
8.490	-0.191	0.021	
8.495	-0.300	0.004	
8.500	0.319	-0.027	
8.505	-0.008	-0.022	
8.510	-0.366	-0.018	
8.515	0.079	-0.043	
8.520	0.242	-0.046	
8.525	-0.363	-0.030	
8.530	-0.195	-0.048	
8.535	0.305	-0.068	
8.540	-0.247	-0.058	
8.545	-0.326	-0.066	
8.550	0.279	-0.087	
8.555	-0.021	-0.071	
8.560	-0.363	-0.056	
8.565	0.133	-0.067	
8.570	0.390	-0.046	
8.575	-0.220	0.004	
8.580	0.029	0.028	
8.585	0.579	0.053	
8.590	-0.151	0.104	
8.595	-0.322	0.107	
8.600	0.140	0.059	
8.605	-0.185	0.014	
8.610	-0.477	-0.043	
8.615	-0.040	-0.118	
8.620	0.218	-0.148	
8.625	-0.316	-0.132	
8.630	-0.133	-0.125	
8.635	0.430	-0.106	
8.640	-0.139	-0.049	
8.645	-0.220	-0.016	
8.650	0.485	-0.000	
8.655	0.155	0.049	
8.660	-0.256	0.089	
8.665	0.302	0.090	
8.670	0.450	0.110	
8.675	-0.221	0.145	
8.680	-0.018	0.135	
8.685	0.562	0.119	
8.690	-0.092	0.136	
8.695	-0.175	0.129	
8.700	0.594	0.109	
8.705	0.287	0.138	
8.710	-0.201	0.172	
8.715	0.415	0.171	
8.720	0.588	0.195	
8.725	-0.133	0.238	
8.730	0.143	0.237	
8.735	0.724	0.233	
8.740	0.055	0.264	
8.745	-0.108	0.264	
8.750	0.628	0.237	
8.755	0.256	0.245	
8.760	-0.227	0.245	
8.765	0.332	0.207	
8.770	0.418	0.189	
8.775	-0.253	0.187	
8.780	-0.056	0.146	
8.785	0.529	0.106	
8.790	-0.136	0.106	
8.795	-0.249	0.088	
8.800	0.413	0.052	
8.805	0.107	0.056	
8.810	-0.300	0.063	
8.815	0.187	0.041	
8.820	0.311	0.040	
8.825	-0.314	0.055	
8.830	-0.131	0.032	
8.835	0.386	0.005	
8.840	-0.209	0.011	
8.845	-0.296	-0.003	
8.850	0.293	-0.033	
8.855	-0.046	-0.030	
8.860	-0.366	-0.031	
8.865	0.076	-0.058	
8.870	0.186	-0.062	
8.875	-0.366	-0.049	
8.880	-0.191	-0.067	
8.885	0.323	-0.083	
8.890	-0.232	-0.066	
8.895	-0.311	-0.066	
8.900	0.280	-0.080	
8.905	-0.075	-0.064	
8.910	-0.389	-0.057	
8.915	0.059	-0.079	
8.920	0.195	-0.079	
8.925	-0.354	-0.060	
8.930	-0.168	-0.071	
8.935	0.408	-0.076	
8.940	-0.124	-0.040	
8.945	-0.168	-0.016	
8.950	0.559	0.004	
8.955	0.139	0.063	
8.960	-0.358	0.103	
8.965	-0.052	0.074	
8.970	-0.023	0.024	
8.975	-0.456	-0.031	
8.980	-0.264	-0.107	
8.985	0.244	-0.159	
8.990	-0.224	-0.155	
8.995	-0.259	-0.146	
9.000	0.444	-0.129	
9.005	0.163	-0.060	
9.010	-0.250	0.009	
9.015	0.314	0.040	
9.020	0.437	0.086	
9.025	-0.229	0.137	
9.030	-0.011	0.135	
9.035	0.541	0.123	
9.040	-0.119	0.138	
9.045	-0.203	0.125	
9.050	0.537	0.096	
9.055	0.224	0.114	
9.060	-0.235	0.137	
9.065	0.344	0.127	
9.070	0.549	0.145	
9.075	-0.160	0.187	
9.080	0.111	0.188	
9.085	0.697	0.189	
9.090	0.012	0.225	
9.095	-0.120	0.228	
9.100	0.658	0.208	
9.105	0.297	0.228	
9.110	-0.197	0.245	
9.115	0.412	0.223	
9.120	0.534	0.224	
9.125	-0.191	0.243	
9.130	0.000	0.214	
9.135	0.561	0.178	
9.140	-0.105	0.174	
9.145	-0.194	0.147	
9.150	0.501	0.107	
9.155	0.134	0.111	
9.160	-0.276	0.116	
9.165	0.274	0.090	
9.170	0.450	0.094	
9.175	-0.230	0.122	
9.180	-0.023	0.112	
9.185	0.588	0.101	
9.190	-0.104	0.125	
9.195	-0.227	0.121	
9.200	0.448	0.092	
9.205	0.125	0.097	
9.210	-0.303	0.100	
9.215	0.200	0.070	
9.220	0.271	0.059	
9.225	-0.314	0.063	
9.230	-0.113	0.031	
9.235	0.413	0.004	
9.240	-0.198	0.014	
9.245	-0.293	0.003	
9.250	0.312	-0.024	
9.255	0.037	-0.016	
9.260	-0.320	-0.006	
9.265	0.145	-0.022	
9.270	0.280	-0.013	
9.275	-0.299	0.012	
9.280	-0.111	0.002	
9.285	0.396	-0.009	
9.290	-0.224	0.009	
9.295	-0.311	-0.001	
9.300	0.404	-0.026	
9.305	0.213	-0.001	
9.310	-0.168	0.042	
9.315	0.483	0.072	
9.320	0.535	0.135	
9.325	-0.277	0.200	
9.330	-0.198	0.185	
9.335	0.172	0.120	
9.340	-0.320	0.058	
9.345	-0.364	-0.021	
9.350	0.308	-0.091	
9.355	0.061	-0.094	
9.360	-0.294	-0.072	
9.365	0.258	-0.060	
9.370	0.442	-0.013	
9.375	-0.217	0.056	
9.380	0.004	0.080	
9.385	0.569	0.093	
9.390	-0.075	0.132	
9.395	-0.165	0.138	
9.400	0.613	0.126	
9.405	0.262	0.157	
9.410	-0.224	0.186	
9.415	0.380	0.175	
9.420	0.575	0.188	
9.425	-0.149	0.224	
9.430	0.134	0.219	
9.435	0.732	0.215	
9.440	0.062	0.250	
9.445	-0.050	0.259	
9.450	0.768	0.249	
9.455	0.480	0.289	
9.460	-0.085	0.331	
9.465	0.588	0.332	
9.470	0.747	0.356	
9.475	-0.084	0.394	
9.480	0.178	0.375	
9.485	0.739	0.343	
9.490	-0.020	0.340	
9.495	-0.159	0.300	
9.500	0.562	0.236	
9.505	0.230	0.216	
9.510	-0.232	0.203	
9.515	0.335	0.163	
9.520	0.462	0.156	
9.525	-0.206	0.172	
9.530	0.014	0.151	
9.535	0.619	0.133	
9.540	-0.066	0.154	
9.545	-0.166	0.151	
9.550	0.569	0.130	
9.555	0.209	0.150	
9.560	-0.264	0.165	
9.565	0.288	0.141	
9.570	0.436	0.137	
9.575	-0.246	0.153	
9.580	-0.089	0.125	
9.585	0.441	0.090	
9.590	-0.180	0.084	
9.595	-0.270	0.057	
9.600	0.376	0.017	
9.605	-0.041	0.015	
9.610	-0.438	0.004	
9.615	-0.084	-0.048	
9.620	0.004	-0.092	
9.625	-0.453	-0.121	
9.630	-0.288	-0.168	
9.635	0.108	-0.203	
9.640	-0.339	-0.201	
9.645	-0.415	-0.209	
9.650	0.072	-0.224	
9.655	-0.168	-0.211	
9.660	-0.454	-0.199	
9.665	-0.024	-0.207	
9.670	0.206	-0.186	
9.675	-0.302	-0.138	
9.680	-0.093	-0.111	
9.685	0.419	-0.081	
9.690	-0.229	-0.027	
9.695	-0.396	-0.016	
9.700	-0.006	-0.055	
9.705	-0.256	-0.094	
9.710	-0.557	-0.146	
9.715	-0.163	-0.215	
9.720	0.000	-0.250	
9.725	-0.421	-0.248	
9.730	-0.220	-0.250	
9.735	0.319	-0.230	
9.740	-0.215	-0.169	
9.745	-0.291	-0.126	
9.750	0.348	-0.102	
9.755	0.058	-0.050	
9.760	-0.297	-0.008	
9.765	0.221	-0.000	
9.770	0.376	0.028	
9.775	-0.256	0.069	
9.780	-0.060	0.068	
9.785	0.506	0.061	
9.790	-0.136	0.084	
9.795	-0.215	0.081	
9.800	0.543	0.063	
9.805	0.247	0.094	
9.810	-0.204	0.131	
9.815	0.445	0.137	
9.820	0.649	0.177	
9.825	-0.110	0.239	
9.830	0.198	0.255	
9.835	0.815	0.266	
9.840	0.102	0.312	
9.845	-0.075	0.320	
9.850	0.751	0.298	
9.855	0.395	0.316	
9.860	-0.172	0.330	
9.865	0.404	0.297	
9.870	0.527	0.279	
9.875	-0.194	0.277	
9.880	0.012	0.232	
9.885	0.598	0.187	
9.890	-0.063	0.183	
9.895	-0.185	0.161	
9.900	0.532	0.125	
9.905	0.268	0.137	
9.910	-0.220	0.157	
9.915	0.320	0.144	
9.920	0.472	0.153	
9.925	-0.223	0.177	
9.930	-0.041	0.156	
9.935	0.521	0.126	
9.940	-0.117	0.129	
9.945	-0.230	0.110	
9.950	0.437	0.073	
9.955	0.088	0.076	
9.960	-0.325	0.076	
9.965	0.174	0.045	
9.970	0.312	0.036	
9.975	-0.302	0.048	
9.980	-0.119	0.026	
9.985	0.412	0.005	
9.990	-0.175	0.018	
9.995	-0.274	0.011	
10.000	0.381	-0.010	
10.005	0.087	0.008	
10.010	-0.303	0.027	
10.015	0.172	0.015	
10.020	0.322	0.023	
10.025	-0.296	0.047	
10.030	-0.119	0.032	
10.035	0.465	0.016	
10.040	-0.116	0.037	
10.045	-0.154	0.044	
10.050	0.706	0.052	
10.055	0.407	0.124	
10.060	-0.169	0.198	
10.065	0.314	0.216	
10.070	0.338	0.222	
10.075	-0.326	0.214	
10.080	-0.180	0.148	
10.085	0.343	0.072	
10.090	-0.213	0.035	
10.095	-0.267	-0.006	
10.100	0.412	-0.040	
10.105	0.125	-0.018	
10.110	-0.246	0.015	
10.115	0.352	0.028	
10.120	0.523	0.074	
10.125	-0.201	0.139	
10.130	0.024	0.151	
10.135	0.633	0.152	
10.140	-0.029	0.182	
10.145	-0.137	0.184	
10.150	0.616	0.165	
10.155	0.282	0.189	
10.160	-0.180	0.212	
10.165	0.434	0.200	
10.170	0.601	0.217	
10.175	-0.157	0.254	
10.180	0.065	0.241	
10.185	0.695	0.221	
10.190	0.058	0.240	
10.195	-0.056	0.240	
10.200	0.805	0.231	
10.205	0.472	0.277	
10.210	-0.111	0.324	
10.215	0.532	0.323	
10.220	0.697	0.340	
10.225	-0.105	0.369	
10.230	0.155	0.345	
10.235	0.712	0.312	
10.240	-0.003	0.311	
10.245	-0.128	0.279	
10.250	0.631	0.230	
10.255	0.274	0.228	
10.260	-0.201	0.230	
10.265	0.384	0.200	
10.270	0.509	0.199	
10.275	-0.215	0.216	
10.280	0.023	0.189	
10.285	0.594	0.161	
10.290	-0.087	0.169	
10.295	-0.182	0.153	
10.300	0.538	0.121	
10.305	0.207	0.134	
10.310	-0.256	0.147	
10.315	0.261	0.125	
10.320	0.381	0.121	
10.325	-0.265	0.131	
10.330	-0.084	0.101	
10.335	0.488	0.071	
10.340	-0.153	0.076	
10.345	-0.259	0.062	
10.350	0.383	0.030	
10.355	0.056	0.035	
10.360	-0.317	0.039	
10.365	0.166	0.015	
10.370	0.309	0.015	
10.375	-0.308	0.034	
10.380	-0.148	0.017	
10.385	0.325	-0.008	
10.390	-0.220	-0.006	
10.395	-0.328	-0.024	
10.400	0.276	-0.056	
10.405	0.008	-0.051	
10.410	-0.303	-0.040	
10.415	0.268	-0.042	
10.420	0.469	-0.003	
10.425	-0.235	0.062	
10.430	-0.111	0.077	
10.435	0.314	0.064	
10.440	-0.294	0.056	
10.445	-0.438	0.008	
10.450	0.012	-0.070	
10.455	-0.171	-0.122	
10.460	-0.430	-0.160	
10.465	0.032	-0.196	
10.470	0.230	-0.183	
10.475	-0.320	-0.135	
10.480	-0.153	-0.113	
10.485	0.346	-0.094	
10.490	-0.215	-0.052	
10.495	-0.291	-0.039	
10.500	0.328	-0.047	
10.505	-0.024	-0.027	
10.510	-0.361	-0.016	
10.515	0.070	-0.039	
10.520	0.241	-0.042	
10.525	-0.313	-0.025	
10.530	-0.124	-0.035	
10.535	0.372	-0.042	
10.540	-0.206	-0.019	
10.545	-0.264	-0.018	
10.550	0.392	-0.030	
10.555	0.081	-0.003	
10.560	-0.284	0.024	
10.565	0.251	0.021	
10.570	0.384	0.044	
10.575	-0.259	0.082	
10.580	-0.060	0.077	
10.585	0.451	0.063	
10.590	-0.197	0.075	
10.595	-0.296	0.056	
10.600	0.283	0.013	
10.605	-0.076	-0.002	
10.610	-0.419	-0.022	
10.615	-0.020	-0.071	
10.620	0.125	-0.097	
10.625	-0.383	-0.099	
10.630	-0.220	-0.122	
10.635	0.216	-0.138	
10.640	-0.285	-0.124	
10.645	-0.374	-0.128	
10.650	0.160	-0.146	
10.655	-0.107	-0.136	
10.660	-0.409	-0.127	
10.665	-0.006	-0.142	
10.670	0.091	-0.138	
10.675	-0.416	-0.122	
10.680	-0.258	-0.138	
10.685	0.117	-0.158	
10.690	-0.339	-0.155	
10.695	-0.416	-0.170	
10.700	0.041	-0.198	
10.705	-0.188	-0.200	
10.710	-0.477	-0.201	
10.715	-0.084	-0.221	
10.720	0.011	-0.219	
10.725	-0.460	-0.202	
10.730	-0.310	-0.213	
10.735	0.050	-0.226	
10.740	-0.358	-0.217	
10.745	-0.430	-0.223	
10.750	0.032	-0.240	
10.755	-0.206	-0.230	
10.760	-0.514	-0.224	
10.765	-0.156	-0.244	
10.770	-0.075	-0.250	
10.775	-0.474	-0.243	
10.780	-0.253	-0.253	
10.785	0.262	-0.245	
10.790	-0.268	-0.196	
10.795	-0.383	-0.165	
10.800	0.008	-0.167	
10.805	-0.285	-0.168	
10.810	-0.616	-0.191	
10.815	-0.265	-0.250	
10.820	-0.148	-0.292	
10.825	-0.509	-0.308	
10.830	-0.291	-0.327	
10.835	0.151	-0.319	
10.840	-0.313	-0.270	
10.845	-0.393	-0.236	
10.850	0.165	-0.219	
10.855	-0.105	-0.178	
10.860	-0.418	-0.147	
10.865	-0.026	-0.149	
10.870	0.090	-0.140	
10.875	-0.386	-0.120	
10.880	-0.206	-0.129	
10.885	0.297	-0.133	
10.890	-0.230	-0.103	
10.895	-0.297	-0.091	
10.900	0.343	-0.090	
10.905	0.000	-0.055	
10.910	-0.331	-0.027	
10.915	0.232	-0.028	
10.920	0.407	0.001	
10.925	-0.238	0.053	
10.930	-0.031	0.064	
10.935	0.552	0.069	
10.940	-0.128	0.103	
10.945	-0.229	0.103	
10.950	0.474	0.079	
10.955	0.148	0.093	
10.960	-0.279	0.105	
10.965	0.218	0.083	
10.970	0.320	0.079	
10.975	-0.314	0.087	
10.980	-0.145	0.054	
10.985	0.364	0.017	
10.990	-0.207	0.013	
10.995	-0.288	-0.007	
11.000	0.348	-0.036	
11.005	-0.005	-0.025	
11.010	-0.363	-0.016	
11.015	0.116	-0.037	
11.020	0.285	-0.033	
11.025	-0.317	-0.008	
11.030	-0.146	-0.018	
11.035	0.343	-0.031	
11.040	-0.209	-0.017	
11.045	-0.306	-0.024	
11.050	0.293	-0.048	
11.055	-0.037	-0.039	
11.060	-0.377	-0.035	
11.065	0.023	-0.062	
11.070	0.126	-0.073	
11.075	-0.401	-0.071	
11.080	-0.238	-0.099	
11.085	0.152	-0.128	
11.090	-0.337	-0.131	
11.095	-0.422	-0.152	
11.100	0.088	-0.185	
11.105	-0.159	-0.185	
11.110	-0.488	-0.184	
11.115	-0.110	-0.207	
11.120	-0.008	-0.213	
11.125	-0.459	-0.204	
11.130	-0.313	-0.219	
11.135	-0.008	-0.236	
11.140	-0.390	-0.234	
11.145	-0.462	-0.248	
11.150	0.116	-0.264	
11.155	-0.021	-0.235	
11.160	-0.294	-0.187	
11.165	0.204	-0.148	
11.170	0.178	-0.088	
11.175	-0.456	-0.037	
11.180	-0.360	-0.056	
11.185	-0.070	-0.112	
11.190	-0.419	-0.162	
11.195	-0.439	-0.218	
11.200	0.101	-0.261	
11.205	-0.095	-0.249	
11.210	-0.364	-0.218	
11.215	0.119	-0.195	
11.220	0.274	-0.141	
11.225	-0.320	-0.072	
11.230	-0.125	-0.048	
11.235	0.450	-0.033	
11.240	-0.163	0.009	
11.245	-0.267	0.021	
11.250	0.386	0.009	
11.255	0.061	0.027	
11.260	-0.325	0.040	
11.265	0.244	0.023	
11.270	0.421	0.037	
11.275	-0.232	0.077	
11.280	0.000	0.080	
11.285	0.616	0.085	
11.290	0.003	0.128	
11.295	0.085	0.159	
11.300	0.852	0.192	
11.305	0.433	0.275	
11.310	-0.156	0.337	
11.315	0.430	0.331	
11.320	0.534	0.324	
11.325	-0.203	0.321	
11.330	0.000	0.266	
11.335	0.500	0.203	
11.340	-0.165	0.174	
11.345	-0.285	0.122	
11.350	0.355	0.056	
11.355	0.032	0.035	
11.360	-0.303	0.023	
11.365	0.183	-0.005	
11.370	0.337	0.001	
11.375	-0.277	0.030	
11.380	-0.058	0.026	
11.385	0.454	0.022	
11.390	-0.169	0.048	
11.395	-0.271	0.044	
11.400	0.351	0.018	
11.405	0.040	0.023	
11.410	-0.322	0.026	
11.415	0.155	0.002	
11.420	0.276	0.002	
11.425	-0.352	0.018	
11.430	-0.177	-0.005	
11.435	0.348	-0.032	
11.440	-0.230	-0.026	
11.445	-0.319	-0.039	
11.450	0.274	-0.065	
11.455	-0.063	-0.058	
11.460	-0.364	-0.054	
11.465	0.049	-0.076	
11.470	0.201	-0.076	
11.475	-0.346	-0.057	
11.480	-0.178	-0.068	
11.485	0.255	-0.082	
11.490	-0.259	-0.070	
11.495	-0.305	-0.078	
11.500	0.309	-0.093	
11.505	-0.035	-0.070	
11.510	-0.363	-0.052	
11.515	0.050	-0.066	
11.520	0.244	-0.062	
11.525	-0.299	-0.037	
11.530	-0.060	-0.037	
11.535	0.654	-0.020	
11.540	-0.034	0.049	
11.545	-0.182	0.092	
11.550	0.431	0.098	
11.555	0.000	0.114	
11.560	-0.392	0.103	
11.565	-0.044	0.040	
11.570	0.116	-0.015	
11.575	-0.367	-0.048	
11.580	-0.140	-0.090	
11.585	0.451	-0.103	
11.590	-0.145	-0.062	
11.595	-0.224	-0.033	
11.600	0.517	-0.017	
11.605	0.197	0.041	
11.610	-0.238	0.093	
11.615	0.311	0.103	
11.620	0.491	0.129	
11.625	-0.201	0.168	
11.630	0.047	0.163	
11.635	0.604	0.153	
11.640	-0.063	0.175	
11.645	-0.145	0.169	
11.650	0.555	0.144	
11.655	0.251	0.161	
11.660	-0.210	0.179	
11.665	0.380	0.165	
11.670	0.530	0.177	
11.675	-0.168	0.209	
11.680	0.142	0.202	
11.685	0.733	0.200	
11.690	0.043	0.238	
11.695	-0.116	0.246	
11.700	0.630	0.224	
11.705	0.265	0.237	
11.710	-0.218	0.243	
11.715	0.361	0.210	
11.720	0.498	0.201	
11.725	-0.215	0.213	
11.730	-0.018	0.181	
11.735	0.555	0.146	
11.740	-0.117	0.147	
11.745	-0.227	0.125	
11.750	0.444	0.085	
11.755	0.105	0.085	
11.760	-0.287	0.086	
11.765	0.200	0.058	
11.770	0.305	0.053	
11.775	-0.313	0.064	
11.780	-0.110	0.037	
11.785	0.421	0.012	
11.790	-0.192	0.023	
11.795	-0.279	0.012	
11.800	0.322	-0.015	
11.805	0.000	-0.009	
11.810	-0.351	-0.005	
11.815	0.084	-0.031	
11.820	0.248	-0.035	
11.825	-0.342	-0.020	
11.830	-0.180	-0.037	
11.835	0.335	-0.055	
11.840	-0.241	-0.043	
11.845	-0.375	-0.053	
11.850	0.183	-0.085	
11.855	-0.105	-0.091	
11.860	-0.424	-0.098	
11.865	-0.034	-0.128	
11.870	0.128	-0.137	
11.875	-0.369	-0.122	
11.880	-0.195	-0.130	
11.885	0.265	-0.132	
11.890	-0.273	-0.106	
11.895	-0.375	-0.104	
11.900	0.203	-0.122	
11.905	-0.026	-0.108	
11.910	-0.328	-0.089	
11.915	0.223	-0.085	
11.920	0.354	-0.045	
11.925	-0.313	0.011	
11.930	-0.178	0.016	
11.935	0.192	-0.007	
11.940	-0.348	-0.023	
11.945	-0.451	-0.071	
11.950	0.035	-0.137	
11.955	-0.157	-0.170	
11.960	-0.435	-0.187	
11.965	0.055	-0.206	
11.970	0.259	-0.180	
11.975	-0.332	-0.123	
11.980	-0.156	-0.098	
11.985	0.351	-0.082	
11.990	-0.204	-0.042	
11.995	-0.294	-0.032	
12.000	0.317	-0.042	
12.005	-0.021	-0.025	
12.010	-0.357	-0.016	
12.015	0.158	-0.035	
12.020	0.317	-0.025	
12.025	-0.306	0.007	
12.030	-0.110	0.002	
12.035	0.436	-0.004	
12.040	-0.156	0.021	
12.045	-0.236	0.025	
12.050	0.482	0.015	
12.055	0.227	0.052	
12.060	-0.221	0.093	
12.065	0.369	0.103	
12.070	0.512	0.137	
12.075	-0.198	0.183	
12.080	0.026	0.179	
12.085	0.550	0.162	
12.090	-0.120	0.170	
12.095	-0.221	0.147	
12.100	0.457	0.104	
12.105	0.102	0.100	
12.110	-0.288	0.097	
12.115	0.245	0.067	
12.120	0.326	0.064	
12.125	-0.274	0.080	
12.130	-0.087	0.058	
12.135	0.441	0.037	
12.140	-0.153	0.049	
12.145	-0.249	0.041	
12.150	0.445	0.020	
12.155	0.134	0.041	
12.160	-0.284	0.064	
12.165	0.238	0.055	
12.170	0.402	0.067	
12.175	-0.253	0.097	
12.180	-0.056	0.087	
12.185	0.456	0.070	
12.190	-0.178	0.080	
12.195	-0.273	0.062	
12.200	0.337	0.024	
12.205	0.021	0.020	
12.210	-0.345	0.016	
12.215	0.160	-0.012	
12.220	0.334	-0.010	
12.225	-0.302	0.018	
12.230	-0.145	0.009	
12.235	0.348	-0.009	
12.240	-0.223	-0.000	
12.245	-0.290	-0.014	
12.250	0.349	-0.039	
12.255	0.003	-0.025	
12.260	-0.354	-0.014	
12.265	0.052	-0.036	
12.270	0.198	-0.042	
12.275	-0.329	-0.032	
12.280	-0.085	-0.047	
12.285	0.575	-0.042	
12.290	-0.017	0.017	
12.295	-0.116	0.062	
12.300	0.573	0.088	
12.305	0.110	0.137	
12.310	-0.348	0.156	
12.315	0.009	0.110	
12.320	0.102	0.057	
12.325	-0.401	0.011	
12.330	-0.209	-0.055	
12.335	0.354	-0.099	
12.340	-0.174	-0.087	
12.345	-0.233	-0.076	
12.350	0.459	-0.065	
12.355	0.111	-0.011	
12.360	-0.300	0.036	
12.365	0.201	0.038	
12.370	0.294	0.051	
12.375	-0.291	0.071	
12.380	-0.089	0.050	
12.385	0.460	0.030	
12.390	-0.149	0.046	
12.395	-0.226	0.043	
12.400	0.474	0.027	
12.405	0.125	0.054	
12.410	-0.268	0.078	
12.415	0.343	0.072	
12.420	0.497	0.098	
12.425	-0.180	0.146	
12.430	0.084	0.153	
12.435	0.634	0.157	
12.440	-0.044	0.190	
12.445	-0.131	0.190	
12.450	0.628	0.170	
12.455	0.297	0.195	
12.460	-0.204	0.218	
12.465	0.351	0.200	
12.470	0.451	0.198	
12.475	-0.235	0.207	
12.480	-0.044	0.171	
12.485	0.469	0.128	
12.490	-0.172	0.117	
12.495	-0.252	0.084	
12.500	0.436	0.041	
12.505	0.139	0.047	
12.510	-0.264	0.063	
12.515	0.235	0.051	
12.520	0.340	0.062	
12.525	-0.337	0.082	
12.530	-0.326	0.046	
12.535	-0.178	-0.034	
12.540	-0.598	-0.126	
12.545	-0.706	-0.244	
12.550	-0.340	-0.365	
12.555	-0.511	-0.445	
12.560	-0.779	-0.501	
12.565	-0.445	-0.552	
12.570	-0.386	-0.570	
12.575	-0.753	-0.565	
12.580	-0.572	-0.571	
12.585	-0.282	-0.570	
12.590	-0.593	-0.544	
12.595	-0.656	-0.528	
12.600	-0.274	-0.524	
12.605	-0.425	-0.500	
12.610	-0.675	-0.479	
12.615	-0.335	-0.478	
12.620	-0.262	-0.463	
12.625	-0.610	-0.439	
12.630	-0.422	-0.433	
12.635	-0.119	-0.423	
12.640	-0.457	-0.392	
12.645	-0.489	-0.374	
12.650	-0.008	-0.363	
12.655	-0.168	-0.322	
12.660	-0.381	-0.275	
12.665	0.184	-0.236	
12.670	0.273	-0.161	
12.675	-0.342	-0.077	
12.680	-0.230	-0.051	
12.685	0.017	-0.065	
12.690	-0.424	-0.088	
12.695	-0.483	-0.144	
12.700	0.000	-0.209	
12.705	-0.136	-0.231	
12.710	-0.381	-0.229	
12.715	0.151	-0.221	
12.720	0.276	-0.167	
12.725	-0.288	-0.090	
12.730	-0.053	-0.052	
12.735	0.508	-0.019	
12.740	-0.110	0.040	
12.745	-0.165	0.068	
12.750	0.558	0.074	
12.755	0.218	0.118	
12.760	-0.197	0.154	
12.765	0.433	0.155	
12.770	0.569	0.184	
12.775	-0.143	0.231	
12.780	0.190	0.232	
12.785	0.748	0.236	
12.790	0.052	0.274	
12.795	-0.058	0.279	
12.800	0.713	0.260	
12.805	0.366	0.283	
12.810	-0.104	0.304	
12.815	0.605	0.293	
12.820	0.756	0.320	
12.825	0.021	0.372	
12.830	0.363	0.383	
12.835	0.831	0.391	
12.840	0.113	0.421	
12.845	-0.041	0.405	
12.850	0.706	0.356	
12.855	0.346	0.346	
12.860	-0.142	0.335	
12.865	0.468	0.292	
12.870	0.526	0.278	
12.875	-0.166	0.282	
12.880	0.087	0.245	
12.885	0.590	0.209	
12.890	-0.075	0.208	
12.895	-0.221	0.179	
12.900	0.274	0.121	
12.905	-0.078	0.081	
12.910	-0.331	0.037	
12.915	0.136	-0.019	
12.920	0.247	-0.035	
12.925	-0.265	-0.019	
12.930	-0.041	-0.023	
12.935	0.439	-0.016	
12.940	-0.130	0.022	
12.945	-0.188	0.037	
12.950	0.419	0.033	
12.955	0.099	0.060	
12.960	-0.238	0.080	
12.965	0.300	0.071	
12.970	0.340	0.086	
12.975	-0.244	0.112	
12.980	-0.035	0.095	
12.985	0.369	0.072	
12.990	-0.188	0.071	
12.995	-0.220	0.047	
13.000	0.413	0.017	
13.005	0.094	0.031	
13.010	-0.233	0.049	
13.015	0.309	0.046	
13.020	0.381	0.072	
13.025	-0.213	0.111	
13.030	0.117	0.112	
13.035	0.835	0.132	
13.040	0.354	0.216	
13.045	0.287	0.302	
13.050	0.893	0.373	
13.055	0.337	0.450	
13.060	-0.235	0.466	
13.065	0.107	0.387	
13.070	0.099	0.280	
13.075	-0.322	0.175	
13.080	-0.087	0.062	
13.085	0.480	-0.006	
13.090	-0.061	-0.001	
13.095	-0.113	0.013	
13.100	0.526	0.029	
13.105	0.177	0.083	
13.110	-0.194	0.125	
13.115	0.331	0.129	
13.120	0.428	0.148	
13.125	-0.148	0.178	
13.130	0.145	0.173	
13.135	0.614	0.173	
13.140	-0.014	0.204	
13.145	-0.064	0.206	
13.150	0.639	0.192	
13.155	0.329	0.220	
13.160	-0.082	0.250	
13.165	0.569	0.252	
13.170	0.675	0.286	
13.175	-0.011	0.339	
13.180	0.283	0.345	
13.185	0.773	0.346	
13.190	0.192	0.376	
13.195	0.151	0.381	
13.200	0.863	0.376	
13.205	0.534	0.416	
13.210	0.041	0.449	
13.215	0.703	0.444	
13.220	0.758	0.461	
13.225	0.023	0.487	
13.230	0.343	0.464	
13.235	0.777	0.435	
13.240	0.097	0.432	
13.245	-0.002	0.396	
13.250	0.684	0.341	
13.255	0.320	0.329	
13.260	-0.113	0.318	
13.265	0.447	0.279	
13.270	0.508	0.268	
13.275	-0.149	0.273	
13.280	0.137	0.242	
13.285	0.628	0.216	
13.290	-0.006	0.228	
13.295	-0.072	0.216	
13.300	0.598	0.192	
13.305	0.178	0.204	
13.310	-0.215	0.207	
13.315	0.331	0.173	
13.320	0.399	0.164	
13.325	-0.210	0.172	
13.330	-0.017	0.142	
13.335	0.421	0.109	
13.340	-0.163	0.103	
13.345	-0.213	0.076	
13.350	0.387	0.039	
13.355	0.038	0.041	
13.360	-0.268	0.044	
13.365	0.207	0.024	
13.370	0.256	0.028	
13.375	-0.281	0.045	
13.380	-0.095	0.027	
13.385	0.312	0.005	
13.390	-0.232	0.008	
13.395	-0.284	-0.013	
13.400	0.216	-0.047	
13.405	-0.081	-0.052	
13.410	-0.314	-0.057	
13.415	0.270	-0.069	
13.420	0.466	-0.031	
13.425	-0.160	0.042	
13.430	0.030	0.078	
13.435	0.363	0.094	
13.440	-0.277	0.106	
13.445	-0.398	0.065	
13.450	-0.035	-0.018	
13.455	-0.229	-0.088	
13.460	-0.436	-0.149	
13.465	0.017	-0.201	
13.470	0.166	-0.201	
13.475	-0.340	-0.163	
13.480	-0.136	-0.145	
13.485	0.355	-0.121	
13.490	-0.217	-0.070	
13.495	-0.279	-0.049	
13.500	0.328	-0.050	
13.505	-0.017	-0.025	
13.510	-0.320	-0.009	
13.515	0.149	-0.023	
13.520	0.279	-0.014	
13.525	-0.277	0.013	
13.530	-0.053	0.009	
13.535	0.471	0.009	
13.540	-0.145	0.042	
13.545	-0.207	0.049	
13.550	0.471	0.039	
13.555	0.122	0.067	
13.560	-0.267	0.089	
13.565	0.294	0.078	
13.570	0.471	0.094	
13.575	-0.194	0.133	
13.580	0.094	0.136	
13.585	0.616	0.141	
13.590	-0.102	0.173	
13.595	-0.168	0.169	
13.600	0.549	0.140	
13.605	0.171	0.151	
13.610	-0.244	0.159	
13.615	0.270	0.131	
13.620	0.311	0.121	
13.625	-0.302	0.121	
13.630	-0.110	0.080	
13.635	0.352	0.037	
13.640	-0.220	0.027	
13.645	-0.281	-0.000	
13.650	0.306	-0.036	
13.655	-0.040	-0.033	
13.660	-0.346	-0.031	
13.665	0.157	-0.051	
13.670	0.212	-0.043	
13.675	-0.326	-0.019	
13.680	-0.111	-0.030	
13.685	0.381	-0.037	
13.690	-0.226	-0.014	
13.695	-0.306	-0.018	
13.700	0.258	-0.043	
13.705	-0.090	-0.042	
13.710	-0.399	-0.049	
13.715	0.020	-0.083	
13.720	0.126	-0.095	
13.725	-0.375	-0.089	
13.730	-0.197	-0.107	
13.735	0.207	-0.122	
13.740	-0.290	-0.110	
13.745	-0.349	-0.117	
13.750	0.189	-0.136	
13.755	-0.113	-0.124	
13.760	-0.399	-0.115	
13.765	-0.003	-0.132	
13.770	0.099	-0.130	
13.775	-0.386	-0.114	
13.780	-0.215	-0.126	
13.785	0.157	-0.139	
13.790	-0.322	-0.130	
13.795	-0.354	-0.140	
13.800	0.256	-0.155	
13.805	0.056	-0.124	
13.810	-0.246	-0.080	
13.815	0.322	-0.049	
13.820	0.300	0.008	
13.825	-0.361	0.060	
13.830	-0.217	0.045	
13.835	0.126	-0.001	
13.840	-0.354	-0.039	
13.845	-0.401	-0.095	
13.850	0.175	-0.151	
13.855	-0.078	-0.156	
13.860	-0.346	-0.145	
13.865	0.206	-0.139	
13.870	0.334	-0.092	
13.875	-0.250	-0.023	
13.880	0.003	0.008	
13.885	0.553	0.035	
13.890	-0.119	0.088	
13.895	-0.183	0.104	
13.900	0.537	0.095	
13.905	0.172	0.122	
13.910	-0.223	0.143	
13.915	0.372	0.132	
13.920	0.500	0.149	
13.925	-0.185	0.185	
13.930	0.099	0.179	
13.935	0.666	0.174	
13.940	-0.063	0.203	
13.945	-0.142	0.198	
13.950	0.634	0.172	
13.955	0.265	0.192	
13.960	-0.200	0.211	
13.965	0.412	0.194	
13.970	0.538	0.203	
13.975	-0.183	0.231	
13.980	0.035	0.211	
13.985	0.564	0.183	
13.990	-0.142	0.183	
13.995	-0.238	0.151	
14.000	0.436	0.099	
14.005	0.065	0.087	
14.010	-0.305	0.078	
14.015	0.210	0.043	
14.020	0.317	0.038	
14.025	-0.290	0.054	
14.030	-0.130	0.034	
14.035	0.357	0.009	
14.040	-0.230	0.011	
14.045	-0.281	-0.007	
14.050	0.381	-0.034	
14.055	0.011	-0.018	
14.060	-0.335	-0.004	
14.065	0.142	-0.020	
14.070	0.264	-0.015	
14.075	-0.311	0.007	
14.080	-0.120	-0.005	
14.085	0.338	-0.020	
14.090	-0.253	-0.010	
14.095	-0.345	-0.027	
14.100	0.227	-0.063	
14.105	-0.120	-0.070	
14.110	-0.430	-0.081	
14.115	-0.023	-0.117	
14.120	0.099	-0.131	
14.125	-0.396	-0.124	
14.130	-0.210	-0.139	
14.135	0.198	-0.150	
14.140	-0.313	-0.133	
14.145	-0.386	-0.138	
14.150	0.157	-0.157	
14.155	-0.134	-0.148	
14.160	-0.422	-0.140	
14.165	-0.015	-0.156	
14.170	0.065	-0.154	
14.175	-0.407	-0.137	
14.180	-0.185	-0.147	
14.185	0.387	-0.143	
14.190	-0.124	-0.093	
14.195	-0.171	-0.052	
14.200	0.483	-0.022	
14.205	0.024	0.035	
14.210	-0.348	0.065	
14.215	0.065	0.040	
14.220	0.093	0.014	
14.225	-0.412	-0.008	
14.230	-0.201	-0.061	
14.235	0.270	-0.101	
14.240	-0.246	-0.097	
14.245	-0.261	-0.100	
14.250	0.450	-0.097	
14.255	0.111	-0.044	
14.260	-0.265	0.010	
14.265	0.326	0.030	
14.270	0.418	0.071	
14.275	-0.247	0.121	
14.280	-0.008	0.119	
14.285	0.521	0.108	
14.290	-0.127	0.125	
14.295	-0.194	0.113	
14.300	0.532	0.088	
14.305	0.163	0.106	
14.310	-0.274	0.123	
14.315	0.294	0.104	
14.320	0.431	0.110	
14.325	-0.218	0.136	
14.330	0.067	0.127	
14.335	0.639	0.124	
14.340	-0.067	0.159	
14.345	-0.137	0.164	
14.350	0.619	0.149	
14.355	0.239	0.176	
14.360	-0.226	0.197	
14.365	0.344	0.177	
14.370	0.416	0.175	
14.375	-0.247	0.185	
14.380	-0.044	0.150	
14.385	0.480	0.112	
14.390	-0.175	0.106	
14.395	-0.264	0.078	
14.400	0.398	0.036	
14.405	0.030	0.034	
14.410	-0.303	0.034	
14.415	0.209	0.011	
14.420	0.273	0.015	
14.425	-0.322	0.035	
14.430	-0.116	0.015	
14.435	0.358	-0.006	
14.440	-0.209	0.003	
14.445	-0.270	-0.009	
14.450	0.334	-0.032	
14.455	-0.053	-0.022	
14.460	-0.372	-0.019	
14.465	0.073	-0.048	
14.470	0.145	-0.057	
14.475	-0.383	-0.052	
14.480	-0.212	-0.078	
14.485	0.178	-0.106	
14.490	-0.291	-0.106	
14.495	-0.343	-0.122	
14.500	0.192	-0.143	
14.505	-0.145	-0.132	
14.510	-0.444	-0.127	
14.515	-0.032	-0.150	
14.520	0.047	-0.155	
14.525	-0.419	-0.146	
14.530	-0.197	-0.159	
14.535	0.218	-0.164	
14.540	-0.302	-0.139	
14.545	-0.372	-0.136	
14.550	0.130	-0.152	
14.555	-0.159	-0.144	
14.560	-0.396	-0.141	
14.565	0.197	-0.148	
14.570	0.430	-0.104	
14.575	-0.215	-0.025	
14.580	-0.031	0.017	
14.585	0.357	0.039	
14.590	-0.296	0.060	
14.595	-0.438	0.028	
14.600	-0.017	-0.047	
14.605	-0.244	-0.109	
14.610	-0.477	-0.164	
14.615	-0.046	-0.219	
14.620	0.090	-0.227	
14.625	-0.363	-0.200	
14.630	-0.125	-0.185	
14.635	0.372	-0.154	
14.640	-0.206	-0.092	
14.645	-0.258	-0.058	
14.650	0.370	-0.047	
14.655	0.004	-0.010	
14.660	-0.313	0.013	
14.665	0.223	0.003	
14.670	0.303	0.018	
14.675	-0.306	0.046	
14.680	-0.089	0.033	
14.685	0.396	0.017	
14.690	-0.186	0.029	
14.695	-0.226	0.021	
14.700	0.442	0.004	
14.705	0.093	0.029	
14.710	-0.261	0.053	
14.715	0.351	0.052	
14.720	0.460	0.083	
14.725	-0.210	0.132	
14.730	0.012	0.134	
14.735	0.486	0.124	
14.740	-0.165	0.134	
14.745	-0.218	0.112	
14.750	0.439	0.072	
14.755	0.021	0.071	
14.760	-0.325	0.065	
14.765	0.180	0.029	
14.770	0.235	0.018	
14.775	-0.329	0.025	
14.780	-0.108	-0.002	
14.785	0.361	-0.023	
14.790	-0.242	-0.012	
14.795	-0.306	-0.024	
14.800	0.253	-0.053	
14.805	-0.089	-0.053	
14.810	-0.358	-0.056	
14.815	0.114	-0.079	
14.820	0.175	-0.074	
14.825	-0.372	-0.053	
14.830	-0.177	-0.068	
14.835	0.253	-0.084	
14.840	-0.303	-0.076	
14.845	-0.370	-0.091	
14.850	0.140	-0.123	
14.855	-0.198	-0.130	
14.860	-0.480	-0.143	
14.865	-0.085	-0.181	
14.870	-0.050	-0.198	
14.875	-0.479	-0.201	
14.880	-0.279	-0.224	
14.885	0.061	-0.240	
14.890	-0.375	-0.228	
14.895	-0.413	-0.230	
14.900	0.068	-0.242	
14.905	-0.209	-0.225	
14.910	-0.457	-0.212	
14.915	-0.047	-0.221	
14.920	-0.024	-0.211	
14.925	-0.471	-0.193	
14.930	-0.264	-0.206	
14.935	0.110	-0.215	
14.940	-0.316	-0.196	
14.945	-0.293	-0.189	
14.950	0.441	-0.171	
14.955	0.026	-0.103	
14.960	-0.363	-0.044	
14.965	-0.027	-0.041	
14.970	-0.093	-0.055	
14.975	-0.561	-0.088	
14.980	-0.369	-0.161	
14.985	-0.009	-0.227	
14.990	-0.357	-0.252	
14.995	-0.363	-0.268	
15.000	0.216	-0.267	
15.005	-0.108	-0.218	
15.010	-0.375	-0.172	
15.015	0.126	-0.151	
15.020	0.200	-0.109	
15.025	-0.355	-0.061	
15.030	-0.143	-0.056	
15.035	0.309	-0.058	
15.040	-0.265	-0.039	
15.045	-0.291	-0.046	
15.050	0.361	-0.064	
15.055	-0.024	-0.042	
15.060	-0.322	-0.024	
15.065	0.226	-0.031	
15.070	0.332	-0.007	
15.075	-0.273	0.034	
15.080	-0.002	0.038	
15.085	0.526	0.045	
15.090	-0.143	0.081	
15.095	-0.195	0.087	
15.100	0.511	0.072	
15.105	0.120	0.095	
15.110	-0.253	0.112	
15.115	0.338	0.097	
15.120	0.386	0.110	
15.125	-0.273	0.134	
15.130	-0.060	0.111	
15.135	0.407	0.080	
15.140	-0.233	0.074	
15.145	-0.308	0.040	
15.150	0.267	-0.010	
15.155	-0.108	-0.028	
15.160	-0.386	-0.047	
15.165	0.123	-0.083	
15.170	0.149	-0.084	
15.175	-0.361	-0.067	
15.180	-0.159	-0.080	
15.185	0.250	-0.091	
15.190	-0.299	-0.078	
15.195	-0.342	-0.089	
15.200	0.245	-0.112	
15.205	-0.099	-0.100	
15.210	-0.392	-0.092	
15.215	0.043	-0.110	
15.220	0.075	-0.109	
15.225	-0.412	-0.098	
15.230	-0.218	-0.120	
15.235	0.148	-0.141	
15.240	-0.346	-0.137	
15.245	-0.390	-0.153	
15.250	0.078	-0.181	
15.255	-0.218	-0.183	
15.260	-0.473	-0.188	
15.265	-0.087	-0.213	
15.270	-0.032	-0.218	
15.275	-0.457	-0.208	
15.280	-0.259	-0.220	
15.285	0.093	-0.227	
15.290	-0.375	-0.208	
15.295	-0.415	-0.211	
15.300	0.123	-0.223	
15.305	-0.192	-0.204	
15.310	-0.457	-0.190	
15.315	-0.024	-0.201	
15.320	0.113	-0.187	
15.325	-0.335	-0.152	
15.330	-0.008	-0.133	
15.335	0.526	-0.091	
15.340	-0.182	-0.014	
15.345	-0.305	0.020	
15.350	0.117	0.002	
15.355	-0.252	-0.022	
15.360	-0.537	-0.072	
15.365	-0.125	-0.151	
15.370	0.018	-0.197	
15.375	-0.410	-0.206	
15.380	-0.207	-0.219	
15.385	0.163	-0.216	
15.390	-0.313	-0.183	
15.395	-0.343	-0.171	
15.400	0.143	-0.172	
15.405	-0.143	-0.151	
15.410	-0.363	-0.136	
15.415	0.128	-0.137	
15.420	0.204	-0.108	
15.425	-0.303	-0.063	
15.430	-0.067	-0.051	
15.435	0.380	-0.038	
15.440	-0.192	-0.002	
15.445	-0.198	0.007	
15.450	0.472	0.005	
15.455	0.123	0.043	
15.460	-0.206	0.077	
15.465	0.444	0.087	
15.470	0.526	0.132	
15.475	-0.140	0.192	
15.480	0.247	0.209	
15.485	0.736	0.229	
15.490	-0.014	0.275	
15.495	-0.063	0.277	
15.500	0.707	0.253	
15.505	0.283	0.270	
15.510	-0.175	0.279	
15.515	0.419	0.248	
15.520	0.416	0.237	
15.525	-0.261	0.234	
15.530	-0.012	0.183	
15.535	0.474	0.133	
15.540	-0.177	0.119	
15.545	-0.213	0.086	
15.550	0.466	0.047	
15.555	0.070	0.056	
15.560	-0.290	0.065	
15.565	0.259	0.045	
15.570	0.335	0.054	
15.575	-0.268	0.078	
15.580	-0.024	0.065	
15.585	0.465	0.054	
15.590	-0.174	0.072	
15.595	-0.212	0.063	
15.600	0.459	0.041	
15.605	0.052	0.057	
15.610	-0.294	0.067	
15.615	0.265	0.047	
15.620	0.270	0.052	
15.625	-0.334	0.066	
15.630	-0.142	0.036	
15.635	0.312	0.001	
15.640	-0.246	-0.006	
15.645	-0.302	-0.030	
15.650	0.255	-0.064	
15.655	-0.076	-0.063	
15.660	-0.349	-0.062	
15.665	0.171	-0.078	
15.670	0.238	-0.061	
15.675	-0.343	-0.027	
15.680	-0.137	-0.033	
15.685	0.306	-0.044	
15.690	-0.261	-0.031	
15.695	-0.294	-0.043	
15.700	0.372	-0.063	
15.705	0.064	-0.037	
15.710	-0.210	-0.004	
15.715	0.521	0.020	
15.720	0.549	0.092	
15.725	-0.221	0.175	
15.730	-0.073	0.185	
15.735	0.312	0.153	
15.740	-0.317	0.120	
15.745	-0.380	0.049	
15.750	0.194	-0.035	
15.755	-0.078	-0.074	
15.760	-0.322	-0.092	
15.765	0.287	-0.104	
15.770	0.410	-0.060	
15.775	-0.221	0.013	
15.780	0.078	0.049	
15.785	0.604	0.082	
15.790	-0.107	0.138	
15.795	-0.146	0.151	
15.800	0.614	0.140	
15.805	0.195	0.167	
15.810	-0.210	0.186	
15.815	0.436	0.171	
15.820	0.517	0.186	
15.825	-0.198	0.218	
15.830	0.160	0.207	
15.835	0.698	0.200	
15.840	-0.009	0.232	
15.845	-0.072	0.233	
15.850	0.718	0.216	
15.855	0.363	0.248	
15.860	-0.114	0.279	
15.865	0.645	0.279	
15.870	0.692	0.313	
15.875	-0.113	0.361	
15.880	0.226	0.350	
15.885	0.715	0.328	
15.890	-0.032	0.332	
15.895	-0.099	0.298	
15.900	0.655	0.246	
15.905	0.247	0.242	
15.910	-0.198	0.240	
15.915	0.413	0.206	
15.920	0.424	0.200	
15.925	-0.232	0.208	
15.930	0.068	0.175	
15.935	0.564	0.148	
15.940	-0.119	0.157	
15.945	-0.154	0.140	
15.950	0.604	0.114	
15.955	0.224	0.140	
15.960	-0.204	0.165	
15.965	0.436	0.159	
15.970	0.479	0.179	
15.975	-0.191	0.212	
15.980	0.088	0.197	
15.985	0.607	0.181	
15.990	-0.122	0.194	
15.995	-0.174	0.173	
16.000	0.514	0.133	
16.005	0.084	0.132	
16.010	-0.277	0.126	
16.015	0.338	0.093	
16.020	0.364	0.095	
16.025	-0.265	0.116	
16.030	0.011	0.097	
16.035	0.524	0.083	
16.040	-0.159	0.102	
16.045	-0.210	0.093	
16.050	0.483	0.067	
16.055	0.113	0.081	
16.060	-0.259	0.094	
16.065	0.288	0.078	
16.070	0.306	0.084	
16.075	-0.279	0.100	
16.080	-0.044	0.076	
16.085	0.468	0.055	
16.090	-0.149	0.069	
16.095	-0.108	0.065	
16.100	0.712	0.068	
16.105	0.276	0.130	
16.110	-0.238	0.184	
16.115	0.277	0.180	
16.120	0.219	0.170	
16.125	-0.395	0.148	
16.130	-0.206	0.074	
16.135	0.229	-0.002	
16.140	-0.262	-0.040	
16.145	-0.274	-0.078	
16.150	0.392	-0.101	
16.155	0.011	-0.070	
16.160	-0.296	-0.036	
16.165	0.322	-0.025	
16.170	0.376	0.018	
16.175	-0.267	0.074	
16.180	-0.015	0.079	
16.185	0.526	0.078	
16.190	-0.133	0.105	
16.195	-0.178	0.102	
16.200	0.530	0.084	
16.205	0.119	0.106	
16.210	-0.256	0.121	
16.215	0.351	0.104	
16.220	0.457	0.118	
16.225	-0.186	0.153	
16.230	0.128	0.152	
16.235	0.646	0.156	
16.240	-0.035	0.193	
16.245	-0.090	0.199	
16.250	0.669	0.185	
16.255	0.271	0.215	
16.260	-0.169	0.238	
16.265	0.471	0.224	
16.270	0.498	0.234	
16.275	-0.203	0.254	
16.280	0.075	0.225	
16.285	0.559	0.193	
16.290	-0.140	0.190	
16.295	-0.183	0.158	
16.300	0.488	0.112	
16.305	0.072	0.109	
16.310	-0.256	0.104	
16.315	0.363	0.079	
16.320	0.418	0.093	
16.325	-0.236	0.127	
16.330	0.040	0.120	
16.335	0.537	0.112	
16.340	-0.133	0.132	
16.345	-0.171	0.122	
16.350	0.532	0.098	
16.355	0.120	0.114	
16.360	-0.241	0.126	
16.365	0.332	0.107	
16.370	0.340	0.113	
16.375	-0.267	0.130	
16.380	-0.006	0.105	
16.385	0.457	0.081	
16.390	-0.224	0.086	
16.395	-0.261	0.061	
16.400	0.348	0.019	
16.405	-0.069	0.012	
16.410	-0.354	-0.001	
16.415	0.152	-0.035	
16.420	0.223	-0.038	
16.425	-0.322	-0.019	
16.430	-0.095	-0.031	
16.435	0.343	-0.038	
16.440	-0.246	-0.019	
16.445	-0.268	-0.025	
16.450	0.346	-0.044	
16.455	-0.070	-0.028	
16.460	-0.357	-0.023	
16.465	0.146	-0.045	
16.470	0.283	-0.038	
16.475	-0.238	-0.005	
16.480	0.154	0.010	
16.485	0.607	0.047	
16.490	-0.178	0.111	
16.495	-0.270	0.121	
16.500	0.267	0.083	
16.505	-0.163	0.054	
16.510	-0.447	0.006	
16.515	-0.006	-0.068	
16.520	0.084	-0.109	
16.525	-0.374	-0.119	
16.530	-0.116	-0.138	
16.535	0.366	-0.133	
16.540	-0.220	-0.087	
16.545	-0.238	-0.063	
16.550	0.410	-0.053	
16.555	0.004	-0.011	
16.560	-0.276	0.018	
16.565	0.305	0.018	
16.570	0.294	0.044	
16.575	-0.293	0.076	
16.580	-0.041	0.062	
16.585	0.419	0.046	
16.590	-0.212	0.057	
16.595	-0.220	0.041	
16.600	0.488	0.018	
16.605	0.078	0.042	
16.610	-0.241	0.065	
16.615	0.373	0.062	
16.620	0.383	0.091	
16.625	-0.242	0.129	
16.630	0.050	0.122	
16.635	0.489	0.112	
16.640	-0.154	0.127	
16.645	-0.182	0.111	
16.650	0.465	0.080	
16.655	-0.015	0.084	
16.660	-0.328	0.075	
16.665	0.163	0.034	
16.670	0.139	0.013	
16.675	-0.374	0.004	
16.680	-0.146	-0.036	
16.685	0.242	-0.069	
16.690	-0.299	-0.070	
16.695	-0.323	-0.089	
16.700	0.226	-0.116	
16.705	-0.140	-0.108	
16.710	-0.401	-0.105	
16.715	-0.005	-0.128	
16.720	0.040	-0.133	
16.725	-0.403	-0.126	
16.730	-0.154	-0.142	
16.735	0.215	-0.146	
16.740	-0.328	-0.124	
16.745	-0.346	-0.126	
16.750	0.178	-0.143	
16.755	-0.172	-0.132	
16.760	-0.425	-0.130	
16.765	-0.002	-0.152	
16.770	-0.034	-0.156	
16.775	-0.464	-0.154	
16.780	-0.247	-0.180	
16.785	0.079	-0.200	
16.790	-0.377	-0.195	
16.795	-0.387	-0.205	
16.800	0.110	-0.220	
16.805	-0.195	-0.204	
16.810	-0.438	-0.191	
16.815	-0.034	-0.201	
16.820	-0.064	-0.195	
16.825	-0.479	-0.185	
16.830	-0.247	-0.205	
16.835	0.053	-0.219	
16.840	-0.367	-0.209	
16.845	-0.345	-0.213	
16.850	0.305	-0.210	
16.855	-0.041	-0.160	
16.860	-0.332	-0.111	
16.865	0.105	-0.094	
16.870	-0.020	-0.075	
16.875	-0.514	-0.072	
16.880	-0.334	-0.121	
16.885	-0.063	-0.181	
16.890	-0.404	-0.216	
16.895	-0.357	-0.250	
16.900	0.226	-0.262	
16.905	-0.136	-0.222	
16.910	-0.381	-0.180	
16.915	0.122	-0.163	
16.920	0.139	-0.124	
16.925	-0.363	-0.080	
16.930	-0.136	-0.077	
16.935	0.273	-0.078	
16.940	-0.279	-0.058	
16.945	-0.288	-0.064	
16.950	0.312	-0.080	
16.955	-0.098	-0.062	
16.960	-0.345	-0.053	
16.965	0.206	-0.065	
16.970	0.242	-0.045	
16.975	-0.302	-0.009	
16.980	0.008	-0.006	
16.985	0.486	0.006	
16.990	-0.157	0.049	
16.995	-0.171	0.061	
17.000	0.514	0.056	
17.005	0.046	0.085	
17.010	-0.253	0.100	
17.015	0.326	0.083	
17.020	0.279	0.090	
17.025	-0.296	0.104	
17.030	-0.009	0.077	
17.035	0.370	0.052	
17.040	-0.256	0.052	
17.045	-0.265	0.024	
17.050	0.360	-0.014	
17.055	-0.081	-0.013	
17.060	-0.343	-0.017	
17.065	0.198	-0.042	
17.070	0.204	-0.035	
17.075	-0.340	-0.012	
17.080	-0.089	-0.025	
17.085	0.306	-0.036	
17.090	-0.270	-0.024	
17.095	-0.271	-0.036	
17.100	0.392	-0.055	
17.105	-0.049	-0.033	
17.110	-0.331	-0.018	
17.115	0.139	-0.033	
17.120	0.181	-0.029	
17.125	-0.329	-0.013	
17.130	-0.061	-0.028	
17.135	0.282	-0.038	
17.140	-0.305	-0.027	
17.145	-0.329	-0.047	
17.150	0.195	-0.083	
17.155	-0.186	-0.092	
17.160	-0.401	-0.106	
17.165	0.046	-0.136	
17.170	0.030	-0.139	
17.175	-0.438	-0.130	
17.180	-0.264	-0.153	
17.185	-0.055	-0.183	
17.190	-0.436	-0.201	
17.195	-0.403	-0.234	
17.200	0.053	-0.262	
17.205	-0.235	-0.252	
17.210	-0.380	-0.237	
17.215	0.064	-0.229	
17.220	0.049	-0.192	
17.225	-0.328	-0.146	
17.230	0.068	-0.122	
17.235	0.537	-0.071	
17.240	-0.146	0.013	
17.245	-0.209	0.053	
17.250	0.186	0.046	
17.255	-0.264	0.029	
17.260	-0.465	-0.022	
17.265	-0.067	-0.101	
17.270	-0.044	-0.151	
17.275	-0.383	-0.172	
17.280	-0.081	-0.192	
17.285	0.329	-0.177	
17.290	-0.221	-0.120	
17.295	-0.198	-0.084	
17.300	0.431	-0.060	
17.305	-0.009	-0.006	
17.310	-0.256	0.028	
17.315	0.287	0.029	
17.320	0.236	0.050	
17.325	-0.273	0.073	
17.330	0.058	0.060	
17.335	0.462	0.056	
17.340	-0.163	0.082	
17.345	-0.142	0.079	
17.350	0.521	0.066	
17.355	0.081	0.093	
17.360	-0.188	0.112	
17.365	0.505	0.110	
17.370	0.479	0.149	
17.375	-0.163	0.201	
17.380	0.245	0.207	
17.385	0.630	0.216	
17.390	-0.098	0.246	
17.395	-0.105	0.230	
17.400	0.602	0.194	
17.405	0.143	0.197	
17.410	-0.201	0.194	
17.415	0.441	0.165	
17.420	0.408	0.171	
17.425	-0.230	0.189	
17.430	0.084	0.165	
17.435	0.479	0.142	
17.440	-0.186	0.144	
17.445	-0.175	0.115	
17.450	0.500	0.078	
17.455	-0.005	0.083	
17.460	-0.287	0.080	
17.465	0.329	0.052	
17.470	0.332	0.061	
17.475	-0.265	0.088	
17.480	0.078	0.079	
17.485	0.463	0.077	
17.490	-0.212	0.098	
17.495	-0.220	0.082	
17.500	0.437	0.049	
17.505	-0.044	0.052	
17.510	-0.317	0.045	
17.515	0.251	0.014	
17.520	0.213	0.014	
17.525	-0.334	0.028	
17.530	-0.084	0.004	
17.535	0.317	-0.016	
17.540	-0.271	-0.011	
17.545	-0.281	-0.029	
17.550	0.306	-0.057	
17.555	-0.119	-0.051	
17.560	-0.355	-0.051	
17.565	0.163	-0.073	
17.570	0.126	-0.066	
17.575	-0.369	-0.048	
17.580	-0.125	-0.064	
17.585	0.288	-0.076	
17.590	-0.302	-0.060	
17.595	-0.284	-0.069	
17.600	0.383	-0.084	
17.605	0.015	-0.052	
17.610	-0.207	-0.018	
17.615	0.565	0.010	
17.620	0.543	0.090	
17.625	-0.194	0.179	
17.630	0.004	0.198	
17.635	0.235	0.173	
17.640	-0.352	0.134	
17.645	-0.351	0.052	
17.650	0.218	-0.036	
17.655	-0.142	-0.075	
17.660	-0.337	-0.099	
17.665	0.273	-0.118	
17.670	0.247	-0.084	
17.675	-0.281	-0.030	
17.680	0.061	-0.009	
17.685	0.518	0.019	
17.690	-0.178	0.072	
17.695	-0.163	0.085	
17.700	0.546	0.077	
17.705	0.075	0.105	
17.710	-0.235	0.121	
17.715	0.410	0.107	
17.720	0.450	0.128	
17.725	-0.197	0.166	
17.730	0.175	0.165	
17.735	0.593	0.168	
17.740	-0.095	0.197	
17.745	-0.061	0.191	
17.750	0.724	0.176	
17.755	0.258	0.212	
17.760	-0.130	0.242	
17.765	0.620	0.240	
17.770	0.570	0.273	
17.775	-0.156	0.313	
17.780	0.285	0.299	
17.785	0.707	0.290	
17.790	-0.066	0.307	
17.795	-0.069	0.282	
17.800	0.640	0.238	
17.805	0.108	0.233	
17.810	-0.230	0.217	
17.815	0.424	0.172	
17.820	0.412	0.166	
17.825	-0.218	0.179	
17.830	0.155	0.159	
17.835	0.527	0.148	
17.840	-0.175	0.163	
17.845	-0.163	0.141	
17.850	0.534	0.106	
17.855	0.046	0.113	
17.860	-0.224	0.114	
17.865	0.413	0.094	
17.870	0.363	0.111	
17.875	-0.229	0.141	
17.880	0.097	0.130	
17.885	0.476	0.121	
17.890	-0.209	0.133	
17.895	-0.206	0.107	
17.900	0.445	0.067	
17.905	-0.031	0.065	
17.910	-0.299	0.056	
17.915	0.242	0.023	
17.920	0.223	0.022	
17.925	-0.332	0.033	
17.930	-0.043	0.011	
17.935	0.360	-0.005	
17.940	-0.265	0.007	
17.945	-0.252	-0.008	
17.950	0.370	-0.032	
17.955	-0.066	-0.019	
17.960	-0.305	-0.011	
17.965	0.268	-0.025	
17.970	0.207	-0.006	
17.975	-0.339	0.020	
17.980	-0.038	0.005	
17.985	0.425	-0.002	
17.990	-0.192	0.023	
17.995	-0.120	0.028	
18.000	0.687	0.037	
18.005	0.174	0.100	
18.010	-0.220	0.150	
18.015	0.338	0.151	
18.020	0.198	0.153	
18.025	-0.364	0.143	
18.030	-0.114	0.082	
18.035	0.261	0.022	
18.040	-0.277	-0.006	
18.045	-0.212	-0.042	
18.050	0.506	-0.061	
18.055	0.067	-0.019	
18.060	-0.215	0.025	
18.065	0.483	0.047	
18.070	0.431	0.104	
18.075	-0.210	0.165	
18.080	0.186	0.174	
18.085	0.643	0.183	
18.090	-0.089	0.218	
18.095	-0.055	0.214	
18.100	0.660	0.193	
18.105	0.125	0.212	
18.110	-0.192	0.215	
18.115	0.562	0.191	
18.120	0.587	0.214	
18.125	-0.104	0.261	
18.130	0.381	0.271	
18.135	0.777	0.292	
18.140	-0.005	0.338	
18.145	0.052	0.336	
18.150	0.811	0.315	
18.155	0.309	0.338	
18.160	-0.089	0.349	
18.165	0.665	0.326	
18.170	0.605	0.340	
18.175	-0.119	0.365	
18.180	0.341	0.343	
18.185	0.689	0.327	
18.190	-0.102	0.333	
18.195	-0.072	0.293	
18.200	0.648	0.239	
18.205	0.148	0.231	
18.210	-0.166	0.220	
18.215	0.535	0.191	
18.220	0.427	0.202	
18.225	-0.220	0.225	
18.230	0.194	0.202	
18.235	0.620	0.191	
18.240	-0.107	0.211	
18.245	-0.075	0.197	
18.250	0.620	0.171	
18.255	0.087	0.184	
18.260	-0.204	0.184	
18.265	0.450	0.156	
18.270	0.410	0.164	
18.275	-0.206	0.187	
18.280	0.161	0.171	
18.285	0.523	0.161	
18.290	-0.180	0.174	
18.295	-0.160	0.148	
18.300	0.479	0.107	
18.305	-0.038	0.102	
18.310	-0.276	0.087	
18.315	0.317	0.051	
18.320	0.264	0.052	
18.325	-0.281	0.069	
18.330	0.046	0.053	
18.335	0.422	0.046	
18.340	-0.224	0.065	
18.345	-0.194	0.052	
18.350	0.380	0.025	
18.355	-0.099	0.029	
18.360	-0.322	0.019	
18.365	0.265	-0.011	
18.370	0.224	-0.004	
18.375	-0.261	0.021	
18.380	0.221	0.026	
18.385	0.628	0.061	
18.390	-0.131	0.129	
18.395	-0.165	0.148	
18.400	0.325	0.124	
18.405	-0.188	0.103	
18.410	-0.393	0.053	
18.415	0.157	-0.019	
18.420	0.126	-0.049	
18.425	-0.303	-0.049	
18.430	0.061	-0.060	
18.435	0.433	-0.043	
18.440	-0.197	0.008	
18.445	-0.128	0.027	
18.450	0.526	0.035	
18.455	-0.015	0.074	
18.460	-0.242	0.091	
18.465	0.402	0.079	
18.470	0.294	0.097	
18.475	-0.262	0.122	
18.480	0.113	0.106	
18.485	0.477	0.099	
18.490	-0.186	0.118	
18.495	-0.122	0.105	
18.500	0.553	0.085	
18.505	0.040	0.106	
18.510	-0.210	0.117	
18.515	0.479	0.105	
18.520	0.395	0.132	
18.525	-0.204	0.171	
18.530	0.227	0.168	
18.535	0.582	0.174	
18.540	-0.151	0.202	
18.545	-0.127	0.186	
18.550	0.477	0.147	
18.555	-0.060	0.136	
18.560	-0.268	0.110	
18.565	0.255	0.061	
18.570	0.087	0.041	
18.575	-0.369	0.026	
18.580	-0.093	-0.020	
18.585	0.189	-0.056	
18.590	-0.322	-0.065	
18.595	-0.270	-0.091	
18.600	0.247	-0.115	
18.605	-0.183	-0.104	
18.610	-0.370	-0.102	
18.615	0.108	-0.120	
18.620	-0.017	-0.114	
18.625	-0.410	-0.106	
18.630	-0.114	-0.126	
18.635	0.088	-0.138	
18.640	-0.381	-0.133	
18.645	-0.332	-0.153	
18.650	0.067	-0.179	
18.655	-0.296	-0.182	
18.660	-0.477	-0.196	
18.665	-0.066	-0.227	
18.670	-0.157	-0.236	
18.675	-0.517	-0.238	
18.680	-0.246	-0.262	
18.685	-0.052	-0.274	
18.690	-0.464	-0.267	
18.695	-0.396	-0.277	
18.700	-0.005	-0.290	
18.705	-0.329	-0.276	
18.710	-0.500	-0.272	
18.715	-0.101	-0.286	
18.720	-0.180	-0.281	
18.725	-0.532	-0.272	
18.730	-0.253	-0.287	
18.735	-0.116	-0.294	
18.740	-0.512	-0.290	
18.745	-0.424	-0.306	
18.750	0.044	-0.318	
18.755	-0.210	-0.291	
18.760	-0.337	-0.257	
18.765	0.137	-0.227	
18.770	-0.114	-0.179	
18.775	-0.553	-0.152	
18.780	-0.335	-0.182	
18.785	-0.198	-0.229	
18.790	-0.564	-0.270	
18.795	-0.467	-0.323	
18.800	-0.056	-0.361	
18.805	-0.325	-0.355	
18.810	-0.480	-0.341	
18.815	-0.047	-0.333	
18.820	-0.125	-0.300	
18.825	-0.460	-0.263	
18.830	-0.159	-0.252	
18.835	0.081	-0.232	
18.840	-0.380	-0.197	
18.845	-0.305	-0.189	
18.850	0.145	-0.189	
18.855	-0.255	-0.166	
18.860	-0.409	-0.160	
18.865	0.096	-0.173	
18.870	-0.015	-0.158	
18.875	-0.377	-0.136	
18.880	-0.040	-0.137	
18.885	0.221	-0.123	
18.890	-0.331	-0.090	
18.895	-0.226	-0.088	
18.900	0.306	-0.093	
18.905	-0.156	-0.067	
18.910	-0.320	-0.057	
18.915	0.236	-0.068	
18.920	0.081	-0.050	
18.925	-0.345	-0.029	
18.930	-0.003	-0.042	
18.935	0.279	-0.044	
18.940	-0.310	-0.025	
18.945	-0.252	-0.039	
18.950	0.213	-0.066	
18.955	-0.236	-0.070	
18.960	-0.398	-0.089	
18.965	0.041	-0.128	
18.970	-0.116	-0.143	
18.975	-0.445	-0.154	
18.980	-0.134	-0.183	
18.985	0.088	-0.193	
18.990	-0.386	-0.178	
18.995	-0.308	-0.183	
19.000	0.172	-0.190	
19.005	-0.242	-0.168	
19.010	-0.387	-0.159	
19.015	0.143	-0.165	
19.020	-0.047	-0.144	
19.025	-0.447	-0.126	
19.030	-0.168	-0.145	
19.035	0.024	-0.162	
19.040	-0.432	-0.166	
19.045	-0.370	-0.194	
19.050	0.024	-0.224	
19.055	-0.323	-0.228	
19.060	-0.470	-0.238	
19.065	-0.046	-0.259	
19.070	-0.168	-0.255	
19.075	-0.494	-0.247	
19.080	-0.197	-0.260	
19.085	-0.037	-0.260	
19.090	-0.468	-0.247	
19.095	-0.366	-0.256	
19.100	0.076	-0.266	
19.105	-0.290	-0.244	
19.110	-0.451	-0.233	
19.115	-0.026	-0.240	
19.120	-0.165	-0.231	
19.125	-0.485	-0.222	
19.130	-0.136	-0.235	
19.135	0.207	-0.224	
19.140	-0.265	-0.176	
19.145	-0.153	-0.142	
19.150	0.418	-0.106	
19.155	-0.178	-0.046	
19.160	-0.430	-0.025	
19.165	-0.095	-0.062	
19.170	-0.256	-0.109	
19.175	-0.579	-0.167	
19.180	-0.244	-0.241	
19.185	0.009	-0.282	
19.190	-0.381	-0.278	
19.195	-0.259	-0.271	
19.200	0.262	-0.248	
19.205	-0.192	-0.187	
19.210	-0.349	-0.144	
19.215	0.218	-0.128	
19.220	0.052	-0.090	
19.225	-0.355	-0.056	
19.230	0.008	-0.059	
19.235	0.264	-0.053	
19.240	-0.293	-0.029	
19.245	-0.180	-0.035	
19.250	0.396	-0.044	
19.255	-0.145	-0.018	
19.260	-0.285	-0.010	
19.265	0.325	-0.023	
19.270	0.171	0.000	
19.275	-0.290	0.029	
19.280	0.186	0.027	
19.285	0.436	0.045	
19.290	-0.230	0.084	
19.295	-0.114	0.081	
19.300	0.543	0.069	
19.305	-0.024	0.093	
19.310	-0.203	0.102	
19.315	0.480	0.090	
19.320	0.235	0.113	
19.325	-0.291	0.134	
19.330	0.126	0.109	
19.335	0.344	0.091	
19.340	-0.276	0.090	
19.345	-0.180	0.055	
19.350	0.386	0.016	
19.355	-0.145	0.015	
19.360	-0.296	0.002	
19.365	0.322	-0.024	
19.370	0.131	-0.010	
19.375	-0.325	0.011	
19.380	0.052	-0.003	
19.385	0.325	-0.004	
19.390	-0.265	0.016	
19.395	-0.169	0.006	
19.400	0.398	-0.010	
19.405	-0.130	0.007	
19.410	-0.288	0.007	
19.415	0.325	-0.012	
19.420	0.122	0.004	
19.425	-0.329	0.021	
19.430	0.041	0.003	
19.435	0.280	-0.005	
19.440	-0.300	0.006	
19.445	-0.220	-0.014	
19.450	0.276	-0.043	
19.455	-0.223	-0.045	
19.460	-0.384	-0.062	
19.465	0.152	-0.098	
19.470	-0.002	-0.102	
19.475	-0.374	-0.095	
19.480	0.004	-0.108	
19.485	0.232	-0.101	
19.490	-0.332	-0.073	
19.495	-0.253	-0.077	
19.500	0.283	-0.090	
19.505	-0.182	-0.074	
19.510	-0.329	-0.072	
19.515	0.230	-0.085	
19.520	0.079	-0.066	
19.525	-0.284	-0.040	
19.530	0.273	-0.030	
19.535	0.573	0.019	
19.540	-0.166	0.098	
19.545	-0.111	0.124	
19.550	0.387	0.114	
19.555	-0.213	0.109	
19.560	-0.395	0.066	
19.565	0.110	-0.008	
19.570	-0.029	-0.053	
19.575	-0.354	-0.079	
19.580	0.122	-0.106	
19.585	0.408	-0.085	
19.590	-0.224	-0.027	
19.595	-0.056	0.003	
19.600	0.549	0.026	
19.605	-0.041	0.079	
19.610	-0.201	0.103	
19.615	0.505	0.098	
19.620	0.265	0.127	
19.625	-0.250	0.154	
19.630	0.270	0.141	
19.635	0.549	0.147	
19.640	-0.145	0.179	
19.645	0.003	0.174	
19.650	0.643	0.163	
19.655	0.018	0.187	
19.660	-0.159	0.189	
19.665	0.587	0.168	
19.670	0.407	0.193	
19.675	-0.156	0.226	
19.680	0.408	0.225	
19.685	0.640	0.242	
19.690	-0.119	0.279	
19.695	0.053	0.266	
19.700	0.694	0.242	
19.705	0.078	0.256	
19.710	-0.124	0.249	
19.715	0.605	0.220	
19.720	0.312	0.229	
19.725	-0.244	0.237	
19.730	0.229	0.200	
19.735	0.488	0.177	
19.740	-0.212	0.179	
19.745	-0.089	0.145	
19.750	0.518	0.108	
19.755	-0.061	0.111	
19.760	-0.203	0.101	
19.765	0.433	0.075	
19.770	0.206	0.089	
19.775	-0.265	0.106	
19.780	0.245	0.091	
19.785	0.524	0.102	
19.790	-0.189	0.139	
19.795	-0.063	0.136	
19.800	0.530	0.119	
19.805	-0.081	0.131	
19.810	-0.238	0.119	
19.815	0.451	0.086	
19.820	0.215	0.095	
19.825	-0.274	0.109	
19.830	0.160	0.088	
19.835	0.383	0.082	
19.840	-0.249	0.094	
19.845	-0.130	0.072	
19.850	0.415	0.043	
19.855	-0.143	0.047	
19.860	-0.279	0.033	
19.865	0.375	0.005	
19.870	0.122	0.018	
19.875	-0.314	0.035	
19.880	0.114	0.019	
19.885	0.331	0.019	
19.890	-0.270	0.038	
19.895	-0.148	0.025	
19.900	0.395	0.005	
19.905	-0.149	0.018	
19.910	-0.239	0.014	
19.915	0.552	0.006	
19.920	0.437	0.061	
19.925	-0.139	0.136	
19.930	0.383	0.173	
19.935	0.474	0.210	
19.940	-0.270	0.238	
19.945	-0.178	0.197	
19.950	0.293	0.125	
19.955	-0.210	0.076	
19.960	-0.303	0.017	
19.965	0.337	-0.037	
19.970	0.151	-0.032	
19.975	-0.258	-0.007	
19.980	0.264	0.002	
19.985	0.483	0.041	
19.990	-0.182	0.101	
19.995	-0.005	0.117	
20.000	0.633	0.124	
20.005	-0.005	0.162	
20.010	-0.159	0.173	
20.015	0.558	0.157	
20.020	0.303	0.178	
20.025	-0.198	0.200	
20.030	0.363	0.187	
20.035	0.587	0.197	
20.040	-0.128	0.231	
20.045	0.082	0.224	
20.050	0.710	0.213	
20.055	0.079	0.242	
20.060	-0.102	0.247	
20.065	0.678	0.229	
20.070	0.419	0.255	
20.075	-0.113	0.286	
20.080	0.520	0.281	
20.085	0.697	0.302	
20.090	-0.089	0.340	
20.095	0.094	0.325	
20.100	0.665	0.293	
20.105	0.024	0.290	
20.110	-0.139	0.261	
20.115	0.552	0.213	
20.120	0.244	0.205	
20.125	-0.221	0.202	
20.130	0.290	0.167	
20.135	0.457	0.157	
20.140	-0.207	0.169	
20.145	-0.038	0.144	
20.150	0.506	0.115	
20.155	-0.108	0.120	
20.160	-0.203	0.104	
20.165	0.495	0.076	
20.170	0.207	0.094	
20.175	-0.264	0.116	
20.180	0.213	0.100	
20.185	0.367	0.098	
20.190	-0.253	0.111	
20.195	-0.110	0.086	
20.200	0.422	0.055	
20.205	-0.163	0.056	
20.210	-0.264	0.039	
20.215	0.323	0.006	
20.220	0.021	0.007	
20.225	-0.329	0.008	
20.230	0.087	-0.018	
20.235	0.229	-0.024	
20.240	-0.319	-0.013	
20.245	-0.171	-0.031	
20.250	0.274	-0.052	
20.255	-0.258	-0.048	
20.260	-0.355	-0.064	
20.265	0.154	-0.098	
20.270	-0.114	-0.104	
20.275	-0.403	-0.110	
20.280	-0.037	-0.136	
20.285	0.075	-0.143	
20.290	-0.361	-0.131	
20.295	-0.168	-0.139	
20.300	0.390	-0.131	
20.305	-0.133	-0.081	
20.310	-0.247	-0.047	
20.315	0.221	-0.040	
20.320	-0.157	-0.028	
20.325	-0.511	-0.044	
20.330	-0.203	-0.108	
20.335	-0.114	-0.167	
20.340	-0.476	-0.207	
20.345	-0.293	-0.251	
20.350	0.131	-0.269	
20.355	-0.282	-0.243	
20.360	-0.354	-0.222	
20.365	0.210	-0.206	
20.370	-0.053	-0.160	
20.375	-0.361	-0.119	
20.380	0.049	-0.111	
20.385	0.209	-0.089	
20.390	-0.317	-0.055	
20.395	-0.145	-0.054	
20.400	0.343	-0.056	
20.405	-0.172	-0.030	
20.410	-0.239	-0.022	
20.415	0.383	-0.027	
20.420	0.070	0.003	
20.425	-0.303	0.028	
20.430	0.216	0.020	
20.435	0.389	0.036	
20.440	-0.210	0.074	
20.445	0.000	0.077	
20.450	0.552	0.080	
20.455	-0.055	0.115	
20.460	-0.163	0.124	
20.465	0.500	0.111	
20.470	0.194	0.132	
20.475	-0.236	0.148	
20.480	0.274	0.128	
20.485	0.332	0.124	
20.490	-0.294	0.129	
20.495	-0.136	0.090	
20.500	0.308	0.042	
20.505	-0.226	0.022	
20.510	-0.305	-0.012	
20.515	0.223	-0.055	
20.520	-0.055	-0.062	
20.525	-0.352	-0.065	
20.530	0.091	-0.085	
20.535	0.192	-0.079	
20.540	-0.334	-0.054	
20.545	-0.127	-0.060	
20.550	0.373	-0.062	
20.555	-0.188	-0.031	
20.560	-0.258	-0.022	
20.565	0.332	-0.031	
20.570	-0.024	-0.012	
20.575	-0.346	-0.003	
20.580	0.064	-0.028	
20.585	0.166	-0.038	
20.590	-0.335	-0.033	
20.595	-0.175	-0.056	
20.600	0.200	-0.079	
20.605	-0.281	-0.079	
20.610	-0.352	-0.097	
20.615	0.146	-0.127	
20.620	-0.128	-0.127	
20.625	-0.403	-0.127	
20.630	-0.021	-0.148	
20.635	0.076	-0.148	
20.640	-0.380	-0.132	
20.645	-0.212	-0.141	
20.650	0.207	-0.147	
20.655	-0.258	-0.125	
20.660	-0.317	-0.121	
20.665	0.192	-0.128	
20.670	-0.113	-0.110	
20.675	-0.392	-0.101	
20.680	0.053	-0.117	
20.685	0.271	-0.103	
20.690	-0.207	-0.060	
20.695	0.091	-0.030	
20.700	0.454	0.010	
20.705	-0.241	0.063	
20.710	-0.390	0.058	
20.715	-0.101	-0.007	
20.720	-0.325	-0.080	
20.725	-0.537	-0.160	
20.730	-0.137	-0.241	
20.735	-0.037	-0.276	
20.740	-0.375	-0.269	
20.745	-0.149	-0.259	
20.750	0.273	-0.225	
20.755	-0.201	-0.158	
20.760	-0.233	-0.112	
20.765	0.325	-0.085	
20.770	-0.005	-0.037	
20.775	-0.276	-0.005	
20.780	0.241	-0.003	
20.785	0.309	0.023	
20.790	-0.238	0.060	
20.795	-0.029	0.058	
20.800	0.431	0.052	
20.805	-0.119	0.073	
20.810	-0.117	0.073	
20.815	0.543	0.069	
20.820	0.232	0.109	
20.825	-0.120	0.150	
20.830	0.511	0.165	
20.835	0.611	0.212	
20.840	-0.014	0.275	
20.845	0.343	0.298	
20.850	0.794	0.322	
20.855	0.090	0.368	
20.860	-0.034	0.366	
20.865	0.662	0.329	
20.870	0.267	0.322	
20.875	-0.203	0.305	
20.880	0.386	0.251	
20.885	0.479	0.227	
20.890	-0.191	0.226	
20.895	0.011	0.189	
20.900	0.453	0.149	
20.905	-0.166	0.136	
20.910	-0.215	0.101	
20.915	0.466	0.059	
20.920	0.130	0.066	
20.925	-0.249	0.080	
20.930	0.288	0.068	
20.935	0.355	0.081	
20.940	-0.262	0.107	
20.945	-0.035	0.090	
20.950	0.476	0.072	
20.955	-0.157	0.085	
20.960	-0.203	0.073	
20.965	0.445	0.049	
20.970	0.018	0.060	
20.975	-0.305	0.063	
20.980	0.189	0.034	
20.985	0.273	0.030	
20.990	-0.294	0.042	
20.995	-0.110	0.021	
21.000	0.322	-0.002	
21.005	-0.255	-0.000	
21.010	-0.319	-0.023	
21.015	0.262	-0.059	
21.020	-0.073	-0.059	
21.025	-0.346	-0.059	
21.030	0.130	-0.078	
21.035	0.187	-0.068	
21.040	-0.320	-0.042	
21.045	-0.133	-0.048	
21.050	0.308	-0.056	
21.055	-0.220	-0.037	
21.060	-0.265	-0.039	
21.065	0.338	-0.052	
21.070	-0.023	-0.031	
21.075	-0.296	-0.015	
21.080	0.360	-0.016	
21.085	0.556	0.032	
21.090	-0.131	0.111	
21.095	0.126	0.149	
21.100	0.505	0.169	
21.105	-0.212	0.190	
21.110	-0.319	0.155	
21.115	0.151	0.076	
21.120	-0.130	0.017	
21.125	-0.370	-0.037	
21.130	0.172	-0.090	
21.135	0.322	-0.085	
21.140	-0.246	-0.041	
21.145	-0.035	-0.021	
21.150	0.465	-0.000	
21.155	-0.131	0.045	
21.160	-0.165	0.061	
21.165	0.523	0.060	
21.170	0.130	0.095	
21.175	-0.215	0.121	
21.180	0.346	0.114	
21.185	0.395	0.129	
21.190	-0.223	0.155	
21.195	0.055	0.139	
21.200	0.532	0.125	
21.205	-0.093	0.143	
21.210	-0.108	0.136	
21.215	0.678	0.124	
21.220	0.317	0.168	
21.225	-0.131	0.213	
21.230	0.530	0.223	
21.235	0.642	0.259	
21.240	-0.072	0.309	
21.245	0.267	0.312	
21.250	0.756	0.312	
21.255	0.041	0.339	
21.260	-0.069	0.325	
21.265	0.578	0.280	
21.270	0.157	0.264	
21.275	-0.220	0.238	
21.280	0.346	0.185	
21.285	0.366	0.163	
21.290	-0.271	0.159	
21.295	-0.041	0.118	
21.300	0.436	0.080	
21.305	-0.169	0.077	
21.310	-0.200	0.056	
21.315	0.456	0.031	
21.320	0.117	0.051	
21.325	-0.239	0.072	
21.330	0.325	0.067	
21.335	0.360	0.088	
21.340	-0.249	0.119	
21.345	-0.005	0.105	
21.350	0.494	0.090	
21.355	-0.151	0.105	
21.360	-0.212	0.091	
21.365	0.395	0.060	
21.370	-0.023	0.059	
21.375	-0.323	0.049	
21.380	0.148	0.011	
21.385	0.155	-0.004	
21.390	-0.351	-0.006	
21.395	-0.140	-0.037	
21.400	0.285	-0.062	
21.405	-0.264	-0.055	
21.410	-0.299	-0.066	
21.415	0.238	-0.088	
21.420	-0.114	-0.080	
21.425	-0.363	-0.078	
21.430	0.119	-0.095	
21.435	0.145	-0.086	
21.440	-0.343	-0.062	
21.445	-0.114	-0.069	
21.450	0.279	-0.073	
21.455	-0.273	-0.054	
21.460	-0.322	-0.062	
21.465	0.178	-0.088	
21.470	-0.131	-0.089	
21.475	-0.339	-0.093	
21.480	0.315	-0.100	
21.485	0.407	-0.053	
21.490	-0.238	0.021	
21.495	-0.023	0.049	
21.500	0.344	0.057	
21.505	-0.296	0.067	
21.510	-0.357	0.032	
21.515	0.131	-0.032	
21.520	-0.154	-0.069	
21.525	-0.374	-0.100	
21.530	0.157	-0.131	
21.535	0.226	-0.114	
21.540	-0.314	-0.072	
21.545	-0.095	-0.060	
21.550	0.338	-0.051	
21.555	-0.204	-0.020	
21.560	-0.194	-0.013	
21.565	0.465	-0.013	
21.570	0.043	0.025	
21.575	-0.270	0.052	
21.580	0.297	0.047	
21.585	0.357	0.067	
21.590	-0.229	0.100	
21.595	0.075	0.097	
21.600	0.558	0.100	
21.605	-0.114	0.132	
21.610	-0.145	0.132	
21.615	0.543	0.114	
21.620	0.151	0.135	
21.625	-0.198	0.150	
21.630	0.441	0.138	
21.635	0.436	0.159	
21.640	-0.183	0.192	
21.645	0.168	0.184	
21.650	0.614	0.181	
21.655	-0.093	0.206	
21.660	-0.105	0.196	
21.665	0.585	0.167	
21.670	0.094	0.176	
21.675	-0.249	0.172	
21.680	0.309	0.134	
21.685	0.268	0.120	
21.690	-0.282	0.117	
21.695	0.014	0.081	
21.700	0.479	0.059	
21.705	-0.148	0.075	
21.710	-0.171	0.069	
21.715	0.471	0.053	
21.720	0.015	0.072	
21.725	-0.270	0.078	
21.730	0.294	0.056	
21.735	0.296	0.064	
21.740	-0.259	0.084	
21.745	0.032	0.070	
21.750	0.448	0.062	
21.755	-0.194	0.080	
21.760	-0.210	0.068	
21.765	0.386	0.038	
21.770	-0.055	0.040	
21.775	-0.328	0.031	
21.780	0.175	-0.004	
21.785	0.158	-0.012	
21.790	-0.351	-0.007	
21.795	-0.107	-0.033	
21.800	0.282	-0.053	
21.805	-0.270	-0.045	
21.810	-0.273	-0.057	
21.815	0.282	-0.077	
21.820	-0.139	-0.065	
21.825	-0.374	-0.065	
21.830	0.096	-0.089	
21.835	0.072	-0.090	
21.840	-0.375	-0.080	
21.845	-0.134	-0.097	
21.850	0.213	-0.108	
21.855	-0.296	-0.094	
21.860	-0.267	-0.099	
21.865	0.402	-0.103	
21.870	0.075	-0.058	
21.875	-0.197	-0.008	
21.880	0.373	0.020	
21.885	0.245	0.067	
21.890	-0.345	0.102	
21.895	-0.160	0.072	
21.900	0.072	0.017	
21.905	-0.374	-0.031	
21.910	-0.348	-0.097	
21.915	0.174	-0.152	
21.920	-0.140	-0.158	
21.925	-0.329	-0.152	
21.930	0.212	-0.148	
21.935	0.186	-0.106	
21.940	-0.310	-0.053	
21.945	-0.031	-0.038	
21.950	0.358	-0.025	
21.955	-0.232	0.007	
21.960	-0.223	0.007	
21.965	0.378	-0.009	
21.970	-0.050	0.008	
21.975	-0.282	0.014	
21.980	0.302	0.000	
21.985	0.273	0.021	
21.990	-0.277	0.053	
21.995	0.061	0.049	
22.000	0.459	0.052	
22.005	-0.177	0.081	
22.010	-0.133	0.079	
22.015	0.550	0.068	
22.020	0.076	0.099	
22.025	-0.210	0.118	
22.030	0.398	0.108	
22.035	0.337	0.126	
22.040	-0.249	0.149	
22.045	0.070	0.129	
22.050	0.441	0.111	
22.055	-0.195	0.116	
22.060	-0.195	0.091	
22.065	0.358	0.051	
22.070	-0.108	0.041	
22.075	-0.354	0.019	
22.080	0.102	-0.029	
22.085	0.011	-0.053	
22.090	-0.380	-0.067	
22.095	-0.119	-0.102	
22.100	0.201	-0.119	
22.105	-0.329	-0.108	
22.110	-0.311	-0.118	
22.115	0.154	-0.138	
22.120	-0.174	-0.130	
22.125	-0.378	-0.129	
22.130	0.079	-0.144	
22.135	0.018	-0.134	
22.140	-0.389	-0.117	
22.145	-0.142	-0.129	
22.150	0.133	-0.135	
22.155	-0.354	-0.124	
22.160	-0.310	-0.137	
22.165	0.120	-0.157	
22.170	-0.230	-0.152	
22.175	-0.435	-0.157	
22.180	-0.050	-0.184	
22.185	-0.098	-0.192	
22.190	-0.468	-0.194	
22.195	-0.215	-0.216	
22.200	0.081	-0.225	
22.205	-0.360	-0.207	
22.210	-0.335	-0.205	
22.215	0.120	-0.208	
22.220	-0.235	-0.186	
22.225	-0.416	-0.177	
22.230	0.012	-0.188	
22.235	-0.061	-0.180	
22.240	-0.422	-0.167	
22.245	-0.168	-0.180	
22.250	0.166	-0.180	
22.255	-0.282	-0.152	
22.260	-0.175	-0.137	
22.265	0.498	-0.110	
22.270	-0.055	-0.042	
22.275	-0.352	0.002	
22.280	-0.026	-0.014	
22.285	-0.171	-0.045	
22.290	-0.543	-0.094	
22.295	-0.259	-0.171	
22.300	0.033	-0.225	
22.305	-0.366	-0.235	
22.310	-0.313	-0.244	
22.315	0.157	-0.241	
22.320	-0.165	-0.203	
22.325	-0.337	-0.170	
22.330	0.200	-0.152	
22.335	0.114	-0.107	
22.340	-0.343	-0.061	
22.345	-0.070	-0.057	
22.350	0.251	-0.055	
22.355	-0.281	-0.037	
22.360	-0.213	-0.045	
22.365	0.389	-0.056	
22.370	-0.069	-0.028	
22.375	-0.279	-0.010	
22.380	0.314	-0.014	
22.385	0.247	0.014	
22.390	-0.252	0.051	
22.395	0.152	0.055	
22.400	0.561	0.075	
22.405	-0.127	0.124	
22.410	-0.063	0.137	
22.415	0.579	0.133	
22.420	0.093	0.161	
22.425	-0.171	0.173	
22.430	0.459	0.156	
22.435	0.337	0.169	
22.440	-0.261	0.185	
22.445	0.076	0.153	
22.450	0.405	0.123	
22.455	-0.238	0.116	
22.460	-0.207	0.078	
22.465	0.312	0.029	
22.470	-0.114	0.014	
22.475	-0.311	-0.007	
22.480	0.232	-0.039	
22.485	0.134	-0.034	
22.490	-0.319	-0.017	
22.495	-0.023	-0.030	
22.500	0.314	-0.033	
22.505	-0.265	-0.013	
22.510	-0.212	-0.020	
22.515	0.341	-0.036	
22.520	-0.096	-0.020	
22.525	-0.288	-0.015	
22.530	0.332	-0.025	
22.535	0.200	0.001	
22.540	-0.323	0.032	
22.545	-0.029	0.020	
22.550	0.293	0.006	
22.555	-0.282	0.011	
22.560	-0.244	-0.013	
22.565	0.283	-0.044	
22.570	-0.157	-0.044	
22.575	-0.331	-0.052	
22.580	0.212	-0.075	
22.585	0.114	-0.063	
22.590	-0.322	-0.040	
22.595	-0.005	-0.045	
22.600	0.294	-0.042	
22.605	-0.279	-0.018	
22.610	-0.233	-0.026	
22.615	0.290	-0.046	
22.620	-0.146	-0.038	
22.625	-0.322	-0.042	
22.630	0.209	-0.063	
22.635	0.027	-0.056	
22.640	-0.346	-0.046	
22.645	0.040	-0.062	
22.650	0.500	-0.047	
22.655	-0.073	0.013	
22.660	0.044	0.059	
22.665	0.579	0.098	
22.670	-0.111	0.149	
22.675	-0.370	0.146	
22.680	0.020	0.080	
22.685	-0.085	0.013	
22.690	-0.410	-0.048	
22.695	-0.064	-0.114	
22.700	0.314	-0.136	
22.705	-0.238	-0.106	
22.710	-0.142	-0.086	
22.715	0.482	-0.062	
22.720	0.024	-0.000	
22.725	-0.201	0.046	
22.730	0.444	0.063	
22.735	0.317	0.106	
22.740	-0.226	0.147	
22.745	0.169	0.142	
22.750	0.425	0.138	
22.755	-0.185	0.149	
22.760	-0.082	0.126	
22.765	0.582	0.102	
22.770	0.079	0.125	
22.775	-0.168	0.140	
22.780	0.532	0.134	
22.785	0.413	0.167	
22.790	-0.140	0.208	
22.795	0.390	0.214	
22.800	0.800	0.244	
22.805	0.041	0.308	
22.810	0.151	0.330	
22.815	0.799	0.332	
22.820	0.224	0.363	
22.825	-0.114	0.364	
22.830	0.570	0.323	
22.835	0.404	0.309	
22.840	-0.156	0.302	
22.845	0.290	0.260	
22.850	0.552	0.237	
22.855	-0.175	0.238	
22.860	-0.149	0.197	
22.865	0.447	0.139	
22.870	-0.058	0.116	
22.875	-0.252	0.088	
22.880	0.383	0.049	
22.885	0.241	0.056	
22.890	-0.247	0.077	
22.895	0.143	0.069	
22.900	0.431	0.073	
22.905	-0.194	0.100	
22.910	-0.087	0.092	
22.915	0.538	0.079	
22.920	0.011	0.105	
22.925	-0.213	0.114	
22.930	0.392	0.096	
22.935	0.253	0.108	
22.940	-0.255	0.123	
22.945	0.101	0.101	
22.950	0.363	0.085	
22.955	-0.246	0.089	
22.960	-0.192	0.059	
22.965	0.343	0.021	
22.970	-0.127	0.015	
22.975	-0.305	-0.001	
22.980	0.262	-0.030	
22.985	0.114	-0.024	
22.990	-0.313	-0.008	
22.995	0.024	-0.021	
23.000	0.288	-0.023	
23.005	-0.305	-0.006	
23.010	-0.229	-0.022	
23.015	0.312	-0.046	
23.020	-0.145	-0.038	
23.025	-0.311	-0.041	
23.030	0.238	-0.059	
23.035	0.090	-0.045	
23.040	-0.288	-0.024	
23.045	0.200	-0.022	
23.050	0.608	0.016	
23.055	-0.089	0.093	
23.060	-0.002	0.133	
23.065	0.529	0.149	
23.070	-0.137	0.171	
23.075	-0.358	0.146	
23.080	0.061	0.070	
23.085	-0.078	0.005	
23.090	-0.409	-0.051	
23.095	-0.034	-0.112	
23.100	0.305	-0.129	
23.105	-0.261	-0.099	
23.110	-0.166	-0.084	
23.115	0.439	-0.068	
23.120	-0.050	-0.017	
23.125	-0.207	0.017	
23.130	0.451	0.030	
23.135	0.256	0.075	
23.140	-0.235	0.117	
23.145	0.227	0.116	
23.150	0.503	0.128	
23.155	-0.186	0.158	
23.160	-0.099	0.146	
23.165	0.564	0.121	
23.170	0.037	0.135	
23.175	-0.153	0.140	
23.180	0.572	0.130	
23.185	0.351	0.163	
23.190	-0.188	0.200	
23.195	0.387	0.197	
23.200	0.706	0.219	
23.205	-0.046	0.271	
23.210	0.110	0.279	
23.215	0.727	0.274	
23.220	0.137	0.299	
23.225	-0.120	0.297	
23.230	0.567	0.262	
23.235	0.338	0.259	
23.240	-0.206	0.258	
23.245	0.242	0.217	
23.250	0.448	0.191	
23.255	-0.204	0.186	
23.260	-0.113	0.146	
23.265	0.471	0.101	
23.270	-0.081	0.095	
23.275	-0.238	0.078	
23.280	0.373	0.046	
23.285	0.157	0.053	
23.290	-0.285	0.065	
23.295	0.142	0.047	
23.300	0.436	0.049	
23.305	-0.169	0.080	
23.310	-0.061	0.082	
23.315	0.441	0.075	
23.320	-0.087	0.091	
23.325	-0.247	0.083	
23.330	0.372	0.055	
23.335	0.177	0.061	
23.340	-0.294	0.073	
23.345	0.099	0.051	
23.350	0.306	0.041	
23.355	-0.277	0.048	
23.360	-0.186	0.023	
23.365	0.340	-0.008	
23.370	-0.145	-0.006	
23.375	-0.279	-0.014	
23.380	0.323	-0.033	
23.385	0.114	-0.014	
23.390	-0.317	0.009	
23.395	0.050	-0.003	
23.400	0.287	-0.006	
23.405	-0.291	0.010	
23.410	-0.174	-0.006	
23.415	0.341	-0.027	
23.420	-0.185	-0.017	
23.425	-0.332	-0.025	
23.430	0.195	-0.055	
23.435	0.017	-0.056	
23.440	-0.325	-0.051	
23.445	0.184	-0.059	
23.450	0.535	-0.026	
23.455	-0.171	0.045	
23.460	-0.070	0.078	
23.465	0.441	0.085	
23.470	-0.191	0.102	
23.475	-0.380	0.076	
23.480	0.065	0.009	
23.485	-0.095	-0.042	
23.490	-0.396	-0.083	
23.495	-0.037	-0.130	
23.500	0.197	-0.142	
23.505	-0.310	-0.120	
23.510	-0.188	-0.115	
23.515	0.367	-0.106	
23.520	-0.127	-0.062	
23.525	-0.252	-0.036	
23.530	0.367	-0.028	
23.535	0.125	0.009	
23.540	-0.300	0.040	
23.545	0.136	0.032	
23.550	0.376	0.038	
23.555	-0.226	0.065	
23.560	-0.098	0.058	
23.565	0.501	0.048	
23.570	-0.084	0.072	
23.575	-0.221	0.075	
23.580	0.444	0.060	
23.585	0.241	0.083	
23.590	-0.206	0.112	
23.595	0.328	0.113	
23.600	0.524	0.137	
23.605	-0.160	0.180	
23.610	-0.006	0.177	
23.615	0.575	0.162	
23.620	-0.055	0.174	
23.625	-0.204	0.160	
23.630	0.441	0.123	
23.635	0.166	0.121	
23.640	-0.281	0.120	
23.645	0.120	0.085	
23.650	0.261	0.062	
23.655	-0.311	0.055	
23.660	-0.178	0.016	
23.665	0.296	-0.023	
23.670	-0.168	-0.027	
23.675	-0.262	-0.038	
23.680	0.331	-0.053	
23.685	0.056	-0.029	
23.690	-0.314	-0.006	
23.695	0.111	-0.015	
23.700	0.311	-0.007	
23.705	-0.267	0.020	
23.710	-0.128	0.014	
23.715	0.361	0.000	
23.720	-0.183	0.013	
23.725	-0.303	0.002	
23.730	0.241	-0.029	
23.735	-0.026	-0.032	
23.740	-0.369	-0.035	
23.745	-0.023	-0.067	
23.750	0.076	-0.086	
23.755	-0.406	-0.092	
23.760	-0.264	-0.124	
23.765	0.113	-0.155	
23.770	-0.284	-0.156	
23.775	-0.381	-0.167	
23.780	0.097	-0.185	
23.785	-0.110	-0.173	
23.790	-0.415	-0.160	
23.795	-0.070	-0.171	
23.800	0.043	-0.168	
23.805	-0.416	-0.154	
23.810	-0.267	-0.168	
23.815	0.090	-0.183	
23.820	-0.331	-0.176	
23.825	-0.412	-0.186	
23.830	0.070	-0.206	
23.835	-0.093	-0.195	
23.840	-0.337	-0.174	
23.845	0.158	-0.160	
23.850	0.235	-0.114	
23.855	-0.375	-0.058	
23.860	-0.293	-0.057	
23.865	-0.046	-0.093	
23.870	-0.425	-0.131	
23.875	-0.492	-0.189	
23.880	-0.060	-0.251	
23.885	-0.207	-0.273	
23.890	-0.464	-0.276	
23.895	-0.081	-0.283	
23.900	0.056	-0.261	
23.905	-0.390	-0.218	
23.910	-0.227	-0.201	
23.915	0.215	-0.184	
23.920	-0.258	-0.145	
23.925	-0.339	-0.128	
23.930	0.181	-0.131	
23.935	-0.095	-0.111	
23.940	-0.393	-0.100	
23.945	-0.047	-0.119	
23.950	0.068	-0.125	
23.955	-0.383	-0.119	
23.960	-0.227	-0.137	
23.965	0.223	-0.148	
23.970	-0.241	-0.128	
23.975	-0.311	-0.120	
23.980	0.262	-0.122	
23.985	-0.023	-0.092	
23.990	-0.317	-0.065	
23.995	0.142	-0.063	
24.000	0.271	-0.040	
24.005	-0.291	-0.003	
24.010	-0.128	-0.004	
24.015	0.325	-0.015	
24.020	-0.226	-0.003	
24.025	-0.314	-0.018	
24.030	0.163	-0.053	
24.035	-0.137	-0.067	
24.040	-0.427	-0.086	
24.045	-0.089	-0.129	
24.050	-0.024	-0.156	
24.055	-0.454	-0.167	
24.060	-0.306	-0.199	
24.065	0.029	-0.226	
24.070	-0.349	-0.225	
24.075	-0.415	-0.233	
24.080	0.046	-0.246	
24.085	-0.186	-0.231	
24.090	-0.464	-0.217	
24.095	-0.128	-0.228	
24.100	-0.058	-0.227	
24.105	-0.445	-0.216	
24.110	-0.284	-0.228	
24.115	0.058	-0.236	
24.120	-0.357	-0.220	
24.125	-0.424	-0.222	
24.130	-0.002	-0.237	
24.135	-0.221	-0.231	
24.140	-0.488	-0.228	
24.145	-0.146	-0.247	
24.150	-0.099	-0.251	
24.155	-0.491	-0.245	
24.160	-0.326	-0.262	
24.165	-0.038	-0.277	
24.170	-0.399	-0.270	
24.175	-0.454	-0.276	
24.180	-0.049	-0.291	
24.185	-0.233	-0.281	
24.190	-0.474	-0.270	
24.195	-0.117	-0.274	
24.200	-0.050	-0.261	
24.205	-0.453	-0.237	
24.210	-0.281	-0.239	
24.215	0.015	-0.242	
24.220	-0.377	-0.227	
24.225	-0.390	-0.230	
24.230	0.189	-0.234	
24.235	0.000	-0.193	
24.240	-0.284	-0.142	
24.245	0.145	-0.110	
24.250	0.081	-0.070	
24.255	-0.491	-0.046	
24.260	-0.387	-0.085	
24.265	-0.153	-0.154	
24.270	-0.462	-0.213	
24.275	-0.453	-0.273	
24.280	0.059	-0.313	
24.285	-0.157	-0.297	
24.290	-0.392	-0.264	
24.295	0.011	-0.242	
24.300	0.119	-0.199	
24.305	-0.340	-0.145	
24.310	-0.130	-0.123	
24.315	0.311	-0.103	
24.320	-0.221	-0.062	
24.325	-0.264	-0.048	
24.330	0.311	-0.053	
24.335	-0.046	-0.031	
24.340	-0.326	-0.020	
24.345	0.119	-0.037	
24.350	0.223	-0.033	
24.355	-0.297	-0.012	
24.360	-0.056	-0.020	
24.365	0.436	-0.018	
24.370	-0.166	0.015	
24.375	-0.212	0.024	
24.380	0.444	0.017	
24.385	0.134	0.048	
24.390	-0.215	0.077	
24.395	0.369	0.081	
24.400	0.445	0.112	
24.405	-0.209	0.155	
24.410	0.049	0.151	
24.415	0.488	0.139	
24.420	-0.174	0.146	
24.425	-0.242	0.118	
24.430	0.335	0.068	
24.435	-0.056	0.048	
24.440	-0.343	0.023	
24.445	0.111	-0.022	
24.450	0.116	-0.041	
24.455	-0.375	-0.044	
24.460	-0.165	-0.074	
24.465	0.255	-0.096	
24.470	-0.268	-0.086	
24.475	-0.281	-0.091	
24.480	0.261	-0.103	
24.485	-0.093	-0.083	
24.490	-0.340	-0.070	
24.495	0.136	-0.080	
24.500	0.190	-0.065	
24.505	-0.322	-0.036	
24.510	-0.099	-0.041	
24.515	0.315	-0.045	
24.520	-0.255	-0.026	
24.525	-0.291	-0.034	
24.530	0.256	-0.059	
24.535	-0.116	-0.055	
24.540	-0.378	-0.060	
24.545	0.046	-0.089	
24.550	0.075	-0.097	
24.555	-0.386	-0.091	
24.560	-0.203	-0.114	
24.565	0.111	-0.135	
24.570	-0.320	-0.134	
24.575	-0.303	-0.148	
24.580	0.262	-0.158	
24.585	-0.128	-0.129	
24.590	-0.370	-0.108	
24.595	0.097	-0.113	
24.600	0.097	-0.099	
24.605	-0.374	-0.077	
24.610	-0.160	-0.089	
24.615	0.197	-0.102	
24.620	-0.322	-0.093	
24.625	-0.308	-0.107	
24.630	0.410	-0.118	
24.635	0.148	-0.071	
24.640	-0.148	-0.009	
24.645	0.463	0.037	
24.650	0.331	0.105	
24.655	-0.352	0.154	
24.660	-0.226	0.122	
24.665	0.000	0.047	
24.670	-0.387	-0.027	
24.675	-0.342	-0.110	
24.680	0.259	-0.168	
24.685	-0.084	-0.161	
24.690	-0.334	-0.139	
24.695	0.227	-0.127	
24.700	0.312	-0.078	
24.705	-0.273	-0.012	
24.710	0.004	0.012	
24.715	0.448	0.030	
24.720	-0.171	0.067	
24.725	-0.182	0.069	
24.730	0.497	0.056	
24.735	0.099	0.081	
24.740	-0.223	0.100	
24.745	0.367	0.092	
24.750	0.351	0.111	
24.755	-0.238	0.138	
24.760	0.101	0.125	
24.765	0.581	0.120	
24.770	-0.087	0.150	
24.775	-0.110	0.151	
24.780	0.643	0.139	
24.785	0.271	0.174	
24.790	-0.122	0.208	
24.795	0.562	0.214	
24.800	0.575	0.250	
24.805	-0.125	0.295	
24.810	0.241	0.289	
24.815	0.625	0.277	
24.820	-0.104	0.285	
24.825	-0.137	0.249	
24.830	0.537	0.192	
24.835	0.091	0.177	
24.840	-0.252	0.158	
24.845	0.328	0.116	
24.850	0.328	0.107	
24.855	-0.258	0.117	
24.860	0.020	0.092	
24.865	0.469	0.075	
24.870	-0.160	0.089	
24.875	-0.156	0.079	
24.880	0.529	0.063	
24.885	0.049	0.087	
24.890	-0.265	0.099	
24.895	0.337	0.080	
24.900	0.375	0.092	
24.905	-0.233	0.121	
24.910	0.068	0.111	
24.915	0.509	0.105	
24.920	-0.143	0.126	
24.925	-0.157	0.116	
24.930	0.479	0.091	
24.935	0.018	0.099	
24.940	-0.285	0.096	
24.945	0.258	0.063	
24.950	0.233	0.056	
24.955	-0.310	0.062	
24.960	-0.067	0.032	
24.965	0.329	0.006	
24.970	-0.232	0.009	
24.975	-0.232	-0.008	
24.980	0.360	-0.031	
24.985	-0.069	-0.017	
24.990	-0.313	-0.011	
24.995	0.242	-0.027	
25.000	0.239	-0.011	
25.005	-0.300	0.018	
25.010	-0.075	0.009	
25.015	0.297	-0.004	
25.020	-0.250	0.003	
25.025	-0.226	-0.014	
25.030	0.476	-0.030	
25.035	0.166	0.008	
25.040	-0.120	0.058	
25.045	0.604	0.096	
25.050	0.511	0.170	
25.055	-0.220	0.240	
25.060	0.015	0.235	
25.065	0.306	0.194	
25.070	-0.313	0.153	
25.075	-0.317	0.075	
25.080	0.283	-0.008	
25.085	-0.070	-0.039	
25.090	-0.264	-0.052	
25.095	0.399	-0.059	
25.100	0.418	-0.007	
25.105	-0.213	0.067	
25.110	0.148	0.097	
25.115	0.572	0.124	
25.120	-0.105	0.169	
25.125	-0.084	0.173	
25.130	0.646	0.160	
25.135	0.192	0.189	
25.140	-0.162	0.208	
25.145	0.506	0.197	
25.150	0.463	0.215	
25.155	-0.174	0.243	
25.160	0.195	0.226	
25.165	0.614	0.214	
25.170	-0.070	0.231	
25.175	-0.047	0.217	
25.180	0.694	0.194	
25.185	0.265	0.221	
25.190	-0.113	0.245	
25.195	0.601	0.241	
25.200	0.556	0.270	
25.205	-0.146	0.307	
25.210	0.245	0.292	
25.215	0.645	0.276	
25.220	-0.066	0.285	
25.225	-0.058	0.258	
25.230	0.617	0.217	
25.235	0.136	0.218	
25.240	-0.206	0.209	
25.245	0.376	0.171	
25.250	0.294	0.159	
25.255	-0.267	0.157	
25.260	0.030	0.117	
25.265	0.422	0.085	
25.270	-0.182	0.086	
25.275	-0.153	0.066	
25.280	0.488	0.045	
25.285	0.014	0.064	
25.290	-0.235	0.075	
25.295	0.387	0.063	
25.300	0.352	0.087	
25.305	-0.223	0.123	
25.310	0.142	0.120	
25.315	0.509	0.123	
25.320	-0.166	0.147	
25.325	-0.142	0.134	
25.330	0.489	0.104	
25.335	-0.024	0.108	
25.340	-0.281	0.097	
25.345	0.287	0.060	
25.350	0.233	0.055	
25.355	-0.308	0.063	
25.360	-0.018	0.037	
25.365	0.369	0.018	
25.370	-0.236	0.028	
25.375	-0.221	0.013	
25.380	0.352	-0.012	
25.385	-0.099	-0.005	
25.390	-0.325	-0.008	
25.395	0.224	-0.032	
25.400	0.223	-0.022	
25.405	-0.296	0.004	
25.410	0.003	-0.001	
25.415	0.346	-0.000	
25.420	-0.250	0.020	
25.425	-0.209	0.010	
25.430	0.401	-0.009	
25.435	-0.009	0.010	
25.440	-0.180	0.027	
25.445	0.617	0.042	
25.450	0.553	0.115	
25.455	-0.159	0.203	
25.460	0.149	0.226	
25.465	0.354	0.218	
25.470	-0.302	0.200	
25.475	-0.290	0.129	
25.480	0.221	0.040	
25.485	-0.162	-0.012	
25.490	-0.328	-0.055	
25.495	0.232	-0.093	
25.500	0.183	-0.080	
25.505	-0.285	-0.044	
25.510	0.107	-0.032	
25.515	0.465	-0.001	
25.520	-0.160	0.054	
25.525	-0.101	0.074	
25.530	0.537	0.078	
25.535	0.040	0.112	
25.540	-0.221	0.126	
25.545	0.428	0.111	
25.550	0.323	0.128	
25.555	-0.238	0.151	
25.560	0.158	0.134	
25.565	0.535	0.130	
25.570	-0.120	0.155	
25.575	-0.055	0.150	
25.580	0.623	0.138	
25.585	0.154	0.168	
25.590	-0.114	0.190	
25.595	0.619	0.191	
25.600	0.524	0.232	
25.605	-0.128	0.280	
25.610	0.338	0.280	
25.615	0.616	0.282	
25.620	-0.119	0.298	
25.625	-0.070	0.265	
25.630	0.518	0.212	
25.635	-0.049	0.189	
25.640	-0.255	0.150	
25.645	0.341	0.094	
25.650	0.198	0.077	
25.655	-0.296	0.076	
25.660	0.046	0.045	
25.665	0.348	0.028	
25.670	-0.239	0.037	
25.675	-0.168	0.022	
25.680	0.418	0.002	
25.685	-0.078	0.020	
25.690	-0.279	0.024	
25.695	0.306	0.006	
25.700	0.192	0.021	
25.705	-0.288	0.043	
25.710	0.044	0.030	
25.715	0.346	0.025	
25.720	-0.255	0.040	
25.725	-0.218	0.022	
25.730	0.306	-0.008	
25.735	-0.160	-0.011	
25.740	-0.343	-0.027	
25.745	0.177	-0.060	
25.750	0.046	-0.063	
25.755	-0.374	-0.058	
25.760	-0.099	-0.081	
25.765	0.158	-0.097	
25.770	-0.342	-0.093	
25.775	-0.265	-0.110	
25.780	0.242	-0.127	
25.785	-0.192	-0.111	
25.790	-0.363	-0.106	
25.795	0.137	-0.120	
25.800	0.024	-0.107	
25.805	-0.386	-0.091	
25.810	-0.116	-0.106	
25.815	0.101	-0.117	
25.820	-0.364	-0.114	
25.825	-0.285	-0.134	
25.830	0.248	-0.150	
25.835	-0.136	-0.127	
25.840	-0.242	-0.105	
25.845	0.410	-0.084	
25.850	0.157	-0.024	
25.855	-0.390	0.025	
25.860	-0.209	0.006	
25.865	-0.117	-0.047	
25.870	-0.505	-0.108	
25.875	-0.406	-0.189	
25.880	0.033	-0.253	
25.885	-0.282	-0.266	
25.890	-0.418	-0.268	
25.895	0.062	-0.268	
25.900	-0.041	-0.234	
25.905	-0.377	-0.192	
25.910	-0.067	-0.176	
25.915	0.213	-0.149	
25.920	-0.317	-0.107	
25.925	-0.239	-0.096	
25.930	0.277	-0.098	
25.935	-0.178	-0.074	
25.940	-0.332	-0.068	
25.945	0.224	-0.081	
25.950	0.108	-0.062	
25.955	-0.279	-0.034	
25.960	0.148	-0.028	
25.965	0.415	0.000	
25.970	-0.217	0.049	
25.975	-0.098	0.059	
25.980	0.558	0.059	
25.985	0.041	0.098	
25.990	-0.162	0.120	
25.995	0.534	0.121	
26.000	0.322	0.156	
26.005	-0.226	0.188	
26.010	0.241	0.174	
26.015	0.448	0.168	
26.020	-0.212	0.176	
26.025	-0.125	0.143	
26.030	0.445	0.100	
26.035	-0.089	0.091	
26.040	-0.265	0.070	
26.045	0.294	0.032	
26.050	0.090	0.026	
26.055	-0.331	0.025	
26.060	0.018	-0.005	
26.065	0.259	-0.021	
26.070	-0.290	-0.014	
26.075	-0.175	-0.030	
26.080	0.383	-0.045	
26.085	-0.124	-0.022	
26.090	-0.265	-0.013	
26.095	0.317	-0.022	
26.100	0.123	0.001	
26.105	-0.288	0.024	
26.110	0.122	0.016	
26.115	0.402	0.026	
26.120	-0.227	0.058	
26.125	-0.145	0.054	
26.130	0.398	0.037	
26.135	-0.136	0.045	
26.140	-0.305	0.033	
26.145	0.230	-0.003	
26.150	0.050	-0.011	
26.155	-0.355	-0.014	
26.160	-0.038	-0.045	
26.165	0.178	-0.064	
26.170	-0.328	-0.061	
26.175	-0.233	-0.082	
26.180	0.239	-0.102	
26.185	-0.230	-0.093	
26.190	-0.358	-0.098	
26.195	0.200	-0.117	
26.200	0.014	-0.102	
26.205	-0.349	-0.081	
26.210	-0.012	-0.089	
26.215	0.195	-0.084	
26.220	-0.343	-0.065	
26.225	-0.264	-0.078	
26.230	0.258	-0.098	
26.235	-0.134	-0.085	
26.240	-0.203	-0.073	
26.245	0.590	-0.051	
26.250	0.344	0.030	
26.255	-0.239	0.113	
26.260	0.043	0.128	
26.265	0.102	0.110	
26.270	-0.425	0.072	
26.275	-0.322	-0.009	
26.280	0.145	-0.090	
26.285	-0.218	-0.125	
26.290	-0.320	-0.147	
26.295	0.294	-0.157	
26.300	0.117	-0.115	
26.305	-0.294	-0.062	
26.310	0.136	-0.040	
26.315	0.408	-0.004	
26.320	-0.218	0.048	
26.325	-0.099	0.059	
26.330	0.492	0.057	
26.335	-0.063	0.084	
26.340	-0.213	0.088	
26.345	0.456	0.073	
26.350	0.218	0.094	
26.355	-0.226	0.118	
26.360	0.271	0.109	
26.365	0.517	0.124	
26.370	-0.160	0.161	
26.375	-0.026	0.157	
26.380	0.549	0.142	
26.385	-0.055	0.155	
26.390	-0.210	0.144	
26.395	0.445	0.110	
26.400	0.261	0.117	
26.405	-0.230	0.132	
26.410	0.216	0.116	
26.415	0.415	0.115	
26.420	-0.224	0.132	
26.425	-0.108	0.109	
26.430	0.431	0.077	
26.435	-0.125	0.076	
26.440	-0.255	0.058	
26.445	0.303	0.024	
26.450	0.050	0.021	
26.455	-0.329	0.019	
26.460	0.015	-0.013	
26.465	0.212	-0.030	
26.470	-0.299	-0.027	
26.475	-0.171	-0.046	
26.480	0.361	-0.059	
26.485	-0.124	-0.036	
26.490	-0.250	-0.023	
26.495	0.314	-0.028	
26.500	0.120	-0.001	
26.505	-0.262	0.025	
26.510	0.218	0.025	
26.515	0.418	0.048	
26.520	-0.226	0.088	
26.525	-0.096	0.086	
26.530	0.447	0.070	
26.535	-0.113	0.081	
26.540	-0.242	0.070	
26.545	0.355	0.041	
26.550	0.101	0.045	
26.555	-0.305	0.051	
26.560	0.090	0.024	
26.565	0.290	0.015	
26.570	-0.274	0.025	
26.575	-0.140	0.008	
26.580	0.364	-0.011	
26.585	-0.171	0.001	
26.590	-0.276	-0.005	
26.595	0.296	-0.027	
26.600	0.046	-0.016	
26.605	-0.311	-0.004	
26.610	0.113	-0.019	
26.615	0.248	-0.015	
26.620	-0.297	0.004	
26.625	-0.156	-0.011	
26.630	0.311	-0.030	
26.635	-0.172	-0.020	
26.640	-0.217	-0.023	
26.645	0.575	-0.022	
26.650	0.422	0.045	
26.655	-0.117	0.130	
26.660	0.378	0.174	
26.665	0.352	0.209	
26.670	-0.328	0.222	
26.675	-0.242	0.163	
26.680	0.154	0.073	
26.685	-0.253	0.007	
26.690	-0.322	-0.058	
26.695	0.276	-0.108	
26.700	0.059	-0.099	
26.705	-0.279	-0.071	
26.710	0.226	-0.057	
26.715	0.424	-0.012	
26.720	-0.197	0.053	
26.725	-0.002	0.076	
26.730	0.555	0.090	
26.735	-0.069	0.128	
26.740	-0.175	0.134	
26.745	0.530	0.118	
26.750	0.296	0.142	
26.755	-0.168	0.172	
26.760	0.358	0.170	
26.765	0.541	0.188	
26.770	-0.142	0.222	
26.775	0.068	0.212	
26.780	0.674	0.200	
26.785	0.041	0.224	
26.790	-0.066	0.226	
26.795	0.694	0.213	
26.800	0.418	0.248	
26.805	-0.116	0.284	
26.810	0.485	0.281	
26.815	0.646	0.296	
26.820	-0.095	0.327	
26.825	0.117	0.308	
26.830	0.628	0.278	
26.835	-0.003	0.274	
26.840	-0.133	0.245	
26.845	0.521	0.197	
26.850	0.183	0.187	
26.855	-0.242	0.178	
26.860	0.223	0.137	
26.865	0.334	0.116	
26.870	-0.273	0.113	
26.875	-0.136	0.074	
26.880	0.381	0.034	
26.885	-0.137	0.031	
26.890	-0.221	0.018	
26.895	0.380	-0.001	
26.900	0.091	0.019	
26.905	-0.273	0.039	
26.910	0.216	0.030	
26.915	0.372	0.045	
26.920	-0.210	0.079	
26.925	-0.032	0.077	
26.930	0.485	0.072	
26.935	-0.116	0.094	
26.940	-0.131	0.093	
26.945	0.447	0.078	
26.950	0.096	0.096	
26.955	-0.296	0.103	
26.960	0.232	0.075	
26.965	0.251	0.067	
26.970	-0.299	0.071	
26.975	-0.157	0.036	
26.980	0.255	-0.004	
26.985	-0.238	-0.018	
26.990	-0.320	-0.046	
26.995	0.184	-0.084	
27.000	-0.070	-0.088	
27.005	-0.348	-0.087	
27.010	0.065	-0.104	
27.015	0.163	-0.095	
27.020	-0.326	-0.070	
27.025	-0.177	-0.076	
27.030	0.259	-0.084	
27.035	-0.235	-0.068	
27.040	-0.291	-0.070	
27.045	0.311	-0.082	
27.050	0.107	-0.052	
27.055	-0.201	-0.013	
27.060	0.346	0.011	
27.065	0.381	0.061	
27.070	-0.296	0.112	
27.075	-0.207	0.097	
27.080	0.067	0.042	
27.085	-0.355	-0.013	
27.090	-0.422	-0.086	
27.095	0.088	-0.158	
27.100	-0.113	-0.180	
27.105	-0.369	-0.182	
27.110	0.088	-0.184	
27.115	0.270	-0.147	
27.120	-0.259	-0.085	
27.125	-0.081	-0.054	
27.130	0.407	-0.030	
27.135	-0.169	0.014	
27.140	-0.233	0.025	
27.145	0.398	0.015	
27.150	0.084	0.037	
27.155	-0.277	0.054	
27.160	0.229	0.042	
27.165	0.340	0.052	
27.170	-0.223	0.079	
27.175	-0.011	0.072	
27.180	0.520	0.068	
27.185	-0.096	0.097	
27.190	-0.162	0.101	
27.195	0.526	0.089	
27.200	0.229	0.118	
27.205	-0.186	0.148	
27.210	0.395	0.146	
27.215	0.476	0.169	
27.220	-0.182	0.202	
27.225	0.008	0.187	
27.230	0.442	0.158	
27.235	-0.174	0.147	
27.240	-0.198	0.110	
27.245	0.412	0.064	
27.250	0.037	0.060	
27.255	-0.331	0.054	
27.260	0.111	0.018	
27.265	0.189	0.000	
27.270	-0.325	-0.001	
27.275	-0.172	-0.031	
27.280	0.239	-0.059	
27.285	-0.242	-0.060	
27.290	-0.287	-0.073	
27.295	0.242	-0.093	
27.300	-0.075	-0.080	
27.305	-0.361	-0.071	
27.310	0.072	-0.087	
27.315	0.168	-0.081	
27.320	-0.323	-0.060	
27.325	-0.140	-0.066	
27.330	0.288	-0.072	
27.335	-0.233	-0.052	
27.340	-0.290	-0.054	
27.345	0.229	-0.072	
27.350	-0.111	-0.065	
27.355	-0.409	-0.068	
27.360	-0.053	-0.103	
27.365	0.041	-0.122	
27.370	-0.380	-0.126	
27.375	-0.195	-0.146	
27.380	0.151	-0.158	
27.385	-0.326	-0.145	
27.390	-0.377	-0.152	
27.395	0.084	-0.173	
27.400	-0.166	-0.169	
27.405	-0.406	-0.166	
27.410	-0.012	-0.180	
27.415	0.041	-0.171	
27.420	-0.415	-0.151	
27.425	-0.227	-0.160	
27.430	0.085	-0.171	
27.435	-0.342	-0.164	
27.440	-0.355	-0.174	
27.445	0.165	-0.187	
27.450	-0.084	-0.165	
27.455	-0.296	-0.137	
27.460	0.276	-0.116	
27.465	0.303	-0.059	
27.470	-0.303	0.007	
27.475	-0.169	0.016	
27.480	0.081	-0.008	
27.485	-0.387	-0.037	
27.490	-0.436	-0.096	
27.495	-0.014	-0.166	
27.500	-0.210	-0.201	
27.505	-0.424	-0.221	
27.510	0.017	-0.238	
27.515	0.070	-0.217	
27.520	-0.357	-0.176	
27.525	-0.130	-0.159	
27.530	0.331	-0.134	
27.535	-0.232	-0.084	
27.540	-0.255	-0.061	
27.545	0.331	-0.058	
27.550	-0.061	-0.029	
27.555	-0.317	-0.015	
27.560	0.184	-0.029	
27.565	0.209	-0.018	
27.570	-0.317	0.003	
27.575	-0.093	-0.010	
27.580	0.355	-0.022	
27.585	-0.197	-0.004	
27.590	-0.201	-0.006	
27.595	0.444	-0.013	
27.600	0.053	0.020	
27.605	-0.247	0.047	
27.610	0.308	0.045	
27.615	0.357	0.069	
27.620	-0.230	0.105	
27.625	0.033	0.100	
27.630	0.451	0.092	
27.635	-0.174	0.107	
27.640	-0.213	0.089	
27.645	0.369	0.053	
27.650	-0.043	0.048	
27.655	-0.308	0.035	
27.660	0.163	-0.000	
27.665	0.128	-0.011	
27.670	-0.354	-0.011	
27.675	-0.145	-0.043	
27.680	0.235	-0.069	
27.685	-0.268	-0.067	
27.690	-0.290	-0.081	
27.695	0.280	-0.099	
27.700	-0.099	-0.081	
27.705	-0.343	-0.070	
27.710	0.125	-0.082	
27.715	0.158	-0.070	
27.720	-0.339	-0.046	
27.725	-0.137	-0.056	
27.730	0.241	-0.068	
27.735	-0.285	-0.058	
27.740	-0.319	-0.073	
27.745	0.155	-0.102	
27.750	-0.160	-0.105	
27.755	-0.399	-0.113	
27.760	0.003	-0.141	
27.765	0.000	-0.146	
27.770	-0.416	-0.141	
27.775	-0.197	-0.160	
27.780	0.136	-0.171	
27.785	-0.326	-0.156	
27.790	-0.335	-0.160	
27.795	0.134	-0.172	
27.800	-0.186	-0.158	
27.805	-0.398	-0.151	
27.810	0.023	-0.164	
27.815	0.001	-0.156	
27.820	-0.425	-0.142	
27.825	-0.227	-0.159	
27.830	0.001	-0.178	
27.835	-0.381	-0.183	
27.840	-0.342	-0.202	
27.845	0.264	-0.211	
27.850	-0.018	-0.169	
27.855	-0.242	-0.118	
27.860	0.236	-0.083	
27.865	0.040	-0.038	
27.870	-0.467	-0.016	
27.875	-0.317	-0.058	
27.880	-0.110	-0.124	
27.885	-0.444	-0.179	
27.890	-0.398	-0.237	
27.895	0.099	-0.275	
27.900	-0.186	-0.260	
27.905	-0.392	-0.236	
27.910	0.078	-0.221	
27.915	0.049	-0.182	
27.920	-0.381	-0.139	
27.925	-0.151	-0.132	
27.930	0.215	-0.126	
27.935	-0.291	-0.100	
27.940	-0.270	-0.098	
27.945	0.274	-0.105	
27.950	-0.124	-0.082	
27.955	-0.332	-0.069	
27.960	0.172	-0.079	
27.965	0.168	-0.061	
27.970	-0.308	-0.031	
27.975	-0.044	-0.034	
27.980	0.373	-0.030	
27.985	-0.209	0.000	
27.990	-0.191	0.004	
27.995	0.459	-0.001	
28.000	0.030	0.032	
28.005	-0.244	0.055	
28.010	0.328	0.050	
28.015	0.273	0.070	
28.020	-0.259	0.095	
28.025	0.032	0.080	
28.030	0.381	0.067	
28.035	-0.235	0.073	
28.040	-0.238	0.048	
28.045	0.287	0.007	
28.050	-0.104	-0.003	
28.055	-0.314	-0.019	
28.060	0.172	-0.049	
28.065	0.108	-0.048	
28.070	-0.355	-0.037	
28.075	-0.108	-0.058	
28.080	0.245	-0.072	
28.085	-0.271	-0.061	
28.090	-0.247	-0.069	
28.095	0.296	-0.082	
28.100	-0.105	-0.062	
28.105	-0.342	-0.053	
28.110	0.136	-0.069	
28.115	0.099	-0.062	
28.120	-0.313	-0.047	
28.125	-0.011	-0.055	
28.130	0.344	-0.049	
28.135	-0.253	-0.017	
28.140	-0.252	-0.017	
28.145	0.283	-0.036	
28.150	-0.137	-0.030	
28.155	-0.360	-0.038	
28.160	0.111	-0.069	
28.165	0.041	-0.076	
28.170	-0.363	-0.074	
28.175	-0.114	-0.095	
28.180	0.190	-0.107	
28.185	-0.305	-0.095	
28.190	-0.282	-0.104	
28.195	0.238	-0.118	
28.200	-0.154	-0.101	
28.205	-0.363	-0.095	
28.210	0.113	-0.109	
28.215	0.055	-0.100	
28.220	-0.366	-0.084	
28.225	-0.128	-0.097	
28.230	0.200	-0.106	
28.235	-0.293	-0.091	
28.240	-0.233	-0.096	
28.245	0.451	-0.095	
28.250	0.148	-0.039	
28.255	-0.142	0.024	
28.260	0.428	0.063	
28.265	0.190	0.113	
28.270	-0.399	0.136	
28.275	-0.218	0.083	
28.280	-0.026	0.003	
28.285	-0.395	-0.068	
28.290	-0.303	-0.142	
28.295	0.268	-0.186	
28.300	-0.110	-0.168	
28.305	-0.308	-0.140	
28.310	0.264	-0.121	
28.315	0.216	-0.070	
28.320	-0.285	-0.013	
28.325	0.044	0.003	
28.330	0.367	0.019	
28.335	-0.220	0.048	
28.340	-0.168	0.043	
28.345	0.488	0.029	
28.350	0.014	0.055	
28.355	-0.230	0.071	
28.360	0.404	0.063	
28.365	0.349	0.091	
28.370	-0.212	0.129	
28.375	0.204	0.129	
28.380	0.576	0.142	
28.385	-0.096	0.180	
28.390	-0.026	0.182	
28.395	0.687	0.174	
28.400	0.229	0.211	
28.405	-0.087	0.239	
28.410	0.631	0.240	
28.415	0.540	0.276	
28.420	-0.102	0.316	
28.425	0.326	0.309	
28.430	0.605	0.301	
28.435	-0.085	0.309	
28.440	-0.063	0.273	
28.445	0.530	0.219	
28.450	-0.021	0.198	
28.455	-0.265	0.161	
28.460	0.326	0.103	
28.465	0.242	0.084	
28.470	-0.291	0.083	
28.475	0.004	0.052	
28.480	0.386	0.032	
28.485	-0.209	0.042	
28.490	-0.166	0.030	
28.495	0.410	0.013	
28.500	-0.038	0.030	
28.505	-0.246	0.037	
28.510	0.369	0.026	
28.515	0.280	0.052	
28.520	-0.264	0.086	
28.525	0.067	0.078	
28.530	0.370	0.071	
28.535	-0.239	0.081	
28.540	-0.197	0.056	
28.545	0.384	0.023	
28.550	-0.104	0.023	
28.555	-0.320	0.013	
28.560	0.183	-0.021	
28.565	0.073	-0.028	
28.570	-0.378	-0.028	
28.575	-0.116	-0.060	
28.580	0.206	-0.084	
28.585	-0.302	-0.080	
28.590	-0.258	-0.094	
28.595	0.239	-0.110	
28.600	-0.159	-0.095	
28.605	-0.346	-0.089	
28.610	0.155	-0.102	
28.615	0.056	-0.089	
28.620	-0.361	-0.070	
28.625	-0.090	-0.083	
28.630	0.180	-0.091	
28.635	-0.314	-0.080	
28.640	-0.238	-0.091	
28.645	0.468	-0.095	
28.650	0.140	-0.041	
28.655	-0.139	0.022	
28.660	0.466	0.064	
28.665	0.212	0.119	
28.670	-0.384	0.147	
28.675	-0.194	0.100	
28.680	-0.017	0.021	
28.685	-0.409	-0.050	
28.690	-0.317	-0.129	
28.695	0.213	-0.183	
28.700	-0.139	-0.177	
28.705	-0.281	-0.157	
28.710	0.319	-0.136	
28.715	0.213	-0.074	
28.720	-0.274	-0.008	
28.725	0.097	0.015	
28.730	0.425	0.039	
28.735	-0.204	0.078	
28.740	-0.146	0.077	
28.745	0.471	0.061	
28.750	-0.012	0.078	
28.755	-0.233	0.082	
28.760	0.367	0.063	
28.765	0.296	0.079	
28.770	-0.229	0.106	
28.775	0.165	0.100	
28.780	0.527	0.107	
28.785	-0.081	0.144	
28.790	0.020	0.153	
28.795	0.700	0.160	
28.800	0.190	0.208	
28.805	-0.108	0.238	
28.810	0.614	0.236	
28.815	0.498	0.266	
28.820	-0.146	0.299	
28.825	0.329	0.285	
28.830	0.634	0.278	
28.835	-0.127	0.292	
28.840	-0.095	0.257	
28.845	0.518	0.203	
28.850	-0.031	0.180	
28.855	-0.253	0.145	
28.860	0.332	0.092	
28.865	0.187	0.076	
28.870	-0.293	0.074	
28.875	0.076	0.044	
28.880	0.398	0.033	
28.885	-0.206	0.052	
28.890	-0.133	0.045	
28.895	0.474	0.034	
28.900	-0.066	0.056	
28.905	-0.256	0.061	
28.910	0.370	0.043	
28.915	0.236	0.059	
28.920	-0.273	0.082	
28.925	0.101	0.069	
28.930	0.421	0.066	
28.935	-0.227	0.085	
28.940	-0.163	0.070	
28.945	0.442	0.044	
28.950	-0.076	0.053	
28.955	-0.277	0.048	
28.960	0.297	0.022	
28.965	0.146	0.026	
28.970	-0.316	0.036	
28.975	0.014	0.012	
28.980	0.326	0.000	
28.985	-0.264	0.013	
28.990	-0.223	-0.003	
