Vernier Format 2
ecg5.txt 10/19/2025 9:35:44
Run 1
Time	Potential	EKG	
T	P	E	
s	mV	mV	

0.000	-0.072	-0.003	
0.005	0.221	-0.001	
0.010	0.065	0.021	
0.015	-0.157	0.036	
0.020	0.035	0.028	
0.025	0.068	0.017	
0.030	-0.180	0.009	
0.035	-0.076	-0.014	
0.040	0.175	-0.030	
0.045	-0.053	-0.022	
0.050	-0.104	-0.016	
0.055	0.189	-0.013	
0.060	0.084	0.007	
0.065	-0.108	0.027	
0.070	0.174	0.034	
0.075	0.264	0.054	
0.080	-0.037	0.085	
0.085	0.061	0.096	
0.090	0.267	0.100	
0.095	-0.026	0.110	
0.100	-0.101	0.099	
0.105	0.171	0.073	
0.110	0.035	0.060	
0.115	-0.175	0.045	
0.120	0.023	0.016	
0.125	0.061	-0.004	
0.130	-0.182	-0.015	
0.135	-0.099	-0.036	
0.140	0.143	-0.051	
0.145	-0.090	-0.044	
0.150	-0.145	-0.041	
0.155	0.143	-0.043	
0.160	0.021	-0.028	
0.165	-0.142	-0.014	
0.170	0.078	-0.013	
0.175	0.131	-0.003	
0.180	-0.162	0.010	
0.185	-0.104	0.001	
0.190	0.169	-0.012	
0.195	0.044	-0.004	
0.200	0.140	0.019	
0.205	0.543	0.067	
0.210	0.335	0.150	
0.215	-0.078	0.216	
0.220	-0.011	0.216	
0.225	-0.063	0.169	
0.230	-0.314	0.094	
0.235	-0.262	-0.005	
0.240	-0.085	-0.095	
0.245	-0.198	-0.151	
0.250	-0.198	-0.182	
0.255	0.119	-0.185	
0.260	0.030	-0.150	
0.265	-0.148	-0.103	
0.270	0.117	-0.068	
0.275	0.218	-0.024	
0.280	-0.079	0.024	
0.285	0.030	0.047	
0.290	0.253	0.061	
0.295	-0.002	0.081	
0.300	-0.035	0.086	
0.305	0.326	0.084	
0.310	0.212	0.106	
0.315	-0.043	0.130	
0.320	0.271	0.136	
0.325	0.351	0.153	
0.330	0.041	0.180	
0.335	0.166	0.188	
0.340	0.437	0.194	
0.345	0.195	0.219	
0.350	0.139	0.235	
0.355	0.471	0.243	
0.360	0.348	0.268	
0.365	0.065	0.288	
0.370	0.367	0.283	
0.375	0.476	0.288	
0.380	0.119	0.303	
0.385	0.184	0.296	
0.390	0.422	0.280	
0.395	0.136	0.274	
0.400	-0.005	0.252	
0.405	0.294	0.215	
0.410	0.158	0.191	
0.415	-0.087	0.168	
0.420	0.161	0.132	
0.425	0.244	0.113	
0.430	-0.041	0.110	
0.435	0.131	0.102	
0.440	0.376	0.107	
0.445	0.056	0.133	
0.450	-0.070	0.140	
0.455	0.259	0.126	
0.460	0.154	0.124	
0.465	-0.064	0.123	
0.470	0.195	0.110	
0.475	0.245	0.110	
0.480	-0.076	0.117	
0.485	0.027	0.105	
0.490	0.280	0.092	
0.495	-0.011	0.095	
0.500	-0.114	0.085	
0.505	0.145	0.061	
0.510	0.008	0.046	
0.515	-0.172	0.029	
0.520	0.006	0.001	
0.525	0.081	-0.017	
0.530	-0.178	-0.023	
0.535	-0.127	-0.041	
0.540	0.097	-0.057	
0.545	-0.114	-0.057	
0.550	-0.146	-0.059	
0.555	0.131	-0.062	
0.560	-0.005	-0.047	
0.565	-0.174	-0.033	
0.570	0.032	-0.035	
0.575	0.075	-0.031	
0.580	-0.194	-0.024	
0.585	-0.105	-0.035	
0.590	0.247	-0.042	
0.595	0.108	-0.014	
0.600	0.035	0.025	
0.605	0.322	0.063	
0.610	0.091	0.105	
0.615	-0.194	0.121	
0.620	-0.067	0.090	
0.625	-0.085	0.039	
0.630	-0.291	-0.018	
0.635	-0.230	-0.084	
0.640	-0.034	-0.137	
0.645	-0.148	-0.159	
0.650	-0.175	-0.163	
0.655	0.126	-0.152	
0.660	0.030	-0.114	
0.665	-0.146	-0.072	
0.670	0.085	-0.047	
0.675	0.195	-0.015	
0.680	-0.107	0.020	
0.685	-0.021	0.032	
0.690	0.206	0.034	
0.695	-0.072	0.044	
0.700	-0.131	0.037	
0.705	0.183	0.020	
0.710	0.081	0.023	
0.715	-0.134	0.029	
0.720	0.104	0.023	
0.725	0.244	0.031	
0.730	-0.079	0.052	
0.735	0.003	0.057	
0.740	0.294	0.059	
0.745	0.038	0.078	
0.750	-0.060	0.088	
0.755	0.290	0.086	
0.760	0.177	0.101	
0.765	-0.084	0.116	
0.770	0.189	0.111	
0.775	0.242	0.113	
0.780	-0.081	0.120	
0.785	-0.015	0.105	
0.790	0.198	0.082	
0.795	-0.064	0.070	
0.800	-0.133	0.048	
0.805	0.160	0.021	
0.810	0.003	0.012	
0.815	-0.194	0.005	
0.820	0.047	-0.016	
0.825	0.122	-0.022	
0.830	-0.174	-0.015	
0.835	-0.102	-0.024	
0.840	0.117	-0.036	
0.845	-0.113	-0.035	
0.850	-0.148	-0.039	
0.855	0.163	-0.046	
0.860	0.053	-0.030	
0.865	-0.165	-0.011	
0.870	0.014	-0.013	
0.875	0.061	-0.014	
0.880	-0.194	-0.015	
0.885	-0.125	-0.034	
0.890	0.097	-0.053	
0.895	-0.146	-0.056	
0.900	-0.198	-0.065	
0.905	0.072	-0.079	
0.910	-0.034	-0.076	
0.915	-0.201	-0.069	
0.920	0.004	-0.073	
0.925	0.065	-0.067	
0.930	-0.210	-0.056	
0.935	-0.151	-0.063	
0.940	0.047	-0.076	
0.945	-0.145	-0.078	
0.950	-0.197	-0.085	
0.955	0.056	-0.095	
0.960	-0.037	-0.088	
0.965	-0.221	-0.079	
0.970	-0.050	-0.085	
0.975	0.035	-0.085	
0.980	-0.153	-0.076	
0.985	-0.031	-0.071	
0.990	0.332	-0.050	
0.995	0.053	0.001	
1.000	-0.107	0.041	
1.005	0.102	0.051	
1.010	-0.072	0.047	
1.015	-0.277	0.022	
1.020	-0.145	-0.030	
1.025	-0.101	-0.081	
1.030	-0.259	-0.119	
1.035	-0.169	-0.152	
1.040	0.094	-0.164	
1.045	-0.107	-0.143	
1.050	-0.159	-0.119	
1.055	0.190	-0.096	
1.060	0.078	-0.054	
1.065	-0.149	-0.014	
1.070	0.062	0.001	
1.075	0.180	0.016	
1.080	-0.107	0.034	
1.085	-0.049	0.033	
1.090	0.215	0.027	
1.095	-0.078	0.033	
1.100	-0.149	0.026	
1.105	0.146	0.007	
1.110	0.072	0.006	
1.115	-0.139	0.012	
1.120	0.136	0.009	
1.125	0.204	0.021	
1.130	-0.084	0.045	
1.135	0.044	0.052	
1.140	0.348	0.062	
1.145	0.061	0.092	
1.150	-0.029	0.111	
1.155	0.306	0.113	
1.160	0.198	0.130	
1.165	-0.064	0.144	
1.170	0.184	0.135	
1.175	0.227	0.131	
1.180	-0.101	0.129	
1.185	-0.020	0.105	
1.190	0.259	0.079	
1.195	-0.044	0.073	
1.200	-0.137	0.058	
1.205	0.140	0.031	
1.210	0.017	0.020	
1.215	-0.159	0.011	
1.220	0.064	-0.006	
1.225	0.122	-0.009	
1.230	-0.168	-0.002	
1.235	-0.111	-0.014	
1.240	0.155	-0.028	
1.245	-0.063	-0.023	
1.250	-0.110	-0.020	
1.255	0.210	-0.018	
1.260	0.056	0.003	
1.265	-0.163	0.020	
1.270	0.050	0.015	
1.275	0.126	0.012	
1.280	-0.159	0.016	
1.285	-0.122	-0.000	
1.290	0.079	-0.023	
1.295	-0.160	-0.035	
1.300	-0.232	-0.057	
1.305	-0.018	-0.087	
1.310	-0.093	-0.102	
1.315	-0.220	-0.110	
1.320	-0.032	-0.120	
1.325	-0.035	-0.117	
1.330	-0.247	-0.111	
1.335	-0.169	-0.119	
1.340	0.049	-0.126	
1.345	-0.171	-0.117	
1.350	-0.236	-0.116	
1.355	-0.041	-0.125	
1.360	-0.127	-0.127	
1.365	-0.277	-0.131	
1.370	-0.096	-0.145	
1.375	0.073	-0.143	
1.380	-0.120	-0.119	
1.385	-0.018	-0.094	
1.390	0.174	-0.063	
1.395	-0.153	-0.029	
1.400	-0.262	-0.024	
1.405	-0.102	-0.054	
1.410	-0.204	-0.089	
1.415	-0.346	-0.130	
1.420	-0.185	-0.176	
1.425	-0.119	-0.204	
1.430	-0.279	-0.213	
1.435	-0.192	-0.218	
1.440	0.030	-0.210	
1.445	-0.180	-0.181	
1.450	-0.241	-0.160	
1.455	-0.011	-0.151	
1.460	-0.105	-0.136	
1.465	-0.230	-0.124	
1.470	-0.037	-0.123	
1.475	0.065	-0.111	
1.480	-0.188	-0.089	
1.485	-0.110	-0.081	
1.490	0.090	-0.077	
1.495	-0.131	-0.063	
1.500	-0.151	-0.060	
1.505	0.161	-0.060	
1.510	0.062	-0.038	
1.515	-0.149	-0.014	
1.520	0.079	-0.007	
1.525	0.189	0.007	
1.530	-0.090	0.030	
1.535	0.021	0.037	
1.540	0.308	0.045	
1.545	0.047	0.073	
1.550	-0.046	0.089	
1.555	0.277	0.092	
1.560	0.142	0.106	
1.565	-0.104	0.115	
1.570	0.137	0.101	
1.575	0.226	0.094	
1.580	-0.104	0.095	
1.585	-0.050	0.077	
1.590	0.158	0.052	
1.595	-0.127	0.036	
1.600	-0.180	0.009	
1.605	0.090	-0.024	
1.610	-0.011	-0.037	
1.615	-0.191	-0.042	
1.620	-0.003	-0.055	
1.625	0.070	-0.057	
1.630	-0.171	-0.049	
1.635	-0.075	-0.052	
1.640	0.172	-0.051	
1.645	-0.085	-0.032	
1.650	-0.137	-0.024	
1.655	0.142	-0.025	
1.660	0.009	-0.014	
1.665	-0.194	-0.007	
1.670	-0.005	-0.021	
1.675	0.043	-0.031	
1.680	-0.218	-0.036	
1.685	-0.151	-0.057	
1.690	0.020	-0.080	
1.695	-0.175	-0.090	
1.700	-0.221	-0.104	
1.705	0.012	-0.119	
1.710	-0.076	-0.117	
1.715	-0.239	-0.112	
1.720	-0.072	-0.118	
1.725	0.008	-0.116	
1.730	-0.215	-0.107	
1.735	-0.149	-0.109	
1.740	0.043	-0.111	
1.745	-0.171	-0.103	
1.750	-0.203	-0.103	
1.755	0.047	-0.108	
1.760	-0.075	-0.099	
1.765	-0.206	-0.091	
1.770	0.104	-0.088	
1.775	0.294	-0.056	
1.780	-0.027	0.000	
1.785	0.003	0.039	
1.790	0.122	0.056	
1.795	-0.198	0.056	
1.800	-0.297	0.019	
1.805	-0.107	-0.044	
1.810	-0.171	-0.098	
1.815	-0.271	-0.140	
1.820	-0.063	-0.171	
1.825	0.047	-0.170	
1.830	-0.169	-0.145	
1.835	-0.073	-0.123	
1.840	0.200	-0.094	
1.845	-0.053	-0.050	
1.850	-0.122	-0.021	
1.855	0.178	-0.008	
1.860	0.070	0.014	
1.865	-0.130	0.031	
1.870	0.108	0.030	
1.875	0.177	0.036	
1.880	-0.108	0.049	
1.885	-0.029	0.043	
1.890	0.221	0.034	
1.895	-0.038	0.041	
1.900	-0.072	0.040	
1.905	0.293	0.038	
1.910	0.136	0.059	
1.915	-0.098	0.081	
1.920	0.194	0.082	
1.925	0.283	0.094	
1.930	-0.053	0.116	
1.935	0.082	0.117	
1.940	0.344	0.117	
1.945	0.041	0.133	
1.950	-0.047	0.133	
1.955	0.296	0.120	
1.960	0.166	0.125	
1.965	-0.113	0.127	
1.970	0.099	0.107	
1.975	0.158	0.089	
1.980	-0.149	0.075	
1.985	-0.095	0.044	
1.990	0.117	0.010	
1.995	-0.125	-0.007	
2.000	-0.174	-0.029	
2.005	0.122	-0.050	
2.010	0.012	-0.048	
2.015	-0.175	-0.039	
2.020	0.038	-0.041	
2.025	0.081	-0.036	
2.030	-0.175	-0.025	
2.035	-0.081	-0.032	
2.040	0.215	-0.035	
2.045	-0.040	-0.015	
2.050	-0.124	-0.003	
2.055	0.142	-0.002	
2.060	-0.003	0.005	
2.065	-0.195	0.005	
2.070	0.011	-0.013	
2.075	0.023	-0.027	
2.080	-0.207	-0.036	
2.085	-0.145	-0.058	
2.090	0.046	-0.079	
2.095	-0.172	-0.085	
2.100	-0.224	-0.097	
2.105	0.009	-0.113	
2.110	-0.081	-0.113	
2.115	-0.229	-0.110	
2.120	-0.032	-0.114	
2.125	0.041	-0.107	
2.130	-0.204	-0.091	
2.135	-0.134	-0.089	
2.140	0.046	-0.092	
2.145	-0.159	-0.085	
2.150	-0.203	-0.088	
2.155	0.119	-0.094	
2.160	0.099	-0.073	
2.165	-0.020	-0.036	
2.170	0.325	0.007	
2.175	0.291	0.069	
2.180	-0.142	0.122	
2.185	-0.128	0.120	
2.190	-0.006	0.078	
2.195	-0.235	0.026	
2.200	-0.271	-0.039	
2.205	-0.055	-0.102	
2.210	-0.096	-0.136	
2.215	-0.213	-0.149	
2.220	0.020	-0.151	
2.225	0.131	-0.126	
2.230	-0.146	-0.085	
2.235	-0.032	-0.057	
2.240	0.209	-0.033	
2.245	-0.067	-0.001	
2.250	-0.110	0.014	
2.255	0.232	0.016	
2.260	0.125	0.036	
2.265	-0.095	0.057	
2.270	0.198	0.063	
2.275	0.270	0.081	
2.280	-0.069	0.105	
2.285	0.021	0.105	
2.290	0.306	0.099	
2.295	0.029	0.108	
2.300	-0.021	0.108	
2.305	0.349	0.104	
2.310	0.227	0.124	
2.315	-0.024	0.147	
2.320	0.264	0.152	
2.325	0.344	0.165	
2.330	0.001	0.185	
2.335	0.143	0.184	
2.340	0.419	0.181	
2.345	0.087	0.196	
2.350	-0.029	0.193	
2.355	0.294	0.171	
2.360	0.149	0.161	
2.365	-0.104	0.149	
2.370	0.158	0.120	
2.375	0.197	0.103	
2.380	-0.110	0.096	
2.385	-0.018	0.073	
2.390	0.242	0.052	
2.395	0.004	0.054	
2.400	-0.047	0.055	
2.405	0.233	0.051	
2.410	0.065	0.063	
2.415	-0.134	0.067	
2.420	0.117	0.053	
2.425	0.224	0.051	
2.430	-0.089	0.063	
2.435	0.000	0.059	
2.440	0.245	0.054	
2.445	-0.056	0.061	
2.450	-0.117	0.054	
2.455	0.181	0.036	
2.460	0.033	0.033	
2.465	-0.154	0.030	
2.470	0.037	0.012	
2.475	0.070	0.000	
2.480	-0.183	-0.006	
2.485	-0.107	-0.026	
2.490	0.097	-0.045	
2.495	-0.124	-0.048	
2.500	-0.172	-0.055	
2.505	0.093	-0.066	
2.510	-0.027	-0.060	
2.515	-0.191	-0.053	
2.520	0.011	-0.058	
2.525	0.075	-0.054	
2.530	-0.188	-0.044	
2.535	-0.122	-0.050	
2.540	0.085	-0.060	
2.545	-0.119	-0.057	
2.550	-0.105	-0.057	
2.555	0.344	-0.046	
2.560	0.280	0.008	
2.565	-0.037	0.073	
2.570	0.149	0.108	
2.575	0.065	0.120	
2.580	-0.255	0.105	
2.585	-0.230	0.048	
2.590	-0.063	-0.026	
2.595	-0.183	-0.082	
2.600	-0.178	-0.122	
2.605	0.116	-0.139	
2.610	0.015	-0.119	
2.615	-0.169	-0.088	
2.620	0.064	-0.068	
2.625	0.140	-0.042	
2.630	-0.117	-0.010	
2.635	-0.011	0.002	
2.640	0.261	0.013	
2.645	-0.040	0.038	
2.650	-0.108	0.047	
2.655	0.212	0.040	
2.660	0.075	0.048	
2.665	-0.116	0.054	
2.670	0.158	0.047	
2.675	0.207	0.054	
2.680	-0.098	0.069	
2.685	0.018	0.065	
2.690	0.315	0.063	
2.695	0.056	0.083	
2.700	-0.005	0.097	
2.705	0.370	0.105	
2.710	0.245	0.135	
2.715	-0.003	0.164	
2.720	0.297	0.173	
2.725	0.357	0.189	
2.730	-0.018	0.208	
2.735	0.123	0.199	
2.740	0.366	0.186	
2.745	0.052	0.187	
2.750	-0.052	0.172	
2.755	0.259	0.142	
2.760	0.082	0.127	
2.765	-0.119	0.110	
2.770	0.133	0.080	
2.775	0.174	0.066	
2.780	-0.110	0.063	
2.785	0.017	0.049	
2.790	0.267	0.042	
2.795	-0.032	0.055	
2.800	-0.081	0.056	
2.805	0.277	0.051	
2.810	0.125	0.066	
2.815	-0.105	0.081	
2.820	0.152	0.076	
2.825	0.206	0.079	
2.830	-0.099	0.087	
2.835	-0.012	0.075	
2.840	0.210	0.059	
2.845	-0.073	0.056	
2.850	-0.133	0.041	
2.855	0.134	0.016	
2.860	-0.023	0.007	
2.865	-0.180	-0.004	
2.870	-0.009	-0.026	
2.875	0.029	-0.040	
2.880	-0.195	-0.046	
2.885	-0.125	-0.063	
2.890	0.065	-0.078	
2.895	-0.148	-0.077	
2.900	-0.188	-0.081	
2.905	0.076	-0.089	
2.910	-0.024	-0.080	
2.915	-0.183	-0.067	
2.920	0.023	-0.066	
2.925	0.062	-0.056	
2.930	-0.191	-0.043	
2.935	-0.099	-0.048	
2.940	0.203	-0.050	
2.945	0.075	-0.024	
2.950	0.125	0.015	
2.955	0.425	0.066	
2.960	0.149	0.131	
2.965	-0.180	0.164	
2.970	-0.101	0.135	
2.975	-0.113	0.074	
2.980	-0.293	0.001	
2.985	-0.177	-0.075	
2.990	0.023	-0.128	
2.995	-0.156	-0.143	
3.000	-0.166	-0.145	
3.005	0.160	-0.135	
3.010	0.037	-0.096	
3.015	-0.127	-0.054	
3.020	0.123	-0.028	
3.025	0.157	0.003	
3.030	-0.125	0.032	
3.035	-0.018	0.035	
3.040	0.224	0.033	
3.045	-0.041	0.044	
3.050	-0.082	0.044	
3.055	0.253	0.038	
3.060	0.108	0.053	
3.065	-0.113	0.066	
3.070	0.146	0.062	
3.075	0.227	0.068	
3.080	-0.055	0.083	
3.085	0.050	0.083	
3.090	0.296	0.083	
3.095	0.021	0.099	
3.100	-0.050	0.101	
3.105	0.300	0.094	
3.110	0.181	0.107	
3.115	-0.049	0.122	
3.120	0.226	0.121	
3.125	0.247	0.128	
3.130	-0.085	0.137	
3.135	0.020	0.121	
3.140	0.242	0.100	
3.145	-0.053	0.091	
3.150	-0.108	0.072	
3.155	0.189	0.045	
3.160	0.012	0.037	
3.165	-0.159	0.028	
3.170	0.030	0.006	
3.175	0.075	-0.007	
3.180	-0.153	-0.011	
3.185	-0.049	-0.024	
3.190	0.174	-0.029	
3.195	-0.105	-0.017	
3.200	-0.149	-0.017	
3.205	0.131	-0.026	
3.210	-0.003	-0.021	
3.215	-0.162	-0.016	
3.220	0.056	-0.023	
3.225	0.119	-0.019	
3.230	-0.153	-0.007	
3.235	-0.098	-0.013	
3.240	0.073	-0.026	
3.245	-0.166	-0.033	
3.250	-0.221	-0.053	
3.255	-0.017	-0.081	
3.260	-0.110	-0.097	
3.265	-0.273	-0.111	
3.270	-0.122	-0.133	
3.275	-0.081	-0.147	
3.280	-0.264	-0.152	
3.285	-0.191	-0.163	
3.290	-0.020	-0.169	
3.295	-0.200	-0.161	
3.300	-0.246	-0.158	
3.305	-0.046	-0.161	
3.310	-0.154	-0.156	
3.315	-0.296	-0.154	
3.320	-0.136	-0.166	
3.325	-0.107	-0.172	
3.330	-0.279	-0.172	
3.335	-0.133	-0.177	
3.340	0.224	-0.162	
3.345	0.059	-0.107	
3.350	-0.002	-0.045	
3.355	0.239	0.008	
3.360	-0.067	0.051	
3.365	-0.311	0.054	
3.370	-0.220	0.003	
3.375	-0.210	-0.067	
3.380	-0.348	-0.134	
3.385	-0.239	-0.196	
3.390	-0.076	-0.231	
3.395	-0.224	-0.235	
3.400	-0.244	-0.228	
3.405	0.011	-0.216	
3.410	-0.089	-0.184	
3.415	-0.232	-0.153	
3.420	-0.032	-0.136	
3.425	0.018	-0.116	
3.430	-0.213	-0.094	
3.435	-0.131	-0.091	
3.440	0.050	-0.092	
3.445	-0.177	-0.085	
3.450	-0.218	-0.090	
3.455	0.012	-0.104	
3.460	-0.084	-0.104	
3.465	-0.233	-0.103	
3.470	-0.056	-0.111	
3.475	-0.009	-0.111	
3.480	-0.221	-0.105	
3.485	-0.133	-0.109	
3.490	0.099	-0.109	
3.495	-0.127	-0.091	
3.500	-0.151	-0.080	
3.505	0.146	-0.073	
3.510	0.024	-0.048	
3.515	-0.143	-0.025	
3.520	0.079	-0.017	
3.525	0.099	-0.005	
3.530	-0.175	0.007	
3.535	-0.101	-0.005	
3.540	0.062	-0.025	
3.545	-0.162	-0.036	
3.550	-0.207	-0.056	
3.555	-0.002	-0.083	
3.560	-0.120	-0.096	
3.565	-0.270	-0.108	
3.570	-0.087	-0.129	
3.575	-0.050	-0.138	
3.580	-0.244	-0.137	
3.585	-0.146	-0.143	
3.590	0.018	-0.143	
3.595	-0.200	-0.131	
3.600	-0.239	-0.130	
3.605	-0.011	-0.137	
3.610	-0.098	-0.132	
3.615	-0.220	-0.125	
3.620	-0.044	-0.125	
3.625	-0.017	-0.117	
3.630	-0.250	-0.107	
3.635	-0.185	-0.114	
3.640	-0.041	-0.127	
3.645	-0.221	-0.133	
3.650	-0.265	-0.146	
3.655	-0.081	-0.163	
3.660	-0.171	-0.170	
3.665	-0.297	-0.175	
3.670	-0.124	-0.186	
3.675	-0.098	-0.187	
3.680	-0.305	-0.181	
3.685	-0.227	-0.188	
3.690	-0.070	-0.195	
3.695	-0.238	-0.191	
3.700	-0.262	-0.191	
3.705	-0.073	-0.194	
3.710	-0.171	-0.186	
3.715	-0.313	-0.182	
3.720	-0.136	-0.189	
3.725	-0.114	-0.190	
3.730	-0.290	-0.186	
3.735	-0.133	-0.187	
3.740	0.235	-0.168	
3.745	0.001	-0.112	
3.750	-0.098	-0.058	
3.755	0.114	-0.024	
3.760	-0.125	-0.002	
3.765	-0.346	-0.014	
3.770	-0.227	-0.065	
3.775	-0.217	-0.125	
3.780	-0.372	-0.179	
3.785	-0.262	-0.229	
3.790	-0.067	-0.256	
3.795	-0.221	-0.250	
3.800	-0.218	-0.235	
3.805	0.065	-0.211	
3.810	-0.055	-0.167	
3.815	-0.247	-0.128	
3.820	-0.067	-0.114	
3.825	-0.015	-0.104	
3.830	-0.221	-0.095	
3.835	-0.131	-0.100	
3.840	0.084	-0.102	
3.845	-0.151	-0.090	
3.850	-0.183	-0.086	
3.855	0.091	-0.088	
3.860	-0.060	-0.075	
3.865	-0.203	-0.066	
3.870	0.030	-0.069	
3.875	0.090	-0.060	
3.880	-0.163	-0.043	
3.885	-0.063	-0.040	
3.890	0.190	-0.036	
3.895	-0.072	-0.016	
3.900	-0.101	-0.005	
3.905	0.258	-0.000	
3.910	0.140	0.028	
3.915	-0.095	0.057	
3.920	0.161	0.066	
3.925	0.204	0.078	
3.930	-0.127	0.090	
3.935	-0.061	0.074	
3.940	0.157	0.049	
3.945	-0.120	0.033	
3.950	-0.188	0.007	
3.955	0.046	-0.028	
3.960	-0.072	-0.048	
3.965	-0.221	-0.063	
3.970	-0.023	-0.084	
3.975	0.047	-0.089	
3.980	-0.182	-0.080	
3.985	-0.108	-0.080	
3.990	0.117	-0.079	
3.995	-0.153	-0.065	
4.000	-0.191	-0.063	
4.005	0.113	-0.070	
4.010	-0.002	-0.059	
4.015	-0.186	-0.046	
4.020	-0.012	-0.049	
4.025	0.021	-0.050	
4.030	-0.218	-0.050	
4.035	-0.124	-0.066	
4.040	0.065	-0.080	
4.045	-0.186	-0.080	
4.050	-0.233	-0.090	
4.055	-0.040	-0.111	
4.060	-0.143	-0.121	
4.065	-0.293	-0.133	
4.070	-0.113	-0.153	
4.075	-0.052	-0.161	
4.080	-0.268	-0.157	
4.085	-0.210	-0.163	
4.090	-0.063	-0.171	
4.095	-0.244	-0.170	
4.100	-0.273	-0.176	
4.105	-0.041	-0.185	
4.110	-0.145	-0.178	
4.115	-0.290	-0.171	
4.120	-0.108	-0.174	
4.125	-0.069	-0.170	
4.130	-0.264	-0.160	
4.135	-0.156	-0.160	
4.140	0.166	-0.150	
4.145	-0.055	-0.111	
4.150	-0.117	-0.075	
4.155	0.114	-0.051	
4.160	-0.090	-0.029	
4.165	-0.311	-0.030	
4.170	-0.206	-0.068	
4.175	-0.200	-0.116	
4.180	-0.393	-0.165	
4.185	-0.297	-0.217	
4.190	-0.093	-0.253	
4.195	-0.242	-0.257	
4.200	-0.244	-0.250	
4.205	0.037	-0.232	
4.210	-0.078	-0.192	
4.215	-0.238	-0.153	
4.220	-0.040	-0.133	
4.225	0.024	-0.113	
4.230	-0.192	-0.090	
4.235	-0.101	-0.083	
4.240	0.102	-0.078	
4.245	-0.148	-0.063	
4.250	-0.172	-0.061	
4.255	0.091	-0.067	
4.260	-0.031	-0.059	
4.265	-0.194	-0.051	
4.270	0.075	-0.054	
4.275	0.184	-0.039	
4.280	-0.107	-0.009	
4.285	0.004	0.007	
4.290	0.241	0.019	
4.295	-0.032	0.043	
4.300	-0.076	0.051	
4.305	0.274	0.050	
4.310	0.140	0.069	
4.315	-0.104	0.086	
4.320	0.204	0.085	
4.325	0.253	0.094	
4.330	-0.131	0.108	
4.335	-0.058	0.092	
4.340	0.168	0.063	
4.345	-0.107	0.046	
4.350	-0.166	0.019	
4.355	0.101	-0.014	
4.360	-0.049	-0.028	
4.365	-0.207	-0.039	
4.370	0.040	-0.057	
4.375	0.101	-0.056	
4.380	-0.177	-0.043	
4.385	-0.079	-0.044	
4.390	0.160	-0.044	
4.395	-0.116	-0.030	
4.400	-0.149	-0.028	
4.405	0.192	-0.032	
4.410	0.061	-0.015	
4.415	-0.139	0.005	
4.420	0.125	0.009	
4.425	0.154	0.022	
4.430	-0.146	0.037	
4.435	-0.063	0.029	
4.440	0.149	0.014	
4.445	-0.128	0.009	
4.450	-0.178	-0.009	
4.455	0.099	-0.033	
4.460	-0.053	-0.041	
4.465	-0.233	-0.048	
4.470	-0.060	-0.070	
4.475	-0.003	-0.084	
4.480	-0.215	-0.088	
4.485	-0.122	-0.100	
4.490	0.062	-0.105	
4.495	-0.175	-0.097	
4.500	-0.203	-0.097	
4.505	0.082	-0.102	
4.510	-0.050	-0.090	
4.515	-0.224	-0.079	
4.520	-0.014	-0.082	
4.525	0.072	-0.077	
4.530	-0.172	-0.062	
4.535	-0.014	-0.057	
4.540	0.380	-0.035	
4.545	0.125	0.022	
4.550	0.021	0.076	
4.555	0.280	0.109	
4.560	0.026	0.134	
4.565	-0.229	0.126	
4.570	-0.096	0.074	
4.575	-0.075	0.012	
4.580	-0.279	-0.045	
4.585	-0.165	-0.101	
4.590	0.091	-0.134	
4.595	-0.120	-0.130	
4.600	-0.149	-0.118	
4.605	0.169	-0.102	
4.610	0.020	-0.066	
4.615	-0.156	-0.033	
4.620	0.123	-0.019	
4.625	0.207	0.005	
4.630	-0.098	0.037	
4.635	-0.009	0.045	
4.640	0.256	0.048	
4.645	-0.049	0.061	
4.650	-0.113	0.058	
4.655	0.215	0.044	
4.660	0.081	0.047	
4.665	-0.139	0.050	
4.670	0.149	0.041	
4.675	0.253	0.048	
4.680	-0.102	0.068	
4.685	0.026	0.068	
4.690	0.303	0.068	
4.695	0.015	0.085	
4.700	-0.038	0.091	
4.705	0.338	0.090	
4.710	0.189	0.111	
4.715	-0.055	0.132	
4.720	0.245	0.132	
4.725	0.271	0.141	
4.730	-0.076	0.152	
4.735	0.049	0.137	
4.740	0.265	0.118	
4.745	-0.058	0.110	
4.750	-0.105	0.089	
4.755	0.197	0.058	
4.760	0.040	0.048	
4.765	-0.140	0.040	
4.770	0.158	0.025	
4.775	0.178	0.029	
4.780	-0.133	0.044	
4.785	-0.040	0.037	
4.790	0.227	0.027	
4.795	-0.066	0.034	
4.800	-0.093	0.031	
4.805	0.253	0.024	
4.810	0.102	0.040	
4.815	-0.130	0.055	
4.820	0.143	0.052	
4.825	0.226	0.059	
4.830	-0.122	0.073	
4.835	-0.031	0.064	
4.840	0.194	0.048	
4.845	-0.098	0.044	
4.850	-0.153	0.026	
4.855	0.128	0.000	
4.860	-0.037	-0.010	
4.865	-0.191	-0.019	
4.870	0.044	-0.037	
4.875	0.076	-0.041	
4.880	-0.192	-0.035	
4.885	-0.120	-0.045	
4.890	0.099	-0.057	
4.895	-0.146	-0.056	
4.900	-0.191	-0.063	
4.905	0.075	-0.075	
4.910	-0.058	-0.072	
4.915	-0.203	-0.069	
4.920	0.018	-0.075	
4.925	0.065	-0.069	
4.930	-0.168	-0.054	
4.935	-0.005	-0.049	
4.940	0.378	-0.029	
4.945	0.085	0.025	
4.950	-0.040	0.071	
4.955	0.198	0.089	
4.960	-0.070	0.095	
4.965	-0.279	0.070	
4.970	-0.116	0.011	
4.975	-0.066	-0.047	
4.980	-0.264	-0.090	
4.985	-0.145	-0.129	
4.990	0.116	-0.145	
4.995	-0.111	-0.127	
5.000	-0.171	-0.107	
5.005	0.113	-0.094	
5.010	-0.008	-0.067	
5.015	-0.191	-0.046	
5.020	0.055	-0.043	
5.025	0.131	-0.031	
5.030	-0.151	-0.012	
5.035	-0.027	-0.009	
5.040	0.204	-0.006	
5.045	-0.079	0.010	
5.050	-0.120	0.013	
5.055	0.227	0.008	
5.060	0.079	0.023	
5.065	-0.136	0.037	
5.070	0.152	0.036	
5.075	0.218	0.046	
5.080	-0.102	0.065	
5.085	0.050	0.066	
5.090	0.337	0.069	
5.095	0.003	0.092	
5.100	-0.043	0.100	
5.105	0.323	0.096	
5.110	0.134	0.111	
5.115	-0.095	0.121	
5.120	0.198	0.110	
5.125	0.190	0.107	
5.130	-0.146	0.106	
5.135	-0.060	0.078	
5.140	0.157	0.045	
5.145	-0.133	0.026	
5.150	-0.174	-0.001	
5.155	0.123	-0.031	
5.160	-0.038	-0.038	
5.165	-0.212	-0.042	
5.170	-0.005	-0.058	
5.175	0.038	-0.064	
5.180	-0.203	-0.061	
5.185	-0.099	-0.069	
5.190	0.117	-0.074	
5.195	-0.142	-0.063	
5.200	-0.165	-0.061	
5.205	0.154	-0.064	
5.210	0.018	-0.046	
5.215	-0.166	-0.027	
5.220	0.029	-0.026	
5.225	0.067	-0.023	
5.230	-0.188	-0.018	
5.235	-0.122	-0.032	
5.240	0.082	-0.049	
5.245	-0.182	-0.055	
5.250	-0.220	-0.071	
5.255	0.000	-0.094	
5.260	-0.133	-0.104	
5.265	-0.268	-0.115	
5.270	-0.069	-0.133	
5.275	-0.032	-0.137	
5.280	-0.256	-0.132	
5.285	-0.178	-0.139	
5.290	0.003	-0.144	
5.295	-0.203	-0.138	
5.300	-0.226	-0.138	
5.305	0.000	-0.143	
5.310	-0.130	-0.135	
5.315	-0.279	-0.132	
5.320	-0.090	-0.141	
5.325	-0.038	-0.143	
5.330	-0.220	-0.135	
5.335	-0.063	-0.131	
5.340	0.317	-0.106	
5.345	0.026	-0.047	
5.350	-0.085	0.004	
5.355	0.136	0.028	
5.360	-0.105	0.038	
5.365	-0.313	0.018	
5.370	-0.178	-0.037	
5.375	-0.162	-0.095	
5.380	-0.326	-0.145	
5.385	-0.206	-0.189	
5.390	0.004	-0.210	
5.395	-0.169	-0.199	
5.400	-0.188	-0.180	
5.405	0.120	-0.158	
5.410	0.004	-0.115	
5.415	-0.192	-0.075	
5.420	0.061	-0.057	
5.425	0.102	-0.036	
5.430	-0.177	-0.015	
5.435	-0.075	-0.017	
5.440	0.157	-0.022	
5.445	-0.101	-0.015	
5.450	-0.127	-0.016	
5.455	0.213	-0.020	
5.460	0.052	-0.002	
5.465	-0.139	0.015	
5.470	0.175	0.019	
5.475	0.229	0.037	
5.480	-0.098	0.064	
5.485	0.065	0.070	
5.490	0.309	0.076	
5.495	-0.014	0.096	
5.500	-0.064	0.098	
5.505	0.285	0.087	
5.510	0.134	0.096	
5.515	-0.105	0.103	
5.520	0.200	0.093	
5.525	0.241	0.096	
5.530	-0.113	0.106	
5.535	-0.008	0.091	
5.540	0.189	0.070	
5.545	-0.124	0.058	
5.550	-0.182	0.031	
5.555	0.094	-0.007	
5.560	-0.044	-0.026	
5.565	-0.191	-0.039	
5.570	0.073	-0.054	
5.575	0.149	-0.047	
5.580	-0.146	-0.024	
5.585	-0.084	-0.019	
5.590	0.151	-0.021	
5.595	-0.117	-0.013	
5.600	-0.137	-0.017	
5.605	0.198	-0.025	
5.610	0.032	-0.011	
5.615	-0.174	0.002	
5.620	0.075	-0.003	
5.625	0.091	-0.002	
5.630	-0.186	0.002	
5.635	-0.082	-0.013	
5.640	0.120	-0.029	
5.645	-0.157	-0.031	
5.650	-0.213	-0.045	
5.655	0.017	-0.070	
5.660	-0.113	-0.083	
5.665	-0.249	-0.095	
5.670	-0.032	-0.113	
5.675	-0.012	-0.116	
5.680	-0.244	-0.110	
5.685	-0.169	-0.118	
5.690	-0.020	-0.127	
5.695	-0.218	-0.128	
5.700	-0.227	-0.137	
5.705	0.009	-0.146	
5.710	-0.131	-0.140	
5.715	-0.282	-0.135	
5.720	-0.095	-0.145	
5.725	-0.023	-0.145	
5.730	-0.178	-0.134	
5.735	0.033	-0.119	
5.740	0.355	-0.079	
5.745	-0.014	-0.011	
5.750	-0.127	0.034	
5.755	0.061	0.040	
5.760	-0.180	0.027	
5.765	-0.355	-0.014	
5.770	-0.156	-0.080	
5.775	-0.101	-0.133	
5.780	-0.255	-0.163	
5.785	-0.124	-0.181	
5.790	0.136	-0.174	
5.795	-0.120	-0.137	
5.800	-0.146	-0.105	
5.805	0.158	-0.082	
5.810	-0.006	-0.048	
5.815	-0.159	-0.023	
5.820	0.133	-0.015	
5.825	0.204	0.006	
5.830	-0.108	0.035	
5.835	0.008	0.043	
5.840	0.273	0.047	
5.845	-0.015	0.065	
5.850	-0.063	0.070	
5.855	0.276	0.066	
5.860	0.107	0.079	
5.865	-0.101	0.089	
5.870	0.230	0.084	
5.875	0.302	0.096	
5.880	-0.027	0.122	
5.885	0.131	0.129	
5.890	0.392	0.138	
5.895	0.073	0.162	
5.900	0.053	0.172	
5.905	0.419	0.172	
5.910	0.227	0.192	
5.915	-0.021	0.206	
5.920	0.294	0.197	
5.925	0.271	0.195	
5.930	-0.095	0.192	
5.935	0.021	0.160	
5.940	0.229	0.123	
5.945	-0.085	0.100	
5.950	-0.127	0.067	
5.955	0.175	0.031	
5.960	0.008	0.018	
5.965	-0.159	0.010	
5.970	0.108	-0.005	
5.975	0.149	-0.002	
5.980	-0.131	0.012	
5.985	-0.021	0.011	
5.990	0.215	0.010	
5.995	-0.070	0.024	
6.000	-0.082	0.025	
6.005	0.247	0.022	
6.010	0.062	0.038	
6.015	-0.127	0.051	
6.020	0.139	0.045	
6.025	0.165	0.048	
6.030	-0.137	0.056	
6.035	-0.021	0.044	
6.040	0.177	0.029	
6.045	-0.116	0.027	
6.050	-0.139	0.012	
6.055	0.130	-0.010	
6.060	-0.029	-0.015	
6.065	-0.172	-0.019	
6.070	0.076	-0.031	
6.075	0.088	-0.028	
6.080	-0.168	-0.018	
6.085	-0.053	-0.023	
6.090	0.151	-0.027	
6.095	-0.113	-0.018	
6.100	-0.131	-0.020	
6.105	0.145	-0.027	
6.110	-0.046	-0.021	
6.115	-0.183	-0.020	
6.120	0.079	-0.031	
6.125	0.145	-0.025	
6.130	-0.066	-0.004	
6.135	0.238	0.019	
6.140	0.506	0.069	
6.145	0.079	0.142	
6.150	-0.096	0.178	
6.155	0.038	0.159	
6.160	-0.180	0.112	
6.165	-0.339	0.037	
6.170	-0.137	-0.052	
6.175	-0.066	-0.118	
6.180	-0.209	-0.150	
6.185	-0.060	-0.164	
6.190	0.189	-0.146	
6.195	-0.082	-0.100	
6.200	-0.104	-0.062	
6.205	0.204	-0.036	
6.210	0.032	-0.001	
6.215	-0.130	0.023	
6.220	0.160	0.027	
6.225	0.172	0.041	
6.230	-0.124	0.058	
6.235	0.015	0.053	
6.240	0.235	0.047	
6.245	-0.063	0.055	
6.250	-0.069	0.051	
6.255	0.248	0.041	
6.260	0.041	0.051	
6.265	-0.131	0.055	
6.270	0.137	0.043	
6.275	0.177	0.044	
6.280	-0.101	0.055	
6.285	0.055	0.051	
6.290	0.279	0.053	
6.295	-0.040	0.071	
6.300	-0.056	0.073	
6.305	0.268	0.066	
6.310	0.084	0.076	
6.315	-0.105	0.083	
6.320	0.160	0.072	
6.325	0.139	0.070	
6.330	-0.156	0.069	
6.335	-0.061	0.045	
6.340	0.111	0.017	
6.345	-0.162	0.000	
6.350	-0.183	-0.026	
6.355	0.049	-0.057	
6.360	-0.127	-0.071	
6.365	-0.256	-0.086	
6.370	-0.053	-0.110	
6.375	-0.038	-0.119	
6.380	-0.246	-0.120	
6.385	-0.127	-0.128	
6.390	0.041	-0.129	
6.395	-0.169	-0.116	
6.400	-0.160	-0.109	
6.405	0.087	-0.104	
6.410	-0.075	-0.086	
6.415	-0.195	-0.072	
6.420	-0.003	-0.074	
6.425	-0.029	-0.072	
6.430	-0.246	-0.072	
6.435	-0.151	-0.089	
6.440	-0.038	-0.109	
6.445	-0.255	-0.120	
6.450	-0.261	-0.141	
6.455	-0.038	-0.163	
6.460	-0.160	-0.166	
6.465	-0.310	-0.168	
6.470	-0.142	-0.181	
6.475	-0.107	-0.186	
6.480	-0.296	-0.184	
6.485	-0.192	-0.190	
6.490	-0.055	-0.192	
6.495	-0.247	-0.183	
6.500	-0.258	-0.182	
6.505	-0.046	-0.185	
6.510	-0.154	-0.176	
6.515	-0.303	-0.169	
6.520	-0.131	-0.176	
6.525	-0.089	-0.177	
6.530	-0.218	-0.169	
6.535	0.009	-0.158	
6.540	0.320	-0.118	
6.545	-0.034	-0.048	
6.550	-0.145	0.000	
6.555	-0.017	0.008	
6.560	-0.238	-0.009	
6.565	-0.398	-0.056	
6.570	-0.232	-0.128	
6.575	-0.186	-0.188	
6.580	-0.313	-0.225	
6.585	-0.178	-0.247	
6.590	0.001	-0.243	
6.595	-0.183	-0.213	
6.600	-0.175	-0.184	
6.605	0.064	-0.157	
6.610	-0.113	-0.123	
6.615	-0.226	-0.101	
6.620	-0.003	-0.098	
6.625	0.026	-0.088	
6.630	-0.200	-0.073	
6.635	-0.099	-0.075	
6.640	0.085	-0.076	
6.645	-0.149	-0.066	
6.650	-0.148	-0.066	
6.655	0.139	-0.068	
6.660	-0.047	-0.052	
6.665	-0.175	-0.041	
6.670	0.105	-0.042	
6.675	0.203	-0.023	
6.680	-0.116	0.008	
6.685	-0.009	0.021	
6.690	0.213	0.026	
6.695	-0.075	0.040	
6.700	-0.089	0.038	
6.705	0.230	0.029	
6.710	0.061	0.040	
6.715	-0.119	0.048	
6.720	0.171	0.043	
6.725	0.136	0.049	
6.730	-0.171	0.056	
6.735	-0.066	0.036	
6.740	0.143	0.012	
6.745	-0.166	0.001	
6.750	-0.207	-0.023	
6.755	0.020	-0.057	
6.760	-0.142	-0.077	
6.765	-0.265	-0.097	
6.770	-0.053	-0.123	
6.775	-0.017	-0.130	
6.780	-0.221	-0.125	
6.785	-0.119	-0.125	
6.790	0.020	-0.123	
6.795	-0.207	-0.112	
6.800	-0.203	-0.114	
6.805	0.056	-0.119	
6.810	-0.090	-0.108	
6.815	-0.213	-0.098	
6.820	0.043	-0.097	
6.825	0.017	-0.084	
6.830	-0.242	-0.070	
6.835	-0.163	-0.079	
6.840	-0.034	-0.097	
6.845	-0.255	-0.110	
6.850	-0.271	-0.134	
6.855	-0.078	-0.161	
6.860	-0.212	-0.174	
6.865	-0.329	-0.187	
6.870	-0.131	-0.205	
6.875	-0.110	-0.208	
6.880	-0.302	-0.202	
6.885	-0.203	-0.203	
6.890	-0.067	-0.203	
6.895	-0.252	-0.192	
6.900	-0.259	-0.189	
6.905	-0.046	-0.191	
6.910	-0.156	-0.180	
6.915	-0.293	-0.171	
6.920	-0.127	-0.175	
6.925	-0.116	-0.176	
6.930	-0.277	-0.173	
6.935	-0.108	-0.175	
6.940	0.201	-0.158	
6.945	-0.026	-0.108	
6.950	-0.070	-0.059	
6.955	0.181	-0.024	
6.960	-0.108	0.006	
6.965	-0.317	0.004	
6.970	-0.212	-0.042	
6.975	-0.233	-0.102	
6.980	-0.380	-0.161	
6.985	-0.233	-0.217	
6.990	-0.055	-0.246	
6.995	-0.229	-0.242	
7.000	-0.232	-0.229	
7.005	0.023	-0.211	
7.010	-0.104	-0.177	
7.015	-0.223	-0.146	
7.020	0.006	-0.129	
7.025	0.021	-0.106	
7.030	-0.213	-0.082	
7.035	-0.105	-0.079	
7.040	0.108	-0.078	
7.045	-0.146	-0.064	
7.050	-0.163	-0.062	
7.055	0.120	-0.065	
7.060	-0.038	-0.053	
7.065	-0.182	-0.044	
7.070	0.117	-0.044	
7.075	0.169	-0.026	
7.080	-0.128	0.003	
7.085	0.033	0.014	
7.090	0.232	0.025	
7.095	-0.089	0.044	
7.100	-0.130	0.042	
7.105	0.178	0.026	
7.110	-0.043	0.021	
7.115	-0.227	0.009	
7.120	-0.024	-0.023	
7.125	-0.011	-0.047	
7.130	-0.246	-0.064	
7.135	-0.174	-0.092	
7.140	-0.050	-0.118	
7.145	-0.246	-0.133	
7.150	-0.271	-0.154	
7.155	-0.069	-0.175	
7.160	-0.168	-0.180	
7.165	-0.302	-0.181	
7.170	-0.122	-0.190	
7.175	-0.134	-0.191	
7.180	-0.334	-0.189	
7.185	-0.244	-0.202	
7.190	-0.124	-0.214	
7.195	-0.305	-0.218	
7.200	-0.313	-0.227	
7.205	-0.093	-0.237	
7.210	-0.191	-0.230	
7.215	-0.314	-0.221	
7.220	-0.134	-0.219	
7.225	-0.116	-0.210	
7.230	-0.305	-0.198	
7.235	-0.197	-0.198	
7.240	-0.043	-0.196	
7.245	-0.241	-0.183	
7.250	-0.259	-0.179	
7.255	-0.046	-0.181	
7.260	-0.171	-0.173	
7.265	-0.302	-0.169	
7.270	-0.095	-0.176	
7.275	-0.072	-0.173	
7.280	-0.281	-0.163	
7.285	-0.154	-0.165	
7.290	0.059	-0.160	
7.295	-0.204	-0.139	
7.300	-0.232	-0.130	
7.305	0.012	-0.131	
7.310	-0.114	-0.123	
7.315	-0.236	-0.117	
7.320	-0.014	-0.120	
7.325	-0.002	-0.112	
7.330	-0.264	-0.100	
7.335	-0.149	-0.107	
7.340	0.073	-0.113	
7.345	-0.122	-0.101	
7.350	-0.012	-0.085	
7.355	0.468	-0.047	
7.360	0.285	0.037	
7.365	-0.021	0.118	
7.370	0.209	0.157	
7.375	0.068	0.168	
7.380	-0.277	0.146	
7.385	-0.215	0.076	
7.390	-0.050	-0.008	
7.395	-0.223	-0.072	
7.400	-0.204	-0.123	
7.405	0.128	-0.148	
7.410	-0.015	-0.132	
7.415	-0.159	-0.102	
7.420	0.099	-0.080	
7.425	0.120	-0.046	
7.430	-0.160	-0.013	
7.435	-0.040	-0.006	
7.440	0.227	-0.001	
7.445	-0.082	0.016	
7.450	-0.117	0.019	
7.455	0.253	0.014	
7.460	0.084	0.031	
7.465	-0.117	0.048	
7.470	0.207	0.049	
7.475	0.223	0.065	
7.480	-0.127	0.085	
7.485	0.017	0.079	
7.490	0.297	0.070	
7.495	-0.070	0.078	
7.500	-0.122	0.069	
7.505	0.270	0.050	
7.510	0.117	0.056	
7.515	-0.075	0.068	
7.520	0.270	0.073	
7.525	0.296	0.097	
7.530	-0.079	0.127	
7.535	0.102	0.129	
7.540	0.357	0.129	
7.545	0.012	0.143	
7.550	-0.047	0.139	
7.555	0.268	0.120	
7.560	0.062	0.114	
7.565	-0.166	0.100	
7.570	0.078	0.066	
7.575	0.049	0.039	
7.580	-0.261	0.015	
7.585	-0.154	-0.029	
7.590	0.038	-0.070	
7.595	-0.215	-0.090	
7.600	-0.253	-0.114	
7.605	-0.006	-0.138	
7.610	-0.122	-0.142	
7.615	-0.258	-0.141	
7.620	-0.047	-0.146	
7.625	0.027	-0.137	
7.630	-0.217	-0.117	
7.635	-0.070	-0.107	
7.640	0.161	-0.092	
7.645	-0.146	-0.062	
7.650	-0.197	-0.051	
7.655	0.070	-0.058	
7.660	-0.066	-0.057	
7.665	-0.232	-0.059	
7.670	0.001	-0.073	
7.675	0.033	-0.076	
7.680	-0.220	-0.070	
7.685	-0.085	-0.077	
7.690	0.146	-0.078	
7.695	-0.151	-0.061	
7.700	-0.162	-0.056	
7.705	0.203	-0.056	
7.710	0.018	-0.033	
7.715	-0.169	-0.013	
7.720	0.140	-0.009	
7.725	0.233	0.011	
7.730	-0.125	0.041	
7.735	-0.035	0.045	
7.740	0.216	0.040	
7.745	-0.044	0.047	
7.750	-0.043	0.045	
7.755	0.460	0.051	
7.760	0.439	0.106	
7.765	0.265	0.187	
7.770	0.732	0.271	
7.775	0.796	0.379	
7.780	0.331	0.484	
7.785	0.483	0.536	
7.790	0.722	0.556	
7.795	0.335	0.568	
7.800	0.279	0.546	
7.805	0.687	0.507	
7.810	0.578	0.498	
7.815	0.331	0.501	
7.820	0.657	0.498	
7.825	0.674	0.512	
7.830	0.282	0.529	
7.835	0.462	0.519	
7.840	0.719	0.507	
7.845	0.366	0.512	
7.850	0.264	0.499	
7.855	0.633	0.471	
7.860	0.447	0.461	
7.865	0.148	0.449	
7.870	0.477	0.416	
7.875	0.520	0.398	
7.880	0.116	0.391	
7.885	0.279	0.363	
7.890	0.511	0.337	
7.895	0.131	0.328	
7.900	0.099	0.303	
7.905	0.506	0.274	
7.910	0.335	0.275	
7.915	0.102	0.284	
7.920	0.482	0.283	
7.925	0.541	0.305	
7.930	0.119	0.337	
7.935	0.270	0.339	
7.940	0.508	0.331	
7.945	0.113	0.330	
7.950	0.023	0.304	
7.955	0.390	0.260	
7.960	0.172	0.236	
7.965	-0.075	0.211	
7.970	0.245	0.172	
7.975	0.290	0.153	
7.980	-0.081	0.150	
7.985	0.041	0.129	
7.990	0.273	0.107	
7.995	-0.066	0.101	
8.000	-0.087	0.082	
8.005	0.271	0.059	
8.010	0.101	0.062	
8.015	-0.107	0.069	
8.020	0.187	0.063	
8.025	0.232	0.072	
8.030	-0.098	0.088	
8.035	0.079	0.085	
8.040	0.329	0.086	
8.045	-0.015	0.104	
8.050	-0.085	0.103	
8.055	0.259	0.087	
8.060	0.053	0.086	
8.065	-0.163	0.079	
8.070	0.099	0.052	
8.075	0.122	0.037	
8.080	-0.195	0.030	
8.085	-0.092	0.004	
8.090	0.105	-0.022	
8.095	-0.163	-0.033	
8.100	-0.189	-0.051	
8.105	0.110	-0.070	
8.110	-0.049	-0.068	
8.115	-0.204	-0.063	
8.120	0.053	-0.068	
8.125	0.081	-0.058	
8.130	-0.194	-0.042	
8.135	-0.073	-0.044	
8.140	0.145	-0.045	
8.145	-0.157	-0.035	
8.150	-0.188	-0.040	
8.155	0.140	-0.053	
8.160	0.033	-0.044	
8.165	-0.111	-0.027	
8.170	0.320	-0.008	
8.175	0.384	0.045	
8.180	-0.085	0.109	
8.185	-0.038	0.129	
8.190	0.088	0.111	
8.195	-0.217	0.078	
8.200	-0.279	0.019	
8.205	-0.060	-0.052	
8.210	-0.139	-0.102	
8.215	-0.252	-0.135	
8.220	-0.002	-0.156	
8.225	0.094	-0.145	
8.230	-0.162	-0.112	
8.235	-0.035	-0.087	
8.240	0.229	-0.059	
8.245	-0.073	-0.018	
8.250	-0.107	0.004	
8.255	0.261	0.013	
8.260	0.067	0.037	
8.265	-0.142	0.054	
8.270	0.145	0.049	
8.275	0.183	0.053	
8.280	-0.127	0.062	
8.285	-0.011	0.052	
8.290	0.264	0.043	
8.295	-0.053	0.051	
8.300	-0.084	0.050	
8.305	0.290	0.043	
8.310	0.152	0.061	
8.315	-0.070	0.083	
8.320	0.300	0.093	
8.325	0.376	0.123	
8.330	-0.027	0.162	
8.335	0.123	0.172	
8.340	0.395	0.173	
8.345	0.033	0.186	
8.350	-0.041	0.177	
8.355	0.319	0.152	
8.360	0.148	0.147	
8.365	-0.116	0.140	
8.370	0.163	0.114	
8.375	0.183	0.099	
8.380	-0.154	0.090	
8.385	-0.046	0.061	
8.390	0.224	0.035	
8.395	-0.101	0.029	
8.400	-0.145	0.016	
8.405	0.163	-0.005	
8.410	0.008	-0.005	
8.415	-0.145	-0.003	
8.420	0.157	-0.007	
8.425	0.218	0.010	
8.430	-0.125	0.038	
8.435	-0.006	0.043	
8.440	0.255	0.043	
8.445	-0.063	0.055	
8.450	-0.104	0.052	
8.455	0.245	0.040	
8.460	0.064	0.047	
8.465	-0.143	0.053	
8.470	0.105	0.040	
8.475	0.105	0.035	
8.480	-0.174	0.032	
8.485	-0.049	0.011	
8.490	0.148	-0.007	
8.495	-0.142	-0.009	
8.500	-0.185	-0.024	
8.505	0.076	-0.047	
8.510	-0.067	-0.054	
8.515	-0.217	-0.060	
8.520	0.009	-0.075	
8.525	0.047	-0.075	
8.530	-0.210	-0.066	
8.535	-0.105	-0.072	
8.540	0.097	-0.076	
8.545	-0.146	-0.067	
8.550	-0.177	-0.067	
8.555	0.093	-0.074	
8.560	-0.072	-0.066	
8.565	-0.212	-0.062	
8.570	0.107	-0.067	
8.575	0.267	-0.044	
8.580	-0.017	0.004	
8.585	0.146	0.044	
8.590	0.285	0.082	
8.595	-0.137	0.112	
8.600	-0.244	0.095	
8.605	-0.085	0.037	
8.610	-0.209	-0.028	
8.615	-0.322	-0.092	
8.620	-0.093	-0.151	
8.625	-0.024	-0.176	
8.630	-0.232	-0.173	
8.635	-0.117	-0.168	
8.640	0.085	-0.152	
8.645	-0.163	-0.121	
8.650	-0.195	-0.104	
8.655	0.101	-0.097	
8.660	-0.041	-0.077	
8.665	-0.198	-0.062	
8.670	0.050	-0.061	
8.675	0.101	-0.049	
8.680	-0.168	-0.030	
8.685	-0.053	-0.029	
8.690	0.161	-0.028	
8.695	-0.120	-0.015	
8.700	-0.137	-0.017	
8.705	0.227	-0.022	
8.710	0.075	-0.002	
8.715	-0.134	0.019	
8.720	0.157	0.024	
8.725	0.242	0.042	
8.730	-0.099	0.068	
8.735	0.052	0.072	
8.740	0.328	0.077	
8.745	-0.012	0.097	
8.750	-0.052	0.100	
8.755	0.332	0.093	
8.760	0.126	0.107	
8.765	-0.114	0.116	
8.770	0.146	0.101	
8.775	0.163	0.090	
8.780	-0.142	0.084	
8.785	-0.064	0.057	
8.790	0.120	0.026	
8.795	-0.149	0.007	
8.800	-0.169	-0.019	
8.805	0.125	-0.046	
8.810	-0.058	-0.049	
8.815	-0.206	-0.051	
8.820	0.059	-0.061	
8.825	0.113	-0.054	
8.830	-0.180	-0.035	
8.835	-0.089	-0.035	
8.840	0.114	-0.040	
8.845	-0.148	-0.035	
8.850	-0.151	-0.042	
8.855	0.174	-0.050	
8.860	-0.014	-0.036	
8.865	-0.178	-0.024	
8.870	0.070	-0.028	
8.875	0.072	-0.023	
8.880	-0.198	-0.016	
8.885	-0.090	-0.028	
8.890	0.093	-0.042	
8.895	-0.168	-0.045	
8.900	-0.197	-0.058	
8.905	0.044	-0.078	
8.910	-0.117	-0.083	
8.915	-0.261	-0.092	
8.920	-0.058	-0.111	
8.925	-0.031	-0.119	
8.930	-0.241	-0.117	
8.935	-0.134	-0.125	
8.940	0.015	-0.128	
8.945	-0.206	-0.121	
8.950	-0.230	-0.123	
8.955	-0.006	-0.133	
8.960	-0.136	-0.131	
8.965	-0.281	-0.131	
8.970	-0.073	-0.143	
8.975	-0.029	-0.143	
8.980	-0.209	-0.133	
8.985	0.000	-0.124	
8.990	0.360	-0.089	
8.995	-0.027	-0.024	
9.000	-0.131	0.020	
9.005	0.041	0.027	
9.010	-0.188	0.014	
9.015	-0.372	-0.027	
9.020	-0.198	-0.095	
9.025	-0.137	-0.152	
9.030	-0.294	-0.188	
9.035	-0.166	-0.212	
9.040	0.043	-0.211	
9.045	-0.180	-0.184	
9.050	-0.171	-0.159	
9.055	0.123	-0.136	
9.060	-0.049	-0.098	
9.065	-0.195	-0.069	
9.070	0.068	-0.059	
9.075	0.091	-0.042	
9.080	-0.172	-0.022	
9.085	-0.046	-0.022	
9.090	0.209	-0.020	
9.095	-0.098	-0.003	
9.100	-0.127	0.001	
9.105	0.198	-0.005	
9.110	0.021	0.007	
9.115	-0.139	0.016	
9.120	0.172	0.014	
9.125	0.195	0.029	
9.130	-0.117	0.051	
9.135	0.055	0.053	
9.140	0.302	0.058	
9.145	-0.027	0.079	
9.150	-0.061	0.083	
9.155	0.332	0.078	
9.160	0.136	0.096	
9.165	-0.111	0.109	
9.170	0.169	0.099	
9.175	0.169	0.095	
9.180	-0.163	0.091	
9.185	-0.061	0.062	
9.190	0.134	0.029	
9.195	-0.149	0.011	
9.200	-0.194	-0.017	
9.205	0.041	-0.050	
9.210	-0.111	-0.068	
9.215	-0.246	-0.084	
9.220	-0.029	-0.105	
9.225	0.000	-0.110	
9.230	-0.218	-0.104	
9.235	-0.098	-0.106	
9.240	0.137	-0.100	
9.245	-0.127	-0.077	
9.250	-0.142	-0.063	
9.255	0.178	-0.055	
9.260	0.004	-0.031	
9.265	-0.154	-0.012	
9.270	0.134	-0.008	
9.275	0.139	0.007	
9.280	-0.165	0.024	
9.285	-0.081	0.016	
9.290	0.101	-0.002	
9.295	-0.162	-0.012	
9.300	-0.185	-0.033	
9.305	0.091	-0.058	
9.310	-0.087	-0.064	
9.315	-0.238	-0.069	
9.320	-0.018	-0.086	
9.325	0.017	-0.091	
9.330	-0.217	-0.085	
9.335	-0.113	-0.091	
9.340	0.079	-0.094	
9.345	-0.168	-0.084	
9.350	-0.188	-0.084	
9.355	0.082	-0.090	
9.360	-0.070	-0.080	
9.365	-0.209	-0.073	
9.370	-0.014	-0.079	
9.375	-0.018	-0.079	
9.380	-0.244	-0.078	
9.385	-0.111	-0.092	
9.390	0.175	-0.095	
9.395	-0.024	-0.069	
9.400	0.059	-0.035	
9.405	0.404	0.011	
9.410	0.105	0.077	
9.415	-0.204	0.114	
9.420	-0.110	0.092	
9.425	-0.162	0.037	
9.430	-0.366	-0.034	
9.435	-0.232	-0.114	
9.440	-0.043	-0.173	
9.445	-0.212	-0.194	
9.450	-0.203	-0.200	
9.455	0.081	-0.190	
9.460	-0.069	-0.156	
9.465	-0.204	-0.122	
9.470	0.050	-0.103	
9.475	0.091	-0.075	
9.480	-0.162	-0.044	
9.485	-0.052	-0.034	
9.490	0.186	-0.026	
9.495	-0.111	-0.008	
9.500	-0.137	-0.006	
9.505	0.165	-0.014	
9.510	-0.035	-0.008	
9.515	-0.188	-0.008	
9.520	0.130	-0.019	
9.525	0.152	-0.011	
9.530	-0.146	0.008	
9.535	0.017	0.011	
9.540	0.290	0.018	
9.545	-0.027	0.044	
9.550	-0.053	0.058	
9.555	0.309	0.062	
9.560	0.126	0.084	
9.565	-0.087	0.102	
9.570	0.230	0.100	
9.575	0.236	0.109	
9.580	-0.111	0.120	
9.585	0.017	0.105	
9.590	0.233	0.085	
9.595	-0.099	0.078	
9.600	-0.146	0.054	
9.605	0.145	0.022	
9.610	-0.053	0.005	
9.615	-0.207	-0.011	
9.620	0.021	-0.038	
9.625	0.046	-0.050	
9.630	-0.209	-0.051	
9.635	-0.098	-0.063	
9.640	0.072	-0.073	
9.645	-0.175	-0.071	
9.650	-0.186	-0.078	
9.655	0.082	-0.088	
9.660	-0.087	-0.082	
9.665	-0.230	-0.079	
9.670	0.004	-0.088	
9.675	0.053	-0.084	
9.680	-0.188	-0.070	
9.685	-0.084	-0.069	
9.690	0.130	-0.066	
9.695	-0.157	-0.052	
9.700	-0.191	-0.052	
9.705	0.059	-0.065	
9.710	-0.105	-0.068	
9.715	-0.256	-0.075	
9.720	-0.066	-0.096	
9.725	-0.072	-0.110	
9.730	-0.293	-0.120	
9.735	-0.200	-0.142	
9.740	-0.056	-0.161	
9.745	-0.246	-0.167	
9.750	-0.261	-0.176	
9.755	-0.041	-0.185	
9.760	-0.178	-0.180	
9.765	-0.337	-0.178	
9.770	-0.137	-0.190	
9.775	-0.105	-0.194	
9.780	-0.306	-0.190	
9.785	-0.203	-0.196	
9.790	-0.066	-0.198	
9.795	-0.252	-0.190	
9.800	-0.255	-0.189	
9.805	0.068	-0.185	
9.810	0.058	-0.152	
9.815	-0.058	-0.102	
9.820	0.256	-0.049	
9.825	0.174	0.015	
9.830	-0.238	0.060	
9.835	-0.218	0.048	
9.840	-0.162	-0.006	
9.845	-0.378	-0.074	
9.850	-0.375	-0.153	
9.855	-0.114	-0.221	
9.860	-0.174	-0.250	
9.865	-0.284	-0.252	
9.870	-0.058	-0.244	
9.875	-0.003	-0.213	
9.880	-0.235	-0.173	
9.885	-0.124	-0.148	
9.890	0.070	-0.128	
9.895	-0.162	-0.101	
9.900	-0.159	-0.088	
9.905	0.146	-0.081	
9.910	-0.031	-0.058	
9.915	-0.197	-0.041	
9.920	0.055	-0.042	
9.925	0.114	-0.033	
9.930	-0.168	-0.018	
9.935	-0.053	-0.020	
9.940	0.200	-0.020	
9.945	-0.096	-0.005	
9.950	-0.124	-0.002	
9.955	0.219	-0.006	
9.960	0.073	0.011	
9.965	-0.114	0.029	
9.970	0.210	0.035	
9.975	0.256	0.057	
9.980	-0.089	0.087	
9.985	0.038	0.091	
9.990	0.270	0.088	
9.995	-0.055	0.094	
10.000	-0.095	0.083	
10.005	0.229	0.062	
10.010	0.014	0.057	
10.015	-0.183	0.047	
10.020	0.035	0.019	
10.025	0.050	-0.001	
10.030	-0.217	-0.014	
10.035	-0.119	-0.042	
10.040	0.046	-0.066	
10.045	-0.194	-0.076	
10.050	-0.212	-0.093	
10.055	0.044	-0.110	
10.060	-0.104	-0.109	
10.065	-0.230	-0.106	
10.070	-0.005	-0.112	
10.075	0.026	-0.104	
10.080	-0.229	-0.089	
10.085	-0.145	-0.092	
10.090	0.075	-0.097	
10.095	-0.153	-0.088	
10.100	-0.166	-0.086	
10.105	0.128	-0.086	
10.110	-0.049	-0.068	
10.115	-0.221	-0.055	
10.120	-0.021	-0.062	
10.125	-0.017	-0.068	
10.130	-0.259	-0.072	
10.135	-0.165	-0.093	
10.140	-0.011	-0.114	
10.145	-0.233	-0.123	
10.150	-0.259	-0.138	
10.155	-0.034	-0.157	
10.160	-0.175	-0.160	
10.165	-0.316	-0.164	
10.170	-0.120	-0.179	
10.175	-0.108	-0.184	
10.180	-0.325	-0.183	
10.185	-0.233	-0.194	
10.190	-0.076	-0.204	
10.195	-0.256	-0.201	
10.200	-0.262	-0.202	
10.205	-0.015	-0.201	
10.210	-0.140	-0.184	
10.215	-0.288	-0.169	
10.220	-0.067	-0.166	
10.225	0.044	-0.152	
10.230	-0.156	-0.123	
10.235	0.070	-0.095	
10.240	0.331	-0.049	
10.245	-0.078	0.012	
10.250	-0.192	0.040	
10.255	-0.026	0.023	
10.260	-0.227	-0.011	
10.265	-0.413	-0.067	
10.270	-0.236	-0.142	
10.275	-0.177	-0.201	
10.280	-0.326	-0.236	
10.285	-0.191	-0.256	
10.290	0.030	-0.250	
10.295	-0.212	-0.217	
10.300	-0.224	-0.189	
10.305	0.058	-0.168	
10.310	-0.073	-0.135	
10.315	-0.217	-0.108	
10.320	0.046	-0.096	
10.325	0.101	-0.074	
10.330	-0.194	-0.047	
10.335	-0.089	-0.042	
10.340	0.160	-0.042	
10.345	-0.107	-0.028	
10.350	-0.131	-0.025	
10.355	0.198	-0.026	
10.360	-0.009	-0.011	
10.365	-0.182	-0.001	
10.370	0.084	-0.009	
10.375	0.155	-0.005	
10.380	-0.143	0.009	
10.385	-0.005	0.009	
10.390	0.276	0.012	
10.395	-0.046	0.035	
10.400	-0.084	0.044	
10.405	0.294	0.044	
10.410	0.125	0.065	
10.415	-0.130	0.083	
10.420	0.158	0.077	
10.425	0.171	0.077	
10.430	-0.175	0.077	
10.435	-0.093	0.051	
10.440	0.133	0.018	
10.445	-0.133	0.000	
10.450	-0.171	-0.023	
10.455	0.139	-0.045	
10.460	-0.041	-0.045	
10.465	-0.218	-0.044	
10.470	-0.043	-0.059	
10.475	0.011	-0.069	
10.480	-0.230	-0.073	
10.485	-0.117	-0.088	
10.490	0.128	-0.094	
10.495	-0.160	-0.081	
10.500	-0.207	-0.078	
10.505	0.116	-0.083	
10.510	-0.032	-0.071	
10.515	-0.207	-0.059	
10.520	0.017	-0.062	
10.525	0.082	-0.056	
10.530	-0.210	-0.044	
10.535	-0.124	-0.052	
10.540	0.111	-0.062	
10.545	-0.171	-0.059	
10.550	-0.226	-0.067	
10.555	0.032	-0.086	
10.560	-0.108	-0.092	
10.565	-0.277	-0.099	
10.570	-0.085	-0.119	
10.575	-0.023	-0.129	
10.580	-0.249	-0.127	
10.585	-0.149	-0.134	
10.590	0.033	-0.136	
10.595	-0.220	-0.126	
10.600	-0.264	-0.129	
10.605	0.012	-0.140	
10.610	-0.116	-0.136	
10.615	-0.281	-0.132	
10.620	-0.084	-0.141	
10.625	-0.049	-0.142	
10.630	-0.293	-0.139	
10.635	-0.191	-0.149	
10.640	0.043	-0.156	
10.645	-0.148	-0.142	
10.650	-0.104	-0.126	
10.655	0.369	-0.094	
10.660	0.197	-0.022	
10.665	-0.145	0.045	
10.670	0.026	0.067	
10.675	-0.027	0.060	
10.680	-0.306	0.030	
10.685	-0.235	-0.031	
10.690	-0.075	-0.094	
10.695	-0.238	-0.137	
10.700	-0.246	-0.169	
10.705	0.078	-0.184	
10.710	-0.029	-0.163	
10.715	-0.204	-0.131	
10.720	0.061	-0.108	
10.725	0.134	-0.075	
10.730	-0.153	-0.037	
10.735	-0.026	-0.020	
10.740	0.256	-0.006	
10.745	-0.078	0.021	
10.750	-0.124	0.029	
10.755	0.253	0.025	
10.760	0.079	0.039	
10.765	-0.136	0.052	
10.770	0.200	0.049	
10.775	0.259	0.062	
10.780	-0.111	0.086	
10.785	0.012	0.083	
10.790	0.303	0.077	
10.795	-0.015	0.087	
10.800	-0.041	0.087	
10.805	0.381	0.084	
10.810	0.221	0.110	
10.815	-0.064	0.138	
10.820	0.280	0.143	
10.825	0.364	0.159	
10.830	-0.017	0.183	
10.835	0.130	0.183	
10.840	0.352	0.176	
10.845	-0.020	0.178	
10.850	-0.098	0.156	
10.855	0.251	0.118	
10.860	0.091	0.100	
10.865	-0.131	0.087	
10.870	0.131	0.063	
10.875	0.166	0.053	
10.880	-0.168	0.052	
10.885	-0.055	0.032	
10.890	0.206	0.012	
10.895	-0.096	0.013	
10.900	-0.146	0.004	
10.905	0.190	-0.010	
10.910	0.046	-0.002	
10.915	-0.166	0.008	
10.920	0.116	0.003	
10.925	0.198	0.012	
10.930	-0.120	0.033	
10.935	0.014	0.035	
10.940	0.309	0.040	
10.945	-0.021	0.063	
10.950	-0.104	0.070	
10.955	0.239	0.061	
10.960	0.064	0.066	
10.965	-0.169	0.065	
10.970	0.091	0.044	
10.975	0.145	0.033	
10.980	-0.180	0.031	
10.985	-0.102	0.009	
10.990	0.183	-0.012	
10.995	-0.120	-0.014	
11.000	-0.195	-0.024	
11.005	0.108	-0.043	
11.010	-0.032	-0.045	
11.015	-0.215	-0.045	
11.020	0.047	-0.057	
11.025	0.128	-0.051	
11.030	-0.183	-0.034	
11.035	-0.098	-0.034	
11.040	0.143	-0.039	
11.045	-0.134	-0.032	
11.050	-0.185	-0.037	
11.055	0.146	-0.049	
11.060	0.059	-0.038	
11.065	-0.101	-0.018	
11.070	0.312	0.003	
11.075	0.398	0.055	
11.080	-0.066	0.119	
11.085	-0.063	0.138	
11.090	0.082	0.116	
11.095	-0.221	0.079	
11.100	-0.299	0.016	
11.105	-0.078	-0.060	
11.110	-0.131	-0.113	
11.115	-0.262	-0.146	
11.120	0.011	-0.165	
11.125	0.119	-0.150	
11.130	-0.172	-0.111	
11.135	-0.069	-0.085	
11.140	0.212	-0.061	
11.145	-0.084	-0.026	
11.150	-0.134	-0.008	
11.155	0.235	-0.003	
11.160	0.114	0.021	
11.165	-0.124	0.044	
11.170	0.171	0.049	
11.175	0.233	0.064	
11.180	-0.114	0.083	
11.185	-0.002	0.077	
11.190	0.271	0.067	
11.195	-0.035	0.073	
11.200	-0.070	0.069	
11.205	0.305	0.060	
11.210	0.155	0.076	
11.215	-0.096	0.094	
11.220	0.251	0.096	
11.225	0.352	0.114	
11.230	-0.037	0.144	
11.235	0.082	0.149	
11.240	0.364	0.147	
11.245	0.046	0.158	
11.250	-0.026	0.154	
11.255	0.344	0.139	
11.260	0.139	0.143	
11.265	-0.119	0.142	
11.270	0.130	0.117	
11.275	0.171	0.097	
11.280	-0.172	0.083	
11.285	-0.075	0.050	
11.290	0.210	0.019	
11.295	-0.101	0.011	
11.300	-0.169	-0.002	
11.305	0.133	-0.022	
11.310	-0.021	-0.024	
11.315	-0.201	-0.026	
11.320	0.052	-0.040	
11.325	0.134	-0.037	
11.330	-0.169	-0.022	
11.335	-0.076	-0.024	
11.340	0.197	-0.026	
11.345	-0.089	-0.012	
11.350	-0.142	-0.008	
11.355	0.210	-0.012	
11.360	0.041	0.003	
11.365	-0.182	0.015	
11.370	0.038	0.005	
11.375	0.128	0.000	
11.380	-0.177	0.003	
11.385	-0.104	-0.011	
11.390	0.137	-0.028	
11.395	-0.146	-0.029	
11.400	-0.217	-0.042	
11.405	0.032	-0.066	
11.410	-0.085	-0.076	
11.415	-0.253	-0.085	
11.420	-0.044	-0.104	
11.425	0.015	-0.108	
11.430	-0.246	-0.103	
11.435	-0.169	-0.111	
11.440	0.047	-0.119	
11.445	-0.175	-0.113	
11.450	-0.226	-0.113	
11.455	0.026	-0.120	
11.460	-0.116	-0.115	
11.465	-0.291	-0.114	
11.470	-0.105	-0.130	
11.475	-0.034	-0.138	
11.480	-0.220	-0.135	
11.485	-0.053	-0.133	
11.490	0.331	-0.107	
11.495	-0.032	-0.048	
11.500	-0.163	-0.005	
11.505	-0.002	0.000	
11.510	-0.191	-0.014	
11.515	-0.390	-0.054	
11.520	-0.215	-0.118	
11.525	-0.139	-0.172	
11.530	-0.310	-0.204	
11.535	-0.185	-0.226	
11.540	0.065	-0.223	
11.545	-0.157	-0.190	
11.550	-0.197	-0.159	
11.555	0.143	-0.134	
11.560	0.018	-0.091	
11.565	-0.185	-0.054	
11.570	0.040	-0.040	
11.575	0.137	-0.024	
11.580	-0.165	-0.005	
11.585	-0.072	-0.007	
11.590	0.172	-0.013	
11.595	-0.117	-0.006	
11.600	-0.163	-0.012	
11.605	0.180	-0.025	
11.610	0.068	-0.015	
11.615	-0.128	0.002	
11.620	0.163	0.009	
11.625	0.245	0.031	
11.630	-0.099	0.062	
11.635	0.041	0.069	
11.640	0.355	0.076	
11.645	0.040	0.102	
11.650	-0.043	0.114	
11.655	0.360	0.113	
11.660	0.201	0.132	
11.665	-0.099	0.148	
11.670	0.183	0.137	
11.675	0.236	0.129	
11.680	-0.124	0.126	
11.685	-0.027	0.100	
11.690	0.230	0.071	
11.695	-0.093	0.059	
11.700	-0.166	0.037	
11.705	0.126	0.005	
11.710	-0.020	-0.008	
11.715	-0.236	-0.020	
11.720	-0.018	-0.046	
11.725	0.062	-0.060	
11.730	-0.203	-0.060	
11.735	-0.122	-0.071	
11.740	0.146	-0.077	
11.745	-0.114	-0.063	
11.750	-0.171	-0.056	
11.755	0.157	-0.056	
11.760	0.030	-0.038	
11.765	-0.174	-0.020	
11.770	0.096	-0.018	
11.775	0.174	-0.004	
11.780	-0.154	0.016	
11.785	-0.099	0.013	
11.790	0.152	-0.001	
11.795	-0.130	-0.004	
11.800	-0.200	-0.019	
11.805	0.030	-0.045	
11.810	-0.107	-0.062	
11.815	-0.281	-0.080	
11.820	-0.099	-0.109	
11.825	-0.035	-0.127	
11.830	-0.262	-0.133	
11.835	-0.183	-0.145	
11.840	-0.003	-0.153	
11.845	-0.209	-0.148	
11.850	-0.267	-0.149	
11.855	-0.021	-0.158	
11.860	-0.105	-0.152	
11.865	-0.270	-0.144	
11.870	-0.090	-0.148	
11.875	-0.038	-0.145	
11.880	-0.279	-0.137	
11.885	-0.213	-0.145	
11.890	0.014	-0.155	
11.895	-0.136	-0.145	
11.900	-0.136	-0.132	
11.905	0.335	-0.105	
11.910	0.166	-0.039	
11.915	-0.175	0.023	
11.920	-0.073	0.037	
11.925	-0.110	0.017	
11.930	-0.369	-0.026	
11.935	-0.314	-0.096	
11.940	-0.119	-0.164	
11.945	-0.247	-0.204	
11.950	-0.261	-0.227	
11.955	0.024	-0.230	
11.960	-0.047	-0.201	
11.965	-0.224	-0.164	
11.970	0.008	-0.137	
11.975	0.117	-0.103	
11.980	-0.169	-0.064	
11.985	-0.085	-0.047	
11.990	0.194	-0.037	
11.995	-0.081	-0.015	
12.000	-0.148	-0.007	
12.005	0.186	-0.010	
12.010	0.059	0.003	
12.015	-0.163	0.015	
12.020	0.094	0.011	
12.025	0.226	0.018	
12.030	-0.113	0.038	
12.035	-0.015	0.040	
12.040	0.253	0.039	
12.045	-0.040	0.052	
12.050	-0.087	0.053	
12.055	0.297	0.047	
12.060	0.178	0.067	
12.065	-0.105	0.090	
12.070	0.201	0.093	
12.075	0.290	0.104	
12.080	-0.073	0.123	
12.085	0.029	0.117	
12.090	0.309	0.107	
12.095	-0.021	0.111	
12.100	-0.105	0.099	
12.105	0.255	0.077	
12.110	0.116	0.075	
12.115	-0.148	0.076	
12.120	0.120	0.060	
12.125	0.192	0.054	
12.130	-0.136	0.058	
12.135	-0.043	0.044	
12.140	0.235	0.029	
12.145	-0.047	0.034	
12.150	-0.096	0.032	
12.155	0.294	0.028	
12.160	0.155	0.051	
12.165	-0.120	0.075	
12.170	0.165	0.076	
12.175	0.296	0.086	
12.180	-0.070	0.107	
12.185	0.030	0.106	
12.190	0.326	0.101	
12.195	0.023	0.112	
12.200	-0.060	0.111	
12.205	0.309	0.100	
12.210	0.133	0.108	
12.215	-0.156	0.111	
12.220	0.064	0.087	
12.225	0.154	0.065	
12.230	-0.149	0.052	
12.235	-0.070	0.027	
12.240	0.163	0.003	
12.245	-0.134	-0.003	
12.250	-0.195	-0.020	
12.255	0.104	-0.044	
12.260	-0.005	-0.047	
12.265	-0.198	-0.045	
12.270	0.023	-0.053	
12.275	0.128	-0.048	
12.280	-0.172	-0.032	
12.285	-0.093	-0.033	
12.290	0.171	-0.035	
12.295	-0.125	-0.025	
12.300	-0.191	-0.027	
12.305	0.113	-0.042	
12.310	0.035	-0.038	
12.315	-0.099	-0.025	
12.320	0.373	-0.005	
12.325	0.485	0.059	
12.330	0.037	0.143	
12.335	0.012	0.184	
12.340	0.113	0.178	
12.345	-0.227	0.143	
12.350	-0.322	0.069	
12.355	-0.084	-0.025	
12.360	-0.110	-0.094	
12.365	-0.233	-0.135	
12.370	0.030	-0.156	
12.375	0.158	-0.138	
12.380	-0.157	-0.095	
12.385	-0.069	-0.066	
12.390	0.236	-0.043	
12.395	-0.053	-0.007	
12.400	-0.124	0.012	
12.405	0.242	0.016	
12.410	0.113	0.037	
12.415	-0.143	0.056	
12.420	0.140	0.053	
12.425	0.239	0.059	
12.430	-0.105	0.075	
12.435	-0.017	0.070	
12.440	0.273	0.060	
12.445	-0.012	0.068	
12.450	-0.085	0.067	
12.455	0.317	0.060	
12.460	0.218	0.081	
12.465	-0.060	0.109	
12.470	0.258	0.118	
12.475	0.352	0.139	
12.480	-0.035	0.166	
12.485	0.081	0.165	
12.490	0.375	0.158	
12.495	0.050	0.165	
12.500	-0.058	0.158	
12.505	0.300	0.136	
12.510	0.152	0.132	
12.515	-0.142	0.127	
12.520	0.084	0.099	
12.525	0.157	0.075	
12.530	-0.156	0.061	
12.535	-0.102	0.031	
12.540	0.146	0.000	
12.545	-0.122	-0.011	
12.550	-0.185	-0.028	
12.555	0.093	-0.050	
12.560	-0.032	-0.052	
12.565	-0.210	-0.052	
12.570	0.018	-0.063	
12.575	0.142	-0.058	
12.580	-0.171	-0.039	
12.585	-0.104	-0.036	
12.590	0.166	-0.038	
12.595	-0.096	-0.026	
12.600	-0.163	-0.024	
12.605	0.172	-0.030	
12.610	0.056	-0.017	
12.615	-0.192	-0.003	
12.620	-0.031	-0.012	
12.625	0.026	-0.025	
12.630	-0.238	-0.036	
12.635	-0.168	-0.064	
12.640	0.053	-0.090	
12.645	-0.191	-0.097	
12.650	-0.261	-0.110	
12.655	-0.031	-0.131	
12.660	-0.113	-0.137	
12.665	-0.282	-0.139	
12.670	-0.105	-0.151	
12.675	-0.034	-0.153	
12.680	-0.265	-0.146	
12.685	-0.204	-0.151	
12.690	-0.002	-0.157	
12.695	-0.201	-0.150	
12.700	-0.271	-0.150	
12.705	-0.017	-0.157	
12.710	-0.096	-0.150	
12.715	-0.282	-0.142	
12.720	-0.119	-0.148	
12.725	-0.040	-0.149	
12.730	-0.235	-0.142	
12.735	-0.095	-0.140	
12.740	0.343	-0.117	
12.745	0.037	-0.055	
12.750	-0.107	-0.000	
12.755	0.125	0.024	
12.760	-0.114	0.033	
12.765	-0.364	0.010	
12.770	-0.241	-0.053	
12.775	-0.174	-0.122	
12.780	-0.332	-0.175	
12.785	-0.232	-0.219	
12.790	0.027	-0.235	
12.795	-0.180	-0.216	
12.800	-0.250	-0.194	
12.805	0.030	-0.177	
12.810	-0.037	-0.147	
12.815	-0.230	-0.117	
12.820	-0.037	-0.106	
12.825	0.090	-0.090	
12.830	-0.188	-0.068	
12.835	-0.120	-0.063	
12.840	0.195	-0.060	
12.845	-0.081	-0.039	
12.850	-0.159	-0.027	
12.855	0.172	-0.026	
12.860	0.075	-0.009	
12.865	-0.183	0.007	
12.870	0.059	0.003	
12.875	0.207	0.007	
12.880	-0.137	0.023	
12.885	-0.056	0.021	
12.890	0.276	0.018	
12.895	0.011	0.036	
12.900	-0.096	0.047	
12.905	0.270	0.048	
12.910	0.161	0.068	
12.915	-0.120	0.087	
12.920	0.137	0.083	
12.925	0.242	0.084	
12.930	-0.120	0.092	
12.935	-0.072	0.076	
12.940	0.192	0.050	
12.945	-0.119	0.038	
12.950	-0.209	0.013	
12.955	0.073	-0.023	
12.960	-0.060	-0.042	
12.965	-0.253	-0.058	
12.970	-0.072	-0.084	
12.975	0.026	-0.099	
12.980	-0.236	-0.099	
12.985	-0.185	-0.111	
12.990	0.067	-0.120	
12.995	-0.142	-0.112	
13.000	-0.224	-0.108	
13.005	0.041	-0.111	
13.010	-0.052	-0.101	
13.015	-0.241	-0.091	
13.020	-0.067	-0.098	
13.025	0.050	-0.098	
13.030	-0.215	-0.088	
13.035	-0.171	-0.092	
13.040	0.043	-0.101	
13.045	-0.191	-0.100	
13.050	-0.258	-0.108	
13.055	-0.032	-0.126	
13.060	-0.119	-0.132	
13.065	-0.306	-0.137	
13.070	-0.136	-0.155	
13.075	-0.066	-0.164	
13.080	-0.296	-0.165	
13.085	-0.247	-0.176	
13.090	-0.052	-0.188	
13.095	-0.227	-0.186	
13.100	-0.297	-0.188	
13.105	-0.072	-0.195	
13.110	-0.125	-0.189	
13.115	-0.293	-0.179	
13.120	-0.120	-0.180	
13.125	-0.018	-0.172	
13.130	-0.273	-0.157	
13.135	-0.230	-0.157	
13.140	-0.052	-0.164	
13.145	-0.229	-0.163	
13.150	-0.276	-0.169	
13.155	0.079	-0.173	
13.160	0.116	-0.143	
13.165	-0.142	-0.094	
13.170	0.064	-0.058	
13.175	0.126	-0.024	
13.180	-0.235	0.001	
13.185	-0.246	-0.014	
13.190	-0.070	-0.056	
13.195	-0.249	-0.095	
13.200	-0.314	-0.138	
13.205	-0.026	-0.175	
13.210	-0.050	-0.180	
13.215	-0.242	-0.166	
13.220	-0.035	-0.155	
13.225	0.111	-0.130	
13.230	-0.183	-0.094	
13.235	-0.125	-0.076	
13.240	0.189	-0.065	
13.245	-0.073	-0.039	
13.250	-0.153	-0.024	
13.255	0.187	-0.021	
13.260	0.053	-0.003	
13.265	-0.203	0.011	
13.270	0.012	-0.000	
13.275	0.165	-0.006	
13.280	-0.151	0.001	
13.285	-0.101	-0.007	
13.290	0.213	-0.016	
13.295	-0.041	-0.004	
13.300	-0.137	0.002	
13.305	0.248	0.002	
13.310	0.183	0.026	
13.315	-0.120	0.056	
13.320	0.139	0.064	
13.325	0.314	0.078	
13.330	-0.073	0.102	
13.335	-0.009	0.103	
13.340	0.328	0.095	
13.345	0.029	0.105	
13.350	-0.101	0.103	
13.355	0.219	0.086	
13.360	0.107	0.082	
13.365	-0.174	0.077	
13.370	0.024	0.050	
13.375	0.165	0.030	
13.380	-0.157	0.023	
13.385	-0.093	0.004	
13.390	0.209	-0.012	
13.395	-0.060	-0.005	
13.400	-0.156	-0.004	
13.405	0.204	-0.011	
13.410	0.134	0.006	
13.415	-0.124	0.029	
13.420	0.137	0.036	
13.425	0.285	0.053	
13.430	-0.085	0.080	
13.435	-0.026	0.083	
13.440	0.334	0.078	
13.445	0.052	0.093	
13.450	-0.072	0.100	
13.455	0.303	0.095	
13.460	0.190	0.108	
13.465	-0.128	0.121	
13.470	0.078	0.105	
13.475	0.177	0.087	
13.480	-0.165	0.075	
13.485	-0.116	0.042	
13.490	0.149	0.007	
13.495	-0.092	-0.007	
13.500	-0.194	-0.023	
13.505	0.076	-0.046	
13.510	-0.005	-0.050	
13.515	-0.232	-0.051	
13.520	-0.046	-0.066	
13.525	0.094	-0.071	
13.530	-0.174	-0.062	
13.535	-0.140	-0.065	
13.540	0.126	-0.069	
13.545	-0.107	-0.058	
13.550	-0.191	-0.055	
13.555	0.130	-0.060	
13.560	0.001	-0.048	
13.565	-0.230	-0.038	
13.570	0.011	-0.046	
13.575	0.300	-0.038	
13.580	0.058	0.004	
13.585	0.108	0.048	
13.590	0.331	0.089	
13.595	-0.069	0.125	
13.600	-0.241	0.117	
13.605	-0.070	0.063	
13.610	-0.148	0.001	
13.615	-0.320	-0.062	
13.620	-0.117	-0.123	
13.625	0.061	-0.153	
13.630	-0.201	-0.149	
13.635	-0.142	-0.142	
13.640	0.186	-0.126	
13.645	-0.067	-0.087	
13.650	-0.168	-0.057	
13.655	0.181	-0.042	
13.660	0.123	-0.013	
13.665	-0.151	0.017	
13.670	0.081	0.024	
13.675	0.242	0.035	
13.680	-0.111	0.055	
13.685	-0.081	0.051	
13.690	0.235	0.039	
13.695	-0.029	0.042	
13.700	-0.137	0.037	
13.705	0.230	0.025	
13.710	0.200	0.038	
13.715	-0.111	0.062	
13.720	0.120	0.066	
13.725	0.317	0.077	
13.730	-0.055	0.100	
13.735	0.026	0.104	
13.740	0.373	0.104	
13.745	0.096	0.124	
13.750	-0.056	0.135	
13.755	0.319	0.129	
13.760	0.223	0.140	
13.765	-0.095	0.150	
13.770	0.137	0.135	
13.775	0.258	0.123	
13.780	-0.113	0.119	
13.785	-0.081	0.093	
13.790	0.223	0.061	
13.795	-0.058	0.048	
13.800	-0.183	0.029	
13.805	0.113	0.000	
13.810	0.021	-0.011	
13.815	-0.229	-0.018	
13.820	-0.058	-0.041	
13.825	0.126	-0.055	
13.830	-0.149	-0.049	
13.835	-0.117	-0.051	
13.840	0.203	-0.051	
13.845	-0.055	-0.030	
13.850	-0.153	-0.018	
13.855	0.181	-0.016	
13.860	0.113	0.002	
13.865	-0.160	0.022	
13.870	0.055	0.021	
13.875	0.189	0.023	
13.880	-0.149	0.033	
13.885	-0.119	0.021	
13.890	0.157	0.001	
13.895	-0.099	-0.005	
13.900	-0.213	-0.019	
13.905	0.068	-0.043	
13.910	0.004	-0.050	
13.915	-0.238	-0.052	
13.920	-0.085	-0.069	
13.925	0.032	-0.082	
13.930	-0.224	-0.085	
13.935	-0.204	-0.099	
13.940	0.043	-0.115	
13.945	-0.142	-0.114	
13.950	-0.246	-0.114	
13.955	0.003	-0.123	
13.960	-0.055	-0.118	
13.965	-0.265	-0.111	
13.970	-0.110	-0.119	
13.975	0.035	-0.122	
13.980	-0.207	-0.112	
13.985	-0.151	-0.111	
13.990	0.238	-0.103	
13.995	0.116	-0.059	
14.000	-0.015	-0.006	
14.005	0.296	0.039	
14.010	0.090	0.084	
14.015	-0.268	0.101	
14.020	-0.185	0.061	
14.025	-0.113	-0.004	
14.030	-0.313	-0.069	
14.035	-0.238	-0.133	
14.040	0.043	-0.174	
14.045	-0.124	-0.175	
14.050	-0.210	-0.163	
14.055	0.085	-0.147	
14.060	0.020	-0.114	
14.065	-0.197	-0.080	
14.070	0.001	-0.065	
14.075	0.172	-0.047	
14.080	-0.146	-0.020	
14.085	-0.107	-0.014	
14.090	0.247	-0.013	
14.095	-0.017	0.006	
14.100	-0.140	0.018	
14.105	0.181	0.015	
14.110	0.131	0.027	
14.115	-0.153	0.042	
14.120	0.065	0.036	
14.125	0.268	0.038	
14.130	-0.073	0.056	
14.135	-0.029	0.059	
14.140	0.348	0.060	
14.145	0.072	0.083	
14.150	-0.076	0.098	
14.155	0.329	0.099	
14.160	0.280	0.121	
14.165	-0.044	0.148	
14.170	0.198	0.153	
14.175	0.370	0.160	
14.180	-0.046	0.175	
14.185	-0.034	0.162	
14.190	0.287	0.133	
14.195	-0.015	0.119	
14.200	-0.166	0.094	
14.205	0.137	0.055	
14.210	0.072	0.034	
14.215	-0.192	0.021	
14.220	-0.040	-0.005	
14.225	0.085	-0.026	
14.230	-0.201	-0.034	
14.235	-0.177	-0.055	
14.240	0.119	-0.075	
14.245	-0.085	-0.072	
14.250	-0.174	-0.068	
14.255	0.178	-0.065	
14.260	0.090	-0.039	
14.265	-0.197	-0.012	
14.270	-0.009	-0.010	
14.275	0.197	-0.009	
14.280	-0.119	0.006	
14.285	-0.116	0.005	
14.290	0.175	-0.005	
14.295	-0.078	-0.001	
14.300	-0.200	-0.008	
14.305	0.062	-0.029	
14.310	-0.011	-0.038	
14.315	-0.232	-0.044	
14.320	-0.087	-0.065	
14.325	0.030	-0.080	
14.330	-0.229	-0.085	
14.335	-0.212	-0.101	
14.340	0.030	-0.119	
14.345	-0.165	-0.120	
14.350	-0.270	-0.125	
14.355	-0.012	-0.137	
14.360	-0.041	-0.134	
14.365	-0.264	-0.124	
14.370	-0.095	-0.127	
14.375	0.065	-0.122	
14.380	-0.215	-0.106	
14.385	-0.209	-0.105	
14.390	0.018	-0.113	
14.395	-0.159	-0.112	
14.400	-0.236	-0.115	
14.405	0.123	-0.119	
14.410	0.227	-0.088	
14.415	-0.032	-0.031	
14.420	0.197	0.019	
14.425	0.262	0.069	
14.430	-0.197	0.105	
14.435	-0.261	0.085	
14.440	-0.101	0.022	
14.445	-0.250	-0.046	
14.450	-0.319	-0.113	
14.455	-0.064	-0.170	
14.460	-0.041	-0.188	
14.465	-0.241	-0.181	
14.470	-0.069	-0.171	
14.475	0.110	-0.147	
14.480	-0.171	-0.109	
14.485	-0.131	-0.087	
14.490	0.187	-0.071	
14.495	-0.043	-0.041	
14.500	-0.166	-0.022	
14.505	0.175	-0.017	
14.510	0.148	0.003	
14.515	-0.148	0.028	
14.520	0.049	0.030	
14.525	0.227	0.034	
14.530	-0.120	0.047	
14.535	-0.098	0.040	
14.540	0.268	0.027	
14.545	0.037	0.037	
14.550	-0.101	0.047	
14.555	0.267	0.047	
14.560	0.226	0.069	
14.565	-0.096	0.096	
14.570	0.172	0.101	
14.575	0.351	0.112	
14.580	-0.029	0.136	
14.585	0.012	0.137	
14.590	0.373	0.129	
14.595	0.097	0.141	
14.600	-0.087	0.143	
14.605	0.259	0.126	
14.610	0.206	0.124	
14.615	-0.130	0.125	
14.620	0.046	0.102	
14.625	0.204	0.080	
14.630	-0.128	0.069	
14.635	-0.131	0.042	
14.640	0.169	0.011	
14.645	-0.067	0.001	
14.650	-0.195	-0.012	
14.655	0.082	-0.034	
14.660	0.058	-0.037	
14.665	-0.200	-0.032	
14.670	-0.015	-0.040	
14.675	0.177	-0.039	
14.680	-0.151	-0.023	
14.685	-0.122	-0.022	
14.690	0.223	-0.025	
14.695	-0.023	-0.009	
14.700	-0.165	0.002	
14.705	0.134	-0.004	
14.710	0.073	0.003	
14.715	-0.206	0.009	
14.720	-0.067	-0.009	
14.725	0.101	-0.027	
14.730	-0.191	-0.033	
14.735	-0.192	-0.052	
14.740	0.056	-0.076	
14.745	-0.134	-0.083	
14.750	-0.250	-0.093	
14.755	-0.015	-0.110	
14.760	-0.046	-0.114	
14.765	-0.258	-0.111	
14.770	-0.114	-0.121	
14.775	0.030	-0.124	
14.780	-0.221	-0.115	
14.785	-0.220	-0.119	
14.790	0.026	-0.128	
14.795	-0.148	-0.124	
14.800	-0.258	-0.123	
14.805	-0.014	-0.131	
14.810	-0.055	-0.127	
14.815	-0.264	-0.119	
14.820	-0.070	-0.123	
14.825	0.232	-0.111	
14.830	-0.014	-0.067	
14.835	0.076	-0.020	
14.840	0.380	0.031	
14.845	0.001	0.089	
14.850	-0.242	0.107	
14.855	-0.122	0.069	
14.860	-0.182	0.006	
14.865	-0.361	-0.065	
14.870	-0.191	-0.138	
14.875	-0.017	-0.184	
14.880	-0.217	-0.193	
14.885	-0.172	-0.190	
14.890	0.146	-0.173	
14.895	-0.067	-0.130	
14.900	-0.201	-0.094	
14.905	0.096	-0.076	
14.910	0.085	-0.050	
14.915	-0.192	-0.024	
14.920	-0.020	-0.022	
14.925	0.198	-0.018	
14.930	-0.124	-0.001	
14.935	-0.113	-0.000	
14.940	0.215	-0.006	
14.945	-0.006	0.007	
14.950	-0.151	0.014	
14.955	0.177	0.009	
14.960	0.187	0.023	
14.965	-0.137	0.045	
14.970	0.055	0.046	
14.975	0.290	0.050	
14.980	-0.035	0.070	
14.985	-0.008	0.077	
14.990	0.376	0.081	
14.995	0.131	0.109	
15.000	-0.079	0.128	
15.005	0.258	0.124	
15.010	0.245	0.131	
15.015	-0.116	0.139	
15.020	0.061	0.121	
15.025	0.259	0.102	
15.030	-0.089	0.096	
15.035	-0.102	0.075	
15.040	0.186	0.046	
15.045	-0.055	0.033	
15.050	-0.204	0.014	
15.055	0.052	-0.016	
15.060	0.026	-0.032	
15.065	-0.227	-0.039	
15.070	-0.084	-0.059	
15.075	0.143	-0.070	
15.080	-0.154	-0.060	
15.085	-0.146	-0.058	
15.090	0.195	-0.058	
15.095	-0.043	-0.038	
15.100	-0.201	-0.026	
15.105	0.081	-0.032	
15.110	0.073	-0.027	
15.115	-0.191	-0.018	
15.120	-0.038	-0.026	
15.125	0.161	-0.030	
15.130	-0.148	-0.021	
15.135	-0.171	-0.026	
15.140	0.094	-0.042	
15.145	-0.101	-0.046	
15.150	-0.227	-0.055	
15.155	0.024	-0.074	
15.160	-0.005	-0.078	
15.165	-0.246	-0.076	
15.170	-0.127	-0.090	
15.175	0.038	-0.101	
15.180	-0.217	-0.101	
15.185	-0.220	-0.110	
15.190	0.050	-0.122	
15.195	-0.119	-0.117	
15.200	-0.233	-0.112	
15.205	-0.011	-0.116	
15.210	-0.003	-0.109	
15.215	-0.232	-0.097	
15.220	-0.092	-0.099	
15.225	0.116	-0.095	
15.230	-0.185	-0.078	
15.235	-0.194	-0.076	
15.240	0.140	-0.081	
15.245	0.012	-0.064	
15.250	-0.035	-0.037	
15.255	0.413	-0.001	
15.260	0.375	0.070	
15.265	-0.093	0.142	
15.270	-0.037	0.158	
15.275	0.030	0.131	
15.280	-0.259	0.082	
15.285	-0.281	0.008	
15.290	-0.012	-0.069	
15.295	-0.124	-0.113	
15.300	-0.206	-0.136	
15.305	0.093	-0.142	
15.310	0.108	-0.115	
15.315	-0.182	-0.075	
15.320	-0.012	-0.053	
15.325	0.248	-0.031	
15.330	-0.096	0.004	
15.335	-0.113	0.017	
15.340	0.216	0.016	
15.345	0.009	0.028	
15.350	-0.143	0.032	
15.355	0.209	0.026	
15.360	0.224	0.041	
15.365	-0.120	0.065	
15.370	0.052	0.067	
15.375	0.305	0.069	
15.380	-0.041	0.085	
15.385	-0.038	0.086	
15.390	0.348	0.082	
15.395	0.134	0.101	
15.400	-0.056	0.117	
15.405	0.349	0.121	
15.410	0.351	0.146	
15.415	-0.018	0.179	
15.420	0.181	0.185	
15.425	0.416	0.189	
15.430	0.030	0.204	
15.435	0.011	0.197	
15.440	0.412	0.178	
15.445	0.149	0.181	
15.450	-0.102	0.177	
15.455	0.180	0.149	
15.460	0.137	0.125	
15.465	-0.171	0.104	
15.470	-0.031	0.063	
15.475	0.174	0.029	
15.480	-0.143	0.015	
15.485	-0.163	-0.008	
15.490	0.139	-0.033	
15.495	-0.069	-0.037	
15.500	-0.217	-0.042	
15.505	0.072	-0.057	
15.510	0.091	-0.053	
15.515	-0.178	-0.037	
15.520	-0.037	-0.037	
15.525	0.172	-0.034	
15.530	-0.137	-0.018	
15.535	-0.136	-0.018	
15.540	0.250	-0.022	
15.545	0.041	-0.001	
15.550	-0.168	0.017	
15.555	0.101	0.014	
15.560	0.125	0.017	
15.565	-0.188	0.023	
15.570	-0.069	0.007	
15.575	0.136	-0.011	
15.580	-0.175	-0.016	
15.585	-0.201	-0.035	
15.590	0.059	-0.062	
15.595	-0.116	-0.073	
15.600	-0.255	-0.084	
15.605	-0.024	-0.105	
15.610	0.020	-0.108	
15.615	-0.235	-0.100	
15.620	-0.111	-0.104	
15.625	0.049	-0.105	
15.630	-0.200	-0.096	
15.635	-0.204	-0.100	
15.640	0.085	-0.107	
15.645	-0.099	-0.097	
15.650	-0.250	-0.091	
15.655	-0.023	-0.100	
15.660	0.009	-0.099	
15.665	-0.207	-0.090	
15.670	-0.012	-0.088	
15.675	0.344	-0.066	
15.680	0.026	-0.010	
15.685	-0.026	0.036	
15.690	0.271	0.063	
15.695	-0.037	0.087	
15.700	-0.253	0.080	
15.705	-0.116	0.032	
15.710	-0.122	-0.026	
15.715	-0.314	-0.081	
15.720	-0.175	-0.135	
15.725	0.041	-0.166	
15.730	-0.186	-0.163	
15.735	-0.194	-0.156	
15.740	0.126	-0.144	
15.745	-0.044	-0.111	
15.750	-0.200	-0.082	
15.755	0.113	-0.068	
15.760	0.154	-0.040	
15.765	-0.175	-0.008	
15.770	-0.046	-0.001	
15.775	0.189	-0.002	
15.780	-0.116	0.008	
15.785	-0.131	0.004	
15.790	0.186	-0.008	
15.795	-0.011	-0.002	
15.800	-0.186	0.001	
15.805	0.131	-0.010	
15.810	0.203	-0.000	
15.815	-0.142	0.023	
15.820	-0.006	0.026	
15.825	0.268	0.028	
15.830	-0.087	0.044	
15.835	-0.120	0.043	
15.840	0.264	0.031	
15.845	0.038	0.040	
15.850	-0.175	0.045	
15.855	0.099	0.029	
15.860	0.137	0.023	
15.865	-0.175	0.025	
15.870	-0.064	0.009	
15.875	0.152	-0.008	
15.880	-0.162	-0.011	
15.885	-0.210	-0.028	
15.890	0.070	-0.055	
15.895	-0.090	-0.065	
15.900	-0.255	-0.075	
15.905	-0.034	-0.096	
15.910	-0.012	-0.103	
15.915	-0.258	-0.103	
15.920	-0.151	-0.115	
15.925	0.052	-0.123	
15.930	-0.188	-0.115	
15.935	-0.203	-0.114	
15.940	0.136	-0.114	
15.945	-0.038	-0.091	
15.950	-0.210	-0.070	
15.955	0.017	-0.067	
15.960	0.058	-0.059	
15.965	-0.226	-0.048	
15.970	-0.114	-0.058	
15.975	0.119	-0.067	
15.980	-0.168	-0.061	
15.985	-0.229	-0.068	
15.990	0.027	-0.086	
15.995	-0.102	-0.092	
16.000	-0.244	-0.097	
16.005	0.000	-0.109	
16.010	0.065	-0.103	
16.015	-0.242	-0.086	
16.020	-0.156	-0.089	
16.025	0.087	-0.095	
16.030	-0.172	-0.088	
16.035	-0.215	-0.090	
16.040	0.096	-0.098	
16.045	-0.063	-0.087	
16.050	-0.241	-0.079	
16.055	-0.014	-0.086	
16.060	0.064	-0.083	
16.065	-0.204	-0.070	
16.070	-0.122	-0.073	
16.075	0.067	-0.078	
16.080	-0.182	-0.074	
16.085	-0.195	-0.081	
16.090	0.175	-0.088	
16.095	0.116	-0.063	
16.100	-0.082	-0.024	
16.105	0.229	0.008	
16.110	0.201	0.049	
16.115	-0.220	0.079	
16.120	-0.182	0.060	
16.125	-0.055	0.010	
16.130	-0.288	-0.043	
16.135	-0.320	-0.105	
16.140	-0.020	-0.160	
16.145	-0.095	-0.178	
16.150	-0.256	-0.176	
16.155	0.018	-0.170	
16.160	0.094	-0.141	
16.165	-0.200	-0.100	
16.170	-0.081	-0.080	
16.175	0.203	-0.062	
16.180	-0.116	-0.033	
16.185	-0.159	-0.021	
16.190	0.195	-0.022	
16.195	0.015	-0.007	
16.200	-0.191	0.003	
16.205	0.091	-0.005	
16.210	0.177	-0.000	
16.215	-0.146	0.016	
16.220	-0.002	0.015	
16.225	0.312	0.020	
16.230	-0.047	0.045	
16.235	-0.124	0.053	
16.240	0.273	0.047	
16.245	0.120	0.060	
16.250	-0.113	0.074	
16.255	0.242	0.073	
16.260	0.293	0.090	
16.265	-0.110	0.115	
16.270	0.021	0.110	
16.275	0.326	0.100	
16.280	-0.032	0.106	
16.285	-0.099	0.097	
16.290	0.267	0.076	
16.295	0.068	0.075	
16.300	-0.180	0.071	
16.305	0.084	0.046	
16.310	0.158	0.032	
16.315	-0.198	0.029	
16.320	-0.122	0.005	
16.325	0.125	-0.022	
16.330	-0.153	-0.032	
16.335	-0.206	-0.049	
16.340	0.093	-0.070	
16.345	-0.027	-0.070	
16.350	-0.203	-0.064	
16.355	0.049	-0.068	
16.360	0.130	-0.055	
16.365	-0.198	-0.034	
16.370	-0.120	-0.035	
16.375	0.142	-0.043	
16.380	-0.127	-0.037	
16.385	-0.185	-0.041	
16.390	0.143	-0.052	
16.395	-0.038	-0.045	
16.400	-0.223	-0.040	
16.405	-0.027	-0.054	
16.410	0.015	-0.063	
16.415	-0.250	-0.067	
16.420	-0.153	-0.086	
16.425	0.064	-0.102	
16.430	-0.188	-0.101	
16.435	-0.241	-0.107	
16.440	0.021	-0.121	
16.445	-0.090	-0.118	
16.450	-0.256	-0.114	
16.455	-0.037	-0.121	
16.460	0.055	-0.114	
16.465	-0.224	-0.097	
16.470	-0.117	-0.094	
16.475	0.197	-0.088	
16.480	-0.120	-0.061	
16.485	-0.203	-0.048	
16.490	0.064	-0.054	
16.495	-0.063	-0.053	
16.500	-0.224	-0.056	
16.505	0.087	-0.067	
16.510	0.273	-0.050	
16.515	-0.006	-0.003	
16.520	0.203	0.042	
16.525	0.416	0.094	
16.530	-0.044	0.148	
16.535	-0.171	0.154	
16.540	0.053	0.114	
16.545	-0.102	0.065	
16.550	-0.265	0.010	
16.555	-0.026	-0.049	
16.560	0.113	-0.079	
16.565	-0.157	-0.077	
16.570	-0.011	-0.072	
16.575	0.334	-0.049	
16.580	0.009	0.002	
16.585	-0.060	0.041	
16.590	0.341	0.063	
16.595	0.198	0.100	
16.600	-0.069	0.130	
16.605	0.288	0.138	
16.610	0.383	0.157	
16.615	-0.023	0.185	
16.620	0.139	0.186	
16.625	0.427	0.184	
16.630	0.084	0.199	
16.635	0.017	0.197	
16.640	0.434	0.186	
16.645	0.279	0.200	
16.650	-0.008	0.215	
16.655	0.384	0.213	
16.660	0.503	0.231	
16.665	0.120	0.267	
16.670	0.274	0.282	
16.675	0.605	0.296	
16.680	0.285	0.330	
16.685	0.186	0.349	
16.690	0.598	0.352	
16.695	0.448	0.372	
16.700	0.094	0.387	
16.705	0.386	0.370	
16.710	0.428	0.353	
16.715	0.000	0.337	
16.720	0.119	0.292	
16.725	0.399	0.245	
16.730	0.030	0.221	
16.735	-0.058	0.187	
16.740	0.328	0.147	
16.745	0.163	0.135	
16.750	-0.096	0.130	
16.755	0.223	0.112	
16.760	0.326	0.114	
16.765	-0.060	0.132	
16.770	0.064	0.128	
16.775	0.399	0.125	
16.780	0.052	0.142	
16.785	-0.053	0.145	
16.790	0.355	0.134	
16.795	0.226	0.144	
16.800	-0.049	0.158	
16.805	0.290	0.154	
16.810	0.355	0.165	
16.815	-0.056	0.184	
16.820	0.055	0.172	
16.825	0.319	0.152	
16.830	-0.037	0.144	
16.835	-0.108	0.120	
16.840	0.250	0.086	
16.845	0.110	0.076	
16.850	-0.153	0.072	
16.855	0.099	0.052	
16.860	0.165	0.043	
16.865	-0.153	0.043	
16.870	-0.066	0.025	
16.875	0.203	0.008	
16.880	-0.081	0.010	
16.885	-0.131	0.005	
16.890	0.198	-0.005	
16.895	0.052	0.006	
16.900	-0.172	0.016	
16.905	0.064	0.007	
16.910	0.152	0.007	
16.915	-0.165	0.015	
16.920	-0.072	0.004	
16.925	0.233	-0.005	
16.930	0.011	0.010	
16.935	0.067	0.030	
16.940	0.521	0.066	
16.945	0.308	0.136	
16.950	-0.087	0.194	
16.955	0.056	0.196	
16.960	-0.044	0.159	
16.965	-0.322	0.096	
16.970	-0.227	0.005	
16.975	0.018	-0.076	
16.980	-0.140	-0.117	
16.985	-0.168	-0.135	
16.990	0.166	-0.134	
16.995	0.040	-0.099	
17.000	-0.168	-0.060	
17.005	0.070	-0.040	
17.010	0.149	-0.017	
17.015	-0.151	0.007	
17.020	-0.052	0.008	
17.025	0.212	0.005	
17.030	-0.095	0.016	
17.035	-0.156	0.012	
17.040	0.154	-0.004	
17.045	-0.002	-0.004	
17.050	-0.198	-0.005	
17.055	0.018	-0.023	
17.060	0.081	-0.031	
17.065	-0.182	-0.029	
17.070	-0.092	-0.040	
17.075	0.134	-0.049	
17.080	-0.124	-0.042	
17.085	-0.168	-0.043	
17.090	0.139	-0.051	
17.095	-0.021	-0.041	
17.100	-0.204	-0.034	
17.105	0.017	-0.043	
17.110	0.062	-0.045	
17.115	-0.233	-0.041	
17.120	-0.172	-0.059	
17.125	-0.017	-0.084	
17.130	-0.227	-0.101	
17.135	-0.279	-0.125	
17.140	-0.087	-0.154	
17.145	-0.200	-0.170	
17.150	-0.367	-0.186	
17.155	-0.212	-0.212	
17.160	-0.180	-0.231	
17.165	-0.374	-0.241	
17.170	-0.297	-0.258	
17.175	-0.153	-0.271	
17.180	-0.334	-0.270	
17.185	-0.377	-0.275	
17.190	-0.162	-0.284	
17.195	-0.235	-0.280	
17.200	-0.381	-0.272	
17.205	-0.209	-0.274	
17.210	-0.163	-0.269	
17.215	-0.351	-0.258	
17.220	-0.258	-0.256	
17.225	-0.076	-0.252	
17.230	-0.268	-0.234	
17.235	-0.229	-0.221	
17.240	0.192	-0.199	
17.245	-0.031	-0.145	
17.250	-0.319	-0.101	
17.255	-0.238	-0.102	
17.260	-0.250	-0.132	
17.265	-0.464	-0.178	
17.270	-0.401	-0.240	
17.275	-0.259	-0.297	
17.280	-0.416	-0.332	
17.285	-0.467	-0.360	
17.290	-0.256	-0.381	
17.295	-0.319	-0.381	
17.300	-0.467	-0.373	
17.305	-0.296	-0.372	
17.310	-0.253	-0.363	
17.315	-0.444	-0.350	
17.320	-0.370	-0.348	
17.325	-0.209	-0.347	
17.330	-0.378	-0.337	
17.335	-0.430	-0.334	
17.340	-0.226	-0.338	
17.345	-0.261	-0.331	
17.350	-0.375	-0.318	
17.355	-0.142	-0.306	
17.360	0.021	-0.273	
17.365	-0.244	-0.222	
17.370	-0.212	-0.188	
17.375	-0.136	-0.173	
17.380	-0.401	-0.175	
17.385	-0.508	-0.210	
17.390	-0.320	-0.269	
17.395	-0.355	-0.317	
17.400	-0.456	-0.351	
17.405	-0.250	-0.373	
17.410	-0.191	-0.368	
17.415	-0.369	-0.344	
17.420	-0.277	-0.324	
17.425	-0.084	-0.301	
17.430	-0.267	-0.267	
17.435	-0.305	-0.244	
17.440	-0.064	-0.231	
17.445	-0.160	-0.209	
17.450	-0.310	-0.192	
17.455	-0.120	-0.189	
17.460	-0.072	-0.182	
17.465	-0.284	-0.170	
17.470	-0.215	-0.172	
17.475	0.012	-0.174	
17.480	-0.204	-0.161	
17.485	-0.235	-0.154	
17.490	0.030	-0.152	
17.495	-0.113	-0.136	
17.500	-0.265	-0.124	
17.505	-0.073	-0.129	
17.510	0.020	-0.125	
17.515	-0.227	-0.112	
17.520	-0.131	-0.112	
17.525	0.146	-0.106	
17.530	-0.122	-0.082	
17.535	-0.185	-0.068	
17.540	0.120	-0.066	
17.545	-0.034	-0.052	
17.550	-0.242	-0.044	
17.555	-0.058	-0.058	
17.560	0.023	-0.070	
17.565	-0.249	-0.075	
17.570	-0.180	-0.094	
17.575	0.003	-0.114	
17.580	-0.242	-0.122	
17.585	-0.290	-0.139	
17.590	-0.031	-0.161	
17.595	-0.142	-0.165	
17.600	-0.313	-0.165	
17.605	-0.131	-0.176	
17.610	-0.052	-0.178	
17.615	-0.270	-0.170	
17.620	-0.183	-0.170	
17.625	0.070	-0.165	
17.630	-0.174	-0.142	
17.635	-0.235	-0.128	
17.640	0.041	-0.125	
17.645	-0.078	-0.112	
17.650	-0.258	-0.101	
17.655	-0.061	-0.108	
17.660	0.030	-0.107	
17.665	-0.239	-0.098	
17.670	-0.185	-0.105	
17.675	0.029	-0.116	
17.680	-0.197	-0.114	
17.685	-0.271	-0.122	
17.690	-0.046	-0.140	
17.695	-0.139	-0.146	
17.700	-0.300	-0.150	
17.705	-0.130	-0.165	
17.710	-0.066	-0.171	
17.715	-0.299	-0.168	
17.720	-0.232	-0.177	
17.725	-0.027	-0.185	
17.730	-0.212	-0.178	
17.735	-0.270	-0.175	
17.740	-0.014	-0.176	
17.745	-0.120	-0.164	
17.750	-0.281	-0.152	
17.755	-0.102	-0.155	
17.760	-0.023	-0.151	
17.765	-0.250	-0.139	
17.770	-0.172	-0.140	
17.775	0.119	-0.137	
17.780	-0.072	-0.110	
17.785	-0.038	-0.079	
17.790	0.413	-0.038	
17.795	0.213	0.036	
17.800	-0.186	0.096	
17.805	-0.089	0.096	
17.810	-0.099	0.057	
17.815	-0.351	-0.002	
17.820	-0.267	-0.080	
17.825	-0.012	-0.145	
17.830	-0.171	-0.171	
17.835	-0.209	-0.179	
17.840	0.120	-0.171	
17.845	0.037	-0.133	
17.850	-0.171	-0.088	
17.855	0.094	-0.060	
17.860	0.197	-0.025	
17.865	-0.149	0.013	
17.870	-0.066	0.021	
17.875	0.247	0.020	
17.880	-0.014	0.034	
17.885	-0.092	0.041	
17.890	0.274	0.041	
17.895	0.146	0.061	
17.900	-0.136	0.079	
17.905	0.152	0.075	
17.910	0.280	0.080	
17.915	-0.081	0.097	
17.920	0.029	0.094	
17.925	0.355	0.090	
17.930	0.044	0.108	
17.935	-0.023	0.116	
17.940	0.383	0.117	
17.945	0.309	0.144	
17.950	0.023	0.178	
17.955	0.349	0.194	
17.960	0.451	0.220	
17.965	0.033	0.252	
17.970	0.104	0.250	
17.975	0.408	0.232	
17.980	0.081	0.227	
17.985	-0.076	0.206	
17.990	0.262	0.166	
17.995	0.139	0.143	
18.000	-0.128	0.124	
18.005	0.111	0.092	
18.010	0.233	0.074	
18.015	-0.125	0.072	
18.020	-0.081	0.054	
18.025	0.192	0.030	
18.030	-0.073	0.024	
18.035	-0.146	0.012	
18.040	0.212	-0.004	
18.045	0.108	0.007	
18.050	-0.142	0.024	
18.055	0.107	0.025	
18.060	0.223	0.035	
18.065	-0.101	0.054	
18.070	0.011	0.054	
18.075	0.303	0.055	
18.080	0.000	0.074	
18.085	-0.085	0.079	
18.090	0.311	0.074	
18.095	0.155	0.090	
18.100	-0.145	0.103	
18.105	0.091	0.088	
18.110	0.218	0.077	
18.115	-0.134	0.075	
18.120	-0.089	0.054	
18.125	0.178	0.027	
18.130	-0.085	0.018	
18.135	-0.166	0.002	
18.140	0.143	-0.018	
18.145	0.033	-0.018	
18.150	-0.180	-0.013	
18.155	0.072	-0.020	
18.160	0.177	-0.013	
18.165	-0.157	0.005	
18.170	-0.089	0.002	
18.175	0.224	-0.004	
18.180	-0.073	0.006	
18.185	-0.154	0.007	
18.190	0.151	-0.005	
18.195	0.026	-0.002	
18.200	-0.168	0.002	
18.205	0.154	-0.004	
18.210	0.373	0.018	
18.215	0.087	0.070	
18.220	0.194	0.118	
18.225	0.430	0.161	
18.230	0.055	0.204	
18.235	-0.136	0.206	
18.240	0.058	0.161	
18.245	-0.113	0.104	
18.250	-0.310	0.034	
18.255	-0.125	-0.046	
18.260	0.026	-0.101	
18.265	-0.178	-0.122	
18.270	-0.072	-0.128	
18.275	0.267	-0.110	
18.280	-0.009	-0.060	
18.285	-0.093	-0.017	
18.290	0.287	0.011	
18.295	0.148	0.052	
18.300	-0.146	0.083	
18.305	0.123	0.081	
18.310	0.296	0.084	
18.315	-0.075	0.099	
18.320	0.012	0.096	
18.325	0.340	0.090	
18.330	0.043	0.104	
18.335	-0.085	0.108	
18.340	0.320	0.098	
18.345	0.215	0.111	
18.350	-0.084	0.128	
18.355	0.192	0.123	
18.360	0.312	0.127	
18.365	-0.047	0.140	
18.370	0.087	0.135	
18.375	0.436	0.134	
18.380	0.172	0.161	
18.385	0.018	0.181	
18.390	0.393	0.185	
18.395	0.288	0.204	
18.400	-0.027	0.219	
18.405	0.258	0.208	
18.410	0.370	0.204	
18.415	0.143	0.217	
18.420	0.437	0.234	
18.425	0.872	0.286	
18.430	0.619	0.388	
18.435	0.372	0.481	
18.440	0.692	0.533	
18.445	0.439	0.561	
18.450	-0.125	0.538	
18.455	-0.047	0.434	
18.460	-0.006	0.292	
18.465	-0.235	0.155	
18.470	-0.156	0.030	
18.475	0.027	-0.061	
18.480	-0.197	-0.108	
18.485	-0.265	-0.141	
18.490	-0.002	-0.164	
18.495	-0.072	-0.161	
18.500	-0.236	-0.148	
18.505	-0.053	-0.141	
18.510	0.130	-0.122	
18.515	-0.182	-0.089	
18.520	-0.146	-0.074	
18.525	0.128	-0.069	
18.530	-0.130	-0.054	
18.535	-0.227	-0.054	
18.540	0.052	-0.068	
18.545	-0.034	-0.070	
18.550	-0.267	-0.071	
18.555	-0.104	-0.089	
18.560	-0.003	-0.104	
18.565	-0.270	-0.109	
18.570	-0.217	-0.127	
18.575	0.001	-0.145	
18.580	-0.183	-0.145	
18.585	-0.264	-0.147	
18.590	-0.031	-0.155	
18.595	-0.101	-0.150	
18.600	-0.273	-0.143	
18.605	-0.093	-0.148	
18.610	-0.018	-0.145	
18.615	-0.249	-0.134	
18.620	-0.200	-0.137	
18.625	0.056	-0.140	
18.630	-0.127	-0.126	
18.635	-0.153	-0.112	
18.640	0.309	-0.090	
18.645	0.219	-0.031	
18.650	-0.124	0.033	
18.655	0.056	0.059	
18.660	0.047	0.063	
18.665	-0.277	0.047	
18.670	-0.285	-0.006	
18.675	-0.119	-0.075	
18.680	-0.249	-0.131	
18.685	-0.290	-0.176	
18.690	-0.006	-0.204	
18.695	-0.043	-0.196	
18.700	-0.242	-0.172	
18.705	-0.038	-0.154	
18.710	0.107	-0.127	
18.715	-0.175	-0.090	
18.720	-0.131	-0.072	
18.725	0.151	-0.064	
18.730	-0.084	-0.044	
18.735	-0.185	-0.035	
18.740	0.140	-0.039	
18.745	0.090	-0.025	
18.750	-0.177	-0.007	
18.755	0.014	-0.008	
18.760	0.169	-0.007	
18.765	-0.127	0.006	
18.770	-0.069	0.004	
18.775	0.294	0.004	
18.780	0.047	0.029	
18.785	-0.081	0.050	
18.790	0.354	0.062	
18.795	0.268	0.098	
18.800	-0.076	0.135	
18.805	0.194	0.143	
18.810	0.357	0.151	
18.815	-0.014	0.168	
18.820	0.067	0.164	
18.825	0.396	0.155	
18.830	0.072	0.166	
18.835	-0.064	0.162	
18.840	0.351	0.144	
18.845	0.218	0.148	
18.850	-0.139	0.152	
18.855	0.047	0.126	
18.860	0.195	0.097	
18.865	-0.125	0.079	
18.870	-0.089	0.049	
18.875	0.203	0.021	
18.880	-0.079	0.014	
18.885	-0.180	0.002	
18.890	0.117	-0.019	
18.895	0.076	-0.020	
18.900	-0.162	-0.012	
18.905	0.056	-0.014	
18.910	0.206	-0.006	
18.915	-0.131	0.015	
18.920	-0.096	0.016	
18.925	0.221	0.008	
18.930	-0.011	0.018	
18.935	-0.139	0.023	
18.940	0.169	0.015	
18.945	0.101	0.023	
18.950	-0.153	0.032	
18.955	0.053	0.024	
18.960	0.149	0.020	
18.965	-0.188	0.022	
18.970	-0.160	0.001	
18.975	0.123	-0.027	
18.980	-0.111	-0.037	
18.985	-0.207	-0.049	
18.990	0.043	-0.069	
18.995	-0.035	-0.073	
19.000	-0.249	-0.074	
19.005	-0.081	-0.089	
19.010	0.067	-0.096	
19.015	-0.191	-0.088	
19.020	-0.143	-0.089	
19.025	0.142	-0.089	
19.030	-0.108	-0.071	
19.035	-0.210	-0.062	
19.040	0.041	-0.069	
19.045	-0.006	-0.066	
19.050	-0.223	-0.061	
19.055	-0.012	-0.069	
19.060	0.213	-0.061	
19.065	-0.060	-0.030	
19.070	0.097	-0.000	
19.075	0.485	0.043	
19.080	0.139	0.112	
19.085	-0.157	0.153	
19.090	0.014	0.138	
19.095	-0.125	0.093	
19.100	-0.360	0.026	
19.105	-0.210	-0.060	
19.110	-0.041	-0.129	
19.115	-0.223	-0.163	
19.120	-0.162	-0.180	
19.125	0.168	-0.172	
19.130	-0.038	-0.130	
19.135	-0.143	-0.088	
19.140	0.213	-0.056	
19.145	0.140	-0.011	
19.150	-0.162	0.029	
19.155	0.044	0.037	
19.160	0.241	0.042	
19.165	-0.102	0.056	
19.170	-0.081	0.050	
19.175	0.233	0.037	
19.180	-0.014	0.041	
19.185	-0.131	0.039	
19.190	0.218	0.028	
19.195	0.203	0.041	
19.200	-0.125	0.062	
19.205	0.102	0.064	
19.210	0.319	0.072	
19.215	-0.041	0.094	
19.220	0.018	0.100	
19.225	0.383	0.101	
19.230	0.146	0.126	
19.235	-0.038	0.145	
19.240	0.348	0.146	
19.245	0.291	0.164	
19.250	-0.061	0.182	
19.255	0.186	0.174	
19.260	0.340	0.168	
19.265	-0.053	0.171	
19.270	-0.027	0.151	
19.275	0.261	0.120	
19.280	-0.034	0.104	
19.285	-0.169	0.078	
19.290	0.122	0.039	
19.295	0.090	0.021	
19.300	-0.188	0.013	
19.305	-0.034	-0.008	
19.310	0.139	-0.022	
19.315	-0.159	-0.021	
19.320	-0.136	-0.031	
19.325	0.186	-0.042	
19.330	-0.038	-0.030	
19.335	-0.149	-0.021	
19.340	0.148	-0.021	
19.345	0.104	-0.006	
19.350	-0.171	0.011	
19.355	0.021	0.008	
19.360	0.232	0.009	
19.365	-0.102	0.026	
19.370	-0.081	0.027	
19.375	0.233	0.021	
19.380	-0.047	0.030	
19.385	-0.185	0.026	
19.390	0.101	0.005	
19.395	0.053	-0.003	
19.400	-0.203	-0.006	
19.405	-0.075	-0.026	
19.410	0.067	-0.045	
19.415	-0.204	-0.052	
19.420	-0.188	-0.070	
19.425	0.104	-0.089	
19.430	-0.108	-0.085	
19.435	-0.221	-0.083	
19.440	0.027	-0.091	
19.445	0.008	-0.085	
19.450	-0.229	-0.075	
19.455	-0.079	-0.081	
19.460	0.120	-0.081	
19.465	-0.157	-0.066	
19.470	-0.149	-0.062	
19.475	0.133	-0.064	
19.480	-0.096	-0.052	
19.485	-0.215	-0.049	
19.490	0.097	-0.059	
19.495	0.180	-0.045	
19.500	-0.061	-0.012	
19.505	0.230	0.020	
19.510	0.395	0.069	
19.515	-0.060	0.124	
19.520	-0.130	0.135	
19.525	0.053	0.104	
19.530	-0.197	0.059	
19.535	-0.322	-0.005	
19.540	-0.096	-0.078	
19.545	-0.046	-0.126	
19.550	-0.217	-0.145	
19.555	-0.049	-0.152	
19.560	0.163	-0.134	
19.565	-0.134	-0.094	
19.570	-0.117	-0.067	
19.575	0.242	-0.048	
19.580	0.024	-0.011	
19.585	-0.128	0.016	
19.590	0.226	0.027	
19.595	0.195	0.051	
19.600	-0.133	0.075	
19.605	0.052	0.073	
19.610	0.297	0.070	
19.615	-0.046	0.084	
19.620	-0.047	0.082	
19.625	0.343	0.076	
19.630	0.107	0.093	
19.635	-0.079	0.106	
19.640	0.308	0.105	
19.645	0.305	0.124	
19.650	-0.047	0.150	
19.655	0.224	0.156	
19.660	0.468	0.170	
19.665	0.059	0.201	
19.670	0.059	0.210	
19.675	0.447	0.204	
19.680	0.221	0.218	
19.685	-0.041	0.223	
19.690	0.322	0.206	
19.695	0.311	0.202	
19.700	-0.081	0.202	
19.705	0.081	0.176	
19.710	0.277	0.147	
19.715	-0.076	0.131	
19.720	-0.066	0.102	
19.725	0.279	0.072	
19.730	-0.002	0.067	
19.735	-0.178	0.056	
19.740	0.070	0.027	
19.745	0.067	0.010	
19.750	-0.180	0.000	
19.755	-0.020	-0.019	
19.760	0.267	-0.023	
19.765	-0.066	0.000	
19.770	-0.072	0.014	
19.775	0.288	0.022	
19.780	0.067	0.049	
19.785	-0.119	0.066	
19.790	0.197	0.064	
19.795	0.212	0.074	
19.800	-0.119	0.088	
19.805	0.040	0.079	
19.810	0.219	0.069	
19.815	-0.133	0.067	
19.820	-0.128	0.045	
19.825	0.219	0.019	
19.830	0.015	0.017	
19.835	-0.153	0.018	
19.840	0.146	0.008	
19.845	0.126	0.014	
19.850	-0.183	0.025	
19.855	-0.053	0.012	
19.860	0.139	-0.004	
19.865	-0.148	-0.007	
19.870	-0.137	-0.021	
19.875	0.181	-0.035	
19.880	-0.015	-0.026	
19.885	-0.174	-0.018	
19.890	0.117	-0.022	
19.895	0.117	-0.011	
19.900	-0.182	0.004	
19.905	-0.037	-0.003	
19.910	0.194	-0.008	
19.915	-0.108	0.002	
19.920	-0.085	0.001	
19.925	0.364	0.005	
19.930	0.245	0.047	
19.935	0.075	0.101	
19.940	0.381	0.146	
19.945	0.288	0.192	
19.950	-0.169	0.216	
19.955	-0.134	0.179	
19.960	-0.027	0.107	
19.965	-0.224	0.032	
19.970	-0.191	-0.041	
19.975	0.184	-0.089	
19.980	0.044	-0.086	
19.985	-0.075	-0.059	
19.990	0.136	-0.034	
19.995	-0.029	-0.007	
20.000	-0.303	-0.004	
20.005	-0.233	-0.041	
20.010	-0.139	-0.094	
20.015	-0.337	-0.142	
20.020	-0.326	-0.191	
20.025	-0.104	-0.231	
20.030	-0.233	-0.243	
20.035	-0.345	-0.247	
20.040	-0.119	-0.251	
20.045	-0.082	-0.237	
20.050	-0.270	-0.212	
20.055	-0.131	-0.196	
20.060	0.082	-0.172	
20.065	-0.166	-0.135	
20.070	-0.168	-0.111	
20.075	0.171	-0.094	
20.080	-0.002	-0.060	
20.085	-0.136	-0.031	
20.090	0.203	-0.014	
20.095	0.223	0.019	
20.100	-0.111	0.057	
20.105	0.062	0.068	
20.110	0.297	0.075	
20.115	-0.069	0.092	
20.120	-0.090	0.086	
20.125	0.245	0.068	
20.130	0.003	0.065	
20.135	-0.171	0.055	
20.140	0.088	0.028	
20.145	0.093	0.015	
20.150	-0.201	0.009	
20.155	-0.070	-0.013	
20.160	0.161	-0.030	
20.165	-0.139	-0.028	
20.170	-0.149	-0.033	
20.175	0.166	-0.043	
20.180	-0.021	-0.032	
20.185	-0.172	-0.023	
20.190	0.099	-0.027	
20.195	0.122	-0.017	
20.200	-0.143	0.000	
20.205	0.040	0.003	
20.210	0.283	0.014	
20.215	-0.055	0.042	
20.220	-0.052	0.054	
20.225	0.354	0.059	
20.230	0.155	0.088	
20.235	-0.061	0.114	
20.240	0.309	0.121	
20.245	0.283	0.141	
20.250	-0.102	0.161	
20.255	0.078	0.148	
20.260	0.312	0.131	
20.265	-0.047	0.129	
20.270	-0.070	0.111	
20.275	0.285	0.086	
20.280	0.081	0.085	
20.285	-0.119	0.084	
20.290	0.221	0.070	
20.295	0.235	0.077	
20.300	-0.098	0.093	
20.305	0.082	0.089	
20.310	0.322	0.089	
20.315	-0.018	0.105	
20.320	-0.023	0.106	
20.325	0.383	0.101	
20.330	0.166	0.122	
20.335	-0.064	0.140	
20.340	0.273	0.137	
20.345	0.241	0.144	
20.350	-0.096	0.151	
20.355	0.131	0.135	
20.360	0.466	0.131	
20.365	0.268	0.167	
20.370	0.367	0.217	
20.375	0.652	0.278	
20.380	0.296	0.347	
20.385	-0.105	0.370	
20.390	0.032	0.318	
20.395	-0.060	0.229	
20.400	-0.271	0.127	
20.405	-0.117	0.020	
20.410	0.152	-0.053	
20.415	-0.095	-0.075	
20.420	-0.067	-0.076	
20.425	0.314	-0.059	
20.430	0.081	-0.010	
20.435	-0.117	0.032	
20.440	0.197	0.049	
20.445	0.226	0.072	
20.450	-0.107	0.094	
20.455	0.043	0.091	
20.460	0.271	0.084	
20.465	-0.044	0.090	
20.470	-0.046	0.082	
20.475	0.299	0.071	
20.480	0.088	0.082	
20.485	-0.090	0.090	
20.490	0.253	0.085	
20.495	0.268	0.098	
20.500	-0.093	0.119	
20.505	0.050	0.113	
20.510	0.259	0.102	
20.515	-0.081	0.100	
20.520	-0.090	0.081	
20.525	0.270	0.057	
20.530	0.084	0.059	
20.535	-0.114	0.064	
20.540	0.189	0.057	
20.545	0.181	0.063	
20.550	-0.153	0.073	
20.555	-0.029	0.058	
20.560	0.178	0.038	
20.565	-0.136	0.030	
20.570	-0.157	0.009	
20.575	0.122	-0.018	
20.580	-0.076	-0.028	
20.585	-0.236	-0.040	
20.590	-0.047	-0.066	
20.595	-0.060	-0.084	
20.600	-0.277	-0.098	
20.605	-0.175	-0.124	
20.610	-0.031	-0.144	
20.615	-0.259	-0.150	
20.620	-0.291	-0.164	
20.625	-0.087	-0.184	
20.630	-0.200	-0.190	
20.635	-0.305	-0.195	
20.640	-0.102	-0.203	
20.645	-0.072	-0.197	
20.650	-0.296	-0.182	
20.655	-0.221	-0.182	
20.660	-0.090	-0.187	
20.665	-0.255	-0.185	
20.670	-0.265	-0.190	
20.675	-0.072	-0.197	
20.680	-0.206	-0.192	
20.685	-0.339	-0.192	
20.690	-0.183	-0.206	
20.695	-0.185	-0.216	
20.700	-0.383	-0.224	
20.705	-0.276	-0.243	
20.710	-0.134	-0.257	
20.715	-0.316	-0.256	
20.720	-0.308	-0.258	
20.725	-0.102	-0.259	
20.730	-0.209	-0.245	
20.735	-0.342	-0.233	
20.740	-0.159	-0.232	
20.745	-0.142	-0.226	
20.750	-0.343	-0.217	
20.755	-0.236	-0.222	
20.760	-0.111	-0.226	
20.765	-0.305	-0.222	
20.770	-0.322	-0.227	
20.775	-0.110	-0.236	
20.780	-0.230	-0.233	
20.785	-0.361	-0.231	
20.790	-0.127	-0.238	
20.795	-0.046	-0.227	
20.800	-0.191	-0.199	
20.805	-0.046	-0.170	
20.810	0.117	-0.132	
20.815	-0.261	-0.093	
20.820	-0.404	-0.093	
20.825	-0.299	-0.139	
20.830	-0.416	-0.202	
20.835	-0.514	-0.271	
20.840	-0.300	-0.336	
20.845	-0.246	-0.368	
20.850	-0.398	-0.371	
20.855	-0.255	-0.364	
20.860	-0.058	-0.338	
20.865	-0.246	-0.291	
20.870	-0.276	-0.252	
20.875	-0.078	-0.227	
20.880	-0.200	-0.202	
20.885	-0.342	-0.190	
20.890	-0.146	-0.197	
20.895	-0.130	-0.199	
20.900	-0.317	-0.197	
20.905	-0.215	-0.204	
20.910	-0.087	-0.209	
20.915	-0.267	-0.203	
20.920	-0.274	-0.204	
20.925	0.026	-0.203	
20.930	-0.081	-0.179	
20.935	-0.220	-0.151	
20.940	0.024	-0.132	
20.945	0.072	-0.103	
20.950	-0.185	-0.070	
20.955	-0.046	-0.057	
20.960	0.207	-0.043	
20.965	-0.108	-0.017	
20.970	-0.140	-0.007	
20.975	0.180	-0.011	
20.980	-0.024	-0.002	
20.985	-0.207	-0.000	
20.990	-0.014	-0.021	
20.995	-0.005	-0.038	
21.000	-0.265	-0.053	
21.005	-0.206	-0.084	
21.010	-0.082	-0.119	
21.015	-0.291	-0.145	
21.020	-0.339	-0.177	
21.025	-0.153	-0.212	
21.030	-0.268	-0.232	
21.035	-0.410	-0.250	
21.040	-0.226	-0.273	
21.045	-0.182	-0.282	
21.050	-0.367	-0.279	
21.055	-0.259	-0.280	
21.060	-0.116	-0.275	
21.065	-0.308	-0.259	
21.070	-0.328	-0.252	
21.075	-0.089	-0.251	
21.080	-0.172	-0.235	
21.085	-0.317	-0.218	
21.090	-0.117	-0.213	
21.095	-0.079	-0.200	
21.100	-0.276	-0.182	
21.105	-0.172	-0.177	
21.110	0.011	-0.170	
21.115	-0.226	-0.152	
21.120	-0.265	-0.148	
21.125	-0.056	-0.156	
21.130	-0.165	-0.157	
21.135	-0.311	-0.160	
21.140	-0.128	-0.174	
21.145	-0.113	-0.181	
21.150	-0.329	-0.182	
21.155	-0.241	-0.196	
21.160	-0.078	-0.207	
21.165	-0.259	-0.205	
21.170	-0.279	-0.207	
21.175	-0.060	-0.210	
21.180	-0.171	-0.199	
21.185	-0.311	-0.189	
21.190	-0.120	-0.192	
21.195	-0.070	-0.187	
21.200	-0.284	-0.175	
21.205	-0.183	-0.174	
21.210	-0.006	-0.172	
21.215	-0.239	-0.160	
21.220	-0.273	-0.159	
21.225	0.004	-0.165	
21.230	-0.041	-0.152	
21.235	-0.130	-0.127	
21.240	0.332	-0.090	
21.245	0.405	-0.012	
21.250	-0.064	0.079	
21.255	-0.069	0.118	
21.260	0.029	0.108	
21.265	-0.291	0.069	
21.270	-0.354	-0.005	
21.275	-0.120	-0.092	
21.280	-0.171	-0.153	
21.285	-0.296	-0.190	
21.290	-0.070	-0.211	
21.295	0.026	-0.202	
21.300	-0.217	-0.171	
21.305	-0.108	-0.148	
21.310	0.157	-0.122	
21.315	-0.153	-0.084	
21.320	-0.183	-0.065	
21.325	0.157	-0.061	
21.330	0.011	-0.041	
21.335	-0.185	-0.024	
21.340	0.102	-0.023	
21.345	0.180	-0.009	
21.350	-0.156	0.014	
21.355	-0.044	0.014	
21.360	0.241	0.012	
21.365	-0.063	0.026	
21.370	-0.114	0.028	
21.375	0.248	0.022	
21.380	0.091	0.037	
21.385	-0.128	0.051	
21.390	0.197	0.050	
21.395	0.280	0.066	
21.400	-0.076	0.093	
21.405	0.097	0.099	
21.410	0.384	0.107	
21.415	0.023	0.132	
21.420	-0.034	0.139	
21.425	0.344	0.130	
21.430	0.149	0.139	
21.435	-0.127	0.141	
21.440	0.137	0.118	
21.445	0.181	0.100	
21.450	-0.146	0.089	
21.455	-0.050	0.060	
21.460	0.187	0.031	
21.465	-0.122	0.021	
21.470	-0.160	0.002	
21.475	0.163	-0.020	
21.480	0.008	-0.020	
21.485	-0.194	-0.017	
21.490	0.067	-0.026	
21.495	0.151	-0.022	
21.500	-0.183	-0.007	
21.505	-0.093	-0.013	
21.510	0.200	-0.021	
21.515	-0.104	-0.012	
21.520	-0.166	-0.013	
21.525	0.177	-0.023	
21.530	0.035	-0.014	
21.535	-0.186	-0.004	
21.540	0.038	-0.012	
21.545	0.070	-0.016	
21.550	-0.246	-0.018	
21.555	-0.177	-0.043	
21.560	0.058	-0.072	
21.565	-0.186	-0.085	
21.570	-0.241	-0.101	
21.575	0.059	-0.118	
21.580	-0.035	-0.112	
21.585	-0.253	-0.101	
21.590	-0.056	-0.104	
21.595	0.021	-0.102	
21.600	-0.244	-0.095	
21.605	-0.162	-0.102	
21.610	0.065	-0.110	
21.615	-0.183	-0.104	
21.620	-0.246	-0.107	
21.625	0.029	-0.118	
21.630	-0.096	-0.115	
21.635	-0.277	-0.113	
21.640	-0.084	-0.125	
21.645	-0.024	-0.129	
21.650	-0.290	-0.127	
21.655	-0.218	-0.140	
21.660	0.047	-0.152	
21.665	-0.122	-0.142	
21.670	-0.093	-0.123	
21.675	0.340	-0.090	
21.680	0.117	-0.025	
21.685	-0.221	0.028	
21.690	-0.143	0.028	
21.695	-0.174	-0.009	
21.700	-0.416	-0.068	
21.705	-0.331	-0.146	
21.710	-0.111	-0.212	
21.715	-0.224	-0.241	
21.720	-0.212	-0.247	
21.725	0.158	-0.227	
21.730	0.070	-0.167	
21.735	-0.149	-0.100	
21.740	0.158	-0.052	
21.745	0.282	0.002	
21.750	-0.082	0.058	
21.755	-0.003	0.080	
21.760	0.264	0.084	
21.765	-0.047	0.093	
21.770	-0.114	0.082	
21.775	0.241	0.060	
21.780	0.101	0.060	
21.785	-0.146	0.062	
21.790	0.111	0.048	
21.795	0.198	0.045	
21.800	-0.085	0.055	
21.805	0.075	0.054	
21.810	0.334	0.062	
21.815	0.032	0.090	
21.820	-0.005	0.106	
21.825	0.425	0.114	
21.830	0.349	0.153	
21.835	0.116	0.200	
21.840	0.503	0.237	
21.845	0.610	0.291	
21.850	0.230	0.354	
21.855	0.363	0.386	
21.860	0.640	0.404	
21.865	0.296	0.428	
21.870	0.181	0.426	
21.875	0.530	0.401	
21.880	0.378	0.390	
21.885	0.044	0.373	
21.890	0.352	0.334	
21.895	0.402	0.307	
21.900	-0.014	0.289	
21.905	0.091	0.249	
21.910	0.372	0.208	
21.915	0.093	0.192	
21.920	0.004	0.175	
21.925	0.360	0.156	
21.930	0.224	0.161	
21.935	-0.031	0.170	
21.940	0.265	0.163	
21.945	0.390	0.170	
21.950	0.040	0.192	
21.955	0.148	0.196	
21.960	0.430	0.197	
21.965	0.149	0.215	
21.970	0.117	0.223	
21.975	0.477	0.225	
21.980	0.282	0.247	
21.985	-0.003	0.260	
21.990	0.317	0.246	
21.995	0.392	0.241	
22.000	0.003	0.245	
22.005	0.137	0.226	
22.010	0.457	0.209	
22.015	0.175	0.219	
22.020	0.068	0.224	
22.025	0.521	0.223	
22.030	0.573	0.259	
22.035	0.454	0.327	
22.040	0.895	0.410	
22.045	1.087	0.529	
22.050	0.809	0.668	
22.055	0.945	0.782	
22.060	1.157	0.872	
22.065	0.825	0.943	
22.070	0.695	0.966	
22.075	1.026	0.948	
22.080	0.831	0.930	
22.085	0.471	0.895	
22.090	0.703	0.827	
22.095	0.741	0.761	
22.100	0.421	0.709	
22.105	0.619	0.654	
22.110	0.954	0.627	
22.115	0.665	0.645	
22.120	0.459	0.661	
22.125	0.642	0.650	
22.130	0.332	0.620	
22.135	-0.101	0.547	
22.140	-0.041	0.414	
22.145	-0.117	0.258	
22.150	-0.367	0.104	
22.155	-0.310	-0.044	
22.160	-0.209	-0.164	
22.165	-0.378	-0.244	
22.170	-0.393	-0.301	
22.175	-0.398	-0.345	
22.180	-0.657	-0.389	
22.185	-0.828	-0.456	
22.190	-0.803	-0.548	
22.195	-0.924	-0.647	
22.200	-0.994	-0.745	
22.205	-0.994	-0.836	
22.210	-0.960	-0.908	
22.215	-0.996	-0.956	
22.220	-0.962	-0.984	
22.225	-0.822	-0.989	
22.230	-0.883	-0.970	
22.235	-0.860	-0.940	
22.240	-0.692	-0.904	
22.245	-0.723	-0.857	
22.250	-0.778	-0.810	
22.255	-0.610	-0.770	
22.260	-0.526	-0.725	
22.265	-0.592	-0.673	
22.270	-0.488	-0.625	
22.275	-0.366	-0.575	
22.280	-0.459	-0.522	
22.285	-0.451	-0.479	
22.290	-0.284	-0.446	
22.295	-0.335	-0.410	
22.300	-0.430	-0.380	
22.305	-0.311	-0.365	
22.310	-0.281	-0.352	
22.315	-0.398	-0.339	
22.320	-0.329	-0.335	
22.325	-0.239	-0.331	
22.330	-0.346	-0.321	
22.335	-0.339	-0.316	
22.340	-0.185	-0.310	
22.345	-0.227	-0.294	
22.350	-0.265	-0.273	
22.355	-0.085	-0.251	
22.360	0.000	-0.214	
22.365	-0.139	-0.167	
22.370	-0.002	-0.126	
22.375	0.232	-0.078	
22.380	0.018	-0.018	
22.385	0.027	0.028	
22.390	0.306	0.063	
22.395	0.219	0.109	
22.400	0.064	0.148	
22.405	0.340	0.172	
22.410	0.393	0.204	
22.415	0.114	0.240	
22.420	0.229	0.252	
22.425	0.430	0.258	
22.430	0.212	0.273	
22.435	0.158	0.277	
22.440	0.410	0.271	
22.445	0.270	0.276	
22.450	0.117	0.276	
22.455	0.384	0.267	
22.460	0.425	0.273	
22.465	0.169	0.291	
22.470	0.309	0.295	
22.475	0.476	0.301	
22.480	0.224	0.317	
22.485	0.195	0.318	
22.490	0.465	0.310	
22.495	0.341	0.316	
22.500	0.152	0.321	
22.505	0.408	0.313	
22.510	0.457	0.317	
22.515	0.219	0.331	
22.520	0.358	0.335	
22.525	0.558	0.344	
22.530	0.378	0.371	
22.535	0.453	0.397	
22.540	0.861	0.435	
22.545	0.794	0.511	
22.550	0.541	0.592	
22.555	0.663	0.640	
22.560	0.532	0.656	
22.565	0.140	0.629	
22.570	0.200	0.546	
22.575	0.418	0.449	
22.580	0.302	0.380	
22.585	0.433	0.343	
22.590	0.857	0.355	
22.595	0.831	0.433	
22.600	0.677	0.538	
22.605	0.962	0.636	
22.610	0.957	0.731	
22.615	0.649	0.805	
22.620	0.739	0.832	
22.625	0.838	0.828	
22.630	0.512	0.808	
22.635	0.471	0.757	
22.640	0.712	0.692	
22.645	0.530	0.644	
22.650	0.381	0.601	
22.655	0.633	0.558	
22.660	0.598	0.537	
22.665	0.320	0.527	
22.670	0.501	0.505	
22.675	0.677	0.493	
22.680	0.393	0.500	
22.685	0.370	0.496	
22.690	0.623	0.483	
22.695	0.442	0.483	
22.700	0.270	0.476	
22.705	0.526	0.454	
22.710	0.503	0.444	
22.715	0.230	0.438	
22.720	0.380	0.416	
22.725	0.524	0.399	
22.730	0.219	0.392	
22.735	0.169	0.369	
22.740	0.412	0.334	
22.745	0.209	0.311	
22.750	0.008	0.281	
22.755	0.248	0.236	
22.760	0.226	0.204	
22.765	-0.021	0.182	
22.770	0.110	0.151	
22.775	0.251	0.129	
22.780	-0.035	0.121	
22.785	-0.035	0.101	
22.790	0.215	0.078	
22.795	0.038	0.072	
22.800	-0.078	0.066	
22.805	0.197	0.054	
22.810	0.186	0.062	
22.815	-0.064	0.077	
22.820	0.116	0.079	
22.825	0.288	0.086	
22.830	0.000	0.105	
22.835	-0.021	0.108	
22.840	0.197	0.096	
22.845	-0.006	0.090	
22.850	-0.125	0.073	
22.855	0.049	0.041	
22.860	0.068	0.020	
22.865	-0.122	0.009	
22.870	-0.020	-0.007	
22.875	0.094	-0.017	
22.880	-0.119	-0.016	
22.885	-0.110	-0.025	
22.890	0.113	-0.035	
22.895	-0.061	-0.031	
22.900	-0.166	-0.031	
22.905	0.020	-0.043	
22.910	0.044	-0.045	
22.915	-0.154	-0.039	
22.920	-0.061	-0.044	
22.925	0.096	-0.047	
22.930	-0.093	-0.038	
22.935	-0.107	-0.036	
22.940	0.073	-0.039	
22.945	-0.079	-0.035	
22.950	-0.172	-0.038	
22.955	0.037	-0.051	
22.960	0.143	-0.046	
22.965	0.041	-0.018	
22.970	0.248	0.021	
22.975	0.309	0.075	
22.980	-0.096	0.124	
22.985	-0.339	0.114	
22.990	-0.407	0.034	
22.995	-0.585	-0.092	
23.000	-0.686	-0.241	
23.005	-0.537	-0.385	
23.010	-0.468	-0.488	
23.015	-0.535	-0.541	
23.020	-0.427	-0.558	
23.025	-0.302	-0.541	
23.030	-0.403	-0.499	
23.035	-0.396	-0.456	
23.040	-0.246	-0.417	
23.045	-0.303	-0.376	
23.050	-0.372	-0.343	
23.055	-0.218	-0.322	
23.060	-0.182	-0.297	
23.065	-0.311	-0.272	
23.070	-0.227	-0.257	
23.075	-0.101	-0.242	
23.080	-0.235	-0.220	
23.085	-0.247	-0.207	
23.090	-0.078	-0.199	
23.095	-0.137	-0.184	
23.100	-0.217	-0.168	
23.105	-0.061	-0.159	
23.110	-0.041	-0.142	
23.115	-0.192	-0.124	
23.120	-0.105	-0.116	
23.125	0.058	-0.107	
23.130	-0.127	-0.088	
23.135	-0.166	-0.079	
23.140	-0.046	-0.083	
23.145	-0.159	-0.089	
23.150	-0.281	-0.106	
23.155	-0.171	-0.135	
23.160	-0.157	-0.161	
23.165	-0.303	-0.180	
23.170	-0.235	-0.202	
23.175	-0.137	-0.218	
23.180	-0.284	-0.222	
23.185	-0.313	-0.230	
23.190	-0.157	-0.241	
23.195	-0.242	-0.242	
23.200	-0.351	-0.243	
23.205	-0.226	-0.253	
23.210	-0.206	-0.258	
23.215	-0.342	-0.258	
23.220	-0.271	-0.264	
23.225	-0.137	-0.265	
23.230	-0.249	-0.253	
23.235	-0.247	-0.242	
23.240	-0.070	-0.229	
23.245	-0.137	-0.204	
23.250	-0.241	-0.182	
23.255	-0.117	-0.171	
23.260	-0.090	-0.160	
23.265	-0.250	-0.151	
23.270	-0.203	-0.155	
23.275	-0.082	-0.162	
23.280	-0.217	-0.163	
23.285	-0.253	-0.169	
23.290	-0.084	-0.178	
23.295	-0.145	-0.175	
23.300	-0.242	-0.170	
23.305	-0.084	-0.169	
23.310	0.061	-0.154	
23.315	-0.078	-0.120	
23.320	0.120	-0.079	
23.325	0.498	-0.015	
23.330	0.351	0.088	
23.335	0.312	0.192	
23.340	0.651	0.282	
23.345	0.633	0.379	
23.350	0.460	0.466	
23.355	0.733	0.528	
23.360	0.873	0.590	
23.365	0.581	0.653	
23.370	0.594	0.685	
23.375	0.820	0.694	
23.380	0.663	0.704	
23.385	0.625	0.707	
23.390	1.015	0.713	
23.395	0.992	0.752	
23.400	0.593	0.799	
23.405	0.544	0.800	
23.410	0.428	0.750	
23.415	-0.011	0.651	
23.420	-0.052	0.499	
23.425	0.245	0.338	
23.430	0.203	0.226	
23.435	0.107	0.164	
23.440	0.428	0.142	
23.445	0.434	0.170	
23.450	0.152	0.219	
23.455	0.329	0.252	
23.460	0.550	0.284	
23.465	0.294	0.328	
23.470	0.273	0.353	
23.475	0.547	0.365	
23.480	0.380	0.384	
23.485	0.171	0.390	
23.490	0.482	0.377	
23.495	0.601	0.381	
23.500	0.410	0.409	
23.505	0.633	0.442	
23.510	1.011	0.501	
23.515	0.873	0.600	
23.520	0.860	0.705	
23.525	1.232	0.803	
23.530	1.160	0.910	
23.535	0.887	0.999	
23.540	1.125	1.046	
23.545	1.168	1.075	
23.550	0.794	1.087	
23.555	0.809	1.057	
23.560	1.003	1.004	
23.565	0.674	0.954	
23.570	0.492	0.885	
23.575	0.748	0.798	
23.580	0.599	0.728	
23.585	0.282	0.662	
23.590	0.439	0.581	
23.595	0.469	0.509	
23.600	0.076	0.447	
23.605	0.090	0.367	
23.610	0.291	0.285	
23.615	-0.017	0.222	
23.620	-0.134	0.156	
23.625	0.075	0.085	
23.630	-0.011	0.035	
23.635	-0.194	-0.003	
23.640	-0.044	-0.041	
23.645	0.037	-0.064	
23.650	-0.207	-0.072	
23.655	-0.194	-0.088	
23.660	-0.031	-0.109	
23.665	-0.206	-0.121	
23.670	-0.308	-0.139	
23.675	-0.139	-0.166	
23.680	-0.201	-0.185	
23.685	-0.363	-0.202	
23.690	-0.271	-0.229	
23.695	-0.227	-0.252	
23.700	-0.407	-0.269	
23.705	-0.403	-0.294	
23.710	-0.274	-0.321	
23.715	-0.410	-0.338	
23.720	-0.494	-0.357	
23.725	-0.305	-0.379	
23.730	-0.325	-0.386	
23.735	-0.492	-0.385	
23.740	-0.395	-0.392	
23.745	-0.320	-0.397	
23.750	-0.492	-0.397	
23.755	-0.467	-0.405	
23.760	-0.284	-0.413	
23.765	-0.399	-0.407	
23.770	-0.488	-0.402	
23.775	-0.317	-0.403	
23.780	-0.316	-0.395	
23.785	-0.470	-0.384	
23.790	-0.367	-0.383	
23.795	-0.276	-0.380	
23.800	-0.433	-0.370	
23.805	-0.387	-0.368	
23.810	-0.134	-0.361	
23.815	-0.175	-0.329	
23.820	-0.242	-0.286	
23.825	-0.066	-0.246	
23.830	-0.171	-0.206	
23.835	-0.451	-0.188	
23.840	-0.410	-0.213	
23.845	-0.351	-0.260	
23.850	-0.521	-0.311	
23.855	-0.485	-0.365	
23.860	-0.276	-0.406	
23.865	-0.355	-0.416	
23.870	-0.425	-0.409	
23.875	-0.223	-0.396	
23.880	-0.224	-0.367	
23.885	-0.393	-0.334	
23.890	-0.276	-0.316	
23.895	-0.165	-0.300	
23.900	-0.335	-0.280	
23.905	-0.329	-0.272	
23.910	-0.136	-0.270	
23.915	-0.242	-0.258	
23.920	-0.340	-0.249	
23.925	-0.151	-0.248	
23.930	-0.163	-0.239	
23.935	-0.342	-0.228	
23.940	-0.213	-0.230	
23.945	-0.087	-0.227	
23.950	-0.271	-0.215	
23.955	-0.258	-0.210	
23.960	-0.029	-0.206	
23.965	-0.142	-0.188	
23.970	-0.232	-0.169	
23.975	0.003	-0.156	
23.980	0.000	-0.132	
23.985	-0.217	-0.105	
23.990	-0.081	-0.096	
23.995	0.110	-0.087	
24.000	-0.165	-0.067	
24.005	-0.156	-0.062	
24.010	0.119	-0.065	
24.015	-0.085	-0.055	
24.020	-0.246	-0.053	
24.025	-0.082	-0.073	
24.030	-0.092	-0.092	
24.035	-0.285	-0.110	
24.040	-0.169	-0.137	
24.045	-0.038	-0.156	
24.050	-0.244	-0.158	
24.055	-0.238	-0.166	
24.060	0.020	-0.171	
24.065	-0.131	-0.158	
24.070	-0.241	-0.144	
24.075	0.003	-0.139	
24.080	0.029	-0.120	
24.085	-0.203	-0.095	
24.090	-0.053	-0.086	
24.095	0.177	-0.071	
24.100	-0.120	-0.042	
24.105	-0.114	-0.029	
24.110	0.206	-0.023	
24.115	0.023	-0.002	
24.120	-0.149	0.014	
24.125	0.114	0.012	
24.130	0.099	0.017	
24.135	-0.172	0.022	
24.140	-0.072	0.006	
24.145	0.133	-0.011	
24.150	-0.143	-0.015	
24.155	-0.145	-0.028	
24.160	0.174	-0.042	
24.165	-0.014	-0.032	
24.170	-0.163	-0.022	
24.175	0.137	-0.022	
24.180	0.149	-0.006	
24.185	-0.157	0.015	
24.190	-0.009	0.015	
24.195	0.210	0.014	
24.200	-0.092	0.026	
24.205	-0.096	0.023	
24.210	0.232	0.016	
24.215	0.033	0.027	
24.220	-0.142	0.035	
24.225	0.139	0.028	
24.230	0.145	0.032	
24.235	-0.122	0.042	
24.240	0.131	0.041	
24.245	0.492	0.062	
24.250	0.232	0.123	
24.255	0.183	0.183	
24.260	0.460	0.227	
24.265	0.120	0.264	
24.270	-0.163	0.258	
24.275	0.003	0.198	
24.280	-0.027	0.123	
24.285	-0.217	0.052	
24.290	-0.041	-0.016	
24.295	0.277	-0.048	
24.300	0.004	-0.031	
24.305	0.024	-0.002	
24.310	0.419	0.034	
24.315	0.210	0.095	
24.320	0.015	0.147	
24.325	0.395	0.175	
24.330	0.389	0.211	
24.335	0.020	0.245	
24.340	0.229	0.247	
24.345	0.469	0.246	
24.350	0.165	0.261	
24.355	0.157	0.265	
24.360	0.515	0.264	
24.365	0.262	0.281	
24.370	-0.011	0.285	
24.375	0.344	0.262	
24.380	0.366	0.250	
24.385	-0.002	0.248	
24.390	0.204	0.227	
24.395	0.482	0.216	
24.400	0.161	0.232	
24.405	0.143	0.241	
24.410	0.537	0.246	
24.415	0.331	0.275	
24.420	0.047	0.295	
24.425	0.415	0.290	
24.430	0.428	0.294	
24.435	0.049	0.302	
24.440	0.207	0.285	
24.445	0.415	0.264	
24.450	0.033	0.254	
24.455	-0.023	0.224	
24.460	0.329	0.182	
24.465	0.087	0.161	
24.470	-0.130	0.139	
24.475	0.134	0.100	
24.480	0.145	0.076	
24.485	-0.153	0.062	
24.490	-0.021	0.036	
24.495	0.236	0.018	
24.500	-0.087	0.023	
24.505	-0.131	0.018	
24.510	0.158	0.003	
24.515	-0.017	0.003	
24.520	-0.166	0.001	
24.525	0.105	-0.012	
24.530	0.151	-0.007	
24.535	-0.139	0.009	
24.540	-0.023	0.008	
24.545	0.200	0.007	
24.550	-0.107	0.018	
24.555	-0.117	0.014	
24.560	0.180	0.002	
24.565	-0.041	0.005	
24.570	-0.201	0.000	
24.575	0.024	-0.021	
24.580	0.033	-0.033	
24.585	-0.220	-0.039	
24.590	-0.122	-0.059	
24.595	0.040	-0.077	
24.600	-0.194	-0.083	
24.605	-0.209	-0.096	
24.610	0.021	-0.112	
24.615	-0.116	-0.112	
24.620	-0.255	-0.113	
24.625	-0.060	-0.124	
24.630	-0.040	-0.126	
24.635	-0.244	-0.121	
24.640	-0.136	-0.127	
24.645	-0.008	-0.131	
24.650	-0.212	-0.125	
24.655	-0.227	-0.130	
24.660	-0.002	-0.139	
24.665	-0.087	-0.132	
24.670	-0.175	-0.121	
24.675	0.190	-0.104	
24.680	0.221	-0.057	
24.685	-0.163	-0.002	
24.690	-0.134	0.015	
24.695	-0.066	-0.003	
24.700	-0.293	-0.037	
24.705	-0.329	-0.092	
24.710	-0.128	-0.152	
24.715	-0.192	-0.189	
24.720	-0.279	-0.209	
24.725	-0.061	-0.218	
24.730	-0.044	-0.202	
24.735	-0.252	-0.176	
24.740	-0.139	-0.162	
24.745	0.047	-0.148	
24.750	-0.180	-0.124	
24.755	-0.203	-0.113	
24.760	0.046	-0.112	
24.765	-0.107	-0.100	
24.770	-0.236	-0.095	
24.775	-0.027	-0.103	
24.780	-0.038	-0.103	
24.785	-0.259	-0.101	
24.790	-0.151	-0.114	
24.795	0.021	-0.124	
24.800	-0.185	-0.120	
24.805	-0.204	-0.121	
24.810	0.040	-0.125	
24.815	-0.090	-0.114	
24.820	-0.212	-0.103	
24.825	-0.002	-0.103	
24.830	0.018	-0.093	
24.835	-0.215	-0.079	
24.840	-0.105	-0.082	
24.845	0.128	-0.082	
24.850	-0.111	-0.065	
24.855	-0.146	-0.055	
24.860	0.105	-0.055	
24.865	-0.079	-0.045	
24.870	-0.233	-0.045	
24.875	-0.024	-0.063	
24.880	-0.017	-0.074	
24.885	-0.258	-0.080	
24.890	-0.180	-0.102	
24.895	-0.052	-0.124	
24.900	-0.264	-0.138	
24.905	-0.299	-0.159	
24.910	-0.093	-0.185	
24.915	-0.198	-0.195	
24.920	-0.322	-0.201	
24.925	-0.140	-0.212	
24.930	-0.119	-0.212	
24.935	-0.311	-0.205	
24.940	-0.212	-0.207	
24.945	-0.052	-0.206	
24.950	-0.226	-0.193	
24.955	-0.241	-0.185	
24.960	-0.041	-0.182	
24.965	-0.168	-0.169	
24.970	-0.303	-0.163	
24.975	-0.124	-0.171	
24.980	-0.116	-0.175	
24.985	-0.311	-0.175	
24.990	-0.223	-0.187	
24.995	-0.087	-0.197	
25.000	-0.276	-0.197	
25.005	-0.296	-0.204	
25.010	-0.105	-0.214	
25.015	-0.215	-0.213	
25.020	-0.352	-0.214	
25.025	-0.163	-0.225	
25.030	-0.142	-0.227	
25.035	-0.340	-0.222	
25.040	-0.241	-0.228	
25.045	-0.095	-0.231	
25.050	-0.276	-0.222	
25.055	-0.302	-0.221	
25.060	-0.090	-0.224	
25.065	-0.175	-0.215	
25.070	-0.308	-0.205	
25.075	-0.146	-0.206	
25.080	-0.139	-0.202	
25.085	-0.302	-0.197	
25.090	-0.169	-0.200	
25.095	0.137	-0.188	
25.100	-0.047	-0.144	
25.105	-0.137	-0.101	
25.110	0.044	-0.074	
25.115	-0.194	-0.058	
25.120	-0.399	-0.074	
25.125	-0.288	-0.127	
25.130	-0.265	-0.187	
25.135	-0.398	-0.238	
25.140	-0.270	-0.281	
25.145	-0.099	-0.298	
25.150	-0.244	-0.284	
25.155	-0.244	-0.263	
25.160	0.001	-0.238	
25.165	-0.136	-0.199	
25.170	-0.276	-0.169	
25.175	-0.060	-0.157	
25.180	0.017	-0.140	
25.185	-0.224	-0.117	
25.190	-0.148	-0.111	
25.195	0.037	-0.110	
25.200	-0.194	-0.101	
25.205	-0.218	-0.105	
25.210	0.073	-0.113	
25.215	-0.064	-0.102	
25.220	-0.204	-0.090	
25.225	0.059	-0.087	
25.230	0.058	-0.070	
25.235	-0.186	-0.050	
25.240	-0.066	-0.048	
25.245	0.204	-0.043	
25.250	-0.081	-0.021	
25.255	-0.119	-0.010	
25.260	0.221	-0.007	
25.265	0.044	0.013	
25.270	-0.143	0.028	
25.275	0.116	0.024	
25.280	0.137	0.028	
25.285	-0.177	0.035	
25.290	-0.102	0.017	
25.295	0.101	-0.008	
25.300	-0.140	-0.021	
25.305	-0.192	-0.040	
25.310	0.055	-0.064	
25.315	-0.119	-0.073	
25.320	-0.281	-0.086	
25.325	-0.105	-0.112	
25.330	-0.055	-0.130	
25.335	-0.273	-0.137	
25.340	-0.203	-0.152	
25.345	-0.029	-0.164	
25.350	-0.213	-0.162	
25.355	-0.223	-0.162	
25.360	0.037	-0.161	
25.365	-0.101	-0.142	
25.370	-0.249	-0.126	
25.375	-0.035	-0.124	
25.380	0.032	-0.113	
25.385	-0.213	-0.096	
25.390	-0.125	-0.093	
25.395	0.058	-0.094	
25.400	-0.185	-0.085	
25.405	-0.232	-0.091	
25.410	0.004	-0.106	
25.415	-0.116	-0.110	
25.420	-0.265	-0.114	
25.425	-0.084	-0.129	
25.430	-0.060	-0.135	
25.435	-0.277	-0.135	
25.440	-0.192	-0.148	
25.445	-0.026	-0.158	
25.450	-0.213	-0.155	
25.455	-0.246	-0.157	
25.460	-0.012	-0.163	
25.465	-0.122	-0.153	
25.470	-0.273	-0.145	
25.475	-0.082	-0.148	
25.480	-0.038	-0.145	
25.485	-0.276	-0.136	
25.490	-0.209	-0.144	
25.495	-0.061	-0.156	
25.500	-0.253	-0.160	
25.505	-0.285	-0.172	
25.510	-0.044	-0.186	
25.515	-0.073	-0.179	
25.520	-0.134	-0.158	
25.525	0.250	-0.122	
25.530	0.236	-0.055	
25.535	-0.201	0.013	
25.540	-0.221	0.026	
25.545	-0.162	-0.010	
25.550	-0.369	-0.068	
25.555	-0.380	-0.143	
25.560	-0.136	-0.211	
25.565	-0.154	-0.243	
25.570	-0.271	-0.247	
25.575	-0.060	-0.238	
25.580	0.009	-0.208	
25.585	-0.229	-0.167	
25.590	-0.133	-0.143	
25.595	0.154	-0.120	
25.600	-0.110	-0.084	
25.605	-0.162	-0.061	
25.610	0.160	-0.051	
25.615	0.001	-0.030	
25.620	-0.175	-0.014	
25.625	0.117	-0.014	
25.630	0.203	0.000	
25.635	-0.122	0.026	
25.640	-0.021	0.031	
25.645	0.264	0.032	
25.650	-0.002	0.050	
25.655	-0.029	0.060	
25.660	0.396	0.070	
25.665	0.279	0.110	
25.670	0.012	0.154	
25.675	0.360	0.177	
25.680	0.427	0.210	
25.685	0.062	0.246	
25.690	0.218	0.254	
25.695	0.468	0.255	
25.700	0.130	0.268	
25.705	0.049	0.261	
25.710	0.421	0.239	
25.715	0.270	0.238	
25.720	-0.017	0.237	
25.725	0.245	0.215	
25.730	0.271	0.199	
25.735	-0.101	0.186	
25.740	0.027	0.150	
25.745	0.293	0.116	
25.750	-0.035	0.104	
25.755	-0.101	0.085	
25.760	0.245	0.060	
25.765	0.099	0.060	
25.770	-0.139	0.062	
25.775	0.139	0.050	
25.780	0.244	0.053	
25.785	-0.079	0.069	
25.790	0.015	0.069	
25.795	0.302	0.068	
25.800	0.027	0.085	
25.805	-0.034	0.092	
25.810	0.344	0.093	
25.815	0.180	0.115	
25.820	-0.073	0.133	
25.825	0.181	0.128	
25.830	0.229	0.125	
25.835	-0.133	0.124	
25.840	-0.035	0.098	
25.845	0.273	0.070	
25.850	-0.041	0.065	
25.855	-0.137	0.053	
25.860	0.133	0.029	
25.865	-0.015	0.017	
25.870	-0.198	0.003	
25.875	0.017	-0.022	
25.880	0.105	-0.033	
25.885	-0.169	-0.030	
25.890	-0.060	-0.036	
25.895	0.239	-0.035	
25.900	-0.049	-0.011	
25.905	-0.107	0.005	
25.910	0.239	0.010	
25.915	0.081	0.032	
25.920	-0.146	0.049	
25.925	0.117	0.043	
25.930	0.174	0.045	
25.935	-0.105	0.054	
25.940	0.113	0.052	
25.945	0.567	0.073	
25.950	0.344	0.143	
25.955	0.163	0.217	
25.960	0.392	0.262	
25.965	0.055	0.282	
25.970	-0.256	0.251	
25.975	-0.128	0.163	
25.980	-0.050	0.063	
25.985	-0.224	-0.018	
25.990	-0.117	-0.083	
25.995	0.190	-0.113	
26.000	-0.038	-0.096	
26.005	-0.102	-0.069	
26.010	0.267	-0.042	
26.015	0.128	0.005	
26.020	-0.127	0.045	
26.025	0.122	0.056	
26.030	0.229	0.068	
26.035	-0.098	0.083	
26.040	0.008	0.077	
26.045	0.309	0.070	
26.050	-0.008	0.083	
26.055	-0.093	0.083	
26.060	0.245	0.070	
26.065	0.111	0.074	
26.070	-0.113	0.079	
26.075	0.174	0.069	
26.080	0.273	0.075	
26.085	-0.079	0.094	
26.090	0.043	0.093	
26.095	0.375	0.093	
26.100	0.096	0.117	
26.105	0.001	0.133	
26.110	0.369	0.138	
26.115	0.236	0.160	
26.120	-0.050	0.178	
26.125	0.227	0.171	
26.130	0.311	0.168	
26.135	-0.063	0.173	
26.140	0.021	0.152	
26.145	0.273	0.126	
26.150	-0.052	0.113	
26.155	-0.151	0.087	
26.160	0.149	0.049	
26.165	0.011	0.028	
26.170	-0.200	0.011	
26.175	-0.017	-0.018	
26.180	0.056	-0.037	
26.185	-0.203	-0.044	
26.190	-0.122	-0.062	
26.195	0.151	-0.072	
26.200	-0.105	-0.061	
26.205	-0.162	-0.054	
26.210	0.171	-0.053	
26.215	0.079	-0.030	
26.220	-0.153	-0.006	
26.225	0.084	0.001	
26.230	0.180	0.013	
26.235	-0.116	0.032	
26.240	-0.046	0.031	
26.245	0.230	0.025	
26.250	-0.072	0.034	
26.255	-0.156	0.029	
26.260	0.133	0.009	
26.265	-0.029	0.002	
26.270	-0.233	-0.010	
26.275	-0.046	-0.038	
26.280	0.026	-0.059	
26.285	-0.224	-0.069	
26.290	-0.174	-0.088	
26.295	0.061	-0.105	
26.300	-0.149	-0.103	
26.305	-0.204	-0.104	
26.310	0.070	-0.107	
26.315	-0.052	-0.095	
26.320	-0.241	-0.084	
26.325	-0.063	-0.090	
26.330	0.012	-0.093	
26.335	-0.232	-0.090	
26.340	-0.160	-0.100	
26.345	0.070	-0.109	
26.350	-0.157	-0.101	
26.355	-0.235	-0.101	
26.360	0.008	-0.111	
26.365	-0.058	-0.108	
26.370	-0.163	-0.099	
26.375	0.224	-0.084	
26.380	0.331	-0.033	
26.385	-0.095	0.035	
26.390	-0.107	0.064	
26.395	0.044	0.054	
26.400	-0.233	0.027	
26.405	-0.337	-0.026	
26.410	-0.156	-0.096	
26.415	-0.191	-0.152	
26.420	-0.308	-0.190	
26.425	-0.107	-0.216	
26.430	0.021	-0.212	
26.435	-0.198	-0.183	
26.440	-0.117	-0.158	
26.445	0.160	-0.129	
26.450	-0.089	-0.085	
26.455	-0.165	-0.057	
26.460	0.131	-0.045	
26.465	0.008	-0.027	
26.470	-0.194	-0.015	
26.475	0.014	-0.023	
26.480	0.116	-0.025	
26.485	-0.162	-0.018	
26.490	-0.102	-0.025	
26.495	0.161	-0.034	
26.500	-0.090	-0.025	
26.505	-0.163	-0.025	
26.510	0.152	-0.033	
26.515	0.065	-0.021	
26.520	-0.136	-0.004	
26.525	0.116	0.001	
26.530	0.216	0.017	
26.535	-0.119	0.042	
26.540	-0.040	0.044	
26.545	0.314	0.042	
26.550	0.004	0.060	
26.555	-0.111	0.068	
26.560	0.227	0.060	
26.565	0.108	0.066	
26.570	-0.140	0.070	
26.575	0.088	0.056	
26.580	0.181	0.048	
26.585	-0.185	0.048	
26.590	-0.148	0.024	
26.595	0.105	-0.010	
26.600	-0.125	-0.028	
26.605	-0.206	-0.047	
26.610	0.073	-0.070	
26.615	-0.053	-0.073	
26.620	-0.255	-0.075	
26.625	-0.081	-0.091	
26.630	0.064	-0.099	
26.635	-0.198	-0.091	
26.640	-0.153	-0.093	
26.645	0.104	-0.095	
26.650	-0.119	-0.082	
26.655	-0.194	-0.075	
26.660	0.105	-0.077	
26.665	-0.014	-0.063	
26.670	-0.223	-0.051	
26.675	-0.044	-0.059	
26.680	0.070	-0.064	
26.685	-0.209	-0.059	
26.690	-0.162	-0.069	
26.695	0.065	-0.083	
26.700	-0.159	-0.083	
26.705	-0.230	-0.090	
26.710	0.026	-0.104	
26.715	-0.046	-0.102	
26.720	-0.230	-0.096	
26.725	-0.078	-0.102	
26.730	0.004	-0.104	
26.735	-0.238	-0.100	
26.740	-0.192	-0.110	
26.745	0.027	-0.122	
26.750	-0.165	-0.119	
26.755	-0.235	-0.121	
26.760	0.023	-0.128	
26.765	-0.066	-0.119	
26.770	-0.249	-0.109	
26.775	-0.107	-0.115	
26.780	-0.024	-0.119	
26.785	-0.253	-0.118	
26.790	-0.186	-0.129	
26.795	0.139	-0.133	
26.800	0.006	-0.106	
26.805	-0.076	-0.069	
26.810	0.229	-0.035	
26.815	0.052	0.008	
26.820	-0.226	0.033	
26.825	-0.131	0.015	
26.830	-0.114	-0.025	
26.835	-0.326	-0.071	
26.840	-0.264	-0.129	
26.845	-0.043	-0.174	
26.850	-0.180	-0.189	
26.855	-0.230	-0.191	
26.860	0.050	-0.184	
26.865	0.001	-0.152	
26.870	-0.194	-0.115	
26.875	-0.008	-0.094	
26.880	0.125	-0.070	
26.885	-0.185	-0.043	
26.890	-0.142	-0.039	
26.895	0.130	-0.046	
26.900	-0.081	-0.039	
26.905	-0.182	-0.038	
26.910	0.107	-0.046	
26.915	0.049	-0.038	
26.920	-0.177	-0.026	
26.925	0.017	-0.028	
26.930	0.187	-0.022	
26.935	-0.102	-0.002	
26.940	-0.024	0.007	
26.945	0.317	0.017	
26.950	0.068	0.051	
26.955	-0.066	0.076	
26.960	0.303	0.085	
26.965	0.235	0.110	
26.970	-0.072	0.134	
26.975	0.210	0.135	
26.980	0.348	0.143	
26.985	-0.034	0.161	
26.990	0.029	0.154	
26.995	0.343	0.139	
27.000	0.015	0.140	
27.005	-0.134	0.125	
27.010	0.171	0.091	
27.015	0.094	0.072	
27.020	-0.171	0.057	
27.025	-0.014	0.028	
27.030	0.088	0.003	
27.035	-0.200	-0.011	
27.040	-0.163	-0.038	
27.045	0.102	-0.064	
27.050	-0.099	-0.068	
27.055	-0.175	-0.069	
27.060	0.120	-0.073	
27.065	0.055	-0.055	
27.070	-0.191	-0.035	
27.075	-0.014	-0.034	
27.080	0.158	-0.030	
27.085	-0.140	-0.015	
27.090	-0.107	-0.015	
27.095	0.169	-0.021	
27.100	-0.087	-0.014	
27.105	-0.198	-0.017	
27.110	0.073	-0.034	
27.115	-0.003	-0.039	
27.120	-0.230	-0.042	
27.125	-0.095	-0.061	
27.130	0.020	-0.078	
27.135	-0.224	-0.085	
27.140	-0.186	-0.101	
27.145	0.087	-0.113	
27.150	-0.120	-0.105	
27.155	-0.201	-0.098	
27.160	0.052	-0.098	
27.165	-0.020	-0.085	
27.170	-0.227	-0.073	
27.175	-0.076	-0.079	
27.180	0.070	-0.082	
27.185	-0.183	-0.074	
27.190	-0.139	-0.076	
27.195	0.110	-0.079	
27.200	-0.130	-0.069	
27.205	-0.227	-0.068	
27.210	0.053	-0.080	
27.215	0.075	-0.073	
27.220	-0.124	-0.052	
27.225	0.200	-0.031	
27.230	0.355	0.014	
27.235	-0.104	0.071	
27.240	-0.180	0.084	
27.245	-0.053	0.051	
27.250	-0.259	0.001	
27.255	-0.355	-0.067	
27.260	-0.110	-0.138	
27.265	-0.079	-0.178	
27.270	-0.235	-0.187	
27.275	-0.056	-0.186	
27.280	0.122	-0.161	
27.285	-0.153	-0.117	
27.290	-0.116	-0.088	
27.295	0.201	-0.066	
27.300	0.003	-0.030	
27.305	-0.120	-0.002	
27.310	0.206	0.010	
27.315	0.125	0.034	
27.320	-0.153	0.053	
27.325	0.053	0.047	
27.330	0.229	0.044	
27.335	-0.102	0.053	
27.340	-0.070	0.045	
27.345	0.259	0.034	
27.350	0.015	0.044	
27.355	-0.117	0.048	
27.360	0.200	0.041	
27.365	0.130	0.048	
27.370	-0.148	0.058	
27.375	0.053	0.046	
27.380	0.283	0.043	
27.385	-0.041	0.061	
27.390	-0.005	0.067	
27.395	0.329	0.071	
27.400	0.062	0.092	
27.405	-0.113	0.102	
27.410	0.192	0.089	
27.415	0.152	0.086	
27.420	-0.154	0.084	
27.425	-0.012	0.060	
27.430	0.117	0.034	
27.435	-0.177	0.017	
27.440	-0.177	-0.013	
27.445	0.062	-0.047	
27.450	-0.131	-0.064	
27.455	-0.230	-0.080	
27.460	0.003	-0.100	
27.465	0.004	-0.102	
27.470	-0.207	-0.093	
27.475	-0.031	-0.092	
27.480	0.154	-0.079	
27.485	-0.157	-0.053	
27.490	-0.136	-0.044	
27.495	0.165	-0.044	
27.500	-0.026	-0.028	
27.505	-0.159	-0.017	
27.510	0.126	-0.018	
27.515	0.081	-0.008	
27.520	-0.194	0.003	
27.525	-0.061	-0.009	
27.530	0.088	-0.024	
27.535	-0.183	-0.030	
27.540	-0.168	-0.048	
27.545	0.079	-0.068	
27.550	-0.117	-0.071	
27.555	-0.229	-0.078	
27.560	-0.008	-0.093	
27.565	-0.052	-0.097	
27.570	-0.255	-0.098	
27.575	-0.114	-0.112	
27.580	0.058	-0.117	
27.585	-0.180	-0.107	
27.590	-0.156	-0.103	
27.595	0.148	-0.098	
27.600	-0.069	-0.074	
27.605	-0.201	-0.057	
27.610	0.058	-0.058	
27.615	0.050	-0.049	
27.620	-0.204	-0.038	
27.625	-0.073	-0.045	
27.630	0.157	-0.049	
27.635	-0.081	-0.035	
27.640	0.023	-0.021	
27.645	0.509	0.012	
27.650	0.294	0.088	
27.655	-0.046	0.157	
27.660	0.055	0.174	
27.665	-0.099	0.149	
27.670	-0.332	0.087	
27.675	-0.200	-0.004	
27.680	-0.011	-0.082	
27.685	-0.182	-0.124	
27.690	-0.145	-0.146	
27.695	0.209	-0.142	
27.700	0.024	-0.100	
27.705	-0.120	-0.054	
27.710	0.204	-0.023	
27.715	0.219	0.021	
27.720	-0.092	0.063	
27.725	0.099	0.079	
27.730	0.296	0.091	
27.735	-0.040	0.110	
27.740	-0.006	0.109	
27.745	0.361	0.102	
27.750	0.130	0.119	
27.755	-0.078	0.131	
27.760	0.271	0.123	
27.765	0.256	0.130	
27.770	-0.073	0.142	
27.775	0.146	0.134	
27.780	0.386	0.133	
27.785	0.032	0.152	
27.790	0.030	0.155	
27.795	0.415	0.152	
27.800	0.235	0.172	
27.805	0.033	0.193	
27.810	0.410	0.200	
27.815	0.399	0.225	
27.820	0.008	0.252	
27.825	0.227	0.248	
27.830	0.450	0.242	
27.835	0.073	0.250	
27.840	0.044	0.237	
27.845	0.363	0.212	
27.850	0.107	0.200	
27.855	-0.089	0.180	
27.860	0.215	0.144	
27.865	0.174	0.123	
27.870	-0.139	0.110	
27.875	0.009	0.079	
27.880	0.223	0.053	
27.885	-0.095	0.048	
27.890	-0.087	0.034	
27.895	0.302	0.022	
27.900	0.099	0.041	
27.905	-0.090	0.061	
27.910	0.224	0.067	
27.915	0.215	0.083	
27.920	-0.108	0.101	
27.925	0.062	0.094	
27.930	0.283	0.087	
27.935	-0.056	0.094	
27.940	-0.075	0.085	
27.945	0.233	0.066	
27.950	0.018	0.063	
27.955	-0.148	0.056	
27.960	0.102	0.034	
27.965	0.085	0.023	
27.970	-0.192	0.017	
27.975	-0.089	-0.006	
27.980	0.102	-0.029	
27.985	-0.163	-0.037	
27.990	-0.182	-0.053	
27.995	0.102	-0.071	
28.000	-0.089	-0.069	
28.005	-0.226	-0.070	
28.010	0.017	-0.081	
28.015	0.009	-0.080	
28.020	-0.213	-0.073	
28.025	-0.084	-0.079	
28.030	0.094	-0.081	
28.035	-0.177	-0.070	
28.040	-0.188	-0.073	
28.045	0.110	-0.081	
28.050	-0.050	-0.071	
28.055	-0.145	-0.059	
28.060	0.312	-0.044	
28.065	0.415	0.013	
28.070	-0.009	0.091	
28.075	0.062	0.134	
28.080	0.143	0.142	
28.085	-0.224	0.125	
28.090	-0.297	0.066	
28.095	-0.089	-0.017	
28.100	-0.151	-0.083	
28.105	-0.230	-0.129	
28.110	0.058	-0.154	
28.115	0.119	-0.137	
28.120	-0.142	-0.097	
28.125	0.017	-0.066	
28.130	0.230	-0.033	
28.135	-0.081	0.008	
28.140	-0.078	0.026	
28.145	0.250	0.031	
28.150	0.067	0.050	
28.155	-0.128	0.062	
28.160	0.158	0.055	
28.165	0.195	0.059	
28.170	-0.111	0.070	
28.175	0.075	0.065	
28.180	0.326	0.067	
28.185	-0.011	0.089	
28.190	-0.038	0.096	
28.195	0.344	0.093	
28.200	0.161	0.112	
28.205	-0.040	0.130	
28.210	0.332	0.134	
28.215	0.412	0.159	
28.220	0.050	0.197	
28.225	0.262	0.216	
28.230	0.535	0.236	
28.235	0.174	0.272	
28.240	0.105	0.285	
28.245	0.474	0.278	
28.250	0.276	0.285	
28.255	-0.011	0.283	
28.260	0.308	0.255	
28.265	0.303	0.236	
28.270	-0.082	0.222	
28.275	0.043	0.182	
28.280	0.296	0.143	
28.285	-0.056	0.124	
28.290	-0.124	0.094	
28.295	0.175	0.056	
28.300	0.033	0.039	
28.305	-0.136	0.029	
28.310	0.142	0.014	
28.315	0.158	0.018	
28.320	-0.136	0.032	
28.325	-0.005	0.027	
28.330	0.265	0.025	
28.335	-0.035	0.042	
28.340	-0.047	0.050	
28.345	0.300	0.052	
28.350	0.131	0.075	
28.355	-0.105	0.094	
28.360	0.207	0.092	
28.365	0.227	0.098	
28.370	-0.134	0.108	
28.375	-0.026	0.089	
28.380	0.200	0.065	
28.385	-0.120	0.052	
28.390	-0.146	0.028	
28.395	0.171	-0.001	
28.400	0.014	-0.005	
28.405	-0.142	-0.003	
28.410	0.184	-0.006	
28.415	0.285	0.017	
28.420	-0.012	0.060	
28.425	0.212	0.092	
28.430	0.546	0.134	
28.435	0.294	0.204	
28.440	0.361	0.270	
28.445	1.015	0.346	
28.450	1.216	0.486	
28.455	1.282	0.684	
28.460	1.791	0.912	
28.465	1.913	1.168	
28.470	1.628	1.413	
28.475	1.918	1.600	
28.480	2.232	1.751	
28.485	1.896	1.884	
28.490	1.738	1.960	
28.495	1.953	1.974	
28.500	1.591	1.950	
28.505	1.133	1.868	
28.510	1.259	1.718	
28.515	1.146	1.549	
28.520	0.732	1.378	
28.525	0.866	1.200	
28.530	1.113	1.056	
28.535	0.790	0.969	
28.540	0.709	0.904	
28.545	1.021	0.855	
28.550	0.788	0.836	
28.555	0.465	0.814	
28.560	0.748	0.766	
28.565	0.747	0.727	
28.570	0.309	0.691	
28.575	0.416	0.628	
28.580	0.614	0.562	
28.585	0.265	0.514	
28.590	0.171	0.456	
28.595	0.474	0.394	
28.600	0.255	0.353	
28.605	-0.009	0.313	
28.610	0.274	0.259	
28.615	0.271	0.222	
28.620	-0.073	0.197	
28.625	0.058	0.157	
28.630	0.285	0.123	
28.635	-0.035	0.111	
28.640	-0.085	0.091	
28.645	0.216	0.065	
28.650	0.049	0.058	
28.655	-0.143	0.052	
28.660	0.053	0.031	
28.665	0.084	0.017	
28.670	-0.185	0.009	
28.675	-0.108	-0.015	
28.680	0.038	-0.041	
28.685	-0.198	-0.057	
28.690	-0.255	-0.082	
28.695	-0.073	-0.116	
28.700	-0.185	-0.138	
28.705	-0.340	-0.159	
28.710	-0.180	-0.189	
28.715	-0.171	-0.209	
28.720	-0.370	-0.221	
28.725	-0.281	-0.241	
28.730	-0.139	-0.256	
28.735	-0.325	-0.257	
28.740	-0.352	-0.263	
28.745	-0.171	-0.272	
28.750	-0.264	-0.271	
28.755	-0.398	-0.271	
28.760	-0.210	-0.279	
28.765	-0.168	-0.278	
28.770	-0.357	-0.267	
28.775	-0.299	-0.267	
28.780	-0.185	-0.270	
28.785	-0.357	-0.269	
28.790	-0.393	-0.279	
28.795	-0.203	-0.294	
28.800	-0.297	-0.298	
28.805	-0.450	-0.302	
28.810	-0.294	-0.318	
28.815	-0.268	-0.327	
