Vernier Format 2
ecg5.txt 10/20/2025 9:52:46
Run 1
Time	Potential	EKG	
T	P	E	
s	mV	mV	

0.000	-0.106	-0.005	
0.005	-0.104	-0.021	
0.010	-0.116	-0.045	
0.015	-0.168	-0.072	
0.020	-0.203	-0.102	
0.025	-0.187	-0.133	
0.030	-0.207	-0.160	
0.035	-0.228	-0.182	
0.040	-0.177	-0.198	
0.045	-0.145	-0.203	
0.050	-0.153	-0.196	
0.055	-0.136	-0.184	
0.060	-0.135	-0.170	
0.065	-0.205	-0.160	
0.070	-0.236	-0.161	
0.075	-0.162	-0.171	
0.080	-0.078	-0.174	
0.085	-0.025	-0.159	
0.090	0.038	-0.126	
0.095	-0.141	-0.091	
0.100	-0.257	-0.080	
0.105	-0.234	-0.101	
0.110	-0.145	-0.133	
0.115	-0.122	-0.154	
0.120	-0.049	-0.156	
0.125	0.044	-0.136	
0.130	0.059	-0.097	
0.135	-0.005	-0.053	
0.140	0.020	-0.018	
0.145	0.130	0.010	
0.150	0.059	0.038	
0.155	0.113	0.061	
0.160	0.134	0.080	
0.165	0.085	0.097	
0.170	0.111	0.106	
0.175	0.221	0.115	
0.180	0.229	0.135	
0.185	0.178	0.159	
0.190	0.258	0.181	
0.195	0.270	0.202	
0.200	0.281	0.225	
0.205	0.319	0.248	
0.210	0.539	0.281	
0.215	0.577	0.336	
0.220	0.557	0.405	
0.225	0.647	0.472	
0.230	0.643	0.533	
0.235	0.502	0.577	
0.240	0.478	0.590	
0.245	0.392	0.573	
0.250	0.336	0.533	
0.255	0.244	0.475	
0.260	0.033	0.398	
0.265	-0.081	0.298	
0.270	-0.155	0.180	
0.275	-0.150	0.064	
0.280	-0.168	-0.033	
0.285	-0.193	-0.107	
0.290	-0.162	-0.156	
0.295	-0.142	-0.182	
0.300	-0.184	-0.190	
0.305	-0.164	-0.190	
0.310	-0.103	-0.183	
0.315	-0.068	-0.166	
0.320	-0.086	-0.142	
0.325	-0.029	-0.117	
0.330	-0.022	-0.090	
0.335	-0.093	-0.068	
0.340	-0.040	-0.056	
0.345	0.003	-0.048	
0.350	-0.090	-0.041	
0.355	-0.153	-0.045	
0.360	-0.118	-0.062	
0.365	-0.145	-0.084	
0.370	-0.197	-0.107	
0.375	-0.213	-0.134	
0.380	-0.255	-0.162	
0.385	-0.303	-0.194	
0.390	-0.231	-0.224	
0.395	-0.222	-0.243	
0.400	-0.266	-0.251	
0.405	-0.266	-0.256	
0.410	-0.236	-0.258	
0.415	-0.243	-0.257	
0.420	-0.266	-0.255	
0.425	-0.301	-0.256	
0.430	-0.313	-0.264	
0.435	-0.287	-0.275	
0.440	-0.119	-0.277	
0.445	0.070	-0.247	
0.450	0.056	-0.184	
0.455	-0.081	-0.114	
0.460	-0.219	-0.073	
0.465	-0.280	-0.077	
0.470	-0.248	-0.112	
0.475	-0.139	-0.150	
0.480	-0.068	-0.169	
0.485	-0.071	-0.163	
0.490	-0.009	-0.140	
0.495	0.044	-0.105	
0.500	-0.019	-0.066	
0.505	-0.032	-0.035	
0.510	0.050	-0.015	
0.515	0.110	0.005	
0.520	0.128	0.033	
0.525	0.192	0.066	
0.530	0.149	0.101	
0.535	0.102	0.127	
0.540	0.197	0.141	
0.545	0.258	0.157	
0.550	0.250	0.181	
0.555	0.279	0.207	
0.560	0.362	0.235	
0.565	0.389	0.270	
0.570	0.420	0.309	
0.575	0.545	0.354	
0.580	0.620	0.408	
0.585	0.574	0.469	
0.590	0.673	0.525	
0.595	0.661	0.574	
0.600	0.502	0.608	
0.605	0.470	0.611	
0.610	0.412	0.585	
0.615	0.276	0.537	
0.620	0.116	0.464	
0.625	-0.025	0.365	
0.630	-0.084	0.248	
0.635	-0.136	0.129	
0.640	-0.097	0.026	
0.645	-0.100	-0.049	
0.650	-0.156	-0.098	
0.655	-0.196	-0.132	
0.660	-0.173	-0.157	
0.665	-0.153	-0.173	
0.670	-0.170	-0.179	
0.675	-0.142	-0.178	
0.680	-0.144	-0.172	
0.685	-0.142	-0.164	
0.690	-0.087	-0.154	
0.695	-0.014	-0.135	
0.700	-0.046	-0.109	
0.705	-0.040	-0.083	
0.710	-0.029	-0.061	
0.715	-0.064	-0.047	
0.720	-0.077	-0.042	
0.725	-0.048	-0.044	
0.730	-0.126	-0.051	
0.735	-0.200	-0.068	
0.740	-0.184	-0.096	
0.745	-0.187	-0.127	
0.750	-0.219	-0.155	
0.755	-0.240	-0.180	
0.760	-0.229	-0.202	
0.765	-0.239	-0.218	
0.770	-0.236	-0.230	
0.775	-0.196	-0.235	
0.780	-0.153	-0.230	
0.785	-0.184	-0.217	
0.790	-0.185	-0.203	
0.795	-0.152	-0.191	
0.800	-0.164	-0.180	
0.805	-0.049	-0.166	
0.810	0.036	-0.139	
0.815	-0.069	-0.102	
0.820	-0.228	-0.080	
0.825	-0.263	-0.091	
0.830	-0.245	-0.126	
0.835	-0.174	-0.162	
0.840	-0.071	-0.181	
0.845	0.062	-0.168	
0.850	0.081	-0.125	
0.855	0.157	-0.063	
0.860	0.263	0.009	
0.865	0.232	0.086	
0.870	0.232	0.151	
0.875	0.304	0.202	
0.880	0.229	0.239	
0.885	0.119	0.253	
0.890	0.223	0.246	
0.895	0.255	0.234	
0.900	0.270	0.232	
0.905	0.322	0.239	
0.910	0.336	0.256	
0.915	0.288	0.277	
0.920	0.318	0.292	
0.925	0.325	0.304	
0.930	0.382	0.316	
0.935	0.337	0.329	
0.940	0.450	0.344	
0.945	0.518	0.369	
0.950	0.452	0.403	
0.955	0.449	0.431	
0.960	0.429	0.448	
0.965	0.398	0.452	
0.970	0.327	0.442	
0.975	0.275	0.417	
0.980	0.172	0.376	
0.985	0.015	0.316	
0.990	0.021	0.238	
0.995	-0.013	0.158	
1.000	-0.101	0.085	
1.005	-0.121	0.018	
1.010	-0.136	-0.041	
1.015	-0.156	-0.087	
1.020	-0.161	-0.122	
1.025	-0.132	-0.145	
1.030	-0.119	-0.154	
1.035	-0.138	-0.154	
1.040	-0.055	-0.146	
1.045	-0.034	-0.128	
1.050	-0.077	-0.105	
1.055	-0.064	-0.086	
1.060	-0.003	-0.070	
1.065	0.000	-0.053	
1.070	-0.034	-0.036	
1.075	0.029	-0.023	
1.080	0.050	-0.009	
1.085	-0.061	0.003	
1.090	-0.043	0.003	
1.095	0.012	-0.004	
1.100	-0.072	-0.011	
1.105	-0.046	-0.020	
1.110	-0.052	-0.031	
1.115	-0.075	-0.041	
1.120	-0.130	-0.054	
1.125	-0.100	-0.070	
1.130	-0.103	-0.085	
1.135	-0.127	-0.097	
1.140	-0.052	-0.104	
1.145	-0.028	-0.100	
1.150	-0.107	-0.089	
1.155	-0.104	-0.084	
1.160	-0.072	-0.083	
1.165	-0.016	-0.080	
1.170	-0.023	-0.069	
1.175	-0.029	-0.056	
1.180	-0.042	-0.044	
1.185	-0.148	-0.043	
1.190	-0.141	-0.056	
1.195	-0.124	-0.078	
1.200	-0.124	-0.098	
1.205	-0.008	-0.107	
1.210	0.151	-0.091	
1.215	0.099	-0.049	
1.220	0.081	0.001	
1.225	0.188	0.046	
1.230	0.230	0.091	
1.235	0.130	0.133	
1.240	0.195	0.160	
1.245	0.259	0.180	
1.250	0.197	0.199	
1.255	0.249	0.213	
1.260	0.308	0.227	
1.265	0.308	0.246	
1.270	0.266	0.265	
1.275	0.327	0.279	
1.280	0.307	0.291	
1.285	0.159	0.294	
1.290	0.311	0.284	
1.295	0.516	0.287	
1.300	0.449	0.318	
1.305	0.470	0.362	
1.310	0.597	0.408	
1.315	0.537	0.457	
1.320	0.510	0.497	
1.325	0.457	0.518	
1.330	0.402	0.517	
1.335	0.276	0.492	
1.340	0.279	0.446	
1.345	0.192	0.388	
1.350	-0.016	0.318	
1.355	-0.043	0.230	
1.360	-0.054	0.138	
1.365	-0.115	0.054	
1.370	-0.161	-0.017	
1.375	-0.133	-0.075	
1.380	-0.141	-0.116	
1.385	-0.158	-0.141	
1.390	-0.104	-0.154	
1.395	-0.086	-0.152	
1.400	-0.118	-0.141	
1.405	-0.101	-0.130	
1.410	-0.026	-0.116	
1.415	-0.038	-0.097	
1.420	-0.080	-0.078	
1.425	-0.031	-0.065	
1.430	-0.008	-0.053	
1.435	-0.081	-0.044	
1.440	-0.060	-0.042	
1.445	-0.048	-0.044	
1.450	-0.081	-0.048	
1.455	-0.061	-0.054	
1.460	-0.032	-0.058	
1.465	-0.101	-0.059	
1.470	-0.142	-0.067	
1.475	-0.107	-0.081	
1.480	-0.126	-0.095	
1.485	-0.182	-0.109	
1.490	-0.124	-0.125	
1.495	-0.009	-0.129	
1.500	-0.017	-0.115	
1.505	-0.016	-0.090	
1.510	0.021	-0.062	
1.515	-0.006	-0.036	
1.520	-0.080	-0.020	
1.525	-0.023	-0.017	
1.530	0.091	-0.014	
1.535	0.075	0.001	
1.540	0.081	0.023	
1.545	-0.020	0.039	
1.550	-0.164	0.035	
1.555	-0.145	0.003	
1.560	-0.055	-0.037	
1.565	-0.013	-0.062	
1.570	0.012	-0.066	
1.575	0.151	-0.048	
1.580	0.189	-0.007	
1.585	0.134	0.045	
1.590	0.224	0.093	
1.595	0.256	0.139	
1.600	0.214	0.179	
1.605	0.128	0.204	
1.610	0.203	0.209	
1.615	0.252	0.209	
1.620	0.208	0.213	
1.625	0.241	0.217	
1.630	0.259	0.223	
1.635	0.175	0.228	
1.640	0.203	0.226	
1.645	0.290	0.223	
1.650	0.305	0.231	
1.655	0.343	0.250	
1.660	0.391	0.276	
1.665	0.402	0.309	
1.670	0.434	0.343	
1.675	0.482	0.377	
1.680	0.539	0.414	
1.685	0.479	0.450	
1.690	0.408	0.472	
1.695	0.388	0.474	
1.700	0.255	0.453	
1.705	0.136	0.407	
1.710	0.059	0.337	
1.715	-0.029	0.250	
1.720	-0.098	0.157	
1.725	-0.103	0.067	
1.730	-0.113	-0.009	
1.735	-0.136	-0.066	
1.740	-0.121	-0.105	
1.745	-0.113	-0.128	
1.750	-0.144	-0.138	
1.755	-0.135	-0.142	
1.760	-0.074	-0.141	
1.765	-0.112	-0.132	
1.770	-0.119	-0.123	
1.775	-0.084	-0.115	
1.780	-0.016	-0.105	
1.785	-0.057	-0.088	
1.790	-0.052	-0.072	
1.795	-0.016	-0.059	
1.800	-0.069	-0.049	
1.805	-0.110	-0.047	
1.810	-0.072	-0.054	
1.815	-0.090	-0.063	
1.820	-0.122	-0.074	
1.825	-0.100	-0.085	
1.830	-0.126	-0.096	
1.835	-0.196	-0.109	
1.840	-0.194	-0.128	
1.845	-0.188	-0.149	
1.850	-0.219	-0.169	
1.855	-0.226	-0.186	
1.860	-0.168	-0.199	
1.865	-0.168	-0.203	
1.870	-0.225	-0.201	
1.875	-0.219	-0.201	
1.880	-0.237	-0.206	
1.885	-0.254	-0.214	
1.890	-0.159	-0.220	
1.895	-0.112	-0.214	
1.900	-0.122	-0.195	
1.905	-0.170	-0.174	
1.910	-0.213	-0.162	
1.915	-0.275	-0.167	
1.920	-0.284	-0.187	
1.925	-0.216	-0.211	
1.930	-0.162	-0.224	
1.935	-0.174	-0.223	
1.940	-0.124	-0.210	
1.945	-0.075	-0.188	
1.950	-0.074	-0.158	
1.955	-0.037	-0.127	
1.960	0.003	-0.094	
1.965	-0.023	-0.064	
1.970	-0.046	-0.041	
1.975	0.000	-0.027	
1.980	0.039	-0.016	
1.985	-0.013	-0.005	
1.990	0.053	0.005	
1.995	0.156	0.020	
2.000	0.163	0.049	
2.005	0.209	0.085	
2.010	0.305	0.128	
2.015	0.321	0.179	
2.020	0.330	0.229	
2.025	0.499	0.280	
2.030	0.641	0.344	
2.035	0.773	0.430	
2.040	0.875	0.534	
2.045	0.909	0.645	
2.050	0.832	0.743	
2.055	0.730	0.807	
2.060	0.641	0.824	
2.065	0.527	0.798	
2.070	0.472	0.738	
2.075	0.426	0.660	
2.080	0.440	0.581	
2.085	0.803	0.532	
2.090	1.382	0.568	
2.095	1.616	0.720	
2.100	1.139	0.927	
2.105	0.469	1.060	
2.110	-0.026	1.024	
2.115	-0.234	0.825	
2.120	-0.373	0.536	
2.125	-0.428	0.229	
2.130	-0.456	-0.041	
2.135	-0.475	-0.251	
2.140	-0.023	-0.373	
2.145	1.275	-0.330	
2.150	2.241	-0.028	
2.155	2.779	0.520	
2.160	2.974	1.190	
2.165	2.968	1.840	
2.170	2.786	2.359	
2.175	2.653	2.696	
2.180	2.426	2.849	
2.185	2.065	2.840	
2.190	1.816	2.698	
2.195	1.622	2.468	
2.200	1.370	2.196	
2.205	1.194	1.913	
2.210	1.092	1.645	
2.215	0.929	1.408	
2.220	0.687	1.200	
2.225	0.657	1.012	
2.230	0.605	0.853	
2.235	0.296	0.718	
2.240	0.133	0.580	
2.245	0.073	0.434	
2.250	0.055	0.298	
2.255	0.156	0.191	
2.260	0.363	0.137	
2.265	0.299	0.140	
2.270	0.006	0.160	
2.275	-0.130	0.149	
2.280	-0.203	0.095	
2.285	-0.271	0.013	
2.290	-0.251	-0.075	
2.295	-0.197	-0.149	
2.300	-0.208	-0.198	
2.305	-0.231	-0.224	
2.310	-0.153	-0.234	
2.315	-0.158	-0.227	
2.320	-0.207	-0.213	
2.325	-0.220	-0.204	
2.330	-0.243	-0.202	
2.335	-0.292	-0.210	
2.340	-0.297	-0.227	
2.345	-0.275	-0.247	
2.350	-0.312	-0.265	
2.355	-0.306	-0.280	
2.360	-0.266	-0.291	
2.365	-0.280	-0.294	
2.370	-0.269	-0.292	
2.375	-0.223	-0.285	
2.380	-0.167	-0.270	
2.385	-0.168	-0.246	
2.390	-0.155	-0.219	
2.395	-0.115	-0.193	
2.400	-0.107	-0.167	
2.405	-0.112	-0.144	
2.410	-0.097	-0.126	
2.415	-0.173	-0.116	
2.420	-0.234	-0.120	
2.425	-0.262	-0.142	
2.430	-0.312	-0.176	
2.435	-0.393	-0.219	
2.440	-0.422	-0.270	
2.445	-0.465	-0.324	
2.450	-0.537	-0.377	
2.455	-0.553	-0.431	
2.460	-0.549	-0.479	
2.465	-0.570	-0.516	
2.470	-0.613	-0.546	
2.475	-0.627	-0.571	
2.480	-0.604	-0.592	
2.485	-0.617	-0.606	
2.490	-0.599	-0.614	
2.495	-0.538	-0.613	
2.500	-0.492	-0.599	
2.505	-0.457	-0.573	
2.510	-0.382	-0.537	
2.515	-0.355	-0.493	
2.520	-0.358	-0.447	
2.525	-0.315	-0.406	
2.530	-0.301	-0.370	
2.535	-0.320	-0.342	
2.540	-0.326	-0.323	
2.545	-0.304	-0.313	
2.550	-0.358	-0.310	
2.555	-0.384	-0.316	
2.560	-0.398	-0.331	
2.565	-0.393	-0.350	
2.570	-0.413	-0.368	
2.575	-0.378	-0.383	
2.580	-0.344	-0.389	
2.585	-0.364	-0.386	
2.590	-0.332	-0.379	
2.595	-0.309	-0.366	
2.600	-0.333	-0.352	
2.605	-0.401	-0.344	
2.610	-0.390	-0.346	
2.615	-0.338	-0.354	
2.620	-0.228	-0.352	
2.625	-0.153	-0.330	
2.630	-0.165	-0.290	
2.635	-0.332	-0.255	
2.640	-0.390	-0.247	
2.645	-0.352	-0.265	
2.650	-0.321	-0.290	
2.655	-0.286	-0.308	
2.660	-0.197	-0.310	
2.665	-0.156	-0.293	
2.670	-0.184	-0.262	
2.675	-0.142	-0.229	
2.680	-0.107	-0.197	
2.685	-0.139	-0.168	
2.690	-0.124	-0.146	
2.695	-0.092	-0.131	
2.700	-0.101	-0.118	
2.705	-0.101	-0.108	
2.710	-0.046	-0.099	
2.715	-0.031	-0.087	
2.720	-0.078	-0.074	
2.725	0.000	-0.062	
2.730	0.007	-0.048	
2.735	0.013	-0.031	
2.740	0.107	-0.011	
2.745	0.185	0.020	
2.750	0.214	0.064	
2.755	0.246	0.113	
2.760	0.288	0.162	
2.765	0.342	0.210	
2.770	0.316	0.254	
2.775	0.350	0.290	
2.780	0.273	0.314	
2.785	0.091	0.313	
2.790	0.003	0.276	
2.795	-0.032	0.210	
2.800	-0.133	0.130	
2.805	-0.219	0.042	
2.810	-0.269	-0.047	
2.815	-0.339	-0.133	
2.820	-0.350	-0.211	
2.825	-0.349	-0.274	
2.830	-0.361	-0.320	
2.835	-0.390	-0.350	
2.840	-0.399	-0.372	
2.845	-0.391	-0.387	
2.850	-0.376	-0.394	
2.855	-0.379	-0.396	
2.860	-0.361	-0.392	
2.865	-0.347	-0.385	
2.870	-0.364	-0.376	
2.875	-0.333	-0.367	
2.880	-0.310	-0.357	
2.885	-0.338	-0.345	
2.890	-0.335	-0.337	
2.895	-0.356	-0.334	
2.900	-0.434	-0.339	
2.905	-0.515	-0.359	
2.910	-0.581	-0.397	
2.915	-0.714	-0.453	
2.920	-0.880	-0.530	
2.925	-0.993	-0.630	
2.930	-0.995	-0.741	
2.935	-0.993	-0.842	
2.940	-0.995	-0.920	
2.945	-0.995	-0.972	
2.950	-0.995	-1.002	
2.955	-0.995	-1.015	
2.960	-0.995	-1.018	
2.965	-0.995	-1.015	
2.970	-0.995	-1.010	
2.975	-0.995	-1.005	
2.980	-0.995	-1.000	
2.985	-0.995	-0.997	
2.990	-0.995	-0.995	
2.995	-0.993	-0.994	
3.000	-0.993	-0.993	
3.005	-0.937	-0.990	
3.010	-0.764	-0.974	
3.015	-0.610	-0.928	
3.020	-0.488	-0.848	
3.025	-0.350	-0.741	
3.030	-0.271	-0.620	
3.035	-0.225	-0.497	
3.040	-0.139	-0.384	
3.045	-0.026	-0.283	
3.050	0.029	-0.188	
3.055	0.124	-0.100	
3.060	0.331	-0.010	
3.065	0.406	0.091	
3.070	0.441	0.197	
3.075	0.597	0.300	
3.080	0.709	0.403	
3.085	0.704	0.505	
3.090	0.773	0.595	
3.095	0.822	0.671	
3.100	0.777	0.732	
3.105	0.805	0.774	
3.110	0.971	0.806	
3.115	1.034	0.848	
3.120	0.994	0.898	
3.125	1.112	0.948	
3.130	1.280	1.005	
3.135	1.216	1.073	
3.140	1.204	1.135	
3.145	1.202	1.179	
3.150	1.032	1.197	
3.155	0.881	1.176	
3.160	0.802	1.115	
3.165	0.748	1.028	
3.170	0.698	0.934	
3.175	0.736	0.848	
3.180	0.712	0.782	
3.185	0.524	0.730	
3.190	0.512	0.674	
3.195	0.571	0.619	
3.200	0.531	0.579	
3.205	0.489	0.551	
3.210	0.586	0.532	
3.215	0.521	0.525	
3.220	0.427	0.519	
3.225	0.586	0.511	
3.230	0.661	0.517	
3.235	0.618	0.542	
3.240	0.733	0.575	
3.245	0.728	0.615	
3.250	0.660	0.653	
3.255	0.606	0.673	
3.260	0.710	0.678	
3.265	0.664	0.680	
3.270	0.563	0.675	
3.275	0.599	0.658	
3.280	0.568	0.636	
3.285	0.356	0.604	
3.290	0.409	0.555	
3.295	0.467	0.504	
3.300	0.400	0.466	
3.305	0.372	0.437	
3.310	0.446	0.416	
3.315	0.467	0.408	
3.320	0.412	0.412	
3.325	0.412	0.416	
3.330	0.450	0.420	
3.335	0.316	0.419	
3.340	0.356	0.408	
3.345	0.530	0.399	
3.350	0.478	0.408	
3.355	0.385	0.424	
3.360	0.314	0.425	
3.365	0.209	0.404	
3.370	0.116	0.358	
3.375	0.295	0.303	
3.380	0.434	0.273	
3.385	0.432	0.281	
3.390	0.550	0.319	
3.395	0.649	0.379	
3.400	0.631	0.453	
3.405	0.516	0.518	
3.410	0.589	0.558	
3.415	0.586	0.580	
3.420	0.562	0.591	
3.425	0.612	0.595	
3.430	0.641	0.599	
3.435	0.501	0.601	
3.440	0.475	0.589	
3.445	0.580	0.568	
3.450	0.611	0.556	
3.455	0.571	0.557	
3.460	0.655	0.566	
3.465	0.692	0.585	
3.470	0.655	0.610	
3.475	0.704	0.635	
3.480	0.736	0.659	
3.485	0.785	0.686	
3.490	0.822	0.717	
3.495	0.813	0.749	
3.500	0.731	0.774	
3.505	0.628	0.777	
3.510	0.586	0.754	
3.515	0.496	0.709	
3.520	0.308	0.643	
3.525	0.267	0.556	
3.530	0.124	0.455	
3.535	-0.031	0.344	
3.540	-0.011	0.228	
3.545	0.029	0.128	
3.550	-0.037	0.055	
3.555	-0.075	0.004	
3.560	-0.003	-0.031	
3.565	-0.043	-0.048	
3.570	-0.086	-0.056	
3.575	0.003	-0.059	
3.580	0.078	-0.050	
3.585	0.032	-0.027	
3.590	0.023	-0.004	
3.595	0.050	0.014	
3.600	0.061	0.029	
3.605	0.064	0.042	
3.610	0.160	0.057	
3.615	0.137	0.077	
3.620	0.029	0.095	
3.625	0.056	0.097	
3.630	0.004	0.087	
3.635	-0.057	0.067	
3.640	-0.066	0.036	
3.645	-0.008	0.005	
3.650	-0.035	-0.016	
3.655	-0.058	-0.030	
3.660	-0.032	-0.040	
3.665	-0.025	-0.044	
3.670	-0.084	-0.046	
3.675	-0.057	-0.050	
3.680	-0.020	-0.052	
3.685	-0.072	-0.052	
3.690	-0.106	-0.055	
3.695	-0.086	-0.063	
3.700	-0.135	-0.074	
3.705	-0.069	-0.086	
3.710	0.116	-0.083	
3.715	0.139	-0.052	
3.720	-0.016	-0.010	
3.725	-0.106	0.013	
3.730	-0.144	0.004	
3.735	-0.167	-0.026	
3.740	-0.022	-0.060	
3.745	0.188	-0.066	
3.750	0.214	-0.031	
3.755	0.206	0.030	
3.760	0.287	0.097	
3.765	0.307	0.162	
3.770	0.275	0.218	
3.775	0.330	0.260	
3.780	0.324	0.291	
3.785	0.327	0.313	
3.790	0.408	0.329	
3.795	0.420	0.349	
3.800	0.398	0.370	
3.805	0.327	0.383	
3.810	0.405	0.386	
3.815	0.397	0.387	
3.820	0.308	0.386	
3.825	0.397	0.379	
3.830	0.498	0.379	
3.835	0.510	0.397	
3.840	0.596	0.430	
3.845	0.626	0.475	
3.850	0.692	0.526	
3.855	0.716	0.580	
3.860	0.699	0.630	
3.865	0.647	0.665	
3.870	0.452	0.673	
3.875	0.377	0.642	
3.880	0.310	0.578	
3.885	0.137	0.492	
3.890	0.030	0.387	
3.895	-0.029	0.272	
3.900	-0.045	0.162	
3.905	-0.148	0.066	
3.910	-0.127	-0.016	
3.915	-0.152	-0.078	
3.920	-0.184	-0.123	
3.925	-0.116	-0.151	
3.930	-0.090	-0.161	
3.935	-0.135	-0.156	
3.940	-0.109	-0.146	
3.945	-0.075	-0.134	
3.950	-0.090	-0.120	
3.955	-0.083	-0.106	
3.960	-0.048	-0.094	
3.965	-0.048	-0.081	
3.970	-0.104	-0.071	
3.975	-0.008	-0.065	
3.980	0.041	-0.054	
3.985	-0.014	-0.036	
3.990	-0.031	-0.021	
3.995	-0.051	-0.016	
4.000	-0.095	-0.021	
4.005	-0.136	-0.037	
4.010	-0.113	-0.060	
4.015	-0.118	-0.083	
4.020	-0.170	-0.102	
4.025	-0.161	-0.122	
4.030	-0.168	-0.139	
4.035	-0.182	-0.153	
4.040	-0.126	-0.163	
4.045	-0.097	-0.161	
4.050	-0.139	-0.152	
4.055	-0.217	-0.147	
4.060	-0.176	-0.152	
4.065	-0.087	-0.156	
4.070	-0.013	-0.147	
4.075	0.067	-0.117	
4.080	0.035	-0.073	
4.085	-0.121	-0.038	
4.090	-0.213	-0.033	
4.095	-0.173	-0.057	
4.100	-0.141	-0.091	
4.105	-0.122	-0.118	
4.110	-0.023	-0.128	
4.115	0.009	-0.117	
4.120	-0.026	-0.091	
4.125	0.013	-0.063	
4.130	0.068	-0.034	
4.135	0.035	-0.005	
4.140	0.013	0.017	
4.145	0.120	0.033	
4.150	0.156	0.054	
4.155	0.125	0.080	
4.160	0.175	0.105	
4.165	0.194	0.128	
4.170	0.166	0.150	
4.175	0.243	0.169	
4.180	0.282	0.190	
4.185	0.305	0.216	
4.190	0.334	0.246	
4.195	0.406	0.279	
4.200	0.484	0.319	
4.205	0.447	0.364	
4.210	0.544	0.407	
4.215	0.660	0.455	
4.220	0.605	0.508	
4.225	0.631	0.556	
4.230	0.638	0.592	
4.235	0.522	0.613	
4.240	0.369	0.605	
4.245	0.284	0.560	
4.250	0.185	0.487	
4.255	0.046	0.393	
4.260	0.035	0.289	
4.265	-0.006	0.189	
4.270	-0.104	0.102	
4.275	-0.097	0.025	
4.280	-0.100	-0.035	
4.285	-0.139	-0.078	
4.290	-0.112	-0.108	
4.295	-0.064	-0.122	
4.300	-0.042	-0.120	
4.305	-0.048	-0.105	
4.310	-0.013	-0.086	
4.315	-0.002	-0.064	
4.320	-0.048	-0.044	
4.325	-0.005	-0.031	
4.330	0.012	-0.021	
4.335	-0.045	-0.013	
4.340	-0.057	-0.013	
4.345	-0.035	-0.020	
4.350	-0.037	-0.027	
4.355	-0.098	-0.035	
4.360	-0.103	-0.048	
4.365	-0.118	-0.065	
4.370	-0.174	-0.085	
4.375	-0.185	-0.109	
4.380	-0.174	-0.134	
4.385	-0.194	-0.155	
4.390	-0.179	-0.171	
4.395	-0.126	-0.179	
4.400	-0.133	-0.175	
4.405	-0.142	-0.166	
4.410	-0.142	-0.157	
4.415	-0.135	-0.149	
4.420	-0.162	-0.144	
4.425	-0.148	-0.143	
4.430	-0.022	-0.139	
4.435	0.093	-0.115	
4.440	0.050	-0.073	
4.445	-0.014	-0.030	
4.450	-0.142	-0.009	
4.455	-0.177	-0.019	
4.460	-0.139	-0.050	
4.465	-0.084	-0.081	
4.470	-0.098	-0.100	
4.475	-0.075	-0.107	
4.480	-0.011	-0.103	
4.485	-0.016	-0.087	
4.490	-0.013	-0.066	
4.495	0.007	-0.045	
4.500	-0.017	-0.027	
4.505	-0.048	-0.016	
4.510	0.021	-0.013	
4.515	0.076	-0.005	
4.520	0.029	0.009	
4.525	0.013	0.021	
4.530	0.087	0.030	
4.535	0.125	0.043	
4.540	0.120	0.062	
4.545	0.146	0.084	
4.550	0.200	0.108	
4.555	0.233	0.135	
4.560	0.345	0.171	
4.565	0.427	0.219	
4.570	0.427	0.277	
4.575	0.510	0.337	
4.580	0.528	0.396	
4.585	0.470	0.446	
4.590	0.394	0.474	
4.595	0.383	0.476	
4.600	0.275	0.455	
4.605	0.131	0.410	
4.610	0.072	0.340	
4.615	-0.002	0.256	
4.620	-0.089	0.166	
4.625	-0.121	0.077	
4.630	-0.144	-0.002	
4.635	-0.200	-0.069	
4.640	-0.170	-0.122	
4.645	-0.148	-0.158	
4.650	-0.138	-0.174	
4.655	-0.168	-0.177	
4.660	-0.109	-0.173	
4.665	-0.112	-0.162	
4.670	-0.116	-0.147	
4.675	-0.049	-0.131	
4.680	-0.006	-0.109	
4.685	-0.029	-0.082	
4.690	-0.014	-0.058	
4.695	0.017	-0.037	
4.700	-0.040	-0.021	
4.705	-0.087	-0.016	
4.710	-0.072	-0.024	
4.715	-0.052	-0.036	
4.720	-0.130	-0.050	
4.725	-0.132	-0.068	
4.730	-0.124	-0.088	
4.735	-0.194	-0.108	
4.740	-0.203	-0.131	
4.745	-0.165	-0.154	
4.750	-0.196	-0.170	
4.755	-0.255	-0.184	
4.760	-0.219	-0.200	
4.765	-0.164	-0.210	
4.770	-0.184	-0.210	
4.775	-0.190	-0.205	
4.780	-0.228	-0.201	
4.785	-0.257	-0.203	
4.790	-0.200	-0.211	
4.795	-0.020	-0.207	
4.800	0.061	-0.175	
4.805	0.000	-0.122	
4.810	-0.103	-0.076	
4.815	-0.205	-0.058	
4.820	-0.277	-0.075	
4.825	-0.187	-0.113	
4.830	-0.087	-0.145	
4.835	-0.078	-0.154	
4.840	-0.060	-0.144	
4.845	0.001	-0.122	
4.850	-0.046	-0.093	
4.855	-0.092	-0.070	
4.860	-0.038	-0.058	
4.865	0.012	-0.049	
4.870	-0.042	-0.038	
4.875	0.117	-0.023	
4.880	1.000	0.043	
4.885	2.056	0.260	
4.890	2.846	0.686	
4.895	3.083	1.269	
4.900	3.081	1.879	
4.905	3.081	2.401	
4.910	3.081	2.783	
4.915	3.081	3.026	
4.920	3.086	3.156	
4.925	3.084	3.207	
4.930	2.953	3.203	
4.935	2.734	3.151	
4.940	2.524	3.049	
4.945	2.308	2.902	
4.950	2.036	2.717	
4.955	1.789	2.502	
4.960	1.624	2.268	
4.965	1.422	2.033	
4.970	1.069	1.797	
4.975	0.845	1.553	
4.980	0.621	1.302	
4.985	0.371	1.052	
4.990	0.214	0.808	
4.995	0.108	0.580	
5.000	-0.023	0.380	
5.005	-0.103	0.210	
5.010	-0.150	0.070	
5.015	-0.228	-0.041	
5.020	-0.286	-0.129	
5.025	-0.248	-0.197	
5.030	-0.234	-0.241	
5.035	-0.275	-0.264	
5.040	-0.292	-0.276	
5.045	-0.283	-0.284	
5.050	-0.294	-0.288	
5.055	-0.309	-0.292	
5.060	-0.304	-0.296	
5.065	-0.313	-0.300	
5.070	-0.408	-0.308	
5.075	-0.384	-0.325	
5.080	-0.373	-0.345	
5.085	-0.434	-0.363	
5.090	-0.501	-0.386	
5.095	-0.508	-0.415	
5.100	-0.518	-0.447	
5.105	-0.546	-0.476	
5.110	-0.544	-0.502	
5.115	-0.556	-0.524	
5.120	-0.587	-0.541	
5.125	-0.558	-0.555	
5.130	-0.540	-0.563	
5.135	-0.547	-0.564	
5.140	-0.572	-0.562	
5.145	-0.572	-0.562	
5.150	-0.578	-0.564	
5.155	-0.588	-0.567	
5.160	-0.482	-0.568	
5.165	-0.408	-0.554	
5.170	-0.451	-0.525	
5.175	-0.541	-0.500	
5.180	-0.645	-0.495	
5.185	-0.663	-0.517	
5.190	-0.599	-0.551	
5.195	-0.511	-0.575	
5.200	-0.425	-0.575	
5.205	-0.388	-0.550	
5.210	-0.355	-0.508	
5.215	-0.352	-0.460	
5.220	-0.368	-0.418	
5.225	-0.339	-0.386	
5.230	-0.281	-0.360	
5.235	-0.317	-0.337	
5.240	-0.317	-0.320	
5.245	-0.277	-0.310	
5.250	-0.251	-0.299	
5.255	-0.254	-0.286	
5.260	-0.225	-0.272	
5.265	-0.210	-0.258	
5.270	-0.236	-0.243	
5.275	-0.177	-0.231	
5.280	-0.130	-0.216	
5.285	-0.086	-0.192	
5.290	-0.043	-0.161	
5.295	0.090	-0.120	
5.300	0.169	-0.064	
5.305	0.157	0.003	
5.310	0.197	0.067	
5.315	0.275	0.124	
5.320	0.186	0.172	
5.325	0.185	0.202	
5.330	0.120	0.211	
5.335	-0.029	0.195	
5.340	-0.089	0.149	
5.345	-0.110	0.085	
5.350	-0.141	0.017	
5.355	-0.222	-0.048	
5.360	-0.248	-0.110	
5.365	-0.269	-0.165	
5.370	-0.307	-0.212	
5.375	-0.252	-0.249	
5.380	-0.242	-0.269	
5.385	-0.268	-0.276	
5.390	-0.266	-0.277	
5.395	-0.211	-0.272	
5.400	-0.211	-0.262	
5.405	-0.229	-0.248	
5.410	-0.156	-0.233	
5.415	-0.129	-0.214	
5.420	-0.202	-0.194	
5.425	-0.165	-0.180	
5.430	-0.139	-0.171	
5.435	-0.150	-0.162	
5.440	-0.184	-0.157	
5.445	-0.158	-0.156	
5.450	-0.187	-0.159	
5.455	-0.269	-0.168	
5.460	-0.225	-0.185	
5.465	-0.217	-0.202	
5.470	-0.249	-0.216	
5.475	-0.283	-0.228	
5.480	-0.271	-0.243	
5.485	-0.272	-0.255	
5.490	-0.281	-0.265	
5.495	-0.317	-0.274	
5.500	-0.338	-0.286	
5.505	-0.388	-0.302	
5.510	-0.407	-0.325	
5.515	-0.446	-0.352	
5.520	-0.535	-0.385	
5.525	-0.489	-0.423	
5.530	-0.445	-0.454	
5.535	-0.483	-0.471	
5.540	-0.602	-0.486	
5.545	-0.695	-0.513	
5.550	-0.787	-0.560	
5.555	-0.850	-0.624	
5.560	-0.805	-0.692	
5.565	-0.766	-0.747	
5.570	-0.830	-0.782	
5.575	-0.983	-0.812	
5.580	-0.995	-0.852	
5.585	-0.995	-0.897	
5.590	-0.993	-0.938	
5.595	-0.995	-0.968	
5.600	-0.993	-0.988	
5.605	-0.995	-0.998	
5.610	-0.993	-1.003	
5.615	-0.946	-1.001	
5.620	-0.891	-0.990	
5.625	-0.842	-0.966	
5.630	-0.668	-0.926	
5.635	-0.585	-0.863	
5.640	-0.483	-0.780	
5.645	-0.355	-0.683	
5.650	-0.248	-0.576	
5.655	-0.200	-0.465	
5.660	-0.127	-0.361	
5.665	0.050	-0.262	
5.670	0.152	-0.159	
5.675	0.319	-0.048	
5.680	0.478	0.074	
5.685	0.368	0.196	
5.690	0.292	0.289	
5.695	0.192	0.335	
5.700	0.154	0.333	
5.705	0.081	0.298	
5.710	0.140	0.247	
5.715	0.107	0.198	
5.720	0.042	0.155	
5.725	0.072	0.118	
5.730	0.088	0.090	
5.735	0.017	0.072	
5.740	0.101	0.060	
5.745	0.192	0.062	
5.750	0.172	0.082	
5.755	0.166	0.109	
5.760	0.275	0.138	
5.765	0.383	0.178	
5.770	0.357	0.229	
5.775	0.427	0.282	
5.780	0.496	0.335	
5.785	0.527	0.389	
5.790	0.563	0.441	
5.795	0.628	0.491	
5.800	0.641	0.538	
5.805	0.570	0.576	
5.810	0.615	0.599	
5.815	0.654	0.613	
5.820	0.441	0.616	
5.825	0.444	0.595	
5.830	0.522	0.560	
5.835	0.525	0.533	
5.840	0.482	0.516	
5.845	0.536	0.506	
5.850	0.467	0.501	
5.855	0.337	0.489	
5.860	0.438	0.466	
5.865	0.486	0.447	
5.870	0.403	0.439	
5.875	0.453	0.434	
5.880	0.420	0.432	
5.885	0.299	0.424	
5.890	0.319	0.404	
5.895	0.530	0.387	
5.900	0.611	0.399	
5.905	0.476	0.434	
5.910	0.333	0.459	
5.915	0.264	0.451	
5.920	0.130	0.410	
5.925	0.275	0.351	
5.930	0.490	0.311	
5.935	0.542	0.317	
5.940	0.547	0.359	
5.945	0.667	0.420	
5.950	0.641	0.489	
5.955	0.603	0.550	
5.960	0.672	0.595	
5.965	0.745	0.632	
5.970	0.657	0.663	
5.975	0.625	0.680	
5.980	0.637	0.680	
5.985	0.568	0.668	
5.990	0.611	0.649	
5.995	0.722	0.636	
6.000	0.699	0.639	
6.005	0.641	0.650	
6.010	0.722	0.660	
6.015	0.770	0.675	
6.020	0.625	0.691	
6.025	0.793	0.701	
6.030	0.929	0.721	
6.035	0.910	0.763	
6.040	0.909	0.811	
6.045	1.017	0.858	
6.050	0.973	0.903	
6.055	0.858	0.935	
6.060	0.838	0.941	
6.065	0.776	0.923	
6.070	0.568	0.880	
6.075	0.512	0.809	
6.080	0.449	0.718	
6.085	0.258	0.618	
6.090	0.172	0.507	
6.095	0.159	0.394	
6.100	0.152	0.296	
6.105	0.052	0.216	
6.110	0.056	0.152	
6.115	0.075	0.103	
6.120	0.012	0.070	
6.125	0.020	0.046	
6.130	0.067	0.032	
6.135	0.094	0.030	
6.140	0.030	0.037	
6.145	0.056	0.043	
6.150	0.177	0.053	
6.155	0.181	0.075	
6.160	0.252	0.109	
6.165	0.212	0.147	
6.170	0.156	0.177	
6.175	0.156	0.190	
6.180	0.145	0.190	
6.185	0.049	0.177	
6.190	0.012	0.150	
6.195	0.013	0.113	
6.200	-0.023	0.075	
6.205	-0.106	0.036	
6.210	-0.101	-0.006	
6.215	-0.066	-0.042	
6.220	-0.077	-0.067	
6.225	-0.049	-0.079	
6.230	-0.005	-0.078	
6.235	-0.058	-0.069	
6.240	-0.086	-0.062	
6.245	-0.064	-0.060	
6.250	-0.071	-0.061	
6.255	-0.127	-0.066	
6.260	-0.035	-0.073	
6.265	0.143	-0.065	
6.270	0.168	-0.030	
6.275	0.124	0.021	
6.280	-0.028	0.059	
6.285	-0.138	0.064	
6.290	-0.165	0.033	
6.295	-0.097	-0.014	
6.300	-0.003	-0.052	
6.305	-0.005	-0.065	
6.310	0.038	-0.059	
6.315	0.039	-0.040	
6.320	0.052	-0.015	
6.325	0.075	0.010	
6.330	0.104	0.034	
6.335	0.157	0.060	
6.340	0.122	0.087	
6.345	0.188	0.111	
6.350	0.215	0.135	
6.355	0.104	0.156	
6.360	0.165	0.164	
6.365	0.243	0.169	
6.370	0.217	0.180	
6.375	0.287	0.197	
6.380	0.327	0.220	
6.385	0.295	0.248	
6.390	0.330	0.274	
6.395	0.475	0.301	
6.400	0.525	0.343	
6.405	0.527	0.395	
6.410	0.602	0.448	
6.415	0.609	0.499	
6.420	0.475	0.538	
6.425	0.435	0.550	
6.430	0.438	0.537	
6.435	0.350	0.508	
6.440	0.186	0.461	
6.445	0.142	0.393	
6.450	0.029	0.310	
6.455	-0.066	0.218	
6.460	-0.083	0.124	
6.465	-0.066	0.041	
6.470	-0.121	-0.023	
6.475	-0.145	-0.071	
6.480	-0.121	-0.106	
6.485	-0.150	-0.128	
6.490	-0.167	-0.143	
6.495	-0.116	-0.151	
6.500	-0.103	-0.151	
6.505	-0.150	-0.144	
6.510	-0.089	-0.137	
6.515	-0.046	-0.126	
6.520	-0.086	-0.109	
6.525	-0.068	-0.094	
6.530	-0.064	-0.082	
6.535	-0.080	-0.074	
6.540	-0.080	-0.070	
6.545	-0.034	-0.068	
6.550	-0.002	-0.061	
6.555	-0.101	-0.053	
6.560	-0.064	-0.052	
6.565	-0.066	-0.055	
6.570	-0.127	-0.061	
6.575	-0.141	-0.075	
6.580	-0.142	-0.093	
6.585	-0.173	-0.112	
6.590	-0.196	-0.132	
6.595	-0.162	-0.152	
6.600	-0.141	-0.164	
6.605	-0.116	-0.165	
6.610	-0.084	-0.157	
6.615	-0.075	-0.140	
6.620	-0.124	-0.123	
6.625	-0.086	-0.110	
6.630	0.104	-0.093	
6.635	0.293	-0.048	
6.640	0.348	0.031	
6.645	0.243	0.121	
6.650	0.020	0.182	
6.655	-0.072	0.188	
6.660	-0.013	0.150	
6.665	0.039	0.101	
6.670	-0.023	0.060	
6.675	-0.034	0.027	
6.680	-0.058	-0.001	
6.685	-0.089	-0.026	
6.690	-0.089	-0.048	
6.695	-0.023	-0.064	
6.700	0.010	-0.065	
6.705	-0.043	-0.056	
6.710	0.007	-0.044	
6.715	0.018	-0.031	
6.720	-0.014	-0.017	
6.725	0.050	-0.005	
6.730	0.088	0.009	
6.735	0.076	0.029	
6.740	0.064	0.047	
6.745	0.232	0.068	
6.750	1.367	0.153	
6.755	2.811	0.433	
6.760	3.077	0.955	
6.765	3.072	1.591	
6.770	3.071	2.177	
6.775	3.072	2.630	
6.780	3.074	2.935	
6.785	3.077	3.110	
6.790	3.078	3.190	
6.795	3.081	3.209	
6.800	3.081	3.194	
6.805	2.678	3.148	
6.810	2.323	3.040	
6.815	1.983	2.856	
6.820	1.691	2.606	
6.825	1.402	2.315	
6.830	1.184	2.006	
6.835	0.904	1.700	
6.840	0.608	1.402	
6.845	0.524	1.118	
6.850	0.432	0.869	
6.855	0.208	0.659	
6.860	0.174	0.482	
6.865	0.108	0.336	
6.870	0.012	0.221	
6.875	-0.043	0.128	
6.880	-0.072	0.052	
6.885	-0.089	-0.008	
6.890	-0.103	-0.052	
6.895	-0.042	-0.080	
6.900	-0.013	-0.088	
6.905	-0.083	-0.082	
6.910	-0.089	-0.077	
6.915	-0.110	-0.077	
6.920	-0.176	-0.085	
6.925	-0.216	-0.105	
6.930	-0.251	-0.135	
6.935	-0.298	-0.171	
6.940	-0.370	-0.214	
6.945	-0.414	-0.262	
6.950	-0.410	-0.312	
6.955	-0.431	-0.356	
6.960	-0.411	-0.389	
6.965	-0.401	-0.410	
6.970	-0.426	-0.420	
6.975	-0.431	-0.426	
6.980	-0.433	-0.429	
6.985	-0.492	-0.434	
6.990	-0.556	-0.447	
6.995	-0.520	-0.469	
7.000	-0.407	-0.486	
7.005	-0.361	-0.483	
7.010	-0.268	-0.456	
7.015	-0.312	-0.415	
7.020	-0.478	-0.381	
7.025	-0.538	-0.378	
7.030	-0.526	-0.402	
7.035	-0.459	-0.434	
7.040	-0.423	-0.456	
7.045	-0.376	-0.460	
7.050	-0.376	-0.449	
7.055	-0.401	-0.431	
7.060	-0.381	-0.415	
7.065	-0.361	-0.400	
7.070	-0.419	-0.390	
7.075	-0.382	-0.385	
7.080	-0.317	-0.381	
7.085	-0.310	-0.370	
7.090	-0.333	-0.355	
7.095	-0.283	-0.340	
7.100	-0.255	-0.323	
7.105	-0.284	-0.305	
7.110	-0.237	-0.289	
7.115	-0.194	-0.272	
7.120	-0.216	-0.252	
7.125	-0.190	-0.233	
7.130	-0.122	-0.214	
7.135	-0.089	-0.189	
7.140	-0.110	-0.161	
7.145	-0.080	-0.136	
7.150	-0.055	-0.113	
7.155	-0.112	-0.095	
7.160	-0.066	-0.084	
7.165	-0.054	-0.077	
7.170	-0.127	-0.074	
7.175	-0.188	-0.081	
7.180	-0.237	-0.104	
7.185	-0.335	-0.142	
7.190	-0.408	-0.195	
7.195	-0.376	-0.256	
7.200	-0.384	-0.310	
7.205	-0.439	-0.352	
7.210	-0.431	-0.386	
7.215	-0.468	-0.413	
7.220	-0.503	-0.436	
7.225	-0.488	-0.458	
7.230	-0.440	-0.472	
7.235	-0.431	-0.475	
7.240	-0.419	-0.469	
7.245	-0.398	-0.456	
7.250	-0.370	-0.438	
7.255	-0.423	-0.421	
7.260	-0.333	-0.406	
7.265	-0.266	-0.387	
7.270	-0.306	-0.360	
7.275	-0.295	-0.334	
7.280	-0.277	-0.314	
7.285	-0.320	-0.300	
7.290	-0.318	-0.295	
7.295	-0.281	-0.295	
7.300	-0.306	-0.295	
7.305	-0.359	-0.299	
7.310	-0.375	-0.310	
7.315	-0.376	-0.327	
7.320	-0.423	-0.346	
7.325	-0.410	-0.367	
7.330	-0.352	-0.383	
7.335	-0.367	-0.389	
7.340	-0.376	-0.387	
7.345	-0.355	-0.383	
7.350	-0.375	-0.378	
7.355	-0.453	-0.377	
7.360	-0.451	-0.387	
7.365	-0.439	-0.403	
7.370	-0.381	-0.416	
7.375	-0.291	-0.414	
7.380	-0.252	-0.393	
7.385	-0.317	-0.361	
7.390	-0.498	-0.343	
7.395	-0.508	-0.354	
7.400	-0.453	-0.385	
7.405	-0.431	-0.415	
7.410	-0.330	-0.428	
7.415	-0.258	-0.418	
7.420	-0.260	-0.387	
7.425	-0.257	-0.348	
7.430	-0.228	-0.311	
7.435	-0.255	-0.280	
7.440	-0.232	-0.258	
7.445	-0.184	-0.241	
7.450	-0.127	-0.222	
7.455	-0.132	-0.198	
7.460	-0.080	-0.171	
7.465	-0.038	-0.142	
7.470	-0.060	-0.111	
7.475	0.006	-0.082	
7.480	0.163	-0.048	
7.485	0.183	0.002	
7.490	0.108	0.055	
7.495	0.226	0.100	
7.500	0.374	0.147	
7.505	0.389	0.206	
7.510	0.466	0.271	
7.515	0.570	0.341	
7.520	0.567	0.412	
7.525	0.496	0.473	
7.530	0.453	0.508	
7.535	0.359	0.513	
7.540	0.212	0.485	
7.545	0.189	0.426	
7.550	0.070	0.349	
7.555	-0.052	0.260	
7.560	-0.080	0.162	
7.565	-0.116	0.070	
7.570	-0.203	-0.013	
7.575	-0.213	-0.085	
7.580	-0.203	-0.143	
7.585	-0.202	-0.183	
7.590	-0.220	-0.207	
7.595	-0.220	-0.221	
7.600	-0.214	-0.227	
7.605	-0.239	-0.229	
7.610	-0.214	-0.230	
7.615	-0.161	-0.226	
7.620	-0.138	-0.213	
7.625	-0.153	-0.195	
7.630	-0.130	-0.176	
7.635	-0.097	-0.158	
7.640	-0.127	-0.141	
7.645	-0.132	-0.129	
7.650	-0.161	-0.124	
7.655	-0.210	-0.130	
7.660	-0.231	-0.146	
7.665	-0.243	-0.169	
7.670	-0.324	-0.197	
7.675	-0.433	-0.236	
7.680	-0.508	-0.290	
7.685	-0.648	-0.359	
7.690	-0.911	-0.452	
7.695	-0.993	-0.575	
7.700	-0.995	-0.708	
7.705	-0.995	-0.827	
7.710	-0.995	-0.916	
7.715	-0.995	-0.974	
7.720	-0.993	-1.007	
7.725	-0.993	-1.020	
7.730	-0.995	-1.022	
7.735	-0.995	-1.018	
7.740	-0.995	-1.012	
7.745	-0.993	-1.005	
7.750	-0.995	-1.000	
7.755	-0.995	-0.997	
7.760	-0.995	-0.994	
7.765	-0.995	-0.993	
7.770	-0.993	-0.993	
7.775	-0.879	-0.988	
7.780	-0.712	-0.963	
7.785	-0.593	-0.906	
7.790	-0.517	-0.823	
7.795	-0.370	-0.722	
7.800	-0.268	-0.609	
7.805	-0.249	-0.495	
7.810	-0.147	-0.389	
7.815	-0.040	-0.293	
7.820	-0.042	-0.203	
7.825	0.078	-0.124	
7.830	0.270	-0.044	
7.835	0.365	0.048	
7.840	0.388	0.149	
7.845	0.545	0.249	
7.850	0.643	0.350	
7.855	0.637	0.449	
7.860	0.704	0.536	
7.865	0.845	0.613	
7.870	0.935	0.691	
7.875	1.032	0.775	
7.880	1.112	0.863	
7.885	1.095	0.948	
7.890	1.139	1.019	
7.895	1.286	1.081	
7.900	1.304	1.144	
7.905	1.201	1.199	
7.910	1.176	1.229	
7.915	1.025	1.229	
7.920	0.771	1.186	
7.925	0.585	1.092	
7.930	0.559	0.959	
7.935	0.417	0.815	
7.940	0.319	0.672	
7.945	0.368	0.544	
7.950	0.353	0.445	
7.955	0.198	0.373	
7.960	0.244	0.315	
7.965	0.330	0.275	
7.970	0.302	0.260	
7.975	0.354	0.264	
7.980	0.386	0.282	
7.985	0.389	0.309	
7.990	0.463	0.340	
7.995	0.588	0.380	
8.000	0.635	0.435	
8.005	0.571	0.494	
8.010	0.680	0.545	
8.015	0.736	0.592	
8.020	0.646	0.636	
8.025	0.640	0.663	
8.030	0.649	0.672	
8.035	0.609	0.671	
8.040	0.544	0.657	
8.045	0.577	0.634	
8.050	0.577	0.611	
8.055	0.423	0.586	
8.060	0.440	0.552	
8.065	0.469	0.515	
8.070	0.389	0.483	
8.075	0.325	0.451	
8.080	0.441	0.420	
8.085	0.424	0.403	
8.090	0.318	0.394	
8.095	0.342	0.382	
8.100	0.353	0.368	
8.105	0.232	0.352	
8.110	0.288	0.330	
8.115	0.438	0.316	
8.120	0.402	0.323	
8.125	0.380	0.342	
8.130	0.322	0.356	
8.135	0.140	0.351	
8.140	-0.011	0.311	
8.145	0.091	0.244	
8.150	0.319	0.188	
8.155	0.350	0.176	
8.160	0.524	0.209	
8.165	0.612	0.279	
8.170	0.501	0.366	
8.175	0.484	0.438	
8.180	0.562	0.486	
8.185	0.518	0.518	
8.190	0.484	0.534	
8.195	0.533	0.537	
8.200	0.482	0.533	
8.205	0.466	0.523	
8.210	0.571	0.513	
8.215	0.625	0.517	
8.220	0.539	0.532	
8.225	0.508	0.543	
8.230	0.539	0.545	
8.235	0.599	0.546	
8.240	0.609	0.554	
8.245	0.728	0.573	
8.250	0.788	0.609	
8.255	0.699	0.652	
8.260	0.770	0.690	
8.265	0.808	0.721	
8.270	0.741	0.748	
8.275	0.707	0.761	
8.280	0.686	0.758	
8.285	0.609	0.741	
8.290	0.432	0.704	
8.295	0.408	0.642	
8.300	0.290	0.564	
8.305	0.017	0.468	
8.310	-0.019	0.349	
8.315	-0.022	0.223	
8.320	-0.074	0.114	
8.325	-0.092	0.028	
8.330	0.018	-0.031	
8.335	0.061	-0.054	
8.340	-0.019	-0.050	
8.345	0.032	-0.036	
8.350	0.136	-0.014	
8.355	0.101	0.018	
8.360	0.105	0.051	
8.365	0.131	0.078	
8.370	0.094	0.098	
8.375	0.065	0.108	
8.380	0.091	0.107	
8.385	0.134	0.105	
8.390	0.070	0.104	
8.395	0.116	0.103	
8.400	0.165	0.104	
8.405	0.076	0.110	
8.410	0.075	0.111	
8.415	0.082	0.105	
8.420	-0.009	0.093	
8.425	-0.074	0.070	
8.430	-0.034	0.036	
8.435	-0.061	0.004	
8.440	-0.089	-0.024	
8.445	-0.035	-0.046	
8.450	-0.028	-0.057	
8.455	-0.103	-0.061	
8.460	-0.093	-0.067	
8.465	-0.031	-0.072	
8.470	-0.061	-0.071	
8.475	-0.097	-0.069	
8.480	-0.069	-0.070	
8.485	-0.026	-0.070	
8.490	0.078	-0.059	
8.495	0.188	-0.028	
8.500	0.119	0.019	
8.505	-0.124	0.052	
8.510	-0.158	0.046	
8.515	-0.145	0.007	
8.520	-0.107	-0.039	
8.525	-0.035	-0.072	
8.530	0.055	-0.081	
8.535	0.079	-0.064	
8.540	0.052	-0.031	
8.545	0.142	0.006	
8.550	0.227	0.049	
8.555	0.143	0.095	
8.560	0.180	0.132	
8.565	0.253	0.161	
8.570	0.197	0.186	
8.575	0.180	0.202	
8.580	0.247	0.210	
8.585	0.261	0.218	
8.590	0.169	0.225	
8.595	0.232	0.226	
8.600	0.351	0.229	
8.605	0.330	0.247	
8.610	0.374	0.274	
8.615	0.495	0.310	
8.620	0.507	0.356	
8.625	0.545	0.408	
8.630	0.637	0.461	
8.635	0.644	0.516	
8.640	0.531	0.561	
8.645	0.530	0.583	
8.650	0.508	0.583	
8.655	0.350	0.563	
8.660	0.299	0.519	
8.665	0.238	0.456	
8.670	0.091	0.381	
8.675	-0.019	0.292	
8.680	-0.040	0.195	
8.685	-0.068	0.104	
8.690	-0.144	0.025	
8.695	-0.148	-0.041	
8.700	-0.148	-0.094	
8.705	-0.208	-0.132	
8.710	-0.158	-0.160	
8.715	-0.127	-0.174	
8.720	-0.136	-0.174	
8.725	-0.138	-0.167	
8.730	-0.107	-0.157	
8.735	-0.060	-0.142	
8.740	-0.104	-0.123	
8.745	-0.061	-0.107	
8.750	-0.016	-0.090	
8.755	-0.075	-0.073	
8.760	-0.072	-0.062	
8.765	-0.057	-0.058	
8.770	-0.026	-0.055	
8.775	-0.034	-0.050	
8.780	-0.057	-0.045	
8.785	-0.107	-0.046	
8.790	-0.164	-0.058	
8.795	-0.127	-0.079	
8.800	-0.121	-0.100	
8.805	-0.161	-0.116	
8.810	-0.162	-0.130	
8.815	-0.136	-0.142	
8.820	-0.173	-0.150	
8.825	-0.144	-0.155	
8.830	-0.110	-0.155	
8.835	-0.107	-0.148	
8.840	-0.159	-0.140	
8.845	-0.162	-0.137	
8.850	-0.136	-0.139	
8.855	-0.104	-0.139	
8.860	0.006	-0.129	
8.865	0.116	-0.099	
8.870	0.046	-0.053	
8.875	-0.104	-0.016	
8.880	-0.142	-0.009	
8.885	-0.165	-0.029	
8.890	-0.182	-0.064	
8.895	-0.090	-0.098	
8.900	-0.014	-0.114	
8.905	-0.054	-0.109	
8.910	-0.009	-0.092	
8.915	0.030	-0.069	
8.920	0.042	-0.040	
8.925	-0.008	-0.014	
8.930	0.075	0.006	
8.935	0.119	0.027	
8.940	0.101	0.051	
8.945	0.180	0.077	
8.950	0.246	0.108	
8.955	0.166	0.142	
8.960	0.194	0.168	
8.965	0.269	0.188	
8.970	0.284	0.210	
8.975	0.218	0.230	
8.980	0.278	0.244	
8.985	0.279	0.254	
8.990	0.414	0.270	
8.995	0.580	0.306	
9.000	0.646	0.369	
9.005	0.557	0.445	
9.010	0.563	0.507	
9.015	0.551	0.547	
9.020	0.473	0.564	
9.025	0.409	0.557	
9.030	0.328	0.525	
9.035	0.221	0.472	
9.040	0.052	0.397	
9.045	-0.003	0.301	
9.050	-0.069	0.198	
9.055	-0.145	0.097	
9.060	-0.155	0.006	
9.065	-0.135	-0.067	
9.070	-0.179	-0.119	
9.075	-0.214	-0.155	
9.080	-0.177	-0.180	
9.085	-0.205	-0.195	
9.090	-0.226	-0.204	
9.095	-0.095	-0.205	
9.100	0.145	-0.181	
9.105	0.191	-0.118	
9.110	0.097	-0.036	
9.115	0.053	0.031	
9.120	-0.074	0.064	
9.125	-0.112	0.059	
9.130	-0.109	0.027	
9.135	-0.078	-0.012	
9.140	-0.100	-0.046	
9.145	-0.087	-0.071	
9.150	-0.078	-0.087	
9.155	-0.176	-0.098	
9.160	-0.231	-0.116	
9.165	-0.173	-0.140	
9.170	-0.197	-0.162	
9.175	-0.226	-0.180	
9.180	-0.199	-0.194	
9.185	-0.185	-0.203	
9.190	-0.174	-0.204	
9.195	-0.038	-0.193	
9.200	0.081	-0.160	
9.205	0.064	-0.106	
9.210	0.124	-0.044	
9.215	0.175	0.017	
9.220	0.169	0.073	
9.225	0.206	0.121	
9.230	0.516	0.172	
9.235	0.667	0.254	
9.240	0.492	0.355	
9.245	0.301	0.430	
9.250	0.039	0.439	
9.255	-0.040	0.378	
9.260	0.029	0.278	
9.265	0.154	0.185	
9.270	0.211	0.131	
9.275	0.195	0.115	
9.280	0.206	0.124	
9.285	0.275	0.146	
9.290	0.201	0.174	
9.295	0.269	0.199	
9.300	0.327	0.224	
9.305	0.269	0.250	
9.310	0.249	0.268	
9.315	0.292	0.276	
9.320	0.250	0.279	
9.325	0.233	0.276	
9.330	0.247	0.268	
9.335	0.226	0.259	
9.340	0.194	0.248	
9.345	0.264	0.237	
9.350	0.204	0.231	
9.355	0.288	0.229	
9.360	0.547	0.248	
9.365	0.698	0.307	
9.370	0.701	0.401	
9.375	0.651	0.501	
9.380	0.699	0.582	
9.385	0.874	0.649	
9.390	0.863	0.715	
9.395	0.952	0.779	
9.400	0.985	0.840	
9.405	0.933	0.893	
9.410	0.938	0.929	
9.415	0.829	0.943	
9.420	0.655	0.926	
9.425	0.582	0.872	
9.430	0.505	0.792	
9.435	0.392	0.698	
9.440	0.139	0.589	
9.445	0.003	0.458	
9.450	-0.153	0.308	
9.455	-0.287	0.151	
9.460	-0.375	-0.006	
9.465	-0.446	-0.150	
9.470	-0.543	-0.277	
9.475	-0.588	-0.386	
9.480	-0.601	-0.475	
9.485	-0.610	-0.542	
9.490	-0.654	-0.589	
9.495	-0.621	-0.621	
9.500	-0.588	-0.636	
9.505	-0.593	-0.637	
9.510	-0.570	-0.628	
9.515	-0.530	-0.612	
9.520	-0.524	-0.591	
9.525	-0.529	-0.568	
9.530	-0.497	-0.548	
9.535	-0.501	-0.531	
9.540	-0.549	-0.519	
9.545	-0.512	-0.514	
9.550	-0.463	-0.511	
9.555	-0.475	-0.504	
9.560	-0.446	-0.493	
9.565	-0.393	-0.478	
9.570	-0.428	-0.459	
9.575	-0.500	-0.446	
9.580	-0.466	-0.444	
9.585	-0.475	-0.449	
9.590	-0.532	-0.459	
9.595	-0.506	-0.473	
9.600	-0.388	-0.482	
9.605	-0.257	-0.469	
9.610	-0.190	-0.426	
9.615	-0.202	-0.365	
9.620	-0.393	-0.313	
9.625	-0.459	-0.297	
9.630	-0.352	-0.310	
9.635	-0.246	-0.325	
9.640	-0.200	-0.320	
9.645	-0.139	-0.295	
9.650	-0.060	-0.253	
9.655	-0.055	-0.200	
9.660	-0.014	-0.146	
9.665	0.036	-0.094	
9.670	0.039	-0.047	
9.675	0.050	-0.008	
9.680	0.154	0.027	
9.685	0.233	0.066	
9.690	0.169	0.110	
9.695	0.269	0.150	
9.700	0.307	0.188	
9.705	0.178	0.222	
9.710	0.211	0.237	
9.715	0.324	0.244	
9.720	0.409	0.261	
9.725	0.434	0.293	
9.730	0.606	0.342	
9.735	0.652	0.409	
9.740	0.663	0.485	
9.745	0.744	0.559	
9.750	0.802	0.628	
9.755	0.684	0.686	
9.760	0.678	0.719	
9.765	0.704	0.730	
9.770	0.571	0.723	
9.775	0.411	0.690	
9.780	0.347	0.627	
9.785	0.221	0.541	
9.790	0.059	0.438	
9.795	0.017	0.323	
9.800	0.030	0.213	
9.805	-0.034	0.121	
9.810	-0.042	0.050	
9.815	0.006	0.001	
9.820	0.722	0.008	
9.825	2.273	0.182	
9.830	3.084	0.620	
9.835	3.075	1.252	
9.840	3.074	1.899	
9.845	3.072	2.434	
9.850	3.072	2.815	
9.855	3.075	3.050	
9.860	3.074	3.170	
9.865	3.074	3.211	
9.870	3.078	3.206	
9.875	3.080	3.180	
9.880	3.084	3.149	
9.885	2.928	3.114	
9.890	2.624	3.056	
9.895	2.352	2.949	
9.900	2.065	2.786	
9.905	1.760	2.572	
9.910	1.450	2.316	
9.915	1.231	2.035	
9.920	1.020	1.749	
9.925	0.759	1.471	
9.930	0.692	1.212	
9.935	0.580	0.987	
9.940	0.362	0.796	
9.945	0.247	0.627	
9.950	0.195	0.476	
9.955	0.059	0.347	
9.960	-0.081	0.230	
9.965	-0.167	0.117	
9.970	-0.174	0.013	
9.975	-0.167	-0.072	
9.980	-0.153	-0.131	
9.985	-0.223	-0.168	
9.990	-0.361	-0.200	
9.995	-0.466	-0.243	
10.000	-0.524	-0.304	
10.005	-0.511	-0.371	
10.010	-0.478	-0.429	
10.015	-0.426	-0.466	
10.020	-0.408	-0.478	
10.025	-0.472	-0.475	
10.030	-0.426	-0.468	
10.035	-0.382	-0.457	
10.040	-0.431	-0.442	
10.045	-0.440	-0.431	
10.050	-0.439	-0.427	
10.055	-0.426	-0.426	
10.060	-0.413	-0.426	
10.065	-0.417	-0.424	
10.070	-0.419	-0.422	
10.075	-0.453	-0.422	
10.080	-0.436	-0.425	
10.085	-0.419	-0.429	
10.090	-0.431	-0.430	
10.095	-0.381	-0.428	
10.100	-0.335	-0.418	
10.105	-0.356	-0.401	
10.110	-0.402	-0.386	
10.115	-0.352	-0.377	
10.120	-0.330	-0.369	
10.125	-0.376	-0.361	
10.130	-0.394	-0.359	
10.135	-0.433	-0.365	
10.140	-0.569	-0.385	
10.145	-0.672	-0.427	
10.150	-0.709	-0.490	
10.155	-0.798	-0.564	
10.160	-0.903	-0.644	
10.165	-0.984	-0.730	
10.170	-0.993	-0.816	
10.175	-0.995	-0.891	
10.180	-0.995	-0.947	
10.185	-0.995	-0.983	
10.190	-0.995	-1.003	
10.195	-0.995	-1.011	
10.200	-0.996	-1.012	
10.205	-0.995	-1.010	
10.210	-0.996	-1.006	
10.215	-0.996	-1.002	
10.220	-0.996	-0.999	
10.225	-0.995	-0.997	
10.230	-0.995	-0.996	
10.235	-0.995	-0.995	
10.240	-0.995	-0.995	
10.245	-0.995	-0.994	
10.250	-0.995	-0.994	
10.255	-0.995	-0.994	
10.260	-0.995	-0.995	
10.265	-0.980	-0.994	
10.270	-0.908	-0.988	
10.275	-0.883	-0.973	
10.280	-0.763	-0.944	
10.285	-0.665	-0.898	
10.290	-0.605	-0.834	
10.295	-0.497	-0.758	
10.300	-0.401	-0.673	
10.305	-0.393	-0.585	
10.310	-0.349	-0.505	
10.315	-0.239	-0.433	
10.320	-0.155	-0.363	
10.325	-0.121	-0.293	
10.330	-0.042	-0.224	
10.335	0.052	-0.156	
10.340	-0.006	-0.091	
10.345	0.183	-0.032	
10.350	0.458	0.040	
10.355	0.458	0.140	
10.360	0.441	0.248	
10.365	0.391	0.334	
10.370	0.337	0.387	
10.375	0.318	0.406	
10.380	0.463	0.406	
10.385	0.649	0.419	
10.390	0.721	0.462	
10.395	0.886	0.535	
10.400	0.952	0.632	
10.405	0.880	0.732	
10.410	0.887	0.812	
10.415	1.007	0.870	
10.420	1.063	0.921	
10.425	1.013	0.968	
10.430	1.048	1.003	
10.435	1.098	1.029	
10.440	0.936	1.045	
10.445	0.952	1.041	
10.450	1.019	1.025	
10.455	1.061	1.015	
10.460	1.097	1.018	
10.465	1.129	1.034	
10.470	1.190	1.061	
10.475	1.205	1.096	
10.480	1.306	1.137	
10.485	1.361	1.186	
10.490	1.193	1.232	
10.495	1.277	1.260	
10.500	1.298	1.273	
10.505	1.152	1.277	
10.510	1.091	1.259	
10.515	1.152	1.225	
10.520	0.993	1.185	
10.525	0.780	1.127	
10.530	0.702	1.041	
10.535	0.620	0.936	
10.540	0.495	0.824	
10.545	0.580	0.718	
10.550	0.495	0.632	
10.555	0.365	0.563	
10.560	0.395	0.500	
10.565	0.405	0.448	
10.570	0.290	0.409	
10.575	0.296	0.374	
10.580	0.406	0.347	
10.585	0.473	0.342	
10.590	0.385	0.357	
10.595	0.340	0.372	
10.600	0.295	0.373	
10.605	0.261	0.360	
10.610	0.366	0.341	
10.615	0.455	0.336	
10.620	0.429	0.350	
10.625	0.389	0.371	
10.630	0.461	0.390	
10.635	0.431	0.407	
10.640	0.266	0.414	
10.645	0.363	0.402	
10.650	0.446	0.388	
10.655	0.351	0.384	
10.660	0.192	0.373	
10.665	0.139	0.339	
10.670	0.140	0.288	
10.675	0.085	0.233	
10.680	0.226	0.188	
10.685	0.292	0.169	
10.690	0.200	0.175	
10.695	0.233	0.189	
10.700	0.250	0.203	
10.705	0.073	0.209	
10.710	0.046	0.194	
10.715	0.117	0.164	
10.720	0.204	0.141	
10.725	0.255	0.140	
10.730	0.322	0.161	
10.735	0.292	0.197	
10.740	-0.006	0.220	
10.745	-0.037	0.201	
10.750	0.075	0.155	
10.755	0.055	0.111	
10.760	0.090	0.082	
10.765	0.232	0.074	
10.770	0.292	0.095	
10.775	0.236	0.137	
10.780	0.308	0.181	
10.785	0.295	0.223	
10.790	0.192	0.252	
10.795	0.273	0.264	
10.800	0.356	0.272	
10.805	0.295	0.284	
10.810	0.334	0.297	
10.815	0.408	0.312	
10.820	0.366	0.331	
10.825	0.252	0.344	
10.830	0.324	0.342	
10.835	0.429	0.339	
10.840	0.466	0.351	
10.845	0.735	0.389	
10.850	0.913	0.467	
10.855	0.929	0.580	
10.860	0.922	0.699	
10.865	1.043	0.805	
10.870	1.065	0.896	
10.875	0.921	0.965	
10.880	0.929	0.997	
10.885	0.851	0.997	
10.890	0.573	0.960	
10.895	0.452	0.878	
10.900	0.379	0.761	
10.905	0.281	0.632	
10.910	0.159	0.503	
10.915	0.111	0.379	
10.920	0.073	0.269	
10.925	-0.013	0.177	
10.930	-0.058	0.098	
10.935	-0.083	0.032	
10.940	-0.148	-0.024	
10.945	-0.121	-0.070	
10.950	-0.075	-0.101	
10.955	-0.086	-0.114	
10.960	-0.119	-0.117	
10.965	-0.043	-0.113	
10.970	-0.023	-0.101	
10.975	-0.068	-0.084	
10.980	-0.040	-0.069	
10.985	-0.003	-0.056	
10.990	-0.106	-0.046	
10.995	-0.043	-0.045	
11.000	-0.014	-0.045	
11.005	-0.035	-0.042	
11.010	-0.069	-0.040	
11.015	-0.022	-0.040	
11.020	-0.048	-0.041	
11.025	-0.165	-0.046	
11.030	-0.170	-0.066	
11.035	-0.130	-0.093	
11.040	-0.200	-0.118	
11.045	-0.200	-0.142	
11.050	-0.132	-0.162	
11.055	-0.126	-0.169	
11.060	-0.165	-0.166	
11.065	-0.153	-0.163	
11.070	-0.170	-0.160	
11.075	-0.197	-0.161	
11.080	-0.190	-0.167	
11.085	-0.174	-0.174	
11.090	-0.194	-0.179	
11.095	-0.092	-0.178	
11.100	-0.009	-0.163	
11.105	-0.032	-0.132	
11.110	-0.135	-0.102	
11.115	-0.182	-0.091	
11.120	-0.177	-0.100	
11.125	-0.202	-0.120	
11.130	-0.119	-0.140	
11.135	-0.055	-0.147	
11.140	-0.051	-0.136	
11.145	-0.009	-0.113	
11.150	0.012	-0.084	
11.155	0.020	-0.052	
11.160	0.017	-0.024	
11.165	0.044	-0.001	
11.170	0.032	0.016	
11.175	-0.009	0.027	
11.180	0.029	0.029	
11.185	0.042	0.029	
11.190	-0.008	0.028	
11.195	0.052	0.026	
11.200	0.149	0.032	
11.205	0.119	0.050	
11.210	0.120	0.074	
11.215	0.172	0.096	
11.220	0.270	0.123	
11.225	0.307	0.161	
11.230	0.359	0.207	
11.235	0.438	0.259	
11.240	0.353	0.310	
11.245	0.359	0.347	
11.250	0.402	0.369	
11.255	0.377	0.383	
11.260	0.296	0.386	
11.265	0.261	0.373	
11.270	0.259	0.348	
11.275	0.076	0.310	
11.280	0.015	0.254	
11.285	-0.019	0.184	
11.290	-0.113	0.109	
11.295	-0.156	0.034	
11.300	-0.173	-0.037	
11.305	-0.185	-0.097	
11.310	-0.208	-0.143	
11.315	-0.229	-0.178	
11.320	-0.226	-0.203	
11.325	-0.246	-0.221	
11.330	-0.210	-0.232	
11.335	-0.135	-0.231	
11.340	-0.098	-0.215	
11.345	-0.016	-0.183	
11.350	0.085	-0.136	
11.355	0.137	-0.074	
11.360	0.175	-0.005	
11.365	0.175	0.060	
11.370	0.059	0.108	
11.375	-0.022	0.124	
11.380	-0.048	0.108	
11.385	-0.074	0.071	
11.390	-0.092	0.027	
11.395	-0.089	-0.016	
11.400	-0.145	-0.053	
11.405	-0.237	-0.090	
11.410	-0.326	-0.135	
11.415	-0.347	-0.190	
11.420	-0.341	-0.244	
11.425	-0.329	-0.288	
11.430	-0.292	-0.317	
11.435	-0.263	-0.326	
11.440	0.392	-0.290	
11.445	1.931	-0.106	
11.450	3.029	0.340	
11.455	3.081	1.008	
11.460	3.078	1.716	
11.465	3.080	2.316	
11.470	3.081	2.752	
11.475	3.080	3.027	
11.480	3.083	3.172	
11.485	2.974	3.222	
11.490	2.375	3.178	
11.495	2.026	3.020	
11.500	1.856	2.767	
11.505	1.642	2.472	
11.510	1.303	2.168	
11.515	1.074	1.864	
11.520	0.782	1.566	
11.525	-0.139	1.246	
11.530	-0.786	0.845	
11.535	-0.993	0.367	
11.540	-0.995	-0.109	
11.545	-0.995	-0.507	
11.550	-0.995	-0.792	
11.555	-0.995	-0.970	
11.560	-0.995	-1.062	
11.565	-0.995	-1.095	
11.570	-0.995	-1.093	
11.575	-0.995	-1.073	
11.580	-0.993	-1.049	
11.585	-0.995	-1.027	
11.590	-0.978	-1.010	
11.595	-0.877	-0.991	
11.600	-0.778	-0.961	
11.605	-0.686	-0.913	
11.610	-0.622	-0.849	
11.615	-0.517	-0.773	
11.620	-0.454	-0.691	
11.625	-0.443	-0.609	
11.630	-0.401	-0.537	
11.635	-0.342	-0.475	
11.640	-0.370	-0.425	
11.645	-0.381	-0.389	
11.650	-0.368	-0.369	
11.655	-0.404	-0.361	
11.660	-0.431	-0.365	
11.665	-0.390	-0.376	
11.670	-0.378	-0.385	
11.675	-0.416	-0.390	
11.680	-0.385	-0.395	
11.685	-0.332	-0.394	
11.690	-0.371	-0.387	
11.695	-0.339	-0.377	
11.700	-0.226	-0.361	
11.705	-0.191	-0.332	
11.710	-0.167	-0.293	
11.715	-0.113	-0.249	
11.720	-0.110	-0.204	
11.725	-0.158	-0.167	
11.730	-0.068	-0.141	
11.735	-0.019	-0.117	
11.740	-0.029	-0.089	
11.745	-0.031	-0.064	
11.750	0.015	-0.044	
11.755	-0.020	-0.026	
11.760	-0.019	-0.015	
11.765	0.055	-0.007	
11.770	0.018	0.003	
11.775	-0.089	0.008	
11.780	-0.061	-0.001	
11.785	-0.075	-0.019	
11.790	-0.118	-0.039	
11.795	-0.112	-0.062	
11.800	-0.103	-0.082	
11.805	-0.119	-0.097	
11.810	-0.121	-0.107	
11.815	-0.075	-0.113	
11.820	-0.090	-0.112	
11.825	-0.176	-0.110	
11.830	-0.164	-0.117	
11.835	-0.121	-0.128	
11.840	-0.092	-0.132	
11.845	0.091	-0.120	
11.850	0.275	-0.075	
11.855	0.235	0.001	
11.860	0.041	0.075	
11.865	-0.118	0.107	
11.870	-0.159	0.086	
11.875	-0.188	0.031	
11.880	-0.112	-0.031	
11.885	0.006	-0.075	
11.890	0.000	-0.087	
11.895	0.026	-0.076	
11.900	0.084	-0.050	
11.905	0.033	-0.018	
11.910	0.015	0.009	
11.915	0.084	0.028	
11.920	0.090	0.044	
11.925	0.061	0.059	
11.930	0.131	0.071	
11.935	0.152	0.086	
11.940	0.108	0.103	
11.945	0.168	0.117	
11.950	0.250	0.134	
11.955	0.221	0.159	
11.960	0.252	0.185	
11.965	0.371	0.215	
11.970	0.469	0.257	
11.975	0.380	0.308	
11.980	0.492	0.356	
11.985	0.583	0.404	
11.990	0.515	0.453	
11.995	0.510	0.491	
12.000	0.577	0.517	
12.005	0.577	0.538	
12.010	0.414	0.548	
12.015	0.371	0.533	
12.020	0.229	0.492	
12.025	0.010	0.419	
12.030	-0.084	0.314	
12.035	-0.150	0.190	
12.040	-0.249	0.065	
12.045	-0.310	-0.053	
12.050	-0.304	-0.155	
12.055	-0.313	-0.234	
12.060	-0.332	-0.288	
12.065	-0.304	-0.320	
12.070	-0.307	-0.335	
12.075	-0.353	-0.339	
12.080	-0.277	-0.338	
12.085	-0.211	-0.326	
12.090	-0.203	-0.302	
12.095	-0.200	-0.272	
12.100	-0.161	-0.243	
12.105	-0.164	-0.215	
12.110	-0.185	-0.193	
12.115	-0.133	-0.177	
12.120	-0.106	-0.162	
12.125	-0.118	-0.146	
12.130	-0.090	-0.132	
12.135	-0.051	-0.116	
12.140	-0.090	-0.100	
12.145	-0.084	-0.088	
12.150	-0.104	-0.083	
12.155	-0.084	-0.082	
12.160	-0.145	-0.086	
12.165	-0.142	-0.096	
12.170	-0.155	-0.110	
12.175	-0.181	-0.126	
12.180	-0.161	-0.142	
12.185	-0.116	-0.152	
12.190	-0.145	-0.154	
12.195	-0.139	-0.151	
12.200	-0.075	-0.145	
12.205	-0.092	-0.133	
12.210	-0.142	-0.121	
12.215	-0.104	-0.115	
12.220	-0.023	-0.108	
12.225	0.020	-0.091	
12.230	0.010	-0.064	
12.235	-0.034	-0.039	
12.240	-0.197	-0.031	
12.245	-0.254	-0.053	
12.250	-0.229	-0.097	
12.255	-0.141	-0.140	
12.260	-0.049	-0.161	
12.265	0.044	-0.151	
12.270	0.116	-0.111	
12.275	0.058	-0.055	
12.280	0.148	-0.000	
12.285	0.174	0.051	
12.290	0.096	0.094	
12.295	0.128	0.121	
12.300	0.238	0.139	
12.305	0.273	0.163	
12.310	0.236	0.191	
12.315	0.321	0.219	
12.320	0.328	0.248	
12.325	0.256	0.274	
12.330	0.351	0.291	
12.335	0.424	0.309	
12.340	0.314	0.331	
12.345	0.386	0.347	
12.350	0.482	0.363	
12.355	0.547	0.392	
12.360	0.562	0.432	
12.365	0.655	0.480	
12.370	0.706	0.533	
12.375	0.565	0.583	
12.380	0.583	0.611	
12.385	0.615	0.621	
12.390	0.476	0.616	
12.395	0.372	0.590	
12.400	0.243	0.536	
12.405	0.062	0.453	
12.410	-0.020	0.344	
12.415	0.007	0.229	
12.420	-0.025	0.128	
12.425	-0.113	0.048	
12.430	-0.121	-0.017	
12.435	-0.127	-0.069	
12.440	-0.158	-0.106	
12.445	-0.171	-0.133	
12.450	-0.164	-0.152	
12.455	-0.203	-0.166	
12.460	-0.291	-0.182	
12.465	-0.236	-0.203	
12.470	-0.203	-0.221	
12.475	-0.248	-0.230	
12.480	-0.200	-0.233	
12.485	-0.142	-0.228	
12.490	-0.174	-0.214	
12.495	-0.158	-0.198	
12.500	-0.103	-0.180	
12.505	-0.141	-0.162	
12.510	-0.136	-0.147	
12.515	-0.095	-0.136	
12.520	-0.086	-0.124	
12.525	-0.170	-0.116	
12.530	-0.150	-0.117	
12.535	-0.141	-0.124	
12.540	-0.197	-0.134	
12.545	-0.176	-0.147	
12.550	-0.104	-0.156	
12.555	-0.122	-0.155	
12.560	-0.177	-0.150	
12.565	-0.145	-0.149	
12.570	-0.107	-0.147	
12.575	-0.156	-0.143	
12.580	-0.130	-0.140	
12.585	-0.109	-0.137	
12.590	-0.144	-0.133	
12.595	-0.129	-0.130	
12.600	-0.055	-0.126	
12.605	-0.006	-0.112	
12.610	-0.064	-0.091	
12.615	-0.100	-0.074	
12.620	-0.158	-0.072	
12.625	-0.185	-0.085	
12.630	-0.133	-0.106	
12.635	-0.043	-0.120	
12.640	0.036	-0.113	
12.645	0.050	-0.085	
12.650	0.154	-0.042	
12.655	0.105	0.008	
12.660	0.107	0.053	
12.665	0.229	0.091	
12.670	0.328	0.134	
12.675	0.243	0.182	
12.680	0.178	0.218	
12.685	0.249	0.235	
12.690	0.249	0.242	
12.695	0.272	0.248	
12.700	0.347	0.258	
12.705	0.321	0.274	
12.710	0.292	0.291	
12.715	0.347	0.303	
12.720	0.432	0.318	
12.725	0.389	0.341	
12.730	0.441	0.365	
12.735	0.560	0.395	
12.740	0.562	0.434	
12.745	0.568	0.477	
12.750	0.567	0.515	
12.755	0.473	0.539	
12.760	0.359	0.537	
12.765	0.426	0.512	
12.770	0.464	0.482	
12.775	0.331	0.457	
12.780	0.266	0.424	
12.785	0.172	0.377	
12.790	-0.032	0.311	
12.795	-0.086	0.223	
12.800	-0.101	0.124	
12.805	-0.090	0.035	
12.810	-0.121	-0.034	
12.815	-0.092	-0.081	
12.820	-0.104	-0.108	
12.825	-0.177	-0.124	
12.830	-0.119	-0.135	
12.835	-0.046	-0.137	
12.840	-0.081	-0.126	
12.845	-0.078	-0.111	
12.850	-0.034	-0.095	
12.855	-0.017	-0.078	
12.860	-0.077	-0.061	
12.865	-0.084	-0.054	
12.870	0.029	-0.050	
12.875	0.032	-0.039	
12.880	0.047	-0.020	
12.885	0.094	0.004	
12.890	0.001	0.025	
12.895	-0.038	0.034	
12.900	-0.080	0.025	
12.905	-0.118	0.001	
12.910	-0.181	-0.034	
12.915	-0.113	-0.072	
12.920	-0.060	-0.099	
12.925	-0.112	-0.110	
12.930	-0.122	-0.114	
12.935	-0.115	-0.116	
12.940	-0.138	-0.119	
12.945	-0.135	-0.122	
12.950	-0.080	-0.124	
12.955	-0.066	-0.118	
12.960	-0.119	-0.109	
12.965	-0.113	-0.104	
12.970	-0.109	-0.103	
12.975	-0.087	-0.103	
12.980	0.013	-0.096	
12.985	0.058	-0.075	
12.990	-0.063	-0.048	
12.995	-0.177	-0.037	
13.000	-0.174	-0.052	
13.005	-0.135	-0.081	
13.010	-0.216	-0.110	
13.015	-0.141	-0.137	
13.020	0.059	-0.145	
13.025	0.117	-0.118	
13.030	0.186	-0.061	
13.035	0.250	0.013	
13.040	0.195	0.087	
13.045	0.073	0.141	
13.050	0.072	0.160	
13.055	0.140	0.157	
13.060	0.076	0.146	
13.065	0.174	0.135	
13.070	0.278	0.137	
13.075	0.188	0.155	
13.080	0.233	0.176	
13.085	0.263	0.197	
13.090	0.178	0.213	
13.095	0.224	0.221	
13.100	0.340	0.229	
13.105	0.397	0.250	
13.110	0.389	0.285	
13.115	0.525	0.328	
13.120	0.577	0.382	
13.125	0.463	0.436	
13.130	0.426	0.472	
13.135	0.466	0.484	
13.140	0.400	0.482	
13.145	0.342	0.466	
13.150	0.371	0.440	
13.155	0.331	0.411	
13.160	0.270	0.381	
13.165	0.194	0.345	
13.170	0.128	0.300	
13.175	0.010	0.244	
13.180	-0.032	0.176	
13.185	-0.014	0.108	
13.190	-0.092	0.047	
13.195	-0.106	-0.006	
13.200	-0.061	-0.047	
13.205	-0.049	-0.072	
13.210	-0.113	-0.083	
13.215	-0.045	-0.088	
13.220	-0.011	-0.084	
13.225	-0.087	-0.074	
13.230	-0.037	-0.065	
13.235	0.001	-0.057	
13.240	-0.031	-0.045	
13.245	-0.046	-0.036	
13.250	-0.009	-0.031	
13.255	-0.016	-0.026	
13.260	-0.046	-0.023	
13.265	0.009	-0.022	
13.270	0.036	-0.017	
13.275	-0.071	-0.011	
13.280	-0.115	-0.016	
13.285	-0.087	-0.033	
13.290	-0.115	-0.055	
13.295	-0.138	-0.076	
13.300	-0.121	-0.096	
13.305	-0.130	-0.112	
13.310	-0.162	-0.124	
13.315	-0.144	-0.135	
13.320	-0.132	-0.142	
13.325	-0.133	-0.144	
13.330	-0.126	-0.143	
13.335	-0.101	-0.138	
13.340	-0.174	-0.134	
13.345	-0.205	-0.137	
13.350	-0.130	-0.146	
13.355	-0.028	-0.147	
13.360	-0.017	-0.129	
13.365	-0.008	-0.100	
13.370	-0.119	-0.074	
13.375	-0.220	-0.069	
13.380	-0.202	-0.089	
13.385	-0.141	-0.118	
13.390	-0.138	-0.139	
13.395	-0.064	-0.146	
13.400	0.036	-0.133	
13.405	0.079	-0.098	
13.410	0.061	-0.051	
13.415	0.133	-0.003	
13.420	0.102	0.041	
13.425	0.072	0.074	
13.430	0.070	0.091	
13.435	0.113	0.097	
13.440	0.075	0.100	
13.445	0.013	0.095	
13.450	0.105	0.085	
13.455	0.172	0.082	
13.460	0.064	0.090	
13.465	0.110	0.096	
13.470	0.273	0.107	
13.475	0.256	0.134	
13.480	0.305	0.174	
13.485	0.429	0.221	
13.490	0.463	0.278	
13.495	0.443	0.338	
13.500	0.455	0.388	
13.505	0.502	0.427	
13.510	0.446	0.455	
13.515	0.460	0.470	
13.520	0.409	0.473	
13.525	0.226	0.456	
13.530	0.085	0.408	
13.535	0.061	0.330	
13.540	-0.003	0.240	
13.545	-0.081	0.150	
13.550	-0.101	0.066	
13.555	-0.112	-0.006	
13.560	-0.181	-0.063	
13.565	-0.184	-0.110	
13.570	-0.165	-0.146	
13.575	-0.210	-0.170	
13.580	-0.182	-0.186	
13.585	-0.116	-0.191	
13.590	-0.129	-0.183	
13.595	-0.139	-0.170	
13.600	-0.118	-0.156	
13.605	-0.104	-0.142	
13.610	-0.095	-0.129	
13.615	-0.032	-0.113	
13.620	0.012	-0.092	
13.625	-0.043	-0.067	
13.630	-0.081	-0.049	
13.635	-0.002	-0.041	
13.640	-0.003	-0.033	
13.645	-0.034	-0.026	
13.650	-0.051	-0.023	
13.655	-0.075	-0.027	
13.660	-0.174	-0.041	
13.665	-0.156	-0.067	
13.670	-0.188	-0.099	
13.675	-0.176	-0.129	
13.680	-0.142	-0.151	
13.685	-0.122	-0.161	
13.690	-0.139	-0.161	
13.695	-0.138	-0.156	
13.700	-0.139	-0.150	
13.705	-0.112	-0.144	
13.710	-0.181	-0.139	
13.715	-0.203	-0.143	
13.720	-0.158	-0.152	
13.725	-0.119	-0.158	
13.730	0.024	-0.149	
13.735	0.125	-0.115	
13.740	0.029	-0.063	
13.745	-0.110	-0.022	
13.750	-0.170	-0.015	
13.755	-0.167	-0.037	
13.760	-0.174	-0.072	
13.765	-0.127	-0.106	
13.770	-0.042	-0.125	
13.775	-0.046	-0.123	
13.780	-0.008	-0.106	
13.785	0.026	-0.079	
13.790	0.020	-0.049	
13.795	-0.029	-0.023	
13.800	0.085	-0.004	
13.805	0.113	0.018	
13.810	-0.008	0.039	
13.815	0.070	0.050	
13.820	0.125	0.058	
13.825	0.088	0.070	
13.830	0.125	0.083	
13.835	0.183	0.098	
13.840	0.169	0.118	
13.845	0.186	0.138	
13.850	0.270	0.160	
13.855	0.365	0.192	
13.860	0.374	0.235	
13.865	0.435	0.285	
13.870	0.512	0.338	
13.875	0.489	0.391	
13.880	0.510	0.437	
13.885	0.574	0.475	
13.890	0.414	0.502	
13.895	0.347	0.503	
13.900	0.347	0.478	
13.905	0.263	0.437	
13.910	0.085	0.381	
13.915	-0.002	0.303	
13.920	-0.040	0.210	
13.925	-0.118	0.117	
13.930	-0.179	0.028	
13.935	-0.165	-0.050	
13.940	-0.179	-0.111	
13.945	-0.205	-0.154	
13.950	-0.187	-0.183	
13.955	-0.185	-0.198	
13.960	-0.242	-0.206	
13.965	-0.188	-0.212	
13.970	-0.127	-0.209	
13.975	-0.141	-0.197	
13.980	-0.136	-0.179	
13.985	-0.100	-0.161	
13.990	-0.077	-0.142	
13.995	-0.081	-0.121	
14.000	-0.072	-0.103	
14.005	-0.075	-0.089	
14.010	-0.081	-0.080	
14.015	-0.029	-0.073	
14.020	-0.016	-0.063	
14.025	-0.061	-0.052	
14.030	-0.116	-0.049	
14.035	-0.142	-0.059	
14.040	-0.184	-0.079	
14.045	-0.210	-0.108	
14.050	-0.179	-0.138	
14.055	-0.133	-0.160	
14.060	-0.161	-0.169	
14.065	-0.126	-0.169	
14.070	-0.126	-0.163	
14.075	-0.170	-0.155	
14.080	-0.177	-0.152	
14.085	-0.176	-0.155	
14.090	-0.231	-0.163	
14.095	-0.219	-0.176	
14.100	-0.064	-0.184	
14.105	0.107	-0.165	
14.110	0.149	-0.112	
14.115	0.140	-0.039	
14.120	-0.034	0.022	
14.125	-0.184	0.042	
14.130	-0.199	0.017	
14.135	-0.144	-0.032	
14.140	-0.090	-0.077	
14.145	-0.063	-0.102	
14.150	0.017	-0.105	
14.155	0.030	-0.087	
14.160	0.021	-0.058	
14.165	0.023	-0.028	
14.170	0.097	-0.001	
14.175	0.072	0.026	
14.180	0.105	0.050	
14.185	0.154	0.073	
14.190	0.139	0.096	
14.195	0.082	0.114	
14.200	0.178	0.123	
14.205	0.267	0.138	
14.210	0.243	0.164	
14.215	0.267	0.193	
14.220	0.333	0.223	
14.225	0.301	0.254	
14.230	0.304	0.279	
14.235	0.460	0.303	
14.240	0.579	0.342	
14.245	0.594	0.400	
14.250	0.620	0.465	
14.255	0.602	0.523	
14.260	0.527	0.564	
14.265	0.562	0.582	
14.270	0.522	0.584	
14.275	0.362	0.568	
14.280	0.204	0.522	
14.285	0.117	0.444	
14.290	0.020	0.345	
14.295	-0.080	0.236	
14.300	-0.106	0.128	
14.305	-0.153	0.030	
14.310	-0.196	-0.051	
14.315	-0.208	-0.117	
14.320	-0.217	-0.165	
14.325	-0.211	-0.198	
14.330	-0.219	-0.218	
14.335	-0.194	-0.226	
14.340	-0.177	-0.224	
14.345	-0.193	-0.216	
14.350	-0.158	-0.206	
14.355	-0.130	-0.192	
14.360	-0.141	-0.176	
14.365	-0.152	-0.161	
14.370	-0.113	-0.150	
14.375	-0.127	-0.140	
14.380	-0.126	-0.132	
14.385	-0.074	-0.125	
14.390	-0.055	-0.113	
14.395	-0.087	-0.099	
14.400	-0.058	-0.087	
14.405	-0.095	-0.079	
14.410	-0.141	-0.078	
14.415	-0.159	-0.088	
14.420	-0.152	-0.105	
14.425	-0.226	-0.126	
14.430	-0.243	-0.152	
14.435	-0.228	-0.180	
14.440	-0.217	-0.203	
14.445	-0.232	-0.218	
14.450	-0.177	-0.225	
14.455	-0.158	-0.221	
14.460	-0.194	-0.210	
14.465	-0.193	-0.200	
14.470	-0.181	-0.193	
14.475	-0.135	-0.186	
14.480	-0.034	-0.170	
14.485	0.059	-0.138	
14.490	-0.006	-0.093	
14.495	-0.190	-0.060	
14.500	-0.252	-0.062	
14.505	-0.260	-0.096	
14.510	-0.245	-0.142	
14.515	-0.164	-0.180	
14.520	-0.038	-0.194	
14.525	-0.057	-0.179	
14.530	-0.017	-0.146	
14.535	0.084	-0.103	
14.540	0.055	-0.054	
14.545	0.035	-0.009	
14.550	0.124	0.026	
14.555	0.127	0.057	
14.560	0.107	0.085	
14.565	0.099	0.102	
14.570	0.165	0.114	
14.575	0.166	0.126	
14.580	0.168	0.139	
14.585	0.233	0.154	
14.590	0.270	0.175	
14.595	0.276	0.201	
14.600	0.325	0.230	
14.605	0.411	0.263	
14.610	0.402	0.303	
14.615	0.516	0.346	
14.620	0.576	0.396	
14.625	0.516	0.448	
14.630	0.479	0.488	
14.635	0.513	0.509	
14.640	0.499	0.518	
14.645	0.388	0.514	
14.650	0.310	0.491	
14.655	0.142	0.442	
14.660	-0.049	0.361	
14.665	-0.116	0.252	
14.670	-0.159	0.131	
14.675	-0.239	0.016	
14.680	-0.284	-0.086	
14.685	-0.303	-0.171	
14.690	-0.275	-0.235	
14.695	-0.297	-0.277	
14.700	-0.315	-0.300	
14.705	-0.262	-0.311	
14.710	-0.257	-0.310	
14.715	-0.220	-0.298	
14.720	-0.148	-0.276	
14.725	-0.188	-0.247	
14.730	-0.170	-0.219	
14.735	-0.142	-0.196	
14.740	-0.147	-0.176	
14.745	-0.150	-0.161	
14.750	-0.064	-0.147	
14.755	-0.043	-0.128	
14.760	-0.089	-0.106	
14.765	-0.080	-0.090	
14.770	-0.069	-0.080	
14.775	-0.113	-0.075	
14.780	-0.113	-0.078	
14.785	-0.078	-0.084	
14.790	-0.097	-0.089	
14.795	-0.145	-0.094	
14.800	-0.116	-0.102	
14.805	-0.100	-0.109	
14.810	-0.187	-0.116	
14.815	-0.124	-0.125	
14.820	-0.055	-0.129	
14.825	-0.101	-0.123	
14.830	-0.066	-0.112	
14.835	-0.087	-0.101	
14.840	-0.122	-0.093	
14.845	-0.119	-0.093	
14.850	-0.023	-0.094	
14.855	0.097	-0.080	
14.860	0.023	-0.049	
14.865	0.001	-0.019	
14.870	-0.129	-0.005	
14.875	-0.220	-0.019	
14.880	-0.159	-0.056	
14.885	-0.064	-0.092	
14.890	0.042	-0.104	
14.895	0.056	-0.087	
14.900	0.146	-0.049	
14.905	0.116	0.000	
14.910	0.110	0.047	
14.915	0.230	0.087	
14.920	0.244	0.129	
14.925	0.191	0.167	
14.930	0.236	0.195	
14.935	0.295	0.217	
14.940	0.177	0.234	
14.945	0.215	0.239	
14.950	0.377	0.243	
14.955	0.437	0.265	
14.960	0.299	0.298	
14.965	0.342	0.323	
14.970	0.405	0.340	
14.975	0.345	0.354	
14.980	0.366	0.363	
14.985	0.510	0.374	
14.990	0.505	0.398	
14.995	0.458	0.427	
15.000	0.589	0.456	
15.005	0.620	0.490	
15.010	0.426	0.520	
15.015	0.406	0.526	
15.020	0.435	0.509	
15.025	0.327	0.480	
15.030	0.259	0.440	
15.035	0.211	0.388	
15.040	0.029	0.323	
15.045	-0.112	0.239	
15.050	-0.087	0.140	
15.055	-0.080	0.049	
15.060	-0.139	-0.023	
15.065	-0.136	-0.077	
15.070	-0.101	-0.113	
15.075	-0.150	-0.132	
15.080	-0.197	-0.145	
15.085	-0.118	-0.155	
15.090	-0.110	-0.157	
15.095	-0.132	-0.150	
15.100	-0.095	-0.141	
15.105	-0.061	-0.128	
15.110	-0.101	-0.113	
15.115	-0.077	-0.100	
15.120	-0.026	-0.088	
15.125	-0.080	-0.076	
15.130	-0.083	-0.068	
15.135	-0.035	-0.065	
15.140	-0.031	-0.060	
15.145	-0.060	-0.053	
15.150	-0.029	-0.049	
15.155	-0.052	-0.045	
15.160	-0.119	-0.047	
15.165	-0.127	-0.058	
15.170	-0.095	-0.075	
15.175	-0.139	-0.090	
15.180	-0.132	-0.104	
15.185	-0.086	-0.115	
15.190	-0.092	-0.117	
15.195	-0.147	-0.116	
15.200	-0.148	-0.118	
15.205	-0.109	-0.123	
15.210	-0.116	-0.125	
15.215	-0.081	-0.123	
15.220	-0.057	-0.114	
15.225	-0.092	-0.102	
15.230	-0.051	-0.091	
15.235	-0.046	-0.080	
15.240	-0.069	-0.069	
15.245	-0.100	-0.064	
15.250	-0.130	-0.068	
15.255	-0.142	-0.081	
15.260	-0.138	-0.098	
15.265	-0.060	-0.110	
15.270	-0.016	-0.108	
15.275	-0.060	-0.094	
15.280	0.017	-0.076	
15.285	0.124	-0.048	
15.290	0.134	-0.007	
15.295	0.146	0.039	
15.300	0.220	0.084	
15.305	0.240	0.129	
15.310	0.174	0.168	
15.315	0.136	0.189	
15.320	0.156	0.192	
15.325	0.171	0.187	
15.330	0.214	0.183	
15.335	0.290	0.188	
15.340	0.244	0.203	
15.345	0.238	0.221	
15.350	0.318	0.236	
15.355	0.371	0.258	
15.360	0.272	0.282	
15.365	0.324	0.299	
15.370	0.484	0.317	
15.375	0.513	0.351	
15.380	0.457	0.393	
15.385	0.481	0.429	
15.390	0.418	0.453	
15.395	0.311	0.456	
15.400	0.295	0.435	
15.405	0.247	0.397	
15.410	0.110	0.347	
15.415	0.044	0.282	
15.420	0.056	0.209	
15.425	-0.043	0.140	
15.430	-0.097	0.075	
15.435	-0.101	0.013	
15.440	-0.142	-0.040	
15.445	-0.205	-0.086	
15.450	-0.142	-0.125	
15.455	-0.112	-0.149	
15.460	-0.162	-0.157	
15.465	-0.121	-0.158	
15.470	-0.104	-0.153	
15.475	-0.141	-0.144	
15.480	-0.147	-0.137	
15.485	-0.049	-0.131	
15.490	-0.006	-0.116	
15.495	-0.040	-0.091	
15.500	-0.008	-0.067	
15.505	0.024	-0.044	
15.510	-0.072	-0.026	
15.515	-0.025	-0.019	
15.520	0.007	-0.017	
15.525	-0.003	-0.014	
15.530	-0.061	-0.013	
15.535	-0.064	-0.018	
15.540	-0.072	-0.030	
15.545	-0.136	-0.046	
15.550	-0.121	-0.067	
15.555	-0.122	-0.088	
15.560	-0.141	-0.105	
15.565	-0.092	-0.117	
15.570	-0.013	-0.117	
15.575	0.017	-0.100	
15.580	0.029	-0.071	
15.585	0.027	-0.039	
15.590	0.018	-0.011	
15.595	-0.006	0.007	
15.600	0.072	0.018	
15.605	0.175	0.035	
15.610	0.195	0.065	
15.615	0.243	0.105	
15.620	0.204	0.146	
15.625	-0.023	0.169	
15.630	-0.109	0.151	
15.635	-0.046	0.101	
15.640	0.047	0.051	
15.645	0.093	0.023	
15.650	0.175	0.024	
15.655	0.224	0.051	
15.660	0.168	0.091	
15.665	0.256	0.132	
15.670	0.263	0.171	
15.675	0.128	0.201	
15.680	0.116	0.208	
15.685	0.191	0.198	
15.690	0.223	0.190	
15.695	0.217	0.190	
15.700	0.293	0.199	
15.705	0.263	0.216	
15.710	0.175	0.230	
15.715	0.276	0.236	
15.720	0.324	0.243	
15.725	0.337	0.260	
15.730	0.377	0.284	
15.735	0.466	0.315	
15.740	0.486	0.355	
15.745	0.438	0.396	
15.750	0.539	0.430	
15.755	0.623	0.467	
15.760	0.499	0.504	
15.765	0.510	0.527	
15.770	0.438	0.532	
15.775	0.379	0.518	
15.780	0.243	0.481	
15.785	0.233	0.425	
15.790	0.152	0.359	
15.795	-0.042	0.283	
15.800	-0.055	0.194	
15.805	-0.078	0.104	
15.810	-0.165	0.023	
15.815	-0.158	-0.047	
15.820	-0.150	-0.102	
15.825	-0.171	-0.139	
15.830	-0.174	-0.163	
15.835	-0.161	-0.176	
15.840	-0.138	-0.179	
15.845	-0.176	-0.176	
15.850	-0.142	-0.171	
15.855	-0.124	-0.164	
15.860	-0.110	-0.153	
15.865	-0.116	-0.141	
15.870	-0.075	-0.128	
15.875	-0.090	-0.115	
15.880	-0.104	-0.104	
15.885	-0.045	-0.095	
15.890	-0.032	-0.083	
15.895	-0.074	-0.071	
15.900	-0.066	-0.063	
15.905	-0.075	-0.060	
15.910	-0.161	-0.065	
15.915	-0.176	-0.082	
15.920	-0.155	-0.106	
15.925	-0.177	-0.129	
15.930	-0.219	-0.150	
15.935	-0.185	-0.169	
15.940	-0.173	-0.183	
15.945	-0.184	-0.189	
15.950	-0.173	-0.190	
15.955	-0.194	-0.189	
15.960	-0.222	-0.189	
15.965	-0.202	-0.194	
15.970	-0.182	-0.197	
15.975	-0.185	-0.197	
15.980	-0.127	-0.192	
15.985	-0.014	-0.175	
15.990	-0.002	-0.142	
15.995	-0.046	-0.102	
16.000	-0.126	-0.074	
16.005	-0.165	-0.068	
16.010	-0.213	-0.083	
16.015	-0.185	-0.111	
16.020	-0.119	-0.137	
16.025	-0.075	-0.147	
16.030	-0.035	-0.139	
16.035	0.006	-0.116	
16.040	-0.005	-0.085	
16.045	-0.054	-0.056	
16.050	-0.008	-0.037	
16.055	0.097	-0.020	
16.060	0.050	0.003	
16.065	0.049	0.025	
16.070	0.096	0.043	
16.075	0.078	0.058	
16.080	0.078	0.070	
16.085	0.169	0.082	
16.090	0.195	0.100	
16.095	0.125	0.123	
16.100	0.215	0.142	
16.105	0.232	0.161	
16.110	0.201	0.181	
16.115	0.398	0.206	
16.120	0.508	0.249	
16.125	0.505	0.313	
16.130	0.472	0.379	
16.135	0.476	0.430	
16.140	0.556	0.467	
16.145	0.415	0.492	
16.150	0.457	0.498	
16.155	0.394	0.489	
16.160	0.204	0.461	
16.165	0.064	0.402	
16.170	0.010	0.315	
16.175	-0.115	0.212	
16.180	-0.141	0.106	
16.185	-0.129	0.010	
16.190	-0.153	-0.064	
16.195	-0.211	-0.119	
16.200	-0.171	-0.158	
16.205	-0.171	-0.182	
16.210	-0.228	-0.194	
16.215	-0.214	-0.203	
16.220	-0.193	-0.209	
16.225	-0.161	-0.209	
16.230	-0.141	-0.200	
16.235	-0.110	-0.185	
16.240	-0.078	-0.163	
16.245	-0.074	-0.138	
16.250	-0.054	-0.113	
16.255	-0.026	-0.090	
16.260	-0.081	-0.070	
16.265	-0.116	-0.062	
16.270	-0.097	-0.065	
16.275	-0.092	-0.073	
16.280	-0.087	-0.081	
16.285	-0.066	-0.085	
16.290	-0.113	-0.087	
16.295	-0.174	-0.093	
16.300	-0.161	-0.108	
16.305	-0.153	-0.125	
16.310	-0.196	-0.141	
16.315	-0.194	-0.157	
16.320	-0.184	-0.171	
16.325	-0.202	-0.182	
16.330	-0.184	-0.189	
16.335	-0.109	-0.189	
16.340	-0.093	-0.177	
16.345	-0.173	-0.160	
16.350	-0.200	-0.152	
16.355	-0.152	-0.153	
16.360	-0.066	-0.152	
16.365	0.133	-0.130	
16.370	0.218	-0.076	
16.375	0.053	-0.007	
16.380	-0.170	0.036	
16.385	-0.243	0.025	
16.390	-0.171	-0.022	
16.395	-0.118	-0.074	
16.400	-0.055	-0.107	
16.405	0.120	-0.109	
16.410	1.793	0.002	
16.415	3.080	0.369	
16.420	3.066	0.990	
16.425	3.058	1.678	
16.430	3.058	2.272	
16.435	3.057	2.709	
16.440	3.063	2.988	
16.445	3.064	3.139	
16.450	3.066	3.200	
16.455	3.072	3.205	
16.460	3.077	3.183	
16.465	3.080	3.152	
16.470	3.083	3.124	
16.475	2.867	3.092	
16.480	2.539	3.030	
16.485	2.349	2.915	
16.490	2.191	2.756	
16.495	1.961	2.570	
16.500	1.799	2.369	
16.505	1.665	2.167	
16.510	1.388	1.968	
16.515	1.179	1.766	
16.520	0.988	1.560	
16.525	0.776	1.352	
16.530	0.475	1.139	
16.535	0.324	0.919	
16.540	0.122	0.698	
16.545	-0.075	0.484	
16.550	-0.194	0.279	
16.555	-0.320	0.090	
16.560	-0.431	-0.077	
16.565	-0.475	-0.222	
16.570	-0.512	-0.340	
16.575	-0.570	-0.430	
16.580	-0.630	-0.501	
16.585	-0.621	-0.556	
16.590	-0.631	-0.596	
16.595	-0.660	-0.623	
16.600	-0.639	-0.641	
16.605	-0.659	-0.651	
16.610	-0.688	-0.658	
16.615	-0.660	-0.664	
16.620	-0.647	-0.667	
16.625	-0.660	-0.666	
16.630	-0.665	-0.664	
16.635	-0.642	-0.662	
16.640	-0.636	-0.658	
16.645	-0.631	-0.652	
16.650	-0.604	-0.644	
16.655	-0.604	-0.634	
16.660	-0.657	-0.626	
16.665	-0.657	-0.625	
16.670	-0.677	-0.632	
16.675	-0.705	-0.644	
16.680	-0.741	-0.661	
16.685	-0.755	-0.684	
16.690	-0.769	-0.708	
16.695	-0.775	-0.730	
16.700	-0.737	-0.748	
16.705	-0.720	-0.755	
16.710	-0.743	-0.754	
16.715	-0.729	-0.750	
16.720	-0.685	-0.743	
16.725	-0.705	-0.731	
16.730	-0.743	-0.722	
16.735	-0.718	-0.718	
16.740	-0.654	-0.714	
16.745	-0.553	-0.700	
16.750	-0.459	-0.666	
16.755	-0.511	-0.618	
16.760	-0.645	-0.578	
16.765	-0.740	-0.569	
16.770	-0.769	-0.593	
16.775	-0.760	-0.636	
16.780	-0.749	-0.679	
16.785	-0.992	-0.725	
16.790	-0.995	-0.786	
16.795	-0.995	-0.854	
16.800	-0.996	-0.914	
16.805	-0.996	-0.958	
16.810	-0.996	-0.987	
16.815	-0.996	-1.003	
16.820	-0.998	-1.010	
16.825	-0.996	-1.011	
16.830	-0.996	-1.009	
16.835	-0.996	-1.005	
16.840	-0.995	-1.002	
16.845	-0.995	-0.999	
16.850	-0.995	-0.997	
16.855	-0.995	-0.995	
16.860	-0.993	-0.994	
16.865	-0.995	-0.994	
16.870	-0.896	-0.989	
16.875	-0.750	-0.967	
16.880	-0.627	-0.918	
16.885	-0.494	-0.839	
16.890	-0.359	-0.737	
16.895	-0.280	-0.619	
16.900	-0.188	-0.498	
16.905	-0.043	-0.379	
16.910	-0.016	-0.264	
16.915	0.007	-0.162	
16.920	0.009	-0.081	
16.925	-0.078	-0.029	
16.930	-0.098	-0.009	
16.935	-0.029	-0.012	
16.940	0.029	-0.017	
16.945	-0.029	-0.016	
16.950	-0.011	-0.015	
16.955	0.001	-0.014	
16.960	0.038	-0.009	
16.965	0.119	0.004	
16.970	0.212	0.032	
16.975	0.221	0.075	
16.980	0.211	0.122	
16.985	0.351	0.169	
16.990	0.440	0.223	
16.995	0.434	0.285	
17.000	0.547	0.349	
17.005	0.684	0.418	
17.010	0.669	0.494	
17.015	0.605	0.561	
17.020	0.725	0.611	
17.025	0.790	0.654	
17.030	0.779	0.697	
17.035	0.820	0.735	
17.040	0.822	0.768	
17.045	0.725	0.790	
17.050	0.742	0.794	
17.055	0.736	0.785	
17.060	0.647	0.768	
17.065	0.496	0.734	
17.070	0.388	0.676	
17.075	0.316	0.596	
17.080	0.342	0.509	
17.085	0.362	0.435	
17.090	0.379	0.385	
17.095	0.276	0.354	
17.100	0.295	0.330	
17.105	0.453	0.318	
17.110	0.391	0.327	
17.115	0.374	0.345	
17.120	0.444	0.364	
17.125	0.553	0.389	
17.130	0.640	0.431	
17.135	0.675	0.488	
17.140	0.592	0.545	
17.145	0.334	0.573	
17.150	0.301	0.554	
17.155	0.342	0.501	
17.160	0.443	0.448	
17.165	0.583	0.423	
17.170	0.698	0.439	
17.175	0.721	0.491	
17.180	0.731	0.558	
17.185	0.817	0.626	
17.190	0.877	0.694	
17.195	0.869	0.758	
17.200	0.933	0.813	
17.205	0.955	0.861	
17.210	0.837	0.895	
17.215	0.793	0.904	
17.220	0.838	0.893	
17.225	0.785	0.872	
17.230	0.794	0.849	
17.235	0.878	0.831	
17.240	0.958	0.831	
17.245	0.887	0.847	
17.250	0.945	0.868	
17.255	1.054	0.895	
17.260	0.988	0.930	
17.265	1.071	0.964	
17.270	1.161	1.001	
17.275	1.107	1.042	
17.280	1.026	1.073	
17.285	1.036	1.084	
17.290	1.013	1.079	
17.295	0.860	1.058	
17.300	0.852	1.018	
17.305	0.845	0.968	
17.310	0.683	0.913	
17.315	0.505	0.843	
17.320	0.403	0.750	
17.325	0.318	0.641	
17.330	0.201	0.526	
17.335	0.244	0.417	
17.340	0.195	0.327	
17.345	0.131	0.258	
17.350	0.178	0.206	
17.355	0.124	0.170	
17.360	0.127	0.147	
17.365	0.166	0.133	
17.370	0.261	0.135	
17.375	0.145	0.150	
17.380	0.091	0.159	
17.385	0.171	0.157	
17.390	0.252	0.159	
17.395	0.188	0.170	
17.400	0.230	0.184	
17.405	0.258	0.198	
17.410	0.240	0.215	
17.415	0.249	0.228	
17.420	0.241	0.238	
17.425	0.215	0.243	
17.430	0.124	0.237	
17.435	0.125	0.217	
17.440	0.108	0.190	
17.445	0.113	0.162	
17.450	0.302	0.148	
17.455	0.397	0.165	
17.460	0.305	0.208	
17.465	0.327	0.252	
17.470	0.376	0.289	
17.475	0.321	0.318	
17.480	0.209	0.330	
17.485	0.295	0.323	
17.490	0.308	0.311	
17.495	0.149	0.297	
17.500	0.160	0.270	
17.505	0.211	0.239	
17.510	0.258	0.218	
17.515	0.311	0.215	
17.520	0.324	0.230	
17.525	0.177	0.247	
17.530	-0.011	0.241	
17.535	-0.046	0.198	
17.540	-0.017	0.135	
17.545	0.027	0.077	
17.550	0.107	0.040	
17.555	0.232	0.037	
17.560	0.233	0.066	
17.565	0.192	0.109	
17.570	0.171	0.146	
17.575	0.188	0.171	
17.580	0.208	0.186	
17.585	0.261	0.199	
17.590	0.285	0.216	
17.595	0.146	0.229	
17.600	0.131	0.226	
17.605	0.218	0.212	
17.610	0.212	0.202	
17.615	0.224	0.199	
17.620	0.261	0.204	
17.625	0.229	0.214	
17.630	0.197	0.221	
17.635	0.233	0.224	
17.640	0.279	0.227	
17.645	0.318	0.238	
17.650	0.449	0.262	
17.655	0.501	0.305	
17.660	0.478	0.359	
17.665	0.472	0.408	
17.670	0.440	0.443	
17.675	0.340	0.456	
17.680	0.311	0.445	
17.685	0.255	0.413	
17.690	0.163	0.367	
17.695	0.021	0.304	
17.700	-0.074	0.223	
17.705	-0.089	0.132	
17.710	-0.184	0.043	
17.715	-0.199	-0.039	
17.720	-0.187	-0.107	
17.725	-0.219	-0.158	
17.730	-0.237	-0.193	
17.735	-0.220	-0.217	
17.740	-0.210	-0.230	
17.745	-0.232	-0.234	
17.750	-0.197	-0.233	
17.755	-0.145	-0.225	
17.760	-0.153	-0.209	
17.765	-0.124	-0.189	
17.770	-0.135	-0.169	
17.775	-0.181	-0.155	
17.780	-0.190	-0.151	
17.785	-0.129	-0.153	
17.790	-0.063	-0.149	
17.795	-0.109	-0.136	
17.800	-0.109	-0.123	
17.805	-0.100	-0.113	
17.810	-0.145	-0.109	
17.815	-0.171	-0.112	
17.820	-0.170	-0.124	
17.825	-0.170	-0.138	
17.830	-0.202	-0.152	
17.835	-0.197	-0.167	
17.840	-0.199	-0.180	
17.845	-0.242	-0.192	
17.850	-0.202	-0.203	
17.855	-0.182	-0.209	
17.860	-0.171	-0.208	
17.865	-0.179	-0.201	
17.870	-0.159	-0.193	
17.875	-0.176	-0.184	
17.880	-0.222	-0.179	
17.885	-0.182	-0.181	
17.890	-0.124	-0.181	
17.895	-0.077	-0.171	
17.900	-0.037	-0.149	
17.905	-0.049	-0.120	
17.910	-0.170	-0.098	
17.915	-0.251	-0.098	
17.920	-0.231	-0.122	
17.925	-0.177	-0.152	
17.930	0.391	-0.148	
17.935	2.684	0.033	
17.940	3.071	0.523	
17.945	3.061	1.216	
17.950	3.058	1.898	
17.955	3.054	2.447	
17.960	3.060	2.830	
17.965	3.061	3.060	
17.970	3.064	3.174	
17.975	3.071	3.209	
17.980	3.074	3.201	
17.985	3.077	3.174	
17.990	3.081	3.142	
17.995	3.052	3.114	
18.000	2.779	3.077	
18.005	2.559	3.007	
18.010	2.229	2.884	
18.015	2.022	2.709	
18.020	1.867	2.498	
18.025	1.689	2.277	
18.030	1.456	2.057	
18.035	1.323	1.843	
18.040	1.184	1.641	
18.045	0.916	1.452	
18.050	0.710	1.262	
18.055	0.571	1.071	
18.060	0.324	0.879	
18.065	0.174	0.687	
18.070	0.062	0.499	
18.075	-0.049	0.327	
18.080	-0.177	0.172	
18.085	-0.278	0.032	
18.090	-0.367	-0.093	
18.095	-0.445	-0.205	
18.100	-0.478	-0.302	
18.105	-0.477	-0.381	
18.110	-0.491	-0.438	
18.115	-0.552	-0.478	
18.120	-0.599	-0.511	
18.125	-0.602	-0.541	
18.130	-0.613	-0.568	
18.135	-0.611	-0.588	
18.140	-0.610	-0.603	
18.145	-0.614	-0.612	
18.150	-0.625	-0.617	
18.155	-0.608	-0.619	
18.160	-0.607	-0.619	
18.165	-0.598	-0.617	
18.170	-0.572	-0.611	
18.175	-0.592	-0.603	
18.180	-0.616	-0.597	
18.185	-0.599	-0.596	
18.190	-0.601	-0.597	
18.195	-0.628	-0.599	
18.200	-0.663	-0.606	
18.205	-0.643	-0.617	
18.210	-0.665	-0.630	
18.215	-0.688	-0.642	
18.220	-0.679	-0.655	
18.225	-0.676	-0.666	
18.230	-0.692	-0.674	
18.235	-0.688	-0.681	
18.240	-0.674	-0.685	
18.245	-0.686	-0.686	
18.250	-0.669	-0.685	
18.255	-0.668	-0.683	
18.260	-0.651	-0.678	
18.265	-0.669	-0.672	
18.270	-0.656	-0.668	
18.275	-0.624	-0.662	
18.280	-0.524	-0.649	
18.285	-0.420	-0.620	
18.290	-0.381	-0.571	
18.295	-0.475	-0.519	
18.300	-0.590	-0.486	
18.305	-0.619	-0.485	
18.310	-0.608	-0.507	
18.315	-0.602	-0.537	
18.320	-0.520	-0.560	
18.325	-0.480	-0.566	
18.330	-0.472	-0.555	
18.335	-0.425	-0.532	
18.340	-0.408	-0.502	
18.345	-0.459	-0.474	
18.350	-0.469	-0.455	
18.355	-0.436	-0.446	
18.360	-0.428	-0.441	
18.365	-0.404	-0.436	
18.370	-0.379	-0.427	
18.375	-0.391	-0.416	
18.380	-0.398	-0.405	
18.385	-0.359	-0.397	
18.390	-0.318	-0.385	
18.395	-0.298	-0.368	
18.400	-0.268	-0.347	
18.405	-0.213	-0.320	
18.410	-0.176	-0.288	
18.415	-0.147	-0.252	
18.420	-0.086	-0.213	
18.425	-0.054	-0.172	
18.430	-0.052	-0.132	
18.435	0.006	-0.094	
18.440	0.013	-0.060	
18.445	-0.060	-0.033	
18.450	-0.098	-0.023	
18.455	-0.133	-0.032	
18.460	-0.170	-0.055	
18.465	-0.225	-0.088	
18.470	-0.252	-0.129	
18.475	-0.298	-0.172	
18.480	-0.361	-0.218	
18.485	-0.384	-0.265	
18.490	-0.463	-0.312	
18.495	-0.489	-0.361	
18.500	-0.463	-0.406	
18.505	-0.430	-0.439	
18.510	-0.436	-0.455	
18.515	-0.451	-0.460	
18.520	-0.459	-0.460	
18.525	-0.425	-0.458	
18.530	-0.399	-0.451	
18.535	-0.358	-0.438	
18.540	-0.323	-0.417	
18.545	-0.352	-0.392	
18.550	-0.312	-0.369	
18.555	-0.292	-0.348	
18.560	-0.266	-0.327	
18.565	-0.271	-0.307	
18.570	-0.263	-0.290	
18.575	-0.243	-0.276	
18.580	-0.263	-0.265	
18.585	-0.258	-0.258	
18.590	-0.277	-0.256	
18.595	-0.330	-0.260	
18.600	-0.327	-0.273	
18.605	-0.327	-0.289	
18.610	-0.350	-0.305	
18.615	-0.362	-0.321	
18.620	-0.333	-0.334	
18.625	-0.329	-0.342	
18.630	-0.339	-0.344	
18.635	-0.292	-0.341	
18.640	-0.297	-0.333	
18.645	-0.333	-0.324	
18.650	-0.317	-0.319	
18.655	-0.309	-0.316	
18.660	-0.312	-0.314	
18.665	-0.197	-0.307	
18.670	-0.029	-0.281	
18.675	0.026	-0.227	
18.680	-0.110	-0.163	
18.685	-0.257	-0.122	
18.690	-0.315	-0.123	
18.695	-0.313	-0.156	
18.700	-0.291	-0.200	
18.705	-0.222	-0.237	
18.710	-0.199	-0.254	
18.715	-0.135	-0.250	
18.720	-0.089	-0.228	
18.725	-0.074	-0.193	
18.730	-0.083	-0.155	
18.735	-0.063	-0.121	
18.740	-0.046	-0.094	
18.745	-0.101	-0.075	
18.750	-0.055	-0.066	
18.755	0.013	-0.059	
18.760	0.038	-0.044	
18.765	0.044	-0.022	
18.770	0.073	0.002	
18.775	0.059	0.025	
18.780	0.064	0.043	
18.785	0.154	0.060	
18.790	0.247	0.086	
18.795	0.279	0.125	
18.800	0.388	0.177	
18.805	0.447	0.239	
18.810	0.443	0.305	
18.815	0.469	0.364	
18.820	0.495	0.413	
18.825	0.516	0.451	
18.830	0.476	0.480	
18.835	0.411	0.492	
18.840	0.340	0.482	
18.845	0.143	0.446	
18.850	0.056	0.377	
18.855	-0.005	0.285	
18.860	-0.089	0.186	
18.865	-0.148	0.087	
18.870	-0.168	-0.003	
18.875	-0.193	-0.078	
18.880	-0.231	-0.137	
18.885	-0.231	-0.181	
18.890	-0.252	-0.213	
18.895	-0.287	-0.237	
18.900	-0.327	-0.258	
18.905	-0.317	-0.279	
18.910	-0.287	-0.295	
18.915	-0.265	-0.302	
18.920	-0.237	-0.298	
18.925	-0.228	-0.286	
18.930	-0.220	-0.269	
18.935	-0.181	-0.251	
18.940	-0.145	-0.229	
18.945	-0.135	-0.204	
18.950	-0.141	-0.179	
18.955	-0.144	-0.160	
18.960	-0.126	-0.147	
18.965	-0.150	-0.138	
18.970	-0.179	-0.136	
18.975	-0.231	-0.144	
18.980	-0.243	-0.163	
18.985	-0.249	-0.186	
18.990	-0.268	-0.210	
18.995	-0.309	-0.233	
19.000	-0.306	-0.257	
19.005	-0.304	-0.277	
19.010	-0.332	-0.294	
19.015	-0.330	-0.308	
19.020	-0.330	-0.319	
19.025	-0.281	-0.324	
19.030	-0.281	-0.321	
19.035	-0.292	-0.313	
19.040	-0.317	-0.305	
19.045	-0.336	-0.304	
19.050	-0.266	-0.305	
19.055	-0.217	-0.299	
19.060	-0.236	-0.284	
19.065	-0.248	-0.268	
19.070	-0.317	-0.259	
19.075	-0.375	-0.264	
19.080	-0.401	-0.286	
19.085	-0.320	-0.313	
19.090	-0.249	-0.328	
19.095	-0.225	-0.323	
19.100	-0.139	-0.299	
19.105	-0.106	-0.261	
19.110	-0.061	-0.213	
19.115	-0.055	-0.163	
19.120	-0.051	-0.119	
19.125	-0.075	-0.086	
19.130	-0.075	-0.066	
19.135	-0.042	-0.057	
19.140	-0.029	-0.050	
19.145	-0.074	-0.046	
19.150	-0.071	-0.047	
19.155	-0.025	-0.049	
19.160	-0.045	-0.049	
19.165	-0.087	-0.049	
19.170	-0.080	-0.054	
19.175	-0.119	-0.063	
19.180	-0.161	-0.078	
19.185	-0.139	-0.098	
19.190	-0.182	-0.118	
19.195	-0.217	-0.140	
19.200	-0.249	-0.164	
19.205	-0.284	-0.192	
19.210	-0.399	-0.227	
19.215	-0.642	-0.281	
19.220	-0.889	-0.375	
19.225	-0.993	-0.509	
19.230	-0.995	-0.660	
19.235	-0.995	-0.796	
19.240	-0.993	-0.899	
19.245	-0.995	-0.968	
19.250	-0.995	-1.006	
19.255	-0.995	-1.023	
19.260	-0.995	-1.026	
19.265	-0.995	-1.022	
19.270	-0.995	-1.015	
19.275	-0.995	-1.008	
19.280	-0.995	-1.002	
19.285	-0.995	-0.998	
19.290	-0.995	-0.995	
19.295	-0.993	-0.994	
19.300	-0.903	-0.989	
19.305	-0.787	-0.969	
19.310	-0.718	-0.928	
19.315	-0.617	-0.868	
19.320	-0.526	-0.793	
19.325	-0.456	-0.707	
19.330	-0.401	-0.619	
19.335	-0.324	-0.535	
19.340	-0.254	-0.455	
19.345	-0.202	-0.379	
19.350	-0.090	-0.306	
19.355	-0.043	-0.234	
19.360	0.035	-0.162	
19.365	0.152	-0.088	
19.370	0.236	-0.009	
19.375	0.316	0.075	
19.380	0.319	0.157	
19.385	0.389	0.231	
19.390	0.570	0.301	
19.395	0.588	0.378	
19.400	0.667	0.457	
19.405	0.835	0.539	
19.410	0.861	0.627	
19.415	0.846	0.712	
19.420	0.956	0.784	
19.425	0.977	0.847	
19.430	0.909	0.898	
19.435	1.028	0.934	
19.440	1.210	0.972	
19.445	1.147	1.023	
19.450	1.127	1.073	
19.455	1.040	1.104	
19.460	0.889	1.105	
19.465	0.904	1.073	
19.470	1.025	1.031	
19.475	1.168	1.010	
19.480	1.222	1.025	
19.485	1.365	1.073	
19.490	1.390	1.145	
19.495	1.327	1.221	
19.500	1.324	1.281	
19.505	1.347	1.320	
19.510	1.330	1.342	
19.515	1.359	1.353	
19.520	1.416	1.361	
19.525	1.390	1.371	
19.530	1.294	1.376	
19.535	1.335	1.370	
19.540	1.407	1.362	
19.545	1.390	1.362	
19.550	1.358	1.367	
19.555	1.405	1.371	
19.560	1.346	1.374	
19.565	1.375	1.375	
19.570	1.443	1.377	
19.575	1.515	1.390	
19.580	1.463	1.414	
19.585	1.482	1.438	
19.590	1.405	1.454	
19.595	1.266	1.450	
19.600	1.355	1.424	
19.605	1.408	1.397	
19.610	1.249	1.376	
19.615	1.081	1.342	
19.620	1.042	1.283	
19.625	0.941	1.207	
19.630	0.785	1.118	
19.635	0.748	1.018	
19.640	0.719	0.919	
19.645	0.615	0.831	
19.650	0.567	0.750	
19.655	0.553	0.678	
19.660	0.409	0.613	
19.665	0.377	0.549	
19.670	0.440	0.490	
19.675	0.420	0.448	
19.680	0.365	0.421	
19.685	0.467	0.404	
19.690	0.525	0.405	
19.695	0.449	0.422	
19.700	0.398	0.436	
19.705	0.512	0.444	
19.710	0.507	0.455	
19.715	0.476	0.468	
19.720	0.490	0.479	
19.725	0.482	0.485	
19.730	0.415	0.485	
19.735	0.400	0.474	
19.740	0.423	0.457	
19.745	0.305	0.436	
19.750	0.284	0.406	
19.755	0.328	0.372	
19.760	0.266	0.342	
19.765	0.174	0.312	
19.770	0.206	0.277	
19.775	0.194	0.245	
19.780	0.159	0.219	
19.785	0.223	0.199	
19.790	0.266	0.193	
19.795	0.137	0.195	
19.800	0.145	0.192	
19.805	0.186	0.183	
19.810	0.142	0.176	
19.815	0.134	0.167	
19.820	0.221	0.161	
19.825	0.330	0.171	
19.830	0.288	0.198	
19.835	0.305	0.230	
19.840	0.266	0.258	
19.845	0.055	0.265	
19.850	0.000	0.236	
19.855	0.012	0.182	
19.860	0.003	0.123	
19.865	0.124	0.078	
19.870	0.319	0.067	
19.875	0.403	0.104	
19.880	0.333	0.170	
19.885	0.366	0.237	
19.890	0.247	0.287	
19.895	0.255	0.310	
19.900	0.368	0.316	
19.905	0.394	0.325	
19.910	0.353	0.338	
19.915	0.340	0.349	
19.920	0.420	0.357	
19.925	0.469	0.371	
19.930	0.328	0.387	
19.935	0.321	0.391	
19.940	0.431	0.385	
19.945	0.400	0.384	
19.950	0.489	0.392	
19.955	0.472	0.409	
19.960	0.498	0.431	
19.965	0.574	0.456	
19.970	0.701	0.493	
19.975	0.742	0.545	
19.980	0.678	0.603	
19.985	0.667	0.647	
19.990	0.643	0.672	
19.995	0.455	0.672	
20.000	0.392	0.637	
20.005	0.443	0.580	
20.010	0.466	0.526	
20.015	0.455	0.486	
20.020	0.453	0.461	
20.025	0.356	0.443	
20.030	0.128	0.412	
20.035	0.201	0.358	
20.040	0.214	0.300	
20.045	0.124	0.251	
20.050	0.049	0.204	
20.055	0.032	0.155	
20.060	0.013	0.108	
20.065	0.006	0.068	
20.070	0.052	0.039	
20.075	-0.020	0.022	
20.080	-0.083	0.006	
20.085	0.036	-0.010	
20.090	0.110	-0.011	
20.095	-0.002	0.002	
20.100	0.099	0.018	
20.105	0.157	0.038	
20.110	0.119	0.066	
20.115	0.052	0.088	
20.120	0.094	0.097	
20.125	0.068	0.098	
20.130	0.009	0.091	
20.135	0.007	0.076	
20.140	-0.048	0.053	
20.145	-0.118	0.022	
20.150	-0.113	-0.015	
20.155	-0.074	-0.050	
20.160	-0.098	-0.074	
20.165	-0.087	-0.089	
20.170	-0.136	-0.099	
20.175	-0.097	-0.106	
20.180	-0.118	-0.111	
20.185	-0.089	-0.112	
20.190	-0.121	-0.111	
20.195	-0.126	-0.112	
20.200	-0.113	-0.113	
20.205	-0.100	-0.114	
20.210	-0.009	-0.108	
20.215	0.061	-0.088	
20.220	0.068	-0.054	
20.225	0.067	-0.015	
20.230	-0.083	0.013	
20.235	-0.187	0.011	
20.240	-0.130	-0.019	
20.245	-0.083	-0.055	
20.250	-0.075	-0.079	
20.255	0.021	-0.087	
20.260	-0.008	-0.076	
20.265	0.003	-0.056	
20.270	0.108	-0.032	
20.275	0.159	0.004	
20.280	0.101	0.045	
20.285	0.139	0.080	
20.290	0.195	0.109	
20.295	0.203	0.137	
20.300	0.217	0.163	
20.305	0.203	0.184	
20.310	0.211	0.199	
20.315	0.261	0.211	
20.320	0.293	0.225	
20.325	0.302	0.243	
20.330	0.249	0.260	
20.335	0.246	0.269	
20.340	0.345	0.274	
20.345	0.405	0.287	
20.350	0.522	0.318	
20.355	0.565	0.368	
20.360	0.641	0.430	
20.365	0.528	0.491	
20.370	0.563	0.535	
20.375	0.521	0.558	
20.380	0.429	0.560	
20.385	0.417	0.541	
20.390	0.340	0.505	
20.395	0.128	0.451	
20.400	0.033	0.370	
20.405	-0.013	0.271	
20.410	-0.035	0.170	
20.415	-0.112	0.081	
20.420	-0.126	0.004	
20.425	-0.147	-0.058	
20.430	-0.135	-0.103	
20.435	-0.084	-0.130	
20.440	-0.035	-0.134	
20.445	0.496	-0.096	
20.450	2.157	0.084	
20.455	3.080	0.521	
20.460	3.072	1.165	
20.465	3.067	1.834	
20.470	3.066	2.391	
20.475	3.066	2.789	
20.480	3.067	3.036	
20.485	3.071	3.164	
20.490	3.075	3.209	
20.495	3.080	3.207	
20.500	3.080	3.182	
20.505	3.072	3.151	
20.510	2.692	3.103	
20.515	2.252	3.001	
20.520	1.949	2.819	
20.525	1.673	2.570	
20.530	1.385	2.282	
20.535	1.141	1.976	
20.540	0.832	1.669	
20.545	0.539	1.364	
20.550	0.402	1.069	
20.555	0.279	0.802	
20.560	0.203	0.576	
20.565	0.064	0.393	
20.570	-0.019	0.245	
20.575	-0.086	0.124	
20.580	-0.182	0.025	
20.585	-0.225	-0.060	
20.590	-0.232	-0.130	
20.595	-0.211	-0.182	
20.600	-0.179	-0.213	
20.605	-0.165	-0.222	
20.610	-0.271	-0.222	
20.615	-0.430	-0.233	
20.620	-0.465	-0.269	
20.625	-0.456	-0.321	
20.630	-0.456	-0.372	
20.635	-0.413	-0.410	
20.640	-0.404	-0.431	
20.645	-0.423	-0.438	
20.650	-0.445	-0.438	
20.655	-0.463	-0.440	
20.660	-0.529	-0.447	
20.665	-0.549	-0.463	
20.670	-0.524	-0.485	
20.675	-0.486	-0.503	
20.680	-0.508	-0.511	
20.685	-0.515	-0.514	
20.690	-0.489	-0.514	
20.695	-0.469	-0.510	
20.700	-0.451	-0.500	
20.705	-0.428	-0.486	
20.710	-0.419	-0.469	
20.715	-0.417	-0.452	
20.720	-0.361	-0.435	
20.725	-0.313	-0.413	
20.730	-0.291	-0.385	
20.735	-0.309	-0.356	
20.740	-0.291	-0.331	
20.745	-0.236	-0.310	
20.750	-0.222	-0.287	
20.755	-0.231	-0.265	
20.760	-0.239	-0.248	
20.765	-0.277	-0.239	
20.770	-0.297	-0.241	
20.775	-0.327	-0.253	
20.780	-0.353	-0.272	
20.785	-0.401	-0.297	
20.790	-0.431	-0.328	
20.795	-0.457	-0.362	
20.800	-0.497	-0.397	
20.805	-0.540	-0.433	
20.810	-0.515	-0.467	
20.815	-0.521	-0.494	
20.820	-0.497	-0.511	
20.825	-0.477	-0.517	
20.830	-0.482	-0.514	
20.835	-0.454	-0.505	
20.840	-0.426	-0.491	
20.845	-0.416	-0.473	
20.850	-0.384	-0.453	
20.855	-0.333	-0.429	
20.860	-0.327	-0.402	
20.865	-0.300	-0.374	
20.870	-0.275	-0.346	
20.875	-0.271	-0.321	
20.880	-0.257	-0.298	
20.885	-0.248	-0.280	
20.890	-0.228	-0.265	
20.895	-0.252	-0.252	
20.900	-0.275	-0.246	
20.905	-0.320	-0.249	
20.910	-0.313	-0.262	
20.915	-0.306	-0.277	
20.920	-0.295	-0.290	
20.925	-0.310	-0.298	
20.930	-0.332	-0.305	
20.935	-0.341	-0.313	
20.940	-0.379	-0.323	
20.945	-0.384	-0.337	
20.950	-0.338	-0.350	
20.955	-0.335	-0.356	
20.960	-0.346	-0.356	
20.965	-0.393	-0.356	
20.970	-0.376	-0.359	
20.975	-0.301	-0.362	
20.980	-0.196	-0.350	
20.985	-0.122	-0.318	
20.990	-0.107	-0.268	
20.995	-0.216	-0.220	
21.000	-0.326	-0.195	
21.005	-0.332	-0.203	
21.010	-0.303	-0.228	
21.015	-0.291	-0.256	
21.020	-0.274	-0.275	
21.025	-0.232	-0.283	
21.030	-0.226	-0.280	
21.035	-0.199	-0.267	
21.040	-0.164	-0.248	
21.045	-0.174	-0.225	
21.050	-0.222	-0.206	
21.055	-0.220	-0.198	
21.060	-0.207	-0.197	
21.065	-0.213	-0.199	
21.070	-0.182	-0.201	
21.075	-0.155	-0.199	
21.080	-0.162	-0.191	
21.085	-0.164	-0.182	
21.090	-0.158	-0.173	
21.095	-0.109	-0.164	
21.100	-0.060	-0.150	
21.105	0.000	-0.125	
21.110	0.078	-0.090	
21.115	0.108	-0.043	
21.120	0.163	0.009	
21.125	0.143	0.059	
21.130	0.119	0.099	
21.135	0.165	0.126	
21.140	0.163	0.144	
21.145	0.111	0.154	
21.150	-0.011	0.148	
21.155	-0.080	0.118	
21.160	-0.122	0.068	
21.165	-0.203	0.007	
21.170	-0.222	-0.060	
21.175	-0.271	-0.123	
21.180	-0.339	-0.183	
21.185	-0.381	-0.240	
21.190	-0.410	-0.293	
21.195	-0.433	-0.341	
21.200	-0.454	-0.381	
21.205	-0.431	-0.412	
21.210	-0.414	-0.431	
21.215	-0.426	-0.439	
21.220	-0.442	-0.441	
21.225	-0.433	-0.440	
21.230	-0.407	-0.438	
21.235	-0.367	-0.431	
21.240	-0.349	-0.416	
21.245	-0.344	-0.397	
21.250	-0.312	-0.377	
21.255	-0.246	-0.353	
21.260	-0.232	-0.324	
21.265	-0.275	-0.296	
21.270	-0.263	-0.275	
21.275	-0.257	-0.263	
21.280	-0.306	-0.259	
21.285	-0.352	-0.265	
21.290	-0.378	-0.283	
21.295	-0.408	-0.310	
21.300	-0.439	-0.341	
21.305	-0.463	-0.374	
21.310	-0.494	-0.407	
21.315	-0.537	-0.440	
21.320	-0.529	-0.472	
21.325	-0.530	-0.498	
21.330	-0.581	-0.519	
21.335	-0.579	-0.539	
21.340	-0.588	-0.556	
21.345	-0.647	-0.573	
21.350	-0.691	-0.594	
21.355	-0.694	-0.621	
21.360	-0.624	-0.644	
21.365	-0.537	-0.651	
21.370	-0.471	-0.634	
21.375	-0.533	-0.602	
21.380	-0.715	-0.579	
21.385	-0.821	-0.589	
21.390	-0.845	-0.633	
21.395	-0.830	-0.692	
21.400	-0.886	-0.750	
21.405	-0.937	-0.803	
21.410	-0.993	-0.854	
21.415	-0.995	-0.903	
21.420	-0.995	-0.943	
21.425	-0.993	-0.973	
21.430	-0.995	-0.991	
21.435	-0.995	-1.001	
21.440	-0.995	-1.004	
21.445	-0.995	-1.004	
21.450	-0.995	-1.003	
21.455	-0.964	-0.999	
21.460	-0.964	-0.992	
21.465	-0.993	-0.985	
21.470	-0.995	-0.982	
21.475	-0.992	-0.982	
21.480	-0.935	-0.982	
21.485	-0.853	-0.972	
21.490	-0.761	-0.945	
21.495	-0.650	-0.896	
21.500	-0.489	-0.825	
21.505	-0.362	-0.729	
21.510	-0.246	-0.615	
21.515	-0.193	-0.494	
21.520	-0.019	-0.373	
21.525	0.178	-0.247	
21.530	0.229	-0.113	
21.535	0.275	0.015	
21.540	0.302	0.126	
21.545	0.279	0.210	
21.550	0.208	0.262	
21.555	0.264	0.284	
21.560	0.255	0.288	
21.565	0.204	0.282	
21.570	0.221	0.267	
21.575	0.250	0.253	
21.580	0.133	0.238	
21.585	0.133	0.217	
21.590	0.188	0.193	
21.595	0.163	0.177	
21.600	0.191	0.169	
21.605	0.363	0.176	
21.610	0.385	0.207	
21.615	0.435	0.256	
21.620	0.586	0.318	
21.625	0.706	0.397	
21.630	0.706	0.487	
21.635	0.814	0.576	
21.640	0.922	0.664	
21.645	0.910	0.750	
21.650	0.909	0.822	
21.655	0.955	0.875	
21.660	0.976	0.915	
21.665	0.906	0.942	
21.670	0.929	0.953	
21.675	0.912	0.952	
21.680	0.785	0.939	
21.685	0.835	0.912	
21.690	0.884	0.885	
21.695	0.800	0.865	
21.700	0.805	0.848	
21.705	0.858	0.833	
21.710	0.826	0.827	
21.715	0.793	0.824	
21.720	0.805	0.818	
21.725	0.893	0.817	
21.730	0.860	0.825	
21.735	0.874	0.837	
21.740	0.870	0.849	
21.745	0.867	0.859	
21.750	0.981	0.871	
21.755	1.072	0.896	
21.760	0.979	0.932	
21.765	0.687	0.950	
21.770	0.614	0.920	
21.775	0.647	0.854	
21.780	0.634	0.781	
21.785	0.730	0.723	
21.790	0.820	0.696	
21.795	0.874	0.703	
21.800	0.929	0.739	
21.805	1.025	0.793	
21.810	0.991	0.856	
21.815	0.915	0.911	
21.820	0.976	0.944	
21.825	0.990	0.965	
21.830	0.878	0.973	
21.835	0.852	0.964	
21.840	0.971	0.946	
21.845	0.942	0.934	
21.850	0.907	0.930	
21.855	0.950	0.927	
21.860	0.945	0.928	
21.865	0.835	0.927	
21.870	0.977	0.921	
21.875	0.999	0.923	
21.880	1.023	0.938	
21.885	1.075	0.962	
21.890	1.150	0.996	
21.895	1.135	1.037	
21.900	1.055	1.072	
21.905	1.036	1.089	
21.910	1.034	1.089	
21.915	0.855	1.070	
21.920	0.845	1.029	
21.925	0.819	0.974	
21.930	0.579	0.908	
21.935	0.466	0.821	
21.940	0.507	0.720	
21.945	0.408	0.624	
21.950	0.250	0.535	
21.955	0.235	0.445	
21.960	0.181	0.360	
21.965	0.053	0.282	
21.970	0.017	0.205	
21.975	0.053	0.136	
21.980	0.079	0.087	
21.985	0.117	0.061	
21.990	0.165	0.060	
21.995	0.149	0.075	
22.000	0.128	0.096	
22.005	0.140	0.114	
22.010	0.127	0.127	
22.015	0.085	0.131	
22.020	0.172	0.131	
22.025	0.244	0.138	
22.030	0.157	0.154	
22.035	0.171	0.167	
22.040	0.250	0.177	
22.045	0.172	0.188	
22.050	0.088	0.190	
22.055	0.127	0.178	
22.060	0.082	0.159	
22.065	0.001	0.134	
22.070	0.015	0.101	
22.075	-0.048	0.066	
22.080	-0.083	0.029	
22.085	-0.023	-0.006	
22.090	0.055	-0.025	
22.095	0.055	-0.023	
22.100	0.021	-0.010	
22.105	0.059	0.006	
22.110	0.003	0.019	
22.115	-0.087	0.021	
22.120	-0.063	0.007	
22.125	0.010	-0.010	
22.130	0.021	-0.018	
22.135	0.131	-0.010	
22.140	0.203	0.018	
22.145	0.096	0.058	
22.150	-0.110	0.080	
22.155	-0.136	0.064	
22.160	-0.098	0.022	
22.165	-0.087	-0.022	
22.170	0.027	-0.051	
22.175	0.127	-0.051	
22.180	0.119	-0.024	
22.185	0.116	0.016	
22.190	0.127	0.055	
22.195	0.107	0.086	
22.200	0.110	0.106	
22.205	0.258	0.123	
22.210	0.281	0.151	
22.215	0.180	0.183	
22.220	0.221	0.204	
22.225	0.305	0.220	
22.230	0.217	0.236	
22.235	0.191	0.243	
22.240	0.243	0.240	
22.245	0.241	0.237	
22.250	0.217	0.235	
22.255	0.203	0.231	
22.260	0.241	0.226	
22.265	0.296	0.228	
22.270	0.522	0.249	
22.275	0.602	0.303	
22.280	0.537	0.378	
22.285	0.567	0.449	
22.290	0.589	0.505	
22.295	0.457	0.541	
22.300	0.382	0.546	
22.305	0.392	0.522	
22.310	0.318	0.482	
22.315	0.117	0.427	
22.320	0.053	0.348	
22.325	0.035	0.258	
22.330	-0.080	0.167	
22.335	-0.084	0.083	
22.340	-0.084	0.010	
22.345	-0.127	-0.045	
22.350	-0.167	-0.087	
22.355	-0.132	-0.119	
22.360	-0.177	-0.141	
22.365	-0.173	-0.156	
22.370	-0.135	-0.165	
22.375	-0.095	-0.164	
22.380	-0.115	-0.153	
22.385	-0.103	-0.140	
22.390	-0.057	-0.124	
22.395	-0.069	-0.107	
22.400	-0.084	-0.092	
22.405	-0.058	-0.081	
22.410	-0.003	-0.070	
22.415	-0.061	-0.058	
22.420	-0.051	-0.049	
22.425	-0.006	-0.044	
22.430	-0.061	-0.039	
22.435	-0.035	-0.037	
22.440	-0.029	-0.036	
22.445	-0.061	-0.037	
22.450	-0.127	-0.043	
22.455	-0.129	-0.059	
22.460	-0.122	-0.079	
22.465	-0.171	-0.099	
22.470	-0.127	-0.118	
22.475	-0.135	-0.132	
22.480	-0.208	-0.142	
22.485	-0.161	-0.154	
22.490	-0.095	-0.160	
22.495	-0.110	-0.155	
22.500	-0.153	-0.145	
22.505	-0.156	-0.140	
22.510	-0.046	-0.135	
22.515	0.093	-0.115	
22.520	0.374	-0.060	
22.525	0.412	0.036	
22.530	0.334	0.147	
22.535	0.148	0.231	
22.540	0.033	0.261	
22.545	0.020	0.238	
22.550	0.104	0.191	
22.555	0.244	0.154	
22.560	0.233	0.146	
22.565	0.152	0.155	
22.570	0.195	0.164	
22.575	0.186	0.172	
22.580	0.134	0.177	
22.585	0.188	0.176	
22.590	0.259	0.179	
22.595	0.243	0.191	
22.600	0.241	0.207	
22.605	0.270	0.223	
22.610	0.224	0.236	
22.615	0.139	0.238	
22.620	0.149	0.225	
22.625	0.201	0.207	
22.630	0.195	0.194	
22.635	0.223	0.190	
22.640	0.279	0.195	
22.645	0.314	0.212	
22.650	0.351	0.239	
22.655	0.431	0.276	
22.660	0.461	0.320	
22.665	0.400	0.363	
22.670	0.431	0.396	
22.675	0.427	0.416	
22.680	0.371	0.426	
22.685	0.369	0.423	
22.690	0.339	0.411	
22.695	0.252	0.389	
22.700	0.101	0.350	
22.705	0.052	0.289	
22.710	-0.040	0.214	
22.715	-0.127	0.130	
22.720	-0.121	0.046	
22.725	-0.116	-0.027	
22.730	-0.145	-0.080	
22.735	-0.170	-0.118	
22.740	-0.185	-0.146	
22.745	-0.203	-0.167	
22.750	-0.225	-0.184	
22.755	-0.193	-0.198	
22.760	-0.159	-0.203	
22.765	-0.171	-0.200	
22.770	-0.127	-0.191	
22.775	-0.110	-0.175	
22.780	-0.127	-0.158	
22.785	-0.130	-0.142	
22.790	-0.107	-0.132	
22.795	-0.119	-0.123	
22.800	-0.112	-0.118	
22.805	-0.118	-0.114	
22.810	-0.066	-0.111	
22.815	-0.072	-0.103	
22.820	-0.060	-0.093	
22.825	-0.080	-0.083	
22.830	-0.158	-0.081	
22.835	-0.132	-0.089	
22.840	-0.124	-0.101	
22.845	-0.153	-0.114	
22.850	-0.176	-0.127	
22.855	-0.162	-0.140	
22.860	-0.167	-0.152	
22.865	-0.207	-0.162	
22.870	-0.179	-0.172	
22.875	-0.147	-0.178	
22.880	-0.155	-0.177	
22.885	-0.164	-0.173	
22.890	-0.182	-0.169	
22.895	-0.177	-0.169	
22.900	-0.162	-0.170	
22.905	-0.035	-0.164	
22.910	0.042	-0.139	
22.915	0.056	-0.097	
22.920	-0.046	-0.053	
22.925	-0.139	-0.030	
22.930	-0.084	-0.032	
22.935	0.230	-0.030	
22.940	0.641	0.023	
22.945	1.029	0.162	
22.950	1.274	0.384	
22.955	1.482	0.656	
22.960	1.561	0.936	
22.965	1.462	1.181	
22.970	1.434	1.356	
22.975	1.405	1.457	
22.980	1.274	1.492	
22.985	1.249	1.474	
22.990	1.237	1.424	
22.995	1.089	1.359	
23.000	0.909	1.276	
23.005	0.886	1.174	
23.010	0.893	1.072	
23.015	0.845	0.987	
23.020	0.820	0.920	
23.025	0.855	0.871	
23.030	0.845	0.842	
23.035	0.916	0.832	
23.040	1.068	0.846	
23.045	1.123	0.890	
23.050	1.150	0.953	
23.055	1.219	1.022	
23.060	1.263	1.091	
23.065	1.211	1.153	
23.070	1.170	1.194	
23.075	1.089	1.208	
23.080	0.984	1.192	
23.085	0.964	1.150	
23.090	0.964	1.095	
23.095	0.915	1.042	
23.100	0.779	0.988	
23.105	0.825	0.932	
23.110	0.817	0.882	
23.115	0.577	0.834	
23.120	-0.031	0.747	
23.125	-0.477	0.568	
23.130	-0.888	0.288	
23.135	-0.993	-0.052	
23.140	-0.995	-0.388	
23.145	-0.995	-0.665	
23.150	-0.995	-0.863	
23.155	-0.995	-0.984	
23.160	-0.995	-1.046	
23.165	-0.995	-1.067	
23.170	-0.995	-1.064	
23.175	-0.995	-1.050	
23.180	-0.993	-1.032	
23.185	-0.995	-1.017	
23.190	-0.993	-1.005	
23.195	-0.969	-0.996	
23.200	-0.957	-0.987	
23.205	-0.885	-0.974	
23.210	-0.787	-0.950	
23.215	-0.763	-0.912	
23.220	-0.695	-0.863	
23.225	-0.633	-0.809	
23.230	-0.619	-0.752	
23.235	-0.581	-0.698	
23.240	-0.521	-0.649	
23.245	-0.494	-0.603	
23.250	-0.482	-0.561	
23.255	-0.407	-0.522	
23.260	-0.350	-0.483	
23.265	-0.323	-0.441	
23.270	-0.148	-0.391	
23.275	0.334	-0.308	
23.280	1.058	-0.137	
23.285	1.844	0.170	
23.290	3.069	0.650	
23.295	3.075	1.277	
23.300	3.071	1.916	
23.305	3.069	2.444	
23.310	3.072	2.819	
23.315	3.078	3.050	
23.320	3.078	3.169	
23.325	3.081	3.211	
23.330	3.083	3.207	
23.335	2.950	3.176	
23.340	2.792	3.118	
23.345	2.525	3.024	
23.350	2.220	2.884	
23.355	1.943	2.694	
23.360	1.715	2.464	
23.365	1.451	2.211	
23.370	1.234	1.949	
23.375	1.072	1.690	
23.380	0.900	1.449	
23.385	0.783	1.231	
23.390	0.664	1.041	
23.395	0.499	0.876	
23.400	0.299	0.724	
23.405	0.281	0.579	
23.410	0.324	0.456	
23.415	0.269	0.366	
23.420	0.295	0.308	
23.425	0.302	0.276	
23.430	0.223	0.261	
23.435	0.220	0.250	
23.440	0.264	0.241	
23.445	0.229	0.238	
23.450	0.084	0.229	
23.455	0.029	0.202	
23.460	-0.052	0.156	
23.465	-0.130	0.095	
23.470	-0.176	0.025	
23.475	-0.237	-0.048	
23.480	-0.278	-0.117	
23.485	-0.335	-0.182	
23.490	-0.371	-0.241	
23.495	-0.411	-0.294	
23.500	-0.480	-0.343	
23.505	-0.511	-0.391	
23.510	-0.533	-0.436	
23.515	-0.561	-0.477	
23.520	-0.533	-0.509	
23.525	-0.541	-0.532	
23.530	-0.537	-0.544	
23.535	-0.530	-0.548	
23.540	-0.498	-0.546	
23.545	-0.480	-0.537	
23.550	-0.457	-0.522	
23.555	-0.428	-0.502	
23.560	-0.401	-0.479	
23.565	-0.413	-0.455	
23.570	-0.394	-0.434	
23.575	-0.399	-0.417	
23.580	-0.433	-0.407	
23.585	-0.426	-0.405	
23.590	-0.394	-0.407	
23.595	-0.398	-0.407	
23.600	-0.445	-0.407	
23.605	-0.456	-0.413	
23.610	-0.466	-0.423	
23.615	-0.509	-0.438	
23.620	-0.538	-0.458	
23.625	-0.569	-0.482	
23.630	-0.633	-0.512	
23.635	-0.717	-0.550	
23.640	-0.987	-0.608	
23.645	-0.995	-0.694	
23.650	-0.995	-0.792	
23.655	-0.995	-0.877	
23.660	-0.996	-0.941	
23.665	-0.995	-0.983	
23.670	-0.996	-1.005	
23.675	-0.996	-1.015	
23.680	-0.996	-1.016	
23.685	-0.996	-1.013	
23.690	-0.995	-1.008	
23.695	-0.995	-1.004	
23.700	-0.995	-1.000	
23.705	-0.995	-0.997	
23.710	-0.995	-0.995	
23.715	-0.995	-0.994	
23.720	-0.995	-0.994	
23.725	-0.984	-0.993	
23.730	-0.915	-0.989	
23.735	-0.796	-0.971	
23.740	-0.671	-0.929	
23.745	-0.585	-0.863	
23.750	-0.526	-0.780	
23.755	-0.448	-0.692	
23.760	-0.373	-0.604	
23.765	-0.329	-0.519	
23.770	-0.239	-0.440	
23.775	-0.148	-0.364	
23.780	-0.055	-0.287	
23.785	0.009	-0.207	
23.790	0.136	-0.126	
23.795	0.249	-0.038	
23.800	0.313	0.056	
23.805	0.464	0.154	
23.810	0.515	0.254	
23.815	0.418	0.345	
23.820	0.453	0.409	
23.825	0.563	0.452	
23.830	0.559	0.489	
23.835	0.615	0.523	
23.840	0.709	0.558	
23.845	0.660	0.597	
23.850	0.582	0.626	
23.855	0.658	0.639	
23.860	0.701	0.648	
23.865	0.553	0.653	
23.870	0.505	0.642	
23.875	0.479	0.612	
23.880	0.420	0.571	
23.885	0.343	0.523	
23.890	0.391	0.471	
23.895	0.330	0.426	
23.900	0.217	0.384	
23.905	0.264	0.340	
23.910	0.340	0.305	
23.915	0.220	0.286	
23.920	0.299	0.273	
23.925	0.415	0.273	
23.930	0.397	0.294	
23.935	0.424	0.325	
23.940	0.522	0.362	
23.945	0.574	0.407	
23.950	0.553	0.457	
23.955	0.599	0.502	
23.960	0.681	0.544	
23.965	0.603	0.583	
23.970	0.614	0.609	
23.975	0.655	0.625	
23.980	0.643	0.635	
23.985	0.591	0.640	
23.990	0.542	0.634	
23.995	0.508	0.614	
24.000	0.492	0.586	
24.005	0.522	0.557	
24.010	0.525	0.535	
24.015	0.395	0.516	
24.020	0.376	0.490	
24.025	0.389	0.457	
24.030	0.333	0.425	
24.035	0.285	0.393	
24.040	0.356	0.363	
24.045	0.353	0.343	
24.050	0.304	0.333	
24.055	0.307	0.325	
24.060	0.331	0.319	
24.065	0.258	0.314	
24.070	0.420	0.311	
24.075	0.634	0.333	
24.080	0.548	0.385	
24.085	0.405	0.438	
24.090	0.246	0.457	
24.095	0.131	0.430	
24.100	0.104	0.365	
24.105	0.299	0.295	
24.110	0.432	0.259	
24.115	0.447	0.267	
24.120	0.486	0.306	
24.125	0.551	0.359	
24.130	0.510	0.416	
24.135	0.479	0.462	
24.140	0.586	0.494	
24.145	0.625	0.524	
24.150	0.525	0.550	
24.155	0.589	0.567	
24.160	0.596	0.576	
24.165	0.461	0.578	
24.170	0.489	0.565	
24.175	0.563	0.546	
24.180	0.537	0.536	
24.185	0.524	0.532	
24.190	0.600	0.532	
24.195	0.638	0.543	
24.200	0.621	0.564	
24.205	0.675	0.588	
24.210	0.791	0.618	
24.215	0.779	0.660	
24.220	0.782	0.702	
24.225	0.814	0.740	
24.230	0.741	0.767	
24.235	0.646	0.774	
24.240	0.652	0.759	
24.245	0.597	0.729	
24.250	0.411	0.684	
24.255	0.402	0.619	
24.260	0.392	0.547	
24.265	0.218	0.476	
24.270	0.128	0.397	
24.275	0.082	0.311	
24.280	0.013	0.225	
24.285	-0.013	0.146	
24.290	-0.028	0.078	
24.295	-0.035	0.026	
24.300	-0.071	-0.013	
24.305	-0.057	-0.040	
24.310	-0.080	-0.058	
24.315	-0.103	-0.071	
24.320	-0.037	-0.079	
24.325	-0.006	-0.077	
24.330	-0.025	-0.065	
24.335	-0.048	-0.052	
24.340	-0.016	-0.042	
24.345	0.023	-0.032	
24.350	0.049	-0.018	
24.355	0.070	0.001	
24.360	0.079	0.023	
24.365	-0.020	0.039	
24.370	-0.046	0.039	
24.375	-0.025	0.026	
24.380	-0.031	0.009	
24.385	-0.034	-0.007	
24.390	-0.008	-0.018	
24.395	-0.016	-0.023	
24.400	-0.097	-0.028	
24.405	-0.100	-0.039	
24.410	-0.051	-0.054	
24.415	-0.060	-0.063	
24.420	-0.057	-0.066	
24.425	-0.057	-0.066	
24.430	-0.107	-0.067	
24.435	-0.107	-0.072	
24.440	-0.049	-0.079	
24.445	-0.037	-0.079	
24.450	-0.103	-0.074	
24.455	-0.080	-0.073	
24.460	-0.028	-0.073	
24.465	0.006	-0.065	
24.470	0.023	-0.049	
24.475	-0.003	-0.030	
24.480	-0.074	-0.017	
24.485	-0.173	-0.023	
24.490	-0.135	-0.047	
24.495	-0.052	-0.073	
24.500	-0.051	-0.086	
24.505	0.000	-0.083	
24.510	0.033	-0.067	
24.515	0.038	-0.042	
24.520	0.113	-0.012	
24.525	0.220	0.027	
24.530	0.203	0.077	
24.535	0.188	0.124	
24.540	0.188	0.160	
24.545	0.119	0.180	
24.550	-0.019	0.175	
24.555	0.062	0.147	
24.560	0.221	0.121	
24.565	0.181	0.118	
24.570	0.236	0.132	
24.575	0.282	0.158	
24.580	0.266	0.191	
24.585	0.211	0.219	
24.590	0.316	0.239	
24.595	0.360	0.260	
24.600	0.310	0.284	
24.605	0.415	0.308	
24.610	0.482	0.338	
24.615	0.437	0.374	
24.620	0.434	0.405	
24.625	0.467	0.428	
24.630	0.372	0.440	
24.635	0.325	0.436	
24.640	0.330	0.416	
24.645	0.288	0.388	
24.650	0.122	0.350	
24.655	0.070	0.295	
24.660	0.027	0.226	
24.665	-0.103	0.152	
24.670	-0.155	0.072	
24.675	-0.148	-0.006	
24.680	-0.158	-0.072	
24.685	-0.177	-0.120	
24.690	-0.144	-0.152	
24.695	-0.130	-0.167	
24.700	-0.213	-0.172	
24.705	-0.199	-0.178	
24.710	-0.142	-0.182	
24.715	-0.138	-0.180	
24.720	-0.129	-0.170	
24.725	-0.095	-0.157	
24.730	-0.118	-0.142	
24.735	-0.132	-0.129	
24.740	-0.092	-0.121	
24.745	-0.061	-0.112	
24.750	-0.092	-0.101	
24.755	-0.029	-0.090	
24.760	0.035	-0.073	
24.765	-0.013	-0.050	
24.770	-0.022	-0.030	
24.775	-0.046	-0.019	
24.780	-0.145	-0.022	
24.785	-0.155	-0.043	
24.790	-0.100	-0.070	
24.795	-0.098	-0.092	
24.800	-0.159	-0.106	
24.805	-0.139	-0.119	
24.810	-0.135	-0.130	
24.815	-0.208	-0.140	
24.820	-0.171	-0.152	
24.825	-0.141	-0.162	
24.830	-0.116	-0.163	
24.835	-0.103	-0.156	
24.840	-0.084	-0.142	
24.845	-0.115	-0.127	
24.850	-0.179	-0.119	
24.855	-0.110	-0.120	
24.860	0.027	-0.115	
24.865	-0.002	-0.095	
24.870	-0.002	-0.066	
24.875	-0.068	-0.043	
24.880	-0.179	-0.038	
24.885	-0.210	-0.058	
24.890	-0.165	-0.093	
24.895	-0.087	-0.121	
24.900	-0.071	-0.132	
24.905	0.009	-0.123	
24.910	0.128	-0.092	
24.915	0.064	-0.045	
24.920	0.070	0.001	
24.925	0.102	0.038	
24.930	0.062	0.065	
24.935	0.053	0.079	
24.940	0.127	0.085	
24.945	0.142	0.093	
24.950	0.055	0.101	
24.955	0.020	0.099	
24.960	0.117	0.089	
24.965	0.154	0.087	
24.970	0.208	0.099	
24.975	0.270	0.125	
24.980	0.273	0.162	
24.985	0.247	0.200	
24.990	0.354	0.233	
24.995	0.473	0.272	
25.000	0.449	0.322	
25.005	0.501	0.373	
25.010	0.614	0.425	
25.015	0.470	0.473	
25.020	0.441	0.502	
25.025	0.487	0.508	
25.030	0.420	0.502	
25.035	0.447	0.488	
25.040	0.594	0.480	
25.045	0.602	0.490	
25.050	0.476	0.509	
25.055	0.437	0.517	
25.060	0.368	0.504	
25.065	0.261	0.471	
25.070	0.183	0.418	
25.075	0.168	0.351	
25.080	0.075	0.281	
25.085	-0.051	0.207	
25.090	0.024	0.132	
25.095	0.058	0.073	
25.100	0.003	0.038	
25.105	0.026	0.017	
25.110	0.000	0.007	
25.115	-0.029	-0.000	
25.120	-0.006	-0.006	
25.125	0.058	-0.008	
25.130	0.046	0.000	
25.135	-0.002	0.011	
25.140	0.026	0.017	
25.145	0.013	0.020	
25.150	-0.031	0.019	
25.155	-0.014	0.012	
25.160	0.029	0.005	
25.165	-0.019	0.002	
25.170	-0.063	-0.004	
25.175	-0.068	-0.015	
25.180	-0.098	-0.032	
25.185	-0.132	-0.052	
25.190	-0.156	-0.077	
25.195	-0.200	-0.104	
25.200	-0.220	-0.134	
25.205	-0.197	-0.163	
25.210	-0.130	-0.181	
25.215	-0.132	-0.184	
25.220	-0.147	-0.177	
25.225	-0.126	-0.166	
25.230	-0.164	-0.156	
25.235	-0.203	-0.152	
25.240	-0.168	-0.157	
25.245	-0.142	-0.161	
25.250	-0.081	-0.159	
25.255	0.013	-0.141	
25.260	0.078	-0.106	
25.265	0.027	-0.060	
25.270	-0.142	-0.026	
25.275	-0.173	-0.025	
25.280	-0.182	-0.051	
25.285	-0.170	-0.087	
25.290	-0.090	-0.116	
25.295	-0.038	-0.128	
25.300	-0.055	-0.120	
25.305	-0.034	-0.102	
25.310	-0.009	-0.081	
25.315	-0.011	-0.058	
25.320	0.007	-0.038	
25.325	0.065	-0.017	
25.330	0.128	0.008	
25.335	0.105	0.039	
25.340	0.130	0.068	
25.345	0.131	0.093	
25.350	0.087	0.110	
25.355	0.151	0.119	
25.360	0.188	0.128	
25.365	0.189	0.142	
25.370	0.131	0.155	
25.375	0.154	0.160	
25.380	0.264	0.166	
25.385	0.244	0.181	
25.390	0.453	0.210	
25.395	0.563	0.265	
25.400	0.501	0.339	
25.405	0.539	0.410	
25.410	0.537	0.467	
25.415	0.447	0.504	
25.420	0.357	0.512	
25.425	0.307	0.489	
25.430	0.247	0.443	
25.435	0.116	0.382	
25.440	0.088	0.307	
25.445	0.012	0.228	
25.450	-0.119	0.146	
25.455	-0.142	0.062	
25.460	-0.139	-0.016	
25.465	-0.200	-0.080	
25.470	-0.203	-0.131	
25.475	-0.173	-0.168	
25.480	-0.167	-0.188	
25.485	-0.223	-0.197	
25.490	-0.234	-0.204	
25.495	-0.208	-0.211	
25.500	-0.196	-0.215	
25.505	-0.190	-0.214	
25.510	-0.152	-0.207	
25.515	-0.150	-0.195	
25.520	-0.148	-0.181	
25.525	-0.084	-0.165	
25.530	-0.054	-0.144	
25.535	-0.072	-0.119	
25.540	-0.066	-0.097	
25.545	-0.074	-0.081	
25.550	-0.121	-0.074	
25.555	-0.115	-0.076	
25.560	-0.109	-0.085	
25.565	-0.173	-0.097	
25.570	-0.202	-0.115	
25.575	-0.194	-0.138	
25.580	-0.196	-0.160	
25.585	-0.202	-0.178	
25.590	-0.203	-0.191	
25.595	-0.219	-0.200	
25.600	-0.213	-0.207	
25.605	-0.187	-0.211	
25.610	-0.152	-0.208	
25.615	-0.152	-0.197	
25.620	-0.170	-0.185	
25.625	-0.164	-0.175	
25.630	-0.184	-0.169	
25.635	-0.207	-0.169	
25.640	-0.129	-0.171	
25.645	0.036	-0.160	
25.650	0.120	-0.123	
25.655	0.172	-0.061	
25.660	-0.011	0.002	
25.665	-0.164	0.032	
25.670	-0.167	0.017	
25.675	-0.122	-0.022	
25.680	-0.066	-0.059	
25.685	-0.090	-0.082	
25.690	-0.035	-0.092	
25.695	-0.011	-0.087	
25.700	-0.016	-0.072	
25.705	-0.020	-0.055	
25.710	-0.038	-0.040	
25.715	0.013	-0.029	
25.720	0.058	-0.017	
25.725	0.091	0.003	
25.730	0.110	0.028	
25.735	0.033	0.051	
25.740	0.137	0.068	
25.745	0.208	0.087	
25.750	0.139	0.112	
25.755	0.169	0.134	
25.760	0.185	0.151	
25.765	0.145	0.163	
25.770	0.211	0.170	
25.775	0.296	0.182	
25.780	0.431	0.211	
25.785	0.458	0.261	
25.790	0.539	0.325	
25.795	0.545	0.392	
25.800	0.492	0.450	
25.805	0.484	0.489	
25.810	0.475	0.507	
25.815	0.382	0.506	
25.820	0.313	0.484	
25.825	0.215	0.440	
25.830	0.085	0.375	
25.835	-0.060	0.289	
25.840	-0.051	0.190	
25.845	-0.071	0.095	
25.850	-0.138	0.016	
25.855	-0.162	-0.050	
25.860	-0.179	-0.102	
25.865	-0.228	-0.144	
25.870	-0.219	-0.177	
25.875	-0.207	-0.201	
25.880	-0.219	-0.215	
25.885	-0.219	-0.222	
25.890	-0.188	-0.223	
25.895	-0.185	-0.219	
25.900	-0.174	-0.210	
25.905	-0.113	-0.197	
25.910	-0.087	-0.177	
25.915	-0.054	-0.150	
25.920	-0.058	-0.121	
25.925	-0.045	-0.094	
25.930	-0.028	-0.072	
25.935	-0.068	-0.055	
25.940	-0.040	-0.046	
25.945	0.000	-0.040	
25.950	0.013	-0.031	
25.955	-0.034	-0.021	
25.960	-0.040	-0.017	
25.965	-0.126	-0.022	
25.970	-0.124	-0.040	
25.975	-0.122	-0.065	
25.980	-0.130	-0.088	
25.985	-0.145	-0.107	
25.990	-0.119	-0.122	
25.995	-0.092	-0.129	
26.000	-0.129	-0.128	
26.005	-0.110	-0.125	
26.010	-0.084	-0.121	
26.015	-0.162	-0.117	
26.020	-0.167	-0.120	
26.025	-0.130	-0.128	
26.030	-0.084	-0.132	
26.035	-0.023	-0.124	
26.040	0.233	-0.093	
26.045	0.417	-0.021	
26.050	0.345	0.084	
26.055	0.090	0.175	
26.060	-0.106	0.207	
26.065	-0.179	0.170	
26.070	-0.165	0.092	
26.075	-0.109	0.008	
26.080	-0.081	-0.056	
26.085	-0.109	-0.095	
26.090	-0.078	-0.114	
26.095	-0.042	-0.116	
26.100	-0.057	-0.106	
26.105	-0.038	-0.090	
26.110	0.020	-0.071	
26.115	0.015	-0.048	
26.120	0.012	-0.025	
26.125	0.088	-0.003	
26.130	0.104	0.022	
26.135	-0.009	0.043	
26.140	0.067	0.053	
26.145	0.134	0.060	
26.150	0.145	0.074	
26.155	0.186	0.096	
26.160	0.197	0.122	
26.165	0.215	0.149	
26.170	0.292	0.177	
26.175	0.426	0.215	
26.180	0.450	0.267	
26.185	0.421	0.324	
26.190	0.501	0.375	
26.195	0.489	0.419	
26.200	0.417	0.451	
26.205	0.443	0.465	
26.210	0.421	0.465	
26.215	0.292	0.452	
26.220	0.157	0.416	
26.225	0.097	0.354	
26.230	-0.020	0.273	
26.235	-0.116	0.181	
26.240	-0.115	0.085	
26.245	-0.116	0.001	
26.250	-0.177	-0.065	
26.255	-0.237	-0.118	
26.260	-0.243	-0.164	
26.265	-0.254	-0.201	
26.270	-0.272	-0.229	
26.275	-0.262	-0.250	
26.280	-0.251	-0.262	
26.285	-0.304	-0.269	
26.290	-0.286	-0.276	
26.295	-0.193	-0.277	
26.300	-0.165	-0.266	
26.305	-0.139	-0.241	
26.310	-0.113	-0.211	
26.315	-0.110	-0.179	
26.320	-0.122	-0.151	
26.325	-0.069	-0.129	
26.330	-0.072	-0.110	
26.335	-0.121	-0.096	
26.340	-0.101	-0.090	
26.345	-0.074	-0.089	
26.350	-0.086	-0.087	
26.355	-0.124	-0.088	
26.360	-0.126	-0.093	
26.365	-0.171	-0.103	
26.370	-0.216	-0.121	
26.375	-0.210	-0.145	
26.380	-0.185	-0.168	
26.385	-0.243	-0.186	
26.390	-0.199	-0.201	
26.395	-0.155	-0.208	
26.400	-0.156	-0.203	
26.405	-0.164	-0.193	
26.410	-0.150	-0.181	
26.415	-0.139	-0.170	
26.420	-0.190	-0.162	
26.425	-0.155	-0.159	
26.430	-0.132	-0.157	
26.435	-0.075	-0.150	
26.440	0.076	-0.128	
26.445	0.134	-0.084	
26.450	-0.051	-0.034	
26.455	-0.200	-0.010	
26.460	-0.255	-0.029	
26.465	-0.217	-0.076	
26.470	-0.171	-0.125	
26.475	-0.089	-0.156	
26.480	-0.028	-0.160	
26.485	-0.061	-0.142	
26.490	0.020	-0.113	
26.495	0.007	-0.078	
26.500	0.015	-0.045	
26.505	0.042	-0.016	
26.510	0.096	0.010	
26.515	0.110	0.037	
26.520	0.047	0.060	
26.525	0.104	0.074	
26.530	0.169	0.087	
26.535	0.146	0.105	
26.540	0.175	0.123	
26.545	0.188	0.141	
26.550	0.159	0.157	
26.555	0.180	0.167	
26.560	0.204	0.175	
26.565	0.307	0.187	
26.570	0.365	0.214	
26.575	0.434	0.255	
26.580	0.472	0.307	
26.585	0.536	0.364	
26.590	0.609	0.424	
26.595	0.580	0.483	
26.600	0.501	0.528	
26.605	0.490	0.548	
26.610	0.400	0.544	
26.615	0.302	0.515	
26.620	0.142	0.458	
26.625	0.010	0.373	
26.630	-0.060	0.268	
26.635	-0.104	0.156	
26.640	-0.115	0.055	
26.645	-0.115	-0.026	
26.650	-0.161	-0.084	
26.655	-0.177	-0.125	
26.660	-0.197	-0.155	
26.665	-0.225	-0.178	
26.670	-0.194	-0.196	
26.675	-0.174	-0.204	
26.680	-0.176	-0.204	
26.685	-0.223	-0.201	
26.690	-0.179	-0.199	
26.695	-0.148	-0.195	
26.700	-0.179	-0.188	
26.705	-0.207	-0.182	
26.710	-0.147	-0.180	
26.715	-0.113	-0.174	
26.720	-0.060	-0.159	
26.725	-0.011	-0.133	
26.730	-0.017	-0.101	
26.735	-0.092	-0.073	
26.740	-0.098	-0.059	
26.745	-0.072	-0.058	
26.750	-0.127	-0.064	
26.755	-0.156	-0.077	
26.760	-0.130	-0.096	
26.765	-0.177	-0.115	
26.770	-0.200	-0.134	
26.775	-0.159	-0.153	
26.780	-0.171	-0.166	
26.785	-0.228	-0.176	
26.790	-0.179	-0.185	
26.795	-0.165	-0.190	
26.800	-0.164	-0.189	
26.805	-0.141	-0.182	
26.810	-0.132	-0.172	
26.815	-0.147	-0.161	
26.820	-0.153	-0.152	
26.825	-0.127	-0.147	
26.830	-0.084	-0.140	
26.835	-0.040	-0.126	
26.840	-0.022	-0.104	
26.845	-0.029	-0.080	
26.850	-0.162	-0.064	
26.855	-0.246	-0.072	
26.860	-0.269	-0.106	
26.865	-0.153	-0.146	
26.870	-0.092	-0.169	
26.875	0.004	-0.165	
26.880	0.024	-0.135	
26.885	0.010	-0.093	
26.890	0.110	-0.048	
26.895	0.172	0.002	
26.900	0.099	0.052	
26.905	0.140	0.090	
26.910	0.203	0.119	
26.915	0.143	0.143	
26.920	0.033	0.153	
26.925	0.078	0.143	
26.930	0.146	0.127	
26.935	0.157	0.120	
26.940	0.227	0.126	
26.945	0.214	0.144	
26.950	0.090	0.161	
26.955	0.105	0.162	
26.960	0.149	0.154	
26.965	0.133	0.146	
26.970	0.154	0.141	
26.975	0.287	0.147	
26.980	0.391	0.174	
26.985	0.340	0.220	
26.990	0.369	0.269	
26.995	0.437	0.313	
27.000	0.353	0.351	
27.005	0.290	0.370	
27.010	0.252	0.366	
27.015	0.177	0.342	
27.020	0.070	0.298	
27.025	0.050	0.238	
27.030	-0.064	0.170	
27.035	-0.127	0.095	
27.040	-0.113	0.021	
27.045	-0.089	-0.040	
27.050	-0.141	-0.082	
27.055	-0.158	-0.112	
27.060	-0.167	-0.135	
27.065	-0.150	-0.151	
27.070	-0.145	-0.159	
27.075	-0.150	-0.161	
27.080	-0.095	-0.157	
27.085	-0.124	-0.148	
27.090	-0.097	-0.136	
27.095	-0.035	-0.121	
27.100	-0.071	-0.103	
27.105	-0.061	-0.086	
27.110	0.007	-0.070	
27.115	0.027	-0.050	
27.120	-0.002	-0.029	
27.125	0.018	-0.011	
27.130	0.012	0.002	
27.135	-0.022	0.009	
27.140	0.032	0.011	
27.145	0.072	0.015	
27.150	0.006	0.023	
27.155	-0.042	0.024	
27.160	-0.049	0.014	
27.165	-0.075	-0.003	
27.170	-0.115	-0.025	
27.175	-0.075	-0.049	
27.180	-0.051	-0.066	
27.185	-0.107	-0.076	
27.190	-0.098	-0.083	
27.195	-0.045	-0.087	
27.200	-0.081	-0.086	
27.205	-0.063	-0.082	
27.210	-0.035	-0.076	
27.215	-0.042	-0.067	
27.220	-0.087	-0.060	
27.225	-0.068	-0.058	
27.230	0.029	-0.056	
27.235	0.049	-0.042	
27.240	0.143	-0.016	
27.245	0.128	0.022	
27.250	-0.069	0.051	
27.255	-0.138	0.050	
27.260	-0.116	0.018	
27.265	-0.071	-0.021	
27.270	-0.075	-0.052	
27.275	0.072	-0.064	
27.280	0.192	-0.046	
27.285	0.152	-0.001	
27.290	0.212	0.054	
27.295	0.163	0.105	
27.300	0.134	0.142	
27.305	0.163	0.162	
27.310	0.223	0.173	
27.315	0.241	0.186	
27.320	0.227	0.201	
27.325	0.282	0.216	
27.330	0.345	0.236	
27.335	0.275	0.260	
27.340	0.334	0.281	
27.345	0.395	0.301	
27.350	0.348	0.323	
27.355	0.353	0.341	
27.360	0.353	0.352	
27.365	0.293	0.354	
27.370	0.359	0.350	
27.375	0.518	0.354	
27.380	0.618	0.383	
27.385	0.565	0.434	
27.390	0.554	0.485	
27.395	0.537	0.523	
27.400	0.434	0.540	
27.405	0.327	0.529	
27.410	0.340	0.491	
27.415	0.273	0.441	
27.420	0.119	0.382	
27.425	0.104	0.310	
27.430	-0.006	0.233	
27.435	-0.095	0.151	
27.440	-0.126	0.069	
27.445	-0.103	-0.005	
27.450	-0.141	-0.063	
27.455	-0.139	-0.103	
27.460	-0.086	-0.128	
27.465	-0.104	-0.135	
27.470	-0.116	-0.133	
27.475	-0.089	-0.127	
27.480	-0.064	-0.117	
27.485	-0.113	-0.106	
27.490	-0.078	-0.098	
27.495	-0.046	-0.090	
27.500	-0.071	-0.081	
27.505	-0.069	-0.074	
27.510	0.027	-0.065	
27.515	0.055	-0.046	
27.520	0.055	-0.020	
27.525	0.194	0.013	
27.530	0.247	0.059	
27.535	0.177	0.110	
27.540	0.220	0.153	
27.545	0.259	0.186	
27.550	0.143	0.209	
27.555	0.084	0.211	
27.560	0.047	0.189	
27.565	-0.006	0.151	
27.570	-0.054	0.104	
27.575	-0.002	0.056	
27.580	0.056	0.022	
27.585	-0.064	0.004	
27.590	-0.008	-0.010	
27.595	0.062	-0.016	
27.600	0.035	-0.009	
27.605	0.000	0.003	
27.610	-0.029	0.008	
27.615	-0.037	0.005	
27.620	-0.045	-0.005	
27.625	0.036	-0.013	
27.630	0.136	-0.007	
27.635	0.139	0.018	
27.640	0.142	0.053	
27.645	-0.058	0.077	
27.650	-0.155	0.068	
27.655	-0.145	0.028	
27.660	-0.087	-0.022	
27.665	-0.066	-0.060	
27.670	-0.051	-0.080	
27.675	0.023	-0.082	
27.680	0.079	-0.064	
27.685	0.018	-0.035	
27.690	0.039	-0.006	
27.695	0.128	0.019	
27.700	0.143	0.048	
27.705	0.136	0.079	
27.710	0.206	0.108	
27.715	0.160	0.135	
27.720	0.127	0.154	
27.725	0.183	0.162	
27.730	0.165	0.166	
27.735	0.105	0.166	
27.740	0.174	0.161	
27.745	0.223	0.160	
27.750	0.221	0.169	
27.755	0.227	0.183	
27.760	0.391	0.205	
27.765	0.513	0.249	
27.770	0.521	0.314	
27.775	0.531	0.384	
27.780	0.585	0.448	
27.785	0.534	0.499	
27.790	0.470	0.531	
27.795	0.457	0.537	
27.800	0.380	0.523	
27.805	0.253	0.487	
27.810	0.214	0.430	
27.815	0.075	0.358	
27.820	-0.008	0.273	
27.825	-0.049	0.181	
27.830	-0.080	0.094	
27.835	-0.141	0.017	
27.840	-0.144	-0.047	
27.845	-0.155	-0.096	
27.850	-0.199	-0.133	
27.855	-0.240	-0.163	
27.860	-0.216	-0.189	
27.865	-0.207	-0.208	
27.870	-0.222	-0.218	
27.875	-0.181	-0.221	
27.880	-0.145	-0.215	
27.885	-0.171	-0.202	
27.890	-0.142	-0.188	
27.895	-0.122	-0.173	
27.900	-0.122	-0.157	
27.905	-0.115	-0.142	
27.910	-0.087	-0.129	
27.915	-0.078	-0.116	
27.920	-0.110	-0.104	
27.925	-0.100	-0.098	
27.930	-0.112	-0.096	
27.935	-0.110	-0.097	
27.940	-0.126	-0.101	
27.945	-0.138	-0.107	
27.950	-0.155	-0.116	
27.955	-0.217	-0.130	
27.960	-0.205	-0.149	
27.965	-0.179	-0.168	
27.970	-0.213	-0.183	
27.975	-0.205	-0.193	
27.980	-0.182	-0.200	
27.985	-0.197	-0.202	
27.990	-0.158	-0.199	
27.995	-0.124	-0.191	
28.000	-0.161	-0.177	
28.005	-0.210	-0.168	
28.010	-0.214	-0.169	
28.015	-0.161	-0.176	
28.020	-0.072	-0.174	
28.025	0.088	-0.151	
28.030	0.096	-0.103	
28.035	0.027	-0.046	
28.040	-0.086	-0.006	
28.045	-0.145	0.001	
28.050	-0.158	-0.020	
28.055	-0.161	-0.056	
28.060	-0.119	-0.090	
28.065	-0.060	-0.112	
28.070	-0.090	-0.117	
28.075	-0.038	-0.111	
28.080	-0.020	-0.096	
28.085	-0.032	-0.076	
28.090	-0.020	-0.057	
28.095	0.024	-0.039	
28.100	0.000	-0.022	
28.105	0.001	-0.008	
28.110	0.072	0.003	
28.115	0.075	0.019	
28.120	0.047	0.035	
28.125	0.090	0.049	
28.130	0.120	0.062	
28.135	0.039	0.075	
28.140	0.146	0.083	
28.145	0.198	0.096	
28.150	0.235	0.121	
28.155	0.287	0.155	
28.160	0.423	0.200	
28.165	0.466	0.259	
28.170	0.435	0.322	
28.175	0.414	0.375	
28.180	0.423	0.409	
28.185	0.412	0.428	
28.190	0.411	0.435	
28.195	0.374	0.432	
28.200	0.218	0.414	
28.205	0.151	0.374	
28.210	0.116	0.314	
28.215	0.067	0.247	
28.220	-0.037	0.179	
28.225	-0.084	0.108	
28.230	-0.161	0.036	
28.235	-0.193	-0.033	
28.240	-0.188	-0.095	
28.245	-0.185	-0.143	
28.250	-0.205	-0.175	
28.255	-0.229	-0.197	
28.260	-0.187	-0.210	
28.265	-0.193	-0.215	
28.270	-0.207	-0.213	
28.275	-0.156	-0.208	
28.280	-0.060	-0.194	
28.285	0.023	-0.163	
28.290	0.105	-0.113	
28.295	0.177	-0.049	
28.300	0.178	0.021	
28.305	0.042	0.078	
28.310	0.142	0.110	
28.315	0.206	0.131	
28.320	0.188	0.151	
28.325	0.154	0.167	
28.330	0.169	0.174	
28.335	0.093	0.173	
28.340	0.058	0.159	
28.345	0.049	0.135	
28.350	-0.009	0.105	
28.355	-0.068	0.069	
28.360	-0.055	0.029	
28.365	-0.095	-0.008	
28.370	-0.119	-0.042	
28.375	-0.068	-0.069	
28.380	-0.023	-0.083	
28.385	-0.058	-0.082	
28.390	-0.046	-0.075	
28.395	0.004	-0.065	
28.400	-0.046	-0.051	
28.405	-0.116	-0.045	
28.410	-0.089	-0.050	
28.415	0.078	-0.054	
28.420	0.246	-0.031	
28.425	0.287	0.025	
28.430	0.224	0.096	
28.435	-0.074	0.144	
28.440	-0.174	0.137	
28.445	-0.181	0.080	
28.450	-0.158	0.005	
28.455	-0.126	-0.061	
28.460	-0.103	-0.106	
28.465	-0.035	-0.125	
28.470	-0.037	-0.122	
28.475	-0.002	-0.102	
28.480	0.044	-0.074	
28.485	-0.035	-0.044	
28.490	-0.043	-0.024	
28.495	-0.019	-0.017	
28.500	0.012	-0.013	
28.505	0.036	-0.007	
28.510	0.105	0.006	
28.515	0.096	0.027	
28.520	0.062	0.049	
28.525	0.088	0.065	
28.530	0.047	0.074	
28.535	0.073	0.077	
28.540	0.186	0.081	
28.545	0.298	0.103	
28.550	0.347	0.146	
28.555	0.363	0.203	
28.560	0.437	0.263	
28.565	0.466	0.323	
28.570	0.405	0.374	
28.575	0.443	0.410	
28.580	0.512	0.435	
28.585	0.449	0.455	
28.590	0.376	0.463	
28.595	0.292	0.451	
28.600	0.082	0.410	
28.605	-0.040	0.333	
28.610	-0.068	0.231	
28.615	-0.097	0.125	
28.620	-0.188	0.030	
28.625	-0.208	-0.054	
28.630	-0.210	-0.123	
28.635	-0.257	-0.175	
28.640	-0.301	-0.215	
28.645	-0.330	-0.251	
28.650	-0.384	-0.284	
28.655	-0.457	-0.319	
28.660	-0.494	-0.361	
28.665	-0.527	-0.405	
28.670	-0.524	-0.448	
28.675	-0.475	-0.481	
28.680	-0.426	-0.496	
28.685	-0.422	-0.493	
28.690	-0.358	-0.475	
28.695	-0.323	-0.446	
28.700	-0.303	-0.410	
28.705	-0.321	-0.374	
28.710	-0.301	-0.345	
28.715	-0.312	-0.324	
28.720	-0.272	-0.309	
28.725	-0.245	-0.295	
28.730	-0.225	-0.280	
28.735	-0.260	-0.264	
28.740	-0.255	-0.254	
28.745	-0.254	-0.250	
28.750	-0.274	-0.249	
28.755	-0.258	-0.252	
28.760	-0.251	-0.255	
28.765	-0.240	-0.255	
28.770	-0.231	-0.253	
28.775	-0.196	-0.246	
28.780	-0.203	-0.236	
28.785	-0.246	-0.226	
28.790	-0.208	-0.222	
28.795	-0.182	-0.217	
28.800	-0.182	-0.210	
28.805	-0.182	-0.201	
28.810	-0.055	-0.187	
28.815	0.146	-0.153	
28.820	0.096	-0.092	
28.825	-0.005	-0.030	
28.830	-0.173	0.002	
28.835	-0.266	-0.011	
28.840	-0.242	-0.059	
28.845	-0.185	-0.115	
28.850	-0.104	-0.154	
28.855	-0.054	-0.166	
28.860	0.017	-0.150	
28.865	0.094	-0.111	
28.870	0.030	-0.060	
28.875	0.097	-0.013	
28.880	0.105	0.028	
28.885	0.056	0.060	
28.890	0.070	0.078	
28.895	0.091	0.085	
28.900	-0.008	0.085	
28.905	-0.005	0.072	
28.910	0.175	0.060	
28.915	0.267	0.071	
28.920	0.250	0.108	
28.925	0.302	0.155	
