Time	Potential	EKG	Unnamed: 3
0.0	-0.106	-0.005332544502868698	
0.005	-0.104	-0.021136630826901467	
0.01	-0.116	-0.044562655469506315	
0.015	-0.168	-0.07215615868503193	
0.02	-0.203	-0.10236563031388578	
0.025	-0.187	-0.1325893451649214	
0.03	-0.207	-0.15988071576910823	
0.035	-0.228	-0.18250712154366341	
0.04	-0.177	-0.19777988838484795	
0.045	-0.145	-0.20259276237020854	
0.05	-0.153	-0.19648140730695784	
0.055	-0.136	-0.18410182679146248	
0.06	-0.135	-0.1694254860190399	
0.065	-0.205	-0.16027450558285353	
0.07	-0.236	-0.1614407279471577	
0.075	-0.162	-0.17044325373727734	
0.08	-0.078	-0.1738937682350296	
0.085	-0.025	-0.15961745063953775	
0.09	0.038	-0.12567736000401217	
0.095	-0.141	-0.09055860292720488	
0.1	-0.257	-0.08066029479690354	
0.105	-0.234	-0.1010951871587209	
0.11	-0.145	-0.1322732119766209	
0.115	-0.122	-0.15433903277082522	
0.12	-0.049	-0.15650712443780956	
0.125	0.044	-0.13529737753065088	
0.13	0.059	-0.09688543978951991	
0.135	-0.005	-0.05378765990396463	
0.14	0.020	-0.01764126266631154	
0.145	0.130	0.01057159073605641	
0.15	0.059	0.03727398833755595	
0.155	0.113	0.060866235887261796	
0.16	0.134	0.08081818413116279	
0.165	0.085	0.09661873742769825	
0.17	0.111	0.10539500048665428	
0.175	0.221	0.11576200447258428	
0.18	0.229	0.13515740261320508	
0.185	0.178	0.15814240324152717	
0.19	0.258	0.18136447132250258	
0.195	0.270	0.20263777897004892	
0.2	0.281	0.22424286137669022	
0.205	0.319	0.2478244751606033	
0.21	0.539	0.2818822076865817	
0.215	0.577	0.3356678495378035	
0.22	0.557	0.4043472936438071	
0.225	0.647	0.47273162727796536	
0.23	0.643	0.5331850298638554	
0.235	0.502	0.5761342750139382	
0.24	0.478	0.5903068980696891	
0.245	0.392	0.5736178370789209	
0.25	0.336	0.5322766302454545	
0.255	0.244	0.47481375071329235	
0.26	0.033	0.3988081687203958	
0.265	-0.081	0.2976435899712373	
0.27	-0.155	0.17938421261077547	
0.275	-0.150	0.06474236889485976	
0.28	-0.168	-0.032811316616020395	
0.285	-0.193	-0.10782437091370091	
0.29	-0.162	-0.15564403432479665	
0.295	-0.142	-0.18135415875510758	
0.3	-0.184	-0.190729246385461	
0.305	-0.164	-0.19018870696934767	
0.31	-0.103	-0.1821408421017665	
0.315	-0.068	-0.16632463362657535	
0.32	-0.086	-0.14265219726158063	
0.325	-0.029	-0.11626797611839187	
0.33	-0.022	-0.08979600631225759	
0.335	-0.093	-0.06886763569966138	
0.34	-0.040	-0.055684595879852236	
0.345	0.003	-0.04733290126902064	
0.35	-0.090	-0.04172730266813719	
0.355	-0.153	-0.04523142868610123	
0.36	-0.118	-0.061154482522018536	
0.365	-0.145	-0.08430262755775655	
0.37	-0.197	-0.1076532976281523	
0.375	-0.213	-0.13329511792692322	
0.38	-0.255	-0.16179414600767428	
0.385	-0.303	-0.19483569945505733	
0.39	-0.231	-0.2236829924099381	
0.395	-0.222	-0.24234671108787004	
0.4	-0.266	-0.25170203330098284	
0.405	-0.266	-0.2562112649926198	
0.41	-0.236	-0.25716888697047624	
0.415	-0.243	-0.2572969937012615	
0.42	-0.266	-0.2556425007960744	
0.425	-0.301	-0.25531141038827926	
0.43	-0.313	-0.2637942954061472	
0.435	-0.287	-0.2758255144720095	
0.44	-0.119	-0.27668291025168246	
0.445	0.070	-0.24631905071989826	
0.45	0.056	-0.1846787159845664	
0.455	-0.081	-0.11424819531904187	
0.46	-0.219	-0.07221511874017687	
0.465	-0.280	-0.07731494282985428	
0.47	-0.248	-0.11264576738280642	
0.475	-0.139	-0.14928112596648266	
0.48	-0.068	-0.16876146244055185	
0.485	-0.071	-0.16383732825770123	
0.49	-0.009	-0.13969187364789099	
0.495	0.044	-0.10432695143011808	
0.5	-0.019	-0.06672607084729257	
0.505	-0.032	-0.03523978461736133	
0.51	0.050	-0.014134315586727684	
0.515	0.110	0.004696748917874896	
0.52	0.128	0.03232921674172343	
0.525	0.192	0.06674304313650377	
0.53	0.149	0.10121062575730266	
0.535	0.102	0.12609947700412835	
0.54	0.197	0.14133533526487518	
0.545	0.258	0.15769971479324563	
0.55	0.250	0.18023762235142782	
0.555	0.279	0.20677894198448896	
0.56	0.362	0.2359055279624104	
0.565	0.389	0.2696635286811382	
0.57	0.420	0.3083111152817455	
0.575	0.545	0.3547766886497953	
0.58	0.620	0.40821839442752844	
0.585	0.574	0.46809583986039577	
0.59	0.673	0.5253432442898468	
0.595	0.661	0.5746761110513708	
0.6	0.502	0.6072110733224618	
0.605	0.470	0.6107749721636465	
0.61	0.412	0.5858764589386294	
0.615	0.276	0.5366428365250115	
0.62	0.116	0.46332089246772057	
0.625	-0.025	0.3657362639197339	
0.63	-0.084	0.24818112109635826	
0.635	-0.136	0.1281531024504523	
0.64	-0.097	0.026377852986551854	
0.645	-0.100	-0.04834958901079416	
0.65	-0.156	-0.09874279858431863	
0.655	-0.196	-0.1321597176328695	
0.66	-0.173	-0.1561481860647022	
0.665	-0.153	-0.17336264008942165	
0.67	-0.170	-0.17960699761959437	
0.675	-0.142	-0.17724223470884803	
0.68	-0.144	-0.17186355217828408	
0.685	-0.142	-0.16484462400767058	
0.69	-0.087	-0.15360026367170004	
0.695	-0.014	-0.13439082719694395	
0.7	-0.046	-0.10977232456527446	
0.705	-0.040	-0.08312530664507686	
0.71	-0.029	-0.060152456759590474	
0.715	-0.064	-0.04741903850549037	
0.72	-0.077	-0.04260532237570912	
0.725	-0.048	-0.043207063416756314	
0.73	-0.126	-0.05089336444009348	
0.735	-0.200	-0.0688828161057892	
0.74	-0.184	-0.09557352393020296	
0.745	-0.187	-0.12638048849137296	
0.75	-0.219	-0.15581239061978297	
0.755	-0.240	-0.18011210323712062	
0.76	-0.229	-0.20110381809815286	
0.765	-0.239	-0.21844084509427333	
0.77	-0.236	-0.2306232258771774	
0.775	-0.196	-0.2341528744375429	
0.78	-0.153	-0.22988398557227666	
0.785	-0.184	-0.21791848075912168	
0.79	-0.185	-0.2025386402121827	
0.795	-0.152	-0.1903618274119992	
0.8	-0.164	-0.18087408821656392	
0.805	-0.049	-0.1660947130428697	
0.81	0.036	-0.13803014732548247	
0.815	-0.069	-0.10249209257197509	
0.82	-0.228	-0.08069642600562016	
0.825	-0.263	-0.09012171060710109	
0.83	-0.245	-0.12588961174205532	
0.835	-0.174	-0.16295973310559841	
0.84	-0.071	-0.1804751210621574	
0.845	0.062	-0.16730983182143233	
0.85	0.081	-0.1259196427213758	
0.855	0.157	-0.063089043451064	
0.86	0.263	0.01000300678880029	
0.865	0.232	0.08546266831317884	
0.87	0.232	0.15030908601112566	
0.875	0.304	0.20295250432459827	
0.88	0.229	0.23907864725601072	
0.885	0.119	0.2519576658993994	
0.89	0.223	0.24653430817056232	
0.895	0.255	0.23470721077829196	
0.9	0.270	0.2310402186418295	
0.905	0.322	0.23890487823097623	
0.91	0.336	0.2570362508464117	
0.915	0.288	0.2764577865327822	
0.92	0.318	0.2912874095864867	
0.925	0.325	0.3049776684130818	
0.93	0.382	0.3161135551451645	
0.935	0.337	0.3279484084605221	
0.94	0.450	0.3445370326884153	
0.945	0.518	0.3697416053543559	
0.95	0.452	0.4020191138142176	
0.955	0.449	0.43085282456226925	
0.96	0.429	0.44905433165350195	
0.965	0.398	0.451478193706895	
0.97	0.327	0.441242243158537	
0.975	0.275	0.4179700508557994	
0.98	0.172	0.37613997827520673	
0.985	0.015	0.31490610040346456	
0.99	0.021	0.2385057855384977	
0.995	-0.013	0.15878497302273883	
1.0	-0.101	0.08402046966733301	
1.005	-0.121	0.017824674295182526	
1.01	-0.136	-0.03989595295565163	
1.015	-0.156	-0.08748605639601144	
1.02	-0.161	-0.12279224706884974	
1.025	-0.132	-0.1440041223121401	
1.03	-0.119	-0.15379586549125318	
1.035	-0.138	-0.155114298009701	
1.04	-0.055	-0.14550881495967266	
1.045	-0.034	-0.12716254196897267	
1.05	-0.077	-0.10600109369472395	
1.055	-0.064	-0.08623740415276829	
1.06	-0.003	-0.06885064933982318	
1.065	0.000	-0.05346327511503014	
1.07	-0.034	-0.036875644624365565	
1.075	0.029	-0.021998702867126366	
1.08	0.050	-0.008732411010664649	
1.085	-0.061	0.0018222685782644911	
1.09	-0.043	0.0034405691361997478	
1.095	0.012	-0.003099699317896358	
1.1	-0.072	-0.012001359209364085	
1.105	-0.046	-0.020285691626974144	
1.11	-0.052	-0.02981740881253313	
1.115	-0.075	-0.04144773476993331	
1.12	-0.130	-0.05491616039205222	
1.125	-0.100	-0.0689834406377237	
1.13	-0.103	-0.08470806914603811	
1.135	-0.127	-0.09820374866705736	
1.14	-0.052	-0.1035370031286716	
1.145	-0.028	-0.09905439477040047	
1.15	-0.107	-0.0900437691254321	
1.155	-0.104	-0.08431538035669003	
1.16	-0.072	-0.08176092090511593	
1.165	-0.016	-0.08044653182494678	
1.17	-0.023	-0.06996242782773268	
1.175	-0.029	-0.05494158775702181	
1.18	-0.042	-0.04368863856160457	
1.185	-0.148	-0.04428447171500009	
1.19	-0.141	-0.05553744993050196	
1.195	-0.124	-0.07699828507991571	
1.2	-0.124	-0.0990949491863294	
1.205	-0.008	-0.10731752597609981	
1.21	0.151	-0.08964777441124981	
1.215	0.099	-0.049476321805166174	
1.22	0.081	-6.561425545134592e-05	
1.225	0.188	0.04713612811301066	
1.23	0.230	0.09137229866070962	
1.235	0.130	0.1316151053191299	
1.24	0.195	0.16046423477344818	
1.245	0.259	0.1810940653820719	
1.25	0.197	0.19785008141357593	
1.255	0.249	0.21260867815802814	
1.26	0.308	0.2283994416451145	
1.265	0.308	0.24553101276290312	
1.27	0.266	0.2638847714703275	
1.275	0.327	0.28015881110303975	
1.28	0.307	0.2913964507579532	
1.285	0.159	0.29257526060814987	
1.29	0.311	0.28446558593341287	
1.295	0.516	0.28815270337884336	
1.3	0.449	0.3168696419466799	
1.305	0.470	0.3615776256167098	
1.31	0.597	0.40938351731625744	
1.315	0.537	0.45656174807403743	
1.32	0.510	0.49589272918457417	
1.325	0.457	0.5190927651038653	
1.33	0.402	0.5173807257359828	
1.335	0.276	0.49064352867110056	
1.34	0.279	0.4464350654508613	
1.345	0.192	0.38905769968981785	
1.35	-0.016	0.31689439617465226	
1.355	-0.043	0.22960875142337014	
1.36	-0.054	0.13932723495024968	
1.365	-0.115	0.053583919473599	
1.37	-0.161	-0.01803795939503223	
1.375	-0.133	-0.0739273134769321	
1.38	-0.141	-0.11560740570601802	
1.385	-0.158	-0.14228288444205628	
1.39	-0.104	-0.15357850802056427	
1.395	-0.086	-0.15096423048616642	
1.4	-0.118	-0.14204222901883828	
1.405	-0.101	-0.13038811519136165	
1.41	-0.026	-0.11472389613176781	
1.415	-0.038	-0.09738810756888418	
1.42	-0.080	-0.07902967080798619	
1.425	-0.031	-0.06399164223954054	
1.43	-0.008	-0.05259928346153068	
1.435	-0.081	-0.045250810164700866	
1.44	-0.060	-0.04164041454321221	
1.445	-0.048	-0.04298502633683419	
1.45	-0.081	-0.04898380242265402	
1.455	-0.061	-0.054408767915644356	
1.46	-0.032	-0.05676594635648149	
1.465	-0.101	-0.05934422200316199	
1.47	-0.142	-0.06802836183791998	
1.475	-0.107	-0.08004112219152923	
1.48	-0.126	-0.09455936647079927	
1.485	-0.182	-0.11022268735552854	
1.49	-0.124	-0.12469868933065306	
1.495	-0.009	-0.1279512728604334	
1.5	-0.017	-0.11590486787976348	
1.505	-0.016	-0.09047478621340271	
1.51	0.021	-0.06080964840203969	
1.515	-0.006	-0.036254143099117474	
1.52	-0.080	-0.021044643262957664	
1.525	-0.023	-0.01613363661212404	
1.53	0.091	-0.013490604624809105	
1.535	0.075	-0.00015198985017182936	
1.54	0.081	0.023213123046676592	
1.545	-0.020	0.04000843460352406	
1.55	-0.164	0.03413493433126187	
1.555	-0.145	0.0024790510516841295	
1.56	-0.055	-0.035835020967702184	
1.565	-0.013	-0.06216504398532258	
1.57	0.012	-0.06702364004883407	
1.575	0.151	-0.04718198589129206	
1.58	0.189	-0.00644318661617832	
1.585	0.134	0.043868716854874784	
1.59	0.224	0.09312305407927475	
1.595	0.256	0.14004135997254444	
1.6	0.214	0.1782469637424604	
1.605	0.128	0.2033970895635497	
1.61	0.203	0.2100760647636231	
1.615	0.252	0.20893836886205108	
1.62	0.208	0.2119817524563726	
1.625	0.241	0.21768140979053	
1.63	0.259	0.22359286290522704	
1.635	0.175	0.2269648742345953	
1.64	0.203	0.2260342291107958	
1.645	0.290	0.22399699668980122	
1.65	0.305	0.23037461013202418	
1.655	0.343	0.24941906662010493	
1.66	0.391	0.27698288997241294	
1.665	0.402	0.30897858693897995	
1.67	0.434	0.342046947622232	
1.675	0.482	0.377604010847009	
1.68	0.539	0.414574488943931	
1.685	0.479	0.44905339886679024	
1.69	0.408	0.47199318246950567	
1.695	0.388	0.4749040466417606	
1.7	0.255	0.45241831079603934	
1.705	0.136	0.40642746855880163	
1.71	0.059	0.3378888279777109	
1.715	-0.029	0.2499931914681825	
1.72	-0.098	0.1561142227913577	
1.725	-0.103	0.06755930069101572	
1.73	-0.113	-0.00844485240601832	
1.735	-0.136	-0.06686933554624182	
1.74	-0.121	-0.10498616630032644	
1.745	-0.113	-0.12711861223244858	
1.75	-0.144	-0.13854079006375705	
1.755	-0.135	-0.14253446832825337	
1.76	-0.074	-0.14012292980701563	
1.765	-0.112	-0.13199833702737318	
1.77	-0.119	-0.12387216572941874	
1.775	-0.084	-0.11446864815761032	
1.78	-0.016	-0.1044553167559776	
1.785	-0.057	-0.08885455014291196	
1.79	-0.052	-0.0720128919835957	
1.795	-0.016	-0.05814814337874268	
1.8	-0.069	-0.04952047232793355	
1.805	-0.110	-0.04753511325322785	
1.81	-0.072	-0.05316468976509635	
1.815	-0.090	-0.06299214315193535	
1.82	-0.122	-0.07483528653815721	
1.825	-0.100	-0.08448959636627043	
1.83	-0.126	-0.09548528332195096	
1.835	-0.196	-0.10983117131081667	
1.84	-0.194	-0.12800598406879937	
1.845	-0.188	-0.1481722483500717	
1.85	-0.219	-0.16950510307367028	
1.855	-0.226	-0.18650876202772765	
1.86	-0.168	-0.19817249769284315	
1.865	-0.168	-0.20299282345586922	
1.87	-0.225	-0.20182127690225143	
1.875	-0.219	-0.20049728283159074	
1.88	-0.237	-0.20550154302696713	
1.885	-0.254	-0.21482221644743296	
1.89	-0.159	-0.2199817739933575	
1.895	-0.112	-0.21316709876080736	
1.9	-0.122	-0.19551661496601586	
1.905	-0.170	-0.17450913897784304	
1.91	-0.213	-0.1611781078610225	
1.915	-0.275	-0.16702828366302647	
1.92	-0.284	-0.18783705496497388	
1.925	-0.216	-0.21045502487594903	
1.93	-0.162	-0.22347558976445833	
1.935	-0.174	-0.22385372241891727	
1.94	-0.124	-0.20998191627778856	
1.945	-0.075	-0.1871324978020943	
1.95	-0.074	-0.1585470466785675	
1.955	-0.037	-0.12753621251636021	
1.96	0.003	-0.09311070569801572	
1.965	-0.023	-0.06400942172949575	
1.97	-0.046	-0.04191084119337069	
1.975	0.000	-0.02644034792775276	
1.98	0.039	-0.015424230706332066	
1.985	-0.013	-0.00592632257911017	
1.99	0.053	0.004986607482680296	
1.995	0.156	0.02095797224520765	
2.0	0.163	0.04843976692006832	
2.005	0.209	0.08438960000183396	
2.01	0.305	0.1289548284601118	
2.015	0.321	0.17903906414373671	
2.02	0.330	0.2280103848772346	
2.025	0.499	0.28056714260492277	
2.03	0.641	0.34467047479357704	
2.035	0.773	0.4290508744711738	
2.04	0.875	0.5339364301063124	
2.045	0.909	0.6460110945110145	
2.05	0.832	0.7424233314603593	
2.055	0.730	0.8062761182408091	
2.06	0.641	0.8249577683312959	
2.065	0.527	0.7980757238219679	
2.07	0.472	0.7369280132631311	
2.075	0.426	0.6605569757778363	
2.08	0.440	0.5817472889437422	
2.085	0.803	0.5310067971910399	
2.09	1.382	0.5679708284292773	
2.095	1.616	0.7212369760084183	
2.1	1.139	0.9263884591805474	
2.105	0.469	1.058984421625447	
2.11	-0.026	1.02495554744607	
2.115	-0.234	0.8251924234033509	
2.12	-0.373	0.5347714781342292	
2.125	-0.428	0.22953726756233328	
2.13	-0.456	-0.040014751710346026	
2.135	-0.475	-0.2520588279074344	
2.14	-0.023	-0.3732350490536247	
2.145	1.275	-0.3285423794479718	
2.15	2.241	-0.028248500253371778	
2.155	2.779	0.5190971985355207	
2.16	2.974	1.1910046086735693	
2.165	2.968	1.8402258430760463	
2.17	2.786	2.357640357683149	
2.175	2.653	2.6963444479938197	
2.18	2.426	2.8498630373587615	
2.185	2.065	2.8388627720819617	
2.19	1.816	2.697647392678628	
2.195	1.622	2.469227656069931	
2.2	1.370	2.1955195090578625	
2.205	1.194	1.9120575475005688	
2.21	1.092	1.6460978816300353	
2.215	0.929	1.4083068544515236	
2.22	0.687	1.19875182748568	
2.225	0.657	1.012503915677787	
2.23	0.605	0.853974353657152	
2.235	0.296	0.7169302817359653	
2.24	0.133	0.5796962916164878	
2.245	0.073	0.43522885405411255	
2.25	0.055	0.2975445906494215	
2.255	0.156	0.1901170871186869	
2.26	0.363	0.13808204022819212	
2.265	0.299	0.14029252369215178	
2.27	0.006	0.1587857214828391	
2.275	-0.130	0.1494077964868026	
2.28	-0.203	0.09586209539916318	
2.285	-0.271	0.012026759962181029	
2.29	-0.251	-0.07524712194875306	
2.295	-0.197	-0.14787195947826465	
2.3	-0.208	-0.19841745830995425	
2.305	-0.231	-0.22481031526687595	
2.31	-0.153	-0.23306380936839474	
2.315	-0.158	-0.22676503090167055	
2.32	-0.207	-0.2140483520304781	
2.325	-0.220	-0.20358591159389083	
2.33	-0.243	-0.20124746850043923	
2.335	-0.292	-0.21088576066195536	
2.34	-0.297	-0.22719940613390435	
2.345	-0.275	-0.24601542217382186	
2.35	-0.312	-0.2654118061561693	
2.355	-0.306	-0.2807035342374794	
2.36	-0.266	-0.2901537710400425	
2.365	-0.280	-0.29382445932742474	
2.37	-0.269	-0.29292955249953256	
2.375	-0.223	-0.284589525244655	
2.38	-0.167	-0.2693303732249937	
2.385	-0.168	-0.24680379466590377	
2.39	-0.155	-0.21915305673305613	
2.395	-0.115	-0.19211768788425004	
2.4	-0.107	-0.16740054806865098	
2.405	-0.112	-0.14462064963493904	
2.41	-0.097	-0.1252257430327603	
2.415	-0.173	-0.1158844037327164	
2.42	-0.234	-0.12085676283473225	
2.425	-0.262	-0.14160649749558274	
2.43	-0.312	-0.17542096071192298	
2.435	-0.393	-0.21976140385593018	
2.44	-0.422	-0.2701073630874675	
2.445	-0.465	-0.32318784667318845	
2.45	-0.537	-0.37739848240568635	
2.455	-0.553	-0.4315527356085542	
2.46	-0.549	-0.4782577711589863	
2.465	-0.570	-0.5158967265713265	
2.47	-0.613	-0.5467819812050642	
2.475	-0.627	-0.5706148627679042	
2.48	-0.604	-0.5914597339623702	
2.485	-0.617	-0.6067034821462685	
2.49	-0.599	-0.6140896435046037	
2.495	-0.538	-0.6122362895216518	
2.5	-0.492	-0.5993642921325498	
2.505	-0.457	-0.5735108450498165	
2.51	-0.382	-0.5363074512043788	
2.515	-0.355	-0.492911287180894	
2.52	-0.358	-0.4477383552638905	
2.525	-0.315	-0.40563725418176494	
2.53	-0.301	-0.36950204998701686	
2.535	-0.320	-0.3426796189189649	
2.54	-0.326	-0.32308749553520877	
2.545	-0.304	-0.31228342429967904	
2.55	-0.358	-0.31036849779137826	
2.555	-0.384	-0.3164977830301664	
2.56	-0.398	-0.330337480846968	
2.565	-0.393	-0.34992315292383047	
2.57	-0.413	-0.3687074678788021	
2.575	-0.378	-0.38262899379858306	
2.58	-0.344	-0.3885125969636949	
2.585	-0.364	-0.3866602368078646	
2.59	-0.332	-0.3790671126926828	
2.595	-0.309	-0.3652927679738933	
2.6	-0.333	-0.3523685928939522	
2.605	-0.401	-0.3444863582248053	
2.61	-0.390	-0.3453473600840798	
2.615	-0.338	-0.3539297196757943	
2.62	-0.228	-0.3526858544472665	
2.625	-0.153	-0.329606643622117	
2.63	-0.165	-0.2895224159867168	
2.635	-0.332	-0.2557008370222209	
2.64	-0.390	-0.247092143748109	
2.645	-0.352	-0.26428188163596017	
2.65	-0.321	-0.2903641020471902	
2.655	-0.286	-0.30848092239173996	
2.66	-0.197	-0.3093097429775099	
2.665	-0.156	-0.2929167044898546	
2.67	-0.184	-0.2627238532561511	
2.675	-0.142	-0.22862783649242258	
2.68	-0.107	-0.19650965635975184	
2.685	-0.139	-0.1686854351919993	
2.69	-0.124	-0.14607248508276816	
2.695	-0.092	-0.1302772491699482	
2.7	-0.101	-0.11838628038862693	
2.705	-0.101	-0.10848547795211815	
2.71	-0.046	-0.09830820743554383	
2.715	-0.031	-0.08694424009547617	
2.72	-0.078	-0.0747269254638076	
2.725	0.000	-0.061600157865520824	
2.73	0.007	-0.04751985504220265	
2.735	0.013	-0.03169863181978178	
2.74	0.107	-0.011038279548343558	
2.745	0.185	0.020740357660340106	
2.75	0.214	0.06359714077616041	
2.755	0.246	0.11251925504082042	
2.76	0.288	0.16270114300139307	
2.765	0.342	0.21004173388648872	
2.77	0.316	0.2532669755707969	
2.775	0.350	0.2904037960695509	
2.78	0.273	0.3144651872007932	
2.785	0.091	0.31226973125004664	
2.79	0.003	0.27593000904103865	
2.795	-0.032	0.2107253085246234	
2.8	-0.133	0.12960120197311165	
2.805	-0.219	0.04151523626474808	
2.81	-0.269	-0.04630662795153675	
2.815	-0.339	-0.13293991138878383	
2.82	-0.350	-0.2117174963978426	
2.825	-0.349	-0.27359516483839463	
2.83	-0.361	-0.3195020851016574	
2.835	-0.390	-0.35069020182840965	
2.84	-0.399	-0.3720612461723342	
2.845	-0.391	-0.3862595388897207	
2.85	-0.376	-0.39438429098967226	
2.855	-0.379	-0.3964978199409587	
2.86	-0.361	-0.39129821242189433	
2.865	-0.347	-0.38492557800220506	
2.87	-0.364	-0.3767526770528151	
2.875	-0.333	-0.3666098879801053	
2.88	-0.310	-0.356477473365719	
2.885	-0.338	-0.3457166283733998	
2.89	-0.335	-0.33708924320541744	
2.895	-0.356	-0.33322699487019364	
2.9	-0.434	-0.3394010690521085	
2.905	-0.515	-0.359556922886634	
2.91	-0.581	-0.39627640376334977	
2.915	-0.714	-0.45291129329042074	
2.92	-0.880	-0.530820471999707	
2.925	-0.993	-0.6296169470294339	
2.93	-0.995	-0.7404265188293669	
2.935	-0.993	-0.8427317864945245	
2.94	-0.995	-0.9200849057008232	
2.945	-0.995	-0.9711602377653764	
2.95	-0.995	-1.002408575272425	
2.955	-0.995	-1.015575550344853	
2.96	-0.995	-1.017201771959786	
2.965	-0.995	-1.0149059318463458	
2.97	-0.995	-1.0108767755274384	
2.975	-0.995	-1.004541852417748	
2.98	-0.995	-0.9993872541847183	
2.985	-0.995	-0.9978626406633001	
2.99	-0.995	-0.9950898862775686	
2.995	-0.993	-0.9930515017013856	
3.0	-0.993	-0.9935074469219942	
3.005	-0.937	-0.9906606959516123	
3.01	-0.764	-0.9730384831425912	
3.015	-0.610	-0.927876359037578	
3.02	-0.488	-0.8490167473036447	
3.025	-0.350	-0.7404424388329369	
3.03	-0.271	-0.6192772635506689	
3.035	-0.225	-0.49803402193597274	
3.04	-0.139	-0.384110488406447	
3.045	-0.026	-0.28187726266555607	
3.05	0.029	-0.18860838832126464	
3.055	0.124	-0.10078635112013452	
3.06	0.331	-0.008871717617062813	
3.065	0.406	0.09111837974353106	
3.07	0.441	0.19577111364066338	
3.075	0.597	0.3006461326245133	
3.08	0.709	0.40385729458741554	
3.085	0.704	0.5037955677043897	
3.09	0.773	0.5948600643847177	
3.095	0.822	0.6723018657972972	
3.1	0.777	0.7313017077357178	
3.105	0.805	0.7730726425634264	
3.11	0.971	0.8072806126456761	
3.115	1.034	0.8481619172074336	
3.12	0.994	0.8966072349664618	
3.125	1.112	0.9487054430050738	
3.13	1.280	1.005984592452747	
3.135	1.216	1.0716844280763784	
3.14	1.204	1.1348208779302396	
3.145	1.202	1.1804185200534318	
3.15	1.032	1.196248245608068	
3.155	0.881	1.1749745685553177	
3.16	0.802	1.1163443110032047	
3.165	0.748	1.0281519555348	
3.17	0.698	0.9325267006692696	
3.175	0.736	0.8487907814519782	
3.18	0.712	0.7830336502117876	
3.185	0.524	0.7285662700926696	
3.19	0.512	0.6738457133968165	
3.195	0.571	0.6205494176678719	
3.2	0.531	0.5782042359181723	
3.205	0.489	0.549954355055198	
3.21	0.586	0.5334773560439383	
3.215	0.521	0.5251439964930028	
3.22	0.427	0.5174195648612261	
3.225	0.586	0.5118414281719987	
3.23	0.661	0.518085651539276	
3.235	0.618	0.5405047823365109	
3.24	0.733	0.5748579894324538	
3.245	0.728	0.6166005698493049	
3.25	0.660	0.6521426485201953	
3.255	0.606	0.6718974528983286	
3.26	0.710	0.6795193130373486	
3.265	0.664	0.68016097976688	
3.27	0.563	0.6733691292383024	
3.275	0.599	0.6588277616520191	
3.28	0.568	0.6371134816167592	
3.285	0.356	0.602472259902104	
3.29	0.409	0.5547983275000112	
3.295	0.467	0.5056442342069969	
3.3	0.400	0.4652157233780564	
3.305	0.372	0.43585663564093446	
3.31	0.446	0.4174920238579912	
3.315	0.467	0.40824605158976135	
3.32	0.412	0.4103795741686359	
3.325	0.412	0.41675166012286236	
3.33	0.450	0.42115219937967246	
3.335	0.316	0.4175346523340925	
3.34	0.356	0.4077342014826357	
3.345	0.530	0.4006256236706377	
3.35	0.478	0.40729563023163357	
3.355	0.385	0.4228309910625529	
3.36	0.314	0.42639847581775414	
3.365	0.209	0.40426068315183594	
3.37	0.116	0.3564080108576341	
3.375	0.295	0.3037062978429754	
3.38	0.434	0.2741862542187138	
3.385	0.432	0.27963398981830356	
3.39	0.550	0.3187069933902522	
3.395	0.649	0.3805668335780595	
3.4	0.631	0.4523514657050853	
3.405	0.516	0.5168325695398763	
3.41	0.589	0.5593177562087653	
3.415	0.586	0.5803148606485606	
3.42	0.562	0.5894876731555279	
3.425	0.612	0.5956103558581196	
3.43	0.641	0.60012163052361	
3.435	0.501	0.5997031557576484	
3.44	0.475	0.5886673728222811	
3.445	0.580	0.5694695201412938	
3.45	0.611	0.5554357293907453	
3.455	0.571	0.5559216028320624	
3.46	0.655	0.5672377216853515	
3.465	0.692	0.5853091574597024	
3.47	0.655	0.6085960823645467	
3.475	0.704	0.6355680368318646	
3.48	0.736	0.6600320433718909	
3.485	0.785	0.684796442275944	
3.49	0.822	0.7167363755224077	
3.495	0.813	0.7503651165870275	
3.5	0.731	0.7733961594401779	
3.505	0.628	0.7759846880253358	
3.51	0.586	0.7551956370857217	
3.515	0.496	0.7092305921167321	
3.52	0.308	0.6416316588260271	
3.525	0.267	0.5565947056510891	
3.53	0.124	0.4559723788846425	
3.535	-0.031	0.3427818565496673	
3.54	-0.011	0.22778077386233506	
3.545	0.029	0.12937632492261672	
3.55	-0.037	0.05440842733022945	
3.555	-0.075	0.0030279652570777116	
3.56	-0.003	-0.02978332234762909	
3.565	-0.043	-0.047759018269182656	
3.57	-0.086	-0.05734695442029883	
3.575	0.003	-0.05840129728862533	
3.58	0.078	-0.04901072999034617	
3.585	0.032	-0.028184596248742852	
3.59	0.023	-0.0042492749496860025	
3.595	0.050	0.015321405742186846	
3.6	0.061	0.028423449660643273	
3.605	0.064	0.041040262112179926	
3.61	0.160	0.05817266492088821	
3.615	0.137	0.07723816835767416	
3.62	0.029	0.0936808990106919	
3.625	0.056	0.0975577522967819	
3.63	0.004	0.08794484348643776	
3.635	-0.057	0.0658445041878	
3.64	-0.066	0.0357614957173649	
3.645	-0.008	0.006294023848528395	
3.65	-0.035	-0.01654808913438495	
3.655	-0.058	-0.030932494706345803	
3.66	-0.032	-0.038873227678771965	
3.665	-0.025	-0.04376405219640285	
3.67	-0.084	-0.04726110032996297	
3.675	-0.057	-0.049456435671114386	
3.68	-0.020	-0.05108189368943351	
3.685	-0.072	-0.053104716859818483	
3.69	-0.106	-0.05523250074991594	
3.695	-0.086	-0.06176457087588842	
3.7	-0.135	-0.07454083659835654	
3.705	-0.069	-0.08689840566252077	
3.71	0.116	-0.08188401184907698	
3.715	0.139	-0.051746845317020715	
3.72	-0.016	-0.011242817013701344	
3.725	-0.106	0.013481873416311796	
3.73	-0.144	0.004881974081559879	
3.735	-0.167	-0.02705939390584192	
3.74	-0.022	-0.06022438540057863	
3.745	0.188	-0.06476846034052046	
3.75	0.214	-0.03146757931802035	
3.755	0.206	0.02911118207640313	
3.76	0.287	0.09801399288690484	
3.765	0.307	0.16224896184653065	
3.77	0.275	0.21683265753659808	
3.775	0.330	0.26045084672187974	
3.78	0.324	0.2918583158029352	
3.785	0.327	0.3120130527224033	
3.79	0.408	0.32874785650493593	
3.795	0.420	0.3501374866889531	
3.8	0.398	0.36956007856664785	
3.805	0.327	0.3821268729069086	
3.81	0.405	0.3869501229844528	
3.815	0.397	0.3872851298740494	
3.82	0.308	0.38488435054807046	
3.825	0.397	0.3793856634494136	
3.83	0.498	0.3798752630959362	
3.835	0.510	0.39611769309123035	
3.84	0.596	0.4296988408821943	
3.845	0.626	0.47606876584729574	
3.85	0.692	0.5256571749193535	
3.855	0.716	0.5791554001487541	
3.86	0.699	0.630849792270715	
3.865	0.647	0.6652996639242919	
3.87	0.452	0.6719289074757648	
3.875	0.377	0.6422965576699098	
3.88	0.310	0.5788320297179306	
3.885	0.137	0.49116290062653056	
3.89	0.030	0.3866595242057609	
3.895	-0.029	0.2730236150794484	
3.9	-0.045	0.16171606102816924	
3.905	-0.148	0.06518087111209973	
3.91	-0.127	-0.015188506355444858	
3.915	-0.152	-0.07766037520504444	
3.92	-0.184	-0.12398905142655438	
3.925	-0.116	-0.1507014369677282	
3.93	-0.090	-0.16017273314523806	
3.935	-0.135	-0.15678468684377994	
3.94	-0.109	-0.14633118259770223	
3.945	-0.075	-0.13301317463773216	
3.95	-0.090	-0.1202761959992504	
3.955	-0.083	-0.10681273756330101	
3.96	-0.048	-0.09322512853359449	
3.965	-0.048	-0.08066736326709509	
3.97	-0.104	-0.0719818200363728	
3.975	-0.008	-0.0647338746907177	
3.98	0.041	-0.053178730081807804	
3.985	-0.014	-0.036756192345896416	
3.99	-0.031	-0.021355802299428628	
3.995	-0.051	-0.015046440733814708	
4.0	-0.095	-0.021249043075707262	
4.005	-0.136	-0.03781144714087304	
4.01	-0.113	-0.059264295493656145	
4.015	-0.118	-0.0826440605607124	
4.02	-0.170	-0.10294593775368367	
4.025	-0.161	-0.12177089083110822	
4.03	-0.168	-0.13819734699406552	
4.035	-0.182	-0.1537174687136183	
4.04	-0.126	-0.1633523375044419	
4.045	-0.097	-0.16005144838691035	
4.05	-0.139	-0.15221318675403347	
4.055	-0.217	-0.14782459169100595	
4.06	-0.176	-0.15130318419464706	
4.065	-0.087	-0.1556019569889115	
4.07	-0.013	-0.14791691606119584	
4.075	0.067	-0.11680547755034046	
4.08	0.035	-0.07217374368653531	
4.085	-0.121	-0.03871051568159247	
4.09	-0.213	-0.03344995640568007	
4.095	-0.173	-0.05606149389532324	
4.1	-0.141	-0.09113149799562076	
4.105	-0.122	-0.11885113247961342	
4.11	-0.023	-0.1273235963849807	
4.115	0.009	-0.1165203642762607	
4.12	-0.026	-0.09194979797209095	
4.125	0.013	-0.06290275809793167	
4.13	0.068	-0.03310389579911279	
4.135	0.035	-0.005641294767678031	
4.14	0.013	0.016478645959078237	
4.145	0.120	0.033949632163495315	
4.15	0.156	0.05395265891666158	
4.155	0.125	0.07908772750318767	
4.16	0.175	0.10560193944353542	
4.165	0.194	0.12854211145414407	
4.17	0.166	0.14906299922906346	
4.175	0.243	0.16902628094075275	
4.18	0.282	0.1909258144647487	
4.185	0.305	0.2154149466137488	
4.19	0.334	0.2454349125076312	
4.195	0.406	0.2799393242950022	
4.2	0.484	0.31900112280818876	
4.205	0.447	0.3630630824664083	
4.21	0.544	0.4075742590738322	
4.215	0.660	0.45559045741397863	
4.22	0.605	0.5070700471779639	
4.225	0.631	0.5559778923697721	
4.23	0.638	0.5929248660122568	
4.235	0.522	0.6124250940300091	
4.24	0.369	0.6043914362163261	
4.245	0.284	0.5608939024922235	
4.25	0.185	0.4870031524823294	
4.255	0.046	0.392078158719163	
4.26	0.035	0.2895565224806864	
4.265	-0.006	0.18957682757731364	
4.27	-0.104	0.10110657549078816	
4.275	-0.097	0.025001747758896367	
4.28	-0.100	-0.03409098150839423	
4.285	-0.139	-0.07853998874964359	
4.29	-0.112	-0.10854653476624346	
4.295	-0.064	-0.12110334456547836	
4.3	-0.042	-0.11998582001337489	
4.305	-0.048	-0.10588071729727228	
4.31	-0.013	-0.08546154802317482	
4.315	-0.002	-0.06345504143206725	
4.32	-0.048	-0.044875747252975356	
4.325	-0.005	-0.03101029286485115	
4.33	0.012	-0.020128977728814747	
4.335	-0.045	-0.01352937935110533	
4.34	-0.057	-0.013549869214816669	
4.345	-0.035	-0.01914852437598563	
4.35	-0.037	-0.026979145864695964	
4.355	-0.098	-0.03585585885428001	
4.36	-0.103	-0.047501391744844045	
4.365	-0.118	-0.06446669576944679	
4.37	-0.174	-0.08582740579362705	
4.375	-0.185	-0.1090237862708213	
4.38	-0.174	-0.1331664559776075	
4.385	-0.194	-0.15548611504268253	
4.39	-0.179	-0.17151891980696155	
4.395	-0.126	-0.17818373086474357	
4.4	-0.133	-0.17497111972458462	
4.405	-0.142	-0.16681884764947846	
4.41	-0.142	-0.156525057861974	
4.415	-0.135	-0.14848167471298013	
4.42	-0.162	-0.1447953433698988	
4.425	-0.148	-0.14303247615922943	
4.43	-0.022	-0.13818606080319662	
4.435	0.093	-0.11544208702010594	
4.44	0.050	-0.07349948205288416	
4.445	-0.014	-0.029245297712316907	
4.45	-0.142	-0.009010799089030295	
4.455	-0.177	-0.019800647193667933	
4.46	-0.139	-0.04952170251932465	
4.465	-0.084	-0.08049471739262362	
4.47	-0.098	-0.10077400686347969	
4.475	-0.075	-0.10700364030438639	
4.48	-0.011	-0.10220549988497124	
4.485	-0.016	-0.08747647686972666	
4.49	-0.013	-0.06648831953344016	
4.495	0.007	-0.044216429160487826	
4.5	-0.017	-0.027007211312333572	
4.505	-0.048	-0.016793092924818752	
4.51	0.021	-0.012507405209675483	
4.515	0.076	-0.004509369458739406	
4.52	0.029	0.008213875723161516	
4.525	0.013	0.021000312141310498	
4.53	0.087	0.030774904943178468	
4.535	0.125	0.04251855181906823	
4.54	0.120	0.06154314942111581	
4.545	0.146	0.08477382435215126	
4.55	0.200	0.10796736277983247	
4.555	0.233	0.13425039689874652	
4.56	0.345	0.17152156997200702	
4.565	0.427	0.2194426237836949	
4.57	0.427	0.27621034749967727	
4.575	0.510	0.3370586786244284	
4.58	0.528	0.39675537138132794	
4.585	0.470	0.44545086993907423	
4.59	0.394	0.47355340989044115	
4.595	0.383	0.4767915590250389	
4.6	0.275	0.4549144778759422	
4.605	0.131	0.40922370717615425	
4.61	0.072	0.3405368783555246	
4.615	-0.002	0.25641545282123024	
4.62	-0.089	0.16519250749617798	
4.625	-0.121	0.07709501210175664	
4.63	-0.144	-0.0012356222313576574	
4.635	-0.200	-0.06955621122251647	
4.64	-0.170	-0.1223984514240191	
4.645	-0.148	-0.15716413394559536	
4.65	-0.138	-0.1740923441719074	
4.655	-0.168	-0.17776195673138176	
4.66	-0.109	-0.17242024004187517	
4.665	-0.112	-0.16158707296330171	
4.67	-0.116	-0.14783457024312102	
4.675	-0.049	-0.13089231862930215	
4.68	-0.006	-0.10822050719178208	
4.685	-0.029	-0.08258394555870098	
4.69	-0.014	-0.058423403345517474	
4.695	0.017	-0.03615875352821962	
4.7	-0.040	-0.021101322309124797	
4.705	-0.087	-0.01679800748833605	
4.71	-0.072	-0.02342785405507876	
4.715	-0.052	-0.03556004022217005	
4.72	-0.130	-0.050843717055171704	
4.725	-0.132	-0.06792771847002962	
4.73	-0.124	-0.08720443970832274	
4.735	-0.194	-0.10856076985900473	
4.74	-0.203	-0.13145526808747582	
4.745	-0.165	-0.1531610891965758	
4.75	-0.196	-0.17004934162716778	
4.755	-0.255	-0.1848009553761139	
4.76	-0.219	-0.19946505267755132	
4.765	-0.164	-0.20952447331456928	
4.77	-0.184	-0.21080478070403816	
4.775	-0.190	-0.20496928467459685	
4.78	-0.228	-0.20022208576890743	
4.785	-0.257	-0.20351854674686978	
4.79	-0.200	-0.21146674867678755	
4.795	-0.020	-0.20618424180768882	
4.8	0.061	-0.17498637456421112	
4.805	0.000	-0.12277946633816168	
4.81	-0.103	-0.07554838826710912	
4.815	-0.205	-0.05755211284134734	
4.82	-0.277	-0.07577792749257836	
4.825	-0.187	-0.11300322046833683	
4.83	-0.087	-0.14421561620689521	
4.835	-0.078	-0.15443435026579566	
4.84	-0.060	-0.14448225444540114	
4.845	0.001	-0.1212619451614867	
4.85	-0.046	-0.09295992227705345	
4.855	-0.092	-0.07075999595248522	
4.86	-0.038	-0.05760205280829252	
4.865	0.012	-0.04849708804651325	
4.87	-0.042	-0.03868643964917674	
4.875	0.117	-0.02307821007071992	
4.88	1.000	0.043774926758045056	
4.885	2.056	0.25982830310925104	
4.89	2.846	0.6857020265060898	
4.895	3.083	1.26961551436189	
4.9	3.081	1.8789307184871173	
4.905	3.081	2.400278893290586	
4.91	3.081	2.783308246667339	
4.915	3.081	3.0263083785559055	
4.92	3.086	3.155319438059184	
4.925	3.084	3.207006953109077	
4.93	2.953	3.2036033409995976	
4.935	2.734	3.1505362789386773	
4.94	2.524	3.0486072590394784	
4.945	2.308	2.9026482530047657	
4.95	2.036	2.7169295680346828	
4.955	1.789	2.501340598869657	
4.96	1.624	2.2684589414548855	
4.965	1.422	2.0333763632168482	
4.97	1.069	1.7963037119645575	
4.975	0.845	1.5530440784362802	
4.98	0.621	1.3026586749627	
4.985	0.371	1.0515442304595886	
4.99	0.214	0.8076348631602146	
4.995	0.108	0.5807090007337172	
5.0	-0.023	0.37996457663857475	
5.005	-0.103	0.2093603274661881	
5.01	-0.150	0.07048054166208573	
5.015	-0.228	-0.040615650065494675	
5.02	-0.286	-0.1296856510399266	
5.025	-0.248	-0.19692980544210198	
5.03	-0.234	-0.2403207702796729	
5.035	-0.275	-0.2644559258292978	
5.04	-0.292	-0.2763818108746926	
5.045	-0.283	-0.28330374945758097	
5.05	-0.294	-0.28804272906647077	
5.055	-0.309	-0.2926683933866422	
5.06	-0.304	-0.29554673787338326	
5.065	-0.313	-0.2996092131892203	
5.07	-0.408	-0.3086993639465637	
5.075	-0.384	-0.3249764470498648	
5.08	-0.373	-0.3443217444452844	
5.085	-0.434	-0.3634337255918586	
5.09	-0.501	-0.3864156077664576	
5.095	-0.508	-0.41432736613047244	
5.1	-0.518	-0.4470018621265532	
5.105	-0.546	-0.4766637452223325	
5.11	-0.544	-0.5015850149592606	
5.115	-0.556	-0.5235870411967384	
5.12	-0.587	-0.5416623029338038	
5.125	-0.558	-0.5549988876174479	
5.13	-0.540	-0.5623300530389304	
5.135	-0.547	-0.5644033222537177	
5.14	-0.572	-0.5624160024185443	
5.145	-0.572	-0.56134199388503	
5.15	-0.578	-0.5639953247751601	
5.155	-0.588	-0.5676648655065281	
5.16	-0.482	-0.5675886441778895	
5.165	-0.408	-0.5535683953810144	
5.17	-0.451	-0.5256512178693813	
5.175	-0.541	-0.5000277607714718	
5.18	-0.645	-0.4943698795002613	
5.185	-0.663	-0.5174094452274034	
5.19	-0.599	-0.5513965052550908	
5.195	-0.511	-0.5743247627555133	
5.2	-0.425	-0.5749811678359698	
5.205	-0.388	-0.5506525282364833	
5.21	-0.355	-0.5075865701519493	
5.215	-0.352	-0.4595886857555813	
5.22	-0.368	-0.4186842098331055	
5.225	-0.339	-0.3860097741412163	
5.23	-0.281	-0.3593091576148635	
5.235	-0.317	-0.3374209112844142	
5.24	-0.317	-0.3204492577580969	
5.245	-0.277	-0.3093064652497375	
5.25	-0.251	-0.29897487692698677	
5.255	-0.254	-0.28671225745953566	
5.26	-0.225	-0.27158159644087737	
5.265	-0.210	-0.25753869291772036	
5.27	-0.236	-0.24371108308451261	
5.275	-0.177	-0.23102741784642866	
5.28	-0.130	-0.21526037140107163	
5.285	-0.086	-0.19241933597049893	
5.29	-0.043	-0.16147344670982267	
5.295	0.090	-0.11926864239830529	
5.3	0.169	-0.06395438426940461	
5.305	0.157	0.0022538676936609734	
5.31	0.197	0.06741648652038117	
5.315	0.275	0.12447540476330927	
5.32	0.186	0.17126978854876196	
5.325	0.185	0.20195733436676291	
5.33	0.120	0.21172534509626922	
5.335	-0.029	0.19454839938692312	
5.34	-0.089	0.14851102533791977	
5.345	-0.110	0.08572603608374901	
5.35	-0.141	0.017032736840336703	
5.355	-0.222	-0.04873917683954888	
5.36	-0.248	-0.10956794333575581	
5.365	-0.269	-0.16452140683834804	
5.37	-0.307	-0.2127166205525202	
5.375	-0.252	-0.24901817765635384	
5.38	-0.242	-0.26824716757666045	
5.385	-0.268	-0.27642367100816834	
5.39	-0.266	-0.2774847262795894	
5.395	-0.211	-0.2712718959307967	
5.4	-0.211	-0.26195006556212314	
5.405	-0.229	-0.24875606694820246	
5.41	-0.156	-0.23258599376753064	
5.415	-0.129	-0.21348804630790963	
5.42	-0.202	-0.19472595192664655	
5.425	-0.165	-0.1800796398363157	
5.43	-0.139	-0.17023238359629092	
5.435	-0.150	-0.16238927773564543	
5.44	-0.184	-0.15753451981998184	
5.445	-0.158	-0.15529169859171754	
5.45	-0.187	-0.1589026350102481	
5.455	-0.269	-0.16877784775772742	
5.46	-0.225	-0.1846354991352978	
5.465	-0.217	-0.20144533576588072	
5.47	-0.249	-0.2166959728656778	
5.475	-0.283	-0.22812771071106333	
5.48	-0.271	-0.24222801318422482	
5.485	-0.272	-0.25534494830646004	
5.49	-0.281	-0.26555645852192056	
5.495	-0.317	-0.2733079021445807	
5.5	-0.338	-0.28587264703520476	
5.505	-0.388	-0.3027845726875058	
5.51	-0.407	-0.3246508199770732	
5.515	-0.446	-0.35143123202318705	
5.52	-0.535	-0.38571434786272923	
5.525	-0.489	-0.4231416190009676	
5.53	-0.445	-0.453181937581132	
5.535	-0.483	-0.47133641032954293	
5.54	-0.602	-0.48660975423935326	
5.545	-0.695	-0.5123074118098587	
5.55	-0.787	-0.559845223036481	
5.555	-0.850	-0.6248215851240775	
5.56	-0.805	-0.6916573211242582	
5.565	-0.766	-0.7463594014242017	
5.57	-0.830	-0.7827070573974244	
5.575	-0.983	-0.812198894055554	
5.58	-0.995	-0.85118217407555	
5.585	-0.995	-0.897322802610618	
5.59	-0.993	-0.9386148462898771	
5.595	-0.995	-0.9672681071799122	
5.6	-0.993	-0.9878211935593278	
5.605	-0.995	-0.9988436719699142	
5.61	-0.993	-1.0026389354093563	
5.615	-0.946	-1.000359925274346	
5.62	-0.891	-0.990760824893488	
5.625	-0.842	-0.9661515513560874	
5.63	-0.668	-0.9250995368326298	
5.635	-0.585	-0.8633839771799718	
5.64	-0.483	-0.7806442803644154	
5.645	-0.355	-0.6821730159222403	
5.65	-0.248	-0.575853808203502	
5.655	-0.200	-0.46593560697942205	
5.66	-0.127	-0.3605593043467816	
5.665	0.050	-0.261335325781909	
5.67	0.152	-0.15987545218203514	
5.675	0.319	-0.04810170942350295	
5.68	0.478	0.07498248961322078	
5.685	0.368	0.19547525603162647	
5.69	0.292	0.2882882491390455	
5.695	0.192	0.33591512096662585	
5.7	0.154	0.33306390218762827	
5.705	0.081	0.2969685780834116	
5.71	0.140	0.24757464294623654	
5.715	0.107	0.19869381263218422	
5.72	0.042	0.15397661757106812	
5.725	0.072	0.11795077082239591	
5.73	0.088	0.09109660767428823	
5.735	0.017	0.07136667393704164	
5.74	0.101	0.05928566902842714	
5.745	0.192	0.06312313586970275	
5.75	0.172	0.0820533686232877	
5.755	0.166	0.10782734071919435	
5.76	0.275	0.13868186429493362	
5.765	0.383	0.17878723119660278	
5.77	0.357	0.227830986817112	
5.775	0.427	0.2819314360252275	
5.78	0.496	0.336233378559041	
5.785	0.527	0.38829971000414903	
5.79	0.563	0.4401770997201764	
5.795	0.628	0.49222684098879366	
5.8	0.641	0.5380699131790996	
5.805	0.570	0.5746875392341356	
5.81	0.615	0.5997264139762457	
5.815	0.654	0.6138723417343177	
5.82	0.441	0.6146977036700141	
5.825	0.444	0.5948889546435839	
5.83	0.522	0.5613671419392754	
5.835	0.525	0.5322689149461524	
5.84	0.482	0.5150937108252449	
5.845	0.536	0.5073200241722744	
5.85	0.467	0.5010955146375087	
5.855	0.337	0.4875941631013202	
5.86	0.438	0.4667647662819437	
5.865	0.486	0.4479455899679598	
5.87	0.403	0.4376568927295725	
5.875	0.453	0.43389362197862064	
5.88	0.420	0.4334217110963509	
5.885	0.299	0.4232139697245861	
5.89	0.319	0.4030338884646841	
5.895	0.530	0.38839167987819156	
5.9	0.611	0.3991570922242778	
5.905	0.476	0.43254910013766457	
5.91	0.333	0.45972877309568716	
5.915	0.264	0.4519448696664659	
5.92	0.130	0.4086221881585005	
5.925	0.275	0.35088354378582887	
5.93	0.490	0.3124846795407245	
5.935	0.542	0.3162660499427239	
5.94	0.547	0.35803244541981477	
5.945	0.667	0.4213634825866007	
5.95	0.641	0.4891263438158377	
5.955	0.603	0.5485477877877668	
5.96	0.672	0.5957521187858206	
5.965	0.745	0.6329675633671776	
5.97	0.657	0.6616409615079206	
5.975	0.625	0.6798606414225552	
5.98	0.637	0.6814158046346481	
5.985	0.568	0.6672354363532897	
5.99	0.611	0.6480514684938787	
5.995	0.722	0.6373659111800457	
6.0	0.699	0.6391243932322699	
6.005	0.641	0.6485702655530822	
6.01	0.722	0.6607613062577311	
6.015	0.770	0.675960868604601	
6.02	0.625	0.689648912049208	
6.025	0.793	0.7008675351930087	
6.03	0.929	0.7224368278985869	
6.035	0.910	0.7622847358352225	
6.04	0.909	0.8100305901807603	
6.045	1.017	0.8592935898964308	
6.05	0.973	0.9031628933438065	
6.055	0.858	0.9336084733908397	
6.06	0.838	0.9416484902008567	
6.065	0.776	0.9239351063205888	
6.07	0.568	0.8787564699736852	
6.075	0.512	0.8087954852622754	
6.08	0.449	0.7193151421148132	
6.085	0.258	0.6173882007018675	
6.09	0.172	0.5060667854778583	
6.095	0.159	0.39515927163414105	
6.1	0.152	0.2962344037867167	
6.105	0.052	0.2147555382299406	
6.11	0.056	0.15254549743902404	
6.115	0.075	0.10390967913967342	
6.12	0.012	0.06893939233034092	
6.125	0.020	0.04576639784244371	
6.13	0.067	0.03319242304403362	
6.135	0.094	0.029525203424869688	
6.14	0.030	0.03613413483246938	
6.145	0.056	0.043991230492902794	
6.15	0.177	0.05324568520417709	
6.155	0.181	0.0738955508405833	
6.16	0.252	0.10945921484331092	
6.165	0.212	0.14781169201299738	
6.17	0.156	0.17603257986013054	
6.175	0.156	0.18976763845169475	
6.18	0.145	0.1910781658526457	
6.185	0.049	0.17655040647455109	
6.19	0.012	0.1491859762253169	
6.195	0.013	0.11392798741415358	
6.2	-0.023	0.07523782494992748	
6.205	-0.106	0.034935212431576323	
6.21	-0.101	-0.0055901674839459806	
6.215	-0.066	-0.04118941565993782	
6.22	-0.077	-0.06788151262122233	
6.225	-0.049	-0.07924537109591662	
6.23	-0.005	-0.0769561840757593	
6.235	-0.058	-0.06937940846999086	
6.24	-0.086	-0.0628096178868126	
6.245	-0.064	-0.0591400067063424	
6.25	-0.071	-0.06072127797399299	
6.255	-0.127	-0.06703074846710111	
6.26	-0.035	-0.07265707388338505	
6.265	0.143	-0.06416255921125641	
6.27	0.168	-0.030803496015075156	
6.275	0.124	0.020686253574556036	
6.28	-0.028	-0.0516628292567525	
6.285	-0.138	0.06366029375144225	
6.29	-0.165	0.03217891371614829	
6.295	-0.097	-0.013181916648548486	
6.3	-0.003	-0.0516628292567525	
6.305	-0.005	-0.06598704872174206	
6.31	0.038	-0.058697334671981016	
6.315	0.039	-0.03917922115256565	
6.32	0.052	-0.015803278443495675	
6.325	0.075	0.009672544063168738	
6.33	0.104	0.035008755845469676	
6.335	0.157	0.05970639346599726	
6.34	0.122	0.08616847511539454	
6.345	0.188	0.11180979111311108	
6.35	0.215	0.13533189737516985	
6.355	0.104	0.15497345622043254	
6.36	0.165	0.1642889216030226	
6.365	0.243	0.16984008037390802	
6.37	0.217	0.17919650726242725	
6.375	0.287	0.19667336417886444	
6.38	0.327	0.22101689777877628	
6.385	0.295	0.24769806360117885	
6.39	0.330	0.27316843793297985	
6.395	0.475	0.3018198091966805	
6.4	0.525	0.343341527084822	
6.405	0.527	0.3939924747825717	
6.41	0.602	0.44828442493879966	
6.415	0.609	0.4998198479032653	
6.42	0.475	0.5371971327171601	
6.425	0.435	0.5496401922443535	
6.43	0.438	0.5379722912031768	
6.435	0.350	0.5077371955517713	
6.44	0.186	0.4601788985891828	
6.445	0.142	0.39372770504948507	
6.45	0.029	0.3103377405954551	
6.455	-0.066	0.21706502565133268	
6.46	-0.083	0.12423700340509285	
6.465	-0.066	0.041790320193310804	
6.47	-0.121	-0.023685767332702706	
6.475	-0.145	-0.07133145590259	
6.48	-0.121	-0.1051050368467743	
6.485	-0.150	-0.12820383127213186	
6.49	-0.167	-0.1437421010018811	
6.495	-0.116	-0.15033766480725128	
6.5	-0.103	-0.15066272232129213	
6.505	-0.150	-0.14484615642935011	
6.51	-0.089	-0.1368135549659133	
6.515	-0.046	-0.12528027621906662	
6.52	-0.086	-0.10961191702874287	
6.525	-0.068	-0.09433104653438235	
6.53	-0.064	-0.08120812370704389	
6.535	-0.080	-0.07416427293522429	
6.54	-0.080	-0.07067971075912044	
6.545	-0.034	-0.06742957079264164	
6.55	-0.002	-0.06067538272069682	
6.555	-0.101	-0.053748690252487984	
6.56	-0.064	-0.051874362196095154	
6.565	-0.066	-0.05435773323723129	
6.57	-0.127	-0.06151054435962368	
6.575	-0.141	-0.07532550316506455	
6.58	-0.142	-0.09232199274045498	
6.585	-0.173	-0.11208952535485768	
6.59	-0.196	-0.13260079247751044	
6.595	-0.162	-0.15155936549538243	
6.6	-0.141	-0.1636718411060356	
6.605	-0.116	-0.16559794124026245	
6.61	-0.084	-0.1569491035069487	
6.615	-0.075	-0.13944520366829682	
6.62	-0.124	-0.12336953849401769	
6.625	-0.086	-0.11032677264224205	
6.63	0.104	-0.09245515329987389	
6.635	0.293	-0.04796029175114849	
6.64	0.348	0.030517480942643466	
6.645	0.243	0.12126067832292899	
6.65	0.020	0.1822616140977501	
6.655	-0.072	0.18751072325699553	
6.66	-0.013	0.14996016105749618	
6.665	0.039	0.10148023927817383	
6.67	-0.023	0.059787297434862344	
6.675	-0.034	0.026668601422546907	
6.68	-0.058	-0.0006080794511873363	
6.685	-0.089	-0.025890407818177027	
6.69	-0.089	-0.04843425760956461	
6.695	-0.023	-0.06386290900559272	
6.7	0.010	-0.06463121351499548	
6.705	-0.043	-0.05631025039837728	
6.71	0.007	-0.044193962152201505	
6.715	0.018	-0.030596243517206974	
6.72	-0.014	-0.017015697614286555	
6.725	0.050	-0.005392834368458939	
6.73	0.088	0.009216918928511682	
6.735	0.076	0.029292602955741334	
6.74	0.064	0.04663394277367873	
6.745	0.232	0.06788406677883475	
6.75	1.367	0.15350523488484955	
6.755	2.811	0.4331341243480198	
6.76	3.077	0.9548259647798853	
6.765	3.072	1.5911700316727582	
6.77	3.071	2.1769489421675003	
6.775	3.072	2.629620992988791	
6.78	3.074	2.935095733352825	
6.785	3.077	3.110126495541231	
6.79	3.078	3.189637780401134	
6.795	3.081	3.2090302202394314	
6.8	3.081	3.1943265924594986	
6.805	2.678	3.1476872972183028	
6.81	2.323	3.0397761888122456	
6.815	1.983	2.8563604480487976	
6.82	1.691	2.6058716087536116	
6.825	1.402	2.314642184817206	
6.83	1.184	2.006362827974068	
6.835	0.904	1.7001301839855292	
6.84	0.608	1.4015402670343722	
6.845	0.524	1.1181996803298389	
6.85	0.432	0.8693962837115508	
6.855	0.208	0.6585934205174526	
6.86	0.174	0.4819144098255982	
6.865	0.108	0.3365205692431339	
6.87	0.012	0.22079148346706173	
6.875	-0.043	0.12764192887879555	
6.88	-0.072	0.052473065422501824	
6.885	-0.089	-0.00792225030420576	
6.89	-0.103	-0.05250926151776227	
6.895	-0.042	-0.07971940821683429	
6.9	-0.013	-0.08763396412134378	
6.905	-0.083	-0.08250091259706434	
6.91	-0.089	-0.07704514486090489	
6.915	-0.110	-0.07647538019432518	
6.92	-0.176	-0.08530642262384028	
6.925	-0.216	-0.10534861902140231	
6.93	-0.251	-0.13448292408964263	
6.935	-0.298	-0.17099091642483796	
6.94	-0.370	-0.2145360397866203	
6.945	-0.414	-0.2616743079456215	
6.95	-0.410	-0.3116709229209837	
6.955	-0.431	-0.3565331747453845	
6.96	-0.411	-0.3889717596139182	
6.965	-0.401	-0.4094559400877852	
6.97	-0.426	-0.42036446018157425	
6.975	-0.431	-0.4263115466571886	
6.98	-0.433	-0.42842446720392113	
6.985	-0.492	-0.4340538660882792	
6.99	-0.556	-0.44756570832359677	
6.995	-0.520	-0.4685987603634355	
7.0	-0.407	-0.48567614628849737	
7.005	-0.361	-0.48358360664430217	
7.01	-0.268	-0.45591324979415737	
7.015	-0.312	-0.41443555228895584	
7.02	-0.478	-0.3814626740016312	
7.025	-0.538	-0.37832885323200793	
7.03	-0.526	-0.4013690751635191	
7.035	-0.459	-0.43407981952586927	
7.04	-0.423	-0.45656987731556137	
7.045	-0.376	-0.45952654948322075	
7.05	-0.376	-0.44869775964424763	
7.055	-0.401	-0.4316644577015303	
7.06	-0.381	-0.4148883351257898	
7.065	-0.361	-0.3993980000596604	
7.07	-0.419	-0.3905003249370835	
7.075	-0.382	-0.3853070257299447	
7.08	-0.317	-0.3802985265025451	
7.085	-0.310	-0.37011822415584594	
7.09	-0.333	-0.3556306364658023	
7.095	-0.283	-0.3394836733561264	
7.1	-0.255	-0.3226832236665629	
7.105	-0.284	-0.30572060614682456	
7.11	-0.237	-0.28887055610713164	
7.115	-0.194	-0.2713508266320287	
7.12	-0.216	-0.2525343192133205	
7.125	-0.190	-0.2333216352601343	
7.13	-0.122	-0.21325867006056787	
7.135	-0.089	-0.18913284515733875	
7.14	-0.110	-0.16165756206624987	
7.145	-0.080	-0.13545610447916856	
7.15	-0.055	-0.1126857223309349	
7.155	-0.112	-0.09575217232460215	
7.16	-0.066	-0.08385348244614563	
7.165	-0.054	-0.07634186301712831	
7.17	-0.127	-0.07456634637156417	
7.175	-0.188	-0.08132063754964852	
7.18	-0.237	-0.10325217447467361	
7.185	-0.335	-0.14217389201438463	
7.19	-0.408	-0.1956666154820524	
7.195	-0.376	-0.25541727974626105	
7.2	-0.384	-0.3096866475014729	
7.205	-0.439	-0.35276176884810195	
7.21	-0.431	-0.38582104704810477	
7.215	-0.468	-0.41233943685390767	
7.22	-0.503	-0.4365894635166041	
7.225	-0.488	-0.45829079366682507	
7.23	-0.440	-0.471215989206913	
7.235	-0.431	-0.47517967377564313	
7.24	-0.419	-0.46966076033512466	
7.245	-0.398	-0.4553973586043688	
7.25	-0.370	-0.43770289290795805	
7.255	-0.423	-0.4217926462766495	
7.26	-0.333	-0.40581214599973414	
7.265	-0.266	-0.3863121772658151	
7.27	-0.306	-0.360601845384558	
7.275	-0.295	-0.33431769319518634	
7.28	-0.277	-0.3132096291387772	
7.285	-0.320	-0.300181755928829	
7.29	-0.318	-0.2956929434532063	
7.295	-0.281	-0.2943977979630543	
7.3	-0.306	-0.2946757981928515	
7.305	-0.359	-0.2998079345163167	
7.31	-0.375	-0.30984097673052624	
7.315	-0.376	-0.3262958451475197	
7.32	-0.423	-0.34659603349474677	
7.325	-0.410	-0.36734354345843323	
7.33	-0.352	-0.38218387919036956	
7.335	-0.367	-0.3891388750595995	
7.34	-0.376	-0.38772195899775214	
7.345	-0.355	-0.38241388430896817	
7.35	-0.375	-0.377633826231334	
7.355	-0.453	-0.37781956213657325	
7.36	-0.451	-0.3868807943404197	
7.365	-0.439	-0.4022625860849343	
7.37	-0.381	-0.4165687645542452	
7.375	-0.291	-0.41436906369267357	
7.38	-0.252	-0.3921663134857267	
7.385	-0.317	-0.3611212337138397	
7.39	-0.498	-0.343787327993253	
7.395	-0.508	-0.35344447045506044	
7.4	-0.453	-0.3845831871501528	
7.405	-0.431	-0.4158132145338395	
7.41	-0.330	-0.4278894692043271	
7.415	-0.258	-0.41721009632589423	
7.42	-0.260	-0.3875686887013294	
7.425	-0.257	-0.34843269001169075	
7.43	-0.228	-0.3101608464469827	
7.435	-0.255	-0.280093996992786	
7.44	-0.232	-0.25880485467297487	
7.445	-0.184	-0.24041411182449743	
7.45	-0.127	-0.2215439484676071	
7.455	-0.132	-0.19886858180525027	
7.46	-0.080	-0.17091881738862347	
7.465	-0.038	-0.14116505595748893	
7.47	-0.060	-0.11159926048843796	
7.475	0.006	-0.08247887657296674	
7.48	0.163	-0.047088761465590726	
7.485	0.183	0.0019455169282967773	
7.49	0.108	0.0541242378121237	
7.495	0.226	0.10057883510094415	
7.5	0.374	0.1475189410498728	
7.505	0.389	0.20512260994479684	
7.51	0.466	0.271038448027089	
7.515	0.570	0.3418538961145333	
7.52	0.567	0.41143518528886236	
7.525	0.496	0.47248804193784033	
7.53	0.453	0.5088418052624447	
7.535	0.359	0.5129341207835425	
7.54	0.212	0.4841533269801137	
7.545	0.189	0.42654963783953626	
7.55	0.070	0.3494683488858443	
7.555	-0.052	0.2591442778670321	
7.56	-0.080	0.16205735013024986	
7.565	-0.116	0.07081820196428047	
7.57	-0.203	-0.01354691701928288	
7.575	-0.213	-0.08545641483405432	
7.58	-0.203	-0.14215539234244398	
7.585	-0.202	-0.18304104037384972	
7.59	-0.220	-0.20778782547966995	
7.595	-0.220	-0.22045659143059498	
7.6	-0.214	-0.22654269862534737	
7.605	-0.239	-0.22981708264350012	
7.61	-0.214	-0.22994801171034776	
7.615	-0.161	-0.2252128704460322	
7.62	-0.138	-0.21352452853740223	
7.625	-0.153	-0.19544889329174192	
7.63	-0.130	-0.1751990315019613	
7.635	-0.097	-0.15805204126834804	
7.64	-0.127	-0.14176899684102	
7.645	-0.132	-0.12847438763736715	
7.65	-0.161	-0.12356965220947215	
7.655	-0.210	-0.13081287697587146	
7.66	-0.231	-0.14594106647474464	
7.665	-0.243	-0.16822879482730674	
7.67	-0.324	-0.19754808964862214	
7.675	-0.433	-0.2364499008310454	
7.68	-0.508	-0.2891900955760833	
7.685	-0.648	-0.3590769093686305	
7.69	-0.911	-0.45280097914092104	
7.695	-0.993	-0.57446955220984	
7.7	-0.995	-0.7075526151904958	
7.705	-0.995	-0.8277869875199607	
7.71	-0.995	-0.9159017481390554	
7.715	-0.995	-0.9732237702494329	
7.72	-0.993	-1.0075528679207362	
7.725	-0.993	-1.0204029888369246	
7.73	-0.995	-1.021165618917484	
7.735	-0.995	-1.0181154395582417	
7.74	-0.995	-1.0127720530574196	
7.745	-0.993	-1.0043877813666902	
7.75	-0.995	-0.999604715021363	
7.755	-0.995	-0.997884268099824	
7.76	-0.995	-0.993840542133991	
7.765	-0.995	-0.9921924235530152	
7.77	-0.993	-0.9936858520819313	
7.775	-0.879	-0.9883905590781296	
7.78	-0.712	-0.9620101128241778	
7.785	-0.593	-0.9061756445132094	
7.79	-0.517	-0.8238670111450295	
7.795	-0.370	-0.7212414982274888	
7.8	-0.268	-0.6085689482641982	
7.805	-0.249	-0.4960524493108145	
7.81	-0.147	-0.3887919768838716	
7.815	-0.040	-0.29206247967215476	
7.82	-0.042	-0.2038188683422883	
7.825	0.078	-0.12446158424246762	
7.83	0.270	-0.04286952202413326	
7.835	0.365	0.04778137150560202	
7.84	0.388	0.14799644336730325	
7.845	0.545	0.24985492748224183	
7.85	0.643	0.3504849295306263	
7.855	0.637	0.4478192202925401	
7.86	0.704	0.5362347151625461	
7.865	0.845	0.6140367664765902	
7.87	0.935	0.6901025100937479	
7.875	1.032	0.7745248133236375	
7.88	1.112	0.8642289321084075	
7.885	1.095	0.9476979548719099	
7.89	1.139	1.0179107354245605	
7.895	1.286	1.0819836036559325	
7.9	1.304	1.1444964460390277	
7.905	1.201	1.197673533338632	
7.91	1.176	1.2292892738885457	
7.915	1.025	1.2301225820618678	
7.92	0.771	1.184938985556594	
7.925	0.585	1.0914374242444531	
7.93	0.559	0.9603678326269864	
7.935	0.417	0.81470186615189	
7.94	0.319	0.6708025903704607	
7.945	0.368	0.5450690808095726	
7.95	0.353	0.4455949738081228	
7.955	0.198	0.3715912349225191	
7.96	0.244	0.31529380566328746	
7.965	0.330	0.276265141346683	
7.97	0.302	0.2589557665229004	
7.975	0.354	0.26340426466947536	
7.98	0.386	0.28344591839213495	
7.985	0.389	0.3087148208020496	
7.99	0.463	0.33871937715935807	
7.995	0.588	0.3810974425972483	
8.0	0.635	0.43564160165608223	
8.005	0.571	0.4924995178653331	
8.01	0.680	0.5452630756772919	
8.015	0.736	0.5933479893195166	
8.02	0.646	0.6349005160724335	
8.025	0.640	0.6622919656415955	
8.03	0.649	0.6735144384869488	
8.035	0.609	0.6707658915756285	
8.04	0.544	0.6556008683214407	
8.045	0.577	0.6350795324669374	
8.05	0.577	0.6117476257452281	
8.055	0.423	0.5844532495803556	
8.06	0.440	0.5521803063316169	
8.065	0.469	0.5164406163982113	
8.07	0.389	0.4819435423141723	
8.075	0.325	0.4501999838020872	
8.08	0.441	0.42155403983028694	
8.085	0.424	0.4028686246299843	
8.09	0.318	0.39253703471990986	
8.095	0.342	0.3830275231878061	
8.1	0.353	0.36882823656116526	
8.105	0.232	0.35045584505739624	
8.11	0.288	0.3301139062938565	
8.115	0.438	0.31748565521402566	
8.12	0.402	0.3220029763898637	
8.125	0.380	0.3411529034648051	
8.13	0.322	0.3575147503504208	
8.135	0.140	0.3508783854657769	
8.14	-0.011	0.30950384464210445	
8.145	0.091	0.2449996216153173	
8.15	0.319	0.18889206305731973	
8.155	0.350	0.17452221170878007	
8.16	0.524	0.20910141437832985	
8.165	0.612	0.2804666502381812	
8.17	0.501	0.3650141607879544	
8.175	0.484	0.4371275746075354	
8.18	0.562	0.4874792856019279	
8.185	0.518	0.5179265821101808	
8.19	0.484	0.5325549271374268	
8.195	0.533	0.5379449874966371	
8.2	0.482	0.5338422637829146	
8.205	0.466	0.5215316224036497	
8.21	0.571	0.5130639826720512	
8.215	0.625	0.51844561804421	
8.22	0.539	0.5310717695367844	
8.225	0.508	0.5421196620657404	
8.23	0.539	0.5464457048810882	
8.235	0.599	0.5459921271952641	
8.24	0.609	0.5525733677128876	
8.245	0.728	0.5738992525404132	
8.25	0.788	0.6099012446438576	
8.255	0.699	0.6505634516427822	
8.26	0.770	0.6899664879861496	
8.265	0.808	0.7224452571623428	
8.27	0.741	0.7471452121992896	
8.275	0.707	0.7600581495461314	
8.28	0.686	0.759402978193555	
8.285	0.609	0.741064693008851	
8.29	0.432	0.7025288923362936	
8.295	0.408	0.6427936712301385	
8.3	0.290	0.5649604591511415	
8.305	0.017	0.466599047226814	
8.31	-0.019	0.34885640529934925	
8.315	-0.022	0.2244685317109132	
8.32	-0.074	0.11327881412028168	
8.325	-0.092	0.027016012178739817	
8.33	0.018	-0.029645989393842054	
8.335	0.061	-0.053791720964394954	
8.34	-0.019	-0.051425548294258175	
8.345	0.032	-0.03532565650210947	
8.35	0.136	-0.012989915334191561	
8.355	0.101	0.01673217453066942	
8.36	0.105	0.050778163593901846	
8.365	0.131	0.07938170571718423	
8.37	0.094	0.09736058565596324	
8.375	0.065	0.10700662322065292	
8.38	0.091	0.10822962777768884	
8.385	0.134	0.10522589877050277	
8.39	0.070	0.1026428858611378	
8.395	0.116	0.10361304118166467	
8.4	0.165	0.10497380472707701	
8.405	0.076	0.10879436446296784	
8.41	0.075	0.11077345704021153	
8.415	0.082	0.1063275219416076	
8.42	-0.009	0.09239127079128237	
8.425	-0.074	0.0690415888840426	
8.43	-0.034	0.03718390024574082	
8.435	-0.061	0.004217233033786399	
8.44	-0.089	-0.025302323113615858	
8.445	-0.035	-0.045397630822867935	
8.45	-0.028	-0.056063562983439306	
8.455	-0.103	-0.06216735765970074	
8.46	-0.093	-0.06721050257758118	
8.465	-0.031	-0.07071094300131314	
8.47	-0.061	-0.07157876099262783	
8.475	-0.097	-0.06991832834647116	
8.48	-0.069	-0.06886215714246693	
8.485	-0.026	-0.06979335264727606	
8.49	0.078	-0.06024602950373994	
8.495	0.188	-0.027398426340798185	
8.5	0.119	-0.06024602950373994	
8.505	-0.124	-0.06024602950373994	
8.51	-0.158	0.045757736508160056	
8.515	-0.145	0.008271529212266138	
8.52	-0.107	-0.03954926853547547	
8.525	-0.035	-0.07290981838719661	
8.53	0.055	-0.07985205006352056	
8.535	0.079	-0.06375516689215861	
8.54	0.052	-0.03227635250443468	
8.545	0.142	0.006545737210978145	
8.55	0.227	0.049949300341585075	
8.555	0.143	0.09387631679116472	
8.56	0.180	0.13172909155949575	
8.565	0.253	0.16227360077896083	
8.57	0.197	0.18548300740785326	
8.575	0.180	0.20103463961942689	
8.58	0.247	0.2110935664710962	
8.585	0.261	0.2182919330094498	
8.59	0.169	0.2237317447800524	
8.595	0.232	0.22647695317343458	
8.6	0.351	0.22997065878872505	
8.605	0.330	0.24595097929872978	
8.61	0.374	0.27370031957263286	
8.615	0.495	0.3112376486496399	
8.62	0.507	0.3555476582442434	
8.625	0.545	0.40706069225749586	
8.63	0.637	0.4620327059260196	
8.635	0.644	0.5162956266210359	
8.64	0.531	0.5597794749492184	
8.645	0.530	0.5834257092038765	
8.65	0.508	0.5839102192098744	
8.655	0.350	0.5619864356385187	
8.66	0.299	0.5186907996328494	
8.665	0.238	0.45716331577311475	
8.67	0.091	0.38056918367828185	
8.675	-0.019	0.291096812071095	
8.68	-0.040	0.1959679507606061	
8.685	-0.068	0.10430364262934337	
8.69	-0.144	0.023878626143466215	
8.695	-0.148	-0.04058905578540916	
8.7	-0.148	-0.09312575180831646	
8.705	-0.208	-0.13292512820049926	
8.71	-0.158	-0.16027625306492327	
8.715	-0.127	-0.17289476528630782	
8.72	-0.136	-0.17438646354198117	
8.725	-0.138	-0.16784387781687307	
8.73	-0.107	-0.15609425784771502	
8.735	-0.060	-0.14171619443928174	
8.74	-0.104	-0.12406512937378068	
8.745	-0.061	-0.10662627274409385	
8.75	-0.016	-0.08917857342062306	
8.755	-0.075	-0.07387508772176202	
8.76	-0.072	-0.06227965387317142	
8.765	-0.057	-0.05697462026933938	
8.77	-0.026	-0.055360804218813585	
8.775	-0.034	-0.05078626159472803	
8.78	-0.057	-0.04415225245802045	
8.785	-0.107	-0.04575556970821509	
8.79	-0.164	-0.05901450908574722	
8.795	-0.127	-0.07862726723458496	
8.8	-0.121	-0.0992191052264557	
8.805	-0.161	-0.11684878743931473	
8.81	-0.162	-0.1302480578261226	
8.815	-0.136	-0.1409956723688052	
8.82	-0.173	-0.1503715173371105	
8.825	-0.144	-0.1557683918019875	
8.83	-0.110	-0.1541424833381743	
8.835	-0.107	-0.14775226618214232	
8.84	-0.159	-0.14101079631153274	
8.845	-0.162	-0.13662916918876977	
8.85	-0.136	-0.13822463948461042	
8.855	-0.104	-0.1398541959110582	
8.86	0.006	-0.1292324848545367	
8.865	0.116	-0.09796263880602413	
8.87	0.046	-0.05338196423051805	
8.875	-0.104	-0.016818496102729712	
8.88	-0.142	-0.008158469024157313	
8.885	-0.165	-0.02874770722770216	
8.89	-0.182	-0.06502349180725944	
8.895	-0.090	-0.09761377216633013	
8.9	-0.014	-0.11318426674823837	
8.905	-0.054	-0.10985955187612251	
8.91	-0.009	-0.09226627348492253	
8.915	0.030	-0.06796450406920142	
8.92	0.042	-0.04036836158923883	
8.925	-0.008	-0.01481139356573604	
8.93	0.075	0.006862082874772022	
8.935	0.119	0.027276014292900358	
8.94	0.101	0.04997260578107741	
8.945	0.180	0.07736617656211352	
8.95	0.246	0.10880687261337363	
8.955	0.166	0.141137857284135	
8.96	0.194	0.1677185754356073	
8.965	0.269	0.1890222381173589	
8.97	0.284	0.20964881126463925	
8.975	0.218	0.2292015497019156	
8.98	0.278	0.2448346664192668	
8.985	0.279	0.2542671055721738	
8.99	0.414	0.2690089447490851	
8.995	0.580	0.3063822355658302	
9.0	0.646	0.3697990302689886	
9.005	0.557	0.4441443640818866	
9.01	0.563	0.5067086193142261	
9.015	0.551	0.5479948792603746	
9.02	0.473	0.5636439309725314	
9.025	0.409	0.5561916906188699	
9.03	0.328	0.5258153221393376	
9.035	0.221	0.4722718427949425	
9.04	0.052	0.395986247973802	
9.045	-0.003	0.30132010833335654	
9.05	-0.069	0.19880118743796973	
9.055	-0.145	0.0961946640114018	
9.06	-0.155	0.005709167475363688	
9.065	-0.135	-0.06599025024103058	
9.07	-0.179	-0.11929385817992534	
9.075	-0.214	-0.15580566330312617	
9.08	-0.177	-0.17919717887889858	
9.085	-0.205	-0.19466947963122352	
9.09	-0.226	-0.20499744495325628	
9.095	-0.095	-0.20471259307467438	
9.1	0.145	-0.1801407119161211	
9.105	0.191	-0.11874952593122728	
9.11	0.097	-0.03636068969831992	
9.115	0.053	0.03194556687803354	
9.12	-0.074	0.06371437912384967	
9.125	-0.112	0.05817317621508441	
9.13	-0.109	0.027759910223855357	
9.135	-0.078	-0.011657222468104246	
9.14	-0.100	-0.046964434900800475	
9.145	-0.087	-0.07072622617828606	
9.15	-0.078	-0.08618969920054437	
9.155	-0.176	-0.09877374010342423	
9.16	-0.231	-0.11633871795908908	
9.165	-0.173	-0.139025712889557	
9.17	-0.197	-0.16226695958827936	
9.175	-0.226	-0.1807998233365331	
9.18	-0.199	-0.19322625897941698	
9.185	-0.185	-0.20267589990671306	
9.19	-0.174	-0.20496906054792197	
9.195	-0.038	-0.19269928581468182	
9.2	0.081	-0.15918096655513445	
9.205	0.064	-0.1067799455531851	
9.21	0.124	-0.044321270914050664	
9.215	0.175	0.017980180844719272	
9.22	0.169	0.0727008541583332	
9.225	0.206	0.12018979426405717	
9.23	0.516	0.1728070189775318	
9.235	0.667	0.25435349414217734	
9.24	0.492	0.3540214840271621	
9.245	0.301	0.4302213641118933	
9.25	0.039	0.43971887529568054	
9.255	-0.040	0.3772141181954863	
9.26	0.029	0.2777193336779896	
9.265	0.154	0.18597240178281338	
9.27	0.211	0.13073393909622893	
9.275	0.195	0.11426349764912294	
9.28	0.206	0.12476209303648453	
9.285	0.275	0.14627122395098455	
9.29	0.201	0.17307951355747003	
9.295	0.269	0.19930700866016998	
9.3	0.327	0.22471902049566655	
9.305	0.269	0.24924345652413205	
9.31	0.249	0.267754962682633	
9.315	0.292	0.27688716021533716	
9.32	0.250	0.27867147742272425	
9.325	0.233	0.2753234714967635	
9.33	0.247	0.2687466286728819	
9.335	0.226	0.2591931139383493	
9.34	0.194	0.2471360707934601	
9.345	0.264	0.2373558929426622	
9.35	0.204	0.2316386489036187	
9.355	0.288	0.22825019672068317	
9.36	0.547	0.247860915866313	
9.365	0.698	0.30790027307507173	
9.37	0.701	0.4006415202860307	
9.375	0.651	0.5003317902535405	
9.38	0.699	0.5827350743468173	
9.385	0.874	0.6491828427518926	
9.39	0.863	0.7141574608416242	
9.395	0.952	0.779347063032267	
9.4	0.985	0.8406119193443439	
9.405	0.933	0.8922584876316387	
9.41	0.938	0.9288347763521138	
9.415	0.829	0.9438064447938224	
9.42	0.655	0.9256110633122635	
9.425	0.582	0.871383132835219	
9.43	0.505	0.79272927514492	
9.435	0.392	0.6981426623038238	
9.44	0.139	0.5881671853262259	
9.445	0.003	0.45833929410550156	
9.45	-0.153	0.3085846392499465	
9.455	-0.287	0.15028851051986503	
9.46	-0.375	-0.006134418541755589	
9.465	-0.446	-0.14919259024051315	
9.47	-0.543	-0.27734004853288186	
9.475	-0.588	-0.38656391932290796	
9.48	-0.601	-0.47428322578661775	
9.485	-0.610	-0.5418487621983524	
9.49	-0.654	-0.58977674035035	
9.495	-0.621	-0.6206466624741112	
9.5	-0.588	-0.6354213109745723	
9.505	-0.593	-0.6376870785570199	
9.51	-0.570	-0.6281368774136706	
9.515	-0.530	-0.6112198803778782	
9.52	-0.524	-0.5913385084959967	
9.525	-0.529	-0.5685675459620947	
9.53	-0.497	-0.5473124241829365	
9.535	-0.501	-0.5308646034380555	
9.54	-0.549	-0.5197813983833798	
9.545	-0.512	-0.5136592365914685	
9.55	-0.463	-0.5104328347032833	
9.555	-0.475	-0.5046904112531843	
9.56	-0.446	-0.49312952538407173	
9.565	-0.393	-0.4772189065165046	
9.57	-0.428	-0.45935446196295904	
9.575	-0.500	-0.4465687463424068	
9.58	-0.466	-0.4433061408805931	
9.585	-0.475	-0.4488784284599522	
9.59	-0.532	-0.4597776653536128	
9.595	-0.506	-0.47263842728302224	
9.6	-0.388	-0.4814438160894657	
9.605	-0.257	-0.46968267459445956	
9.61	-0.190	-0.4260741607213383	
9.615	-0.202	-0.36423005151040144	
9.62	-0.393	-0.3134308480119553	
9.625	-0.459	-0.2975653988096836	
9.63	-0.352	-0.3092595393246278	
9.635	-0.246	-0.3248987234017211	
9.64	-0.200	-0.3207747096729423	
9.645	-0.139	-0.29457656337144345	
9.65	-0.060	-0.25246487379273785	
9.655	-0.055	-0.20075103022669444	
9.66	-0.014	-0.1460573891818087	
9.665	0.036	-0.09321147949035685	
9.67	0.039	-0.047452473561702214	
9.675	0.050	-0.008519538348497512	
9.68	0.154	0.027779602336009148	
9.685	0.233	0.06603463661432182	
9.69	0.169	0.10920097140994163	
9.695	0.269	0.15047080684028397	
9.7	0.307	0.1884967949283862	
9.705	0.178	0.22120396561132483	
9.71	0.211	0.2369872596275428	
9.715	0.324	0.24478042324245705	
9.72	0.409	0.2605282082472088	
9.725	0.434	0.2925599105537631	
9.73	0.606	0.342773833922522	
9.735	0.652	0.4089622828675355	
9.74	0.663	0.4842776710763003	
9.745	0.744	0.5594999790880665	
9.75	0.802	0.6283779060511022	
9.755	0.684	0.6852480315168914	
9.76	0.678	0.7190809099264615	
9.765	0.704	0.7306447006973242	
9.77	0.571	0.7224757330795188	
9.775	0.411	0.6896790404002955	
9.78	0.347	0.6276707269023467	
9.785	0.221	0.5408322351477187	
9.79	0.059	0.4374364679780352	
9.795	0.017	0.32352045290728915	
9.8	0.030	0.2132020619173568	
9.805	-0.034	0.12038886984710365	
9.81	-0.042	0.05025483848877487	
9.815	0.006	0.0014536315531112178	
9.82	0.722	0.007504307919283252	
9.825	2.273	0.18212420037433547	
9.83	3.084	0.6208596204789106	
9.835	3.075	1.251678557831512	
9.84	3.074	1.898347813988627	
9.845	3.072	2.4344969215303984	
9.85	3.072	2.815120713910908	
9.855	3.075	3.049233684435225	
9.86	3.074	3.170142848133109	
9.865	3.074	3.211555826202793	
9.87	3.078	3.205483485144631	
9.875	3.080	3.179712474089457	
9.88	3.084	3.149665806414874	
9.885	2.928	3.1139109788189914	
9.89	2.624	3.0553580111753886	
9.895	2.352	2.94937261764173	
9.9	2.065	2.7863402993461053	
9.905	1.760	2.5713635414717655	
9.91	1.450	2.3159586635548006	
9.915	1.231	2.0356180844135543	
9.92	1.020	1.7486851829421635	
9.925	0.759	1.4705754982597927	
9.93	0.692	1.21258272345153	
9.935	0.580	0.9871425122624466	
9.94	0.362	0.7953927869861274	
9.945	0.247	0.6272373104379825	
9.95	0.195	0.47649122122917575	
9.955	0.059	0.34651379671349825	
9.96	-0.081	0.22981612081555208	
9.965	-0.167	0.11759207358203011	
9.97	-0.174	0.012845246052443656	
9.975	-0.167	-0.07246714128199956	
9.98	-0.153	-0.13052924244622066	
9.985	-0.223	-0.16777638482640084	
9.99	-0.361	-0.20059315745084447	
9.995	-0.466	-0.24289426667318953	
10.0	-0.524	-0.30349740725087293	
10.005	-0.511	-0.3714162666883211	
10.01	-0.478	-0.4292427191167845	
10.015	-0.426	-0.46540131265073853	
10.02	-0.408	-0.4780739672864563	
10.025	-0.472	-0.47553552837202073	
10.03	-0.426	-0.4676005922595675	
10.035	-0.382	-0.4566967294480771	
10.04	-0.431	-0.442575950942964	
10.045	-0.440	-0.43096182170818903	
10.05	-0.439	-0.42645836284842975	
10.055	-0.426	-0.4263726795403673	
10.06	-0.413	-0.4263165218714974	
10.065	-0.417	-0.42343035249391886	
10.07	-0.419	-0.42202706237651477	
10.075	-0.453	-0.42256155581070143	
10.08	-0.436	-0.4246358311135493	
10.085	-0.419	-0.4286556037899004	
10.09	-0.431	-0.4305752408800997	
10.095	-0.381	-0.427991210218068	
10.1	-0.335	-0.41741166024850473	
10.105	-0.356	-0.40135587510067416	
10.11	-0.402	-0.3863794961678439	
10.115	-0.352	-0.3764209315780123	
10.12	-0.330	-0.3689737324675286	
10.125	-0.376	-0.3615968171516887	
10.13	-0.394	-0.3586681457724914	
10.135	-0.433	-0.36461775704891475	
10.14	-0.569	-0.3855882692158621	
10.145	-0.672	-0.42705540675828957	
10.15	-0.709	-0.4894105580644214	
10.155	-0.798	-0.5643256209010683	
10.16	-0.903	-0.6443953139261656	
10.165	-0.984	-0.729436426390701	
10.17	-0.993	-0.8159583161676618	
10.175	-0.995	-0.8915767477658564	
10.18	-0.995	-0.9466473238187644	
10.185	-0.995	-0.9826070067956375	
10.19	-0.995	-1.0035817726254148	
10.195	-0.995	-1.0110143228541064	
10.2	-0.996	-1.0113864547966749	
10.205	-0.995	-1.0103694574881816	
10.21	-0.996	-1.0063926526901905	
10.215	-0.996	-1.0013704294721741	
10.22	-0.996	-0.9989974055482945	
10.225	-0.995	-0.9976532360064962	
10.23	-0.995	-0.9955882117321453	
10.235	-0.995	-0.9945864321044702	
10.24	-0.995	-0.9956906821878183	
10.245	-0.995	-0.9939895761662095	
10.25	-0.995	-0.9932882154697361	
10.255	-0.995	-0.9944655405713837	
10.26	-0.995	-0.9954467136006355	
10.265	-0.980	-0.9932274749102038	
10.27	-0.908	-0.9880177129380084	
10.275	-0.883	-0.9737825438771253	
10.28	-0.763	-0.9434620442048951	
10.285	-0.665	-0.8974954498084939	
10.29	-0.605	-0.8348568043791934	
10.295	-0.497	-0.7579626969479829	
10.3	-0.401	-0.6721133769022047	
10.305	-0.393	-0.5855978374333857	
10.31	-0.349	-0.5055584788582477	
10.315	-0.239	-0.43203745468495647	
10.32	-0.155	-0.36303087877759177	
10.325	-0.121	-0.2939817392579341	
10.33	-0.042	-0.22334705246486328	
10.335	0.052	-0.15539246809665488	
10.34	-0.006	-0.09207017712078702	
10.345	0.183	-0.03196463054293461	
10.35	0.458	0.04110338139193965	
10.355	0.458	0.13931443487640033	
10.36	0.441	0.24731778207080513	
10.365	0.391	0.3351012407906846	
10.37	0.337	0.3869420700722305	
10.375	0.318	0.4048528464055452	
10.38	0.463	0.40675863306372334	
10.385	0.649	0.41971090995098337	
10.39	0.721	0.46082394296474993	
10.395	0.886	0.5350690095188156	
10.4	0.952	0.6331955017977514	
10.405	0.880	0.7311804294751789	
10.41	0.887	0.8112617809751849	
10.415	1.007	0.871262611976577	
10.42	1.063	0.9209477483837899	
10.425	1.013	0.9667451000447178	
10.43	1.048	1.0038266731073775	
10.435	1.098	1.029737191611201	
10.44	0.936	1.0436805751266578	
10.445	0.952	1.0410569771760558	
10.45	1.019	1.0262779583668475	
10.455	1.061	1.0141405836724746	
10.46	1.097	1.0172755369373103	
10.465	1.129	1.03535349848014	
10.47	1.190	1.0608889328155033	
10.475	1.205	1.0947058680487791	
10.48	1.306	1.137948672205713	
10.485	1.361	1.1867260061185214	
10.49	1.193	1.230568972151943	
10.495	1.277	1.2601426614269275	
10.5	1.298	1.2743380093482384	
10.505	1.152	1.2759923026301951	
10.51	1.091	1.258254066873125	
10.515	1.152	1.226461222332838	
10.52	0.993	1.1848215522882177	
10.525	0.780	1.1256190376218242	
10.53	0.702	1.0420032566463637	
10.535	0.620	0.9367216990352968	
10.54	0.495	0.822527911502662	
10.545	0.580	0.71821216253494	
10.55	0.495	0.6333788422768064	
10.555	0.365	0.5619496715017005	
10.56	0.395	0.49927812948441475	
10.565	0.405	0.4495209131338613	
10.57	0.290	0.40880203827825745	
10.575	0.296	0.3725996078033152	
10.58	0.406	0.3480738158357852	
10.585	0.473	0.342778675066008	
10.59	0.385	0.3554759397596784	
10.595	0.340	0.37216061670859646	
10.6	0.295	0.37440680127044534	
10.605	0.261	0.35894160831834254	
10.61	0.366	0.34023036901986226	
10.615	0.455	0.33756479377909654	
10.62	0.429	0.3498437333987593	
10.625	0.389	0.36952825783909865	
10.63	0.461	0.39105804400422284	
10.635	0.431	0.407832450022589	
10.64	0.266	0.4124066306936912	
10.645	0.363	0.4021070889286788	
10.65	0.446	0.3895322985098586	
10.655	0.351	0.38297471454192444	
10.66	0.192	0.3720837982707334	
10.665	0.139	0.34055056548857876	
10.67	0.140	0.2879349070574794	
10.675	0.085	0.231479016434478	
10.68	0.226	0.18902010267169606	
10.685	0.292	0.16993885120309127	
10.69	0.200	0.17343709755715236	
10.695	0.233	0.18903524681522654	
10.7	0.250	0.2045447386169644	
10.705	0.073	0.20799951331249622	
10.71	0.046	0.19303439970608807	
10.715	0.117	0.16557139238558302	
10.72	0.204	0.14100959771513785	
10.725	0.255	0.1384542889257211	
10.73	0.322	0.16198308887485507	
10.735	0.292	0.19796896918399987	
10.74	-0.006	0.21839661111686992	
10.745	-0.037	0.20094855775565185	
10.75	0.075	0.15658524317184175	
10.755	0.055	0.11008331171058897	
10.76	0.090	0.08101047580543647	
10.765	0.232	0.07555425163297938	
10.77	0.292	0.09507222413126523	
10.775	0.236	0.13544160557401508	
10.78	0.308	0.18189446855038083	
10.785	0.295	0.22399120017512922	
10.79	0.192	0.25048026232948317	
10.795	0.273	0.2639222482628808	
10.8	0.356	0.2735514598841222	
10.805	0.295	0.2831343287439028	
10.81	0.334	0.29598972281718494	
10.815	0.408	0.31348181007442766	
10.82	0.366	0.3311059174188501	
10.825	0.252	0.342452540474801	
10.83	0.324	0.34281601657641125	
10.835	0.429	0.34003361208235316	
10.84	0.466	0.34958062498384745	
10.845	0.735	0.388881854703421	
10.85	0.913	0.46854411605157675	
10.855	0.929	0.5792333676718835	
10.86	0.922	0.6979440565165578	
10.865	1.043	0.8063771593959989	
10.87	1.065	0.8961856802063953	
10.875	0.921	0.9634928295365425	
10.88	0.929	0.9976788122631299	
10.885	0.851	0.9980232315018429	
10.89	0.573	0.9586568193380006	
10.895	0.452	0.8777381749820132	
10.9	0.379	0.7624241854159728	
10.905	0.281	0.6313757841484517	
10.91	0.159	0.501982612750353	
10.915	0.111	0.3802411426499358	
10.92	0.073	0.26926401246324133	
10.925	-0.013	0.17564504062898148	
10.93	-0.058	0.09859048008165772	
10.935	-0.083	0.032991288543141574	
10.94	-0.148	-0.025174666883598602	
10.945	-0.121	-0.07024523278828182	
10.95	-0.075	-0.09966597577344669	
10.955	-0.086	-0.11454592325766276	
10.96	-0.119	-0.11796951921851424	
10.965	-0.043	-0.11185854363811266	
10.97	-0.023	-0.10072567483776299	
10.975	-0.068	-0.08529009470098209	
10.98	-0.040	-0.0684853762516828	
10.985	-0.003	-0.05504005313865415	
10.99	-0.106	-0.047102779443892503	
10.995	-0.043	-0.04528971138684228	
11.0	-0.014	-0.043734087919031106	
11.005	-0.035	-0.04247836023146351	
11.01	-0.069	-0.04096378234646053	
11.015	-0.022	-0.038943589233740895	
11.02	-0.048	-0.04068718785939199	
11.025	-0.165	-0.04724502043591505	
11.03	-0.170	-0.06557304185818248	
11.035	-0.130	-0.09204126340966864	
11.04	-0.200	-0.11900413720008081	
11.045	-0.200	-0.14233065006951362	
11.05	-0.132	-0.16080000402574318	
11.055	-0.126	-0.16939029218941248	
11.06	-0.165	-0.1669278526858887	
11.065	-0.153	-0.16204209327021118	
11.07	-0.170	-0.15967828089309072	
11.075	-0.197	-0.16214955005743265	
11.08	-0.190	-0.16661559822790917	
11.085	-0.174	-0.1731032428247874	
11.09	-0.194	-0.17993118111614437	
11.095	-0.092	-0.1783049579045058	
11.1	-0.009	-0.16186687303042535	
11.105	-0.032	-0.13236947299425378	
11.11	-0.135	-0.10289384450535057	
11.115	-0.182	-0.09011437415953022	
11.12	-0.177	-0.09969710497497576	
11.125	-0.202	-0.12108191935740771	
11.13	-0.119	-0.13962760191728346	
11.135	-0.055	-0.1461374000749471	
11.14	-0.051	-0.1368766882772008	
11.145	-0.009	-0.11329224412539604	
11.15	0.012	-0.08293860196999639	
11.155	0.020	-0.052367066045743746	
11.16	0.017	-0.02483245714779692	
11.165	0.044	-0.00012497903227676535	
11.17	0.032	0.016276833522313808	
11.175	-0.009	0.025943735322759297	
11.18	0.029	0.029369409058764173	
11.185	0.042	0.029820248588081317	
11.19	-0.008	0.027119826513674825	
11.195	0.052	0.02572592789571067	
11.2	0.149	0.033060111404582565	
11.205	0.119	0.04963782557712906	
11.21	0.120	0.07317521951439543	
11.215	0.172	0.09686890451785508	
11.22	0.270	0.12328800864695327	
11.225	0.307	0.15997163488009294	
11.23	0.359	0.20736940556492636	
11.235	0.438	0.25980429244031245	
11.24	0.353	0.3091265056215714	
11.245	0.359	0.34672290185852817	
11.25	0.402	0.37001922228303863	
11.255	0.377	0.38262523212060795	
11.26	0.296	0.38520635295352784	
11.265	0.261	0.3738468290179557	
11.27	0.259	0.34823620729181076	
11.275	0.076	0.30899130103102557	
11.28	0.015	0.2543749052825909	
11.285	-0.019	0.18474182288701851	
11.29	-0.113	0.10814894217319848	
11.295	-0.156	0.033803901199035286	
11.3	-0.173	-0.03602023523032571	
11.305	-0.185	-0.09741433737871084	
11.31	-0.208	-0.14369212284400373	
11.315	-0.229	-0.17712163588937396	
11.32	-0.226	-0.2028568140618627	
11.325	-0.246	-0.22196494071160316	
11.33	-0.210	-0.23151179492879653	
11.335	-0.135	-0.23032431844220536	
11.34	-0.098	-0.2159048162844711	
11.345	-0.016	-0.18307462993281676	
11.35	0.085	-0.13501142657630696	
11.355	0.137	-0.0745409203879685	
11.36	0.175	-0.005641193745721689	
11.365	0.175	0.06096033243651791	
11.37	0.059	0.10800477704111121	
11.375	-0.022	0.12296751197737141	
11.38	-0.048	0.10860736140436592	
11.385	-0.074	0.07163043426587319	
11.39	-0.092	0.025963259234580795	
11.395	-0.089	-0.01597426116170427	
11.4	-0.145	-0.051944276819423055	
11.405	-0.237	-0.0907024899295948	
11.41	-0.326	-0.13564716916828562	
11.415	-0.347	-0.18888059156800308	
11.42	-0.341	-0.24405392561633826	
11.425	-0.329	-0.28909931743696216	
11.43	-0.292	-0.31621341751396065	
11.435	-0.263	-0.3253433032510552	
11.44	0.392	-0.2911765857914552	
11.445	1.931	-0.1057301541862882	
11.45	3.029	0.3414708176837641	
11.455	3.081	1.0072191169383502	
11.46	3.078	1.715036563347676	
11.465	3.080	2.3171575821894472	
11.47	3.081	2.75202602377553	
11.475	3.080	3.025588212398138	
11.48	3.083	3.172606892662732	
11.485	2.974	3.222918151897466	
11.49	2.375	3.1767272451633093	
11.495	2.026	3.0196521993115204	
11.5	1.856	2.768312349215396	
11.505	1.642	2.47152076350961	
11.51	1.303	2.166978529086932	
11.515	1.074	1.8650721857610115	
11.52	0.782	1.566388568818901	
11.525	-0.139	1.244693879319303	
11.53	-0.786	0.8452660334561719	
11.535	-0.993	0.36797665346597497	
11.54	-0.995	-0.10984609810690327	
11.545	-0.995	-0.5073018144083248	
11.55	-0.995	-0.7908140558908832	
11.555	-0.995	-0.9702706133307025	
11.56	-0.995	-1.0628673725851936	
11.565	-0.995	-1.0941124446435815	
11.57	-0.995	-1.0926431986537075	
11.575	-0.995	-1.0740703113320416	
11.58	-0.993	-1.0486837956211086	
11.585	-0.995	-1.0261424507389871	
11.59	-0.978	-1.0108530537748788	
11.595	-0.877	-0.9913217042330744	
11.6	-0.778	-0.9599336736887023	
11.605	-0.686	-0.913312226433462	
11.61	-0.622	-0.8498448815439482	
11.615	-0.517	-0.7721459294816788	
11.62	-0.454	-0.6906751304566211	
11.625	-0.443	-0.6100587086127702	
11.63	-0.401	-0.5366811116769516	
11.635	-0.342	-0.47415384903784574	
11.64	-0.370	-0.4258643572915784	
11.645	-0.381	-0.3893330085929664	
11.65	-0.368	-0.3679465410140923	
11.655	-0.404	-0.36134280487746573	
11.66	-0.431	-0.3658647390346399	
11.665	-0.390	-0.3751249673437087	
11.67	-0.378	-0.3846721801404239	
11.675	-0.416	-0.3910799704893645	
11.68	-0.385	-0.39465408344471276	
11.685	-0.332	-0.39312162269789414	
11.69	-0.371	-0.3878860560513835	
11.695	-0.339	-0.37732702999744194	
11.7	-0.226	-0.35989590471859156	
11.705	-0.191	-0.3323400836074218	
11.71	-0.167	-0.2938817106854683	
11.715	-0.113	-0.24809901711712484	
11.72	-0.110	-0.20367330558028413	
11.725	-0.158	-0.16812420255712807	
11.73	-0.068	-0.1406473953361843	
11.735	-0.019	-0.11609042529970076	
11.74	-0.029	-0.0899134317753182	
11.745	-0.031	-0.06434944219672847	
11.75	0.015	-0.04287285069443275	
11.755	-0.020	-0.026354960845475596	
11.76	-0.019	-0.015920548905903154	
11.765	0.055	-0.006077923200263921	
11.77	0.018	0.0033569933586282204	
11.775	-0.089	0.006847938117566895	
11.78	-0.061	-0.0006685342940484496	
11.785	-0.075	-0.01806625798304782	
11.79	-0.118	-0.03991145626728461	
11.795	-0.112	-0.06237432569047368	
11.8	-0.103	-0.08085356259558574	
11.805	-0.119	-0.09732332048818451	
11.81	-0.121	-0.10794329982200794	
11.815	-0.075	-0.1120866922293972	
11.82	-0.090	-0.11160565655703014	
11.825	-0.176	-0.11115810263699806	
11.83	-0.164	-0.11669483890802637	
11.835	-0.121	-0.12703598004568684	
11.84	-0.092	-0.132892298050388	
11.845	0.091	-0.12039017431648957	
11.85	0.275	-0.07381470727407487	
11.855	0.235	0.0007162431373614194	
11.86	0.041	0.07398962324636713	
11.865	-0.118	0.10783605216954528	
11.87	-0.159	0.08640500430969193	
11.875	-0.188	0.02985778575673232	
11.88	-0.112	-0.030703812029378167	
11.885	0.006	-0.07400762439542102	
11.89	0.000	-0.08786609944231116	
11.895	0.026	-0.07641694232579883	
11.9	0.084	-0.04884945589276558	
11.905	0.033	-0.018291040897614835	
11.91	0.015	0.008018287804044108	
11.915	0.084	0.028890695563766076	
11.92	0.090	0.04442644094570688	
11.925	0.061	0.057837778619962345	
11.93	0.131	0.07129214450351709	
11.935	0.152	0.08698965805714301	
11.94	0.108	0.10209486901610533	
11.945	0.168	0.1165629987236061	
11.95	0.250	0.13518298246003096	
11.955	0.221	0.15872024881521885	
11.96	0.252	0.18398878468697066	
11.965	0.371	0.21590588540791378	
11.97	0.469	0.25747612932580394	
11.975	0.380	0.3068166728899895	
11.98	0.492	0.35624499653508684	
11.985	0.583	0.40502860965341125	
11.99	0.515	0.45212868912052795	
11.995	0.510	0.4904947931457802	
12.0	0.577	0.51815398647002	
12.005	0.577	0.537787669308906	
12.01	0.414	0.5469727339447912	
12.015	0.371	0.5338036947560487	
12.02	0.229	0.492479680590199	
12.025	0.010	0.4178642415846675	
12.03	-0.084	0.31417285670647405	
12.035	-0.150	0.1909854979551709	
12.04	-0.249	0.06422355791446512	
12.045	-0.310	-0.053482963443935994	
12.05	-0.304	-0.153913146423262	
12.055	-0.313	-0.23415577992168735	
12.06	-0.332	-0.2889407966240089	
12.065	-0.304	-0.3192320983231907	
12.07	-0.307	-0.334514186154646	
12.075	-0.353	-0.340047481374397	
12.08	-0.277	-0.3378290810118043	
12.085	-0.211	-0.3250492331634601	
12.09	-0.203	-0.30273545867946494	
12.095	-0.200	-0.27248230026435716	
12.1	-0.161	-0.24197278692446728	
12.105	-0.164	-0.21515787371665682	
12.11	-0.185	-0.19393259424487724	
12.115	-0.133	-0.17627682007829856	
12.12	-0.106	-0.16151999615125967	
12.125	-0.118	-0.14701478362072268	
12.13	-0.090	-0.13185302822596337	
12.135	-0.051	-0.11507834304957962	
12.14	-0.090	-0.1007135204287032	
12.145	-0.084	-0.0884855567068897	
12.15	-0.104	-0.08199871066902303	
12.155	-0.084	-0.08214077644037383	
12.16	-0.145	-0.08692067029300972	
12.165	-0.142	-0.0952980296152605	
12.17	-0.155	-0.10951941562307842	
12.175	-0.181	-0.1270056375682994	
12.18	-0.161	-0.141858331568764	
12.185	-0.116	-0.15106817229520875	
12.19	-0.145	-0.15470755153379145	
12.195	-0.139	-0.1514911276811574	
12.2	-0.075	-0.14397775303435312	
12.205	-0.092	-0.13313241423941316	
12.21	-0.142	-0.12194550337681721	
12.215	-0.104	-0.11428784655918525	
12.22	-0.023	-0.10749417411498857	
12.225	0.020	-0.09201705601071052	
12.23	0.010	-0.06385364883834604	
12.235	-0.034	-0.038064406427752245	
12.24	-0.197	-0.03176514516055719	
12.245	-0.254	-0.053515168148754434	
12.25	-0.229	-0.09593854503601408	
12.255	-0.141	-0.14014503682314455	
12.26	-0.049	-0.16194896051712449	
12.265	0.044	-0.1502027864459336	
12.27	0.116	-0.11049118525588958	
12.275	0.058	-0.056106985562316566	
12.28	0.148	0.0001783584967241863	
12.285	0.174	0.05200403716834117	
12.29	0.096	0.09317613977918088	
12.295	0.128	0.12047413738456003	
12.3	0.238	0.14014753616771955	
12.305	0.273	0.1628226663049888	
12.31	0.236	0.1899624748252173	
12.315	0.321	0.2198267583676722	
12.32	0.328	0.24852972436423232	
12.325	0.256	0.2728317501323343	
12.33	0.351	0.29118212878825445	
12.335	0.424	0.31006049343942976	
12.34	0.314	0.33016602226396563	
12.345	0.386	0.3464470884360488	
12.35	0.482	0.3641720559457867	
12.355	0.547	0.39184753763849556	
12.36	0.562	0.43094643278115713	
12.365	0.655	0.4808126364982285	
12.37	0.706	0.5335568773159819	
12.375	0.565	0.5818426477574135	
12.38	0.583	0.611128467845131	
12.385	0.615	0.6220369220052302	
12.39	0.476	0.6152134004305364	
12.395	0.372	0.5894290346620532	
12.4	0.243	0.5370880397545053	
12.405	0.062	0.4528478123376115	
12.41	-0.020	0.3429742407574211	
12.415	0.007	0.22977106436751404	
12.42	-0.025	0.1285702714407019	
12.425	-0.113	0.046918278027212504	
12.43	-0.121	-0.016880515162121114	
12.435	-0.127	-0.06797991239105027	
12.44	-0.158	-0.10672377744186055	
12.445	-0.171	-0.13355243076670226	
12.45	-0.164	-0.1509284540862486	
12.455	-0.203	-0.16610146744350407	
12.46	-0.291	-0.1830083713299832	
12.465	-0.236	-0.2022875573024216	
12.47	-0.203	-0.22043012227505482	
12.475	-0.248	-0.23104620352448865	
12.48	-0.200	-0.23291187597551466	
12.485	-0.142	-0.22700135929132162	
12.49	-0.174	-0.21469067272912923	
12.495	-0.158	-0.1985636428930449	
12.5	-0.103	-0.17896336271943236	
12.505	-0.141	-0.162075747759736	
12.51	-0.136	-0.14799292966835464	
12.515	-0.095	-0.13531956523627697	
12.52	-0.086	-0.12342527024555076	
12.525	-0.170	-0.11703646930527604	
12.53	-0.150	-0.11695384620329699	
12.535	-0.141	-0.12300300356424665	
12.54	-0.197	-0.13465975315812828	
12.545	-0.176	-0.14759828974171393	
12.55	-0.104	-0.15497004489210944	
12.555	-0.122	-0.1550125171926194	
12.56	-0.177	-0.15101460092198682	
12.565	-0.145	-0.14837699787524694	
12.57	-0.107	-0.14636712761686327	
12.575	-0.156	-0.1440018426291152	
12.58	-0.130	-0.1400229312671007	
12.585	-0.109	-0.1359869811042353	
12.59	-0.144	-0.133591979829412	
12.595	-0.129	-0.13065371040038204	
12.6	-0.055	-0.12500899725718684	
12.605	-0.006	-0.11193590368214218	
12.61	-0.064	-0.09201564400352549	
12.615	-0.100	-0.0734489823977702	
12.62	-0.158	-0.07134426517361346	
12.625	-0.185	-0.08598211723700094	
12.63	-0.133	-0.10606813452365932	
12.635	-0.043	-0.11895815125809797	
12.64	0.036	-0.1135403589048255	
12.645	0.050	-0.08568196044075152	
12.65	0.154	-0.04101058454592868	
12.655	0.105	0.008087236938529516	
12.66	0.107	0.051938890303217744	
12.665	0.229	0.09155260781170481	
12.67	0.328	0.1347371947721526	
12.675	0.243	0.18100276153477926	
12.68	0.178	0.21785504610621192	
12.685	0.249	0.2360567603394998	
12.69	0.249	0.24147574740119537	
12.695	0.272	0.24726395241687532	
12.7	0.347	0.25899125344423113	
12.705	0.321	0.2741347046874438	
12.71	0.292	0.28991966800819197	
12.715	0.347	0.3035277838119417	
12.72	0.432	0.31876111871478213	
12.725	0.389	0.34000970253121937	
12.73	0.441	0.364856111176825	
12.735	0.560	0.3960874860718747	
12.74	0.562	0.4334837413141	
12.745	0.568	0.4762397059630983	
12.75	0.567	0.5159828675000295	
12.755	0.473	0.5391296999190527	
12.76	0.359	0.53589274512301	
12.765	0.426	0.5125167104323742	
12.77	0.464	0.4827834543717343	
12.775	0.331	0.4560102297122396	
12.78	0.266	0.4238200457443257	
12.785	0.172	0.3780737571056192	
12.79	-0.032	0.3104876817980779	
12.795	-0.086	0.2222108522352243	
12.8	-0.101	0.12497719846054159	
12.805	-0.090	0.03520058099022459	
12.81	-0.121	-0.03506267173741948	
12.815	-0.092	-0.08051256478780294	
12.82	-0.104	-0.10720958131251344	
12.825	-0.177	-0.12495472386832253	
12.83	-0.119	-0.13519886764773895	
12.835	-0.046	-0.1359114421422063	
12.84	-0.081	-0.12644586355782078	
12.845	-0.078	-0.11180662522324018	
12.85	-0.034	-0.09406425256012757	
12.855	-0.017	-0.07776291802212215	
12.86	-0.077	-0.062079452766467556	
12.865	-0.084	-0.05359021514207079	
12.87	0.029	-0.049182950818448465	
12.875	0.032	-0.03989917871356795	
12.88	0.047	-0.020245964794522706	
12.885	0.094	0.005057006932764399	
12.89	0.001	0.024589445637339405	
12.895	-0.038	0.03317629814423997	
12.9	-0.080	0.025892517415905616	
12.905	-0.118	0.0012499821406090797	
12.91	-0.181	-0.03506772710461958	
12.915	-0.113	-0.07159558829397042	
12.92	-0.060	-0.09816020884113207	
12.925	-0.112	-0.11089840559040944	
12.93	-0.122	-0.11427562183865761	
12.935	-0.115	-0.11492695452881986	
12.94	-0.138	-0.11938826962832312	
12.945	-0.135	-0.12284077440079104	
12.95	-0.080	-0.12308523779605264	
12.955	-0.066	-0.11770824533123335	
12.96	-0.119	-0.11009555723564005	
12.965	-0.113	-0.10362185743238211	
12.97	-0.109	-0.10213819059192494	
12.975	-0.087	-0.10391775329788397	
12.98	0.013	-0.09629233328672776	
12.985	0.058	-0.07386602497978229	
12.99	-0.063	-0.048391211994580095	
12.995	-0.177	-0.03793261942006376	
13.0	-0.174	-0.05107466008498434	
13.005	-0.135	-0.08065040239436898	
13.01	-0.216	-0.11114894140897648	
13.015	-0.141	-0.13663682779432326	
13.02	0.059	-0.1440427887952746	
13.025	0.117	-0.11890486485793059	
13.03	0.186	-0.06134737707416167	
13.035	0.250	0.014152285020957006	
13.04	0.195	0.08662887306022408	
13.045	0.073	0.14004120148565433	
13.05	0.072	0.16091945363700724	
13.055	0.140	0.15734653312454844	
13.06	0.076	0.1448485793753113	
13.065	0.174	0.13538131135620557	
13.07	0.278	0.1379325673356802	
13.075	0.188	0.15405584996935398	
13.08	0.233	0.1756698838725219	
13.085	0.263	0.1981480540254356	
13.09	0.178	0.2126009225730814	
13.095	0.224	0.22008898033718222	
13.1	0.340	0.22996839322975823	
13.105	0.397	0.250326444559446	
13.11	0.389	0.2838510349891732	
13.115	0.525	0.32840388606328685	
13.12	0.577	0.3829102809533971	
13.125	0.463	0.4350347419287106	
13.13	0.426	0.47166442325624175	
13.135	0.466	0.48512911637896816	
13.14	0.400	0.48160867798880935	
13.145	0.342	0.46510498775905773	
13.15	0.371	0.4409283264680778	
13.155	0.331	0.4113056415964107	
13.16	0.270	0.3798884748475563	
13.165	0.194	0.3453814557586272	
13.17	0.128	0.3008522161926012	
13.175	0.010	0.243070331141492	
13.18	-0.032	0.1757136727184268	
13.185	-0.014	0.10910224196129037	
13.19	-0.092	0.04661258012014981	
13.195	-0.106	-0.006845239402248921	
13.2	-0.061	-0.046072559599495716	
13.205	-0.049	-0.07170595869936702	
13.21	-0.113	-0.08408639937561421	
13.215	-0.045	-0.0876103230875561	
13.22	-0.011	-0.08314632491903964	
13.225	-0.087	-0.07490632149926525	
13.23	-0.037	-0.06529171285253771	
13.235	0.001	-0.05591926821512071	
13.24	-0.031	-0.04537236879980025	
13.245	-0.046	-0.036847010666093895	
13.25	-0.009	-0.03011481654640344	
13.255	-0.016	-0.02570488681993949	
13.26	-0.046	-0.024063016986274097	
13.265	0.009	-0.021643117193242335	
13.27	0.036	-0.016157193430670257	
13.275	-0.071	-0.011867357656356712	
13.28	-0.115	-0.016321508151876083	
13.285	-0.087	-0.031964729639572566	
13.29	-0.115	-0.055322892481721994	
13.295	-0.138	-0.07682655579423836	
13.3	-0.121	-0.09516819178210867	
13.305	-0.130	-0.11168561816535937	
13.31	-0.162	-0.1250154904634404	
13.315	-0.144	-0.13468353311852846	
13.32	-0.132	-0.14117920229595152	
13.325	-0.133	-0.14481483450589278	
13.33	-0.126	-0.14330974620840542	
13.335	-0.101	-0.13698951903433776	
13.34	-0.174	-0.13431383648827672	
13.345	-0.205	-0.13782986450174894	
13.35	-0.130	-0.1451855816692612	
13.355	-0.028	-0.1466604163234135	
13.36	-0.017	-0.12999431977495346	
13.365	-0.008	-0.09970154365502068	
13.37	-0.119	-0.07319354928650905	
13.375	-0.220	-0.06983515833013228	
13.38	-0.202	-0.0893352570123323	
13.385	-0.141	-0.1169676098702716	
13.39	-0.138	-0.13928506103736826	
13.395	-0.064	-0.14684015853604548	
13.4	0.036	-0.13216698778519545	
13.405	0.079	-0.09763036342732052	
13.41	0.061	-0.052045449647256575	
13.415	0.133	-0.002732594199976447	
13.42	0.102	0.04188342189749717	
13.425	0.072	0.07317493425796176	
13.43	0.070	0.0905858081724367	
13.435	0.113	0.09806748958334591	
13.44	0.075	0.09976448258980251	
13.445	0.013	0.09405688156176725	
13.45	0.105	0.08579859730073097	
13.455	0.172	0.08247550449092986	
13.46	0.064	0.08892817205994705	
13.465	0.110	0.09617318039687993	
13.47	0.273	0.10796835528424105	
13.475	0.256	0.13326298723332983	
13.48	0.305	0.17350809714143364	
13.485	0.429	0.22204448261573753	
13.49	0.463	0.2778616198569984	
13.495	0.443	0.33705406643924585	
13.5	0.455	0.38870611687716466	
13.505	0.502	0.4274826613428102	
13.51	0.446	0.4539840677094144	
13.515	0.460	0.4701320162940992	
13.52	0.409	0.4739092250839721	
13.525	0.226	0.4552779867638771	
13.53	0.085	0.40749419492118655	
13.535	0.061	0.33098105321611493	
13.54	-0.003	0.23987544457184484	
13.545	-0.081	0.14910748298353044	
13.55	-0.101	0.06668755497525303	
13.555	-0.112	-0.00552410927469104	
13.56	-0.181	-0.06395618169740677	
13.565	-0.184	-0.1098593244121925	
13.57	-0.165	-0.14512321685214483	
13.575	-0.210	-0.17066984776006708	
13.58	-0.182	-0.18643883551800072	
13.585	-0.116	-0.19004553256262469	
13.59	-0.129	-0.18313923868654966	
13.595	-0.139	-0.1708510299112965	
13.6	-0.118	-0.15533315562113698	
13.605	-0.104	-0.14156953760127683	
13.61	-0.095	-0.12993168674552139	
13.615	-0.032	-0.11284750625242199	
13.62	0.012	-0.09115496210364052	
13.625	-0.043	-0.06767034219778564	
13.63	-0.081	-0.04943816527004794	
13.635	-0.002	-0.04007604866307636	
13.64	-0.003	-0.03313992487702944	
13.645	-0.034	-0.02683009032606242	
13.65	-0.051	-0.022349997084295543	
13.655	-0.075	-0.026590040291273605	
13.66	-0.174	-0.04191903279487496	
13.665	-0.156	-0.06685388260459105	
13.67	-0.188	-0.09818448889551695	
13.675	-0.176	-0.12965230190980476	
13.68	-0.142	-0.15139479116777416	
13.685	-0.122	-0.16008042562442307	
13.69	-0.139	-0.16116259464269767	
13.695	-0.138	-0.1568158509937344	
13.7	-0.139	-0.14932478514683056	
13.705	-0.112	-0.14360005053293365	
13.71	-0.181	-0.139934078412577	
13.715	-0.203	-0.14282913277977782	
13.72	-0.158	-0.15117621725944627	
13.725	-0.119	-0.15868703922617833	
13.73	0.024	-0.14937724085021942	
13.735	0.125	-0.11402655068229996	
13.74	0.029	-0.06319589330962627	
13.745	-0.110	-0.022877338442874172	
13.75	-0.170	-0.014311782650561322	
13.755	-0.167	-0.03659577330423308	
13.76	-0.174	-0.07296482353217491	
13.765	-0.127	-0.10579840852449439	
13.77	-0.042	-0.12413147930036131	
13.775	-0.046	-0.12371472299778022	
13.78	-0.008	-0.10640165494516553	
13.785	0.026	-0.0780133939627648	
13.79	0.020	-0.04920888418240685	
13.795	-0.029	-0.023872336022474953	
13.8	0.085	-0.003253133333542822	
13.805	0.113	0.01841457852480212	
13.81	-0.008	0.03799103934966162	
13.815	0.070	0.05019841710304162	
13.82	0.125	0.05887863468003425	
13.825	0.088	0.06926132711946319	
13.83	0.125	0.08258666105887688	
13.835	0.183	0.09899647944422729	
13.84	0.169	0.11779861959178596	
13.845	0.186	0.13713322511560694	
13.85	0.270	0.1607403305582008	
13.855	0.365	0.19241890631153397	
13.86	0.374	0.23402149773887118	
13.865	0.435	0.28520038193249164	
13.87	0.512	0.3388561087053039	
13.875	0.489	0.3902672106309881	
13.88	0.510	0.43659035981862854	
13.885	0.574	0.47597411193078515	
13.89	0.414	0.5017892169057915	
13.895	0.347	0.5021205506819919	
13.9	0.347	0.47870752214996737	
13.905	0.263	0.4374169788164086	
13.91	0.085	0.38002246770936043	
13.915	-0.002	0.3031512705631453	
13.92	-0.040	0.2108489165217461	
13.925	-0.118	0.11632977304359421	
13.93	-0.179	0.027582989594893713	
13.935	-0.165	-0.049067519289714104	
13.94	-0.179	-0.1111357801508972	
13.945	-0.205	-0.15480870671955993	
13.95	-0.187	-0.18234588671266264	
13.955	-0.185	-0.19758467869398827	
13.96	-0.242	-0.20688995650075373	
13.965	-0.188	-0.21186090963642606	
13.97	-0.127	-0.20819660815106306	
13.975	-0.141	-0.19761145777521755	
13.98	-0.136	-0.17941009703155789	
13.985	-0.100	-0.16014582932242283	
13.99	-0.077	-0.14211816426363083	
13.995	-0.081	-0.12176928124232944	
14.0	-0.072	-0.10241098349771469	
14.005	-0.075	-0.08860892584467595	
14.01	-0.081	-0.08083527017791144	
14.015	-0.029	-0.07287506840783924	
14.02	-0.016	-0.06224019321582295	
14.025	-0.061	-0.05259088512891052	
14.03	-0.116	-0.04940430134125769	
14.035	-0.142	-0.05818244734247666	
14.04	-0.184	-0.07911897457666461	
14.045	-0.210	-0.10875411571970528	
14.05	-0.179	-0.13741894876306765	
14.055	-0.133	-0.159592696412868	
14.06	-0.161	-0.16981079922203146	
14.065	-0.126	-0.16889105790974562	
14.07	-0.126	-0.1622484105844832	
14.075	-0.170	-0.15557127468715384	
14.08	-0.177	-0.1524057346671926	
14.085	-0.176	-0.15418747327899246	
14.09	-0.231	-0.16310363322304214	
14.095	-0.219	-0.17675818072485153	
14.1	-0.064	-0.18342409320322658	
14.105	0.107	-0.1645559861725273	
14.11	0.149	-0.11278999790478397	
14.115	0.140	-0.038922788342292444	
14.12	-0.034	0.022725648911997128	
14.125	-0.184	0.04140686811812743	
14.13	-0.199	0.016559312757166565	
14.135	-0.144	-0.031167633374589998	
14.14	-0.090	-0.07705802478431306	
14.145	-0.063	-0.10277213718239811	
14.15	0.017	-0.1044301229049493	
14.155	0.030	-0.08653909709736177	
14.16	0.021	-0.058842640734480714	
14.165	0.023	-0.027946728961707988	
14.17	0.097	-0.00018538160406783837	
14.175	0.072	0.02544170535199141	
14.18	0.105	0.04951764762632386	
14.185	0.154	0.07386095683176572	
14.19	0.139	0.09595699428407797	
14.195	0.082	0.11314788387211923	
14.2	0.178	0.12355525516788018	
14.205	0.267	0.13852183908557422	
14.21	0.243	0.16314049011197718	
14.215	0.267	0.19301395006683916	
14.22	0.333	0.2238506595584682	
14.225	0.301	0.25346175384124825	
14.23	0.304	0.27847532323499313	
14.235	0.460	0.3038552673772127	
14.24	0.579	0.34201604847966904	
14.245	0.594	0.3991740961711284	
14.25	0.620	0.46550936427988765	
14.255	0.602	0.5234912005773655	
14.26	0.527	0.5631588554647147	
14.265	0.562	0.5820009917245041	
14.27	0.522	0.5848107742931588	
14.275	0.362	0.5674718428503602	
14.28	0.204	0.5214775878704656	
14.285	0.117	0.44479381648390615	
14.29	0.020	0.3449934716351149	
14.295	-0.080	0.2352052859728031	
14.3	-0.106	0.12849955781322622	
14.305	-0.153	0.03049456477870422	
14.31	-0.196	-0.05177662749433339	
14.315	-0.208	-0.1169843227631529	
14.32	-0.217	-0.16421335239163054	
14.325	-0.211	-0.19847912641199456	
14.33	-0.219	-0.21846682331208836	
14.335	-0.194	-0.22521565915270095	
14.34	-0.177	-0.22400384327171496	
14.345	-0.193	-0.21677262723839402	
14.35	-0.158	-0.20551477255002182	
14.355	-0.130	-0.1915223936299213	
14.36	-0.141	-0.1767771646139782	
14.365	-0.152	-0.16099895284885066	
14.37	-0.113	-0.14922686864565007	
14.375	-0.127	-0.1404850007385359	
14.38	-0.126	-0.13247687495101118	
14.385	-0.074	-0.12421617746234791	
14.39	-0.055	-0.11300390624840594	
14.395	-0.087	-0.09977969319493571	
14.4	-0.058	-0.0865119926648146	
14.405	-0.095	-0.07852814717684642	
14.41	-0.141	-0.07879654283858331	
14.415	-0.159	-0.08799320937195837	
14.42	-0.152	-0.10421502862252716	
14.425	-0.226	-0.12650240904215815	
14.43	-0.243	-0.15248318081516554	
14.435	-0.228	-0.17919711276431327	
14.44	-0.217	-0.20300769097355403	
14.445	-0.232	-0.21879035102412797	
14.45	-0.177	-0.2244853081491889	
14.455	-0.158	-0.22050958075115454	
14.46	-0.194	-0.2108128368726883	
14.465	-0.193	-0.19998731751843835	
14.47	-0.181	-0.19219552641215487	
14.475	-0.135	-0.18651725572633937	
14.48	-0.034	-0.1704766418941671	
14.485	0.059	-0.13715036710863354	
14.49	-0.006	-0.09302492725518446	
14.495	-0.190	-0.06085997745474664	
14.5	-0.252	-0.06149655000399841	
14.505	-0.260	-0.09550224067935852	
14.51	-0.245	-0.1428380186980558	
14.515	-0.164	-0.17996131826378653	
14.52	-0.038	-0.19313974038196233	
14.525	-0.057	-0.1795335540799801	
14.53	-0.017	-0.1465036578519228	
14.535	0.084	-0.10213253850835176	
14.54	0.055	-0.054028024384519924	
14.545	0.035	-0.009860827872433666	
14.55	0.124	0.02655046163490948	
14.555	0.127	0.05751264353160252	
14.56	0.107	0.08412450357007285	
14.565	0.099	0.10201890962080819	
14.57	0.165	0.11485139075030597	
14.575	0.166	0.12545129787635448	
14.58	0.168	0.1384953770026986	
14.585	0.233	0.15486535923425127	
14.59	0.270	0.17497186787591587	
14.595	0.276	0.20016165284005724	
14.6	0.325	0.23055711600416076	
14.605	0.411	0.2634955092525488	
14.61	0.402	0.3021406717884352	
14.615	0.516	0.34605059888002354	
14.62	0.576	0.39683757479077936	
14.625	0.516	0.4474294451759014	
14.63	0.479	0.4875029728648521	
14.635	0.513	0.509849026699422	
14.64	0.499	0.5179426372353371	
14.645	0.388	0.513175104338599	
14.65	0.310	0.4915477052606075	
14.655	0.142	0.44243660313828836	
14.66	-0.049	0.3601289808350383	
14.665	-0.116	0.2520664103108593	
14.67	-0.159	0.13180957386651848	
14.675	-0.239	0.015435472740973597	
14.68	-0.284	-0.08643169859158888	
14.685	-0.303	-0.17013838059722552	
14.69	-0.275	-0.23507977763201213	
14.695	-0.297	-0.2777786334732316	
14.7	-0.315	-0.29939756459418265	
14.705	-0.262	-0.31057906890482545	
14.71	-0.257	-0.31086085893773663	
14.715	-0.220	-0.2978596251392338	
14.72	-0.148	-0.27519916987920456	
14.725	-0.188	-0.24764406800007366	
14.73	-0.170	-0.21940420840565453	
14.735	-0.142	-0.19509417276081176	
14.74	-0.147	-0.1761739807095557	
14.745	-0.150	-0.1618179355066548	
14.75	-0.064	-0.14630320954914894	
14.755	-0.043	-0.12760283381038495	
14.76	-0.089	-0.10695629224406303	
14.765	-0.080	-0.08980379947270925	
14.77	-0.069	-0.07916378768220272	
14.775	-0.113	-0.07573952291422949	
14.78	-0.113	-0.07839063826183068	
14.785	-0.078	-0.08300650887562912	
14.79	-0.097	-0.08923111696484529	
14.795	-0.145	-0.09486294003384022	
14.8	-0.116	-0.10122135451928344	
14.805	-0.100	-0.10861665353464188	
14.81	-0.187	-0.11703455545043473	
14.815	-0.124	-0.12473619261194882	
14.82	-0.055	-0.12810961628026146	
14.825	-0.101	-0.12381669270898715	
14.83	-0.066	-0.11237642836668013	
14.835	-0.087	-0.09993107529553946	
14.84	-0.122	-0.0933022204116789	
14.845	-0.119	-0.0939082350436036	
14.85	-0.023	-0.0931209751114728	
14.855	0.097	-0.07961033671173721	
14.86	0.023	-0.05010829629451161	
14.865	0.001	-0.018690490310439335	
14.87	-0.129	-0.004100367974273569	
14.875	-0.220	-0.019930371208805555	
14.88	-0.159	-0.05636422378712959	
14.885	-0.064	-0.09082398881161752	
14.89	0.042	-0.10433144765952468	
14.895	0.056	-0.08793808486485735	
14.9	0.146	-0.0480374027706625	
14.905	0.116	0.00036268789857278345	
14.91	0.110	0.04578686877565279	
14.915	0.230	0.08738258666204787	
14.92	0.244	0.12999633441505543	
14.925	0.191	0.1659856667336913	
14.93	0.236	0.1946014167704219	
14.935	0.295	0.21826866562292582	
14.94	0.177	0.23361342923198689	
14.945	0.215	0.23793070179125336	
14.95	0.377	0.2440447233746429	
14.955	0.437	0.2654726272638678	
14.96	0.299	0.2966772794431469	
14.965	0.342	0.32331706661670445	
14.97	0.405	0.34112175007969014	
14.975	0.345	0.352992724226986	
14.98	0.366	0.3624810963255483	
14.985	0.510	0.3753298232664254	
14.99	0.505	0.39772928697249893	
14.995	0.458	0.425843529375673	
15.0	0.589	0.45697315563134794	
15.005	0.620	0.49057062092948917	
15.01	0.426	0.5186792711775254	
15.015	0.406	0.5261981560376786	
15.02	0.435	0.5101531528725701	
15.025	0.327	0.4790827956619678	
15.03	0.259	0.43940129567831043	
15.035	0.211	0.38925907821300954	
15.04	0.029	0.32280508477205916	
15.045	-0.112	0.23783825661256172	
15.05	-0.087	0.14087815202163687	
15.055	-0.080	0.04962729360911124	
15.06	-0.139	-0.02421957608962057	
15.065	-0.136	-0.07684945597265129	
15.07	-0.101	-0.11185812394584535	
15.075	-0.150	-0.13282020939897965	
15.08	-0.197	-0.14561937216839466	
15.085	-0.118	-0.153808134039735	
15.09	-0.110	-0.15710394470268235	
15.095	-0.132	-0.1511013048058618	
15.1	-0.095	-0.14021695478133153	
15.105	-0.061	-0.12738726280844492	
15.11	-0.101	-0.1141482716767524	
15.115	-0.077	-0.09990304616595241	
15.12	-0.026	-0.08692398617892179	
15.125	-0.080	-0.07675864835672988	
15.13	-0.083	-0.06860565287151772	
15.135	-0.035	-0.06388141730002786	
15.14	-0.031	-0.06008795178651522	
15.145	-0.060	-0.054051444611976	
15.15	-0.029	-0.04826457148050879	
15.155	-0.052	-0.04441459335603673	
15.16	-0.119	-0.048099272982533255	
15.165	-0.127	-0.057916089294788704	
15.17	-0.095	-0.07397003285686049	
15.175	-0.139	-0.09071867431542698	
15.18	-0.132	-0.1045741374727944	
15.185	-0.086	-0.11392601300829354	
15.19	-0.092	-0.11708371147535562	
15.195	-0.147	-0.11700650269518205	
15.2	-0.148	-0.11729773660662662	
15.205	-0.109	-0.1224434312428826	
15.21	-0.116	-0.12604133101537096	
15.215	-0.081	-0.12289519113403602	
15.22	-0.057	-0.11301785863209314	
15.225	-0.092	-0.10271267886809254	
15.23	-0.051	-0.09153837645561068	
15.235	-0.046	-0.07895222200829191	
15.24	-0.069	-0.06911301808840287	
15.245	-0.100	-0.06498759922454464	
15.25	-0.130	-0.06728714761047466	
15.255	-0.142	-0.08046586427379487	
15.26	-0.138	-0.09905764047625717	
15.265	-0.060	-0.10987226797940595	
15.27	-0.016	-0.10698815764701394	
15.275	-0.060	-0.09473779043567919	
15.28	0.017	-0.07656057709754549	
15.285	0.124	-0.046895832569890945	
15.29	0.134	-0.007090875233315173	
15.295	0.146	0.03794948540725956	
15.3	0.220	0.08473279726974922	
15.305	0.240	0.12961139548670528	
15.31	0.174	0.16687860014618144	
15.315	0.136	0.18904269925866002	
15.32	0.156	0.19307457687922705	
15.325	0.171	0.18628335258940454	
15.33	0.214	0.18235838514614078	
15.335	0.290	0.18913470120027148	
15.34	0.244	0.20296792260227695	
15.345	0.238	0.21987409965991175	
15.35	0.318	0.23672012349194627	
15.355	0.371	0.25870467432589117	
15.36	0.272	0.2808476785089813	
15.365	0.324	0.29898304601250936	
15.37	0.484	0.31816787502925226	
15.375	0.513	0.35032741315547683	
15.38	0.457	0.3922591176676993	
15.385	0.481	0.4301193360876199	
15.39	0.418	0.4530315152440583	
15.395	0.311	0.454828792264849	
15.4	0.295	0.43565274808733967	
15.405	0.247	0.39774386396930705	
15.41	0.110	0.34587038040812745	
15.415	0.044	0.28193079412793665	
15.42	0.056	0.21015868384281006	
15.425	-0.043	0.13935862912059294	
15.43	-0.097	0.0742477985077023	
15.435	-0.101	0.014111600171572364	
15.44	-0.142	-0.03992673378074953	
15.445	-0.205	-0.08714351814196995	
15.45	-0.142	-0.12435348415784797	
15.455	-0.112	-0.14823781514436649	
15.46	-0.162	-0.1580918307325095	
15.465	-0.121	-0.15807091472125415	
15.47	-0.104	-0.15186079485448928	
15.475	-0.141	-0.14462883959488873	
15.48	-0.147	-0.13774899017400394	
15.485	-0.049	-0.1299122842781808	
15.49	-0.006	-0.11591471130014823	
15.495	-0.040	-0.09211889122529549	
15.5	-0.008	-0.06638828051704297	
15.505	0.024	-0.04327318897443559	
15.51	-0.072	-0.02706782546288018	
15.515	-0.025	-0.019072910009428595	
15.52	0.007	-0.015904269671769194	
15.525	-0.003	-0.014607124158342278	
15.53	-0.061	-0.013710457087934034	
15.535	-0.064	-0.016963902830004964	
15.54	-0.072	-0.02995189233398472	
15.545	-0.136	-0.04706952021066483	
15.55	-0.121	-0.06638275987632841	
15.555	-0.122	-0.08732097160571257	
15.56	-0.141	-0.10603886350773162	
15.565	-0.092	-0.11701632186847652	
15.57	-0.013	-0.11593245911653766	
15.575	0.017	-0.10063008680056956	
15.58	0.029	-0.0716514741679096	
15.585	0.027	-0.03795140063526005	
15.59	0.018	-0.011016910576014081	
15.595	-0.006	0.005939973191706377	
15.6	0.072	0.01867532071933891	
15.605	0.175	0.03564850164668661	
15.61	0.195	0.06393236461770146	
15.615	0.243	0.10503943626862335	
15.62	0.204	0.14705480870143434	
15.625	-0.023	0.1682673304697491	
15.63	-0.109	0.15033314548817556	
15.635	-0.046	0.10209842630181538	
15.64	0.047	0.0509801561029927	
15.645	0.093	0.021951256248890078	
15.65	0.175	0.024724903059879302	
15.655	0.224	0.05163661634115116	
15.66	0.168	0.0898928574329493	
15.665	0.256	0.13205492365485277	
15.67	0.263	0.1720742851399812	
15.675	0.128	0.20026111057857027	
15.68	0.116	0.20734733286458099	
15.685	0.191	0.19911544472187215	
15.69	0.223	0.1899628927726738	
15.695	0.217	0.18892561389844337	
15.7	0.293	0.19971710645512147	
15.705	0.263	0.2166406163847014	
15.71	0.175	0.22888432536331643	
15.715	0.276	0.2360328974084405	
15.72	0.324	0.24409409926194406	
15.725	0.337	0.2593115299367299	
15.73	0.377	0.28334364166788006	
15.735	0.466	0.316099031036541	
15.74	0.486	0.35499384192459194	
15.745	0.438	0.3949112826730598	
15.75	0.539	0.4306622466319607	
15.755	0.623	0.4676773152693508	
15.76	0.499	0.5029338753256472	
15.765	0.510	0.5269612810648072	
15.77	0.438	0.5330462407085397	
15.775	0.379	0.5173714694067293	
15.78	0.243	0.4803169653930353	
15.785	0.233	0.4260061476863678	
15.79	0.152	0.359046271909695	
15.795	-0.042	0.28196698175572626	
15.8	-0.055	0.19456335349296278	
15.805	-0.078	0.10466808056829437	
15.81	-0.165	0.022055000992269785	
15.815	-0.158	-0.047061334477363104	
15.82	-0.150	-0.10101355013736477	
15.825	-0.171	-0.13951467834993175	
15.83	-0.174	-0.1636329998774633	
15.835	-0.161	-0.1750934374748207	
15.84	-0.138	-0.1789163114965895	
15.845	-0.176	-0.1769324148204311	
15.85	-0.142	-0.17051099296618855	
15.855	-0.124	-0.16337827032484298	
15.86	-0.110	-0.1538563115231187	
15.865	-0.116	-0.1410858808368918	
15.87	-0.075	-0.1271016728597166	
15.875	-0.090	-0.11546581214968421	
15.88	-0.104	-0.10460574910817688	
15.885	-0.045	-0.09417048795310007	
15.89	-0.032	-0.08290579725959754	
15.895	-0.074	-0.07187676523918482	
15.9	-0.066	-0.06256156938663358	
15.905	-0.075	-0.05940916245590277	
15.91	-0.161	-0.06580840226411996	
15.915	-0.176	-0.08210801034423666	
15.92	-0.155	-0.10514529404742971	
15.925	-0.177	-0.1294150984307561	
15.93	-0.219	-0.15058690934619423	
15.935	-0.185	-0.1682258630563129	
15.94	-0.173	-0.18288752566217392	
15.945	-0.184	-0.18982543758906534	
15.95	-0.173	-0.18959231091489848	
15.955	-0.194	-0.18842821814403204	
15.96	-0.222	-0.18976358759301135	
15.965	-0.202	-0.19410359757960932	
15.97	-0.182	-0.19617371853960786	
15.975	-0.185	-0.19740016048087866	
15.98	-0.127	-0.19257201976926885	
15.985	-0.014	-0.17423138104822722	
15.99	-0.002	-0.141872675414087	
15.995	-0.046	-0.10283335856970588	
16.0	-0.126	-0.07363391839536637	
16.005	-0.165	-0.06742901848335767	
16.01	-0.213	-0.08375238904926322	
16.015	-0.185	-0.1111273203100085	
16.02	-0.119	-0.1361640810891537	
16.025	-0.075	-0.14736358787159437	
16.03	-0.035	-0.13958356029236985	
16.035	0.006	-0.11525105617376527	
16.04	-0.005	-0.08486480637248318	
16.045	-0.054	-0.056840186683650165	
16.05	-0.008	-0.03663208963554884	
16.055	0.097	-0.019390219637499987	
16.06	0.050	0.0022640333493623823	
16.065	0.049	0.024849358664432726	
16.07	0.096	0.043820237257414935	
16.075	0.078	0.05763356453760266	
16.08	0.078	0.0694055584475523	
16.085	0.169	0.082736793500825	
16.09	0.195	0.1001430028941467	
16.095	0.125	0.12218359311209312	
16.1	0.215	0.14236356191848737	
16.105	0.232	0.16158166328840765	
16.11	0.201	0.1802769101740178	
16.115	0.398	0.20588014533513452	
16.12	0.508	0.2498192237074317	
16.125	0.505	0.3126466925353383	
16.13	0.472	0.37841490906795267	
16.135	0.476	0.4306831472866965	
16.14	0.556	0.4671273494650419	
16.145	0.415	0.49123510113712837	
16.15	0.457	0.49832599813298234	
16.155	0.394	0.48951694876621415	
16.16	0.204	0.46033428412922106	
16.165	0.064	0.4018685931442731	
16.17	0.010	0.3156778152351898	
16.175	-0.115	0.21167983231104126	
16.18	-0.141	0.10554469444368202	
16.185	-0.129	0.010608250334852352	
16.19	-0.153	-0.06390920739731062	
16.195	-0.211	-0.11960812381984152	
16.2	-0.171	-0.15768637660565857	
16.205	-0.171	-0.1815922188342039	
16.21	-0.228	-0.19453397150102392	
16.215	-0.214	-0.20305080841611875	
16.22	-0.193	-0.20846032676264248	
16.225	-0.161	-0.20927876304882467	
16.23	-0.141	-0.20032234811225771	
16.235	-0.110	-0.1845232164824942	
16.24	-0.078	-0.16298778290378038	
16.245	-0.074	-0.13845252501237765	
16.25	-0.054	-0.1127239686989106	
16.255	-0.026	-0.08975258225688	
16.26	-0.081	-0.07042405297332335	
16.265	-0.116	-0.06197451344935037	
16.27	-0.097	-0.06463934257926109	
16.275	-0.092	-0.07326835244262293	
16.28	-0.087	-0.08115684788834043	
16.285	-0.066	-0.08463827773339612	
16.29	-0.113	-0.08709201130249519	
16.295	-0.174	-0.09328295934679519	
16.3	-0.161	-0.10773586709403779	
16.305	-0.153	-0.12492318735837198	
16.31	-0.196	-0.1412950883076296	
16.315	-0.194	-0.1568620376965203	
16.32	-0.184	-0.17082273739714676	
16.325	-0.202	-0.18225332714084308	
16.33	-0.184	-0.18897331028976933	
16.335	-0.109	-0.18876800185019924	
16.34	-0.093	-0.17718490446196816	
16.345	-0.173	-0.16006894293604834	
16.35	-0.200	-0.15177434751942592	
16.355	-0.152	-0.15313964577907013	
16.36	-0.066	-0.15212019953802697	
16.365	0.133	-0.12971247910583764	
16.37	0.218	-0.07604665238295526	
16.375	0.053	-0.007241161888765779	
16.38	-0.170	0.03620975560886526	
16.385	-0.243	0.024996195875001966	
16.39	-0.171	-0.02231885272653422	
16.395	-0.118	-0.07374428040573755	
16.4	-0.055	-0.10678726230849124	
16.405	0.120	-0.10941185441875859	
16.41	1.793	0.002196167041621182	
16.415	3.080	0.369728298947608	
16.42	3.066	0.9897965832298906	
16.425	3.058	1.6775044015501777	
16.43	3.058	2.2722919724397626	
16.435	3.057	2.7090699505282165	
16.44	3.063	2.987473793442859	
16.445	3.064	3.13902435065538	
16.45	3.066	3.200348787676605	
16.455	3.072	3.2047316146491216	
16.46	3.077	3.182769450591178	
16.465	3.080	3.15235215994424	
16.47	3.083	3.124056197812342	
16.475	2.867	3.09163683016318	
16.48	2.539	3.030075466584217	
16.485	2.349	2.9152358998402232	
16.49	2.191	2.7557432407411544	
16.495	1.961	2.5698584715925366	
16.5	1.799	2.3693087624096894	
16.505	1.665	2.166980148116005	
16.51	1.388	1.967705794148552	
16.515	1.179	1.7661728674078516	
16.52	0.988	1.5601970557408513	
16.525	0.776	1.3517146899699446	
16.53	0.475	1.1389502446383446	
16.535	0.324	0.9193069309147672	
16.54	0.122	0.6978751523435488	
16.545	-0.075	0.4837669387974214	
16.55	-0.194	0.2792780297222297	
16.555	-0.320	0.09010022397773881	
16.56	-0.431	-0.07731197499021286	
16.565	-0.475	-0.22188303883700472	
16.57	-0.512	-0.33971034687974455	
16.575	-0.570	-0.4302488965380565	
16.58	-0.630	-0.5011151455222624	
16.585	-0.621	-0.5556578722601475	
16.59	-0.631	-0.5960649889114449	
16.595	-0.660	-0.6232863170630787	
16.6	-0.639	-0.6407493962326913	
16.605	-0.659	-0.6508499944337657	
16.61	-0.688	-0.6583366890817877	
16.615	-0.660	-0.6639502996227735	
16.62	-0.647	-0.6666863487590395	
16.625	-0.660	-0.6662292265346803	
16.63	-0.665	-0.6641777872892839	
16.635	-0.642	-0.6616648691453457	
16.64	-0.636	-0.6580174663843964	
16.645	-0.631	-0.6523229786164553	
16.65	-0.604	-0.6437876598629548	
16.655	-0.604	-0.6337976142808224	
16.66	-0.657	-0.6263360777277809	
16.665	-0.657	-0.6250157720160228	
16.67	-0.677	-0.6316649798735436	
16.675	-0.705	-0.6441911208529758	
16.68	-0.741	-0.661230131143163	
16.685	-0.755	-0.6836786950825195	
16.69	-0.769	-0.7079647286388042	
16.695	-0.775	-0.7303404418891133	
16.7	-0.737	-0.7478234387460534	
16.705	-0.720	-0.7547502471766175	
16.71	-0.743	-0.7543107785112892	
16.715	-0.729	-0.7500598195067519	
16.72	-0.685	-0.7426531477356378	
16.725	-0.705	-0.7311377991364145	
16.73	-0.743	-0.7222625169168748	
16.735	-0.718	-0.7177216294906505	
16.74	-0.654	-0.7139071878503658	
16.745	-0.553	-0.7003115589096838	
16.75	-0.459	-0.6658783533916142	
16.755	-0.511	-0.6177369762426168	
16.76	-0.645	-0.5782835016865475	
16.765	-0.740	-0.5691484558431086	
16.77	-0.769	-0.5926887052517043	
16.775	-0.760	-0.6360578279950155	
16.78	-0.749	-0.67927429706428	
16.785	-0.992	-0.7247810750960644	
16.79	-0.995	-0.7858768241239569	
16.795	-0.995	-0.854317154793332	
16.8	-0.996	-0.9139188587414366	
16.805	-0.996	-0.9576901839377336	
16.81	-0.996	-0.9872533506985781	
16.815	-0.996	-1.0031507590323225	
16.82	-0.998	-1.0096239413382917	
16.825	-0.996	-1.0110653077166383	
16.83	-0.996	-1.0093529740289375	
16.835	-0.996	-1.0047081194687832	
16.84	-0.995	-1.0018081621995747	
16.845	-0.995	-0.9994318339665603	
16.85	-0.995	-0.9969336223193859	
16.855	-0.995	-0.9945828606056021	
16.86	-0.993	-0.9943340304513159	
16.865	-0.995	-0.9942353866005629	
16.87	-0.896	-0.9884921852246582	
16.875	-0.750	-0.9670447551742728	
16.88	-0.627	-0.9184659036026244	
16.885	-0.494	-0.8386098232503841	
16.89	-0.359	-0.7367146720775593	
16.895	-0.280	-0.6195719483755265	
16.9	-0.188	-0.4979327316149705	
16.905	-0.043	-0.3784418296382479	
16.91	-0.016	-0.2644337458675418	
16.915	0.007	-0.16232931101102976	
16.92	0.009	-0.08036580478958918	
16.925	-0.078	-0.029103391390589296	
16.93	-0.098	-0.00965398764966793	
16.935	-0.029	-0.011514153376319277	
16.94	0.029	-0.01662588074798129	
16.945	-0.029	-0.01673046538320927	
16.95	-0.011	-0.014926222164577611	
16.955	0.001	-0.013290985607251275	
16.96	0.038	-0.009519679709672334	
16.965	0.119	0.0036060730682160136	
16.97	0.212	0.03281107878143258	
16.975	0.221	0.07492286258952538	
16.98	0.211	0.12121548797592903	
16.985	0.351	0.16956786648609448	
16.99	0.440	0.2234647009687323	
16.995	0.434	0.28413948667547506	
17.0	0.547	0.3490624007004538	
17.005	0.684	0.41885020308778065	
17.01	0.669	0.4934179322631862	
17.015	0.605	0.5604845400876735	
17.02	0.725	0.611884731569041	
17.025	0.790	0.6539559256105627	
17.03	0.779	0.6961324945738042	
17.035	0.820	0.7355874577664647	
17.04	0.822	0.7684982432803966	
17.045	0.725	0.7890734062049067	
17.05	0.742	0.7940536717023037	
17.055	0.736	0.7858814770734076	
17.06	0.647	0.767378096011592	
17.065	0.496	0.7334807199588556	
17.07	0.388	0.6769169870641264	
17.075	0.316	0.5959065694824877	
17.08	0.342	0.508117656243164	
17.085	0.362	0.4356766317890095	
17.09	0.379	0.3855094682024015	
17.095	0.276	0.3530192275514705	
17.1	0.295	0.3301111234714116	
17.105	0.453	0.3189404180686114	
17.11	0.391	0.32632669465209635	
17.115	0.374	0.3444945176568952	
17.12	0.444	0.364996985574064	
17.125	0.553	0.38888213310175784	
17.13	0.640	0.43009512204256195	
17.135	0.675	0.4887271563146084	
17.14	0.592	0.545454918756481	
17.145	0.334	0.5719255450454963	
17.15	0.301	0.5541452137814016	
17.155	0.342	0.5019390673191018	
17.16	0.443	0.4472523842000136	
17.165	0.583	0.4225729749598222	
17.17	0.698	0.4401011684144282	
17.175	0.721	0.49078682820669794	
17.18	0.731	0.5570385480315214	
17.185	0.817	0.6268290820016685	
17.19	0.877	0.6944478889280812	
17.195	0.869	0.756867195723488	
17.2	0.933	0.8132516420747703	
17.205	0.955	0.8619799348563698	
17.21	0.837	0.8941041841947772	
17.215	0.793	0.9035321022067118	
17.22	0.838	0.8941694617823682	
17.225	0.785	0.871723885290872	
17.23	0.794	0.8479841700833978	
17.235	0.878	0.8319278053210326	
17.24	0.958	0.8314739840925837	
17.245	0.887	0.8457888645790483	
17.25	0.945	0.8682896963826953	
17.255	1.054	0.8960490652694171	
17.26	0.988	0.9290599564503345	
17.265	1.071	0.9635331814275224	
17.27	1.161	1.0022420169252615	
17.275	1.107	1.0417001715993268	
17.28	1.026	1.0719257742620012	
17.285	1.036	1.0849391030115996	
17.29	1.013	1.0794651910111908	
17.295	0.860	1.056745177450996	
17.3	0.852	1.0182885426840642	
17.305	0.845	0.9690594208269899	
17.31	0.683	0.9120445309462282	
17.315	0.505	0.8425173095443539	
17.32	0.403	0.7512205704692021	
17.325	0.318	0.6406882939474773	
17.33	0.201	0.524965419255781	
17.335	0.244	0.4179746418550881	
17.34	0.195	0.32745271831972533	
17.345	0.131	0.2567701108259851	
17.35	0.178	0.20634718462875898	
17.355	0.124	0.17104071795138445	
