Vernier Format 2
ecg6.txt 10/20/2025 9:57:33
Run 1
Time	Potential	EKG	
T	P	E	
s	mV	mV	

0.000	-0.064	-0.003	
0.005	0.041	-0.008	
0.010	-0.037	-0.010	
0.015	-0.142	-0.017	
0.020	-0.196	-0.041	
0.025	-0.217	-0.080	
0.030	-0.219	-0.124	
0.035	-0.118	-0.158	
0.040	-0.037	-0.168	
0.045	-0.020	-0.152	
0.050	0.021	-0.119	
0.055	0.070	-0.076	
0.060	0.017	-0.033	
0.065	0.090	0.003	
0.070	0.229	0.040	
0.075	0.215	0.086	
0.080	0.125	0.129	
0.085	0.171	0.156	
0.090	0.131	0.168	
0.095	0.065	0.165	
0.100	0.211	0.156	
0.105	0.281	0.158	
0.110	0.221	0.175	
0.115	0.233	0.196	
0.120	0.369	0.219	
0.125	0.385	0.252	
0.130	0.435	0.295	
0.135	0.570	0.345	
0.140	0.638	0.409	
0.145	0.522	0.474	
0.150	0.562	0.522	
0.155	0.576	0.552	
0.160	0.420	0.563	
0.165	0.310	0.544	
0.170	0.272	0.495	
0.175	0.099	0.423	
0.180	-0.020	0.331	
0.185	-0.002	0.227	
0.190	-0.048	0.131	
0.195	-0.133	0.049	
0.200	-0.110	-0.020	
0.205	-0.084	-0.071	
0.210	-0.110	-0.100	
0.215	-0.092	-0.115	
0.220	-0.051	-0.117	
0.225	-0.098	-0.109	
0.230	-0.152	-0.104	
0.235	-0.080	-0.104	
0.240	-0.080	-0.103	
0.245	-0.135	-0.101	
0.250	-0.110	-0.102	
0.255	-0.083	-0.104	
0.260	-0.133	-0.105	
0.265	-0.148	-0.109	
0.270	-0.159	-0.118	
0.275	-0.210	-0.132	
0.280	-0.225	-0.151	
0.285	-0.182	-0.172	
0.290	-0.216	-0.187	
0.295	-0.239	-0.200	
0.300	-0.184	-0.209	
0.305	-0.167	-0.211	
0.310	-0.236	-0.208	
0.315	-0.236	-0.208	
0.320	-0.188	-0.211	
0.325	-0.152	-0.209	
0.330	-0.037	-0.194	
0.335	0.125	-0.155	
0.340	0.055	-0.095	
0.345	-0.162	-0.045	
0.350	-0.200	-0.033	
0.355	-0.185	-0.056	
0.360	-0.171	-0.091	
0.365	-0.097	-0.120	
0.370	-0.020	-0.130	
0.375	-0.069	-0.121	
0.380	-0.019	-0.102	
0.385	0.096	-0.074	
0.390	0.113	-0.034	
0.395	0.024	0.008	
0.400	0.148	0.042	
0.405	0.171	0.073	
0.410	0.058	0.100	
0.415	0.140	0.115	
0.420	0.229	0.127	
0.425	0.194	0.146	
0.430	0.175	0.165	
0.435	0.253	0.181	
0.440	0.244	0.198	
0.445	0.220	0.214	
0.450	0.437	0.234	
0.455	0.562	0.277	
0.460	0.542	0.344	
0.465	0.628	0.419	
0.470	0.701	0.493	
0.475	0.637	0.562	
0.480	0.565	0.609	
0.485	0.596	0.629	
0.490	0.469	0.625	
0.495	0.285	0.592	
0.500	0.244	0.526	
0.505	0.124	0.437	
0.510	-0.060	0.333	
0.515	-0.090	0.216	
0.520	-0.092	0.104	
0.525	-0.179	0.008	
0.530	-0.205	-0.070	
0.535	-0.164	-0.131	
0.540	-0.177	-0.169	
0.545	-0.208	-0.190	
0.550	-0.152	-0.200	
0.555	-0.119	-0.197	
0.560	-0.153	-0.184	
0.565	-0.129	-0.169	
0.570	-0.110	-0.155	
0.575	-0.148	-0.142	
0.580	-0.179	-0.137	
0.585	-0.127	-0.138	
0.590	-0.165	-0.141	
0.595	-0.217	-0.147	
0.600	-0.168	-0.159	
0.605	-0.197	-0.170	
0.610	-0.265	-0.182	
0.615	-0.217	-0.198	
0.620	-0.179	-0.210	
0.625	-0.205	-0.213	
0.630	-0.243	-0.214	
0.635	-0.231	-0.217	
0.640	-0.304	-0.225	
0.645	-0.346	-0.242	
0.650	-0.202	-0.261	
0.655	0.023	-0.256	
0.660	0.203	-0.204	
0.665	0.229	-0.110	
0.670	-0.058	-0.016	
0.675	-0.266	0.026	
0.680	-0.332	-0.001	
0.685	-0.225	-0.067	
0.690	-0.148	-0.130	
0.695	-0.139	-0.168	
0.700	-0.040	-0.177	
0.705	-0.006	-0.159	
0.710	-0.052	-0.126	
0.715	-0.051	-0.094	
0.720	0.000	-0.068	
0.725	0.004	-0.045	
0.730	0.013	-0.024	
0.735	0.154	-0.001	
0.740	0.137	0.032	
0.745	0.065	0.065	
0.750	0.145	0.088	
0.755	0.235	0.111	
0.760	0.185	0.138	
0.765	0.233	0.165	
0.770	0.340	0.193	
0.775	0.319	0.228	
0.780	0.365	0.266	
0.785	0.508	0.307	
0.790	0.586	0.361	
0.795	0.530	0.423	
0.800	0.606	0.480	
0.805	0.597	0.527	
0.810	0.473	0.558	
0.815	0.420	0.560	
0.820	0.362	0.536	
0.825	0.166	0.485	
0.830	0.009	0.403	
0.835	0.038	0.299	
0.840	-0.055	0.194	
0.845	-0.155	0.096	
0.850	-0.126	0.007	
0.855	-0.142	-0.063	
0.860	-0.200	-0.114	
0.865	-0.164	-0.151	
0.870	-0.115	-0.171	
0.875	-0.159	-0.174	
0.880	-0.174	-0.172	
0.885	-0.101	-0.167	
0.890	-0.112	-0.157	
0.895	-0.170	-0.145	
0.900	-0.106	-0.139	
0.905	-0.110	-0.132	
0.910	-0.130	-0.126	
0.915	-0.136	-0.123	
0.920	-0.142	-0.124	
0.925	-0.203	-0.130	
0.930	-0.257	-0.147	
0.935	-0.243	-0.172	
0.940	-0.232	-0.198	
0.945	-0.252	-0.218	
0.950	-0.202	-0.231	
0.955	-0.200	-0.235	
0.960	-0.208	-0.230	
0.965	-0.185	-0.223	
0.970	-0.153	-0.212	
0.975	-0.127	-0.196	
0.980	-0.074	-0.174	
0.985	0.072	-0.140	
0.990	-0.011	-0.095	
0.995	-0.237	-0.064	
1.000	-0.298	-0.073	
1.005	-0.255	-0.114	
1.010	-0.211	-0.161	
1.015	-0.097	-0.189	
1.020	0.010	-0.187	
1.025	-0.014	-0.155	
1.030	-0.040	-0.114	
1.035	0.055	-0.074	
1.040	0.079	-0.034	
1.045	0.065	0.005	
1.050	0.145	0.039	
1.055	0.211	0.075	
1.060	0.181	0.113	
1.065	0.259	0.150	
1.070	0.316	0.187	
1.075	0.264	0.224	
1.080	0.244	0.251	
1.085	0.343	0.269	
1.090	0.347	0.287	
1.095	0.284	0.303	
1.100	0.389	0.316	
1.105	0.461	0.334	
1.110	0.374	0.359	
1.115	0.490	0.384	
1.120	0.658	0.418	
1.125	0.600	0.468	
1.130	0.498	0.516	
1.135	0.492	0.540	
1.140	0.397	0.539	
1.145	0.194	0.507	
1.150	0.133	0.440	
1.155	0.094	0.352	
1.160	-0.093	0.254	
1.165	-0.104	0.150	
1.170	-0.089	0.053	
1.175	-0.142	-0.024	
1.180	-0.179	-0.083	
1.185	-0.110	-0.125	
1.190	-0.101	-0.145	
1.195	-0.165	-0.151	
1.200	-0.097	-0.150	
1.205	-0.061	-0.141	
1.210	-0.103	-0.126	
1.215	-0.089	-0.111	
1.220	-0.060	-0.099	
1.225	-0.061	-0.088	
1.230	-0.097	-0.079	
1.235	-0.043	-0.073	
1.240	-0.061	-0.068	
1.245	-0.135	-0.067	
1.250	-0.115	-0.075	
1.255	-0.129	-0.088	
1.260	-0.205	-0.104	
1.265	-0.181	-0.126	
1.270	-0.153	-0.147	
1.275	-0.168	-0.160	
1.280	-0.177	-0.168	
1.285	-0.124	-0.171	
1.290	-0.158	-0.167	
1.295	-0.199	-0.164	
1.300	-0.132	-0.164	
1.305	-0.086	-0.159	
1.310	-0.119	-0.147	
1.315	-0.156	-0.136	
1.320	-0.203	-0.135	
1.325	-0.245	-0.146	
1.330	-0.231	-0.168	
1.335	-0.152	-0.187	
1.340	-0.084	-0.190	
1.345	-0.057	-0.174	
1.350	0.035	-0.142	
1.355	0.116	-0.094	
1.360	0.044	-0.038	
1.365	0.082	0.009	
1.370	0.113	0.046	
1.375	0.169	0.077	
1.380	0.214	0.109	
1.385	0.259	0.144	
1.390	0.243	0.180	
1.395	0.125	0.204	
1.400	0.223	0.212	
1.405	0.313	0.217	
1.410	0.269	0.231	
1.415	0.285	0.248	
1.420	0.293	0.262	
1.425	0.240	0.273	
1.430	0.313	0.277	
1.435	0.473	0.290	
1.440	0.527	0.325	
1.445	0.476	0.375	
1.450	0.481	0.421	
1.455	0.487	0.454	
1.460	0.357	0.471	
1.465	0.279	0.460	
1.470	0.256	0.424	
1.475	0.131	0.371	
1.480	0.010	0.300	
1.485	0.006	0.218	
1.490	-0.057	0.135	
1.495	-0.107	0.060	
1.500	-0.057	-0.003	
1.505	-0.034	-0.046	
1.510	-0.087	-0.068	
1.515	-0.057	-0.078	
1.520	-0.023	-0.079	
1.525	-0.032	-0.072	
1.530	-0.086	-0.063	
1.535	-0.051	-0.058	
1.540	-0.032	-0.056	
1.545	-0.083	-0.053	
1.550	-0.048	-0.053	
1.555	-0.016	-0.053	
1.560	-0.081	-0.050	
1.565	-0.075	-0.051	
1.570	-0.054	-0.055	
1.575	-0.100	-0.060	
1.580	-0.129	-0.069	
1.585	-0.110	-0.082	
1.590	-0.141	-0.096	
1.595	-0.167	-0.111	
1.600	-0.081	-0.124	
1.605	-0.055	-0.125	
1.610	-0.115	-0.116	
1.615	-0.110	-0.109	
1.620	-0.098	-0.105	
1.625	-0.112	-0.103	
1.630	-0.057	-0.101	
1.635	0.010	-0.091	
1.640	-0.025	-0.072	
1.645	-0.156	-0.058	
1.650	-0.197	-0.066	
1.655	-0.205	-0.092	
1.660	-0.210	-0.126	
1.665	-0.122	-0.153	
1.670	-0.009	-0.160	
1.675	0.001	-0.140	
1.680	0.052	-0.103	
1.685	0.146	-0.054	
1.690	0.137	0.003	
1.695	0.036	0.051	
1.700	0.124	0.081	
1.705	0.127	0.099	
1.710	0.046	0.110	
1.715	0.105	0.109	
1.720	0.258	0.113	
1.725	0.212	0.132	
1.730	0.192	0.158	
1.735	0.276	0.181	
1.740	0.261	0.206	
1.745	0.269	0.229	
1.750	0.386	0.253	
1.755	0.394	0.284	
1.760	0.440	0.322	
1.765	0.544	0.364	
1.770	0.563	0.415	
1.775	0.545	0.465	
1.780	0.551	0.506	
1.785	0.602	0.536	
1.790	0.501	0.556	
1.795	0.282	0.550	
1.800	0.259	0.507	
1.805	0.165	0.437	
1.810	-0.013	0.348	
1.815	-0.068	0.244	
1.820	-0.060	0.138	
1.825	-0.113	0.046	
1.830	-0.162	-0.028	
1.835	-0.081	-0.083	
1.840	-0.087	-0.114	
1.845	-0.152	-0.127	
1.850	-0.097	-0.132	
1.855	-0.052	-0.129	
1.860	-0.089	-0.117	
1.865	-0.061	-0.103	
1.870	-0.048	-0.089	
1.875	-0.064	-0.076	
1.880	-0.109	-0.069	
1.885	-0.095	-0.070	
1.890	-0.068	-0.074	
1.895	-0.129	-0.079	
1.900	-0.090	-0.086	
1.905	-0.086	-0.092	
1.910	-0.164	-0.098	
1.915	-0.177	-0.110	
1.920	-0.176	-0.127	
1.925	-0.182	-0.145	
1.930	-0.177	-0.160	
1.935	-0.110	-0.168	
1.940	-0.145	-0.166	
1.945	-0.196	-0.162	
1.950	-0.147	-0.161	
1.955	-0.118	-0.160	
1.960	-0.066	-0.150	
1.965	0.026	-0.128	
1.970	0.006	-0.094	
1.975	-0.147	-0.065	
1.980	-0.243	-0.063	
1.985	-0.219	-0.090	
1.990	-0.188	-0.127	
1.995	-0.145	-0.155	
2.000	-0.003	-0.163	
2.005	0.094	-0.140	
2.010	0.068	-0.090	
2.015	0.128	-0.033	
2.020	0.131	0.022	
2.025	0.050	0.066	
2.030	0.087	0.090	
2.035	0.206	0.105	
2.040	0.236	0.127	
2.045	0.175	0.154	
2.050	0.266	0.178	
2.055	0.272	0.202	
2.060	0.146	0.221	
2.065	0.235	0.226	
2.070	0.348	0.231	
2.075	0.380	0.252	
2.080	0.432	0.287	
2.085	0.508	0.332	
2.090	0.560	0.385	
2.095	0.577	0.442	
2.100	0.687	0.500	
2.105	0.710	0.558	
2.110	0.612	0.610	
2.115	0.507	0.635	
2.120	0.458	0.627	
2.125	0.273	0.585	
2.130	0.148	0.510	
2.135	0.108	0.410	
2.140	-0.003	0.302	
2.145	-0.092	0.193	
2.150	-0.078	0.092	
2.155	-0.113	0.009	
2.160	-0.171	-0.056	
2.165	-0.147	-0.105	
2.170	-0.138	-0.138	
2.175	-0.176	-0.156	
2.180	-0.152	-0.166	
2.185	-0.101	-0.167	
2.190	-0.113	-0.158	
2.195	-0.171	-0.148	
2.200	-0.136	-0.143	
2.205	-0.118	-0.140	
2.210	-0.142	-0.136	
2.215	-0.107	-0.133	
2.220	-0.107	-0.128	
2.225	-0.168	-0.125	
2.230	-0.194	-0.130	
2.235	-0.194	-0.143	
2.240	-0.234	-0.160	
2.245	-0.251	-0.182	
2.250	-0.171	-0.200	
2.255	-0.174	-0.208	
2.260	-0.225	-0.208	
2.265	-0.211	-0.208	
2.270	-0.225	-0.210	
2.275	-0.287	-0.216	
2.280	-0.240	-0.227	
2.285	-0.078	-0.229	
2.290	0.116	-0.201	
2.295	0.076	-0.140	
2.300	0.006	-0.071	
2.305	-0.155	-0.027	
2.310	-0.245	-0.026	
2.315	-0.211	-0.060	
2.320	-0.122	-0.102	
2.325	-0.098	-0.129	
2.330	-0.052	-0.136	
2.335	0.030	-0.122	
2.340	-0.034	-0.094	
2.345	-0.089	-0.069	
2.350	0.072	-0.050	
2.355	0.137	-0.023	
2.360	0.105	0.016	
2.365	0.209	0.057	
2.370	0.217	0.101	
2.375	0.134	0.140	
2.380	0.171	0.164	
2.385	0.269	0.179	
2.390	0.287	0.200	
2.395	0.253	0.224	
2.400	0.356	0.247	
2.405	0.405	0.276	
2.410	0.345	0.309	
2.415	0.495	0.342	
2.420	0.600	0.384	
2.425	0.594	0.439	
2.430	0.620	0.497	
2.435	0.681	0.549	
2.440	0.644	0.595	
2.445	0.498	0.621	
2.450	0.475	0.617	
2.455	0.314	0.583	
2.460	0.056	0.512	
2.465	0.021	0.403	
2.470	-0.057	0.277	
2.475	-0.148	0.153	
2.480	-0.177	0.039	
2.485	-0.139	-0.054	
2.490	-0.185	-0.119	
2.495	-0.231	-0.163	
2.500	-0.188	-0.194	
2.505	-0.211	-0.210	
2.510	-0.237	-0.219	
2.515	-0.177	-0.223	
2.520	-0.127	-0.216	
2.525	-0.155	-0.201	
2.530	-0.152	-0.183	
2.535	-0.124	-0.167	
2.540	-0.156	-0.154	
2.545	-0.216	-0.150	
2.550	-0.177	-0.155	
2.555	-0.185	-0.164	
2.560	-0.251	-0.175	
2.565	-0.251	-0.191	
2.570	-0.269	-0.211	
2.575	-0.301	-0.232	
2.580	-0.262	-0.252	
2.585	-0.210	-0.263	
2.590	-0.214	-0.261	
2.595	-0.274	-0.254	
2.600	-0.251	-0.250	
2.605	-0.243	-0.249	
2.610	-0.213	-0.247	
2.615	-0.014	-0.231	
2.620	0.136	-0.186	
2.625	-0.008	-0.118	
2.630	-0.214	-0.067	
2.635	-0.291	-0.063	
2.640	-0.309	-0.100	
2.645	-0.260	-0.154	
2.650	-0.133	-0.197	
2.655	-0.071	-0.209	
2.660	-0.084	-0.193	
2.665	-0.031	-0.162	
2.670	0.013	-0.123	
2.675	0.035	-0.080	
2.680	0.078	-0.036	
2.685	0.099	0.005	
2.690	0.119	0.043	
2.695	0.070	0.072	
2.700	0.201	0.094	
2.705	0.212	0.120	
2.710	0.136	0.145	
2.715	0.224	0.163	
2.720	0.279	0.182	
2.725	0.284	0.207	
2.730	0.340	0.236	
2.735	0.469	0.273	
2.740	0.466	0.321	
2.745	0.481	0.372	
2.750	0.583	0.421	
2.755	0.611	0.472	
2.760	0.537	0.518	
2.765	0.588	0.550	
2.770	0.573	0.570	
2.775	0.376	0.571	
2.780	0.252	0.540	
2.785	0.209	0.475	
2.790	0.067	0.389	
2.795	-0.072	0.288	
2.800	-0.098	0.177	
2.805	-0.130	0.071	
2.810	-0.184	-0.019	
2.815	-0.165	-0.090	
2.820	-0.155	-0.140	
2.825	-0.170	-0.168	
2.830	-0.155	-0.181	
2.835	-0.104	-0.181	
2.840	-0.112	-0.169	
2.845	-0.138	-0.154	
2.850	-0.164	-0.143	
2.855	-0.161	-0.140	
2.860	-0.161	-0.143	
2.865	-0.104	-0.145	
2.870	-0.092	-0.140	
2.875	-0.179	-0.134	
2.880	-0.181	-0.135	
2.885	-0.148	-0.142	
2.890	-0.187	-0.150	
2.895	-0.228	-0.161	
2.900	-0.182	-0.175	
2.905	-0.197	-0.186	
2.910	-0.222	-0.194	
2.915	-0.202	-0.201	
2.920	-0.208	-0.206	
2.925	-0.257	-0.210	
2.930	-0.239	-0.218	
2.935	-0.202	-0.225	
2.940	-0.127	-0.222	
2.945	-0.089	-0.205	
2.950	-0.087	-0.177	
2.955	-0.185	-0.151	
2.960	-0.312	-0.146	
2.965	-0.300	-0.168	
2.970	-0.246	-0.201	
2.975	-0.181	-0.225	
2.980	-0.106	-0.228	
2.985	0.012	-0.205	
2.990	0.010	-0.159	
2.995	-0.038	-0.108	
3.000	-0.014	-0.066	
3.005	0.088	-0.032	
3.010	0.108	0.003	
3.015	0.171	0.041	
3.020	0.156	0.081	
3.025	0.094	0.112	
3.030	0.125	0.128	
3.035	0.261	0.140	
3.040	0.194	0.159	
3.045	0.099	0.174	
3.050	0.227	0.177	
3.055	0.278	0.185	
3.060	0.160	0.198	
3.065	0.322	0.210	
3.070	0.470	0.236	
3.075	0.427	0.283	
3.080	0.400	0.334	
3.085	0.530	0.378	
3.090	0.531	0.422	
3.095	0.455	0.460	
3.100	0.461	0.482	
3.105	0.333	0.482	
3.110	0.070	0.449	
3.115	0.044	0.373	
3.120	0.009	0.275	
3.125	-0.098	0.174	
3.130	-0.103	0.079	
3.135	-0.092	-0.000	
3.140	-0.144	-0.059	
3.145	-0.165	-0.103	
3.150	-0.119	-0.132	
3.155	-0.113	-0.146	
3.160	-0.148	-0.149	
3.165	-0.130	-0.148	
3.170	-0.110	-0.144	
3.175	-0.101	-0.136	
3.180	-0.100	-0.126	
3.185	-0.035	-0.114	
3.190	-0.043	-0.096	
3.195	-0.109	-0.081	
3.200	-0.057	-0.073	
3.205	-0.083	-0.069	
3.210	-0.168	-0.073	
3.215	-0.153	-0.088	
3.220	-0.173	-0.109	
3.225	-0.242	-0.133	
3.230	-0.223	-0.161	
3.235	-0.153	-0.184	
3.240	-0.159	-0.193	
3.245	-0.196	-0.193	
3.250	-0.194	-0.191	
3.255	-0.194	-0.191	
3.260	-0.234	-0.194	
3.265	-0.179	-0.198	
3.270	-0.093	-0.195	
3.275	-0.116	-0.180	
3.280	-0.145	-0.161	
3.285	-0.208	-0.150	
3.290	-0.222	-0.154	
3.295	-0.214	-0.167	
3.300	-0.145	-0.179	
3.305	-0.060	-0.178	
3.310	-0.058	-0.160	
3.315	0.052	-0.127	
3.320	0.094	-0.081	
3.325	0.088	-0.028	
3.330	0.151	0.022	
3.335	0.229	0.072	
3.340	0.162	0.118	
3.345	0.146	0.152	
3.350	0.212	0.171	
3.355	0.235	0.186	
3.360	0.156	0.198	
3.365	0.236	0.203	
3.370	0.316	0.212	
3.375	0.278	0.230	
3.380	0.296	0.250	
3.385	0.376	0.272	
3.390	0.412	0.299	
3.395	0.395	0.331	
3.400	0.484	0.364	
3.405	0.571	0.402	
3.410	0.527	0.446	
3.415	0.554	0.486	
3.420	0.565	0.517	
3.425	0.444	0.535	
3.430	0.372	0.530	
3.435	0.327	0.499	
3.440	0.172	0.447	
3.445	0.053	0.373	
3.450	0.009	0.280	
3.455	-0.083	0.183	
3.460	-0.168	0.086	
3.465	-0.177	-0.005	
3.470	-0.156	-0.080	
3.475	-0.200	-0.134	
3.480	-0.176	-0.170	
3.485	-0.129	-0.187	
3.490	-0.129	-0.187	
3.495	-0.144	-0.177	
3.500	-0.068	-0.162	
3.505	-0.038	-0.139	
3.510	-0.109	-0.114	
3.515	-0.084	-0.096	
3.520	-0.054	-0.085	
3.525	-0.110	-0.078	
3.530	-0.142	-0.079	
3.535	-0.136	-0.090	
3.540	-0.136	-0.104	
3.545	-0.162	-0.118	
3.550	-0.152	-0.131	
3.555	-0.173	-0.143	
3.560	-0.200	-0.155	
3.565	-0.153	-0.165	
3.570	-0.133	-0.170	
3.575	-0.197	-0.169	
3.580	-0.187	-0.170	
3.585	-0.176	-0.174	
3.590	-0.190	-0.177	
3.595	-0.162	-0.179	
3.600	-0.002	-0.171	
3.605	0.122	-0.137	
3.610	0.036	-0.083	
3.615	-0.081	-0.035	
3.620	-0.177	-0.019	
3.625	-0.196	-0.037	
3.630	-0.142	-0.072	
3.635	-0.058	-0.101	
3.640	-0.025	-0.109	
3.645	-0.029	-0.100	
3.650	0.108	-0.075	
3.655	0.122	-0.035	
3.660	0.030	0.009	
3.665	0.114	0.042	
3.670	0.146	0.070	
3.675	0.130	0.095	
3.680	0.163	0.116	
3.685	0.189	0.135	
3.690	0.195	0.153	
3.695	0.168	0.168	
3.700	0.292	0.183	
3.705	0.333	0.206	
3.710	0.334	0.239	
3.715	0.337	0.273	
3.720	0.403	0.304	
3.725	0.417	0.336	
3.730	0.481	0.368	
3.735	0.640	0.410	
3.740	0.667	0.466	
3.745	0.608	0.527	
3.750	0.606	0.575	
3.755	0.525	0.600	
3.760	0.350	0.595	
3.765	0.252	0.550	
3.770	0.189	0.475	
3.775	0.035	0.381	
3.780	-0.045	0.274	
3.785	-0.071	0.165	
3.790	-0.148	0.066	
3.795	-0.194	-0.021	
3.800	-0.162	-0.092	
3.805	-0.162	-0.142	
3.810	-0.187	-0.171	
3.815	-0.156	-0.186	
3.820	-0.141	-0.188	
3.825	-0.156	-0.182	
3.830	-0.153	-0.173	
3.835	-0.109	-0.164	
3.840	-0.135	-0.152	
3.845	-0.144	-0.142	
3.850	-0.066	-0.134	
3.855	-0.055	-0.120	
3.860	-0.103	-0.104	
3.865	-0.104	-0.094	
3.870	-0.133	-0.092	
3.875	-0.185	-0.100	
3.880	-0.181	-0.117	
3.885	-0.165	-0.136	
3.890	-0.205	-0.154	
3.895	-0.231	-0.171	
3.900	-0.177	-0.187	
3.905	-0.185	-0.196	
3.910	-0.223	-0.200	
3.915	-0.190	-0.203	
3.920	-0.165	-0.202	
3.925	-0.171	-0.196	
3.930	-0.045	-0.183	
3.935	0.059	-0.152	
3.940	-0.037	-0.107	
3.945	-0.246	-0.077	
3.950	-0.287	-0.086	
3.955	-0.263	-0.124	
3.960	-0.236	-0.169	
3.965	-0.129	-0.199	
3.970	-0.097	-0.205	
3.975	-0.132	-0.190	
3.980	-0.049	-0.167	
3.985	0.078	-0.132	
3.990	0.085	-0.081	
3.995	0.068	-0.027	
4.000	0.162	0.023	
4.005	0.145	0.067	
4.010	0.067	0.101	
4.015	0.185	0.120	
4.020	0.250	0.139	
4.025	0.145	0.161	
4.030	0.139	0.173	
4.035	0.229	0.178	
4.040	0.272	0.187	
4.045	0.238	0.204	
4.050	0.409	0.228	
4.055	0.512	0.270	
4.060	0.461	0.328	
4.065	0.545	0.387	
4.070	0.615	0.445	
4.075	0.550	0.499	
4.080	0.553	0.538	
4.085	0.557	0.560	
4.090	0.429	0.564	
4.095	0.233	0.538	
4.100	0.185	0.476	
4.105	0.061	0.388	
4.110	-0.032	0.286	
4.115	-0.035	0.181	
4.120	-0.060	0.089	
4.125	-0.139	0.013	
4.130	-0.144	-0.049	
4.135	-0.110	-0.095	
4.140	-0.130	-0.123	
4.145	-0.113	-0.136	
4.150	-0.055	-0.137	
4.155	-0.045	-0.124	
4.160	-0.113	-0.107	
4.165	-0.127	-0.097	
4.170	-0.124	-0.097	
4.175	-0.150	-0.103	
4.180	-0.119	-0.112	
4.185	-0.100	-0.119	
4.190	-0.138	-0.121	
4.195	-0.182	-0.125	
4.200	-0.148	-0.134	
4.205	-0.144	-0.143	
4.210	-0.194	-0.150	
4.215	-0.193	-0.159	
4.220	-0.213	-0.171	
4.225	-0.219	-0.184	
4.230	-0.197	-0.195	
4.235	-0.162	-0.201	
4.240	-0.155	-0.197	
4.245	-0.171	-0.189	
4.250	-0.130	-0.179	
4.255	-0.060	-0.164	
4.260	-0.037	-0.139	
4.265	-0.045	-0.110	
4.270	-0.116	-0.086	
4.275	-0.217	-0.081	
4.280	-0.251	-0.101	
4.285	-0.181	-0.134	
4.290	-0.135	-0.159	
4.295	-0.069	-0.167	
4.300	0.044	-0.150	
4.305	0.073	-0.110	
4.310	0.030	-0.060	
4.315	0.157	-0.011	
4.320	0.226	0.042	
4.325	0.209	0.098	
4.330	0.130	0.143	
4.335	0.180	0.168	
4.340	0.174	0.181	
4.345	0.134	0.184	
4.350	0.263	0.184	
4.355	0.371	0.198	
4.360	0.342	0.230	
4.365	0.327	0.267	
4.370	0.382	0.300	
4.375	0.360	0.327	
4.380	0.391	0.349	
4.385	0.489	0.371	
4.390	0.505	0.400	
4.395	0.495	0.432	
4.400	0.470	0.459	
4.405	0.478	0.476	
4.410	0.444	0.482	
4.415	0.460	0.481	
4.420	0.389	0.472	
4.425	0.249	0.450	
4.430	0.131	0.402	
4.435	0.078	0.332	
4.440	-0.017	0.249	
4.445	-0.083	0.160	
4.450	-0.077	0.075	
4.455	-0.098	0.004	
4.460	-0.148	-0.051	
4.465	-0.110	-0.092	
4.470	-0.068	-0.116	
4.475	-0.089	-0.121	
4.480	-0.087	-0.117	
4.485	-0.020	-0.106	
4.490	-0.025	-0.088	
4.495	-0.095	-0.071	
4.500	-0.063	-0.062	
4.505	-0.071	-0.060	
4.510	-0.115	-0.062	
4.515	-0.068	-0.069	
4.520	-0.063	-0.074	
4.525	-0.109	-0.077	
4.530	-0.101	-0.082	
4.535	-0.095	-0.088	
4.540	-0.113	-0.093	
4.545	-0.148	-0.100	
4.550	-0.101	-0.109	
4.555	-0.112	-0.114	
4.560	-0.144	-0.118	
4.565	-0.122	-0.122	
4.570	-0.103	-0.124	
4.575	-0.122	-0.123	
4.580	-0.107	-0.121	
4.585	-0.003	-0.113	
4.590	-0.020	-0.095	
4.595	-0.037	-0.072	
4.600	-0.072	-0.055	
4.605	-0.132	-0.051	
4.610	-0.173	-0.063	
4.615	-0.115	-0.085	
4.620	-0.013	-0.099	
4.625	-0.006	-0.094	
4.630	0.047	-0.074	
4.635	0.111	-0.041	
4.640	0.156	0.003	
4.645	0.137	0.049	
4.650	0.195	0.092	
4.655	0.206	0.130	
4.660	0.174	0.161	
4.665	0.230	0.182	
4.670	0.220	0.199	
4.675	0.195	0.210	
4.680	0.235	0.216	
4.685	0.285	0.223	
4.690	0.261	0.234	
4.695	0.226	0.244	
4.700	0.321	0.252	
4.705	0.389	0.267	
4.710	0.362	0.293	
4.715	0.476	0.325	
4.720	0.513	0.365	
4.725	0.449	0.407	
4.730	0.476	0.440	
4.735	0.542	0.465	
4.740	0.501	0.486	
4.745	0.376	0.495	
4.750	0.288	0.480	
4.755	0.211	0.437	
4.760	0.079	0.372	
4.765	0.021	0.289	
4.770	0.000	0.201	
4.775	-0.104	0.116	
4.780	-0.132	0.038	
4.785	-0.127	-0.031	
4.790	-0.101	-0.081	
4.795	-0.135	-0.112	
4.800	-0.152	-0.131	
4.805	-0.092	-0.141	
4.810	-0.118	-0.140	
4.815	-0.107	-0.134	
4.820	-0.089	-0.126	
4.825	-0.100	-0.116	
4.830	-0.069	-0.107	
4.835	-0.058	-0.096	
4.840	-0.095	-0.086	
4.845	-0.112	-0.082	
4.850	-0.095	-0.084	
4.855	-0.103	-0.088	
4.860	-0.190	-0.096	
4.865	-0.161	-0.112	
4.870	-0.145	-0.130	
4.875	-0.185	-0.144	
4.880	-0.197	-0.157	
4.885	-0.145	-0.168	
4.890	-0.165	-0.173	
4.895	-0.176	-0.173	
4.900	-0.170	-0.173	
4.905	-0.159	-0.172	
4.910	-0.182	-0.171	
4.915	-0.121	-0.169	
4.920	-0.057	-0.158	
4.925	-0.107	-0.140	
4.930	-0.156	-0.125	
4.935	-0.222	-0.124	
4.940	-0.232	-0.139	
4.945	-0.200	-0.162	
4.950	-0.098	-0.177	
4.955	0.003	-0.170	
4.960	0.018	-0.138	
4.965	0.111	-0.090	
4.970	0.148	-0.032	
4.975	0.108	0.026	
4.980	0.096	0.071	
4.985	0.174	0.102	
4.990	0.188	0.128	
4.995	0.140	0.148	
5.000	0.232	0.164	
5.005	0.261	0.181	
5.010	0.157	0.198	
5.015	0.296	0.210	
5.020	0.293	0.225	
5.025	0.223	0.242	
5.030	0.278	0.253	
5.035	0.382	0.265	
5.040	0.444	0.290	
5.045	0.461	0.329	
5.050	0.530	0.375	
5.055	0.568	0.425	
5.060	0.443	0.468	
5.065	0.507	0.494	
5.070	0.536	0.507	
5.075	0.409	0.512	
5.080	0.310	0.496	
5.085	0.186	0.453	
5.090	0.032	0.381	
5.095	-0.066	0.284	
5.100	-0.072	0.176	
5.105	-0.101	0.076	
5.110	-0.161	-0.007	
5.115	-0.135	-0.073	
5.120	-0.135	-0.117	
5.125	-0.181	-0.145	
5.130	-0.174	-0.162	
5.135	-0.168	-0.173	
5.140	-0.202	-0.180	
5.145	-0.211	-0.186	
5.150	-0.158	-0.190	
5.155	-0.174	-0.190	
5.160	-0.219	-0.188	
5.165	-0.150	-0.188	
5.170	-0.106	-0.182	
5.175	-0.153	-0.169	
5.180	-0.147	-0.157	
5.185	-0.121	-0.149	
5.190	-0.164	-0.143	
5.195	-0.223	-0.144	
5.200	-0.208	-0.156	
5.205	-0.211	-0.172	
5.210	-0.240	-0.189	
5.215	-0.208	-0.204	
5.220	-0.156	-0.211	
5.225	-0.208	-0.209	
5.230	-0.232	-0.207	
5.235	-0.240	-0.209	
5.240	-0.226	-0.216	
5.245	-0.153	-0.218	
5.250	0.052	-0.201	
5.255	0.134	-0.152	
5.260	0.018	-0.084	
5.265	-0.142	-0.034	
5.270	-0.254	-0.027	
5.275	-0.243	-0.060	
5.280	-0.165	-0.107	
5.285	-0.097	-0.141	
5.290	-0.060	-0.151	
5.295	-0.032	-0.140	
5.300	0.062	-0.111	
5.305	0.038	-0.071	
5.310	-0.040	-0.033	
5.315	0.049	-0.008	
5.320	0.145	0.015	
5.325	0.104	0.044	
5.330	0.137	0.073	
5.335	0.169	0.099	
5.340	0.162	0.123	
5.345	0.175	0.143	
5.350	0.259	0.162	
5.355	0.276	0.186	
5.360	0.247	0.213	
5.365	0.371	0.239	
5.370	0.447	0.274	
5.375	0.435	0.319	
5.380	0.499	0.366	
5.385	0.626	0.417	
5.390	0.680	0.477	
5.395	0.644	0.540	
5.400	0.651	0.592	
5.405	0.603	0.626	
5.410	0.402	0.631	
5.415	0.331	0.598	
5.420	0.162	0.527	
5.425	-0.017	0.425	
5.430	-0.040	0.300	
5.435	-0.080	0.175	
5.440	-0.141	0.066	
5.445	-0.197	-0.026	
5.450	-0.202	-0.100	
5.455	-0.211	-0.156	
5.460	-0.219	-0.193	
5.465	-0.167	-0.214	
5.470	-0.124	-0.215	
5.475	-0.150	-0.203	
5.480	-0.126	-0.184	
5.485	-0.162	-0.167	
5.490	-0.213	-0.159	
5.495	-0.164	-0.160	
5.500	-0.121	-0.161	
5.505	-0.121	-0.157	
5.510	-0.181	-0.150	
5.515	-0.205	-0.151	
5.520	-0.211	-0.161	
5.525	-0.234	-0.176	
5.530	-0.223	-0.192	
5.535	-0.202	-0.205	
5.540	-0.222	-0.213	
5.545	-0.232	-0.218	
5.550	-0.232	-0.223	
5.555	-0.202	-0.225	
5.560	-0.245	-0.226	
5.565	-0.254	-0.228	
5.570	-0.251	-0.233	
5.575	-0.184	-0.236	
5.580	0.038	-0.221	
5.585	0.191	-0.169	
5.590	0.114	-0.087	
5.595	-0.153	-0.019	
5.600	-0.237	-0.002	
5.605	-0.223	-0.032	
5.610	-0.203	-0.082	
5.615	-0.153	-0.128	
5.620	-0.093	-0.154	
5.625	-0.058	-0.157	
5.630	-0.023	-0.141	
5.635	0.035	-0.110	
5.640	-0.013	-0.073	
5.645	-0.026	-0.042	
5.650	0.065	-0.019	
5.655	0.093	0.005	
5.660	0.049	0.030	
5.665	0.125	0.051	
5.670	0.133	0.072	
5.675	0.110	0.092	
5.680	0.165	0.109	
5.685	0.220	0.127	
5.690	0.264	0.153	
5.695	0.299	0.186	
5.700	0.443	0.228	
5.705	0.556	0.287	
5.710	0.513	0.358	
5.715	0.614	0.428	
5.720	0.625	0.493	
5.725	0.628	0.549	
5.730	0.620	0.590	
5.735	0.560	0.614	
5.740	0.420	0.612	
5.745	0.238	0.573	
5.750	0.163	0.498	
5.755	0.042	0.396	
5.760	-0.069	0.282	
5.765	-0.063	0.166	
5.770	-0.150	0.063	
5.775	-0.193	-0.025	
5.780	-0.177	-0.097	
5.785	-0.153	-0.147	
5.790	-0.138	-0.173	
5.795	-0.147	-0.180	
5.800	-0.106	-0.175	
5.805	-0.098	-0.162	
5.810	-0.145	-0.146	
5.815	-0.103	-0.134	
5.820	-0.081	-0.123	
5.825	-0.116	-0.113	
5.830	-0.138	-0.108	
5.835	-0.112	-0.109	
5.840	-0.126	-0.111	
5.845	-0.171	-0.117	
5.850	-0.130	-0.126	
5.855	-0.153	-0.134	
5.860	-0.213	-0.143	
5.865	-0.193	-0.157	
5.870	-0.171	-0.170	
5.875	-0.237	-0.181	
5.880	-0.225	-0.193	
5.885	-0.164	-0.203	
5.890	-0.202	-0.205	
5.895	-0.245	-0.205	
5.900	-0.214	-0.210	
5.905	-0.159	-0.211	
5.910	-0.074	-0.201	
5.915	0.004	-0.173	
5.920	-0.122	-0.136	
5.925	-0.298	-0.117	
5.930	-0.329	-0.135	
5.935	-0.268	-0.175	
5.940	-0.197	-0.212	
5.945	-0.135	-0.227	
5.950	-0.020	-0.215	
5.955	0.029	-0.177	
5.960	0.003	-0.123	
5.965	0.064	-0.070	
5.970	0.122	-0.019	
5.975	0.021	0.025	
5.980	0.114	0.055	
5.985	0.181	0.079	
5.990	0.157	0.106	
5.995	0.156	0.129	
6.000	0.203	0.148	
6.005	0.263	0.168	
6.010	0.208	0.190	
6.015	0.310	0.211	
6.020	0.324	0.236	
6.025	0.331	0.264	
6.030	0.438	0.295	
6.035	0.496	0.334	
6.040	0.475	0.380	
6.045	0.533	0.423	
6.050	0.614	0.466	
6.055	0.596	0.510	
6.060	0.476	0.542	
6.065	0.431	0.550	
6.070	0.376	0.531	
6.075	0.181	0.487	
6.080	0.084	0.413	
6.085	0.047	0.319	
6.090	-0.072	0.218	
6.095	-0.133	0.118	
6.100	-0.139	0.025	
6.105	-0.174	-0.052	
6.110	-0.203	-0.113	
6.115	-0.150	-0.155	
6.120	-0.136	-0.177	
6.125	-0.159	-0.182	
6.130	-0.156	-0.179	
6.135	-0.130	-0.172	
6.140	-0.121	-0.162	
6.145	-0.129	-0.150	
6.150	-0.078	-0.138	
6.155	-0.061	-0.122	
6.160	-0.112	-0.106	
6.165	-0.072	-0.095	
6.170	-0.104	-0.089	
6.175	-0.139	-0.089	
6.180	-0.141	-0.097	
6.185	-0.129	-0.108	
6.190	-0.173	-0.120	
6.195	-0.184	-0.134	
6.200	-0.182	-0.150	
6.205	-0.171	-0.163	
6.210	-0.185	-0.172	
6.215	-0.156	-0.177	
6.220	-0.148	-0.177	
6.225	-0.187	-0.173	
6.230	-0.132	-0.170	
6.235	-0.057	-0.160	
6.240	-0.032	-0.139	
6.245	-0.060	-0.111	
6.250	-0.142	-0.090	
6.255	-0.239	-0.090	
6.260	-0.320	-0.117	
6.265	-0.231	-0.160	
6.270	-0.122	-0.193	
6.275	-0.072	-0.199	
6.280	0.035	-0.176	
6.285	0.134	-0.126	
6.290	0.084	-0.060	
6.295	0.075	0.000	
6.300	0.172	0.049	
6.305	0.208	0.093	
6.310	0.178	0.132	
6.315	0.272	0.166	
6.320	0.232	0.196	
6.325	0.131	0.215	
6.330	0.134	0.213	
6.335	0.191	0.200	
6.340	0.209	0.190	
6.345	0.238	0.190	
6.350	0.368	0.203	
6.355	0.421	0.236	
6.360	0.394	0.283	
6.365	0.484	0.332	
6.370	0.521	0.382	
6.375	0.496	0.429	
6.380	0.539	0.468	
6.385	0.551	0.498	
6.390	0.461	0.519	
6.395	0.353	0.517	
6.400	0.264	0.487	
6.405	0.209	0.432	
6.410	0.070	0.361	
6.415	0.009	0.275	
6.420	-0.045	0.184	
6.425	-0.104	0.097	
6.430	-0.136	0.018	
6.435	-0.118	-0.046	
6.440	-0.138	-0.093	
6.445	-0.165	-0.125	
6.450	-0.141	-0.146	
6.455	-0.124	-0.155	
6.460	-0.129	-0.155	
6.465	-0.098	-0.149	
6.470	-0.063	-0.136	
6.475	-0.095	-0.119	
6.480	-0.080	-0.104	
6.485	-0.055	-0.092	
6.490	-0.089	-0.082	
6.495	-0.101	-0.077	
6.500	-0.060	-0.077	
6.505	-0.084	-0.077	
6.510	-0.161	-0.080	
6.515	-0.156	-0.093	
6.520	-0.162	-0.112	
6.525	-0.184	-0.131	
6.530	-0.148	-0.147	
6.535	-0.132	-0.156	
6.540	-0.148	-0.158	
6.545	-0.152	-0.156	
6.550	-0.147	-0.154	
6.555	-0.148	-0.152	
6.560	-0.167	-0.151	
6.565	-0.075	-0.149	
6.570	0.006	-0.134	
6.575	-0.046	-0.107	
6.580	-0.142	-0.085	
6.585	-0.194	-0.082	
6.590	-0.229	-0.101	
6.595	-0.207	-0.131	
6.600	-0.072	-0.155	
6.605	-0.005	-0.154	
6.610	-0.048	-0.132	
6.615	0.027	-0.099	
6.620	0.191	-0.056	
6.625	0.169	0.002	
6.630	0.177	0.063	
6.635	0.186	0.114	
6.640	0.152	0.150	
6.645	0.137	0.170	
6.650	0.229	0.178	
6.655	0.230	0.187	
6.660	0.189	0.198	
6.665	0.256	0.206	
6.670	0.278	0.218	
6.675	0.172	0.229	
6.680	0.270	0.233	
6.685	0.403	0.244	
6.690	0.392	0.272	
6.695	0.479	0.312	
6.700	0.560	0.363	
6.705	0.592	0.422	
6.710	0.556	0.479	
6.715	0.643	0.527	
6.720	0.621	0.567	
6.725	0.438	0.589	
6.730	0.368	0.578	
6.735	0.296	0.533	
6.740	0.152	0.464	
6.745	0.033	0.374	
6.750	-0.029	0.269	
6.755	-0.066	0.164	
6.760	-0.164	0.067	
6.765	-0.135	-0.018	
6.770	-0.158	-0.083	
6.775	-0.205	-0.130	
6.780	-0.173	-0.164	
6.785	-0.135	-0.181	
6.790	-0.153	-0.184	
6.795	-0.200	-0.181	
6.800	-0.135	-0.178	
6.805	-0.106	-0.170	
6.810	-0.118	-0.156	
6.815	-0.063	-0.139	
6.820	-0.061	-0.119	
6.825	-0.127	-0.102	
6.830	-0.132	-0.095	
6.835	-0.121	-0.098	
6.840	-0.141	-0.105	
6.845	-0.150	-0.114	
6.850	-0.147	-0.125	
6.855	-0.161	-0.135	
6.860	-0.232	-0.148	
6.865	-0.179	-0.164	
6.870	-0.100	-0.173	
6.875	-0.118	-0.169	
6.880	-0.148	-0.158	
6.885	-0.176	-0.150	
6.890	-0.187	-0.151	
6.895	-0.109	-0.154	
6.900	0.072	-0.142	
6.905	0.177	-0.100	
6.910	0.070	-0.038	
6.915	-0.126	0.008	
6.920	-0.214	0.011	
6.925	-0.260	-0.027	
6.930	-0.150	-0.082	
6.935	-0.086	-0.123	
6.940	-0.051	-0.138	
6.945	-0.028	-0.130	
6.950	0.023	-0.106	
6.955	0.062	-0.071	
6.960	0.007	-0.033	
6.965	0.042	-0.003	
6.970	0.050	0.019	
6.975	0.047	0.035	
6.980	0.085	0.047	
6.985	0.165	0.062	
6.990	0.113	0.082	
6.995	0.072	0.098	
7.000	0.168	0.108	
7.005	0.211	0.121	
7.010	0.204	0.142	
7.015	0.305	0.168	
7.020	0.369	0.205	
7.025	0.372	0.251	
7.030	0.498	0.301	
7.035	0.589	0.361	
7.040	0.589	0.428	
7.045	0.611	0.492	
7.050	0.655	0.546	
7.055	0.599	0.588	
7.060	0.365	0.603	
7.065	0.322	0.575	
7.070	0.215	0.511	
7.075	0.023	0.422	
7.080	-0.029	0.310	
7.085	-0.080	0.193	
7.090	-0.116	0.086	
7.095	-0.158	-0.005	
7.100	-0.115	-0.073	
7.105	-0.116	-0.117	
7.110	-0.162	-0.140	
7.115	-0.139	-0.153	
7.120	-0.095	-0.155	
7.125	-0.113	-0.148	
7.130	-0.090	-0.137	
7.135	-0.074	-0.123	
7.140	-0.097	-0.108	
7.145	-0.106	-0.099	
7.150	-0.034	-0.091	
7.155	-0.031	-0.080	
7.160	-0.092	-0.069	
7.165	-0.095	-0.065	
7.170	-0.095	-0.068	
7.175	-0.173	-0.078	
7.180	-0.170	-0.097	
7.185	-0.113	-0.117	
7.190	-0.142	-0.130	
7.195	-0.179	-0.139	
7.200	-0.167	-0.149	
7.205	-0.173	-0.158	
7.210	-0.226	-0.167	
7.215	-0.263	-0.182	
7.220	-0.255	-0.202	
7.225	-0.240	-0.221	
7.230	-0.032	-0.226	
7.235	0.241	-0.189	
7.240	0.259	-0.103	
7.245	-0.064	-0.010	
7.250	-0.214	0.034	
7.255	-0.248	0.015	
7.260	-0.266	-0.042	
7.265	-0.193	-0.107	
7.270	-0.118	-0.155	
7.275	-0.110	-0.175	
7.280	-0.075	-0.171	
7.285	-0.009	-0.150	
7.290	-0.032	-0.118	
7.295	-0.025	-0.085	
7.300	0.070	-0.054	
7.305	0.096	-0.019	
7.310	0.015	0.015	
7.315	0.105	0.039	
7.320	0.154	0.062	
7.325	0.079	0.084	
7.330	0.143	0.100	
7.335	0.223	0.117	
7.340	0.305	0.145	
7.345	0.362	0.187	
7.350	0.476	0.243	
7.355	0.539	0.311	
7.360	0.489	0.381	
7.365	0.551	0.441	
7.370	0.634	0.491	
7.375	0.632	0.539	
7.380	0.608	0.578	
7.385	0.596	0.604	
7.390	0.495	0.611	
7.395	0.359	0.591	
7.400	0.302	0.542	
7.405	0.188	0.471	
7.410	0.000	0.381	
7.415	-0.025	0.273	
7.420	-0.063	0.165	
7.425	-0.173	0.066	
7.430	-0.167	-0.021	
7.435	-0.135	-0.090	
7.440	-0.167	-0.135	
7.445	-0.142	-0.160	
7.450	-0.122	-0.170	
7.455	-0.132	-0.167	
7.460	-0.129	-0.159	
7.465	-0.045	-0.145	
7.470	-0.035	-0.123	
7.475	-0.074	-0.099	
7.480	-0.060	-0.080	
7.485	-0.054	-0.067	
7.490	-0.110	-0.061	
7.495	-0.127	-0.065	
7.500	-0.122	-0.078	
7.505	-0.179	-0.095	
7.510	-0.223	-0.119	
7.515	-0.211	-0.147	
7.520	-0.219	-0.173	
7.525	-0.265	-0.197	
7.530	-0.229	-0.217	
7.535	-0.153	-0.227	
7.540	-0.153	-0.222	
7.545	-0.190	-0.209	
7.550	-0.155	-0.195	
7.555	-0.133	-0.182	
7.560	-0.087	-0.165	
7.565	-0.025	-0.142	
7.570	-0.032	-0.112	
7.575	-0.222	-0.091	
7.580	-0.333	-0.101	
7.585	-0.277	-0.141	
7.590	-0.226	-0.186	
7.595	-0.153	-0.215	
7.600	-0.058	-0.216	
7.605	0.026	-0.189	
7.610	0.079	-0.137	
7.615	0.174	-0.069	
7.620	0.214	0.006	
7.625	0.148	0.077	
7.630	0.160	0.128	
7.635	0.177	0.159	
7.640	0.151	0.176	
7.645	0.156	0.181	
7.650	0.288	0.185	
7.655	0.290	0.200	
7.660	0.211	0.220	
7.665	0.301	0.236	
7.670	0.347	0.254	
7.675	0.327	0.277	
7.680	0.405	0.302	
7.685	0.502	0.334	
7.690	0.534	0.378	
7.695	0.548	0.427	
7.700	0.614	0.476	
7.705	0.660	0.525	
7.710	0.547	0.566	
7.715	0.550	0.589	
7.720	0.484	0.589	
7.725	0.272	0.563	
7.730	0.224	0.504	
7.735	0.146	0.422	
7.740	0.020	0.329	
7.745	-0.048	0.228	
7.750	-0.031	0.132	
7.755	-0.061	0.052	
7.760	-0.152	-0.011	
7.765	-0.116	-0.062	
7.770	-0.080	-0.097	
7.775	-0.109	-0.114	
7.780	-0.090	-0.119	
7.785	-0.100	-0.118	
7.790	-0.075	-0.112	
7.795	-0.072	-0.104	
7.800	-0.032	-0.092	
7.805	-0.014	-0.076	
7.810	-0.080	-0.061	
7.815	-0.077	-0.054	
7.820	-0.066	-0.054	
7.825	-0.130	-0.060	
7.830	-0.112	-0.072	
7.835	-0.095	-0.085	
7.840	-0.129	-0.096	
7.845	-0.170	-0.108	
7.850	-0.142	-0.122	
7.855	-0.119	-0.133	
7.860	-0.156	-0.138	
7.865	-0.093	-0.140	
7.870	-0.055	-0.133	
7.875	-0.126	-0.120	
7.880	-0.109	-0.111	
7.885	-0.100	-0.106	
7.890	-0.080	-0.102	
7.895	0.007	-0.093	
7.900	0.006	-0.074	
7.905	-0.139	-0.057	
7.910	-0.239	-0.061	
7.915	-0.202	-0.090	
7.920	-0.147	-0.124	
7.925	-0.100	-0.145	
7.930	-0.032	-0.146	
7.935	0.108	-0.122	
7.940	0.114	-0.074	
7.945	0.140	-0.015	
7.950	0.163	0.043	
7.955	0.177	0.093	
7.960	0.134	0.130	
7.965	0.238	0.156	
7.970	0.261	0.180	
7.975	0.201	0.203	
7.980	0.252	0.219	
7.985	0.318	0.234	
7.990	0.270	0.251	
7.995	0.269	0.265	
8.000	0.321	0.275	
8.005	0.417	0.291	
8.010	0.418	0.317	
8.015	0.504	0.353	
8.020	0.626	0.400	
8.025	0.586	0.457	
8.030	0.620	0.513	
8.035	0.675	0.561	
8.040	0.657	0.602	
8.045	0.582	0.630	
8.050	0.510	0.635	
8.055	0.409	0.613	
8.060	0.235	0.561	
8.065	0.139	0.479	
8.070	0.064	0.377	
8.075	-0.034	0.268	
8.080	-0.057	0.162	
8.085	-0.101	0.069	
8.090	-0.144	-0.009	
8.095	-0.150	-0.070	
8.100	-0.078	-0.111	
8.105	-0.058	-0.128	
8.110	-0.090	-0.126	
8.115	-0.043	-0.114	
8.120	0.000	-0.096	
8.125	-0.068	-0.074	
8.130	-0.074	-0.059	
8.135	-0.064	-0.054	
8.140	-0.072	-0.054	
8.145	-0.097	-0.058	
8.150	-0.072	-0.065	
8.155	-0.087	-0.072	
8.160	-0.130	-0.079	
8.165	-0.113	-0.089	
8.170	-0.118	-0.100	
8.175	-0.152	-0.110	
8.180	-0.152	-0.121	
8.185	-0.158	-0.132	
8.190	-0.167	-0.143	
8.195	-0.200	-0.153	
8.200	-0.132	-0.163	
8.205	-0.147	-0.165	
8.210	-0.231	-0.166	
8.215	-0.222	-0.175	
8.220	-0.121	-0.183	
8.225	-0.089	-0.179	
8.230	-0.049	-0.160	
8.235	-0.075	-0.133	
8.240	-0.202	-0.114	
8.245	-0.257	-0.117	
8.250	-0.187	-0.139	
8.255	-0.089	-0.157	
8.260	-0.080	-0.158	
8.265	-0.034	-0.142	
8.270	0.064	-0.112	
8.275	0.010	-0.071	
8.280	0.026	-0.033	
8.285	0.001	-0.006	
8.290	0.013	0.011	
8.295	0.085	0.022	
8.300	0.168	0.040	
8.305	0.160	0.068	
8.310	0.101	0.097	
8.315	0.137	0.116	
8.320	0.166	0.129	
8.325	0.148	0.140	
8.330	0.223	0.151	
8.335	0.278	0.169	
8.340	0.319	0.197	
8.345	0.382	0.235	
8.350	0.482	0.282	
8.355	0.453	0.336	
8.360	0.408	0.384	
8.365	0.510	0.418	
8.370	0.563	0.450	
8.375	0.487	0.481	
8.380	0.475	0.500	
8.385	0.408	0.502	
8.390	0.224	0.480	
8.395	0.027	0.422	
8.400	-0.072	0.325	
8.405	-0.132	0.206	
8.410	-0.197	0.084	
8.415	-0.153	-0.022	
8.420	-0.122	-0.099	
8.425	-0.164	-0.145	
8.430	-0.153	-0.168	
8.435	-0.144	-0.177	
8.440	-0.165	-0.177	
8.445	-0.210	-0.175	
8.450	-0.171	-0.177	
8.455	-0.152	-0.178	
8.460	-0.161	-0.175	
8.465	-0.138	-0.169	
8.470	-0.144	-0.162	
8.475	-0.217	-0.158	
8.480	-0.156	-0.161	
8.485	-0.135	-0.163	
8.490	-0.156	-0.161	
8.495	-0.162	-0.158	
8.500	-0.165	-0.158	
8.505	-0.210	-0.161	
8.510	-0.271	-0.172	
8.515	-0.236	-0.191	
8.520	-0.210	-0.209	
8.525	-0.257	-0.222	
8.530	-0.222	-0.230	
8.535	-0.236	-0.235	
8.540	-0.271	-0.239	
8.545	-0.269	-0.245	
8.550	-0.202	-0.249	
8.555	-0.045	-0.238	
8.560	0.079	-0.199	
8.565	0.140	-0.131	
8.570	-0.042	-0.059	
8.575	-0.234	-0.021	
8.580	-0.263	-0.034	
8.585	-0.225	-0.079	
8.590	-0.173	-0.128	
8.595	-0.106	-0.159	
8.600	-0.084	-0.167	
8.605	-0.013	-0.153	
8.610	-0.014	-0.124	
8.615	0.033	-0.087	
8.620	0.036	-0.049	
8.625	-0.020	-0.017	
8.630	0.073	0.005	
8.635	0.113	0.026	
8.640	0.082	0.049	
8.645	0.038	0.066	
8.650	0.124	0.075	
8.655	0.156	0.086	
8.660	0.165	0.103	
8.665	0.270	0.127	
8.670	0.316	0.163	
8.675	0.282	0.205	
8.680	0.327	0.244	
8.685	0.452	0.282	
8.690	0.522	0.329	
8.695	0.588	0.388	
8.700	0.586	0.451	
8.705	0.577	0.506	
8.710	0.504	0.544	
8.715	0.443	0.555	
8.720	0.310	0.537	
8.725	0.171	0.486	
8.730	0.094	0.405	
8.735	-0.008	0.307	
8.740	-0.133	0.200	
8.745	-0.159	0.090	
8.750	-0.162	-0.009	
8.755	-0.194	-0.087	
8.760	-0.237	-0.146	
8.765	-0.214	-0.189	
8.770	-0.185	-0.214	
8.775	-0.210	-0.224	
8.780	-0.173	-0.223	
8.785	-0.139	-0.214	
8.790	-0.158	-0.198	
8.795	-0.145	-0.181	
8.800	-0.100	-0.165	
8.805	-0.113	-0.147	
8.810	-0.161	-0.134	
8.815	-0.127	-0.129	
8.820	-0.130	-0.128	
8.825	-0.171	-0.129	
8.830	-0.155	-0.135	
8.835	-0.196	-0.144	
8.840	-0.232	-0.158	
8.845	-0.231	-0.177	
8.850	-0.197	-0.195	
8.855	-0.177	-0.204	
8.860	-0.188	-0.206	
8.865	-0.168	-0.202	
8.870	-0.170	-0.195	
8.875	-0.242	-0.190	
8.880	-0.200	-0.192	
8.885	-0.058	-0.190	
8.890	0.050	-0.166	
8.895	0.042	-0.120	
8.900	-0.035	-0.070	
8.905	-0.237	-0.045	
8.910	-0.321	-0.063	
8.915	-0.243	-0.112	
8.920	-0.171	-0.160	
8.925	-0.130	-0.188	
8.930	-0.009	-0.187	
8.935	0.090	-0.155	
8.940	0.050	-0.100	
8.945	0.070	-0.043	
8.950	0.081	0.006	
8.955	0.134	0.045	
8.960	0.117	0.078	
8.965	0.232	0.107	
8.970	0.233	0.140	
8.975	0.113	0.167	
8.980	0.171	0.179	
8.985	0.246	0.184	
8.990	0.261	0.195	
8.995	0.266	0.212	
9.000	0.340	0.234	
9.005	0.328	0.260	
9.010	0.347	0.287	
9.015	0.475	0.316	
9.020	0.588	0.359	
9.025	0.516	0.414	
9.030	0.571	0.466	
9.035	0.583	0.509	
9.040	0.486	0.538	
9.045	0.450	0.546	
9.050	0.403	0.532	
9.055	0.240	0.496	
9.060	0.058	0.430	
9.065	0.009	0.335	
9.070	-0.061	0.227	
9.075	-0.135	0.121	
9.080	-0.159	0.023	
9.085	-0.165	-0.057	
9.090	-0.210	-0.119	
9.095	-0.217	-0.164	
9.100	-0.190	-0.194	
9.105	-0.188	-0.210	
9.110	-0.214	-0.215	
9.115	-0.162	-0.213	
9.120	-0.138	-0.204	
9.125	-0.158	-0.190	
9.130	-0.098	-0.173	
9.135	-0.092	-0.153	
9.140	-0.135	-0.135	
9.145	-0.145	-0.124	
9.150	-0.130	-0.122	
9.155	-0.150	-0.123	
9.160	-0.214	-0.131	
9.165	-0.188	-0.146	
9.170	-0.181	-0.162	
9.175	-0.200	-0.175	
9.180	-0.171	-0.183	
9.185	-0.165	-0.186	
9.190	-0.207	-0.186	
9.195	-0.173	-0.186	
9.200	-0.126	-0.183	
9.205	-0.173	-0.176	
9.210	-0.200	-0.170	
9.215	-0.115	-0.168	
9.220	-0.043	-0.158	
9.225	-0.066	-0.136	
9.230	-0.121	-0.114	
9.235	-0.205	-0.106	
9.240	-0.284	-0.120	
9.245	-0.271	-0.153	
9.250	-0.177	-0.187	
9.255	-0.095	-0.203	
9.260	-0.017	-0.191	
9.265	0.041	-0.154	
9.270	0.097	-0.100	
9.275	0.094	-0.039	
9.280	0.171	0.019	
9.285	0.221	0.074	
9.290	0.133	0.122	
9.295	0.128	0.151	
9.300	0.172	0.164	
9.305	0.154	0.169	
9.310	0.120	0.168	
9.315	0.208	0.164	
9.320	0.327	0.172	
9.325	0.292	0.197	
9.330	0.371	0.232	
9.335	0.417	0.273	
9.340	0.389	0.317	
9.345	0.466	0.356	
9.350	0.563	0.397	
9.355	0.603	0.445	
9.360	0.467	0.490	
9.365	0.492	0.515	
9.370	0.539	0.524	
9.375	0.421	0.524	
9.380	0.362	0.507	
9.385	0.256	0.470	
9.390	0.078	0.409	
9.395	0.029	0.324	
9.400	0.070	0.232	
9.405	0.007	0.152	
9.410	-0.084	0.084	
9.415	-0.103	0.024	
9.420	-0.113	-0.029	
9.425	-0.155	-0.072	
9.430	-0.118	-0.105	
9.435	-0.113	-0.125	
9.440	-0.121	-0.133	
9.445	-0.148	-0.136	
9.450	-0.119	-0.137	
9.455	-0.058	-0.133	
9.460	-0.063	-0.120	
9.465	-0.060	-0.103	
9.470	-0.055	-0.086	
9.475	-0.113	-0.075	
9.480	-0.121	-0.075	
9.485	-0.136	-0.083	
9.490	-0.147	-0.097	
9.495	-0.144	-0.112	
9.500	-0.124	-0.125	
9.505	-0.118	-0.132	
9.510	-0.196	-0.136	
9.515	-0.179	-0.145	
9.520	-0.135	-0.154	
9.525	-0.147	-0.158	
9.530	-0.103	-0.155	
9.535	-0.106	-0.146	
9.540	-0.130	-0.135	
9.545	-0.118	-0.127	
9.550	-0.043	-0.119	
9.555	-0.055	-0.105	
9.560	-0.104	-0.090	
9.565	-0.164	-0.086	
9.570	-0.222	-0.098	
9.575	-0.278	-0.127	
9.580	-0.165	-0.161	
9.585	-0.064	-0.179	
9.590	-0.026	-0.170	
9.595	0.026	-0.138	
9.600	0.068	-0.093	
9.605	0.116	-0.040	
9.610	0.148	0.013	
9.615	0.223	0.067	
9.620	0.198	0.117	
9.625	0.143	0.156	
9.630	0.192	0.177	
9.635	0.215	0.189	
9.640	0.214	0.199	
9.645	0.252	0.208	
9.650	0.293	0.221	
9.655	0.212	0.235	
9.660	0.212	0.241	
9.665	0.330	0.244	
9.670	0.389	0.259	
9.675	0.429	0.289	
9.680	0.515	0.332	
9.685	0.548	0.384	
9.690	0.495	0.436	
9.695	0.519	0.476	
9.700	0.568	0.505	
9.705	0.473	0.524	
9.710	0.325	0.522	
9.715	0.314	0.491	
9.720	0.235	0.440	
9.725	0.076	0.373	
9.730	-0.009	0.289	
9.735	0.001	0.197	
9.740	-0.075	0.112	
9.745	-0.107	0.037	
9.750	-0.089	-0.024	
9.755	-0.112	-0.068	
9.760	-0.124	-0.097	
9.765	-0.109	-0.115	
9.770	-0.084	-0.122	
9.775	-0.119	-0.122	
9.780	-0.040	-0.116	
9.785	-0.020	-0.101	
9.790	-0.046	-0.082	
9.795	-0.046	-0.064	
9.800	-0.042	-0.052	
9.805	-0.038	-0.044	
9.810	-0.057	-0.040	
9.815	-0.068	-0.041	
9.820	-0.074	-0.046	
9.825	-0.133	-0.056	
9.830	-0.135	-0.073	
9.835	-0.139	-0.092	
9.840	-0.173	-0.112	
9.845	-0.173	-0.131	
9.850	-0.142	-0.147	
9.855	-0.121	-0.154	
9.860	-0.145	-0.154	
9.865	-0.122	-0.150	
9.870	-0.136	-0.145	
9.875	-0.173	-0.142	
9.880	-0.129	-0.142	
9.885	-0.074	-0.139	
9.890	-0.084	-0.129	
9.895	-0.095	-0.116	
9.900	-0.147	-0.107	
9.905	-0.228	-0.112	
9.910	-0.232	-0.132	
9.915	-0.139	-0.156	
9.920	-0.045	-0.164	
9.925	-0.035	-0.151	
9.930	0.081	-0.118	
9.935	0.137	-0.067	
9.940	0.046	-0.012	
9.945	0.139	0.035	
9.950	0.261	0.078	
9.955	0.263	0.128	
9.960	0.165	0.172	
9.965	0.194	0.199	
9.970	0.212	0.210	
9.975	0.185	0.214	
9.980	0.308	0.218	
9.985	0.343	0.232	
9.990	0.293	0.256	
9.995	0.321	0.278	
10.000	0.418	0.300	
10.005	0.463	0.330	
10.010	0.472	0.368	
10.015	0.548	0.409	
10.020	0.611	0.454	
10.025	0.574	0.500	
10.030	0.599	0.540	
10.035	0.588	0.568	
10.040	0.478	0.581	
10.045	0.400	0.570	
10.050	0.333	0.534	
10.055	0.229	0.477	
10.060	0.081	0.401	
10.065	0.007	0.308	
10.070	-0.020	0.209	
10.075	-0.080	0.117	
10.080	-0.072	0.038	
10.085	-0.020	-0.019	
10.090	-0.019	-0.050	
10.095	0.053	-0.056	
10.100	0.174	-0.036	
10.105	0.177	0.007	
10.110	0.178	0.059	
10.115	0.285	0.112	
10.120	0.285	0.165	
10.125	0.192	0.209	
10.130	0.226	0.233	
10.135	0.243	0.243	
10.140	0.139	0.242	
10.145	0.076	0.225	
10.150	0.085	0.192	
10.155	0.003	0.152	
10.160	-0.019	0.108	
10.165	-0.049	0.062	
10.170	-0.071	0.020	
10.175	-0.129	-0.020	
10.180	-0.109	-0.055	
10.185	-0.090	-0.083	
10.190	-0.124	-0.100	
10.195	-0.122	-0.112	
10.200	-0.126	-0.119	
10.205	-0.203	-0.128	
10.210	-0.173	-0.141	
10.215	-0.071	-0.150	
10.220	0.009	-0.141	
10.225	-0.022	-0.114	
10.230	-0.064	-0.084	
10.235	-0.158	-0.068	
10.240	-0.220	-0.075	
10.245	-0.216	-0.103	
10.250	-0.135	-0.133	
10.255	-0.124	-0.152	
10.260	-0.101	-0.155	
10.265	-0.006	-0.144	
10.270	0.021	-0.116	
10.275	-0.048	-0.081	
10.280	-0.006	-0.053	
10.285	0.067	-0.029	
10.290	0.032	-0.004	
10.295	0.039	0.016	
10.300	0.038	0.030	
10.305	0.050	0.039	
10.310	0.021	0.044	
10.315	0.085	0.046	
10.320	0.131	0.054	
10.325	0.101	0.068	
10.330	0.186	0.087	
10.335	0.256	0.113	
10.340	0.264	0.150	
10.345	0.331	0.192	
10.350	0.411	0.239	
10.355	0.470	0.293	
10.360	0.473	0.349	
10.365	0.525	0.402	
10.370	0.519	0.448	
10.375	0.318	0.475	
10.380	0.256	0.466	
10.385	0.162	0.421	
10.390	-0.009	0.347	
10.395	-0.074	0.250	
10.400	-0.113	0.144	
10.405	-0.182	0.043	
10.410	-0.246	-0.048	
10.415	-0.223	-0.125	
10.420	-0.203	-0.182	
10.425	-0.220	-0.215	
10.430	-0.219	-0.232	
10.435	-0.197	-0.236	
10.440	-0.214	-0.233	
10.445	-0.191	-0.226	
10.450	-0.159	-0.216	
10.455	-0.182	-0.203	
10.460	-0.213	-0.193	
10.465	-0.179	-0.189	
10.470	-0.158	-0.186	
10.475	-0.203	-0.182	
10.480	-0.199	-0.182	
10.485	-0.226	-0.186	
10.490	-0.310	-0.199	
10.495	-0.336	-0.223	
10.500	-0.329	-0.254	
10.505	-0.367	-0.285	
10.510	-0.375	-0.314	
10.515	-0.361	-0.339	
10.520	-0.376	-0.356	
10.525	-0.446	-0.371	
10.530	-0.477	-0.390	
10.535	-0.520	-0.416	
10.540	-0.561	-0.448	
10.545	-0.512	-0.481	
10.550	-0.379	-0.498	
10.555	-0.240	-0.485	
10.560	-0.207	-0.438	
10.565	-0.194	-0.373	
10.570	-0.339	-0.316	
10.575	-0.420	-0.289	
10.580	-0.364	-0.293	
10.585	-0.283	-0.308	
10.590	-0.268	-0.313	
10.595	-0.214	-0.306	
10.600	-0.156	-0.285	
10.605	-0.109	-0.251	
10.610	-0.089	-0.210	
10.615	-0.046	-0.166	
10.620	0.023	-0.121	
10.625	0.038	-0.075	
10.630	0.035	-0.032	
10.635	0.087	0.004	
10.640	0.064	0.033	
10.645	0.131	0.058	
10.650	0.218	0.084	
10.655	0.203	0.117	
10.660	0.198	0.150	
10.665	0.336	0.181	
10.670	0.478	0.226	
10.675	0.531	0.290	
10.680	0.657	0.369	
10.685	0.750	0.460	
10.690	0.776	0.555	
10.695	0.895	0.647	
10.700	1.230	0.748	
10.705	1.928	0.903	
10.710	2.916	1.182	
10.715	3.080	1.601	
10.720	3.078	2.072	
10.725	3.077	2.490	
10.730	3.080	2.804	
10.735	3.083	3.009	
10.740	2.945	3.117	
10.745	2.656	3.131	
10.750	2.372	3.051	
10.755	2.022	2.883	
10.760	1.749	2.645	
10.765	1.608	2.369	
10.770	1.413	2.090	
10.775	1.204	1.828	
10.780	1.104	1.588	
10.785	0.990	1.381	
10.790	0.794	1.203	
10.795	0.678	1.043	
10.800	0.562	0.898	
10.805	0.383	0.761	
10.810	0.264	0.627	
10.815	0.204	0.497	
10.820	0.111	0.377	
10.825	-0.005	0.268	
10.830	-0.081	0.166	
10.835	-0.145	0.071	
10.840	-0.190	-0.015	
10.845	-0.214	-0.089	
10.850	-0.234	-0.148	
10.855	-0.306	-0.195	
10.860	-0.358	-0.238	
10.865	-0.358	-0.279	
10.870	-0.398	-0.315	
10.875	-0.488	-0.351	
10.880	-0.448	-0.387	
10.885	-0.358	-0.414	
10.890	-0.286	-0.418	
10.895	-0.271	-0.398	
10.900	-0.382	-0.371	
10.905	-0.546	-0.362	
10.910	-0.611	-0.387	
10.915	-0.541	-0.434	
10.920	-0.501	-0.479	
10.925	-0.492	-0.506	
10.930	-0.420	-0.514	
10.935	-0.413	-0.504	
10.940	-0.410	-0.482	
10.945	-0.362	-0.456	
10.950	-0.326	-0.426	
10.955	-0.333	-0.395	
10.960	-0.355	-0.369	
10.965	-0.318	-0.351	
10.970	-0.307	-0.337	
10.975	-0.341	-0.327	
10.980	-0.291	-0.321	
10.985	-0.260	-0.313	
10.990	-0.251	-0.300	
10.995	-0.214	-0.284	
11.000	-0.271	-0.267	
11.005	-0.248	-0.256	
11.010	-0.185	-0.247	
11.015	-0.090	-0.230	
11.020	-0.031	-0.197	
11.025	-0.077	-0.155	
11.030	-0.054	-0.117	
11.035	-0.046	-0.087	
11.040	-0.119	-0.069	
11.045	-0.150	-0.067	
11.050	-0.190	-0.082	
11.055	-0.246	-0.110	
11.060	-0.326	-0.150	
11.065	-0.338	-0.199	
11.070	-0.365	-0.249	
11.075	-0.410	-0.296	
11.080	-0.411	-0.338	
11.085	-0.430	-0.373	
11.090	-0.491	-0.403	
11.095	-0.485	-0.430	
11.100	-0.468	-0.454	
11.105	-0.453	-0.468	
11.110	-0.434	-0.472	
11.115	-0.384	-0.465	
11.120	-0.368	-0.449	
11.125	-0.393	-0.427	
11.130	-0.353	-0.408	
11.135	-0.359	-0.390	
11.140	-0.388	-0.377	
11.145	-0.387	-0.371	
11.150	-0.417	-0.373	
11.155	-0.497	-0.384	
11.160	-0.527	-0.408	
11.165	-0.524	-0.440	
11.170	-0.561	-0.474	
11.175	-0.631	-0.508	
11.180	-0.621	-0.543	
11.185	-0.653	-0.577	
11.190	-0.669	-0.607	
11.195	-0.657	-0.632	
11.200	-0.660	-0.650	
11.205	-0.697	-0.662	
11.210	-0.743	-0.675	
11.215	-0.717	-0.690	
11.220	-0.659	-0.701	
11.225	-0.688	-0.703	
11.230	-0.717	-0.701	
11.235	-0.819	-0.706	
11.240	-0.918	-0.730	
11.245	-0.894	-0.770	
11.250	-0.827	-0.811	
11.255	-0.747	-0.833	
11.260	-0.674	-0.829	
11.265	-0.619	-0.799	
11.270	-0.692	-0.757	
11.275	-0.891	-0.730	
11.280	-0.948	-0.740	
11.285	-0.940	-0.780	
11.290	-0.943	-0.830	
11.295	-0.879	-0.872	
11.300	-0.769	-0.892	
11.305	-0.729	-0.882	
11.310	-0.689	-0.849	
11.315	-0.576	-0.800	
11.320	-0.472	-0.735	
11.325	-0.425	-0.657	
11.330	-0.330	-0.574	
11.335	-0.225	-0.487	
11.340	-0.148	-0.398	
11.345	-0.019	-0.305	
11.350	0.127	-0.206	
11.355	0.259	-0.097	
11.360	0.322	0.020	
11.365	0.400	0.133	
11.370	0.453	0.237	
11.375	0.426	0.325	
11.380	0.499	0.391	
11.385	0.466	0.439	
11.390	0.331	0.462	
11.395	0.279	0.454	
11.400	0.243	0.418	
11.405	0.235	0.369	
11.410	0.220	0.320	
11.415	0.243	0.279	
11.420	0.169	0.248	
11.425	0.159	0.221	
11.430	0.276	0.202	
11.435	0.356	0.205	
11.440	0.340	0.229	
11.445	0.353	0.263	
11.450	0.417	0.299	
11.455	0.487	0.338	
11.460	0.510	0.383	
11.465	0.522	0.428	
11.470	0.505	0.466	
11.475	0.438	0.490	
11.480	0.501	0.498	
11.485	0.498	0.499	
11.490	0.420	0.496	
11.495	0.412	0.484	
11.500	0.418	0.465	
11.505	0.376	0.445	
11.510	0.319	0.422	
11.515	0.347	0.395	
11.520	0.405	0.375	
11.525	0.302	0.363	
11.530	0.266	0.349	
11.535	0.379	0.333	
11.540	0.400	0.330	
11.545	0.408	0.341	
11.550	0.438	0.359	
11.555	0.464	0.383	
11.560	0.408	0.406	
11.565	0.405	0.420	
11.570	0.347	0.421	
11.575	0.162	0.402	
11.580	0.217	0.360	
11.585	0.293	0.313	
11.590	0.327	0.285	
11.595	0.446	0.282	
11.600	0.583	0.312	
11.605	0.586	0.371	
11.610	0.586	0.439	
11.615	0.678	0.504	
11.620	0.640	0.562	
11.625	0.524	0.602	
11.630	0.605	0.616	
11.635	0.684	0.620	
11.640	0.658	0.630	
11.645	0.631	0.639	
11.650	0.646	0.645	
11.655	0.629	0.646	
11.660	0.621	0.644	
11.665	0.643	0.640	
11.670	0.715	0.641	
11.675	0.675	0.650	
11.680	0.721	0.663	
11.685	0.817	0.682	
11.690	0.860	0.714	
11.695	0.877	0.756	
11.700	0.889	0.798	
11.705	0.826	0.832	
11.710	0.767	0.848	
11.715	0.701	0.841	
11.720	0.585	0.809	
11.725	0.487	0.753	
11.730	0.386	0.676	
11.735	0.292	0.585	
11.740	0.171	0.485	
11.745	0.137	0.382	
11.750	0.128	0.287	
11.755	0.018	0.206	
11.760	-0.019	0.135	
11.765	0.090	0.079	
11.770	0.159	0.051	
11.775	0.081	0.051	
11.780	0.075	0.059	
11.785	0.088	0.067	
11.790	0.035	0.072	
11.795	0.088	0.072	
11.800	0.149	0.076	
11.805	0.154	0.089	
11.810	0.134	0.106	
11.815	0.148	0.121	
11.820	0.108	0.131	
11.825	0.053	0.131	
11.830	0.033	0.118	
11.835	0.024	0.097	
11.840	-0.054	0.070	
11.845	-0.061	0.037	
11.850	-0.075	0.002	
11.855	-0.109	-0.030	
11.860	-0.148	-0.061	
11.865	-0.103	-0.088	
11.870	-0.072	-0.105	
11.875	-0.066	-0.108	
11.880	-0.051	-0.102	
11.885	-0.060	-0.090	
11.890	-0.064	-0.079	
11.895	0.007	-0.067	
11.900	0.023	-0.050	
11.905	-0.017	-0.031	
11.910	-0.127	-0.022	
11.915	-0.132	-0.032	
11.920	-0.089	-0.053	
11.925	-0.071	-0.072	
11.930	0.018	-0.077	
11.935	0.217	-0.057	
11.940	0.362	0.001	
11.945	0.545	0.098	
11.950	0.709	0.227	
11.955	0.730	0.373	
11.960	0.738	0.510	
11.965	0.744	0.619	
11.970	0.759	0.696	
11.975	0.741	0.744	
11.980	0.802	0.771	
11.985	0.750	0.784	
11.990	0.678	0.784	
11.995	0.764	0.771	
12.000	0.747	0.759	
12.005	0.680	0.748	
12.010	0.634	0.731	
12.015	0.693	0.710	
12.020	0.742	0.696	
12.025	0.680	0.692	
12.030	0.783	0.696	
12.035	0.861	0.713	
12.040	0.776	0.741	
12.045	0.767	0.765	
12.050	0.745	0.776	
12.055	0.640	0.772	
12.060	0.464	0.743	
12.065	0.321	0.678	
12.070	0.076	0.576	
12.075	-0.179	0.433	
12.080	-0.297	0.256	
12.085	-0.394	0.068	
12.090	-0.480	-0.109	
12.095	-0.446	-0.259	
12.100	-0.408	-0.368	
12.105	-0.420	-0.431	
12.110	-0.405	-0.458	
12.115	-0.257	-0.456	
12.120	0.935	-0.370	
12.125	2.308	-0.079	
12.130	3.080	0.477	
12.135	3.083	1.196	
12.140	3.083	1.897	
12.145	3.086	2.461	
12.150	3.019	2.850	
12.155	2.754	3.064	
12.160	2.562	3.115	
12.165	2.383	3.039	
12.170	2.081	2.874	
12.175	1.734	2.645	
12.180	1.498	2.369	
12.185	1.283	2.074	
12.190	0.985	1.779	
12.195	0.823	1.494	
12.200	0.724	1.232	
12.205	0.534	1.006	
12.210	0.295	0.805	
12.215	0.133	0.616	
12.220	0.058	0.438	
12.225	0.009	0.281	
12.230	0.070	0.159	
12.235	0.091	0.081	
12.240	-0.020	0.038	
12.245	-0.141	0.006	
12.250	-0.265	-0.037	
12.255	-0.323	-0.097	
12.260	-0.333	-0.166	
12.265	-0.281	-0.228	
12.270	-0.269	-0.270	
12.275	-0.286	-0.292	
12.280	-0.252	-0.299	
12.285	-0.258	-0.296	
12.290	-0.324	-0.290	
12.295	-0.292	-0.289	
12.300	-0.275	-0.290	
12.305	-0.301	-0.290	
12.310	-0.315	-0.291	
12.315	-0.295	-0.295	
12.320	-0.315	-0.298	
12.325	-0.327	-0.303	
12.330	-0.295	-0.308	
12.335	-0.301	-0.309	
12.340	-0.318	-0.309	
12.345	-0.277	-0.308	
12.350	-0.199	-0.300	
12.355	-0.193	-0.281	
12.360	-0.148	-0.253	
12.365	-0.097	-0.220	
12.370	-0.072	-0.182	
12.375	-0.077	-0.145	
12.380	-0.035	-0.111	
12.385	-0.061	-0.084	
12.390	-0.176	-0.071	
12.395	-0.200	-0.079	
12.400	-0.234	-0.106	
12.405	-0.318	-0.145	
12.410	-0.379	-0.196	
12.415	-0.408	-0.253	
12.420	-0.437	-0.309	
12.425	-0.480	-0.361	
12.430	-0.468	-0.406	
12.435	-0.475	-0.441	
12.440	-0.480	-0.464	
12.445	-0.430	-0.476	
12.450	-0.422	-0.475	
12.455	-0.439	-0.466	
12.460	-0.426	-0.455	
12.465	-0.413	-0.444	
12.470	-0.382	-0.433	
12.475	-0.376	-0.419	
12.480	-0.367	-0.404	
12.485	-0.352	-0.389	
12.490	-0.355	-0.376	
12.495	-0.315	-0.364	
12.500	-0.338	-0.352	
12.505	-0.375	-0.344	
12.510	-0.385	-0.344	
12.515	-0.353	-0.350	
12.520	-0.401	-0.357	
12.525	-0.439	-0.368	
12.530	-0.376	-0.382	
12.535	-0.358	-0.390	
12.540	-0.352	-0.388	
12.545	-0.332	-0.380	
12.550	-0.401	-0.371	
12.555	-0.426	-0.370	
12.560	-0.384	-0.377	
12.565	-0.265	-0.378	
12.570	-0.089	-0.355	
12.575	-0.002	-0.299	
12.580	-0.009	-0.221	
12.585	-0.187	-0.151	
12.590	-0.346	-0.123	
12.595	-0.371	-0.144	
12.600	-0.310	-0.192	
12.605	-0.266	-0.238	
12.610	-0.211	-0.266	
12.615	-0.182	-0.270	
12.620	-0.187	-0.258	
12.625	-0.177	-0.238	
12.630	-0.153	-0.216	
12.635	-0.147	-0.195	
12.640	-0.153	-0.176	
12.645	-0.121	-0.161	
12.650	-0.106	-0.147	
12.655	-0.130	-0.134	
12.660	-0.107	-0.125	
12.665	-0.069	-0.116	
12.670	-0.078	-0.106	
12.675	-0.089	-0.095	
12.680	-0.042	-0.087	
12.685	-0.022	-0.075	
12.690	0.030	-0.058	
12.695	0.146	-0.031	
12.700	0.256	0.015	
12.705	0.221	0.076	
12.710	0.243	0.135	
12.715	0.250	0.183	
12.720	0.172	0.215	
12.725	0.105	0.224	
12.730	0.027	0.206	
12.735	0.009	0.166	
12.740	-0.115	0.113	
12.745	-0.170	0.048	
12.750	-0.203	-0.023	
12.755	-0.265	-0.093	
12.760	-0.304	-0.158	
12.765	-0.300	-0.215	
12.770	-0.344	-0.261	
12.775	-0.382	-0.298	
12.780	-0.350	-0.329	
12.785	-0.355	-0.350	
12.790	-0.417	-0.364	
12.795	-0.381	-0.376	
12.800	-0.341	-0.382	
12.805	-0.344	-0.380	
12.810	-0.358	-0.373	
12.815	-0.349	-0.365	
12.820	-0.356	-0.359	
12.825	-0.361	-0.356	
12.830	-0.326	-0.353	
12.835	-0.370	-0.350	
12.840	-0.517	-0.357	
12.845	-0.679	-0.391	
12.850	-0.993	-0.468	
12.855	-0.993	-0.588	
12.860	-0.995	-0.722	
12.865	-0.993	-0.838	
12.870	-0.995	-0.924	
12.875	-0.995	-0.979	
12.880	-0.995	-1.009	
12.885	-0.995	-1.021	
12.890	-0.993	-1.022	
12.895	-0.993	-1.018	
12.900	-0.995	-1.011	
12.905	-0.899	-1.000	
12.910	-0.760	-0.974	
12.915	-0.679	-0.924	
12.920	-0.688	-0.859	
12.925	-0.747	-0.797	
12.930	-0.663	-0.751	
12.935	-0.564	-0.712	
12.940	-0.462	-0.665	
12.945	-0.313	-0.602	
12.950	-0.208	-0.520	
12.955	-0.141	-0.424	
12.960	-0.052	-0.323	
12.965	0.058	-0.223	
12.970	0.148	-0.123	
12.975	0.201	-0.025	
12.980	0.252	0.065	
12.985	0.382	0.147	
12.990	0.415	0.226	
12.995	0.516	0.303	
13.000	0.618	0.380	
13.005	0.589	0.456	
13.010	0.654	0.522	
13.015	0.758	0.581	
13.020	0.838	0.641	
13.025	0.826	0.703	
13.030	0.893	0.760	
13.035	1.052	0.817	
13.040	1.074	0.882	
13.045	1.133	0.951	
13.050	1.124	1.015	
13.055	1.091	1.066	
13.060	1.048	1.095	
13.065	1.095	1.105	
13.070	1.058	1.104	
13.075	0.967	1.093	
13.080	0.829	1.062	
13.085	0.770	1.007	
13.090	0.632	0.933	
13.095	0.550	0.843	
13.100	0.486	0.746	
13.105	0.440	0.651	
13.110	0.354	0.563	
13.115	0.400	0.488	
13.120	0.482	0.436	
13.125	0.501	0.416	
13.130	0.534	0.423	
13.135	0.528	0.445	
13.140	0.482	0.469	
13.145	0.498	0.486	
13.150	0.460	0.495	
13.155	0.397	0.491	
13.160	0.441	0.477	
13.165	0.466	0.462	
13.170	0.449	0.454	
13.175	0.412	0.448	
13.180	0.330	0.436	
13.185	0.334	0.415	
13.190	0.264	0.386	
13.195	0.340	0.356	
13.200	0.314	0.334	
13.205	0.246	0.317	
13.210	0.276	0.300	
13.215	0.310	0.288	
13.220	0.319	0.285	
13.225	0.258	0.286	
13.230	0.275	0.285	
13.235	0.284	0.283	
13.240	0.269	0.280	
13.245	0.394	0.284	
13.250	0.440	0.302	
13.255	0.328	0.329	
13.260	0.160	0.340	
13.265	0.070	0.315	
13.270	0.130	0.265	
13.275	0.160	0.214	
13.280	0.305	0.184	
13.285	0.409	0.190	
13.290	0.437	0.230	
13.295	0.554	0.292	
13.300	0.525	0.364	
13.305	0.489	0.429	
13.310	0.490	0.473	
13.315	0.562	0.502	
13.320	0.554	0.523	
13.325	0.489	0.537	
13.330	0.501	0.538	
13.335	0.515	0.532	
13.340	0.473	0.523	
13.345	0.547	0.515	
13.350	0.597	0.516	
13.355	0.550	0.527	
13.360	0.525	0.537	
13.365	0.531	0.542	
13.370	0.582	0.544	
13.375	0.634	0.552	
13.380	0.715	0.573	
13.385	0.728	0.606	
13.390	0.649	0.640	
13.395	0.672	0.664	
13.400	0.599	0.672	
13.405	0.496	0.662	
13.410	0.427	0.627	
13.415	0.374	0.574	
13.420	0.264	0.509	
13.425	0.128	0.430	
13.430	0.026	0.337	
13.435	-0.009	0.237	
13.440	-0.045	0.142	
13.445	-0.032	0.064	
13.450	-0.025	0.007	
13.455	-0.052	-0.029	
13.460	-0.042	-0.049	
13.465	0.030	-0.054	
13.470	0.027	-0.045	
13.475	0.015	-0.027	
13.480	0.090	-0.007	
13.485	0.124	0.019	
13.490	0.050	0.046	
13.495	0.017	0.062	
13.500	0.087	0.066	
13.505	0.052	0.067	
13.510	0.076	0.068	
13.515	0.059	0.067	
13.520	0.003	0.064	
13.525	-0.038	0.052	
13.530	-0.019	0.032	
13.535	-0.009	0.012	
13.540	-0.057	-0.004	
13.545	-0.090	-0.021	
13.550	-0.113	-0.042	
13.555	-0.090	-0.063	
13.560	-0.049	-0.078	
13.565	0.001	-0.079	
13.570	-0.026	-0.069	
13.575	-0.084	-0.057	
13.580	-0.055	-0.052	
13.585	0.021	-0.048	
13.590	0.033	-0.037	
13.595	0.055	-0.017	
13.600	0.185	0.010	
13.605	0.698	0.074	
13.610	1.668	0.241	
13.615	2.786	0.594	
13.620	3.081	1.134	
13.625	3.080	1.745	
13.630	3.078	2.292	
13.635	3.078	2.706	
13.640	3.083	2.979	
13.645	3.084	3.132	
13.650	2.989	3.194	
13.655	2.663	3.176	
13.660	2.446	3.077	
13.665	2.288	2.915	
13.670	2.047	2.716	
13.675	1.813	2.495	
13.680	1.578	2.260	
13.685	1.392	2.021	
13.690	1.115	1.783	
13.695	1.020	1.551	
13.700	0.948	1.340	
13.705	0.813	1.161	
13.710	0.754	1.012	
13.715	0.738	0.894	
13.720	0.654	0.803	
13.725	0.563	0.731	
13.730	0.527	0.667	
13.735	0.434	0.607	
13.740	0.223	0.540	
13.745	0.082	0.452	
13.750	-0.008	0.343	
13.755	-0.118	0.223	
13.760	-0.193	0.103	
13.765	-0.257	-0.010	
13.770	-0.341	-0.112	
13.775	-0.425	-0.205	
13.780	-0.431	-0.287	
13.785	-0.420	-0.354	
13.790	-0.453	-0.400	
13.795	-0.445	-0.431	
13.800	-0.468	-0.450	
13.805	-0.491	-0.463	
13.810	-0.462	-0.472	
13.815	-0.449	-0.475	
13.820	-0.468	-0.473	
13.825	-0.471	-0.471	
13.830	-0.462	-0.469	
13.835	-0.460	-0.467	
13.840	-0.443	-0.464	
13.845	-0.419	-0.459	
13.850	-0.433	-0.450	
13.855	-0.471	-0.444	
13.860	-0.474	-0.444	
13.865	-0.474	-0.450	
13.870	-0.486	-0.457	
13.875	-0.501	-0.467	
13.880	-0.504	-0.477	
13.885	-0.517	-0.488	
13.890	-0.546	-0.499	
13.895	-0.524	-0.511	
13.900	-0.486	-0.518	
13.905	-0.518	-0.519	
13.910	-0.550	-0.520	
13.915	-0.491	-0.521	
13.920	-0.443	-0.517	
13.925	-0.375	-0.500	
13.930	-0.336	-0.470	
13.935	-0.315	-0.432	
13.940	-0.401	-0.396	
13.945	-0.466	-0.378	
13.950	-0.465	-0.383	
13.955	-0.457	-0.400	
13.960	-0.382	-0.416	
13.965	-0.329	-0.418	
13.970	-0.297	-0.404	
13.975	-0.286	-0.378	
13.980	-0.252	-0.347	
13.985	-0.220	-0.315	
13.990	-0.245	-0.284	
13.995	-0.229	-0.260	
14.000	-0.214	-0.242	
14.005	-0.216	-0.229	
14.010	-0.174	-0.218	
14.015	-0.148	-0.206	
14.020	-0.173	-0.191	
14.025	-0.193	-0.180	
14.030	-0.152	-0.175	
14.035	-0.075	-0.166	
14.040	-0.063	-0.148	
14.045	0.017	-0.120	
14.050	0.105	-0.081	
14.055	0.085	-0.032	
14.060	0.189	0.019	
14.065	0.255	0.074	
14.070	0.258	0.131	
14.075	0.218	0.181	
14.080	0.263	0.216	
14.085	0.168	0.236	
14.090	0.033	0.231	
14.095	-0.035	0.195	
14.100	-0.081	0.136	
14.105	-0.173	0.065	
14.110	-0.225	-0.012	
14.115	-0.263	-0.089	
14.120	-0.330	-0.160	
14.125	-0.368	-0.225	
14.130	-0.378	-0.282	
14.135	-0.347	-0.326	
14.140	-0.358	-0.353	
14.145	-0.324	-0.366	
14.150	-0.330	-0.366	
14.155	-0.342	-0.360	
14.160	-0.310	-0.351	
14.165	-0.281	-0.340	
14.170	-0.262	-0.324	
14.175	-0.257	-0.305	
14.180	-0.220	-0.286	
14.185	-0.223	-0.266	
14.190	-0.245	-0.249	
14.195	-0.240	-0.239	
14.200	-0.240	-0.234	
14.205	-0.274	-0.235	
14.210	-0.266	-0.240	
14.215	-0.265	-0.248	
14.220	-0.262	-0.255	
14.225	-0.289	-0.261	
14.230	-0.268	-0.267	
14.235	-0.295	-0.272	
14.240	-0.283	-0.277	
14.245	-0.245	-0.279	
14.250	-0.220	-0.275	
14.255	-0.271	-0.266	
14.260	-0.286	-0.261	
14.265	-0.200	-0.258	
14.270	-0.069	-0.244	
14.275	0.033	-0.206	
14.280	0.056	-0.147	
14.285	-0.116	-0.090	
14.290	-0.252	-0.064	
14.295	-0.234	-0.080	
14.300	-0.196	-0.115	
14.305	-0.174	-0.148	
14.310	-0.092	-0.166	
14.315	0.015	-0.160	
14.320	0.035	-0.129	
14.325	0.007	-0.086	
14.330	0.018	-0.045	
14.335	0.067	-0.012	
14.340	0.010	0.014	
14.345	0.050	0.031	
14.350	0.076	0.042	
14.355	0.091	0.053	
14.360	0.116	0.066	
14.365	0.128	0.081	
14.370	0.120	0.096	
14.375	0.120	0.109	
14.380	0.146	0.118	
14.385	0.214	0.130	
14.390	0.250	0.150	
14.395	0.351	0.181	
14.400	0.414	0.226	
14.405	0.379	0.278	
14.410	0.437	0.327	
14.415	0.492	0.371	
14.420	0.502	0.413	
14.425	0.402	0.445	
14.430	0.374	0.456	
14.435	0.227	0.441	
14.440	0.053	0.393	
14.445	-0.005	0.312	
14.450	-0.075	0.213	
14.455	-0.174	0.110	
14.460	-0.207	0.010	
14.465	-0.216	-0.078	
14.470	-0.226	-0.147	
14.475	-0.257	-0.196	
14.480	-0.277	-0.231	
14.485	-0.260	-0.255	
14.490	-0.262	-0.269	
14.495	-0.223	-0.272	
14.500	-0.179	-0.265	
14.505	-0.171	-0.247	
14.510	-0.156	-0.224	
14.515	-0.141	-0.200	
14.520	-0.158	-0.179	
14.525	-0.187	-0.165	
14.530	-0.147	-0.159	
14.535	-0.139	-0.155	
14.540	-0.162	-0.152	
14.545	-0.177	-0.152	
14.550	-0.216	-0.158	
14.555	-0.249	-0.171	
14.560	-0.223	-0.189	
14.565	-0.197	-0.204	
14.570	-0.226	-0.213	
14.575	-0.232	-0.219	
14.580	-0.239	-0.224	
14.585	-0.208	-0.228	
14.590	-0.188	-0.226	
14.595	-0.207	-0.220	
14.600	-0.222	-0.215	
14.605	-0.232	-0.213	
14.610	-0.152	-0.212	
14.615	-0.074	-0.200	
14.620	-0.087	-0.175	
14.625	-0.226	-0.153	
14.630	-0.310	-0.152	
14.635	-0.323	-0.178	
14.640	-0.292	-0.216	
14.645	-0.226	-0.247	
14.650	-0.121	-0.256	
14.655	-0.100	-0.240	
14.660	-0.069	-0.205	
14.665	-0.115	-0.167	
14.670	-0.084	-0.135	
14.675	-0.034	-0.109	
14.680	-0.026	-0.084	
14.685	-0.013	-0.061	
14.690	-0.006	-0.041	
14.695	0.047	-0.023	
14.700	0.096	-0.001	
14.705	0.093	0.025	
14.710	0.130	0.052	
14.715	0.154	0.079	
14.720	0.220	0.108	
14.725	0.385	0.148	
14.730	0.504	0.209	
14.735	0.592	0.292	
14.740	0.683	0.388	
14.745	0.828	0.492	
14.750	0.803	0.598	
14.755	0.747	0.686	
14.760	0.811	0.746	
14.765	0.814	0.785	
14.770	0.742	0.806	
14.775	0.620	0.802	
14.780	0.559	0.769	
14.785	0.443	0.712	
14.790	0.203	0.628	
14.795	0.206	0.520	
14.800	0.224	0.409	
14.805	0.090	0.314	
14.810	0.073	0.231	
14.815	0.000	0.158	
14.820	-0.035	0.095	
14.825	0.010	0.044	
14.830	0.020	0.011	
14.835	0.088	-0.001	
14.840	0.064	0.005	
14.845	0.059	0.020	
14.850	0.070	0.035	
14.855	0.047	0.048	
14.860	-0.013	0.052	
14.865	0.021	0.046	
14.870	0.027	0.038	
14.875	-0.011	0.030	
14.880	0.017	0.021	
14.885	-0.048	0.012	
14.890	-0.087	-0.003	
14.895	-0.089	-0.024	
14.900	-0.112	-0.047	
14.905	-0.161	-0.072	
14.910	-0.156	-0.098	
14.915	-0.109	-0.119	
14.920	-0.098	-0.130	
14.925	-0.144	-0.132	
14.930	-0.148	-0.133	
14.935	-0.152	-0.136	
14.940	-0.177	-0.142	
14.945	-0.122	-0.147	
14.950	-0.089	-0.147	
14.955	-0.101	-0.138	
14.960	-0.130	-0.127	
14.965	-0.197	-0.124	
14.970	-0.252	-0.136	
14.975	-0.266	-0.161	
14.980	-0.203	-0.189	
14.985	-0.156	-0.207	
14.990	-0.115	-0.206	
14.995	-0.038	-0.187	
15.000	0.116	-0.147	
15.005	0.061	-0.088	
15.010	-0.005	-0.032	
15.015	0.030	0.005	
15.020	0.046	0.027	
15.025	0.056	0.041	
15.030	0.058	0.050	
15.035	0.046	0.056	
15.040	0.056	0.057	
15.045	0.073	0.058	
15.050	0.039	0.059	
15.055	-0.003	0.056	
15.060	0.038	0.047	
15.065	0.149	0.044	
15.070	0.195	0.059	
15.075	0.238	0.092	
15.080	0.336	0.137	
15.085	0.342	0.192	
15.090	0.308	0.245	
15.095	0.351	0.286	
15.100	0.380	0.318	
15.105	0.252	0.337	
15.110	0.206	0.335	
15.115	0.201	0.312	
15.120	0.137	0.278	
15.125	0.058	0.234	
15.130	-0.035	0.179	
15.135	-0.097	0.114	
15.140	-0.162	0.043	
15.145	-0.148	-0.026	
15.150	-0.139	-0.083	
15.155	-0.199	-0.124	
15.160	-0.187	-0.155	
15.165	-0.150	-0.175	
15.170	-0.155	-0.182	
15.175	-0.153	-0.180	
15.180	-0.141	-0.174	
15.185	-0.124	-0.164	
15.190	-0.139	-0.154	
15.195	-0.109	-0.144	
15.200	-0.116	-0.134	
15.205	-0.129	-0.126	
15.210	-0.118	-0.122	
15.215	-0.100	-0.119	
15.220	-0.150	-0.117	
15.225	-0.165	-0.120	
15.230	-0.167	-0.130	
15.235	-0.150	-0.140	
15.240	-0.164	-0.149	
15.245	-0.179	-0.156	
15.250	-0.190	-0.163	
15.255	-0.179	-0.171	
15.260	-0.197	-0.177	
15.265	-0.185	-0.183	
15.270	-0.197	-0.187	
15.275	-0.170	-0.189	
15.280	-0.122	-0.186	
15.285	-0.122	-0.175	
15.290	-0.127	-0.160	
15.295	-0.055	-0.143	
15.300	-0.026	-0.120	
15.305	-0.080	-0.096	
15.310	-0.144	-0.081	
15.315	-0.152	-0.083	
15.320	-0.133	-0.095	
15.325	-0.100	-0.108	
15.330	0.024	-0.108	
15.335	0.130	-0.085	
15.340	0.104	-0.040	
15.345	0.197	0.014	
15.350	0.304	0.075	
15.355	0.293	0.142	
15.360	0.282	0.203	
15.365	0.285	0.248	
15.370	0.211	0.273	
15.375	0.288	0.281	
15.380	0.403	0.288	
15.385	0.374	0.306	
15.390	0.330	0.327	
15.395	0.397	0.343	
15.400	0.406	0.358	
15.405	0.353	0.371	
15.410	0.398	0.379	
15.415	0.519	0.390	
15.420	0.562	0.415	
15.425	0.614	0.456	
15.430	0.657	0.504	
15.435	0.632	0.553	
15.440	0.667	0.594	
15.445	0.695	0.628	
15.450	0.632	0.653	
15.455	0.550	0.660	
15.460	0.495	0.645	
15.465	0.411	0.608	
15.470	0.282	0.552	
15.475	0.116	0.472	
15.480	0.036	0.372	
15.485	0.065	0.265	
15.490	0.021	0.173	
15.495	0.020	0.101	
15.500	0.104	0.055	
15.505	0.061	0.035	
15.510	0.062	0.032	
15.515	0.065	0.037	
15.520	0.108	0.046	
15.525	0.152	0.062	
15.530	0.212	0.087	
15.535	0.240	0.121	
15.540	0.188	0.156	
15.545	0.154	0.180	
15.550	0.189	0.190	
15.555	0.152	0.192	
15.560	0.166	0.187	
15.565	0.191	0.182	
15.570	0.159	0.178	
15.575	0.044	0.169	
15.580	0.003	0.145	
15.585	0.055	0.111	
15.590	-0.013	0.078	
15.595	-0.034	0.048	
15.600	-0.011	0.020	
15.605	-0.025	-0.001	
15.610	-0.077	-0.018	
15.615	-0.095	-0.035	
15.620	-0.068	-0.053	
15.625	-0.055	-0.065	
15.630	-0.045	-0.069	
15.635	-0.025	-0.066	
15.640	0.058	-0.054	
15.645	0.113	-0.029	
15.650	0.061	0.005	
15.655	-0.081	0.027	
15.660	-0.103	0.024	
15.665	-0.080	0.001	
15.670	-0.017	-0.023	
15.675	0.097	-0.032	
15.680	0.204	-0.012	
15.685	0.278	0.036	
15.690	0.246	0.099	
15.695	0.279	0.160	
15.700	0.288	0.211	
15.705	0.236	0.248	
15.710	0.232	0.266	
15.715	0.278	0.271	
15.720	0.311	0.274	
15.725	0.308	0.281	
15.730	0.292	0.289	
15.735	0.282	0.293	
15.740	0.197	0.290	
15.745	0.189	0.275	
15.750	0.311	0.258	
15.755	0.250	0.251	
15.760	0.313	0.253	
15.765	0.464	0.269	
15.770	0.487	0.307	
15.775	0.475	0.357	
15.780	0.510	0.406	
15.785	0.534	0.449	
15.790	0.458	0.481	
15.795	0.388	0.493	
15.800	0.333	0.480	
15.805	0.208	0.443	
15.810	0.151	0.385	
15.815	0.059	0.311	
15.820	-0.064	0.227	
15.825	-0.126	0.135	
15.830	-0.130	0.044	
15.835	-0.171	-0.034	
15.840	-0.197	-0.098	
15.845	-0.202	-0.146	
15.850	-0.213	-0.181	
15.855	-0.225	-0.203	
15.860	-0.177	-0.216	
15.865	-0.171	-0.217	
15.870	-0.171	-0.209	
15.875	-0.167	-0.198	
15.880	-0.159	-0.187	
15.885	-0.133	-0.175	
15.890	-0.130	-0.163	
15.895	-0.124	-0.151	
15.900	-0.130	-0.140	
15.905	-0.138	-0.133	
15.910	-0.147	-0.131	
15.915	-0.144	-0.132	
15.920	-0.182	-0.137	
15.925	-0.242	-0.148	
15.930	-0.210	-0.167	
15.935	-0.181	-0.184	
15.940	-0.210	-0.195	
15.945	-0.220	-0.202	
15.950	-0.196	-0.207	
15.955	-0.208	-0.209	
15.960	-0.211	-0.210	
15.965	-0.226	-0.211	
15.970	-0.232	-0.214	
15.975	-0.231	-0.218	
15.980	-0.161	-0.220	
15.985	-0.058	-0.208	
15.990	-0.055	-0.179	
15.995	-0.069	-0.143	
16.000	-0.223	-0.118	
16.005	-0.275	-0.120	
16.010	-0.210	-0.145	
16.015	-0.142	-0.169	
16.020	-0.100	-0.177	
16.025	-0.058	-0.166	
16.030	-0.032	-0.142	
16.035	-0.043	-0.112	
16.040	-0.025	-0.083	
16.045	-0.009	-0.058	
16.050	-0.020	-0.038	
16.055	-0.026	-0.025	
16.060	-0.003	-0.017	
16.065	0.039	-0.010	
16.070	0.027	0.000	
16.075	0.072	0.013	
16.080	0.142	0.031	
16.085	0.120	0.056	
16.090	0.133	0.082	
16.095	0.181	0.106	
16.100	0.266	0.133	
16.105	0.249	0.166	
16.110	0.354	0.203	
16.115	0.415	0.247	
16.120	0.498	0.301	
16.125	0.510	0.361	
16.130	0.534	0.418	
16.135	0.499	0.465	
16.140	0.420	0.492	
16.145	0.362	0.493	
16.150	0.162	0.463	
16.155	0.065	0.397	
16.160	-0.003	0.305	
16.165	-0.057	0.203	
16.170	-0.136	0.104	
16.175	-0.196	0.012	
16.180	-0.185	-0.068	
16.185	-0.196	-0.131	
16.190	-0.213	-0.173	
16.195	-0.220	-0.201	
16.200	-0.223	-0.218	
16.205	-0.229	-0.228	
16.210	-0.197	-0.231	
16.215	-0.145	-0.225	
16.220	-0.162	-0.211	
16.225	-0.132	-0.193	
16.230	-0.116	-0.173	
16.235	-0.109	-0.154	
16.240	-0.113	-0.136	
16.245	-0.107	-0.123	
16.250	-0.113	-0.114	
16.255	-0.144	-0.111	
16.260	-0.179	-0.115	
16.265	-0.188	-0.128	
16.270	-0.239	-0.147	
16.275	-0.211	-0.170	
16.280	-0.193	-0.189	
16.285	-0.234	-0.202	
16.290	-0.257	-0.213	
16.295	-0.210	-0.224	
16.300	-0.170	-0.227	
16.305	-0.203	-0.221	
16.310	-0.225	-0.214	
16.315	-0.255	-0.213	
16.320	-0.219	-0.218	
16.325	-0.106	-0.216	
16.330	0.091	-0.191	
16.335	0.157	-0.133	
16.340	0.076	-0.058	
16.345	-0.135	-0.002	
16.350	-0.219	0.007	
16.355	-0.243	-0.028	
16.360	-0.168	-0.080	
16.365	-0.141	-0.124	
16.370	-0.103	-0.148	
16.375	-0.049	-0.151	
16.380	0.006	-0.134	
16.385	0.032	-0.101	
16.390	0.000	-0.063	
16.395	0.009	-0.031	
16.400	0.027	-0.007	
16.405	0.052	0.011	
16.410	0.122	0.030	
16.415	0.061	0.050	
16.420	0.072	0.065	
16.425	0.174	0.078	
16.430	0.218	0.099	
16.435	0.238	0.131	
16.440	0.218	0.164	
16.445	0.266	0.194	
16.450	0.348	0.223	
16.455	0.429	0.260	
16.460	0.525	0.311	
16.465	0.528	0.371	
16.470	0.460	0.426	
16.475	0.519	0.465	
16.480	0.556	0.494	
16.485	0.482	0.514	
16.490	0.350	0.515	
16.495	0.232	0.486	
16.500	0.130	0.426	
16.505	-0.005	0.340	
16.510	-0.054	0.238	
16.515	-0.109	0.134	
16.520	-0.142	0.039	
16.525	-0.194	-0.042	
16.530	-0.184	-0.107	
16.535	-0.205	-0.155	
16.540	-0.252	-0.189	
16.545	-0.240	-0.214	
16.550	-0.210	-0.231	
16.555	-0.196	-0.236	
16.560	-0.145	-0.229	
16.565	-0.129	-0.212	
16.570	-0.142	-0.190	
16.575	-0.121	-0.168	
16.580	-0.116	-0.150	
16.585	-0.142	-0.136	
16.590	-0.161	-0.130	
16.595	-0.126	-0.130	
16.600	-0.133	-0.131	
16.605	-0.167	-0.134	
16.610	-0.176	-0.140	
16.615	-0.182	-0.149	
16.620	-0.208	-0.161	
16.625	-0.246	-0.176	
16.630	-0.234	-0.194	
16.635	-0.234	-0.211	
16.640	-0.255	-0.224	
16.645	-0.258	-0.236	
16.650	-0.248	-0.245	
16.655	-0.286	-0.252	
16.660	-0.306	-0.261	
16.665	-0.297	-0.273	
16.670	-0.255	-0.281	
16.675	-0.190	-0.279	
16.680	-0.176	-0.264	
16.685	-0.291	-0.247	
16.690	-0.405	-0.246	
16.695	-0.420	-0.270	
16.700	-0.375	-0.307	
16.705	-0.333	-0.338	
16.710	-0.306	-0.353	
16.715	-0.246	-0.350	
16.720	-0.205	-0.330	
16.725	-0.161	-0.297	
16.730	-0.127	-0.256	
16.735	-0.075	-0.212	
16.740	0.041	-0.161	
16.745	0.131	-0.101	
16.750	0.278	-0.025	
16.755	0.288	0.061	
16.760	0.321	0.147	
16.765	0.437	0.225	
16.770	0.484	0.299	
16.775	0.533	0.370	
16.780	0.486	0.430	
16.785	0.481	0.472	
16.790	0.528	0.497	
16.795	0.634	0.517	
16.800	0.790	0.551	
16.805	0.814	0.606	
16.810	0.816	0.670	
16.815	0.786	0.727	
16.820	0.696	0.763	
16.825	0.577	0.767	
16.830	0.513	0.737	
16.835	0.463	0.681	
16.840	0.386	0.612	
16.845	0.252	0.534	
16.850	0.166	0.446	
16.855	-0.042	0.345	
16.860	-0.090	0.232	
16.865	-0.106	0.118	
16.870	-0.162	0.019	
16.875	-0.181	-0.062	
16.880	-0.139	-0.120	
16.885	-0.130	-0.154	
16.890	-0.141	-0.167	
16.895	-0.126	-0.168	
16.900	-0.136	-0.161	
16.905	-0.156	-0.154	
16.910	-0.126	-0.148	
16.915	-0.136	-0.143	
16.920	-0.174	-0.141	
16.925	-0.181	-0.144	
16.930	-0.181	-0.152	
16.935	-0.171	-0.161	
16.940	-0.194	-0.169	
16.945	-0.193	-0.176	
16.950	-0.193	-0.183	
16.955	-0.258	-0.191	
16.960	-0.295	-0.206	
16.965	-0.295	-0.228	
16.970	-0.301	-0.252	
16.975	-0.320	-0.273	
16.980	-0.301	-0.290	
16.985	-0.307	-0.302	
16.990	-0.301	-0.308	
16.995	-0.291	-0.310	
17.000	-0.281	-0.307	
17.005	-0.300	-0.302	
17.010	-0.237	-0.296	
17.015	-0.171	-0.281	
17.020	-0.197	-0.258	
17.025	-0.217	-0.236	
17.030	-0.280	-0.223	
17.035	-0.327	-0.226	
17.040	-0.344	-0.245	
17.045	-0.317	-0.271	
17.050	-0.203	-0.288	
17.055	-0.152	-0.284	
17.060	-0.061	-0.255	
17.065	-0.025	-0.208	
17.070	-0.061	-0.154	
17.075	-0.048	-0.108	
17.080	-0.032	-0.075	
17.085	-0.032	-0.051	
17.090	-0.086	-0.038	
17.095	-0.063	-0.037	
17.100	-0.068	-0.043	
17.105	-0.045	-0.049	
17.110	-0.040	-0.052	
17.115	0.020	-0.049	
17.120	0.012	-0.038	
17.125	-0.014	-0.024	
17.130	-0.013	-0.014	
17.135	-0.023	-0.009	
17.140	-0.019	-0.009	
17.145	-0.029	-0.011	
17.150	-0.071	-0.017	
17.155	-0.144	-0.031	
17.160	-0.109	-0.054	
17.165	-0.043	-0.074	
17.170	-0.072	-0.082	
17.175	-0.081	-0.084	
17.180	-0.089	-0.084	
17.185	-0.126	-0.086	
17.190	-0.177	-0.095	
17.195	-0.190	-0.113	
17.200	-0.197	-0.136	
17.205	-0.245	-0.160	
17.210	-0.303	-0.188	
17.215	-0.303	-0.220	
17.220	-0.271	-0.250	
17.225	-0.255	-0.269	
17.230	-0.243	-0.276	
17.235	-0.251	-0.274	
17.240	-0.352	-0.274	
17.245	-0.459	-0.288	
17.250	-0.520	-0.324	
17.255	-0.576	-0.378	
17.260	-0.581	-0.439	
17.265	-0.555	-0.493	
17.270	-0.555	-0.533	
17.275	-0.533	-0.555	
17.280	-0.460	-0.560	
17.285	-0.425	-0.546	
17.290	-0.420	-0.518	
17.295	-0.384	-0.484	
17.300	-0.342	-0.449	
17.305	-0.359	-0.415	
17.310	-0.297	-0.384	
17.315	-0.232	-0.353	
17.320	-0.207	-0.317	
17.325	-0.184	-0.279	
17.330	-0.150	-0.242	
17.335	-0.122	-0.207	
17.340	-0.113	-0.176	
17.345	-0.101	-0.148	
17.350	-0.083	-0.126	
17.355	-0.034	-0.105	
17.360	0.120	-0.077	
17.365	0.194	-0.031	
17.370	0.122	0.027	
17.375	-0.045	0.068	
17.380	-0.022	0.077	
17.385	0.059	0.065	
17.390	0.134	0.058	
17.395	0.282	0.072	
17.400	0.411	0.117	
17.405	0.392	0.186	
17.410	0.463	0.263	
17.415	0.513	0.336	
17.420	0.484	0.401	
17.425	0.482	0.450	
17.430	0.516	0.481	
17.435	0.512	0.502	
17.440	0.510	0.513	
17.445	0.614	0.524	
17.450	0.673	0.543	
17.455	0.644	0.573	
17.460	0.710	0.605	
17.465	0.814	0.642	
17.470	0.870	0.690	
17.475	0.958	0.748	
17.480	1.089	0.817	
17.485	1.171	0.899	
17.490	1.201	0.987	
17.495	1.271	1.072	
17.500	1.329	1.150	
17.505	1.256	1.215	
17.510	1.231	1.257	
17.515	1.277	1.276	
17.520	1.213	1.280	
17.525	1.214	1.273	
17.530	1.187	1.257	
17.535	1.084	1.233	
17.540	0.878	1.189	
17.545	0.768	1.114	
17.550	0.681	1.015	
17.555	0.576	0.903	
17.560	0.693	0.798	
17.565	0.890	0.731	
17.570	0.831	0.716	
17.575	0.640	0.723	
17.580	0.285	0.704	
17.585	-0.057	0.618	
17.590	-0.171	0.461	
17.595	0.402	0.300	
17.600	1.318	0.255	
17.605	1.835	0.410	
17.610	2.099	0.738	
17.615	2.177	1.142	
17.620	1.992	1.519	
17.625	1.833	1.793	
17.630	1.784	1.940	
17.635	1.628	1.979	
17.640	1.424	1.931	
17.645	1.303	1.818	
17.650	1.124	1.664	
17.655	0.849	1.485	
17.660	0.758	1.288	
17.665	0.693	1.094	
17.670	0.585	0.923	
17.675	0.518	0.778	
17.680	0.464	0.660	
17.685	0.398	0.565	
17.690	0.218	0.482	
17.695	0.146	0.398	
17.700	0.124	0.312	
17.705	0.148	0.237	
17.710	0.217	0.186	
17.715	0.191	0.162	
17.720	-0.006	0.148	
17.725	-0.133	0.116	
17.730	-0.145	0.059	
17.735	-0.129	-0.005	
17.740	-0.118	-0.060	
17.745	-0.043	-0.094	
17.750	0.012	-0.103	
17.755	0.001	-0.089	
17.760	-0.005	-0.065	
17.765	0.024	-0.041	
17.770	-0.020	-0.020	
17.775	-0.063	-0.010	
17.780	-0.034	-0.011	
17.785	-0.049	-0.018	
17.790	-0.052	-0.027	
17.795	-0.031	-0.035	
17.800	-0.026	-0.038	
17.805	-0.060	-0.040	
17.810	-0.069	-0.043	
17.815	-0.031	-0.047	
17.820	-0.058	-0.049	
17.825	-0.025	-0.049	
17.830	0.033	-0.043	
17.835	0.094	-0.026	
17.840	0.096	0.002	
17.845	0.146	0.035	
17.850	0.124	0.069	
17.855	0.067	0.094	
17.860	0.091	0.105	
17.865	0.078	0.106	
17.870	-0.045	0.096	
17.875	-0.107	0.068	
17.880	-0.174	0.022	
17.885	-0.242	-0.037	
17.890	-0.310	-0.104	
17.895	-0.309	-0.172	
17.900	-0.289	-0.229	
17.905	-0.323	-0.271	
17.910	-0.347	-0.301	
17.915	-0.353	-0.323	
17.920	-0.399	-0.342	
17.925	-0.355	-0.357	
17.930	-0.329	-0.365	
17.935	-0.294	-0.362	
17.940	-0.289	-0.349	
17.945	-0.251	-0.330	
17.950	-0.232	-0.307	
17.955	-0.255	-0.284	
17.960	-0.263	-0.267	
17.965	-0.245	-0.256	
17.970	-0.266	-0.251	
17.975	-0.262	-0.250	
17.980	-0.277	-0.252	
17.985	-0.300	-0.258	
17.990	-0.304	-0.268	
17.995	-0.283	-0.279	
18.000	-0.263	-0.284	
18.005	-0.310	-0.287	
18.010	-0.330	-0.291	
18.015	-0.303	-0.298	
18.020	-0.312	-0.304	
18.025	-0.286	-0.307	
18.030	-0.281	-0.305	
18.035	-0.321	-0.302	
18.040	-0.330	-0.303	
18.045	-0.329	-0.308	
18.050	-0.268	-0.311	
18.055	-0.150	-0.302	
18.060	-0.084	-0.272	
18.065	-0.121	-0.227	
18.070	-0.262	-0.191	
18.075	-0.304	-0.181	
18.080	-0.263	-0.195	
18.085	-0.190	-0.213	
18.090	-0.168	-0.220	
18.095	-0.116	-0.213	
18.100	-0.083	-0.192	
18.105	-0.089	-0.163	
18.110	-0.074	-0.135	
18.115	-0.034	-0.108	
18.120	-0.077	-0.085	
18.125	-0.060	-0.070	
18.130	-0.074	-0.062	
18.135	-0.023	-0.057	
18.140	0.010	-0.049	
18.145	0.046	-0.034	
18.150	0.090	-0.012	
18.155	0.070	0.015	
18.160	0.111	0.041	
18.165	0.194	0.069	
18.170	0.215	0.103	
18.175	0.275	0.142	
18.180	0.372	0.187	
18.185	0.469	0.244	
18.190	0.516	0.311	
18.195	0.583	0.383	
18.200	0.617	0.453	
18.205	0.515	0.512	
18.210	0.479	0.545	
18.215	0.391	0.546	
18.220	0.229	0.515	
18.225	0.029	0.445	
18.230	-0.020	0.341	
18.235	-0.058	0.223	
18.240	-0.129	0.112	
18.245	-0.184	0.014	
18.250	-0.194	-0.069	
18.255	-0.222	-0.134	
18.260	-0.242	-0.181	
18.265	-0.216	-0.214	
18.270	-0.214	-0.231	
18.275	-0.202	-0.236	
18.280	-0.196	-0.233	
18.285	-0.196	-0.224	
18.290	-0.176	-0.214	
18.295	-0.115	-0.200	
18.300	-0.092	-0.179	
18.305	-0.135	-0.156	
18.310	-0.141	-0.139	
18.315	-0.135	-0.130	
18.320	-0.145	-0.128	
18.325	-0.116	-0.128	
18.330	-0.101	-0.126	
18.335	-0.141	-0.124	
18.340	-0.179	-0.125	
18.345	-0.142	-0.133	
18.350	-0.161	-0.141	
18.355	-0.202	-0.149	
18.360	-0.161	-0.159	
18.365	-0.136	-0.165	
18.370	-0.181	-0.166	
18.375	-0.176	-0.167	
18.380	-0.194	-0.170	
18.385	-0.226	-0.177	
18.390	-0.196	-0.186	
18.395	-0.066	-0.188	
18.400	0.232	-0.159	
18.405	0.316	-0.082	
18.410	0.236	0.022	
18.415	0.007	0.105	
18.420	-0.156	0.131	
18.425	-0.147	0.099	
18.430	-0.084	0.040	
18.435	-0.042	-0.012	
18.440	-0.038	-0.046	
18.445	-0.016	-0.060	
18.450	0.093	-0.055	
18.455	0.119	-0.029	
18.460	0.097	0.009	
18.465	0.195	0.050	
18.470	0.236	0.094	
18.475	0.266	0.141	
18.480	0.272	0.186	
18.485	0.204	0.221	
18.490	0.197	0.238	
18.495	0.264	0.242	
18.500	0.290	0.246	
18.505	0.275	0.254	
18.510	0.331	0.265	
18.515	0.359	0.282	
18.520	0.325	0.301	
18.525	0.421	0.321	
18.530	0.550	0.351	
18.535	0.660	0.401	
18.540	0.698	0.471	
18.545	0.684	0.544	
18.550	0.638	0.605	
18.555	0.518	0.637	
18.560	0.440	0.633	
18.565	0.348	0.595	
18.570	0.240	0.530	
18.575	0.073	0.441	
18.580	0.000	0.334	
18.585	-0.052	0.221	
18.590	-0.086	0.116	
18.595	-0.109	0.027	
18.600	-0.126	-0.041	
18.605	-0.213	-0.094	
18.610	-0.193	-0.136	
18.615	-0.165	-0.167	
18.620	-0.168	-0.184	
18.625	-0.156	-0.188	
18.630	-0.116	-0.183	
18.635	-0.097	-0.169	
18.640	-0.113	-0.151	
18.645	-0.132	-0.135	
18.650	-0.061	-0.122	
18.655	-0.069	-0.108	
18.660	-0.071	-0.094	
18.665	-0.061	-0.082	
18.670	-0.080	-0.074	
18.675	-0.100	-0.071	
18.680	-0.107	-0.074	
18.685	-0.129	-0.082	
18.690	-0.177	-0.096	
18.695	-0.161	-0.115	
18.700	-0.174	-0.134	
18.705	-0.207	-0.152	
18.710	-0.171	-0.167	
18.715	-0.145	-0.176	
18.720	-0.208	-0.179	
18.725	-0.199	-0.182	
18.730	-0.182	-0.187	
18.735	-0.167	-0.188	
18.740	-0.130	-0.184	
18.745	-0.069	-0.171	
18.750	0.038	-0.143	
18.755	-0.042	-0.105	
18.760	-0.155	-0.076	
18.765	-0.245	-0.075	
18.770	-0.277	-0.103	
18.775	-0.223	-0.145	
18.780	-0.107	-0.177	
18.785	-0.084	-0.185	
18.790	-0.049	-0.169	
18.795	0.078	-0.135	
18.800	0.163	-0.081	
18.805	0.130	-0.015	
18.810	0.178	0.048	
18.815	0.145	0.099	
18.820	0.142	0.134	
18.825	0.194	0.155	
18.830	0.194	0.171	
18.835	0.166	0.181	
18.840	0.146	0.184	
18.845	0.270	0.185	
18.850	0.284	0.196	
18.855	0.230	0.215	
18.860	0.314	0.233	
18.865	0.402	0.257	
18.870	0.363	0.290	
18.875	0.415	0.324	
18.880	0.553	0.361	
18.885	0.602	0.411	
18.890	0.510	0.464	
18.895	0.533	0.504	
18.900	0.447	0.524	
18.905	0.366	0.520	
18.910	0.365	0.493	
18.915	0.250	0.451	
18.920	0.050	0.389	
18.925	-0.002	0.303	
18.930	-0.025	0.206	
18.935	-0.072	0.114	
18.940	-0.116	0.035	
18.945	-0.136	-0.031	
18.950	-0.133	-0.082	
18.955	-0.170	-0.118	
18.960	-0.171	-0.144	
18.965	-0.158	-0.161	
18.970	-0.155	-0.169	
18.975	-0.138	-0.170	
18.980	-0.095	-0.163	
18.985	-0.104	-0.150	
18.990	-0.109	-0.134	
18.995	-0.058	-0.120	
19.000	-0.029	-0.102	
19.005	-0.038	-0.082	
19.010	-0.046	-0.064	
19.015	-0.035	-0.051	
19.020	-0.106	-0.045	
19.025	-0.121	-0.051	
19.030	-0.173	-0.069	
19.035	-0.177	-0.094	
19.040	-0.200	-0.123	
19.045	-0.197	-0.150	
19.050	-0.188	-0.172	
19.055	-0.232	-0.188	
19.060	-0.237	-0.203	
19.065	-0.211	-0.215	
19.070	-0.203	-0.221	
19.075	-0.219	-0.222	
19.080	-0.223	-0.221	
19.085	-0.260	-0.223	
19.090	-0.254	-0.228	
19.095	-0.156	-0.232	
19.100	-0.115	-0.222	
19.105	-0.220	-0.204	
19.110	-0.291	-0.197	
19.115	-0.318	-0.208	
19.120	-0.313	-0.233	
19.125	-0.281	-0.259	
19.130	-0.184	-0.272	
19.135	-0.095	-0.263	
19.140	-0.051	-0.230	
19.145	-0.023	-0.181	
19.150	-0.008	-0.128	
19.155	-0.017	-0.082	
19.160	0.024	-0.044	
19.165	0.085	-0.012	
19.170	0.067	0.018	
19.175	0.081	0.043	
19.180	0.073	0.061	
19.185	0.075	0.073	
19.190	0.091	0.080	
19.195	0.105	0.085	
19.200	0.133	0.092	
19.205	0.070	0.099	
19.210	0.197	0.106	
19.215	0.279	0.124	
19.220	0.230	0.155	
19.225	0.314	0.191	
19.230	0.405	0.231	
19.235	0.394	0.279	
19.240	0.394	0.324	
19.245	0.319	0.355	
19.250	0.272	0.365	
19.255	0.169	0.351	
19.260	0.101	0.311	
19.265	0.068	0.255	
19.270	-0.043	0.189	
19.275	-0.061	0.118	
19.280	-0.064	0.051	
19.285	-0.147	-0.007	
19.290	-0.188	-0.060	
19.295	-0.182	-0.107	
19.300	-0.196	-0.145	
19.305	-0.188	-0.172	
19.310	-0.152	-0.187	
19.315	-0.116	-0.188	
19.320	-0.122	-0.177	
19.325	-0.139	-0.162	
19.330	-0.095	-0.148	
19.335	-0.048	-0.131	
19.340	-0.032	-0.109	
19.345	0.046	-0.081	
19.350	0.035	-0.048	
19.355	-0.016	-0.018	
19.360	0.004	0.000	
19.365	-0.005	0.009	
19.370	-0.078	0.007	
19.375	-0.100	-0.007	
19.380	-0.087	-0.029	
19.385	-0.100	-0.052	
19.390	-0.090	-0.071	
19.395	-0.116	-0.086	
19.400	-0.153	-0.099	
19.405	-0.113	-0.112	
19.410	-0.060	-0.118	
19.415	-0.014	-0.111	
19.420	-0.032	-0.092	
19.425	-0.045	-0.072	
19.430	-0.060	-0.057	
19.435	-0.054	-0.049	
19.440	-0.019	-0.045	
19.445	0.094	-0.034	
19.450	0.131	-0.009	
19.455	0.073	0.025	
19.460	-0.060	0.047	
19.465	-0.063	0.044	
19.470	-0.037	0.024	
19.475	0.033	0.005	
19.480	0.142	0.003	
19.485	0.197	0.025	
19.490	0.220	0.066	
19.495	0.311	0.118	
19.500	0.318	0.175	
19.505	0.295	0.228	
19.510	0.336	0.269	
19.515	0.429	0.304	
19.520	0.359	0.337	
19.525	0.299	0.358	
19.530	0.377	0.363	
19.535	0.319	0.362	
19.540	0.336	0.357	
19.545	0.415	0.354	
19.550	0.412	0.360	
19.555	0.350	0.369	
19.560	0.438	0.378	
19.565	0.521	0.392	
19.570	0.585	0.423	
19.575	0.669	0.468	
19.580	0.715	0.526	
19.585	0.683	0.586	
19.590	0.666	0.634	
19.595	0.661	0.664	
19.600	0.643	0.677	
19.605	0.513	0.673	
19.610	0.423	0.643	
19.615	0.322	0.587	
19.620	0.156	0.508	
19.625	0.087	0.408	
19.630	0.072	0.302	
19.635	0.033	0.207	
19.640	-0.045	0.126	
19.645	-0.072	0.057	
19.650	-0.090	-0.000	
19.655	-0.119	-0.046	
19.660	-0.084	-0.079	
19.665	-0.086	-0.097	
19.670	-0.112	-0.106	
19.675	-0.046	-0.107	
19.680	-0.020	-0.098	
19.685	-0.022	-0.080	
19.690	-0.022	-0.061	
19.695	-0.013	-0.044	
19.700	0.033	-0.028	
19.705	0.009	-0.012	
19.710	-0.002	0.000	
19.715	-0.003	0.006	
19.720	-0.037	0.006	
19.725	-0.052	-0.001	
19.730	-0.100	-0.016	
19.735	-0.107	-0.036	
19.740	-0.139	-0.061	
19.745	-0.155	-0.087	
19.750	-0.164	-0.111	
19.755	-0.214	-0.135	
19.760	-0.158	-0.157	
19.765	-0.086	-0.167	
19.770	-0.109	-0.161	
19.775	-0.142	-0.149	
19.780	-0.176	-0.142	
19.785	-0.174	-0.143	
19.790	-0.121	-0.147	
19.795	-0.042	-0.143	
19.800	-0.008	-0.124	
19.805	-0.081	-0.099	
19.810	-0.203	-0.085	
19.815	-0.243	-0.096	
19.820	-0.274	-0.129	
19.825	-0.187	-0.166	
19.830	-0.064	-0.186	
19.835	-0.016	-0.177	
19.840	-0.014	-0.145	
19.845	0.030	-0.103	
19.850	0.000	-0.061	
19.855	0.004	-0.028	
19.860	0.029	-0.005	
19.865	0.058	0.013	
19.870	0.023	0.027	
19.875	0.078	0.037	
19.880	0.111	0.049	
19.885	0.088	0.063	
19.890	0.056	0.075	
19.895	0.097	0.080	
19.900	0.124	0.085	
19.905	0.159	0.095	
19.910	0.247	0.114	
19.915	0.333	0.148	
19.920	0.318	0.194	
19.925	0.365	0.242	
19.930	0.418	0.289	
19.935	0.441	0.334	
19.940	0.371	0.372	
19.945	0.324	0.392	
19.950	0.336	0.391	
19.955	0.215	0.375	
19.960	0.178	0.341	
19.965	0.073	0.291	
19.970	-0.057	0.225	
19.975	-0.121	0.144	
19.980	-0.153	0.057	
19.985	-0.150	-0.024	
19.990	-0.174	-0.088	
19.995	-0.193	-0.135	
20.000	-0.217	-0.169	
20.005	-0.249	-0.195	
20.010	-0.251	-0.216	
20.015	-0.229	-0.232	
20.020	-0.222	-0.240	
20.025	-0.197	-0.240	
20.030	-0.135	-0.230	
20.035	-0.084	-0.208	
20.040	-0.078	-0.177	
20.045	-0.069	-0.143	
20.050	-0.104	-0.115	
20.055	-0.181	-0.101	
20.060	-0.116	-0.102	
20.065	-0.092	-0.107	
20.070	-0.121	-0.109	
20.075	-0.138	-0.112	
20.080	-0.127	-0.117	
20.085	-0.161	-0.123	
20.090	-0.196	-0.133	
20.095	-0.196	-0.148	
20.100	-0.182	-0.164	
20.105	-0.199	-0.176	
20.110	-0.156	-0.184	
20.115	-0.142	-0.184	
20.120	-0.225	-0.180	
20.125	-0.207	-0.182	
20.130	-0.190	-0.188	
20.135	-0.185	-0.192	
20.140	-0.101	-0.188	
20.145	0.127	-0.164	
20.150	0.186	-0.106	
20.155	0.064	-0.032	
20.160	-0.084	0.021	
20.165	-0.170	0.030	
20.170	-0.211	0.000	
20.175	-0.136	-0.048	
20.180	-0.058	-0.088	
20.185	-0.045	-0.105	
20.190	-0.017	-0.102	
20.195	0.006	-0.085	
20.200	0.009	-0.061	
20.205	0.039	-0.035	
20.210	0.093	-0.007	
20.215	0.136	0.024	
20.220	0.070	0.055	
20.225	0.108	0.078	
20.230	0.146	0.095	
20.235	0.152	0.111	
20.240	0.145	0.126	
20.245	0.198	0.140	
20.250	0.284	0.159	
20.255	0.275	0.187	
20.260	0.292	0.218	
20.265	0.363	0.249	
20.270	0.432	0.286	
20.275	0.495	0.330	
20.280	0.541	0.382	
20.285	0.586	0.436	
20.290	0.600	0.489	
20.295	0.606	0.536	
20.300	0.534	0.568	
20.305	0.415	0.575	
20.310	0.366	0.553	
20.315	0.298	0.506	
20.320	0.090	0.438	
20.325	0.006	0.347	
20.330	-0.046	0.240	
20.335	-0.126	0.133	
20.340	-0.177	0.035	
20.345	-0.182	-0.051	
20.350	-0.223	-0.119	
20.355	-0.231	-0.170	
20.360	-0.213	-0.205	
20.365	-0.165	-0.223	
20.370	-0.174	-0.223	
20.375	-0.147	-0.213	
20.380	-0.136	-0.196	
20.385	-0.159	-0.179	
20.390	-0.127	-0.164	
20.395	-0.077	-0.149	
20.400	-0.089	-0.131	
20.405	-0.118	-0.115	
20.410	-0.112	-0.106	
20.415	-0.127	-0.104	
20.420	-0.124	-0.106	
20.425	-0.135	-0.111	
20.430	-0.142	-0.118	
20.435	-0.194	-0.128	
20.440	-0.200	-0.143	
20.445	-0.193	-0.160	
20.450	-0.213	-0.176	
20.455	-0.210	-0.189	
20.460	-0.167	-0.198	
20.465	-0.127	-0.197	
20.470	-0.164	-0.187	
20.475	-0.167	-0.176	
20.480	-0.239	-0.172	
20.485	-0.271	-0.181	
20.490	-0.176	-0.196	
20.495	0.041	-0.194	
20.500	0.266	-0.149	
20.505	0.287	-0.060	
20.510	0.090	0.038	
20.515	-0.176	0.092	
20.520	-0.265	0.078	
20.525	-0.242	0.013	
20.530	-0.152	-0.063	
20.535	-0.124	-0.120	
20.540	-0.064	-0.147	
20.545	-0.008	-0.145	
20.550	0.023	-0.120	
20.555	-0.016	-0.085	
20.560	0.035	-0.050	
20.565	0.151	-0.015	
20.570	0.104	0.026	
20.575	0.113	0.063	
20.580	0.124	0.090	
20.585	0.160	0.111	
20.590	0.125	0.127	
20.595	0.124	0.136	
20.600	0.157	0.140	
20.605	0.238	0.147	
20.610	0.310	0.167	
20.615	0.406	0.204	
20.620	0.343	0.252	
20.625	0.470	0.302	
20.630	0.574	0.356	
20.635	0.647	0.422	
20.640	0.628	0.491	
20.645	0.596	0.550	
20.650	0.541	0.586	
20.655	0.469	0.595	
20.660	0.334	0.573	
20.665	0.279	0.522	
20.670	0.108	0.447	
20.675	0.003	0.350	
20.680	-0.031	0.242	
20.685	-0.136	0.135	
20.690	-0.208	0.034	
20.695	-0.229	-0.058	
20.700	-0.216	-0.133	
20.705	-0.231	-0.187	
20.710	-0.211	-0.220	
20.715	-0.234	-0.236	
20.720	-0.257	-0.244	
20.725	-0.249	-0.249	
20.730	-0.232	-0.251	
20.735	-0.213	-0.248	
20.740	-0.222	-0.242	
20.745	-0.187	-0.233	
20.750	-0.188	-0.222	
20.755	-0.217	-0.211	
20.760	-0.194	-0.205	
20.765	-0.167	-0.199	
20.770	-0.213	-0.194	
20.775	-0.217	-0.193	
20.780	-0.234	-0.198	
20.785	-0.281	-0.208	
20.790	-0.309	-0.226	
20.795	-0.297	-0.248	
20.800	-0.291	-0.268	
20.805	-0.339	-0.285	
20.810	-0.344	-0.301	
20.815	-0.309	-0.315	
20.820	-0.318	-0.323	
20.825	-0.284	-0.324	
20.830	-0.265	-0.318	
20.835	-0.254	-0.305	
20.840	-0.284	-0.292	
20.845	-0.197	-0.278	
20.850	-0.130	-0.258	
20.855	-0.116	-0.226	
20.860	-0.190	-0.195	
20.865	-0.254	-0.178	
20.870	-0.342	-0.185	
20.875	-0.313	-0.212	
20.880	-0.229	-0.241	
20.885	-0.115	-0.252	
20.890	-0.023	-0.233	
20.895	0.061	-0.186	
20.900	0.068	-0.120	
20.905	0.044	-0.055	
20.910	0.027	-0.004	
20.915	0.067	0.029	
20.920	-0.006	0.048	
20.925	0.018	0.051	
20.930	0.072	0.048	
20.935	0.061	0.048	
20.940	-0.009	0.047	
20.945	0.023	0.041	
20.950	0.087	0.037	
20.955	0.050	0.039	
20.960	0.085	0.045	
20.965	0.117	0.056	
20.970	0.117	0.071	
20.975	0.162	0.089	
20.980	0.243	0.113	
20.985	0.227	0.144	
20.990	0.244	0.176	
20.995	0.247	0.204	
21.000	0.134	0.220	
21.005	0.183	0.220	
21.010	0.197	0.211	
21.015	0.166	0.202	
21.020	0.032	0.186	
21.025	-0.035	0.153	
21.030	-0.071	0.104	
21.035	-0.141	0.045	
21.040	-0.174	-0.016	
21.045	-0.148	-0.073	
21.050	-0.136	-0.115	
21.055	-0.144	-0.141	
21.060	-0.133	-0.153	
21.065	-0.159	-0.157	
21.070	-0.150	-0.158	
21.075	-0.086	-0.154	
21.080	-0.046	-0.141	
21.085	-0.025	-0.118	
21.090	-0.019	-0.090	
21.095	0.013	-0.062	
21.100	0.026	-0.035	
21.105	-0.066	-0.015	
21.110	-0.043	-0.010	
21.115	0.036	-0.011	
21.120	0.003	-0.008	
21.125	0.009	-0.002	
21.130	0.018	0.003	
21.135	-0.080	0.003	
21.140	-0.110	-0.009	
21.145	-0.046	-0.029	
21.150	0.000	-0.043	
21.155	-0.006	-0.045	
21.160	0.059	-0.035	
21.165	0.064	-0.015	
21.170	0.018	0.006	
21.175	0.042	0.022	
21.180	0.033	0.033	
21.185	-0.014	0.036	
21.190	0.017	0.032	
21.195	0.107	0.030	
21.200	0.191	0.043	
21.205	0.192	0.073	
21.210	0.127	0.106	
21.215	-0.026	0.123	
21.220	-0.104	0.107	
21.225	-0.043	0.066	
21.230	0.044	0.027	
21.235	0.105	0.010	
21.240	0.186	0.020	
21.245	0.270	0.056	
21.250	0.301	0.110	
21.255	0.259	0.169	
21.260	0.290	0.218	
21.265	0.357	0.257	
21.270	0.321	0.290	
21.275	0.319	0.313	
21.280	0.365	0.328	
21.285	0.292	0.337	
21.290	0.325	0.337	
21.295	0.360	0.336	
21.300	0.365	0.338	
21.305	0.360	0.344	
21.310	0.374	0.350	
21.315	0.388	0.358	
21.320	0.429	0.368	
21.325	0.544	0.388	
21.330	0.571	0.423	
21.335	0.568	0.465	
21.340	0.626	0.508	
21.345	0.670	0.551	
21.350	0.658	0.591	
21.355	0.570	0.619	
21.360	0.508	0.626	
21.365	0.447	0.607	
21.370	0.333	0.566	
21.375	0.275	0.505	
21.380	0.223	0.433	
21.385	0.111	0.356	
21.390	0.001	0.273	
21.395	-0.048	0.185	
21.400	-0.078	0.100	
21.405	-0.121	0.024	
21.410	-0.135	-0.038	
21.415	-0.098	-0.085	
21.420	-0.113	-0.112	
21.425	-0.072	-0.123	
21.430	-0.006	-0.118	
21.435	-0.013	-0.098	
21.440	-0.019	-0.073	
21.445	0.046	-0.047	
21.450	0.085	-0.018	
21.455	0.032	0.011	
21.460	0.026	0.031	
21.465	0.055	0.042	
21.470	-0.017	0.045	
21.475	-0.013	0.038	
21.480	0.006	0.026	
21.485	-0.032	0.014	
21.490	-0.055	0.000	
21.495	-0.064	-0.016	
21.500	-0.090	-0.034	
21.505	-0.107	-0.053	
21.510	-0.104	-0.071	
21.515	-0.112	-0.087	
21.520	-0.142	-0.100	
21.525	-0.087	-0.110	
21.530	-0.064	-0.113	
21.535	-0.142	-0.110	
21.540	-0.165	-0.112	
21.545	-0.138	-0.120	
21.550	-0.077	-0.126	
21.555	-0.037	-0.121	
21.560	0.052	-0.101	
21.565	0.026	-0.068	
21.570	-0.127	-0.040	
21.575	-0.185	-0.038	
21.580	-0.164	-0.061	
21.585	-0.153	-0.091	
21.590	-0.051	-0.114	
21.595	0.055	-0.113	
21.600	0.096	-0.084	
21.605	0.041	-0.042	
21.610	0.065	-0.002	
21.615	0.085	0.030	
21.620	0.055	0.054	
21.625	0.073	0.068	
21.630	0.027	0.073	
21.635	0.033	0.069	
21.640	0.090	0.063	
21.645	0.127	0.064	
21.650	0.110	0.074	
21.655	0.113	0.086	
21.660	0.195	0.101	
21.665	0.244	0.124	
21.670	0.194	0.153	
21.675	0.288	0.181	
21.680	0.345	0.213	
21.685	0.394	0.253	
21.690	0.467	0.300	
21.695	0.507	0.352	
21.700	0.504	0.404	
21.705	0.426	0.445	
21.710	0.398	0.464	
21.715	0.328	0.459	
21.720	0.247	0.432	
21.725	0.221	0.387	
21.730	0.139	0.332	
21.735	-0.025	0.265	
21.740	-0.066	0.185	
21.745	-0.106	0.099	
21.750	-0.129	0.020	
21.755	-0.158	-0.047	
21.760	-0.145	-0.098	
21.765	-0.164	-0.134	
21.770	-0.216	-0.158	
21.775	-0.202	-0.178	
21.780	-0.147	-0.190	
21.785	-0.150	-0.191	
21.790	-0.127	-0.182	
21.795	-0.104	-0.168	
21.800	-0.110	-0.151	
21.805	-0.144	-0.136	
21.810	-0.129	-0.128	
21.815	-0.090	-0.123	
21.820	-0.101	-0.117	
21.825	-0.124	-0.111	
21.830	-0.075	-0.108	
21.835	-0.121	-0.104	
21.840	-0.158	-0.105	
21.845	-0.152	-0.113	
21.850	-0.158	-0.125	
21.855	-0.196	-0.138	
21.860	-0.205	-0.154	
21.865	-0.190	-0.170	
21.870	-0.226	-0.184	
21.875	-0.194	-0.195	
21.880	-0.144	-0.200	
21.885	-0.167	-0.195	
21.890	-0.205	-0.188	
21.895	-0.232	-0.188	
21.900	-0.225	-0.194	
21.905	-0.132	-0.199	
21.910	0.012	-0.186	
21.915	0.108	-0.146	
21.920	0.046	-0.086	
21.925	-0.122	-0.038	
21.930	-0.200	-0.025	
21.935	-0.177	-0.047	
21.940	-0.161	-0.082	
21.945	-0.083	-0.111	
21.950	-0.025	-0.121	
21.955	-0.032	-0.111	
21.960	-0.023	-0.091	
21.965	0.007	-0.068	
21.970	-0.008	-0.044	
21.975	0.064	-0.022	
21.980	0.131	0.004	
21.985	0.097	0.036	
21.990	0.128	0.066	
21.995	0.172	0.093	
22.000	0.154	0.118	
22.005	0.137	0.137	
22.010	0.201	0.150	
22.015	0.316	0.168	
22.020	0.296	0.198	
22.025	0.313	0.233	
22.030	0.391	0.267	
22.035	0.446	0.306	
22.040	0.527	0.352	
22.045	0.585	0.406	
22.050	0.660	0.466	
22.055	0.629	0.527	
22.060	0.608	0.576	
22.065	0.577	0.605	
22.070	0.467	0.611	
22.075	0.427	0.591	
22.080	0.337	0.548	
22.085	0.152	0.484	
22.090	0.015	0.393	
22.095	-0.049	0.282	
22.100	-0.084	0.168	
22.105	-0.129	0.065	
22.110	-0.165	-0.021	
22.115	-0.152	-0.088	
22.120	-0.194	-0.135	
22.125	-0.197	-0.167	
22.130	-0.185	-0.188	
22.135	-0.156	-0.197	
22.140	-0.129	-0.194	
22.145	-0.095	-0.180	
22.150	-0.069	-0.158	
22.155	-0.054	-0.131	
22.160	-0.048	-0.104	
22.165	-0.077	-0.082	
22.170	-0.101	-0.070	
22.175	-0.057	-0.067	
22.180	-0.029	-0.064	
22.185	-0.058	-0.059	
22.190	-0.078	-0.056	
22.195	-0.086	-0.058	
22.200	-0.113	-0.065	
22.205	-0.115	-0.076	
22.210	-0.116	-0.089	
22.215	-0.083	-0.099	
22.220	-0.098	-0.103	
22.225	-0.072	-0.102	
22.230	-0.068	-0.097	
22.235	-0.084	-0.090	
22.240	-0.084	-0.085	
22.245	-0.115	-0.084	
22.250	-0.173	-0.090	
22.255	-0.182	-0.106	
22.260	-0.049	-0.122	
22.265	0.276	-0.107	
22.270	0.366	-0.040	
22.275	0.328	0.062	
22.280	0.012	0.149	
22.285	-0.161	0.173	
22.290	-0.182	0.130	
22.295	-0.148	0.054	
22.300	-0.127	-0.022	
22.305	-0.097	-0.078	
22.310	-0.034	-0.107	
22.315	0.021	-0.109	
22.320	0.000	-0.089	
22.325	0.030	-0.060	
22.330	0.093	-0.028	
22.335	0.064	0.006	
22.340	0.009	0.032	
22.345	0.033	0.044	
22.350	0.079	0.049	
22.355	0.078	0.055	
22.360	0.119	0.064	
22.365	0.128	0.077	
22.370	0.104	0.091	
22.375	0.175	0.105	
22.380	0.295	0.127	
22.385	0.301	0.163	
22.390	0.374	0.210	
22.395	0.484	0.265	
22.400	0.519	0.329	
22.405	0.521	0.394	
22.410	0.582	0.452	
22.415	0.582	0.502	
22.420	0.444	0.535	
22.425	0.417	0.539	
22.430	0.281	0.514	
22.435	0.082	0.456	
22.440	0.003	0.363	
22.445	-0.058	0.252	
22.450	-0.162	0.139	
22.455	-0.216	0.029	
22.460	-0.203	-0.067	
22.465	-0.203	-0.140	
22.470	-0.246	-0.189	
22.475	-0.260	-0.223	
22.480	-0.263	-0.246	
22.485	-0.298	-0.262	
22.490	-0.262	-0.273	
22.495	-0.246	-0.277	
22.500	-0.236	-0.274	
22.505	-0.219	-0.265	
22.510	-0.155	-0.250	
22.515	-0.147	-0.227	
22.520	-0.176	-0.203	
22.525	-0.171	-0.185	
22.530	-0.124	-0.171	
22.535	-0.133	-0.158	
22.540	-0.110	-0.146	
22.545	-0.089	-0.133	
22.550	-0.113	-0.121	
22.555	-0.150	-0.114	
22.560	-0.150	-0.116	
22.565	-0.200	-0.125	
22.570	-0.249	-0.144	
22.575	-0.265	-0.171	
22.580	-0.234	-0.199	
22.585	-0.246	-0.222	
22.590	-0.231	-0.236	
22.595	-0.211	-0.242	
22.600	-0.213	-0.240	
22.605	-0.242	-0.235	
22.610	-0.237	-0.233	
22.615	-0.182	-0.230	
22.620	-0.097	-0.218	
22.625	-0.037	-0.191	
22.630	-0.069	-0.154	
22.635	-0.243	-0.126	
22.640	-0.297	-0.129	
22.645	-0.251	-0.156	
22.650	-0.229	-0.188	
22.655	-0.191	-0.211	
22.660	-0.106	-0.216	
22.665	-0.095	-0.202	
22.670	-0.081	-0.175	
22.675	-0.014	-0.142	
22.680	0.052	-0.102	
22.685	-0.032	-0.061	
22.690	0.072	-0.027	
22.695	0.085	0.004	
22.700	0.111	0.035	
22.705	0.088	0.062	
22.710	0.049	0.079	
22.715	0.113	0.087	
22.720	0.070	0.090	
22.725	0.056	0.090	
22.730	0.064	0.084	
22.735	0.120	0.080	
22.740	0.221	0.087	
22.745	0.296	0.115	
22.750	0.321	0.159	
22.755	0.298	0.209	
22.760	0.368	0.254	
22.765	0.400	0.295	
22.770	0.330	0.330	
22.775	0.264	0.348	
22.780	0.229	0.342	
22.785	0.091	0.314	
22.790	-0.016	0.260	
22.795	-0.077	0.185	
22.800	-0.167	0.099	
22.805	-0.217	0.009	
22.810	-0.243	-0.076	
22.815	-0.246	-0.147	
22.820	-0.304	-0.203	
22.825	-0.301	-0.247	
22.830	-0.249	-0.276	
22.835	-0.252	-0.288	
22.840	-0.252	-0.287	
22.845	-0.219	-0.279	
22.850	-0.220	-0.265	
22.855	-0.202	-0.249	
22.860	-0.177	-0.232	
22.865	-0.158	-0.214	
22.870	-0.152	-0.196	
22.875	-0.122	-0.177	
22.880	-0.104	-0.158	
22.885	-0.133	-0.141	
22.890	-0.158	-0.131	
22.895	-0.115	-0.128	
22.900	-0.098	-0.125	
22.905	-0.127	-0.121	
22.910	-0.139	-0.119	
22.915	-0.119	-0.121	
22.920	-0.147	-0.123	
22.925	-0.162	-0.128	
22.930	-0.129	-0.135	
22.935	-0.141	-0.139	
22.940	-0.095	-0.139	
22.945	-0.061	-0.131	
22.950	-0.052	-0.116	
22.955	-0.057	-0.097	
22.960	-0.055	-0.080	
22.965	-0.060	-0.067	
22.970	0.003	-0.057	
22.975	0.142	-0.037	
22.980	0.168	0.001	
22.985	0.038	0.043	
22.990	-0.104	0.062	
22.995	-0.155	0.045	
23.000	-0.103	0.005	
23.005	-0.016	-0.033	
23.010	0.119	-0.047	
23.015	0.183	-0.026	
23.020	0.195	0.020	
23.025	0.236	0.077	
23.030	0.293	0.135	
23.035	0.195	0.185	
23.040	0.221	0.218	
23.045	0.276	0.236	
23.050	0.278	0.250	
23.055	0.217	0.259	
23.060	0.256	0.260	
23.065	0.278	0.259	
23.070	0.203	0.258	
23.075	0.192	0.250	
23.080	0.258	0.239	
23.085	0.296	0.236	
23.090	0.302	0.244	
23.095	0.382	0.262	
23.100	0.489	0.294	
23.105	0.510	0.342	
23.110	0.568	0.398	
23.115	0.611	0.456	
23.120	0.495	0.506	
23.125	0.475	0.533	
23.130	0.464	0.536	
23.135	0.360	0.520	
23.140	0.333	0.486	
23.145	0.249	0.438	
23.150	0.140	0.379	
23.155	0.052	0.307	
23.160	0.072	0.229	
23.165	0.068	0.161	
23.170	-0.057	0.104	
23.175	-0.072	0.052	
23.180	-0.066	0.004	
23.185	-0.103	-0.034	
23.190	-0.074	-0.063	
23.195	-0.008	-0.077	
23.200	-0.019	-0.075	
23.205	-0.006	-0.062	
23.210	0.039	-0.044	
23.215	0.052	-0.022	
23.220	0.027	0.001	
23.225	0.055	0.020	
23.230	0.050	0.034	
23.235	-0.005	0.041	
23.240	0.053	0.042	
23.245	0.125	0.045	
23.250	0.139	0.058	
23.255	0.084	0.077	
23.260	0.058	0.088	
23.265	-0.022	0.086	
23.270	-0.014	0.069	
23.275	0.009	0.046	
23.280	0.047	0.029	
23.285	-0.048	0.017	
23.290	-0.037	0.005	
23.295	0.013	-0.007	
23.300	0.021	-0.012	
23.305	-0.006	-0.009	
23.310	-0.028	-0.007	
23.315	-0.035	-0.009	
23.320	-0.092	-0.017	
23.325	0.020	-0.027	
23.330	0.185	-0.021	
23.335	0.108	0.009	
23.340	0.032	0.042	
23.345	-0.057	0.056	
23.350	-0.098	0.044	
23.355	-0.103	0.014	
23.360	-0.013	-0.018	
23.365	0.127	-0.031	
23.370	0.180	-0.012	
23.375	0.240	0.033	
23.380	0.240	0.091	
23.385	0.224	0.146	
23.390	0.226	0.188	
23.395	0.285	0.219	
23.400	0.247	0.241	
23.405	0.259	0.256	
23.410	0.272	0.264	
23.415	0.292	0.269	
23.420	0.249	0.273	
23.425	0.241	0.272	
23.430	0.293	0.269	
23.435	0.232	0.266	
23.440	0.241	0.262	
23.445	0.333	0.260	
23.450	0.369	0.270	
23.455	0.400	0.293	
23.460	0.482	0.326	
23.465	0.504	0.369	
23.470	0.531	0.415	
23.475	0.577	0.460	
23.480	0.536	0.500	
23.485	0.435	0.523	
23.490	0.319	0.518	
23.495	0.253	0.481	
23.500	0.149	0.419	
23.505	0.046	0.339	
23.510	-0.026	0.247	
23.515	-0.069	0.152	
23.520	-0.136	0.064	
23.525	-0.165	-0.015	
23.530	-0.187	-0.081	
23.535	-0.207	-0.133	
23.540	-0.193	-0.170	
23.545	-0.170	-0.193	
23.550	-0.185	-0.201	
23.555	-0.187	-0.202	
23.560	-0.153	-0.198	
23.565	-0.119	-0.187	
23.570	-0.132	-0.172	
23.575	-0.090	-0.154	
23.580	-0.083	-0.136	
23.585	-0.121	-0.119	
23.590	-0.122	-0.109	
23.595	-0.119	-0.107	
23.600	-0.152	-0.109	
23.605	-0.147	-0.117	
23.610	-0.142	-0.126	
23.615	-0.150	-0.134	
23.620	-0.203	-0.143	
23.625	-0.203	-0.156	
23.630	-0.179	-0.170	
23.635	-0.220	-0.182	
23.640	-0.226	-0.193	
23.645	-0.207	-0.203	
23.650	-0.208	-0.210	
23.655	-0.217	-0.213	
23.660	-0.211	-0.215	
23.665	-0.225	-0.216	
23.670	-0.277	-0.220	
23.675	-0.228	-0.228	
23.680	-0.089	-0.227	
23.685	-0.009	-0.204	
23.690	-0.011	-0.161	
23.695	-0.078	-0.115	
23.700	-0.193	-0.088	
23.705	-0.278	-0.092	
23.710	-0.208	-0.122	
23.715	-0.150	-0.153	
23.720	-0.124	-0.169	
23.725	-0.071	-0.167	
23.730	-0.022	-0.149	
23.735	-0.061	-0.120	
23.740	-0.057	-0.094	
23.745	0.046	-0.069	
23.750	0.044	-0.041	
23.755	0.062	-0.010	
23.760	0.061	0.017	
23.765	0.085	0.040	
23.770	0.120	0.060	
23.775	0.197	0.083	
23.780	0.168	0.110	
23.785	0.101	0.133	
23.790	0.241	0.147	
23.795	0.353	0.170	
23.800	0.340	0.210	
23.805	0.350	0.254	
23.810	0.466	0.299	
23.815	0.522	0.348	
23.820	0.521	0.402	
23.825	0.559	0.453	
23.830	0.513	0.493	
23.835	0.505	0.518	
23.840	0.516	0.529	
23.845	0.450	0.529	
23.850	0.324	0.511	
23.855	0.171	0.467	
23.860	0.070	0.393	
23.865	0.001	0.298	
23.870	-0.049	0.198	
23.875	-0.058	0.105	
23.880	-0.081	0.028	
23.885	-0.144	-0.031	
23.890	-0.155	-0.079	
23.895	-0.170	-0.117	
23.900	-0.138	-0.143	
23.905	-0.124	-0.156	
23.910	-0.090	-0.155	
23.915	-0.045	-0.142	
23.920	-0.034	-0.120	
23.925	-0.005	-0.092	
23.930	-0.006	-0.064	
23.935	-0.048	-0.041	
23.940	-0.043	-0.029	
23.945	-0.003	-0.024	
23.950	-0.009	-0.020	
23.955	-0.052	-0.018	
23.960	0.000	-0.019	
23.965	-0.032	-0.019	
23.970	-0.093	-0.024	
23.975	-0.138	-0.038	
23.980	-0.148	-0.062	
23.985	-0.174	-0.090	
23.990	-0.199	-0.120	
23.995	-0.142	-0.145	
24.000	-0.132	-0.159	
24.005	-0.155	-0.163	
24.010	-0.158	-0.162	
24.015	-0.196	-0.162	
24.020	-0.228	-0.169	
24.025	-0.220	-0.181	
24.030	-0.164	-0.192	
24.035	-0.046	-0.189	
24.040	0.154	-0.158	
24.045	0.246	-0.090	
24.050	0.059	-0.007	
24.055	-0.132	0.045	
24.060	-0.182	0.045	
24.065	-0.177	0.006	
24.070	-0.150	-0.047	
24.075	-0.077	-0.089	
24.080	-0.022	-0.109	
24.085	-0.020	-0.105	
24.090	0.013	-0.086	
24.095	0.039	-0.058	
24.100	0.013	-0.029	
24.105	0.000	-0.007	
24.110	0.030	0.008	
24.115	0.064	0.019	
24.120	0.059	0.031	
24.125	0.124	0.046	
24.130	0.203	0.068	
24.135	0.215	0.100	
24.140	0.272	0.140	
24.145	0.301	0.182	
24.150	0.278	0.222	
24.155	0.293	0.254	
24.160	0.402	0.281	
24.165	0.513	0.317	
24.170	0.492	0.365	
24.175	0.605	0.418	
24.180	0.676	0.476	
24.185	0.643	0.537	
24.190	0.617	0.587	
24.195	0.567	0.616	
24.200	0.453	0.618	
24.205	0.351	0.589	
24.210	0.263	0.532	
24.215	0.149	0.453	
24.220	-0.013	0.356	
24.225	-0.052	0.246	
24.230	-0.078	0.137	
24.235	-0.142	0.042	
24.240	-0.179	-0.037	
24.245	-0.196	-0.101	
24.250	-0.213	-0.151	
24.255	-0.208	-0.185	
24.260	-0.181	-0.205	
24.265	-0.136	-0.210	
24.270	-0.132	-0.200	
24.275	-0.110	-0.182	
24.280	-0.106	-0.161	
24.285	-0.112	-0.141	
24.290	-0.069	-0.123	
24.295	-0.055	-0.106	
24.300	-0.093	-0.090	
24.305	-0.074	-0.081	
24.310	-0.084	-0.076	
24.315	-0.083	-0.075	
24.320	-0.118	-0.077	
24.325	-0.118	-0.084	
24.330	-0.141	-0.095	
24.335	-0.187	-0.110	
24.340	-0.184	-0.129	
24.345	-0.150	-0.147	
24.350	-0.200	-0.160	
24.355	-0.239	-0.174	
24.360	-0.207	-0.189	
24.365	-0.179	-0.200	
24.370	-0.211	-0.204	
24.375	-0.243	-0.208	
24.380	-0.236	-0.214	
24.385	-0.240	-0.222	
24.390	-0.055	-0.220	
24.395	0.204	-0.185	
24.400	0.156	-0.111	
24.405	-0.077	-0.033	
24.410	-0.236	0.000	
24.415	-0.280	-0.022	
24.420	-0.260	-0.077	
24.425	-0.173	-0.135	
24.430	-0.068	-0.170	
24.435	-0.038	-0.171	
24.440	0.004	-0.147	
24.445	0.042	-0.107	
24.450	0.017	-0.063	
24.455	0.013	-0.026	
24.460	0.110	0.005	
24.465	0.192	0.038	
24.470	0.114	0.076	
24.475	0.156	0.107	
24.480	0.177	0.130	
24.485	0.134	0.147	
24.490	0.145	0.156	
24.495	0.221	0.161	
24.500	0.209	0.171	
24.505	0.220	0.183	
24.510	0.263	0.198	
24.515	0.357	0.219	
24.520	0.388	0.252	
24.525	0.464	0.296	
24.530	0.490	0.346	
24.535	0.495	0.396	
24.540	0.534	0.441	
24.545	0.519	0.477	
24.550	0.432	0.500	
24.555	0.334	0.498	
24.560	0.264	0.468	
24.565	0.142	0.413	
24.570	-0.023	0.334	
24.575	-0.103	0.233	
24.580	-0.152	0.123	
24.585	-0.222	0.017	
24.590	-0.205	-0.075	
24.595	-0.203	-0.145	
24.600	-0.251	-0.192	
24.605	-0.265	-0.225	
24.610	-0.217	-0.246	
24.615	-0.176	-0.251	
24.620	-0.182	-0.242	
24.625	-0.158	-0.225	
24.630	-0.130	-0.204	
24.635	-0.136	-0.182	
24.640	-0.136	-0.162	
24.645	-0.116	-0.147	
24.650	-0.104	-0.134	
24.655	-0.121	-0.123	
24.660	-0.147	-0.118	
24.665	-0.110	-0.118	
24.670	-0.138	-0.120	
24.675	-0.126	-0.122	
24.680	-0.121	-0.124	
24.685	-0.208	-0.129	
24.690	-0.193	-0.141	
24.695	-0.155	-0.155	
24.700	-0.152	-0.164	
24.705	-0.156	-0.166	
24.710	-0.158	-0.165	
24.715	-0.176	-0.164	
24.720	-0.210	-0.167	
24.725	-0.210	-0.174	
24.730	-0.181	-0.183	
24.735	-0.217	-0.190	
24.740	-0.196	-0.196	
24.745	-0.064	-0.194	
24.750	-0.028	-0.173	
24.755	-0.054	-0.139	
24.760	-0.173	-0.111	
24.765	-0.277	-0.108	
24.770	-0.281	-0.133	
24.775	-0.207	-0.169	
24.780	-0.136	-0.194	
24.785	-0.113	-0.198	
24.790	-0.049	-0.182	
24.795	0.012	-0.150	
24.800	0.046	-0.106	
24.805	-0.003	-0.060	
24.810	0.044	-0.022	
24.815	0.116	0.009	
24.820	0.067	0.039	
24.825	0.082	0.062	
24.830	0.124	0.078	
24.835	0.105	0.092	
24.840	0.133	0.103	
24.845	0.125	0.112	
24.850	0.058	0.117	
24.855	0.055	0.111	
24.860	0.146	0.102	
24.865	0.149	0.102	
24.870	0.172	0.111	
24.875	0.284	0.131	
24.880	0.357	0.168	
24.885	0.292	0.214	
24.890	0.333	0.256	
24.895	0.391	0.292	
24.900	0.342	0.323	
24.905	0.288	0.341	
24.910	0.177	0.338	
24.915	0.143	0.310	
24.920	0.007	0.261	
24.925	-0.057	0.193	
24.930	-0.103	0.115	
24.935	-0.147	0.036	
24.940	-0.162	-0.035	
24.945	-0.196	-0.094	
24.950	-0.217	-0.142	
24.955	-0.226	-0.178	
24.960	-0.197	-0.203	
24.965	-0.162	-0.214	
24.970	-0.207	-0.214	
24.975	-0.162	-0.208	
24.980	-0.138	-0.198	
24.985	-0.161	-0.184	
24.990	-0.103	-0.169	
24.995	-0.058	-0.150	
25.000	-0.069	-0.126	
25.005	-0.083	-0.104	
25.010	-0.083	-0.089	
25.015	-0.060	-0.079	
25.020	-0.078	-0.073	
25.025	-0.072	-0.069	
25.030	-0.058	-0.068	
25.035	-0.104	-0.068	
25.040	-0.129	-0.074	
25.045	-0.098	-0.084	
25.050	-0.155	-0.096	
25.055	-0.187	-0.111	
25.060	-0.118	-0.128	
25.065	-0.101	-0.137	
25.070	-0.089	-0.135	
25.075	-0.068	-0.125	
25.080	-0.043	-0.109	
25.085	-0.113	-0.094	
25.090	-0.124	-0.087	
25.095	-0.052	-0.087	
25.100	0.046	-0.079	
25.105	0.122	-0.053	
25.110	0.096	-0.013	
25.115	-0.043	0.022	
25.120	-0.155	0.028	
25.125	-0.124	0.004	
25.130	-0.058	-0.030	
25.135	0.038	-0.050	
25.140	0.229	-0.040	
25.145	0.331	0.011	
25.150	0.345	0.091	
25.155	0.347	0.177	
25.160	0.386	0.252	
25.165	0.400	0.312	
25.170	0.368	0.356	
25.175	0.372	0.382	
25.180	0.406	0.394	
25.185	0.389	0.400	
25.190	0.501	0.407	
25.195	0.450	0.420	
25.200	0.412	0.433	
25.205	0.398	0.436	
25.210	0.472	0.435	
25.215	0.537	0.441	
25.220	0.536	0.459	
25.225	0.579	0.484	
25.230	0.704	0.517	
25.235	0.675	0.561	
25.240	0.736	0.608	
25.245	0.770	0.653	
25.250	0.706	0.693	
25.255	0.646	0.714	
25.260	0.559	0.711	
25.265	0.554	0.685	
25.270	0.385	0.641	
25.275	0.282	0.575	
25.280	0.236	0.491	
25.285	0.036	0.396	
25.290	-0.014	0.289	
25.295	-0.045	0.182	
25.300	-0.095	0.087	
25.305	-0.135	0.007	
25.310	-0.138	-0.057	
25.315	-0.129	-0.103	
25.320	-0.152	-0.132	
25.325	-0.113	-0.147	
25.330	-0.116	-0.150	
25.335	-0.141	-0.146	
25.340	-0.106	-0.141	
25.345	-0.063	-0.131	
25.350	-0.084	-0.117	
25.355	-0.075	-0.102	
25.360	-0.064	-0.090	
25.365	-0.080	-0.081	
25.370	-0.098	-0.076	
25.375	-0.068	-0.075	
25.380	-0.045	-0.074	
25.385	-0.129	-0.073	
25.390	-0.126	-0.079	
25.395	-0.116	-0.090	
25.400	-0.133	-0.101	
25.405	-0.197	-0.115	
25.410	-0.167	-0.133	
25.415	-0.142	-0.148	
25.420	-0.139	-0.155	
25.425	-0.141	-0.156	
25.430	-0.132	-0.153	
25.435	-0.185	-0.151	
25.440	-0.193	-0.154	
25.445	-0.155	-0.160	
25.450	-0.147	-0.164	
25.455	-0.066	-0.159	
25.460	0.041	-0.138	
25.465	0.058	-0.099	
25.470	-0.113	-0.060	
25.475	-0.190	-0.046	
25.480	-0.171	-0.061	
25.485	-0.171	-0.090	
25.490	-0.118	-0.117	
25.495	-0.011	-0.127	
25.500	-0.029	-0.117	
25.505	-0.009	-0.094	
25.510	0.058	-0.065	
25.515	0.059	-0.031	
25.520	0.021	0.001	
25.525	0.006	0.021	
25.530	0.017	0.029	
25.535	-0.009	0.029	
25.540	0.042	0.026	
25.545	0.068	0.026	
25.550	0.027	0.031	
25.555	0.122	0.039	
25.560	0.233	0.059	
25.565	0.256	0.097	
25.570	0.243	0.143	
25.575	0.302	0.188	
25.580	0.383	0.232	
25.585	0.467	0.282	
25.590	0.537	0.340	
25.595	0.596	0.404	
25.600	0.635	0.470	
25.605	0.542	0.527	
25.610	0.527	0.561	
25.615	0.467	0.570	
25.620	0.369	0.553	
25.625	0.296	0.512	
25.630	0.215	0.452	
25.635	-0.031	0.371	
25.640	-0.078	0.266	
25.645	-0.083	0.153	
25.650	-0.139	0.051	
25.655	-0.155	-0.032	
25.660	-0.164	-0.095	
25.665	-0.197	-0.140	
25.670	-0.287	-0.175	
25.675	-0.306	-0.210	
25.680	-0.297	-0.244	
25.685	-0.321	-0.271	
25.690	-0.271	-0.291	
25.695	-0.242	-0.298	
25.700	-0.246	-0.292	
25.705	-0.197	-0.279	
25.710	-0.138	-0.256	
25.715	-0.127	-0.226	
25.720	-0.161	-0.195	
25.725	-0.122	-0.170	
25.730	-0.074	-0.148	
25.735	-0.118	-0.128	
25.740	-0.130	-0.115	
25.745	-0.132	-0.111	
25.750	-0.147	-0.113	
25.755	-0.130	-0.119	
25.760	-0.132	-0.125	
25.765	-0.141	-0.129	
25.770	-0.167	-0.134	
25.775	-0.168	-0.142	
25.780	-0.156	-0.150	
25.785	-0.176	-0.156	
25.790	-0.153	-0.161	
25.795	-0.147	-0.163	
25.800	-0.194	-0.163	
25.805	-0.216	-0.168	
25.810	-0.109	-0.173	
25.815	0.105	-0.159	
25.820	0.214	-0.108	
25.825	0.204	-0.029	
25.830	-0.045	0.042	
25.835	-0.199	0.065	
25.840	-0.203	0.035	
25.845	-0.144	-0.021	
25.850	-0.150	-0.074	
25.855	-0.118	-0.113	
25.860	-0.037	-0.130	
25.865	-0.025	-0.125	
25.870	-0.075	-0.107	
25.875	-0.046	-0.088	
25.880	-0.016	-0.071	
25.885	-0.040	-0.055	
25.890	-0.025	-0.043	
25.895	-0.035	-0.034	
25.900	0.015	-0.028	
25.905	0.041	-0.018	
25.910	0.084	-0.001	
25.915	0.088	0.021	
25.920	0.084	0.044	
25.925	0.154	0.066	
25.930	0.258	0.095	
25.935	0.214	0.132	
25.940	0.282	0.171	
25.945	0.443	0.215	
25.950	0.467	0.272	
25.955	0.510	0.337	
25.960	0.568	0.402	
25.965	0.530	0.460	
25.970	0.447	0.499	
25.975	0.435	0.512	
25.980	0.388	0.503	
25.985	0.181	0.470	
25.990	0.075	0.405	
25.995	0.012	0.314	
26.000	-0.078	0.212	
26.005	-0.139	0.110	
26.010	-0.167	0.015	
26.015	-0.174	-0.064	
26.020	-0.188	-0.124	
26.025	-0.208	-0.165	
26.030	-0.262	-0.195	
26.035	-0.249	-0.219	
26.040	-0.207	-0.235	
26.045	-0.182	-0.238	
26.050	-0.174	-0.230	
26.055	-0.185	-0.217	
26.060	-0.179	-0.204	
26.065	-0.097	-0.189	
26.070	-0.040	-0.166	
26.075	-0.035	-0.134	
26.080	-0.009	-0.099	
26.085	-0.002	-0.066	
26.090	0.058	-0.036	
26.095	0.061	-0.006	
26.100	-0.032	0.016	
26.105	-0.049	0.022	
26.110	-0.042	0.013	
26.115	-0.083	-0.004	
26.120	-0.115	-0.026	
26.125	-0.086	-0.051	
26.130	-0.057	-0.069	
26.135	-0.080	-0.079	
26.140	-0.089	-0.083	
26.145	-0.058	-0.084	
26.150	-0.115	-0.084	
26.155	-0.142	-0.088	
26.160	-0.116	-0.098	
26.165	-0.051	-0.104	
26.170	0.130	-0.092	
26.175	0.402	-0.041	
26.180	0.453	0.056	
26.185	0.186	0.162	
26.190	-0.069	0.219	
26.195	-0.130	0.203	
26.200	-0.148	0.136	
26.205	-0.106	0.053	
26.210	0.012	-0.014	
26.215	0.091	-0.043	
26.220	0.094	-0.037	
26.225	0.122	-0.008	
26.230	0.124	0.029	
26.235	0.149	0.066	
26.240	0.175	0.099	
26.245	0.238	0.131	
26.250	0.156	0.160	
26.255	0.214	0.180	
26.260	0.235	0.194	
26.265	0.259	0.209	
26.270	0.246	0.224	
26.275	0.292	0.238	
26.280	0.339	0.255	
26.285	0.325	0.276	
26.290	0.366	0.298	
26.295	0.469	0.324	
26.300	0.510	0.361	
26.305	0.606	0.409	
26.310	0.698	0.469	
26.315	0.625	0.533	
26.320	0.580	0.583	
26.325	0.576	0.609	
26.330	0.542	0.614	
26.335	0.437	0.600	
26.340	0.388	0.566	
26.345	0.259	0.512	
26.350	0.053	0.436	
26.355	-0.031	0.333	
26.360	-0.084	0.217	
26.365	-0.104	0.106	
26.370	-0.162	0.011	
26.375	-0.162	-0.065	
26.380	-0.193	-0.122	
26.385	-0.254	-0.164	
26.390	-0.210	-0.197	
26.395	-0.188	-0.216	
26.400	-0.236	-0.224	
26.405	-0.220	-0.227	
26.410	-0.179	-0.226	
26.415	-0.171	-0.218	
26.420	-0.167	-0.206	
26.425	-0.150	-0.192	
26.430	-0.121	-0.177	
26.435	-0.153	-0.162	
26.440	-0.127	-0.150	
26.445	-0.090	-0.140	
26.450	-0.153	-0.130	
26.455	-0.185	-0.128	
26.460	-0.171	-0.136	
26.465	-0.207	-0.148	
26.470	-0.246	-0.165	
26.475	-0.236	-0.186	
26.480	-0.236	-0.206	
26.485	-0.268	-0.223	
26.490	-0.243	-0.237	
26.495	-0.255	-0.246	
26.500	-0.286	-0.254	
26.505	-0.272	-0.261	
26.510	-0.266	-0.267	
26.515	-0.272	-0.271	
26.520	-0.274	-0.272	
26.525	-0.214	-0.271	
26.530	-0.115	-0.258	
26.535	-0.109	-0.229	
26.540	-0.162	-0.196	
26.545	-0.226	-0.173	
26.550	-0.320	-0.174	
26.555	-0.306	-0.196	
26.560	-0.251	-0.225	
26.565	-0.164	-0.243	
26.570	-0.118	-0.239	
26.575	-0.051	-0.213	
26.580	0.006	-0.172	
26.585	0.001	-0.121	
26.590	0.139	-0.067	
26.595	0.266	-0.003	
26.600	0.238	0.071	
26.605	0.181	0.137	
26.610	0.151	0.179	
26.615	0.149	0.195	
26.620	0.073	0.192	
26.625	0.104	0.173	
26.630	0.131	0.151	
26.635	0.046	0.131	
26.640	0.035	0.109	
26.645	0.122	0.089	
26.650	0.152	0.083	
26.655	0.185	0.092	
26.660	0.160	0.112	
26.665	0.122	0.129	
26.670	0.113	0.138	
26.675	0.165	0.141	
26.680	0.125	0.142	
26.685	-0.087	0.132	
26.690	-0.220	0.090	
26.695	-0.315	0.014	
26.700	-0.453	-0.086	
26.705	-0.558	-0.202	
26.710	-0.608	-0.322	
26.715	-0.682	-0.434	
26.720	-0.810	-0.538	
26.725	-0.886	-0.637	
26.730	-0.894	-0.728	
26.735	-0.918	-0.805	
26.740	-0.896	-0.861	
26.745	-0.856	-0.894	
26.750	-0.799	-0.903	
26.755	-0.727	-0.887	
26.760	-0.634	-0.849	
26.765	-0.579	-0.792	
26.770	-0.515	-0.725	
26.775	-0.417	-0.651	
26.780	-0.346	-0.573	
26.785	-0.318	-0.495	
26.790	-0.266	-0.423	
26.795	-0.213	-0.358	
26.800	-0.177	-0.300	
26.805	-0.124	-0.248	
26.810	-0.045	-0.199	
26.815	-0.025	-0.149	
26.820	-0.060	-0.104	
26.825	-0.049	-0.071	
26.830	-0.055	-0.052	
26.835	-0.019	-0.041	
26.840	0.087	-0.029	
26.845	0.172	-0.002	
26.850	0.076	0.035	
26.855	0.148	0.068	
26.860	0.266	0.102	
26.865	0.287	0.144	
26.870	0.246	0.188	
26.875	0.281	0.224	
26.880	0.299	0.251	
26.885	0.337	0.275	
26.890	0.427	0.300	
26.895	0.455	0.333	
26.900	0.288	0.363	
26.905	0.177	0.366	
26.910	0.214	0.340	
26.915	0.186	0.301	
26.920	0.319	0.268	
26.925	0.507	0.263	
26.930	0.623	0.303	
26.935	0.574	0.374	
26.940	0.643	0.451	
26.945	0.686	0.523	
26.950	0.649	0.585	
26.955	0.574	0.626	
26.960	0.631	0.642	
26.965	0.541	0.641	
26.970	0.493	0.624	
26.975	0.600	0.599	
26.980	0.690	0.586	
26.985	0.661	0.593	
26.990	0.664	0.611	
26.995	0.696	0.631	
27.000	0.684	0.651	
27.005	0.735	0.669	
27.010	0.831	0.693	
27.015	0.878	0.728	
27.020	0.864	0.770	
27.025	0.867	0.809	
27.030	0.883	0.839	
27.035	0.782	0.857	
27.040	0.738	0.854	
27.045	0.762	0.835	
27.050	0.698	0.808	
27.055	0.654	0.775	
27.060	0.592	0.736	
27.065	0.446	0.686	
27.070	0.278	0.616	
27.075	0.267	0.527	
27.080	0.255	0.435	
27.085	0.099	0.350	
27.090	0.113	0.269	
27.095	0.075	0.199	
27.100	-0.011	0.139	
27.105	-0.016	0.085	
27.110	0.091	0.046	
27.115	0.128	0.031	
27.120	0.085	0.038	
27.125	0.134	0.055	
27.130	0.212	0.079	
27.135	0.159	0.109	
27.140	0.194	0.137	
27.145	0.191	0.160	
27.150	0.094	0.172	
27.155	0.136	0.170	
27.160	0.223	0.165	
27.165	0.194	0.168	
27.170	0.157	0.174	
27.175	0.156	0.175	
27.180	0.096	0.169	
27.185	0.006	0.152	
27.190	0.033	0.122	
27.195	0.042	0.090	
27.200	-0.013	0.062	
27.205	0.020	0.039	
27.210	0.079	0.025	
27.215	0.064	0.025	
27.220	0.009	0.030	
27.225	0.039	0.033	
27.230	0.021	0.033	
27.235	-0.049	0.029	
27.240	-0.013	0.017	
27.245	0.122	0.010	
27.250	0.117	0.021	
27.255	0.093	0.043	
27.260	0.056	0.063	
27.265	-0.095	0.066	
27.270	-0.142	0.043	
27.275	-0.075	0.002	
27.280	0.056	-0.029	
27.285	0.107	-0.032	
27.290	0.165	-0.008	
27.295	0.162	0.033	
27.300	0.117	0.075	
27.305	0.240	0.111	
27.310	0.318	0.151	
27.315	0.273	0.195	
27.320	0.212	0.231	
27.325	0.149	0.245	
27.330	0.204	0.239	
27.335	0.185	0.227	
27.340	0.263	0.217	
27.345	0.356	0.222	
27.350	0.285	0.241	
27.355	0.255	0.261	
27.360	0.348	0.275	
27.365	0.348	0.291	
27.370	0.371	0.311	
27.375	0.394	0.331	
27.380	0.450	0.355	
27.385	0.450	0.381	
27.390	0.554	0.412	
27.395	0.602	0.451	
27.400	0.444	0.488	
27.405	0.431	0.505	
27.410	0.444	0.501	
27.415	0.340	0.483	
27.420	0.246	0.448	
27.425	0.146	0.394	
27.430	0.065	0.322	
27.435	-0.035	0.238	
27.440	-0.060	0.150	
27.445	-0.100	0.068	
27.450	-0.155	-0.005	
27.455	-0.133	-0.064	
27.460	-0.110	-0.106	
27.465	-0.090	-0.128	
27.470	-0.069	-0.131	
27.475	0.018	-0.119	
27.480	0.093	-0.088	
27.485	0.263	-0.035	
27.490	0.875	0.067	
27.495	1.454	0.264	
27.500	1.747	0.568	
27.505	1.995	0.932	
27.510	2.122	1.302	
27.515	2.073	1.627	
27.520	1.938	1.866	
27.525	1.853	1.998	
27.530	1.749	2.036	
27.535	1.699	2.004	
27.540	1.621	1.931	
27.545	1.543	1.837	
27.550	1.326	1.731	
27.555	1.239	1.610	
27.560	1.142	1.481	
27.565	1.016	1.354	
27.570	0.892	1.229	
27.575	0.820	1.108	
27.580	0.715	0.994	
27.585	0.504	0.881	
27.590	0.331	0.758	
27.595	0.259	0.623	
27.600	0.149	0.488	
27.605	0.252	0.369	
27.610	0.321	0.287	
27.615	0.230	0.246	
27.620	0.018	0.217	
27.625	-0.113	0.170	
27.630	-0.159	0.098	
27.635	-0.226	0.015	
27.640	-0.173	-0.065	
27.645	-0.113	-0.124	
27.650	-0.142	-0.155	
27.655	-0.132	-0.166	
27.660	-0.127	-0.166	
27.665	-0.208	-0.162	
27.670	-0.336	-0.171	
27.675	-0.428	-0.204	
27.680	-0.511	-0.261	
27.685	-0.561	-0.334	
27.690	-0.521	-0.408	
27.695	-0.501	-0.466	
27.700	-0.506	-0.502	
27.705	-0.486	-0.519	
27.710	-0.440	-0.521	
27.715	-0.422	-0.508	
27.720	-0.431	-0.487	
27.725	-0.367	-0.463	
27.730	-0.294	-0.433	
27.735	-0.248	-0.394	
27.740	-0.187	-0.347	
27.745	-0.124	-0.294	
27.750	-0.098	-0.239	
27.755	-0.089	-0.186	
27.760	-0.087	-0.143	
27.765	-0.113	-0.112	
27.770	-0.170	-0.099	
27.775	-0.196	-0.104	
27.780	-0.229	-0.124	
27.785	-0.315	-0.156	
27.790	-0.330	-0.197	
27.795	-0.317	-0.241	
27.800	-0.379	-0.280	
27.805	-0.410	-0.316	
27.810	-0.394	-0.349	
27.815	-0.417	-0.375	
27.820	-0.442	-0.396	
27.825	-0.417	-0.412	
27.830	-0.385	-0.421	
27.835	-0.404	-0.421	
27.840	-0.361	-0.415	
27.845	-0.368	-0.404	
27.850	-0.371	-0.392	
27.855	-0.318	-0.380	
27.860	-0.295	-0.364	
27.865	-0.310	-0.345	
27.870	-0.297	-0.328	
27.875	-0.272	-0.313	
27.880	-0.268	-0.300	
27.885	-0.310	-0.289	
27.890	-0.332	-0.287	
27.895	-0.367	-0.295	
27.900	-0.468	-0.315	
27.905	-0.518	-0.351	
27.910	-0.552	-0.398	
27.915	-0.590	-0.450	
27.920	-0.639	-0.502	
27.925	-0.624	-0.550	
27.930	-0.628	-0.588	
27.935	-0.676	-0.616	
27.940	-0.679	-0.639	
27.945	-0.711	-0.659	
27.950	-0.727	-0.677	
27.955	-0.697	-0.694	
27.960	-0.621	-0.700	
27.965	-0.512	-0.687	
27.970	-0.408	-0.649	
27.975	-0.335	-0.587	
27.980	-0.368	-0.515	
27.985	-0.457	-0.455	
27.990	-0.449	-0.421	
27.995	-0.338	-0.405	
28.000	-0.307	-0.389	
28.005	-0.258	-0.365	
28.010	-0.177	-0.332	
28.015	-0.133	-0.289	
28.020	-0.098	-0.239	
28.025	-0.022	-0.187	
28.030	0.015	-0.133	
28.035	-0.011	-0.082	
28.040	-0.016	-0.042	
28.045	0.091	-0.013	
28.050	0.107	0.016	
28.055	0.185	0.050	
28.060	0.292	0.093	
28.065	0.273	0.145	
28.070	0.305	0.197	
28.075	0.360	0.243	
28.080	0.424	0.288	
28.085	0.415	0.332	
28.090	0.484	0.372	
28.095	0.577	0.414	
28.100	0.591	0.461	
28.105	0.744	0.514	
28.110	0.819	0.579	
28.115	0.805	0.651	
28.120	0.780	0.715	
28.125	0.754	0.758	
28.130	0.704	0.777	
28.135	0.550	0.769	
28.140	0.429	0.725	
28.145	0.296	0.649	
28.150	0.131	0.545	
28.155	0.070	0.422	
28.160	0.039	0.298	
28.165	-0.032	0.187	
28.170	-0.126	0.092	
28.175	-0.124	0.009	
28.180	-0.126	-0.057	
28.185	-0.145	-0.102	
28.190	-0.095	-0.130	
28.195	-0.026	-0.136	
28.200	-0.040	-0.122	
28.205	-0.038	-0.100	
28.210	0.027	-0.075	
28.215	-0.002	-0.048	
28.220	0.018	-0.024	
28.225	0.075	-0.003	
28.230	0.079	0.020	
28.235	0.024	0.039	
28.240	0.030	0.048	
28.245	-0.017	0.047	
28.250	-0.072	0.034	
28.255	-0.031	0.013	
28.260	0.029	-0.005	
28.265	-0.009	-0.012	
28.270	-0.063	-0.016	
28.275	-0.068	-0.024	
28.280	-0.098	-0.037	
28.285	-0.095	-0.053	
28.290	-0.052	-0.067	
28.295	0.015	-0.070	
28.300	-0.016	-0.060	
28.305	-0.025	-0.046	
28.310	-0.058	-0.037	
28.315	-0.132	-0.038	
28.320	-0.126	-0.052	
28.325	0.033	-0.065	
28.330	0.314	-0.048	
28.335	0.295	0.013	
28.340	0.261	0.095	
28.345	0.018	0.156	
28.350	-0.132	0.165	
28.355	-0.092	0.123	
28.360	-0.023	0.064	
28.365	0.027	0.018	
28.370	0.041	-0.004	
28.375	0.079	-0.006	
28.380	0.125	0.009	
28.385	0.107	0.035	
28.390	0.174	0.065	
28.395	0.198	0.098	
28.400	0.140	0.129	
28.405	0.180	0.151	
28.410	0.232	0.167	
28.415	0.279	0.187	
28.420	0.267	0.211	
28.425	0.311	0.236	
28.430	0.304	0.260	
28.435	0.240	0.277	
28.440	0.409	0.289	
28.445	0.473	0.313	
28.450	0.478	0.351	
28.455	0.554	0.397	
28.460	0.602	0.447	
28.465	0.621	0.499	
28.470	0.605	0.545	
28.475	0.678	0.583	
28.480	0.666	0.616	
28.485	0.596	0.638	
28.490	0.551	0.642	
28.495	0.443	0.625	
28.500	0.250	0.579	
28.505	0.154	0.500	
28.510	0.067	0.398	
28.515	-0.028	0.286	
28.520	-0.103	0.174	
28.525	-0.139	0.070	
28.530	-0.148	-0.019	
28.535	-0.199	-0.088	
28.540	-0.179	-0.140	
28.545	-0.188	-0.173	
28.550	-0.220	-0.194	
28.555	-0.185	-0.206	
28.560	-0.133	-0.207	
28.565	-0.161	-0.198	
28.570	-0.168	-0.185	
28.575	-0.133	-0.174	
28.580	-0.119	-0.162	
28.585	-0.130	-0.149	
28.590	-0.107	-0.138	
28.595	-0.104	-0.128	
28.600	-0.144	-0.120	
28.605	-0.129	-0.118	
28.610	-0.109	-0.119	
28.615	-0.138	-0.120	
28.620	-0.156	-0.123	
28.625	-0.141	-0.129	
28.630	-0.176	-0.137	
28.635	-0.231	-0.148	
28.640	-0.197	-0.165	
28.645	-0.211	-0.182	
28.650	-0.232	-0.196	
28.655	-0.207	-0.207	
28.660	-0.187	-0.213	
28.665	-0.205	-0.213	
28.670	-0.211	-0.211	
28.675	-0.193	-0.209	
28.680	-0.156	-0.204	
28.685	-0.184	-0.196	
28.690	-0.092	-0.184	
28.695	-0.060	-0.164	
28.700	-0.095	-0.138	
28.705	-0.223	-0.122	
28.710	-0.306	-0.130	
28.715	-0.272	-0.161	
28.720	-0.188	-0.195	
28.725	-0.098	-0.210	
28.730	-0.045	-0.198	
28.735	-0.092	-0.169	
28.740	-0.048	-0.136	
28.745	-0.032	-0.105	
28.750	-0.087	-0.079	
28.755	-0.042	-0.064	
28.760	0.068	-0.049	
28.765	0.091	-0.024	
28.770	0.094	0.009	
28.775	0.188	0.045	
28.780	0.226	0.086	
28.785	0.128	0.126	
28.790	0.136	0.151	
28.795	0.133	0.160	
28.800	0.101	0.158	
28.805	0.156	0.150	
28.810	0.243	0.149	
28.815	0.285	0.164	
28.820	0.403	0.197	
28.825	0.450	0.248	
28.830	0.440	0.308	
28.835	0.443	0.362	
28.840	0.469	0.405	
28.845	0.537	0.440	
28.850	0.402	0.465	
