Time	Potential	EKG	Unnamed: 3
0.0	-0.064	-0.0027640691271361272	
0.005	0.041	-0.007175178608156694	
0.01	-0.037	-0.010758008450805759	
0.015	-0.142	-0.01736502990174719	
0.02	-0.196	-0.04001971831109745	
0.025	-0.217	-0.08028215139438927	
0.03	-0.219	-0.12483189134171874	
0.035	-0.118	-0.15716010348177467	
0.04	-0.037	-0.16764667862862992	
0.045	-0.020	-0.1530469208791287	
0.05	0.021	-0.11866315102096153	
0.055	0.070	-0.07512637112839178	
0.06	0.017	-0.033906153245175874	
0.065	0.090	0.0026695422812161693	
0.07	0.229	0.041140590838080235	
0.075	0.215	0.08562882878129617	
0.08	0.125	0.1280682994595744	
0.085	0.171	0.15694487335389065	
0.09	0.131	0.1683234590585947	
0.095	0.065	0.16380868914468688	
0.1	0.211	0.1564143275749707	
0.105	0.281	0.1589692759520341	
0.11	0.221	0.17399319962712553	
0.115	0.233	0.195655876649851	
0.12	0.369	0.2202394177443964	
0.125	0.385	0.25158188432227035	
0.13	0.435	0.2940239257814878	
0.135	0.570	0.3460526173476599	
0.14	0.638	0.40934228993252275	
0.145	0.522	0.4727260210792793	
0.15	0.562	0.5224321683098843	
0.155	0.576	0.5529788286530594	
0.16	0.420	0.5619204359352742	
0.165	0.310	0.5436541999100585	
0.17	0.272	0.4962529974158405	
0.175	0.099	0.4225200557787583	
0.18	-0.020	0.33001631970249024	
0.185	-0.002	0.22808372265713336	
0.19	-0.048	0.13131171877659953	
0.195	-0.133	0.04774306483710499	
0.2	-0.110	-0.019497418753684305	
0.205	-0.084	-0.07003448804275357	
0.21	-0.110	-0.10108026273737597	
0.215	-0.092	-0.11525717198198883	
0.22	-0.051	-0.11573889344778157	
0.225	-0.098	-0.10952614988588168	
0.23	-0.152	-0.1049302593992466	
0.235	-0.080	-0.10289762005646366	
0.24	-0.080	-0.10276605713248549	
0.245	-0.135	-0.10224488886369923	
0.25	-0.110	-0.10145167313621577	
0.255	-0.083	-0.10310553016915845	
0.26	-0.133	-0.10611279854890915	
0.265	-0.148	-0.10919314470933397	
0.27	-0.159	-0.1167704863335739	
0.275	-0.210	-0.1325957740023466	
0.28	-0.225	-0.15186483795692476	
0.285	-0.182	-0.17085317655893217	
0.29	-0.216	-0.18685052629604726	
0.295	-0.239	-0.2012439124095765	
0.3	-0.184	-0.208357883423175	
0.305	-0.167	-0.21014109850894055	
0.31	-0.236	-0.20918264755809513	
0.315	-0.236	-0.20812304871406812	
0.32	-0.188	-0.20973438469970493	
0.325	-0.152	-0.20967188009394108	
0.33	-0.037	-0.1948341585099972	
0.335	0.125	-0.1537531100715241	
0.34	0.055	-0.0949054543327704	
0.345	-0.162	-0.04633309442941176	
0.35	-0.200	-0.0323213733634307	
0.355	-0.185	-0.05514198668832472	
0.36	-0.171	-0.09224476832600924	
0.365	-0.097	-0.12006629465994531	
0.37	-0.020	-0.1286690408918177	
0.375	-0.069	-0.12174417653539452	
0.38	-0.019	-0.10286227353117135	
0.385	0.096	-0.07269032618355348	
0.39	0.113	-0.03393345817066448	
0.395	0.024	0.006638055930406026	
0.4	0.148	0.04277606704986012	
0.405	0.171	0.07388097308498473	
0.41	0.058	0.09865883695169653	
0.415	0.140	0.1149361298930573	
0.42	0.229	0.12838270812612923	
0.425	0.194	0.145209162262519	
0.43	0.175	0.16411000532976025	
0.435	0.253	0.1823453695346487	
0.44	0.244	0.19805002479787398	
0.445	0.220	0.21261769425426955	
0.45	0.437	0.23481928715884462	
0.455	0.562	0.2779072905111357	
0.46	0.542	0.3426557988967995	
0.465	0.628	0.41894480932418743	
0.47	0.701	0.49437263751948596	
0.475	0.637	0.5611902153809818	
0.48	0.565	0.6081062808582937	
0.485	0.596	0.630319884596841	
0.49	0.469	0.6250300424253024	
0.495	0.285	0.5906259522039599	
0.5	0.244	0.5267753570931478	
0.505	0.124	0.4378458369299078	
0.51	-0.060	0.3316803473773477	
0.515	-0.090	0.21596383352287468	
0.52	-0.092	0.10533634105394572	
0.525	-0.179	0.007232670257663635	
0.53	-0.205	-0.0708207252666414	
0.535	-0.164	-0.12970250987551285	
0.54	-0.177	-0.1689596641372936	
0.545	-0.208	-0.19128421342004995	
0.55	-0.152	-0.19922473136879154	
0.555	-0.119	-0.19619070698865648	
0.56	-0.153	-0.18525628000874114	
0.565	-0.129	-0.16901724977900984	
0.57	-0.110	-0.15374454570092166	
0.575	-0.148	-0.14276809684309388	
0.58	-0.179	-0.13777878100764146	
0.585	-0.127	-0.13676236284564097	
0.59	-0.165	-0.1409997571724963	
0.595	-0.217	-0.14823484834693024	
0.6	-0.168	-0.15823908922600394	
0.605	-0.197	-0.16924652896206505	
0.61	-0.265	-0.18322534229020107	
0.615	-0.217	-0.197993464547658	
0.62	-0.179	-0.20878217027752552	
0.625	-0.205	-0.21374691972513496	
0.63	-0.243	-0.21474096620927183	
0.635	-0.231	-0.2158033064077257	
0.64	-0.304	-0.22501308435179151	
0.645	-0.346	-0.24319652890301627	
0.65	-0.202	-0.26025272906044095	
0.655	0.023	-0.2552389463328391	
0.66	0.203	-0.20513937909448934	
0.665	0.229	-0.10997624659304808	
0.67	-0.058	-0.014869901985971807	
0.675	-0.266	0.0251838611483048	
0.68	-0.332	-0.0017479864284601278	
0.685	-0.225	-0.06577537206346654	
0.69	-0.148	-0.12999295541824407	
0.695	-0.139	-0.1691973371006929	
0.7	-0.040	-0.1762215266232992	
0.705	-0.006	-0.15823059379804655	
0.71	-0.052	-0.12723835793997712	
0.715	-0.051	-0.09401432396378206	
0.72	0.000	-0.06675071789566395	
0.725	0.004	-0.045764558699553856	
0.73	0.013	-0.024792937931407053	
0.735	0.154	0.0002692158458174155	
0.74	0.137	0.0320303598962256	
0.745	0.065	0.0637011105443886	
0.75	0.145	0.08875720503167338	
0.755	0.235	0.11183610352611764	
0.76	0.185	0.1367293921331162	
0.765	0.233	0.16494683416792688	
0.77	0.340	0.19431106593594327	
0.775	0.319	0.2272496049077805	
0.78	0.365	0.26515404629703554	
0.785	0.508	0.30828417081154025	
0.79	0.586	0.3610689452402506	
0.795	0.530	0.4216839433536158	
0.8	0.606	0.4807446079159972	
0.805	0.597	0.5278378683116318	
0.81	0.473	0.5567053239728769	
0.815	0.420	0.5599270572952625	
0.82	0.362	0.5372995814413448	
0.825	0.166	0.4842233579506632	
0.83	0.009	0.40213493704174424	
0.835	0.038	0.3002788835934076	
0.84	-0.055	0.1940681655490848	
0.845	-0.155	0.09469403190899889	
0.85	-0.126	0.007757659927391648	
0.855	-0.142	-0.062140742341742924	
0.86	-0.200	-0.11525821085627948	
0.865	-0.164	-0.15105496043769417	
0.87	-0.115	-0.16968707324257365	
0.875	-0.159	-0.17473154698680216	
0.88	-0.174	-0.1728463250234331	
0.885	-0.101	-0.16574701451153773	
0.89	-0.112	-0.1569226963038973	
0.895	-0.170	-0.14629211858486169	
0.9	-0.106	-0.13828675988316352	
0.905	-0.110	-0.1311566347242051	
0.91	-0.130	-0.12722901211352255	
0.915	-0.136	-0.12308619710006398	
0.92	-0.142	-0.12272816202963192	
0.925	-0.203	-0.13070647869773833	
0.93	-0.257	-0.14784991712045387	
0.935	-0.243	-0.17078457317285348	
0.94	-0.232	-0.1979010792986926	
0.945	-0.252	-0.21926864589860193	
0.95	-0.202	-0.23030249516841478	
0.955	-0.200	-0.2341447999908799	
0.96	-0.208	-0.23121821067966158	
0.965	-0.185	-0.22309918302600742	
0.97	-0.153	-0.2107090974019709	
0.975	-0.127	-0.19669363193722195	
0.98	-0.074	-0.17486155385440055	
0.985	0.072	-0.1387481643652465	
0.99	-0.011	-0.09488510615968912	
0.995	-0.237	-0.06535001423606568	
1.0	-0.298	-0.07234749111982247	
1.005	-0.255	-0.11310436097973862	
1.01	-0.211	-0.16221852508894766	
1.015	-0.097	-0.18911163583805285	
1.02	0.010	-0.18565349182475802	
1.025	-0.014	-0.1556798388997087	
1.03	-0.040	-0.1149174908319717	
1.035	0.055	-0.07275042125456528	
1.04	0.079	-0.03385511494350998	
1.045	0.065	0.0036519318625198175	
1.05	0.145	0.03968669174467257	
1.055	0.211	0.07592951461887322	
1.06	0.181	0.11173532447488639	
1.065	0.259	0.1498500457434438	
1.07	0.316	0.18836665869374167	
1.075	0.264	0.22330114958332747	
1.08	0.244	0.25004375228283093	
1.085	0.343	0.2702811532017465	
1.09	0.347	0.28716707548703424	
1.095	0.284	0.30160719754750215	
1.1	0.389	0.3166887782114032	
1.105	0.461	0.3349805835259	
1.11	0.374	0.35771316901104167	
1.115	0.490	0.38381158580929375	
1.12	0.658	0.4194176581945763	
1.125	0.600	0.4673407696308686	
1.13	0.498	0.5149912130852942	
1.135	0.492	0.5412437789194628	
1.14	0.397	0.5391922079363766	
1.145	0.194	0.5055977466330962	
1.15	0.133	0.4406255927893503	
1.155	0.094	0.35296995126848696	
1.16	-0.093	0.2527638172720042	
1.165	-0.104	0.1497966738498317	
1.17	-0.089	0.05436094119452411	
1.175	-0.142	-0.02461143646262056	
1.18	-0.179	-0.0839390727662173	
1.185	-0.110	-0.12378741100832126	
1.19	-0.101	-0.14479067833616444	
1.195	-0.165	-0.1523051044930665	
1.2	-0.097	-0.14938961316251062	
1.205	-0.061	-0.14007684876248766	
1.21	-0.103	-0.1271646306020111	
1.215	-0.089	-0.11119227746176844	
1.22	-0.060	-0.09773256821209535	
1.225	-0.061	-0.08859843490063501	
1.23	-0.097	-0.07988841894894655	
1.235	-0.043	-0.07185653601752172	
1.24	-0.061	-0.06783065573650596	
1.245	-0.135	-0.06824940427857079	
1.25	-0.115	-0.07440240261751106	
1.255	-0.129	-0.08713763411430875	
1.26	-0.205	-0.10513825987531324	
1.265	-0.181	-0.1261563073876097	
1.27	-0.153	-0.14576880944627207	
1.275	-0.168	-0.16060039773206386	
1.28	-0.177	-0.16884171510202678	
1.285	-0.124	-0.16987012129390433	
1.29	-0.158	-0.16685598009719033	
1.295	-0.199	-0.16521478371650283	
1.3	-0.132	-0.16339493001069688	
1.305	-0.086	-0.1581598613558738	
1.31	-0.119	-0.14811051239652614	
1.315	-0.156	-0.13614686405716203	
1.32	-0.203	-0.13381778112180825	
1.325	-0.245	-0.14661102230746165	
1.33	-0.231	-0.16881737532658822	
1.335	-0.152	-0.18587711809249813	
1.34	-0.084	-0.18985416208138736	
1.345	-0.057	-0.17518423835148106	
1.35	0.035	-0.14138552063341295	
1.355	0.116	-0.09317143396917452	
1.36	0.044	-0.03911673815048292	
1.365	0.082	0.008851210148942013	
1.37	0.113	0.04718953865026364	
1.375	0.169	0.0764018150332152	
1.38	0.214	0.10818160859999496	
1.385	0.259	0.1451160320746306	
1.39	0.243	0.18013056875770012	
1.395	0.125	0.2027791158279737	
1.4	0.223	0.21259799300952592	
1.405	0.313	0.21784945562844618	
1.41	0.269	0.22988915491584141	
1.415	0.285	0.24784617120457678	
1.42	0.293	0.26320398531051414	
1.425	0.240	0.2723964527287791	
1.43	0.313	0.27615905379088956	
1.435	0.473	0.2911369791003957	
1.44	0.527	0.3251753764370008	
1.445	0.476	0.3737811030252692	
1.45	0.481	0.42157125408992546	
1.455	0.487	0.45484194231121666	
1.46	0.357	0.46988236832285396	
1.465	0.279	0.45981363242553086	
1.47	0.256	0.4251887191864685	
1.475	0.131	0.37042091467140903	
1.48	0.010	0.29915195951435836	
1.485	0.006	0.21908344984819553	
1.49	-0.057	0.1351703809047014	
1.495	-0.107	0.058827169609888416	
1.5	-0.057	-0.002421257638730168	
1.505	-0.034	-0.04516020325553605	
1.51	-0.087	-0.06906720662723373	
1.515	-0.057	-0.07815364754643349	
1.52	-0.023	-0.07782765118523204	
1.525	-0.032	-0.07256567299956737	
1.53	-0.086	-0.06381366705238792	
1.535	-0.051	-0.05693237276962523	
1.54	-0.032	-0.05586065698216806	
1.545	-0.083	-0.05415656662256696	
1.55	-0.048	-0.052412757438462264	
1.555	-0.016	-0.05221165461276886	
1.56	-0.081	-0.05108508231740087	
1.565	-0.075	-0.05110671107622435	
1.57	-0.054	-0.053849200803373035	
1.575	-0.100	-0.060625886248609	
1.58	-0.129	-0.06976352944275577	
1.585	-0.110	-0.08089175443770652	
1.59	-0.141	-0.09593846039216129	
1.595	-0.167	-0.11215707302680265	
1.6	-0.081	-0.12332389725414271	
1.605	-0.055	-0.12424497321819658	
1.61	-0.115	-0.11714188532493827	
1.615	-0.110	-0.10903868015096463	
1.62	-0.098	-0.10383458683861535	
1.625	-0.112	-0.10370172103696092	
1.63	-0.057	-0.10172996689521341	
1.635	0.010	-0.08981964613165772	
1.64	-0.025	-0.07199098756837265	
1.645	-0.156	-0.05920216497513191	
1.65	-0.197	-0.0652872902793864	
1.655	-0.205	-0.09127084489061231	
1.66	-0.210	-0.12718974655079113	
1.665	-0.122	-0.1529742753443182	
1.67	-0.009	-0.1587819218365036	
1.675	0.001	-0.1407524408185474	
1.68	0.052	-0.10372783091998314	
1.685	0.146	-0.052764587826733426	
1.69	0.137	0.0029696084217563116	
1.695	0.036	0.04976130347670699	
1.7	0.124	0.08177673755150765	
1.705	0.127	0.09974069102283364	
1.71	0.046	0.10874460079501101	
1.715	0.105	0.10902586400270864	
1.72	0.258	0.11424486494548362	
1.725	0.212	0.13122347531841488	
1.73	0.192	0.15725508605937993	
1.735	0.276	0.18223427416612026	
1.74	0.261	0.20596931860268272	
1.745	0.269	0.22778982647293175	
1.75	0.386	0.2537873208318404	
1.755	0.394	0.2847242982044028	
1.76	0.440	0.3207748168508747	
1.765	0.544	0.36404825949932895	
1.77	0.563	0.41620417942602356	
1.775	0.545	0.4642072882631065	
1.78	0.551	0.5052707783262331	
1.785	0.602	0.5372260688605912	
1.79	0.501	0.5559592403127578	
1.795	0.282	0.5487632868689616	
1.8	0.259	0.5077417864141367	
1.805	0.165	0.43773217336063586	
1.81	-0.013	0.3467861537397329	
1.815	-0.068	0.2439945173061137	
1.82	-0.060	0.13920526748208886	
1.825	-0.113	0.045286581483860854	
1.83	-0.162	-0.02872929403723321	
1.835	-0.081	-0.0818127928366378	
1.84	-0.087	-0.11397208160893328	
1.845	-0.152	-0.1281677766354133	
1.85	-0.097	-0.131294144874819	
1.855	-0.052	-0.12826691410972627	
1.86	-0.089	-0.11814183719842931	
1.865	-0.061	-0.10301446807664673	
1.87	-0.048	-0.08785737830838417	
1.875	-0.064	-0.07669854280742111	
1.88	-0.109	-0.0697105061177081	
1.885	-0.095	-0.06887401321309244	
1.89	-0.068	-0.07400072918774828	
1.895	-0.129	-0.08012322168078062	
1.9	-0.090	-0.0852980951667893	
1.905	-0.086	-0.09131715709391545	
1.91	-0.164	-0.09912934865986735	
1.915	-0.177	-0.1099823159426781	
1.92	-0.176	-0.12589050335968122	
1.925	-0.182	-0.14571728560313946	
1.93	-0.177	-0.16065658530695304	
1.935	-0.110	-0.1668545464800511	
1.94	-0.145	-0.16604576447788066	
1.945	-0.196	-0.16311842846817382	
1.95	-0.147	-0.1602567703853986	
1.955	-0.118	-0.1593434708853111	
1.96	-0.066	-0.15115036789662267	
1.965	0.026	-0.1279148399257674	
1.97	0.006	-0.09287130722143709	
1.975	-0.147	-0.0658022818383557	
1.98	-0.243	-0.06368045650323534	
1.985	-0.219	-0.08881227040521904	
1.99	-0.188	-0.12707574716180278	
1.995	-0.145	-0.1561358951511223	
2.0	-0.003	-0.16217524201135441	
2.005	0.094	-0.13932480194491773	
2.01	0.068	-0.09121459933355325	
2.015	0.128	-0.03290203185830443	
2.02	0.131	0.02315556204737953	
2.025	0.050	0.0651561583157125	
2.03	0.087	0.08933644799424151	
2.035	0.206	0.10624761528547053	
2.04	0.236	0.12689763955643033	
2.045	0.175	0.15282420150094084	
2.05	0.266	0.17883279654814355	
2.055	0.272	0.20265344044990213	
2.06	0.146	0.21975345940222776	
2.065	0.235	0.22610469015648005	
2.07	0.348	0.23217117001579232	
2.075	0.380	0.25119197007860505	
2.08	0.432	0.2863674901682882	
2.085	0.508	0.3332104148470133	
2.09	0.560	0.384881840722696	
2.095	0.577	0.4408780723677197	
2.1	0.687	0.5008217947052562	
2.105	0.710	0.5586021692619099	
2.11	0.612	0.6087952611144458	
2.115	0.507	0.6351202304547738	
2.12	0.458	0.6280673147960818	
2.125	0.273	0.5841554080017497	
2.13	0.148	0.5094215824140838	
2.135	0.108	0.4111667367952996	
2.14	-0.003	0.301824414020849	
2.145	-0.092	0.19195181074880335	
2.15	-0.078	0.09284876319392064	
2.155	-0.113	0.00953426304213629	
2.16	-0.171	-0.05715264780991589	
2.165	-0.147	-0.10478152712334211	
2.17	-0.138	-0.13696430793877545	
2.175	-0.176	-0.1568486153001129	
2.18	-0.152	-0.16648576949420393	
2.185	-0.101	-0.16583429411115175	
2.19	-0.113	-0.15823324518579435	
2.195	-0.171	-0.14901381906423314	
2.2	-0.136	-0.1421386459278679	
2.205	-0.118	-0.13953445877686965	
2.21	-0.142	-0.1371517323191332	
2.215	-0.107	-0.13273880751201614	
2.22	-0.107	-0.12701116930567036	
2.225	-0.168	-0.12588627919764533	
2.23	-0.194	-0.13044438472266315	
2.235	-0.194	-0.14184560701550883	
2.24	-0.234	-0.16028781124908145	
2.245	-0.251	-0.1829832680397392	
2.25	-0.171	-0.19909042891726106	
2.255	-0.174	-0.2075644680242073	
2.26	-0.225	-0.2091733532840812	
2.265	-0.211	-0.2077039627139063	
2.27	-0.225	-0.20900883229728084	
2.275	-0.287	-0.2169244574544998	
2.28	-0.240	-0.22742915903379196	
2.285	-0.078	-0.2277903169483754	
2.29	0.116	-0.20127746391447024	
2.295	0.076	-0.14098707345826145	
2.3	0.006	-0.07008134900226176	
2.305	-0.155	-0.02662383991743784	
2.31	-0.245	-0.02724286397390892	
2.315	-0.211	-0.0596537447619564	
2.32	-0.122	-0.10096626340525972	
2.325	-0.098	-0.12997926616542343	
2.33	-0.052	-0.1363992008719056	
2.335	0.030	-0.12071940646967363	
2.34	-0.034	-0.09437882110677792	
2.345	-0.089	-0.07006849782237226	
2.35	0.072	-0.04895726580452874	
2.355	0.137	-0.022559212442292913	
2.36	0.105	0.014688955117308295	
2.365	0.209	0.05738223742659997	
2.37	0.217	0.10208627215125993	
2.375	0.134	0.13892815484795837	
2.38	0.171	0.16355037165579378	
2.385	0.269	0.18034429369337168	
2.39	0.287	0.19962288537582976	
2.395	0.253	0.22289281212375123	
2.4	0.356	0.2480670420142058	
2.405	0.405	0.2764510663696606	
2.41	0.345	0.30765747577434766	
2.415	0.495	0.3423855006964924	
2.42	0.600	0.3851143964237195	
2.425	0.594	0.4379419205196724	
2.43	0.620	0.49655298355868516	
2.435	0.681	0.5503265013011408	
2.44	0.644	0.5946053735840227	
2.445	0.498	0.6198964420764521	
2.45	0.475	0.6180377344797752	
2.455	0.314	0.5834024610697324	
2.46	0.056	0.5106601923324077	
2.465	0.021	0.403376538719989	
2.47	-0.057	0.2780670809784632	
2.475	-0.148	0.1519672462801486	
2.48	-0.177	0.0386023969580887	
2.485	-0.139	-0.05269790971450209	
2.49	-0.185	-0.11937244214880295	
2.495	-0.231	-0.16402477103067903	
2.5	-0.188	-0.19297471065780317	
2.505	-0.211	-0.20960315015958797	
2.51	-0.237	-0.22024785382369752	
2.515	-0.177	-0.22261324219979908	
2.52	-0.127	-0.21498940772933478	
2.525	-0.155	-0.20199160733062865	
2.53	-0.152	-0.18338568862020826	
2.535	-0.124	-0.16578181120647512	
2.54	-0.156	-0.15437452561182677	
2.545	-0.216	-0.15099155465828473	
2.55	-0.177	-0.15403065140601044	
2.555	-0.185	-0.16361865860453711	
2.56	-0.251	-0.17620240137852972	
2.565	-0.251	-0.19064293729694667	
2.57	-0.269	-0.21002949797826562	
2.575	-0.301	-0.2329603128675106	
2.58	-0.262	-0.2523720531941491	
2.585	-0.210	-0.26179603890987524	
2.59	-0.214	-0.261352500967124	
2.595	-0.274	-0.25497666999595114	
2.6	-0.251	-0.24904822771877755	
2.605	-0.243	-0.2486187621804391	
2.61	-0.213	-0.24818989774148253	
2.615	-0.014	-0.2306255951757662	
2.62	0.136	-0.18498993274410558	
2.625	-0.008	-0.11895826111810318	
2.63	-0.214	-0.06744068615810125	
2.635	-0.291	-0.061849535791325454	
2.64	-0.309	-0.10034653487747915	
2.645	-0.260	-0.154957402248693	
2.65	-0.133	-0.1960345215280744	
2.655	-0.071	-0.20859604073814153	
2.66	-0.084	-0.19417276775544492	
2.665	-0.031	-0.16164925214404613	
2.67	0.013	-0.12203544997644203	
2.675	0.035	-0.08094872192309432	
2.68	0.078	-0.036372262734442294	
2.685	0.099	0.006183319993964537	
2.69	0.119	0.04262560525689162	
2.695	0.070	0.07103100505712726	
2.7	0.201	0.09497281749549707	
2.705	0.212	0.12036978507101904	
2.71	0.136	0.1437943586793986	
2.715	0.224	0.16336970522420965	
2.72	0.279	0.182975397820204	
2.725	0.284	0.20603385465801416	
2.73	0.340	0.2356328268155522	
2.735	0.469	0.2742050041202774	
2.74	0.466	0.3206358954219244	
2.745	0.481	0.3710280724362175	
2.75	0.583	0.4219624807177156	
2.755	0.611	0.4723749284562084	
2.76	0.537	0.5168030340301341	
2.765	0.588	0.5503456138913764	
2.77	0.573	0.5709578305485461	
2.775	0.376	0.570039864236532	
2.78	0.252	0.5395905745150523	
2.785	0.209	0.4761513554343914	
2.79	0.067	0.3886629675070117	
2.795	-0.072	0.2870462822049631	
2.8	-0.098	0.17790884659557035	
2.805	-0.130	0.07138734196658728	
2.81	-0.184	-0.020115157789428215	
2.815	-0.165	-0.08965996794096444	
2.82	-0.155	-0.13907357640593854	
2.825	-0.170	-0.16888318817343503	
2.83	-0.155	-0.1813444364289713	
2.835	-0.104	-0.17988831065747363	
2.84	-0.112	-0.16933482275580697	
2.845	-0.138	-0.15488964982525558	
2.85	-0.164	-0.1421174637595804	
2.855	-0.161	-0.13967925178417517	
2.86	-0.161	-0.14409297869078652	
2.865	-0.104	-0.1446341558069557	
2.87	-0.092	-0.1391209115352267	
2.875	-0.179	-0.1349132998597932	
2.88	-0.181	-0.1353254497618903	
2.885	-0.148	-0.14089023333758885	
2.89	-0.187	-0.1503653264893144	
2.895	-0.228	-0.16189111801416678	
2.9	-0.182	-0.1740831900182303	
2.905	-0.197	-0.18567157005487023	
2.91	-0.222	-0.19512031549834435	
2.915	-0.202	-0.20063093250189143	
2.92	-0.208	-0.20509948985151594	
2.925	-0.257	-0.2109312404975495	
2.93	-0.239	-0.21833299903997566	
2.935	-0.202	-0.22385495749823403	
2.94	-0.127	-0.22236250159361065	
2.945	-0.089	-0.2059060356286172	
2.95	-0.087	-0.17604924420423496	
2.955	-0.185	-0.15067720058892492	
2.96	-0.312	-0.14719849293419485	
2.965	-0.300	-0.16762792692422446	
2.97	-0.246	-0.2000355717252052	
2.975	-0.181	-0.22596061424778655	
2.98	-0.106	-0.2283470438012022	
2.985	0.012	-0.2037675236858434	
2.99	0.010	-0.15937774625035608	
2.995	-0.038	-0.10900754487022882	
3.0	-0.014	-0.06500612042610321	
3.005	0.088	-0.031611269920564525	
3.01	0.108	0.0017479806839255552	
3.015	0.171	0.04139634701908509	
3.02	0.156	0.08203134085528402	
3.025	0.094	0.1109365339018675	
3.03	0.125	0.12758570627420002	
3.035	0.261	0.14133542454010828	
3.04	0.194	0.15860497859074027	
3.045	0.099	0.17288403422941756	
3.05	0.227	0.17807254675816508	
3.055	0.278	0.18546656951892893	
3.06	0.160	0.19664206247144977	
3.065	0.322	0.21036954321756515	
3.07	0.470	0.23715018889673908	
3.075	0.427	0.28195608769885133	
3.08	0.400	0.3335069493797417	
3.085	0.530	0.37933022090774393	
3.09	0.531	0.421662244171096	
3.095	0.455	0.4588847056922597	
3.1	0.461	0.48300542972453386	
3.105	0.333	0.48244578224307316	
3.11	0.070	0.44767494291740234	
3.115	0.044	0.3733174919265482	
3.12	0.009	0.27607276914238815	
3.125	-0.098	0.17301976796067933	
3.13	-0.103	0.0785633630314719	
3.135	-0.092	0.001259268518632342	
3.14	-0.144	-0.05931873424247777	
3.145	-0.165	-0.10401995502002906	
3.15	-0.119	-0.1310346102165943	
3.155	-0.113	-0.14556613713290784	
3.16	-0.148	-0.15020444666262112	
3.165	-0.130	-0.14767905633716238	
3.17	-0.110	-0.14300338678540833	
3.175	-0.101	-0.13692873963077762	
3.18	-0.100	-0.12640889796185856	
3.185	-0.035	-0.11282198247602782	
3.19	-0.043	-0.09631742683129065	
3.195	-0.109	-0.08197281237812734	
3.2	-0.057	-0.07209444540482055	
3.205	-0.083	-0.06860504220840538	
3.21	-0.168	-0.07415126008031028	
3.215	-0.153	-0.08769631185398347	
3.22	-0.173	-0.10805832171354879	
3.225	-0.242	-0.13388603800134508	
3.23	-0.223	-0.161391146665622	
3.235	-0.153	-0.18287643622154343	
3.24	-0.159	-0.19328240231795485	
3.245	-0.196	-0.1939202239410451	
3.25	-0.194	-0.19015293565060148	
3.255	-0.194	-0.19061541145944866	
3.26	-0.234	-0.19508115225565598	
3.265	-0.179	-0.19771678157807193	
3.27	-0.093	-0.19409140658502033	
3.275	-0.116	-0.1808222121035103	
3.28	-0.145	-0.16138553037304718	
3.285	-0.208	-0.14895649295358782	
3.29	-0.222	-0.15428910091334339	
3.295	-0.214	-0.16787965570149482	
3.3	-0.145	-0.17815895509557128	
3.305	-0.060	-0.17762136966415565	
3.31	-0.058	-0.16105447137860313	
3.315	0.052	-0.12669850630385018	
3.32	0.094	-0.0801069574297444	
3.325	0.088	-0.02885089773515559	
3.33	0.151	0.021626903877597418	
3.335	0.229	0.07308666591518025	
3.34	0.162	0.11769864224443953	
3.345	0.146	0.15107251234028535	
3.35	0.212	0.17185276664607504	
3.355	0.235	0.18639886834628522	
3.36	0.156	0.19689475455182784	
3.365	0.236	0.20327125244733318	
3.37	0.316	0.2129426929765279	
3.375	0.278	0.22916485289381766	
3.38	0.296	0.24957712638189733	
3.385	0.376	0.2730933189281169	
3.39	0.412	0.2987578505317401	
3.395	0.395	0.33006579471835273	
3.4	0.484	0.3648196620720062	
3.405	0.571	0.40243328573823434	
3.41	0.527	0.4449227802165343	
3.415	0.554	0.48623178159645203	
3.42	0.565	0.5179171497309303	
3.425	0.444	0.5341770668466724	
3.43	0.372	0.5295627151018938	
3.435	0.327	0.5000542203271032	
3.44	0.172	0.44674526873080517	
3.445	0.053	0.3720745011856116	
3.45	0.009	0.2808028425056842	
3.455	-0.083	0.1834128535533129	
3.46	-0.168	0.08494650881924708	
3.465	-0.177	-0.004747590522628313	
3.47	-0.156	-0.07908434147688832	
3.475	-0.200	-0.13478631220924192	
3.48	-0.176	-0.17039581783399343	
3.485	-0.129	-0.18594409533063733	
3.49	-0.129	-0.18723251645287797	
3.495	-0.144	-0.17789367831090264	
3.5	-0.068	-0.16120852903439434	
3.505	-0.038	-0.1385872303069317	
3.51	-0.109	-0.11503840821669345	
3.515	-0.084	-0.0957808372585224	
3.52	-0.054	-0.08411418633918699	
3.525	-0.110	-0.07877166825166446	
3.53	-0.142	-0.07941453510051612	
3.535	-0.136	-0.08899049818032154	
3.54	-0.136	-0.10422152465765189	
3.545	-0.162	-0.11886613093117307	
3.55	-0.152	-0.13023620959075916	
3.555	-0.173	-0.1426106295405659	
3.56	-0.200	-0.15600825014676323	
3.565	-0.153	-0.1647575896703512	
3.57	-0.133	-0.16913060387128884	
3.575	-0.197	-0.1697782364985112	
3.58	-0.187	-0.1703885869398562	
3.585	-0.176	-0.1729811951156993	
3.59	-0.190	-0.1772466848541597	
3.595	-0.162	-0.17986692012403943	
3.6	-0.002	-0.170197823355543	
3.605	0.122	-0.1365909159929018	
3.61	0.036	-0.08402000752264932	
3.615	-0.081	-0.0347804410633087	
3.62	-0.177	-0.018169674435634185	
3.625	-0.196	-0.03780113847202901	
3.63	-0.142	-0.07235747879856771	
3.635	-0.058	-0.09995414474271022	
3.64	-0.025	-0.10926424286663516	
3.645	-0.029	-0.10086107571372901	
3.65	0.108	-0.07417039521272689	
3.655	0.122	-0.03462731911216373	
3.66	0.030	0.007938273982427236	
3.665	0.114	0.04227081237091392	
3.67	0.146	0.07088506462230404	
3.675	0.130	0.09417593539275212	
3.68	0.163	0.11561940273846465	
3.685	0.189	0.13605862730912194	
3.69	0.195	0.15272403449834487	
3.695	0.168	0.16710330280960456	
3.7	0.292	0.183831858563974	
3.705	0.333	0.206398301410763	
3.71	0.334	0.2379332664372702	
3.715	0.337	0.2732655088269936	
3.72	0.403	0.30490125711586513	
3.725	0.417	0.33516890341248146	
3.73	0.481	0.3676148730006624	
3.735	0.640	0.41109000711975174	
3.74	0.667	0.46573103520440023	
3.745	0.608	0.526081825234286	
3.75	0.606	0.5758252251527002	
3.755	0.525	0.600369278304004	
3.76	0.350	0.5938908915612195	
3.765	0.252	0.5502666164902374	
3.77	0.189	0.47589624971114336	
3.775	0.035	0.3801402214723295	
3.78	-0.045	0.2736242274889157	
3.785	-0.071	0.1660946264901169	
3.79	-0.148	0.06570296034036349	
3.795	-0.194	-0.021890205112034985	
3.8	-0.162	-0.0911189015413076	
3.805	-0.162	-0.14162872379412178	
3.81	-0.187	-0.17208535994803248	
3.815	-0.156	-0.18566691869342675	
3.82	-0.141	-0.1871013083221258	
3.825	-0.156	-0.18288769252349532	
3.83	-0.153	-0.17334133652585706	
3.835	-0.109	-0.16289055215502854	
3.84	-0.135	-0.15235260512990592	
3.845	-0.144	-0.14289721923581528	
3.85	-0.066	-0.1330827966528051	
3.855	-0.055	-0.11966698710249218	
3.86	-0.103	-0.10512616548636161	
3.865	-0.104	-0.09363494766515776	
3.87	-0.133	-0.09111134058559096	
3.875	-0.185	-0.1009419074370182	
3.88	-0.181	-0.1173172813532035	
3.885	-0.165	-0.13485399845754836	
3.89	-0.205	-0.1543959181887078	
3.895	-0.231	-0.17190937050701527	
3.9	-0.177	-0.18602676673217372	
3.905	-0.185	-0.1956803928260742	
3.91	-0.223	-0.20117702640831198	
3.915	-0.190	-0.20258336168162805	
3.92	-0.165	-0.2010645722336519	
3.925	-0.171	-0.197001062564566	
3.93	-0.045	-0.18331132040946457	
3.935	0.059	-0.1507634288097386	
3.94	-0.037	-0.10742756752741578	
3.945	-0.246	-0.07800489995694534	
3.95	-0.287	-0.08500939281573905	
3.955	-0.263	-0.12365583132838898	
3.96	-0.236	-0.17022161320821794	
3.965	-0.129	-0.19855824803735567	
3.97	-0.097	-0.20400142219827166	
3.975	-0.132	-0.19103931974741578	
3.98	-0.049	-0.16734877095599093	
3.985	0.078	-0.13071718409700894	
3.99	0.085	-0.08142012956904242	
3.995	0.068	-0.028024044780027207	
4.0	0.162	0.02404894494218954	
4.005	0.145	0.06737195868474544	
4.01	0.067	0.09969815070356161	
4.015	0.185	0.12040882449272745	
4.02	0.250	0.1400520567527348	
4.025	0.145	0.15994966702308772	
4.03	0.139	0.17258110605579743	
4.035	0.229	0.17929045090269008	
4.04	0.272	0.18663068178925618	
4.045	0.238	0.202955076862253	
4.05	0.409	0.22902310004199294	
4.055	0.512	0.2704336728334872	
4.06	0.461	0.32674251712017377	
4.065	0.545	0.38735046797834555	
4.07	0.615	0.44602422522862634	
4.075	0.550	0.4980136705554266	
4.08	0.553	0.5375763952192887	
4.085	0.557	0.5612096484170516	
4.09	0.429	0.5636440763816426	
4.095	0.233	0.5369821978518263	
4.1	0.185	0.476922876263368	
4.105	0.061	0.38839110689738165	
4.11	-0.032	0.28482823377135424	
4.115	-0.035	0.18133610417239987	
4.12	-0.060	0.08996661605721112	
4.125	-0.139	0.012099233518092023	
4.13	-0.144	-0.04937789010117153	
4.135	-0.110	-0.09385571646003267	
4.14	-0.130	-0.12330288934553586	
4.145	-0.113	-0.13692127814252136	
4.15	-0.055	-0.13611593281247433	
4.155	-0.045	-0.12361252979383008	
4.16	-0.113	-0.10810278538810615	
4.165	-0.127	-0.09671789459471897	
4.17	-0.124	-0.09610072355858831	
4.175	-0.150	-0.10384148154408773	
4.18	-0.119	-0.11237576034844816	
4.185	-0.100	-0.1179317067693909	
4.19	-0.138	-0.12127730058527797	
4.195	-0.182	-0.125889872829574	
4.2	-0.148	-0.13318722994254525	
4.205	-0.144	-0.14261918553758782	
4.21	-0.194	-0.15103532391213909	
4.215	-0.193	-0.15874152312862475	
4.22	-0.213	-0.17013811038119986	
4.225	-0.219	-0.18479192606710365	
4.23	-0.197	-0.1953643359677451	
4.235	-0.162	-0.19997641474353917	
4.24	-0.155	-0.19725735612098882	
4.245	-0.171	-0.1898527709709694	
4.25	-0.130	-0.178213110710691	
4.255	-0.060	-0.1636309540606648	
4.26	-0.037	-0.1400001391698456	
4.265	-0.045	-0.10973536166170607	
4.27	-0.116	-0.08517145878014268	
4.275	-0.217	-0.08181295011370797	
4.28	-0.251	-0.10136581029806307	
4.285	-0.181	-0.13297829354653923	
4.29	-0.135	-0.1592564101900631	
4.295	-0.069	-0.16783550703616062	
4.3	0.044	-0.14918646595501978	
4.305	0.073	-0.10962828866580748	
4.31	0.030	-0.06103099918043829	
4.315	0.157	-0.010740918905374255	
4.32	0.226	0.042878127113527106	
4.325	0.209	0.09720907691272464	
4.33	0.130	0.1425925803968232	
4.335	0.180	0.1690073405170755	
4.34	0.174	0.18076404539599863	
4.345	0.134	0.18312976522224658	
4.35	0.263	0.18476623751386229	
4.355	0.371	0.19841120807959253	
4.36	0.342	0.2290179419206288	
4.365	0.327	0.26721037464820446	
4.37	0.382	0.30083189370364954	
4.375	0.360	0.3262636749180071	
4.38	0.391	0.34862690469040125	
4.385	0.489	0.37196323237474294	
4.39	0.505	0.39977964993693715	
4.395	0.495	0.43118883558668053	
4.4	0.470	0.4597186727501944	
4.405	0.478	0.47633907199550746	
4.41	0.444	0.4810539088255244	
4.415	0.460	0.4812448652539562	
4.42	0.389	0.47278385965441155	
4.425	0.249	0.4492417448596254	
4.43	0.131	0.4016514654256379	
4.435	0.078	0.3329399270738464	
4.44	-0.017	0.24874101415302735	
4.445	-0.083	0.15921360430920842	
4.45	-0.077	0.07575582882104287	
4.455	-0.098	0.004337725934023812	
4.46	-0.148	-0.05194206020061145	
4.465	-0.110	-0.09172978161375726	
4.47	-0.068	-0.11519969209395453	
4.475	-0.089	-0.12174092353331929	
4.48	-0.087	-0.11732204464567758	
4.485	-0.020	-0.10505040657935594	
4.49	-0.025	-0.08826034097960919	
4.495	-0.095	-0.07178473770813099	
4.5	-0.063	-0.06126364427863957	
4.505	-0.071	-0.059689669752576224	
4.51	-0.115	-0.06293554685138239	
4.515	-0.068	-0.06872911727928108	
4.52	-0.063	-0.07323485417036904	
4.525	-0.109	-0.07774491307620146	
4.53	-0.101	-0.08229985174878693	
4.535	-0.095	-0.08707196760762298	
4.54	-0.113	-0.0932791476589462	
4.545	-0.148	-0.10075424717754958	
4.55	-0.101	-0.10825398439135464	
4.555	-0.112	-0.11370780207780186	
4.56	-0.144	-0.11892245886886485	
4.565	-0.122	-0.12171878113958169	
4.57	-0.103	-0.12325127094374913	
4.575	-0.122	-0.12374139566144232	
4.58	-0.107	-0.12128596234926908	
4.585	-0.003	-0.1120737300412537	
4.59	-0.020	-0.09527234330192072	
4.595	-0.037	-0.07274752830812946	
4.6	-0.072	-0.05427146041814067	
4.605	-0.132	-0.05072666347661521	
4.61	-0.173	-0.06392690864877507	
4.615	-0.115	-0.08471366629008766	
4.62	-0.013	-0.09823681413167618	
4.625	-0.006	-0.09472932686012252	
4.63	0.047	-0.07428586548896689	
4.635	0.111	-0.04007523384583492	
4.64	0.156	0.0027285657938398832	
4.645	0.137	0.04824867827626012	
4.65	0.195	0.09273085037236418	
4.655	0.206	0.1302907830669278	
4.66	0.174	0.1600774555659752	
4.665	0.230	0.18226593880727876	
4.67	0.220	0.1997511429764754	
4.675	0.195	0.20926295492062702	
4.68	0.235	0.2156922282114862	
4.685	0.285	0.22392946285734677	
4.69	0.261	0.23374620422180686	
4.695	0.226	0.2432218003473009	
4.7	0.321	0.25272624769620067	
4.705	0.389	0.2673449705582491	
4.71	0.362	0.2920795198690824	
4.715	0.476	0.3252299194777491	
4.72	0.513	0.365789632691772	
4.725	0.449	0.40629199535682625	
4.73	0.476	0.43963067697048486	
4.735	0.542	0.4659158195679862	
4.74	0.501	0.4858058857766646	
4.745	0.376	0.49419204109329423	
4.75	0.288	0.48064767599469305	
4.755	0.211	0.4373640280950206	
4.76	0.079	0.3710970016156528	
4.765	0.021	0.28916621444015134	
4.77	0.000	0.20178880250620462	
4.775	-0.104	0.11535591347244283	
4.78	-0.132	0.03761985558743297	
4.785	-0.127	-0.030109157368175578	
4.79	-0.101	-0.08114347570582842	
4.795	-0.135	-0.11276861281588017	
4.8	-0.152	-0.13036050105314834	
4.805	-0.092	-0.14061902149941552	
4.81	-0.118	-0.14086241124316148	
4.815	-0.107	-0.13382911914784926	
4.82	-0.089	-0.1252416012871201	
4.825	-0.100	-0.1166491830211333	
4.83	-0.069	-0.10735061266764828	
4.835	-0.058	-0.09512430912806744	
4.84	-0.095	-0.0862000111294951	
4.845	-0.112	-0.08276512655909193	
4.85	-0.095	-0.0833276844372084	
4.855	-0.103	-0.08765402017542642	
4.86	-0.190	-0.09689956830353355	
4.865	-0.161	-0.11179710142003524	
4.87	-0.145	-0.1292265481824435	
4.875	-0.185	-0.14468202232602334	
4.88	-0.197	-0.1573463830981952	
4.885	-0.145	-0.16709588922894653	
4.89	-0.165	-0.17321079188203678	
4.895	-0.176	-0.17376728522530227	
4.9	-0.170	-0.17230408014930823	
4.905	-0.159	-0.17166745203510436	
4.91	-0.182	-0.17191000702977258	
4.915	-0.121	-0.1687594082206803	
4.92	-0.057	-0.15722263751495702	
4.925	-0.107	-0.14071684862760064	
4.93	-0.156	-0.12533597194862664	
4.935	-0.222	-0.12308895705313741	
4.94	-0.232	-0.13926237155247043	
4.945	-0.200	-0.16277023058122536	
4.95	-0.098	-0.1762358831498962	
4.955	0.003	-0.16966419009115352	
4.96	0.018	-0.1389474134411898	
4.965	0.111	-0.08971732527760684	
4.97	0.148	-0.03120231559741675	
4.975	0.108	0.02521049132479924	
4.98	0.096	0.07066803556577825	
4.985	0.174	0.10298555412963531	
4.99	0.188	0.12770644160213812	
4.995	0.140	0.147181978372236	
5.0	0.232	0.16480443564526676	
5.005	0.261	0.181321534312526	
5.01	0.157	0.19698625684176324	
5.015	0.296	0.21030576468600784	
5.02	0.293	0.22583158674455983	
5.025	0.223	0.24117716609716608	
5.03	0.278	0.2526700825285184	
5.035	0.382	0.2660281545584772	
5.04	0.444	0.28971055074347374	
5.045	0.461	0.32817621904166216	
5.05	0.530	0.3758152123976994	
5.055	0.568	0.4253187455900338	
5.06	0.443	0.4669768934434417	
5.065	0.507	0.49429369252024846	
5.07	0.536	0.5078150775108032	
5.075	0.409	0.5111873908786394	
5.08	0.310	0.4956707097144121	
5.085	0.186	0.45396825416261744	
5.09	0.032	0.38067531618411715	
5.095	-0.066	0.2832024772409459	
5.1	-0.072	0.1768038655784508	
5.105	-0.101	0.07630343112541345	
5.11	-0.161	-0.007960495466814078	
5.115	-0.135	-0.07267443112728085	
5.12	-0.135	-0.11621792575308754	
5.125	-0.181	-0.14578345552018734	
5.13	-0.174	-0.16227497004985814	
5.135	-0.168	-0.17203994767292552	
5.14	-0.202	-0.18031772339254057	
5.145	-0.211	-0.18675935296266793	
5.15	-0.158	-0.18920726187724562	
5.155	-0.174	-0.18972684356553132	
5.16	-0.219	-0.18896055686516028	
5.165	-0.150	-0.18767890772017382	
5.17	-0.106	-0.18123186683978382	
5.175	-0.153	-0.16978448840302612	
5.18	-0.147	-0.1572802992264663	
5.185	-0.121	-0.1480516726319644	
5.19	-0.164	-0.14331284644152545	
5.195	-0.223	-0.14475943889583984	
5.2	-0.208	-0.15523355758957252	
5.205	-0.211	-0.1717299329609851	
5.21	-0.240	-0.18993039037837278	
5.215	-0.208	-0.2036861247045677	
5.22	-0.156	-0.21025788526762612	
5.225	-0.208	-0.2097594236186459	
5.23	-0.232	-0.20726354078945455	
5.235	-0.240	-0.20808885605188143	
5.24	-0.226	-0.21631380154506474	
5.245	-0.153	-0.21870939474725654	
5.25	0.052	-0.20021353140180878	
5.255	0.134	-0.1517289989057044	
5.26	0.018	-0.08491969098725899	
5.265	-0.142	-0.033721053390947484	
5.27	-0.254	-0.02633157181965141	
5.275	-0.243	-0.06076812233792392	
5.28	-0.165	-0.10720556196677904	
5.285	-0.097	-0.14007304980606688	
5.29	-0.060	-0.15133882307035879	
5.295	-0.032	-0.14068923079786755	
5.3	0.062	-0.11019699177806944	
5.305	0.038	-0.0707893478771922	
5.31	-0.040	-0.03394768694720594	
5.315	0.049	-0.007640369922105816	
5.32	0.145	0.01572319318593051	
5.325	0.104	0.04319805277457688	
5.33	0.137	0.07277909294139856	
5.335	0.169	0.0999355471416832	
5.34	0.162	0.12263074635386448	
5.345	0.175	0.14228877843582224	
5.35	0.259	0.16281362605081973	
5.355	0.276	0.1862108333373342	
5.36	0.247	0.2120586878141542	
5.365	0.371	0.2393759810359879	
5.37	0.447	0.2747164516475799	
5.375	0.435	0.3181968733998758	
5.38	0.499	0.36579079416905463	
5.385	0.626	0.41793070274739935	
5.39	0.680	0.4766437102616971	
5.395	0.644	0.5393065891700684	
5.4	0.651	0.5927697747523692	
5.405	0.603	0.6261758035550835	
5.41	0.402	0.6300846755102282	
5.415	0.331	0.5983412795248606	
5.42	0.162	0.5276333126474981	
5.425	-0.017	0.4242153871767265	
5.43	-0.040	0.29983098749384796	
5.435	-0.080	0.17588044540154563	
5.44	-0.141	0.0656445087612523	
5.445	-0.197	-0.026618988299642196	
5.45	-0.202	-0.09923895383155433	
5.455	-0.211	-0.15583495427212157	
5.46	-0.219	-0.19382676628999349	
5.465	-0.167	-0.21362236690908204	
5.47	-0.124	-0.2143893968519081	
5.475	-0.150	-0.2037305218524956	
5.48	-0.126	-0.18414129395881912	
5.485	-0.162	-0.16619034715591016	
5.49	-0.213	-0.1593772731607278	
5.495	-0.164	-0.160588602211295	
5.5	-0.121	-0.1602586154260523	
5.505	-0.121	-0.15685953831966626	
5.51	-0.181	-0.15082455994393387	
5.515	-0.205	-0.15064070340253238	
5.52	-0.211	-0.16041383365083564	
5.525	-0.234	-0.17673353460588018	
5.53	-0.223	-0.19213093843016618	
5.535	-0.202	-0.2041760677307039	
5.54	-0.222	-0.21337567049384604	
5.545	-0.232	-0.2185899737821119	
5.55	-0.232	-0.22225119986542285	
5.555	-0.202	-0.22487181706502427	
5.56	-0.245	-0.22683290046841081	
5.565	-0.254	-0.2276078980516723	
5.57	-0.251	-0.23240894903969014	
5.575	-0.184	-0.23676955998576768	
5.58	0.038	-0.2210917150589181	
5.585	0.191	-0.16809938181736755	
5.59	0.114	-0.08741374093284829	
5.595	-0.153	-0.019672135054658146	
5.6	-0.237	-0.0012521164108759233	
5.605	-0.223	-0.03187127462192164	
5.61	-0.203	-0.08286169360658426	
5.615	-0.153	-0.12757627874598992	
5.62	-0.093	-0.15336725385696337	
5.625	-0.058	-0.1577903408529784	
5.63	-0.023	-0.141110582629901	
5.635	0.035	-0.10910866756971385	
5.64	-0.013	-0.07343944664140167	
5.645	-0.026	-0.04263533791047735	
5.65	0.065	-0.018171346399455644	
5.655	0.093	0.005122450960380235	
5.66	0.049	0.029091679171521355	
5.665	0.125	0.05144071630599948	
5.67	0.133	0.07263514924531533	
5.675	0.110	0.09115891813440312	
5.68	0.165	0.10888309082324034	
5.685	0.220	0.1279192108959747	
5.69	0.264	0.15255408272776486	
5.695	0.299	0.185367676355029	
5.7	0.443	0.22885668412923219	
5.705	0.556	0.2871229846661202	
5.71	0.513	0.35708618593183356	
5.715	0.614	0.42844907534662907	
5.72	0.625	0.4936210873561351	
5.725	0.628	0.5481478038331735	
5.73	0.620	0.589892925620989	
5.735	0.560	0.6148931747006543	
5.74	0.420	0.6115095776987461	
5.745	0.238	0.5723553016548006	
5.75	0.163	0.49883548305473047	
5.755	0.042	0.39608387968079584	
5.76	-0.069	0.2810897702526107	
5.765	-0.063	0.16648462467802277	
5.77	-0.150	0.0636302258558101	
5.775	-0.193	-0.025855337690748506	
5.78	-0.177	-0.09707667084309114	
5.785	-0.153	-0.14606022966441068	
5.79	-0.138	-0.1734686927719387	
5.795	-0.147	-0.1806244772326453	
5.8	-0.106	-0.1741218421296149	
5.805	-0.098	-0.16190579071967454	
5.81	-0.145	-0.14694011218182718	
5.815	-0.103	-0.13351379286967335	
5.82	-0.081	-0.12235884498886777	
5.825	-0.116	-0.11389146777208944	
5.83	-0.138	-0.1080963584938508	
5.835	-0.112	-0.10804977662096228	
5.84	-0.126	-0.11150170721235507	
5.845	-0.171	-0.11764793070058842	
5.85	-0.130	-0.12509230533455867	
5.855	-0.153	-0.13391528913684864	
5.86	-0.213	-0.1439694336551035	
5.865	-0.193	-0.15648375714820859	
5.87	-0.171	-0.16934777695803535	
5.875	-0.237	-0.18192512721601242	
5.88	-0.225	-0.19307710200625244	
5.885	-0.164	-0.2020182279572723	
5.89	-0.202	-0.20552744630365982	
5.895	-0.245	-0.20564990013911683	
5.9	-0.214	-0.2090679556144654	
5.905	-0.159	-0.21093547614569075	
5.91	-0.074	-0.2019585689173226	
5.915	0.004	-0.1724277566591933	
5.92	-0.122	-0.1353771181270761	
5.925	-0.298	-0.11799693021342443	
5.93	-0.329	-0.13506562157188423	
5.935	-0.268	-0.1739954622306018	
5.94	-0.197	-0.2125528117517831	
5.945	-0.135	-0.22762908337259877	
5.95	-0.020	-0.21400659541402206	
5.955	0.029	-0.17694766265200085	
5.96	0.003	-0.12401022981531207	
5.965	0.064	-0.06941864201488332	
5.97	0.122	-0.01835489705545914	
5.975	0.021	0.024000274040597465	
5.98	0.114	0.05495880686103746	
5.985	0.181	0.0800165424625574	
5.99	0.157	0.10540965177863168	
5.995	0.156	0.12835139817504745	
6.0	0.203	0.14898579337019052	
6.005	0.263	0.16803105999624984	
6.01	0.208	0.1890020298000453	
6.015	0.310	0.21159350403422653	
6.02	0.324	0.23662684844175244	
6.025	0.331	0.2630217336177656	
6.03	0.438	0.29499103724630227	
6.035	0.496	0.3349932332684515	
6.04	0.475	0.3794017242313573	
6.045	0.533	0.4223782291137292	
6.05	0.614	0.4669780089210738	
6.055	0.596	0.5100186801498668	
6.06	0.476	0.5410007673059516	
6.065	0.431	0.5505569908762482	
6.07	0.376	0.5316081790255358	
6.075	0.181	0.48603419601223186	
6.08	0.084	0.4129479779137182	
6.085	0.047	0.3199557762423061	
6.09	-0.072	0.21745224723835233	
6.095	-0.133	0.11739450911538919	
6.1	-0.139	0.025927696010779204	
6.105	-0.174	-0.05195034835366006	
6.11	-0.203	-0.11392389978401957	
6.115	-0.150	-0.1544514544732394	
6.12	-0.136	-0.17638998377675488	
6.125	-0.159	-0.18289514717188043	
6.13	-0.156	-0.17904164159433622	
6.135	-0.130	-0.17107912416051158	
6.14	-0.121	-0.162523697648834	
6.145	-0.129	-0.15059098537348228	
6.15	-0.078	-0.13710990982094923	
6.155	-0.061	-0.12195801091774092	
6.16	-0.112	-0.10691314645384875	
6.165	-0.072	-0.09448167437774455	
6.17	-0.104	-0.08841915119938831	
6.175	-0.139	-0.08988848023384653	
6.18	-0.141	-0.09703965794344395	
6.185	-0.129	-0.10709247171462431	
6.19	-0.173	-0.12052460989144359	
6.195	-0.184	-0.1345859098571779	
6.2	-0.182	-0.1491133218915136	
6.205	-0.171	-0.1629603219074936	
6.21	-0.185	-0.17290751251508368	
6.215	-0.156	-0.17646816689450595	
6.22	-0.148	-0.1764114019250163	
6.225	-0.187	-0.1738964061639035	
6.23	-0.132	-0.1700341122576362	
6.235	-0.057	-0.15906990334534893	
6.24	-0.032	-0.1395251548923873	
6.245	-0.060	-0.11159551685680433	
6.25	-0.142	-0.08910888935153476	
6.255	-0.239	-0.08998948978944142	
6.26	-0.320	-0.11795261037344835	
6.265	-0.231	-0.15944343202109773	
6.27	-0.122	-0.1923679793318938	
6.275	-0.072	-0.1999113386462164	
6.28	0.035	-0.17602468653531084	
6.285	0.134	-0.12502256914238075	
6.29	0.084	-0.06055701640026431	
6.295	0.075	-0.0006489723438434221	
6.3	0.172	0.04994057511730924	
6.305	0.208	0.093064013828313	
6.31	0.178	0.13101058394827217	
6.315	0.272	0.16653687494167257	
6.32	0.232	0.19665820961939603	
6.325	0.131	0.21404091490069113	
6.33	0.134	0.21289466458962691	
6.335	0.191	0.20100445264407327	
6.34	0.209	0.1894974757878422	
6.345	0.238	0.1893192033271197	
6.35	0.368	0.20393964075348975	
6.355	0.421	0.23613465201803305	
6.36	0.394	0.28200223597918866	
6.365	0.484	0.3324808214969993	
6.37	0.521	0.3826985854549037	
6.375	0.496	0.4280891238383995	
6.38	0.539	0.46784998165639285	
6.385	0.551	0.4989863834428117	
6.39	0.461	0.5185313780849783	
6.395	0.353	0.5162730794006996	
6.4	0.264	0.4878652064173128	
6.405	0.209	0.43215476268936265	
6.41	0.070	0.3600189796934544	
6.415	0.009	0.2754297278380226	
6.42	-0.045	0.18470219818118555	
6.425	-0.104	0.09614400213861302	
6.43	-0.136	0.017843660279090543	
6.435	-0.118	-0.045027846535877304	
6.44	-0.138	-0.09341847092252198	
6.445	-0.165	-0.12568937300714317	
6.45	-0.141	-0.14513760736367104	
6.455	-0.124	-0.15482792319020394	
6.46	-0.129	-0.1559559116822552	
6.465	-0.098	-0.14856995424391398	
6.47	-0.063	-0.13529862230435222	
6.475	-0.095	-0.11985963570463026	
6.48	-0.080	-0.10417340553914178	
6.485	-0.055	-0.09103491922069157	
6.49	-0.089	-0.0824279324059045	
6.495	-0.101	-0.07771116824387074	
6.5	-0.060	-0.07613638962823102	
6.505	-0.084	-0.0768219102082638	
6.51	-0.161	-0.08098123535328142	
6.515	-0.156	-0.09258408824205788	
6.52	-0.162	-0.11128571159608033	
6.525	-0.184	-0.13186203730230237	
6.53	-0.148	-0.14717424872322943	
6.535	-0.132	-0.15501416793658923	
6.54	-0.148	-0.15842792296587482	
6.545	-0.152	-0.15672067610824963	
6.55	-0.147	-0.15311784557181735	
6.555	-0.148	-0.15182414580524012	
6.56	-0.167	-0.15200404626505537	
6.565	-0.075	-0.1485491374419301	
6.57	0.006	-0.13324779099081252	
6.575	-0.046	-0.10790159602155708	
6.58	-0.142	-0.08520162581387969	
6.585	-0.194	-0.08099742282611806	
6.59	-0.229	-0.10146027082854414	
6.595	-0.207	-0.13174504919526875	
6.6	-0.072	-0.15405623391010237	
6.605	-0.005	-0.15379718836809925	
6.61	-0.048	-0.13304481002591245	
6.615	0.027	-0.09853678939391355	
6.62	0.191	-0.05522220557938835	
6.625	0.169	0.0010676805442352594	
6.63	0.177	0.06281169366411787	
6.635	0.186	0.1150430881891463	
6.64	0.152	0.14950287279692498	
6.645	0.137	0.16923591940858485	
6.65	0.229	0.17897106006955152	
6.655	0.230	0.18715528852865887	
6.66	0.189	0.19692523213742055	
6.665	0.256	0.206523809673509	
6.67	0.278	0.21875341492030634	
6.675	0.172	0.22799630662205675	
6.68	0.270	0.23286570771838505	
6.685	0.403	0.24509735888729042	
6.69	0.392	0.2714748811625048	
6.695	0.479	0.3112533459284325	
6.7	0.560	0.3640048652545751	
6.705	0.592	0.42213231542340285	
6.71	0.556	0.47791204061763953	
6.715	0.643	0.5275287786416251	
6.72	0.621	0.5677456845467999	
6.725	0.438	0.5879868451696844	
6.73	0.368	0.5778317264877284	
6.735	0.296	0.5340578325929072	
6.74	0.152	0.46347701352986526	
6.745	0.033	0.3732423156751433	
6.75	-0.029	0.2699648291198285	
6.755	-0.066	0.16415312259092926	
6.76	-0.164	0.06596171475036013	
6.765	-0.135	-0.017489144848825872	
6.77	-0.158	-0.0822572976220039	
6.775	-0.205	-0.13093725242767815	
6.78	-0.173	-0.16413823439209924	
6.785	-0.135	-0.17996188996931167	
6.79	-0.153	-0.18447732024826707	
6.795	-0.200	-0.18172794994888486	
6.8	-0.135	-0.17708079196971174	
6.805	-0.106	-0.16983687340425918	
6.81	-0.118	-0.15700151636679338	
6.815	-0.063	-0.13853970770712634	
6.82	-0.061	-0.11828581268324458	
6.825	-0.127	-0.10290008029537767	
6.83	-0.132	-0.09517145372774716	
6.835	-0.121	-0.09701657468089761	
6.84	-0.141	-0.10544178153675621	
6.845	-0.150	-0.11470768744971659	
6.85	-0.147	-0.1241253774472042	
6.855	-0.161	-0.13483516496523268	
6.86	-0.232	-0.14897662840907194	
6.865	-0.179	-0.16356735593085123	
6.87	-0.100	-0.1722853282250994	
6.875	-0.118	-0.16984941031163095	
6.88	-0.148	-0.15817358725259092	
6.885	-0.176	-0.14905145033005546	
6.89	-0.187	-0.15143101369024486	
6.895	-0.109	-0.15468878266181452	
6.9	0.072	-0.14111731558821108	
6.905	0.177	-0.09980641862636126	
6.91	0.070	-0.038968711032472396	
6.915	-0.126	0.008386663369124811	
6.92	-0.214	0.011656645511499681	
6.925	-0.260	-0.02787152772967265	
6.93	-0.150	-0.08213870230820493	
6.935	-0.086	-0.12200808821475528	
6.94	-0.051	-0.13843803275464706	
6.945	-0.028	-0.1306938966521459	
6.95	0.023	-0.10509775653160514	
6.955	0.062	-0.07084518415083407	
6.96	0.007	-0.03400745769580799	
6.965	0.042	-0.002536462309793147	
6.97	0.050	0.019716007850345912	
6.975	0.047	0.03406999546958209	
6.98	0.085	0.04685227827121946	
6.985	0.165	0.06304172107528339	
6.99	0.113	0.08150519455917611	
6.995	0.072	0.09724803733001595	
7.0	0.168	0.10896106250667037	
7.005	0.211	0.1211629391120925	
7.01	0.204	0.14093812555153368	
7.015	0.305	0.16851160107660018	
7.02	0.369	0.20576695354908237	
7.025	0.372	0.2500167200570077	
7.03	0.498	0.3008479216267923	
7.035	0.589	0.3621007108176892	
7.04	0.589	0.4274813009062182	
7.045	0.611	0.4912073624875167	
7.05	0.655	0.5469997756851364	
7.055	0.599	0.5881609267099481	
7.06	0.365	0.6018542420528539	
7.065	0.322	0.5754814848836896	
7.07	0.215	0.5117921953767577	
7.075	0.023	0.42098916418817456	
7.08	-0.029	0.3098025483771156	
7.085	-0.080	0.1941196675169977	
7.09	-0.116	0.08552158916486385	
7.095	-0.158	-0.005794140503019901	
7.1	-0.115	-0.07199943074936624	
7.105	-0.116	-0.11678565456293225	
7.11	-0.162	-0.14110092096806065	
7.115	-0.139	-0.1525180548301125	
7.12	-0.095	-0.15418355064801575	
7.125	-0.113	-0.14897190429857723	
7.13	-0.090	-0.13720852560269847	
7.135	-0.074	-0.12189509812828132	
7.14	-0.097	-0.10847252723794437	
7.145	-0.106	-0.09982304954795086	
7.15	-0.034	-0.09002447969406276	
7.155	-0.031	-0.07976815160571524	
7.16	-0.092	-0.07011892471056466	
7.165	-0.095	-0.06455673132253309	
7.17	-0.095	-0.06716150842428484	
7.175	-0.173	-0.07897032286382218	
7.18	-0.170	-0.09725950478395679	
7.185	-0.113	-0.11586986698465797	
7.19	-0.142	-0.13042092167670385	
7.195	-0.179	-0.13986782046536878	
7.2	-0.167	-0.14804676714309092	
7.205	-0.173	-0.1577149123132116	
7.21	-0.226	-0.1681317779589941	
7.215	-0.263	-0.18159651457558226	
7.22	-0.255	-0.20112124397077613	
7.225	-0.240	-0.22194969144384052	
7.23	-0.032	-0.22627850610065006	
7.235	0.241	-0.1878097322183767	
7.24	0.259	-0.10336649794957199	
7.245	-0.064	-0.010947262898062986	
7.25	-0.214	0.034866252125734985	
7.255	-0.248	0.015299600603305635	
7.26	-0.266	-0.043109860626020485	
7.265	-0.193	-0.10661158128617033	
7.27	-0.118	-0.15410565105353	
7.275	-0.110	-0.17590644928376117	
7.28	-0.075	-0.17128747553838405	
7.285	-0.009	-0.1488843004471085	
7.29	-0.032	-0.11839903743606109	
7.295	-0.025	-0.0858669832307937	
7.3	0.070	-0.05305716199121617	
7.305	0.096	-0.0187186696247457	
7.31	0.015	0.01387871033325982	
7.315	0.105	0.039408532877619196	
7.32	0.154	0.06285758347491832	
7.325	0.079	0.08305721784339525	
7.33	0.143	0.09972696394498327	
7.335	0.223	0.11810610858388328	
7.34	0.305	0.14459879986794869	
7.345	0.362	0.18617408084677042	
7.35	0.476	0.24393613863642535	
7.355	0.539	0.31125629025396395	
7.36	0.489	0.3799116339767541	
7.365	0.551	0.44140861517520397	
7.37	0.634	0.49181066576876725	
7.375	0.632	0.5380805931468629	
7.38	0.608	0.5777631358629036	
7.385	0.596	0.6050427811856323	
7.39	0.495	0.6105485291462118	
7.395	0.359	0.5902055804413094	
7.4	0.302	0.5429060769476839	
7.405	0.188	0.4711846822848301	
7.41	0.000	0.37995277311073106	
7.415	-0.025	0.27345124625109146	
7.42	-0.063	0.16575171820784296	
7.425	-0.173	0.06509524234419553	
7.43	-0.167	-0.021155814045761945	
7.435	-0.135	-0.08897911320950729	
7.44	-0.167	-0.13545240664696	
7.445	-0.142	-0.16069381862862758	
7.45	-0.122	-0.1690911887030604	
7.455	-0.132	-0.1668676527388986	
7.46	-0.129	-0.15997611004648893	
7.465	-0.045	-0.14451006429589364	
7.47	-0.035	-0.12232475166835048	
7.475	-0.074	-0.09990550058497548	
7.48	-0.060	-0.08011413932112521	
7.485	-0.054	-0.06603723624606582	
7.49	-0.110	-0.061497455121658245	
7.495	-0.127	-0.06566487854678724	
7.5	-0.122	-0.07710294401961695	
7.505	-0.179	-0.09490222232224801	
7.51	-0.223	-0.1199652456157461	
7.515	-0.211	-0.14650582668063727	
7.52	-0.219	-0.17233895897019463	
7.525	-0.265	-0.19789865601728981	
7.53	-0.229	-0.2171018470102403	
7.535	-0.153	-0.22602182569799983	
7.54	-0.153	-0.2224778360152897	
7.545	-0.190	-0.2096708711996341	
7.55	-0.155	-0.19410648214665133	
7.555	-0.133	-0.1818826974009869	
7.56	-0.087	-0.1659664731998589	
7.565	-0.025	-0.14150592921244698	
7.57	-0.032	-0.1113209334734444	
7.575	-0.222	-0.09192982287656212	
7.58	-0.333	-0.1011563508292271	
7.585	-0.277	-0.14002183446312724	
7.59	-0.226	-0.18646068505570185	
7.595	-0.153	-0.21566464533764013	
7.6	-0.058	-0.21507786048868338	
7.605	0.026	-0.18886421802204412	
7.61	0.079	-0.1379777013368257	
7.615	0.174	-0.06849769769791927	
7.62	0.214	0.00668472147721072	
7.625	0.148	0.07605377934351597	
7.63	0.160	0.12787224726575316	
7.635	0.177	0.1600032607643016	
7.64	0.151	0.1754764040573206	
7.645	0.156	0.1802987335091567	
7.65	0.288	0.1859649993154739	
7.655	0.290	0.20012106032369845	
7.66	0.211	0.21896440654335034	
7.665	0.301	0.2365165318785381	
7.67	0.347	0.2547163602388108	
7.675	0.327	0.27604626768716	
7.68	0.405	0.3018809283869937	
7.685	0.502	0.33503615577563095	
7.69	0.534	0.37749347881071577	
7.695	0.548	0.426290784689849	
7.7	0.614	0.4769450108512716	
7.705	0.660	0.5251186473610454	
7.71	0.547	0.5649742388077281	
7.715	0.550	0.589492386996245	
7.72	0.484	0.5896804990335183	
7.725	0.272	0.5620445871590687	
7.73	0.224	0.5038680176068515	
7.735	0.146	0.4229951511493447	
7.74	0.020	0.328496309685175	
7.745	-0.048	0.22731480203836393	
7.75	-0.031	0.13292868670174557	
7.755	-0.061	0.05213188615590217	
7.76	-0.152	-0.011974442068059803	
7.765	-0.116	-0.06151161668411311	
7.77	-0.080	-0.09631448132240085	
7.775	-0.109	-0.11487853989920366	
7.78	-0.090	-0.11911540340354897	
7.785	-0.100	-0.11704987108143862	
7.79	-0.075	-0.1124700391344557	
7.795	-0.072	-0.10464659408556132	
7.8	-0.032	-0.09112565213660807	
7.805	-0.014	-0.07589356967927274	
7.81	-0.080	-0.06193720174884274	
7.815	-0.077	-0.05353554341128414	
7.82	-0.066	-0.053367983943862725	
7.825	-0.130	-0.060864839368969685	
7.83	-0.112	-0.07210030195720611	
7.835	-0.095	-0.08407735981198278	
7.84	-0.129	-0.09647011359089573	
7.845	-0.170	-0.10862910844203826	
7.85	-0.142	-0.12114302798681656	
7.855	-0.119	-0.13290203320000818	
7.86	-0.156	-0.13890781490470713	
7.865	-0.093	-0.13952396757758295	
7.87	-0.055	-0.13238009829939365	
7.875	-0.126	-0.12085099805351779	
7.88	-0.109	-0.11109070808780207	
7.885	-0.100	-0.10510599495147861	
7.89	-0.080	-0.10246950892250904	
7.895	0.007	-0.09359020209021074	
7.9	0.006	-0.0731460129255791	
7.905	-0.139	-0.05693858046068484	
7.91	-0.239	-0.06192893016293479	
7.915	-0.202	-0.08953184937303656	
7.92	-0.147	-0.123367647332777	
7.925	-0.100	-0.14583336297981436	
7.93	-0.032	-0.14608764610204358	
7.935	0.108	-0.12107634844738488	
7.94	0.114	-0.07444198896064542	
7.945	0.140	-0.01563239143681156	
7.95	0.163	0.0438264766424506	
7.955	0.177	0.09311068869208736	
7.96	0.134	0.1290856093920269	
7.965	0.238	0.1564325439070825	
7.97	0.261	0.18064681787293993	
7.975	0.201	0.20217238033124615	
7.98	0.252	0.2188488392474337	
7.985	0.318	0.23491331427116885	
7.99	0.270	0.250600947548094	
7.995	0.269	0.26432895294457126	
8.0	0.321	0.27579575532547373	
8.005	0.417	0.29119222454446336	
8.01	0.418	0.31611037997138924	
8.015	0.504	0.35336406898434747	
8.02	0.626	0.40067937879977444	
8.025	0.586	0.45624064837090234	
8.03	0.620	0.5127871566169755	
8.035	0.675	0.5618707306853068	
8.04	0.657	0.6016669946693884	
8.045	0.582	0.6293223013598114	
8.05	0.510	0.6357132958723511	
8.055	0.409	0.6131909120971373	
8.06	0.235	0.5601273861749982	
8.065	0.139	0.47930358336655715	
8.07	0.064	0.37764844194111646	
8.075	-0.034	0.2672858919863877	
8.08	-0.057	0.1618025299736017	
8.085	-0.101	0.06985437115847264	
8.09	-0.144	-0.009307267989396153	
8.095	-0.150	-0.07064085368199062	
8.1	-0.078	-0.11026526755036117	
8.105	-0.058	-0.12777392528799786	
8.11	-0.090	-0.12684681368463602	
8.115	-0.043	-0.11368877272811406	
8.12	0.000	-0.0953342946222816	
8.125	-0.068	-0.07471896898149699	
8.13	-0.074	-0.05923034288252137	
8.135	-0.064	-0.053153994420522654	
8.14	-0.072	-0.05430485449970459	
8.145	-0.097	-0.058661384151377866	
8.15	-0.072	-0.06428643106539657	
8.155	-0.087	-0.07178333004875512	
8.16	-0.130	-0.07985065895065281	
8.165	-0.113	-0.08868900057430013	
8.17	-0.118	-0.09934344332898519	
8.175	-0.152	-0.11072260079621987	
8.18	-0.152	-0.12120681066246958	
8.185	-0.158	-0.1311441134144164	
8.19	-0.167	-0.1433289465608099	
8.195	-0.200	-0.15365592401231562	
8.2	-0.132	-0.16225365933599672	
8.205	-0.147	-0.1647981966956551	
8.21	-0.231	-0.16687335969247857	
8.215	-0.222	-0.17466650226304553	
8.22	-0.121	-0.18233840701165088	
8.225	-0.089	-0.17972967994362316	
8.23	-0.049	-0.16017566258930138	
8.235	-0.075	-0.13214407143959164	
8.24	-0.202	-0.11437587836204854	
8.245	-0.257	-0.11766006216403356	
8.25	-0.187	-0.1382399128060733	
8.255	-0.089	-0.15681156212999658	
8.26	-0.080	-0.15884844864859315	
8.265	-0.034	-0.14162590574327535	
8.27	0.064	-0.11136719312655778	
8.275	0.010	-0.07175896598858748	
8.28	0.026	-0.03315279582821384	
8.285	0.001	-0.0051628196189681804	
8.29	0.013	0.010600435090812453	
8.295	0.085	0.021408056830486365	
8.3	0.168	0.04078801842524858	
8.305	0.160	0.06811253733006192	
8.31	0.101	0.09613996258974676	
8.315	0.137	0.11641448110646781	
8.32	0.166	0.12958749782380352	
8.325	0.148	0.1392118716605949	
8.33	0.223	0.15091051664573768	
8.335	0.278	0.16985498258581144	
8.34	0.319	0.1965670441127563	
8.345	0.382	0.23443087165412752	
8.35	0.482	0.28280751540660143	
8.355	0.453	0.3360742890315014	
8.36	0.408	0.38313504919222896	
8.365	0.510	0.41844413368102124	
8.37	0.563	0.45057948662387254	
8.375	0.487	0.4802002944879252	
8.38	0.475	0.4999062511212553	
8.385	0.408	0.502821682895239	
8.39	0.224	0.47954783268205387	
8.395	0.027	0.42141453466911527	
8.4	-0.072	0.3257470260311022	
8.405	-0.132	0.20607613834409794	
8.41	-0.197	0.0832147073346559	
8.415	-0.153	-0.02156073956153832	
8.42	-0.122	-0.0984534434512465	
8.425	-0.164	-0.1457251572529497	
8.43	-0.153	-0.16805251799724424	
8.435	-0.144	-0.1762301267161393	
8.44	-0.165	-0.17741724446182813	
8.445	-0.210	-0.17549714549083828	
8.45	-0.171	-0.17628035846827483	
8.455	-0.152	-0.17796263179577604	
8.46	-0.161	-0.17572917967666468	
8.465	-0.138	-0.16856836168962946	
8.47	-0.144	-0.16154902414333386	
8.475	-0.217	-0.15872118986520628	
8.48	-0.156	-0.16100058690503738	
8.485	-0.135	-0.16228374350593328	
8.49	-0.156	-0.1614444599024364	
8.495	-0.162	-0.15842747374614777	
8.5	-0.165	-0.15729314156332963	
8.505	-0.210	-0.16102874852238463	
8.51	-0.271	-0.17269464169463244	
8.515	-0.236	-0.19054573120187707	
8.52	-0.210	-0.20859846582092412	
8.525	-0.257	-0.222693601792501	
8.53	-0.222	-0.22995159680904875	
8.535	-0.236	-0.23433803667582762	
8.54	-0.271	-0.23946602961815375	
8.545	-0.269	-0.24536634920442868	
8.55	-0.202	-0.24830306662438242	
8.555	-0.045	-0.2380566338881598	
8.56	0.079	-0.1996143931606262	
8.565	0.140	-0.13050177298747467	
8.57	-0.042	-0.05868821416852869	
8.575	-0.234	-0.021754905454331463	
8.58	-0.263	-0.03392572253250037	
8.585	-0.225	-0.07834055243704857	
8.59	-0.173	-0.12848856671018372	
8.595	-0.106	-0.1593278859149332	
8.6	-0.084	-0.16626427735313454	
8.605	-0.013	-0.1530977991832019	
8.61	-0.014	-0.12465932675953736	
8.615	0.033	-0.08647394476386143	
8.62	0.036	-0.04866061467897281	
8.625	-0.020	-0.017757710687015996	
8.63	0.073	0.005115316900137817	
8.635	0.113	0.026692777914134436	
8.64	0.082	0.04845588899613162	
8.645	0.038	0.06563211303138483	
8.65	0.124	0.07576331522513277	
8.655	0.156	0.08589411910202392	
8.66	0.165	0.10231077882355058	
8.665	0.270	0.12754963483623655	
8.67	0.316	0.16336395435140139	
8.675	0.282	0.2042333154789073	
8.68	0.327	0.24411003135705822	
8.685	0.452	0.2826924565411538	
8.69	0.522	0.3284692739241045	
8.695	0.588	0.38766346723885936	
8.7	0.586	0.4517526359874444	
8.705	0.577	0.5058479070393247	
8.71	0.504	0.543310615030891	
8.715	0.443	0.5555529995640284	
8.72	0.310	0.5372975456008211	
8.725	0.171	0.4852006369233899	
8.73	0.094	0.40516060228589523	
8.735	-0.008	0.3076789126289552	
8.74	-0.133	0.19939607480113114	
8.745	-0.159	0.08969022794350807	
8.75	-0.162	-0.00818014507555073	
8.755	-0.194	-0.08716732841657077	
8.76	-0.237	-0.14669100309286115	
8.765	-0.214	-0.1883762155682564	
8.77	-0.185	-0.21366747161454494	
8.775	-0.210	-0.22481143465651687	
8.78	-0.173	-0.22281200437576176	
8.785	-0.139	-0.21328701228850444	
8.79	-0.158	-0.1986257226041095	
8.795	-0.145	-0.18132563378971892	
8.8	-0.100	-0.1641661954655606	
8.805	-0.113	-0.1471923975541996	
8.81	-0.161	-0.13472500566251916	
8.815	-0.127	-0.1283656814524699	
8.82	-0.130	-0.127675224059869	
8.825	-0.171	-0.12984386985357976	
8.83	-0.155	-0.13480358240468604	
8.835	-0.196	-0.1432802899491926	
8.84	-0.232	-0.15865568255782972	
8.845	-0.231	-0.17732312341602297	
8.85	-0.197	-0.19413629650676112	
8.855	-0.177	-0.20420009199207093	
8.86	-0.188	-0.20673229891986694	
8.865	-0.168	-0.20133331401757976	
8.87	-0.170	-0.19467178321728112	
8.875	-0.242	-0.1908809667826677	
8.88	-0.200	-0.1917937053347407	
8.885	-0.058	-0.18923764541729649	
8.89	0.050	-0.16665100215056244	
8.895	0.042	-0.1203188052515107	
8.9	-0.035	-0.06913240762576191	
8.905	-0.237	-0.045264632231830894	
8.91	-0.321	-0.0637854346398061	
8.915	-0.243	-0.11129173561866733	
8.92	-0.171	-0.15964502588683316	
8.925	-0.130	-0.18890179041985927	
8.93	-0.009	-0.18675299048602872	
8.935	0.090	-0.15419339609072116	
8.94	0.050	-0.10071394023661041	
8.945	0.070	-0.04336717982546921	
8.95	0.081	0.00693175276587444	
8.955	0.134	0.044776373232996235	
8.96	0.117	0.07718788761835459	
8.965	0.232	0.10772708683076312	
8.97	0.233	0.14037337742060338	
8.975	0.113	0.16602944612273846	
8.98	0.171	0.1791996244395787	
8.985	0.246	0.18483746525345807	
8.99	0.261	0.19429219091042643	
8.995	0.266	0.21161175845394384	
9.0	0.340	0.23495633646705558	
9.005	0.328	0.2598012660646971	
9.01	0.347	0.2861658043937214	
9.015	0.475	0.3167192649654851	
9.02	0.588	0.35940903814794983	
9.025	0.516	0.4130499170923034	
9.03	0.571	0.46617829795276416	
9.035	0.583	0.5098182451355942	
9.04	0.486	0.5372940108304918	
9.045	0.450	0.5455930752203053	
9.05	0.403	0.5329203702776488	
9.055	0.240	0.4958015400211095	
9.06	0.058	0.4291638436127636	
9.065	0.009	0.3356665793185598	
9.07	-0.061	0.22739590141798277	
9.075	-0.135	0.1201001310653448	
9.08	-0.159	0.023179075947639214	
9.085	-0.165	-0.05619504850564729	
9.09	-0.210	-0.11964449722820833	
9.095	-0.217	-0.16437493446606893	
9.1	-0.190	-0.19310693396849435	
9.105	-0.188	-0.2101574940418619	
9.11	-0.214	-0.2157744723160489	
9.115	-0.162	-0.21235346341229244	
9.12	-0.138	-0.20361839697258524	
9.125	-0.158	-0.19087353843337063	
9.13	-0.098	-0.17283550738108872	
9.135	-0.092	-0.15222385203951289	
9.14	-0.135	-0.13564671107111909	
9.145	-0.145	-0.12438984651799885	
9.15	-0.130	-0.12112392885778511	
9.155	-0.150	-0.12315732333943688	
9.16	-0.214	-0.13178859685672129	
9.165	-0.188	-0.14536669024753604	
9.17	-0.181	-0.1616049261718074	
9.175	-0.200	-0.17587297186913067	
9.18	-0.171	-0.18284774962431877	
9.185	-0.165	-0.18520954293111092	
9.19	-0.207	-0.1866384992999886	
9.195	-0.173	-0.18640078887173422	
9.2	-0.126	-0.1821048018163521	
9.205	-0.173	-0.17614178048074103	
9.21	-0.200	-0.17081650883723526	
9.215	-0.115	-0.1673602193653486	
9.22	-0.043	-0.1575639239738112	
9.225	-0.066	-0.13689049497912023	
9.23	-0.121	-0.11388225739136572	
9.235	-0.205	-0.10520200567638581	
9.24	-0.284	-0.12065202416992496	
9.245	-0.271	-0.1534288172140597	
9.25	-0.177	-0.1860789015610983	
9.255	-0.095	-0.20311059732393513	
9.26	-0.017	-0.19181629802750075	
9.265	0.041	-0.1533390630444943	
9.27	0.097	-0.09956018208554168	
9.275	0.094	-0.039935533420276205	
9.28	0.171	0.019134197299538247	
9.285	0.221	0.07485932411899877	
9.29	0.133	0.12131842295995711	
9.295	0.128	0.15052660835454823	
9.3	0.172	0.1649544344585162	
9.305	0.154	0.16887439905675405	
9.31	0.120	0.16710757324943573	
9.315	0.208	0.1646736539171526	
9.32	0.327	0.17249706124931993	
9.325	0.292	0.1960448100171453	
9.33	0.371	0.23210999309057767	
9.335	0.417	0.2738971209886835	
9.34	0.389	0.31633702530816454	
9.345	0.466	0.35550551067092984	
9.35	0.563	0.3979689470329316	
9.355	0.603	0.4449102329107943	
9.36	0.467	0.4890865245723821	
9.365	0.492	0.5156212827480061	
9.37	0.539	0.5244949119380775	
9.375	0.421	0.523064781947875	
9.38	0.362	0.5070704791570477	
9.385	0.256	0.47084859252095224	
9.39	0.078	0.40836400918164895	
9.395	0.029	0.3235189753741269	
9.4	0.070	0.23291429804351127	
9.405	0.007	0.15192922558513608	
9.41	-0.084	0.08316560766901543	
9.415	-0.103	0.02459454474144977	
9.42	-0.113	-0.02853664454901651	
9.425	-0.155	-0.07285727152381016	
9.43	-0.118	-0.10490966493225098	
9.435	-0.113	-0.12419140593609211	
9.44	-0.121	-0.1335712415541817	
9.445	-0.148	-0.1364357334533606	
9.45	-0.119	-0.13616479311486573	
9.455	-0.058	-0.13308156564775345	
9.46	-0.063	-0.12076100164539047	
9.465	-0.060	-0.10243474816748152	
9.47	-0.055	-0.08560088428654378	
9.475	-0.113	-0.07582151300015519	
9.48	-0.121	-0.07489707549515826	
9.485	-0.136	-0.08226163545865427	
9.49	-0.147	-0.09757446885404715	
9.495	-0.144	-0.11237776804025078	
9.5	-0.124	-0.12418416458970824	
9.505	-0.118	-0.1321266405685972	
9.51	-0.196	-0.1367314518570662	
9.515	-0.179	-0.14441751664432606	
9.52	-0.135	-0.15364130313247537	
9.525	-0.147	-0.15880213227925088	
9.53	-0.103	-0.1548359303734824	
9.535	-0.106	-0.1452904557903954	
9.54	-0.130	-0.1356148972790453	
9.545	-0.118	-0.1273263269995487	
9.55	-0.043	-0.11817484664563842	
9.555	-0.055	-0.1051880127217467	
9.56	-0.104	-0.09070492550367046	
9.565	-0.164	-0.08537674109486279	
9.57	-0.222	-0.09771809448521797	
9.575	-0.278	-0.12783518555098625	
9.58	-0.165	-0.16075994260527698	
9.585	-0.064	-0.17828695123303664	
9.59	-0.026	-0.17065025170020587	
9.595	0.026	-0.13826689343527568	
9.6	0.068	-0.09215536814700416	
9.605	0.116	-0.04026031668040081	
9.61	0.148	0.012315689209890903	
9.615	0.223	0.06769862024058736	
9.62	0.198	0.11724405183435059	
9.625	0.143	0.15512013404106828	
9.63	0.192	0.17728268609071113	
9.635	0.215	0.18969391372521632	
9.64	0.214	0.19827388546228697	
9.645	0.252	0.20775879039341116	
9.65	0.293	0.22188991330143934	
9.655	0.212	0.23468692639797217	
9.66	0.212	0.24028634810205068	
9.665	0.330	0.2447524154870661	
9.67	0.389	0.259267502302912	
9.675	0.429	0.28810519157718506	
9.68	0.515	0.3323058653032378	
9.685	0.548	0.3847228713874408	
9.69	0.495	0.43524599409314196	
9.695	0.519	0.4757213360027501	
9.7	0.568	0.505909203594165	
9.705	0.473	0.5237065815973764	
9.71	0.325	0.5212408005184046	
9.715	0.314	0.4917131736455151	
9.72	0.235	0.4402852435775898	
9.725	0.076	0.37209396459985755	
9.73	-0.009	0.28924893675059743	
9.735	0.001	0.19773062282099427	
9.74	-0.075	0.11131205213052661	
9.745	-0.107	0.03672155307453767	
9.75	-0.089	-0.023126228788074837	
9.755	-0.112	-0.06824171058206516	
9.76	-0.124	-0.09769126399261005	
9.765	-0.109	-0.1143132359316607	
9.77	-0.084	-0.12172741740045806	
9.775	-0.119	-0.12283953937970574	
9.78	-0.040	-0.11573952577157814	
9.785	-0.020	-0.10031523838242144	
9.79	-0.046	-0.08267496632981061	
9.795	-0.046	-0.06426584158318664	
9.8	-0.042	-0.05117208333930808	
9.805	-0.038	-0.044256434265379896	
9.81	-0.057	-0.04067227741736085	
9.815	-0.068	-0.04033160669225955	
9.82	-0.074	-0.045751169763983426	
9.825	-0.133	-0.056832418944963645	
9.83	-0.135	-0.07273931871498193	
9.835	-0.139	-0.09133316746964976	
9.84	-0.173	-0.1126778780894811	
9.845	-0.173	-0.1312456145158598	
9.85	-0.142	-0.14616027664509965	
9.855	-0.121	-0.15426515524505435	
9.86	-0.145	-0.15466630133387757	
9.865	-0.122	-0.14930952754788296	
9.87	-0.136	-0.14476015315460194	
9.875	-0.173	-0.1428509155679181	
9.88	-0.129	-0.14171346157139728	
9.885	-0.074	-0.13831616850051845	
9.89	-0.084	-0.12970699561216154	
9.895	-0.095	-0.1162409109737646	
9.9	-0.147	-0.10613856006968435	
9.905	-0.228	-0.11231882167827503	
9.91	-0.232	-0.13270256872855202	
9.915	-0.139	-0.15524230739757047	
9.92	-0.045	-0.16373483228804528	
9.925	-0.035	-0.1518996260193246	
9.93	0.081	-0.1176774779042474	
9.935	0.137	-0.06625996121352153	
9.94	0.046	-0.012778030662831478	
9.945	0.139	0.034715063694187	
9.95	0.261	0.07895517978627326	
9.955	0.263	0.12771182203318968	
9.96	0.165	0.17121174995252683	
9.965	0.194	0.19974432541134238	
9.97	0.212	0.2103060722078147	
9.975	0.185	0.21305322869646343	
9.98	0.308	0.21827869723043972	
9.985	0.343	0.23279438944032066	
9.99	0.293	0.25524707130076285	
9.995	0.321	0.2776655636470574	
10.0	0.418	0.3009548511838779	
10.005	0.463	0.32975977020852343	
10.01	0.472	0.36720912397822847	
10.015	0.548	0.40973150323355906	
10.02	0.611	0.4543423615276442	
10.025	0.574	0.49906145062359125	
10.03	0.599	0.5402300755146335	
10.035	0.588	0.5687771471496643	
10.04	0.478	0.5802638246972207	
10.045	0.400	0.5696449901795307	
10.05	0.333	0.5349173562265701	
10.055	0.229	0.47675192300728564	
10.06	0.081	0.4002082648106196	
10.065	0.007	0.30871643322108444	
10.07	-0.020	0.2093341407895542	
10.075	-0.080	0.116082881898659	
10.08	-0.072	0.038263441403857325	
10.085	-0.020	-0.018212926338622263	
10.09	-0.019	-0.050719835115704756	
10.095	0.053	-0.05629851275990181	
10.1	0.174	-0.03504935599364639	
10.105	0.177	0.006738547865393594	
10.11	0.178	0.058224229697797454	
10.115	0.285	0.11274756661634348	
10.12	0.285	0.16530998498129368	
10.125	0.192	0.2080459382385705	
10.13	0.226	0.23325398184935664	
10.135	0.243	0.2437690375858628	
10.14	0.139	0.24125454059378584	
10.145	0.076	0.22467560267199793	
10.15	0.085	0.19291643089129562	
10.155	0.003	0.15173915753985198	
10.16	-0.019	0.10724908159509455	
10.165	-0.049	0.06272525225446621	
10.17	-0.071	0.020296920257743746	
10.175	-0.129	-0.020900189486477233	
10.18	-0.109	-0.054728322099722074	
10.185	-0.090	-0.0822618695511241	
10.19	-0.124	-0.10071505306540149	
10.195	-0.122	-0.1122790141281048	
10.2	-0.126	-0.11810770498024745	
10.205	-0.203	-0.1282787676647818	
10.21	-0.173	-0.14172705668324437	
10.215	-0.071	-0.14926614241133024	
10.22	0.009	-0.1406986504166985	
10.225	-0.022	-0.11488837407460276	
10.23	-0.064	-0.08374452208801958	
10.235	-0.158	-0.06729300353487841	
10.24	-0.220	-0.07573403146704824	
10.245	-0.216	-0.10328669616162946	
10.25	-0.135	-0.132090128750952	
10.255	-0.124	-0.1522542590027886	
10.26	-0.101	-0.15573228494497907	
10.265	-0.006	-0.14326994241228902	
10.27	0.021	-0.115690818198695	
10.275	-0.048	-0.08191000241054161	
10.28	-0.006	-0.05275914496245804	
10.285	0.067	-0.028249950186277257	
10.29	0.032	-0.004699866159925455	
10.295	0.039	0.01568116980452019	
10.3	0.038	0.030880861662247516	
10.305	0.050	0.038765081214996784	
10.31	0.021	0.04326324407970168	
10.315	0.085	0.04668529844476086	
10.32	0.131	0.05431605292292656	
10.325	0.101	0.06713495288506688	
10.33	0.186	0.08722769818508035	
10.335	0.256	0.11372892144002683	
10.34	0.264	0.14933867588553007	
10.345	0.331	0.1916957563081432	
10.35	0.411	0.23985067194808915	
10.355	0.470	0.29278456539689257	
10.36	0.473	0.34829512041926813	
10.365	0.525	0.4026458561097603	
10.37	0.519	0.4482879501091443	
10.375	0.318	0.47415450300807604	
10.38	0.256	0.4661846829668562	
10.385	0.162	0.4216614170013496	
10.39	-0.009	0.346363665267778	
10.395	-0.074	0.24971031850830006	
10.4	-0.113	0.1447908154344227	
10.405	-0.182	0.04280312281878228	
10.41	-0.246	-0.04863789792674745	
10.415	-0.223	-0.12439115931028334	
10.42	-0.203	-0.18172098119536778	
10.425	-0.220	-0.21573485084055727	
10.43	-0.219	-0.2317889717179557	
10.435	-0.197	-0.23539338548353247	
10.44	-0.214	-0.23357548891070726	
10.445	-0.191	-0.22623112249380956	
10.45	-0.159	-0.21528453820987228	
10.455	-0.182	-0.20321542279038007	
10.46	-0.213	-0.19357337859623522	
10.465	-0.179	-0.18843950992507386	
10.47	-0.158	-0.18578997527697094	
10.475	-0.203	-0.1826794195487947	
10.48	-0.199	-0.18178361849098476	
10.485	-0.226	-0.18547765518119358	
10.49	-0.310	-0.19955278881177843	
10.495	-0.336	-0.2231834408137595	
10.5	-0.329	-0.2533541514966591	
10.505	-0.367	-0.28522445686180664	
10.51	-0.375	-0.3144886533998036	
10.515	-0.361	-0.33846752546151104	
10.52	-0.376	-0.35584308850470214	
10.525	-0.446	-0.3716139762210631	
10.53	-0.477	-0.389777034277894	
10.535	-0.520	-0.415550214215917	
10.54	-0.561	-0.4485095490452854	
10.545	-0.512	-0.4811245317483025	
10.55	-0.379	-0.49740155472623043	
10.555	-0.240	-0.4852023025570038	
10.56	-0.207	-0.43840538637683535	
10.565	-0.194	-0.3725169078642641	
10.57	-0.339	-0.3159171983433151	
10.575	-0.420	-0.2895790488175649	
10.58	-0.364	-0.2927713468780583	
10.585	-0.283	-0.30758849339820626	
10.59	-0.268	-0.3134636470593244	
10.595	-0.214	-0.30609141259702377	
10.6	-0.156	-0.28447085002583117	
10.605	-0.109	-0.25122201991868487	
10.61	-0.089	-0.2103647919816115	
10.615	-0.046	-0.1655524826173827	
10.62	0.023	-0.12092381314281443	
10.625	0.038	-0.07548287016461888	
10.63	0.035	-0.03177327091912356	
10.635	0.087	0.004318096827468145	
10.64	0.064	0.032562916313971305	
10.645	0.131	0.05795935132583102	
10.65	0.218	0.08445915880932785	
10.655	0.203	0.11675653262568167	
10.66	0.198	0.1497077566802012	
10.665	0.336	0.18142005445081238	
10.67	0.478	0.22602961728214518	
10.675	0.531	0.2896105232414963	
10.68	0.657	0.36924996948659394	
10.685	0.750	0.46022372702797754	
10.69	0.776	0.5546214707357511	
10.695	0.895	0.6470314690975684	
10.7	1.230	0.7483444826334219	
10.705	1.928	0.9028115163532592	
10.71	2.916	1.181989012934363	
10.715	3.080	1.6014426335833163	
10.72	3.078	2.0718180740799745	
10.725	3.077	2.4895597373524407	
10.73	3.080	2.80428598631059	
10.735	3.083	3.009113434383798	
10.74	2.945	3.116489640933067	
10.745	2.656	3.131054719707558	
10.75	2.372	3.0513491528294714	
10.755	2.022	2.882589669926811	
10.76	1.749	2.6447810500859226	
10.765	1.608	2.3695003873350657	
10.77	1.413	2.089914600566944	
10.775	1.204	1.827566133342668	
10.78	1.104	1.5883928281284723	
10.785	0.990	1.3812474964888652	
10.79	0.794	1.2024942530287261	
10.795	0.678	1.0430907355702415	
10.8	0.562	0.89847463063882	
10.805	0.383	0.7606298421756528	
10.81	0.264	0.6267524751298501	
10.815	0.204	0.4975293701675808	
10.82	0.111	0.3769398059418333	
10.825	-0.005	0.2675222609337055	
10.83	-0.081	0.16636583806138425	
10.835	-0.145	0.07126412211301972	
10.84	-0.190	-0.01551884085994526	
10.845	-0.214	-0.08892664846930234	
10.85	-0.234	-0.14749782976362497	
10.855	-0.306	-0.19536515065364987	
10.86	-0.358	-0.23827593761294544	
10.865	-0.358	-0.2784601597141523	
10.87	-0.398	-0.3150469909716236	
10.875	-0.488	-0.35151164979457505	
10.88	-0.448	-0.3866418648056615	
10.885	-0.358	-0.41369496975995584	
10.89	-0.286	-0.4185114459697056	
10.895	-0.271	-0.39794845503014786	
10.9	-0.382	-0.37050174988766055	
10.905	-0.546	-0.3623919330643996	
10.91	-0.611	-0.38731864944631544	
10.915	-0.541	-0.4334452613390208	
10.92	-0.501	-0.47901442789056164	
10.925	-0.492	-0.5065197254353826	
10.93	-0.420	-0.5136338933870028	
10.935	-0.413	-0.5036764920536918	
10.94	-0.410	-0.4825501983518769	
10.945	-0.362	-0.455979011081423	
10.95	-0.326	-0.4254556858338244	
10.955	-0.333	-0.39535346169124985	
10.96	-0.355	-0.3693363436318521	
10.965	-0.318	-0.350451649825002	
10.97	-0.307	-0.33700754626563023	
10.975	-0.341	-0.32754934543571745	
10.98	-0.291	-0.3206602346883353	
10.985	-0.260	-0.31265838542840907	
10.99	-0.251	-0.3005412687651784	
10.995	-0.214	-0.2840017017274211	
11.0	-0.271	-0.2664568444627704	
11.005	-0.248	-0.2563408768135201	
11.01	-0.185	-0.2473438448307633	
11.015	-0.090	-0.2294334469312026	
11.02	-0.031	-0.1969722086814556	
11.025	-0.077	-0.15557159705028983	
11.03	-0.054	-0.11668657507247845	
11.035	-0.046	-0.08663165572512155	
11.04	-0.119	-0.06955586874022877	
11.045	-0.150	-0.06705486100664478	
11.05	-0.190	-0.08143512995662676	
11.055	-0.246	-0.11031084773997485	
11.06	-0.326	-0.1503939640012615	
11.065	-0.338	-0.19846029897121276	
11.07	-0.365	-0.24893855860338399	
11.075	-0.410	-0.29657352154561933	
11.08	-0.411	-0.3377009218278608	
11.085	-0.430	-0.3725974032362914	
11.09	-0.491	-0.4035399214402147	
11.095	-0.485	-0.43006942960901606	
11.1	-0.468	-0.4534090488952785	
11.105	-0.453	-0.46828127237532335	
11.11	-0.434	-0.47240372058570174	
11.115	-0.384	-0.4644504970837106	
11.12	-0.368	-0.4489189003944496	
11.125	-0.393	-0.4275962290937826	
11.13	-0.353	-0.40771419885101423	
11.135	-0.359	-0.3895816738420518	
11.14	-0.388	-0.3775528746584085	
11.145	-0.387	-0.37108936895696987	
11.15	-0.417	-0.3724001847485139	
11.155	-0.497	-0.3842947790905208	
11.16	-0.527	-0.4084417156160534	
11.165	-0.524	-0.4394453246086334	
11.17	-0.561	-0.473897963436772	
11.175	-0.631	-0.5086204232308262	
11.18	-0.621	-0.5427233906464359	
11.185	-0.653	-0.5765436440682399	
11.19	-0.669	-0.6075541671495077	
11.195	-0.657	-0.6321113183203848	
11.2	-0.660	-0.6493603526604839	
11.205	-0.697	-0.6622717663660643	
11.21	-0.743	-0.6754804406089056	
11.215	-0.717	-0.6894351738663547	
11.22	-0.659	-0.7008567613808314	
11.225	-0.688	-0.7036440316596877	
11.23	-0.717	-0.7007376659660567	
11.235	-0.819	-0.705519899792808	
11.24	-0.918	-0.7305950840631084	
11.245	-0.894	-0.7701502260030059	
11.25	-0.827	-0.8103018426792122	
11.255	-0.747	-0.8332481591201352	
11.26	-0.674	-0.8295157284740169	
11.265	-0.619	-0.7983874168764034	
11.27	-0.692	-0.7568294008776661	
11.275	-0.891	-0.7307520211376183	
11.28	-0.948	-0.7397732188720234	
11.285	-0.940	-0.7794273529969944	
11.29	-0.943	-0.8305956074137375	
11.295	-0.879	-0.8721996608220356	
11.3	-0.769	-0.8912392959949262	
11.305	-0.729	-0.8822194050452071	
11.31	-0.689	-0.84959735143767	
11.315	-0.576	-0.7993879378919955	
11.32	-0.472	-0.7347508864743846	
11.325	-0.425	-0.6577499824737063	
11.33	-0.330	-0.5737799966134204	
11.335	-0.225	-0.4863761222566618	
11.34	-0.148	-0.3986032502470408	
11.345	-0.019	-0.3052527251923967	
11.35	0.127	-0.20522387448242257	
11.355	0.259	-0.09720899371408905	
11.36	0.322	0.019356075603986514	
11.365	0.400	0.13360962425310866	
11.37	0.453	0.2372558765440335	
11.375	0.426	0.32419681001441697	
11.38	0.499	0.3912105427013151	
11.385	0.466	0.43965282078529644	
11.39	0.331	0.4613457034525113	
11.395	0.279	0.4536965471765191	
11.4	0.243	0.4188048469024245	
11.405	0.235	0.36878617497666977	
11.41	0.220	0.3193203310249364	
11.415	0.243	0.2796538787186551	
11.42	0.169	0.2482982750295302	
11.425	0.159	0.22015700522863096	
11.43	0.276	0.2022275905184267	
11.435	0.356	0.2057486304712427	
11.44	0.340	0.22834754899587434	
11.445	0.353	0.2626553704096646	
11.45	0.417	0.29987199498050643	
11.455	0.487	0.33781892483671144	
11.46	0.510	0.3822359005709938	
11.465	0.522	0.4286580596016383	
11.47	0.505	0.46636021729858274	
11.475	0.438	0.4890827877487858	
11.48	0.501	0.49817474267517947	
11.485	0.498	0.49981638644687904	
11.49	0.420	0.4953139334223901	
11.495	0.412	0.4835780007778216	
11.5	0.418	0.46594577624784017	
11.505	0.376	0.44484556719920826	
11.51	0.319	0.42113051314647165	
11.515	0.347	0.3956852553484357	
11.52	0.405	0.37546834271730234	
11.525	0.302	0.3620333355190475	
11.53	0.266	0.34912082658612215	
11.535	0.379	0.33389449805655197	
11.54	0.400	0.32933953994275234	
11.545	0.408	0.3405373749421361	
11.55	0.438	0.359968327941775	
11.555	0.464	0.38286215328360923	
11.56	0.408	0.40511049330322696	
11.565	0.405	0.42068910073051796	
11.57	0.347	0.4214406042636518	
11.575	0.162	0.40099449725030484	
11.58	0.217	0.36015444209743763	
11.585	0.293	0.3139038939146809	
11.59	0.327	0.2843027302513428	
11.595	0.446	0.2815775157513578	
11.6	0.583	0.31301464377498256	
11.605	0.586	0.3708302260826336	
11.61	0.586	0.43810768109724113	
11.615	0.678	0.5047197618760053	
11.62	0.640	0.562430246092574	
11.625	0.524	0.6009893251279621	
11.63	0.605	0.6161573547798671	
11.635	0.684	0.6208858899435744	
11.64	0.658	0.629309110191564	
11.645	0.631	0.6385578036122654	
11.65	0.646	0.6459433251777378	
11.655	0.629	0.6458451236153244	
11.66	0.621	0.6431627696063382	
11.665	0.643	0.6406676559553963	
11.67	0.715	0.6414181218297682	
11.675	0.675	0.6490960265312238	
11.68	0.721	0.6631565750674329	
11.685	0.817	0.682800176308189	
11.69	0.860	0.7133653395975116	
11.695	0.877	0.7556275651827262	
11.7	0.889	0.7988612968718056	
11.705	0.826	0.8318101262880161	
11.71	0.767	0.8472414761739311	
11.715	0.701	0.8416321347163331	
11.72	0.585	0.8093135776977064	
11.725	0.487	0.7521360463989933	
11.73	0.386	0.6762041340435463	
11.735	0.292	0.5857098695517026	
11.74	0.171	0.4843326062745216	
11.745	0.137	0.3817085793494138	
11.75	0.128	0.2878638035241229	
11.755	0.018	0.20576922292235444	
11.76	-0.019	0.13429768610994505	
11.765	0.090	0.079690754762049	
11.77	0.159	0.05131022480565606	
11.775	0.081	0.05016542834126397	
11.78	0.075	0.05923091822839151	
11.785	0.088	0.06767472886458173	
11.79	0.035	0.07134145030961017	
11.795	0.088	0.07174269719610085	
11.8	0.149	0.07681520321345903	
11.805	0.154	0.08875730950308965	
11.81	0.134	0.10535757185190357	
11.815	0.148	0.12163749059070358	
11.82	0.108	0.13122439665214697	
11.825	0.053	0.13021692525812242	
11.83	0.033	0.11824951439096232	
11.835	0.024	0.09760129589882989	
11.84	-0.054	0.06937050026938614	
11.845	-0.061	0.03679265235011368	
11.85	-0.075	0.002745459599356697	
11.855	-0.109	-0.030256898708614265	
11.86	-0.148	-0.06157003871281643	
11.865	-0.103	-0.08738776470378366	
11.87	-0.072	-0.10480604861979463	
11.875	-0.066	-0.1087011817714702	
11.88	-0.051	-0.10173627092485944	
11.885	-0.060	-0.08946772379638072	
11.89	-0.064	-0.07959453064499282	
11.895	0.007	-0.06715474746301331	
11.9	0.023	-0.04930618280026444	
11.905	-0.017	-0.03127299727788561	
11.91	-0.127	-0.022532868248753623	
11.915	-0.132	-0.0314295179079751	
11.92	-0.089	-0.05284863635547517	
11.925	-0.071	-0.0726548660436295	
11.93	0.018	-0.07671700298800731	
11.935	0.217	-0.056490834395686376	
11.94	0.362	0.00045443067608823425	
11.945	0.545	0.09790312539321977	
11.95	0.709	0.22765508125942485	
11.955	0.730	0.3727051384409992	
11.96	0.738	0.5095233908970569	
11.965	0.744	0.6195510113317422	
11.97	0.759	0.6960694256421829	
11.975	0.741	0.7433641693679831	
11.98	0.802	0.7713061517956641	
11.985	0.750	0.7844175419706085	
11.99	0.678	0.7834087989502556	
11.995	0.764	0.7709397445651582	
12.0	0.747	0.7596249967416486	
12.005	0.680	0.74767454451598	
12.01	0.634	0.7305740430768827	
12.015	0.693	0.7105757904309857	
12.02	0.742	0.6960748063799989	
12.025	0.680	0.6914056947152708	
12.03	0.783	0.696304955381822	
12.035	0.861	0.713411078528146	
12.04	0.776	0.7404686702296255	
12.045	0.767	0.764924086365735	
12.05	0.745	0.7765383737513432	
12.055	0.640	0.7717168721818548	
12.06	0.464	0.7426236240756059	
12.065	0.321	0.6784512554489144	
12.07	0.076	0.57601927812912	
12.075	-0.179	0.4324988548012073	
12.08	-0.297	0.25624084690970267	
12.085	-0.394	0.06830414584121987	
12.09	-0.480	-0.10939475169059301	
12.095	-0.446	-0.25899664627771823	
12.1	-0.408	-0.36757452769719967	
12.105	-0.420	-0.43119692821322136	
12.11	-0.405	-0.45821397310491463	
12.115	-0.257	-0.4556497879366853	
12.12	0.935	-0.369928556880219	
12.125	2.308	-0.07906501941666147	
12.13	3.080	0.47744095972215006	
12.135	3.083	1.1960587034668686	
12.14	3.083	1.896450570339121	
12.145	3.086	2.4610492583515744	
12.15	3.019	2.8502748931751607	
12.155	2.754	3.063508988373819	
12.16	2.562	3.114759881981844	
12.165	2.383	3.039458582396028	
12.17	2.081	2.8738379995358057	
12.175	1.734	2.644529446108618	
12.18	1.498	2.369380524761356	
12.185	1.283	2.07421894166605	
12.19	0.985	1.7784812424200485	
12.195	0.823	1.4941102306361675	
12.2	0.724	1.232492613039152	
12.205	0.534	1.0056413135298379	
12.21	0.295	0.8047692783752802	
12.215	0.133	0.6165185480258895	
12.22	0.058	0.4379194776019463	
12.225	0.009	0.280560747728815	
12.23	0.070	0.15941175583497477	
12.235	0.091	0.08125326615823826	
12.24	-0.020	0.03748426570616443	
12.245	-0.141	0.006087108571297571	
12.25	-0.265	-0.03655672738696026	
12.255	-0.323	-0.09739915747904078	
12.26	-0.333	-0.16620933493940337	
12.265	-0.281	-0.22745172904443348	
12.27	-0.269	-0.2701035190140646	
12.275	-0.286	-0.29245585403939844	
12.28	-0.252	-0.2985838403783911	
12.285	-0.258	-0.29578797927522194	
12.29	-0.324	-0.2905503030486188	
12.295	-0.292	-0.28887324182009916	
12.3	-0.275	-0.28953103758586096	
12.305	-0.301	-0.2904217702550964	
12.31	-0.315	-0.2912047541197704	
12.315	-0.295	-0.29445114528916316	
12.32	-0.315	-0.2981435299125752	
12.325	-0.327	-0.30345999805476	
12.33	-0.295	-0.30756564794816466	
12.335	-0.301	-0.30880901642287295	
12.34	-0.318	-0.30955121731923263	
12.345	-0.277	-0.3078442293413052	
12.35	-0.199	-0.29953813294678006	
12.355	-0.193	-0.2814264433478082	
12.36	-0.148	-0.25317846820644374	
12.365	-0.097	-0.21945518436537464	
12.37	-0.072	-0.18215872349809448	
12.375	-0.077	-0.14544260497718556	
12.38	-0.035	-0.11056923445121025	
12.385	-0.061	-0.08383906338222183	
12.39	-0.176	-0.07155135220962931	
12.395	-0.200	-0.07884759793004634	
12.4	-0.234	-0.10557690968916594	
12.405	-0.318	-0.14543610585425593	
12.41	-0.379	-0.1961616157595012	
12.415	-0.408	-0.25247676402373265	
12.42	-0.437	-0.30916796966656046	
12.425	-0.480	-0.3614046983592577	
12.43	-0.468	-0.4055684065833884	
12.435	-0.475	-0.4408560036958684	
12.44	-0.480	-0.46450082192028824	
12.445	-0.430	-0.4758087776029942	
12.45	-0.422	-0.47460478224663794	
12.455	-0.439	-0.4664251605535353	
12.46	-0.426	-0.4551221898901251	
12.465	-0.413	-0.443502614223253	
12.47	-0.382	-0.43319102263620785	
12.475	-0.376	-0.41937124964597594	
12.48	-0.367	-0.4035711200416726	
12.485	-0.352	-0.3889008290410548	
12.49	-0.355	-0.3764967610999052	
12.495	-0.315	-0.363786356090675	
12.5	-0.338	-0.35163445699210805	
12.505	-0.375	-0.3444515770925469	
12.51	-0.385	-0.34409695848665955	
12.515	-0.353	-0.34949406658831633	
12.52	-0.401	-0.3572221860125614	
12.525	-0.439	-0.3683727195384779	
12.53	-0.376	-0.3815495267072705	
12.535	-0.358	-0.3899029254367174	
12.54	-0.352	-0.3884929415902956	
12.545	-0.332	-0.3797747489278386	
12.55	-0.401	-0.3706502405545774	
12.555	-0.426	-0.3704574329110321	
12.56	-0.384	-0.3770771498995291	
12.565	-0.265	-0.37748877145365256	
12.57	-0.089	-0.35520453717253486	
12.575	-0.002	-0.29932797511974973	
12.58	-0.009	-0.22055077939090673	
12.585	-0.187	-0.15096311406890708	
12.59	-0.346	-0.12354286444345708	
12.595	-0.371	-0.14378357183004525	
12.6	-0.310	-0.19163230123275996	
12.605	-0.266	-0.23843646454386136	
12.61	-0.211	-0.2660672685174415	
12.615	-0.182	-0.2694853206774853	
12.62	-0.187	-0.25822288630372564	
12.625	-0.177	-0.23836943849662023	
12.63	-0.153	-0.21554695142001565	
12.635	-0.147	-0.1949069920068151	
12.64	-0.153	-0.17651817509292383	
12.645	-0.121	-0.16078082318782372	
12.65	-0.106	-0.14661366598107817	
12.655	-0.130	-0.13445982364531994	
12.66	-0.107	-0.12511290319036533	
12.665	-0.069	-0.115469111075259	
12.67	-0.078	-0.10620780748039238	
12.675	-0.089	-0.09540725766938374	
12.68	-0.042	-0.0865441739505356	
12.685	-0.022	-0.07486691024393008	
12.69	0.030	-0.058530818227585504	
12.695	0.146	-0.030793821000288883	
12.7	0.256	0.015434588396071378	
12.705	0.221	0.07555625087070723	
12.71	0.243	0.13483416752091998	
12.715	0.250	0.18352020965219973	
12.72	0.172	0.21482699001405337	
12.725	0.105	0.2235563735565558	
12.73	0.027	0.20639594602101716	
12.735	0.009	0.16616470864654426	
12.74	-0.115	0.11249022571675002	
12.745	-0.170	0.04813210590691505	
12.75	-0.203	-0.022589227568251213	
12.755	-0.265	-0.09338019619887401	
12.76	-0.304	-0.15816250292582976	
12.765	-0.300	-0.21451324270900465	
12.77	-0.344	-0.26112320422861135	
12.775	-0.382	-0.29838929427132194	
12.78	-0.350	-0.32862948455908836	
12.785	-0.355	-0.34983313465584887	
12.79	-0.417	-0.36445312358450377	
12.795	-0.381	-0.37588098268490255	
12.8	-0.341	-0.38162614132037365	
12.805	-0.344	-0.3803310535478339	
12.81	-0.358	-0.37314997248781123	
12.815	-0.349	-0.3645872538961146	
12.82	-0.356	-0.35911211408223553	
12.825	-0.361	-0.3563355360827529	
12.83	-0.326	-0.35268592978054963	
12.835	-0.370	-0.34986490108884566	
12.84	-0.517	-0.3573992380127481	
12.845	-0.679	-0.3909279364873647	
12.85	-0.993	-0.46772346810426096	
12.855	-0.993	-0.5883094603803083	
12.86	-0.995	-0.7221082886059761	
12.865	-0.993	-0.8375941596531017	
12.87	-0.995	-0.9240859664787945	
12.875	-0.995	-0.9793108898190396	
12.88	-0.995	-1.0086883864687508	
12.885	-0.995	-1.0208452853651862	
12.89	-0.993	-1.0223932240418172	
12.895	-0.993	-1.0179128431413604	
12.9	-0.995	-1.0106488028891272	
12.905	-0.899	-1.000295868572319	
12.91	-0.760	-0.9741608967556353	
12.915	-0.679	-0.9235592449825534	
12.92	-0.688	-0.8590694063013954	
12.925	-0.747	-0.7974205346599796	
12.93	-0.663	-0.7507054176792454	
12.935	-0.564	-0.711757362672059	
12.94	-0.462	-0.6654351932157216	
12.945	-0.313	-0.601959779192782	
12.95	-0.208	-0.5195477325550163	
12.955	-0.141	-0.42429251804595003	
12.96	-0.052	-0.32328048033272594	
12.965	0.058	-0.22253199856487663	
12.97	0.148	-0.12299711587014418	
12.975	0.201	-0.025483771596825917	
12.98	0.252	0.06528124716348653	
12.985	0.382	0.14730916570119837	
12.99	0.415	0.22551532261783372	
12.995	0.516	0.30298189489158367	
13.0	0.618	0.38050829103825273	
13.005	0.589	0.4557018557834769	
13.01	0.654	0.5216511725816537	
13.015	0.758	0.5815045828899095	
13.02	0.838	0.6410459531362385	
13.025	0.826	0.7024658366357608	
13.03	0.893	0.7602757691661475	
13.035	1.052	0.8173641175987896	
13.04	1.074	0.8815093411382307	
13.045	1.133	0.950950922868457	
13.05	1.124	1.0155161671284478	
13.055	1.091	1.0657026507944185	
13.06	1.048	1.094635165028828	
13.065	1.095	1.1054962666032293	
13.07	1.058	1.1040381296818405	
13.075	0.967	1.0924669204745259	
13.08	0.829	1.0622689765339897	
13.085	0.770	1.0073226851487074	
13.09	0.632	0.9324943239794959	
13.095	0.550	0.8429788127552882	
13.1	0.486	0.7465073387822034	
13.105	0.440	0.6506981361888924	
13.11	0.354	0.5626986766844084	
13.115	0.400	0.48851529238820757	
13.12	0.482	0.4360029962473897	
13.125	0.501	0.41553130108869585	
13.13	0.534	0.42334922260146823	
13.135	0.528	0.44526721327204205	
13.14	0.482	0.4684712773294374	
13.145	0.498	0.48606500509204353	
13.15	0.460	0.4954816450610355	
13.155	0.397	0.4906003247464512	
13.16	0.441	0.4767499602578163	
13.165	0.466	0.46256856427896736	
13.17	0.449	0.4539011166422093	
13.175	0.412	0.4474894593109811	
13.18	0.330	0.4364191558262259	
13.185	0.334	0.4152346848810201	
13.19	0.264	0.3854083315094762	
13.195	0.340	0.3561382575690244	
13.2	0.314	0.33452932637414684	
13.205	0.246	0.31653229836752744	
13.21	0.276	0.2997539504240524	
13.215	0.310	0.28863720821760486	
13.22	0.319	0.2848668755799672	
13.225	0.258	0.28544297296656385	
13.23	0.275	0.28547934553408216	
13.235	0.284	0.283262659770938	
13.24	0.269	0.2793485378672601	
13.245	0.394	0.28414715503862753	
13.25	0.440	0.30259486932308033	
13.255	0.328	0.3284997039815159	
13.26	0.160	0.3396846818438384	
13.265	0.070	0.3156424878801144	
13.27	0.130	0.2648699309128009	
13.275	0.160	0.21343219462434754	
13.28	0.305	0.18452736632360117	
13.285	0.409	0.1902970142220459	
13.29	0.437	0.2293322135625697	
13.295	0.554	0.2921573432397181	
13.3	0.525	0.36459099479191337	
13.305	0.489	0.4284571319844289	
13.31	0.490	0.4727097880313345	
13.315	0.562	0.5027026765015754	
13.32	0.554	0.5228454814007129	
13.325	0.489	0.5363787668789634	
13.33	0.501	0.5385235697835467	
13.335	0.515	0.532283604052041	
13.34	0.473	0.5222932125445399	
13.345	0.547	0.5151592996925449	
13.35	0.597	0.5166229440280479	
13.355	0.550	0.5264686670546048	
13.36	0.525	0.5367082508129604	
13.365	0.531	0.5427018007485993	
13.37	0.582	0.5438484981538418	
13.375	0.634	0.5514001143585403	
13.38	0.715	0.5735489281012696	
13.385	0.728	0.6062814714373119	
13.39	0.649	0.6392731328149514	
13.395	0.672	0.6641523275077396	
13.4	0.599	0.672614257983976	
13.405	0.496	0.6614350447803721	
13.41	0.427	0.6266954835612895	
13.415	0.374	0.5747275654432329	
13.42	0.264	0.5088390461631538	
13.425	0.128	0.42934932812610893	
13.43	0.026	0.337540076939312	
13.435	-0.009	0.23730760558450853	
13.44	-0.045	0.14127390431372985	
13.445	-0.032	0.06416656414844887	
13.45	-0.025	0.0076652334711968875	
13.455	-0.052	-0.02955068614366274	
13.46	-0.042	-0.04930798097570876	
13.465	0.030	-0.05322726395855942	
13.47	0.027	-0.04514572400800366	
13.475	0.015	-0.027680521187756005	
13.48	0.090	-0.006424762689065552	
13.485	0.124	0.019338540939625837	
13.49	0.050	0.04521099390211459	
13.495	0.017	0.062134189842321	
13.5	0.087	0.06669003793851476	
13.505	0.052	0.06642612813226074	
13.51	0.076	0.06766858955840908	
13.515	0.059	0.06778657030118523	
13.52	0.003	0.06383170497277961	
13.525	-0.038	0.051300332509917536	
13.53	-0.019	0.032597808125644945	
13.535	-0.009	0.01232689790760641	
13.54	-0.057	-0.004800983578457183	
13.545	-0.090	-0.020822101272131962	
13.55	-0.113	-0.04131297961400475	
13.555	-0.090	-0.06361930904721254	
13.56	-0.049	-0.07829032205019035	
13.565	0.001	-0.0781651704187648	
13.57	-0.026	-0.06921640046277033	
13.575	-0.084	-0.05770831412782579	
13.58	-0.055	-0.05134190957130233	
13.585	0.021	-0.047703931195609076	
13.59	0.033	-0.03784590956979692	
13.595	0.055	-0.01674405862008673	
13.6	0.185	0.010709139977921587	
13.605	0.698	0.07332171763379695	
13.61	1.668	0.24085814845954184	
13.615	2.786	0.5950848457978071	
13.62	3.081	1.1337807675078464	
13.625	3.080	1.7441600807919522	
13.63	3.078	2.292623935817046	
13.635	3.078	2.706230884904769	
13.64	3.083	2.978018263479248	
13.645	3.084	3.1322027684437668	
13.65	2.989	3.194715612274096	
13.655	2.663	3.175236881966705	
13.66	2.446	3.076639176587058	
13.665	2.288	2.915877762984013	
13.67	2.047	2.715762355742911	
13.675	1.813	2.4942518067787924	
13.68	1.578	2.260673682335131	
13.685	1.392	2.0213147597770007	
13.69	1.115	1.7821455599943992	
13.695	1.020	1.5512246865992174	
13.7	0.948	1.3407314264794716	
13.705	0.813	1.1603803613697035	
13.71	0.754	1.0117113961124358	
13.715	0.738	0.8948276520093204	
13.72	0.654	0.8028175373267499	
13.725	0.563	0.7303302732410439	
13.73	0.527	0.6676007816871385	
13.735	0.434	0.6072914885601834	
13.74	0.223	0.5392257061527145	
13.745	0.082	0.4521581868685144	
13.75	-0.008	0.3436213342034288	
13.755	-0.118	0.22244713046215303	
13.76	-0.193	0.1027374329770785	
13.765	-0.257	-0.009286728784622894	
13.77	-0.341	-0.11216851976946002	
13.775	-0.425	-0.20557826247225575	
13.78	-0.431	-0.2864627960922851	
13.785	-0.420	-0.35374405884906446	
13.79	-0.453	-0.40065331152892336	
13.795	-0.445	-0.4308176523531188	
13.8	-0.468	-0.4494582173040732	
13.805	-0.491	-0.4635085970724745	
13.81	-0.462	-0.4722081978607653	
13.815	-0.449	-0.47436165291760596	
13.82	-0.468	-0.4731847386291427	
13.825	-0.471	-0.47151269552079933	
13.83	-0.462	-0.4685014852048018	
13.835	-0.460	-0.4668031348979744	
13.84	-0.443	-0.4646131038258959	
13.845	-0.419	-0.4588113490705265	
13.85	-0.433	-0.4495035642115955	
13.855	-0.471	-0.44449577013632285	
13.86	-0.474	-0.4441994530731433	
13.865	-0.474	-0.44939380970512816	
13.87	-0.486	-0.45717588622134286	
13.875	-0.501	-0.46749725144964976	
13.88	-0.504	-0.47652253903775976	
13.885	-0.517	-0.48779668991155883	
13.89	-0.546	-0.49960176438525367	
13.895	-0.524	-0.5108360847989872	
13.9	-0.486	-0.5174928702308816	
13.905	-0.518	-0.5194625413425298	
13.91	-0.550	-0.5202221052590746	
13.915	-0.491	-0.5204068801761885	
13.92	-0.443	-0.5171337409499157	
13.925	-0.375	-0.5004897968612934	
13.93	-0.336	-0.4695430916387462	
13.935	-0.315	-0.431777706790064	
13.94	-0.401	-0.3965989071296374	
13.945	-0.466	-0.37787880753717107	
13.95	-0.465	-0.38251303264257797	
13.955	-0.457	-0.40044812516013584	
13.96	-0.382	-0.4162041065278058	
13.965	-0.329	-0.4173978588177475	
13.97	-0.297	-0.4041459844460134	
13.975	-0.286	-0.3784982610587874	
13.98	-0.252	-0.3465315745233043	
13.985	-0.220	-0.31478935738463676	
13.99	-0.245	-0.2846100193900927	
13.995	-0.229	-0.25983711095335815	
14.0	-0.214	-0.24149566473225276	
14.005	-0.216	-0.22949230859140327	
14.01	-0.174	-0.21820368190206807	
14.015	-0.148	-0.20536799813375417	
14.02	-0.173	-0.19118816488328413	
14.025	-0.193	-0.18052804233094022	
14.03	-0.152	-0.1744868031589319	
14.035	-0.075	-0.16578595733630824	
14.04	-0.063	-0.1486370926130038	
14.045	0.017	-0.11979779748053121	
14.05	0.105	-0.08046837655117534	
14.055	0.085	-0.03252454155411889	
14.06	0.189	0.01879993085930086	
14.065	0.255	0.0746570756714878	
14.07	0.258	0.13079368104286426	
14.075	0.218	0.18046037170792456	
14.08	0.263	0.2165203993508036	
14.085	0.168	0.23619062321257558	
14.09	0.033	0.23032711046149243	
14.095	-0.035	0.19517851477546722	
14.1	-0.081	0.1365198403477058	
14.105	-0.173	0.06448476936429033	
14.11	-0.225	-0.01220338436540582	
14.115	-0.263	-0.08836429483802663	
14.12	-0.330	-0.1601835665697497	
14.125	-0.368	-0.22550518624183907	
14.13	-0.378	-0.2814943575996014	
14.135	-0.347	-0.32579408091738893	
14.14	-0.358	-0.35360234870265794	
14.145	-0.324	-0.36580624053234967	
14.15	-0.330	-0.3655054391471929	
14.155	-0.342	-0.3604894471030826	
14.16	-0.310	-0.3511842890943877	
14.165	-0.281	-0.33939584875528694	
14.17	-0.262	-0.32418485140393044	
14.175	-0.257	-0.30548067515984734	
14.18	-0.220	-0.2855165016422532	
14.185	-0.223	-0.26582267561422435	
14.19	-0.245	-0.24959457546888011	
14.195	-0.240	-0.2388169021073871	
14.2	-0.240	-0.23353235988914514	
14.205	-0.274	-0.235479932163203	
14.21	-0.266	-0.24017484343655993	
14.215	-0.265	-0.24741691709876626	
14.22	-0.262	-0.2551869362232474	
14.225	-0.289	-0.26146385104403636	
14.23	-0.268	-0.26652362965208753	
14.235	-0.295	-0.27183233285631325	
14.24	-0.283	-0.2775813828353435	
14.245	-0.245	-0.27880236747937837	
14.25	-0.220	-0.27452913623216846	
14.255	-0.271	-0.2664827613643731	
14.26	-0.286	-0.2611775883273461	
14.265	-0.200	-0.257413429743947	
14.27	-0.069	-0.24417256104139098	
14.275	0.033	-0.20644023594511893	
14.28	0.056	-0.14651260065855046	
14.285	-0.116	-0.0898623128389786	
14.29	-0.252	-0.06463001865997395	
14.295	-0.234	-0.07981665537191886	
14.3	-0.196	-0.11451366709405922	
14.305	-0.174	-0.1484745308858182	
14.31	-0.092	-0.16617023473654213	
14.315	0.015	-0.1593867167797876	
14.32	0.035	-0.1291647833527965	
14.325	0.007	-0.08648941266090518	
14.33	0.018	-0.04454334331363474	
14.335	0.067	-0.011806530722708564	
14.34	0.010	0.013416517539218324	
14.345	0.050	0.03115401139035607	
14.35	0.076	0.04247512580552505	
14.355	0.091	0.05255232193747292	
14.36	0.116	0.06580908719084637	
14.365	0.128	0.08156855949736283	
14.37	0.120	0.0958368151784721	
14.375	0.120	0.10852904712703491	
14.38	0.146	0.11845164402999575	
14.385	0.214	0.13019144660265072	
14.39	0.250	0.14944114375349316	
14.395	0.351	0.18117641442762444	
14.4	0.414	0.2264703005494759	
14.405	0.379	0.2775426200614106	
14.41	0.437	0.3268089294658313	
14.415	0.492	0.3715655875541619	
14.42	0.502	0.41283693768520263	
14.425	0.402	0.4445271013761594	
14.43	0.374	0.4564229935021015	
14.435	0.227	0.44116416947670567	
14.44	0.053	0.3924308710764532	
14.445	-0.005	0.3121383799053954	
14.45	-0.075	0.21344511175854486	
14.455	-0.174	0.10958689321006926	
14.46	-0.207	0.009824138959968332	
14.465	-0.216	-0.07747188500695772	
14.47	-0.226	-0.14712227842861902	
14.475	-0.257	-0.19640904692057315	
14.48	-0.277	-0.2306075011055981	
14.485	-0.260	-0.25482802161702434	
14.49	-0.262	-0.26947554338716373	
14.495	-0.223	-0.2718570739947814	
14.5	-0.179	-0.26460581807423533	
14.505	-0.171	-0.24737085406621362	
14.51	-0.156	-0.2241465013414789	
14.515	-0.141	-0.19954266149303623	
14.52	-0.158	-0.17914763805505457	
14.525	-0.187	-0.16536841920457027	
14.53	-0.147	-0.15863592388986236	
14.535	-0.139	-0.1548706918003254	
14.54	-0.162	-0.152438158009874	
14.545	-0.177	-0.1518554080056646	
14.55	-0.216	-0.15767024612226543	
14.555	-0.249	-0.1713619693432316	
14.56	-0.223	-0.18910448885405995	
14.565	-0.197	-0.2035733836462036	
14.57	-0.226	-0.2131534793279691	
14.575	-0.232	-0.219319088399676	
14.58	-0.239	-0.22364945536880243	
14.585	-0.208	-0.22790307175289495	
14.59	-0.188	-0.2263992508115505	
14.595	-0.207	-0.21983514164107293	
14.6	-0.222	-0.21470886754102503	
14.605	-0.232	-0.2133575442501536	
14.61	-0.152	-0.21206497836045263	
14.615	-0.074	-0.1995855379140486	
14.62	-0.087	-0.17517288665302921	
14.625	-0.226	-0.15330356585173277	
14.63	-0.310	-0.15167351357766823	
14.635	-0.323	-0.17795128919161357	
14.64	-0.292	-0.21637688467970562	
14.645	-0.226	-0.24679381320197802	
14.65	-0.121	-0.2557187834452336	
14.655	-0.100	-0.24034723215963325	
14.66	-0.069	-0.20502970643092172	
14.665	-0.115	-0.1666235316366113	
14.67	-0.084	-0.13522771867569078	
14.675	-0.034	-0.10924745283329543	
14.68	-0.026	-0.08360530171830927	
14.685	-0.013	-0.06100246022280119	
14.69	-0.006	-0.041412842812928743	
14.695	0.047	-0.022734112161474872	
14.7	0.096	-0.0007384344156530797	
14.705	0.093	0.024565032273193697	
14.71	0.130	0.05201072186098223	
14.715	0.154	0.07944110776524911	
14.72	0.220	0.1077082176124471	
14.725	0.385	0.14774493532418742	
14.73	0.504	0.20949985500789178	
14.735	0.592	0.29198425038201203	
14.74	0.683	0.3875111649504696	
14.745	0.828	0.49233437391954654	
14.75	0.803	0.5983030666158506	
14.755	0.747	0.6854417517091234	
14.76	0.811	0.7459813329429568	
14.765	0.814	0.7855519724070277	
14.77	0.742	0.8056622480171687	
14.775	0.620	0.8016010072555965	
14.78	0.559	0.7695394708347776	
14.785	0.443	0.7120447797014774	
14.79	0.203	0.627385865062347	
14.795	0.206	0.5202836803505104	
14.8	0.224	0.4094425280494498	
14.805	0.090	0.313476761720225	
14.81	0.073	0.23089506581762928	
14.815	0.000	0.1585966499231502	
14.82	-0.035	0.09475856532311831	
14.825	0.010	0.04356953312179706	
14.83	0.020	0.011526859150742709	
14.835	0.088	-0.0008543680467060137	
14.84	0.064	0.004413724894487952	
14.845	0.059	0.020221707118906487	
14.85	0.070	0.03545325211733334	
14.855	0.047	0.04749681691078872	
14.86	-0.013	0.05184009626159826	
14.865	0.021	0.04658642306877332	
14.87	0.027	0.03779468767630065	
14.875	-0.011	0.029541840861455188	
14.88	0.017	0.021488174688555323	
14.885	-0.048	0.012154921219804608	
14.89	-0.087	-0.003591344821777399	
14.895	-0.089	-0.023801672242769422	
14.9	-0.112	-0.0465338928799013	
14.905	-0.161	-0.07248509803338271	
14.91	-0.156	-0.09817302777849542	
14.915	-0.109	-0.11840237484166867	
14.92	-0.098	-0.13017365681982274	
14.925	-0.144	-0.13247845235783784	
14.93	-0.148	-0.13253135760331503	
14.935	-0.152	-0.13581198067821076	
14.94	-0.177	-0.14259124522330624	
14.945	-0.122	-0.14682544262895386	
14.95	-0.089	-0.14650241327170713	
14.955	-0.101	-0.13846891077672352	
14.96	-0.130	-0.12720722980290725	
14.965	-0.197	-0.12340990930875585	
14.97	-0.252	-0.13618167836998102	
14.975	-0.266	-0.1615084471826041	
14.98	-0.203	-0.18850374597201247	
14.985	-0.156	-0.20677490278977584	
14.99	-0.115	-0.20661635642161474	
14.995	-0.038	-0.18681485363735023	
15.0	0.116	-0.14645790162208638	
15.005	0.061	-0.08849693453185736	
15.01	-0.005	-0.032236118623372056	
15.015	0.030	0.005616170308252118	
15.02	0.046	0.02681846093993156	
15.025	0.056	0.04048698279647118	
15.03	0.058	0.050506105498979284	
15.035	0.046	0.056185698493734476	
15.04	0.056	0.0563629912998289	
15.045	0.073	0.05821899885472019	
15.05	0.039	0.059508316175474335	
15.055	-0.003	0.05544698060487867	
15.06	0.038	0.046823454887757514	
15.065	0.149	0.04468028733832735	
15.07	0.195	0.05877923179773554	
15.075	0.238	0.09148055806311088	
15.08	0.336	0.13756959813841796	
15.085	0.342	0.19217905862790108	
15.09	0.308	0.24431234776357125	
15.095	0.351	0.2862322903260741	
15.1	0.380	0.3185277865428424	
15.105	0.252	0.3364219184329884	
15.11	0.206	0.33480067946084824	
15.115	0.201	0.3126656442822909	
15.12	0.137	0.2777663557837272	
15.125	0.058	0.23347296382039656	
15.13	-0.035	0.17954384621148128	
15.135	-0.097	0.1141666906381639	
15.14	-0.162	0.04234513931985588	
15.145	-0.148	-0.02575315199653993	
15.15	-0.139	-0.08248293483860815	
15.155	-0.199	-0.12454372988289993	
15.16	-0.187	-0.15515829822663693	
15.165	-0.150	-0.17434678164217793	
15.17	-0.155	-0.18223030101969753	
15.175	-0.153	-0.18048875883641113	
15.18	-0.141	-0.1734610185012357	
15.185	-0.124	-0.16384806107513555	
15.19	-0.139	-0.15462726250756864	
15.195	-0.109	-0.14376062916059987	
15.2	-0.116	-0.13352630988798736	
15.205	-0.129	-0.12653511266487708	
15.21	-0.118	-0.12214509354969905	
15.215	-0.100	-0.11837987624876598	
15.22	-0.150	-0.11723955713728625	
15.225	-0.165	-0.12047667164779041	
15.23	-0.167	-0.12947853814313665	
15.235	-0.150	-0.13985022418577492	
15.24	-0.164	-0.14960627282365152	
15.245	-0.179	-0.1557718479707762	
15.25	-0.190	-0.16253737763743004	
15.255	-0.179	-0.17151548868043787	
15.26	-0.197	-0.17714216323091195	
15.265	-0.185	-0.18239157754013302	
15.27	-0.197	-0.18723441021812476	
15.275	-0.170	-0.18946452653820595	
15.28	-0.122	-0.1854656306669219	
15.285	-0.122	-0.17485128839152225	
15.29	-0.127	-0.16062528493523784	
15.295	-0.055	-0.1427600601529363	
15.3	-0.026	-0.11950928748899523	
15.305	-0.080	-0.09653994567254832	
15.31	-0.144	-0.08117549572803195	
15.315	-0.152	-0.08237509508403609	
15.32	-0.133	-0.09522944171591263	
15.325	-0.100	-0.10848780491959259	
15.33	0.024	-0.10744563183189171	
15.335	0.130	-0.08481543310565866	
15.34	0.104	-0.0406381770481261	
15.345	0.197	0.014226201776067949	
15.35	0.304	0.07550673604697833	
15.355	0.293	0.14146694790565642	
15.36	0.282	0.20282146828714573	
15.365	0.285	0.2486179865273987	
15.37	0.211	0.2727568672774452	
15.375	0.288	0.2805079064482304	
15.38	0.403	0.28854858046220755	
15.385	0.374	0.3061704592061743	
15.39	0.330	0.3263557372988466	
15.395	0.397	0.3432155768050439	
15.4	0.406	0.3585032751451992	
15.405	0.353	0.3704806555083937	
15.41	0.398	0.37880926108352314	
15.415	0.519	0.3906281386880396	
15.42	0.562	0.41483210357632694	
15.425	0.614	0.45551061788415154	
15.43	0.657	0.5044721027862542	
15.435	0.632	0.5531939275697623	
15.44	0.667	0.5934078700295513	
15.445	0.695	0.6281533726744576	
15.45	0.632	0.6534805384764384	
15.455	0.550	0.6595356413411073	
15.46	0.495	0.6447639665139844	
15.465	0.411	0.6085691606144075	
15.47	0.282	0.5518690074901116	
15.475	0.116	0.47147724814623304	
15.48	0.036	0.37240519252448745	
15.485	0.065	0.26526882650683975	
15.49	0.021	0.1724594785462315	
15.495	0.020	0.10109120205137023	
15.5	0.104	0.05551926851709464	
15.505	0.061	0.03463671574885498	
15.51	0.062	0.031731952337611946	
15.515	0.065	0.03753209326619541	
15.52	0.108	0.0459480850799843	
15.525	0.152	0.06151217514739941	
15.53	0.212	0.08736385110407827	
15.535	0.240	0.12127965862675685	
15.54	0.188	0.15546890017080284	
15.545	0.154	0.1800274112056741	
15.55	0.189	0.19048897639436446	
15.555	0.152	0.19166058540384273	
15.56	0.166	0.1867137174086998	
15.565	0.191	0.18250999324729644	
15.57	0.159	0.17797719240249293	
15.575	0.044	0.16850188716939113	
15.58	0.003	0.14530228271791507	
15.585	0.055	0.11128837423774442	
15.59	-0.013	0.07752736647152045	
15.595	-0.034	0.04801579638535882	
15.6	-0.011	0.020458111736265015	
15.605	-0.025	-0.001294261241080498	
15.61	-0.077	-0.018256244080296958	
15.615	-0.095	-0.0345485414063636	
15.62	-0.068	-0.05303816995214164	
15.625	-0.055	-0.06541482361569151	
15.63	-0.045	-0.068679215986029	
15.635	-0.025	-0.06578257236956658	
15.64	0.058	-0.05445243403833551	
15.645	0.113	-0.02890356795730557	
15.65	0.061	0.005414020802651583	
15.655	-0.081	0.026618768236595654	
15.66	-0.103	0.023777293407236996	
15.665	-0.080	0.0014955252953283865	
15.67	-0.017	-0.023089237462142517	
15.675	0.097	-0.03242219410537475	
15.68	0.204	-0.011597740157410427	
15.685	0.278	0.03622450343717943	
15.69	0.246	0.09847278494691747	
15.695	0.279	0.1600964286809496	
15.7	0.288	0.21145973487119415	
15.705	0.236	0.24759329243257538	
15.71	0.232	0.26575770617761807	
15.715	0.278	0.27154080101253586	
15.72	0.311	0.2739060743462948	
15.725	0.308	0.2805193445620087	
15.73	0.292	0.28939893101014214	
15.735	0.282	0.29323078319507484	
15.74	0.197	0.2894372815968499	
15.745	0.189	0.2751029328667107	
15.75	0.311	0.2584983558885583	
15.755	0.250	0.2505972918871338	
15.76	0.313	0.2527710934930998	
15.765	0.464	0.26956618230890705	
15.77	0.487	0.3069039448705397	
15.775	0.475	0.35652290124223873	
15.78	0.510	0.4063923868794056	
15.785	0.534	0.44920962353901933	
15.79	0.458	0.4804669214379632	
15.795	0.388	0.4931034987829495	
15.8	0.333	0.480417141732822	
15.805	0.208	0.4425939178638153	
15.81	0.151	0.3848191102982849	
15.815	0.059	0.31149215783502604	
15.82	-0.064	0.22684573344626746	
15.825	-0.126	0.134602834551414	
15.83	-0.130	0.044406767877491204	
15.835	-0.171	-0.03384989997513767	
15.84	-0.197	-0.09847017919340831	
15.845	-0.202	-0.14582621031947102	
15.85	-0.213	-0.18062719909341063	
15.855	-0.225	-0.20338995655176242	
15.86	-0.177	-0.21610452160256674	
15.865	-0.171	-0.21653266721738898	
15.87	-0.171	-0.20917759741655523	
15.875	-0.167	-0.19834355233656598	
15.88	-0.159	-0.18661000154625978	
15.885	-0.133	-0.17490636186130343	
15.89	-0.130	-0.16344186160413582	
15.895	-0.124	-0.15081473782248878	
15.9	-0.130	-0.13968165414887773	
15.905	-0.138	-0.13338883561653697	
15.91	-0.147	-0.1310797672960135	
15.915	-0.144	-0.13156938135417956	
15.92	-0.182	-0.13719452383479458	
15.925	-0.242	-0.14831617709614608	
15.93	-0.210	-0.16662136432781216	
15.935	-0.181	-0.18392369733959366	
15.94	-0.210	-0.1954102423000738	
15.945	-0.220	-0.20180900266673082	
15.95	-0.196	-0.20671458551477925	
15.955	-0.208	-0.20936675655673803	
15.96	-0.211	-0.21004447930739215	
15.965	-0.226	-0.21060897064717485	
15.97	-0.232	-0.21421029467745042	
15.975	-0.231	-0.21825606963656818	
15.98	-0.161	-0.21962265640398507	
15.985	-0.058	-0.2079698528754112	
15.99	-0.055	-0.17936416435945657	
15.995	-0.069	-0.14277780466277726	
16.0	-0.223	-0.11780078798466988	
16.005	-0.275	-0.12039779816429297	
16.01	-0.210	-0.1449809388712715	
16.015	-0.142	-0.16861417578311405	
16.02	-0.100	-0.17723482523604067	
16.025	-0.058	-0.16620452412013015	
16.03	-0.032	-0.1416167836336338	
16.035	-0.043	-0.11203095366453705	
16.04	-0.025	-0.08336456282836749	
16.045	-0.009	-0.05774469104807898	
16.05	-0.020	-0.037804693582376994	
16.055	-0.026	-0.02538963063093281	
16.06	-0.003	-0.016959027693335682	
16.065	0.039	-0.009635674016357182	
16.07	0.027	-0.00026572371026459274	
16.075	0.072	0.01280623162042298	
16.08	0.142	0.03139593464628234	
16.085	0.120	0.05595672615580343	
16.09	0.133	0.081633967359011	
16.095	0.181	0.10626695532135488	
16.1	0.266	0.13320076945868292	
16.105	0.249	0.16562060324229758	
16.11	0.354	0.20304484269247572	
16.115	0.415	0.24735526526309254	
16.12	0.498	0.3007497605940263	
16.125	0.510	0.36081838662627197	
16.13	0.534	0.41835622850128346	
16.135	0.499	0.4649370932543582	
16.14	0.420	0.49166020512091824	
16.145	0.362	0.4932362618806725	
16.15	0.162	0.4631383083494164	
16.155	0.065	0.3966258280261761	
16.16	-0.003	0.3050528570539554	
16.165	-0.057	0.20332321542808612	
16.17	-0.136	0.10375609777062456	
16.175	-0.196	0.011842227688690116	
16.18	-0.185	-0.0676468657547294	
16.185	-0.196	-0.13103442320328562	
16.19	-0.213	-0.17329474442692333	
16.195	-0.220	-0.2007601619863867	
16.2	-0.223	-0.21784462870517832	
16.205	-0.229	-0.22832294756529428	
16.21	-0.197	-0.23094155239639363	
16.215	-0.145	-0.2247040872715612	
16.22	-0.162	-0.21122877140501797	
16.225	-0.132	-0.19314377944089395	
16.23	-0.116	-0.1726829692938473	
16.235	-0.109	-0.15405509438084014	
16.24	-0.113	-0.13628268233159163	
16.245	-0.107	-0.1227751565407916	
16.25	-0.113	-0.11386732405848529	
16.255	-0.144	-0.11131463085520248	
16.26	-0.179	-0.1149455664462226	
16.265	-0.188	-0.12773421819537195	
16.27	-0.239	-0.1472327763639215	
16.275	-0.211	-0.17012365662295337	
16.28	-0.193	-0.18868469571304936	
16.285	-0.234	-0.2020629253604423	
16.29	-0.257	-0.21327098304577724	
16.295	-0.210	-0.2237711370779216	
16.3	-0.170	-0.22686408500651145	
16.305	-0.203	-0.2212913767591284	
16.31	-0.225	-0.21394931104843404	
16.315	-0.255	-0.21275949140592318	
16.32	-0.219	-0.21821074123773915	
16.325	-0.106	-0.2160953917779148	
16.33	0.091	-0.19069670295886987	
16.335	0.157	-0.13304237531081942	
16.34	0.076	-0.05823776786854883	
16.345	-0.135	-0.0018371145363100302	
16.35	-0.219	0.0070477580555051	
16.355	-0.243	-0.02826642879587355	
16.36	-0.168	-0.07989834911244467	
16.365	-0.141	-0.12378117020992135	
16.37	-0.103	-0.14821265044641324	
16.375	-0.049	-0.15105021317840647	
16.38	0.006	-0.13372176710129535	
16.385	0.032	-0.10110402952975715	
16.39	0.000	-0.06320410376994551	
16.395	0.009	-0.0307734888609437	
16.4	0.027	-0.0069575545488377	
16.405	0.052	0.010735844248011578	
16.41	0.122	0.030130610432874426	
16.415	0.061	0.050186757130474345	
16.42	0.072	0.06473966650132906	
16.425	0.174	0.07796812818390444	
16.43	0.218	0.09929799623741783	
16.435	0.238	0.13086741345509167	
16.44	0.218	0.1637833545419231	
16.445	0.266	0.1942574941829004	
16.45	0.348	0.2230585058952302	
16.455	0.429	0.25971675895001317	
16.46	0.525	0.3111375583085198	
16.465	0.528	0.371220301485627	
16.47	0.460	0.425717805319362	
16.475	0.519	0.46491968722013904	
16.48	0.556	0.4943161720990932	
16.485	0.482	0.5138848224253632	
16.49	0.350	0.5147231285257041	
16.495	0.232	0.4862304133608535	
16.5	0.130	0.42609320113860993	
16.505	-0.005	0.3396759428877822	
16.51	-0.054	0.23807246019126888	
16.515	-0.109	0.1342785971775498	
16.52	-0.142	0.03877925992234518	
16.525	-0.194	-0.0421276359578534	
16.53	-0.184	-0.1066800963051434	
16.535	-0.205	-0.15503443294521516	
16.54	-0.252	-0.1892788496967582	
16.545	-0.240	-0.2137876088009174	
16.55	-0.210	-0.23083512772667358	
16.555	-0.196	-0.2362947949197463	
16.56	-0.145	-0.2289691295714076	
16.565	-0.129	-0.2117056381771573	
16.57	-0.142	-0.19020142474596255	
16.575	-0.121	-0.16817684322731993	
16.58	-0.116	-0.14969462695662591	
16.585	-0.142	-0.1360128384104198	
16.59	-0.161	-0.13031236687463243	
16.595	-0.126	-0.1298095703529195	
16.6	-0.133	-0.13080046477384882	
16.605	-0.167	-0.13431186387070504	
16.61	-0.176	-0.1400214429785545	
16.615	-0.182	-0.14867745572523705	
16.62	-0.208	-0.1611734436849856	
16.625	-0.246	-0.17622855460605732	
16.63	-0.234	-0.19369282421888231	
16.635	-0.234	-0.21095051895287106	
16.64	-0.255	-0.22433503758386933	
16.645	-0.258	-0.23584516292241006	
16.65	-0.248	-0.24475157975789358	
16.655	-0.286	-0.2523029004058997	
16.66	-0.306	-0.26106962693511593	
16.665	-0.297	-0.27265818854808077	
16.67	-0.255	-0.2811343682204564	
16.675	-0.190	-0.2792455336144808	
16.68	-0.176	-0.26369227635166925	
16.685	-0.291	-0.24693281972582345	
16.69	-0.405	-0.24637828871514136	
16.695	-0.420	-0.2698818413493389	
16.7	-0.375	-0.3067124303807105	
16.705	-0.333	-0.3382813825913097	
16.71	-0.306	-0.35309115394445045	
16.715	-0.246	-0.34963435823804134	
16.72	-0.205	-0.3301060897002957	
16.725	-0.161	-0.29728284189902626	
16.73	-0.127	-0.2557077139436803	
16.735	-0.075	-0.21188944082282035	
16.74	0.041	-0.16135746792534084	
16.745	0.131	-0.10087463311977972	
16.75	0.278	-0.024690637962832027	
16.755	0.288	0.06070021693650928	
16.76	0.321	0.14687063042976098	
16.765	0.437	0.2253692791386692	
16.77	0.484	0.29889359377964075	
16.775	0.533	0.3696915128758679	
16.78	0.486	0.43028730885209937	
16.785	0.481	0.47210052483054293	
16.79	0.528	0.4966148418065929	
16.795	0.634	0.5171333234985706	
16.8	0.790	0.5513296035510746	
16.805	0.814	0.6056935605837988	
16.81	0.816	0.6698770786183462	
16.815	0.786	0.7273738412569737	
16.82	0.696	0.7628546246223871	
16.825	0.577	0.7666662281570485	
16.83	0.513	0.7373026110687345	
16.835	0.463	0.6811035297703034	
16.84	0.386	0.6116102613331453	
16.845	0.252	0.5341342172846556	
16.85	0.166	0.4462927274316465	
16.855	-0.042	0.34465469818727906	
16.86	-0.090	0.2319049244016177	
16.865	-0.106	0.1184076568151441	
16.87	-0.162	0.018857988644659544	
16.875	-0.181	-0.062287679945843014	
16.88	-0.139	-0.11964133376303131	
16.885	-0.130	-0.15390223603599215	
16.89	-0.141	-0.16738794206104113	
16.895	-0.126	-0.16783228157009064	
16.9	-0.136	-0.1607090044948495	
16.905	-0.156	-0.15435035869071023	
16.91	-0.126	-0.1480735608577391	
16.915	-0.136	-0.14260365366059835	
16.92	-0.174	-0.14117828895430465	
16.925	-0.181	-0.14429569357216626	
16.93	-0.181	-0.15164331978736523	
16.935	-0.171	-0.16092727246368566	
16.94	-0.194	-0.16940291419746462	
16.945	-0.193	-0.17581867398237733	
16.95	-0.193	-0.18270657902992557	
16.955	-0.258	-0.19136995057446823	
16.96	-0.295	-0.20607278967861392	
16.965	-0.295	-0.22759324749568402	
16.97	-0.301	-0.252187995256014	
16.975	-0.320	-0.27328592421514736	
16.98	-0.301	-0.2896201885588351	
16.985	-0.307	-0.3019459669830933	
16.99	-0.301	-0.3084116596357577	
16.995	-0.291	-0.3097828488951285	
17.0	-0.281	-0.3067142191315112	
17.005	-0.300	-0.30240065433963303	
17.01	-0.237	-0.2960333660975697	
17.015	-0.171	-0.2805605291012105	
17.02	-0.197	-0.25822749491939506	
17.025	-0.217	-0.23630156738304708	
17.03	-0.280	-0.22259735563149483	
17.035	-0.327	-0.22597115244637675	
17.04	-0.344	-0.24545225044910504	
17.045	-0.317	-0.27076026663050956	
17.05	-0.203	-0.28767651283351925	
17.055	-0.152	-0.28440997052203554	
17.06	-0.061	-0.25503392102503564	
17.065	-0.025	-0.2075317146189503	
17.07	-0.061	-0.15424746999736183	
17.075	-0.048	-0.1083356095718494	
17.08	-0.032	-0.07456144917162322	
17.085	-0.032	-0.050946352553621455	
17.09	-0.086	-0.03849169468528544	
17.095	-0.063	-0.03676916408183743	
17.1	-0.068	-0.04265872984091736	
17.105	-0.045	-0.04944407522514983	
17.11	-0.040	-0.05206279309774907	
17.115	0.020	-0.04850383394002224	
17.12	0.012	-0.03823314109323905	
17.125	-0.014	-0.024349053773397404	
17.13	-0.013	-0.013552997472701485	
17.135	-0.023	-0.008937714217016928	
17.14	-0.019	-0.009497508122681773	
17.145	-0.029	-0.010753894569853296	
17.15	-0.071	-0.01665422087697555	
17.155	-0.144	-0.03147962846294727	
17.16	-0.109	-0.05406735720536839	
17.165	-0.043	-0.07346879513306982	
17.17	-0.072	-0.08223996244785192	
17.175	-0.081	-0.08437511775914613	
17.18	-0.089	-0.08352744265185724	
17.185	-0.126	-0.08591594075947263	
17.19	-0.177	-0.09553647369228568	
17.195	-0.190	-0.11277110424929616	
17.2	-0.197	-0.13560924492624107	
17.205	-0.245	-0.16046974825464405	
17.21	-0.303	-0.1881088544168946	
17.215	-0.303	-0.21946958091824578	
17.22	-0.271	-0.2502159492696161	
17.225	-0.255	-0.2693832389352066	
17.23	-0.243	-0.27552234167979206	
17.235	-0.251	-0.27389620895833	
17.24	-0.352	-0.2745504473175424	
17.245	-0.459	-0.28778327360104217	
17.25	-0.520	-0.3236121065111338	
17.255	-0.576	-0.37849497116636954	
17.26	-0.581	-0.43909517079901633	
17.265	-0.555	-0.49242247521455174	
17.27	-0.555	-0.5332421700499123	
17.275	-0.533	-0.5554133915288915	
17.28	-0.460	-0.5594637844328629	
17.285	-0.425	-0.5458846793374335	
17.29	-0.420	-0.5186003875115635	
17.295	-0.384	-0.4837300035458771	
