Time	Potential	EKG	Unnamed: 3
0.0	0.492	0.02241174120461795	
0.005	0.253	0.08495664646847158	
0.01	0.426	0.16999467553396977	
0.015	0.266	0.2408084328848995	
0.02	-0.040	0.27131776864512674	
0.025	0.068	0.2518245183951167	
0.03	0.082	0.2042095250959502	
0.035	-0.185	0.14069125344757924	
0.04	-0.161	0.066183785729818	
0.045	-0.025	-0.005081599883818081	
0.05	-0.133	-0.06000721558603082	
0.055	-0.173	-0.09633505616458644	
0.06	0.072	-0.11043085659865898	
0.065	0.021	-0.1012017081646173	
0.07	-0.135	-0.08213510742521526	
0.075	0.003	-0.06282416944429081	
0.08	0.093	-0.044532381879381855	
0.085	-0.127	-0.029779284682764272	
0.09	-0.139	-0.026780301466558232	
0.095	0.033	-0.0346787812476953	
0.1	-0.132	-0.047316647938858106	
0.105	-0.193	-0.06356346150267912	
0.11	-0.019	-0.07903116704255914	
0.115	-0.077	-0.09025518779245142	
0.12	-0.217	-0.10049691531224496	
0.125	-0.136	-0.11055159408896856	
0.13	-0.077	-0.12235064940225503	
0.135	-0.265	-0.13615245699110257	
0.14	-0.236	-0.1527158307835086	
0.145	-0.095	-0.16733483479356898	
0.15	-0.200	-0.1795745451858442	
0.155	-0.295	-0.18773613406098008	
0.16	-0.173	-0.1956713732008852	
0.165	-0.240	-0.209317116049723	
0.17	-0.321	-0.22482907305235844	
0.175	0.027	-0.22326434754027707	
0.18	0.357	-0.179123444556132	
0.185	0.090	-0.09149586227502643	
0.19	-0.032	-0.003718953338615826	
0.195	-0.074	0.04092507415633817	
0.2	-0.260	0.028163688268108538	
0.205	-0.274	-0.02188786459534353	
0.21	-0.074	-0.07632375654223054	
0.215	-0.068	-0.1173528069840394	
0.22	-0.164	-0.1361066021281609	
0.225	0.013	-0.13004002247287666	
0.23	0.119	-0.10602834904955653	
0.235	-0.095	-0.07384488714949536	
0.24	-0.066	-0.04461094214049757	
0.245	0.172	-0.021723606964986902	
0.25	-0.035	-0.0030694077585195602	
0.255	-0.113	0.007949589011140427	
0.26	0.162	0.01400063564242927	
0.265	0.145	0.024589581591660102	
0.27	-0.034	0.041592173185732856	
0.275	0.185	0.06217004466709558	
0.28	0.314	0.08910724905393495	
0.285	0.032	0.11786694026371759	
0.29	0.146	0.14043665231430524	
0.295	0.463	0.1655223863104182	
0.3	0.293	0.20176326522101992	
0.305	0.275	0.24585425309039832	
0.31	0.741	0.30222820743863016	
0.315	0.689	0.38056278327286663	
0.32	0.508	0.46642094523083183	
0.325	0.716	0.5432665357992689	
0.33	0.753	0.603154595807439	
0.335	0.382	0.6337277861660289	
0.34	0.380	0.6264320186410058	
0.345	0.591	0.5895795593638595	
0.35	0.142	0.5337038482103196	
0.355	-0.115	0.4438037539181199	
0.36	0.015	0.32221017360495363	
0.365	-0.077	0.18855981724998663	
0.37	-0.205	0.06948574670386444	
0.375	-0.104	-0.020715957786036573	
0.38	-0.042	-0.0848754347590365	
0.385	-0.202	-0.1251790652088414	
0.39	-0.153	-0.14349141873378457	
0.395	0.000	-0.14650228920861308	
0.4	-0.092	-0.14028683549796542	
0.405	-0.144	-0.12405699169728482	
0.41	0.079	-0.10080641718889513	
0.415	-0.017	-0.07654817678136393	
0.42	-0.187	-0.060481136496294066	
0.425	-0.064	-0.053688143338462405	
0.43	0.064	-0.054970147134237396	
0.435	-0.118	-0.05418777222805923	
0.44	-0.084	-0.049417069321787625	
0.445	0.073	-0.04455629804158015	
0.45	-0.118	-0.04535422623212705	
0.455	-0.187	-0.05098732860412726	
0.46	-0.068	-0.06279665910685828	
0.465	-0.129	-0.08464050304504923	
0.47	-0.246	-0.10943864813664574	
0.475	-0.107	-0.12558532648204893	
0.48	-0.057	-0.13704089133429215	
0.485	-0.246	-0.14626233914490258	
0.49	-0.177	-0.15031185409536285	
0.495	-0.069	-0.15251987232408604	
0.5	-0.216	-0.15848044508474146	
0.505	-0.217	-0.16296183368900619	
0.51	0.085	-0.15364368037574888	
0.515	0.047	-0.12769871013788342	
0.52	-0.197	-0.09555495498781406	
0.525	-0.202	-0.0784965353608574	
0.53	-0.193	-0.09503028973705557	
0.535	-0.304	-0.13340781080713882	
0.54	-0.176	-0.1662357339930571	
0.545	0.105	-0.1743698131866417	
0.55	-0.014	-0.15360026962772239	
0.555	-0.017	-0.110011628257319	
0.56	0.345	-0.04747883283476474	
0.565	0.321	0.031244995081857893	
0.57	0.136	0.11230374607378701	
0.575	0.324	0.18365549311833065	
0.58	0.394	0.23604435406582233	
0.585	0.130	0.26840474815307613	
0.59	0.229	0.28276631526273605	
0.595	0.472	0.2887524586196588	
0.6	0.256	0.2962851650466467	
0.605	0.165	0.2999105519560352	
0.61	0.380	0.2986337032898604	
0.615	0.340	0.2942180080496196	
0.62	0.172	0.29221815073156365	
0.625	0.481	0.29976437844607856	
0.63	0.632	0.32711086315835325	
0.635	0.402	0.37132798816987517	
0.64	0.528	0.4227898766692325	
0.645	0.739	0.47481020646881655	
0.65	0.417	0.51521561253598	
0.655	0.305	0.5288668692333631	
0.66	0.689	0.5246875340279145	
0.665	0.522	0.5202384776030491	
0.67	0.163	0.5071701739247041	
0.675	0.363	0.4717015537916042	
0.68	0.333	0.4211151803982384	
0.685	-0.068	0.35537898590863065	
0.69	-0.113	0.26871663408913943	
0.695	0.012	0.1667338029533274	
0.7	-0.156	0.06537005607404166	
0.705	-0.226	-0.018049880993787036	
0.71	-0.083	-0.08047685179622578	
0.715	-0.130	-0.12773505121247294	
0.72	-0.258	-0.15763383697149894	
0.725	-0.115	-0.1693771991889407	
0.73	-0.066	-0.17299392960059212	
0.735	-0.269	-0.17346325025485865	
0.74	-0.182	-0.17023370411467692	
0.745	-0.014	-0.16540633106949143	
0.75	-0.133	-0.1565998625961203	
0.755	-0.181	-0.1419610342125123	
0.76	0.013	-0.12357240570901071	
0.765	-0.049	-0.10879018163964388	
0.77	-0.174	-0.09555077050312001	
0.775	-0.064	-0.0843951589180397	
0.78	-0.042	-0.08208129589397258	
0.785	-0.219	-0.08942617773038274	
0.79	-0.208	-0.10118235455776772	
0.795	0.006	-0.11446390905357907	
0.8	-0.181	-0.12662646641809677	
0.805	-0.243	-0.13390121202498523	
0.81	-0.084	-0.14057095604232508	
0.815	-0.101	-0.14784818858275556	
0.82	-0.214	-0.15052097472263307	
0.825	-0.092	-0.14432951568278968	
0.83	-0.064	-0.13812671777657304	
0.835	-0.225	-0.1374728577313048	
0.84	-0.107	-0.13310250854792113	
0.845	0.091	-0.12043109492786351	
0.85	-0.129	-0.10272279002920648	
0.855	-0.287	-0.09290750580252623	
0.86	-0.176	-0.10449725638261485	
0.865	-0.205	-0.13791510124229805	
0.87	-0.243	-0.16857518958279866	
0.875	-0.002	-0.176198531160332	
0.88	0.191	-0.15309397066460442	
0.885	-0.043	-0.10458617258286437	
0.89	0.052	-0.047051419079886275	
0.895	0.342	0.010637216748056871	
0.9	0.088	0.06616043558402004	
0.905	0.056	0.11109935366149949	
0.91	0.285	0.14163137261646638	
0.915	0.221	0.16300927684107436	
0.92	0.003	0.17433948850677994	
0.925	0.295	0.1808809503283264	
0.93	0.435	0.19488527846651466	
0.935	0.165	0.2203440299865742	
0.94	0.379	0.25201805492613394	
0.945	0.573	0.29265313362662415	
0.95	0.351	0.33610183836932395	
0.955	0.350	0.3741414370095393	
0.96	0.661	0.4086556691777246	
0.965	0.557	0.445973931283009	
0.97	0.354	0.4783713137485026	
0.975	0.701	0.5048745333886646	
0.98	0.878	0.5438446184062287	
0.985	0.534	0.5934135281990827	
0.99	0.576	0.6319913666678361	
0.995	0.765	0.6495127783953762	
1.0	0.450	0.6481959851753225	
1.005	0.302	0.6212304752829505	
1.01	0.487	0.5714411135507467	
1.015	0.188	0.5019707197769329	
1.02	-0.083	0.4085999267336998	
1.025	-0.006	0.296703598880692	
1.03	-0.048	0.17766682349124602	
1.035	-0.190	0.06570640284056542	
1.04	-0.135	-0.019953964108589115	
1.045	-0.005	-0.07774321210743412	
1.05	-0.159	-0.11462931069651065	
1.055	-0.197	-0.13156430561233495	
1.06	-0.017	-0.1368035274732589	
1.065	-0.063	-0.13403510355990061	
1.07	-0.162	-0.12411907100995116	
1.075	-0.046	-0.10842001452903817	
1.08	-0.020	-0.09651589854383613	
1.085	-0.173	-0.0900966019658618	
1.09	-0.104	-0.08594014960074148	
1.095	0.067	-0.08097560465058726	
1.1	-0.121	-0.07453659323554956	
1.105	-0.179	-0.07142752667461538	
1.11	-0.064	-0.07600432157302844	
1.115	-0.135	-0.09107447110247693	
1.12	-0.249	-0.11092137252945804	
1.125	-0.159	-0.1285044955821209	
1.13	-0.148	-0.14965142986196128	
1.135	-0.300	-0.17293255626278115	
1.14	-0.292	-0.19390200006169944	
1.145	-0.144	-0.21414924440441063	
1.15	-0.234	-0.2294723187700323	
1.155	-0.295	-0.23428417264620885	
1.16	-0.220	-0.23511586769391926	
1.165	-0.217	-0.24314389598326094	
1.17	-0.236	-0.24478226749473986	
1.175	-0.116	-0.22947673606422073	
1.18	-0.086	-0.20877084834115578	
1.185	-0.310	-0.19292407424402927	
1.19	-0.318	-0.19081382993625723	
1.195	-0.217	-0.20621097635910687	
1.2	-0.292	-0.231563650169611	
1.205	-0.258	-0.2471898731547284	
1.21	-0.078	-0.24402836654513999	
1.215	-0.127	-0.22925499942859612	
1.22	-0.162	-0.2038225991127827	
1.225	-0.045	-0.1693454888718898	
1.23	-0.005	-0.13580482444502573	
1.235	-0.122	-0.10805498582714802	
1.24	-0.026	-0.08068789352395347	
1.245	0.200	-0.049097147504314646	
1.25	-0.006	-0.01574084711117527	
1.255	-0.016	0.014765456356699532	
1.26	0.285	0.044149360850572646	
1.265	0.174	0.0776777972948209	
1.27	0.036	0.10902244402301511	
1.275	0.311	0.1377868885151425	
1.28	0.372	0.17127593595513413	
1.285	0.140	0.20479405961788316	
1.29	0.310	0.23531215910277928	
1.295	0.501	0.2660267541646604	
1.3	0.333	0.30020284189040425	
1.305	0.348	0.3346933182880809	
1.31	0.693	0.37523446526088844	
1.315	0.577	0.42571315024361556	
1.32	0.363	0.47193799037010287	
1.325	0.559	0.5017619957000221	
1.33	0.620	0.5173309801664174	
1.335	0.281	0.5197902382245121	
1.34	0.235	0.49723455336973554	
1.345	0.287	0.4440016854917236	
1.35	-0.074	0.3612530688455454	
1.355	-0.124	0.25867517186637995	
1.36	0.007	0.15116264284591074	
1.365	-0.115	0.05376672089636933	
1.37	-0.262	-0.027975779668229162	
1.375	-0.130	-0.09129137574024357	
1.38	-0.071	-0.1356816181402874	
1.385	-0.208	-0.16009460537902045	
1.39	-0.138	-0.16475570272177958	
1.395	0.017	-0.1570521034593249	
1.4	-0.127	-0.14266842008800357	
1.405	-0.133	-0.1232824229431797	
1.41	0.000	-0.10292941688685991	
1.415	-0.045	-0.0892441462129691	
1.42	-0.173	-0.079921082685925	
1.425	-0.014	-0.0713367527913046	
1.43	0.026	-0.06472858970761355	
1.435	-0.176	-0.062069043538869724	
1.44	-0.147	-0.06476672152188635	
1.445	-0.029	-0.07508890081160549	
1.45	-0.174	-0.09165836254409036	
1.455	-0.219	-0.10726841531067101	
1.46	-0.057	-0.11993298403653448	
1.465	-0.150	-0.13324287422589182	
1.47	-0.257	-0.14492176153668654	
1.475	-0.156	-0.15432778191312396	
1.48	-0.098	-0.16472322438690296	
1.485	-0.248	-0.17208565819796767	
1.49	-0.226	-0.1757456622749436	
1.495	-0.119	-0.18106027283167253	
1.5	-0.177	-0.1877031422139629	
1.505	-0.037	-0.17625814314551433	
1.51	0.394	-0.1258211724163637	
1.515	0.284	-0.03725241353367505	
1.52	-0.104	0.05096601722656797	
1.525	-0.147	0.08966841039582049	
1.53	-0.147	0.06428220028452224	
1.535	-0.251	0.0018495938461212881	
1.54	-0.127	-0.057703919169535246	
1.545	0.072	-0.09497811199856124	
1.55	-0.106	-0.10775755633347756	
1.555	-0.116	-0.10329963370994329	
1.56	0.172	-0.08278239954683665	
1.565	0.064	-0.05128936815978083	
1.57	-0.048	-0.016047199645712655	
1.575	0.124	0.015793157367500997	
1.58	0.178	0.04332056172417283	
1.585	-0.020	0.06375151686848796	
1.59	0.050	0.07829449046759326	
1.595	0.264	0.08807085664045583	
1.6	0.035	0.09718164294464873	
1.605	0.024	0.1036628924715157	
1.61	0.348	0.11327294727935786	
1.615	0.261	0.13571433714076392	
1.62	0.081	0.16391638839928513	
1.625	0.380	0.19280824717465528	
1.63	0.490	0.22935059857820922	
1.635	0.261	0.27376219986116224	
1.64	0.394	0.3172738006802467	
1.645	0.600	0.35704441224799804	
1.65	0.362	0.39322443385552774	
1.655	0.285	0.41667313938292755	
1.66	0.490	0.4221680683759511	
1.665	0.243	0.4097110975153355	
1.67	-0.008	0.37100151230602785	
1.675	0.090	0.30570956607605787	
1.68	0.068	0.22527069603017968	
1.685	-0.153	0.1419114203876591	
1.69	-0.142	0.06327826126069074	
1.695	-0.103	-0.010109761839221972	
1.7	-0.269	-0.08067052128356847	
1.705	-0.315	-0.1412001680062917	
1.71	-0.188	-0.18897100530545774	
1.715	-0.229	-0.22728422950739988	
1.72	-0.272	-0.24780667096925962	
1.725	-0.121	-0.24633140789578184	
1.73	-0.092	-0.2308339989951274	
1.735	-0.217	-0.20998958383446897	
1.74	-0.158	-0.18669300251404533	
1.745	0.003	-0.16321202681811306	
1.75	-0.138	-0.14264814906221251	
1.755	-0.155	-0.12214505687645541	
1.76	-0.009	-0.10603729455506228	
1.765	-0.068	-0.09531746461387727	
1.77	-0.251	-0.09277009108993389	
1.775	-0.130	-0.09936733253428867	
1.78	-0.116	-0.11588015127249955	
1.785	-0.249	-0.13694676220615448	
1.79	-0.184	-0.1516675263453629	
1.795	-0.095	-0.16225072782975886	
1.8	-0.232	-0.17365404870033696	
1.805	-0.220	-0.1791059079922563	
1.81	-0.049	-0.17702354332757955	
1.815	-0.148	-0.1713433443225031	
1.82	-0.258	-0.16677684609355364	
1.825	-0.158	-0.1633227348972736	
1.83	-0.121	-0.1678762278896593	
1.835	-0.168	-0.17000501906785662	
1.84	-0.031	-0.15562753003103993	
1.845	0.093	-0.12517209376079186	
1.85	-0.184	-0.09574501577790458	
1.855	-0.287	-0.08618607004823986	
1.86	-0.162	-0.10292959296902437	
1.865	-0.188	-0.13534608930256536	
1.87	-0.223	-0.16287273923519607	
1.875	-0.006	-0.16821780133042266	
1.88	0.117	-0.14878375569421987	
1.885	-0.048	-0.10914266538308973	
1.89	0.116	-0.056647569821868575	
1.895	0.354	0.006966760841421724	
1.9	0.104	0.07119697489895675	
1.905	0.026	0.11971976295542176	
1.91	0.324	0.15019137738404706	
1.915	0.249	0.17268954598104053	
1.92	0.038	0.1899828596914181	
1.925	0.209	0.19577484487504673	
1.93	0.313	0.19529710960587468	
1.935	0.124	0.19680516098613898	
1.94	0.249	0.20530534841779974	
1.945	0.482	0.22402617024841862	
1.95	0.281	0.2532214851276321	
1.955	0.240	0.2836936846835195	
1.96	0.571	0.31319903393620385	
1.965	0.512	0.3507188027648175	
1.97	0.429	0.39599743827236716	
1.975	0.718	0.4497648888021443	
1.98	0.791	0.5122980075247475	
1.985	0.504	0.5718249998354579	
1.99	0.504	0.6092526731982028	
1.995	0.600	0.6139480582760009	
2.0	0.272	0.5862621900542547	
2.005	0.133	0.5267149039792187	
2.01	0.290	0.44409546297255326	
2.015	0.099	0.3517301469692701	
2.02	-0.110	0.2580973587364617	
2.025	-0.042	0.16367662918672593	
2.03	-0.034	0.07422765896981871	
2.035	-0.176	-0.0030142968271511437	
2.04	-0.148	-0.05769881889672318	
2.045	-0.031	-0.09616790261260531	
2.05	-0.170	-0.12265370940544107	
2.055	-0.197	-0.13515224588491107	
2.06	-0.061	-0.14000953682486142	
2.065	-0.152	-0.14532938908565882	
2.07	-0.258	-0.1507774624489264	
2.075	-0.048	-0.1513223115063172	
2.08	-0.006	-0.14387788510676994	
2.085	-0.161	-0.12897466235229216	
2.09	-0.090	-0.11064819135296625	
2.095	0.020	-0.09425589769140234	
2.1	-0.130	-0.13855229402062932	
2.105	-0.232	-0.13877582243624925	
2.11	-0.133	-0.14000953682486142	
2.115	-0.139	-0.11939131522474496	
2.12	-0.232	-0.14070424778532914	
2.125	-0.072	-0.14828086713329788	
2.13	-0.052	-0.14796829798841604	
2.135	-0.222	-0.1449864013078752	
2.14	-0.144	-0.13855229402062932	
2.145	-0.058	-0.13528204679348288	
2.15	-0.234	-0.13877582243624925	
2.155	-0.240	-0.14701309648500882	
2.16	-0.074	-0.15495887186834312	
2.165	-0.109	-0.15948756386058627	
2.17	-0.159	-0.15474282533026168	
2.175	-0.086	-0.14016286032570296	
2.18	-0.144	-0.13200784090026618	
2.185	-0.342	-0.14212748950800058	
2.19	-0.236	-0.16346098657496466	
2.195	-0.072	-0.18317289783384827	
2.2	-0.156	-0.1919017965702348	
2.205	-0.119	-0.1800243307690366	
2.21	0.143	-0.1467827321357923	
2.215	0.087	-0.09955486411166711	
2.22	-0.133	-0.0499044139760858	
2.225	0.056	-0.0140357233392039	
2.23	0.204	0.010068267440924412	
2.235	0.017	0.03773032489343199	
2.24	0.172	0.06959098806045323	
2.245	0.369	0.10793713603838706	
2.25	0.107	0.14595168934087221	
2.255	0.064	0.17092183602544378	
2.26	0.302	0.18233268411631803	
2.265	0.165	0.1853774792218687	
2.27	0.044	0.1830309937129398	
2.275	0.340	0.18309492597699772	
2.28	0.432	0.19908045401715563	
2.285	0.232	0.2306340957199274	
2.29	0.412	0.2716402613056965	
2.295	0.588	0.3179808349015485	
2.3	0.443	0.36789383745000354	
2.305	0.495	0.41994614986645745	
2.31	0.750	0.4733857520261936	
2.315	0.611	0.5253330859607974	
2.32	0.331	0.559002871207487	
2.325	0.525	0.5640962536598252	
2.33	0.394	0.5400291490071323	
2.335	0.050	0.48560850164840264	
2.34	0.127	0.4056508005265438	
2.345	0.223	0.3169625051506116	
2.35	-0.089	0.22890909253098635	
2.355	-0.168	0.14196280883797063	
2.36	-0.045	0.05633593394254996	
2.365	-0.159	-0.022638652996910702	
2.37	-0.223	-0.08489866424970037	
2.375	-0.063	-0.1229185295176379	
2.38	-0.080	-0.14298682040509542	
2.385	-0.251	-0.15330168704043684	
2.39	-0.162	-0.1573452025360957	
2.395	-0.006	-0.1561055615869991	
2.4	-0.153	-0.15004811074404656	
2.405	-0.181	-0.13799578044690766	
2.41	0.006	-0.12472336729255735	
2.415	-0.106	-0.11465392663283189	
2.42	-0.185	-0.10787183316459464	
2.425	-0.026	-0.09995548461368574	
2.43	0.015	-0.09200996531820968	
2.435	-0.162	-0.08327001228199526	
2.44	-0.075	-0.07435179028806974	
2.445	0.046	-0.06813607298472385	
2.45	-0.174	-0.06704231967545737	
2.455	-0.205	-0.07399518082524288	
2.46	-0.003	-0.08573708702379473	
2.465	-0.087	-0.09663678496033369	
2.47	-0.181	-0.10085497295278956	
2.475	-0.060	-0.10097418322207533	
2.48	-0.069	-0.10302071248346283	
2.485	-0.234	-0.11025701722010274	
2.49	-0.147	-0.11734978783212227	
2.495	0.013	-0.12213855331177231	
2.5	-0.077	-0.11902662325205592	
2.505	-0.077	-0.10197176064669099	
2.51	0.052	-0.07673325343301615	
2.515	-0.156	-0.06367975591895896	
2.52	-0.309	-0.07289714811709601	
2.525	-0.145	-0.09893857220770766	
2.53	-0.058	-0.12698498682458587	
2.535	-0.148	-0.14229401060398955	
2.54	-0.002	-0.13233085056428512	
2.545	0.211	-0.10006652536355119	
2.55	0.021	-0.05307970855797357	
2.555	0.042	-0.002040670308222846	
2.56	0.374	0.0503508567011135	
2.565	0.220	0.10636635971777403	
2.57	0.010	0.15101901727981204	
2.575	0.224	0.1750535628342157	
2.58	0.256	0.1830727557522414	
2.585	0.046	0.18466050738095782	
2.59	0.178	0.1826011232089728	
2.595	0.398	0.18596966995665556	
2.6	0.201	0.1989691461612302	
2.605	0.191	0.2189184335244327	
2.61	0.565	0.2463150374275062	
2.615	0.519	0.29244128380882817	
2.62	0.347	0.350071862218277	
2.625	0.651	0.40697467762120526	
2.63	0.713	0.46506645923597406	
2.635	0.541	0.523776536797359	
2.64	0.673	0.5765460144948897	
2.645	0.872	0.6248407303774446	
2.65	0.629	0.6660843672293548	
2.655	0.507	0.6879665148950874	
2.66	0.594	0.6810914378029198	
2.665	0.402	0.6414412946281793	
2.67	0.114	0.5722517783333076	
2.675	0.255	0.48082738868615627	
2.68	0.119	0.3779480468247748	
2.685	-0.126	0.26899851967701227	
2.69	-0.119	0.16153746446535944	
2.695	-0.057	0.05963417451331919	
2.7	-0.219	-0.028748452978759935	
2.705	-0.297	-0.10087381671329829	
2.71	-0.165	-0.1571055032112086	
2.715	-0.217	-0.20152828289363436	
2.72	-0.252	-0.2265007162885361	
2.725	-0.133	-0.22928257389987308	
2.73	-0.129	-0.2211880571337309	
2.735	-0.243	-0.21081144226765686	
2.74	-0.185	-0.1974447894247403	
2.745	-0.103	-0.18655895300387654	
2.75	-0.252	-0.18368646308137793	
2.755	-0.236	-0.18377184117108702	
2.76	-0.101	-0.18323253825573238	
2.765	-0.199	-0.18456030065086848	
2.77	-0.317	-0.1894113674925945	
2.775	-0.213	-0.19834653515908982	
2.78	-0.214	-0.2142474196155619	
2.785	-0.352	-0.23273013095038847	
2.79	-0.301	-0.24844162912640072	
2.795	-0.196	-0.26262047496592233	
2.8	-0.284	-0.27364034403895365	
2.805	-0.323	-0.27472876071316804	
2.81	-0.194	-0.2722833913821896	
2.815	-0.245	-0.27057595233258724	
2.82	-0.382	-0.2703631530659447	
2.825	-0.263	-0.2723420810983235	
2.83	-0.127	-0.27428491414855477	
2.835	-0.100	-0.25770179389954573	
2.84	0.015	-0.20936383278797832	
2.845	0.018	-0.1496544304900779	
2.85	-0.252	-0.10775386264644213	
2.855	-0.317	-0.10170898071156562	
2.86	-0.190	-0.12421610431494497	
2.865	-0.197	-0.16065359211030933	
2.87	-0.228	-0.18638408711186338	
2.875	-0.078	-0.19220131822762676	
2.88	0.003	-0.18030719250878754	
2.885	-0.129	-0.15585518349838956	
2.89	-0.063	-0.12229091898382091	
2.895	0.073	-0.09155705750998251	
2.9	-0.074	-0.06587383583823907	
2.905	-0.066	-0.04368622814249325	
2.91	0.191	-0.02104656629627152	
2.915	0.075	0.005240181784631151	
2.92	-0.064	0.029486005317165723	
2.925	0.145	0.04694578145859967	
2.93	0.200	0.06269767673188227	
2.935	-0.003	0.07897860642960941	
2.94	0.122	0.09379763054315697	
2.945	0.339	0.11154920303598313	
2.95	0.152	0.13599701593545752	
2.955	0.178	0.16431322266900625	
2.96	0.440	0.19707193232339223	
2.965	0.360	0.235165214388306	
2.97	0.285	0.2764386680641403	
2.975	0.525	0.3200579382666612	
2.98	0.475	0.36266985089465215	
2.985	0.235	0.38987398986580446	
2.99	0.321	0.3968526097397823	
2.995	0.408	0.3875809291256641	
3.0	0.017	0.3568998018223878	
3.005	-0.084	0.2962866322343618	
3.01	0.027	0.21111900735559597	
3.015	-0.177	0.11315023306000102	
3.02	-0.364	0.012404793803676668	
3.025	-0.254	-0.0859257121635749	
3.03	-0.232	-0.1732921514509564	
3.035	-0.336	-0.23809385321953852	
3.04	-0.268	-0.2731277813682358	
3.045	-0.142	-0.28640944119398	
3.05	-0.265	-0.28507653960578927	
3.055	-0.268	-0.2706707846245723	
3.06	-0.075	-0.24987040659677398	
3.065	-0.106	-0.22388178706236755	
3.07	-0.177	-0.19258305175862866	
3.075	-0.006	-0.15488245603714867	
3.08	0.064	-0.1183416894571267	
3.085	-0.092	-0.0821613100115057	
3.09	0.056	-0.0440767985647738	
3.095	0.130	-0.010397314534473186	
3.1	-0.057	0.01281599607019597	
3.105	-0.061	0.023336782534920858	
3.11	0.143	0.028222701331598134	
3.115	-0.029	0.02704548802603488	
3.12	-0.148	0.018336384769361037	
3.125	-0.019	0.0022175810688805104	
3.13	0.076	-0.015316874087584184	
3.135	-0.116	-0.025264258395321267	
3.14	-0.058	-0.028031089546617174	
3.145	0.148	-0.028314230573692284	
3.15	-0.078	-0.023258716056820044	
3.155	-0.147	-0.01867222899963681	
3.16	0.067	-0.02269979365579333	
3.165	0.120	-0.023003729952851448	
3.17	0.122	0.0013466343739032996	
3.175	0.324	0.05134124222076161	
3.18	0.052	-0.01867222899963681	
3.185	-0.280	0.10758138565407224	
3.19	-0.211	0.0660729733749074	
3.195	-0.028	-0.0002661223397951438	
3.2	-0.100	-0.05738417079164268	
3.205	-0.028	-0.0815923655427834	
3.21	0.304	-0.06754715765966461	
3.215	0.183	-0.020120839206245973	
3.22	0.046	0.03924686512557817	
3.225	0.351	0.09845367593795462	
3.23	0.336	0.15461191742152172	
3.235	0.131	0.2015256803969207	
3.24	0.288	0.2361417713273517	
3.245	0.409	0.2617579458344536	
3.25	0.134	0.27551227175201065	
3.255	0.191	0.2753767466464845	
3.26	0.405	0.2724853817031628	
3.265	0.279	0.271858496266175	
3.27	0.119	0.2712228717045297	
3.275	0.348	0.2684669522284744	
3.28	0.429	0.2706378662095743	
3.285	0.252	0.28354585632575613	
3.29	0.478	0.3111365971040735	
3.295	0.699	0.35476868967310216	
3.3	0.464	0.411561249311877	
3.305	0.533	0.46736373090489186	
3.31	0.764	0.5194259212044883	
3.315	0.557	0.5618907937133555	
3.32	0.392	0.5842474411571741	
3.325	0.557	0.5823729115741574	
3.33	0.427	0.5586251295476022	
3.335	0.049	0.5066096398560669	
3.34	0.081	0.42303058139016336	
3.345	0.134	0.3196923609872235	
3.35	-0.130	0.21270903386853712	
3.355	-0.171	0.11136812924169356	
3.36	-0.071	0.02027915208076859	
3.365	-0.173	-0.05698729170881639	
3.37	-0.287	-0.1176105013427156	
3.375	-0.145	-0.15977817951201695	
3.38	-0.078	-0.18537183061952103	
3.385	-0.217	-0.19216714847564906	
3.39	-0.141	-0.18303001855109097	
3.395	-0.034	-0.16945288498178918	
3.4	-0.144	-0.15514700396954906	
3.405	-0.127	-0.13557999073414317	
3.41	0.050	-0.11289122960734765	
3.415	-0.060	-0.09096182733143253	
3.42	-0.159	-0.07550289467110341	
3.425	-0.014	-0.06389520691427747	
3.43	-0.009	-0.0604358904647004	
3.435	-0.182	-0.061061146372345734	
3.44	-0.110	-0.06606107922786471	
3.445	-0.040	-0.07654328533522414	
3.45	-0.213	-0.09307459154992258	
3.455	-0.190	-0.11055109234951696	
3.46	-0.003	-0.12097169957096617	
3.465	-0.107	-0.12492152033746586	
3.47	-0.217	-0.12444023988942944	
3.475	-0.052	-0.12096265813589713	
3.48	-0.081	-0.12044169060320814	
3.485	-0.260	-0.12399403436029645	
3.49	-0.148	-0.13010255334449045	
3.495	-0.028	-0.13656859413230032	
3.5	-0.118	-0.1359968298452173	
3.505	-0.132	-0.1245601990771992	
3.51	-0.057	-0.11204255988685856	
3.515	-0.193	-0.11190180233777419	
3.52	-0.306	-0.12642431793842712	
3.525	-0.152	-0.146997876456008	
3.53	-0.075	-0.16542128118522614	
3.535	-0.145	-0.1689548916609716	
3.54	-0.032	-0.1511057985450962	
3.545	0.195	-0.11556398921381167	
3.55	0.015	-0.0659973884370353	
3.555	0.013	-0.014582886599728093	
3.56	0.232	0.03096659714665065	
3.565	0.107	0.06711732143645718	
3.57	-0.042	0.09156077580595307	
3.575	0.137	0.10098628949767835	
3.58	0.223	0.1035773361245949	
3.585	0.036	0.11004635717765494	
3.59	0.157	0.12088300119828474	
3.595	0.308	0.13440511829275525	
3.6	0.079	0.14800709541984597	
3.605	0.076	0.15744945264939272	
3.61	0.348	0.16394257003815088	
3.615	0.259	0.1771110408987067	
3.62	0.172	0.1996367464537871	
3.625	0.372	0.22497980084116212	
3.63	0.467	0.2565050748839244	
3.635	0.337	0.295109995538252	
3.64	0.472	0.34193149413844665	
3.645	0.612	0.3882970638302952	
3.65	0.316	0.42600771920016095	
3.655	0.259	0.4395423607605735	
3.66	0.418	0.42684015076976245	
3.665	0.183	0.3940314009099153	
3.67	-0.035	0.33975734170492045	
3.675	0.113	0.26794669258014053	
3.68	0.020	0.18837519036954226	
3.685	-0.138	0.11122774012846663	
3.69	-0.089	0.04299338487072972	
3.695	-0.019	-0.013857776283331647	
3.7	-0.184	-0.05992069028846974	
3.705	-0.184	-0.09328503715281397	
3.71	-0.043	-0.11628603671485598	
3.715	-0.101	-0.13001968458368948	
3.72	-0.176	-0.13203694005007482	
3.725	-0.071	-0.12608278793585712	
3.73	-0.049	-0.12079889370074962	
3.735	-0.142	-0.11465239944033712	
3.74	-0.043	-0.10090676589836983	
3.745	0.044	-0.08403433148886777	
3.75	-0.104	-0.06994537454336157	
3.755	-0.081	-0.057126014451790996	
3.76	0.023	-0.0473596614266093	
3.765	-0.188	-0.05116324918233932	
3.77	-0.251	-0.07094169847855342	
3.775	-0.144	-0.10002087335793095	
3.78	-0.177	-0.13291577713295255	
3.785	-0.329	-0.16665451887986082	
3.79	-0.257	-0.1958069585620398	
3.795	-0.159	-0.22107698047672505	
3.8	-0.262	-0.2370003951780055	
3.805	-0.246	-0.2400389810798332	
3.81	-0.118	-0.23433168298650592	
3.815	-0.240	-0.22724243363118918	
3.82	-0.297	-0.22290878187268628	
3.825	-0.152	-0.2189448645416839	
3.83	-0.090	-0.2129817975225322	
3.835	-0.194	-0.1986860975399027	
3.84	-0.086	-0.1737076462358147	
3.845	-0.095	-0.15210498476753165	
3.85	-0.287	-0.14512927697387917	
3.855	-0.231	-0.15198505392631925	
3.86	-0.052	-0.16124350324450953	
3.865	-0.093	-0.16233427598979866	
3.87	-0.124	-0.14892363938313086	
3.875	0.087	-0.11981399988863134	
3.88	0.124	-0.08102645527733811	
3.885	-0.031	-0.035803242001513566	
3.89	0.149	0.009389882023430659	
3.895	0.272	0.05395751570924498	
3.9	0.035	0.09275421409320313	
3.905	0.084	0.1200291678616829	
3.91	0.311	0.13784799735864492	
3.915	0.200	0.1565814455202708	
3.92	0.128	0.17602660177040516	
3.925	0.363	0.1972728045165077	
3.93	0.311	0.22094921752379404	
3.935	0.102	0.23812502918363226	
3.94	0.279	0.24643751930436136	
3.945	0.406	0.252981401529821	
3.95	0.250	0.26572504878752623	
3.955	0.368	0.2860625634369154	
3.96	0.632	0.3218732274827849	
3.965	0.487	0.3705628123764157	
3.97	0.444	0.4220277129877347	
3.975	0.690	0.4702621557496634	
3.98	0.687	0.5189476800521113	
3.985	0.415	0.5581577378199207	
3.99	0.533	0.5753920221808415	
3.995	0.521	0.5699227638490774	
4.0	0.151	0.5347772763234857	
4.005	0.009	0.46202502936529344	
4.01	0.065	0.35473909525481606	
4.015	-0.112	0.23164034332992656	
4.02	-0.194	0.11314128700199415	
4.025	-0.075	0.013137148576139306	
4.03	-0.071	-0.06206126625210275	
4.035	-0.194	-0.10964516482347658	
4.04	-0.138	-0.1336470432828929	
4.045	-0.043	-0.1452010293289338	
4.05	-0.181	-0.1490600003183512	
4.055	-0.171	-0.14587741892469352	
4.06	-0.022	-0.13841357203049615	
4.065	-0.098	-0.13034367968834265	
4.07	-0.145	-0.1187283935745225	
4.075	0.012	-0.10196988960174184	
4.08	-0.003	-0.08515831733984044	
4.085	-0.136	-0.07053881794414452	
4.09	-0.029	-0.05765365907549269	
4.095	0.075	-0.047313416225633495	
4.1	-0.133	-0.04000493543683881	
4.105	-0.181	-0.04182791783785348	
4.11	-0.084	-0.05852184183797338	
4.115	-0.174	-0.08634883392619509	
4.12	-0.232	-0.11362543932556125	
4.125	-0.084	-0.13401633163879373	
4.13	-0.126	-0.1482249673895201	
4.135	-0.219	-0.15644600908452158	
4.14	-0.127	-0.1566233008804831	
4.145	-0.092	-0.1554119054655864	
4.15	-0.254	-0.15798689483756762	
4.155	-0.231	-0.16373767667358974	
4.16	-0.028	-0.1675573645942392	
4.165	0.036	-0.1563788097844943	
4.17	0.013	-0.1185393619796657	
4.175	0.152	-0.06200861937028336	
4.18	-0.103	-0.14000789033400812	
4.185	-0.306	-0.01247317002680107	
4.19	-0.239	-0.04457437716583285	
4.195	-0.127	-0.09543258529074664	
4.2	-0.197	-0.14000789033400812	
4.205	-0.116	-0.16167001956008048	
4.21	0.064	-0.155527315709526	
4.215	-0.020	-0.1314507061483714	
4.22	-0.055	-0.09556802092270417	
4.225	0.142	-0.05394597355933557	
4.23	0.212	-0.00730961011182904	
4.235	-0.008	0.03951275489360081	
4.24	0.088	0.07445260768807802	
4.245	0.233	0.09556664079187553	
4.25	0.007	0.10894078916393027	
4.255	-0.006	0.1103186745505008	
4.26	0.214	0.1034644812852662	
4.265	0.209	0.10353404161530716	
4.27	0.131	0.12148432799587404	
4.275	0.417	0.1540569932815149	
4.28	0.434	0.20162248531397178	
4.285	0.321	0.25857774050816695	
4.29	0.504	0.3185207316483506	
4.295	0.537	0.3744567682073684	
4.3	0.426	0.4189323140492844	
4.305	0.574	0.45945196060949567	
4.31	0.635	0.49840639536160297	
4.315	0.293	0.5184042549054235	
4.32	0.201	0.4995262478958139	
4.325	0.411	0.4540744848795967	
4.33	0.124	0.3965553741127398	
4.335	-0.098	0.3185733826798225	
4.34	-0.038	0.22251594144428083	
4.345	-0.057	0.12146647175437852	
4.35	-0.245	0.025998310381606465	
4.355	-0.248	-0.05759412610299906	
4.36	-0.141	-0.12663702669840252	
4.365	-0.239	-0.1784403616643996	
4.37	-0.294	-0.21142702855794507	
4.375	-0.167	-0.230063507265289	
4.38	-0.171	-0.23737307858750914	
4.385	-0.258	-0.23528338107898936	
4.39	-0.159	-0.22359827063981375	
4.395	-0.104	-0.20959261319526368	
4.4	-0.179	-0.19486823469887754	
4.405	-0.165	-0.1756300628811566	
4.41	-0.052	-0.15775830891809378	
4.415	-0.124	-0.14336989720535434	
4.42	-0.211	-0.13239287563853963	
4.425	-0.093	-0.12717194533127946	
4.43	-0.100	-0.12836539797093038	
4.435	-0.229	-0.13221406409950676	
4.44	-0.182	-0.137654742758621	
4.445	-0.148	-0.15063271466908715	
4.45	-0.283	-0.16881388176632417	
4.455	-0.281	-0.18862874417047498	
4.46	-0.158	-0.20779937095354692	
4.465	-0.205	-0.22134246715564093	
4.47	-0.231	-0.22335021234271168	
4.475	-0.171	-0.21618731786416892	
4.48	-0.199	-0.21239360976197452	
4.485	-0.318	-0.21520588543563524	
4.49	-0.237	-0.22062711493238849	
4.495	-0.121	-0.2256341591582848	
4.5	-0.179	-0.22183126131779507	
4.505	-0.147	-0.2035947494401066	
4.51	-0.061	-0.17977538216404665	
4.515	-0.271	-0.16541944731412095	
4.52	-0.364	-0.17139324118563945	
4.525	-0.228	-0.19411785851881633	
4.53	-0.182	-0.2193876661672563	
4.535	-0.222	-0.23225371369977288	
4.54	-0.068	-0.2215607750717506	
4.545	0.087	-0.18858698305847463	
4.55	-0.043	-0.13991858350727654	
4.555	-0.031	-0.08760882151915221	
4.56	0.102	-0.042701984956510265	
4.565	-0.032	-0.012457334634808723	
4.57	-0.038	0.005568393441369159	
4.575	0.183	0.021968982709986765	
4.58	0.160	0.0446163812259106	
4.585	0.007	0.06764016618180865	
4.59	0.206	0.09045323071641083	
4.595	0.316	0.11848095175238839	
4.6	0.068	0.1460180380089575	
4.605	0.131	0.1643349818726907	
4.61	0.412	0.18038414794018054	
4.615	0.369	0.20960539326318872	
4.62	0.343	0.2555071248581436	
4.625	0.608	0.3129425975650403	
4.63	0.545	0.3766858591614185	
4.635	0.382	0.430633209512106	
4.64	0.623	0.47335931155276745	
4.645	0.770	0.5165176007679015	
4.65	0.565	0.5631191351706164	
4.655	0.521	0.5982465903931156	
4.66	0.597	0.6092790906791571	
4.665	0.376	0.592698565417908	
4.67	0.119	0.5434995568033586	
4.675	0.085	0.4567621484228093	
4.68	0.044	0.3417370402451292	
4.685	-0.115	0.2208029933646393	
4.69	-0.124	0.11325596517426029	
4.695	-0.061	0.018422685354232266	
4.7	-0.179	-0.056713806501733945	
4.705	-0.199	-0.10669545164524222	
4.71	-0.113	-0.1418429591428463	
4.715	-0.127	-0.16324629320587397	
4.72	-0.185	-0.16834813124419928	
4.725	-0.089	-0.16227898205342203	
4.73	-0.093	-0.15434672736362479	
4.735	-0.190	-0.14612512021503388	
4.74	-0.121	-0.13670484872806135	
4.745	-0.045	-0.12968518968860493	
4.75	-0.104	-0.12173932401624857	
4.755	-0.101	-0.1075980063014683	
4.76	-0.031	-0.09387952651645332	
4.765	-0.132	-0.08936531301167855	
4.77	-0.199	-0.09229268907124566	
4.775	-0.122	-0.10120275989138412	
4.78	-0.177	-0.1204587094979503	
4.785	-0.255	-0.1431625192681201	
4.79	-0.202	-0.16355988674811706	
4.795	-0.162	-0.1827109950244719	
4.8	-0.266	-0.19988517633967617	
4.805	-0.193	-0.20849001772262876	
4.81	-0.093	-0.20576131992244923	
4.815	-0.182	-0.19852345135735733	
4.82	-0.210	-0.18731644518720314	
4.825	-0.058	-0.1730057594899176	
4.83	-0.026	-0.15452481274383403	
4.835	-0.084	-0.12831387116834905	
4.84	-0.084	-0.09839730273400234	
4.845	-0.144	-0.08567114231098524	
4.85	-0.301	-0.10013235971209174	
4.855	-0.295	-0.131429928163317	
4.86	-0.171	-0.16955557839377344	
4.865	-0.161	-0.19971275810668404	
4.87	-0.089	-0.20338848023834066	
4.875	0.134	-0.1717004534951805	
4.88	0.148	-0.11459541452993524	
4.885	0.065	-0.0445965568597777	
4.89	0.175	0.025842901764878263	
4.895	0.263	0.08549223060036348	
4.9	0.055	0.12753243880036202	
4.905	0.108	0.15260614315052096	
4.91	0.311	0.16576030316121537	
4.915	0.068	0.17203698177396262	
4.92	0.041	0.16738775774751657	
4.925	0.321	0.16162114133325867	
4.93	0.363	0.17241577465178518	
4.935	0.143	0.19809887848854899	
4.94	0.343	0.22701691461804444	
4.945	0.513	0.25968902948312034	
4.95	0.357	0.301297667208551	
4.955	0.452	0.3496072131662068	
4.96	0.701	0.4019896882842042	
4.965	0.545	0.4569085522634387	
4.97	0.513	0.5072742493433248	
4.975	0.813	0.554802941029569	
4.98	0.666	0.5993744140376498	
4.985	0.382	0.6249119422283387	
4.99	0.536	0.6201158582195545	
4.995	0.528	0.592755529476507	
5.0	0.180	0.5451382460373465	
5.005	0.149	0.4755985786375201	
5.01	0.273	0.39009379598241645	
5.015	-0.043	0.2988549744685872	
5.02	-0.144	0.2032266240928961	
5.025	-0.023	0.10886558863057777	
5.03	-0.080	0.023392504128379482	
5.035	-0.202	-0.043082185552286954	
5.04	-0.098	-0.08682507305946577	
5.045	-0.040	-0.11523667606149397	
5.05	-0.155	-0.12887558107749503	
5.055	-0.097	-0.12633753684049687	
5.06	0.041	-0.11388552845282057	
5.065	-0.087	-0.0992168595358317	
5.07	-0.135	-0.08375258746855833	
5.075	0.052	-0.06806137557588923	
5.08	-0.019	-0.056689151671890085	
5.085	-0.135	-0.04815776687931376	
5.09	-0.019	-0.04172892096103059	
5.095	0.010	-0.0402382383733641	
5.1	-0.184	-0.04701491940090971	
5.105	-0.194	-0.06129376627842425	
5.11	-0.049	-0.08278839725219726	
5.115	-0.187	-0.10833079391706119	
5.12	-0.237	-0.12878293480737588	
5.125	-0.075	-0.1429079870639474	
5.13	-0.113	-0.1527379666152251	
5.135	-0.245	-0.157280281727521	
5.14	-0.121	-0.155587662940131	
5.145	-0.058	-0.15418497983263316	
5.15	-0.231	-0.15319179480293985	
5.155	-0.185	-0.150224615554175	
5.16	-0.052	-0.14862739884407544	
5.165	-0.136	-0.14850569616860998	
5.17	-0.122	-0.13884358689364065	
5.175	0.032	-0.11766810901119903	
5.18	-0.153	-0.10283067063226344	
5.185	-0.313	-0.10552562030967362	
5.19	-0.142	-0.12137416776538432	
5.195	-0.003	-0.13805114156206919	
5.2	-0.138	-0.14047553860579434	
5.205	-0.022	-0.12216428489015468	
5.21	0.263	-0.08433286179822208	
5.215	0.085	-0.03172073458760152	
5.22	0.058	0.024977162845162847	
5.225	0.310	0.0796331656087481	
5.23	0.235	0.12616123714274632	
5.235	0.023	0.1601914096183426	
5.24	0.296	0.18281163078817658	
5.245	0.392	0.20410988057813875	
5.25	0.110	0.2242262276465542	
5.255	0.206	0.23781621529174043	
5.26	0.446	0.2479249829535525	
5.265	0.209	0.25812775293149004	
5.27	0.145	0.2658143559643878	
5.275	0.421	0.26986697235399104	
5.28	0.350	0.2761900762538777	
5.285	0.185	0.28598633562777537	
5.29	0.507	0.3039313605737437	
5.295	0.640	0.3382527969086516	
5.3	0.340	0.38305481993712903	
5.305	0.467	0.4247886753030935	
5.31	0.698	0.4610873464337089	
5.315	0.495	0.49305680262099993	
5.32	0.357	0.5147023825301513	
5.325	0.582	0.5209698390581816	
5.33	0.382	0.5082030298326874	
5.335	0.023	0.46785030174673214	
5.34	0.122	0.3969328527660827	
5.345	0.073	0.3013083859901892	
5.35	-0.203	0.19399647120915794	
5.355	-0.207	0.08778232958209788	
5.36	-0.078	-0.008834848035838925	
5.365	-0.219	-0.0919563108855258	
5.37	-0.260	-0.14831386359923454	
5.375	-0.113	-0.17993819589171378	
5.38	-0.090	-0.1967842932468586	
5.385	-0.182	-0.19419839369924174	
5.39	-0.003	-0.16795476631032236	
5.395	0.131	-0.12963230141357696	
5.4	-0.109	-0.08815614869904285	
5.405	-0.037	-0.049198444257056204	
5.41	0.186	-0.01769009346245849	
5.415	-0.106	0.0018859479176497125	
5.42	-0.118	0.007557944679639894	
5.425	0.194	0.010265043211501554	
5.43	0.064	0.01721478296179705	
5.435	-0.122	0.022565899292826076	
5.44	0.041	0.02613869231423585	
5.445	0.174	0.025524450016616768	
5.45	-0.083	0.025660130716537905	
5.455	0.003	0.030762035721901528	
5.46	0.325	0.041534525389968546	
5.465	0.084	0.06282826086371868	
5.47	0.035	0.08940304083937893	
5.475	0.345	0.1174202221736351	
5.48	0.178	0.14225895680166625	
5.485	-0.083	0.1543695279034205	
5.49	0.131	0.14819367620549673	
5.495	0.365	0.1406736642037174	
5.5	0.267	0.1535519933396286	
5.505	0.492	0.20474323645009934	
5.51	0.673	0.28368299578446443	
5.515	0.143	0.3517293645498181	
5.52	-0.064	0.36422243167072665	
5.525	0.255	0.32452003095229515	
5.53	0.313	0.27136338772524504	
5.535	0.124	0.23828397326016998	
5.54	0.464	0.236211247161773	
5.545	0.579	0.26278622502995064	
5.55	0.172	0.3024730542270342	
5.555	0.295	0.3306025056829963	
5.56	0.612	0.3497462949951007	
5.565	0.305	0.368860270081373	
5.57	0.152	0.376191145680477	
5.575	0.504	0.37044519742244486	
5.58	0.328	0.3594338851355693	
5.585	-0.029	0.3363058644233431	
5.59	0.127	0.29203304303703315	
5.595	0.214	0.2337651271657923	
5.6	-0.093	0.17367556967589493	
5.605	-0.048	0.12054749648047891	
5.61	0.241	0.07757692405885289	
5.615	0.039	0.0530457709117146	
5.62	0.007	0.050319327975529564	
5.625	0.388	0.06822713904679108	
5.63	0.316	0.10646320853535884	
5.635	0.214	0.15955556874492016	
5.64	0.588	0.22791040720043726	
5.645	0.754	0.31563524176218793	
5.65	0.371	0.40589641994102615	
5.655	0.394	0.4704951149877168	
5.66	0.510	0.4962903064219161	
5.665	0.163	0.4791922188573721	
5.67	-0.046	0.4224347160688609	
5.675	0.125	0.3339086062739591	
5.68	-0.043	0.22748572297195693	
5.685	-0.274	0.11985427585963776	
5.69	-0.222	0.016685747530805872	
5.695	-0.109	-0.07755538094901145	
5.7	-0.266	-0.1507375615397607	
5.705	-0.203	-0.18943859297952997	
5.71	-0.031	-0.2030029584049411	
5.715	-0.187	-0.2026231646844715	
5.72	-0.245	-0.19231851118519105	
5.725	-0.057	-0.17835090283826613	
5.73	-0.101	-0.16658178521971748	
5.735	-0.239	-0.15586763005024962	
5.74	-0.103	-0.14441106252251124	
5.745	-0.016	-0.1357739724443186	
5.75	-0.196	-0.12956307559010716	
5.755	-0.167	-0.12138212019568484	
5.76	-0.031	-0.1182385891788015	
5.765	-0.177	-0.12257637906759075	
5.77	-0.242	-0.12814250233468205	
5.775	-0.077	-0.1344927025922919	
5.78	-0.153	-0.1446693642888681	
5.785	-0.332	-0.15869632693337993	
5.79	-0.234	-0.17642644887103118	
5.795	-0.138	-0.19792541793249604	
5.8	-0.309	-0.21746532692605017	
5.805	-0.245	-0.22527712934563437	
5.81	-0.119	-0.22736438188323252	
5.815	-0.284	-0.2306032081337937	
5.82	-0.338	-0.23501404342263432	
5.825	-0.152	-0.23752807288932615	
5.83	-0.083	-0.23475832538039898	
5.835	-0.077	-0.21158947766116773	
5.84	0.160	-0.15533813319389525	
5.845	0.056	-0.21158947766116773	
5.85	-0.352	-0.21158947766116773	
5.855	-0.390	-0.062240159715702285	
5.86	-0.225	-0.11636263695003717	
5.865	-0.300	-0.1836472889437158	
5.87	-0.258	-0.22997195629953446	
5.875	-0.003	-0.2404488388231496	
5.88	-0.026	-0.22179129863493624	
5.885	-0.136	-0.18366567393051458	
5.89	0.061	-0.1333043063557459	
5.895	0.206	-0.07797941692736288	
5.9	-0.068	-0.02457631765845133	
5.905	0.029	0.017785528450468845	
5.91	0.319	0.05270533816083417	
5.915	0.062	0.08430191658389524	
5.92	-0.048	0.10594473363214796	
5.925	0.119	0.10755889019941675	
5.93	0.091	0.0952089362526968	
5.935	-0.032	0.08030733668435829	
5.94	0.261	0.0807192325844954	
5.945	0.424	0.10505080940644329	
5.95	0.208	0.15142752960952954	
5.955	0.389	0.21079646549165273	
5.96	0.690	0.2807106602513699	
5.965	0.479	0.3583044356999796	
5.97	0.443	0.42895404632340023	
5.975	0.773	0.49155250333793543	
5.98	0.692	0.5472197887706585	
5.985	0.411	0.5893099371104047	
5.99	0.592	0.6076353237972713	
5.995	0.594	0.6030069348945486	
6.0	0.142	0.5704870651347663	
6.005	0.120	0.5027359451413738	
6.01	0.259	0.40860075491244596	
6.015	-0.046	0.305417638335709	
6.02	-0.153	0.20202832488469652	
6.025	-0.023	0.10339685498789696	
6.03	-0.086	0.016255378898528898	
6.035	-0.243	-0.05348869468527579	
6.04	-0.142	-0.10145589022586689	
6.045	-0.080	-0.13709292173283594	
6.05	-0.225	-0.1603022409085636	
6.055	-0.174	-0.1682108613509476	
6.06	0.007	-0.164575128239338	
6.065	-0.141	-0.1545121323665264	
6.07	-0.199	-0.1398432024431523	
6.075	-0.025	-0.1267464828964749	
6.08	-0.086	-0.11880858158393968	
6.085	-0.266	-0.1163589783163132	
6.09	-0.153	-0.12150583032625756	
6.095	-0.087	-0.13421804495062467	
6.1	-0.260	-0.15020882138147149	
6.105	-0.188	-0.16015609687589347	
6.11	-0.063	-0.16470060426324182	
6.115	-0.246	-0.17150768791917592	
6.12	-0.333	-0.18074110357640458	
6.125	-0.148	-0.1948086320757965	
6.13	-0.185	-0.20986424367246412	
6.135	-0.338	-0.22025774326399317	
6.14	-0.234	-0.22748886289311646	
6.145	-0.150	-0.23531104138789016	
6.15	-0.338	-0.2431761617766146	
6.155	-0.265	-0.24508396612911001	
6.16	-0.098	-0.24376870174954163	
6.165	-0.176	-0.23453703848275592	
6.17	-0.165	-0.21363255900943162	
6.175	-0.035	-0.18180738472547497	
6.18	-0.229	-0.16098480492705744	
6.185	-0.446	-0.16625110165201396	
6.19	-0.280	-0.1954173433844292	
6.195	-0.182	-0.2313574201193566	
6.2	-0.287	-0.2552037928783445	
6.205	-0.153	-0.2549986478376529	
6.21	0.033	-0.23175524085776658	
6.215	-0.106	-0.19461345242000444	
6.22	-0.130	-0.1516223636242749	
6.225	0.128	-0.10675445506550998	
6.23	0.061	-0.06400836698373014	
6.235	-0.090	-0.025253809023797598	
6.24	0.082	0.004633771670882029	
6.245	0.058	0.0216074947491217	
6.25	-0.141	0.022719839046586504	
6.255	-0.063	0.012022146938798342	
6.26	0.145	0.0012719662376214412	
6.265	-0.016	-0.00265514763736802	
6.27	-0.043	0.0023813281774915057	
6.275	0.233	0.01629194799501519	
6.28	0.148	0.03997846022440339	
6.285	0.023	0.06772744027325558	
6.29	0.279	0.09866684355316335	
6.295	0.435	0.1396355877679768	
6.3	0.188	0.1897245860020891	
6.305	0.350	0.23901010772959683	
6.31	0.563	0.2882541670551161	
6.315	0.334	0.33536361504638645	
6.32	0.212	0.3653672386799839	
6.325	0.486	0.37721167377795217	
6.33	0.288	0.3740021871611005	
6.335	-0.043	0.3487864870705304	
6.34	0.018	0.2895378791177935	
6.345	-0.077	0.20056676591612346	
6.35	-0.232	0.09688131051007838	
6.355	-0.156	0.0020038333689727204	
6.36	-0.028	-0.06887817236504779	
6.365	-0.202	-0.1185026865221925	
6.37	-0.257	-0.14952655488697353	
6.375	-0.115	-0.1699461773436766	
6.38	-0.179	-0.18497633086803622	
6.385	-0.298	-0.19703559199372173	
6.39	-0.161	-0.20153370018565575	
6.395	-0.074	-0.20149660252885004	
6.4	-0.213	-0.19398060313618376	
6.405	-0.147	-0.1780280503298936	
6.41	0.018	-0.15801627655417372	
6.415	-0.148	-0.1384245043691934	
6.42	-0.246	-0.1244793637219592	
6.425	-0.034	-0.12007734657558712	
6.43	-0.071	-0.11995843388396478	
6.435	-0.187	-0.11591985306250512	
6.44	-0.069	-0.10961735875649758	
6.445	-0.043	-0.10557607210781332	
6.45	-0.232	-0.10787636490325929	
6.455	-0.181	-0.11402607774262949	
6.46	-0.090	-0.12613292737199394	
6.465	-0.205	-0.1423699731200908	
6.47	-0.252	-0.15638503583936944	
6.475	-0.084	-0.1651551351919508	
6.48	-0.090	-0.16899163782664212	
6.485	-0.188	-0.16182484206914943	
6.49	-0.068	-0.14662509220250786	
6.495	-0.023	-0.1306526077085577	
6.5	-0.142	-0.11583076010038162	
6.505	-0.092	-0.09996751527890427	
6.51	0.021	-0.08519201086193895	
6.515	-0.228	-0.08240958785766164	
6.52	-0.320	-0.09834472843054488	
6.525	-0.174	-0.1301661232758589	
6.53	-0.159	-0.16603730769303124	
6.535	-0.226	-0.18878894927635248	
6.54	-0.087	-0.18957833476904734	
6.545	0.050	-0.17368314117817552	
6.55	-0.066	-0.14184101748715539	
6.555	0.070	-0.094912437717536	
6.56	0.293	-0.03518633266637992	
6.565	0.082	0.027551529359149587	
6.57	0.026	0.07768137078042243	
6.575	0.278	0.11285994762678099	
6.58	0.188	0.13891355138791273	
6.585	0.038	0.15618558365591306	
6.59	0.263	0.16743596261297905	
6.595	0.334	0.18030273294101573	
6.6	0.067	0.19415082675802087	
6.605	0.211	0.20207389222592356	
6.61	0.298	0.20778204541575207	
6.615	0.203	0.2105911431496839	
6.62	0.270	0.2207259658267026	
6.625	0.594	0.25283322549841025	
6.63	0.531	0.3069463788307163	
6.635	0.400	0.37022960738386945	
6.64	0.643	0.43136181405573115	
6.645	0.710	0.48929628785336493	
6.65	0.434	0.5372316382217744	
6.655	0.440	0.5609925180562294	
6.66	0.560	0.5577008333944737	
6.665	0.253	0.5287023054838438	
6.67	0.087	0.4736992808481114	
6.675	0.214	0.39364838531984675	
6.68	0.032	0.30102227899881867	
6.685	-0.129	0.2053711076696021	
6.69	-0.078	0.11320860754463748	
6.695	-0.064	0.028249002413856753	
6.7	-0.177	-0.04154481872875432	
6.705	-0.136	-0.08801640442682793	
6.71	-0.017	-0.1144437723832352	
6.715	-0.152	-0.128148840089151	
6.72	-0.176	-0.13119415226896475	
6.725	-0.005	-0.1275084816102888	
6.73	-0.046	-0.11795985997197556	
6.735	-0.127	-0.10348223634836407	
6.74	-0.019	-0.08589433523036268	
6.745	0.017	-0.0698398133259069	
6.75	-0.177	-0.06243011340783102	
6.755	-0.104	-0.06205168029821277	
6.76	0.059	-0.06356580355294544	
6.765	-0.119	-0.06405179985239896	
6.77	-0.168	-0.06615141330492039	
6.775	-0.061	-0.07365411736377891	
6.78	-0.124	-0.08892911928804456	
6.785	-0.226	-0.10636912547933365	
6.79	-0.129	-0.12099786833660935	
6.795	-0.132	-0.13688094858295308	
6.8	-0.239	-0.15329493925931514	
6.805	-0.194	-0.1650780989073323	
6.81	-0.104	-0.17266368623485862	
6.815	-0.181	-0.17696805902866636	
6.82	-0.223	-0.17710811702366677	
6.825	-0.107	-0.17273626403070055	
6.83	-0.139	-0.1709058806855076	
6.835	-0.152	-0.1643124709848112	
6.84	-0.002	-0.146037397216385	
6.845	0.033	-0.11687726292302797	
6.85	-0.249	-0.09527280519254011	
6.855	-0.265	-0.09514970648053224	
6.86	-0.144	-0.118678943762313	
6.865	-0.179	-0.14789933733011268	
6.87	-0.152	-0.16312586053536354	
6.875	0.021	-0.15676013463016153	
6.88	-0.014	-0.13584347188715035	
6.885	-0.101	-0.10732611055730222	
6.89	0.078	-0.07310536276371364	
6.895	0.188	-0.03382879772794907	
6.9	0.032	0.008776962558155028	
6.905	0.088	0.04880539717503167	
6.91	0.322	0.08633504645736712	
6.915	0.145	0.12314569314627727	
6.92	0.084	0.15179971819990817	
6.925	0.310	0.17218386383316003	
6.93	0.249	0.18923484493460097	
6.935	0.055	0.20067957704943973	
6.94	0.258	0.2037870861289059	
6.945	0.438	0.21220927072382711	
6.95	0.292	0.23790115579403923	
6.955	0.417	0.2777327621552911	
6.96	0.641	0.33025128531729614	
6.965	0.479	0.3892843109418247	
6.97	0.501	0.4448273761196699	
6.975	0.715	0.4970168803433743	
6.98	0.615	0.5432995656635431	
6.985	0.441	0.5738142579911771	
6.99	0.554	0.5836103523543665	
6.995	0.579	0.5771380971247876	
7.0	0.194	0.5510876589675275	
7.005	0.120	0.49061347858788257	
7.01	0.177	0.40104561504056546	
7.015	-0.083	0.2955106150258542	
7.02	-0.165	0.1829092867256929	
7.025	-0.071	0.07673047838693145	
7.03	-0.136	-0.014579290977468707	
7.035	-0.207	-0.08389284669993066	
7.04	-0.074	-0.12662632010106856	
7.045	-0.020	-0.14195651359266287	
7.05	-0.184	-0.14154697779822883	
7.055	-0.165	-0.13746261001088173	
7.06	-0.074	-0.1342389827981066	
7.065	-0.155	-0.1352083442268734	
7.07	-0.179	-0.13497219989106435	
7.075	-0.020	-0.13063189351531418	
7.08	0.001	-0.11747884833732225	
7.085	-0.069	-0.09560874120877955	
7.09	-0.020	-0.06994205356852878	
7.095	0.021	-0.04909469765936493	
7.1	-0.054	-0.035184266523464416	
7.105	-0.103	-0.027562087928426546	
7.11	-0.089	-0.032547124811793934	
7.115	-0.155	-0.053945769186358704	
7.12	-0.211	-0.08184587732920305	
7.125	-0.168	-0.11096566927323001	
7.13	-0.164	-0.14041074550105842	
7.135	-0.208	-0.16334208026298383	
7.14	-0.194	-0.17615476941394362	
7.145	-0.184	-0.1861995430081862	
7.15	-0.255	-0.19892026411744013	
7.155	-0.294	-0.21061927548687226	
7.16	-0.236	-0.22573524667506317	
7.165	-0.194	-0.2397558342942464	
7.17	-0.121	-0.23575798797173053	
7.175	0.013	-0.20614477915590323	
7.18	-0.002	-0.1613528203734801	
7.185	-0.176	-0.11823657966164336	
7.19	-0.246	-0.0993244098910456	
7.195	-0.245	-0.11424567499634836	
7.2	-0.249	-0.14977139461110411	
7.205	-0.213	-0.18065720417662331	
7.21	-0.144	-0.19881091424766162	
7.215	-0.122	-0.20266132442674756	
7.22	-0.152	-0.19275873313718217	
7.225	-0.043	-0.17024574315091448	
7.23	-0.037	-0.14230693244847709	
7.235	-0.075	-0.11417666021817863	
7.24	-0.003	-0.08336162265972255	
7.245	0.049	-0.055212423302306995	
7.25	-0.040	-0.03173995990666571	
7.255	-0.049	-0.015738905015817806	
7.26	0.082	-0.005815460246854439	
7.265	0.076	0.005404836349247557	
7.27	0.015	0.021186524157903307	
7.275	0.197	0.04371485797842906	
7.28	0.279	0.075778327748696	
7.285	0.236	0.12082826626259108	
7.29	0.282	0.1725659280936239	
7.295	0.464	0.2238221061474682	
7.3	0.479	0.2823186186908002	
7.305	0.556	0.3522354193564905	
7.31	0.709	0.4301695178052439	
7.315	0.675	0.5074221707874302	
7.32	0.597	0.5741691699412981	
7.325	0.629	0.6206809005685467	
7.33	0.568	0.6377485621181236	
7.335	0.322	0.6228019772549095	
7.34	0.221	0.5705578287894348	
7.345	0.221	0.4848015415007182	
7.35	0.055	0.3822932126338715	
7.355	-0.112	0.27425535610452145	
7.36	-0.110	0.16016784219355715	
7.365	-0.155	0.047386159067991665	
7.37	-0.200	-0.044760775775399254	
7.375	-0.174	-0.11222994979667696	
7.38	-0.161	-0.15931363137416696	
7.385	-0.194	-0.18719071173424587	
7.39	-0.170	-0.19627753707665851	
7.395	-0.142	-0.1952271657465659	
7.4	-0.205	-0.19285083560554628	
7.405	-0.155	-0.18662093737902433	
7.41	-0.011	-0.17071918505991046	
7.415	-0.098	-0.14879640991776258	
7.42	-0.179	-0.1278095298838891	
7.425	-0.095	-0.1150686276193854	
7.43	-0.121	-0.1134016156262955	
7.435	-0.232	-0.11934452809134058	
7.44	-0.187	-0.13213784630771547	
7.445	-0.181	-0.15117932793796107	
7.45	-0.298	-0.17502833849753713	
7.455	-0.295	-0.20156909225657463	
7.46	-0.208	-0.2255853295631291	
7.465	-0.320	-0.24793867581699608	
7.47	-0.324	-0.2658494552394033	
7.475	-0.197	-0.2758754538310194	
7.48	-0.194	-0.27544485854187994	
7.485	-0.287	-0.26648519656828745	
7.49	-0.291	-0.25699939098561403	
7.495	-0.271	-0.2581289269288102	
7.5	-0.306	-0.2682087471382433	
7.505	-0.118	-0.26649481001310843	
7.51	0.186	-0.23039218460111877	
7.515	-0.038	-0.16507730474190246	
7.52	-0.263	-0.10897717712317001	
7.525	-0.280	-0.09575029138296673	
7.53	-0.301	-0.12648461880745915	
7.535	-0.320	-0.17662288424234784	
7.54	-0.196	-0.21586015057850433	
7.545	-0.077	-0.23302389667532872	
7.55	-0.113	-0.223350127582779	
7.555	-0.034	-0.18948944334763787	
7.56	0.133	-0.13828813291724318	
7.565	0.023	-0.08119344135241952	
7.57	0.000	-0.0280043784806635	
7.575	0.223	0.018449129863547548	
7.58	0.189	0.06349182319485348	
7.585	0.053	0.10221363707537354	
7.59	0.220	0.1312262479615478	
7.595	0.304	0.15703565528114516	
7.6	0.181	0.18249896376630867	
7.605	0.235	0.20650794274697357	
7.61	0.449	0.233823194123618	
7.615	0.411	0.26975180026273154	
7.62	0.388	0.3149567997694098	
7.625	0.643	0.3685362013318696	
7.63	0.661	0.4304855508501446	
7.635	0.510	0.4931579320966907	
7.64	0.704	0.5482669312027965	
7.645	0.832	0.6000498106858871	
7.65	0.654	0.6494595626450144	
7.655	0.670	0.6875144421465269	
7.66	0.709	0.7068074799088032	
7.665	0.482	0.698701356216646	
7.67	0.324	0.658954612776186	
7.675	0.345	0.5905189945283426	
7.68	0.195	0.4994458539637424	
7.685	-0.026	0.3931875717542177	
7.69	0.007	0.28028717138485676	
7.695	-0.020	0.17101344191376128	
7.7	-0.171	0.07148597812842084	
7.705	-0.202	-0.012428799350482422	
7.71	-0.122	-0.08220315342933314	
7.715	-0.208	-0.13628279703204538	
7.72	-0.222	-0.17196919102013083	
7.725	-0.089	-0.18746689070402467	
7.73	-0.136	-0.18857952212064566	
7.735	-0.196	-0.1827814912129297	
7.74	-0.054	-0.1676883191657842	
7.745	0.006	-0.14401509894797532	
7.75	-0.101	-0.11653032566399094	
7.755	-0.054	-0.08942451965017725	
7.76	0.061	-0.06421212275406277	
7.765	-0.060	-0.045302399694390386	
7.77	-0.133	-0.034998531828227236	
7.775	-0.046	-0.03648375921507546	
7.78	-0.113	-0.0495710760941024	
7.785	-0.205	-0.07079365242106722	
7.79	-0.113	-0.09270846162553348	
7.795	-0.066	-0.10999329316648301	
7.8	-0.171	-0.12251944488451719	
7.805	-0.119	-0.12644601404445527	
7.81	-0.019	-0.12218966134295213	
7.815	-0.115	-0.11527660111514085	
7.82	-0.167	-0.10903274863677395	
7.825	-0.066	-0.10447468255422497	
7.83	-0.106	-0.10652241343262395	
7.835	-0.147	-0.10883130390310013	
7.84	0.075	-0.09972238973259492	
7.845	0.215	-0.0679060695603132	
7.85	-0.074	-0.024541833763401272	
7.855	-0.231	-0.00256959226187726	
7.86	-0.197	-0.02217914991827078	
7.865	-0.231	-0.0732163626099642	
7.87	-0.207	-0.12307174959871496	
7.875	0.009	-0.15046553306048474	
7.88	0.116	-0.142434760052819	
7.885	0.046	-0.10183418227210968	
7.89	0.226	-0.03778168466766545	
7.895	0.290	0.03610005978130083	
7.9	0.204	0.10748030542093197	
7.905	0.211	0.16843497451216535	
7.91	0.360	0.21584966924531063	
7.915	0.189	0.24478264703655372	
7.92	0.088	0.25386553839207904	
7.925	0.267	0.24450499766333034	
7.93	0.230	0.23058238984218168	
7.935	0.172	0.22014521612023755	
7.94	0.319	0.22119331026384947	
7.945	0.490	0.24014392336488968	
7.95	0.369	0.2775187579245767	
7.955	0.408	0.323402478634357	
7.96	0.586	0.37084200543829926	
7.965	0.502	0.4168434804668219	
7.97	0.461	0.45787358178526105	
7.975	0.643	0.4934511723843407	
7.98	0.596	0.5246027206493205	
7.985	0.411	0.544175741558009	
7.99	0.537	0.5481092307335501	
7.995	0.541	0.542107888613635	
8.0	0.284	0.5225921950959387	
8.005	0.243	0.48235149156295454	
8.01	0.350	0.4267527344623312	
8.015	0.124	0.3659545412719774	
8.02	-0.046	0.2939081969531892	
8.025	-0.045	0.20828103428700578	
8.03	-0.113	0.11265480483670484	
8.035	-0.194	0.02135945436202445	
8.04	-0.193	-0.05501011924013756	
8.045	-0.136	-0.1159753150854798	
8.05	-0.165	-0.15818773311786727	
8.055	-0.139	-0.17462384673955803	
8.06	-0.048	-0.17042048797097006	
8.065	-0.139	-0.1589495665841672	
8.07	-0.161	-0.14597550773086798	
8.075	-0.028	-0.1308486356157042	
8.08	-0.052	-0.11435233427849366	
8.085	-0.155	-0.10153240702976854	
8.09	-0.100	-0.09310646412283885	
8.095	-0.032	-0.09004189171192063	
8.1	-0.113	-0.08908317472299682	
8.105	-0.106	-0.08566829461766826	
8.11	-0.023	-0.08152228809933139	
8.115	-0.148	-0.08385645801533065	
8.12	-0.213	-0.09295270891569754	
8.125	-0.133	-0.10896717987083981	
8.13	-0.113	-0.12730312519370363	
8.135	-0.205	-0.1404396370262868	
8.14	-0.158	-0.1481910741777709	
8.145	-0.095	-0.15406533394777908	
8.15	-0.147	-0.15498561137265943	
8.155	-0.118	-0.14769445960705713	
8.16	-0.045	-0.13358440008463268	
8.165	-0.127	-0.1217926930320223	
8.17	-0.127	-0.1129307820984722	
8.175	0.035	-0.10002071893686273	
8.18	-0.022	-0.08127237761005199	
8.185	-0.187	-0.06842499796696648	
8.19	-0.243	-0.07527679817927661	
8.195	-0.208	-0.10506372471264457	
8.2	-0.194	-0.14391988399896397	
8.205	-0.104	-0.16573169496209067	
8.21	0.073	-0.15958672667808738	
8.215	0.010	-0.12770579442637867	
8.22	0.026	-0.08396145540592287	
8.225	0.310	-0.0250818066312495	
8.23	0.324	0.05081866120744417	
8.235	0.146	0.12659774210484753	
8.24	0.209	0.1826068140012124	
8.245	0.266	0.2149794053924752	
8.25	0.104	0.22617147248164568	
8.255	0.226	0.22411924244835987	
8.26	0.453	0.23135276518007972	
8.265	0.333	0.25549249372002847	
8.27	0.160	0.2789822315427011	
8.275	0.336	0.2886773306799308	
8.28	0.398	0.29497626474730454	
8.285	0.397	0.3117895832080214	
8.29	0.429	0.34038031531664603	
8.295	0.571	0.3769525114894776	
8.3	0.522	0.41746791657829013	
8.305	0.519	0.46100191693708537	
8.31	0.623	0.5010957761311587	
8.315	0.661	0.5367198977355468	
8.32	0.556	0.5701055028455112	
8.325	0.672	0.5974016326891831	
8.33	0.672	0.6180097198388209	
8.335	0.438	0.6240014460924059	
8.34	0.279	0.6001622770109631	
8.345	0.233	0.5347958163780675	
8.35	0.078	0.4387125160910206	
8.355	-0.048	0.3269946864218828	
8.36	0.015	0.21486572676156834	
8.365	-0.032	0.11487979861110623	
8.37	-0.119	0.03527831019343374	
8.375	-0.101	-0.023813898750292342	
8.38	-0.119	-0.07000886516969991	
8.385	-0.127	-0.10374400033541925	
8.39	-0.136	-0.12189682086336993	
8.395	-0.083	-0.13033191689309714	
8.4	-0.077	-0.13110091014998415	
8.405	-0.100	-0.12096053980830482	
8.41	-0.040	-0.10632185809508973	
8.415	-0.074	-0.09407631174871954	
8.42	-0.119	-0.0846177847027921	
8.425	-0.077	-0.07994488860491658	
8.43	-0.042	-0.07804944483337037	
8.435	-0.101	-0.07762385072608263	
8.44	-0.090	-0.07594781629100064	
8.445	-0.072	-0.07642771854050374	
8.45	-0.135	-0.0830201721893412	
8.455	-0.213	-0.09494423912431031	
8.46	-0.159	-0.11442249977554561	
8.465	-0.165	-0.13703531376605027	
8.47	-0.207	-0.1565371653822739	
8.475	-0.155	-0.1680105231501439	
8.48	-0.100	-0.1720691816678684	
8.485	-0.121	-0.16654005660688515	
8.49	-0.089	-0.14996228566719488	
8.495	-0.097	-0.13248610678879538	
8.5	-0.122	-0.11998053556921726	
8.505	-0.130	-0.11291489773049179	
8.51	0.003	-0.1034558013525954	
8.515	0.053	-0.08602413492853175	
8.52	-0.063	-0.059509903503044165	
8.525	-0.122	-0.042053136204618265	
8.53	-0.188	-0.04912135700951172	
8.535	-0.208	-0.07853043310144106	
8.54	-0.122	-0.10993197993021223	
8.545	-0.038	-0.1264828970515452	
8.55	0.023	-0.12297701372665888	
8.555	-0.009	-0.09688308518790939	
8.56	0.151	-0.057446894008462326	
8.565	0.165	-0.008067230879148086	
8.57	0.046	0.040484222857130124	
8.575	0.188	0.08099733148908712	
8.58	0.166	0.11188155102331357	
8.585	0.105	0.1324384104311762	
8.59	0.125	0.1440746954599291	
8.595	0.143	0.14650342314669573	
8.6	0.117	0.1429795487258838	
8.605	0.152	0.14012931932940456	
8.61	0.340	0.15058246237156986	
8.615	0.310	0.1779194417369341	
8.62	0.236	0.21248049809203595	
8.625	0.334	0.24501368535116239	
8.63	0.380	0.2738830416615955	
8.635	0.328	0.3014421687264074	
8.64	0.452	0.33008359049027586	
8.645	0.579	0.36751171435624447	
8.65	0.596	0.41700519270205566	
8.655	0.562	0.47312235616462134	
8.66	0.657	0.5255235816216365	
8.665	0.573	0.5639105636334661	
8.67	0.345	0.5775052282658983	
8.675	0.319	0.5539555722306877	
8.68	0.238	0.49483332581952444	
8.685	0.056	0.4115000290094576	
8.69	-0.014	0.313084882827976	
8.695	-0.072	0.2054195026986965	
8.7	-0.165	0.09602908053996738	
8.705	-0.193	-0.0007861582671148579	
8.71	-0.159	-0.07951404410135654	
8.715	-0.173	-0.13711450893175578	
8.72	-0.194	-0.17337462058433123	
8.725	-0.130	-0.187994313510775	
8.73	-0.101	-0.18723420263154678	
8.735	-0.141	-0.17646682113958445	
8.74	-0.121	-0.1588377564598324	
8.745	-0.048	-0.14063488672430213	
8.75	-0.087	-0.1220182194026148	
8.755	-0.095	-0.10472671263647235	
8.76	-0.025	-0.08852927544581526	
8.765	-0.074	-0.07620072632711337	
8.77	-0.130	-0.07035374257433553	
8.775	-0.066	-0.07096276124125488	
8.78	-0.098	-0.07530298024285424	
8.785	-0.150	-0.08447670667539785	
8.79	-0.126	-0.09577865664666718	
8.795	-0.126	-0.106663498273253	
8.8	-0.188	-0.12205667971101727	
8.805	-0.196	-0.13768298575003635	
8.81	-0.135	-0.1505143109717898	
8.815	-0.159	-0.16123256020074506	
8.82	-0.203	-0.1663380266419053	
8.825	-0.176	-0.16993091728970144	
8.83	-0.231	-0.17832876824728866	
8.835	-0.265	-0.19250345695249904	
8.84	-0.207	-0.20674012565530495	
8.845	-0.026	-0.2076314574779599	
8.85	0.094	-0.1800690802590696	
8.855	0.082	-0.12065529218662861	
8.86	-0.020	-0.05649928921451568	
8.865	-0.199	-0.024331952112733195	
8.87	-0.317	-0.03738842546206621	
8.875	-0.214	-0.08284572016302222	
8.88	-0.144	-0.13232261354879993	
8.885	-0.136	-0.16356053665617018	
8.89	-0.069	-0.16866505919400873	
8.895	0.000	-0.15259789827873052	
8.9	-0.037	-0.1241995609679035	
8.905	0.007	-0.08865817198110859	
8.91	0.133	-0.04836619585613765	
8.915	0.076	-0.005351986003894561	
8.92	0.001	0.02955858446865333	
8.925	0.140	0.054235360307730046	
8.93	0.131	0.0736742977914395	
8.935	0.053	0.08833243496027965	
8.94	0.117	0.09935128526593849	
8.945	0.171	0.1074542428367642	
8.95	0.096	0.11374148644356288	
8.955	0.116	0.12031882416786747	
8.96	0.238	0.1286914406991532	
8.965	0.247	0.14564547513240972	
8.97	0.223	0.17053631746994563	
8.975	0.417	0.20527799826662488	
8.98	0.444	0.252693338126459	
8.985	0.481	0.3093064203254856	
8.99	0.652	0.37836884084552325	
8.995	0.783	0.4604896961562148	
9.0	0.571	0.5417173156154187	
9.005	0.466	0.5942575471472312	
9.01	0.476	0.6036626794965552	
9.015	0.240	0.5696526910139683	
9.02	-0.011	0.49149730450703644	
9.025	-0.055	0.3732022635104778	
9.03	-0.119	0.23271510791492714	
9.035	-0.176	0.0973786802141317	
9.04	-0.167	-0.013670442157471437	
9.045	-0.152	-0.09655073325992736	
9.05	-0.222	-0.15418287286191046	
9.055	-0.236	-0.19067746281167008	
9.06	-0.147	-0.21038272905227315	
9.065	-0.164	-0.21630486828117293	
9.07	-0.213	-0.21039969676581083	
9.075	-0.107	-0.1988227123412103	
9.08	-0.126	-0.18333486421902934	
9.085	-0.162	-0.16757783138908033	
9.09	-0.124	-0.15268599514770742	
9.095	-0.119	-0.1416344671327129	
9.1	-0.174	-0.13716561030733812	
9.105	-0.122	-0.1356418828493444	
9.11	-0.077	-0.13144171644633676	
9.115	-0.118	-0.1253176826142625	
9.12	-0.187	-0.12235676059240018	
9.125	-0.136	-0.12486024855916046	
9.13	-0.165	-0.1333625006651658	
9.135	-0.236	-0.14652996376941152	
9.14	-0.226	-0.1636985029556812	
9.145	-0.200	-0.1826703845152674	
9.15	-0.225	-0.20011401513381574	
9.155	-0.271	-0.21262670004631476	
9.16	-0.219	-0.22350393791895798	
9.165	-0.257	-0.23430089376457133	
9.17	-0.304	-0.24430042358323625	
9.175	-0.236	-0.2528953621476368	
9.18	-0.122	-0.2533804082987543	
9.185	0.049	-0.22844625128931606	
9.19	0.206	-0.16265459613712432	
9.195	0.070	-0.07572583450295364	
9.2	-0.245	-0.017175547370749836	
9.205	-0.344	-0.018657120407522258	
9.21	-0.269	-0.06950335572618395	
9.215	-0.251	-0.13727933877708196	
9.22	-0.217	-0.19029950123806383	
9.225	-0.104	-0.2148806736704962	
9.23	-0.078	-0.21234202812743314	
9.235	-0.071	-0.18849118218941047	
9.24	-0.014	-0.1507255037459304	
9.245	0.036	-0.10666522541068377	
9.25	0.010	-0.06509476551157767	
9.255	-0.009	-0.02867808821024948	
9.26	0.088	-0.0004992856553071592	
9.265	0.047	0.021751411923626424	
9.27	-0.022	0.03463645509457199	
9.275	0.177	0.04607488322731949	
9.28	0.166	0.06472085754558768	
9.285	0.099	0.0885005359268204	
9.29	0.099	0.10718352241850672	
9.295	0.101	0.11536354429073066	
9.3	0.120	0.11497576351775275	
9.305	0.139	0.1172660764293957	
9.31	0.350	0.13248751915123813	
9.315	0.398	0.17086304178703116	
9.32	0.369	0.22763415851062097	
9.325	0.421	0.28797247708042895	
9.33	0.389	0.33674690380519356	
9.335	0.366	0.36955050873559475	
9.34	0.363	0.38811933905035334	
9.345	0.340	0.39235137786542285	
9.35	0.174	0.37502644284497455	
9.355	0.018	0.3312035181449244	
9.36	-0.029	0.25941250098355323	
9.365	-0.127	0.16590038562204493	
9.37	-0.219	0.06563947296924566	
9.375	-0.181	-0.028058784415990187	
9.38	-0.185	-0.105189388246437	
9.385	-0.243	-0.1624037208629347	
9.39	-0.262	-0.20092447126874172	
9.395	-0.205	-0.227624662513923	
9.4	-0.214	-0.2419013550851374	
9.405	-0.216	-0.2428020852823299	
9.41	-0.144	-0.23258744254315622	
9.415	-0.145	-0.2170562622722888	
9.42	-0.176	-0.19837774550953602	
9.425	-0.110	-0.1770928884324821	
9.43	-0.106	-0.15917759342418858	
9.435	-0.147	-0.14442521528571658	
9.44	-0.104	-0.1309516258028715	
9.445	-0.064	-0.11959638314639533	
9.45	-0.132	-0.1109190269934852	
9.455	-0.187	-0.10885588008875612	
9.46	-0.135	-0.11556069156448245	
9.465	-0.184	-0.12903858287569472	
9.47	-0.208	-0.1454286535007272	
9.475	-0.127	-0.15707314160942126	
9.48	-0.142	-0.1631222497463739	
9.485	-0.194	-0.16646980146647428	
9.49	-0.185	-0.16697733616663593	
9.495	-0.141	-0.1695325588468944	
9.5	-0.144	-0.16992792393451953	
9.505	-0.213	-0.16690100670323327	
9.51	-0.142	-0.16550525013684259	
9.515	-0.072	-0.16302067588274582	
9.52	-0.025	-0.1464788343003361	
9.525	0.075	-0.11102189449189323	
9.53	-0.051	-0.07009902212502298	
9.535	-0.223	-0.051587524907278165	
9.54	-0.268	-0.06498436276220346	
9.545	-0.199	-0.10343958133471375	
9.55	-0.126	-0.1429868073856792	
9.555	-0.081	-0.15893250275164356	
9.56	0.067	-0.14536655659372516	
9.565	0.064	-0.10903442966273927	
9.57	0.013	-0.0626247381673261	
9.575	0.151	-0.013951622324721255	
9.58	0.204	0.035999004166332685	
9.585	0.093	0.08131085688010053	
9.59	0.076	0.1130158346387194	
9.595	0.208	0.1286733875976274	
9.6	0.194	0.1419352516629953	
9.605	0.186	0.15898287761542262	
9.61	0.314	0.18171990191109183	
9.615	0.270	0.20595600617779672	
9.62	0.165	0.2262843327657759	
9.625	0.299	0.23910302501834718	
9.63	0.357	0.2520391480105325	
9.635	0.308	0.2702508750680256	
9.64	0.379	0.2940551351051184	
9.645	0.467	0.32373278014196305	
9.65	0.437	0.35586927817531244	
9.655	0.427	0.38896280239025466	
9.66	0.585	0.4217824668148874	
9.665	0.536	0.455933907710915	
9.67	0.460	0.4862472573165166	
9.675	0.528	0.5051403415782827	
9.68	0.495	0.5130274438382315	
9.685	0.307	0.5041968274851274	
9.69	0.217	0.4700558228812075	
9.695	0.172	0.40972339165710425	
9.7	0.006	0.3278401881195197	
9.705	-0.080	0.23298146841599512	
9.71	-0.051	0.1357863338988049	
9.715	-0.101	0.04792007576049971	
9.72	-0.164	-0.02470623843925275	
9.725	-0.127	-0.07783152006657086	
9.73	-0.103	-0.11499833005378007	
9.735	-0.138	-0.13676647189559227	
9.74	-0.074	-0.13987594260531983	
9.745	-0.006	-0.12828569897855638	
9.75	-0.069	-0.10917779651093068	
9.755	-0.058	-0.08798301404749496	
9.76	0.032	-0.06621038930094239	
9.765	-0.035	-0.04712849389976567	
9.77	-0.071	-0.03472243319021521	
9.775	0.020	-0.02681423959410202	
9.78	-0.014	-0.0210112431706981	
9.785	-0.122	-0.02280517640201069	
9.79	-0.135	-0.03489436411592707	
9.795	-0.055	-0.05427367335999357	
9.8	-0.118	-0.07416799017064904	
9.805	-0.144	-0.08899694731535684	
9.81	-0.068	-0.09921103115182853	
9.815	-0.116	-0.10710279233554365	
9.82	-0.176	-0.11372351977392141	
9.825	-0.109	-0.11883280750542145	
9.83	-0.084	-0.12399508590049887	
9.835	-0.147	-0.12478346730222711	
9.84	-0.136	-0.12289716527919031	
9.845	-0.122	-0.12428191457150885	
9.85	-0.158	-0.1301773207421879	
9.855	-0.141	-0.13399090006123382	
9.86	-0.069	-0.13219214718211553	
9.865	-0.075	-0.12611981341112471	
9.87	-0.185	-0.11974171983584804	
9.875	-0.185	-0.11980699228604981	
9.88	-0.168	-0.13301107760118397	
9.885	-0.155	-0.14782528736966138	
9.89	-0.061	-0.14983583041505222	
9.895	0.039	-0.13422943676025112	
9.9	-0.003	-0.10425068937807377	
9.905	0.033	-0.06599516029844335	
9.91	0.214	-0.019104449796807636	
9.915	0.145	0.03183200919394389	
9.92	0.010	0.07418132574343202	
9.925	0.152	0.09927027239907114	
9.93	0.174	0.1150221799430555	
9.935	0.072	0.12508565906431593	
9.94	0.154	0.13115558754203543	
9.945	0.259	0.1408238696485528	
9.95	0.195	0.15572737831422	
9.955	0.125	0.17196588851687777	
9.96	0.279	0.1839031185776832	
9.965	0.272	0.19685383515258065	
9.97	0.238	0.21520144359168528	
9.975	0.427	0.24227330237159714	
9.98	0.453	0.28102185742331687	
9.985	0.408	0.32511020846393623	
9.99	0.505	0.3721515449691129	
9.995	0.583	0.4197894072827084	
10.0	0.515	0.46274071555203367	
10.005	0.441	0.4949774758666126	
10.01	0.519	0.5108581625737876	
10.015	0.412	0.507844407384469	
10.02	0.217	0.48421560299604416	
10.025	0.255	0.43721950380873237	
10.03	0.133	0.3719926237882651	
10.035	-0.013	0.2921559451350402	
10.04	-0.046	0.20413704511672653	
10.045	-0.058	0.11674665488989645	
10.05	-0.118	0.03580085773780915	
10.055	-0.182	-0.03097625008923636	
10.06	-0.098	-0.08218327350524121	
10.065	-0.090	-0.11712382402729543	
10.07	-0.148	-0.13270184243442446	
10.075	-0.074	-0.1338022013074478	
10.08	-0.080	-0.12903698925161727	
10.085	-0.110	-0.1207867196008691	
10.09	-0.055	-0.10784676192242046	
10.095	-0.002	-0.0913053909219622	
10.1	-0.072	-0.07520285199941626	
10.105	-0.112	-0.06495548008804863	
10.11	-0.006	-0.0582171633932192	
10.115	-0.029	-0.055151929738830804	
10.12	-0.107	-0.051685294675697935	
10.125	-0.040	-0.04980760086803798	
10.13	-0.074	-0.05406341246227607	
10.135	-0.130	-0.06278096228529345	
10.14	-0.127	-0.07383529920274215	
10.145	-0.121	-0.08832388857638636	
10.15	-0.153	-0.10621174483717997	
10.155	-0.179	-0.12192521911024765	
10.16	-0.106	-0.13320119947664966	
10.165	-0.113	-0.14118374658616928	
10.17	-0.148	-0.1406829138417489	
10.175	-0.089	-0.13475497754697743	
10.18	-0.124	-0.1290831209756289	
10.185	-0.167	-0.12783449785430753	
10.19	-0.066	-0.12477963507083756	
10.195	0.068	-0.11027051011283343	
10.2	0.004	-0.08327524381666568	
10.205	-0.071	-0.05194092574180511	
10.21	-0.095	-0.03615194710176234	
10.215	-0.176	-0.044246275291114495	
10.22	-0.193	-0.0707399931496401	
10.225	-0.042	-0.09466341587766669	
10.23	0.081	-0.10004592752048554	
10.235	0.020	-0.07990159988408628	
10.24	0.078	-0.04274864696075153	
10.245	0.226	0.001769054136286715	
10.25	0.227	0.05565164242924579	
10.255	0.192	0.11307301138440749	
10.26	0.278	0.16392929362345454	
10.265	0.229	0.20069753874072202	
10.27	0.178	0.22322415344997934	
10.275	0.339	0.239409463456049	
10.28	0.337	0.25690708793479666	
10.285	0.232	0.2730139677768615	
10.29	0.281	0.2833206928459304	
10.295	0.360	0.28978695431166446	
10.3	0.209	0.2915571545055113	
10.305	0.178	0.2850954261702693	
10.31	0.470	0.27900490267830674	
10.315	0.553	0.29869102947647835	
10.32	0.519	0.34924902932091545	
10.325	0.652	0.41642950646657595	
10.33	0.658	0.4858463224329581	
10.335	0.571	0.5450328717096463	
10.34	0.637	0.5893669296573169	
10.345	0.667	0.6187022107989764	
10.35	0.556	0.6315465386271681	
10.355	0.453	0.6261901856931362	
10.36	0.496	0.6009201993073358	
10.365	0.272	0.5535707046002498	
10.37	0.090	0.480322378964751	
10.375	0.108	0.38443721990954344	
10.38	-0.013	0.27774901388416995	
10.385	-0.107	0.17111006186518618	
10.39	-0.129	0.07345138301981784	
10.395	-0.103	-0.009386800147214925	
10.4	-0.147	-0.07342541616795892	
10.405	-0.148	-0.1146744004666444	
10.41	-0.080	-0.13613338401822378	
10.415	-0.116	-0.14447760466544995	
10.42	-0.144	-0.1425412404388268	
10.425	-0.077	-0.13455091008956807	
10.43	-0.081	-0.1253729714213639	
10.435	-0.104	-0.1148343817037103	
10.44	-0.057	-0.10146942164394099	
10.445	-0.057	-0.08950499258454633	
10.45	-0.135	-0.08347719658354366	
10.455	-0.124	-0.08457673903808649	
10.46	-0.064	-0.08816939180292853	
10.465	-0.130	-0.09457281482757077	
10.47	-0.184	-0.10347280294509884	
10.475	-0.118	-0.11350993739501807	
10.48	-0.145	-0.12646381459832626	
10.485	-0.220	-0.13982602824385992	
10.49	-0.173	-0.15239199686931285	
10.495	-0.165	-0.16455325101528306	
10.5	-0.202	-0.17551284069086742	
10.505	-0.150	-0.17949197070610862	
10.51	-0.122	-0.17616244605615672	
10.515	-0.190	-0.17165376441374172	
10.52	-0.248	-0.17244362955688192	
10.525	-0.126	-0.17444820290969157	
10.53	0.003	-0.1695096819853238	
10.535	-0.003	-0.1428302195831183	
10.54	0.068	-0.09631074774384524	
10.545	-0.081	-0.05459438892580097	
10.55	-0.216	-0.04062454423261927	
10.555	-0.190	-0.056450789765475684	
10.56	-0.026	-0.08109483228584854	
10.565	-0.014	-0.09371368268650768	
10.57	-0.052	-0.08643944292243506	
10.575	0.064	-0.0663610949261812	
10.58	0.097	-0.03856754419547892	
10.585	0.081	-0.003910766077780555	
10.59	0.246	0.04077646875696976	
10.595	0.304	0.09445363094118872	
10.6	0.180	0.1483109132689886	
10.605	0.128	0.18657015397230853	
10.61	0.195	0.2019281615060738	
10.615	0.140	0.19819524085001006	
10.62	0.127	0.18855616822629034	
10.625	0.318	0.1857242930078769	
10.63	0.252	0.1933923729509306	
10.635	0.204	0.20703058513892622	
10.64	0.311	0.22483848022529176	
10.645	0.337	0.24446129269421987	
10.65	0.301	0.2652473208773056	
10.655	0.406	0.29162829297507986	
10.66	0.597	0.3310145841558065	
10.665	0.502	0.38214317919489726	
10.67	0.466	0.4335088239834798	
10.675	0.631	0.47676971773002735	
10.68	0.573	0.5133866075338296	
10.685	0.432	0.5369727380354452	
10.69	0.481	0.5418378428088388	
10.695	0.426	0.5274768121167903	
10.7	0.178	0.4892180061854642	
10.705	0.068	0.42258236396805016	
10.71	0.091	0.33199428438494694	
10.715	-0.068	0.23117013129412128	
10.72	-0.155	0.13052998440488436	
10.725	-0.112	0.037744334604084606	
10.73	-0.162	-0.04259511112736207	
10.735	-0.262	-0.10796137915914357	
10.74	-0.188	-0.1571683076611125	
10.745	-0.153	-0.1895375595678776	
10.75	-0.199	-0.20570401027006702	
10.755	-0.162	-0.20537893962356552	
10.76	-0.051	-0.1930516484894671	
10.765	-0.136	-0.17281403497099845	
10.77	-0.164	-0.1534356695684314	
10.775	-0.066	-0.13631187800428599	
10.78	-0.089	-0.123618744020979	
10.785	-0.144	-0.11391762047807692	
10.79	-0.074	-0.1052000505004313	
10.795	-0.077	-0.09958843060444628	
10.8	-0.138	-0.09767195062096012	
10.805	-0.155	-0.1003817723485937	
10.81	-0.130	-0.1081080607380056	
10.815	-0.208	-0.12379646262625581	
10.82	-0.226	-0.14440374505325765	
10.825	-0.165	-0.16233946284782474	
10.83	-0.200	-0.1786142617755584	
10.835	-0.246	-0.1928926639816136	
10.84	-0.179	-0.2012166814710185	
10.845	-0.165	-0.2035776874792028	
10.85	-0.260	-0.20665323677485176	
10.855	-0.303	-0.21241813629276993	
10.86	-0.252	-0.2261004318526801	
10.865	-0.234	-0.24275203555555197	
10.87	-0.101	-0.24342295969520727	
10.875	0.215	-0.2063137160960007	
10.88	0.162	-0.12953533650133556	
10.885	-0.159	-0.05196366531934094	
10.89	-0.254	-0.18508833244233874	
10.895	-0.260	-0.0435374386628623	
10.9	-0.265	-0.09859339819341494	
10.905	-0.211	-0.15047455888983768	
10.91	-0.135	-0.18508833244233874	
10.915	-0.132	-0.19966855306044728	
10.92	-0.150	-0.19447100802429296	
10.925	-0.060	-0.17540510826583733	
10.93	-0.040	-0.1505001014706321	
10.935	-0.118	-0.1239031664752333	
10.94	-0.014	-0.09833058771795138	
10.945	0.073	-0.07150607746962483	
10.95	0.010	-0.04158404217422547	
10.955	0.032	-0.010516275243376961	
10.96	0.172	0.01889897400910119	
10.965	0.131	0.05034642486826901	
10.97	0.064	0.07950688856634386	
10.975	0.203	0.10456483328995758	
10.98	0.151	0.12351479531126448	
10.985	0.186	0.14011702570726609	
10.99	0.385	0.16766026626515024	
10.995	0.496	0.21650822450835303	
11.0	0.450	0.282445453599061	
11.005	0.490	0.3514536545711618	
11.01	0.637	0.4178740501378227	
11.015	0.606	0.4793913024385303	
11.02	0.501	0.5294948214712705	
11.025	0.609	0.5624960144829816	
11.03	0.498	0.5745487077914497	
11.035	0.266	0.559142117356364	
11.04	0.214	0.508535778144805	
11.045	0.151	0.42946414154090373	
11.05	-0.026	0.3305511932980685	
11.055	-0.100	0.22242250748175926	
11.06	-0.100	0.11578294378955328	
11.065	-0.190	0.015498526050127356	
11.07	-0.252	-0.06943524496338609	
11.075	-0.187	-0.13660365038882266	
11.08	-0.208	-0.18440098418217826	
11.085	-0.252	-0.21571886462694123	
11.09	-0.210	-0.23052495103522055	
11.095	-0.196	-0.23557116091329836	
11.1	-0.216	-0.2353312692915709	
11.105	-0.214	-0.22859974361242474	
11.11	-0.118	-0.21630529210847618	
11.115	-0.129	-0.20042856790404445	
11.12	-0.165	-0.18041775171686505	
11.125	-0.110	-0.16071035489350555	
11.13	-0.089	-0.1443818749471436	
11.135	-0.145	-0.13266645966815693	
11.14	-0.116	-0.12160192442455244	
11.145	-0.126	-0.11758909374975601	
11.15	-0.213	-0.12327459580580462	
11.155	-0.283	-0.13964750815194354	
11.16	-0.199	-0.1653455413788828	
11.165	-0.205	-0.19136739407390155	
11.17	-0.254	-0.20841276418861435	
11.175	-0.210	-0.21875208871658128	
11.18	-0.229	-0.2263528656669893	
11.185	-0.287	-0.2346473705799045	
11.19	-0.271	-0.24163230125186103	
11.195	-0.251	-0.25057836850181303	
11.2	-0.271	-0.25924625699919424	
11.205	-0.196	-0.25964617144745633	
11.21	-0.026	-0.2423235695302891	
11.215	-0.037	-0.20435063083013805	
11.22	-0.217	-0.1634536483048877	
11.225	-0.291	-0.14478979928774188	
11.23	-0.324	-0.16235318232792073	
11.235	-0.315	-0.20064871834745024	
11.24	-0.226	-0.2346174675754922	
11.245	-0.115	-0.2485474948205433	
11.25	-0.100	-0.23824768038190347	
11.255	-0.058	-0.20465106004854355	
11.26	0.143	-0.15131179682364404	
11.265	0.097	-0.08537176951506327	
11.27	0.042	-0.0194649207800913	
11.275	0.209	0.03726392499627627	
11.28	0.192	0.08667303311603955	
11.285	0.111	0.1253058049124131	
11.29	0.165	0.15135267720525086	
11.295	0.240	0.1674584217322581	
11.3	0.208	0.18074348204508167	
11.305	0.229	0.1963243706499929	
11.31	0.342	0.2166791850673449	
11.315	0.331	0.2406437210697573	
11.32	0.278	0.2675470120967765	
11.325	0.391	0.2932528656664617	
11.33	0.458	0.3196747849145085	
11.335	0.453	0.3533412939072102	
11.34	0.599	0.39837356132101914	
11.345	0.652	0.4534418049991931	
11.35	0.599	0.5087347793620195	
11.355	0.567	0.5553282909653948	
11.36	0.664	0.5886581995944506	
11.365	0.570	0.6066224689074461	
11.37	0.412	0.6055501271410839	
11.375	0.365	0.5782347746290526	
11.38	0.240	0.5196342029089445	
11.385	0.038	0.4333294894390017	
11.39	-0.009	0.32837378301954456	
11.395	-0.031	0.21542629213831277	
11.4	-0.141	0.1077483280065791	
11.405	-0.173	0.014374904633031812	
11.41	-0.126	-0.06133176982633654	
11.415	-0.199	-0.11838478487042177	
11.42	-0.213	-0.158402597867484	
11.425	-0.130	-0.18071714498882338	
11.43	-0.121	-0.18737010593511588	
11.435	-0.147	-0.18265617266610118	
11.44	-0.084	-0.16558621979261495	
11.445	-0.043	-0.143587460696806	
11.45	-0.107	-0.12229311433252642	
11.455	-0.124	-0.10462163279941031	
11.46	-0.028	-0.09232439932505557	
11.465	-0.052	-0.08342215645317731	
11.47	-0.132	-0.0754208183128014	
11.475	-0.023	-0.0706961016342757	
11.48	-0.116	-0.07039288119521993	
11.485	-0.203	-0.08070034590610262	
11.49	-0.148	-0.09856807368494198	
11.495	-0.129	-0.11856557840591327	
11.5	-0.173	-0.1353157183212482	
11.505	-0.197	-0.14861625284196106	
11.51	-0.135	-0.15829564504955804	
11.515	-0.136	-0.1644328518443799	
11.52	-0.208	-0.16543158485092246	
11.525	-0.136	-0.16467448917107913	
11.53	-0.113	-0.1623877019822658	
11.535	-0.153	-0.15770465355454516	
11.54	-0.122	-0.14754659097121525	
11.545	-0.060	-0.13656837943550926	
11.55	-0.054	-0.12334557163677888	
11.555	-0.061	-0.1025899613082348	
11.56	-0.110	-0.08427396483507507	
11.565	-0.239	-0.0875153011081693	
11.57	-0.317	-0.11446801344826285	
11.575	-0.188	-0.15258068847621248	
11.58	-0.119	-0.1823839498742468	
11.585	-0.089	-0.18878386150270554	
11.59	0.032	-0.16646599324970204	
11.595	0.130	-0.1204885587720823	
11.6	0.084	-0.06046233652058843	
11.605	0.097	-0.0006179251058130166	
11.61	0.247	0.05585496833690432	
11.615	0.159	0.10446050682725726	
11.62	0.075	0.13844119950849054	
11.625	0.206	0.15648449881101725	
11.63	0.203	0.16663623294262753	
11.635	0.122	0.1721078740451173	
11.64	0.220	0.17753008328137232	
11.645	0.348	0.18958266324170184	
11.65	0.288	0.21250742875338804	
11.655	0.243	0.2403448514331488	
11.66	0.423	0.26689787208258997	
11.665	0.394	0.29648220756291943	
11.67	0.362	0.3284287912734142	
11.675	0.513	0.36149349842751555	
11.68	0.531	0.39864723465796975	
11.685	0.440	0.43310894703667346	
11.69	0.533	0.4635156384473637	
11.695	0.602	0.49055954589914874	
11.7	0.434	0.5095156627486699	
11.705	0.379	0.5123384154463633	
11.71	0.446	0.4968521244376636	
11.715	0.244	0.4634919657721608	
11.72	0.041	0.4074425729686677	
11.725	0.099	0.3274212952599208	
11.73	-0.028	0.2346464076289299	
11.735	-0.106	0.1411991089885675	
11.74	-0.116	0.05648161006671793	
11.745	-0.136	-0.018499745919842298	
11.75	-0.181	-0.08038118847952304	
11.755	-0.200	-0.12660977349447577	
11.76	-0.155	-0.15823408180576604	
11.765	-0.118	-0.17646581419061996	
11.77	-0.107	-0.1754357693939773	
11.775	-0.084	-0.15962288671459196	
11.78	-0.087	-0.14042082224583802	
11.785	-0.122	-0.12473779873139268	
11.79	-0.063	-0.10950202600157972	
11.795	-0.025	-0.09357284260126567	
11.8	-0.074	-0.08038313869752231	
11.805	-0.077	-0.06857360727446321	
11.81	-0.008	-0.059266333545814204	
11.815	-0.061	-0.05350392703225117	
11.82	-0.156	-0.0544305695422683	
11.825	-0.107	-0.06362558327025933	
11.83	-0.144	-0.08243451570021938	
11.835	-0.184	-0.10473118279558503	
11.84	-0.155	-0.12448928446594558	
11.845	-0.097	-0.13757289280183083	
11.85	-0.147	-0.14538523657151176	
11.855	-0.196	-0.14656361511615018	
11.86	-0.126	-0.1492616553499117	
11.865	-0.161	-0.15452003925317043	
11.87	-0.193	-0.157420199907328	
11.875	-0.130	-0.15858707638875336	
11.88	-0.129	-0.1584521041616442	
11.885	-0.145	-0.15576046139787483	
11.89	-0.057	-0.14444043183868516	
11.895	-0.051	-0.12656242049446564	
11.9	-0.177	-0.11346491054171448	
11.905	-0.272	-0.11456172367007338	
11.91	-0.208	-0.13520488074952108	
11.915	-0.185	-0.1645689729063512	
11.92	-0.165	-0.18243856251818777	
11.925	-0.020	-0.17848808955687512	
11.93	0.017	-0.15546075509759621	
11.935	-0.046	-0.11784709234598344	
11.94	0.093	-0.07437815845274953	
11.945	0.156	-0.02551608365638571	
11.95	0.101	0.023444993037062784	
11.955	0.075	0.06546457632183891	
11.96	0.232	0.09788663896173577	
11.965	0.151	0.12434982721204886	
11.97	0.042	0.14149612475082204	
11.975	0.227	0.14757577369979769	
11.98	0.204	0.15452122967346255	
11.985	0.130	0.1621027589401499	
11.99	0.235	0.17166374578978927	
11.995	0.267	0.18448643914773258	
12.0	0.250	0.20041699638358285	
12.005	0.333	0.22451028029755116	
12.01	0.504	0.26190723341297273	
12.015	0.460	0.3123264866969462	
12.02	0.458	0.36551947363956183	
12.025	0.599	0.41958576875482617	
12.03	0.588	0.46949207620263345	
12.035	0.504	0.5111025101210518	
12.04	0.565	0.5396603405611293	
12.045	0.536	0.5544619615544801	
12.05	0.394	0.5494136912552641	
12.055	0.302	0.523486292643483	
12.06	0.304	0.47586381518732	
12.065	0.137	0.4093365114798221	
12.07	-0.035	0.3265270105001795	
12.075	0.039	0.23355015443245572	
12.08	-0.014	0.14351555897065715	
12.085	-0.136	0.06616281752559836	
12.09	-0.132	-0.00036161886601818855	
12.095	-0.103	-0.05655628182635328	
12.1	-0.148	-0.09950563358351296	
12.105	-0.126	-0.1244756013423925	
12.11	-0.049	-0.13218302821446318	
12.115	-0.080	-0.12863271491805978	
12.12	-0.119	-0.11840649884549603	
12.125	-0.045	-0.10549771171194983	
12.13	-0.084	-0.09453161790244274	
12.135	-0.129	-0.08979344732532404	
12.14	-0.072	-0.0863647924646282	
12.145	0.009	-0.0816018891469868	
12.15	-0.052	-0.07148613342783586	
12.155	-0.104	-0.060472225154375434	
12.16	-0.066	-0.05724037094008108	
12.165	-0.126	-0.06563731474521536	
12.17	-0.219	-0.08137167803091966	
12.175	-0.170	-0.10552353757308826	
12.18	-0.179	-0.13355728890612706	
12.185	-0.217	-0.15874447178648088	
12.19	-0.156	-0.17434030564220654	
12.195	-0.106	-0.17965192487748474	
12.2	-0.159	-0.1764859487450328	
12.205	-0.200	-0.16841354319239726	
12.21	-0.184	-0.16626314474094642	
12.215	-0.219	-0.17469046509380132	
12.22	-0.213	-0.1843144759833222	
12.225	-0.022	-0.18246536133403699	
12.23	-0.026	-0.1636109994207887	
12.235	-0.142	-0.13576724343283697	
12.24	-0.170	-0.11529732675974919	
12.245	-0.213	-0.11670179823479629	
12.25	-0.237	-0.13755267165038565	
12.255	-0.173	-0.15933530774877397	
12.26	-0.077	-0.1702047325045409	
12.265	-0.077	-0.16576361843632423	
12.27	-0.063	-0.14530841166926217	
12.275	0.062	-0.11238850351378529	
12.28	0.065	-0.07167858056515021	
12.285	-0.032	-0.03282906201815369	
12.29	0.030	-0.0031933535763537693	
12.295	0.094	0.01732185683244266	
12.3	0.029	0.03235158412339961	
12.305	0.047	0.045699424653261524	
12.31	0.159	0.05784752633591148	
12.315	0.082	0.07114509379153167	
12.32	0.090	0.08367625335021638	
12.325	0.256	0.10169454612916236	
12.33	0.255	0.12828628978548418	
12.335	0.165	0.1591274725254287	
12.34	0.269	0.18787660582994697	
12.345	0.369	0.21632810322138674	
12.35	0.340	0.24930042109037684	
12.355	0.449	0.291744271262362	
12.36	0.550	0.34187697236673037	
12.365	0.484	0.3940883578549758	
12.37	0.450	0.43867581427122115	
12.375	0.655	0.47672448369693937	
12.38	0.530	0.5102475510724481	
12.385	0.360	0.527102916187217	
12.39	0.376	0.5168837419569431	
12.395	0.288	0.48029997306124483	
12.4	0.078	0.41828154059304967	
12.405	-0.057	0.33073086676487373	
12.41	-0.064	0.22384073065599483	
12.415	-0.142	0.11112078439960742	
12.42	-0.202	0.01073490501124043	
12.425	-0.112	-0.0683084468848853	
12.43	-0.184	-0.12475476727609561	
12.435	-0.225	-0.16380649604764144	
12.44	-0.173	-0.1861037416369742	
12.445	-0.150	-0.19673770986472283	
12.45	-0.159	-0.1976582366449064	
12.455	-0.130	-0.18721645270389842	
12.46	-0.069	-0.16819861523523477	
12.465	-0.112	-0.1488952047939952	
12.47	-0.159	-0.13225210989013014	
12.475	-0.068	-0.11933879723278568	
12.48	-0.045	-0.10977903362560533	
12.485	-0.113	-0.09779507366371612	
12.49	-0.072	-0.08710855601944408	
12.495	-0.052	-0.08076487072915084	
12.5	-0.148	-0.08066825539209929	
12.505	-0.161	-0.08620896641507918	
12.51	-0.129	-0.10021178528019298	
12.515	-0.182	-0.11891257803213019	
12.52	-0.243	-0.13922413371849202	
12.525	-0.190	-0.16032314527037472	
12.53	-0.185	-0.18081961889303888	
12.535	-0.226	-0.195785609352764	
12.54	-0.153	-0.19904802227202878	
12.545	-0.148	-0.19678923453618186	
12.55	-0.266	-0.19571612039794073	
12.555	-0.265	-0.19915520601214684	
12.56	-0.181	-0.20818458510858381	
12.565	-0.107	-0.21197412820258865	
12.57	-0.017	-0.1921840860720937	
12.575	0.186	-0.14222327230068077	
12.58	0.015	-0.07688896526895403	
12.585	-0.211	-0.0318915342945673	
12.59	-0.231	-0.030006050719859186	
12.595	-0.176	-0.06277645966922477	
12.6	-0.158	-0.10477304487579457	
12.605	-0.095	-0.13009586513360888	
12.61	-0.011	-0.13411964220273556	
12.615	-0.052	-0.12305439935192361	
12.62	-0.054	-0.10122262596257289	
12.625	0.108	-0.0711612967725967	
12.63	0.120	-0.03290257306282448	
12.635	0.035	0.008092514958447839	
12.64	0.108	0.04408413658612746	
12.645	0.165	0.07222943888145272	
12.65	0.020	0.09012774798951444	
12.655	0.108	0.09991717005719994	
12.66	0.247	0.10993230351640577	
12.665	0.174	0.12689292833184482	
12.67	0.068	0.1427532250845009	
12.675	0.238	0.15287149223779534	
12.68	0.227	0.1620792684892307	
12.685	0.223	0.1780916090243345	
12.69	0.455	0.20913095154112554	
12.695	0.531	0.2612355221090619	
12.7	0.476	0.32712862201915116	
12.705	0.577	0.3979335272850315	
12.71	0.695	0.4669030896702594	
12.715	0.609	0.5308799106949629	
12.72	0.560	0.578777399906203	
12.725	0.634	0.6078380614451333	
12.73	0.495	0.6140459832303267	
12.735	0.266	0.5901027476116094	
12.74	0.208	0.530068464965657	
12.745	0.035	0.43416710747959775	
12.75	-0.116	0.31117823711020576	
12.755	-0.141	0.1809522955800209	
12.76	-0.127	0.05985522309213451	
12.765	-0.239	-0.043066001481471376	
12.77	-0.281	-0.12515520827497725	
12.775	-0.185	-0.1851975099550333	
12.78	-0.199	-0.2229277491440973	
12.785	-0.232	-0.2388014288042754	
12.79	-0.150	-0.23693547558879036	
12.795	-0.152	-0.22484996097801513	
12.8	-0.236	-0.21176405604668702	
12.805	-0.184	-0.20106354330708437	
12.81	-0.113	-0.19020915713959843	
12.815	-0.161	-0.18003451457235092	
12.82	-0.171	-0.1681438925537193	
12.825	-0.083	-0.15626925036650258	
12.83	-0.130	-0.14492558478360903	
12.835	-0.207	-0.13977330479249936	
12.84	-0.156	-0.13999882581324546	
12.845	-0.168	-0.14685958955950615	
12.85	-0.255	-0.16070219023014534	
12.855	-0.252	-0.17810046595368845	
12.86	-0.213	-0.19724770285950774	
12.865	-0.255	-0.21697057420803506	
12.87	-0.291	-0.2321462169610542	
12.875	-0.193	-0.24132247724545625	
12.88	-0.220	-0.24587497629213395	
12.885	-0.262	-0.2447422909524059	
12.89	-0.220	-0.2400522180882527	
12.895	-0.265	-0.23884430324099176	
12.9	-0.304	-0.2456688353533449	
12.905	-0.135	-0.24813426815452921	
12.91	0.201	-0.21920354359049704	
12.915	0.217	-0.14488247549187935	
12.92	-0.054	-0.054216693188255734	
12.925	-0.184	-0.0004396512875756471	
12.93	-0.283	-0.00885437437694029	
12.935	-0.284	-0.060712489063080195	
12.94	-0.187	-0.11909580212757082	
12.945	-0.113	-0.16282022774907803	
12.95	-0.103	-0.18059277951379824	
12.955	-0.019	-0.1691519652674194	
12.96	0.097	-0.1332732221871734	
12.965	0.090	-0.08189099404194655	
12.97	0.039	-0.0261721370947537	
12.975	0.171	0.02460770854059867	
12.98	0.156	0.0671657123547379	
12.985	0.085	0.10027504696549842	
12.99	0.157	0.12388617435732963	
12.995	0.181	0.13916454530793781	
13.0	0.160	0.14938531799881985	
13.005	0.209	0.161835513076178	
13.01	0.295	0.17972858725207477	
13.015	0.221	0.19910087589417777	
13.02	0.154	0.21381563885113825	
13.025	0.392	0.22662384784051293	
13.03	0.424	0.2522009579613992	
13.035	0.431	0.29328538057301734	
13.04	0.582	0.34887545295091893	
13.045	0.666	0.41518435335651527	
13.05	0.568	0.483406575365608	
13.055	0.537	0.5377816814960169	
13.06	0.580	0.5686772955477535	
13.065	0.461	0.5761488171523221	
13.07	0.305	0.5568242195700028	
13.075	0.266	0.509522207445634	
13.08	0.056	0.4311815617041109	
13.085	-0.097	0.32433716886645897	
13.09	-0.127	0.20281567655258004	
13.095	-0.138	0.08315063787690004	
13.1	-0.214	-0.02248834591889897	
13.105	-0.237	-0.1051942972183864	
13.11	-0.205	-0.16637217781385977	
13.115	-0.272	-0.2107784953063663	
13.12	-0.287	-0.2411183524569197	
13.125	-0.196	-0.25752298194068096	
13.13	-0.182	-0.25977196866893304	
13.135	-0.217	-0.24958520931871622	
13.14	-0.164	-0.2322454707203324	
13.145	-0.136	-0.2128872111562777	
13.15	-0.159	-0.19343020170324943	
13.155	-0.139	-0.17422830222318614	
13.16	-0.051	-0.1534399626090374	
13.165	-0.104	-0.13372764751681224	
13.17	-0.113	-0.11610675959251684	
13.175	-0.074	-0.10260801308645384	
13.18	-0.095	-0.09476073141035127	
13.185	-0.177	-0.09553949327600328	
13.19	-0.170	-0.10331036742729734	
13.195	-0.147	-0.11990419500673519	
13.2	-0.208	-0.13936068100939203	
13.205	-0.207	-0.1562530511620859	
13.21	-0.167	-0.17148636167232073	
13.215	-0.161	-0.18167131620588223	
13.22	-0.200	-0.18508387453001016	
13.225	-0.116	-0.1806530046882916	
13.23	-0.115	-0.17274145279859202	
13.235	-0.162	-0.16149910927448757	
13.24	-0.113	-0.14933302401631732	
13.245	-0.002	-0.13391184866678923	
13.25	0.047	-0.10732091619041559	
13.255	0.049	-0.06624493259112532	
13.26	-0.054	-0.028526547663769768	
13.265	-0.237	-0.02071513811839233	
13.27	-0.251	-0.04910022142537389	
13.275	-0.139	-0.09162797142124383	
13.28	-0.083	-0.1257200753379653	
13.285	-0.071	-0.1385153169447293	
13.29	0.032	-0.12431237463595808	
13.295	0.131	-0.08986419796220935	
13.3	0.107	-0.04036720383706783	
13.305	0.124	0.01570609423980959	
13.31	0.255	0.06955402089293773	
13.315	0.198	0.1183304434697617	
13.32	0.159	0.15883610034370116	
13.325	0.208	0.18537140777606706	
13.33	0.241	0.19930260191642885	
13.335	0.217	0.21042606627165777	
13.34	0.330	0.2256795330171707	
13.345	0.431	0.25218015585623277	
13.35	0.357	0.2865996249289793	
13.355	0.336	0.32168125560059924	
13.36	0.429	0.3475914205030292	
13.365	0.382	0.3663183814144606	
13.37	0.394	0.3818197503030423	
13.375	0.577	0.4014246889027561	
13.38	0.615	0.4353204423172214	
13.385	0.586	0.4803941581172915	
13.39	0.712	0.5326842040012143	
13.395	0.745	0.5861850498487531	
13.4	0.621	0.6325724277499623	
13.405	0.528	0.6566670757132125	
13.41	0.534	0.65058207534026	
13.415	0.337	0.6143055427149994	
13.42	0.142	0.5458077733431694	
13.425	0.168	0.4503851657083365	
13.43	0.029	0.34130551312163127	
13.435	-0.118	0.2284337658239085	
13.44	-0.071	0.12067238671190042	
13.445	-0.103	0.02815820747748168	
13.45	-0.150	-0.04434784281560833	
13.455	-0.142	-0.09528178341930707	
13.46	-0.109	-0.12646331306395442	
13.465	-0.129	-0.14364628780411395	
13.47	-0.142	-0.1491065987799671	
13.475	-0.107	-0.1456646272499331	
13.48	-0.104	-0.13972092996743735	
13.485	-0.130	-0.13349763333388565	
13.49	-0.087	-0.12335067339058595	
13.495	-0.089	-0.11490928061156341	
13.5	-0.112	-0.10932508626828247	
13.505	-0.084	-0.10227101466874744	
13.51	-0.003	-0.09250346552008296	
13.515	-0.087	-0.08064822009103222	
13.52	-0.152	-0.07510279947613663	
13.525	-0.103	-0.07869105230996126	
13.53	-0.142	-0.09071901564708014	
13.535	-0.208	-0.1094861759569145	
13.54	-0.173	-0.12836919047908202	
13.545	-0.161	-0.14790349404041503	
13.55	-0.217	-0.1653011833019522	
13.555	-0.179	-0.1772881156230837	
13.56	-0.110	-0.1805092057148256	
13.565	-0.124	-0.1756139224004108	
13.57	-0.168	-0.1651046243801394	
13.575	-0.127	-0.1537068921829416	
13.58	-0.112	-0.14669616924438933	
13.585	-0.093	-0.1374819928432362	
13.59	0.010	-0.11837582633917315	
13.595	-0.020	-0.09188111576251423	
13.6	-0.145	-0.07232425273664542	
13.605	-0.275	-0.07434552361523536	
13.61	-0.228	-0.10350204746375878	
13.615	-0.200	-0.14359627456733176	
13.62	-0.164	-0.17311765429160578	
13.625	-0.003	-0.17766950343456947	
13.63	0.070	-0.15365531201062832	
13.635	0.065	-0.10551257014430952	
13.64	0.137	-0.04438963477379712	
13.645	0.124	0.015139777977582758	
13.65	0.070	0.05965708495125924	
13.655	0.131	0.0916595533400023	
13.66	0.204	0.11555283053773896	
13.665	0.175	0.1363802795159985	
13.67	0.087	0.15181156363257642	
13.675	0.186	0.15834370848546325	
13.68	0.181	0.160355714907674	
13.685	0.130	0.1614297093326583	
13.69	0.226	0.1656179652881507	
13.695	0.327	0.17920764550669208	
13.7	0.232	0.20064996776083413	
13.705	0.263	0.22562689108152992	
13.71	0.369	0.24857895886436912	
13.715	0.379	0.2754014321089915	
13.72	0.357	0.30680022923971584	
13.725	0.554	0.34434911060344875	
13.73	0.589	0.3913771616158782	
13.735	0.486	0.44343159455073794	
13.74	0.573	0.48858492228187583	
13.745	0.515	0.5191745263912071	
13.75	0.322	0.5246560555234596	
13.755	0.198	0.4946098617299424	
13.76	0.232	0.43452210932033963	
13.765	0.105	0.3574233193347178	
13.77	-0.043	0.27184173814701074	
13.775	-0.051	0.18127555330925707	
13.78	-0.090	0.0903544030006379	
13.785	-0.156	0.009536334148755078	
13.79	-0.142	-0.05441713326211388	
13.795	-0.124	-0.10188811262556925	
13.8	-0.164	-0.1342438094429198	
13.805	-0.168	-0.15230759284326795	
13.81	-0.084	-0.1585594944138396	
13.815	-0.095	-0.1555757743770179	
13.82	-0.135	-0.14305619833722816	
13.825	-0.072	-0.12876625700229574	
13.83	-0.095	-0.11672727949253492	
13.835	-0.121	-0.1084008919642418	
13.84	-0.078	-0.1003966795988685	
13.845	-0.058	-0.0939855884089387	
13.85	-0.101	-0.0892372002350009	
13.855	-0.130	-0.08723945755602223	
13.86	-0.100	-0.08962565221374791	
13.865	-0.152	-0.09963245752854649	
13.87	-0.190	-0.11298138588596163	
13.875	-0.162	-0.12775531269414003	
13.88	-0.193	-0.14680381459933595	
13.885	-0.211	-0.16437017094169315	
13.89	-0.147	-0.175325579777009	
13.895	-0.161	-0.18003642537082262	
13.9	-0.185	-0.18127776081601105	
13.905	-0.156	-0.17816193767195637	
13.91	-0.130	-0.17160628507839304	
13.915	-0.194	-0.1677127032481171	
13.92	-0.208	-0.16796686244066794	
13.925	-0.118	-0.16767833192272702	
13.93	-0.080	-0.16384292486322954	
13.935	-0.126	-0.15041750000702325	
13.94	-0.103	-0.1342636905060673	
13.945	-0.184	-0.12504150075118056	
13.95	-0.275	-0.13437290379986105	
13.955	-0.255	-0.15813648532914462	
13.96	-0.112	-0.18052763941650862	
13.965	-0.078	-0.18675190711726197	
13.97	-0.068	-0.1699800958627377	
13.975	0.047	-0.13560219327034448	
13.98	0.088	-0.09086846678820484	
13.985	0.056	-0.04048531746584052	
13.99	0.177	0.012799209243960682	
13.995	0.174	0.06199698221275983	
14.0	0.125	0.10255465323960264	
14.005	0.082	0.12987503410636753	
14.01	0.162	0.14051453233777145	
14.015	0.130	0.14216026018005773	
14.02	0.116	0.141994195816197	
14.025	0.267	0.14748950522485796	
14.03	0.238	0.16109550815222418	
14.035	0.181	0.18044426001056005	
14.04	0.288	0.1998796166130715	
14.045	0.351	0.22302039623029915	
14.05	0.324	0.25148365734597916	
14.055	0.431	0.28793428851619596	
14.06	0.644	0.3375862759537708	
14.065	0.606	0.4041003010949301	
14.07	0.589	0.475982846154365	
14.075	0.741	0.5425272752355288	
14.08	0.643	0.598044690587487	
14.085	0.496	0.6304138977302411	
14.09	0.528	0.6328972878566321	
14.095	0.453	0.6089784494792603	
14.1	0.256	0.5604631429108213	
14.105	0.172	0.4879476585381234	
14.11	0.110	0.39652835406095577	
14.115	-0.060	0.2900808523926616	
14.12	-0.130	0.1790443104016592	
14.125	-0.063	0.07551737781778407	
14.13	-0.147	-0.009963263474763324	
14.135	-0.165	-0.07449555554160525	
14.14	-0.103	-0.1170779110838464	
14.145	-0.124	-0.14005678340832356	
14.15	-0.145	-0.1504775908401777	
14.155	-0.103	-0.14900860815750033	
14.16	-0.083	-0.14051493222574285	
14.165	-0.104	-0.12990424567526598	
14.17	-0.129	-0.11992094111930392	
14.175	-0.098	-0.11153553480867534	
14.18	-0.092	-0.10799244486496483	
14.185	-0.124	-0.10646819003366828	
14.19	-0.086	-0.10209841049330938	
14.195	-0.075	-0.1000897561666664	
14.2	-0.148	-0.10046966370618401	
14.205	-0.156	-0.10400797058729293	
14.21	-0.126	-0.11252969074960344	
14.215	-0.179	-0.1259098169201046	
14.22	-0.240	-0.1419152260548788	
14.225	-0.181	-0.15952256279919835	
14.23	-0.202	-0.17899949249278763	
14.235	-0.242	-0.19347907347638596	
14.24	-0.194	-0.20307110883627058	
14.245	-0.167	-0.20808402258785233	
14.25	-0.226	-0.2094996451883917	
14.255	-0.217	-0.20698175020138376	
14.26	-0.193	-0.20650224648539897	
14.265	-0.190	-0.20795916349355076	
14.27	-0.083	-0.19890037206154293	
14.275	0.052	-0.16943294485249116	
14.28	-0.048	-0.12804202053193053	
14.285	-0.216	-0.09657474067953509	
14.29	-0.245	-0.09302543431251031	
14.295	-0.196	-0.11706095347475327	
14.3	-0.182	-0.14758206404529156	
14.305	-0.129	-0.16493817860322063	
14.31	-0.038	-0.16340502993070805	
14.315	0.000	-0.1460363039942511	
14.32	-0.008	-0.11094513686755028	
14.325	0.128	-0.06533558534797906	
14.33	0.093	-0.018080169181477996	
14.335	-0.003	0.021344978595045375	
14.34	0.206	0.054104061934750515	
14.345	0.181	0.08599042693288499	
14.35	0.047	0.11225795862218073	
14.355	0.044	0.12105522992708852	
14.36	0.160	0.11770086054139045	
14.365	0.156	0.11488819859113958	
14.37	0.171	0.12399748669967284	
14.375	0.351	0.14676741343892824	
14.38	0.292	0.18192770489180699	
14.385	0.243	0.21927053951421363	
14.39	0.417	0.255142900960811	
14.395	0.516	0.29803494474821624	
14.4	0.467	0.3502300134560961	
14.405	0.634	0.4100722383242509	
14.41	0.731	0.4787375996866954	
14.415	0.609	0.5448554825085666	
14.42	0.515	0.5929423674811916	
14.425	0.626	0.61374840384289	
14.43	0.502	0.6119411740662681	
14.435	0.334	0.5882666921551735	
14.44	0.290	0.5390883806369189	
14.445	0.235	0.4670130916367904	
14.45	0.075	0.38127266619372185	
14.455	0.010	0.2900549331619964	
14.46	0.009	0.19667947281550546	
14.465	-0.081	0.10891108504673712	
14.47	-0.150	0.033025638348816666	
14.475	-0.057	-0.02828934111334557	
14.48	-0.142	-0.07407123801743579	
14.485	-0.193	-0.10863723596425591	
14.49	-0.126	-0.1328990365022309	
14.495	-0.113	-0.14704220589889894	
14.5	-0.164	-0.1526728131340262	
14.505	-0.106	-0.14990224747330494	
14.51	-0.055	-0.14038944689352145	
14.515	-0.132	-0.1290903009740576	
14.52	-0.156	-0.11992853604657366	
14.525	-0.068	-0.11434970824320777	
14.53	-0.119	-0.11310446636094441	
14.535	-0.162	-0.11357757209281562	
14.54	-0.113	-0.11492104867634244	
14.545	-0.139	-0.12010430674761045	
14.55	-0.219	-0.13163742560972014	
14.555	-0.229	-0.14688563024811202	
14.56	-0.187	-0.16644503279367784	
14.565	-0.243	-0.18808042881714385	
14.57	-0.260	-0.2048759171348802	
14.575	-0.188	-0.21736841779373225	
14.58	-0.240	-0.22713385284836532	
14.585	-0.239	-0.23154287392265666	
14.59	-0.181	-0.2298956448081336	
14.595	-0.226	-0.22613677787874856	
14.6	-0.320	-0.22865263267007532	
14.605	-0.254	-0.23685150468576363	
14.61	-0.122	-0.2404312521631362	
14.615	-0.022	-0.2250910488368817	
14.62	0.018	-0.1808485339463105	
14.625	0.068	-0.120348056894405	
14.63	-0.194	-0.07219240686266054	
14.635	-0.317	-0.06560653185131887	
14.64	-0.225	-0.09587999484629549	
14.645	-0.170	-0.13709648087432966	
14.65	-0.161	-0.16765392639119764	
14.655	-0.129	-0.1778553066817038	
14.66	-0.097	-0.17341087149134976	
14.665	-0.101	-0.1611112887093823	
14.67	-0.086	-0.14290072834761475	
14.675	0.035	-0.1153198632627928	
14.68	0.003	-0.08411883756425276	
14.685	-0.087	-0.05561674779135613	
14.69	-0.026	-0.03790697194460304	
14.695	0.038	-0.02806501715504598	
14.7	-0.035	-0.01966963822759142	
14.705	0.006	-0.010907886009531355	
14.71	0.131	0.0016174439083905072	
14.715	0.070	0.01992362544459699	
14.72	0.029	0.04005048830570693	
14.725	0.201	0.060655942131099636	
14.73	0.235	0.08693622371742583	
14.735	0.247	0.1254081918335058	
14.74	0.408	0.17706485781950265	
14.745	0.458	0.23894646756405366	
14.75	0.394	0.3013587479582216	
14.755	0.486	0.36005729576878254	
14.76	0.530	0.40958796341066245	
14.765	0.423	0.4469491292044252	
14.77	0.351	0.46303279783096596	
14.775	0.408	0.45860423509669906	
14.78	0.276	0.4359523558053041	
14.785	0.073	0.3914061802278046	
14.79	0.023	0.32098101302248994	
14.795	-0.100	0.22594143292197783	
14.8	-0.243	0.11642882805979603	
14.805	-0.262	0.005026071498037946	
14.81	-0.246	-0.09744364090228591	
14.815	-0.332	-0.18295269614802553	
14.82	-0.347	-0.2479280487793165	
14.825	-0.255	-0.2904539354912805	
14.83	-0.265	-0.31299486279137456	
14.835	-0.284	-0.31550776962621385	
14.84	-0.196	-0.30405843660032206	
14.845	-0.153	-0.2810660363834422	
14.85	-0.205	-0.2524965486495587	
14.855	-0.171	-0.22400856493513452	
14.86	-0.135	-0.19851830464089135	
14.865	-0.139	-0.17990799892743317	
14.87	-0.162	-0.1629180143495108	
14.875	-0.115	-0.1485379332989496	
14.88	-0.098	-0.13899141086519923	
14.885	-0.150	-0.1314646024758993	
14.89	-0.112	-0.12310725308895538	
14.895	-0.127	-0.121094165853366	
14.9	-0.177	-0.12446143105107352	
14.905	-0.179	-0.13201115509727357	
14.91	-0.142	-0.1415330746720187	
14.915	-0.165	-0.15189491005307637	
14.92	-0.223	-0.1599140702326714	
14.925	-0.145	-0.16753637632511809	
14.93	-0.167	-0.17398835644807756	
14.935	-0.170	-0.17546831706560578	
14.94	-0.142	-0.17109110169535222	
14.945	-0.174	-0.1670878843753807	
14.95	-0.158	-0.16648742034672642	
14.955	-0.032	-0.15698752015816148	
14.96	0.174	-0.12547281664431928	
14.965	0.053	-0.07191695062649014	
14.97	-0.158	-0.025974532046324387	
14.975	-0.217	-0.018542752861741684	
14.98	-0.223	-0.050996702031748394	
14.985	-0.207	-0.09848531617700096	
14.99	-0.095	-0.13505693495500193	
14.995	-0.009	-0.14705806235315222	
15.0	-0.006	-0.134494419762078	
15.005	0.111	-0.095978417655056	
15.01	0.221	-0.039481103598528744	
15.015	0.149	0.026046465391753825	
15.02	0.133	0.08405658747192295	
15.025	0.243	0.12952004603955414	
15.03	0.226	0.16498595311918524	
15.035	0.204	0.19247630620269685	
15.04	0.331	0.2179537654821256	
15.045	0.285	0.2419344538526693	
15.05	0.215	0.25845824162837205	
15.055	0.227	0.2649985886666467	
15.06	0.340	0.26653331897192634	
15.065	0.392	0.27506650436860636	
15.07	0.371	0.2990692110071867	
15.075	0.513	0.33352799217161516	
15.08	0.536	0.3759927883671653	
15.085	0.533	0.4244853960474766	
15.09	0.655	0.476955159065651	
15.095	0.742	0.5329252813747007	
15.1	0.660	0.5884709206063939	
15.105	0.655	0.6360147355658141	
15.11	0.609	0.6614871086685798	
15.115	0.490	0.6580114096209708	
15.12	0.457	0.6300874656998636	
15.125	0.440	0.5875385162508159	
15.13	0.290	0.5309398626821312	
15.135	0.105	0.4564663367285079	
15.14	0.050	0.36298182284587854	
15.145	-0.011	0.2589096908311206	
15.15	-0.113	0.1534516839933861	
15.155	-0.119	0.05906477476752403	
15.16	-0.106	-0.018461141222562264	
15.165	-0.101	-0.07598830326766204	
15.17	-0.153	-0.11089715718474966	
15.175	-0.060	-0.12642028410646933	
15.18	-0.074	-0.12905953366118433	
15.185	-0.119	-0.12253835040326953	
15.19	-0.040	-0.10997538116383612	
15.195	-0.029	-0.09508504907686977	
15.2	-0.104	-0.08160133465239315	
15.205	-0.072	-0.07193241903184319	
15.21	-0.011	-0.06543682859587781	
15.215	-0.043	-0.05903888611211938	
15.22	-0.080	-0.05192410624578091	
15.225	0.003	-0.0463831523902029	
15.23	-0.074	-0.0440819817756872	
15.235	-0.150	-0.049584457326985784	
15.24	-0.118	-0.06194604023074931	
15.245	-0.098	-0.08107209084987853	
15.25	-0.158	-0.09863556862086434	
15.255	-0.142	-0.11290722584922322	
15.26	-0.118	-0.12340795535807314	
15.265	-0.161	-0.13408456968414031	
15.27	-0.158	-0.14092353400791244	
15.275	-0.049	-0.14032093475065438	
15.28	-0.095	-0.13310203179632998	
15.285	-0.159	-0.12362458904201307	
15.29	-0.083	-0.11589149330861183	
15.295	-0.031	-0.10905552167874666	
15.3	-0.028	-0.09569478120720237	
15.305	0.064	-0.0688751570842379	
15.31	0.015	-0.03735567938501949	
15.315	-0.173	-0.022173036228183896	
15.32	-0.242	-0.03598255660337197	
15.325	-0.155	-0.07024229297261665	
15.33	-0.112	-0.10809917625292015	
15.335	-0.115	-0.12968790222665463	
15.34	0.041	-0.12781574158391484	
15.345	0.142	-0.09898938935377241	
15.35	0.110	-0.048786986723566274	
15.355	0.157	0.011104086451759703	
15.36	0.276	0.07173542138965192	
15.365	0.185	0.12580975226733618	
15.37	0.159	0.16797185606091902	
15.375	0.321	0.1978146284492742	
15.38	0.290	0.22390199861322416	
15.385	0.134	0.24223261152179765	
15.39	0.255	0.24717093155226214	
15.395	0.284	0.24602889781284948	
15.4	0.178	0.2431947993867856	
15.405	0.233	0.24009097493006334	
15.41	0.356	0.24174725337298159	
15.415	0.386	0.25584745533781694	
15.42	0.414	0.28800258666753803	
15.425	0.554	0.33478989711915785	
15.43	0.536	0.38789371157640856	
15.435	0.482	0.4392785506573192	
15.44	0.605	0.4841624050900263	
15.445	0.568	0.5189806252351721	
15.45	0.457	0.5402134686226105	
15.455	0.531	0.5461051697756317	
15.46	0.505	0.5426980326648267	
15.465	0.307	0.5228284775831509	
15.47	0.140	0.47599162592799993	
15.475	0.152	0.40173628831834507	
15.48	0.017	0.3099076447497666	
15.485	-0.080	0.21132786150087424	
15.49	-0.054	0.1181236860418353	
15.495	-0.084	0.03698776303189936	
15.5	-0.155	-0.029694871430515097	
15.505	-0.132	-0.07891694411350317	
15.51	-0.095	-0.11134481607886537	
15.515	-0.118	-0.13007259604391302	
15.52	-0.109	-0.13396628438578959	
15.525	-0.003	-0.12532448409416652	
15.53	0.007	-0.10504787598348839	
15.535	-0.081	-0.07962441016332014	
15.54	-0.003	-0.05696391872908735	
15.545	0.000	-0.04003374873754706	
15.55	-0.045	-0.029626995229352446	
15.555	-0.032	-0.021968015919677272	
15.56	0.018	-0.017409452730197554	
15.565	-0.038	-0.01701032973956562	
15.57	-0.087	-0.01896593593453196	
15.575	-0.054	-0.0264116561577005	
15.58	-0.077	-0.040023444839477056	
15.585	-0.126	-0.05556962127250741	
15.59	-0.075	-0.06900919163225666	
15.595	-0.077	-0.08004065754182045	
15.6	-0.124	-0.08957396427647119	
15.605	-0.145	-0.09598625970569709	
15.61	-0.077	-0.10443884611778687	
15.615	-0.089	-0.10997430354951318	
15.62	-0.126	-0.10894710141918149	
15.625	-0.110	-0.10643468244013561	
15.63	-0.110	-0.10903135479555034	
15.635	-0.127	-0.11255433087358126	
15.64	-0.025	-0.10799068182589064	
15.645	-0.017	-0.09604943923767686	
15.65	-0.077	-0.08160147141535107	
15.655	-0.150	-0.07096946205269679	
15.66	-0.188	-0.07843030276729897	
15.665	-0.214	-0.10404145754638579	
15.67	-0.171	-0.13294489974702367	
15.675	-0.029	-0.14733220577853	
15.68	0.017	-0.14004634714844144	
15.685	-0.017	-0.11162790674340715	
15.69	0.143	-0.06791575618595601	
15.695	0.174	-0.015012930515566677	
15.7	0.038	0.03628750895015941	
15.705	0.096	0.07304484589306287	
15.71	0.211	0.09867803942449933	
15.715	0.185	0.12291097521328281	
15.72	0.122	0.14499025516077996	
15.725	0.243	0.1627131773608042	
15.73	0.233	0.17794244895875083	
15.735	0.101	0.18831351890004472	
15.74	0.223	0.19309625319920842	
15.745	0.284	0.19600236724896575	
15.75	0.191	0.2042880114481588	
15.755	0.308	0.21907516047496983	
15.76	0.386	0.24067463052998286	
15.765	0.379	0.2718941577632552	
15.77	0.347	0.30702666241599885	
15.775	0.539	0.34371083469553054	
15.78	0.562	0.3879103663351318	
15.785	0.470	0.4353641877664918	
15.79	0.583	0.4781033029574299	
15.795	0.560	0.5109167489869446	
15.8	0.406	0.5273099360817433	
15.805	0.360	0.5211128770600395	
15.81	0.287	0.48756183146111476	
15.815	0.090	0.4248677632706507	
15.82	0.044	0.34112446490432485	
15.825	0.032	0.2486567882856023	
15.83	-0.045	0.15783889033121432	
15.835	-0.173	0.07246720787209723	
15.84	-0.127	-0.003872668110728336	
15.845	-0.152	-0.0681649289866685	
15.85	-0.194	-0.11861533889549873	
15.855	-0.152	-0.15079582619389692	
15.86	-0.101	-0.16549720676466398	
15.865	-0.124	-0.1671168036403766	
15.87	-0.115	-0.15778227063917982	
15.875	-0.023	-0.13839011086317615	
15.88	-0.081	-0.1182174831155115	
15.885	-0.109	-0.09947206888346158	
15.89	-0.042	-0.08487619356354356	
15.895	-0.058	-0.0752382506135579	
15.9	-0.126	-0.0716012001139476	
15.905	-0.078	-0.071772812290546	
15.91	-0.034	-0.07254623951327163	
15.915	-0.097	-0.07412640432043074	
15.92	-0.155	-0.07675333673784634	
15.925	-0.119	-0.08641971884122775	
15.93	-0.133	-0.1022413778849839	
15.935	-0.179	-0.11742671862234699	
15.94	-0.144	-0.1298636308474257	
15.945	-0.142	-0.14128109193189287	
15.95	-0.158	-0.14958270759502704	
15.955	-0.138	-0.15172074278856457	
15.96	-0.090	-0.1475787597131241	
15.965	-0.162	-0.1441667339633332	
15.97	-0.184	-0.14170183187383398	
15.975	-0.126	-0.14239508498626088	
15.98	-0.109	-0.14429949177181361	
15.985	-0.080	-0.13841623510271697	
15.99	0.097	-0.11478629709364134	
15.995	0.033	-0.07730509380961438	
16.0	-0.141	-0.04465978560327559	
16.005	-0.187	-0.037708867636382294	
16.01	-0.129	-0.05756095968351601	
16.015	-0.106	-0.0842005386902874	
16.02	-0.037	-0.09767074298039592	
16.025	0.111	-0.08733834101964894	
16.03	0.122	-0.05532990028020041	
16.035	0.059	-0.01044157047155267	
16.04	0.229	0.038235099376758945	
16.045	0.226	0.08767418135147757	
16.05	0.090	0.12933404516189975	
16.055	0.165	0.15533818558916454	
16.06	0.201	0.168430435813324	
16.065	0.177	0.1747637488180075	
16.07	0.160	0.18034192738693128	
16.075	0.255	0.186644377834908	
16.08	0.259	0.19563593910889873	
16.085	0.221	0.2095937571735133	
16.09	0.348	0.22924899429760098	
16.095	0.331	0.25263124615728605	
16.1	0.258	0.2733573127204331	
16.105	0.402	0.2943880023583171	
16.11	0.473	0.32140786390746756	
16.115	0.476	0.3557541695177664	
16.12	0.455	0.3963761213789032	
16.125	0.548	0.4336267663170642	
16.13	0.551	0.4666026481946653	
16.135	0.482	0.49461656501093043	
16.14	0.609	0.518251235290742	
16.145	0.499	0.5335913284995805	
16.15	0.287	0.5283550192659259	
16.155	0.252	0.4923824165198151	
16.16	0.188	0.429355686519614	
16.165	-0.003	0.3447502509721826	
16.17	-0.075	0.24640495220114889	
16.175	-0.066	0.14360138838612968	
16.18	-0.121	0.04861238902034727	
16.185	-0.199	-0.03032318364286462	
16.19	-0.144	-0.09076786740656186	
16.195	-0.150	-0.1354255265099607	
16.2	-0.187	-0.16255507475038433	
16.205	-0.162	-0.1755818728975821	
16.21	-0.118	-0.17769897769481222	
16.215	-0.144	-0.1742154035880598	
16.22	-0.155	-0.16453046659851522	
16.225	-0.064	-0.15145440684614425	
16.23	-0.106	-0.137431848130114	
16.235	-0.136	-0.12427229401197369	
16.24	-0.042	-0.1117801311257304	
16.245	-0.054	-0.0994914507868263	
16.25	-0.110	-0.08853217155315123	
16.255	-0.109	-0.08155978991053286	
16.26	-0.106	-0.08376126743199075	
16.265	-0.145	-0.0932236329726974	
16.27	-0.193	-0.10547624110507132	
16.275	-0.158	-0.12348641772318429	
16.28	-0.208	-0.14447981388926953	
16.285	-0.226	-0.16521123962745105	
16.29	-0.148	-0.17975088833265174	
16.295	-0.184	-0.18756021922194407	
16.3	-0.184	-0.19151874004447178	
16.305	-0.135	-0.1864798852064518	
16.31	-0.119	-0.17579086561977772	
16.315	-0.193	-0.16727808594713767	
16.32	-0.203	-0.16342779619716363	
16.325	-0.078	-0.16045376874318296	
16.33	0.020	-0.14851907009295007	
16.335	-0.034	-0.11819960237161826	
16.34	0.017	-0.07971102182884396	
16.345	-0.127	-0.05461941610697915	
16.35	-0.245	-0.055582996031421424	
16.355	-0.170	-0.07943080588596697	
16.36	-0.077	-0.1067667042451146	
16.365	-0.074	-0.12232198739958663	
16.37	-0.054	-0.11738410516583048	
16.375	0.052	-0.09840394087995383	
16.38	0.012	-0.07060045171569021	
16.385	0.001	-0.040228959444779125	
16.39	0.035	-0.012628349583134673	
16.395	0.053	0.006366590523213096	
16.4	-0.020	0.019373525190769833	
16.405	0.088	0.0296477079784303	
16.41	0.174	0.044241770153822135	
16.415	0.124	0.06557860524383113	
16.42	0.104	0.09064621933451789	
16.425	0.269	0.11565436025418964	
16.43	0.217	0.1433191529940216	
16.435	0.136	0.16876262993606703	
16.44	0.273	0.1884526608576775	
16.445	0.273	0.20532265558019985	
16.45	0.278	0.22534316662608822	
16.455	0.450	0.25473387852125906	
16.46	0.508	0.300225433005533	
16.465	0.482	0.35451225402009057	
16.47	0.550	0.4107048811703158	
16.475	0.644	0.4666721784184313	
16.48	0.495	0.5132417147776542	
16.485	0.380	0.5347632299703305	
16.49	0.457	0.5284769141053952	
16.495	0.350	0.5012851809264385	
16.5	0.156	0.45432827845308865	
16.505	0.120	0.38671818972990435	
16.51	-0.013	0.29918484417269	
16.515	-0.100	0.19853322321540667	
16.52	-0.141	0.09772902890587866	
16.525	-0.152	0.0066423534813595565	
16.53	-0.232	-0.07272580808665569	
16.535	-0.280	-0.14016864522013595	
16.54	-0.213	-0.19053371968476723	
16.545	-0.219	-0.22471245859055974	
16.55	-0.229	-0.2426128031209822	
16.555	-0.136	-0.24126801059558745	
16.56	-0.130	-0.22481583719038212	
16.565	-0.200	-0.20645055021770112	
16.57	-0.179	-0.18930214521281274	
16.575	-0.089	-0.1743697645631029	
16.58	-0.107	-0.15969239712290267	
16.585	-0.129	-0.1422032085421891	
16.59	-0.043	-0.1235699906764201	
16.595	-0.061	-0.1066726500829148	
16.6	-0.187	-0.09563930591019337	
16.605	-0.185	-0.09834468858773873	
16.61	-0.148	-0.11478636902927389	
16.615	-0.217	-0.13640793269409926	
16.62	-0.223	-0.15734435160940285	
16.625	-0.165	-0.17537704661709064	
16.63	-0.205	-0.18964905108219343	
16.635	-0.260	-0.20021601877389056	
16.64	-0.188	-0.20759845217332304	
16.645	-0.193	-0.2136453068030952	
16.65	-0.249	-0.21561492137535493	
16.655	-0.211	-0.21635451689650534	
16.66	-0.257	-0.2197873494823334	
16.665	-0.278	-0.22940519122032563	
16.67	-0.200	-0.2373477421561193	
16.675	0.101	-0.22234759177032065	
16.68	0.097	-0.17260863772728527	
16.685	-0.020	-0.10323797475609035	
16.69	-0.121	-0.04965728039524756	
16.695	-0.246	-0.04066680748900356	
16.7	-0.297	-0.07161441547890686	
16.705	-0.188	-0.11835836881171946	
16.71	-0.100	-0.15476261808662262	
16.715	-0.106	-0.17037013544934632	
16.72	-0.081	-0.16235788854688377	
16.725	-0.008	-0.13938315829813547	
16.73	-0.042	-0.11263323952047057	
16.735	-0.055	-0.08423216023094135	
16.74	0.033	-0.05760401002835971	
16.745	-0.002	-0.03563115816170326	
16.75	-0.072	-0.021643673557689647	
16.755	0.055	-0.012365275964879616	
16.76	0.156	0.0032677969642434953	
16.765	0.058	0.027600368960138465	
16.77	0.059	0.051592424406549924	
16.775	0.175	0.07163988083266204	
16.78	0.124	0.08939567815493694	
16.785	0.041	0.10373246574732868	
16.79	0.191	0.11237216093398388	
16.795	0.318	0.12842293095670518	
16.8	0.319	0.16340757951731208	
16.805	0.504	0.2216000209526123	
16.81	0.548	0.29423529612096866	
16.815	0.507	0.3706444446641212	
16.82	0.522	0.43859724551208235	
16.825	0.568	0.4895700420712772	
16.83	0.392	0.5163931899295913	
16.835	0.321	0.5117681298327321	
16.84	0.391	0.48332065715082745	
16.845	0.201	0.4383874727374129	
16.85	0.010	0.37142693764016055	
16.855	-0.055	0.27953650191926815	
16.86	-0.093	0.1741999524353629	
16.865	-0.168	0.06874448965345398	
16.87	-0.219	-0.024397794041611714	
16.875	-0.199	-0.10049640494289631	
16.88	-0.248	-0.16249932343429538	
16.885	-0.295	-0.20815628575295111	
16.89	-0.229	-0.23878107857897674	
16.895	-0.203	-0.2565803318078917	
16.9	-0.274	-0.2604396501692505	
16.905	-0.219	-0.25652263281345644	
16.91	-0.181	-0.24886569957822152	
16.915	-0.208	-0.23816123063663977	
16.92	-0.202	-0.22340319669445424	
16.925	-0.141	-0.2086039920622265	
16.93	-0.170	-0.19546165197652005	
16.935	-0.199	-0.18409999170459035	
16.94	-0.118	-0.17386933073295546	
16.945	-0.129	-0.1646077656133659	
16.95	-0.199	-0.1573617493719375	
16.955	-0.174	-0.154557992017293	
16.96	-0.176	-0.15793507810645593	
16.965	-0.217	-0.1671004958007824	
16.97	-0.223	-0.17838054860747715	
16.975	-0.177	-0.18767452831295683	
16.98	-0.229	-0.1974351799266625	
16.985	-0.254	-0.20704725036078098	
16.99	-0.187	-0.2139242342805114	
16.995	-0.170	-0.21561209053339456	
17.0	-0.223	-0.21329536144823302	
17.005	-0.205	-0.20758891906636823	
17.01	-0.171	-0.20396927576948032	
17.015	-0.171	-0.20004044950836525	
17.02	-0.057	-0.18637367924132145	
17.025	0.055	-0.15370661301531258	
17.03	-0.048	-0.11239759895267606	
17.035	-0.223	-0.08306299346156132	
17.04	-0.307	-0.08801301268865946	
17.045	-0.275	-0.12660266534852627	
17.05	-0.203	-0.17323882408385466	
17.055	-0.121	-0.19860026214011284	
17.06	-0.029	-0.1959596557013007	
17.065	0.020	-0.16900382683843013	
17.07	0.023	-0.12139646694313769	
17.075	0.146	-0.06372979266184721	
17.08	0.113	-0.007386279663100558	
17.085	0.027	0.04094517249950906	
17.09	0.131	0.07301715748201179	
17.095	0.094	0.09140900858218526	
17.1	0.104	0.10171065193032518	
17.105	0.168	0.11238790940587087	
17.11	0.273	0.12906766106436973	
17.115	0.247	0.15596334117025507	
17.12	0.227	0.18757888230865608	
17.125	0.325	0.21729974605054753	
17.13	0.302	0.24360778170785663	
17.135	0.310	0.26893646697143103	
17.14	0.473	0.2990628262349603	
17.145	0.467	0.3364202872286769	
17.15	0.475	0.3776785716038418	
17.155	0.570	0.42240034005316457	
17.16	0.618	0.4700840390565921	
17.165	0.620	0.5159269988375825	
17.17	0.635	0.5595678536111497	
17.175	0.654	0.5973377628131191	
17.18	0.545	0.6175869807092409	
17.185	0.357	0.6108641345246544	
17.19	0.339	0.5700621491776453	
17.195	0.252	0.5034460154636787	
17.2	0.032	0.41663112352214227	
17.205	-0.011	0.3133709747753011	
17.21	-0.071	0.20212829746102262	
17.215	-0.162	0.09293772517259165	
17.22	-0.190	-0.0034553872326574964	
17.225	-0.126	-0.07962515776454857	
17.23	-0.158	-0.13235420035361373	
17.235	-0.173	-0.16212289810463526	
17.24	-0.119	-0.1729251060940363	
17.245	-0.159	-0.1745217329438623	
