Time	Potential	EKG	Unnamed: 3
0.0	0.345	0.016537286732913194	
0.005	0.244	0.063589205277374	
0.01	0.236	0.12467413992651376	
0.015	0.435	0.18569622296967583	
0.02	0.484	0.2539069267296593	
0.025	0.438	0.3252875130092827	
0.03	0.599	0.3925769812173896	
0.035	0.602	0.4553933858134772	
0.04	0.469	0.5060883073514817	
0.045	0.490	0.5321364798109154	
0.05	0.481	0.5368579732459935	
0.055	0.235	0.5152554606200221	
0.06	0.018	0.45550890289248924	
0.065	-0.020	0.35504194720682525	
0.07	-0.098	0.23280458319558506	
0.075	-0.164	0.1120294613008722	
0.08	-0.101	0.00986807821541493	
0.085	-0.109	-0.06549693751533738	
0.09	-0.223	-0.11719980279021623	
0.095	-0.217	-0.15372951743049806	
0.1	-0.161	-0.18190475275288348	
0.105	-0.211	-0.19797466257401705	
0.11	-0.188	-0.2044970336709644	
0.115	-0.103	-0.19964625601714303	
0.12	-0.155	-0.18834163272102541	
0.125	-0.200	-0.17618844285191704	
0.13	-0.171	-0.16889027711539334	
0.135	-0.150	-0.16748689859996757	
0.14	-0.177	-0.16748474376754408	
0.145	-0.084	-0.16157294899589303	
0.15	-0.017	-0.14471410558021888	
0.155	-0.152	-0.12525450327535675	
0.16	-0.150	-0.11254614488749454	
0.165	-0.109	-0.10937343170855802	
0.17	-0.213	-0.11748153716223142	
0.175	-0.248	-0.13639201036914822	
0.18	-0.158	-0.15663056923508833	
0.185	-0.197	-0.17542020457330115	
0.19	-0.283	-0.19177249002937896	
0.195	-0.187	-0.2054819786529346	
0.2	-0.101	-0.20948718461254434	
0.205	-0.217	-0.20346104394870443	
0.21	-0.242	-0.19763614534464624	
0.215	-0.147	-0.19511524158325935	
0.22	-0.029	-0.1865220064541635	
0.225	0.201	-0.14855909526245933	
0.23	0.447	-0.061410409768542555	
0.235	0.313	0.05566506192166401	
0.24	-0.115	0.1449209560065764	
0.245	-0.213	0.15948077408710387	
0.25	-0.171	0.10470279587290866	
0.255	-0.214	0.01941395792517728	
0.26	-0.156	-0.05873246199598762	
0.265	0.000	-0.1088906579362479	
0.27	-0.020	-0.12450848139308762	
0.275	-0.075	-0.11478355357883621	
0.28	0.059	-0.0903603632247385	
0.285	0.082	-0.0581974581164622	
0.29	-0.051	-0.026154795490570006	
0.295	-0.005	-0.002492172615933019	
0.3	0.015	0.006842485732082109	
0.305	-0.063	0.005326573404850474	
0.31	-0.032	-0.0008333522273100606	
0.315	0.162	0.00021809321720242145	
0.32	0.136	0.0164939793640538	
0.325	0.088	0.04509492585285813	
0.33	0.360	0.08670399080816636	
0.335	0.400	0.14389220846856973	
0.34	0.264	0.2087503373713638	
0.345	0.417	0.26847982215752897	
0.35	0.530	0.3229509574694918	
0.355	0.482	0.37731853757014794	
0.36	0.589	0.4320828513823363	
0.365	0.777	0.4952564926848908	
0.37	0.675	0.5605419706455453	
0.375	0.505	0.6100032353305297	
0.38	0.539	0.6286274919083683	
0.385	0.482	0.6149457539050616	
0.39	0.204	0.5707561233862422	
0.395	0.131	0.495382941674422	
0.4	0.088	0.3919555569523724	
0.405	-0.132	0.27339732093276176	
0.41	-0.177	0.15003114299684916	
0.415	-0.072	0.039202899644129666	
0.42	-0.086	-0.04534371311762782	
0.425	-0.127	-0.09592428730589228	
0.43	-0.040	-0.11643406918283962	
0.435	-0.049	-0.11901941283924591	
0.44	-0.144	-0.11414733537283174	
0.445	-0.097	-0.10665776495786206	
0.45	-0.034	-0.10007450904408133	
0.455	-0.116	-0.09552277608019291	
0.46	-0.150	-0.09298678822730563	
0.465	-0.057	-0.09288372523464128	
0.47	-0.113	-0.09731987896755323	
0.475	-0.152	-0.10191451425739964	
0.48	-0.066	-0.10350248724966576	
0.485	-0.106	-0.10500573630738595	
0.49	-0.199	-0.11111106154932911	
0.495	-0.200	-0.1227098318644453	
0.5	-0.148	-0.14007777445974626	
0.505	-0.219	-0.15947084098740538	
0.51	-0.208	-0.1740131295311017	
0.515	-0.141	-0.18289720993437036	
0.52	-0.168	-0.186268706281031	
0.525	-0.234	-0.18793533686259867	
0.53	-0.156	-0.18654197092884856	
0.535	-0.124	-0.1839540595988241	
0.54	-0.223	-0.18009828119195398	
0.545	-0.174	-0.17676149097465085	
0.55	-0.035	-0.1690431070456893	
0.555	0.029	-0.14841840685520397	
0.56	0.056	-0.1050522575759067	
0.565	0.081	-0.1690431070456893	
0.57	-0.181	-0.1563962451580156	
0.575	-0.327	-0.02601054116734569	
0.58	-0.245	-0.07157530558738996	
0.585	-0.168	-0.1278708063661717	
0.59	-0.187	-0.1700917099794308	
0.595	-0.127	-0.18681229608558775	
0.6	0.001	-0.17998255972371852	
0.605	-0.068	-0.1563962451580156	
0.61	-0.011	-0.12115205514738474	
0.615	0.168	-0.07488110426835454	
0.62	0.099	-0.02212683259175192	
0.625	-0.071	0.02094403242279583	
0.63	0.021	0.04134126601526571	
0.635	0.039	0.042203585160787	
0.64	-0.064	0.03391556970606773	
0.645	-0.040	0.021065798154370645	
0.65	0.065	0.008036507298126173	
0.655	0.033	0.0017006726509778787	
0.66	0.062	0.008784562277612663	
0.665	0.244	0.03206336932289383	
0.67	0.226	0.06997390866376209	
0.675	0.172	0.11497095993881687	
0.68	0.372	0.16326685894398235	
0.685	0.479	0.22025816436567147	
0.69	0.398	0.2839884199281111	
0.695	0.492	0.34797481279157655	
0.7	0.568	0.40600188873644344	
0.705	0.362	0.44778625038733766	
0.71	0.261	0.4587061087531833	
0.715	0.362	0.43993483557595403	
0.72	0.233	0.4020808300396531	
0.725	-0.032	0.3450184769199252	
0.73	-0.043	0.2630777085709211	
0.735	-0.051	0.16526927078882073	
0.74	-0.171	0.06917828087166558	
0.745	-0.219	-0.016123812683053504	
0.75	-0.162	-0.09012012728955364	
0.755	-0.214	-0.14799732893709455	
0.76	-0.232	-0.18620783899010712	
0.765	-0.152	-0.20625856280752444	
0.77	-0.158	-0.21285402851979734	
0.775	-0.135	-0.2057801629795349	
0.78	-0.069	-0.18303622799669628	
0.785	-0.042	-0.1538220259505184	
0.79	-0.138	-0.1276720673360438	
0.795	-0.126	-0.10915743316772542	
0.8	-0.058	-0.09926904944352627	
0.805	-0.112	-0.09490579340063399	
0.81	-0.144	-0.0951607714755484	
0.815	-0.078	-0.09640533386834327	
0.82	-0.142	-0.10282915663087111	
0.825	-0.202	-0.1136846129226327	
0.83	-0.150	-0.12715143883351065	
0.835	-0.142	-0.14085179410339993	
0.84	-0.200	-0.15353108355058748	
0.845	-0.168	-0.1622009845270748	
0.85	-0.119	-0.1653580297976704	
0.855	-0.142	-0.16478800130965743	
0.86	-0.144	-0.15913975829880084	
0.865	-0.083	-0.1475231853158842	
0.87	-0.147	-0.13776355469987342	
0.875	-0.159	-0.13361648130714138	
0.88	-0.087	-0.12926352557058315	
0.885	0.068	-0.11682615818340683	
0.89	0.062	-0.08640964164198821	
0.895	0.000	-0.04429243681906374	
0.9	-0.061	-0.01443947690697702	
0.905	-0.199	-0.014706182339417045	
0.91	-0.234	-0.04317256572196765	
0.915	-0.144	-0.08460325328035564	
0.92	-0.080	-0.11866727817048879	
0.925	-0.077	-0.13256104927988038	
0.93	0.017	-0.12234595098071435	
0.935	0.062	-0.09381246413420988	
0.94	-0.005	-0.05936312081270036	
0.945	0.093	-0.022358860041764992	
0.95	0.201	0.01858333700724806	
0.955	0.128	0.061407214291447916	
0.96	0.094	0.09676820016651594	
0.965	0.235	0.12431573247295157	
0.97	0.152	0.1464289863145347	
0.975	0.122	0.15942363158587375	
0.98	0.186	0.16550192388246748	
0.985	0.258	0.17326745460787674	
0.99	0.174	0.18175450110426739	
0.995	0.212	0.19248174781124355	
1.0	0.310	0.2055461927415534	
1.005	0.328	0.2246080785170537	
1.01	0.337	0.25271064003989885	
1.015	0.481	0.2911683403650216	
1.02	0.542	0.33960454956444797	
1.025	0.505	0.39449175430851846	
1.03	0.502	0.44628903490938215	
1.035	0.519	0.4833053884489135	
1.04	0.211	0.48989542787961765	
1.045	0.026	0.4492856026675681	
1.05	0.042	0.3614415847004801	
1.055	-0.025	0.2538202659847939	
1.06	-0.136	0.14669074569490892	
1.065	-0.182	0.04796869072839981	
1.07	-0.185	-0.043273710289853884	
1.075	-0.275	-0.11936903383574188	
1.08	-0.263	-0.17887219942054128	
1.085	-0.220	-0.22169921020277608	
1.09	-0.181	-0.24487762125303353	
1.095	-0.236	-0.24772721712492357	
1.1	-0.234	-0.24267895234145642	
1.105	-0.171	-0.2380814567266995	
1.11	-0.182	-0.22725643350759364	
1.115	-0.158	-0.20913956614863655	
1.12	-0.046	-0.18826786035149995	
1.125	-0.064	-0.15929936522774824	
1.13	-0.139	-0.12792385839269696	
1.135	-0.064	-0.10776280527830331	
1.14	-0.003	-0.0918606393462684	
1.145	-0.017	-0.0706921847243376	
1.15	0.018	-0.04669080355413792	
1.155	0.044	-0.02513449938998262	
1.16	0.001	-0.005239656943962695	
1.165	0.018	0.010917213953466258	
1.17	0.032	0.018658800638145984	
1.175	-0.031	0.01964071518597229	
1.18	-0.049	0.01518981748668891	
1.185	-0.016	0.004247788954232633	
1.19	-0.025	-0.009994569331966364	
1.195	-0.028	-0.017624577239366356	
1.2	0.003	-0.020576697846855976	
1.205	-0.020	-0.02227299956722067	
1.21	-0.075	-0.02427942790852848	
1.215	-0.028	-0.027903955777465825	
1.22	0.059	-0.028393493743073605	
1.225	-0.016	-0.022495060542906196	
1.23	-0.040	-0.012652428955495405	
1.235	-0.135	-0.016713797470655045	
1.24	-0.271	-0.044222971394777696	
1.245	-0.274	-0.09256719905238857	
1.25	-0.194	-0.02844192726335323	
1.255	-0.173	-0.02844192726335323	
1.26	-0.194	-0.02844192726335323	
1.265	-0.077	-0.02844192726335323	
1.27	-0.006	-0.18244896913141861	
1.275	-0.060	-0.1476909936563209	
1.28	0.026	-0.1054703462486907	
1.285	0.053	-0.0626088860154986	
1.29	-0.035	-0.02844192726335323	
1.295	-0.048	-0.007524586638919585	
1.3	0.076	0.0027886508625384475	
1.305	0.024	0.010393153548506154	
1.31	0.023	0.019565675437661325	
1.315	0.212	0.036540230243815995	
1.32	0.215	0.06650392320924245	
1.325	0.111	0.10212706078308974	
1.33	0.214	0.1336652200025487	
1.335	0.321	0.16447270579892065	
1.34	0.246	0.19640189126088697	
1.345	0.269	0.22851979832005442	
1.35	0.530	0.26391933968157577	
1.355	0.473	0.31229353723703634	
1.36	0.316	0.36152281804144176	
1.365	0.308	0.3876080805793011	
1.37	0.145	0.376403098351466	
1.375	-0.052	0.32506756276743853	
1.38	-0.003	0.24477324735885853	
1.385	-0.003	0.15643609946491194	
1.39	-0.150	0.07433022766085146	
1.395	-0.193	-0.000368456688363395	
1.4	-0.176	-0.06808790778651405	
1.405	-0.231	-0.12882998012545624	
1.41	-0.223	-0.17336673779835815	
1.415	-0.129	-0.19726937552599416	
1.42	-0.147	-0.2046967943070654	
1.425	-0.208	-0.20091371831660593	
1.43	-0.118	-0.1900837975930506	
1.435	-0.038	-0.17264796906020785	
1.44	-0.078	-0.14776392130906613	
1.445	-0.017	-0.11523014435231772	
1.45	0.075	-0.07807429924736672	
1.455	-0.023	-0.04499114297968415	
1.46	-0.083	-0.021326219468260143	
1.465	0.035	-0.01018498020923687	
1.47	-0.043	-0.007827772577834645	
1.475	-0.098	-0.013943847073724229	
1.48	0.000	-0.02095107302759294	
1.485	0.000	-0.026703160906004945	
1.49	-0.136	-0.03387078891159921	
1.495	-0.089	-0.04513490449474274	
1.5	-0.026	-0.05603813457431049	
1.505	-0.158	-0.06909353634653094	
1.51	-0.184	-0.0862918576536856	
1.515	-0.072	-0.10309842603408857	
1.52	-0.087	-0.1138808621258988	
1.525	-0.138	-0.11796748810353139	
1.53	-0.104	-0.11588518266354778	
1.535	-0.139	-0.11672442419727902	
1.54	-0.170	-0.12392530525967548	
1.545	-0.077	-0.12808151597752165	
1.55	0.178	-0.11098402331068696	
1.555	0.223	-0.0631181086623603	
1.56	0.208	0.011714532311358451	
1.565	0.136	0.08492390330228267	
1.57	-0.139	0.11803377032164207	
1.575	-0.258	0.09294433267743468	
1.58	-0.133	0.030176126147409055	
1.585	-0.026	-0.0316538633978424	
1.59	-0.093	-0.07297333698350347	
1.595	0.009	-0.08609609077436434	
1.6	0.191	-0.06991595517900864	
1.605	0.061	-0.032147045730449506	
1.61	0.010	0.008620358041599122	
1.615	0.151	0.04097656188946862	
1.62	0.072	0.06315317096896836	
1.625	-0.028	0.07391525697657286	
1.63	0.059	0.07310448400795735	
1.635	0.111	0.06739570872731292	
1.64	0.026	0.06304791890845537	
1.645	0.117	0.06481178675084735	
1.65	0.212	0.07707654709226987	
1.655	0.124	0.09593204699130509	
1.66	0.111	0.11458170904689097	
1.665	0.337	0.13792913374764962	
1.67	0.377	0.17425919342956847	
1.675	0.330	0.2239490226906447	
1.68	0.539	0.2840009519260681	
1.685	0.672	0.35544351034939803	
1.69	0.496	0.43214537041885487	
1.695	0.551	0.49467542989938684	
1.7	0.629	0.53899284120274	
1.705	0.547	0.5660917903011996	
1.71	0.411	0.5735601645931259	
1.715	0.402	0.5567245592799273	
1.72	0.244	0.5103311495614555	
1.725	-0.084	0.42905394154915233	
1.73	-0.061	0.31379317915532784	
1.735	-0.054	0.1864075878736228	
1.74	-0.173	0.07139982364111525	
1.745	-0.170	-0.023376809817883773	
1.75	-0.087	-0.09117689748101689	
1.755	-0.127	-0.13268636160015795	
1.76	-0.152	-0.15132708224012376	
1.765	-0.103	-0.15351402935104436	
1.77	-0.118	-0.15059027625566354	
1.775	-0.147	-0.14569095675550964	
1.78	-0.086	-0.13638218465169377	
1.785	-0.048	-0.1237142990739216	
1.79	-0.158	-0.1123707332536738	
1.795	-0.121	-0.1074465195848496	
1.8	-0.051	-0.10340491973617078	
1.805	-0.072	-0.09950764031349843	
1.81	-0.121	-0.09324811098518312	
1.815	-0.170	-0.09277436672543432	
1.82	-0.095	-0.10252880710412272	
1.825	-0.135	-0.11347855043005665	
1.83	-0.148	-0.11856830674395596	
1.835	-0.139	-0.12581153758489222	
1.84	-0.197	-0.13714340723838586	
1.845	-0.216	-0.15048478715466662	
1.85	-0.197	-0.1655876734218563	
1.855	-0.153	-0.18037126711390045	
1.86	-0.144	-0.1841528086687051	
1.865	-0.112	-0.17491674584317027	
1.87	-0.122	-0.16250672688798584	
1.875	-0.165	-0.15137591446326748	
1.88	0.006	-0.1366562507825941	
1.885	0.308	-0.09680984833056813	
1.89	0.435	-0.012985848666958382	
1.895	0.311	-0.15048478715466662	
1.9	-0.017	-0.14755405032148333	
1.905	-0.237	-0.1366562507825941	
1.91	-0.315	0.12584753446492716	
1.915	-0.236	0.020026483215755394	
1.92	-0.182	-0.08145844286552345	
1.925	-0.181	-0.15431129087434756	
1.93	-0.121	-0.18968761426199893	
1.935	-0.055	-0.19382541114611543	
1.94	-0.087	-0.17799824357982308	
1.945	-0.040	-0.14755405032148333	
1.95	0.047	-0.1096456701117295	
1.955	0.113	-0.06525942976403032	
1.96	0.097	-0.015196434168040496	
1.965	0.189	0.03799753598402183	
1.97	0.227	0.08859241006456144	
1.975	0.156	0.1316204331026187	
1.98	0.220	0.16623172416533516	
1.985	0.258	0.19223726241590805	
1.99	0.238	0.21200005275193284	
1.995	0.293	0.2313607988325914	
2.0	0.472	0.2594124955787396	
2.005	0.531	0.30480925489916766	
2.01	0.487	0.36371748845627433	
2.015	0.676	0.4289829772013383	
2.02	0.765	0.5006954187234139	
2.025	0.748	0.5786001416553448	
2.03	0.750	0.6511546554884162	
2.035	0.747	0.705278033224631	
2.04	0.625	0.7310170591371505	
2.045	0.565	0.7282770493552629	
2.05	0.537	0.7003914373354565	
2.055	0.334	0.6458349465058999	
2.06	0.046	0.5576554966087041	
2.065	-0.026	0.43192825314209415	
2.07	-0.046	0.28674116711546077	
2.075	-0.132	0.14963220868948887	
2.08	-0.127	0.036142431456118534	
2.085	-0.138	-0.04968045339462306	
2.09	-0.211	-0.11392151108088379	
2.095	-0.216	-0.1587231769658659	
2.1	-0.162	-0.18660815819060236	
2.105	-0.173	-0.20111249682371496	
2.11	-0.205	-0.2053075408182678	
2.115	-0.170	-0.20107115622632946	
2.12	-0.126	-0.19425700302054658	
2.125	-0.164	-0.18338473645374848	
2.13	-0.106	-0.16788360537759392	
2.135	-0.031	-0.1476749149501515	
2.14	-0.104	-0.12593112576352206	
2.145	-0.101	-0.10575837820793875	
2.15	-0.013	-0.08960452906074465	
2.155	-0.045	-0.07510373850145091	
2.16	-0.112	-0.06433812688702982	
2.165	-0.077	-0.061081828007184244	
2.17	-0.035	-0.06223767226012014	
2.175	-0.043	-0.06238672600301307	
2.18	0.015	-0.05389237980554322	
2.185	0.056	-0.03666365947707011	
2.19	-0.038	-0.019931096893345115	
2.195	-0.035	-0.009777369713217368	
2.2	-0.028	-0.007602069195413891	
2.205	-0.060	-0.014092525602268128	
2.21	-0.034	-0.023351207308890218	
2.215	0.288	-0.014055692795420889	
2.22	0.513	0.04084669562990041	
2.225	0.446	-0.012391003069278005	
2.23	0.157	-0.010048975805272947	
2.235	-0.049	-0.009777369713217368	
2.24	-0.162	-0.007602069195413891	
2.245	-0.158	0.1482216726863574	
2.25	-0.026	0.057404904979593385	
2.255	-0.006	-0.010048975805272947	
2.26	-0.035	-0.04532747962229178	
2.265	0.068	-0.05208592339933944	
2.27	0.096	-0.03820372198282785	
2.275	0.036	-0.012391003069278005	
2.28	0.137	0.01906981441826589	
2.285	0.181	0.05435541263959623	
2.29	0.105	0.08709203411108621	
2.295	0.058	0.10818571233581796	
2.3	0.104	0.11638581361210251	
2.305	0.162	0.11594804343555024	
2.31	0.137	0.11965203663847522	
2.315	0.203	0.13189934846624396	
2.32	0.295	0.1508050966298201	
2.325	0.259	0.17861113863749944	
2.33	0.342	0.21506802140925732	
2.335	0.434	0.25736128024747945	
2.34	0.443	0.3040914245192454	
2.345	0.544	0.35820714201089626	
2.35	0.715	0.42442448769283586	
2.355	0.673	0.4979279712840963	
2.36	0.489	0.559599210747846	
2.365	0.544	0.5908889545578374	
2.37	0.524	0.5928016599640148	
2.375	0.310	0.5695822817987057	
2.38	0.319	0.5230431649942188	
2.385	0.178	0.45635295718536484	
2.39	-0.031	0.3660894566229386	
2.395	-0.098	0.25618129367400183	
2.4	-0.095	0.142399438542488	
2.405	-0.174	0.03597307749428324	
2.41	-0.255	-0.05535199974033009	
2.415	-0.196	-0.12812038326000091	
2.42	-0.161	-0.1791599818400383	
2.425	-0.211	-0.2063506512705872	
2.43	-0.226	-0.2169817433977293	
2.435	-0.174	-0.21965917989805078	
2.44	-0.185	-0.21883583073147528	
2.445	-0.194	-0.21081067692876498	
2.45	-0.089	-0.1966588959260822	
2.455	-0.135	-0.17901170128915883	
2.46	-0.217	-0.16433209409740218	
2.465	-0.177	-0.159184411300449	
2.47	-0.167	-0.16219157297426712	
2.475	-0.248	-0.17031428878845328	
2.48	-0.243	-0.18299978879682682	
2.485	-0.219	-0.1987015728873712	
2.49	-0.228	-0.21379919139289866	
2.495	-0.249	-0.223787666345197	
2.5	-0.203	-0.2287122099427063	
2.505	-0.239	-0.23200951851640536	
2.51	-0.304	-0.23727663613907896	
2.515	-0.258	-0.24420737461540093	
2.52	-0.248	-0.2532221491245895	
2.525	-0.287	-0.2602657684237036	
2.53	-0.283	-0.26498721259398406	
2.535	-0.281	-0.2697483963892781	
2.54	-0.251	-0.2757898508692427	
2.545	-0.171	-0.2707466262951716	
2.55	-0.057	-0.24671619353445906	
2.555	-0.058	-0.20701980472654347	
2.56	-0.197	-0.16727102423491827	
2.565	-0.243	-0.1462248948111401	
2.57	-0.237	-0.15225350205464183	
2.575	-0.268	-0.17426585454934967	
2.58	-0.223	-0.19695949247898753	
2.585	-0.116	-0.20974001603806905	
2.59	-0.066	-0.20379833105317774	
2.595	-0.013	-0.1737280626059145	
2.6	0.101	-0.12571252859984616	
2.605	0.059	-0.0690625713659522	
2.61	0.041	-0.01726111534101475	
2.615	0.053	0.02283191481734988	
2.62	0.078	0.04772257250556142	
2.625	0.000	0.05869131327613477	
2.63	0.067	0.0620792949710436	
2.635	0.137	0.0652652471447757	
2.64	0.070	0.07113701048791962	
2.645	0.156	0.08227391620637922	
2.65	0.292	0.10533470265909993	
2.655	0.259	0.14092231407814296	
2.66	0.140	0.1757130195034419	
2.665	0.226	0.1988514308127159	
2.67	0.307	0.21374249180975774	
2.675	0.295	0.2316978597766804	
2.68	0.337	0.2570807407135922	
2.685	0.417	0.2862540924044463	
2.69	0.412	0.3191430690167918	
2.695	0.383	0.35128470328045036	
2.7	0.458	0.38029355112127666	
2.705	0.356	0.3988928212668391	
2.71	0.197	0.39674822971656	
2.715	0.160	0.3668402751791713	
2.72	0.094	0.3116817027285489	
2.725	-0.095	0.23671345491260581	
2.73	-0.124	0.148102057140575	
2.735	-0.092	0.058207671457282645	
2.74	-0.142	-0.020832594859093383	
2.745	-0.174	-0.07964694548981281	
2.75	-0.119	-0.12074377160959708	
2.755	-0.155	-0.1461198117868116	
2.76	-0.176	-0.16115316978978234	
2.765	-0.136	-0.16514819768963895	
2.77	-0.126	-0.16437748282265008	
2.775	-0.138	-0.16022957935778848	
2.78	-0.095	-0.14884416162628067	
2.785	-0.034	-0.1318619279395642	
2.79	-0.069	-0.11286041259576185	
2.795	-0.066	-0.092599608289441	
2.8	-0.031	-0.07376887335402951	
2.805	-0.040	-0.06117579464966413	
2.81	-0.083	-0.053131864370068435	
2.815	-0.081	-0.050124469828419865	
2.82	-0.084	-0.05542262856107383	
2.825	-0.138	-0.06725212735524884	
2.83	-0.142	-0.08180170491690356	
2.835	-0.090	-0.09786510015358936	
2.84	-0.109	-0.10890551817485794	
2.845	-0.144	-0.1145632472646553	
2.85	-0.124	-0.11873091868195035	
2.855	-0.132	-0.12523670271825327	
2.86	-0.167	-0.13113114075280696	
2.865	-0.150	-0.13604357058064503	
2.87	-0.147	-0.14246331880754542	
2.875	-0.176	-0.14930911543881298	
2.88	-0.063	-0.14970723410174103	
2.885	0.047	-0.1328340417890448	
2.89	-0.049	-0.10400479718890168	
2.895	-0.159	-0.07855069848021663	
2.9	-0.210	-0.07667802398997497	
2.905	-0.252	-0.10232335663558025	
2.91	-0.222	-0.13915240172786547	
2.915	-0.098	-0.16592802083966168	
2.92	-0.016	-0.16947058480727686	
2.925	-0.009	-0.14837986022527025	
2.93	0.064	-0.10663608680404463	
2.935	0.084	-0.056816315269763835	
2.94	0.010	-0.013123459776089655	
2.945	0.042	0.018483152066026437	
2.95	0.157	0.04445238266069308	
2.955	0.131	0.06861600363037793	
2.96	0.058	0.08976532747663706	
2.965	0.108	0.10314700115557807	
2.97	0.140	0.1075182209546396	
2.975	0.062	0.10950964208748261	
2.98	0.186	0.11341298890951566	
2.985	0.305	0.12826418040744764	
2.99	0.263	0.1588166436505974	
2.995	0.288	0.1974811869214173	
3.0	0.379	0.2375172854512375	
3.005	0.426	0.27857058093335585	
3.01	0.426	0.3247497394698906	
3.015	0.577	0.37522698788643516	
3.02	0.637	0.4314942136287576	
3.025	0.562	0.4894586584988012	
3.03	0.562	0.5374608547050485	
3.035	0.464	0.5602209750200318	
3.04	0.313	0.5497114859891941	
3.045	0.392	0.5125390869627565	
3.05	0.434	0.47258057947768256	
3.055	0.272	0.4324839192167399	
3.06	0.102	0.3837196735255629	
3.065	0.099	0.3182853464245699	
3.07	0.062	0.24146551832488466	
3.075	-0.011	0.1684263689694307	
3.08	0.000	0.10553406137810047	
3.085	0.024	0.055263682373736515	
3.09	-0.028	0.018693966363588617	
3.095	-0.042	-0.004429400118405494	
3.1	0.130	-0.012399307097189517	
3.105	0.203	0.002460673433949092	
3.11	0.146	0.040773871988909985	
3.115	0.221	0.08832906979653474	
3.12	0.211	0.13037970729019682	
3.125	0.085	0.15840416340586425	
3.13	0.105	0.16860067182522986	
3.135	0.076	0.15919191461390914	
3.14	0.056	0.13762044406016685	
3.145	0.024	0.11267276943445542	
3.15	0.052	0.08859875734239445	
3.155	-0.028	0.06231279639597101	
3.16	-0.078	0.03381959373942122	
3.165	-0.045	0.0064415728503640635	
3.17	-0.074	-0.021720272696709623	
3.175	-0.107	-0.046630509050334466	
3.18	-0.078	-0.0642394973631148	
3.185	-0.107	-0.07882292966331264	
3.19	-0.161	-0.09451864924141637	
3.195	-0.199	-0.1122373185727449	
3.2	-0.147	-0.13131116148414435	
3.205	-0.158	-0.149826273919202	
3.21	-0.171	-0.1591806215841488	
3.215	-0.068	-0.15839405410210672	
3.22	-0.031	-0.14680061481215534	
3.225	-0.147	-0.12774743119327808	
3.23	-0.239	-0.11810330658021527	
3.235	-0.266	-0.13283374206600662	
3.24	-0.356	-0.17069719279369786	
3.245	-0.274	-0.21311534756351225	
3.25	-0.139	-0.24117069261555768	
3.255	-0.153	-0.24700899335115903	
3.26	-0.138	-0.23018994837769743	
3.265	-0.049	-0.19818986778636788	
3.27	-0.068	-0.1629295705470147	
3.275	-0.119	-0.13090063730057253	
3.28	0.004	-0.10087107918185588	
3.285	0.058	-0.07177341811349316	
3.29	-0.072	-0.04393135750795564	
3.295	-0.016	-0.025041414408063806	
3.3	0.102	-0.00901519113449699	
3.305	-0.003	0.004789304433177503	
3.31	-0.011	0.015741269466741113	
3.315	0.130	0.026019273734611728	
3.32	0.136	0.041014497266087205	
3.325	0.082	0.061953332970821624	
3.33	0.214	0.08827977808822284	
3.335	0.281	0.12027811855537698	
3.34	0.221	0.15690819143097193	
3.345	0.376	0.2000271157158236	
3.35	0.539	0.25511869611454685	
3.355	0.418	0.3166604852794623	
3.36	0.432	0.37368746685059495	
3.365	0.473	0.4171511478922096	
3.37	0.441	0.4419548012515251	
3.375	0.295	0.4478248505355024	
3.38	0.414	0.4383789095041781	
3.385	0.383	0.42132496182339463	
3.39	0.110	0.39076808354489556	
3.395	0.085	0.339018394766975	
3.4	0.125	0.2712058996733183	
3.405	-0.068	0.195603029305272	
3.41	-0.092	0.11964995460306616	
3.415	0.003	0.05125032215392332	
3.42	-0.048	-0.00101442901533704	
3.425	-0.104	-0.0372214484804086	
3.43	-0.011	-0.055586001067502396	
3.435	0.097	-0.057621642751749996	
3.44	-0.022	-0.04324546722952566	
3.445	0.041	-0.02097766289194471	
3.45	0.154	0.00523897033541038	
3.455	0.018	0.029590218509492283	
3.46	-0.017	0.045619287850489895	
3.465	0.032	0.04924431825960533	
3.47	0.035	0.04197481556837176	
3.475	-0.038	0.03276599066762052	
3.48	0.061	0.027417180123609365	
3.485	0.044	0.023363402811980568	
3.49	-0.139	0.014727483181352365	
3.495	-0.136	-0.005976005333706474	
3.5	-0.087	-0.03675735437303422	
3.505	-0.194	-0.07342126819875787	
3.51	-0.159	-0.10535916867155797	
3.515	-0.054	-0.12371367936616867	
3.52	-0.084	-0.13003102999207766	
3.525	-0.193	-0.13026308875674428	
3.53	-0.129	-0.12856982583935678	
3.535	-0.080	-0.13061904071577696	
3.54	-0.185	-0.1322903417753502	
3.545	-0.112	-0.1309630719042991	
3.55	0.149	-0.11770918816816708	
3.555	0.099	-0.08041924440664495	
3.56	0.026	-0.11770918816816708	
3.565	-0.055	-0.11770918816816708	
3.57	-0.211	0.009913069279624574	
3.575	-0.258	-0.027277958349001583	
3.58	-0.168	-0.0775138125373738	
3.585	-0.077	-0.12062089267916891	
3.59	-0.100	-0.14231973563998002	
3.595	0.006	-0.13489862060124358	
3.6	0.127	-0.1036884826283807	
3.605	-0.023	-0.06352584195085292	
3.61	-0.066	-0.02939026256746805	
3.615	0.021	-0.009622862647796854	
3.62	-0.087	-0.007103585304249872	
3.625	-0.119	-0.018351776805347192	
3.63	0.009	-0.03043940536199057	
3.635	0.065	-0.03458365752248348	
3.64	-0.061	-0.029433397425591184	
3.645	0.021	-0.01991253914294561	
3.65	0.236	0.00040534768054033824	
3.655	0.142	0.03444919898610633	
3.66	0.151	0.07755945805059303	
3.665	0.382	0.1264511027909446	
3.67	0.307	0.17893706345474125	
3.675	0.168	0.22457680702565083	
3.68	0.322	0.2545304915140493	
3.685	0.482	0.28046514876059536	
3.69	0.395	0.3155872089482864	
3.695	0.460	0.35804526364661987	
3.7	0.544	0.4003731575847162	
3.705	0.377	0.43047093384887186	
3.71	0.229	0.43854805755936477	
3.715	0.301	0.4173737721934786	
3.72	0.136	0.37093673031306773	
3.725	-0.060	0.3016463679837059	
3.73	-0.090	0.2134890307389605	
3.735	-0.098	0.11339853978208927	
3.74	-0.213	0.016658112735152206	
3.745	-0.181	-0.06291166384921407	
3.75	-0.135	-0.12169085723080818	
3.755	-0.225	-0.16349368914715168	
3.76	-0.202	-0.18935148796593643	
3.765	-0.097	-0.19664755306692955	
3.77	-0.110	-0.19108631837664664	
3.775	-0.156	-0.17627967449410903	
3.78	-0.058	-0.1534940163992078	
3.785	0.017	-0.1276492300955105	
3.79	-0.089	-0.1003373226044838	
3.795	-0.077	-0.07590714890226574	
3.8	-0.003	-0.05973537348594853	
3.805	-0.051	-0.051509085985215156	
3.81	-0.113	-0.04633324100340731	
3.815	-0.042	-0.04666883086773458	
3.82	-0.100	-0.05512696326452679	
3.825	-0.187	-0.07026685385156475	
3.83	-0.086	-0.08646610095693572	
3.835	-0.068	-0.09967640809515056	
3.84	-0.182	-0.1093524481719403	
3.845	-0.164	-0.11786303083073608	
3.85	-0.060	-0.12572937145371343	
3.855	-0.129	-0.12954228644930046	
3.86	-0.150	-0.1273044256845926	
3.865	-0.100	-0.1236402241957124	
3.87	-0.158	-0.12617132871729236	
3.875	-0.203	-0.1342708143679849	
3.88	-0.069	-0.13740965566112337	
3.885	0.134	-0.12568579539976452	
3.89	0.178	-0.08236892486992223	
3.895	0.209	-0.009791217844932736	
3.9	0.039	0.05825436123044239	
3.905	-0.197	0.08030461274320043	
3.91	-0.226	0.05169129526114144	
3.915	-0.097	-0.0035110798341541124	
3.92	-0.068	-0.056218022233160914	
3.925	-0.113	-0.08834700525482164	
3.93	-0.002	-0.09728137243014236	
3.935	0.041	-0.08866981761191353	
3.94	-0.038	-0.07055187513237798	
3.945	0.076	-0.041744830944880434	
3.95	0.206	-0.0045609749297347985	
3.955	-0.009	0.032228216884557015	
3.96	-0.020	0.05360911447611602	
3.965	0.227	0.06663050589100594	
3.97	0.250	0.08778888416435049	
3.975	0.125	0.12050542143564395	
3.98	0.263	0.15375713548171638	
3.985	0.322	0.18541140447934507	
3.99	0.122	0.21035530164993518	
3.995	0.269	0.2262059363910006	
4.0	0.516	0.2475241142118603	
4.005	0.409	0.28626613920168115	
4.01	0.470	0.33857417619220237	
4.015	0.675	0.3976171548301499	
4.02	0.603	0.4618121272563747	
4.025	0.464	0.5144999888596018	
4.03	0.603	0.5496936143295028	
4.035	0.669	0.5714173652799042	
4.04	0.478	0.5844394875796548	
4.045	0.460	0.5831508160822862	
4.05	0.411	0.5594080237547572	
4.055	0.133	0.5053234310998937	
4.06	0.000	0.41859627008700806	
4.065	0.026	0.3094847894750082	
4.07	-0.064	0.19385370669200694	
4.075	-0.171	0.08764814299866135	
4.08	-0.129	-0.00038198908001201145	
4.085	-0.144	-0.07264110420746393	
4.09	-0.208	-0.12641302654008857	
4.095	-0.132	-0.15782812151159387	
4.1	-0.029	-0.16567671246552618	
4.105	-0.104	-0.15757299746872724	
4.11	-0.107	-0.13832329536687746	
4.115	-0.014	-0.11561992896306868	
4.12	-0.090	-0.09715519722099408	
4.125	-0.181	-0.08828316871785188	
4.13	-0.087	-0.08845887744067615	
4.135	-0.080	-0.09368707369782057	
4.14	-0.199	-0.10333970378399926	
4.145	-0.155	-0.11387167399538266	
4.15	-0.071	-0.12375497937188461	
4.155	-0.139	-0.13049804552352331	
4.16	-0.171	-0.13230307246080017	
4.165	-0.098	-0.13170912014594194	
4.17	-0.121	-0.1341144902344918	
4.175	-0.173	-0.13420782024300115	
4.18	-0.097	-0.13152253420059595	
4.185	-0.066	-0.12770777026884772	
4.19	-0.185	-0.12426844660159872	
4.195	-0.165	-0.12389517517276329	
4.2	-0.118	-0.12881260957107812	
4.205	-0.208	-0.1404618547468212	
4.21	-0.113	-0.14827919936622289	
4.215	0.292	-0.12771637340795147	
4.22	0.553	-0.05104088792911595	
4.225	0.536	-0.12372726175051361	
4.23	0.350	-0.11919731892075822	
4.235	-0.011	-0.09752748696739488	
4.24	-0.234	-0.09125148369695546	
4.245	-0.225	-0.06768503216873256	
4.25	-0.118	0.08818770096694031	
4.255	-0.148	-0.01943437982865052	
4.26	-0.118	-0.09125148369695546	
4.265	0.010	-0.12372726175051361	
4.27	-0.077	-0.12910314405198534	
4.275	-0.090	-0.11919731892075822	
4.28	0.047	-0.09752748696739488	
4.285	0.062	-0.06768503216873256	
4.29	-0.008	-0.036284386146205425	
4.295	0.059	-0.005921234905373711	
4.3	0.208	0.02624734114598593	
4.305	0.099	0.05954686493595799	
4.31	0.078	0.08862996337153091	
4.315	0.252	0.1132865621270021	
4.32	0.236	0.138973977581049	
4.325	0.128	0.16372898926059368	
4.33	0.308	0.1874109151253662	
4.335	0.417	0.21641330084672164	
4.34	0.233	0.25074016607848815	
4.345	0.328	0.28096561846203527	
4.35	0.592	0.3132667016957832	
4.355	0.600	0.3646790294634934	
4.36	0.652	0.4365959842348968	
4.365	0.748	0.5171824877564197	
4.37	0.588	0.5840365348225502	
4.375	0.440	0.6177613770498354	
4.38	0.470	0.6132696350916136	
4.385	0.403	0.5783971119324491	
4.39	0.082	0.5148533345142756	
4.395	-0.011	0.4168741738474864	
4.4	-0.038	0.2941514830330058	
4.405	-0.152	0.16480722468158057	
4.41	-0.176	0.047626283678936926	
4.415	-0.077	-0.041949647412388595	
4.42	-0.063	-0.099841531164741	
4.425	-0.132	-0.126067847150993	
4.43	-0.110	-0.13286910423902246	
4.435	-0.092	-0.1326419699250554	
4.44	-0.152	-0.1319413072728791	
4.445	-0.112	-0.12715329727154806	
4.45	-0.040	-0.11998500759757104	
4.455	-0.116	-0.11207448969851304	
4.46	-0.124	-0.10433706207866945	
4.465	-0.061	-0.09812638944941413	
4.47	-0.097	-0.09582497111423183	
4.475	-0.148	-0.09696466288580491	
4.48	-0.118	-0.09897882530877813	
4.485	-0.086	-0.10468120754031265	
4.49	-0.152	-0.11181865851211056	
4.495	-0.159	-0.11719565016845353	
4.5	-0.127	-0.12407689776155405	
4.505	-0.223	-0.1379900373115467	
4.51	-0.240	-0.15531526029397869	
4.515	-0.171	-0.17321169709008585	
4.52	-0.167	-0.18677712820211184	
4.525	-0.203	-0.1929040360831149	
4.53	-0.190	-0.19204669089640586	
4.535	-0.207	-0.19368811923752796	
4.54	-0.228	-0.19976409496441427	
4.545	-0.136	-0.20022431370853003	
4.55	0.091	-0.18106951692363843	
4.555	0.094	-0.13491228210917663	
4.56	-0.063	-0.07634437575370828	
4.565	-0.135	-0.03829621362159809	
4.57	-0.229	-0.041775866210735334	
4.575	-0.271	-0.07589393482263927	
4.58	-0.173	-0.11906493859997545	
4.585	-0.109	-0.15266402909160368	
4.59	-0.148	-0.1687344595849437	
4.595	-0.148	-0.1682397557940959	
4.6	-0.005	-0.15709808769507416	
4.605	0.017	-0.13192061179727796	
4.61	0.035	-0.09130805495225586	
4.615	0.152	-0.04124774596211464	
4.62	0.125	0.010221160170810437	
4.625	0.059	0.05309390139626004	
4.63	0.201	0.08894890231647952	
4.635	0.180	0.11831296952187598	
4.64	0.079	0.13822264555828234	
4.645	0.085	0.14476438564327293	
4.65	0.218	0.1439099649369252	
4.655	0.177	0.14505850707002643	
4.66	0.232	0.1576908608011255	
4.665	0.392	0.18477449049380404	
4.67	0.460	0.23023675543684152	
4.675	0.376	0.2861011034002327	
4.68	0.537	0.344940605826131	
4.685	0.661	0.4073129569770754	
4.69	0.534	0.4692565076196734	
4.695	0.525	0.5207562277337334	
4.7	0.567	0.5498475656800654	
4.705	0.365	0.5530589233430967	
4.71	0.293	0.5267047589162451	
4.715	0.301	0.47669535421913967	
4.72	0.168	0.4112141125488836	
4.725	-0.037	0.32916886766846964	
4.73	-0.058	0.23289100927132944	
4.735	-0.057	0.13225155618109835	
4.74	-0.155	0.040365903128318725	
4.745	-0.170	-0.03420143829560639	
4.75	-0.109	-0.0912364952673247	
4.755	-0.145	-0.13086276695975932	
4.76	-0.182	-0.1511803106772956	
4.765	-0.135	-0.16139904184972764	
4.77	-0.127	-0.16481876766433318	
4.775	-0.152	-0.16268684610666612	
4.78	-0.110	-0.1531201921221526	
4.785	-0.063	-0.14087164912913827	
4.79	-0.139	-0.12957486674962654	
4.795	-0.132	-0.119141791584702	
4.8	-0.037	-0.11135324088944251	
4.805	-0.095	-0.10388586570151995	
4.81	-0.141	-0.09708130397016926	
4.815	-0.100	-0.09545378671627389	
4.82	-0.138	-0.10090523597084568	
4.825	-0.200	-0.11360398428424079	
4.83	-0.152	-0.12709510066580507	
4.835	-0.119	-0.13996934248421472	
4.84	-0.176	-0.14953783192048153	
4.845	-0.161	-0.15305554455576864	
4.85	-0.093	-0.15242783139562105	
4.855	-0.193	-0.1529277444639682	
4.86	-0.177	-0.1539902971032936	
4.865	-0.130	-0.15445546740487415	
4.87	-0.148	-0.15597612473767608	
4.875	-0.170	-0.15655728357083387	
4.88	-0.084	-0.15104397962688848	
4.885	-0.029	-0.1390269647790936	
4.89	0.013	-0.1155487281854086	
4.895	-0.016	-0.08098781917587534	
4.9	-0.071	-0.05245754245287173	
4.905	-0.194	-0.04801905836245542	
4.91	-0.239	-0.0679584024890906	
4.915	-0.141	-0.10039103357676978	
4.92	-0.101	-0.1290337516868482	
4.925	-0.078	-0.13957404941452728	
4.93	0.017	-0.12694197744108748	
4.935	0.023	-0.10004796873669358	
4.94	-0.124	-0.07266602774565113	
4.945	0.032	-0.052934627699132965	
4.95	0.181	-0.026355047345739284	
4.955	0.087	0.00993386433132425	
4.96	0.094	0.04801252696333944	
4.965	0.189	0.08167019509208483	
4.97	0.125	0.10794626103850466	
4.975	0.061	0.12334510757263935	
4.98	0.125	0.12905822150308632	
4.985	0.194	0.12899451456195454	
4.99	0.127	0.13333273440633767	
4.995	0.177	0.1420461229299031	
5.0	0.334	0.1586476294888713	
5.005	0.302	0.18695135270834212	
5.01	0.301	0.22502240757142214	
5.015	0.331	0.26165293510433996	
5.02	0.418	0.29193455234322896	
5.025	0.423	0.3263908402738336	
5.03	0.548	0.3690894930690935	
5.035	0.596	0.41894170729312713	
5.04	0.434	0.46331218506087934	
5.045	0.340	0.48608051425551985	
5.05	0.284	0.4725833904725462	
5.055	0.027	0.4188628944488366	
5.06	-0.011	0.3310733382091675	
5.065	0.049	0.23169780988583422	
5.07	0.004	0.141883728927489	
5.075	-0.090	0.06940668179766792	
5.08	-0.068	0.01213315931145246	
5.085	-0.057	-0.03209949123015697	
5.09	-0.147	-0.06567521769959739	
5.095	-0.124	-0.08883742849858874	
5.1	-0.037	-0.10341731730623854	
5.105	-0.057	-0.10613441671961554	
5.11	-0.054	-0.09584866256718258	
5.115	-0.014	-0.07932416744847007	
5.12	-0.074	-0.06620862615444081	
5.125	-0.115	-0.06155941214899212	
5.13	-0.061	-0.06082225372125741	
5.135	-0.020	-0.06317840775716105	
5.14	-0.083	-0.062691896006371	
5.145	-0.097	-0.06175906794354954	
5.15	-0.075	-0.06546194901347506	
5.155	-0.170	-0.07722199440812703	
5.16	-0.182	-0.09478525367236924	
5.165	-0.109	-0.11328103249379423	
5.17	-0.118	-0.12828602166633518	
5.175	-0.142	-0.1355347243240999	
5.18	-0.110	-0.1337334838064802	
5.185	-0.092	-0.1312490536717066	
5.19	-0.153	-0.12875167392183806	
5.195	-0.155	-0.12565302224849773	
5.2	-0.104	-0.1274548365621126	
5.205	-0.132	-0.13033232256521068	
5.21	-0.107	-0.1277124348745367	
5.215	0.033	-0.11518315700115288	
5.22	0.015	-0.09241195044886095	
5.225	-0.060	-0.06356950631584861	
5.23	0.004	-0.03959473841265905	
5.235	-0.089	-0.02832229605347963	
5.24	-0.211	-0.03788347929837041	
5.245	-0.153	-0.06252223856784081	
5.25	-0.090	-0.09140165682424892	
5.255	-0.121	-0.11247882923540492	
5.26	-0.020	-0.11665842070537487	
5.265	0.053	-0.10005544142108222	
5.27	-0.011	-0.07353815070621306	
5.275	-0.037	-0.04663350902109396	
5.28	0.122	-0.020434341155869673	
5.285	0.114	0.009679189432531479	
5.29	-0.017	0.034990700910908196	
5.295	0.059	0.05154980923378165	
5.3	0.162	0.06267389926896036	
5.305	0.018	0.07040302841768487	
5.31	0.055	0.07630261141653646	
5.315	0.151	0.07903699657166907	
5.32	0.067	0.08243595333076759	
5.325	0.020	0.08229882912921621	
5.33	0.178	0.08462192672204195	
5.335	0.324	0.0997215083611328	
5.34	0.186	0.1329571793002558	
5.345	0.337	0.176561497186351	
5.35	0.596	0.23270890010796674	
5.355	0.461	0.3054051323074757	
5.36	0.573	0.38329980421337306	
5.365	0.623	0.4560120900186289	
5.37	0.376	0.5054151045034975	
5.375	0.295	0.5132984334495219	
5.38	0.354	0.48657035528185816	
5.385	0.229	0.4386926303578319	
5.39	0.001	0.3689939679359797	
5.395	0.009	0.28150871571367986	
5.4	-0.048	0.1856580547249029	
5.405	-0.193	0.0874893707019148	
5.41	-0.214	-0.004711911540110848	
5.415	-0.152	-0.08305676298001775	
5.42	-0.197	-0.14244505352077483	
5.425	-0.164	-0.17761295933546312	
5.43	-0.066	-0.1865437574438772	
5.435	-0.068	-0.17525540808576734	
5.44	-0.122	-0.15387448875737353	
5.445	-0.051	-0.12859990344992445	
5.45	-0.013	-0.10338859091789812	
5.455	-0.110	-0.08337383566200435	
5.46	-0.087	-0.07177886747404011	
5.465	-0.023	-0.06418245684411292	
5.47	-0.098	-0.062326508695526854	
5.475	-0.139	-0.06761151044273062	
5.48	-0.071	-0.07471964518378074	
5.485	-0.048	-0.0811680006594563	
5.49	-0.148	-0.08575838663317728	
5.495	-0.152	-0.09277748099985082	
5.5	-0.121	-0.1044029055173251	
5.505	-0.196	-0.12117924820724633	
5.51	-0.234	-0.14088086829632368	
5.515	-0.188	-0.16131047824235534	
5.52	-0.153	-0.1791313795227788	
5.525	-0.179	-0.18657924976465814	
5.53	-0.141	-0.18290844750109642	
5.535	-0.119	-0.17507832743900223	
5.54	-0.199	-0.16863802742168243	
5.545	-0.184	-0.16394102190824134	
5.55	-0.127	-0.16240992039432797	
5.555	-0.060	-0.15800802944366854	
5.56	-0.098	-0.14096136429840217	
5.565	-0.023	-0.11740077642356822	
5.57	-0.165	-0.10101262769151642	
5.575	-0.242	-0.10262285576273292	
5.58	-0.177	-0.11903660041979199	
5.585	-0.104	-0.1389593360976181	
5.59	-0.106	-0.14857389932679121	
5.595	-0.043	-0.1390655697337575	
5.6	0.021	-0.1163587201785015	
5.605	-0.023	-0.08791714627500802	
5.61	-0.038	-0.059096132557530615	
5.615	0.039	-0.034421339788425515	
5.62	0.105	-0.011857905680188668	
5.625	0.050	0.014331403124727648	
5.63	0.134	0.042876239592795025	
5.635	0.188	0.07214610057073285	
5.64	0.068	0.09741638210373639	
5.645	0.059	0.11179505126246957	
5.65	0.212	0.11769872341411844	
5.655	0.180	0.12617484603539358	
5.66	0.171	0.1428153678320126	
5.665	0.307	0.16455869235450232	
5.67	0.292	0.19324132256480092	
5.675	0.250	0.2222975117163013	
5.68	0.486	0.257801510677277	
5.685	0.632	0.3122393681432083	
5.69	0.620	0.3884872604987209	
5.695	0.573	0.46869517251843895	
5.7	0.606	0.5326599474497528	
5.705	0.502	0.5682485641229125	
5.71	0.363	0.5727616328265273	
5.715	0.382	0.5464537756208496	
5.72	0.318	0.4963065487462224	
5.725	0.140	0.4323492166083299	
5.73	0.096	0.35668931389181346	
5.735	0.007	0.26819795375812244	
5.74	-0.113	0.1725673038318594	
5.745	-0.130	0.0796921164575008	
5.75	-0.118	-0.002367794518425121	
5.755	-0.165	-0.06967253646518408	
5.76	-0.168	-0.11718392192758918	
5.765	-0.136	-0.14657269973309314	
5.77	-0.155	-0.16267661852878268	
5.775	-0.197	-0.17261332836192603	
5.78	-0.138	-0.17332200281335325	
5.785	-0.107	-0.16979367632866835	
5.79	-0.155	-0.162413975892101	
5.795	-0.152	-0.1533369057544842	
5.8	-0.115	-0.14537856284799638	
5.805	-0.174	-0.14266597599047798	
5.81	-0.249	-0.14822824100202703	
5.815	-0.153	-0.15858904374489047	
5.82	-0.127	-0.16863399363871773	
5.825	-0.150	-0.1686232773513826	
5.83	-0.135	-0.16135378746715331	
5.835	-0.141	-0.15377095792498308	
5.84	-0.220	-0.15341731291250316	
5.845	-0.232	-0.16137330306668002	
5.85	-0.173	-0.1733555022355564	
5.855	-0.181	-0.1846361292294994	
5.86	-0.187	-0.1892481024661745	
5.865	-0.121	-0.18557938723139372	
5.87	-0.147	-0.17761404948961576	
5.875	-0.229	-0.17266836104383398	
5.88	-0.228	-0.17337228552210332	
5.885	-0.112	-0.1787183183602886	
5.89	0.018	-0.1714054297550461	
5.895	0.146	-0.13036952735093124	
5.9	0.238	-0.060299726638499695	
5.905	-0.046	0.00932428648615441	
5.91	-0.211	0.03963639396625359	
5.915	-0.222	0.017432955440430557	
5.92	-0.193	-0.0375631536252915	
5.925	-0.177	-0.09571175077330897	
5.93	-0.086	-0.1323497063052672	
5.935	0.023	-0.14163301174554405	
5.94	-0.051	-0.12746123387226546	
5.945	-0.061	-0.10045597243192617	
5.95	0.078	-0.07224605859680366	
5.955	0.009	-0.04262623745324398	
5.96	0.001	-0.01637826541978535	
5.965	0.093	0.007475655612037308	
5.97	0.145	0.03147118239597721	
5.975	0.039	0.05523017392848443	
5.98	0.020	0.07061093787138396	
5.985	0.133	0.07537516827843299	
5.99	0.079	0.07752958632563435	
5.995	0.101	0.0835447654656843	
6.0	0.224	0.09676660262660863	
6.005	0.206	0.11736841143047548	
6.01	0.163	0.14263211206963178	
6.015	0.325	0.17148686192774693	
6.02	0.374	0.20645221606128725	
6.025	0.374	0.25124709075123314	
6.03	0.467	0.3026515552795477	
6.035	0.492	0.35534821122754445	
6.04	0.371	0.3964937076912427	
6.045	0.380	0.42055962112501694	
6.05	0.405	0.42675144268393983	
6.055	0.244	0.4143271750756261	
6.06	0.082	0.37663102865415127	
6.065	0.055	0.3134768187900292	
6.07	-0.071	0.22741774433161094	
6.075	-0.188	0.12924852911612633	
6.08	-0.179	0.03166744677588667	
6.085	-0.126	-0.05364492635652418	
6.09	-0.184	-0.11747157215678314	
6.095	-0.194	-0.1564031724944937	
6.1	-0.142	-0.178251562165329	
6.105	-0.162	-0.18866733458716545	
6.11	-0.197	-0.1893208330016854	
6.115	-0.078	-0.18149686179427946	
6.12	-0.072	-0.1656010105431961	
6.125	-0.113	-0.14474441278160474	
6.13	-0.069	-0.12131099921794554	
6.135	-0.054	-0.10168660891167756	
6.14	-0.098	-0.08951973768145484	
6.145	-0.069	-0.07937768467629408	
6.15	0.000	-0.06823601135999063	
6.155	-0.078	-0.06071927510026623	
6.16	-0.139	-0.05933833904410905	
6.165	-0.090	-0.06545826582839503	
6.17	-0.112	-0.07862055659289145	
6.175	-0.197	-0.09579310182201504	
6.18	-0.170	-0.11427094011919783	
6.185	-0.119	-0.1326472505337148	
6.19	-0.177	-0.14756941104474317	
6.195	-0.135	-0.15337444311848647	
6.2	-0.052	-0.14916872285044552	
6.205	-0.124	-0.1397505975558872	
6.21	-0.182	-0.13138285713269537	
6.215	-0.129	-0.12839417596961317	
6.22	-0.100	-0.13061128000461147	
6.225	0.049	-0.12185035259494448	
6.23	0.423	-0.07218386526281116	
6.235	0.554	0.031457316077351014	
6.24	0.085	0.1483131562497523	
6.245	-0.156	0.20747776213036165	
6.25	-0.133	0.18286240559720007	
6.255	-0.152	0.10729685112405155	
6.26	-0.103	0.025575859246764785	
6.265	0.017	-0.031382632128829746	
6.27	0.044	-0.05752692291017236	
6.275	-0.031	-0.0578629780698135	
6.28	0.020	-0.044303989635109925	
6.285	0.111	-0.02356486356752576	
6.29	0.023	-0.0005719776979166025	
6.295	0.032	0.02253894646113268	
6.3	0.142	0.04084206515987247	
6.305	0.070	0.05731804656462145	
6.31	0.030	0.06958456086633277	
6.315	0.134	0.07854472015921392	
6.32	0.189	0.08845327297876618	
6.325	0.101	0.10319516664536682	
6.33	0.246	0.12467441333089062	
6.335	0.369	0.15538763539350484	
6.34	0.287	0.1984931141636765	
6.345	0.337	0.2435640637428576	
6.35	0.444	0.28775382337233524	
6.355	0.487	0.3323461164942084	
6.36	0.576	0.3846840039320093	
6.365	0.768	0.45348423541357596	
6.37	0.731	0.5334056128720972	
6.375	0.631	0.6042730640569423	
6.38	0.643	0.6526206933971911	
6.385	0.592	0.6712779371028906	
6.39	0.336	0.6535540934468451	
6.395	0.233	0.5955620002288933	
6.4	0.177	0.5036362049580873	
6.405	-0.042	0.38739933596172516	
6.41	-0.153	0.2567366008984548	
6.415	-0.199	0.12235176760200006	
6.42	-0.216	-0.0035684856937198404	
6.425	-0.260	-0.10755623009007763	
6.43	-0.182	-0.17842733620118056	
6.435	-0.130	-0.21476493374716435	
6.44	-0.179	-0.2252721717295887	
6.445	-0.165	-0.2164167673513151	
6.45	-0.116	-0.1994821321032671	
6.455	-0.181	-0.18451289779718488	
6.46	-0.188	-0.17319371648893056	
6.465	-0.109	-0.1637732265797149	
6.47	-0.130	-0.15556542741995066	
6.475	-0.188	-0.14947724517112151	
6.48	-0.164	-0.1475413056892922	
6.485	-0.141	-0.14982662814262282	
6.49	-0.208	-0.15616800328433456	
6.495	-0.208	-0.1634540461260346	
6.5	-0.150	-0.17157237939271328	
6.505	-0.231	-0.18041604734533637	
6.51	-0.304	-0.1941641441401022	
6.515	-0.301	-0.21489792086675816	
6.52	-0.324	-0.24352909222682778	
6.525	-0.307	-0.2723748906092721	
6.53	-0.211	-0.28661412653372415	
6.535	-0.129	-0.28083776947060135	
6.54	-0.177	-0.25805642784598337	
6.545	-0.194	-0.22950559801161208	
6.55	-0.161	-0.20465660633820348	
6.555	-0.084	-0.18531968021894113	
6.56	0.233	-0.14511732681148412	
6.565	0.553	-0.05392624152991699	
6.57	0.678	0.09256188165824472	
6.575	0.232	0.2446136675647248	
6.58	-0.083	0.32616127720332655	
6.585	-0.141	0.30209649432692903	
6.59	-0.197	0.2060629056077923	
6.595	-0.148	0.09146869421142843	
6.6	-0.057	-0.006719297162072845	
6.605	-0.068	-0.07020732011069164	
6.61	-0.098	-0.10308553081857537	
6.615	-0.029	-0.11109682064480833	
6.62	0.003	-0.10245934394930539	
6.625	-0.014	-0.08320258864744745	
6.63	0.015	-0.05578672735608213	
6.635	0.042	-0.029945512584750592	
6.64	-0.014	-0.009866343962266736	
6.645	0.076	0.007482443007874443	
6.65	0.185	0.03118183488719247	
6.655	0.145	0.06180503283243528	
6.66	0.136	0.09395343600040348	
6.665	0.264	0.1258243347178419	
6.67	0.290	0.1605368685170342	
6.675	0.226	0.19686838586604974	
6.68	0.292	0.2271476066532155	
6.685	0.382	0.2560133221605686	
6.69	0.458	0.29025429373571143	
6.695	0.524	0.33848023999242227	
6.7	0.548	0.3960607346628027	
6.705	0.588	0.4518658676291768	
6.71	0.516	0.49802353175836683	
6.715	0.527	0.5307009772872187	
6.72	0.418	0.539504788464423	
6.725	0.215	0.514954046378497	
6.73	0.085	0.45307416640046555	
6.735	0.013	0.3579352996337106	
6.74	-0.138	0.24233255474040682	
6.745	-0.196	0.1194709982228416	
6.75	-0.208	0.004987179604345526	
6.755	-0.272	-0.09504679895370917	
6.76	-0.289	-0.1749155231911398	
6.765	-0.217	-0.22936889481107775	
6.77	-0.210	-0.25743249756847	
6.775	-0.265	-0.26693073342260676	
6.78	-0.251	-0.2659928471304194	
6.785	-0.199	-0.26108156967793433	
6.79	-0.207	-0.25154661131682643	
6.795	-0.194	-0.23657169957252983	
6.8	-0.130	-0.21811497589359452	
6.805	-0.152	-0.19796103649709945	
6.81	-0.185	-0.180899250822116	
6.815	-0.170	-0.16851257366173172	
6.82	-0.148	-0.1634131780446837	
6.825	-0.171	-0.16183630320555742	
6.83	-0.187	-0.16108227100258005	
6.835	-0.187	-0.1641278965569708	
6.84	-0.231	-0.173449622900999	
6.845	-0.275	-0.1876044830476477	
6.85	-0.200	-0.20419569053729592	
6.855	-0.203	-0.2168763855833521	
6.86	-0.226	-0.2218589078291143	
6.865	-0.173	-0.21959625193726906	
6.87	-0.197	-0.21438545084440733	
6.875	-0.281	-0.212773860616831	
6.88	-0.245	-0.2181585503093918	
6.885	-0.207	-0.22414204914972044	
6.89	-0.147	-0.22534419922096716	
6.895	0.021	-0.20561879545952294	
6.9	0.206	-0.15223789401266624	
6.905	0.160	-0.07178668206356709	
6.91	-0.116	-0.18716857309232027	
6.915	-0.234	0.022232713767375407	
6.92	-0.258	-0.010345990215328098	
6.925	-0.300	-0.07366022549694866	
6.93	-0.228	-0.1412567040778037	
6.935	-0.119	-0.18716857309232027	
6.94	-0.112	-0.2031860392648892	
6.945	-0.081	-0.1936672604381436	
6.95	-0.029	-0.16540460225703196	
6.955	0.009	-0.12767643875111379	
6.96	0.094	-0.08276303804121352	
6.965	0.185	-0.026861844341807852	
6.97	0.223	0.03768876122668817	
6.975	0.140	0.09646139763080748	
6.98	0.151	0.1385981112433748	
6.985	0.218	0.1647358162256078	
6.99	0.171	0.18196792776923168	
6.995	0.238	0.1922820948829453	
7.0	0.314	0.20843945545011394	
7.005	0.322	0.2314821654142086	
7.01	0.307	0.25829979361058697	
7.015	0.379	0.2849057566688899	
7.02	0.525	0.3197603708200223	
7.025	0.583	0.36869794400639494	
7.03	0.544	0.428425501543374	
7.035	0.667	0.487618672870908	
7.04	0.712	0.5452247383200917	
7.045	0.638	0.5982525413597841	
7.05	0.585	0.6341708593610107	
7.055	0.533	0.642607304659156	
7.06	0.411	0.6224420927915553	
7.065	0.241	0.5716654288971396	
7.07	0.175	0.49070241543231086	
7.075	0.023	0.38789958424600846	
7.08	-0.115	0.2703349211114837	
7.085	-0.136	0.1484726360362128	
7.09	-0.126	0.03640829917079979	
7.095	-0.141	-0.05066820306144467	
7.1	-0.127	-0.10697632151767421	
7.105	-0.100	-0.13830483010237904	
7.11	-0.132	-0.15039931022645514	
7.115	-0.132	-0.1504488043227255	
7.12	-0.077	-0.14432817879508852	
7.125	-0.038	-0.12993071796507788	
7.13	-0.031	-0.10770165288340472	
7.135	-0.034	-0.08265292098405687	
7.14	-0.016	-0.05950373041776339	
7.145	-0.077	-0.045652294570883226	
7.15	-0.101	-0.041132634498257756	
7.155	-0.058	-0.047280963887960645	
7.16	-0.100	-0.05729694331514944	
7.165	-0.113	-0.06854883350434385	
7.17	-0.106	-0.07937628035303687	
7.175	-0.135	-0.09281861583802818	
7.18	-0.219	-0.11074371634024333	
7.185	-0.202	-0.13275036124892942	
7.19	-0.144	-0.15539810855633707	
7.195	-0.165	-0.16859667515522286	
7.2	-0.194	-0.1742355109123721	
7.205	-0.170	-0.17725439832441464	
7.21	-0.174	-0.1802122944796736	
7.215	-0.210	-0.18162156739371138	
7.22	-0.170	-0.1834093803988629	
7.225	-0.097	-0.1807274887759212	
7.23	-0.038	-0.16574247869524616	
7.235	0.079	-0.12979041394303614	
7.24	0.087	-0.16574247869524616	
7.245	-0.130	-0.16574247869524616	
7.25	-0.263	-0.026337908170516098	
7.255	-0.255	-0.05824661547747383	
7.26	-0.258	-0.1121536629050369	
7.265	-0.243	-0.1646550476207278	
7.27	-0.135	-0.19941905478424227	
7.275	-0.052	-0.20665762545734923	
7.28	-0.040	-0.18574395381398762	
7.285	-0.022	-0.14685844674176754	
7.29	0.038	-0.10233817344494514	
7.295	0.024	-0.05955086714046585	
7.3	0.038	-0.021328921598928706	
7.305	0.087	0.010742296780824404	
7.31	0.117	0.03886447551516644	
7.315	0.108	0.0653413286848755	
7.32	0.178	0.09053995717507592	
7.325	0.172	0.11532216863345604	
7.33	0.119	0.13525843422673067	
7.335	0.227	0.15012548903948497	
7.34	0.293	0.17066389434706344	
7.345	0.284	0.19748733082618633	
7.35	0.296	0.2286610847923174	
7.355	0.376	0.2607096391585072	
7.36	0.423	0.2949080694486136	
7.365	0.486	0.3353661800286784	
7.37	0.504	0.38248523889513225	
7.375	0.516	0.4273310364904233	
7.38	0.515	0.4643046825720151	
7.385	0.508	0.4920780930731571	
7.39	0.498	0.509629228900392	
7.395	0.327	0.5065149515115183	
7.4	0.163	0.47361921328833223	
7.405	0.075	0.4036543403293431	
7.41	0.036	0.309942450900007	
7.415	-0.038	0.21137993895339552	
7.42	-0.095	0.1194490107637392	
7.425	-0.135	0.03435381013106053	
7.43	-0.155	-0.038650882850359246	
7.435	-0.110	-0.09192305454741515	
7.44	-0.063	-0.1213566130753616	
7.445	-0.068	-0.1284391774862219	
7.45	-0.069	-0.12035122556549575	
7.455	-0.052	-0.10433209881568695	
7.46	-0.078	-0.09106156376653643	
7.465	-0.046	-0.0786399393169172	
7.47	0.003	-0.06554041622708083	
7.475	0.015	-0.04763031568464492	
7.48	-0.011	-0.030689881809072037	
7.485	-0.035	-0.01695630358275102	
7.49	-0.058	-0.013344563768219395	
7.495	-0.097	-0.02246692693596479	
7.5	-0.086	-0.03738908034902815	
7.505	-0.069	-0.05228473232418117	
7.51	-0.126	-0.06704116419140269	
7.515	-0.158	-0.08470757762184013	
7.52	-0.184	-0.10553110173007224	
7.525	-0.190	-0.1295708365069439	
7.53	-0.214	-0.15374119648761575	
7.535	-0.167	-0.17297665674340298	
7.54	-0.126	-0.18124227009114735	
7.545	-0.148	-0.17946874639265847	
7.55	-0.148	-0.17047534798461692	
7.555	-0.103	-0.15922944834427938	
7.56	-0.087	-0.1459849655577346	
7.565	-0.023	-0.12678564934227404	
7.57	0.064	-0.0955161452087693	
7.575	0.099	-0.053475462570213045	
7.58	-0.058	-0.014814950234315834	
7.585	-0.179	-0.0010751753424304523	
7.59	-0.190	-0.021184104683698468	
7.595	-0.210	-0.064460992041771	
7.6	-0.185	-0.10954672292462425	
7.605	-0.100	-0.14217362196322836	
7.61	-0.064	-0.1539218192949635	
7.615	-0.035	-0.14385317127477132	
7.62	0.010	-0.11652562443292536	
7.625	0.090	-0.07841085993816821	
7.63	0.082	-0.03383703542467611	
7.635	0.139	0.012923703360400012	
7.64	0.235	0.06189839022193219	
7.645	0.163	0.1085209671267643	
7.65	0.111	0.14336943783376382	
7.655	0.165	0.15984255587064683	
7.66	0.108	0.16309326610635577	
7.665	0.050	0.15407985085019613	
7.67	0.111	0.13745952043597368	
7.675	0.206	0.12564353369554418	
7.68	0.218	0.1291712178752661	
7.685	0.288	0.15189771920685283	
7.69	0.363	0.18891277201570003	
7.695	0.414	0.23655395692498934	
7.7	0.466	0.293376523880569	
7.705	0.567	0.35684234151558325	
7.71	0.505	0.41710149767688026	
7.715	0.475	0.4650729066273326	
7.72	0.490	0.4934396714725527	
7.725	0.478	0.5056302067247196	
7.73	0.282	0.4961454718149753	
7.735	0.075	0.45284656900984094	
7.74	0.097	0.37288204991344215	
7.745	-0.019	0.27457731107356853	
7.75	-0.093	0.1743913434176869	
7.755	-0.069	0.08180800851244546	
7.76	-0.086	0.005120325839516667	
7.765	-0.156	-0.05183996106207189	
7.77	-0.144	-0.09456974109789854	
7.775	-0.115	-0.12342651749534578	
7.78	-0.126	-0.1397619796978421	
7.785	-0.081	-0.14106274342241282	
7.79	-0.031	-0.13019247412802426	
7.795	-0.064	-0.11143364825928831	
7.8	-0.077	-0.09252019103069904	
7.805	-0.035	-0.07625400478112956	
7.81	-0.061	-0.0649645218631829	
7.815	-0.077	-0.05876161702432235	
7.82	-0.080	-0.057564913402966454	
7.825	-0.097	-0.06153351256502685	
7.83	-0.113	-0.07172833525692	
7.835	-0.103	-0.08100355617383877	
7.84	-0.098	-0.09027676195342504	
7.845	-0.119	-0.09844971744444136	
7.85	-0.133	-0.10543076381488137	
7.855	-0.129	-0.11228318225501176	
7.86	-0.153	-0.12102776491950762	
7.865	-0.148	-0.13069546746475824	
7.87	-0.103	-0.13452742012805485	
7.875	-0.124	-0.13459572717625762	
7.88	-0.136	-0.13372384188287234	
7.885	-0.100	-0.12994847812818539	
7.89	-0.071	-0.12230131895886548	
7.895	-0.087	-0.11248323648027955	
7.9	-0.052	-0.10039641149700963	
7.905	0.018	-0.08226149625638171	
7.91	-0.006	-0.06105274732474821	
7.915	-0.060	-0.04171046218387669	
7.92	-0.141	-0.03552625342054784	
7.925	-0.205	-0.051616422508834796	
7.93	-0.226	-0.08674744602227953	
7.935	-0.153	-0.12492751480092092	
7.94	-0.061	-0.14726626247440805	
7.945	-0.028	-0.146488180889275	
7.95	-0.008	-0.12440411580437254	
7.955	0.049	-0.08923925661267226	
7.96	0.052	-0.05005720631390426	
7.965	0.024	-0.013735629974705498	
7.97	0.064	0.015500657263203597	
7.975	0.050	0.03541734251651253	
7.98	0.032	0.04722466800630278	
7.985	0.070	0.0540509096479619	
7.99	0.183	0.06375235764563068	
7.995	0.149	0.0824994836892585	
8.0	0.088	0.10356197952552978	
8.005	0.185	0.11876047670553759	
8.01	0.272	0.13696333464776567	
8.015	0.298	0.1682889336782634	
8.02	0.372	0.2105039234205808	
8.025	0.432	0.2603977491653511	
8.03	0.472	0.3142534528537971	
8.035	0.490	0.3700808973368625	
8.04	0.551	0.4216863245999706	
8.045	0.531	0.4664708668099242	
8.05	0.531	0.5016386551982439	
8.055	0.563	0.5267421115945947	
8.06	0.400	0.5358659721606852	
8.065	0.336	0.5193068952623229	
8.07	0.285	0.4795305780961345	
8.075	0.198	0.4213292566393104	
8.08	0.039	0.3482459291826956	
8.085	-0.025	0.2601226332195456	
8.09	-0.023	0.16765833428465374	
8.095	-0.112	0.0814797518359982	
8.1	-0.107	0.008698780100996053	
8.105	-0.087	-0.047275567967342814	
8.11	-0.098	-0.08512889896083323	
8.115	-0.084	-0.10460312537956808	
8.12	-0.077	-0.10947306780350148	
8.125	-0.100	-0.10772627118494167	
8.13	-0.153	-0.10769327878899373	
8.135	-0.060	-0.1078402998232516	
8.14	-0.016	-0.10140686259112483	
8.145	-0.049	-0.08751015678244818	
8.15	-0.060	-0.07126280412034379	
8.155	-0.055	-0.060346089206844915	
8.16	-0.124	-0.058161668420193983	
8.165	-0.153	-0.06755670837771431	
8.17	-0.098	-0.08250924071662154	
8.175	-0.077	-0.0957553570288702	
8.18	-0.136	-0.10261738255179961	
8.185	-0.127	-0.1078536069791668	
8.19	-0.104	-0.11349440534947317	
8.195	-0.148	-0.11845368912019766	
8.2	-0.167	-0.12520791397512387	
8.205	-0.126	-0.13243701583407502	
8.21	-0.113	-0.13714566820188318	
8.215	-0.095	-0.1344384349673834	
8.22	-0.086	-0.12557584427110588	
8.225	-0.138	-0.11684352295327224	
8.23	-0.148	-0.11551763005226086	
8.235	-0.148	-0.11983908278159232	
8.24	-0.020	-0.12059845089078501	
8.245	0.056	-0.10638004172347273	
8.25	-0.002	-0.07411707013784702	
8.255	-0.093	-0.046561521002155895	
8.26	-0.199	-0.04321030611377626	
8.265	-0.216	-0.06633835022408521	
8.27	-0.129	-0.09959196075043616	
8.275	-0.066	-0.1229132940546455	
8.28	-0.042	-0.1264213940000823	
8.285	-0.005	-0.11078381982737692	
8.29	0.007	-0.08471099025333678	
8.295	-0.031	-0.05839824649849092	
8.3	-0.055	-0.03903805760425172	
8.305	-0.016	-0.028600072001658077	
8.31	-0.022	-0.02423091964857696	
8.315	-0.043	-0.022245046925036663	
8.32	-0.068	-0.024618349486640177	
8.325	-0.066	-0.0330194653600105	
8.33	-0.064	-0.04336933977678375	
8.335	-0.037	-0.05073065498224445	
8.34	-0.016	-0.0518005720633862	
8.345	-0.005	-0.04739129299351817	
8.35	0.010	-0.035930955035573885	
8.355	0.059	-0.02064603325926343	
8.36	0.116	0.0017037425061219734	
8.365	0.177	0.03385641966676108	
8.37	0.250	0.07741418240678874	
8.375	0.319	0.12988328345593475	
8.38	0.380	0.18966752385534066	
8.385	0.418	0.25434868687170875	
8.39	0.368	0.3121010874668312	
8.395	0.256	0.347541283058784	
8.4	0.261	0.35414830350338505	
8.405	0.209	0.337333577906871	
8.41	0.085	0.30160692231866926	
8.415	0.021	0.246887458952326	
8.42	-0.048	0.1794460206414468	
8.425	-0.113	0.10281608910130048	
8.43	-0.145	0.02766785612006344	
8.435	-0.152	-0.039588502733844184	
8.44	-0.167	-0.0949073362764557	
8.445	-0.187	-0.13545428564817655	
8.45	-0.145	-0.16077968830782927	
8.455	-0.122	-0.17165733966244257	
8.46	-0.147	-0.17142491934637422	
8.465	-0.139	-0.16406575863181355	
8.47	-0.113	-0.1545232319654311	
8.475	-0.116	-0.14523901805664816	
8.48	-0.110	-0.1343307511812008	
8.485	-0.101	-0.12354256107661388	
8.49	-0.087	-0.11495972427798995	
8.495	-0.116	-0.1074971194981616	
8.5	-0.100	-0.10272318242208309	
8.505	-0.109	-0.10067437447832402	
8.51	-0.176	-0.10550249738457372	
8.515	-0.187	-0.117022437571064	
8.52	-0.182	-0.1344805209157774	
8.525	-0.226	-0.1553148429814148	
8.53	-0.277	-0.17833267228758057	
8.535	-0.278	-0.20547023905818804	
8.54	-0.278	-0.2320024141634533	
8.545	-0.263	-0.2535307710351049	
8.55	-0.207	-0.26363856811703645	
8.555	-0.199	-0.2596678486518402	
8.56	-0.243	-0.250568844882218	
8.565	-0.237	-0.24097950778385605	
8.57	-0.208	-0.23443933224593907	
8.575	-0.155	-0.22637488874957334	
8.58	-0.069	-0.20731773254797692	
8.585	-0.009	-0.1723889109540067	
8.59	-0.124	-0.1340502250777072	
8.595	-0.257	-0.11462215000965292	
8.6	-0.294	-0.12561298795713155	
8.605	-0.242	-0.1586459698675787	
8.61	-0.182	-0.1906127371765505	
8.615	-0.083	-0.2019414067648322	
8.62	-0.043	-0.18837111518204097	
8.625	-0.075	-0.15842782333583458	
8.63	0.007	-0.12336686657099213	
8.635	0.114	-0.07932825987822498	
8.64	0.146	-0.027025570055399798	
8.645	0.131	0.028341055322614144	
8.65	0.183	0.07942193853289327	
8.655	0.218	0.12139346952024667	
8.66	0.172	0.15631948831111842	
8.665	0.204	0.18000731577076426	
8.67	0.247	0.19766851122857834	
8.675	0.214	0.21057624049665905	
8.68	0.212	0.21958370037412922	
8.685	0.272	0.2256750358199238	
8.69	0.302	0.23500609337062323	
8.695	0.333	0.2523343071842129	
8.7	0.447	0.28041985661902086	
8.705	0.515	0.3224270140027629	
8.71	0.525	0.3753377364413006	
8.715	0.596	0.4319871698857008	
8.72	0.676	0.49166681914927346	
8.725	0.667	0.5496058745787725	
8.73	0.629	0.5985676362639661	
8.735	0.519	0.62662172084635	
8.74	0.460	0.6209983095822451	
8.745	0.298	0.5843319004437206	
8.75	0.255	0.5193711967571868	
8.755	0.125	0.43440663276985414	
8.76	-0.045	0.33235637330678136	
8.765	-0.098	0.21997254647237102	
8.77	-0.138	0.10665500160138634	
8.775	-0.159	0.004643816881274052	
8.78	-0.155	-0.07339728037852714	
8.785	-0.150	-0.12635941061471076	
8.79	-0.158	-0.15796593812051252	
8.795	-0.161	-0.17363802899095981	
8.8	-0.104	-0.17461994548086002	
8.805	-0.109	-0.16557804906994192	
8.81	-0.132	-0.1526340905327369	
8.815	-0.138	-0.14003577230667918	
8.82	-0.119	-0.1323486948429626	
8.825	-0.133	-0.12937271582692864	
8.83	-0.133	-0.12642656241840589	
8.835	-0.135	-0.12636178588231803	
8.84	-0.145	-0.12897178435551188	
8.845	-0.213	-0.13666825721941878	
8.85	-0.165	-0.14761941387367888	
8.855	-0.153	-0.1585631998046737	
8.86	-0.197	-0.16664903950935123	
8.865	-0.226	-0.17403401483545847	
8.87	-0.214	-0.18533212391257137	
8.875	-0.200	-0.19738684566353076	
8.88	-0.176	-0.20342101961801817	
8.885	-0.156	-0.20032950602680644	
8.89	-0.152	-0.19198647260659568	
8.895	-0.193	-0.18368721780650182	
8.9	-0.239	-0.17958957995611174	
8.905	-0.262	-0.1875778709093948	
8.91	-0.196	-0.2026985322499008	
8.915	0.081	-0.19796857258215217	
8.92	0.347	-0.1442265965260265	
8.925	0.327	-0.04142466773454955	
8.93	0.047	0.0654917557281397	
8.935	-0.155	0.11865585469283846	
8.94	-0.219	0.09997839368309921	
8.945	-0.205	0.035276932463313246	
8.95	-0.119	-0.036526083140320756	
8.955	-0.072	-0.08853254860662477	
8.96	-0.080	-0.11573470263276375	
8.965	-0.034	-0.11797483885118554	
8.97	0.036	-0.10224122921649594	
8.975	0.013	-0.07448510585519161	
8.98	-0.008	-0.04446040201868745	
8.985	0.178	-0.012219916733634635	
8.99	0.189	0.029989741831592854	
8.995	0.091	0.07423262969504137	
9.0	0.136	0.10747211720545055	
9.005	0.194	0.1294460254485147	
9.01	0.119	0.14424268772485227	
9.015	0.172	0.15402722066581842	
9.02	0.263	0.1647307297352551	
9.025	0.259	0.18152487400080147	
9.03	0.307	0.20759247682118964	
9.035	0.417	0.2427383060877039	
9.04	0.437	0.2869507124500058	
9.045	0.554	0.3403170698784659	
9.05	0.709	0.4094991310543038	
9.055	0.676	0.48938322256960265	
9.06	0.696	0.5642626492118701	
9.065	0.727	0.6270533078982496	
9.07	0.690	0.6736728407209892	
9.075	0.544	0.6934991969142723	
9.08	0.391	0.6755816320520215	
9.085	0.301	0.61868553300947	
9.09	0.148	0.5269466802321734	
9.095	-0.032	0.41132001527593764	
9.1	-0.109	0.2784398813101127	
9.105	-0.194	0.14039357773510341	
9.11	-0.263	0.01034020582104365	
9.115	-0.254	-0.09895448968837493	
9.12	-0.220	-0.18033455103610613	
9.125	-0.226	-0.23040240816172952	
9.13	-0.210	-0.2533679488256534	
9.135	-0.190	-0.2553495368759163	
9.14	-0.170	-0.2450152424164984	
9.145	-0.145	-0.22662031115272402	
9.15	-0.095	-0.19959640725584005	
9.155	-0.077	-0.16962501458616353	
9.16	-0.090	-0.13962849367437086	
9.165	-0.075	-0.11399624811886658	
9.17	-0.080	-0.09438923338390465	
9.175	-0.124	-0.0853886968457776	
9.18	-0.156	-0.086387289455442	
9.185	-0.115	-0.09639324347963163	
9.19	-0.118	-0.10698603921440183	
9.195	-0.141	-0.11560322071590493	
9.2	-0.103	-0.12064347984833977	
9.205	-0.121	-0.12261579862466214	
9.21	-0.170	-0.12558384780598364	
9.215	-0.167	-0.132033316611061	
9.22	-0.161	-0.14141028313412446	
9.225	-0.158	-0.15032085702176864	
9.23	-0.162	-0.156382211118611	
9.235	-0.177	-0.15944985901201844	
9.24	-0.219	-0.16695837223642915	
9.245	-0.205	-0.1775774630453047	
9.25	-0.028	-0.17968529699530672	
9.255	0.334	-0.14456458583258203	
9.26	0.446	-0.050475479381035554	
9.265	0.324	0.07692519353858471	
9.27	-0.006	0.17546767190892332	
9.275	-0.176	0.19765290920573034	
9.28	-0.219	0.14462939451963733	
9.285	-0.155	0.05852494811592474	
9.29	-0.101	-0.024941759995145748	
9.295	-0.078	-0.08151811657963318	
9.3	0.035	-0.10368686374101091	
9.305	0.036	-0.09462449437430265	
9.31	0.004	-0.06851533787219147	
9.315	0.029	-0.0380575800649626	
9.32	0.079	-0.009455003737324014	
9.325	0.131	0.019726190124503037	
9.33	0.125	0.05262978277171292	
9.335	0.094	0.081497685432386	
9.34	0.116	0.10004563599697114	
9.345	0.160	0.11245911622348609	
9.35	0.273	0.13129894763358058	
9.355	0.308	0.1633844691210642	
9.36	0.322	0.20347603678750276	
9.365	0.388	0.24893742452264675	
9.37	0.472	0.2975728806778843	
9.375	0.472	0.3487181697369294	
9.38	0.508	0.3985919262532526	
9.385	0.640	0.44853020391618154	
9.39	0.728	0.5060985375839828	
9.395	0.718	0.5704233177938463	
9.4	0.716	0.6302472468023336	
9.405	0.712	0.6753993129721857	
9.41	0.658	0.7014795085436298	
9.415	0.599	0.7058897185175508	
9.42	0.527	0.688552166704226	
9.425	0.342	0.6437327214915798	
9.43	0.183	0.5675652181791657	
9.435	0.165	0.46648817246969243	
9.44	0.049	0.3561210924327047	
9.445	-0.034	0.24544895762697577	
9.45	-0.057	0.1442236074940077	
9.455	-0.048	0.058431919841354436	
9.46	-0.095	-0.007446993651903097	
9.465	-0.071	-0.051125155283258984	
9.47	-0.074	-0.07745741723073463	
9.475	-0.080	-0.09118332102585636	
9.48	-0.101	-0.09541271219941844	
9.485	-0.054	-0.09556347314653417	
9.49	-0.054	-0.08984926860701323	
9.495	-0.101	-0.08351642134243611	
9.5	-0.028	-0.07684021647719194	
9.505	0.047	-0.06458344570365107	
9.51	0.036	-0.043387697679645704	
9.515	0.010	-0.017165947837801076	
9.52	0.026	0.0024661802631367143	
9.525	-0.032	0.011863557836089993	
9.53	-0.061	0.010613807658021737	
9.535	-0.029	-0.000648949388755068	
9.54	-0.072	-0.014844743664989429	
9.545	-0.156	-0.034435306127958476	
9.55	-0.150	-0.06190080734835702	
9.555	-0.109	-0.09065083373213476	
9.56	-0.090	-0.10928537957553017	
9.565	-0.064	-0.11413392947643401	
9.57	-0.043	-0.10763705011417604	
9.575	-0.077	-0.09508402696084514	
9.58	-0.083	-0.08428831420097876	
9.585	-0.032	-0.07575790313984217	
9.59	0.145	-0.057868547417875144	
9.595	0.279	-0.014257095759961081	
9.6	0.249	0.054078205601773253	
9.605	-0.005	0.11417724897841389	
9.61	-0.098	0.12774315288061325	
9.615	-0.068	0.09891379036128256	
9.62	-0.048	0.05427575529003754	
9.625	0.030	0.014936865546681423	
9.63	0.149	0.0008043550918218411	
9.635	0.221	0.0192247431018738	
9.64	0.301	0.06610780821248653	
9.645	0.299	0.1277393114928997	
9.65	0.278	0.190041183884026	
9.655	0.266	0.23721299093001263	
9.66	0.226	0.2638035011743217	
9.665	0.206	0.27087045430879986	
9.67	0.174	0.2622493423325571	
9.675	0.188	0.24296946858458654	
9.68	0.256	0.22676693216278507	
9.685	0.328	0.22419116375512757	
9.69	0.385	0.24115651893547943	
9.695	0.316	0.2697333290464593	
9.7	0.325	0.29699451195148807	
9.705	0.363	0.3162583236016035	
9.71	0.348	0.3318461449608212	
9.715	0.397	0.34583157008348675	
9.72	0.412	0.36025448735746185	
9.725	0.405	0.37601908901040815	
9.73	0.415	0.38973332754971834	
9.735	0.455	0.40313498858297303	
9.74	0.470	0.4181892567386793	
9.745	0.379	0.42975457368988296	
9.75	0.249	0.42392994406487733	
9.755	0.168	0.39223892764152035	
9.76	0.061	0.3328900654399718	
9.765	-0.008	0.25580109271368856	
9.77	-0.066	0.17021169753851192	
9.775	-0.107	0.08507521357275012	
9.78	-0.158	0.006757806142066751	
9.785	-0.205	-0.06191911584318652	
9.79	-0.205	-0.11879031127673363	
9.795	-0.220	-0.1641835226013154	
9.8	-0.237	-0.19708374024713254	
9.805	-0.188	-0.21675033858891535	
9.81	-0.176	-0.22404127451254394	
9.815	-0.185	-0.21920714649808662	
9.82	-0.164	-0.208828849107184	
9.825	-0.130	-0.19489033963300773	
9.83	-0.126	-0.1782307065208602	
9.835	-0.135	-0.15996997378118055	
9.84	-0.153	-0.14679344919889165	
9.845	-0.144	-0.1411672416274064	
9.85	-0.167	-0.1401161360677731	
9.855	-0.185	-0.14376455600742333	
9.86	-0.225	-0.15503555054298448	
9.865	-0.269	-0.17323262082543642	
9.87	-0.242	-0.19582822607010922	
9.875	-0.243	-0.21786470660095122	
9.88	-0.257	-0.2332499766446862	
9.885	-0.251	-0.24497567554748154	
9.89	-0.255	-0.25175495417564125	
9.895	-0.240	-0.25517043196508504	
9.9	-0.245	-0.2551381809673463	
9.905	-0.226	-0.2517369941885699	
9.91	-0.249	-0.24701897110001955	
9.915	-0.257	-0.24525878124943445	
9.92	-0.210	-0.2428257296894956	
9.925	-0.161	-0.23583564962021078	
9.93	-0.095	-0.21825929110503284	
9.935	-0.064	-0.18798965747876512	
9.94	-0.061	-0.15173113819517986	
9.945	-0.200	-0.12418505506312716	
9.95	-0.249	-0.1201997351445092	
9.955	-0.236	-0.1387323740584316	
9.96	-0.205	-0.1659715081029825	
9.965	-0.164	-0.1852723488118996	
9.97	-0.110	-0.18984066254760962	
9.975	-0.061	-0.17779772480391015	
9.98	-0.071	-0.15426270196335032	
9.985	-0.049	-0.12503697322670848	
9.99	0.047	-0.09271226409215014	
9.995	0.058	-0.05612920292353854	
10.0	0.088	-0.015201507597993472	
10.005	0.067	0.021246509172229616	
10.01	0.058	0.04803315062377829	
10.015	0.081	0.0647166416222345	
10.02	0.117	0.07613339295444635	
10.025	0.139	0.08920383392344094	
10.03	0.127	0.10274594026123272	
10.035	0.180	0.11695020404548746	
10.04	0.223	0.135287222586575	
10.045	0.269	0.15988879080155716	
10.05	0.305	0.19179258578430444	
10.055	0.290	0.22623916563440596	
10.06	0.345	0.25805830760215676	
10.065	0.386	0.28872201108500084	
10.07	0.447	0.32311532197128134	
10.075	0.496	0.3622192544886895	
10.08	0.411	0.39975103436568155	
10.085	0.385	0.4229082752961556	
10.09	0.354	0.4272715635686416	
10.095	0.275	0.413902466731089	
10.1	0.166	0.37976194562509347	
10.105	0.052	0.32420293204724543	
10.11	-0.011	0.24808206639808464	
10.115	-0.071	0.16273608964786174	
10.12	-0.097	0.08008207822403571	
10.125	-0.107	0.0072286851321081095	
10.13	-0.121	-0.05019677939833044	
10.135	-0.138	-0.09108254388511791	
10.14	-0.104	-0.11773203067564508	
10.145	-0.098	-0.13006146680065722	
10.15	-0.068	-0.12920814284979892	
10.155	-0.052	-0.11679339420875356	
10.16	-0.054	-0.10091230260342104	
10.165	-0.049	-0.08426275850029612	
10.17	-0.028	-0.06792670915453494	
10.175	-0.019	-0.05278075202203971	
10.18	-0.042	-0.041214687579625944	
10.185	-0.057	-0.03509833537165559	
10.19	-0.031	-0.03373035799316858	
10.195	-0.063	-0.03607136818479134	
10.2	-0.118	-0.04323460347403615	
10.205	-0.069	-0.05479250625599152	
10.21	-0.052	-0.0648910866240673	
10.215	-0.107	-0.0712652928607938	
10.22	-0.133	-0.07894587333529925	
10.225	-0.124	-0.091781096664862	
10.23	-0.127	-0.10419155288428257	
10.235	-0.122	-0.114088028230002	
10.24	-0.095	-0.11975005757882275	
10.245	-0.103	-0.11906428056448275	
10.25	-0.107	-0.11619666233690754	
10.255	-0.132	-0.11381461623664667	
10.26	-0.127	-0.11393246442950124	
10.265	-0.069	-0.11522426460299118	
10.27	-0.017	-0.10691144785313147	
10.275	0.041	-0.08581368976389593	
10.28	-0.009	-0.057189377600996294	
10.285	-0.106	-0.03707580508350437	
10.29	-0.141	-0.03580203668611528	
10.295	-0.153	-0.05408128644720041	
10.3	-0.145	-0.08115390079295862	
10.305	-0.074	-0.10181538552942532	
10.31	-0.009	-0.10794076233097191	
10.315	0.018	-0.0951877606978658	
10.32	0.042	-0.06691634125623849	
10.325	0.061	-0.033859982120318155	
10.33	0.033	-0.0021760745735360343	
10.335	0.023	0.020962049973725725	
10.34	0.012	0.03318056252850615	
10.345	0.064	0.03690643441433197	
10.35	0.105	0.04388419544586214	
10.355	0.163	0.05918703252198447	
10.36	0.159	0.08300781636642517	
10.365	0.177	0.10980953196685767	
10.37	0.174	0.13411326613666602	
10.375	0.238	0.15711371244883765	
10.38	0.282	0.1818139000347884	
10.385	0.366	0.21502010726308884	
10.39	0.395	0.2561909532982884	
10.395	0.473	0.3048639354191532	
10.4	0.499	0.3569005931572362	
10.405	0.534	0.41020614265892225	
10.41	0.542	0.45695856556080255	
10.415	0.579	0.4978016023034713	
10.42	0.586	0.5311629957466919	
10.425	0.527	0.5550862405951622	
10.43	0.418	0.5587457738930726	
10.435	0.328	0.5360303477699176	
10.44	0.244	0.48619956264357234	
10.445	0.078	0.4138071507232791	
10.45	-0.003	0.3198871331083246	
10.455	-0.043	0.2162474477082875	
10.46	-0.084	0.11696563959841297	
10.465	-0.107	0.03179836837427593	
10.47	-0.071	-0.03280943164353385	
10.475	-0.068	-0.0728814707648189	
10.48	-0.075	-0.09222760935307078	
10.485	-0.072	-0.0979562970716196	
10.49	-0.048	-0.0947927919982279	
10.495	-0.064	-0.08716198594223237	
10.5	-0.043	-0.07709973997956894	
10.505	-0.042	-0.06678122802793125	
10.51	-0.037	-0.0570374823018575	
10.515	-0.029	-0.048191274007766294	
10.52	-0.066	-0.04184978196704356	
10.525	-0.046	-0.04091368502092923	
10.53	-0.080	-0.04420792390535297	
10.535	-0.106	-0.05196109491342009	
10.54	-0.042	-0.060823811966233494	
10.545	-0.074	-0.06714384197952525	
10.55	-0.089	-0.0700747671868634	
10.555	-0.110	-0.07481422215131603	
10.56	-0.132	-0.08405460100960668	
10.565	-0.152	-0.09815424215280537	
10.57	-0.194	-0.11485076330538052	
10.575	-0.147	-0.13394765351927723	
10.58	-0.121	-0.14717643630767197	
10.585	-0.100	-0.14891625802277295	
10.59	-0.103	-0.1408590216841742	
10.595	-0.126	-0.13217667320480914	
10.6	-0.179	-0.12703708839526368	
10.605	-0.109	-0.12880452923315822	
10.61	-0.002	-0.12408660683997254	
10.615	0.113	-0.09911003958174268	
10.62	0.128	-0.05179373255358559	
10.625	-0.031	-0.004016680276459157	
10.63	-0.150	0.016748214698433718	
10.635	-0.161	0.0011171896874554508	
10.64	-0.113	-0.03384842236109421	
10.645	-0.037	-0.06420818436090357	
10.65	0.046	-0.07398646286379026	
10.655	0.101	-0.05775450497671002	
10.66	0.064	-0.025142061184951697	
10.665	-0.009	0.005838719618010621	
10.67	-0.032	0.0212182994922908	
10.675	-0.037	0.018994621220010936	
10.68	-0.095	0.004766046889918336	
10.685	-0.083	-0.016854956922737117	
10.69	-0.061	-0.03886050331473015	
10.695	-0.040	-0.05422485582252228	
10.7	-0.013	-0.058976449962481234	
10.705	0.041	-0.05077066269387043	
10.71	0.052	-0.03315576400578624	
10.715	0.114	-0.005116315090544213	
10.72	0.148	0.029243897157534598	
10.725	0.177	0.0669648821456933	
10.73	0.233	0.10777792514537197	
10.735	0.331	0.15318695645046615	
10.74	0.350	0.20411497721981445	
10.745	0.371	0.25573830085423765	
10.75	0.427	0.3050451262665772	
10.755	0.449	0.3502305439766904	
10.76	0.391	0.38579611430862354	
10.765	0.337	0.4048694290875339	
10.77	0.331	0.40425542912546963	
10.775	0.204	0.38494311896334166	
10.78	0.046	0.3397452240038905	
10.785	-0.006	0.26917059359662565	
10.79	-0.045	0.18412089694777858	
10.795	-0.101	0.09876205741082772	
10.8	-0.115	0.022043678567366207	
10.805	-0.168	-0.042778738886448744	
10.81	-0.205	-0.09716197798118756	
10.815	-0.176	-0.14110018387365655	
10.82	-0.159	-0.16876049492409956	
10.825	-0.132	-0.18102077801495528	
10.83	-0.133	-0.1791985952009399	
10.835	-0.113	-0.16784845588181713	
10.84	-0.103	-0.15389279280723298	
10.845	-0.104	-0.13720998338512233	
10.85	-0.126	-0.12397998385524367	
10.855	-0.127	-0.11681874780106792	
10.86	-0.119	-0.11514018318791992	
10.865	-0.113	-0.11509165145242803	
10.87	-0.162	-0.11680723384280485	
10.875	-0.153	-0.12403847935528718	
10.88	-0.194	-0.13517462214609738	
10.885	-0.232	-0.15085676930040035	
10.89	-0.239	-0.17292544520050573	
10.895	-0.242	-0.1951963054215924	
10.9	-0.239	-0.21494157334680744	
10.905	-0.202	-0.22682746104663917	
10.91	-0.205	-0.23015788035458512	
10.915	-0.219	-0.22806172468489833	
10.92	-0.196	-0.2227970375600497	
10.925	-0.179	-0.21606817344909737	
10.93	-0.193	-0.20715682956967216	
10.935	-0.257	-0.202831684301987	
10.94	-0.298	-0.2089704199117286	
10.945	-0.301	-0.22721261115726138	
10.95	-0.174	-0.2438915743644022	
10.955	-0.032	-0.23781886359486915	
10.96	-0.006	-0.20317423999092254	
10.965	-0.098	-0.15504527570354065	
10.97	-0.208	-0.12082020413108091	
10.975	-0.229	-0.11712445571200074	
10.98	-0.202	-0.13313772668677698	
10.985	-0.132	-0.15178195447716936	
10.99	-0.023	-0.15597781113979414	
10.995	0.059	-0.1342005169985354	
11.0	0.156	-0.08684596045061233	
11.005	0.197	-0.021864670721084743	
11.01	0.230	0.04975810687070207	
11.015	0.305	0.1210169275488239	
11.02	0.374	0.18923678086469442	
11.025	0.391	0.2548217046205258	
11.03	0.434	0.3128616934290914	
11.035	0.482	0.3642619824359703	
11.04	0.478	0.40896203424794053	
11.045	0.495	0.4447435467744545	
11.05	0.563	0.4741914167487194	
11.055	0.576	0.5021364019230263	
11.06	0.556	0.5277188521710624	
11.065	0.600	0.5490320950916564	
11.07	0.646	0.5692581544572597	
11.075	0.680	0.5918115047463721	
11.08	0.684	0.6178665354121606	
11.085	0.721	0.6452733190928646	
11.09	0.802	0.673962300239935	
11.095	0.823	0.7087589288360836	
11.1	0.808	0.7461993447950914	
11.105	0.692	0.7710999695863499	
11.11	0.638	0.7706901236763739	
11.115	0.533	0.745052277876483	
11.12	0.382	0.6902469480184543	
11.125	0.172	0.6037394529306366	
11.13	-0.002	0.48285371224320517	
11.135	-0.043	0.34132431157841214	
11.14	-0.110	0.19894712180905616	
11.145	-0.174	0.07172713751399411	
11.15	-0.179	-0.0327397800683102	
11.155	-0.165	-0.1108447037910684	
11.16	-0.203	-0.16232079611740435	
11.165	-0.187	-0.19192193440948632	
11.17	-0.161	-0.20469842257414606	
11.175	-0.174	-0.20525058099053184	
11.18	-0.135	-0.19713498799800555	
11.185	-0.095	-0.1816506349905451	
11.19	-0.092	-0.1600730113041528	
11.195	-0.089	-0.1373040036727869	
11.2	-0.049	-0.11473900170869028	
11.205	-0.081	-0.0948594818313081	
11.21	-0.092	-0.08235939245622441	
11.215	-0.077	-0.07593230992719108	
11.22	-0.116	-0.07568768660340618	
11.225	-0.148	-0.08326949965477803	
11.23	-0.176	-0.0981638638240523	
11.235	-0.179	-0.11863692776724137	
11.24	-0.200	-0.14105782221333268	
11.245	-0.202	-0.16232952907735662	
11.25	-0.216	-0.17973570340852063	
11.255	-0.182	-0.19382131188500779	
11.26	-0.147	-0.19836547388259917	
11.265	-0.080	-0.18893511066157487	
11.27	-0.066	-0.1666451022015043	
11.275	-0.103	-0.14027694992114545	
11.28	-0.104	-0.11820124302851104	
11.285	-0.026	-0.10060400567163902	
11.29	0.252	-0.07002295300303918	
11.295	0.492	0.0026736430803945372	
11.3	0.592	0.12331319911544751	
11.305	0.386	0.25416899415078265	
11.31	0.006	0.3344890531061704	
11.315	-0.127	0.3259908008682101	
11.32	-0.135	0.2434078293410314	
11.325	-0.051	0.136722522943366	
11.33	0.018	0.04979259889093971	
11.335	0.127	0.0034777264918658345	
11.34	0.101	-0.0040232615795709106	
11.345	0.079	0.011564243800041727	
11.35	0.177	0.03830588505658322	
11.355	0.186	0.07226284836988928	
11.36	0.154	0.10753494623315767	
11.365	0.142	0.1350084252732912	
11.37	0.197	0.15344351298786385	
11.375	0.201	0.1667130524240878	
11.38	0.197	0.17973351791176903	
11.385	0.249	0.19245035848631975	
11.39	0.269	0.20699020600153267	
11.395	0.279	0.22456200035137797	
11.4	0.351	0.24728741364626936	
11.405	0.394	0.27626913774427153	
11.41	0.406	0.3095556080250177	
11.415	0.460	0.34700975623473074	
11.42	0.568	0.38844279410292176	
11.425	0.617	0.4387303183209248	
11.43	0.676	0.4967400026282079	
11.435	0.701	0.5574333153007947	
11.44	0.651	0.6099791292085177	
11.445	0.628	0.6445535200152461	
11.45	0.576	0.657260843118658	
11.455	0.412	0.6432462308437902	
11.46	0.241	0.5925364545302361	
11.465	0.154	0.5079782193937132	
11.47	0.046	0.39943908822199836	
11.475	-0.064	0.28074505491793394	
11.48	-0.173	0.1587126650687141	
11.485	-0.194	0.04243052967848204	
11.49	-0.236	-0.060950898784170364	
11.495	-0.240	-0.1414223019881346	
11.5	-0.197	-0.19675697396955996	
11.505	-0.181	-0.2256873559259071	
11.51	-0.208	-0.2343954850367808	
11.515	-0.219	-0.23205702559852143	
11.52	-0.188	-0.22657205725257692	
11.525	-0.145	-0.21719596328598417	
11.53	-0.127	-0.20029292153818862	
11.535	-0.126	-0.17861967050438382	
11.54	-0.141	-0.15894321892180044	
11.545	-0.170	-0.14742537351919083	
11.55	-0.155	-0.14281155717937277	
11.555	-0.136	-0.14269635501838412	
11.56	-0.193	-0.14537364286033683	
11.565	-0.217	-0.1540848965346186	
11.57	-0.231	-0.16858922377992994	
11.575	-0.236	-0.18816973877658533	
11.58	-0.248	-0.2063043855138506	
11.585	-0.211	-0.21963971514562447	
11.59	-0.217	-0.2279053536348202	
11.595	-0.214	-0.2294077626093146	
11.6	-0.197	-0.22583899908936106	
11.605	-0.200	-0.22068674560089055	
11.61	-0.223	-0.21535301117408207	
11.615	-0.225	-0.21310218335856126	
11.62	-0.222	-0.2135896530046686	
11.625	-0.203	-0.21515024135869049	
11.63	-0.089	-0.20930992211653415	
11.635	0.159	-0.1776249958102491	
11.64	0.243	-0.10785397296151056	
11.645	0.110	-0.019421237087510302	
11.65	-0.115	0.04406907950442067	
11.655	-0.249	0.05027507106520351	
11.66	-0.260	0.003680169814566112	
11.665	-0.176	-0.06410582447682897	
11.67	-0.101	-0.11759634058083841	
11.675	-0.054	-0.14309166287024921	
11.68	-0.028	-0.13929922511715198	
11.685	-0.014	-0.11770184311385845	
11.69	0.006	-0.08787393386885896	
11.695	0.026	-0.0563690027272349	
11.7	0.018	-0.02590307493669897	
11.705	0.033	-0.0017014198828408608	
11.71	-0.037	0.01170604889763462	
11.715	0.009	0.014863702235387586	
11.72	0.093	0.01837210476274037	
11.725	0.134	0.030928979636903723	
11.73	0.124	0.053692168494075314	
11.735	0.148	0.08025887221421601	
11.74	0.204	0.106145863112464	
11.745	0.224	0.1356605960946125	
11.75	0.293	0.16907027416069176	
11.755	0.324	0.20629746237240154	
11.76	0.400	0.24875514160880438	
11.765	0.492	0.2978673302672632	
11.77	0.583	0.35833880365432347	
11.775	0.577	0.42493749014067855	
11.78	0.574	0.48569664881020513	
11.785	0.527	0.5302162230013469	
11.79	0.472	0.5511326139965601	
11.795	0.328	0.541665850214836	
11.8	0.214	0.5000181282646974	
11.805	0.093	0.4262681069910234	
11.81	-0.031	0.3277862216761454	
11.815	-0.129	0.21484252674700965	
11.82	-0.171	0.09829778648433456	
11.825	-0.155	-0.006006157205050884	
11.83	-0.173	-0.08624889565750918	
11.835	-0.162	-0.1408033075071495	
11.84	-0.171	-0.17184271319748728	
11.845	-0.184	-0.1882628673605246	
11.85	-0.174	-0.19398129048289145	
11.855	-0.136	-0.1917446618999714	
11.86	-0.174	-0.18416098263770542	
11.865	-0.104	-0.1731476748368344	
11.87	-0.037	-0.15574997309110264	
11.875	-0.002	-0.125985435095335	
11.88	0.013	-0.09023339419787613	
11.885	0.021	-0.05288195760156901	
11.89	0.007	-0.022856163904976814	
11.895	-0.016	-0.002207188803975359	
11.9	-0.014	0.00596289207940129	
11.905	-0.034	0.006201808905317829	
11.91	-0.100	-0.004087183920068528	
11.915	-0.214	-0.02916311155310982	
11.92	-0.280	-0.07286105171856118	
11.925	-0.352	-0.132944836132659	
11.93	-0.379	-0.20116915210121247	
11.935	-0.391	-0.26595982399845075	
11.94	-0.420	-0.3228473325079571	
11.945	-0.440	-0.368099993354379	
11.95	-0.410	-0.40107764880787644	
11.955	-0.390	-0.4198449525998733	
11.96	-0.394	-0.4239811198572867	
11.965	-0.390	-0.42114686414947305	
11.97	-0.347	-0.4109419407766478	
11.975	-0.258	-0.3928711130731879	
11.98	-0.164	-0.3590966288375883	
11.985	-0.202	-0.31206058157956634	
11.99	-0.303	-0.2718773870150567	
11.995	-0.356	-0.255040197227761	
12.0	-0.341	-0.2631483794242623	
12.005	-0.275	-0.27889169081095777	
12.01	-0.205	-0.2848834558938794	
12.015	-0.139	-0.274150202241186	
12.02	-0.124	-0.24601759190832645	
12.025	-0.066	-0.20781201066670457	
12.03	-0.046	-0.1650797975254472	
12.035	-0.066	-0.1231591142114636	
12.04	-0.003	-0.08883265724954778	
12.045	0.059	-0.05593440879808963	
12.05	0.035	-0.022212714339381955	
12.055	0.064	0.007054777524194624	
12.06	0.127	0.03418045157898639	
12.065	0.139	0.060834714413617756	
12.07	0.140	0.08891784503071297	
12.075	0.130	0.11121406738181344	
12.08	0.165	0.12793942004774617	
12.085	0.191	0.14181227836703378	
12.09	0.244	0.16018719935030262	
12.095	0.324	0.18508909050001268	
12.1	0.423	0.22376753660127463	
12.105	0.527	0.28008253640568864	
12.11	0.556	0.3502164677064945	
12.115	0.519	0.4187772421597575	
12.12	0.432	0.4688824814157473	
12.125	0.444	0.4922613547102756	
12.13	0.402	0.49092031823895443	
12.135	0.273	0.47075015449586655	
12.14	0.189	0.42620741575484655	
12.145	0.020	0.3570848685744795	
12.15	-0.080	0.26269196878210577	
12.155	-0.109	0.1580877844421366	
12.16	-0.126	0.05727150745202089	
12.165	-0.161	-0.02723531771050902	
12.17	-0.156	-0.09109998701454246	
12.175	-0.148	-0.13466234561684753	
12.18	-0.152	-0.1590804418552766	
12.185	-0.133	-0.16927402802776953	
12.19	-0.116	-0.16672746380715392	
12.195	-0.133	-0.15787693185530413	
12.2	-0.153	-0.15035841489908042	
12.205	-0.127	-0.1439104266166431	
12.21	-0.098	-0.13768529360462367	
12.215	-0.100	-0.12928174824865662	
12.22	-0.119	-0.12014886078509625	
12.225	-0.122	-0.11462342580260994	
12.23	-0.148	-0.11508965902416364	
12.235	-0.147	-0.12034053497605923	
12.24	-0.115	-0.1256975944185843	
12.245	-0.106	-0.12783015121156718	
12.25	-0.168	-0.1284118852177572	
12.255	-0.164	-0.13192536244337386	
12.26	-0.156	-0.1396319110849349	
12.265	-0.203	-0.15030760772470683	
12.27	-0.223	-0.16318910741792808	
12.275	-0.181	-0.17757193174028485	
12.28	-0.168	-0.18706685546310123	
12.285	-0.158	-0.18837939583708727	
12.29	-0.136	-0.18268389700236434	
12.295	-0.106	-0.1708044163761868	
12.3	-0.147	-0.15643729398430203	
12.305	-0.127	-0.14492847929902278	
12.31	-0.069	-0.13360801767933905	
12.315	-0.043	-0.11830920107491086	
12.32	-0.022	-0.0971891842962749	
12.325	-0.014	-0.07256680020280754	
12.33	-0.147	-0.057090988831423016	
12.335	-0.165	-0.060409522096504006	
12.34	-0.127	-0.07868427778658157	
12.345	-0.092	-0.09678344773113176	
12.35	-0.095	-0.10742959033680684	
12.355	-0.051	-0.10693965642201392	
12.36	0.029	-0.09459364865107713	
12.365	0.050	-0.06928434450657013	
12.37	0.081	-0.03421449022452842	
12.375	0.017	0.00041144548303503436	
12.38	0.041	0.023945259718281178	
12.385	0.082	0.0396069601749282	
12.39	0.145	0.056296640462015754	
12.395	0.136	0.07722419823263893	
12.4	0.157	0.0995676367930181	
12.405	0.212	0.12303486170450545	
12.41	0.233	0.1494195176576465	
12.415	0.201	0.17471443654103325	
12.42	0.165	0.19273651690021235	
12.425	0.238	0.20142781455788555	
12.43	0.226	0.20800455666404036	
12.435	0.209	0.21457317448569713	
12.44	0.313	0.22225039722145787	
12.445	0.398	0.24228811804568215	
12.45	0.415	0.27661007435940255	
12.455	0.464	0.3219643222039479	
12.46	0.513	0.3704053060483763	
12.465	0.489	0.41579182999410774	
12.47	0.424	0.45071259203586117	
12.475	0.371	0.4633400957767789	
12.48	0.301	0.4520382176395603	
12.485	0.175	0.41561199369307067	
12.49	0.032	0.3531566298519788	
12.495	-0.028	0.2662428956295833	
12.5	-0.068	0.17068550816205963	
12.505	-0.084	0.0809691054786513	
12.51	-0.109	0.006348340513658705	
12.515	-0.113	-0.05215964622221446	
12.52	-0.107	-0.0912137743913855	
12.525	-0.080	-0.11168247251558666	
12.53	-0.103	-0.11896534354488181	
12.535	-0.090	-0.11732207588765266	
12.54	-0.058	-0.11082770942805623	
12.545	-0.048	-0.0987822744333974	
12.55	-0.051	-0.08429789834973524	
12.555	-0.051	-0.07103218308369998	
12.56	-0.064	-0.060694940539782895	
12.565	-0.069	-0.05616263913440309	
12.57	-0.081	-0.0572077959931179	
12.575	-0.058	-0.05971883773435145	
12.58	-0.068	-0.06296572964796965	
12.585	-0.107	-0.0662955734510526	
12.59	-0.116	-0.07386109539614016	
12.595	-0.103	-0.08480295519657415	
12.6	-0.124	-0.09525371548646619	
12.605	-0.153	-0.10603455698543791	
12.61	-0.179	-0.11973846274343984	
12.615	-0.170	-0.13613315661569075	
12.62	-0.164	-0.15016782291792646	
12.625	-0.173	-0.1597577119426588	
12.63	-0.156	-0.16698323737889906	
12.635	-0.141	-0.1682422921123961	
12.64	-0.129	-0.16385240094268538	
12.645	-0.130	-0.15584769820300287	
12.65	-0.101	-0.14624280504127318	
12.655	-0.040	-0.13099049632474927	
12.66	0.033	-0.1057466452606003	
12.665	0.046	-0.07115343290448936	
12.67	-0.035	-0.037155023660883996	
12.675	-0.122	-0.019773928380507295	
12.68	-0.194	-0.030034589609447476	
12.685	-0.185	-0.06124238471063467	
12.69	-0.106	-0.0958144180180958	
12.695	-0.049	-0.1158483310326393	
12.7	-0.032	-0.11625054763912096	
12.705	-0.019	-0.09996897163936386	
12.71	0.018	-0.07575443503425637	
12.715	0.075	-0.04618198058118419	
12.72	0.120	-0.010122968625149222	
12.725	0.113	0.0302732932148748	
12.73	0.122	0.06494379189004074	
12.735	0.120	0.09273866348544489	
12.74	0.166	0.11421660076857874	
12.745	0.149	0.13112716669171362	
12.75	0.116	0.14168458079142415	
12.755	0.169	0.1460574084681951	
12.76	0.220	0.15329090448740276	
12.765	0.188	0.16376913717496355	
12.77	0.191	0.17584771079140218	
12.775	0.308	0.190329900423731	
12.78	0.372	0.21596677068778022	
12.785	0.414	0.25671369436263003	
12.79	0.486	0.30722806277150316	
12.795	0.559	0.3651527767050309	
12.8	0.536	0.4246809094257821	
12.805	0.505	0.47403535126811297	
12.81	0.522	0.5072650244525924	
12.815	0.440	0.5207684677389017	
12.82	0.354	0.5128542634545041	
12.825	0.314	0.4822845415259169	
12.83	0.146	0.42892818575101843	
12.835	0.035	0.3537337206044433	
12.84	0.015	0.26321344709556393	
12.845	-0.031	0.1711212672981398	
12.85	-0.074	0.08773299060960053	
12.855	-0.112	0.018072829173429308	
12.86	-0.138	-0.03976997317496124	
12.865	-0.132	-0.08519987192363475	
12.87	-0.100	-0.11407133076441839	
12.875	-0.069	-0.1257309358827757	
12.88	-0.071	-0.12308116304722824	
12.885	-0.063	-0.11119815532674451	
12.89	-0.075	-0.09778911281198395	
12.895	-0.043	-0.0849458383866652	
12.9	-0.019	-0.07124193747437696	
12.905	0.035	-0.05288674069478586	
12.91	0.039	-0.02982686029190805	
12.915	0.007	-0.00822645765383384	
12.92	-0.023	0.005963890786524854	
12.925	-0.046	0.008228920671353973	
12.93	-0.093	-0.0021335176398591107	
12.935	-0.068	-0.02115442407341429	
12.94	-0.054	-0.03876612081494344	
12.945	-0.087	-0.052987560909003785	
12.95	-0.127	-0.06623902532782751	
12.955	-0.129	-0.08186592627382713	
12.96	-0.133	-0.09885070388558852	
12.965	-0.126	-0.11322333507096548	
12.97	-0.115	-0.12199691165691354	
12.975	-0.098	-0.12477089031281413	
12.98	-0.121	-0.12314206179199116	
12.985	-0.148	-0.12213660966109888	
12.99	-0.168	-0.12578051310269914	
12.995	-0.119	-0.13301275584628355	
13.0	-0.043	-0.1321998566644183	
13.005	0.081	-0.11282659319590439	
13.01	0.113	-0.07187609444816655	
13.015	-0.023	-0.12314206179199116	
13.02	-0.153	-0.12477089031281413	
13.025	-0.213	-0.12477089031281413	
13.03	-0.252	-0.12416412988978894	
13.035	-0.225	-0.11108224297897323	
13.04	-0.171	-0.15677319090173733	
13.045	-0.156	-0.1840381037014771	
13.05	-0.119	-0.1911658534736613	
13.055	-0.087	-0.18182810602657204	
13.06	-0.090	-0.16093330111073254	
13.065	-0.119	-0.13920887151981007	
13.07	-0.148	-0.12494162648471727	
13.075	-0.150	-0.12085292978201742	
13.08	-0.145	-0.12416412988978894	
13.085	-0.142	-0.130037922380345	
13.09	-0.124	-0.1338126326665903	
13.095	-0.127	-0.13508137322800762	
13.1	-0.095	-0.13312450668870537	
13.105	-0.061	-0.12483084489648255	
13.11	-0.032	-0.10897613141662568	
13.115	-0.006	-0.08717008231302338	
13.12	0.099	-0.05790461179974851	
13.125	0.183	-0.01587821988896716	
13.13	0.264	0.041856711317323075	
13.135	0.357	0.1109941063129345	
13.14	0.424	0.19015060833888425	
13.145	0.437	0.2689138736280414	
13.15	0.438	0.3388987363898879	
13.155	0.388	0.3891127968483661	
13.16	0.385	0.41498587087855004	
13.165	0.345	0.42087273813288484	
13.17	0.247	0.40706983605701746	
13.175	0.116	0.36903892098618296	
13.18	0.017	0.3048638556295036	
13.185	-0.029	0.22302350027174278	
13.19	-0.057	0.13711256507141217	
13.195	-0.098	0.057915391648525535	
13.2	-0.115	-0.008034123527735044	
13.205	-0.167	-0.061874168073480194	
13.21	-0.196	-0.10703666670062038	
13.215	-0.262	-0.14709347555259306	
13.22	-0.318	-0.18790061845747194	
13.225	-0.335	-0.22997839067546055	
13.23	-0.329	-0.2691115679111302	
13.235	-0.301	-0.297928183865274	
13.24	-0.226	-0.31091018676915044	
13.245	-0.168	-0.3021027976353228	
13.25	-0.132	-0.27398632178352067	
13.255	-0.112	-0.2348843696292551	
13.26	-0.098	-0.19309483353782858	
13.265	-0.072	-0.15505986659548943	
13.27	-0.048	-0.11986428178854858	
13.275	-0.081	-0.09304115158874432	
13.28	-0.080	-0.0761327107804736	
13.285	-0.087	-0.06788223221798409	
13.29	-0.075	-0.06694842771996823	
13.295	-0.097	-0.07016617741599412	
13.3	-0.084	-0.07394627667791934	
13.305	-0.074	-0.07885842024731413	
13.31	-0.063	-0.08014834910628722	
13.315	-0.078	-0.07804470866356472	
13.32	-0.084	-0.07681067849680831	
13.325	-0.104	-0.07908756346733786	
13.33	-0.103	-0.08314866671351337	
13.335	-0.078	-0.08780454926709069	
13.34	-0.009	-0.08596508049592914	
13.345	0.146	-0.06720844434488904	
13.35	0.301	-0.018849383705103143	
13.355	0.282	0.056173233832365	
13.36	0.033	0.12372436332764365	
13.365	-0.090	0.14691810848934156	
13.37	-0.124	0.11824681860577888	
13.375	-0.077	0.06288483737284975	
13.38	-0.008	0.010830619797738462	
13.385	0.050	-0.017736144144515277	
13.39	0.116	-0.019951471032518917	
13.395	0.163	0.0037368763663690303	
13.4	0.188	0.04314559678958567	
13.405	0.194	0.08918612664157095	
13.41	0.197	0.1297230273903474	
13.415	0.178	0.16196965694962603	
13.42	0.226	0.18428996955935575	
13.425	0.217	0.1998355993939205	
13.43	0.209	0.21079928137067652	
13.435	0.270	0.21929343946008542	
13.44	0.302	0.23102242631572767	
13.445	0.273	0.24669366318435926	
13.45	0.324	0.2641760121509794	
13.455	0.354	0.2821989656469776	
13.46	0.409	0.30469831420564375	
13.465	0.469	0.3360058233759373	
13.47	0.534	0.37632017424448616	
13.475	0.559	0.42279688582524566	
13.48	0.589	0.4718064752302206	
13.485	0.654	0.5193310627238632	
13.49	0.655	0.5639793697210997	
13.495	0.699	0.6046681858923681	
13.5	0.684	0.6402278670573198	
13.505	0.559	0.6601736864423005	
13.51	0.357	0.6476052974687512	
13.515	0.267	0.5930031627998193	
13.52	0.192	0.5073478976077673	
13.525	0.072	0.40375606987844725	
13.53	-0.051	0.29178925875907163	
13.535	-0.087	0.17837264725817123	
13.54	-0.119	0.07299177902227415	
13.545	-0.152	-0.014340785579777068	
13.55	-0.148	-0.08074480506592556	
13.555	-0.132	-0.12478493420471319	
13.56	-0.112	-0.14835919132093117	
13.565	-0.080	-0.15196071053761045	
13.57	-0.057	-0.14063961321358592	
13.575	-0.058	-0.12125296327773732	
13.58	-0.034	-0.09920182194327044	
13.585	-0.020	-0.07561799418118675	
13.59	-0.009	-0.05503646535866005	
13.595	-0.058	-0.039371694641208835	
13.6	-0.051	-0.03174467907915045	
13.605	-0.058	-0.0327964656208239	
13.61	-0.097	-0.039394401030830944	
13.615	-0.095	-0.05096564268963737	
13.62	-0.060	-0.06362629809539741	
13.625	-0.097	-0.07226287609794378	
13.63	-0.130	-0.08120671037448354	
13.635	-0.145	-0.09261367355298568	
13.64	-0.165	-0.10904404768546301	
13.645	-0.156	-0.12636061653001518	
13.65	-0.126	-0.13872196651805604	
13.655	-0.141	-0.14480145601575217	
13.66	-0.165	-0.14839813199908558	
13.665	-0.176	-0.15095172026358009	
13.67	-0.185	-0.15763435299567657	
13.675	-0.196	-0.16628245774263772	
13.68	-0.145	-0.17318960754478196	
13.685	0.038	-0.1645762458676428	
13.69	0.259	-0.12202276479615977	
13.695	0.308	-0.03834141781661215	
13.7	0.233	0.06127255065922552	
13.705	-0.074	0.131123433607799	
13.71	-0.181	0.1365363086218315	
13.715	-0.187	0.0860718074192639	
13.72	-0.132	0.013394668067034491	
13.725	-0.083	-0.04929835844604901	
13.73	-0.032	-0.08617308025739492	
13.735	-0.008	-0.09554700801900504	
13.74	0.006	-0.0850741148644869	
13.745	-0.028	-0.06539965360912142	
13.75	0.033	-0.04367651116177655	
13.755	0.101	-0.018793018497688784	
13.76	0.125	0.012556382752099703	
13.765	0.174	0.05107809382097583	
13.77	0.206	0.09140315358543788	
13.775	0.197	0.1296656259329308	
13.78	0.157	0.16079075694527942	
13.785	0.204	0.1794502411899052	
13.79	0.175	0.18891128083030667	
13.795	0.197	0.19359501815221836	
13.8	0.282	0.2003481485290148	
13.805	0.299	0.21520110835224315	
13.81	0.318	0.2375368755048342	
13.815	0.449	0.26909995935797615	
13.82	0.602	0.3194270056834285	
13.825	0.635	0.38967128357555686	
13.83	0.699	0.47079739016278227	
13.835	0.718	0.5524473453017452	
13.84	0.625	0.6159027833366291	
13.845	0.527	0.649568920015697	
13.85	0.460	0.6452997968113416	
13.855	0.321	0.6051893217338125	
13.86	0.172	0.5315405579055252	
13.865	0.062	0.4320502903422565	
13.87	-0.054	0.31439629772631306	
13.875	-0.124	0.1897005859452517	
13.88	-0.167	0.07279925840947679	
13.885	-0.153	-0.026553044168734125	
13.89	-0.164	-0.10003259654863862	
13.895	-0.174	-0.1483835444962596	
13.9	-0.139	-0.17370206147154726	
13.905	-0.139	-0.18177400231386437	
13.91	-0.133	-0.17841424141479334	
13.915	-0.142	-0.16796440077730285	
13.92	-0.141	-0.15760938022995769	
13.925	-0.115	-0.14927677828273314	
13.93	-0.124	-0.14022146249601197	
13.935	-0.095	-0.1305854089497489	
13.94	-0.130	-0.12203265861727124	
13.945	-0.142	-0.11940406951911205	
13.95	-0.107	-0.11872845129473225	
13.955	-0.097	-0.11775681153351682	
13.96	-0.126	-0.11641628099761701	
13.965	-0.159	-0.11599618622777441	
13.97	-0.159	-0.122593677458155	
13.975	-0.196	-0.13526072808350537	
13.98	-0.211	-0.15125620848171317	
13.985	-0.207	-0.1685822022915746	
13.99	-0.196	-0.1839942163627156	
13.995	-0.211	-0.19541850490497437	
14.0	-0.203	-0.2027428777814903	
14.005	-0.200	-0.2067305708642524	
14.01	-0.245	-0.21042304087613428	
14.015	-0.260	-0.21601617804790593	
14.02	-0.243	-0.2255698629386738	
14.025	-0.127	-0.2292435578776467	
14.03	0.131	-0.20624643655506864	
14.035	0.402	-0.13052017796707374	
14.04	0.379	-0.009960402043444682	
14.045	0.027	-0.16561656047773343	
14.05	-0.174	0.15615728390498865	
14.055	-0.236	0.1262745509155484	
14.06	-0.265	0.04560120325451793	
14.065	-0.222	-0.04804001705385826	
14.07	-0.161	-0.12455612620903495	
14.075	-0.101	-0.16918243658981746	
14.08	-0.074	-0.1802705026850615	
14.085	-0.043	-0.16561656047773343	
14.09	0.024	-0.13394722545005397	
14.095	0.055	-0.09139199330014135	
14.1	0.122	-0.040798386045552484	
14.105	0.133	0.011263912791420866	
14.11	0.093	0.05562854155186489	
14.115	0.142	0.08994962813602861	
14.12	0.191	0.11638400684136366	
14.125	0.192	0.13981209447480225	
14.13	0.198	0.16173608170897802	
14.135	0.250	0.1823422773888962	
14.14	0.214	0.20004686939322808	
14.145	0.218	0.21262880765433267	
14.15	0.284	0.22417400992695785	
14.155	0.380	0.2412672406298559	
14.16	0.467	0.27469320132081937	
14.165	0.541	0.32695511278080736	
14.17	0.574	0.3903462570371409	
14.175	0.585	0.4538315842686039	
14.18	0.541	0.5067464209839909	
14.185	0.531	0.5412925642916917	
14.19	0.444	0.5520340720574466	
14.195	0.331	0.5366519025341763	
14.2	0.243	0.49213718198602535	
14.205	0.058	0.42021449879893347	
14.21	-0.016	0.32269611520247543	
14.215	-0.075	0.21295352634172704	
14.22	-0.104	0.10733361830456707	
14.225	-0.167	0.014868509506920941	
14.23	-0.199	-0.06322655964899809	
14.235	-0.148	-0.12171190966443211	
14.24	-0.129	-0.15791259489465542	
14.245	-0.129	-0.17129680875631864	
14.25	-0.118	-0.16888818649266052	
14.255	-0.101	-0.15776501502437557	
14.26	-0.071	-0.1422401652201269	
14.265	-0.060	-0.12208238963951762	
14.27	-0.054	-0.09971268360742877	
14.275	-0.022	-0.08009078689860222	
14.28	-0.034	-0.061234153473998444	
14.285	-0.006	-0.044773663819159544	
14.29	-0.016	-0.03190615606266682	
14.295	-0.061	-0.02428955530250692	
14.3	-0.052	-0.023932326056720615	
14.305	-0.086	-0.03176388441001231	
14.31	-0.104	-0.045217882721346456	
14.315	-0.100	-0.061108795356710016	
14.32	-0.129	-0.07771713593089442	
14.325	-0.133	-0.09406085256565466	
14.33	-0.141	-0.1102462229769838	
14.335	-0.116	-0.12078539642514703	
14.34	-0.092	-0.1258697198724934	
14.345	-0.113	-0.12528506309673165	
14.35	-0.092	-0.1199557364647997	
14.355	-0.086	-0.1127345018205343	
14.36	-0.124	-0.10620378994387891	
14.365	-0.101	-0.10415408000769047	
14.37	0.009	-0.09770174810909261	
14.375	0.142	-0.07399393387014726	
14.38	0.163	-0.028263499489219246	
14.385	-0.003	0.021160863742268325	
14.39	-0.150	0.04212399575262137	
14.395	-0.228	0.019687767311658978	
14.4	-0.197	-0.03198746051005932	
14.405	-0.130	-0.08568851878182618	
14.41	-0.046	-0.12016682913695614	
14.415	-0.003	-0.12517391798274358	
14.42	0.052	-0.10368182806740198	
14.425	0.064	-0.06798881170084634	
14.43	0.072	-0.02532879914615086	
14.435	0.139	0.016187060148108997	
14.44	0.223	0.060227081510635536	
14.445	0.169	0.10467322758988017	
14.45	0.148	0.14095582522950506	
14.455	0.131	0.1603327955774862	
14.46	0.139	0.16481453081734715	
14.465	0.178	0.16376634124034675	
14.47	0.212	0.1663413610259416	
14.475	0.235	0.1750388205415943	
14.48	0.256	0.1896346889185053	
14.485	0.331	0.21319734637949395	
14.49	0.362	0.2432668421184615	
14.495	0.385	0.2796407558615108	
14.5	0.481	0.3209535754090649	
14.505	0.519	0.368407957105062	
14.51	0.530	0.41680146328262563	
14.515	0.560	0.4636967337835141	
14.52	0.614	0.5053827506800702	
14.525	0.571	0.5410690172232464	
14.53	0.411	0.5585414015288941	
14.535	0.421	0.5481632152083349	
14.54	0.371	0.5173293587595456	
14.545	0.204	0.4686163912100356	
14.55	0.096	0.3988702085179984	
14.555	0.058	0.31242815733190543	
14.56	-0.025	0.22086592773486435	
14.565	-0.087	0.130664647703024	
14.57	-0.112	0.0483398440520989	
14.575	-0.107	-0.01985284859385647	
14.58	-0.071	-0.06938867698993634	
14.585	0.009	-0.09087628737842342	
14.59	0.044	-0.08464763503829854	
14.595	0.042	-0.061297590835870365	
14.6	0.070	-0.028164866218682753	
14.605	0.062	0.0053900265913404575	
14.61	0.056	0.03092866230319658	
14.615	0.044	0.04863737499919221	
14.62	0.050	0.05726857215139459	
14.625	0.056	0.06019864514802835	
14.63	-0.011	0.05660763189068222	
14.635	-0.023	0.04601705531821142	
14.64	-0.003	0.029373170629526497	
14.645	-0.081	0.009762659725642582	
14.65	-0.081	-0.012238423469394463	
14.655	-0.119	-0.037629275048559535	
14.66	-0.150	-0.06498111974719653	
14.665	-0.142	-0.09238161282885668	
14.67	-0.165	-0.1167921703917223	
14.675	-0.153	-0.13573070299948964	
14.68	-0.167	-0.1503570732354353	
14.685	-0.190	-0.16005658068627832	
14.69	-0.179	-0.16860509801729107	
14.695	-0.153	-0.17517218647358704	
14.7	-0.168	-0.17528937763189184	
14.705	-0.174	-0.17364727791527357	
14.71	-0.144	-0.17191883834517407	
14.715	-0.048	-0.16240101553382508	
14.72	0.000	-0.13881488766507008	
14.725	0.053	-0.10067679692083054	
14.73	-0.054	-0.06238312046801725	
14.735	-0.177	-0.042127227018333956	
14.74	-0.213	-0.05258057583470451	
14.745	-0.234	-0.08716733270341424	
14.75	-0.214	-0.1293373246393808	
14.755	-0.144	-0.162605694392127	
14.76	-0.089	-0.17686761793299743	
14.765	-0.051	-0.1684498349391599	
14.77	0.006	-0.14182781985225879	
14.775	0.026	-0.10262849611469171	
14.78	-0.037	-0.06440382775720603	
14.785	0.012	-0.03514710301003252	
14.79	0.059	-0.011511878987880595	
14.795	0.035	0.008851506455037657	
14.8	0.049	0.025590924011477917	
14.805	0.078	0.039389811030203725	
14.81	0.091	0.05217761345165272	
14.815	0.055	0.062498743025901776	
14.82	0.130	0.07211719679625132	
14.825	0.223	0.08844256029973654	
14.83	0.211	0.1156390709534987	
14.835	0.186	0.14678035563488367	
14.84	0.290	0.17548310460769245	
14.845	0.395	0.20993436435516385	
14.85	0.397	0.25658380908088685	
14.855	0.444	0.3083280794659188	
14.86	0.457	0.35620213780723764	
14.865	0.432	0.3965386887659618	
14.87	0.412	0.4240680300247532	
14.875	0.347	0.43338607556618003	
14.88	0.204	0.41765545521437497	
14.885	0.130	0.373788233106933	
14.89	0.073	0.3084356731286493	
14.895	-0.025	0.23092346988870865	
14.9	-0.100	0.14561019936852598	
14.905	-0.142	0.06131094112618392	
14.91	-0.179	-0.01779750423853043	
14.915	-0.211	-0.08741196873028431	
14.92	-0.231	-0.14292985927894214	
14.925	-0.194	-0.18361477344709326	
14.93	-0.182	-0.2072764808156625	
14.935	-0.167	-0.214185758787864	
14.94	-0.135	-0.20759489362043307	
14.945	-0.138	-0.19305067993829056	
14.95	-0.130	-0.17536406851408648	
14.955	-0.112	-0.1567292507185738	
14.96	-0.100	-0.14080763142301464	
14.965	-0.129	-0.12738889743543164	
14.97	-0.113	-0.11795967115926936	
14.975	-0.090	-0.11264645568113839	
14.98	-0.145	-0.1102596919501418	
14.985	-0.121	-0.11119521192325663	
14.99	-0.083	-0.1126274040006583	
14.995	-0.112	-0.11102938272094261	
15.0	-0.148	-0.11134660149842752	
15.005	-0.162	-0.11677276640321475	
15.01	-0.155	-0.1268080950048549	
15.015	-0.176	-0.1383362887195151	
15.02	-0.188	-0.15098431688702027	
15.025	-0.200	-0.16268554953364417	
15.03	-0.182	-0.17520230932482542	
15.035	-0.167	-0.18217724153484732	
15.04	-0.179	-0.18368785121536024	
15.045	-0.199	-0.18501158522645736	
15.05	-0.184	-0.186302017126906	
15.055	-0.196	-0.18680665987447698	
15.06	-0.129	-0.18581435226431986	
15.065	-0.058	-0.17429097044655956	
15.07	-0.064	-0.15098559614416657	
15.075	-0.064	-0.12270895347419873	
15.08	-0.205	-0.10520923930771593	
15.085	-0.268	-0.11120104021611882	
15.09	-0.225	-0.13770455875947996	
15.095	-0.162	-0.16598419674937392	
15.1	-0.152	-0.18227745414137836	
15.105	-0.095	-0.1818203714305608	
15.11	-0.045	-0.16581584362021856	
15.115	-0.013	-0.13726871037982794	
15.12	0.013	-0.10000234849832268	
15.125	0.001	-0.06173369700343989	
15.13	0.038	-0.030171619185780266	
15.135	0.053	-0.003167336838180774	
15.14	0.084	0.02227163862233557	
15.145	0.113	0.04499838506535594	
15.15	0.082	0.06672553071711526	
15.155	0.082	0.08116282986282122	
15.16	0.139	0.09116309694287006	
15.165	0.130	0.10173602544214029	
15.17	0.209	0.11601140528015838	
15.175	0.272	0.1402679882135596	
15.18	0.253	0.17183536678710293	
15.185	0.272	0.20383976545877797	
15.19	0.372	0.23725703336485068	
15.195	0.452	0.27700895064646647	
15.2	0.424	0.3237602059622064	
15.205	0.443	0.36713435155698915	
15.21	0.507	0.4051319487656857	
15.215	0.472	0.4377850992324781	
15.22	0.353	0.45599493009851705	
15.225	0.319	0.4501631531593995	
15.23	0.247	0.42085915788266876	
15.235	0.166	0.3739191085729837	
15.24	0.072	0.3121662241419302	
15.245	0.003	0.23894014635894995	
15.25	-0.017	0.16087680360790063	
15.255	-0.058	0.08915565344884366	
15.26	-0.058	0.028027021577117638	
15.265	-0.066	-0.018150076515128805	
15.27	-0.071	-0.0488928245803328	
15.275	-0.064	-0.06790721732762882	
15.28	-0.078	-0.07816443281400282	
15.285	-0.064	-0.08096390888734678	
15.29	-0.068	-0.08084854071793642	
15.295	-0.038	-0.07614506024284401	
15.3	0.001	-0.06704536178298617	
15.305	0.015	-0.05080143578782714	
15.31	-0.025	-0.03308964074385117	
15.315	0.000	-0.02015580434512934	
15.32	0.015	-0.009804509497603833	
15.325	0.041	3.13900863252984e-05	
15.33	-0.016	0.007772135733873279	
15.335	-0.032	0.010111068112798528	
15.34	-0.074	0.0021482733587290834	
15.345	-0.109	-0.016233543784173163	
15.35	-0.089	-0.039009022760846494	
15.355	-0.089	-0.06074483956390575	
15.36	-0.107	-0.07715052266919395	
15.365	-0.107	-0.09016212370517543	
15.37	-0.068	-0.09773009274003686	
15.375	-0.052	-0.09699424941763035	
15.38	-0.078	-0.09027140857478438	
15.385	-0.058	-0.08282898101885564	
15.39	-0.063	-0.07583502921359112	
15.395	-0.077	-0.07028314701084568	
15.4	-0.101	-0.06899044609978755	
15.405	-0.083	-0.07272710086889253	
15.41	0.007	-0.0731859640924415	
15.415	0.084	-0.05913299510320172	
15.42	0.050	-0.030693415030399906	
15.425	-0.081	-0.006066221309828097	
15.43	-0.170	-0.006315956504107946	
15.435	-0.229	-0.03477844991056196	
15.44	-0.249	-0.08284564116985126	
15.445	-0.258	-0.13733468685864608	
15.45	-0.251	-0.18493712133524684	
15.455	-0.237	-0.22067387872900837	
15.46	-0.274	-0.2432503101368386	
15.465	-0.298	-0.26016714219777615	
15.47	-0.327	-0.27463656405254777	
15.475	-0.347	-0.2920603195061781	
15.48	-0.332	-0.3093374974201215	
15.485	-0.324	-0.320718045206708	
15.49	-0.309	-0.32781746485355495	
15.495	-0.269	-0.3273980378906971	
15.5	-0.197	-0.31392183402414564	
15.505	-0.112	-0.2846072285068373	
15.51	-0.068	-0.24130421978919284	
15.515	-0.026	-0.18820516555562494	
15.52	0.027	-0.13054775214928566	
15.525	0.097	-0.07306854441889463	
15.53	0.128	-0.015430388219598034	
15.535	0.296	0.04634564060738743	
15.54	0.409	0.12025072149976658	
15.545	0.441	0.2055065748138009	
15.55	0.487	0.2920515220893331	
15.555	0.579	0.3734647760639847	
15.56	0.516	0.4426410183967563	
15.565	0.492	0.49271828400669443	
15.57	0.405	0.5144995296732622	
15.575	0.321	0.5049268161785909	
15.58	0.159	0.4624854613733404	
15.585	0.090	0.3903493743343166	
15.59	0.023	0.2992748747828398	
15.595	-0.061	0.20146383940409082	
15.6	-0.135	0.10706203383102127	
15.605	-0.127	0.019518153898833875	
15.61	-0.122	-0.05136701454018436	
15.615	-0.145	-0.1002596898969338	
15.62	-0.097	-0.12842693576702913	
15.625	-0.098	-0.14007530130178128	
15.63	-0.103	-0.1385177937617792	
15.635	0.006	-0.12457463209834921	
15.64	0.067	-0.09672115858829451	
15.645	0.050	-0.05659071624456728	
15.65	0.075	-0.014902489042352474	
15.655	0.067	0.021526508762641967	
15.66	0.007	0.043545174169597856	
15.665	-0.025	0.04972895939925448	
15.67	0.024	0.04361243561710558	
15.675	0.058	0.03488176806030734	
15.68	0.009	0.03146512909625057	
15.685	0.062	0.031468081650234236	
15.69	-0.020	0.0302399574837073	
15.695	-0.072	0.02036021153870944	
15.7	-0.035	0.00415098588166243	
15.705	0.337	0.004568013854321296	
15.71	0.870	0.0725824669341736	
15.715	1.274	0.24787215539194768	
15.72	1.483	0.5146685096351151	
15.725	1.531	0.8167478213138545	
15.73	1.511	1.0934298824111703	
15.735	1.492	1.3075297802682027	
15.74	1.373	1.4421191350858535	
15.745	1.286	1.4962493852631678	
15.75	1.466	1.497269406187036	
15.755	1.630	1.4915869089816511	
15.76	1.622	1.5053950579815614	
15.765	1.514	1.5298097165309743	
15.77	1.226	1.5306982537620542	
15.775	0.842	1.469653840324577	
15.78	0.617	1.3313829699816562	
15.785	0.678	1.1456538508449365	
15.79	0.687	0.9652263894018962	
15.795	0.643	0.8212711896125335	
15.8	0.658	0.7222921288676767	
15.805	0.615	0.6586009357204268	
15.81	0.525	0.6163711470567041	
15.815	0.455	0.5797964424539988	
15.82	0.449	0.5427464872098751	
15.825	0.424	0.5047422313023663	
15.83	0.363	0.47042226069970267	
15.835	0.351	0.4366158118930004	
15.84	0.263	0.40018916766318513	
15.845	0.152	0.3552581593560209	
15.85	0.192	0.30325655974632976	
15.855	0.218	0.2575841637423191	
15.86	0.200	0.22341149093800833	
15.865	0.195	0.20480503301038222	
15.87	0.203	0.19471468974436307	
15.875	0.172	0.18775956402814317	
15.88	0.113	0.18043857205439923	
15.885	0.266	0.17558304392440163	
15.89	0.333	0.18521794521793042	
15.895	0.357	0.21432650225131475	
15.9	0.374	0.2562194986203151	
15.905	0.275	0.2925194552244061	
15.91	0.246	0.30943205496550164	
15.915	0.165	0.30480178250818046	
15.92	0.104	0.27765231621636555	
15.925	-0.035	0.22776018637016787	
15.93	-0.144	0.1564672886462069	
15.935	-0.216	0.06854044569298257	
15.94	-0.284	-0.0278173353489762	
15.945	-0.338	-0.12264639915992254	
15.95	-0.381	-0.20676615425329362	
15.955	-0.382	-0.2784806654621945	
15.96	-0.390	-0.3345320680020162	
15.965	-0.382	-0.37115964226970577	
15.97	-0.355	-0.38933902693681455	
15.975	-0.387	-0.39623163815187734	
15.98	-0.422	-0.39751264260415087	
15.985	-0.385	-0.3984493789607491	
15.99	-0.384	-0.3988273864448735	
15.995	-0.417	-0.3986576388459271	
16.0	-0.341	-0.39576190978295145	
16.005	-0.336	-0.3874805611661186	
16.01	-0.384	-0.377553956886424	
16.015	-0.375	-0.37018316964176307	
16.02	-0.355	-0.36634114379348826	
16.025	-0.394	-0.36622597257541323	
16.03	-0.426	-0.3715258830007577	
16.035	-0.404	-0.37945991342874086	
16.04	-0.408	-0.39080841014348855	
16.045	-0.405	-0.39965416029895773	
16.05	-0.384	-0.40278225651601235	
16.055	-0.365	-0.401469711820605	
16.06	-0.385	-0.3965391418177251	
16.065	-0.368	-0.39019877358143795	
16.07	-0.326	-0.38033346144607977	
16.075	-0.332	-0.36920468460770756	
16.08	-0.344	-0.3575433257398047	
16.085	-0.355	-0.3474652379310541	
16.09	-0.358	-0.3447902660071829	
16.095	-0.284	-0.34267349611476083	
16.1	-0.066	-0.3227756219559511	
16.105	0.137	-0.2663965096457094	
16.11	0.154	-0.17453299894943766	
16.115	0.039	-0.07326711635036319	
16.12	-0.121	-0.004348904175910772	
16.125	-0.207	0.009778075668567759	
16.13	-0.194	-0.017594558738103287	
16.135	-0.132	-0.06042550116348462	
16.14	-0.049	-0.09473378511672753	
16.145	-0.026	-0.10671704127477821	
16.15	0.072	-0.09278525604839814	
16.155	0.124	-0.05836756026806285	
16.16	0.143	-0.009592917204144135	
16.165	0.178	0.04373112243625441	
16.17	0.163	0.09276710732406548	
16.175	0.163	0.12977685259723032	
16.18	0.186	0.15533457039700407	
16.185	0.292	0.17863800264709767	
16.19	0.287	0.20529268096522213	
16.195	0.204	0.22816484688347122	
16.2	0.258	0.24320006345176984	
16.205	0.334	0.2547195505754696	
16.21	0.290	0.2673600902630371	
16.215	0.334	0.28366725135886417	
16.22	0.489	0.30586022874779994	
16.225	0.521	0.3438315459302295	
16.23	0.559	0.39526066437149704	
16.235	0.753	0.45963952266424907	
16.24	0.984	0.5463795245308002	
16.245	1.052	0.6611745487040146	
16.25	1.156	0.793159617532545	
16.255	1.223	0.9227195244651987	
16.26	1.219	1.0373686655050829	
16.265	1.171	1.1266377299212529	
16.27	1.109	1.178801105843407	
16.275	0.958	1.185790569870696	
16.28	0.756	1.1452569792826297	
16.285	0.599	1.0566033217726778	
16.29	0.360	0.9242967733729182	
16.295	0.122	0.7541528136630331	
16.3	0.035	0.5621981600784185	
16.305	0.050	0.37472685415623086	
16.31	0.032	0.22040000374908428	
16.315	0.061	0.11272851398102553	
16.32	0.111	0.051839235636882905	
16.325	0.075	0.027798975123372656	
16.33	-0.035	0.02032036505097576	
16.335	0.023	0.016625885764718788	
16.34	0.029	0.012277660073640107	
16.345	-0.037	0.009210765938395461	
16.35	-0.011	0.004220153071261035	
16.355	-0.002	-0.0013644088447464563	
16.36	-0.025	-0.007615875836911115	
16.365	-0.014	-0.011234886262368585	
16.37	0.021	-0.01124034642838078	
16.375	0.006	-0.009242102838150005	
16.38	-0.023	-0.0055948470814021	
16.385	0.020	-0.003388331880312091	
16.39	0.030	0.00020059223030537696	
16.395	-0.051	0.002272265182794438	
16.4	-0.013	0.00025483947491871186	
16.405	0.059	-0.0014504401117605434	
16.41	0.139	0.008420636175161048	
16.415	0.272	0.039864315454740736	
16.42	0.362	0.09769370977961715	
16.425	0.339	0.16771776320863838	
16.43	0.365	0.23649246195462087	
16.435	0.434	0.2965788372123592	
16.44	0.574	0.3541277090179225	
16.445	0.727	0.42337091736381227	
16.45	0.846	0.5123054864812204	
16.455	0.623	0.6024357822961176	
16.46	-0.071	0.6273409571451789	
16.465	-0.540	0.5217715726475555	
16.47	-0.781	0.28555686673616987	
16.475	-0.825	-0.0192200034795141	
16.48	-0.819	-0.31637002347389476	
16.485	-0.897	-0.557475780907613	
16.49	-0.989	-0.7398753035737294	
16.495	-0.995	-0.8725049668152949	
16.5	-0.995	-0.958748699763145	
16.505	-0.993	-1.0076084662937852	
16.51	-0.995	-1.0304377132180655	
16.515	-0.993	-1.03408995784581	
16.52	-0.993	-1.0285087446227945	
16.525	-0.973	-1.018201594022177	
16.53	-0.929	-1.0043501082188695	
16.535	-0.865	-0.9815838469775723	
16.54	-0.818	-0.9508935841164392	
16.545	-0.782	-0.9114553524847846	
16.55	-0.717	-0.8668246845044542	
16.555	-0.660	-0.8166553922253263	
16.56	-0.598	-0.7643689644339676	
16.565	-0.555	-0.708112555665264	
16.57	-0.475	-0.6495710977061304	
16.575	-0.381	-0.5891402910654204	
16.58	-0.306	-0.5213268507229036	
16.585	-0.208	-0.4466561979425374	
16.59	-0.170	-0.368878003691661	
16.595	-0.142	-0.29541677291308766	
16.6	-0.113	-0.2298868343388378	
16.605	-0.086	-0.1766738331843678	
16.61	-0.158	-0.13832640084964742	
16.615	-0.214	-0.12216000549360362	
16.62	-0.223	-0.12862191839247683	
16.625	-0.254	-0.15109133138271963	
16.63	-0.283	-0.18132514171118586	
16.635	-0.298	-0.21272017597048978	
16.64	-0.333	-0.2458482682843174	
16.645	-0.342	-0.27736383085968175	
16.65	-0.329	-0.3029250858750482	
16.655	-0.286	-0.3196712814906488	
16.66	-0.274	-0.3232504772799508	
16.665	-0.234	-0.31415492618451524	
16.67	-0.170	-0.2936437914563339	
16.675	-0.153	-0.263045352305286	
16.68	-0.156	-0.2293161507670637	
16.685	-0.095	-0.19476960681453553	
16.69	-0.087	-0.16282973924451793	
16.695	-0.077	-0.13332985775995088	
16.7	-0.022	-0.10597597288872096	
16.705	0.055	-0.07568858763976485	
16.71	0.104	-0.038193899842848725	
16.715	0.059	0.0018176772175055173	
16.72	0.046	0.03428290879944844	
16.725	-0.005	0.049983876641965075	
16.73	-0.081	0.0467060039580159	
16.735	-0.068	0.025162349235472725	
16.74	-0.068	-0.0028245514016025197	
16.745	-0.092	-0.03025427032898808	
16.75	-0.017	-0.05000797778745991	
16.755	0.006	-0.05573412540683463	
16.76	0.073	-0.04612035114641228	
16.765	0.133	-0.019159124620989815	
16.77	0.209	0.023227348941484205	
16.775	0.284	0.07804077206284077	
16.78	0.305	0.139771717413267	
16.785	0.324	0.20108868877024758	
16.79	0.475	0.26016018650392436	
16.795	0.602	0.3268348104629612	
16.8	0.602	0.40496539815094573	
16.805	0.391	0.47016692402694665	
16.81	0.143	0.48585696821283275	
16.815	0.041	0.43681265215184484	
16.82	-0.014	0.34217875652950347	
16.825	0.021	0.23406788218637223	
16.83	0.075	0.1418089182600166	
16.835	0.160	0.08609498284339642	
16.84	0.201	0.07020224925157134	
16.845	0.172	0.08283498804577179	
16.85	0.180	0.10790384559585718	
16.855	0.232	0.13522188701928461	
16.86	0.249	0.16497561600572758	
16.865	0.180	0.19078861870550806	
16.87	0.180	0.20512453728134705	
16.875	0.165	0.20711906961761334	
16.88	0.097	0.19679396508859373	
16.885	0.072	0.17598161833886866	
16.89	0.075	0.14820201116486625	
16.895	0.046	0.11890406979409732	
16.9	0.044	0.09185849289709852	
16.905	0.000	0.0681783701683053	
16.91	-0.023	0.04504256208953593	
16.915	-0.072	0.019795675265489948	
16.92	-0.051	-0.005931899747236078	
16.925	-0.060	-0.028828700459521156	
16.93	-0.097	-0.04715432197842426	
16.935	-0.115	-0.06408392552507758	
16.94	-0.122	-0.080801028914193	
16.945	-0.188	-0.10002726070869705	
16.95	-0.254	-0.12619378716213736	
16.955	-0.338	-0.16288412815432007	
16.96	-0.401	-0.2118867068914906	
16.965	-0.501	-0.27319611312529285	
16.97	-0.569	-0.3440227572048029	
16.975	-0.624	-0.4187954957720433	
16.98	-0.639	-0.4920851872484863	
16.985	-0.647	-0.555148450446242	
16.99	-0.624	-0.6008047605427844	
16.995	-0.567	-0.6269231541825586	
17.0	-0.511	-0.6282110524881086	
17.005	-0.472	-0.6079253998927038	
17.01	-0.419	-0.5717969351709019	
17.015	-0.391	-0.5281846770727959	
17.02	-0.355	-0.4801017344630359	
17.025	-0.312	-0.4327444518287883	
17.03	-0.313	-0.39004996135711417	
17.035	-0.297	-0.3542532626805442	
17.04	-0.237	-0.3228046081571351	
17.045	-0.213	-0.2938499107731345	
17.05	-0.181	-0.26429655501588123	
17.055	-0.130	-0.23297873817335019	
17.06	-0.089	-0.19969479121394262	
17.065	-0.113	-0.16620560198405604	
17.07	-0.176	-0.14120862479964869	
17.075	-0.144	-0.1306817713943945	
17.08	-0.109	-0.12799219461763944	
17.085	-0.084	-0.12433299486823733	
17.09	-0.075	-0.11479173102021419	
17.095	-0.074	-0.10377809863866636	
17.1	-0.035	-0.0913564678946337	
17.105	0.041	-0.07300228842048365	
17.11	0.105	-0.04260562917368396	
17.115	0.124	-0.004225771135819719	
17.12	0.101	0.037730180744669675	
17.125	0.104	0.07139287073589906	
17.13	0.160	0.09501902158266695	
17.135	0.310	0.12357682503168048	
17.14	0.440	0.17128070635736123	
17.145	0.461	0.2393073928303265	
17.15	0.258	0.30250974632861416	
17.155	0.084	0.32792321161639115	
17.16	0.102	0.30347336699623717	
17.165	0.122	0.25473658982760583	
17.17	0.188	0.20768766750138157	
17.175	0.311	0.1845080943512013	
17.18	0.386	0.19404928164629826	
17.185	0.392	0.2304930690405457	
17.19	0.432	0.28029215100705684	
17.195	0.450	0.3323325264516924	
17.2	0.481	0.3784821995679246	
17.205	0.466	0.41997976590290675	
17.21	0.512	0.4515303870852706	
17.215	0.469	0.4726655842649092	
17.22	0.466	0.48465337719084506	
