Vernier Format 2
ecg2.txt 10/20/2025 9:36:52
Run 1
Time	Potential	EKG	
T	P	E	
s	mV	mV	

0.000	0.379	0.017	
0.005	0.220	0.068	
0.010	0.475	0.140	
0.015	0.460	0.225	
0.020	0.217	0.299	
0.025	0.333	0.337	
0.030	0.472	0.356	
0.035	0.250	0.370	
0.040	0.206	0.363	
0.045	0.452	0.344	
0.050	0.365	0.339	
0.055	0.208	0.338	
0.060	0.464	0.333	
0.065	0.502	0.344	
0.070	0.272	0.367	
0.075	0.431	0.378	
0.080	0.654	0.396	
0.085	0.455	0.433	
0.090	0.359	0.460	
0.095	0.586	0.470	
0.100	0.447	0.479	
0.105	0.208	0.473	
0.110	0.360	0.439	
0.115	0.336	0.400	
0.120	0.013	0.355	
0.125	0.061	0.287	
0.130	0.343	0.223	
0.135	1.306	0.245	
0.140	2.336	0.454	
0.145	3.083	0.892	
0.150	3.081	1.476	
0.155	3.081	2.060	
0.160	3.083	2.536	
0.165	3.080	2.870	
0.170	3.044	3.072	
0.175	3.048	3.168	
0.180	3.005	3.191	
0.185	2.565	3.149	
0.190	2.308	3.030	
0.195	2.299	2.849	
0.200	1.894	2.640	
0.205	1.442	2.398	
0.210	1.454	2.124	
0.215	1.269	1.856	
0.220	0.754	1.601	
0.225	0.657	1.339	
0.230	0.605	1.086	
0.235	0.185	0.856	
0.240	0.015	0.630	
0.245	0.079	0.417	
0.250	-0.084	0.239	
0.255	-0.248	0.092	
0.260	-0.159	-0.032	
0.265	-0.197	-0.122	
0.270	-0.361	-0.186	
0.275	-0.332	-0.241	
0.280	-0.298	-0.284	
0.285	-0.430	-0.316	
0.290	-0.440	-0.347	
0.295	-0.278	-0.371	
0.300	-0.333	-0.376	
0.305	-0.494	-0.376	
0.310	-0.465	-0.388	
0.315	-0.512	-0.412	
0.320	-0.636	-0.446	
0.325	-0.549	-0.488	
0.330	-0.434	-0.518	
0.335	-0.527	-0.527	
0.340	-0.535	-0.528	
0.345	-0.413	-0.524	
0.350	-0.472	-0.509	
0.355	-0.558	-0.497	
0.360	-0.430	-0.492	
0.365	-0.416	-0.483	
0.370	-0.515	-0.472	
0.375	-0.475	-0.468	
0.380	-0.367	-0.464	
0.385	-0.468	-0.454	
0.390	-0.475	-0.447	
0.395	-0.315	-0.441	
0.400	-0.347	-0.424	
0.405	-0.423	-0.403	
0.410	-0.271	-0.386	
0.415	-0.220	-0.361	
0.420	-0.303	-0.329	
0.425	-0.199	-0.300	
0.430	-0.092	-0.267	
0.435	-0.213	-0.229	
0.440	-0.232	-0.202	
0.445	-0.098	-0.188	
0.450	-0.171	-0.174	
0.455	-0.309	-0.169	
0.460	-0.211	-0.182	
0.465	-0.223	-0.199	
0.470	-0.407	-0.219	
0.475	-0.375	-0.254	
0.480	-0.317	-0.292	
0.485	-0.466	-0.325	
0.490	-0.509	-0.362	
0.495	-0.376	-0.400	
0.500	-0.440	-0.423	
0.505	-0.547	-0.439	
0.510	-0.413	-0.456	
0.515	-0.394	-0.462	
0.520	-0.514	-0.459	
0.525	-0.433	-0.458	
0.530	-0.335	-0.452	
0.535	-0.425	-0.436	
0.540	-0.437	-0.423	
0.545	-0.310	-0.412	
0.550	-0.362	-0.397	
0.555	-0.454	-0.385	
0.560	-0.317	-0.381	
0.565	-0.318	-0.373	
0.570	-0.448	-0.366	
0.575	-0.381	-0.368	
0.580	-0.313	-0.371	
0.585	-0.456	-0.372	
0.590	-0.494	-0.383	
0.595	-0.355	-0.401	
0.600	-0.419	-0.410	
0.605	-0.497	-0.417	
0.610	-0.371	-0.426	
0.615	-0.362	-0.425	
0.620	-0.489	-0.420	
0.625	-0.437	-0.422	
0.630	-0.344	-0.424	
0.635	-0.437	-0.418	
0.640	-0.371	-0.412	
0.645	-0.121	-0.393	
0.650	-0.106	-0.344	
0.655	-0.255	-0.284	
0.660	-0.234	-0.241	
0.665	-0.313	-0.223	
0.670	-0.446	-0.234	
0.675	-0.361	-0.268	
0.680	-0.222	-0.300	
0.685	-0.315	-0.311	
0.690	-0.317	-0.314	
0.695	-0.141	-0.307	
0.700	-0.222	-0.285	
0.705	-0.318	-0.263	
0.710	-0.164	-0.251	
0.715	-0.142	-0.235	
0.720	-0.292	-0.218	
0.725	-0.208	-0.213	
0.730	-0.080	-0.207	
0.735	-0.211	-0.193	
0.740	-0.222	-0.184	
0.745	-0.045	-0.177	
0.750	-0.110	-0.161	
0.755	-0.170	-0.143	
0.760	0.096	-0.125	
0.765	0.232	-0.081	
0.770	0.046	-0.016	
0.775	0.232	0.044	
0.780	0.467	0.111	
0.785	0.252	0.188	
0.790	0.224	0.247	
0.795	0.542	0.288	
0.800	0.372	0.332	
0.805	0.097	0.356	
0.810	0.301	0.343	
0.815	0.220	0.315	
0.820	-0.106	0.273	
0.825	-0.071	0.199	
0.830	0.018	0.115	
0.835	-0.187	0.042	
0.840	-0.237	-0.028	
0.845	-0.119	-0.094	
0.850	-0.193	-0.140	
0.855	-0.294	-0.173	
0.860	-0.161	-0.201	
0.865	-0.150	-0.213	
0.870	-0.295	-0.215	
0.875	-0.217	-0.220	
0.880	-0.126	-0.221	
0.885	-0.254	-0.214	
0.890	-0.284	-0.214	
0.895	-0.100	-0.217	
0.900	-0.190	-0.209	
0.905	-0.321	-0.204	
0.910	-0.185	-0.210	
0.915	-0.119	-0.212	
0.920	-0.283	-0.207	
0.925	-0.225	-0.208	
0.930	-0.133	-0.210	
0.935	-0.280	-0.208	
0.940	-0.333	-0.216	
0.945	-0.187	-0.232	
0.950	-0.252	-0.242	
0.955	-0.373	-0.251	
0.960	-0.219	-0.265	
0.965	-0.187	-0.269	
0.970	-0.324	-0.264	
0.975	-0.277	-0.264	
0.980	-0.200	-0.265	
0.985	-0.321	-0.263	
0.990	-0.286	-0.265	
0.995	0.145	-0.252	
1.000	0.264	-0.187	
1.005	0.059	-0.086	
1.010	0.049	-0.001	
1.015	-0.129	0.042	
1.020	-0.349	0.030	
1.025	-0.265	-0.032	
1.030	-0.122	-0.102	
1.035	-0.228	-0.152	
1.040	-0.237	-0.186	
1.045	-0.042	-0.203	
1.050	-0.110	-0.194	
1.055	-0.225	-0.176	
1.060	-0.058	-0.163	
1.065	0.001	-0.142	
1.070	-0.164	-0.116	
1.075	-0.068	-0.100	
1.080	0.119	-0.082	
1.085	-0.068	-0.053	
1.090	-0.068	-0.033	
1.095	0.215	-0.016	
1.100	0.117	0.017	
1.105	-0.064	0.048	
1.110	0.227	0.064	
1.115	0.314	0.093	
1.120	0.084	0.133	
1.125	0.263	0.163	
1.130	0.539	0.200	
1.135	0.359	0.260	
1.140	0.334	0.315	
1.145	0.651	0.361	
1.150	0.504	0.416	
1.155	0.206	0.452	
1.160	0.411	0.448	
1.165	0.389	0.428	
1.170	-0.006	0.394	
1.175	0.026	0.323	
1.180	0.139	0.237	
1.185	-0.112	0.160	
1.190	-0.200	0.079	
1.195	-0.072	-0.002	
1.200	-0.171	-0.065	
1.205	-0.286	-0.117	
1.210	-0.144	-0.162	
1.215	-0.104	-0.185	
1.220	-0.257	-0.190	
1.225	-0.197	-0.196	
1.230	-0.075	-0.196	
1.235	-0.219	-0.186	
1.240	-0.254	-0.182	
1.245	-0.051	-0.182	
1.250	-0.121	-0.171	
1.255	-0.252	-0.159	
1.260	-0.118	-0.158	
1.265	-0.104	-0.156	
1.270	-0.269	-0.153	
1.275	-0.269	-0.166	
1.280	-0.202	-0.188	
1.285	-0.352	-0.212	
1.290	-0.457	-0.247	
1.295	-0.332	-0.292	
1.300	-0.388	-0.330	
1.305	-0.500	-0.362	
1.310	-0.393	-0.393	
1.315	-0.350	-0.412	
1.320	-0.465	-0.416	
1.325	-0.431	-0.421	
1.330	-0.324	-0.422	
1.335	-0.417	-0.413	
1.340	-0.407	-0.405	
1.345	-0.087	-0.387	
1.350	0.065	-0.331	
1.355	-0.071	-0.243	
1.360	-0.080	-0.162	
1.365	-0.193	-0.112	
1.370	-0.364	-0.105	
1.375	-0.291	-0.138	
1.380	-0.133	-0.179	
1.385	-0.208	-0.201	
1.390	-0.208	-0.210	
1.395	0.009	-0.204	
1.400	-0.028	-0.173	
1.405	-0.150	-0.135	
1.410	0.030	-0.105	
1.415	0.163	-0.068	
1.420	-0.054	-0.023	
1.425	0.079	0.010	
1.430	0.330	0.044	
1.435	0.131	0.093	
1.440	0.073	0.130	
1.445	0.421	0.157	
1.450	0.354	0.200	
1.455	0.166	0.244	
1.460	0.460	0.273	
1.465	0.567	0.314	
1.470	0.331	0.364	
1.475	0.492	0.401	
1.480	0.735	0.440	
1.485	0.589	0.496	
1.490	0.524	0.544	
1.495	0.803	0.580	
1.500	0.715	0.622	
1.505	0.450	0.651	
1.510	0.644	0.650	
1.515	0.651	0.640	
1.520	0.331	0.622	
1.525	0.359	0.575	
1.530	0.487	0.517	
1.535	0.180	0.463	
1.540	0.007	0.390	
1.545	0.241	0.303	
1.550	0.139	0.233	
1.555	-0.083	0.175	
1.560	0.085	0.118	
1.565	0.174	0.080	
1.570	-0.064	0.063	
1.575	0.000	0.045	
1.580	0.243	0.037	
1.585	0.079	0.052	
1.590	-0.037	0.066	
1.595	0.209	0.071	
1.600	0.140	0.084	
1.605	-0.032	0.096	
1.610	0.128	0.094	
1.615	0.169	0.094	
1.620	-0.051	0.095	
1.625	-0.032	0.080	
1.630	0.114	0.058	
1.635	-0.069	0.042	
1.640	-0.156	0.018	
1.645	-0.013	-0.015	
1.650	-0.069	-0.040	
1.655	-0.226	-0.062	
1.660	-0.138	-0.092	
1.665	-0.110	-0.118	
1.670	-0.260	-0.138	
1.675	-0.275	-0.164	
1.680	-0.187	-0.192	
1.685	-0.301	-0.215	
1.690	-0.326	-0.237	
1.695	-0.086	-0.253	
1.700	-0.016	-0.237	
1.705	-0.135	-0.198	
1.710	-0.107	-0.160	
1.715	-0.142	-0.134	
1.720	-0.292	-0.128	
1.725	-0.228	-0.146	
1.730	-0.029	-0.164	
1.735	-0.100	-0.160	
1.740	-0.136	-0.145	
1.745	0.113	-0.123	
1.750	0.032	-0.084	
1.755	-0.116	-0.047	
1.760	0.027	-0.028	
1.765	0.134	-0.010	
1.770	-0.071	0.011	
1.775	0.017	0.020	
1.780	0.249	0.030	
1.785	0.094	0.058	
1.790	0.006	0.081	
1.795	0.282	0.096	
1.800	0.232	0.122	
1.805	0.024	0.148	
1.810	0.214	0.156	
1.815	0.354	0.169	
1.820	0.134	0.192	
1.825	0.267	0.210	
1.830	0.534	0.235	
1.835	0.353	0.282	
1.840	0.288	0.323	
1.845	0.565	0.353	
1.850	0.243	0.379	
1.855	-0.291	0.357	
1.860	-0.480	0.243	
1.865	-0.648	0.054	
1.870	-0.917	-0.173	
1.875	-0.993	-0.413	
1.880	-0.995	-0.635	
1.885	-0.993	-0.810	
1.890	-0.995	-0.930	
1.895	-0.995	-1.001	
1.900	-0.993	-1.035	
1.905	-0.993	-1.044	
1.910	-0.967	-1.038	
1.915	-0.839	-1.017	
1.920	-0.879	-0.982	
1.925	-0.795	-0.940	
1.930	-0.621	-0.888	
1.935	-0.605	-0.821	
1.940	-0.604	-0.748	
1.945	-0.420	-0.678	
1.950	-0.355	-0.601	
1.955	-0.419	-0.524	
1.960	-0.271	-0.457	
1.965	-0.144	-0.390	
1.970	-0.220	-0.322	
1.975	-0.179	-0.264	
1.980	-0.029	-0.215	
1.985	-0.075	-0.165	
1.990	-0.133	-0.125	
1.995	0.041	-0.096	
2.000	0.081	-0.063	
2.005	-0.049	-0.028	
2.010	0.183	0.002	
2.015	0.353	0.048	
2.020	0.200	0.111	
2.025	0.230	0.167	
2.030	0.423	0.214	
2.035	0.362	0.264	
2.040	0.270	0.305	
2.045	0.699	0.343	
2.050	0.825	0.413	
2.055	0.646	0.510	
2.060	0.712	0.594	
2.065	0.675	0.652	
2.070	0.386	0.673	
2.075	0.398	0.645	
2.080	0.689	0.598	
2.085	0.652	0.577	
2.090	0.571	0.578	
2.095	0.814	0.592	
2.100	0.819	0.629	
2.105	0.637	0.674	
2.110	0.783	0.704	
2.115	0.942	0.734	
2.120	0.761	0.772	
2.125	0.756	0.796	
2.130	0.973	0.811	
2.135	0.835	0.832	
2.140	0.692	0.843	
2.145	0.909	0.837	
2.150	0.916	0.837	
2.155	0.724	0.843	
2.160	0.904	0.841	
2.165	1.060	0.851	
2.170	0.864	0.878	
2.175	0.870	0.898	
2.180	1.091	0.913	
2.185	1.022	0.939	
2.190	0.887	0.965	
2.195	1.158	0.982	
2.200	1.087	1.007	
2.205	0.805	1.024	
2.210	0.919	1.011	
2.215	0.993	0.985	
2.220	0.727	0.958	
2.225	0.635	0.911	
2.230	0.767	0.847	
2.235	0.548	0.784	
2.240	0.327	0.710	
2.245	0.518	0.622	
2.250	0.463	0.548	
2.255	0.250	0.488	
2.260	0.389	0.431	
2.265	0.522	0.395	
2.270	0.318	0.386	
2.275	0.327	0.378	
2.280	0.541	0.374	
2.285	0.418	0.388	
2.290	0.288	0.399	
2.295	0.510	0.401	
2.300	0.478	0.410	
2.305	0.259	0.419	
2.310	0.386	0.409	
2.315	0.515	0.401	
2.320	0.311	0.402	
2.325	0.284	0.394	
2.330	0.444	0.379	
2.335	0.311	0.369	
2.340	0.140	0.353	
2.345	0.321	0.321	
2.350	0.295	0.296	
2.355	0.088	0.275	
2.360	0.217	0.246	
2.365	0.325	0.225	
2.370	0.114	0.219	
2.375	0.087	0.205	
2.380	0.253	0.185	
2.385	0.171	0.176	
2.390	0.046	0.169	
2.395	0.360	0.163	
2.400	0.447	0.186	
2.405	0.279	0.234	
2.410	0.293	0.274	
2.415	0.278	0.296	
2.420	0.020	0.292	
2.425	0.035	0.253	
2.430	0.266	0.203	
2.435	0.146	0.174	
2.440	0.052	0.156	
2.445	0.275	0.142	
2.450	0.301	0.151	
2.455	0.119	0.173	
2.460	0.238	0.188	
2.465	0.392	0.206	
2.470	0.232	0.235	
2.475	0.241	0.256	
2.480	0.443	0.273	
2.485	0.330	0.298	
2.490	0.185	0.315	
2.495	0.391	0.315	
2.500	0.382	0.319	
2.505	0.149	0.323	
2.510	0.220	0.306	
2.515	0.337	0.284	
2.520	0.172	0.270	
2.525	0.201	0.254	
2.530	0.408	0.245	
2.535	0.348	0.258	
2.540	0.229	0.278	
2.545	0.463	0.295	
2.550	0.470	0.324	
2.555	0.235	0.354	
2.560	0.316	0.362	
2.565	0.431	0.358	
2.570	0.194	0.354	
2.575	0.058	0.327	
2.580	0.185	0.276	
2.585	0.012	0.220	
2.590	-0.107	0.157	
2.595	-0.014	0.087	
2.600	-0.002	0.030	
2.605	-0.122	-0.010	
2.610	-0.063	-0.042	
2.615	0.041	-0.060	
2.620	-0.071	-0.060	
2.625	-0.078	-0.057	
2.630	0.096	-0.051	
2.635	0.012	-0.033	
2.640	-0.100	-0.017	
2.645	0.038	-0.013	
2.650	0.064	-0.007	
2.655	-0.068	0.002	
2.660	-0.023	0.002	
2.665	0.114	0.001	
2.670	-0.017	0.009	
2.675	-0.049	0.013	
2.680	0.120	0.013	
2.685	-0.016	0.018	
2.690	-0.132	0.016	
2.695	0.009	-0.001	
2.700	0.015	-0.013	
2.705	-0.121	-0.021	
2.710	-0.068	-0.034	
2.715	0.039	-0.045	
2.720	-0.078	-0.044	
2.725	-0.095	-0.046	
2.730	0.007	-0.050	
2.735	-0.063	-0.050	
2.740	-0.148	-0.053	
2.745	0.023	-0.060	
2.750	0.186	-0.049	
2.755	0.055	-0.013	
2.760	0.183	0.029	
2.765	0.149	0.070	
2.770	-0.118	0.095	
2.775	-0.153	0.078	
2.780	0.029	0.037	
2.785	0.038	0.008	
2.790	-0.045	-0.006	
2.795	0.159	-0.006	
2.800	0.229	0.018	
2.805	0.033	0.056	
2.810	0.133	0.085	
2.815	1.074	0.146	
2.820	2.288	0.360	
2.825	3.075	0.802	
2.830	3.078	1.402	
2.835	3.078	2.006	
2.840	3.078	2.501	
2.845	3.080	2.851	
2.850	3.081	3.066	
2.855	2.991	3.170	
2.860	2.873	3.187	
2.865	2.808	3.139	
2.870	2.378	3.038	
2.875	2.136	2.875	
2.880	2.200	2.673	
2.885	1.963	2.472	
2.890	1.570	2.272	
2.895	1.673	2.067	
2.900	1.575	1.884	
2.905	1.185	1.724	
2.910	1.120	1.560	
2.915	1.048	1.398	
2.920	0.640	1.239	
2.925	0.380	1.056	
2.930	0.421	0.856	
2.935	0.127	0.661	
2.940	-0.081	0.471	
2.945	-0.060	0.286	
2.950	-0.115	0.128	
2.955	-0.268	0.001	
2.960	-0.255	-0.104	
2.965	-0.213	-0.182	
2.970	-0.332	-0.233	
2.975	-0.376	-0.273	
2.980	-0.269	-0.305	
2.985	-0.332	-0.322	
2.990	-0.422	-0.333	
2.995	-0.338	-0.347	
3.000	-0.352	-0.357	
3.005	-0.469	-0.365	
3.010	-0.440	-0.382	
3.015	-0.373	-0.399	
3.020	-0.472	-0.410	
3.025	-0.524	-0.425	
3.030	-0.449	-0.445	
3.035	-0.521	-0.462	
3.040	-0.613	-0.483	
3.045	-0.518	-0.508	
3.050	-0.533	-0.527	
3.055	-0.639	-0.542	
3.060	-0.579	-0.560	
3.065	-0.509	-0.572	
3.070	-0.611	-0.574	
3.075	-0.613	-0.577	
3.080	-0.503	-0.580	
3.085	-0.546	-0.575	
3.090	-0.637	-0.569	
3.095	-0.492	-0.568	
3.100	-0.385	-0.555	
3.105	-0.414	-0.524	
3.110	-0.370	-0.485	
3.115	-0.350	-0.445	
3.120	-0.543	-0.418	
3.125	-0.587	-0.421	
3.130	-0.457	-0.445	
3.135	-0.459	-0.465	
3.140	-0.501	-0.476	
3.145	-0.359	-0.477	
3.150	-0.329	-0.461	
3.155	-0.414	-0.434	
3.160	-0.350	-0.410	
3.165	-0.268	-0.387	
3.170	-0.336	-0.360	
3.175	-0.344	-0.340	
3.180	-0.217	-0.324	
3.185	-0.280	-0.306	
3.190	-0.362	-0.293	
3.195	-0.240	-0.290	
3.200	-0.202	-0.283	
3.205	-0.310	-0.271	
3.210	-0.236	-0.265	
3.215	-0.119	-0.254	
3.220	-0.187	-0.232	
3.225	-0.150	-0.208	
3.230	0.038	-0.179	
3.235	-0.002	-0.135	
3.240	-0.086	-0.091	
3.245	0.099	-0.056	
3.250	0.162	-0.016	
3.255	-0.028	0.025	
3.260	0.053	0.048	
3.265	0.119	0.059	
3.270	-0.093	0.063	
3.275	-0.173	0.042	
3.280	-0.098	-0.001	
3.285	-0.203	-0.048	
3.290	-0.338	-0.101	
3.295	-0.254	-0.161	
3.300	-0.268	-0.212	
3.305	-0.401	-0.253	
3.310	-0.362	-0.292	
3.315	-0.291	-0.323	
3.320	-0.376	-0.340	
3.325	-0.391	-0.351	
3.330	-0.263	-0.358	
3.335	-0.297	-0.351	
3.340	-0.365	-0.339	
3.345	-0.236	-0.329	
3.350	-0.219	-0.312	
3.355	-0.353	-0.293	
3.360	-0.294	-0.286	
3.365	-0.184	-0.282	
3.370	-0.294	-0.272	
3.375	-0.309	-0.266	
3.380	-0.199	-0.266	
3.385	-0.254	-0.261	
3.390	-0.352	-0.259	
3.395	-0.249	-0.266	
3.400	-0.246	-0.271	
3.405	-0.361	-0.274	
3.410	-0.300	-0.284	
3.415	-0.196	-0.289	
3.420	-0.286	-0.284	
3.425	-0.326	-0.279	
3.430	-0.226	-0.279	
3.435	-0.312	-0.278	
3.440	-0.408	-0.284	
3.445	-0.268	-0.299	
3.450	-0.121	-0.300	
3.455	-0.130	-0.275	
3.460	-0.028	-0.231	
3.465	-0.009	-0.175	
3.470	-0.260	-0.130	
3.475	-0.368	-0.125	
3.480	-0.239	-0.157	
3.485	-0.245	-0.193	
3.490	-0.303	-0.223	
3.495	-0.145	-0.243	
3.500	-0.097	-0.239	
3.505	-0.229	-0.220	
3.510	-0.167	-0.203	
3.515	-0.058	-0.186	
3.520	-0.133	-0.162	
3.525	-0.158	-0.143	
3.530	0.007	-0.128	
3.535	-0.060	-0.106	
3.540	-0.147	-0.087	
3.545	-0.008	-0.079	
3.550	0.030	-0.066	
3.555	-0.097	-0.050	
3.560	0.001	-0.040	
3.565	0.189	-0.023	
3.570	0.027	0.008	
3.575	0.044	0.035	
3.580	0.357	0.064	
3.585	0.316	0.116	
3.590	0.166	0.173	
3.595	0.402	0.218	
3.600	0.464	0.266	
3.605	0.256	0.314	
3.610	0.307	0.338	
3.615	0.400	0.347	
3.620	0.117	0.343	
3.625	-0.008	0.307	
3.630	0.108	0.242	
3.635	-0.048	0.173	
3.640	-0.208	0.098	
3.645	-0.127	0.016	
3.650	-0.147	-0.056	
3.655	-0.297	-0.114	
3.660	-0.258	-0.167	
3.665	-0.177	-0.208	
3.670	-0.252	-0.230	
3.675	-0.283	-0.243	
3.680	-0.161	-0.250	
3.685	-0.173	-0.243	
3.690	-0.258	-0.230	
3.695	-0.148	-0.220	
3.700	-0.092	-0.204	
3.705	-0.210	-0.184	
3.710	-0.159	-0.171	
3.715	-0.043	-0.159	
3.720	-0.158	-0.143	
3.725	-0.197	-0.134	
3.730	-0.072	-0.134	
3.735	-0.150	-0.132	
3.740	-0.249	-0.135	
3.745	-0.156	-0.149	
3.750	-0.159	-0.161	
3.755	-0.281	-0.173	
3.760	-0.210	-0.189	
3.765	-0.139	-0.201	
3.770	-0.239	-0.204	
3.775	-0.283	-0.209	
3.780	-0.113	-0.215	
3.785	-0.187	-0.211	
3.790	-0.315	-0.206	
3.795	-0.182	-0.212	
3.800	-0.049	-0.210	
3.805	0.044	-0.181	
3.810	0.347	-0.115	
3.815	0.498	-0.005	
3.820	0.024	0.113	
3.825	-0.237	0.165	
3.830	-0.158	0.132	
3.835	-0.165	0.058	
3.840	-0.245	-0.023	
3.845	-0.097	-0.093	
3.850	-0.032	-0.132	
3.855	-0.130	-0.140	
3.860	-0.068	-0.135	
3.865	0.085	-0.116	
3.870	-0.026	-0.082	
3.875	-0.061	-0.051	
3.880	0.139	-0.027	
3.885	0.072	0.003	
3.890	-0.055	0.028	
3.895	0.136	0.039	
3.900	0.229	0.058	
3.905	0.023	0.085	
3.910	0.087	0.099	
3.915	0.287	0.110	
3.920	0.191	0.135	
3.925	0.149	0.159	
3.930	0.417	0.184	
3.935	0.418	0.227	
3.940	0.270	0.276	
3.945	0.502	0.317	
3.950	0.614	0.366	
3.955	0.421	0.421	
3.960	0.463	0.460	
3.965	0.620	0.484	
3.970	0.388	0.503	
3.975	0.204	0.494	
3.980	0.343	0.451	
3.985	0.203	0.397	
3.990	-0.083	0.328	
3.995	-0.019	0.234	
4.000	-0.026	0.138	
4.005	-0.176	0.054	
4.010	-0.187	-0.023	
4.015	-0.083	-0.086	
4.020	-0.150	-0.124	
4.025	-0.196	-0.147	
4.030	-0.045	-0.158	
4.035	-0.057	-0.150	
4.040	-0.155	-0.133	
4.045	-0.040	-0.119	
4.050	0.033	-0.099	
4.055	-0.115	-0.075	
4.060	-0.060	-0.061	
4.065	0.079	-0.050	
4.070	-0.045	-0.033	
4.075	-0.133	-0.025	
4.080	0.003	-0.031	
4.085	-0.049	-0.036	
4.090	-0.187	-0.045	
4.095	-0.107	-0.066	
4.100	-0.069	-0.085	
4.105	-0.208	-0.100	
4.110	-0.194	-0.120	
4.115	-0.113	-0.141	
4.120	-0.188	-0.153	
4.125	-0.222	-0.164	
4.130	-0.090	-0.172	
4.135	-0.113	-0.168	
4.140	-0.248	-0.161	
4.145	-0.155	-0.163	
4.150	-0.071	-0.163	
4.155	-0.090	-0.151	
4.160	0.117	-0.123	
4.165	0.403	-0.061	
4.170	0.156	0.030	
4.175	-0.136	0.096	
4.180	-0.063	0.103	
4.185	-0.083	0.071	
4.190	-0.159	0.024	
4.195	-0.029	-0.023	
4.200	0.110	-0.047	
4.205	-0.003	-0.041	
4.210	0.052	-0.024	
4.215	0.282	0.007	
4.220	0.160	0.056	
4.225	0.072	0.101	
4.230	0.308	0.133	
4.235	0.250	0.167	
4.240	0.042	0.193	
4.245	0.233	0.196	
4.250	0.342	0.200	
4.255	0.151	0.215	
4.260	0.189	0.221	
4.265	0.411	0.226	
4.270	0.281	0.247	
4.275	0.189	0.265	
4.280	0.427	0.275	
4.285	0.377	0.295	
4.290	0.174	0.313	
4.295	0.278	0.310	
4.300	0.363	0.302	
4.305	0.175	0.297	
4.310	0.204	0.282	
4.315	0.330	0.265	
4.320	0.122	0.253	
4.325	-0.038	0.225	
4.330	-0.013	0.171	
4.335	-0.353	0.094	
4.340	-0.761	-0.030	
4.345	-0.963	-0.216	
4.350	-0.992	-0.437	
4.355	-0.993	-0.647	
4.360	-0.995	-0.814	
4.365	-0.995	-0.930	
4.370	-0.995	-0.999	
4.375	-0.995	-1.032	
4.380	-0.993	-1.041	
4.385	-0.995	-1.037	
4.390	-0.995	-1.027	
4.395	-0.993	-1.016	
4.400	-0.943	-1.004	
4.405	-0.926	-0.989	
4.410	-0.841	-0.966	
4.415	-0.674	-0.928	
4.420	-0.654	-0.870	
4.425	-0.645	-0.801	
4.430	-0.503	-0.733	
4.435	-0.433	-0.660	
4.440	-0.475	-0.587	
4.445	-0.368	-0.524	
4.450	-0.268	-0.465	
4.455	-0.324	-0.406	
4.460	-0.291	-0.358	
4.465	-0.138	-0.317	
4.470	-0.152	-0.271	
4.475	-0.181	-0.227	
4.480	-0.003	-0.187	
4.485	0.094	-0.138	
4.490	-0.017	-0.080	
4.495	0.192	-0.025	
4.500	0.307	0.037	
4.505	0.180	0.107	
4.510	0.354	0.168	
4.515	0.750	0.243	
4.520	0.736	0.354	
4.525	0.508	0.470	
4.530	0.556	0.546	
4.535	0.508	0.581	
4.540	0.314	0.578	
4.545	0.515	0.546	
4.550	0.780	0.528	
4.555	0.673	0.548	
4.560	0.680	0.586	
4.565	0.878	0.631	
4.570	0.780	0.685	
4.575	0.626	0.727	
4.580	0.890	0.748	
4.585	0.964	0.776	
4.590	0.745	0.811	
4.595	0.857	0.831	
4.600	1.025	0.848	
4.605	0.823	0.872	
4.610	0.826	0.885	
4.615	1.061	0.891	
4.620	1.008	0.912	
4.625	0.855	0.935	
4.630	1.072	0.949	
4.635	1.184	0.974	
4.640	1.026	1.012	
4.645	1.213	1.050	
4.650	1.359	1.096	
4.655	1.216	1.154	
4.660	1.138	1.197	
4.665	1.332	1.220	
4.670	1.197	1.237	
4.675	0.976	1.234	
4.680	1.100	1.200	
4.685	0.987	1.155	
4.690	0.640	1.090	
4.695	0.628	0.991	
4.700	0.655	0.877	
4.705	0.354	0.765	
4.710	0.259	0.643	
4.715	0.389	0.523	
4.720	0.252	0.427	
4.725	0.107	0.347	
4.730	0.316	0.280	
4.735	0.357	0.246	
4.740	0.163	0.238	
4.745	0.270	0.235	
4.750	0.432	0.242	
4.755	0.266	0.266	
4.760	0.236	0.284	
4.765	0.450	0.295	
4.770	0.359	0.315	
4.775	0.181	0.329	
4.780	0.293	0.322	
4.785	0.316	0.309	
4.790	0.116	0.294	
4.795	0.186	0.266	
4.800	0.282	0.239	
4.805	0.072	0.219	
4.810	0.036	0.190	
4.815	0.203	0.157	
4.820	0.101	0.137	
4.825	-0.049	0.118	
4.830	0.124	0.093	
4.835	0.130	0.078	
4.840	-0.023	0.073	
4.845	0.036	0.063	
4.850	0.110	0.053	
4.855	-0.052	0.048	
4.860	-0.049	0.035	
4.865	0.266	0.027	
4.870	0.238	0.052	
4.875	0.116	0.094	
4.880	0.185	0.127	
4.885	0.012	0.143	
4.890	-0.159	0.127	
4.895	-0.089	0.077	
4.900	0.039	0.025	
4.905	-0.045	-0.008	
4.910	-0.017	-0.026	
4.915	0.214	-0.024	
4.920	0.131	0.007	
4.925	0.007	0.043	
4.930	0.235	0.070	
4.935	0.319	0.107	
4.940	0.140	0.153	
4.945	0.258	0.186	
4.950	0.420	0.218	
4.955	0.267	0.256	
4.960	0.224	0.282	
4.965	0.444	0.296	
4.970	0.321	0.315	
4.975	0.157	0.323	
4.980	0.394	0.315	
4.985	0.435	0.317	
4.990	0.256	0.329	
4.995	0.402	0.337	
5.000	0.536	0.352	
5.005	0.374	0.380	
5.010	0.313	0.397	
5.015	0.512	0.402	
5.020	0.447	0.412	
5.025	0.275	0.419	
5.030	0.424	0.411	
5.035	0.351	0.399	
5.040	0.081	0.375	
5.045	0.090	0.322	
5.050	0.142	0.255	
5.055	-0.066	0.189	
5.060	-0.122	0.117	
5.065	-0.045	0.043	
5.070	-0.124	-0.016	
5.075	-0.229	-0.067	
5.080	-0.139	-0.113	
5.085	-0.109	-0.143	
5.090	-0.200	-0.157	
5.095	-0.129	-0.164	
5.100	-0.032	-0.160	
5.105	-0.148	-0.145	
5.110	-0.159	-0.133	
5.115	-0.049	-0.126	
5.120	-0.083	-0.115	
5.125	-0.159	-0.106	
5.130	-0.095	-0.105	
5.135	-0.069	-0.104	
5.140	-0.158	-0.103	
5.145	-0.113	-0.106	
5.150	-0.057	-0.108	
5.155	-0.164	-0.108	
5.160	-0.210	-0.115	
5.165	-0.089	-0.128	
5.170	-0.153	-0.136	
5.175	-0.248	-0.144	
5.180	-0.138	-0.158	
5.185	-0.107	-0.165	
5.190	-0.213	-0.164	
5.195	-0.179	-0.166	
5.200	-0.121	-0.168	
5.205	-0.225	-0.168	
5.210	-0.251	-0.175	
5.215	-0.119	-0.185	
5.220	-0.058	-0.181	
5.225	-0.086	-0.161	
5.230	0.052	-0.129	
5.235	0.013	-0.088	
5.240	-0.210	-0.058	
5.245	-0.196	-0.060	
5.250	-0.130	-0.084	
5.255	-0.194	-0.110	
5.260	-0.156	-0.134	
5.265	-0.008	-0.144	
5.270	-0.060	-0.134	
5.275	-0.130	-0.116	
5.280	-0.011	-0.101	
5.285	0.055	-0.079	
5.290	-0.077	-0.053	
5.295	-0.008	-0.035	
5.300	0.124	-0.019	
5.305	-0.013	0.003	
5.310	-0.055	0.016	
5.315	0.134	0.019	
5.320	0.085	0.031	
5.325	-0.025	0.044	
5.330	0.211	0.054	
5.335	1.535	0.138	
5.340	2.734	0.431	
5.345	3.081	0.961	
5.350	3.077	1.597	
5.355	3.074	2.182	
5.360	3.077	2.635	
5.365	3.077	2.939	
5.370	3.078	3.114	
5.375	3.084	3.194	
5.380	3.084	3.212	
5.385	2.832	3.186	
5.390	2.297	3.095	
5.395	2.096	2.918	
5.400	1.830	2.677	
5.405	1.326	2.391	
5.410	0.993	2.061	
5.415	0.924	1.714	
5.420	0.626	1.387	
5.425	0.314	1.085	
5.430	0.374	0.812	
5.435	0.263	0.589	
5.440	-0.003	0.411	
5.445	-0.014	0.260	
5.450	0.021	0.137	
5.455	-0.147	0.045	
5.460	-0.225	-0.031	
5.465	-0.147	-0.097	
5.470	-0.226	-0.146	
5.475	-0.329	-0.186	
5.480	-0.263	-0.224	
5.485	-0.286	-0.254	
5.490	-0.404	-0.279	
5.495	-0.364	-0.307	
5.500	-0.312	-0.331	
5.505	-0.436	-0.347	
5.510	-0.485	-0.368	
5.515	-0.391	-0.393	
5.520	-0.460	-0.413	
5.525	-0.566	-0.433	
5.530	-0.478	-0.458	
5.535	-0.463	-0.478	
5.540	-0.567	-0.490	
5.545	-0.515	-0.503	
5.550	-0.451	-0.511	
5.555	-0.549	-0.512	
5.560	-0.596	-0.516	
5.565	-0.520	-0.528	
5.570	-0.520	-0.535	
5.575	-0.552	-0.538	
5.580	-0.356	-0.531	
5.585	-0.269	-0.500	
5.590	-0.375	-0.452	
5.595	-0.420	-0.411	
5.600	-0.436	-0.391	
5.605	-0.561	-0.394	
5.610	-0.561	-0.421	
5.615	-0.417	-0.454	
5.620	-0.422	-0.470	
5.625	-0.469	-0.471	
5.630	-0.349	-0.463	
5.635	-0.330	-0.443	
5.640	-0.426	-0.418	
5.645	-0.352	-0.399	
5.650	-0.255	-0.380	
5.655	-0.326	-0.355	
5.660	-0.344	-0.335	
5.665	-0.219	-0.321	
5.670	-0.262	-0.302	
5.675	-0.330	-0.287	
5.680	-0.208	-0.279	
5.685	-0.173	-0.265	
5.690	-0.252	-0.247	
5.695	-0.196	-0.233	
5.700	-0.098	-0.217	
5.705	-0.162	-0.195	
5.710	-0.164	-0.175	
5.715	-0.006	-0.156	
5.720	-0.023	-0.127	
5.725	-0.122	-0.097	
5.730	0.015	-0.076	
5.735	0.049	-0.054	
5.740	-0.109	-0.033	
5.745	-0.090	-0.028	
5.750	-0.026	-0.036	
5.755	-0.171	-0.047	
5.760	-0.234	-0.072	
5.765	-0.170	-0.108	
5.770	-0.274	-0.145	
5.775	-0.371	-0.187	
5.780	-0.284	-0.233	
5.785	-0.300	-0.270	
5.790	-0.413	-0.298	
5.795	-0.356	-0.325	
5.800	-0.268	-0.343	
5.805	-0.341	-0.345	
5.810	-0.327	-0.341	
5.815	-0.165	-0.330	
5.820	-0.162	-0.302	
5.825	-0.210	-0.264	
5.830	-0.071	-0.227	
5.835	-0.074	-0.186	
5.840	-0.199	-0.151	
5.845	-0.148	-0.135	
5.850	-0.086	-0.129	
5.855	-0.181	-0.125	
5.860	-0.213	-0.130	
5.865	-0.116	-0.142	
5.870	-0.193	-0.151	
5.875	-0.294	-0.165	
5.880	-0.197	-0.186	
5.885	-0.190	-0.203	
5.890	-0.333	-0.215	
5.895	-0.281	-0.234	
5.900	-0.208	-0.251	
5.905	-0.289	-0.259	
5.910	-0.315	-0.266	
5.915	-0.232	-0.273	
5.920	-0.283	-0.275	
5.925	-0.371	-0.280	
5.930	-0.225	-0.288	
5.935	-0.075	-0.280	
5.940	-0.077	-0.245	
5.945	0.032	-0.192	
5.950	0.015	-0.130	
5.955	-0.248	-0.085	
5.960	-0.349	-0.085	
5.965	-0.240	-0.124	
5.970	-0.263	-0.171	
5.975	-0.312	-0.212	
5.980	-0.194	-0.243	
5.985	-0.135	-0.252	
5.990	-0.239	-0.242	
5.995	-0.197	-0.230	
6.000	-0.086	-0.215	
6.005	-0.161	-0.192	
6.010	-0.174	-0.172	
6.015	-0.017	-0.155	
6.020	-0.058	-0.130	
6.025	-0.145	-0.107	
6.030	-0.003	-0.092	
6.035	0.059	-0.072	
6.040	-0.080	-0.047	
6.045	0.006	-0.031	
6.050	0.198	-0.011	
6.055	0.065	0.022	
6.060	0.050	0.052	
6.065	0.343	0.081	
6.070	0.340	0.130	
6.075	0.238	0.188	
6.080	0.447	0.240	
6.085	0.499	0.297	
6.090	0.285	0.350	
6.095	0.339	0.376	
6.100	0.525	0.389	
6.105	0.264	0.399	
6.110	0.122	0.385	
6.115	0.209	0.340	
6.120	0.050	0.282	
6.125	-0.142	0.210	
6.130	-0.087	0.120	
6.135	-0.077	0.036	
6.140	-0.213	-0.033	
6.145	-0.179	-0.092	
6.150	-0.093	-0.135	
6.155	-0.187	-0.157	
6.160	-0.188	-0.169	
6.165	-0.057	-0.172	
6.170	-0.083	-0.160	
6.175	-0.181	-0.143	
6.180	-0.043	-0.130	
6.185	0.018	-0.112	
6.190	-0.124	-0.088	
6.195	-0.090	-0.075	
6.200	0.042	-0.067	
6.205	-0.089	-0.055	
6.210	-0.142	-0.052	
6.215	-0.013	-0.058	
6.220	-0.080	-0.062	
6.225	-0.208	-0.070	
6.230	-0.141	-0.091	
6.235	-0.130	-0.112	
6.240	-0.257	-0.133	
6.245	-0.231	-0.159	
6.250	-0.144	-0.182	
6.255	-0.229	-0.194	
6.260	-0.277	-0.205	
6.265	-0.147	-0.215	
6.270	-0.188	-0.216	
6.275	-0.294	-0.214	
6.280	-0.214	-0.219	
6.285	-0.158	-0.222	
6.290	-0.219	-0.217	
6.295	0.078	-0.198	
6.300	0.507	-0.132	
6.305	0.406	-0.006	
6.310	0.108	0.123	
6.315	0.010	0.193	
6.320	-0.121	0.192	
6.325	-0.239	0.134	
6.330	-0.118	0.048	
6.335	-0.063	-0.028	
6.340	-0.145	-0.078	
6.345	-0.101	-0.109	
6.350	0.047	-0.118	
6.355	-0.063	-0.104	
6.360	-0.068	-0.085	
6.365	0.151	-0.062	
6.370	0.096	-0.024	
6.375	-0.040	0.013	
6.380	0.125	0.036	
6.385	0.203	0.059	
6.390	0.027	0.085	
6.395	0.120	0.100	
6.400	0.328	0.116	
6.405	0.191	0.147	
6.410	0.127	0.174	
6.415	0.412	0.195	
6.420	0.325	0.228	
6.425	0.209	0.261	
6.430	0.429	0.283	
6.435	0.539	0.316	
6.440	0.325	0.358	
6.445	0.420	0.387	
6.450	0.545	0.409	
6.455	0.357	0.430	
6.460	0.244	0.431	
6.465	0.411	0.409	
6.470	0.218	0.383	
6.475	-0.066	0.335	
6.480	-0.055	0.251	
6.485	-0.118	0.150	
6.490	-0.294	0.046	
6.495	-0.297	-0.060	
6.500	-0.229	-0.153	
6.505	-0.329	-0.220	
6.510	-0.367	-0.270	
6.515	-0.236	-0.305	
6.520	-0.252	-0.316	
6.525	-0.321	-0.312	
6.530	-0.216	-0.304	
6.535	-0.147	-0.285	
6.540	-0.237	-0.258	
6.545	-0.188	-0.234	
6.550	-0.069	-0.211	
6.555	-0.138	-0.182	
6.560	-0.165	-0.157	
6.565	-0.034	-0.140	
6.570	-0.090	-0.120	
6.575	-0.188	-0.107	
6.580	-0.104	-0.107	
6.585	-0.087	-0.110	
6.590	-0.199	-0.113	
6.595	-0.158	-0.123	
6.600	-0.078	-0.133	
6.605	-0.177	-0.136	
6.610	-0.219	-0.142	
6.615	-0.095	-0.152	
6.620	-0.101	-0.152	
6.625	-0.205	-0.147	
6.630	-0.103	-0.146	
6.635	-0.040	-0.139	
6.640	-0.174	-0.127	
6.645	-0.141	-0.122	
6.650	-0.022	-0.119	
6.655	0.000	-0.104	
6.660	0.156	-0.071	
6.665	0.493	-0.005	
6.670	0.371	0.098	
6.675	-0.077	0.184	
6.680	-0.106	0.198	
6.685	-0.077	0.151	
6.690	-0.158	0.081	
6.695	-0.086	0.010	
6.700	0.085	-0.039	
6.705	-0.019	-0.052	
6.710	-0.048	-0.049	
6.715	0.145	-0.037	
6.720	0.081	-0.010	
6.725	-0.043	0.018	
6.730	0.075	0.031	
6.735	0.152	0.044	
6.740	-0.013	0.059	
6.745	0.010	0.062	
6.750	0.197	0.061	
6.755	0.029	0.070	
6.760	-0.040	0.071	
6.765	0.143	0.063	
6.770	0.072	0.062	
6.775	-0.071	0.060	
6.780	0.075	0.048	
6.785	0.162	0.044	
6.790	0.015	0.054	
6.795	0.035	0.059	
6.800	0.172	0.062	
6.805	0.062	0.073	
6.810	0.012	0.079	
6.815	0.165	0.079	
6.820	0.099	0.085	
6.825	-0.090	0.084	
6.830	-0.051	0.063	
6.835	-0.054	0.029	
6.840	-0.199	-0.009	
6.845	-0.213	-0.057	
6.850	-0.152	-0.106	
6.855	-0.286	-0.147	
6.860	-0.342	-0.190	
6.865	-0.252	-0.232	
6.870	-0.310	-0.263	
6.875	-0.468	-0.292	
6.880	-0.497	-0.333	
6.885	-0.504	-0.382	
6.890	-0.625	-0.434	
6.895	-0.637	-0.490	
6.900	-0.546	-0.540	
6.905	-0.599	-0.572	
6.910	-0.611	-0.591	
6.915	-0.524	-0.600	
6.920	-0.585	-0.597	
6.925	-0.732	-0.597	
6.930	-0.718	-0.615	
6.935	-0.700	-0.642	
6.940	-0.802	-0.672	
6.945	-0.839	-0.708	
6.950	-0.782	-0.745	
6.955	-0.825	-0.775	
6.960	-0.851	-0.798	
6.965	-0.757	-0.814	
6.970	-0.723	-0.814	
6.975	-0.763	-0.800	
6.980	-0.679	-0.781	
6.985	-0.567	-0.751	
6.990	-0.593	-0.709	
6.995	-0.549	-0.664	
7.000	-0.417	-0.616	
7.005	-0.440	-0.563	
7.010	-0.437	-0.513	
7.015	-0.242	-0.466	
7.020	-0.109	-0.404	
7.025	-0.097	-0.325	
7.030	0.030	-0.238	
7.035	0.020	-0.153	
7.040	-0.164	-0.087	
7.045	-0.148	-0.059	
7.050	0.075	-0.053	
7.055	0.113	-0.034	
7.060	0.091	-0.001	
7.065	0.389	0.047	
7.070	0.473	0.124	
7.075	0.357	0.217	
7.080	0.484	0.300	
7.085	0.634	0.376	
7.090	0.516	0.448	
7.095	0.553	0.504	
7.100	0.741	0.547	
7.105	0.701	0.593	
7.110	0.641	0.635	
7.115	0.799	0.667	
7.120	0.835	0.701	
7.125	0.715	0.736	
7.130	0.867	0.761	
7.135	0.965	0.791	
7.140	0.857	0.828	
7.145	0.889	0.858	
7.150	1.107	0.887	
7.155	1.061	0.930	
7.160	1.013	0.975	
7.165	1.179	1.014	
7.170	1.190	1.057	
7.175	0.997	1.093	
7.180	1.094	1.106	
7.185	1.153	1.109	
7.190	0.907	1.104	
7.195	0.823	1.073	
7.200	0.909	1.019	
7.205	0.735	0.961	
7.210	0.531	0.889	
7.215	0.615	0.801	
7.220	0.550	0.716	
7.225	0.311	0.636	
7.230	0.392	0.551	
7.235	0.519	0.483	
7.240	0.380	0.443	
7.245	0.385	0.419	
7.250	0.541	0.408	
7.255	0.475	0.416	
7.260	0.347	0.429	
7.265	0.505	0.433	
7.270	0.545	0.443	
7.275	0.398	0.458	
7.280	0.481	0.465	
7.285	0.560	0.471	
7.290	0.388	0.479	
7.295	0.415	0.475	
7.300	0.565	0.468	
7.305	0.435	0.470	
7.310	0.282	0.463	
7.315	0.450	0.441	
7.320	0.398	0.422	
7.325	0.197	0.401	
7.330	0.279	0.366	
7.335	0.351	0.333	
7.340	0.151	0.307	
7.345	0.192	0.277	
7.350	0.313	0.250	
7.355	0.232	0.239	
7.360	0.107	0.230	
7.365	0.267	0.216	
7.370	0.273	0.212	
7.375	0.084	0.212	
7.380	0.293	0.207	
7.385	0.547	0.222	
7.390	0.443	0.273	
7.395	0.330	0.329	
7.400	0.322	0.362	
7.405	0.111	0.361	
7.410	-0.022	0.318	
7.415	0.198	0.251	
7.420	0.258	0.200	
7.425	0.124	0.177	
7.430	0.250	0.168	
7.435	0.368	0.178	
7.440	0.203	0.205	
7.445	0.174	0.224	
7.450	0.427	0.237	
7.455	0.813	0.285	
7.460	1.242	0.408	
7.465	1.821	0.629	
7.470	2.076	0.943	
7.475	2.004	1.291	
7.480	2.126	1.603	
7.485	2.216	1.851	
7.490	2.013	2.027	
7.495	1.931	2.117	
7.500	2.019	2.135	
7.505	1.879	2.111	
7.510	1.703	2.055	
7.515	1.828	1.977	
7.520	1.775	1.903	
7.525	1.520	1.833	
7.530	1.544	1.754	
7.535	1.553	1.676	
7.540	1.277	1.602	
7.545	1.110	1.510	
7.550	1.165	1.402	
7.555	0.910	1.290	
7.560	0.567	1.161	
7.565	0.606	1.006	
7.570	0.544	0.851	
7.575	0.139	0.702	
7.580	0.133	0.544	
7.585	0.169	0.392	
7.590	-0.016	0.266	
7.595	-0.060	0.158	
7.600	0.029	0.071	
7.605	-0.049	0.013	
7.610	-0.115	-0.027	
7.615	-0.016	-0.055	
7.620	-0.008	-0.066	
7.625	-0.116	-0.066	
7.630	-0.077	-0.068	
7.635	0.006	-0.069	
7.640	-0.092	-0.064	
7.645	-0.100	-0.062	
7.650	0.015	-0.063	
7.655	0.107	-0.050	
7.660	0.203	-0.014	
7.665	0.496	0.052	
7.670	0.522	0.155	
7.675	0.327	0.263	
7.680	0.340	0.337	
7.685	0.345	0.374	
7.690	0.117	0.376	
7.695	0.021	0.335	
7.700	0.087	0.265	
7.705	-0.052	0.188	
7.710	-0.153	0.107	
7.715	-0.078	0.028	
7.720	-0.113	-0.036	
7.725	-0.232	-0.085	
7.730	-0.207	-0.130	
7.735	-0.150	-0.165	
7.740	-0.263	-0.187	
7.745	-0.203	-0.204	
7.750	-0.002	-0.206	
7.755	-0.028	-0.179	
7.760	-0.150	-0.143	
7.765	-0.132	-0.120	
7.770	-0.159	-0.113	
7.775	-0.211	-0.119	
7.780	-0.081	-0.131	
7.785	0.062	-0.127	
7.790	-0.023	-0.100	
7.795	-0.005	-0.068	
7.800	0.160	-0.034	
7.805	0.070	0.007	
7.810	-0.037	0.038	
7.815	0.072	0.049	
7.820	0.049	0.053	
7.825	-0.075	0.049	
7.830	-0.013	0.033	
7.835	0.072	0.018	
7.840	-0.081	0.009	
7.845	-0.093	-0.005	
7.850	0.032	-0.022	
7.855	-0.034	-0.029	
7.860	-0.081	-0.033	
7.865	0.024	-0.037	
7.870	0.059	-0.030	
7.875	-0.054	-0.018	
7.880	0.029	-0.009	
7.885	0.174	0.005	
7.890	0.023	0.030	
7.895	-0.006	0.046	
7.900	0.166	0.054	
7.905	0.027	0.064	
7.910	-0.109	0.062	
7.915	-0.017	0.040	
7.920	-0.054	0.013	
7.925	-0.220	-0.019	
7.930	-0.207	-0.063	
7.935	-0.188	-0.111	
7.940	-0.315	-0.156	
7.945	-0.346	-0.203	
7.950	-0.274	-0.247	
7.955	-0.326	-0.280	
7.960	-0.396	-0.305	
7.965	-0.315	-0.327	
7.970	-0.310	-0.340	
7.975	-0.388	-0.344	
7.980	-0.335	-0.348	
7.985	-0.275	-0.348	
7.990	-0.344	-0.340	
7.995	-0.306	-0.332	
8.000	-0.216	-0.321	
8.005	-0.252	-0.302	
8.010	-0.315	-0.284	
8.015	-0.210	-0.274	
8.020	-0.214	-0.262	
8.025	-0.306	-0.251	
8.030	-0.236	-0.249	
8.035	-0.173	-0.245	
8.040	-0.313	-0.240	
8.045	-0.318	-0.244	
8.050	-0.232	-0.256	
8.055	-0.300	-0.264	
8.060	-0.358	-0.275	
8.065	-0.274	-0.289	
8.070	-0.287	-0.297	
8.075	-0.370	-0.303	
8.080	-0.304	-0.311	
8.085	-0.254	-0.315	
8.090	-0.350	-0.312	
8.095	-0.346	-0.313	
8.100	-0.226	-0.314	
8.105	-0.226	-0.304	
8.110	-0.168	-0.282	
8.115	0.117	-0.240	
8.120	0.235	-0.161	
8.125	-0.022	-0.066	
8.130	-0.107	-0.004	
8.135	-0.155	0.010	
8.140	-0.266	-0.017	
8.145	-0.254	-0.070	
8.150	-0.148	-0.126	
8.155	-0.187	-0.164	
8.160	-0.237	-0.188	
8.165	-0.118	-0.201	
8.170	-0.100	-0.196	
8.175	-0.199	-0.182	
8.180	-0.145	-0.171	
8.185	-0.081	-0.160	
8.190	-0.167	-0.147	
8.195	-0.167	-0.141	
8.200	-0.028	-0.136	
8.205	-0.103	-0.123	
8.210	-0.176	-0.113	
8.215	-0.048	-0.111	
8.220	-0.022	-0.102	
8.225	-0.103	-0.088	
8.230	0.007	-0.075	
8.235	0.157	-0.052	
8.240	0.052	-0.013	
8.245	0.082	0.024	
8.250	0.333	0.063	
8.255	0.276	0.118	
8.260	0.133	0.170	
8.265	0.305	0.203	
8.270	0.324	0.232	
8.275	0.070	0.250	
8.280	0.136	0.240	
8.285	0.136	0.213	
8.290	-0.071	0.176	
8.295	-0.122	0.120	
8.300	-0.060	0.052	
8.305	-0.145	-0.008	
8.310	-0.239	-0.064	
8.315	-0.136	-0.114	
8.320	-0.148	-0.148	
8.325	-0.266	-0.170	
8.330	-0.216	-0.191	
8.335	-0.141	-0.204	
8.340	-0.257	-0.208	
8.345	-0.236	-0.213	
8.350	-0.141	-0.216	
8.355	-0.196	-0.210	
8.360	-0.255	-0.205	
8.365	-0.130	-0.203	
8.370	-0.122	-0.194	
8.375	-0.223	-0.182	
8.380	-0.155	-0.175	
8.385	-0.081	-0.168	
8.390	-0.182	-0.157	
8.395	-0.194	-0.152	
8.400	-0.092	-0.152	
8.405	-0.181	-0.150	
8.410	-0.283	-0.155	
8.415	-0.184	-0.172	
8.420	-0.182	-0.187	
8.425	-0.298	-0.199	
8.430	-0.242	-0.215	
8.435	-0.165	-0.227	
8.440	-0.268	-0.230	
8.445	-0.297	-0.235	
8.450	-0.190	-0.242	
8.455	-0.262	-0.245	
8.460	-0.341	-0.249	
8.465	-0.271	-0.261	
8.470	-0.228	-0.270	
8.475	-0.203	-0.268	
8.480	0.038	-0.245	
8.485	0.275	-0.181	
8.490	0.006	-0.089	
8.495	-0.200	-0.024	
8.500	-0.205	-0.015	
8.505	-0.262	-0.048	
8.510	-0.333	-0.104	
8.515	-0.219	-0.166	
8.520	-0.187	-0.209	
8.525	-0.266	-0.232	
8.530	-0.179	-0.242	
8.535	-0.110	-0.236	
8.540	-0.205	-0.217	
8.545	-0.188	-0.201	
8.550	-0.048	-0.185	
8.555	-0.101	-0.160	
8.560	-0.177	-0.138	
8.565	-0.045	-0.125	
8.570	-0.019	-0.109	
8.575	-0.124	-0.090	
8.580	-0.035	-0.078	
8.585	0.099	-0.062	
8.590	-0.014	-0.036	
8.595	0.000	-0.013	
8.600	0.227	0.010	
8.605	0.151	0.048	
8.610	0.117	0.087	
8.615	0.365	0.125	
8.620	0.388	0.178	
8.625	0.217	0.233	
8.630	0.365	0.272	
8.635	0.461	0.306	
8.640	0.243	0.337	
8.645	0.201	0.343	
8.650	0.299	0.326	
8.655	0.111	0.300	
8.660	-0.074	0.252	
8.665	0.001	0.180	
8.670	-0.054	0.106	
8.675	-0.220	0.035	
8.680	-0.184	-0.038	
8.685	-0.103	-0.098	
8.690	-0.217	-0.138	
8.695	-0.240	-0.168	
8.700	-0.148	-0.191	
8.705	-0.174	-0.199	
8.710	-0.240	-0.201	
8.715	-0.122	-0.201	
8.720	-0.112	-0.191	
8.725	-0.188	-0.175	
8.730	-0.124	-0.164	
8.735	-0.052	-0.150	
8.740	-0.133	-0.133	
8.745	-0.170	-0.122	
8.750	-0.061	-0.119	
8.755	-0.122	-0.115	
8.760	-0.181	-0.114	
8.765	-0.095	-0.119	
8.770	-0.124	-0.123	
8.775	-0.240	-0.129	
8.780	-0.193	-0.145	
8.785	-0.122	-0.160	
8.790	-0.237	-0.170	
8.795	-0.251	-0.182	
8.800	-0.165	-0.196	
8.805	-0.214	-0.204	
8.810	-0.280	-0.210	
8.815	-0.165	-0.218	
8.820	-0.130	-0.216	
8.825	-0.291	-0.208	
8.830	-0.263	-0.210	
8.835	-0.193	-0.220	
8.840	-0.197	-0.223	
8.845	-0.022	-0.211	
8.850	0.394	-0.159	
8.855	0.324	-0.054	
8.860	-0.066	0.052	
8.865	-0.145	0.097	
8.870	-0.213	0.075	
8.875	-0.297	0.010	
8.880	-0.236	-0.071	
8.885	-0.139	-0.140	
8.890	-0.200	-0.181	
8.895	-0.202	-0.202	
8.900	-0.093	-0.207	
8.905	-0.118	-0.195	
8.910	-0.170	-0.176	
8.915	-0.072	-0.159	
8.920	-0.035	-0.137	
8.925	-0.124	-0.113	
8.930	-0.032	-0.095	
8.935	0.107	-0.073	
8.940	0.000	-0.040	
8.945	-0.028	-0.013	
8.950	0.154	0.008	
8.955	0.111	0.034	
8.960	0.023	0.059	
8.965	0.270	0.080	
8.970	0.325	0.117	
8.975	0.166	0.163	
8.980	0.299	0.200	
8.985	0.484	0.239	
8.990	0.421	0.292	
8.995	0.414	0.344	
9.000	0.606	0.392	
9.005	0.522	0.442	
9.010	0.322	0.476	
9.015	0.418	0.478	
9.020	0.383	0.462	
9.025	0.079	0.427	
9.030	0.053	0.359	
9.035	0.082	0.271	
9.040	-0.104	0.183	
9.045	-0.147	0.094	
9.050	-0.060	0.011	
9.055	-0.139	-0.050	
9.060	-0.219	-0.097	
9.065	-0.106	-0.133	
9.070	-0.084	-0.150	
9.075	-0.161	-0.151	
9.080	-0.077	-0.146	
9.085	0.023	-0.130	
9.090	-0.075	-0.103	
9.095	-0.083	-0.080	
9.100	0.082	-0.062	
9.105	0.044	-0.035	
9.110	-0.087	-0.012	
9.115	0.056	-0.002	
9.120	0.119	0.010	
9.125	-0.072	0.024	
9.130	-0.011	0.025	
9.135	0.090	0.021	
9.140	-0.083	0.019	
9.145	-0.129	0.005	
9.150	-0.038	-0.020	
9.155	-0.097	-0.043	
9.160	-0.168	-0.065	
9.165	-0.068	-0.086	
9.170	-0.049	-0.097	
9.175	-0.132	-0.099	
9.180	-0.093	-0.100	
9.185	0.000	-0.097	
9.190	-0.113	-0.087	
9.195	-0.164	-0.084	
9.200	-0.071	-0.091	
9.205	-0.017	-0.092	
9.210	0.159	-0.073	
9.215	0.573	-0.010	
9.220	0.670	0.114	
9.225	0.230	0.253	
9.230	-0.020	0.326	
9.235	-0.011	0.310	
9.240	-0.106	0.238	
9.245	-0.086	0.144	
9.250	0.116	0.064	
9.255	0.062	0.023	
9.260	-0.006	0.009	
9.265	0.215	0.013	
9.270	0.258	0.044	
9.275	0.093	0.089	
9.280	0.146	0.122	
9.285	0.342	0.149	
9.290	0.235	0.184	
9.295	0.229	0.216	
9.300	0.437	0.243	
9.305	0.359	0.279	
9.310	0.243	0.310	
9.315	0.460	0.328	
9.320	0.505	0.353	
9.325	0.400	0.387	
9.330	0.521	0.416	
9.335	0.693	0.452	
9.340	0.597	0.502	
9.345	0.596	0.549	
9.350	0.840	0.591	
9.355	0.800	0.645	
9.360	0.667	0.696	
9.365	0.825	0.729	
9.370	0.843	0.757	
9.375	0.565	0.772	
9.380	0.556	0.754	
9.385	0.617	0.712	
9.390	0.362	0.659	
9.395	0.194	0.582	
9.400	0.261	0.484	
9.405	0.038	0.381	
9.410	-0.121	0.270	
9.415	-0.060	0.153	
9.420	-0.052	0.054	
9.425	-0.165	-0.020	
9.430	-0.138	-0.076	
9.435	-0.075	-0.114	
9.440	-0.148	-0.132	
9.445	-0.156	-0.140	
9.450	-0.046	-0.142	
9.455	-0.072	-0.132	
9.460	-0.156	-0.118	
9.465	-0.066	-0.110	
9.470	-0.023	-0.101	
9.475	-0.098	-0.087	
9.480	-0.068	-0.077	
9.485	0.010	-0.069	
9.490	-0.090	-0.058	
9.495	-0.104	-0.055	
9.500	0.020	-0.056	
9.505	-0.043	-0.051	
9.510	-0.152	-0.049	
9.515	-0.080	-0.059	
9.520	-0.084	-0.071	
9.525	-0.197	-0.085	
9.530	-0.196	-0.107	
9.535	-0.130	-0.131	
9.540	-0.194	-0.149	
9.545	-0.219	-0.164	
9.550	-0.109	-0.176	
9.555	-0.168	-0.177	
9.560	-0.301	-0.179	
9.565	-0.248	-0.194	
9.570	-0.194	-0.211	
9.575	-0.197	-0.219	
9.580	-0.013	-0.211	
9.585	0.194	-0.169	
9.590	-0.026	-0.101	
9.595	-0.284	-0.056	
9.600	-0.359	-0.067	
9.605	-0.451	-0.127	
9.610	-0.495	-0.215	
9.615	-0.371	-0.301	
9.620	-0.287	-0.359	
9.625	-0.368	-0.382	
9.630	-0.309	-0.384	
9.635	-0.190	-0.368	
9.640	-0.260	-0.337	
9.645	-0.262	-0.304	
9.650	-0.126	-0.273	
9.655	-0.115	-0.237	
9.660	-0.159	-0.199	
9.665	-0.072	-0.167	
9.670	-0.034	-0.136	
9.675	-0.109	-0.107	
9.680	-0.042	-0.087	
9.685	0.130	-0.063	
9.690	0.017	-0.030	
9.695	0.035	0.002	
9.700	0.240	0.032	
9.705	0.238	0.075	
9.710	0.148	0.123	
9.715	0.340	0.164	
9.720	0.452	0.213	
9.725	0.343	0.271	
9.730	0.453	0.323	
9.735	0.605	0.374	
9.740	0.408	0.426	
9.745	0.275	0.451	
9.750	0.386	0.442	
9.755	0.236	0.415	
9.760	0.018	0.366	
9.765	0.053	0.289	
9.770	0.046	0.206	
9.775	-0.176	0.126	
9.780	-0.193	0.040	
9.785	-0.147	-0.042	
9.790	-0.220	-0.108	
9.795	-0.272	-0.160	
9.800	-0.182	-0.199	
9.805	-0.223	-0.222	
9.810	-0.297	-0.235	
9.815	-0.210	-0.245	
9.820	-0.184	-0.246	
9.825	-0.248	-0.240	
9.830	-0.193	-0.232	
9.835	-0.106	-0.220	
9.840	-0.173	-0.200	
9.845	-0.159	-0.181	
9.850	-0.011	-0.162	
9.855	-0.034	-0.132	
9.860	-0.100	-0.102	
9.865	0.021	-0.078	
9.870	0.111	-0.049	
9.875	-0.032	-0.016	
9.880	0.020	0.006	
9.885	0.223	0.026	
9.890	0.142	0.060	
9.895	0.151	0.095	
9.900	0.331	0.131	
9.905	0.264	0.174	
9.910	0.061	0.206	
9.915	0.224	0.211	
9.920	0.307	0.213	
9.925	0.149	0.220	
9.930	0.160	0.218	
9.935	0.256	0.210	
9.940	0.099	0.203	
9.945	0.116	0.189	
9.950	0.527	0.186	
9.955	0.663	0.235	
9.960	0.466	0.323	
9.965	0.408	0.399	
9.970	0.243	0.433	
9.975	0.030	0.412	
9.980	0.046	0.342	
9.985	0.203	0.259	
9.990	0.114	0.197	
9.995	0.075	0.153	
10.000	0.263	0.128	
10.005	0.154	0.126	
10.010	-0.014	0.128	
10.015	0.085	0.115	
10.020	0.110	0.100	
10.025	-0.037	0.086	
10.030	-0.011	0.065	
10.035	0.119	0.045	
10.040	0.003	0.038	
10.045	-0.055	0.030	
10.050	0.047	0.018	
10.055	0.018	0.012	
10.060	-0.113	0.005	
10.065	-0.066	-0.012	
10.070	-0.072	-0.033	
10.075	-0.167	-0.054	
10.080	-0.142	-0.080	
10.085	-0.097	-0.103	
10.090	-0.185	-0.120	
10.095	-0.266	-0.139	
10.100	-0.196	-0.166	
10.105	-0.237	-0.189	
10.110	-0.346	-0.213	
10.115	-0.310	-0.242	
10.120	-0.460	-0.278	
10.125	-0.845	-0.340	
10.130	-0.993	-0.453	
10.135	-0.995	-0.601	
10.140	-0.995	-0.747	
10.145	-0.995	-0.864	
10.150	-0.995	-0.946	
10.155	-0.995	-0.995	
10.160	-0.995	-1.019	
10.165	-0.995	-1.027	
10.170	-0.995	-1.024	
10.175	-0.993	-1.018	
10.180	-0.993	-1.010	
10.185	-0.993	-1.003	
10.190	-0.995	-0.998	
10.195	-0.993	-0.995	
10.200	-0.854	-0.987	
10.205	-0.764	-0.960	
10.210	-0.747	-0.915	
10.215	-0.642	-0.857	
10.220	-0.530	-0.789	
10.225	-0.530	-0.713	
10.230	-0.462	-0.639	
10.235	-0.339	-0.567	
10.240	-0.350	-0.496	
10.245	-0.358	-0.434	
10.250	-0.226	-0.383	
10.255	-0.168	-0.332	
10.260	-0.219	-0.282	
10.265	-0.119	-0.239	
10.270	-0.055	-0.197	
10.275	-0.110	-0.156	
10.280	-0.043	-0.122	
10.285	0.159	-0.084	
10.290	0.110	-0.032	
10.295	0.044	0.019	
10.300	0.235	0.060	
10.305	0.316	0.108	
10.310	0.166	0.159	
10.315	0.394	0.203	
10.320	0.701	0.263	
10.325	0.644	0.357	
10.330	0.599	0.457	
10.335	0.592	0.534	
10.340	0.363	0.572	
10.345	0.287	0.560	
10.350	0.512	0.517	
10.355	0.603	0.489	
10.360	0.528	0.488	
10.365	0.707	0.507	
10.370	0.814	0.550	
10.375	0.706	0.610	
10.380	0.695	0.662	
10.385	0.851	0.701	
10.390	0.837	0.740	
10.395	0.725	0.772	
10.400	0.851	0.791	
10.405	0.852	0.805	
10.410	0.709	0.814	
10.415	0.855	0.813	
10.420	0.977	0.818	
10.425	0.848	0.839	
10.430	0.855	0.857	
10.435	1.022	0.873	
10.440	0.977	0.899	
10.445	0.886	0.923	
10.450	1.022	0.939	
10.455	1.063	0.958	
10.460	0.953	0.980	
10.465	1.054	0.995	
10.470	1.152	1.013	
10.475	0.988	1.036	
10.480	0.948	1.044	
10.485	1.051	1.037	
10.490	0.900	1.024	
10.495	0.686	0.992	
10.500	0.739	0.932	
10.505	0.652	0.860	
10.510	0.427	0.780	
10.515	0.441	0.687	
10.520	0.466	0.596	
10.525	0.273	0.517	
10.530	0.238	0.441	
10.535	0.386	0.374	
10.540	0.296	0.333	
10.545	0.189	0.305	
10.550	0.347	0.282	
10.555	0.392	0.277	
10.560	0.246	0.288	
10.565	0.337	0.296	
10.570	0.435	0.308	
10.575	0.278	0.325	
10.580	0.281	0.333	
10.585	0.449	0.334	
10.590	0.369	0.345	
10.595	0.258	0.353	
10.600	0.406	0.352	
10.605	0.395	0.354	
10.610	0.214	0.354	
10.615	0.299	0.341	
10.620	0.324	0.324	
10.625	0.166	0.307	
10.630	0.097	0.277	
10.635	0.181	0.236	
10.640	0.073	0.197	
10.645	-0.005	0.156	
10.650	0.168	0.118	
10.655	0.172	0.101	
10.660	0.021	0.098	
10.665	0.125	0.095	
10.670	0.214	0.098	
10.675	0.070	0.110	
10.680	0.058	0.115	
10.685	0.308	0.119	
10.690	0.386	0.148	
10.695	0.958	0.229	
10.700	2.606	0.453	
10.705	3.084	0.906	
10.710	3.083	1.509	
10.715	3.080	2.096	
10.720	3.081	2.566	
10.725	3.081	2.892	
10.730	3.086	3.088	
10.735	3.074	3.183	
10.740	2.727	3.194	
10.745	2.382	3.113	
10.750	2.320	2.952	
10.755	2.065	2.747	
10.760	1.822	2.521	
10.765	1.819	2.292	
10.770	1.761	2.089	
10.775	1.485	1.919	
10.780	1.332	1.761	
10.785	1.304	1.610	
10.790	1.051	1.469	
10.795	0.840	1.324	
10.800	0.918	1.177	
10.805	0.826	1.049	
10.810	0.644	0.941	
10.815	0.693	0.844	
10.820	0.706	0.766	
10.825	0.541	0.709	
10.830	0.507	0.656	
10.835	0.554	0.606	
10.840	0.432	0.564	
10.845	0.217	0.515	
10.850	0.273	0.448	
10.855	0.166	0.375	
10.860	-0.014	0.298	
10.865	-0.025	0.210	
10.870	-0.086	0.121	
10.875	-0.237	0.035	
10.880	-0.289	-0.053	
10.885	-0.266	-0.136	
10.890	-0.344	-0.206	
10.895	-0.402	-0.265	
10.900	-0.367	-0.315	
10.905	-0.385	-0.351	
10.910	-0.449	-0.378	
10.915	-0.408	-0.399	
10.920	-0.379	-0.412	
10.925	-0.426	-0.416	
10.930	-0.411	-0.417	
10.935	-0.358	-0.414	
10.940	-0.384	-0.406	
10.945	-0.420	-0.399	
10.950	-0.352	-0.394	
10.955	-0.320	-0.386	
10.960	-0.364	-0.373	
10.965	-0.315	-0.361	
10.970	-0.301	-0.348	
10.975	-0.347	-0.336	
10.980	-0.339	-0.329	
10.985	-0.292	-0.326	
10.990	-0.347	-0.323	
10.995	-0.404	-0.326	
11.000	-0.346	-0.337	
11.005	-0.341	-0.346	
11.010	-0.404	-0.353	
11.015	-0.341	-0.360	
11.020	-0.300	-0.361	
11.025	-0.352	-0.354	
11.030	-0.336	-0.347	
11.035	-0.274	-0.340	
11.040	-0.342	-0.330	
11.045	-0.390	-0.327	
11.050	-0.292	-0.330	
11.055	-0.200	-0.325	
11.060	-0.162	-0.302	
11.065	-0.022	-0.260	
11.070	0.033	-0.199	
11.075	-0.168	-0.139	
11.080	-0.271	-0.109	
11.085	-0.239	-0.119	
11.090	-0.272	-0.148	
11.095	-0.283	-0.185	
11.100	-0.174	-0.215	
11.105	-0.167	-0.227	
11.110	-0.200	-0.224	
11.115	-0.124	-0.213	
11.120	-0.083	-0.193	
11.125	-0.130	-0.167	
11.130	-0.104	-0.144	
11.135	0.006	-0.121	
11.140	-0.040	-0.094	
11.145	-0.055	-0.069	
11.150	0.039	-0.049	
11.155	0.030	-0.028	
11.160	-0.055	-0.010	
11.165	0.035	-0.002	
11.170	0.093	0.008	
11.175	0.032	0.023	
11.180	0.152	0.040	
11.185	0.402	0.075	
11.190	0.440	0.143	
11.195	0.458	0.230	
11.200	0.652	0.323	
11.205	0.702	0.423	
11.210	0.567	0.515	
11.215	0.667	0.581	
11.220	0.738	0.628	
11.225	0.537	0.659	
11.230	0.385	0.654	
11.235	0.376	0.608	
11.240	0.177	0.534	
11.245	0.041	0.435	
11.250	0.119	0.323	
11.255	0.007	0.222	
11.260	-0.104	0.132	
11.265	-0.084	0.051	
11.270	-0.060	-0.014	
11.275	-0.142	-0.059	
11.280	-0.135	-0.093	
11.285	-0.075	-0.115	
11.290	-0.132	-0.123	
11.295	-0.158	-0.128	
11.300	-0.060	-0.130	
11.305	-0.064	-0.123	
11.310	-0.136	-0.111	
11.315	-0.104	-0.106	
11.320	-0.055	-0.102	
11.325	-0.116	-0.096	
11.330	-0.121	-0.095	
11.335	-0.049	-0.095	
11.340	-0.103	-0.093	
11.345	-0.150	-0.093	
11.350	-0.093	-0.099	
11.355	-0.129	-0.105	
11.360	-0.216	-0.115	
11.365	-0.167	-0.132	
11.370	-0.156	-0.149	
11.375	-0.260	-0.163	
11.380	-0.266	-0.184	
11.385	-0.210	-0.206	
11.390	-0.248	-0.222	
11.395	-0.295	-0.235	
11.400	-0.229	-0.248	
11.405	-0.231	-0.253	
11.410	-0.313	-0.256	
11.415	-0.298	-0.263	
11.420	-0.242	-0.271	
11.425	-0.223	-0.272	
11.430	-0.031	-0.255	
11.435	0.247	-0.201	
11.440	0.185	-0.108	
11.445	-0.087	-0.018	
11.450	-0.162	0.023	
11.455	-0.239	0.009	
11.460	-0.295	-0.043	
11.465	-0.234	-0.110	
11.470	-0.165	-0.165	
11.475	-0.214	-0.198	
11.480	-0.216	-0.215	
11.485	-0.142	-0.220	
11.490	-0.173	-0.213	
11.495	-0.199	-0.202	
11.500	-0.097	-0.190	
11.505	-0.113	-0.172	
11.510	-0.159	-0.154	
11.515	-0.087	-0.141	
11.520	-0.031	-0.125	
11.525	-0.083	-0.105	
11.530	-0.055	-0.087	
11.535	0.056	-0.069	
11.540	0.058	-0.042	
11.545	-0.005	-0.013	
11.550	0.134	0.012	
11.555	0.189	0.043	
11.560	0.148	0.081	
11.565	0.273	0.119	
11.570	0.359	0.165	
11.575	0.325	0.218	
11.580	0.331	0.265	
11.585	0.432	0.305	
11.590	0.327	0.339	
11.595	0.218	0.353	
11.600	0.276	0.343	
11.605	0.137	0.316	
11.610	-0.060	0.268	
11.615	-0.040	0.193	
11.620	-0.072	0.111	
11.625	-0.176	0.034	
11.630	-0.207	-0.040	
11.635	-0.203	-0.105	
11.640	-0.243	-0.157	
11.645	-0.300	-0.200	
11.650	-0.226	-0.233	
11.655	-0.260	-0.253	
11.660	-0.317	-0.265	
11.665	-0.248	-0.275	
11.670	-0.179	-0.275	
11.675	-0.214	-0.262	
11.680	-0.199	-0.244	
11.685	-0.129	-0.225	
11.690	-0.139	-0.201	
11.695	-0.164	-0.179	
11.700	-0.095	-0.161	
11.705	-0.112	-0.144	
11.710	-0.161	-0.131	
11.715	-0.100	-0.125	
11.720	-0.043	-0.118	
11.725	-0.142	-0.107	
11.730	-0.176	-0.106	
11.735	-0.124	-0.114	
11.740	-0.171	-0.124	
11.745	-0.222	-0.138	
11.750	-0.159	-0.155	
11.755	-0.181	-0.168	
11.760	-0.231	-0.178	
11.765	-0.171	-0.188	
11.770	-0.118	-0.190	
11.775	-0.203	-0.184	
11.780	-0.197	-0.180	
11.785	-0.161	-0.180	
11.790	-0.214	-0.181	
11.795	-0.216	-0.185	
11.800	-0.019	-0.183	
11.805	0.169	-0.153	
11.810	0.104	-0.090	
11.815	-0.028	-0.026	
11.820	-0.245	0.001	
11.825	-0.420	-0.029	
11.830	-0.434	-0.109	
11.835	-0.362	-0.204	
11.840	-0.362	-0.283	
11.845	-0.373	-0.337	
11.850	-0.291	-0.366	
11.855	-0.263	-0.369	
11.860	-0.307	-0.354	
11.865	-0.239	-0.333	
11.870	-0.170	-0.305	
11.875	-0.211	-0.272	
11.880	-0.179	-0.241	
11.885	-0.080	-0.211	
11.890	-0.101	-0.178	
11.895	-0.116	-0.147	
11.900	-0.005	-0.120	
11.905	0.042	-0.089	
11.910	-0.037	-0.055	
11.915	0.052	-0.027	
11.920	0.160	0.002	
11.925	0.116	0.038	
11.930	0.160	0.075	
11.935	0.345	0.115	
11.940	0.324	0.167	
11.945	0.321	0.223	
11.950	0.453	0.275	
11.955	0.437	0.326	
11.960	0.311	0.367	
11.965	0.363	0.385	
11.970	0.365	0.387	
11.975	0.128	0.373	
11.980	-0.011	0.326	
11.985	-0.028	0.246	
11.990	-0.139	0.152	
11.995	-0.231	0.053	
12.000	-0.237	-0.045	
12.005	-0.278	-0.129	
12.010	-0.342	-0.200	
12.015	-0.298	-0.256	
12.020	-0.280	-0.292	
12.025	-0.327	-0.311	
12.030	-0.315	-0.320	
12.035	-0.240	-0.321	
12.040	-0.266	-0.311	
12.045	-0.277	-0.297	
12.050	-0.190	-0.282	
12.055	-0.161	-0.260	
12.060	-0.268	-0.238	
12.065	-0.425	-0.234	
12.070	-0.642	-0.270	
12.075	-0.870	-0.357	
12.080	-0.993	-0.490	
12.085	-0.993	-0.642	
12.090	-0.995	-0.782	
12.095	-0.993	-0.890	
12.100	-0.995	-0.962	
12.105	-0.995	-1.004	
12.110	-0.993	-1.022	
12.115	-0.995	-1.026	
12.120	-0.993	-1.022	
12.125	-0.995	-1.015	
12.130	-0.984	-1.007	
12.135	-0.834	-0.993	
12.140	-0.786	-0.961	
12.145	-0.752	-0.914	
12.150	-0.637	-0.857	
12.155	-0.590	-0.792	
12.160	-0.579	-0.724	
12.165	-0.465	-0.659	
12.170	-0.292	-0.589	
12.175	-0.168	-0.502	
12.180	-0.060	-0.398	
12.185	0.101	-0.282	
12.190	-0.043	-0.169	
12.195	-0.165	-0.089	
12.200	-0.119	-0.056	
12.205	-0.038	-0.050	
12.210	0.006	-0.046	
12.215	0.198	-0.028	
12.220	0.385	0.022	
12.225	0.343	0.103	
12.230	0.402	0.192	
12.235	0.602	0.281	
12.240	0.641	0.377	
12.245	0.643	0.471	
12.250	0.770	0.554	
12.255	0.829	0.632	
12.260	0.707	0.699	
12.265	0.796	0.742	
12.270	0.955	0.777	
12.275	0.926	0.818	
12.280	0.907	0.859	
12.285	1.043	0.895	
12.290	1.049	0.934	
12.295	0.974	0.971	
12.300	1.110	0.999	
12.305	1.182	1.031	
12.310	1.144	1.069	
12.315	1.214	1.107	
12.320	1.324	1.147	
12.325	1.251	1.191	
12.330	1.149	1.222	
12.335	1.216	1.232	
12.340	1.141	1.227	
12.345	0.999	1.206	
12.350	1.046	1.166	
12.355	0.977	1.119	
12.360	0.782	1.064	
12.365	0.741	0.992	
12.370	0.764	0.913	
12.375	0.629	0.839	
12.380	0.530	0.766	
12.385	0.602	0.694	
12.390	0.545	0.636	
12.395	0.441	0.588	
12.400	0.524	0.546	
12.405	0.547	0.519	
12.410	0.450	0.505	
12.415	0.513	0.495	
12.420	0.641	0.497	
12.425	0.556	0.514	
12.430	0.536	0.534	
12.435	0.683	0.551	
12.440	0.635	0.575	
12.445	0.512	0.595	
12.450	0.573	0.597	
12.455	0.641	0.594	
12.460	0.476	0.591	
12.465	0.446	0.574	
12.470	0.492	0.546	
12.475	0.357	0.514	
12.480	0.266	0.471	
12.485	0.354	0.420	
12.490	0.316	0.377	
12.495	0.212	0.342	
12.500	0.304	0.309	
12.505	0.354	0.291	
12.510	0.246	0.286	
12.515	0.288	0.283	
12.520	0.356	0.284	
12.525	0.226	0.288	
12.530	0.201	0.284	
12.535	0.296	0.272	
12.540	0.371	0.270	
12.545	0.464	0.288	
12.550	0.649	0.334	
12.555	0.658	0.406	
12.560	0.369	0.475	
12.565	0.194	0.494	
12.570	0.250	0.459	
12.575	0.168	0.397	
12.580	0.156	0.327	
12.585	0.307	0.269	
12.590	0.337	0.242	
12.595	0.310	0.243	
12.600	0.446	0.264	
12.605	0.492	0.303	
12.610	0.374	0.350	
12.615	0.431	0.385	
12.620	0.505	0.412	
12.625	0.389	0.434	
12.630	0.327	0.438	
12.635	0.400	0.426	
12.640	0.350	0.410	
12.645	0.259	0.389	
12.650	0.391	0.365	
12.655	0.380	0.351	
12.660	0.324	0.348	
12.665	0.388	0.347	
12.670	0.512	0.357	
12.675	0.449	0.382	
12.680	0.452	0.410	
12.685	0.596	0.437	
12.690	0.580	0.473	
12.695	0.534	0.509	
12.700	0.605	0.537	
12.705	0.608	0.560	
12.710	0.482	0.574	
12.715	0.481	0.570	
12.720	0.466	0.551	
12.725	0.259	0.517	
12.730	0.136	0.457	
12.735	0.178	0.375	
12.740	0.068	0.292	
12.745	-0.072	0.208	
12.750	-0.045	0.123	
12.755	-0.031	0.050	
12.760	-0.074	-0.004	
12.765	-0.054	-0.040	
12.770	-0.022	-0.060	
12.775	-0.052	-0.066	
12.780	-0.064	-0.065	
12.785	0.009	-0.061	
12.790	0.009	-0.049	
12.795	-0.037	-0.035	
12.800	0.038	-0.023	
12.805	0.082	-0.007	
12.810	-0.029	0.010	
12.815	-0.014	0.017	
12.820	0.044	0.017	
12.825	-0.037	0.015	
12.830	-0.045	0.008	
12.835	0.032	-0.001	
12.840	-0.009	-0.005	
12.845	-0.077	-0.009	
12.850	-0.051	-0.019	
12.855	-0.035	-0.030	
12.860	-0.112	-0.041	
12.865	-0.110	-0.056	
12.870	-0.037	-0.070	
12.875	-0.087	-0.076	
12.880	-0.136	-0.081	
12.885	-0.078	-0.089	
12.890	-0.098	-0.095	
12.895	-0.124	-0.098	
12.900	-0.121	-0.103	
12.905	-0.104	-0.108	
12.910	-0.116	-0.112	
12.915	-0.005	-0.108	
12.920	0.188	-0.084	
12.925	0.117	-0.034	
12.930	-0.034	0.015	
12.935	-0.068	0.035	
12.940	-0.150	0.024	
12.945	-0.205	-0.012	
12.950	-0.110	-0.059	
12.955	-0.060	-0.093	
12.960	-0.092	-0.108	
12.965	-0.058	-0.109	
12.970	0.009	-0.099	
12.975	-0.063	-0.080	
12.980	-0.061	-0.065	
12.985	0.052	-0.051	
12.990	0.038	-0.031	
12.995	-0.035	-0.012	
13.000	0.039	0.001	
13.005	0.088	0.012	
13.010	0.018	0.027	
13.015	1.396	0.099	
13.020	3.002	0.384	
13.025	3.078	0.937	
13.030	3.077	1.601	
13.035	3.074	2.199	
13.040	3.074	2.655	
13.045	3.078	2.957	
13.050	3.080	3.127	
13.055	3.081	3.202	
13.060	2.939	3.210	
13.065	2.718	3.161	
13.070	2.531	3.056	
13.075	2.171	2.900	
13.080	1.862	2.691	
13.085	1.706	2.442	
13.090	1.439	2.179	
13.095	1.098	1.909	
13.100	0.915	1.635	
13.105	0.680	1.364	
13.110	0.366	1.101	
13.115	0.249	0.845	
13.120	0.159	0.611	
13.125	-0.049	0.406	
13.130	-0.138	0.227	
13.135	-0.115	0.077	
13.140	-0.167	-0.036	
13.145	-0.252	-0.117	
13.150	-0.199	-0.175	
13.155	-0.214	-0.212	
13.160	-0.298	-0.233	
13.165	-0.284	-0.251	
13.170	-0.284	-0.267	
13.175	-0.355	-0.281	
13.180	-0.382	-0.300	
13.185	-0.358	-0.322	
13.190	-0.404	-0.342	
13.195	-0.466	-0.365	
13.200	-0.426	-0.390	
13.205	-0.463	-0.412	
13.210	-0.532	-0.434	
13.215	-0.527	-0.460	
13.220	-0.508	-0.484	
13.225	-0.598	-0.505	
13.230	-0.614	-0.530	
13.235	-0.587	-0.555	
13.240	-0.622	-0.576	
13.245	-0.647	-0.595	
13.250	-0.587	-0.610	
13.255	-0.588	-0.615	
13.260	-0.639	-0.616	
13.265	-0.613	-0.616	
13.270	-0.584	-0.616	
13.275	-0.636	-0.614	
13.280	-0.601	-0.613	
13.285	-0.428	-0.604	
13.290	-0.364	-0.572	
13.295	-0.365	-0.521	
13.300	-0.353	-0.466	
13.305	-0.457	-0.424	
13.310	-0.595	-0.411	
13.315	-0.579	-0.431	
13.320	-0.508	-0.466	
13.325	-0.526	-0.495	
13.330	-0.511	-0.513	
13.335	-0.430	-0.519	
13.340	-0.433	-0.509	
13.345	-0.449	-0.491	
13.350	-0.384	-0.470	
13.355	-0.355	-0.446	
13.360	-0.388	-0.420	
13.365	-0.336	-0.398	
13.370	-0.274	-0.375	
13.375	-0.312	-0.349	
13.380	-0.292	-0.327	
13.385	-0.211	-0.307	
13.390	-0.231	-0.284	
13.395	-0.262	-0.264	
13.400	-0.202	-0.249	
13.405	-0.139	-0.233	
13.410	-0.188	-0.213	
13.415	-0.126	-0.193	
13.420	-0.014	-0.169	
13.425	0.001	-0.133	
13.430	0.039	-0.089	
13.435	0.180	-0.039	
13.440	0.168	0.019	
13.445	0.076	0.071	
13.450	0.146	0.105	
13.455	0.108	0.125	
13.460	-0.040	0.126	
13.465	-0.060	0.102	
13.470	-0.025	0.063	
13.475	-0.147	0.020	
13.480	-0.200	-0.028	
13.485	-0.164	-0.080	
13.490	-0.242	-0.126	
13.495	-0.313	-0.170	
13.500	-0.280	-0.213	
13.505	-0.277	-0.248	
13.510	-0.346	-0.274	
13.515	-0.318	-0.295	
13.520	-0.266	-0.309	
13.525	-0.313	-0.312	
13.530	-0.306	-0.312	
13.535	-0.245	-0.308	
13.540	-0.265	-0.298	
13.545	-0.317	-0.288	
13.550	-0.242	-0.283	
13.555	-0.220	-0.275	
13.560	-0.306	-0.266	
13.565	-0.265	-0.263	
13.570	-0.211	-0.261	
13.575	-0.284	-0.257	
13.580	-0.304	-0.258	
13.585	-0.251	-0.263	
13.590	-0.292	-0.268	
13.595	-0.342	-0.275	
13.600	-0.298	-0.287	
13.605	-0.310	-0.297	
13.610	-0.362	-0.307	
13.615	-0.324	-0.317	
13.620	-0.292	-0.324	
13.625	-0.339	-0.325	
13.630	-0.339	-0.326	
13.635	-0.280	-0.326	
13.640	-0.353	-0.324	
13.645	-0.431	-0.328	
13.650	-0.326	-0.341	
13.655	-0.188	-0.343	
13.660	-0.101	-0.318	
13.665	0.006	-0.264	
13.670	-0.008	-0.194	
13.675	-0.251	-0.135	
13.680	-0.365	-0.122	
13.685	-0.320	-0.153	
13.690	-0.313	-0.201	
13.695	-0.339	-0.247	
13.700	-0.255	-0.281	
13.705	-0.205	-0.295	
13.710	-0.245	-0.289	
13.715	-0.214	-0.275	
13.720	-0.158	-0.256	
13.725	-0.202	-0.233	
13.730	-0.202	-0.214	
13.735	-0.127	-0.199	
13.740	-0.139	-0.182	
13.745	-0.155	-0.166	
13.750	-0.084	-0.152	
13.755	-0.068	-0.135	
13.760	-0.113	-0.117	
13.765	-0.043	-0.102	
13.770	0.068	-0.082	
13.775	0.026	-0.052	
13.780	0.032	-0.020	
13.785	0.181	0.012	
13.790	0.188	0.052	
13.795	0.180	0.096	
13.800	0.369	0.143	
13.805	0.421	0.201	
13.810	0.379	0.266	
13.815	0.354	0.319	
13.820	0.395	0.355	
13.825	0.223	0.370	
13.830	0.152	0.355	
13.835	0.174	0.315	
13.840	0.021	0.261	
13.845	-0.118	0.191	
13.850	-0.101	0.106	
13.855	-0.132	0.024	
13.860	-0.249	-0.049	
13.865	-0.237	-0.116	
13.870	-0.207	-0.170	
13.875	-0.263	-0.208	
13.880	-0.269	-0.234	
13.885	-0.226	-0.251	
13.890	-0.237	-0.258	
13.895	-0.265	-0.258	
13.900	-0.188	-0.254	
13.905	-0.170	-0.243	
13.910	-0.211	-0.227	
13.915	-0.158	-0.211	
13.920	-0.097	-0.194	
13.925	-0.145	-0.172	
13.930	-0.171	-0.155	
13.935	-0.086	-0.145	
13.940	-0.107	-0.134	
13.945	-0.159	-0.125	
13.950	-0.122	-0.123	
13.955	-0.150	-0.125	
13.960	-0.222	-0.132	
13.965	-0.193	-0.148	
13.970	-0.161	-0.164	
13.975	-0.216	-0.175	
13.980	-0.214	-0.185	
13.985	-0.144	-0.193	
13.990	-0.190	-0.193	
13.995	-0.231	-0.192	
14.000	-0.177	-0.194	
14.005	-0.170	-0.195	
14.010	-0.237	-0.194	
14.015	-0.239	-0.198	
14.020	-0.182	-0.205	
14.025	-0.109	-0.204	
14.030	0.154	-0.177	
14.035	0.505	-0.098	
14.040	0.452	0.033	
14.045	0.015	0.157	
14.050	-0.116	0.206	
14.055	-0.164	0.175	
14.060	-0.229	0.096	
14.065	-0.182	0.002	
14.070	-0.103	-0.076	
14.075	-0.129	-0.125	
14.080	-0.127	-0.148	
14.085	-0.023	-0.151	
14.090	-0.054	-0.135	
14.095	-0.106	-0.113	
14.100	0.009	-0.093	
14.105	0.075	-0.067	
14.110	0.003	-0.034	
14.115	0.049	-0.006	
14.120	0.110	0.019	
14.125	0.070	0.043	
14.130	0.029	0.060	
14.135	0.148	0.070	
14.140	0.097	0.081	
14.145	-0.011	0.087	
14.150	0.036	0.079	
14.155	0.035	0.065	
14.160	-0.048	0.049	
14.165	-0.003	0.029	
14.170	0.038	0.013	
14.175	0.010	0.007	
14.180	0.009	0.005	
14.185	0.052	0.007	
14.190	0.013	0.013	
14.195	-0.077	0.013	
14.200	-0.046	0.002	
14.205	-0.037	-0.013	
14.210	-0.145	-0.030	
14.215	-0.177	-0.057	
14.220	-0.161	-0.090	
14.225	-0.234	-0.123	
14.230	-0.268	-0.158	
14.235	-0.243	-0.193	
14.240	-0.252	-0.221	
14.245	-0.295	-0.242	
14.250	-0.236	-0.257	
14.255	-0.220	-0.263	
14.260	-0.231	-0.259	
14.265	-0.217	-0.251	
14.270	-0.139	-0.238	
14.275	-0.139	-0.217	
14.280	-0.130	-0.192	
14.285	-0.052	-0.165	
14.290	-0.086	-0.136	
14.295	-0.148	-0.114	
14.300	-0.124	-0.105	
14.305	-0.124	-0.106	
14.310	-0.179	-0.112	
14.315	-0.196	-0.125	
14.320	-0.179	-0.144	
14.325	-0.234	-0.162	
14.330	-0.295	-0.185	
14.335	-0.243	-0.211	
14.340	-0.228	-0.232	
14.345	-0.309	-0.246	
14.350	-0.262	-0.258	
14.355	-0.232	-0.266	
14.360	-0.301	-0.268	
14.365	-0.472	-0.280	
14.370	-0.711	-0.324	
14.375	-0.978	-0.419	
14.380	-0.993	-0.557	
14.385	-0.995	-0.705	
14.390	-0.995	-0.831	
14.395	-0.995	-0.923	
14.400	-0.993	-0.982	
14.405	-0.970	-1.012	
14.410	-0.960	-1.019	
14.415	-0.981	-1.014	
14.420	-0.967	-1.003	
14.425	-0.964	-0.992	
14.430	-0.911	-0.979	
14.435	-0.766	-0.956	
14.440	-0.656	-0.911	
14.445	-0.598	-0.844	
14.450	-0.472	-0.763	
14.455	-0.353	-0.669	
14.460	-0.312	-0.569	
14.465	-0.266	-0.472	
14.470	-0.101	-0.380	
14.475	-0.040	-0.289	
14.480	-0.028	-0.200	
14.485	0.181	-0.116	
14.490	0.319	-0.023	
14.495	0.302	0.079	
14.500	0.426	0.177	
14.505	0.571	0.272	
14.510	0.576	0.367	
14.515	0.687	0.458	
14.520	0.874	0.548	
14.525	0.907	0.645	
14.530	0.924	0.741	
14.535	1.104	0.829	
14.540	1.205	0.920	
14.545	1.153	1.010	
14.550	1.280	1.089	
14.555	1.353	1.161	
14.560	1.248	1.223	
14.565	1.225	1.262	
14.570	1.271	1.278	
14.575	1.159	1.277	
14.580	1.029	1.254	
14.585	1.017	1.207	
14.590	0.926	1.145	
14.595	0.758	1.070	
14.600	0.741	0.983	
14.605	0.701	0.894	
14.610	0.611	0.813	
14.615	0.571	0.738	
14.620	0.632	0.675	
14.625	0.577	0.630	
14.630	0.548	0.600	
14.635	0.676	0.583	
14.640	0.709	0.587	
14.645	0.629	0.607	
14.650	0.692	0.627	
14.655	0.776	0.650	
14.660	0.680	0.676	
14.665	0.654	0.693	
14.670	0.713	0.698	
14.675	0.669	0.698	
14.680	0.606	0.692	
14.685	0.689	0.680	
14.690	0.664	0.671	
14.695	0.541	0.660	
14.700	0.518	0.638	
14.705	0.557	0.607	
14.710	0.479	0.578	
14.715	0.467	0.548	
14.720	0.562	0.524	
14.725	0.507	0.512	
14.730	0.415	0.503	
14.735	0.461	0.489	
14.740	0.486	0.476	
14.745	0.426	0.468	
14.750	0.455	0.460	
14.755	0.450	0.453	
14.760	0.351	0.445	
14.765	0.414	0.432	
14.770	0.655	0.430	
14.775	0.730	0.463	
14.780	0.663	0.522	
14.785	0.676	0.580	
14.790	0.510	0.619	
14.795	0.279	0.615	
14.800	0.307	0.563	
14.805	0.420	0.494	
14.810	0.397	0.440	
14.815	0.431	0.408	
14.820	0.542	0.400	
14.825	0.539	0.417	
14.830	0.458	0.444	
14.835	0.524	0.467	
14.840	0.559	0.487	
14.845	0.495	0.506	
14.850	0.562	0.519	
14.855	0.634	0.534	
14.860	0.539	0.552	
14.865	0.524	0.562	
14.870	0.669	0.567	
14.875	0.625	0.580	
14.880	0.542	0.593	
14.885	0.661	0.599	
14.890	0.696	0.610	
14.895	0.637	0.626	
14.900	0.738	0.644	
14.905	0.846	0.670	
14.910	0.759	0.707	
14.915	0.799	0.740	
14.920	0.883	0.769	
14.925	0.803	0.797	
14.930	0.724	0.812	
14.935	0.770	0.809	
14.940	0.742	0.797	
14.945	0.600	0.775	
14.950	0.567	0.737	
14.955	0.521	0.687	
14.960	0.366	0.626	
14.965	0.249	0.550	
14.970	0.275	0.464	
14.975	0.157	0.380	
14.980	0.059	0.298	
14.985	0.104	0.221	
14.990	0.117	0.159	
14.995	-0.009	0.115	
15.000	0.064	0.080	
15.005	0.154	0.060	
15.010	0.128	0.062	
15.015	0.114	0.076	
15.020	0.214	0.095	
15.025	0.157	0.119	
15.030	0.093	0.138	
15.035	0.189	0.146	
15.040	0.177	0.153	
15.045	0.070	0.156	
15.050	0.104	0.149	
15.055	0.159	0.138	
15.060	0.055	0.129	
15.065	0.059	0.116	
15.070	0.162	0.103	
15.075	0.029	0.097	
15.080	-0.072	0.083	
15.085	-0.006	0.055	
15.090	0.006	0.028	
15.095	-0.081	0.005	
15.100	-0.063	-0.017	
15.105	-0.022	-0.035	
15.110	-0.048	-0.045	
15.115	-0.066	-0.050	
15.120	-0.025	-0.052	
15.125	-0.086	-0.053	
15.130	-0.133	-0.059	
15.135	-0.032	-0.069	
15.140	0.065	-0.067	
15.145	0.090	-0.045	
15.150	0.220	-0.005	
15.155	0.223	0.051	
15.160	-0.026	0.098	
15.165	-0.119	0.106	
15.170	-0.089	0.074	
15.175	-0.106	0.026	
15.180	-0.121	-0.022	
15.185	-0.014	-0.058	
15.190	0.026	-0.071	
15.195	-0.040	-0.064	
15.200	0.015	-0.051	
15.205	0.058	-0.033	
15.210	-0.014	-0.012	
15.215	0.012	0.002	
15.220	0.088	0.013	
15.225	0.026	0.026	
15.230	0.009	0.034	
15.235	0.114	0.040	
15.240	0.102	0.050	
15.245	-0.009	0.061	
15.250	0.039	0.060	
15.255	0.110	0.057	
15.260	0.046	0.059	
15.265	0.101	0.063	
15.270	0.226	0.075	
15.275	0.204	0.102	
15.280	0.188	0.135	
15.285	0.301	0.166	
15.290	0.345	0.203	
15.295	0.287	0.243	
15.300	0.299	0.274	
15.305	0.310	0.294	
15.310	0.180	0.300	
15.315	0.104	0.283	
15.320	0.145	0.247	
15.325	0.001	0.202	
15.330	-0.078	0.146	
15.335	-0.080	0.080	
15.340	-0.132	0.016	
15.345	-0.202	-0.043	
15.350	-0.193	-0.098	
15.355	-0.158	-0.142	
15.360	-0.234	-0.171	
15.365	-0.242	-0.194	
15.370	-0.188	-0.211	
15.375	-0.191	-0.218	
15.380	-0.234	-0.218	
15.385	-0.168	-0.216	
15.390	-0.136	-0.208	
15.395	-0.190	-0.195	
15.400	-0.161	-0.183	
15.405	-0.101	-0.172	
15.410	-0.162	-0.159	
15.415	-0.158	-0.150	
15.420	-0.104	-0.145	
15.425	-0.148	-0.139	
15.430	-0.164	-0.137	
15.435	-0.104	-0.137	
15.440	-0.122	-0.135	
15.445	-0.211	-0.135	
15.450	-0.199	-0.144	
15.455	-0.150	-0.157	
15.460	-0.234	-0.168	
15.465	-0.240	-0.182	
15.470	-0.203	-0.198	
15.475	-0.223	-0.209	
15.480	-0.142	-0.213	
15.485	1.489	-0.130	
15.490	2.684	0.189	
15.495	3.081	0.770	
15.500	3.083	1.464	
15.505	3.083	2.104	
15.510	3.046	2.597	
15.515	3.037	2.924	
15.520	3.049	3.107	
15.525	2.756	3.172	
15.530	2.322	3.121	
15.535	1.948	2.951	
15.540	1.579	2.682	
15.545	1.315	2.352	
15.550	1.265	2.008	
15.555	1.162	1.699	
15.560	0.883	1.440	
15.565	0.750	1.216	
15.570	0.673	1.023	
15.575	0.464	0.857	
15.580	0.276	0.704	
15.585	0.243	0.557	
15.590	0.133	0.423	
15.595	-0.020	0.302	
15.600	-0.013	0.190	
15.605	-0.031	0.096	
15.610	-0.132	0.023	
15.615	-0.144	-0.037	
15.620	-0.133	-0.086	
15.625	-0.200	-0.122	
15.630	-0.228	-0.152	
15.635	-0.164	-0.177	
15.640	-0.208	-0.192	
15.645	-0.258	-0.202	
15.650	-0.203	-0.213	
15.655	-0.181	-0.218	
15.660	-0.243	-0.217	
15.665	-0.245	-0.219	
15.670	-0.219	-0.223	
15.675	-0.295	-0.229	
15.680	-0.330	-0.243	
15.685	-0.300	-0.262	
15.690	-0.350	-0.282	
15.695	-0.442	-0.307	
15.700	-0.439	-0.339	
15.705	-0.449	-0.374	
15.710	-0.532	-0.409	
15.715	-0.543	-0.445	
15.720	-0.491	-0.478	
15.725	-0.546	-0.502	
15.730	-0.562	-0.519	
15.735	-0.489	-0.532	
15.740	-0.480	-0.533	
15.745	-0.506	-0.526	
15.750	-0.460	-0.515	
15.755	-0.417	-0.500	
15.760	-0.474	-0.482	
15.765	-0.446	-0.467	
15.770	-0.391	-0.455	
15.775	-0.407	-0.441	
15.780	-0.408	-0.427	
15.785	-0.339	-0.413	
15.790	-0.333	-0.396	
15.795	-0.361	-0.377	
15.800	-0.297	-0.361	
15.805	-0.272	-0.343	
15.810	-0.353	-0.326	
15.815	-0.349	-0.318	
15.820	-0.323	-0.319	
15.825	-0.361	-0.324	
15.830	-0.382	-0.332	
15.835	-0.333	-0.342	
15.840	-0.375	-0.349	
15.845	-0.423	-0.358	
15.850	-0.367	-0.370	
15.855	-0.349	-0.376	
15.860	-0.417	-0.379	
15.865	-0.420	-0.384	
15.870	-0.381	-0.391	
15.875	-0.442	-0.398	
15.880	-0.416	-0.405	
15.885	-0.237	-0.403	
15.890	-0.142	-0.376	
15.895	-0.158	-0.324	
15.900	-0.181	-0.269	
15.905	-0.292	-0.229	
15.910	-0.437	-0.223	
15.915	-0.408	-0.251	
15.920	-0.280	-0.290	
15.925	-0.258	-0.312	
15.930	-0.232	-0.312	
15.935	-0.167	-0.296	
15.940	-0.162	-0.267	
15.945	-0.181	-0.235	
15.950	-0.107	-0.204	
15.955	-0.112	-0.175	
15.960	-0.164	-0.151	
15.965	-0.141	-0.138	
15.970	-0.106	-0.132	
15.975	-0.156	-0.128	
15.980	-0.164	-0.129	
15.985	-0.075	-0.132	
15.990	-0.103	-0.128	
15.995	-0.141	-0.122	
16.000	-0.086	-0.118	
16.005	-0.051	-0.111	
16.010	-0.116	-0.101	
16.015	-0.081	-0.095	
16.020	0.078	-0.083	
16.025	0.044	-0.057	
16.030	0.052	-0.023	
16.035	0.165	0.012	
16.040	0.136	0.051	
16.045	0.050	0.083	
16.050	0.096	0.099	
16.055	0.067	0.103	
16.060	-0.074	0.093	
16.065	-0.107	0.062	
16.070	-0.110	0.017	
16.075	-0.202	-0.032	
16.080	-0.271	-0.087	
16.085	-0.248	-0.144	
16.090	-0.292	-0.194	
16.095	-0.359	-0.238	
16.100	-0.320	-0.277	
16.105	-0.323	-0.306	
16.110	-0.375	-0.325	
16.115	-0.349	-0.341	
16.120	-0.300	-0.348	
16.125	-0.336	-0.347	
16.130	-0.335	-0.343	
16.135	-0.245	-0.335	
16.140	-0.240	-0.319	
16.145	-0.278	-0.298	
16.150	-0.200	-0.279	
16.155	-0.174	-0.257	
16.160	-0.239	-0.236	
16.165	-0.208	-0.221	
16.170	-0.177	-0.212	
16.175	-0.237	-0.205	
16.180	-0.245	-0.205	
16.185	-0.220	-0.211	
16.190	-0.260	-0.219	
16.195	-0.317	-0.231	
16.200	-0.269	-0.248	
16.205	-0.226	-0.260	
16.210	-0.301	-0.266	
16.215	-0.281	-0.270	
16.220	-0.237	-0.274	
16.225	-0.252	-0.271	
16.230	-0.265	-0.266	
16.235	-0.217	-0.261	
16.240	-0.265	-0.255	
16.245	-0.324	-0.254	
16.250	-0.263	-0.261	
16.255	-0.148	-0.262	
16.260	-0.016	-0.241	
16.265	0.166	-0.187	
16.270	0.275	-0.098	
16.275	-0.035	-0.005	
16.280	-0.216	0.041	
16.285	-0.200	0.025	
16.290	-0.185	-0.024	
16.295	-0.200	-0.079	
16.300	-0.132	-0.125	
16.305	-0.077	-0.149	
16.310	-0.119	-0.152	
16.315	-0.064	-0.143	
16.320	0.001	-0.124	
16.325	-0.075	-0.098	
16.330	-0.061	-0.077	
16.335	0.056	-0.059	
16.340	0.059	-0.034	
16.345	0.026	-0.006	
16.350	0.284	0.027	
16.355	0.469	0.087	
16.360	0.489	0.179	
16.365	0.641	0.288	
16.370	0.782	0.406	
16.375	0.742	0.525	
16.380	0.722	0.625	
16.385	0.887	0.700	
16.390	0.909	0.765	
16.395	0.835	0.819	
16.400	0.936	0.857	
16.405	0.977	0.887	
16.410	0.851	0.911	
16.415	0.800	0.915	
16.420	0.796	0.898	
16.425	0.641	0.864	
16.430	0.510	0.807	
16.435	0.502	0.730	
16.440	0.353	0.644	
16.445	0.093	0.542	
16.450	0.039	0.419	
16.455	-0.048	0.287	
16.460	-0.142	0.160	
16.465	-0.139	0.046	
16.470	-0.109	-0.043	
16.475	-0.171	-0.103	
16.480	-0.213	-0.144	
16.485	-0.177	-0.174	
16.490	-0.187	-0.191	
16.495	-0.232	-0.200	
16.500	-0.165	-0.206	
16.505	-0.127	-0.202	
16.510	-0.177	-0.191	
16.515	-0.158	-0.179	
16.520	-0.127	-0.169	
16.525	-0.153	-0.159	
16.530	-0.171	-0.153	
16.535	-0.107	-0.149	
16.540	-0.116	-0.143	
16.545	-0.150	-0.136	
16.550	-0.083	-0.131	
16.555	-0.084	-0.122	
16.560	-0.190	-0.116	
16.565	-0.185	-0.121	
16.570	-0.159	-0.135	
16.575	-0.213	-0.150	
16.580	-0.229	-0.167	
16.585	-0.185	-0.184	
16.590	-0.210	-0.196	
16.595	-0.246	-0.205	
16.600	-0.167	-0.211	
16.605	-0.142	-0.209	
16.610	-0.205	-0.200	
16.615	-0.222	-0.194	
16.620	-0.207	-0.195	
16.625	-0.217	-0.198	
16.630	-0.116	-0.199	
16.635	0.198	-0.174	
16.640	0.295	-0.103	
16.645	0.139	-0.006	
16.650	-0.026	0.068	
16.655	-0.158	0.088	
16.660	-0.232	0.055	
16.665	-0.179	-0.008	
16.670	-0.066	-0.068	
16.675	-0.098	-0.104	
16.680	-0.090	-0.118	
16.685	0.027	-0.115	
16.690	0.023	-0.093	
16.695	-0.017	-0.063	
16.700	0.065	-0.034	
16.705	0.110	-0.003	
16.710	0.041	0.028	
16.715	0.119	0.052	
16.720	0.220	0.078	
16.725	0.168	0.109	
16.730	0.137	0.136	
16.735	0.261	0.157	
16.740	0.267	0.181	
16.745	0.180	0.204	
16.750	0.343	0.223	
16.755	0.415	0.250	
16.760	0.379	0.289	
16.765	0.476	0.331	
16.770	0.594	0.379	
16.775	0.577	0.436	
16.780	0.556	0.490	
16.785	0.695	0.536	
16.790	0.663	0.580	
16.795	0.562	0.614	
16.800	0.592	0.627	
16.805	0.519	0.622	
16.810	0.331	0.596	
16.815	0.255	0.539	
16.820	0.195	0.459	
16.825	0.017	0.366	
16.830	-0.057	0.260	
16.835	0.009	0.156	
16.840	-0.023	0.074	
16.845	-0.087	0.013	
16.850	-0.042	-0.030	
16.855	-0.020	-0.054	
16.860	-0.075	-0.063	
16.865	-0.061	-0.067	
16.870	0.020	-0.065	
16.875	-0.026	-0.054	
16.880	-0.023	-0.041	
16.885	0.075	-0.027	
16.890	0.036	-0.008	
16.895	-0.043	0.008	
16.900	0.017	0.013	
16.905	0.041	0.014	
16.910	-0.049	0.014	
16.915	-0.023	0.008	
16.920	0.047	0.001	
16.925	-0.016	0.000	
16.930	-0.077	-0.003	
16.935	-0.048	-0.014	
16.940	-0.080	-0.029	
16.945	-0.158	-0.047	
16.950	-0.110	-0.071	
16.955	-0.136	-0.093	
16.960	-0.219	-0.115	
16.965	-0.200	-0.140	
16.970	-0.174	-0.163	
16.975	-0.217	-0.180	
16.980	-0.231	-0.194	
16.985	-0.190	-0.205	
16.990	-0.252	-0.212	
16.995	-0.344	-0.225	
17.000	-0.312	-0.247	
17.005	-0.213	-0.267	
17.010	-0.097	-0.266	
17.015	0.105	-0.230	
17.020	0.188	-0.156	
17.025	-0.162	-0.076	
17.030	-0.414	-0.048	
17.035	-0.466	-0.093	
17.040	-0.482	-0.182	
17.045	-0.494	-0.281	
17.050	-0.422	-0.365	
17.055	-0.359	-0.417	
17.060	-0.376	-0.436	
17.065	-0.333	-0.431	
17.070	-0.272	-0.410	
17.075	-0.257	-0.376	
17.080	-0.262	-0.339	
17.085	-0.177	-0.302	
17.090	-0.145	-0.263	
17.095	-0.156	-0.224	
17.100	-0.066	-0.188	
17.105	0.010	-0.148	
17.110	-0.008	-0.104	
17.115	0.064	-0.060	
17.120	0.214	-0.012	
17.125	0.204	0.046	
17.130	0.233	0.105	
17.135	0.443	0.167	
17.140	0.472	0.239	
17.145	0.457	0.316	
17.150	0.537	0.384	
17.155	0.585	0.444	
17.160	0.492	0.493	
17.165	0.490	0.521	
17.170	0.492	0.530	
17.175	0.372	0.521	
17.180	0.197	0.487	
17.185	0.185	0.424	
17.190	0.062	0.344	
17.195	-0.107	0.250	
17.200	-0.129	0.145	
17.205	-0.170	0.042	
17.210	-0.263	-0.050	
17.215	-0.262	-0.130	
17.220	-0.249	-0.194	
17.225	-0.300	-0.238	
17.230	-0.336	-0.270	
17.235	-0.292	-0.295	
17.240	-0.277	-0.308	
17.245	-0.300	-0.310	
17.250	-0.232	-0.305	
17.255	-0.200	-0.291	
17.260	-0.217	-0.270	
17.265	-0.207	-0.248	
17.270	-0.145	-0.228	
17.275	-0.170	-0.206	
17.280	-0.344	-0.196	
17.285	-0.537	-0.219	
17.290	-0.711	-0.288	
17.295	-0.896	-0.401	
17.300	-0.958	-0.542	
17.305	-0.984	-0.686	
17.310	-0.993	-0.811	
17.315	-0.993	-0.906	
17.320	-0.972	-0.968	
17.325	-0.954	-0.999	
17.330	-0.964	-1.007	
17.335	-0.880	-0.999	
17.340	-0.796	-0.973	
17.345	-0.760	-0.930	
17.350	-0.668	-0.875	
17.355	-0.595	-0.810	
17.360	-0.561	-0.741	
17.365	-0.511	-0.672	
17.370	-0.404	-0.606	
17.375	-0.390	-0.541	
17.380	-0.368	-0.480	
17.385	-0.242	-0.425	
17.390	-0.072	-0.362	
17.395	0.026	-0.281	
17.400	0.181	-0.182	
17.405	0.203	-0.072	
17.410	-0.046	0.020	
17.415	-0.113	0.062	
17.420	0.003	0.058	
17.425	0.093	0.045	
17.430	0.183	0.047	
17.435	0.314	0.076	
17.440	0.374	0.130	
17.445	0.380	0.200	
17.450	0.455	0.270	
17.455	0.565	0.341	
17.460	0.541	0.410	
17.465	0.568	0.471	
17.470	0.698	0.524	
17.475	0.670	0.574	
17.480	0.635	0.617	
17.485	0.747	0.648	
17.490	0.802	0.679	
17.495	0.767	0.712	
17.500	0.858	0.745	
17.505	0.971	0.783	
17.510	0.906	0.828	
17.515	0.909	0.868	
17.520	1.051	0.901	
17.525	1.086	0.940	
17.530	1.063	0.984	
17.535	1.104	1.023	
17.540	1.127	1.056	
17.545	1.063	1.082	
17.550	1.094	1.095	
17.555	1.118	1.101	
17.560	0.927	1.097	
17.565	0.858	1.070	
17.570	0.880	1.021	
17.575	0.728	0.963	
17.580	0.528	0.889	
17.585	0.548	0.796	
17.590	0.463	0.700	
17.595	0.336	0.607	
17.600	0.372	0.519	
17.605	0.348	0.445	
17.610	0.201	0.386	
17.615	0.152	0.327	
17.620	0.267	0.273	
17.625	0.255	0.240	
17.630	0.166	0.223	
17.635	0.261	0.212	
17.640	0.339	0.215	
17.645	0.284	0.234	
17.650	0.343	0.257	
17.655	0.377	0.283	
17.660	0.331	0.310	
17.665	0.313	0.328	
17.670	0.383	0.338	
17.675	0.337	0.346	
17.680	0.278	0.348	
17.685	0.336	0.341	
17.690	0.331	0.334	
17.695	0.195	0.324	
17.700	0.188	0.301	
17.705	0.241	0.272	
17.710	0.156	0.245	
17.715	0.075	0.216	
17.720	0.134	0.182	
17.725	0.061	0.150	
17.730	0.010	0.119	
17.735	0.117	0.091	
17.740	0.125	0.078	
17.745	0.038	0.075	
17.750	0.047	0.072	
17.755	0.097	0.067	
17.760	0.068	0.067	
17.765	0.131	0.071	
17.770	0.345	0.092	
17.775	0.453	0.143	
17.780	0.313	0.215	
17.785	0.217	0.270	
17.790	0.079	0.285	
17.795	-0.040	0.256	
17.800	-0.008	0.194	
17.805	0.097	0.129	
17.810	0.070	0.086	
17.815	0.099	0.064	
17.820	0.250	0.065	
17.825	0.249	0.093	
17.830	0.181	0.132	
17.835	0.263	0.168	
17.840	0.261	0.199	
17.845	0.178	0.222	
17.850	0.223	0.231	
17.855	0.319	0.236	
17.860	0.221	0.245	
17.865	0.208	0.249	
17.870	0.301	0.248	
17.875	0.269	0.252	
17.880	0.224	0.256	
17.885	0.342	0.260	
17.890	0.397	0.274	
17.895	0.307	0.297	
17.900	0.369	0.317	
17.905	0.499	0.340	
17.910	0.490	0.374	
17.915	0.499	0.413	
17.920	0.573	0.451	
17.925	0.536	0.487	
17.930	0.443	0.511	
17.935	0.495	0.517	
17.940	0.452	0.512	
17.945	0.281	0.492	
17.950	0.220	0.448	
17.955	0.148	0.384	
17.960	0.017	0.306	
17.965	-0.025	0.219	
17.970	-0.014	0.133	
17.975	-0.071	0.061	
17.980	-0.135	0.001	
17.985	-0.084	-0.049	
17.990	-0.092	-0.082	
17.995	-0.159	-0.103	
18.000	-0.110	-0.119	
18.005	-0.054	-0.124	
18.010	-0.080	-0.118	
18.015	-0.078	-0.106	
18.020	-0.011	-0.092	
18.025	-0.052	-0.076	
18.030	-0.072	-0.062	
18.035	-0.016	-0.054	
18.040	-0.006	-0.045	
18.045	-0.055	-0.036	
18.050	-0.017	-0.031	
18.055	0.012	-0.027	
18.060	-0.042	-0.021	
18.065	-0.035	-0.019	
18.070	-0.009	-0.021	
18.075	-0.035	-0.022	
18.080	-0.110	-0.027	
18.085	-0.069	-0.039	
18.090	-0.064	-0.053	
18.095	-0.127	-0.065	
18.100	-0.124	-0.079	
18.105	-0.083	-0.093	
18.110	-0.103	-0.100	
18.115	-0.112	-0.104	
18.120	-0.074	-0.105	
18.125	-0.086	-0.102	
18.130	-0.127	-0.099	
18.135	0.159	-0.088	
18.140	1.792	0.026	
18.145	2.855	0.381	
18.150	3.081	0.974	
18.155	3.080	1.643	
18.160	3.078	2.238	
18.165	3.084	2.686	
18.170	2.907	2.971	
18.175	2.510	3.089	
18.180	2.175	3.044	
18.185	2.056	2.871	
18.190	1.867	2.632	
18.195	1.596	2.370	
18.200	1.459	2.104	
18.205	1.323	1.854	
18.210	1.084	1.629	
18.215	1.031	1.426	
18.220	1.104	1.259	
18.225	0.959	1.138	
18.230	0.822	1.046	
18.235	0.797	0.965	
18.240	0.646	0.888	
18.245	0.473	0.804	
18.250	0.461	0.710	
18.255	0.444	0.617	
18.260	0.319	0.535	
18.265	0.250	0.457	
18.270	0.244	0.383	
18.275	0.131	0.317	
18.280	0.067	0.252	
18.285	0.110	0.191	
18.290	0.146	0.146	
18.295	0.085	0.119	
18.300	0.101	0.103	
18.305	0.107	0.094	
18.310	-0.014	0.087	
18.315	-0.058	0.068	
18.320	-0.064	0.037	
18.325	-0.150	-0.001	
18.330	-0.225	-0.046	
18.335	-0.236	-0.099	
18.340	-0.310	-0.153	
18.345	-0.381	-0.208	
18.350	-0.393	-0.265	
18.355	-0.401	-0.316	
18.360	-0.488	-0.360	
18.365	-0.495	-0.402	
18.370	-0.453	-0.437	
18.375	-0.454	-0.460	
18.380	-0.471	-0.470	
18.385	-0.456	-0.474	
18.390	-0.448	-0.473	
18.395	-0.456	-0.468	
18.400	-0.428	-0.462	
18.405	-0.394	-0.453	
18.410	-0.414	-0.440	
18.415	-0.405	-0.427	
18.420	-0.359	-0.415	
18.425	-0.375	-0.402	
18.430	-0.396	-0.391	
18.435	-0.352	-0.383	
18.440	-0.361	-0.376	
18.445	-0.379	-0.370	
18.450	-0.346	-0.366	
18.455	-0.330	-0.362	
18.460	-0.376	-0.356	
18.465	-0.385	-0.356	
18.470	-0.355	-0.359	
18.475	-0.384	-0.363	
18.480	-0.420	-0.369	
18.485	-0.367	-0.377	
18.490	-0.382	-0.382	
18.495	-0.416	-0.386	
18.500	-0.371	-0.390	
18.505	-0.303	-0.387	
18.510	-0.263	-0.371	
18.515	-0.203	-0.343	
18.520	-0.107	-0.301	
18.525	-0.089	-0.249	
18.530	0.056	-0.188	
18.535	0.347	-0.106	
18.540	0.411	0.007	
18.545	0.209	0.125	
18.550	-0.011	0.198	
18.555	-0.124	0.200	
18.560	-0.190	0.143	
18.565	-0.165	0.058	
18.570	-0.097	-0.023	
18.575	-0.087	-0.079	
18.580	-0.057	-0.107	
18.585	0.020	-0.110	
18.590	0.013	-0.091	
18.595	-0.025	-0.064	
18.600	0.035	-0.039	
18.605	0.072	-0.014	
18.610	0.006	0.009	
18.615	0.023	0.024	
18.620	0.139	0.035	
18.625	0.117	0.054	
18.630	0.053	0.073	
18.635	0.119	0.084	
18.640	0.136	0.094	
18.645	0.107	0.105	
18.650	0.208	0.116	
18.655	0.287	0.138	
18.660	0.244	0.170	
18.665	0.295	0.204	
18.670	0.417	0.241	
18.675	0.463	0.288	
18.680	0.438	0.340	
18.685	0.499	0.388	
18.690	0.475	0.428	
18.695	0.383	0.453	
18.700	0.345	0.455	
18.705	0.281	0.435	
18.710	0.093	0.390	
18.715	-0.011	0.318	
18.720	-0.045	0.224	
18.725	-0.145	0.126	
18.730	-0.222	0.028	
18.735	-0.226	-0.062	
18.740	-0.246	-0.138	
18.745	-0.303	-0.197	
18.750	-0.291	-0.242	
18.755	-0.266	-0.273	
18.760	-0.310	-0.290	
18.765	-0.312	-0.300	
18.770	-0.295	-0.306	
18.775	-0.303	-0.309	
18.780	-0.295	-0.308	
18.785	-0.257	-0.304	
18.790	-0.255	-0.295	
18.795	-0.257	-0.283	
18.800	-0.214	-0.271	
18.805	-0.207	-0.256	
18.810	-0.254	-0.242	
18.815	-0.243	-0.235	
18.820	-0.200	-0.231	
18.825	-0.226	-0.227	
18.830	-0.260	-0.225	
18.835	-0.232	-0.228	
18.840	-0.249	-0.232	
18.845	-0.274	-0.238	
18.850	-0.263	-0.245	
18.855	-0.281	-0.254	
18.860	-0.307	-0.263	
18.865	-0.298	-0.275	
18.870	-0.258	-0.283	
18.875	-0.271	-0.285	
18.880	-0.274	-0.283	
18.885	-0.232	-0.278	
18.890	-0.257	-0.270	
18.895	-0.301	-0.265	
18.900	-0.286	-0.266	
18.905	-0.214	-0.268	
18.910	-0.130	-0.258	
18.915	0.033	-0.226	
18.920	0.221	-0.161	
18.925	0.036	-0.076	
18.930	-0.202	-0.016	
18.935	-0.278	-0.013	
18.940	-0.286	-0.058	
18.945	-0.278	-0.121	
18.950	-0.225	-0.179	
18.955	-0.177	-0.216	
18.960	-0.190	-0.230	
18.965	-0.161	-0.228	
18.970	-0.092	-0.212	
18.975	-0.107	-0.186	
18.980	-0.089	-0.157	
18.985	-0.038	-0.129	
18.990	-0.026	-0.100	
18.995	-0.058	-0.074	
19.000	-0.031	-0.056	
19.005	0.010	-0.042	
19.010	-0.029	-0.029	
19.015	0.009	-0.019	
19.020	0.099	-0.007	
19.025	0.099	0.015	
19.030	0.120	0.042	
19.035	0.240	0.074	
19.040	0.285	0.117	
19.045	0.275	0.167	
19.050	0.418	0.218	
19.055	0.470	0.276	
19.060	0.418	0.336	
19.065	0.466	0.385	
19.070	0.522	0.424	
19.075	0.457	0.456	
19.080	0.397	0.472	
19.085	0.383	0.468	
19.090	0.263	0.446	
19.095	0.093	0.399	
19.100	0.058	0.325	
19.105	-0.002	0.239	
19.110	-0.124	0.149	
19.115	-0.153	0.059	
19.120	-0.136	-0.023	
19.125	-0.167	-0.086	
19.130	-0.225	-0.133	
19.135	-0.194	-0.169	
19.140	-0.197	-0.193	
19.145	-0.231	-0.207	
19.150	-0.173	-0.214	
19.155	-0.150	-0.212	
19.160	-0.179	-0.201	
19.165	-0.162	-0.190	
19.170	-0.103	-0.177	
19.175	-0.116	-0.161	
19.180	-0.124	-0.144	
19.185	-0.083	-0.130	
19.190	-0.072	-0.116	
19.195	-0.110	-0.103	
19.200	-0.100	-0.096	
19.205	-0.055	-0.091	
19.210	-0.077	-0.086	
19.215	-0.089	-0.081	
19.220	-0.084	-0.079	
19.225	-0.118	-0.081	
19.230	-0.141	-0.088	
19.235	-0.129	-0.100	
19.240	-0.150	-0.112	
19.245	-0.199	-0.127	
19.250	-0.171	-0.144	
19.255	-0.150	-0.157	
19.260	-0.210	-0.166	
19.265	-0.213	-0.176	
19.270	-0.196	-0.187	
19.275	-0.257	-0.197	
19.280	-0.327	-0.214	
19.285	-0.265	-0.237	
19.290	-0.161	-0.251	
19.295	-0.042	-0.241	
19.300	0.065	-0.200	
19.305	0.009	-0.138	
19.310	-0.239	-0.089	
19.315	-0.396	-0.089	
19.320	-0.439	-0.140	
19.325	-0.471	-0.220	
19.330	-0.448	-0.303	
19.335	-0.362	-0.367	
19.340	-0.321	-0.400	
19.345	-0.323	-0.404	
19.350	-0.274	-0.388	
19.355	-0.228	-0.360	
19.360	-0.240	-0.324	
19.365	-0.217	-0.289	
19.370	-0.148	-0.257	
19.375	-0.132	-0.223	
19.380	-0.113	-0.190	
19.385	-0.043	-0.157	
19.390	0.004	-0.121	
19.395	-0.025	-0.083	
19.400	0.067	-0.049	
19.405	0.160	-0.010	
19.410	0.131	0.035	
19.415	0.194	0.079	
19.420	0.339	0.125	
19.425	0.392	0.183	
19.430	0.412	0.249	
19.435	0.533	0.316	
19.440	0.554	0.384	
19.445	0.527	0.447	
19.450	0.563	0.496	
19.455	0.533	0.529	
19.460	0.424	0.542	
19.465	0.331	0.528	
19.470	0.290	0.487	
19.475	0.108	0.424	
19.480	-0.022	0.337	
19.485	-0.032	0.234	
19.490	-0.095	0.131	
19.495	-0.187	0.038	
19.500	-0.187	-0.045	
19.505	-0.184	-0.112	
19.510	-0.242	-0.161	
19.515	-0.257	-0.198	
19.520	-0.226	-0.225	
19.525	-0.248	-0.241	
19.530	-0.245	-0.249	
19.535	-0.216	-0.251	
19.540	-0.211	-0.246	
19.545	-0.216	-0.238	
19.550	-0.165	-0.227	
19.555	-0.147	-0.212	
19.560	-0.167	-0.194	
19.565	-0.133	-0.178	
19.570	-0.066	-0.160	
19.575	-0.092	-0.138	
19.580	-0.119	-0.119	
19.585	-0.068	-0.106	
19.590	-0.072	-0.095	
19.595	-0.122	-0.088	
19.600	-0.115	-0.088	
19.605	-0.119	-0.093	
19.610	-0.177	-0.103	
19.615	-0.177	-0.119	
19.620	-0.124	-0.135	
19.625	-0.148	-0.145	
19.630	-0.228	-0.153	
19.635	-0.168	-0.164	
19.640	-0.155	-0.172	
19.645	-0.203	-0.176	
19.650	-0.133	-0.178	
19.655	-0.144	-0.174	
19.660	-0.185	-0.168	
19.665	-0.148	-0.165	
19.670	-0.013	-0.155	
19.675	0.160	-0.123	
19.680	0.281	-0.057	
19.685	0.360	0.036	
19.690	0.124	0.127	
19.695	-0.116	0.171	
19.700	-0.133	0.150	
19.705	-0.086	0.090	
19.710	-0.080	0.026	
19.715	-0.003	-0.021	
19.720	0.072	-0.041	
19.725	0.058	-0.035	
19.730	0.079	-0.013	
19.735	0.146	0.017	
19.740	0.171	0.054	
19.745	0.094	0.089	
19.750	0.178	0.114	
19.755	0.246	0.138	
19.760	0.178	0.163	
19.765	0.218	0.183	
19.770	0.263	0.200	
19.775	0.157	0.213	
19.780	0.140	0.213	
19.785	0.272	0.206	
19.790	0.285	0.210	
19.795	0.215	0.222	
19.800	0.324	0.234	
19.805	0.417	0.256	
19.810	0.380	0.291	
19.815	0.385	0.326	
19.820	0.484	0.359	
19.825	0.447	0.392	
19.830	0.405	0.418	
19.835	0.429	0.431	
19.840	0.345	0.433	
19.845	0.148	0.412	
19.850	-0.110	0.350	
19.855	-0.342	0.236	
19.860	-0.602	0.072	
19.865	-0.786	-0.130	
19.870	-0.870	-0.345	
19.875	-0.943	-0.548	
19.880	-0.993	-0.719	
19.885	-0.955	-0.850	
19.890	-0.915	-0.933	
19.895	-0.937	-0.974	
19.900	-0.853	-0.982	
19.905	-0.779	-0.963	
19.910	-0.779	-0.923	
19.915	-0.734	-0.875	
19.920	-0.621	-0.822	
19.925	-0.587	-0.762	
19.930	-0.562	-0.701	
19.935	-0.483	-0.643	
19.940	-0.407	-0.585	
19.945	-0.410	-0.527	
19.950	-0.362	-0.475	
19.955	-0.284	-0.427	
19.960	-0.257	-0.379	
19.965	-0.226	-0.333	
19.970	-0.133	-0.288	
19.975	-0.145	-0.242	
19.980	-0.148	-0.201	
19.985	-0.115	-0.170	
19.990	-0.101	-0.145	
19.995	-0.142	-0.127	
20.000	-0.101	-0.118	
20.005	0.015	-0.106	
20.010	-0.043	-0.086	
20.015	-0.077	-0.067	
20.020	0.036	-0.053	
20.025	0.078	-0.033	
20.030	-0.006	-0.008	
20.035	0.093	0.013	
20.040	0.143	0.035	
20.045	0.133	0.064	
20.050	0.339	0.100	
20.055	0.574	0.164	
20.060	0.550	0.259	
20.065	0.504	0.358	
20.070	0.414	0.432	
20.075	0.243	0.461	
20.080	0.114	0.437	
20.085	0.211	0.376	
20.090	0.311	0.316	
20.095	0.308	0.280	
20.100	0.371	0.271	
20.105	0.424	0.285	
20.110	0.388	0.313	
20.115	0.394	0.343	
20.120	0.501	0.371	
20.125	0.486	0.404	
20.130	0.444	0.434	
20.135	0.539	0.456	
20.140	0.544	0.479	
20.145	0.463	0.498	
20.150	0.496	0.506	
20.155	0.562	0.510	
20.160	0.490	0.515	
20.165	0.479	0.516	
20.170	0.554	0.513	
20.175	0.571	0.517	
20.180	0.522	0.526	
20.185	0.654	0.538	
20.190	0.704	0.561	
20.195	0.666	0.595	
20.200	0.721	0.629	
20.205	0.776	0.663	
20.210	0.699	0.694	
20.215	0.657	0.712	
20.220	0.687	0.714	
20.225	0.602	0.705	
20.230	0.438	0.678	
20.235	0.457	0.628	
20.240	0.435	0.571	
20.245	0.215	0.508	
20.250	0.175	0.432	
20.255	0.159	0.348	
20.260	0.068	0.268	
20.265	0.001	0.193	
20.270	0.049	0.126	
20.275	0.035	0.076	
20.280	-0.031	0.042	
20.285	0.027	0.017	
20.290	0.085	0.007	
20.295	0.007	0.010	
20.300	0.018	0.015	
20.305	0.105	0.022	
20.310	0.065	0.035	
20.315	0.061	0.048	
20.320	0.159	0.062	
20.325	0.128	0.081	
20.330	0.023	0.095	
20.335	0.104	0.097	
20.340	0.114	0.097	
20.345	0.035	0.095	
20.350	0.049	0.088	
20.355	0.046	0.076	
20.360	-0.028	0.061	
20.365	-0.060	0.040	
20.370	-0.014	0.014	
20.375	-0.063	-0.008	
20.380	-0.086	-0.028	
20.385	-0.045	-0.045	
20.390	-0.034	-0.055	
20.395	-0.090	-0.059	
20.400	-0.064	-0.063	
20.405	-0.014	-0.064	
20.410	-0.081	-0.061	
20.415	-0.113	-0.061	
20.420	-0.055	-0.067	
20.425	-0.058	-0.070	
20.430	-0.017	-0.068	
20.435	0.162	-0.051	
20.440	0.220	-0.009	
20.445	0.029	0.042	
20.450	-0.077	0.069	
20.455	-0.095	0.059	
20.460	-0.133	0.025	
20.465	-0.092	-0.017	
20.470	0.041	-0.048	
20.475	0.027	-0.053	
20.480	-0.003	-0.042	
20.485	0.072	-0.024	
20.490	0.105	0.000	
20.495	0.059	0.028	
20.500	0.128	0.053	
20.505	0.208	0.079	
20.510	0.114	0.108	
20.515	0.108	0.127	
20.520	0.208	0.138	
20.525	0.154	0.149	
20.530	0.119	0.156	
20.535	0.218	0.159	
20.540	0.278	0.170	
20.545	0.235	0.190	
20.550	0.296	0.213	
20.555	0.374	0.241	
20.560	0.345	0.274	
20.565	0.374	0.306	
20.570	0.536	0.340	
20.575	0.512	0.385	
20.580	0.420	0.427	
20.585	0.481	0.453	
20.590	0.484	0.469	
20.595	0.382	0.474	
20.600	0.360	0.464	
20.605	0.331	0.439	
20.610	0.191	0.402	
20.615	0.082	0.346	
20.620	0.090	0.275	
20.625	-0.017	0.201	
20.630	-0.101	0.125	
20.635	-0.081	0.051	
20.640	-0.077	-0.011	
20.645	-0.132	-0.056	
20.650	-0.133	-0.090	
20.655	-0.104	-0.113	
20.660	-0.113	-0.124	
20.665	0.955	-0.078	
20.670	2.042	0.136	
20.675	2.456	0.562	
20.680	2.485	1.103	
20.685	2.498	1.624	
20.690	2.349	2.034	
20.695	2.097	2.289	
20.700	1.925	2.382	
20.705	1.825	2.347	
20.710	1.590	2.228	
20.715	1.437	2.055	
20.720	1.346	1.859	
20.725	1.144	1.663	
20.730	0.901	1.469	
20.735	0.845	1.277	
20.740	0.837	1.105	
20.745	0.704	0.965	
20.750	0.634	0.851	
20.755	0.516	0.753	
20.760	0.331	0.658	
20.765	0.253	0.556	
20.770	0.290	0.455	
20.775	0.163	0.367	
20.780	0.064	0.288	
20.785	0.085	0.213	
20.790	0.053	0.150	
20.795	-0.029	0.099	
20.800	0.015	0.056	
20.805	0.079	0.028	
20.810	0.211	0.027	
20.815	0.318	0.059	
20.820	0.354	0.119	
20.825	0.076	0.178	
20.830	-0.071	0.194	
20.835	-0.086	0.159	
20.840	-0.086	0.097	
20.845	-0.110	0.032	
20.850	-0.106	-0.025	
20.855	-0.081	-0.067	
20.860	-0.124	-0.093	
20.865	-0.121	-0.110	
20.870	-0.080	-0.118	
20.875	-0.119	-0.119	
20.880	-0.155	-0.119	
20.885	-0.129	-0.123	
20.890	-0.126	-0.127	
20.895	-0.171	-0.131	
20.900	-0.142	-0.137	
20.905	-0.098	-0.140	
20.910	-0.130	-0.137	
20.915	-0.124	-0.133	
20.920	-0.084	-0.128	
20.925	-0.118	-0.120	
20.930	-0.122	-0.115	
20.935	-0.043	-0.110	
20.940	-0.029	-0.098	
20.945	-0.046	-0.081	
20.950	0.001	-0.063	
20.955	0.073	-0.041	
20.960	0.042	-0.014	
20.965	0.041	0.011	
20.970	0.062	0.030	
20.975	-0.014	0.041	
20.980	-0.032	0.039	
20.985	-0.043	0.025	
20.990	-0.112	0.003	
20.995	-0.200	-0.030	
21.000	-0.208	-0.074	
21.005	-0.234	-0.121	
21.010	-0.280	-0.166	
21.015	-0.277	-0.207	
21.020	-0.252	-0.239	
21.025	-0.283	-0.260	
21.030	-0.310	-0.274	
21.035	-0.248	-0.284	
21.040	-0.208	-0.283	
21.045	-0.246	-0.272	
21.050	-0.202	-0.258	
21.055	-0.184	-0.242	
21.060	-0.213	-0.226	
21.065	-0.208	-0.214	
21.070	-0.164	-0.205	
21.075	-0.200	-0.197	
21.080	-0.231	-0.193	
21.085	-0.199	-0.195	
21.090	-0.176	-0.198	
21.095	-0.239	-0.199	
21.100	-0.226	-0.203	
21.105	-0.217	-0.210	
21.110	-0.249	-0.216	
21.115	-0.200	-0.222	
21.120	-0.077	-0.217	
21.125	-0.097	-0.196	
21.130	-0.080	-0.165	
21.135	-0.017	-0.132	
21.140	0.010	-0.096	
21.145	-0.016	-0.062	
21.150	0.029	-0.033	
21.155	0.027	-0.009	
21.160	-0.064	0.005	
21.165	-0.069	0.003	
21.170	-0.081	-0.012	
21.175	-0.116	-0.033	
21.180	-0.038	-0.053	
21.185	0.223	-0.052	
21.190	0.330	-0.008	
21.195	0.214	0.066	
21.200	0.021	0.126	
21.205	-0.100	0.139	
21.210	-0.223	0.102	
21.215	-0.236	0.028	
21.220	-0.174	-0.053	
21.225	-0.174	-0.118	
21.230	-0.155	-0.160	
21.235	-0.106	-0.178	
21.240	-0.086	-0.175	
21.245	-0.148	-0.161	
21.250	-0.118	-0.147	
21.255	-0.086	-0.135	
21.260	-0.101	-0.122	
21.265	-0.109	-0.112	
21.270	-0.080	-0.104	
21.275	-0.122	-0.099	
21.280	-0.132	-0.100	
21.285	-0.112	-0.104	
21.290	-0.104	-0.109	
21.295	-0.119	-0.111	
21.300	-0.071	-0.111	
21.305	0.001	-0.102	
21.310	-0.031	-0.084	
21.315	0.021	-0.061	
21.320	0.122	-0.032	
21.325	0.136	0.006	
21.330	0.166	0.050	
21.335	0.252	0.095	
21.340	0.232	0.142	
21.345	0.143	0.178	
21.350	0.201	0.196	
21.355	0.151	0.201	
21.360	0.049	0.192	
21.365	-0.016	0.163	
21.370	-0.069	0.116	
21.375	-0.124	0.059	
21.380	-0.181	-0.003	
21.385	-0.174	-0.063	
21.390	-0.202	-0.115	
21.395	-0.252	-0.158	
21.400	-0.252	-0.194	
21.405	-0.229	-0.221	
21.410	-0.254	-0.238	
21.415	-0.246	-0.248	
21.420	-0.231	-0.252	
21.425	-0.254	-0.252	
21.430	-0.222	-0.250	
21.435	-0.188	-0.244	
21.440	-0.190	-0.232	
21.445	-0.222	-0.220	
21.450	-0.174	-0.210	
21.455	-0.148	-0.200	
21.460	-0.188	-0.189	
21.465	-0.185	-0.181	
21.470	-0.147	-0.176	
21.475	-0.158	-0.171	
21.480	-0.197	-0.167	
21.485	-0.182	-0.168	
21.490	-0.179	-0.172	
21.495	-0.252	-0.179	
21.500	-0.240	-0.192	
21.505	-0.223	-0.207	
21.510	-0.255	-0.219	
21.515	-0.245	-0.230	
21.520	-0.200	-0.237	
21.525	-0.216	-0.236	
21.530	-0.223	-0.232	
21.535	-0.187	-0.226	
21.540	-0.228	-0.219	
21.545	-0.291	-0.219	
21.550	-0.246	-0.227	
21.555	-0.119	-0.230	
21.560	0.101	-0.208	
21.565	0.302	-0.140	
21.570	0.360	-0.032	
21.575	0.006	0.074	
21.580	-0.188	0.122	
21.585	-0.200	0.096	
21.590	-0.190	0.030	
21.595	-0.194	-0.044	
21.600	-0.133	-0.105	
21.605	-0.071	-0.140	
21.610	-0.122	-0.150	
21.615	-0.097	-0.146	
21.620	-0.029	-0.133	
21.625	-0.040	-0.111	
21.630	-0.031	-0.086	
21.635	0.042	-0.061	
21.640	0.047	-0.033	
21.645	0.027	-0.005	
21.650	0.104	0.019	
21.655	0.151	0.045	
21.660	0.110	0.073	
21.665	0.124	0.096	
21.670	0.256	0.118	
21.675	0.221	0.147	
21.680	0.256	0.178	
21.685	0.313	0.209	
21.690	0.380	0.243	
21.695	0.406	0.284	
21.700	0.533	0.331	
21.705	0.646	0.391	
21.710	0.568	0.458	
21.715	0.580	0.516	
21.720	0.638	0.558	
21.725	0.513	0.586	
21.730	0.409	0.586	
21.735	0.405	0.559	
21.740	0.284	0.511	
21.745	0.091	0.443	
21.750	0.064	0.352	
21.755	0.027	0.253	
21.760	-0.106	0.159	
21.765	-0.145	0.068	
21.770	-0.138	-0.014	
21.775	-0.162	-0.079	
21.780	-0.190	-0.126	
21.785	-0.159	-0.158	
21.790	-0.152	-0.175	
21.795	-0.153	-0.180	
21.800	-0.124	-0.176	
21.805	-0.087	-0.164	
21.810	-0.113	-0.147	
21.815	-0.090	-0.130	
21.820	-0.029	-0.113	
21.825	-0.072	-0.093	
21.830	-0.090	-0.079	
21.835	-0.061	-0.072	
21.840	-0.063	-0.068	
21.845	-0.097	-0.066	
21.850	-0.081	-0.069	
21.855	-0.095	-0.074	
21.860	-0.145	-0.082	
21.865	-0.159	-0.096	
21.870	-0.138	-0.113	
21.875	-0.179	-0.129	
21.880	-0.168	-0.143	
21.885	-0.156	-0.155	
21.890	-0.167	-0.162	
21.895	-0.202	-0.168	
21.900	-0.156	-0.173	
21.905	-0.165	-0.175	
21.910	-0.197	-0.175	
21.915	-0.207	-0.178	
21.920	-0.211	-0.185	
21.925	-0.216	-0.193	
21.930	-0.098	-0.195	
21.935	0.229	-0.169	
21.940	0.353	-0.092	
21.945	0.204	0.015	
21.950	-0.019	0.100	
21.955	-0.113	0.125	
21.960	-0.188	0.095	
21.965	-0.161	0.032	
21.970	-0.083	-0.032	
21.975	-0.080	-0.076	
21.980	-0.069	-0.098	
21.985	-0.006	-0.101	
21.990	0.012	-0.087	
21.995	-0.017	-0.064	
22.000	0.039	-0.040	
22.005	0.055	-0.016	
22.010	0.026	0.007	
22.015	0.052	0.025	
22.020	0.143	0.041	
22.025	0.117	0.063	
22.030	0.073	0.083	
22.035	0.188	0.098	
22.040	0.218	0.118	
22.045	0.175	0.143	
22.050	0.288	0.169	
22.055	0.359	0.201	
22.060	0.348	0.243	
22.065	0.444	0.287	
22.070	0.544	0.338	
22.075	0.537	0.397	
22.080	0.562	0.453	
22.085	0.676	0.504	
22.090	0.683	0.557	
22.095	0.541	0.599	
22.100	0.524	0.615	
22.105	0.467	0.604	
22.110	0.299	0.568	
22.115	0.174	0.503	
22.120	0.133	0.414	
22.125	0.009	0.315	
22.130	-0.063	0.212	
22.135	-0.092	0.112	
22.140	-0.124	0.026	
22.145	-0.162	-0.045	
22.150	-0.139	-0.098	
22.155	-0.161	-0.134	
22.160	-0.202	-0.158	
22.165	-0.194	-0.175	
22.170	-0.147	-0.185	
22.175	-0.165	-0.186	
22.180	-0.207	-0.184	
22.185	-0.135	-0.182	
22.190	-0.112	-0.174	
22.195	-0.150	-0.162	
22.200	-0.144	-0.152	
22.205	-0.115	-0.144	
22.210	-0.168	-0.139	
22.215	-0.162	-0.139	
22.220	-0.104	-0.141	
22.225	-0.156	-0.140	
22.230	-0.171	-0.141	
22.235	-0.138	-0.145	
22.240	-0.153	-0.148	
22.245	-0.211	-0.152	
22.250	-0.193	-0.162	
22.255	-0.190	-0.173	
22.260	-0.226	-0.183	
22.265	-0.249	-0.196	
22.270	-0.213	-0.209	
22.275	-0.222	-0.218	
22.280	-0.234	-0.224	
22.285	-0.223	-0.227	
22.290	-0.260	-0.230	
22.295	-0.339	-0.239	
22.300	-0.294	-0.256	
22.305	-0.190	-0.269	
22.310	-0.097	-0.261	
22.315	-0.051	-0.229	
22.320	-0.126	-0.186	
22.325	-0.365	-0.161	
22.330	-0.497	-0.182	
22.335	-0.504	-0.244	
22.340	-0.466	-0.321	
22.345	-0.446	-0.386	
22.350	-0.347	-0.426	
22.355	-0.332	-0.435	
22.360	-0.313	-0.420	
22.365	-0.283	-0.392	
22.370	-0.237	-0.358	
22.375	-0.237	-0.321	
22.380	-0.251	-0.288	
22.385	-0.171	-0.260	
22.390	-0.132	-0.232	
22.395	-0.141	-0.202	
22.400	-0.106	-0.174	
22.405	-0.068	-0.147	
22.410	-0.119	-0.124	
22.415	-0.113	-0.109	
22.420	-0.031	-0.099	
22.425	-0.072	-0.087	
22.430	-0.326	-0.088	
22.435	-0.553	-0.131	
22.440	-0.731	-0.228	
22.445	-0.889	-0.368	
22.450	-0.940	-0.528	
22.455	-0.944	-0.680	
22.460	-0.949	-0.804	
22.465	-0.969	-0.892	
22.470	-0.894	-0.946	
22.475	-0.859	-0.964	
22.480	-0.851	-0.955	
22.485	-0.815	-0.930	
22.490	-0.779	-0.897	
22.495	-0.770	-0.860	
22.500	-0.735	-0.824	
22.505	-0.677	-0.789	
22.510	-0.650	-0.752	
22.515	-0.614	-0.715	
22.520	-0.517	-0.675	
22.525	-0.449	-0.628	
22.530	-0.430	-0.574	
22.535	-0.367	-0.519	
22.540	-0.294	-0.463	
22.545	-0.269	-0.407	
22.550	-0.184	-0.351	
22.555	-0.066	-0.291	
22.560	-0.061	-0.225	
22.565	-0.034	-0.162	
22.570	0.111	-0.101	
22.575	0.201	-0.035	
22.580	0.217	0.038	
22.585	0.330	0.111	
22.590	0.423	0.187	
22.595	0.398	0.262	
22.600	0.452	0.328	
22.605	0.516	0.384	
22.610	0.458	0.430	
22.615	0.449	0.460	
22.620	0.559	0.478	
22.625	0.542	0.496	
22.630	0.481	0.512	
22.635	0.574	0.521	
22.640	0.596	0.532	
22.645	0.573	0.547	
22.650	0.643	0.563	
22.655	0.727	0.587	
22.660	0.678	0.618	
22.665	0.640	0.645	
22.670	0.699	0.662	
22.675	0.695	0.674	
22.680	0.698	0.684	
22.685	0.909	0.701	
22.690	1.022	0.744	
22.695	0.941	0.807	
22.700	0.758	0.858	
22.705	0.611	0.866	
22.710	0.528	0.826	
22.715	0.498	0.754	
22.720	0.580	0.676	
22.725	0.637	0.619	
22.730	0.620	0.591	
22.735	0.725	0.588	
22.740	0.799	0.611	
22.745	0.745	0.650	
22.750	0.776	0.691	
22.755	0.842	0.729	
22.760	0.791	0.763	
22.765	0.786	0.787	
22.770	0.878	0.803	
22.775	0.872	0.820	
22.780	0.739	0.832	
22.785	0.748	0.828	
22.790	0.780	0.812	
22.795	0.728	0.794	
22.800	0.753	0.777	
22.805	0.822	0.766	
22.810	0.819	0.768	
22.815	0.817	0.778	
22.820	0.915	0.795	
22.825	0.919	0.821	
22.830	0.883	0.850	
22.835	0.919	0.874	
22.840	0.965	0.894	
22.845	0.863	0.911	
22.850	0.803	0.912	
22.855	0.751	0.893	
22.860	0.620	0.854	
22.865	0.427	0.788	
22.870	0.423	0.698	
22.875	0.305	0.598	
22.880	0.125	0.492	
22.885	0.113	0.380	
22.890	0.105	0.275	
22.895	0.017	0.189	
22.900	-0.035	0.116	
22.905	0.036	0.058	
22.910	0.032	0.022	
22.915	-0.011	0.004	
22.920	0.041	-0.003	
22.925	0.027	-0.001	
22.930	-0.003	0.004	
22.935	0.046	0.009	
22.940	0.097	0.018	
22.945	0.068	0.034	
22.950	0.081	0.050	
22.955	0.149	0.066	
22.960	0.107	0.084	
22.965	0.067	0.097	
22.970	0.134	0.103	
22.975	0.130	0.108	
22.980	0.065	0.112	
22.985	0.041	0.107	
22.990	0.039	0.094	
22.995	-0.011	0.075	
23.000	-0.002	0.052	
23.005	-0.005	0.031	
23.010	-0.031	0.013	
23.015	-0.061	-0.005	
23.020	0.015	-0.019	
23.025	0.047	-0.021	
23.030	0.000	-0.014	
23.035	0.021	-0.004	
23.040	0.009	0.003	
23.045	-0.043	0.006	
23.050	-0.016	0.002	
23.055	0.114	0.002	
23.060	0.218	0.021	
23.065	0.241	0.063	
23.070	0.299	0.118	
23.075	0.192	0.171	
23.080	-0.013	0.197	
23.085	-0.025	0.179	
23.090	-0.005	0.135	
23.095	-0.026	0.085	
23.100	0.050	0.045	
23.105	0.151	0.027	
23.110	0.149	0.036	
23.115	0.131	0.061	
23.120	0.224	0.091	
23.125	0.285	0.129	
23.130	0.208	0.170	
23.135	0.261	0.203	
23.140	0.339	0.231	
23.145	0.284	0.259	
23.150	0.304	0.281	
23.155	0.409	0.299	
23.160	0.379	0.323	
23.165	0.342	0.344	
23.170	0.403	0.359	
23.175	0.388	0.371	
23.180	0.347	0.378	
23.185	0.432	0.382	
23.190	0.512	0.393	
23.195	0.414	0.412	
23.200	0.467	0.429	
23.205	0.606	0.448	
23.210	0.585	0.479	
23.215	0.551	0.513	
23.220	0.592	0.541	
23.225	0.551	0.560	
23.230	0.421	0.564	
23.235	0.382	0.543	
23.240	0.354	0.504	
23.245	0.191	0.451	
23.250	0.120	0.381	
23.255	0.113	0.301	
23.260	0.003	0.223	
23.265	-0.063	0.146	
23.270	-0.016	0.074	
23.275	-0.026	0.020	
23.280	-0.119	-0.019	
23.285	-0.086	-0.051	
23.290	-0.045	-0.073	
23.295	-0.068	-0.081	
23.300	-0.049	-0.081	
23.305	0.013	-0.073	
23.310	0.006	-0.056	
23.315	-0.016	-0.037	
23.320	0.000	-0.022	
23.325	0.012	-0.011	
23.330	0.000	-0.002	
23.335	0.021	0.004	
23.340	0.052	0.011	
23.345	-0.014	0.017	
23.350	-0.009	0.018	
23.355	0.033	0.015	
23.360	-0.014	0.013	
23.365	-0.058	0.007	
23.370	-0.037	-0.005	
23.375	-0.046	-0.018	
23.380	-0.101	-0.032	
23.385	-0.107	-0.049	
23.390	-0.081	-0.067	
23.395	-0.109	-0.081	
23.400	-0.097	-0.091	
23.405	-0.063	-0.096	
23.410	-0.081	-0.095	
23.415	-0.098	-0.092	
23.420	-0.075	-0.089	
23.425	-0.072	-0.087	
23.430	-0.084	-0.083	
23.435	0.024	-0.076	
23.440	0.192	-0.052	
23.445	0.157	-0.004	
23.450	0.108	0.049	
23.455	-0.003	0.083	
23.460	-0.141	0.082	
23.465	-0.159	0.046	
23.470	-0.064	-0.004	
23.475	-0.017	-0.042	
23.480	-0.016	-0.058	
23.485	0.052	-0.055	
23.490	0.136	-0.033	
23.495	0.056	0.001	
23.500	0.039	0.031	
23.505	0.073	0.050	
23.510	0.079	0.062	
23.515	-0.023	0.066	
23.520	0.041	0.059	
23.525	0.055	0.050	
23.530	0.010	0.044	
23.535	0.068	0.039	
23.540	0.145	0.043	
23.545	0.075	0.057	
23.550	0.753	0.102	
23.555	2.511	0.294	
23.560	3.081	0.742	
23.565	3.077	1.368	
23.570	3.075	1.991	
23.575	3.078	2.498	
23.580	3.080	2.854	
23.585	3.083	3.071	
23.590	3.011	3.176	
23.595	2.646	3.184	
23.600	2.352	3.092	
23.605	2.100	2.912	
23.610	1.720	2.668	
23.615	1.404	2.376	
23.620	1.176	2.057	
23.625	0.924	1.736	
23.630	0.641	1.427	
23.635	0.440	1.134	
23.640	0.270	0.863	
23.645	0.059	0.619	
23.650	-0.013	0.402	
23.655	-0.060	0.220	
23.660	-0.142	0.077	
23.665	-0.223	-0.034	
23.670	-0.213	-0.119	
23.675	-0.219	-0.179	
23.680	-0.249	-0.217	
23.685	-0.246	-0.240	
23.690	-0.245	-0.253	
23.695	-0.295	-0.260	
23.700	-0.284	-0.267	
23.705	-0.272	-0.274	
23.710	-0.310	-0.279	
23.715	-0.355	-0.288	
23.720	-0.338	-0.302	
23.725	-0.356	-0.317	
23.730	-0.399	-0.333	
23.735	-0.361	-0.349	
23.740	-0.394	-0.362	
23.745	-0.482	-0.377	
23.750	-0.472	-0.400	
23.755	-0.457	-0.424	
23.760	-0.497	-0.444	
23.765	-0.501	-0.462	
23.770	-0.446	-0.476	
23.775	-0.456	-0.480	
23.780	-0.472	-0.478	
23.785	-0.462	-0.474	
23.790	-0.453	-0.471	
23.795	-0.506	-0.468	
23.800	-0.498	-0.471	
23.805	-0.480	-0.477	
23.810	-0.474	-0.481	
23.815	-0.393	-0.478	
23.820	-0.248	-0.458	
23.825	-0.231	-0.415	
23.830	-0.269	-0.363	
23.835	-0.344	-0.321	
23.840	-0.413	-0.305	
23.845	-0.460	-0.316	
23.850	-0.423	-0.344	
23.855	-0.365	-0.371	
23.860	-0.371	-0.387	
23.865	-0.381	-0.392	
23.870	-0.341	-0.390	
23.875	-0.338	-0.382	
23.880	-0.339	-0.370	
23.885	-0.280	-0.355	
23.890	-0.280	-0.337	
23.895	-0.327	-0.320	
23.900	-0.278	-0.308	
23.905	-0.236	-0.297	
23.910	-0.252	-0.283	
23.915	-0.268	-0.271	
23.920	-0.210	-0.260	
23.925	-0.196	-0.248	
23.930	-0.193	-0.233	
23.935	-0.159	-0.217	
23.940	-0.135	-0.198	
23.945	-0.161	-0.180	
23.950	-0.138	-0.165	
23.955	-0.083	-0.151	
23.960	-0.077	-0.134	
23.965	-0.069	-0.115	
23.970	-0.037	-0.096	
23.975	-0.061	-0.078	
23.980	-0.100	-0.067	
23.985	-0.083	-0.065	
23.990	-0.112	-0.069	
23.995	-0.187	-0.082	
24.000	-0.202	-0.104	
24.005	-0.237	-0.134	
24.010	-0.307	-0.170	
24.015	-0.356	-0.211	
24.020	-0.355	-0.256	
24.025	-0.382	-0.298	
24.030	-0.422	-0.335	
24.035	-0.396	-0.366	
24.040	-0.370	-0.387	
24.045	-0.404	-0.396	
24.050	-0.390	-0.401	
24.055	-0.344	-0.399	
24.060	-0.352	-0.391	
24.065	-0.344	-0.379	
24.070	-0.281	-0.364	
24.075	-0.295	-0.345	
24.080	-0.318	-0.327	
24.085	-0.263	-0.313	
24.090	-0.240	-0.298	
24.095	-0.274	-0.283	
24.100	-0.248	-0.271	
24.105	-0.217	-0.261	
24.110	-0.242	-0.250	
24.115	-0.260	-0.243	
24.120	-0.263	-0.242	
24.125	-0.291	-0.247	
24.130	-0.307	-0.256	
24.135	-0.281	-0.269	
24.140	-0.300	-0.279	
24.145	-0.307	-0.288	
24.150	-0.292	-0.294	
24.155	-0.272	-0.297	
24.160	-0.301	-0.296	
24.165	-0.272	-0.294	
24.170	-0.228	-0.288	
24.175	-0.251	-0.277	
24.180	-0.283	-0.267	
24.185	-0.271	-0.263	
24.190	-0.234	-0.262	
24.195	-0.098	-0.251	
24.200	0.189	-0.211	
24.205	0.319	-0.124	
24.210	0.062	-0.018	
24.215	-0.148	0.051	
24.220	-0.213	0.055	
24.225	-0.263	0.009	
24.230	-0.248	-0.062	
24.235	-0.179	-0.128	
24.240	-0.147	-0.172	
24.245	-0.174	-0.191	
24.250	-0.109	-0.194	
24.255	-0.087	-0.181	
24.260	-0.092	-0.159	
24.265	-0.090	-0.135	
24.270	-0.026	-0.113	
24.275	-0.046	-0.089	
24.280	-0.074	-0.070	
24.285	-0.008	-0.057	
24.290	-0.014	-0.045	
24.295	-0.049	-0.035	
24.300	0.013	-0.028	
24.305	0.081	-0.016	
24.310	0.056	0.003	
24.315	0.110	0.026	
24.320	0.226	0.055	
24.325	0.244	0.097	
24.330	0.285	0.146	
24.335	0.403	0.199	
24.340	0.467	0.260	
24.345	0.406	0.323	
24.350	0.470	0.375	
24.355	0.489	0.416	
24.360	0.369	0.443	
24.365	0.290	0.445	
24.370	0.290	0.421	
24.375	0.188	0.380	
24.380	0.065	0.324	
24.385	-0.019	0.250	
24.390	-0.078	0.165	
24.395	-0.133	0.079	
24.400	-0.165	-0.002	
24.405	-0.168	-0.070	
24.410	-0.217	-0.124	
24.415	-0.220	-0.166	
24.420	-0.222	-0.196	
24.425	-0.242	-0.217	
24.430	-0.246	-0.231	
24.435	-0.202	-0.238	
24.440	-0.188	-0.237	
24.445	-0.190	-0.228	
24.450	-0.184	-0.216	
24.455	-0.139	-0.202	
24.460	-0.156	-0.187	
24.465	-0.148	-0.172	
24.470	-0.098	-0.159	
24.475	-0.106	-0.144	
24.480	-0.107	-0.129	
24.485	-0.081	-0.116	
24.490	-0.098	-0.106	
24.495	-0.153	-0.101	
24.500	-0.138	-0.105	
24.505	-0.113	-0.112	
24.510	-0.168	-0.120	
24.515	-0.177	-0.131	
24.520	-0.176	-0.144	
24.525	-0.213	-0.158	
24.530	-0.223	-0.174	
24.535	-0.185	-0.189	
24.540	-0.168	-0.196	
24.545	-0.197	-0.197	
24.550	-0.130	-0.193	
24.555	-0.173	-0.184	
24.560	-0.223	-0.178	
24.565	-0.226	-0.182	
24.570	-0.184	-0.189	
24.575	-0.107	-0.191	
24.580	0.171	-0.166	
24.585	0.499	-0.090	
24.590	0.579	0.045	
24.595	0.192	0.188	
24.600	-0.084	0.264	
24.605	-0.168	0.247	
24.610	-0.202	0.163	
24.615	-0.184	0.058	
24.620	-0.113	-0.037	
24.625	-0.144	-0.102	
24.630	-0.165	-0.141	
24.635	-0.112	-0.161	
24.640	-0.081	-0.163	
24.645	-0.098	-0.151	
24.650	-0.051	-0.133	
24.655	0.007	-0.108	
24.660	-0.028	-0.079	
24.665	-0.009	-0.052	
24.670	0.049	-0.030	
24.675	0.039	-0.007	
24.680	0.036	0.013	
24.685	0.131	0.031	
24.690	0.140	0.055	
24.695	0.078	0.079	
24.700	0.076	0.093	
24.705	0.152	0.101	
24.710	0.119	0.109	
24.715	0.127	0.117	
24.720	0.233	0.127	
24.725	0.267	0.148	
24.730	0.226	0.177	
24.735	0.258	0.204	
24.740	0.065	0.216	
24.745	-0.220	0.191	
24.750	-0.373	0.108	
24.755	-0.448	-0.018	
24.760	-0.535	-0.159	
24.765	-0.617	-0.298	
24.770	-0.640	-0.423	
24.775	-0.651	-0.523	
24.780	-0.669	-0.597	
24.785	-0.637	-0.644	
24.790	-0.608	-0.666	
24.795	-0.625	-0.669	
24.800	-0.604	-0.660	
24.805	-0.517	-0.642	
24.810	-0.497	-0.613	
24.815	-0.475	-0.578	
24.820	-0.398	-0.539	
24.825	-0.382	-0.496	
24.830	-0.362	-0.454	
24.835	-0.323	-0.416	
24.840	-0.263	-0.379	
24.845	-0.269	-0.342	
24.850	-0.239	-0.309	
24.855	-0.173	-0.278	
24.860	-0.174	-0.247	
24.865	-0.170	-0.218	
24.870	-0.095	-0.191	
24.875	-0.057	-0.162	
24.880	-0.063	-0.130	
24.885	-0.032	-0.101	
24.890	0.013	-0.073	
24.895	-0.093	-0.050	
24.900	-0.097	-0.042	
24.905	-0.098	-0.048	
24.910	-0.177	-0.064	
24.915	-0.269	-0.093	
24.920	-0.284	-0.137	
24.925	-0.335	-0.187	
24.930	-0.391	-0.239	
24.935	-0.368	-0.289	
24.940	-0.370	-0.330	
24.945	-0.419	-0.359	
24.950	-0.410	-0.382	
24.955	-0.338	-0.395	
24.960	-0.297	-0.393	
24.965	-0.165	-0.370	
24.970	0.020	-0.318	
24.975	0.131	-0.234	
24.980	-0.090	-0.140	
24.985	-0.174	-0.079	
24.990	-0.161	-0.062	
24.995	-0.155	-0.072	
25.000	-0.084	-0.089	
25.005	0.020	-0.095	
25.010	0.079	-0.079	
25.015	0.075	-0.045	
25.020	0.214	0.001	
25.025	0.201	0.055	
25.030	0.214	0.110	
25.035	0.319	0.161	
25.040	0.388	0.213	
25.045	0.327	0.265	
25.050	0.402	0.308	
25.055	0.452	0.346	
25.060	0.457	0.381	
25.065	0.481	0.414	
25.070	0.585	0.446	
25.075	0.663	0.486	
25.080	0.647	0.534	
25.085	0.716	0.583	
25.090	0.794	0.631	
25.095	0.805	0.682	
25.100	0.846	0.731	
25.105	0.994	0.782	
25.110	0.984	0.838	
25.115	0.962	0.892	
25.120	0.984	0.934	
25.125	0.968	0.962	
25.130	0.895	0.974	
25.135	0.870	0.968	
25.140	0.874	0.948	
25.145	0.741	0.918	
25.150	0.628	0.872	
25.155	0.592	0.807	
25.160	0.484	0.733	
25.165	0.383	0.650	
25.170	0.415	0.567	
25.175	0.348	0.493	
25.180	0.263	0.429	
25.185	0.290	0.372	
25.190	0.382	0.332	
25.195	0.313	0.314	
25.200	0.290	0.307	
25.205	0.391	0.306	
25.210	0.360	0.315	
25.215	0.374	0.330	
25.220	0.479	0.350	
25.225	0.501	0.379	
25.230	0.432	0.412	
25.235	0.472	0.437	
25.240	0.556	0.458	
25.245	0.440	0.477	
25.250	0.408	0.483	
25.255	0.504	0.478	
25.260	0.435	0.473	
25.265	0.405	0.465	
25.270	0.408	0.452	
25.275	0.340	0.434	
25.280	0.215	0.405	
25.285	0.229	0.362	
25.290	0.253	0.317	
25.295	0.175	0.278	
25.300	0.186	0.244	
25.305	0.269	0.220	
25.310	0.230	0.212	
25.315	0.192	0.211	
25.320	0.235	0.211	
25.325	0.240	0.214	
25.330	0.168	0.216	
25.335	0.270	0.216	
25.340	0.307	0.224	
25.345	0.371	0.244	
25.350	0.527	0.281	
25.355	0.661	0.344	
25.360	0.541	0.422	
25.365	0.273	0.475	
25.370	0.186	0.472	
25.375	0.175	0.422	
25.380	0.104	0.349	
25.385	0.166	0.274	
25.390	0.282	0.219	
25.395	0.255	0.198	
25.400	0.264	0.199	
25.405	0.357	0.216	
25.410	0.330	0.245	
25.415	0.304	0.274	
25.420	0.411	0.301	
25.425	0.402	0.329	
25.430	0.348	0.354	
25.435	0.392	0.369	
25.440	0.438	0.382	
25.445	0.368	0.393	
25.450	0.339	0.395	
25.455	0.452	0.393	
25.460	0.389	0.394	
25.465	0.362	0.396	
25.470	0.446	0.395	
25.475	0.507	0.403	
25.480	0.438	0.421	
25.485	0.504	0.438	
25.490	0.583	0.460	
25.495	0.570	0.489	
25.500	0.565	0.519	
25.505	0.586	0.543	
25.510	0.536	0.560	
25.515	0.435	0.561	
25.520	0.438	0.543	
25.525	0.369	0.512	
25.530	0.243	0.468	
25.535	0.154	0.406	
25.540	0.088	0.330	
25.545	-0.026	0.246	
25.550	-0.071	0.158	
25.555	-0.049	0.075	
25.560	-0.103	0.008	
25.565	-0.138	-0.044	
25.570	-0.075	-0.083	
25.575	-0.072	-0.103	
25.580	-0.129	-0.110	
25.585	-0.090	-0.113	
25.590	-0.064	-0.110	
25.595	-0.077	-0.102	
25.600	-0.058	-0.092	
25.605	-0.014	-0.080	
25.610	-0.048	-0.065	
25.615	-0.058	-0.054	
25.620	-0.002	-0.046	
25.625	-0.028	-0.038	
25.630	-0.086	-0.033	
25.635	-0.055	-0.037	
25.640	0.001	-0.041	
25.645	-0.031	-0.039	
25.650	-0.032	-0.035	
25.655	-0.048	-0.033	
25.660	-0.058	-0.035	
25.665	-0.101	-0.042	
25.670	-0.061	-0.052	
25.675	-0.080	-0.061	
25.680	-0.142	-0.072	
25.685	-0.122	-0.086	
25.690	-0.086	-0.099	
25.695	-0.116	-0.106	
25.700	-0.118	-0.110	
25.705	-0.078	-0.112	
25.710	-0.110	-0.109	
25.715	-0.156	-0.109	
25.720	-0.136	-0.115	
25.725	-0.097	-0.121	
25.730	-0.055	-0.119	
25.735	0.056	-0.103	
25.740	0.145	-0.067	
25.745	-0.034	-0.022	
25.750	-0.153	0.000	
25.755	-0.179	-0.013	
25.760	-0.165	-0.048	
25.765	-0.156	-0.087	
25.770	-0.106	-0.117	
25.775	-0.064	-0.130	
25.780	-0.072	-0.127	
25.785	-0.032	-0.113	
25.790	-0.014	-0.092	
25.795	-0.046	-0.070	
25.800	-0.016	-0.052	
25.805	0.070	-0.033	
25.810	0.160	-0.005	
25.815	0.426	0.047	
25.820	0.820	0.149	
25.825	1.089	0.317	
25.830	1.207	0.535	
25.835	1.353	0.768	
25.840	1.428	0.987	
25.845	1.410	1.172	
25.850	1.390	1.306	
25.855	1.407	1.390	
25.860	1.352	1.431	
25.865	1.272	1.435	
25.870	1.352	1.415	
25.875	1.297	1.387	
25.880	1.156	1.352	
25.885	1.106	1.304	
25.890	1.022	1.241	
25.895	0.820	1.165	
25.900	0.663	1.066	
25.905	0.620	0.948	
25.910	0.426	0.822	
25.915	0.203	0.686	
25.920	0.145	0.538	
25.925	0.018	0.389	
25.930	-0.104	0.248	
25.935	-0.139	0.117	
25.940	-0.167	0.006	
25.945	-0.225	-0.082	
25.950	-0.229	-0.149	
25.955	-0.208	-0.196	
25.960	-0.254	-0.224	
25.965	-0.275	-0.242	
25.970	-0.265	-0.256	
25.975	-0.266	-0.265	
25.980	-0.265	-0.269	
25.985	-0.240	-0.270	
25.990	-0.121	-0.260	
25.995	0.163	-0.222	
26.000	0.470	-0.131	
26.005	0.580	0.015	
26.010	0.525	0.184	
26.015	0.467	0.330	
26.020	0.481	0.430	
26.025	0.420	0.485	
26.030	0.302	0.498	
26.035	0.148	0.466	
26.040	0.075	0.396	
26.045	-0.029	0.300	
26.050	-0.057	0.196	
26.055	-0.057	0.099	
26.060	-0.130	0.020	
26.065	-0.159	-0.045	
26.070	-0.144	-0.096	
26.075	-0.158	-0.131	
26.080	-0.193	-0.154	
26.085	-0.208	-0.172	
26.090	-0.228	-0.187	
26.095	-0.281	-0.204	
26.100	-0.295	-0.225	
26.105	-0.310	-0.248	
26.110	-0.281	-0.269	
26.115	-0.179	-0.278	
26.120	-0.046	-0.263	
26.125	-0.022	-0.220	
26.130	-0.109	-0.168	
26.135	-0.217	-0.132	
26.140	-0.265	-0.128	
26.145	-0.280	-0.149	
26.150	-0.251	-0.182	
26.155	-0.190	-0.209	
26.160	-0.185	-0.222	
26.165	-0.199	-0.222	
26.170	-0.184	-0.216	
26.175	-0.179	-0.208	
26.180	-0.193	-0.200	
26.185	-0.181	-0.193	
26.190	-0.168	-0.187	
26.195	-0.184	-0.182	
26.200	-0.171	-0.179	
26.205	-0.127	-0.174	
26.210	-0.142	-0.166	
26.215	-0.139	-0.157	
26.220	-0.092	-0.147	
26.225	-0.110	-0.135	
26.230	-0.109	-0.124	
26.235	-0.080	-0.114	
26.240	-0.037	-0.102	
26.245	-0.043	-0.087	
26.250	0.036	-0.067	
26.255	0.061	-0.041	
26.260	0.036	-0.011	
26.265	0.046	0.013	
26.270	0.076	0.033	
26.275	0.085	0.049	
26.280	0.047	0.062	
26.285	0.046	0.067	
26.290	-0.028	0.062	
26.295	-0.110	0.043	
26.300	-0.118	0.009	
26.305	-0.170	-0.034	
26.310	-0.239	-0.080	
26.315	-0.292	-0.132	
26.320	-0.320	-0.185	
26.325	-0.339	-0.236	
26.330	-0.371	-0.281	
26.335	-0.373	-0.318	
26.340	-0.361	-0.346	
26.345	-0.390	-0.364	
26.350	-0.361	-0.375	
26.355	-0.332	-0.378	
26.360	-0.315	-0.371	
26.365	-0.294	-0.358	
26.370	-0.248	-0.338	
26.375	-0.271	-0.315	
26.380	-0.275	-0.294	
26.385	-0.236	-0.279	
26.390	-0.211	-0.264	
26.395	-0.232	-0.249	
26.400	-0.228	-0.237	
26.405	-0.210	-0.229	
26.410	-0.219	-0.223	
26.415	-0.219	-0.219	
26.420	-0.216	-0.216	
26.425	-0.251	-0.217	
26.430	-0.271	-0.223	
26.435	-0.249	-0.233	
26.440	-0.257	-0.242	
26.445	-0.265	-0.249	
26.450	-0.272	-0.256	
26.455	-0.222	-0.259	
26.460	-0.168	-0.254	
26.465	-0.098	-0.235	
26.470	-0.017	-0.200	
26.475	0.024	-0.150	
26.480	-0.011	-0.098	
26.485	-0.025	-0.055	
26.490	-0.016	-0.027	
26.495	0.035	-0.009	
26.500	0.314	0.018	
26.505	0.600	0.087	
26.510	0.628	0.203	
26.515	0.392	0.327	
26.520	0.067	0.395	
26.525	-0.074	0.377	
26.530	-0.112	0.290	
26.535	-0.089	0.175	
26.540	-0.063	0.071	
26.545	-0.098	-0.008	
26.550	-0.089	-0.062	
26.555	-0.054	-0.092	
26.560	-0.074	-0.102	
26.565	-0.075	-0.101	
26.570	-0.051	-0.095	
26.575	-0.089	-0.086	
26.580	-0.101	-0.081	
26.585	-0.077	-0.081	
26.590	-0.038	-0.079	
26.595	-0.054	-0.073	
26.600	-0.048	-0.066	
26.605	-0.026	-0.058	
26.610	-0.038	-0.050	
26.615	-0.017	-0.042	
26.620	0.049	-0.032	
26.625	0.036	-0.015	
26.630	0.065	0.004	
26.635	0.151	0.028	
26.640	0.246	0.062	
26.645	0.194	0.107	
26.650	0.244	0.149	
26.655	0.336	0.189	
26.660	0.279	0.229	
26.665	0.215	0.258	
26.670	0.211	0.267	
26.675	0.163	0.259	
26.680	0.035	0.234	
26.685	-0.040	0.187	
26.690	-0.084	0.123	
26.695	-0.158	0.053	
26.700	-0.168	-0.018	
26.705	-0.174	-0.080	
26.710	-0.213	-0.130	
26.715	-0.257	-0.170	
26.720	-0.283	-0.205	
26.725	-0.291	-0.235	
26.730	-0.300	-0.261	
26.735	-0.280	-0.279	
26.740	-0.260	-0.288	
26.745	-0.248	-0.288	
26.750	-0.217	-0.279	
26.755	-0.185	-0.264	
26.760	-0.187	-0.243	
26.765	-0.174	-0.222	
26.770	-0.135	-0.201	
26.775	-0.124	-0.180	
26.780	-0.139	-0.161	
26.785	-0.115	-0.145	
26.790	-0.136	-0.134	
26.795	-0.158	-0.129	
26.800	-0.129	-0.130	
26.805	-0.109	-0.130	
26.810	-0.152	-0.129	
26.815	-0.190	-0.133	
26.820	-0.197	-0.144	
26.825	-0.196	-0.158	
26.830	-0.228	-0.174	
26.835	-0.214	-0.190	
26.840	-0.199	-0.202	
26.845	-0.226	-0.209	
26.850	-0.205	-0.214	
26.855	-0.199	-0.215	
26.860	-0.217	-0.214	
26.865	-0.231	-0.214	
26.870	-0.232	-0.216	
26.875	-0.258	-0.222	
26.880	-0.248	-0.229	
26.885	-0.087	-0.230	
26.890	0.230	-0.196	
26.895	0.415	-0.107	
26.900	0.388	0.023	
26.905	0.000	0.138	
26.910	-0.208	0.177	
26.915	-0.236	0.134	
26.920	-0.187	0.048	
26.925	-0.200	-0.041	
26.930	-0.194	-0.113	
26.935	-0.158	-0.162	
26.940	-0.116	-0.185	
26.945	-0.095	-0.185	
26.950	-0.074	-0.168	
26.955	-0.038	-0.142	
26.960	-0.054	-0.112	
26.965	-0.029	-0.085	
26.970	0.012	-0.060	
26.975	0.039	-0.036	
26.980	0.042	-0.011	
26.985	0.085	0.013	
26.990	0.160	0.040	
26.995	0.085	0.068	
27.000	0.117	0.090	
27.005	0.174	0.107	
27.010	0.192	0.126	
27.015	0.263	0.150	
27.020	0.333	0.182	
27.025	0.409	0.227	
27.030	0.414	0.279	
27.035	0.515	0.334	
27.040	0.542	0.391	
27.045	0.482	0.443	
27.050	0.510	0.480	
27.055	0.490	0.501	
27.060	0.397	0.506	
27.065	0.322	0.490	
27.070	0.269	0.451	
27.075	0.133	0.395	
27.080	-0.011	0.319	
27.085	-0.060	0.225	
27.090	-0.095	0.126	
27.095	-0.155	0.036	
27.100	-0.162	-0.041	
27.105	-0.168	-0.101	
27.110	-0.203	-0.145	
27.115	-0.222	-0.176	
27.120	-0.213	-0.199	
27.125	-0.210	-0.213	
27.130	-0.203	-0.219	
27.135	-0.171	-0.218	
27.140	-0.144	-0.209	
27.145	-0.142	-0.194	
27.150	-0.136	-0.177	
27.155	-0.110	-0.160	
27.160	-0.110	-0.144	
27.165	-0.124	-0.130	
27.170	-0.086	-0.120	
27.175	-0.086	-0.110	
27.180	-0.106	-0.102	
27.185	-0.090	-0.097	
27.190	-0.058	-0.093	
27.195	-0.110	-0.088	
27.200	-0.129	-0.088	
27.205	-0.106	-0.094	
27.210	-0.147	-0.102	
27.215	-0.164	-0.113	
27.220	-0.168	-0.127	
27.225	-0.170	-0.142	
27.230	-0.177	-0.154	
27.235	-0.147	-0.163	
27.240	-0.118	-0.164	
27.245	-0.138	-0.159	
27.250	-0.109	-0.150	
27.255	-0.106	-0.139	
27.260	-0.158	-0.130	
27.265	-0.167	-0.129	
27.270	-0.060	-0.130	
27.275	0.243	-0.108	
27.280	0.441	-0.038	
27.285	0.493	0.078	
27.290	0.336	0.203	
27.295	-0.077	0.276	
27.300	-0.176	0.262	
27.305	-0.150	0.180	
27.310	-0.118	0.079	
27.315	-0.069	-0.006	
27.320	-0.011	-0.059	
27.325	0.010	-0.078	
27.330	0.003	-0.072	
27.335	0.065	-0.053	
27.340	0.099	-0.022	
27.345	0.078	0.012	
27.350	0.113	0.044	
27.355	0.146	0.072	
27.360	0.178	0.100	
27.365	0.191	0.127	
27.370	0.194	0.152	
27.375	0.177	0.171	
27.380	0.235	0.185	
27.385	0.319	0.202	
27.390	0.372	0.231	
27.395	0.350	0.267	
27.400	0.437	0.306	
27.405	0.498	0.348	
27.410	0.524	0.394	
27.415	0.585	0.443	
27.420	0.676	0.494	
27.425	0.702	0.550	
27.430	0.719	0.605	
27.435	0.664	0.650	
27.440	0.602	0.674	
27.445	0.501	0.671	
27.450	0.472	0.642	
27.455	0.441	0.596	
27.460	0.293	0.539	
27.465	0.162	0.467	
27.470	0.082	0.377	
27.475	-0.009	0.278	
27.480	-0.068	0.178	
27.485	-0.071	0.086	
27.490	-0.089	0.011	
27.495	-0.141	-0.046	
27.500	-0.156	-0.090	
27.505	-0.142	-0.122	
27.510	-0.171	-0.144	
27.515	-0.161	-0.158	
27.520	-0.139	-0.165	
27.525	-0.129	-0.164	
27.530	-0.095	-0.156	
27.535	-0.075	-0.141	
27.540	-0.055	-0.122	
27.545	-0.061	-0.101	
27.550	-0.023	-0.082	
27.555	0.023	-0.061	
27.560	-0.002	-0.039	
27.565	-0.011	-0.020	
27.570	0.030	-0.007	
27.575	0.047	0.005	
27.580	-0.045	0.014	
27.585	-0.043	0.012	
27.590	-0.098	-0.002	
27.595	-0.167	-0.027	
27.600	-0.153	-0.062	
27.605	-0.129	-0.095	
27.610	-0.145	-0.119	
27.615	-0.162	-0.136	
27.620	-0.162	-0.149	
27.625	-0.170	-0.157	
27.630	-0.197	-0.165	
27.635	-0.193	-0.173	
27.640	-0.197	-0.181	
27.645	-0.268	-0.191	
27.650	-0.294	-0.208	
27.655	-0.257	-0.229	
27.660	-0.127	-0.241	
27.665	0.159	-0.218	
27.670	0.406	-0.139	
27.675	0.400	-0.011	
27.680	0.038	0.111	
27.685	-0.164	0.165	
27.690	-0.203	0.138	
27.695	-0.216	0.063	
27.700	-0.176	-0.022	
27.705	-0.135	-0.093	
27.710	-0.124	-0.137	
27.715	-0.153	-0.158	
27.720	-0.119	-0.164	
27.725	-0.119	-0.161	
27.730	-0.153	-0.153	
27.735	-0.106	-0.145	
27.740	-0.064	-0.135	
27.745	-0.077	-0.119	
27.750	-0.084	-0.103	
27.755	-0.022	-0.089	
27.760	-0.014	-0.072	
27.765	0.006	-0.052	
27.770	0.033	-0.032	
27.775	0.070	-0.009	
27.780	0.088	0.016	
27.785	0.146	0.043	
27.790	0.241	0.077	
27.795	0.250	0.121	
27.800	0.360	0.170	
27.805	0.464	0.230	
27.810	0.463	0.297	
27.815	0.490	0.362	
27.820	0.606	0.422	
27.825	0.562	0.478	
27.830	0.487	0.520	
27.835	0.319	0.530	
27.840	-0.107	0.484	
27.845	-0.440	0.357	
27.850	-0.692	0.151	
27.855	-0.833	-0.101	
27.860	-0.944	-0.359	
27.865	-0.995	-0.590	
27.870	-0.992	-0.777	
27.875	-0.989	-0.908	
27.880	-0.993	-0.988	
27.885	-0.980	-1.027	
27.890	-0.886	-1.034	
27.895	-0.854	-1.013	
27.900	-0.808	-0.973	
27.905	-0.709	-0.920	
27.910	-0.663	-0.858	
27.915	-0.617	-0.791	
27.920	-0.517	-0.724	
27.925	-0.431	-0.653	
27.930	-0.381	-0.579	
27.935	-0.320	-0.506	
27.940	-0.231	-0.434	
27.945	-0.194	-0.363	
27.950	-0.161	-0.298	
27.955	-0.089	-0.238	
27.960	-0.051	-0.183	
27.965	-0.028	-0.132	
27.970	0.049	-0.086	
27.975	0.062	-0.041	
27.980	-0.005	-0.003	
27.985	0.052	0.020	
27.990	0.110	0.038	
27.995	0.073	0.055	
28.000	0.076	0.069	
28.005	0.180	0.082	
28.010	0.230	0.104	
28.015	0.252	0.136	
28.020	0.273	0.174	
28.025	0.374	0.214	
28.030	0.298	0.255	
28.035	0.284	0.286	
28.040	0.391	0.307	
28.045	0.398	0.328	
28.050	0.521	0.356	
28.055	0.805	0.408	
28.060	0.889	0.498	
28.065	0.791	0.605	
28.070	0.539	0.686	
28.075	0.345	0.701	
28.080	0.255	0.647	
28.085	0.337	0.557	
28.090	0.450	0.473	
28.095	0.438	0.422	
28.100	0.486	0.402	
28.105	0.560	0.410	
28.110	0.570	0.438	
28.115	0.563	0.475	
28.120	0.676	0.516	
28.125	0.699	0.561	
28.130	0.585	0.602	
28.135	0.582	0.625	
28.140	0.638	0.631	
28.145	0.602	0.631	
28.150	0.635	0.628	
28.155	0.666	0.629	
28.160	0.658	0.634	
28.165	0.647	0.641	
28.170	0.683	0.647	
28.175	0.731	0.658	
28.180	0.768	0.676	
28.185	0.793	0.701	
28.190	0.878	0.734	
28.195	0.855	0.771	
28.200	0.849	0.806	
28.205	0.955	0.836	
28.210	0.858	0.863	
28.215	0.748	0.875	
28.220	0.771	0.864	
28.225	0.683	0.836	
28.230	0.508	0.790	
28.235	0.432	0.720	
28.240	0.400	0.634	
28.245	0.236	0.543	
28.250	0.151	0.445	
28.255	0.127	0.346	
28.260	0.029	0.253	
28.265	-0.038	0.167	
28.270	-0.035	0.090	
28.275	-0.051	0.029	
28.280	-0.078	-0.017	
28.285	-0.074	-0.049	
28.290	-0.042	-0.068	
28.295	-0.063	-0.075	
28.300	-0.061	-0.075	
28.305	-0.011	-0.071	
28.310	-0.013	-0.060	
28.315	-0.029	-0.046	
28.320	0.006	-0.034	
28.325	0.023	-0.022	
28.330	-0.003	-0.009	
28.335	0.013	-0.000	
28.340	0.038	0.007	
28.345	0.026	0.015	
28.350	0.000	0.020	
28.355	0.033	0.021	
28.360	-0.031	0.020	
28.365	-0.084	0.010	
28.370	-0.081	-0.009	
28.375	-0.084	-0.033	
28.380	-0.119	-0.055	
28.385	-0.133	-0.077	
28.390	-0.087	-0.095	
28.395	-0.124	-0.107	
28.400	-0.119	-0.114	
28.405	-0.072	-0.116	
28.410	-0.075	-0.112	
28.415	-0.086	-0.103	
28.420	-0.068	-0.094	
28.425	-0.066	-0.086	
28.430	-0.103	-0.080	
28.435	-0.013	-0.075	
28.440	0.156	-0.058	
28.445	0.209	-0.015	
28.450	0.175	0.043	
28.455	0.036	0.091	
28.460	-0.130	0.104	
28.465	-0.190	0.072	
28.470	-0.150	0.012	
28.475	-0.113	-0.047	
28.480	-0.110	-0.090	
28.485	-0.034	-0.112	
28.490	0.020	-0.109	
28.495	0.000	-0.087	
28.500	0.006	-0.059	
28.505	0.111	-0.029	
28.510	0.065	0.005	
28.515	0.067	0.035	
28.520	0.137	0.059	
28.525	0.169	0.083	
28.530	0.084	0.106	
28.535	0.122	0.118	
28.540	0.186	0.126	
28.545	0.145	0.137	
28.550	0.157	0.146	
28.555	0.229	0.155	
28.560	0.255	0.171	
28.565	0.256	0.193	
28.570	0.366	0.221	
28.575	0.420	0.259	
28.580	0.405	0.304	
28.585	0.460	0.348	
28.590	0.504	0.390	
28.595	0.421	0.425	
28.600	0.426	0.446	
28.605	0.489	0.455	
28.610	0.427	0.460	
28.615	0.304	0.454	
28.620	0.305	0.429	
28.625	0.201	0.389	
28.630	0.036	0.332	
28.635	-0.028	0.254	
28.640	-0.020	0.167	
28.645	-0.072	0.087	
28.650	-0.113	0.019	
28.655	-0.095	-0.037	
28.660	-0.127	-0.077	
28.665	-0.161	-0.106	
28.670	-0.116	-0.127	
28.675	-0.112	-0.137	
28.680	-0.129	-0.138	
28.685	-0.112	-0.136	
28.690	-0.052	-0.128	
28.695	-0.064	-0.113	
28.700	-0.074	-0.097	
28.705	-0.042	-0.083	
28.710	-0.048	-0.070	
28.715	-0.066	-0.060	
28.720	-0.054	-0.055	
28.725	-0.009	-0.051	
28.730	-0.054	-0.045	
28.735	-0.045	-0.041	
28.740	-0.020	-0.040	
28.745	-0.083	-0.039	
28.750	-0.100	-0.045	
28.755	-0.051	-0.055	
28.760	-0.083	-0.063	
28.765	-0.136	-0.071	
28.770	-0.121	-0.084	
28.775	-0.086	-0.096	
28.780	-0.121	-0.104	
28.785	-0.115	-0.109	
28.790	-0.071	-0.110	
28.795	-0.112	-0.108	
28.800	-0.145	-0.107	
28.805	-0.109	-0.110	
28.810	-0.142	-0.115	
28.815	-0.171	-0.122	
28.820	-0.115	-0.131	
28.825	0.009	-0.129	
28.830	0.058	-0.106	
28.835	0.105	-0.065	
28.840	0.047	-0.018	
28.845	-0.141	0.011	
28.850	-0.196	0.004	
28.855	-0.158	-0.033	
28.860	-0.135	-0.074	
28.865	-0.141	-0.107	
