Vernier Format 2
ecg1.txt 10/20/2025 9:26:16
Run 1
Time	Potential	EKG	
T	P	E	
s	mV	mV	

0.000	-0.173	-0.008	
0.005	-0.109	-0.031	
0.010	-0.065	-0.058	
0.015	-0.195	-0.081	
0.020	-0.181	-0.106	
0.025	-0.091	-0.129	
0.030	-0.187	-0.142	
0.035	-0.219	-0.153	
0.040	-0.094	-0.164	
0.045	-0.094	-0.162	
0.050	-0.211	-0.154	
0.055	-0.150	-0.152	
0.060	-0.066	-0.150	
0.065	-0.138	-0.141	
0.070	-0.037	-0.128	
0.075	0.231	-0.097	
0.080	0.098	-0.040	
0.085	-0.086	0.011	
0.090	-0.092	0.027	
0.095	-0.178	0.009	
0.100	-0.276	-0.035	
0.105	-0.167	-0.092	
0.110	-0.077	-0.134	
0.115	-0.173	-0.153	
0.120	-0.149	-0.161	
0.125	-0.019	-0.157	
0.130	-0.103	-0.140	
0.135	-0.152	-0.123	
0.140	-0.015	-0.111	
0.145	-0.050	-0.096	
0.150	-0.160	-0.083	
0.155	-0.059	-0.081	
0.160	0.013	-0.078	
0.165	-0.124	-0.069	
0.170	-0.102	-0.067	
0.175	0.049	-0.067	
0.180	-0.065	-0.058	
0.185	-0.111	-0.051	
0.190	0.059	-0.049	
0.195	0.043	-0.037	
0.200	-0.071	-0.020	
0.205	0.098	-0.009	
0.210	0.211	0.014	
0.215	0.060	0.050	
0.220	0.126	0.079	
0.225	0.330	0.109	
0.230	0.201	0.149	
0.235	0.114	0.180	
0.240	0.283	0.195	
0.245	0.198	0.207	
0.250	-0.027	0.204	
0.255	0.045	0.174	
0.260	0.071	0.133	
0.265	-0.144	0.091	
0.270	-0.149	0.036	
0.275	-0.051	-0.020	
0.280	-0.166	-0.063	
0.285	-0.222	-0.101	
0.290	-0.120	-0.134	
0.295	-0.156	-0.155	
0.300	-0.260	-0.168	
0.305	-0.185	-0.183	
0.310	-0.128	-0.192	
0.315	-0.221	-0.191	
0.320	-0.195	-0.191	
0.325	-0.106	-0.189	
0.330	-0.173	-0.179	
0.335	-0.227	-0.173	
0.340	-0.089	-0.171	
0.345	-0.103	-0.162	
0.350	-0.208	-0.151	
0.355	-0.135	-0.148	
0.360	-0.095	-0.145	
0.365	-0.207	-0.142	
0.370	-0.193	-0.147	
0.375	-0.111	-0.154	
0.380	-0.213	-0.158	
0.385	-0.263	-0.168	
0.390	-0.164	-0.184	
0.395	-0.195	-0.194	
0.400	-0.294	-0.202	
0.405	-0.207	-0.214	
0.410	-0.160	-0.221	
0.415	-0.257	-0.219	
0.420	-0.243	-0.221	
0.425	-0.155	-0.222	
0.430	-0.228	-0.218	
0.435	-0.256	-0.215	
0.440	-0.086	-0.213	
0.445	0.053	-0.189	
0.450	0.005	-0.142	
0.455	0.143	-0.083	
0.460	0.088	-0.021	
0.465	-0.224	0.018	
0.470	-0.280	0.004	
0.475	-0.198	-0.049	
0.480	-0.242	-0.108	
0.485	-0.256	-0.161	
0.490	-0.129	-0.197	
0.495	-0.137	-0.209	
0.500	-0.230	-0.205	
0.505	-0.135	-0.199	
0.510	-0.089	-0.187	
0.515	-0.202	-0.170	
0.520	-0.167	-0.161	
0.525	-0.047	-0.154	
0.530	-0.126	-0.139	
0.535	-0.167	-0.128	
0.540	-0.025	-0.122	
0.545	-0.044	-0.108	
0.550	-0.147	-0.093	
0.555	-0.041	-0.086	
0.560	0.066	-0.074	
0.565	-0.065	-0.054	
0.570	-0.008	-0.037	
0.575	0.153	-0.018	
0.580	0.086	0.012	
0.585	0.088	0.043	
0.590	0.353	0.079	
0.595	0.350	0.135	
0.600	0.194	0.195	
0.605	0.364	0.240	
0.610	0.439	0.280	
0.615	0.216	0.315	
0.620	0.216	0.325	
0.625	0.330	0.314	
0.630	0.104	0.297	
0.635	-0.033	0.257	
0.640	0.065	0.194	
0.645	-0.045	0.130	
0.650	-0.175	0.065	
0.655	-0.126	-0.003	
0.660	-0.097	-0.060	
0.665	-0.219	-0.102	
0.670	-0.196	-0.137	
0.675	-0.091	-0.162	
0.680	-0.172	-0.169	
0.685	-0.190	-0.171	
0.690	-0.053	-0.168	
0.695	-0.076	-0.152	
0.700	-0.173	-0.134	
0.705	-0.065	-0.123	
0.710	0.024	-0.108	
0.715	-0.123	-0.087	
0.720	-0.091	-0.075	
0.725	0.013	-0.069	
0.730	-0.071	-0.059	
0.735	-0.120	-0.055	
0.740	0.056	-0.055	
0.745	0.010	-0.044	
0.750	-0.138	-0.034	
0.755	-0.050	-0.037	
0.760	-0.015	-0.044	
0.765	-0.141	-0.049	
0.770	-0.120	-0.062	
0.775	-0.002	-0.074	
0.780	-0.112	-0.078	
0.785	-0.158	-0.083	
0.790	-0.041	-0.092	
0.795	-0.068	-0.093	
0.800	-0.173	-0.093	
0.805	-0.091	-0.099	
0.810	-0.039	-0.102	
0.815	-0.126	-0.098	
0.820	0.075	-0.088	
0.825	0.486	-0.043	
0.830	0.432	0.055	
0.835	0.245	0.167	
0.840	0.129	0.239	
0.845	-0.100	0.250	
0.850	-0.236	0.194	
0.855	-0.143	0.098	
0.860	-0.089	0.005	
0.865	-0.198	-0.066	
0.870	-0.155	-0.118	
0.875	-0.030	-0.147	
0.880	-0.121	-0.149	
0.885	-0.146	-0.142	
0.890	-0.008	-0.132	
0.895	-0.031	-0.112	
0.900	-0.149	-0.091	
0.905	-0.041	-0.081	
0.910	0.043	-0.070	
0.915	-0.089	-0.054	
0.920	-0.051	-0.044	
0.925	0.123	-0.035	
0.930	-0.010	-0.015	
0.935	-0.051	-0.000	
0.940	0.161	0.009	
0.945	0.138	0.031	
0.950	0.017	0.057	
0.955	0.198	0.076	
0.960	0.326	0.106	
0.965	0.179	0.148	
0.970	0.262	0.185	
0.975	0.457	0.223	
0.980	0.310	0.269	
0.985	0.233	0.302	
0.990	0.429	0.318	
0.995	0.358	0.335	
1.000	0.112	0.339	
1.005	0.178	0.313	
1.010	0.156	0.272	
1.015	-0.092	0.220	
1.020	-0.100	0.147	
1.025	-0.024	0.070	
1.030	-0.155	0.005	
1.035	-0.213	-0.053	
1.040	-0.114	-0.104	
1.045	-0.158	-0.137	
1.050	-0.253	-0.160	
1.055	-0.172	-0.180	
1.060	-0.138	-0.191	
1.065	-0.222	-0.192	
1.070	-0.181	-0.192	
1.075	-0.071	-0.187	
1.080	-0.167	-0.173	
1.085	-0.210	-0.162	
1.090	-0.063	-0.157	
1.095	-0.097	-0.146	
1.100	-0.198	-0.134	
1.105	-0.117	-0.132	
1.110	-0.079	-0.130	
1.115	-0.208	-0.127	
1.120	-0.173	-0.133	
1.125	-0.095	-0.142	
1.130	-0.201	-0.146	
1.135	-0.242	-0.155	
1.140	-0.143	-0.169	
1.145	-0.176	-0.177	
1.150	-0.274	-0.184	
1.155	-0.190	-0.196	
1.160	-0.146	-0.202	
1.165	-0.247	-0.202	
1.170	-0.222	-0.204	
1.175	-0.138	-0.206	
1.180	-0.236	-0.202	
1.185	-0.276	-0.204	
1.190	-0.150	-0.211	
1.195	-0.121	-0.207	
1.200	-0.123	-0.191	
1.205	0.082	-0.161	
1.210	0.123	-0.109	
1.215	-0.170	-0.056	
1.220	-0.237	-0.041	
1.225	-0.207	-0.065	
1.230	-0.285	-0.108	
1.235	-0.268	-0.157	
1.240	-0.111	-0.196	
1.245	-0.128	-0.207	
1.250	-0.201	-0.200	
1.255	-0.100	-0.189	
1.260	-0.037	-0.169	
1.265	-0.155	-0.143	
1.270	-0.123	-0.126	
1.275	0.022	-0.111	
1.280	-0.092	-0.092	
1.285	-0.129	-0.079	
1.290	0.046	-0.072	
1.295	0.007	-0.056	
1.300	-0.086	-0.040	
1.305	0.078	-0.028	
1.310	0.143	-0.007	
1.315	-0.037	0.019	
1.320	0.027	0.033	
1.325	0.240	0.046	
1.330	0.094	0.071	
1.335	0.066	0.093	
1.340	0.356	0.114	
1.345	0.324	0.154	
1.350	0.167	0.199	
1.355	0.370	0.232	
1.360	0.422	0.267	
1.365	0.217	0.301	
1.370	0.228	0.312	
1.375	0.376	0.308	
1.380	0.146	0.301	
1.385	0.013	0.274	
1.390	0.140	0.224	
1.395	0.036	0.173	
1.400	-0.138	0.120	
1.405	-0.054	0.058	
1.410	-0.033	0.004	
1.415	-0.172	-0.037	
1.420	-0.153	-0.075	
1.425	-0.059	-0.104	
1.430	-0.158	-0.119	
1.435	-0.176	-0.130	
1.440	-0.030	-0.136	
1.445	-0.071	-0.128	
1.450	-0.167	-0.116	
1.455	-0.063	-0.111	
1.460	-0.013	-0.102	
1.465	-0.132	-0.089	
1.470	-0.076	-0.082	
1.475	0.078	-0.073	
1.480	-0.074	-0.055	
1.485	-0.134	-0.045	
1.490	-0.007	-0.048	
1.495	-0.045	-0.050	
1.500	-0.152	-0.053	
1.505	-0.068	-0.064	
1.510	-0.047	-0.073	
1.515	-0.193	-0.080	
1.520	-0.164	-0.097	
1.525	-0.047	-0.113	
1.530	-0.155	-0.119	
1.535	-0.198	-0.126	
1.540	-0.079	-0.135	
1.545	-0.112	-0.136	
1.550	-0.198	-0.135	
1.555	-0.105	-0.137	
1.560	-0.080	-0.136	
1.565	-0.175	-0.130	
1.570	-0.118	-0.129	
1.575	0.057	-0.121	
1.580	-0.019	-0.095	
1.585	-0.034	-0.066	
1.590	0.100	-0.039	
1.595	-0.108	-0.016	
1.600	-0.262	-0.019	
1.605	-0.164	-0.054	
1.610	-0.103	-0.093	
1.615	-0.182	-0.120	
1.620	-0.121	-0.139	
1.625	0.027	-0.141	
1.630	-0.100	-0.124	
1.635	-0.123	-0.106	
1.640	0.069	-0.090	
1.645	0.005	-0.065	
1.650	-0.111	-0.042	
1.655	0.062	-0.030	
1.660	0.130	-0.012	
1.665	-0.048	0.012	
1.670	0.014	0.023	
1.675	0.159	0.031	
1.680	-0.005	0.045	
1.685	-0.031	0.048	
1.690	0.194	0.047	
1.695	0.158	0.061	
1.700	0.039	0.083	
1.705	0.190	0.097	
1.710	0.275	0.119	
1.715	0.129	0.147	
1.720	0.228	0.169	
1.725	0.422	0.195	
1.730	0.278	0.234	
1.735	0.213	0.265	
1.740	0.402	0.283	
1.745	0.315	0.300	
1.750	0.104	0.306	
1.755	0.260	0.289	
1.760	0.265	0.268	
1.765	0.007	0.245	
1.770	0.019	0.202	
1.775	0.103	0.151	
1.780	-0.085	0.104	
1.785	-0.126	0.053	
1.790	0.024	0.004	
1.795	-0.059	-0.028	
1.800	-0.158	-0.050	
1.805	-0.066	-0.072	
1.810	-0.030	-0.084	
1.815	-0.140	-0.087	
1.820	-0.112	-0.092	
1.825	0.002	-0.094	
1.830	-0.085	-0.086	
1.835	-0.100	-0.079	
1.840	0.059	-0.071	
1.845	-0.010	-0.054	
1.850	-0.131	-0.040	
1.855	-0.005	-0.038	
1.860	0.042	-0.035	
1.865	-0.120	-0.029	
1.870	-0.062	-0.032	
1.875	0.069	-0.036	
1.880	-0.091	-0.032	
1.885	-0.135	-0.036	
1.890	-0.012	-0.048	
1.895	-0.079	-0.056	
1.900	-0.182	-0.066	
1.905	-0.100	-0.084	
1.910	-0.083	-0.098	
1.915	-0.187	-0.108	
1.920	-0.129	-0.120	
1.925	-0.022	-0.126	
1.930	-0.147	-0.120	
1.935	-0.173	-0.117	
1.940	-0.037	-0.119	
1.945	-0.070	-0.113	
1.950	-0.132	-0.103	
1.955	0.083	-0.091	
1.960	0.167	-0.059	
1.965	-0.042	-0.015	
1.970	-0.080	0.010	
1.975	-0.082	0.007	
1.980	-0.207	-0.017	
1.985	-0.230	-0.059	
1.990	-0.089	-0.103	
1.995	-0.088	-0.129	
2.000	-0.152	-0.137	
2.005	-0.044	-0.136	
2.010	0.007	-0.121	
2.015	-0.120	-0.098	
2.020	-0.060	-0.082	
2.025	0.062	-0.068	
2.030	-0.080	-0.049	
2.035	-0.092	-0.039	
2.040	0.095	-0.035	
2.045	0.007	-0.022	
2.050	-0.100	-0.011	
2.055	0.062	-0.010	
2.060	0.123	-0.000	
2.065	-0.025	0.017	
2.070	0.043	0.028	
2.075	0.211	0.041	
2.080	0.056	0.064	
2.085	0.053	0.080	
2.090	0.291	0.095	
2.095	0.246	0.125	
2.100	0.130	0.159	
2.105	0.275	0.182	
2.110	0.350	0.208	
2.115	0.179	0.235	
2.120	0.263	0.250	
2.125	0.411	0.263	
2.130	0.199	0.280	
2.135	0.068	0.277	
2.140	0.194	0.249	
2.145	0.074	0.214	
2.150	-0.086	0.169	
2.155	0.016	0.112	
2.160	0.017	0.061	
2.165	-0.155	0.020	
2.170	-0.111	-0.022	
2.175	-0.033	-0.058	
2.180	-0.166	-0.080	
2.185	-0.169	-0.101	
2.190	-0.037	-0.118	
2.195	-0.088	-0.120	
2.200	-0.173	-0.116	
2.205	-0.068	-0.116	
2.210	-0.025	-0.110	
2.215	-0.141	-0.099	
2.220	-0.083	-0.093	
2.225	0.033	-0.086	
2.230	-0.095	-0.072	
2.235	-0.124	-0.064	
2.240	0.017	-0.064	
2.245	-0.053	-0.059	
2.250	-0.156	-0.056	
2.255	-0.045	-0.064	
2.260	-0.033	-0.069	
2.265	-0.179	-0.072	
2.270	-0.141	-0.085	
2.275	-0.070	-0.100	
2.280	-0.173	-0.110	
2.285	-0.208	-0.123	
2.290	-0.088	-0.138	
2.295	-0.129	-0.144	
2.300	-0.214	-0.146	
2.305	-0.111	-0.151	
2.310	-0.097	-0.150	
2.315	-0.213	-0.146	
2.320	-0.158	-0.148	
2.325	-0.037	-0.148	
2.330	-0.105	-0.136	
2.335	-0.057	-0.119	
2.340	0.194	-0.090	
2.345	0.100	-0.039	
2.350	-0.138	0.005	
2.355	-0.132	0.011	
2.360	-0.170	-0.014	
2.365	-0.253	-0.057	
2.370	-0.169	-0.107	
2.375	-0.047	-0.141	
2.380	-0.135	-0.150	
2.385	-0.147	-0.148	
2.390	0.004	-0.140	
2.395	-0.060	-0.119	
2.400	-0.137	-0.098	
2.405	-0.005	-0.086	
2.410	0.043	-0.069	
2.415	-0.108	-0.049	
2.420	-0.047	-0.040	
2.425	0.123	-0.032	
2.430	-0.024	-0.014	
2.435	-0.030	-0.001	
2.440	0.155	0.010	
2.445	0.086	0.030	
2.450	-0.033	0.048	
2.455	0.153	0.056	
2.460	0.214	0.072	
2.465	0.075	0.097	
2.470	0.181	0.116	
2.475	0.344	0.141	
2.480	0.214	0.177	
2.485	0.207	0.207	
2.490	0.423	0.232	
2.495	0.342	0.266	
2.500	0.207	0.294	
2.505	0.364	0.306	
2.510	0.365	0.315	
2.515	0.107	0.317	
2.520	0.129	0.292	
2.525	0.181	0.251	
2.530	-0.034	0.206	
2.535	-0.088	0.146	
2.540	0.036	0.082	
2.545	-0.065	0.032	
2.550	-0.163	-0.011	
2.555	-0.073	-0.051	
2.560	-0.068	-0.079	
2.565	-0.182	-0.096	
2.570	-0.132	-0.113	
2.575	-0.013	-0.121	
2.580	-0.115	-0.116	
2.585	-0.121	-0.109	
2.590	0.030	-0.100	
2.595	-0.042	-0.082	
2.600	-0.129	-0.067	
2.605	0.011	-0.060	
2.610	0.016	-0.050	
2.615	-0.135	-0.040	
2.620	-0.079	-0.043	
2.625	0.002	-0.050	
2.630	-0.111	-0.053	
2.635	-0.120	-0.060	
2.640	0.002	-0.069	
2.645	-0.103	-0.070	
2.650	-0.179	-0.076	
2.655	-0.092	-0.090	
2.660	-0.077	-0.101	
2.665	-0.198	-0.108	
2.670	-0.149	-0.120	
2.675	-0.073	-0.130	
2.680	-0.156	-0.132	
2.685	-0.175	-0.134	
2.690	-0.086	-0.138	
2.695	-0.155	-0.138	
2.700	-0.211	-0.140	
2.705	-0.085	-0.146	
2.710	0.019	-0.139	
2.715	-0.022	-0.113	
2.720	0.150	-0.073	
2.725	0.263	-0.015	
2.730	-0.070	0.044	
2.735	-0.208	0.061	
2.740	-0.152	0.029	
2.745	-0.201	-0.025	
2.750	-0.233	-0.083	
2.755	-0.099	-0.132	
2.760	-0.076	-0.155	
2.765	-0.176	-0.157	
2.770	-0.115	-0.154	
2.775	-0.033	-0.145	
2.780	-0.123	-0.127	
2.785	-0.124	-0.114	
2.790	0.053	-0.101	
2.795	-0.036	-0.079	
2.800	-0.115	-0.059	
2.805	0.042	-0.049	
2.810	0.074	-0.033	
2.815	-0.079	-0.014	
2.820	-0.027	-0.007	
2.825	0.109	-0.004	
2.830	-0.013	0.007	
2.835	0.028	0.016	
2.840	0.227	0.030	
2.845	0.167	0.061	
2.850	0.078	0.095	
2.855	0.292	0.122	
2.860	0.344	0.160	
2.865	0.191	0.203	
2.870	0.303	0.234	
2.875	0.440	0.263	
2.880	0.275	0.296	
2.885	0.231	0.314	
2.890	0.370	0.316	
2.895	0.196	0.313	
2.900	-0.001	0.288	
2.905	0.143	0.239	
2.910	0.111	0.188	
2.915	-0.108	0.141	
2.920	-0.073	0.083	
2.925	0.001	0.028	
2.930	-0.137	-0.014	
2.935	-0.158	-0.052	
2.940	-0.047	-0.084	
2.945	-0.112	-0.101	
2.950	-0.175	-0.111	
2.955	-0.047	-0.119	
2.960	-0.030	-0.115	
2.965	-0.164	-0.104	
2.970	-0.108	-0.101	
2.975	0.013	-0.098	
2.980	-0.099	-0.086	
2.985	-0.106	-0.078	
2.990	0.053	-0.072	
2.995	-0.039	-0.057	
3.000	-0.138	-0.047	
3.005	-0.036	-0.050	
3.010	-0.021	-0.052	
3.015	-0.158	-0.055	
3.020	-0.097	-0.066	
3.025	-0.037	-0.077	
3.030	-0.169	-0.084	
3.035	-0.182	-0.098	
3.040	-0.088	-0.115	
3.045	-0.164	-0.127	
3.050	-0.239	-0.139	
3.055	-0.128	-0.155	
3.060	-0.109	-0.162	
3.065	-0.207	-0.161	
3.070	-0.152	-0.162	
3.075	-0.088	-0.160	
3.080	-0.198	-0.154	
3.085	-0.184	-0.153	
3.090	0.045	-0.149	
3.095	0.149	-0.116	
3.100	0.118	-0.058	
3.105	0.272	0.012	
3.110	0.062	0.077	
3.115	-0.231	0.103	
3.120	-0.231	0.067	
3.125	-0.166	-0.002	
3.130	-0.239	-0.073	
3.135	-0.210	-0.134	
3.140	-0.063	-0.172	
3.145	-0.120	-0.180	
3.150	-0.178	-0.173	
3.155	-0.036	-0.162	
3.160	-0.025	-0.139	
3.165	-0.152	-0.113	
3.170	-0.080	-0.098	
3.175	0.024	-0.086	
3.180	-0.105	-0.071	
3.185	-0.106	-0.064	
3.190	0.082	-0.059	
3.195	0.011	-0.043	
3.200	-0.076	-0.026	
3.205	0.083	-0.015	
3.210	0.127	0.003	
3.215	-0.033	0.025	
3.220	0.095	0.039	
3.225	0.240	0.057	
3.230	0.098	0.086	
3.235	0.146	0.112	
3.240	0.370	0.139	
3.245	0.283	0.180	
3.250	0.201	0.220	
3.255	0.364	0.247	
3.260	0.346	0.274	
3.265	0.121	0.290	
3.270	0.184	0.281	
3.275	0.231	0.257	
3.280	-0.005	0.228	
3.285	-0.068	0.178	
3.290	0.033	0.116	
3.295	-0.105	0.059	
3.300	-0.195	0.003	
3.305	-0.112	-0.053	
3.310	-0.135	-0.096	
3.315	-0.245	-0.129	
3.320	-0.182	-0.158	
3.325	-0.123	-0.177	
3.330	-0.210	-0.183	
3.335	-0.195	-0.187	
3.340	-0.074	-0.185	
3.345	-0.137	-0.172	
3.350	-0.201	-0.159	
3.355	-0.062	-0.151	
3.360	-0.056	-0.137	
3.365	-0.167	-0.120	
3.370	-0.077	-0.112	
3.375	0.001	-0.101	
3.380	-0.131	-0.087	
3.385	-0.137	-0.083	
3.390	0.011	-0.083	
3.395	-0.071	-0.077	
3.400	-0.161	-0.073	
3.405	-0.074	-0.079	
3.410	-0.082	-0.085	
3.415	-0.201	-0.093	
3.420	-0.147	-0.109	
3.425	-0.088	-0.123	
3.430	-0.189	-0.131	
3.435	-0.182	-0.141	
3.440	-0.080	-0.149	
3.445	-0.143	-0.148	
3.450	-0.216	-0.147	
3.455	-0.108	-0.151	
3.460	-0.114	-0.150	
3.465	-0.208	-0.147	
3.470	-0.085	-0.147	
3.475	0.202	-0.128	
3.480	0.255	-0.068	
3.485	0.301	0.020	
3.490	0.385	0.118	
3.495	-0.028	0.192	
3.500	-0.231	0.197	
3.505	-0.158	0.134	
3.510	-0.143	0.046	
3.515	-0.218	-0.036	
3.520	-0.150	-0.104	
3.525	-0.062	-0.144	
3.530	-0.153	-0.157	
3.535	-0.141	-0.158	
3.540	0.004	-0.150	
3.545	-0.076	-0.127	
3.550	-0.147	-0.106	
3.555	0.001	-0.094	
3.560	0.008	-0.076	
3.565	-0.111	-0.058	
3.570	-0.007	-0.049	
3.575	0.115	-0.035	
3.580	-0.034	-0.014	
3.585	-0.031	0.000	
3.590	0.149	0.009	
3.595	0.086	0.028	
3.600	0.022	0.048	
3.605	0.248	0.067	
3.610	0.301	0.101	
3.615	0.149	0.146	
3.620	0.309	0.182	
3.625	0.465	0.224	
3.630	0.304	0.274	
3.635	0.330	0.313	
3.640	0.532	0.343	
3.645	0.390	0.377	
3.650	0.262	0.397	
3.655	0.397	0.394	
3.660	0.303	0.382	
3.665	0.016	0.353	
3.670	0.080	0.293	
3.675	0.109	0.222	
3.680	-0.108	0.155	
3.685	-0.132	0.083	
3.690	-0.041	0.013	
3.695	-0.132	-0.040	
3.700	-0.202	-0.082	
3.705	-0.106	-0.117	
3.710	-0.118	-0.137	
3.715	-0.211	-0.148	
3.720	-0.160	-0.158	
3.725	-0.080	-0.162	
3.730	-0.179	-0.157	
3.735	-0.156	-0.153	
3.740	-0.045	-0.148	
3.745	-0.106	-0.134	
3.750	-0.163	-0.122	
3.755	-0.034	-0.115	
3.760	-0.060	-0.104	
3.765	-0.173	-0.094	
3.770	-0.100	-0.096	
3.775	-0.025	-0.097	
3.780	-0.153	-0.094	
3.785	-0.163	-0.098	
3.790	-0.077	-0.107	
3.795	-0.161	-0.114	
3.800	-0.242	-0.126	
3.805	-0.147	-0.145	
3.810	-0.156	-0.160	
3.815	-0.256	-0.171	
3.820	-0.192	-0.184	
3.825	-0.103	-0.191	
3.830	-0.213	-0.187	
3.835	-0.213	-0.185	
3.840	-0.117	-0.185	
3.845	-0.181	-0.179	
3.850	-0.218	-0.176	
3.855	-0.065	-0.173	
3.860	0.046	-0.154	
3.865	-0.012	-0.115	
3.870	0.135	-0.067	
3.875	0.103	-0.015	
3.880	-0.208	0.020	
3.885	-0.274	0.006	
3.890	-0.189	-0.045	
3.895	-0.221	-0.103	
3.900	-0.245	-0.152	
3.905	-0.114	-0.186	
3.910	-0.103	-0.195	
3.915	-0.201	-0.188	
3.920	-0.118	-0.178	
3.925	-0.034	-0.162	
3.930	-0.143	-0.140	
3.935	-0.126	-0.123	
3.940	0.017	-0.110	
3.945	-0.073	-0.091	
3.950	-0.120	-0.076	
3.955	0.048	-0.067	
3.960	0.053	-0.049	
3.965	-0.088	-0.028	
3.970	0.014	-0.017	
3.975	0.138	-0.005	
3.980	-0.002	0.015	
3.985	0.013	0.029	
3.990	0.240	0.042	
3.995	0.170	0.072	
4.000	0.086	0.104	
4.005	0.327	0.131	
4.010	0.364	0.172	
4.015	0.207	0.218	
4.020	0.339	0.252	
4.025	0.405	0.282	
4.030	0.194	0.306	
4.035	0.187	0.307	
4.040	0.333	0.293	
4.045	0.143	0.277	
4.050	-0.021	0.246	
4.055	0.074	0.194	
4.060	-0.001	0.138	
4.065	-0.153	0.081	
4.070	-0.097	0.020	
4.075	-0.063	-0.033	
4.080	-0.196	-0.072	
4.085	-0.190	-0.108	
4.090	-0.074	-0.136	
4.095	-0.147	-0.147	
4.100	-0.201	-0.151	
4.105	-0.074	-0.154	
4.110	-0.076	-0.147	
4.115	-0.182	-0.135	
4.120	-0.097	-0.129	
4.125	-0.013	-0.120	
4.130	-0.146	-0.106	
4.135	-0.128	-0.100	
4.140	0.017	-0.096	
4.145	-0.092	-0.085	
4.150	-0.156	-0.078	
4.155	-0.018	-0.081	
4.160	-0.050	-0.078	
4.165	-0.167	-0.075	
4.170	-0.105	-0.083	
4.175	-0.056	-0.091	
4.180	-0.189	-0.097	
4.185	-0.182	-0.110	
4.190	-0.080	-0.126	
4.195	-0.155	-0.133	
4.200	-0.208	-0.140	
4.205	-0.106	-0.149	
4.210	-0.132	-0.151	
4.215	-0.224	-0.152	
4.220	-0.132	-0.157	
4.225	-0.071	-0.156	
4.230	-0.184	-0.148	
4.235	-0.181	-0.146	
4.240	0.005	-0.142	
4.245	0.007	-0.122	
4.250	-0.063	-0.092	
4.255	0.071	-0.062	
4.260	-0.079	-0.036	
4.265	-0.256	-0.032	
4.270	-0.202	-0.061	
4.275	-0.134	-0.101	
4.280	-0.208	-0.133	
4.285	-0.161	-0.157	
4.290	-0.021	-0.165	
4.295	-0.102	-0.153	
4.300	-0.160	-0.136	
4.305	-0.037	-0.124	
4.310	-0.002	-0.106	
4.315	-0.115	-0.085	
4.320	-0.012	-0.070	
4.325	0.082	-0.053	
4.330	-0.074	-0.031	
4.335	-0.044	-0.019	
4.340	0.118	-0.012	
4.345	-0.010	0.002	
4.350	-0.068	0.010	
4.355	0.147	0.012	
4.360	0.146	0.028	
4.365	-0.024	0.050	
4.370	0.107	0.061	
4.375	0.191	0.073	
4.380	0.049	0.090	
4.385	0.132	0.101	
4.390	0.353	0.119	
4.395	0.240	0.155	
4.400	0.165	0.191	
4.405	0.355	0.216	
4.410	0.315	0.243	
4.415	0.111	0.262	
4.420	0.227	0.258	
4.425	0.237	0.246	
4.430	0.007	0.227	
4.435	-0.005	0.187	
4.440	0.100	0.137	
4.445	-0.056	0.094	
4.450	-0.143	0.048	
4.455	-0.037	-0.001	
4.460	-0.085	-0.039	
4.465	-0.193	-0.069	
4.470	-0.126	-0.098	
4.475	-0.070	-0.118	
4.480	-0.170	-0.127	
4.485	-0.143	-0.133	
4.490	-0.018	-0.133	
4.495	-0.106	-0.122	
4.500	-0.155	-0.112	
4.505	-0.016	-0.106	
4.510	-0.039	-0.094	
4.515	-0.158	-0.082	
4.520	-0.054	-0.080	
4.525	0.028	-0.076	
4.530	-0.118	-0.065	
4.535	-0.099	-0.061	
4.540	0.025	-0.062	
4.545	-0.086	-0.057	
4.550	-0.138	-0.057	
4.555	-0.034	-0.065	
4.560	-0.071	-0.070	
4.565	-0.198	-0.076	
4.570	-0.134	-0.093	
4.575	-0.089	-0.110	
4.580	-0.213	-0.122	
4.585	-0.190	-0.138	
4.590	-0.085	-0.152	
4.595	-0.164	-0.155	
4.600	-0.216	-0.156	
4.605	-0.076	-0.160	
4.610	-0.082	-0.152	
4.615	-0.193	-0.141	
4.620	-0.099	-0.135	
4.625	0.028	-0.124	
4.630	-0.062	-0.101	
4.635	0.008	-0.075	
4.640	0.129	-0.044	
4.645	-0.118	-0.014	
4.650	-0.237	-0.013	
4.655	-0.156	-0.044	
4.660	-0.176	-0.085	
4.665	-0.243	-0.124	
4.670	-0.123	-0.157	
4.675	-0.027	-0.168	
4.680	-0.143	-0.157	
4.685	-0.114	-0.142	
4.690	0.025	-0.125	
4.695	-0.074	-0.099	
4.700	-0.129	-0.080	
4.705	0.031	-0.070	
4.710	0.005	-0.055	
4.715	-0.117	-0.041	
4.720	0.017	-0.036	
4.725	0.103	-0.026	
4.730	-0.083	-0.010	
4.735	-0.063	-0.006	
4.740	0.135	-0.006	
4.745	0.031	0.006	
4.750	-0.033	0.018	
4.755	0.185	0.028	
4.760	0.155	0.050	
4.765	0.022	0.076	
4.770	0.216	0.093	
4.775	0.326	0.121	
4.780	0.138	0.158	
4.785	0.199	0.185	
4.790	0.352	0.204	
4.795	0.185	0.227	
4.800	0.074	0.232	
4.805	0.255	0.220	
4.810	0.149	0.207	
4.815	-0.062	0.185	
4.820	0.040	0.143	
4.825	0.054	0.099	
4.830	-0.118	0.061	
4.835	-0.120	0.017	
4.840	-0.013	-0.025	
4.845	-0.128	-0.054	
4.850	-0.179	-0.078	
4.855	-0.062	-0.101	
4.860	-0.091	-0.112	
4.865	-0.187	-0.117	
4.870	-0.099	-0.123	
4.875	-0.045	-0.124	
4.880	-0.166	-0.117	
4.885	-0.134	-0.116	
4.890	0.014	-0.113	
4.895	-0.088	-0.100	
4.900	-0.149	-0.089	
4.905	0.019	-0.084	
4.910	-0.025	-0.073	
4.915	-0.146	-0.062	
4.920	-0.041	-0.061	
4.925	0.036	-0.059	
4.930	-0.128	-0.051	
4.935	-0.109	-0.053	
4.940	-0.007	-0.060	
4.945	-0.132	-0.065	
4.950	-0.201	-0.077	
4.955	-0.089	-0.097	
4.960	-0.132	-0.113	
4.965	-0.222	-0.126	
4.970	-0.123	-0.142	
4.975	-0.088	-0.149	
4.980	-0.187	-0.147	
4.985	-0.161	-0.148	
4.990	-0.036	-0.146	
4.995	-0.141	-0.136	
5.000	-0.182	-0.129	
5.005	-0.019	-0.126	
5.010	0.021	-0.110	
5.015	-0.056	-0.084	
5.020	0.072	-0.056	
5.025	0.065	-0.025	
5.030	-0.198	-0.005	
5.035	-0.237	-0.020	
5.040	-0.149	-0.062	
5.045	-0.208	-0.105	
5.050	-0.205	-0.143	
5.055	-0.044	-0.165	
5.060	-0.065	-0.163	
5.065	-0.155	-0.146	
5.070	-0.062	-0.131	
5.075	0.007	-0.112	
5.080	-0.120	-0.090	
5.085	-0.100	-0.078	
5.090	0.066	-0.069	
5.095	-0.050	-0.053	
5.100	-0.103	-0.041	
5.105	0.074	-0.037	
5.110	0.048	-0.023	
5.115	-0.102	-0.009	
5.120	0.036	-0.006	
5.125	0.124	0.001	
5.130	-0.045	0.015	
5.135	0.045	0.023	
5.140	0.231	0.035	
5.145	0.103	0.063	
5.150	0.065	0.088	
5.155	0.306	0.109	
5.160	0.263	0.143	
5.165	0.129	0.177	
5.170	0.310	0.200	
5.175	0.384	0.226	
5.180	0.167	0.255	
5.185	0.170	0.263	
5.190	0.317	0.256	
5.195	0.100	0.248	
5.200	-0.027	0.220	
5.205	0.133	0.174	
5.210	0.017	0.131	
5.215	-0.147	0.087	
5.220	-0.073	0.033	
5.225	-0.041	-0.015	
5.230	-0.172	-0.051	
5.235	-0.156	-0.084	
5.240	-0.053	-0.110	
5.245	-0.156	-0.121	
5.250	-0.190	-0.130	
5.255	-0.053	-0.138	
5.260	-0.073	-0.133	
5.265	-0.173	-0.123	
5.270	-0.065	-0.118	
5.275	-0.010	-0.108	
5.280	-0.153	-0.094	
5.285	-0.118	-0.090	
5.290	0.034	-0.088	
5.295	-0.089	-0.077	
5.300	-0.129	-0.070	
5.305	0.013	-0.069	
5.310	-0.030	-0.062	
5.315	-0.146	-0.056	
5.320	-0.059	-0.060	
5.325	-0.027	-0.065	
5.330	-0.172	-0.068	
5.335	-0.160	-0.081	
5.340	-0.062	-0.099	
5.345	-0.166	-0.110	
5.350	-0.211	-0.123	
5.355	-0.086	-0.138	
5.360	-0.123	-0.143	
5.365	-0.228	-0.145	
5.370	-0.131	-0.152	
5.375	-0.095	-0.154	
5.380	-0.201	-0.151	
5.385	-0.156	-0.152	
5.390	0.001	-0.148	
5.395	-0.036	-0.127	
5.400	-0.021	-0.098	
5.405	0.201	-0.060	
5.410	0.068	-0.009	
5.415	-0.196	0.024	
5.420	-0.172	0.013	
5.425	-0.161	-0.027	
5.430	-0.259	-0.077	
5.435	-0.192	-0.127	
5.440	-0.051	-0.160	
5.445	-0.149	-0.167	
5.450	-0.187	-0.165	
5.455	-0.033	-0.159	
5.460	-0.082	-0.142	
5.465	-0.163	-0.124	
5.470	-0.051	-0.113	
5.475	0.043	-0.098	
5.480	-0.112	-0.075	
5.485	-0.071	-0.062	
5.490	0.089	-0.052	
5.495	-0.047	-0.034	
5.500	-0.082	-0.023	
5.505	0.129	-0.017	
5.510	0.060	-0.000	
5.515	-0.071	0.016	
5.520	0.117	0.023	
5.525	0.230	0.040	
5.530	0.042	0.070	
5.535	0.107	0.091	
5.540	0.306	0.110	
5.545	0.210	0.142	
5.550	0.185	0.174	
5.555	0.399	0.203	
5.560	0.344	0.240	
5.565	0.146	0.272	
5.570	0.283	0.279	
5.575	0.320	0.279	
5.580	0.030	0.271	
5.585	0.017	0.236	
5.590	0.127	0.184	
5.595	-0.076	0.133	
5.600	-0.153	0.076	
5.605	-0.041	0.014	
5.610	-0.100	-0.035	
5.615	-0.202	-0.072	
5.620	-0.129	-0.107	
5.625	-0.105	-0.130	
5.630	-0.213	-0.143	
5.635	-0.173	-0.155	
5.640	-0.070	-0.162	
5.645	-0.156	-0.157	
5.650	-0.166	-0.151	
5.655	-0.016	-0.143	
5.660	-0.057	-0.125	
5.665	-0.172	-0.107	
5.670	-0.060	-0.099	
5.675	-0.018	-0.092	
5.680	-0.152	-0.082	
5.685	-0.114	-0.083	
5.690	0.011	-0.085	
5.695	-0.124	-0.080	
5.700	-0.160	-0.081	
5.705	-0.027	-0.088	
5.710	-0.100	-0.090	
5.715	-0.219	-0.095	
5.720	-0.128	-0.111	
5.725	-0.094	-0.124	
5.730	-0.216	-0.132	
5.735	-0.189	-0.145	
5.740	-0.092	-0.156	
5.745	-0.172	-0.158	
5.750	-0.204	-0.159	
5.755	-0.100	-0.162	
5.760	-0.138	-0.158	
5.765	-0.231	-0.155	
5.770	-0.115	-0.158	
5.775	-0.019	-0.153	
5.780	-0.053	-0.131	
5.785	0.114	-0.097	
5.790	0.303	-0.040	
5.795	0.010	0.029	
5.800	-0.176	0.064	
5.805	-0.134	0.048	
5.810	-0.181	0.002	
5.815	-0.253	-0.055	
5.820	-0.144	-0.112	
5.825	-0.080	-0.147	
5.830	-0.184	-0.160	
5.835	-0.132	-0.164	
5.840	-0.004	-0.156	
5.845	-0.126	-0.136	
5.850	-0.153	-0.120	
5.855	0.017	-0.109	
5.860	-0.024	-0.090	
5.865	-0.129	-0.071	
5.870	-0.008	-0.063	
5.875	0.056	-0.051	
5.880	-0.099	-0.035	
5.885	-0.036	-0.030	
5.890	0.135	-0.023	
5.895	-0.012	-0.005	
5.900	-0.036	0.008	
5.905	0.184	0.018	
5.910	0.165	0.042	
5.915	0.043	0.072	
5.920	0.265	0.097	
5.925	0.335	0.134	
5.930	0.184	0.178	
5.935	0.257	0.212	
5.940	0.440	0.242	
5.945	0.283	0.277	
5.950	0.214	0.300	
5.955	0.393	0.307	
5.960	0.263	0.312	
5.965	0.028	0.300	
5.970	0.126	0.260	
5.975	0.133	0.211	
5.980	-0.095	0.162	
5.985	-0.100	0.100	
5.990	-0.028	0.037	
5.995	-0.160	-0.016	
6.000	-0.187	-0.063	
6.005	-0.059	-0.103	
6.010	-0.117	-0.122	
6.015	-0.207	-0.132	
6.020	-0.099	-0.142	
6.025	-0.062	-0.142	
6.030	-0.187	-0.135	
6.035	-0.150	-0.133	
6.040	-0.024	-0.132	
6.045	-0.121	-0.121	
6.050	-0.146	-0.113	
6.055	-0.008	-0.107	
6.060	-0.059	-0.095	
6.065	-0.170	-0.085	
6.070	-0.080	-0.087	
6.075	-0.018	-0.087	
6.080	-0.143	-0.084	
6.085	-0.115	-0.086	
6.090	-0.021	-0.089	
6.095	-0.167	-0.089	
6.100	-0.211	-0.099	
6.105	-0.089	-0.117	
6.110	-0.141	-0.129	
6.115	-0.237	-0.139	
6.120	-0.141	-0.153	
6.125	-0.118	-0.161	
6.130	-0.242	-0.164	
6.135	-0.201	-0.172	
6.140	-0.102	-0.179	
6.145	-0.199	-0.177	
6.150	-0.219	-0.177	
6.155	-0.079	-0.177	
6.160	-0.070	-0.165	
6.165	-0.053	-0.141	
6.170	0.275	-0.099	
6.175	0.365	-0.020	
6.180	0.022	0.070	
6.185	-0.123	0.115	
6.190	-0.135	0.099	
6.195	-0.251	0.043	
6.200	-0.259	-0.034	
6.205	-0.118	-0.106	
6.210	-0.135	-0.151	
6.215	-0.230	-0.174	
6.220	-0.120	-0.186	
6.225	-0.071	-0.183	
6.230	-0.178	-0.168	
6.235	-0.117	-0.154	
6.240	0.014	-0.138	
6.245	-0.120	-0.114	
6.250	-0.132	-0.097	
6.255	0.040	-0.087	
6.260	-0.019	-0.069	
6.265	-0.115	-0.053	
6.270	0.021	-0.046	
6.275	0.091	-0.033	
6.280	-0.065	-0.014	
6.285	0.022	-0.003	
6.290	0.202	0.011	
6.295	0.069	0.039	
6.300	0.072	0.065	
6.305	0.341	0.091	
6.310	0.307	0.136	
6.315	0.176	0.185	
6.320	0.428	0.226	
6.325	0.483	0.274	
6.330	0.289	0.324	
6.335	0.344	0.354	
6.340	0.469	0.370	
6.345	0.240	0.380	
6.350	0.112	0.364	
6.355	0.220	0.320	
6.360	0.082	0.269	
6.365	-0.105	0.207	
6.370	-0.036	0.131	
6.375	-0.060	0.058	
6.380	-0.201	-0.005	
6.385	-0.161	-0.064	
6.390	-0.094	-0.109	
6.395	-0.198	-0.137	
6.400	-0.227	-0.158	
6.405	-0.109	-0.174	
6.410	-0.150	-0.178	
6.415	-0.233	-0.176	
6.420	-0.108	-0.176	
6.425	-0.073	-0.168	
6.430	-0.187	-0.153	
6.435	-0.144	-0.145	
6.440	-0.022	-0.137	
6.445	-0.128	-0.122	
6.450	-0.152	-0.112	
6.455	-0.034	-0.108	
6.460	-0.082	-0.100	
6.465	-0.170	-0.095	
6.470	-0.057	-0.097	
6.475	-0.041	-0.095	
6.480	-0.190	-0.092	
6.485	-0.172	-0.100	
6.490	-0.086	-0.115	
6.495	-0.205	-0.126	
6.500	-0.221	-0.141	
6.505	-0.108	-0.158	
6.510	-0.161	-0.164	
6.515	-0.233	-0.168	
6.520	-0.135	-0.173	
6.525	-0.111	-0.173	
6.530	-0.222	-0.167	
6.535	-0.198	-0.168	
6.540	-0.099	-0.171	
6.545	-0.172	-0.167	
6.550	-0.112	-0.159	
6.555	0.294	-0.131	
6.560	0.353	-0.055	
6.565	0.179	0.047	
6.570	0.126	0.127	
6.575	-0.080	0.159	
6.580	-0.285	0.131	
6.585	-0.248	0.051	
6.590	-0.138	-0.040	
6.595	-0.196	-0.110	
6.600	-0.196	-0.158	
6.605	-0.053	-0.182	
6.610	-0.105	-0.179	
6.615	-0.198	-0.166	
6.620	-0.063	-0.155	
6.625	-0.005	-0.136	
6.630	-0.138	-0.111	
6.635	-0.082	-0.095	
6.640	0.069	-0.081	
6.645	-0.074	-0.059	
6.650	-0.102	-0.046	
6.655	0.092	-0.040	
6.660	0.066	-0.022	
6.665	-0.060	-0.002	
6.670	0.127	0.012	
6.675	0.187	0.034	
6.680	0.014	0.062	
6.685	0.158	0.082	
6.690	0.338	0.107	
6.695	0.208	0.148	
6.700	0.217	0.186	
6.705	0.497	0.222	
6.710	0.445	0.276	
6.715	0.278	0.328	
6.720	0.443	0.360	
6.725	0.439	0.383	
6.730	0.179	0.393	
6.735	0.225	0.372	
6.740	0.320	0.337	
6.745	0.051	0.300	
6.750	-0.042	0.244	
6.755	0.059	0.172	
6.760	-0.080	0.105	
6.765	-0.202	0.039	
6.770	-0.099	-0.028	
6.775	-0.082	-0.078	
6.780	-0.224	-0.110	
6.785	-0.176	-0.139	
6.790	-0.085	-0.157	
6.795	-0.178	-0.162	
6.800	-0.201	-0.164	
6.805	-0.051	-0.163	
6.810	-0.086	-0.151	
6.815	-0.179	-0.136	
6.820	-0.056	-0.126	
6.825	-0.028	-0.113	
6.830	-0.166	-0.099	
6.835	-0.115	-0.095	
6.840	-0.018	-0.095	
6.845	-0.140	-0.091	
6.850	-0.167	-0.093	
6.855	-0.022	-0.100	
6.860	-0.102	-0.100	
6.865	-0.196	-0.100	
6.870	-0.106	-0.110	
6.875	-0.099	-0.118	
6.880	-0.234	-0.125	
6.885	-0.199	-0.140	
6.890	-0.114	-0.157	
6.895	-0.216	-0.165	
6.900	-0.237	-0.175	
6.905	-0.117	-0.185	
6.910	-0.156	-0.185	
6.915	-0.233	-0.181	
6.920	-0.144	-0.181	
6.925	-0.131	-0.178	
6.930	-0.233	-0.173	
6.935	-0.160	-0.173	
6.940	0.031	-0.166	
6.945	0.002	-0.136	
6.950	0.017	-0.093	
6.955	0.178	-0.046	
6.960	-0.073	0.000	
6.965	-0.263	0.012	
6.970	-0.208	-0.022	
6.975	-0.169	-0.073	
6.980	-0.243	-0.122	
6.985	-0.158	-0.160	
6.990	-0.037	-0.178	
6.995	-0.152	-0.171	
7.000	-0.160	-0.159	
7.005	0.002	-0.146	
7.010	-0.044	-0.121	
7.015	-0.143	-0.097	
7.020	0.005	-0.083	
7.025	0.034	-0.065	
7.030	-0.102	-0.045	
7.035	-0.037	-0.037	
7.040	0.109	-0.029	
7.045	-0.008	-0.012	
7.050	-0.042	0.001	
7.055	0.164	0.011	
7.060	0.130	0.032	
7.065	-0.008	0.056	
7.070	0.184	0.072	
7.075	0.254	0.094	
7.080	0.080	0.123	
7.085	0.194	0.143	
7.090	0.367	0.165	
7.095	0.216	0.198	
7.100	0.204	0.224	
7.105	0.423	0.244	
7.110	0.327	0.272	
7.115	0.147	0.292	
7.120	0.315	0.291	
7.125	0.277	0.286	
7.130	0.016	0.271	
7.135	0.019	0.229	
7.140	0.109	0.174	
7.145	-0.077	0.122	
7.150	-0.123	0.066	
7.155	0.001	0.011	
7.160	-0.083	-0.027	
7.165	-0.195	-0.057	
7.170	-0.103	-0.088	
7.175	-0.074	-0.109	
7.180	-0.196	-0.120	
7.185	-0.132	-0.131	
7.190	-0.025	-0.134	
7.195	-0.149	-0.127	
7.200	-0.160	-0.122	
7.205	-0.010	-0.119	
7.210	-0.068	-0.107	
7.215	-0.150	-0.095	
7.220	-0.001	-0.089	
7.225	0.028	-0.075	
7.230	-0.124	-0.058	
7.235	-0.074	-0.052	
7.240	0.025	-0.051	
7.245	-0.118	-0.048	
7.250	-0.135	-0.053	
7.255	0.001	-0.064	
7.260	-0.073	-0.067	
7.265	-0.178	-0.071	
7.270	-0.080	-0.083	
7.275	-0.083	-0.093	
7.280	-0.204	-0.102	
7.285	-0.152	-0.117	
7.290	-0.062	-0.129	
7.295	-0.166	-0.132	
7.300	-0.178	-0.135	
7.305	-0.065	-0.139	
7.310	-0.109	-0.134	
7.315	-0.187	-0.129	
7.320	-0.066	-0.128	
7.325	-0.012	-0.119	
7.330	-0.086	-0.101	
7.335	0.042	-0.080	
7.340	0.179	-0.047	
7.345	-0.066	-0.006	
7.350	-0.196	0.008	
7.355	-0.121	-0.013	
7.360	-0.185	-0.050	
7.365	-0.254	-0.094	
7.370	-0.112	-0.135	
7.375	-0.050	-0.154	
7.380	-0.169	-0.153	
7.385	-0.103	-0.147	
7.390	0.033	-0.133	
7.395	-0.108	-0.108	
7.400	-0.120	-0.090	
7.405	0.053	-0.078	
7.410	-0.028	-0.060	
7.415	-0.123	-0.045	
7.420	0.042	-0.041	
7.425	0.094	-0.029	
7.430	-0.071	-0.010	
7.435	0.001	-0.001	
7.440	0.147	0.007	
7.445	-0.034	0.022	
7.450	-0.042	0.027	
7.455	0.204	0.028	
7.460	0.146	0.047	
7.465	0.017	0.071	
7.470	0.225	0.089	
7.475	0.262	0.115	
7.480	0.074	0.144	
7.485	0.182	0.159	
7.490	0.329	0.173	
7.495	0.173	0.194	
7.500	0.117	0.205	
7.505	0.292	0.205	
7.510	0.172	0.208	
7.515	-0.015	0.199	
7.520	0.118	0.170	
7.525	0.059	0.137	
7.530	-0.129	0.101	
7.535	-0.092	0.051	
7.540	-0.012	0.002	
7.545	-0.160	-0.035	
7.550	-0.199	-0.071	
7.555	-0.080	-0.106	
7.560	-0.126	-0.125	
7.565	-0.195	-0.136	
7.570	-0.079	-0.144	
7.575	-0.053	-0.140	
7.580	-0.169	-0.128	
7.585	-0.103	-0.122	
7.590	-0.002	-0.113	
7.595	-0.117	-0.099	
7.600	-0.123	-0.090	
7.605	0.045	-0.084	
7.610	-0.044	-0.069	
7.615	-0.135	-0.057	
7.620	-0.005	-0.055	
7.625	0.024	-0.050	
7.630	-0.124	-0.042	
7.635	-0.042	-0.043	
7.640	0.069	-0.041	
7.645	-0.105	-0.034	
7.650	-0.144	-0.037	
7.655	-0.013	-0.050	
7.660	-0.086	-0.059	
7.665	-0.178	-0.070	
7.670	-0.066	-0.085	
7.675	-0.059	-0.094	
7.680	-0.184	-0.098	
7.685	-0.131	-0.108	
7.690	-0.024	-0.114	
7.695	-0.146	-0.111	
7.700	-0.164	-0.111	
7.705	-0.021	-0.114	
7.710	-0.059	-0.106	
7.715	-0.111	-0.094	
7.720	0.124	-0.078	
7.725	0.188	-0.041	
7.730	-0.018	0.007	
7.735	-0.059	0.034	
7.740	-0.088	0.031	
7.745	-0.222	0.002	
7.750	-0.234	-0.048	
7.755	-0.091	-0.099	
7.760	-0.112	-0.131	
7.765	-0.173	-0.145	
7.770	-0.042	-0.148	
7.775	0.019	-0.133	
7.780	-0.121	-0.107	
7.785	-0.059	-0.088	
7.790	0.059	-0.070	
7.795	-0.077	-0.050	
7.800	-0.089	-0.039	
7.805	0.100	-0.033	
7.810	0.033	-0.018	
7.815	-0.074	-0.003	
7.820	0.083	0.003	
7.825	0.104	0.015	
7.830	-0.076	0.028	
7.835	0.013	0.028	
7.840	0.173	0.028	
7.845	0.034	0.041	
7.850	0.033	0.053	
7.855	0.307	0.067	
7.860	0.234	0.103	
7.865	0.117	0.143	
7.870	0.350	0.173	
7.875	0.365	0.211	
7.880	0.147	0.247	
7.885	0.242	0.261	
7.890	0.356	0.265	
7.895	0.140	0.269	
7.900	0.063	0.253	
7.905	0.213	0.221	
7.910	0.072	0.190	
7.915	-0.091	0.152	
7.920	0.008	0.101	
7.925	-0.028	0.052	
7.930	-0.172	0.009	
7.935	-0.150	-0.039	
7.940	-0.057	-0.079	
7.945	-0.167	-0.104	
7.950	-0.190	-0.124	
7.955	-0.074	-0.140	
7.960	-0.146	-0.144	
7.965	-0.214	-0.146	
7.970	-0.082	-0.151	
7.975	-0.073	-0.146	
7.980	-0.190	-0.136	
7.985	-0.123	-0.132	
7.990	-0.028	-0.128	
7.995	-0.144	-0.117	
8.000	-0.153	-0.111	
8.005	-0.019	-0.110	
8.010	-0.108	-0.103	
8.015	-0.170	-0.099	
8.020	-0.050	-0.102	
8.025	-0.030	-0.098	
8.030	-0.170	-0.091	
8.035	-0.137	-0.094	
8.040	-0.063	-0.102	
8.045	-0.176	-0.107	
8.050	-0.199	-0.118	
8.055	-0.083	-0.132	
8.060	-0.153	-0.139	
8.065	-0.231	-0.145	
8.070	-0.121	-0.155	
8.075	-0.112	-0.159	
8.080	-0.216	-0.157	
8.085	-0.161	-0.160	
8.090	-0.082	-0.160	
8.095	-0.190	-0.155	
8.100	-0.169	-0.152	
8.105	0.060	-0.145	
8.110	0.083	-0.113	
8.115	-0.002	-0.066	
8.120	0.127	-0.021	
8.125	-0.044	0.014	
8.130	-0.266	0.019	
8.135	-0.236	-0.020	
8.140	-0.129	-0.075	
8.145	-0.202	-0.121	
8.150	-0.195	-0.154	
8.155	-0.042	-0.172	
8.160	-0.097	-0.166	
8.165	-0.175	-0.151	
8.170	-0.031	-0.138	
8.175	-0.004	-0.118	
8.180	-0.135	-0.094	
8.185	-0.062	-0.080	
8.190	0.077	-0.067	
8.195	-0.071	-0.047	
8.200	-0.086	-0.036	
8.205	0.097	-0.030	
8.210	0.022	-0.016	
8.215	-0.073	-0.003	
8.220	0.104	0.003	
8.225	0.144	0.019	
8.230	-0.002	0.041	
8.235	0.135	0.057	
8.240	0.310	0.081	
8.245	0.162	0.120	
8.250	0.176	0.155	
8.255	0.416	0.186	
8.260	0.350	0.230	
8.265	0.228	0.271	
8.270	0.436	0.298	
8.275	0.440	0.328	
8.280	0.208	0.352	
8.285	0.243	0.350	
8.290	0.350	0.332	
8.295	0.124	0.312	
8.300	0.027	0.273	
8.305	0.167	0.219	
8.310	0.025	0.170	
8.315	-0.121	0.119	
8.320	-0.018	0.061	
8.325	-0.027	0.013	
8.330	-0.170	-0.024	
8.335	-0.111	-0.060	
8.340	-0.018	-0.086	
8.345	-0.160	-0.096	
8.350	-0.166	-0.107	
8.355	-0.027	-0.116	
8.360	-0.068	-0.113	
8.365	-0.144	-0.104	
8.370	-0.010	-0.098	
8.375	0.005	-0.084	
8.380	-0.124	-0.067	
8.385	-0.062	-0.061	
8.390	0.071	-0.055	
8.395	-0.086	-0.042	
8.400	-0.109	-0.037	
8.405	0.040	-0.041	
8.410	-0.037	-0.038	
8.415	-0.141	-0.037	
8.420	-0.015	-0.046	
8.425	-0.022	-0.050	
8.430	-0.179	-0.054	
8.435	-0.146	-0.071	
8.440	-0.071	-0.091	
8.445	-0.173	-0.105	
8.450	-0.182	-0.120	
8.455	-0.079	-0.134	
8.460	-0.138	-0.138	
8.465	-0.213	-0.141	
8.470	-0.095	-0.147	
8.475	-0.082	-0.145	
8.480	-0.208	-0.139	
8.485	-0.156	-0.140	
8.490	-0.025	-0.141	
8.495	-0.037	-0.126	
8.500	0.098	-0.096	
8.505	0.350	-0.040	
8.510	0.135	0.038	
8.515	-0.172	0.090	
8.520	-0.149	0.083	
8.525	-0.160	0.035	
8.530	-0.253	-0.029	
8.535	-0.173	-0.093	
8.540	-0.071	-0.139	
8.545	-0.160	-0.157	
8.550	-0.161	-0.163	
8.555	-0.018	-0.159	
8.560	-0.085	-0.140	
8.565	-0.172	-0.122	
8.570	-0.048	-0.112	
8.575	-0.008	-0.100	
8.580	-0.137	-0.084	
8.585	-0.059	-0.077	
8.590	0.065	-0.068	
8.595	-0.095	-0.052	
8.600	-0.099	-0.045	
8.605	0.097	-0.042	
8.610	0.017	-0.028	
8.615	-0.068	-0.013	
8.620	0.144	-0.002	
8.625	0.194	0.023	
8.630	0.043	0.058	
8.635	0.198	0.086	
8.640	0.381	0.122	
8.645	0.242	0.172	
8.650	0.230	0.216	
8.655	0.458	0.251	
8.660	0.362	0.291	
8.665	0.228	0.323	
8.670	0.384	0.334	
8.675	0.342	0.340	
8.680	0.080	0.333	
8.685	0.098	0.296	
8.690	0.170	0.243	
8.695	-0.074	0.190	
8.700	-0.146	0.123	
8.705	-0.022	0.049	
8.710	-0.117	-0.010	
8.715	-0.210	-0.059	
8.720	-0.120	-0.103	
8.725	-0.105	-0.130	
8.730	-0.218	-0.145	
8.735	-0.169	-0.159	
8.740	-0.079	-0.165	
8.745	-0.169	-0.161	
8.750	-0.175	-0.156	
8.755	-0.053	-0.151	
8.760	-0.102	-0.139	
8.765	-0.172	-0.127	
8.770	-0.051	-0.120	
8.775	-0.033	-0.109	
8.780	-0.172	-0.097	
8.785	-0.129	-0.096	
8.790	-0.007	-0.098	
8.795	-0.128	-0.094	
8.800	-0.143	-0.093	
8.805	-0.001	-0.094	
8.810	-0.108	-0.089	
8.815	-0.196	-0.089	
8.820	-0.100	-0.101	
8.825	-0.111	-0.111	
8.830	-0.224	-0.121	
8.835	-0.179	-0.137	
8.840	-0.105	-0.152	
8.845	-0.214	-0.159	
8.850	-0.225	-0.168	
8.855	-0.109	-0.177	
8.860	-0.160	-0.177	
8.865	-0.234	-0.175	
8.870	-0.134	-0.176	
8.875	-0.132	-0.174	
8.880	-0.204	-0.168	
8.885	-0.031	-0.161	
8.890	0.352	-0.124	
8.895	0.271	-0.039	
8.900	0.185	0.060	
8.905	0.115	0.132	
8.910	-0.161	0.155	
8.915	-0.295	0.114	
8.920	-0.167	0.031	
8.925	-0.132	-0.051	
8.930	-0.222	-0.112	
8.935	-0.150	-0.155	
8.940	-0.054	-0.174	
8.945	-0.158	-0.171	
8.950	-0.175	-0.162	
8.955	-0.045	-0.154	
8.960	-0.102	-0.138	
8.965	-0.160	-0.124	
8.970	-0.004	-0.114	
8.975	0.028	-0.094	
8.980	-0.115	-0.070	
8.985	-0.031	-0.056	
8.990	0.106	-0.042	
8.995	-0.034	-0.021	
9.000	-0.045	-0.007	
9.005	0.190	0.004	
9.010	0.120	0.030	
9.015	0.021	0.058	
9.020	0.262	0.080	
9.025	0.324	0.117	
9.030	0.191	0.164	
9.035	0.333	0.205	
9.040	0.504	0.250	
9.045	0.349	0.304	
9.050	0.329	0.345	
9.055	0.536	0.373	
9.060	0.397	0.401	
9.065	0.194	0.411	
9.070	0.339	0.392	
9.075	0.291	0.364	
9.080	0.005	0.326	
9.085	0.011	0.261	
9.090	0.092	0.187	
9.095	-0.102	0.120	
9.100	-0.153	0.053	
9.105	-0.062	-0.012	
9.110	-0.149	-0.061	
9.115	-0.234	-0.101	
9.120	-0.126	-0.137	
9.125	-0.126	-0.157	
9.130	-0.230	-0.166	
9.135	-0.166	-0.175	
9.140	-0.066	-0.176	
9.145	-0.170	-0.165	
9.150	-0.172	-0.156	
9.155	-0.045	-0.149	
9.160	-0.120	-0.135	
9.165	-0.176	-0.125	
9.170	-0.047	-0.121	
9.175	-0.025	-0.110	
9.180	-0.156	-0.096	
9.185	-0.105	-0.092	
9.190	-0.001	-0.090	
9.195	-0.140	-0.084	
9.200	-0.150	-0.085	
9.205	-0.037	-0.092	
9.210	-0.121	-0.094	
9.215	-0.213	-0.101	
9.220	-0.121	-0.116	
9.225	-0.123	-0.129	
9.230	-0.250	-0.140	
9.235	-0.193	-0.157	
9.240	-0.108	-0.171	
9.245	-0.204	-0.174	
9.250	-0.211	-0.177	
9.255	-0.089	-0.179	
9.260	-0.164	-0.173	
9.265	-0.240	-0.168	
9.270	-0.109	-0.169	
9.275	-0.053	-0.162	
9.280	-0.095	-0.143	
9.285	0.161	-0.111	
9.290	0.353	-0.048	
9.295	0.080	0.035	
9.300	-0.144	0.087	
9.305	-0.137	0.080	
9.310	-0.231	0.032	
9.315	-0.272	-0.037	
9.320	-0.141	-0.107	
9.325	-0.117	-0.153	
9.330	-0.193	-0.173	
9.335	-0.123	-0.180	
9.340	-0.028	-0.172	
9.345	-0.149	-0.151	
9.350	-0.146	-0.135	
9.355	0.008	-0.122	
9.360	-0.070	-0.102	
9.365	-0.129	-0.086	
9.370	0.034	-0.075	
9.375	0.059	-0.056	
9.380	-0.092	-0.034	
9.385	-0.001	-0.022	
9.390	0.155	-0.010	
9.395	-0.010	0.012	
9.400	-0.013	0.026	
9.405	0.217	0.037	
9.410	0.140	0.061	
9.415	0.045	0.087	
9.420	0.280	0.107	
9.425	0.326	0.140	
9.430	0.172	0.181	
9.435	0.318	0.214	
9.440	0.460	0.249	
9.445	0.286	0.290	
9.450	0.252	0.316	
9.455	0.402	0.326	
9.460	0.262	0.331	
9.465	0.075	0.319	
9.470	0.202	0.282	
9.475	0.135	0.241	
9.480	-0.106	0.193	
9.485	-0.077	0.126	
9.490	-0.030	0.057	
9.495	-0.173	-0.002	
9.500	-0.196	-0.057	
9.505	-0.070	-0.103	
9.510	-0.146	-0.129	
9.515	-0.207	-0.144	
9.520	-0.099	-0.155	
9.525	-0.092	-0.155	
9.530	-0.211	-0.149	
9.535	-0.135	-0.149	
9.540	-0.034	-0.145	
9.545	-0.137	-0.132	
9.550	-0.144	-0.122	
9.555	-0.018	-0.115	
9.560	-0.082	-0.103	
9.565	-0.156	-0.093	
9.570	-0.028	-0.091	
9.575	-0.019	-0.083	
9.580	-0.155	-0.075	
9.585	-0.091	-0.076	
9.590	0.007	-0.078	
9.595	-0.140	-0.074	
9.600	-0.172	-0.079	
9.605	-0.056	-0.092	
9.610	-0.131	-0.100	
9.615	-0.228	-0.111	
9.620	-0.126	-0.129	
9.625	-0.099	-0.140	
9.630	-0.216	-0.145	
9.635	-0.166	-0.153	
9.640	-0.085	-0.157	
9.645	-0.198	-0.155	
9.650	-0.199	-0.157	
9.655	-0.094	-0.161	
9.660	-0.153	-0.158	
9.665	-0.184	-0.154	
9.670	-0.024	-0.149	
9.675	0.100	-0.125	
9.680	-0.019	-0.083	
9.685	0.046	-0.042	
9.690	0.021	-0.010	
9.695	-0.221	0.002	
9.700	-0.274	-0.025	
9.705	-0.146	-0.076	
9.710	-0.167	-0.120	
9.715	-0.207	-0.152	
9.720	-0.076	-0.170	
9.725	-0.071	-0.167	
9.730	-0.155	-0.152	
9.735	-0.070	-0.137	
9.740	0.051	-0.116	
9.745	-0.088	-0.087	
9.750	-0.100	-0.067	
9.755	0.059	-0.055	
9.760	-0.034	-0.040	
9.765	-0.109	-0.031	
9.770	0.072	-0.029	
9.775	0.106	-0.016	
9.780	-0.083	0.002	
9.785	0.001	0.008	
9.790	0.167	0.014	
9.795	0.005	0.029	
9.800	0.007	0.040	
9.805	0.254	0.051	
9.810	0.185	0.079	
9.815	0.071	0.110	
9.820	0.324	0.135	
9.825	0.317	0.170	
9.830	0.130	0.206	
9.835	0.252	0.224	
9.840	0.373	0.238	
9.845	0.172	0.255	
9.850	0.130	0.255	
9.855	0.300	0.242	
9.860	0.124	0.230	
9.865	-0.048	0.205	
9.870	0.057	0.159	
9.875	0.030	0.111	
9.880	-0.155	0.065	
9.885	-0.100	0.013	
9.890	-0.039	-0.033	
9.895	-0.163	-0.065	
9.900	-0.175	-0.094	
9.905	-0.066	-0.118	
9.910	-0.132	-0.128	
9.915	-0.205	-0.134	
9.920	-0.079	-0.141	
9.925	-0.060	-0.138	
9.930	-0.175	-0.128	
9.935	-0.114	-0.124	
9.940	-0.030	-0.119	
9.945	-0.141	-0.109	
9.950	-0.128	-0.104	
9.955	0.008	-0.101	
9.960	-0.060	-0.088	
9.965	-0.138	-0.077	
9.970	-0.015	-0.074	
9.975	0.005	-0.066	
9.980	-0.143	-0.057	
9.985	-0.082	-0.058	
9.990	-0.002	-0.063	
9.995	-0.147	-0.064	
10.000	-0.170	-0.074	
10.005	-0.074	-0.092	
10.010	-0.140	-0.104	
10.015	-0.208	-0.117	
10.020	-0.106	-0.133	
10.025	-0.095	-0.139	
10.030	-0.196	-0.140	
10.035	-0.135	-0.143	
10.040	-0.041	-0.142	
10.045	-0.164	-0.132	
10.050	-0.173	-0.128	
10.055	-0.039	-0.128	
10.060	-0.094	-0.120	
10.065	-0.097	-0.109	
10.070	0.130	-0.091	
10.075	0.117	-0.052	
10.080	-0.120	-0.012	
10.085	-0.140	-0.002	
10.090	-0.124	-0.021	
10.095	-0.222	-0.055	
10.100	-0.199	-0.097	
10.105	-0.033	-0.130	
10.110	-0.097	-0.138	
10.115	-0.166	-0.135	
10.120	-0.030	-0.130	
10.125	-0.021	-0.115	
10.130	-0.135	-0.096	
10.135	-0.065	-0.085	
10.140	0.048	-0.074	
10.145	-0.108	-0.059	
10.150	-0.124	-0.054	
10.155	0.056	-0.055	
10.160	-0.016	-0.047	
10.165	-0.074	-0.037	
10.170	0.092	-0.028	
10.175	0.103	-0.009	
10.180	-0.068	0.013	
10.185	0.031	0.021	
10.190	0.179	0.029	
10.195	0.036	0.047	
10.200	0.056	0.062	
10.205	0.291	0.078	
10.210	0.208	0.110	
10.215	0.082	0.142	
10.220	0.271	0.161	
10.225	0.283	0.183	
10.230	0.123	0.204	
10.235	0.228	0.211	
10.240	0.317	0.218	
10.245	0.086	0.224	
10.250	0.037	0.210	
10.255	0.188	0.181	
10.260	0.013	0.153	
10.265	-0.111	0.115	
10.270	-0.016	0.065	
10.275	-0.031	0.021	
10.280	-0.167	-0.016	
10.285	-0.112	-0.054	
10.290	-0.074	-0.084	
10.295	-0.195	-0.104	
10.300	-0.198	-0.125	
10.305	-0.045	-0.142	
10.310	-0.112	-0.142	
10.315	-0.182	-0.137	
10.320	-0.041	-0.133	
10.325	-0.025	-0.120	
10.330	-0.152	-0.103	
10.335	-0.073	-0.094	
10.340	0.025	-0.084	
10.345	-0.123	-0.071	
10.350	-0.123	-0.067	
10.355	0.043	-0.068	
10.360	-0.065	-0.060	
10.365	-0.135	-0.056	
10.370	-0.002	-0.059	
10.375	-0.005	-0.056	
10.380	-0.156	-0.052	
10.385	-0.099	-0.060	
10.390	-0.025	-0.070	
10.395	-0.160	-0.076	
10.400	-0.182	-0.090	
10.405	-0.082	-0.108	
10.410	-0.144	-0.119	
10.415	-0.207	-0.130	
10.420	-0.103	-0.141	
10.425	-0.095	-0.144	
10.430	-0.211	-0.143	
10.435	-0.150	-0.146	
10.440	-0.066	-0.148	
10.445	-0.147	-0.141	
10.450	-0.137	-0.135	
10.455	0.083	-0.122	
10.460	0.098	-0.088	
10.465	-0.018	-0.042	
10.470	0.104	-0.005	
10.475	-0.031	0.022	
10.480	-0.243	0.022	
10.485	-0.214	-0.016	
10.490	-0.124	-0.068	
10.495	-0.178	-0.111	
10.500	-0.172	-0.142	
10.505	-0.025	-0.156	
10.510	-0.088	-0.148	
10.515	-0.146	-0.133	
10.520	-0.015	-0.119	
10.525	0.011	-0.098	
10.530	-0.132	-0.075	
10.535	-0.051	-0.064	
10.540	0.062	-0.055	
10.545	-0.080	-0.040	
10.550	-0.076	-0.034	
10.555	0.091	-0.031	
10.560	-0.012	-0.020	
10.565	-0.102	-0.012	
10.570	0.094	-0.011	
10.575	0.135	0.001	
10.580	-0.056	0.021	
10.585	0.092	0.033	
10.590	0.269	0.050	
10.595	0.118	0.085	
10.600	0.140	0.115	
10.605	0.362	0.144	
10.610	0.289	0.185	
10.615	0.165	0.222	
10.620	0.378	0.245	
10.625	0.376	0.271	
10.630	0.126	0.292	
10.635	0.196	0.286	
10.640	0.284	0.268	
10.645	0.021	0.245	
10.650	-0.051	0.202	
10.655	0.075	0.143	
10.660	-0.053	0.090	
10.665	-0.156	0.038	
10.670	-0.044	-0.013	
10.675	-0.074	-0.050	
10.680	-0.193	-0.077	
10.685	-0.118	-0.103	
10.690	-0.054	-0.119	
10.695	-0.179	-0.124	
10.700	-0.182	-0.130	
10.705	-0.053	-0.137	
10.710	-0.118	-0.134	
10.715	-0.172	-0.129	
10.720	-0.047	-0.126	
10.725	-0.041	-0.116	
10.730	-0.173	-0.103	
10.735	-0.102	-0.100	
10.740	0.008	-0.097	
10.745	-0.140	-0.088	
10.750	-0.138	-0.087	
10.755	0.027	-0.088	
10.760	-0.076	-0.079	
10.765	-0.155	-0.074	
10.770	-0.036	-0.077	
10.775	-0.048	-0.077	
10.780	-0.189	-0.077	
10.785	-0.146	-0.090	
10.790	-0.077	-0.105	
10.795	-0.190	-0.116	
10.800	-0.201	-0.130	
10.805	-0.095	-0.145	
10.810	-0.160	-0.151	
10.815	-0.227	-0.155	
10.820	-0.108	-0.162	
10.825	-0.105	-0.161	
10.830	-0.221	-0.155	
10.835	-0.150	-0.156	
10.840	-0.041	-0.154	
10.845	-0.114	-0.140	
10.850	-0.012	-0.120	
10.855	0.269	-0.082	
10.860	0.155	-0.017	
10.865	-0.102	0.040	
10.870	-0.106	0.054	
10.875	-0.164	0.029	
10.880	-0.277	-0.022	
10.885	-0.185	-0.084	
10.890	-0.071	-0.133	
10.895	-0.163	-0.155	
10.900	-0.158	-0.162	
10.905	-0.010	-0.159	
10.910	-0.088	-0.140	
10.915	-0.158	-0.121	
10.920	-0.024	-0.109	
10.925	-0.019	-0.093	
10.930	-0.132	-0.077	
10.935	-0.068	-0.071	
10.940	0.059	-0.065	
10.945	-0.076	-0.051	
10.950	-0.074	-0.042	
10.955	0.095	-0.036	
10.960	0.002	-0.021	
10.965	-0.073	-0.009	
10.970	0.135	-0.001	
10.975	0.153	0.019	
10.980	-0.001	0.046	
10.985	0.143	0.064	
10.990	0.315	0.089	
10.995	0.167	0.128	
11.000	0.201	0.163	
11.005	0.419	0.195	
11.010	0.291	0.237	
11.015	0.170	0.267	
11.020	0.353	0.278	
11.025	0.310	0.287	
11.030	0.060	0.286	
11.035	0.143	0.259	
11.040	0.211	0.224	
11.045	-0.053	0.189	
11.050	-0.092	0.137	
11.055	0.008	0.076	
11.060	-0.108	0.023	
11.065	-0.187	-0.025	
11.070	-0.074	-0.070	
11.075	-0.089	-0.099	
11.080	-0.211	-0.116	
11.085	-0.153	-0.134	
11.090	-0.074	-0.145	
11.095	-0.190	-0.147	
11.100	-0.187	-0.150	
11.105	-0.051	-0.152	
11.110	-0.100	-0.143	
11.115	-0.167	-0.132	
11.120	-0.041	-0.124	
11.125	-0.042	-0.110	
11.130	-0.158	-0.096	
11.135	-0.097	-0.093	
11.140	-0.005	-0.090	
11.145	-0.124	-0.083	
11.150	-0.132	-0.082	
11.155	0.017	-0.084	
11.160	-0.088	-0.077	
11.165	-0.181	-0.076	
11.170	-0.083	-0.086	
11.175	-0.082	-0.094	
11.180	-0.221	-0.103	
11.185	-0.170	-0.120	
11.190	-0.089	-0.136	
11.195	-0.204	-0.145	
11.200	-0.216	-0.155	
11.205	-0.073	-0.164	
11.210	-0.141	-0.162	
11.215	-0.208	-0.156	
11.220	-0.099	-0.155	
11.225	-0.109	-0.150	
11.230	-0.204	-0.144	
11.235	-0.108	-0.143	
11.240	0.126	-0.130	
11.245	0.104	-0.088	
11.250	0.155	-0.028	
11.255	0.284	0.038	
11.260	-0.079	0.094	
11.265	-0.248	0.098	
11.270	-0.156	0.048	
11.275	-0.137	-0.017	
11.280	-0.219	-0.076	
11.285	-0.132	-0.124	
11.290	-0.050	-0.149	
11.295	-0.158	-0.152	
11.300	-0.141	-0.149	
11.305	0.005	-0.140	
11.310	-0.074	-0.119	
11.315	-0.153	-0.100	
11.320	-0.013	-0.091	
11.325	0.019	-0.077	
11.330	-0.123	-0.060	
11.335	-0.042	-0.054	
11.340	0.082	-0.046	
11.345	-0.070	-0.031	
11.350	-0.047	-0.023	
11.355	0.172	-0.015	
11.360	0.082	0.010	
11.365	-0.012	0.035	
11.370	0.223	0.054	
11.375	0.239	0.084	
11.380	0.082	0.120	
11.385	0.228	0.144	
11.390	0.384	0.172	
11.395	0.269	0.212	
11.400	0.315	0.250	
11.405	0.529	0.288	
11.410	0.364	0.334	
11.415	0.208	0.362	
11.420	0.378	0.363	
11.425	0.303	0.355	
11.430	0.030	0.332	
11.435	0.065	0.279	
11.440	0.117	0.214	
11.445	-0.099	0.152	
11.450	-0.141	0.083	
11.455	-0.039	0.015	
11.460	-0.143	-0.038	
11.465	-0.236	-0.083	
11.470	-0.106	-0.123	
11.475	-0.115	-0.146	
11.480	-0.224	-0.156	
11.485	-0.164	-0.166	
11.490	-0.083	-0.169	
11.495	-0.187	-0.164	
11.500	-0.179	-0.160	
11.505	-0.045	-0.156	
11.510	-0.109	-0.143	
11.515	-0.175	-0.130	
11.520	-0.056	-0.124	
11.525	-0.056	-0.113	
11.530	-0.164	-0.103	
11.535	-0.102	-0.101	
11.540	-0.036	-0.100	
11.545	-0.143	-0.096	
11.550	-0.156	-0.098	
11.555	-0.031	-0.103	
11.560	-0.121	-0.103	
11.565	-0.213	-0.106	
11.570	-0.117	-0.119	
11.575	-0.117	-0.129	
11.580	-0.231	-0.137	
11.585	-0.172	-0.150	
11.590	-0.089	-0.160	
11.595	-0.213	-0.161	
11.600	-0.228	-0.166	
11.605	-0.117	-0.174	
11.610	-0.160	-0.175	
11.615	-0.231	-0.174	
11.620	-0.137	-0.176	
11.625	-0.126	-0.174	
11.630	-0.196	-0.168	
11.635	0.028	-0.156	
11.640	0.352	-0.112	
11.645	0.237	-0.025	
11.650	0.132	0.067	
11.655	0.040	0.124	
11.660	-0.187	0.131	
11.665	-0.288	0.081	
11.670	-0.170	-0.001	
11.675	-0.137	-0.077	
11.680	-0.221	-0.130	
11.685	-0.147	-0.166	
11.690	-0.063	-0.180	
11.695	-0.169	-0.174	
11.700	-0.178	-0.165	
11.705	-0.047	-0.157	
11.710	-0.100	-0.141	
11.715	-0.175	-0.127	
11.720	-0.018	-0.118	
11.725	0.005	-0.101	
11.730	-0.123	-0.080	
11.735	-0.028	-0.068	
11.740	0.103	-0.052	
11.745	-0.041	-0.029	
11.750	-0.042	-0.013	
11.755	0.172	-0.001	
11.760	0.114	0.025	
11.765	0.042	0.053	
11.770	0.274	0.079	
11.775	0.321	0.119	
11.780	0.172	0.167	
11.785	0.329	0.206	
11.790	0.489	0.247	
11.795	0.339	0.298	
11.800	0.347	0.338	
11.805	0.500	0.366	
11.810	0.349	0.390	
11.815	0.201	0.395	
11.820	0.330	0.374	
11.825	0.254	0.346	
11.830	-0.031	0.306	
11.835	0.007	0.239	
11.840	0.042	0.163	
11.845	-0.138	0.093	
11.850	-0.158	0.024	
11.855	-0.056	-0.038	
11.860	-0.149	-0.081	
11.865	-0.231	-0.114	
11.870	-0.134	-0.144	
11.875	-0.143	-0.161	
11.880	-0.230	-0.170	
11.885	-0.166	-0.178	
11.890	-0.085	-0.179	
11.895	-0.196	-0.171	
11.900	-0.178	-0.166	
11.905	-0.031	-0.160	
11.910	-0.109	-0.143	
11.915	-0.170	-0.128	
11.920	-0.045	-0.120	
11.925	-0.041	-0.108	
11.930	-0.170	-0.095	
11.935	-0.100	-0.094	
11.940	-0.022	-0.094	
11.945	-0.152	-0.090	
11.950	-0.160	-0.094	
11.955	-0.044	-0.103	
11.960	-0.140	-0.106	
11.965	-0.218	-0.112	
11.970	-0.123	-0.127	
11.975	-0.161	-0.140	
11.980	-0.251	-0.152	
11.985	-0.178	-0.169	
11.990	-0.102	-0.179	
11.995	-0.207	-0.178	
12.000	-0.202	-0.178	
12.005	-0.068	-0.176	
12.010	-0.149	-0.165	
12.015	-0.233	-0.157	
12.020	-0.123	-0.158	
12.025	-0.073	-0.155	
12.030	-0.117	-0.142	
12.035	0.167	-0.116	
12.040	0.402	-0.054	
12.045	0.150	0.039	
12.050	-0.083	0.106	
12.055	-0.115	0.113	
12.060	-0.236	0.070	
12.065	-0.286	-0.004	
12.070	-0.150	-0.084	
12.075	-0.128	-0.141	
12.080	-0.208	-0.171	
12.085	-0.121	-0.185	
12.090	-0.010	-0.179	
12.095	-0.137	-0.156	
12.100	-0.131	-0.135	
12.105	0.036	-0.116	
12.110	-0.051	-0.091	
12.115	-0.128	-0.070	
12.120	0.030	-0.060	
12.125	0.056	-0.045	
12.130	-0.097	-0.027	
12.135	-0.008	-0.020	
12.140	0.141	-0.011	
12.145	-0.018	0.007	
12.150	0.005	0.019	
12.155	0.243	0.033	
12.160	0.162	0.064	
12.165	0.036	0.095	
12.170	0.275	0.116	
12.175	0.350	0.149	
12.180	0.220	0.192	
12.185	0.344	0.231	
12.190	0.513	0.272	
12.195	0.327	0.321	
12.200	0.309	0.354	
12.205	0.483	0.371	
12.210	0.300	0.383	
12.215	0.091	0.373	
12.220	0.208	0.331	
12.225	0.185	0.281	
12.230	-0.057	0.229	
12.235	-0.033	0.162	
12.240	0.022	0.095	
12.245	-0.149	0.038	
12.250	-0.178	-0.018	
12.255	-0.071	-0.069	
12.260	-0.156	-0.103	
12.265	-0.214	-0.128	
12.270	-0.097	-0.149	
12.275	-0.097	-0.155	
12.280	-0.208	-0.152	
12.285	-0.138	-0.153	
12.290	-0.054	-0.150	
12.295	-0.167	-0.140	
12.300	-0.158	-0.134	
12.305	-0.016	-0.130	
12.310	-0.089	-0.117	
12.315	-0.160	-0.105	
12.320	-0.033	-0.100	
12.325	-0.024	-0.091	
12.330	-0.150	-0.080	
12.335	-0.063	-0.078	
12.340	0.022	-0.074	
12.345	-0.121	-0.065	
12.350	-0.147	-0.066	
12.355	-0.039	-0.075	
12.360	-0.132	-0.082	
12.365	-0.213	-0.094	
12.370	-0.114	-0.114	
12.375	-0.108	-0.128	
12.380	-0.224	-0.137	
12.385	-0.172	-0.149	
12.390	-0.091	-0.158	
12.395	-0.195	-0.159	
12.400	-0.184	-0.160	
12.405	-0.074	-0.161	
12.410	-0.155	-0.154	
12.415	-0.230	-0.150	
12.420	-0.100	-0.154	
12.425	-0.034	-0.149	
12.430	-0.071	-0.130	
12.435	0.127	-0.099	
12.440	0.236	-0.046	
12.445	-0.111	0.011	
12.450	-0.216	0.028	
12.455	-0.158	-0.002	
12.460	-0.211	-0.050	
12.465	-0.259	-0.103	
12.470	-0.120	-0.150	
12.475	-0.063	-0.171	
12.480	-0.160	-0.168	
12.485	-0.056	-0.156	
12.490	0.033	-0.133	
12.495	-0.108	-0.101	
12.500	-0.105	-0.080	
12.505	0.062	-0.067	
12.510	-0.034	-0.049	
12.515	-0.124	-0.037	
12.520	0.028	-0.036	
12.525	0.066	-0.029	
12.530	-0.076	-0.016	
12.535	0.045	-0.009	
12.540	0.193	0.006	
12.545	-0.012	0.031	
12.550	-0.004	0.046	
12.555	0.239	0.055	
12.560	0.170	0.079	
12.565	0.075	0.106	
12.570	0.310	0.129	
12.575	0.341	0.164	
12.580	0.164	0.205	
12.585	0.274	0.230	
12.590	0.399	0.252	
12.595	0.230	0.276	
12.600	0.181	0.285	
12.605	0.367	0.281	
12.610	0.214	0.279	
12.615	0.039	0.265	
12.620	0.155	0.230	
12.625	0.100	0.191	
12.630	-0.115	0.148	
12.635	-0.057	0.090	
12.640	-0.007	0.035	
12.645	-0.158	-0.010	
12.650	-0.182	-0.053	
12.655	-0.066	-0.092	
12.660	-0.143	-0.115	
12.665	-0.222	-0.132	
12.670	-0.108	-0.148	
12.675	-0.108	-0.153	
12.680	-0.204	-0.152	
12.685	-0.129	-0.153	
12.690	-0.033	-0.148	
12.695	-0.138	-0.134	
12.700	-0.175	-0.124	
12.705	-0.034	-0.121	
12.710	-0.091	-0.112	
12.715	-0.141	-0.104	
12.720	-0.008	-0.098	
12.725	-0.019	-0.085	
12.730	-0.152	-0.073	
12.735	-0.068	-0.071	
12.740	0.004	-0.070	
12.745	-0.146	-0.066	
12.750	-0.150	-0.072	
12.755	-0.045	-0.085	
12.760	-0.135	-0.092	
12.765	-0.218	-0.104	
12.770	-0.115	-0.122	
12.775	-0.126	-0.135	
12.780	-0.225	-0.144	
12.785	-0.156	-0.155	
12.790	-0.086	-0.161	
12.795	-0.184	-0.158	
12.800	-0.182	-0.157	
12.805	-0.059	-0.155	
12.810	-0.126	-0.145	
12.815	-0.181	-0.136	
12.820	-0.005	-0.130	
12.825	0.082	-0.107	
12.830	-0.036	-0.071	
12.835	0.085	-0.036	
12.840	0.097	-0.001	
12.845	-0.187	0.020	
12.850	-0.251	0.003	
12.855	-0.153	-0.045	
12.860	-0.178	-0.095	
12.865	-0.205	-0.134	
12.870	-0.053	-0.159	
12.875	-0.039	-0.157	
12.880	-0.161	-0.141	
12.885	-0.074	-0.127	
12.890	0.039	-0.109	
12.895	-0.089	-0.084	
12.900	-0.083	-0.067	
12.905	0.091	-0.053	
12.910	-0.022	-0.034	
12.915	-0.106	-0.020	
12.920	0.085	-0.017	
12.925	0.107	-0.004	
12.930	-0.074	0.013	
12.935	0.031	0.019	
12.940	0.159	0.025	
12.945	0.011	0.040	
12.950	0.024	0.050	
12.955	0.248	0.059	
12.960	0.155	0.084	
12.965	0.075	0.110	
12.970	0.313	0.131	
12.975	0.347	0.166	
12.980	0.159	0.206	
12.985	0.286	0.232	
12.990	0.396	0.254	
12.995	0.194	0.276	
13.000	0.170	0.280	
13.005	0.346	0.271	
13.010	0.178	0.265	
13.015	-0.005	0.245	
13.020	0.106	0.202	
13.025	0.039	0.155	
13.030	-0.143	0.106	
13.035	-0.092	0.046	
13.040	-0.028	-0.008	
13.045	-0.164	-0.048	
13.050	-0.175	-0.083	
13.055	-0.063	-0.112	
13.060	-0.134	-0.125	
13.065	-0.208	-0.134	
13.070	-0.080	-0.142	
13.075	-0.070	-0.140	
13.080	-0.181	-0.132	
13.085	-0.102	-0.128	
13.090	0.005	-0.120	
13.095	-0.114	-0.103	
13.100	-0.124	-0.092	
13.105	0.028	-0.085	
13.110	-0.082	-0.073	
13.115	-0.140	-0.066	
13.120	-0.010	-0.068	
13.125	-0.025	-0.064	
13.130	-0.172	-0.062	
13.135	-0.097	-0.070	
13.140	-0.024	-0.080	
13.145	-0.152	-0.083	
13.150	-0.155	-0.092	
13.155	-0.039	-0.102	
13.160	-0.131	-0.105	
13.165	-0.208	-0.111	
13.170	-0.115	-0.124	
13.175	-0.114	-0.133	
13.180	-0.218	-0.138	
13.185	-0.149	-0.148	
13.190	-0.089	-0.153	
13.195	-0.192	-0.151	
13.200	-0.204	-0.154	
13.205	-0.074	-0.158	
13.210	-0.129	-0.153	
13.215	-0.170	-0.145	
13.220	0.080	-0.133	
13.225	0.191	-0.094	
13.230	-0.013	-0.036	
13.235	0.013	0.007	
13.240	-0.051	0.025	
13.245	-0.237	0.014	
13.250	-0.260	-0.030	
13.255	-0.117	-0.087	
13.260	-0.153	-0.128	
13.265	-0.204	-0.154	
13.270	-0.054	-0.167	
13.275	-0.059	-0.159	
13.280	-0.163	-0.142	
13.285	-0.074	-0.128	
13.290	0.054	-0.109	
13.295	-0.102	-0.083	
13.300	-0.102	-0.067	
13.305	0.075	-0.057	
13.310	-0.019	-0.040	
13.315	-0.108	-0.028	
13.320	0.051	-0.025	
13.325	0.057	-0.017	
13.330	-0.074	-0.005	
13.335	0.063	0.000	
13.340	0.182	0.013	
13.345	0.022	0.038	
13.350	0.045	0.056	
13.355	0.266	0.072	
13.360	0.182	0.101	
13.365	0.124	0.132	
13.370	0.365	0.159	
13.375	0.396	0.201	
13.380	0.207	0.248	
13.385	0.336	0.278	
13.390	0.448	0.302	
13.395	0.219	0.326	
13.400	0.143	0.324	
13.405	0.298	0.301	
13.410	0.124	0.274	
13.415	-0.048	0.233	
13.420	0.083	0.175	
13.425	0.036	0.121	
13.430	-0.147	0.073	
13.435	-0.108	0.019	
13.440	-0.047	-0.030	
13.445	-0.170	-0.066	
13.450	-0.179	-0.097	
13.455	-0.059	-0.122	
13.460	-0.146	-0.132	
13.465	-0.210	-0.138	
13.470	-0.082	-0.146	
13.475	-0.063	-0.143	
13.480	-0.166	-0.132	
13.485	-0.092	-0.125	
13.490	0.011	-0.114	
13.495	-0.117	-0.096	
13.500	-0.114	-0.085	
13.505	0.034	-0.078	
13.510	-0.057	-0.065	
13.515	-0.138	-0.057	
13.520	-0.007	-0.058	
13.525	-0.008	-0.055	
13.530	-0.141	-0.051	
13.535	-0.079	-0.057	
13.540	0.002	-0.063	
13.545	-0.144	-0.064	
13.550	-0.172	-0.074	
13.555	-0.060	-0.091	
13.560	-0.138	-0.102	
13.565	-0.202	-0.114	
13.570	-0.097	-0.128	
13.575	-0.111	-0.135	
13.580	-0.211	-0.138	
13.585	-0.138	-0.145	
13.590	-0.065	-0.147	
13.595	-0.189	-0.142	
13.600	-0.173	-0.142	
13.605	-0.024	-0.141	
13.610	-0.082	-0.129	
13.615	-0.106	-0.113	
13.620	0.205	-0.088	
13.625	0.277	-0.033	
13.630	0.048	0.038	
13.635	-0.016	0.082	
13.640	-0.071	0.086	
13.645	-0.225	0.054	
13.650	-0.218	-0.005	
13.655	-0.080	-0.068	
13.660	-0.132	-0.110	
13.665	-0.181	-0.134	
13.670	-0.036	-0.146	
13.675	-0.053	-0.139	
13.680	-0.172	-0.124	
13.685	-0.077	-0.116	
13.690	0.027	-0.104	
13.695	-0.089	-0.085	
13.700	-0.080	-0.070	
13.705	0.112	-0.056	
13.710	0.002	-0.032	
13.715	-0.085	-0.013	
13.720	0.072	-0.006	
13.725	0.095	0.006	
13.730	-0.057	0.020	
13.735	0.049	0.025	
13.740	0.188	0.033	
13.745	0.040	0.053	
13.750	0.054	0.067	
13.755	0.291	0.083	
13.760	0.242	0.115	
13.765	0.188	0.154	
13.770	0.428	0.193	
13.775	0.434	0.245	
13.780	0.239	0.296	
13.785	0.341	0.324	
13.790	0.454	0.342	
13.795	0.233	0.356	
13.800	0.155	0.346	
13.805	0.286	0.316	
13.810	0.086	0.280	
13.815	-0.074	0.229	
13.820	0.030	0.160	
13.825	-0.027	0.094	
13.830	-0.176	0.036	
13.835	-0.135	-0.024	
13.840	-0.083	-0.073	
13.845	-0.199	-0.107	
13.850	-0.189	-0.135	
13.855	-0.073	-0.153	
13.860	-0.138	-0.156	
13.865	-0.204	-0.154	
13.870	-0.088	-0.154	
13.875	-0.079	-0.147	
13.880	-0.184	-0.136	
13.885	-0.108	-0.131	
13.890	-0.010	-0.123	
13.895	-0.147	-0.109	
13.900	-0.144	-0.103	
13.905	0.008	-0.101	
13.910	-0.088	-0.091	
13.915	-0.167	-0.085	
13.920	-0.054	-0.088	
13.925	-0.044	-0.088	
13.930	-0.153	-0.086	
13.935	-0.085	-0.089	
13.940	-0.013	-0.089	
13.945	-0.158	-0.085	
13.950	-0.176	-0.091	
13.955	-0.077	-0.104	
13.960	-0.176	-0.115	
13.965	-0.239	-0.130	
13.970	-0.124	-0.149	
13.975	-0.128	-0.159	
13.980	-0.237	-0.164	
13.985	-0.169	-0.171	
13.990	-0.100	-0.174	
13.995	-0.201	-0.170	
14.000	-0.213	-0.169	
14.005	-0.089	-0.171	
14.010	-0.120	-0.164	
14.015	-0.115	-0.150	
14.020	0.239	-0.121	
14.025	0.344	-0.052	
14.030	0.133	0.041	
14.035	0.051	0.109	
14.040	-0.079	0.130	
14.045	-0.260	0.099	
14.050	-0.254	0.027	
14.055	-0.118	-0.055	
14.060	-0.184	-0.116	
14.065	-0.233	-0.158	
14.070	-0.082	-0.183	
14.075	-0.057	-0.183	
14.080	-0.176	-0.166	
14.085	-0.097	-0.150	
14.090	0.002	-0.132	
14.095	-0.131	-0.109	
14.100	-0.114	-0.095	
14.105	0.042	-0.085	
14.110	-0.025	-0.067	
14.115	-0.097	-0.051	
14.120	0.086	-0.039	
14.125	0.088	-0.019	
14.130	-0.068	0.003	
14.135	0.071	0.015	
14.140	0.217	0.031	
14.145	0.051	0.059	
14.150	0.095	0.081	
14.155	0.339	0.104	
14.160	0.277	0.144	
14.165	0.237	0.190	
14.170	0.483	0.234	
14.175	0.521	0.292	
14.180	0.318	0.352	
14.185	0.442	0.390	
14.190	0.518	0.416	
14.195	0.289	0.434	
14.200	0.234	0.424	
14.205	0.350	0.392	
14.210	0.141	0.353	
14.215	-0.044	0.296	
14.220	0.092	0.220	
14.225	0.022	0.150	
14.230	-0.152	0.087	
14.235	-0.112	0.022	
14.240	-0.079	-0.035	
14.245	-0.198	-0.079	
14.250	-0.196	-0.116	
14.255	-0.083	-0.144	
14.260	-0.155	-0.155	
14.265	-0.218	-0.160	
14.270	-0.111	-0.166	
14.275	-0.114	-0.163	
14.280	-0.210	-0.157	
14.285	-0.132	-0.156	
14.290	-0.045	-0.150	
14.295	-0.184	-0.139	
14.300	-0.155	-0.134	
14.305	-0.012	-0.130	
14.310	-0.082	-0.116	
14.315	-0.140	-0.102	
14.320	-0.007	-0.094	
14.325	-0.019	-0.080	
14.330	-0.152	-0.068	
14.335	-0.092	-0.068	
14.340	-0.022	-0.073	
14.345	-0.161	-0.075	
14.350	-0.187	-0.087	
14.355	-0.092	-0.106	
14.360	-0.173	-0.121	
14.365	-0.243	-0.137	
14.370	-0.134	-0.157	
14.375	-0.135	-0.167	
14.380	-0.240	-0.171	
14.385	-0.175	-0.178	
14.390	-0.092	-0.180	
14.395	-0.199	-0.174	
14.400	-0.184	-0.170	
14.405	-0.079	-0.166	
14.410	-0.150	-0.156	
14.415	-0.195	-0.149	
14.420	0.019	-0.142	
14.425	0.201	-0.110	
14.430	0.107	-0.050	
14.435	0.178	0.016	
14.440	0.089	0.071	
14.445	-0.219	0.091	
14.450	-0.274	0.056	
14.455	-0.169	-0.015	
14.460	-0.190	-0.084	
14.465	-0.213	-0.138	
14.470	-0.082	-0.171	
14.475	-0.068	-0.176	
14.480	-0.167	-0.164	
14.485	-0.068	-0.149	
14.490	0.037	-0.127	
14.495	-0.092	-0.096	
14.500	-0.091	-0.075	
14.505	0.071	-0.060	
14.510	-0.016	-0.039	
14.515	-0.083	-0.024	
14.520	0.112	-0.016	
14.525	0.127	0.004	
14.530	-0.041	0.028	
14.535	0.066	0.040	
14.540	0.208	0.052	
14.545	0.042	0.073	
14.550	0.072	0.086	
14.555	0.298	0.099	
14.560	0.220	0.129	
14.565	0.144	0.160	
14.570	0.365	0.186	
14.575	0.425	0.225	
14.580	0.259	0.270	
14.585	0.375	0.303	
14.590	0.500	0.333	
14.595	0.295	0.363	
14.600	0.228	0.372	
14.605	0.382	0.360	
14.610	0.222	0.344	
14.615	0.021	0.311	
14.620	0.114	0.255	
14.625	0.048	0.194	
14.630	-0.137	0.132	
14.635	-0.102	0.062	
14.640	-0.051	-0.002	
14.645	-0.185	-0.051	
14.650	-0.190	-0.094	
14.655	-0.097	-0.128	
14.660	-0.164	-0.147	
14.665	-0.230	-0.159	
14.670	-0.124	-0.170	
14.675	-0.121	-0.172	
14.680	-0.207	-0.168	
14.685	-0.131	-0.165	
14.690	-0.037	-0.157	
14.695	-0.163	-0.141	
14.700	-0.160	-0.131	
14.705	-0.025	-0.125	
14.710	-0.089	-0.113	
14.715	-0.146	-0.103	
14.720	-0.031	-0.097	
14.725	-0.056	-0.089	
14.730	-0.166	-0.083	
14.735	-0.076	-0.086	
14.740	0.022	-0.085	
14.745	-0.135	-0.077	
14.750	-0.150	-0.077	
14.755	-0.062	-0.086	
14.760	-0.153	-0.094	
14.765	-0.218	-0.108	
14.770	-0.111	-0.127	
14.775	-0.126	-0.139	
14.780	-0.225	-0.146	
14.785	-0.158	-0.157	
14.790	-0.106	-0.163	
14.795	-0.216	-0.163	
14.800	-0.207	-0.167	
14.805	-0.077	-0.171	
14.810	-0.144	-0.165	
14.815	-0.201	-0.157	
14.820	-0.070	-0.153	
14.825	0.011	-0.138	
14.830	-0.050	-0.109	
14.835	0.089	-0.075	
14.840	0.111	-0.033	
14.845	-0.160	0.000	
14.850	-0.240	-0.004	
14.855	-0.153	-0.042	
14.860	-0.199	-0.087	
14.865	-0.234	-0.130	
14.870	-0.074	-0.161	
14.875	-0.057	-0.167	
14.880	-0.158	-0.155	
14.885	-0.073	-0.141	
14.890	0.027	-0.121	
14.895	-0.102	-0.094	
14.900	-0.114	-0.077	
14.905	0.049	-0.067	
14.910	-0.042	-0.053	
14.915	-0.109	-0.043	
14.920	0.054	-0.039	
14.925	0.048	-0.028	
14.930	-0.077	-0.014	
14.935	0.043	-0.008	
14.940	0.159	0.005	
14.945	-0.015	0.026	
14.950	0.005	0.038	
14.955	0.233	0.047	
14.960	0.136	0.071	
14.965	0.063	0.096	
14.970	0.295	0.116	
14.975	0.318	0.150	
14.980	0.130	0.187	
14.985	0.271	0.211	
14.990	0.404	0.233	
14.995	0.207	0.260	
15.000	0.198	0.272	
15.005	0.339	0.271	
15.010	0.155	0.268	
15.015	0.002	0.248	
15.020	0.143	0.205	
15.025	0.080	0.164	
15.030	-0.118	0.122	
15.035	-0.076	0.068	
15.040	-0.037	0.015	
15.045	-0.169	-0.029	
15.050	-0.176	-0.071	
15.055	-0.066	-0.105	
15.060	-0.144	-0.124	
15.065	-0.208	-0.136	
15.070	-0.099	-0.147	
15.075	-0.102	-0.149	
15.080	-0.190	-0.145	
15.085	-0.115	-0.144	
15.090	-0.031	-0.138	
15.095	-0.147	-0.124	
15.100	-0.138	-0.116	
15.105	-0.018	-0.111	
15.110	-0.092	-0.100	
15.115	-0.143	-0.092	
15.120	-0.012	-0.089	
15.125	-0.027	-0.080	
15.130	-0.149	-0.071	
15.135	-0.083	-0.072	
15.140	-0.012	-0.074	
15.145	-0.132	-0.073	
15.150	-0.146	-0.078	
15.155	-0.056	-0.088	
15.160	-0.134	-0.095	
15.165	-0.202	-0.105	
15.170	-0.100	-0.120	
15.175	-0.106	-0.129	
15.180	-0.230	-0.134	
15.185	-0.172	-0.146	
15.190	-0.108	-0.157	
15.195	-0.208	-0.160	
15.200	-0.204	-0.166	
15.205	-0.077	-0.170	
15.210	-0.146	-0.164	
15.215	-0.213	-0.158	
15.220	-0.099	-0.156	
15.225	-0.051	-0.148	
15.230	-0.089	-0.130	
15.235	0.088	-0.104	
15.240	0.196	-0.059	
15.245	-0.097	-0.008	
15.250	-0.204	0.009	
15.255	-0.141	-0.014	
15.260	-0.210	-0.055	
15.265	-0.240	-0.102	
15.270	-0.109	-0.143	
15.275	-0.074	-0.161	
15.280	-0.170	-0.160	
15.285	-0.082	-0.153	
15.290	0.001	-0.137	
15.295	-0.120	-0.113	
15.300	-0.092	-0.095	
15.305	0.072	-0.080	
15.310	-0.034	-0.057	
15.315	-0.118	-0.040	
15.320	0.051	-0.035	
15.325	0.068	-0.023	
15.330	-0.091	-0.009	
15.335	0.027	-0.004	
15.340	0.165	0.005	
15.345	-0.015	0.024	
15.350	0.019	0.036	
15.355	0.237	0.048	
15.360	0.153	0.074	
15.365	0.042	0.101	
15.370	0.277	0.119	
15.375	0.318	0.148	
15.380	0.153	0.184	
15.385	0.300	0.211	
15.390	0.423	0.239	
15.395	0.214	0.272	
15.400	0.170	0.285	
15.405	0.355	0.281	
15.410	0.190	0.276	
15.415	0.036	0.258	
15.420	0.194	0.223	
15.425	0.121	0.190	
15.430	-0.094	0.154	
15.435	-0.047	0.103	
15.440	-0.013	0.050	
15.445	-0.156	0.004	
15.450	-0.160	-0.042	
15.455	-0.039	-0.081	
15.460	-0.121	-0.101	
15.465	-0.196	-0.115	
15.470	-0.082	-0.128	
15.475	-0.086	-0.131	
15.480	-0.211	-0.130	
15.485	-0.109	-0.134	
15.490	-0.019	-0.132	
15.495	-0.134	-0.120	
15.500	-0.131	-0.111	
15.505	0.008	-0.104	
15.510	-0.074	-0.090	
15.515	-0.132	-0.079	
15.520	0.022	-0.074	
15.525	0.002	-0.061	
15.530	-0.141	-0.049	
15.535	-0.062	-0.050	
15.540	0.037	-0.052	
15.545	-0.117	-0.048	
15.550	-0.131	-0.052	
15.555	-0.012	-0.063	
15.560	-0.108	-0.068	
15.565	-0.179	-0.077	
15.570	-0.076	-0.092	
15.575	-0.092	-0.102	
15.580	-0.216	-0.110	
15.585	-0.132	-0.124	
15.590	-0.045	-0.132	
15.595	-0.161	-0.130	
15.600	-0.164	-0.129	
15.605	-0.041	-0.129	
15.610	-0.120	-0.122	
15.615	-0.199	-0.118	
15.620	-0.074	-0.122	
15.625	-0.053	-0.120	
15.630	-0.134	-0.111	
15.635	0.057	-0.098	
15.640	0.205	-0.065	
15.645	-0.034	-0.017	
15.650	-0.141	0.010	
15.655	-0.102	0.002	
15.660	-0.193	-0.027	
15.665	-0.240	-0.070	
15.670	-0.131	-0.115	
15.675	-0.091	-0.144	
15.680	-0.185	-0.154	
15.685	-0.089	-0.156	
15.690	0.027	-0.144	
15.695	-0.108	-0.118	
15.700	-0.105	-0.097	
15.705	0.045	-0.081	
15.710	-0.050	-0.062	
15.715	-0.117	-0.048	
15.720	0.074	-0.043	
15.725	0.048	-0.028	
15.730	-0.117	-0.014	
15.735	0.001	-0.012	
15.740	0.135	-0.009	
15.745	-0.033	0.006	
15.750	-0.030	0.014	
15.755	0.184	0.019	
15.760	0.066	0.037	
15.765	0.005	0.054	
15.770	0.280	0.069	
15.775	0.294	0.103	
15.780	0.129	0.147	
15.785	0.280	0.179	
15.790	0.393	0.212	
15.795	0.217	0.249	
15.800	0.217	0.269	
15.805	0.396	0.277	
15.810	0.234	0.288	
15.815	0.057	0.282	
15.820	0.175	0.252	
15.825	0.118	0.214	
15.830	-0.095	0.171	
15.835	-0.042	0.113	
15.840	-0.002	0.055	
15.845	-0.150	0.007	
15.850	-0.160	-0.039	
15.855	-0.047	-0.078	
15.860	-0.141	-0.101	
15.865	-0.208	-0.119	
15.870	-0.091	-0.135	
15.875	-0.105	-0.141	
15.880	-0.211	-0.142	
15.885	-0.126	-0.146	
15.890	-0.044	-0.145	
15.895	-0.163	-0.134	
15.900	-0.160	-0.129	
15.905	-0.030	-0.126	
15.910	-0.126	-0.117	
15.915	-0.164	-0.112	
15.920	0.010	-0.109	
15.925	0.002	-0.094	
15.930	-0.137	-0.075	
15.935	-0.059	-0.067	
15.940	0.046	-0.060	
15.945	-0.117	-0.050	
15.950	-0.118	-0.049	
15.955	0.010	-0.056	
15.960	-0.103	-0.058	
15.965	-0.184	-0.066	
15.970	-0.082	-0.083	
15.975	-0.123	-0.098	
15.980	-0.227	-0.113	
15.985	-0.134	-0.132	
15.990	-0.074	-0.143	
15.995	-0.181	-0.144	
16.000	-0.170	-0.145	
16.005	-0.050	-0.146	
16.010	-0.123	-0.137	
16.015	-0.185	-0.130	
16.020	-0.066	-0.128	
16.025	-0.076	-0.122	
16.030	-0.163	-0.114	
16.035	-0.002	-0.107	
16.040	0.216	-0.082	
16.045	-0.001	-0.035	
16.050	-0.065	0.002	
16.055	-0.039	0.012	
16.060	-0.198	-0.001	
16.065	-0.272	-0.040	
16.070	-0.140	-0.093	
16.075	-0.103	-0.131	
16.080	-0.184	-0.151	
16.085	-0.083	-0.158	
16.090	0.019	-0.148	
16.095	-0.128	-0.123	
16.100	-0.120	-0.105	
16.105	0.031	-0.092	
16.110	-0.071	-0.075	
16.115	-0.138	-0.064	
16.120	0.007	-0.062	
16.125	0.025	-0.055	
16.130	-0.120	-0.044	
16.135	-0.027	-0.042	
16.140	0.104	-0.036	
16.145	-0.047	-0.020	
16.150	-0.024	-0.009	
16.155	0.193	0.002	
16.160	0.077	0.028	
16.165	0.004	0.051	
16.170	0.231	0.068	
16.175	0.265	0.097	
16.180	0.109	0.134	
16.185	0.262	0.162	
16.190	0.402	0.193	
16.195	0.234	0.233	
16.200	0.230	0.260	
16.205	0.378	0.275	
16.210	0.230	0.288	
16.215	0.111	0.284	
16.220	0.257	0.263	
16.225	0.194	0.242	
16.230	-0.054	0.214	
16.235	0.013	0.165	
16.240	0.054	0.112	
16.245	-0.129	0.065	
16.250	-0.152	0.013	
16.255	-0.048	-0.037	
16.260	-0.143	-0.073	
16.265	-0.210	-0.102	
16.270	-0.095	-0.128	
16.275	-0.100	-0.140	
16.280	-0.219	-0.144	
16.285	-0.149	-0.151	
16.290	-0.070	-0.154	
16.295	-0.170	-0.148	
16.300	-0.152	-0.144	
16.305	-0.012	-0.137	
16.310	-0.092	-0.121	
16.315	-0.160	-0.107	
16.320	-0.016	-0.101	
16.325	-0.019	-0.088	
16.330	-0.144	-0.075	
16.335	-0.068	-0.072	
16.340	0.007	-0.070	
16.345	-0.131	-0.065	
16.350	-0.132	-0.068	
16.355	-0.024	-0.076	
16.360	-0.123	-0.080	
16.365	-0.196	-0.089	
16.370	-0.083	-0.104	
16.375	-0.109	-0.114	
16.380	-0.213	-0.122	
16.385	-0.163	-0.135	
16.390	-0.099	-0.146	
16.395	-0.207	-0.151	
16.400	-0.199	-0.158	
16.405	-0.074	-0.164	
16.410	-0.144	-0.159	
16.415	-0.219	-0.154	
16.420	-0.112	-0.155	
16.425	-0.105	-0.153	
16.430	-0.185	-0.146	
16.435	-0.048	-0.141	
16.440	0.211	-0.115	
16.445	0.078	-0.060	
16.450	0.053	-0.003	
16.455	0.109	0.039	
16.460	-0.140	0.059	
16.465	-0.253	0.038	
16.470	-0.138	-0.015	
16.475	-0.134	-0.069	
16.480	-0.221	-0.112	
16.485	-0.131	-0.145	
16.490	-0.053	-0.159	
16.495	-0.166	-0.155	
16.500	-0.140	-0.149	
16.505	0.002	-0.139	
16.510	-0.080	-0.118	
16.515	-0.147	-0.100	
16.520	0.002	-0.090	
16.525	-0.002	-0.075	
16.530	-0.128	-0.060	
16.535	-0.027	-0.055	
16.540	0.094	-0.046	
16.545	-0.063	-0.029	
16.550	-0.054	-0.019	
16.555	0.149	-0.012	
16.560	0.053	0.008	
16.565	-0.019	0.027	
16.570	0.198	0.041	
16.575	0.227	0.068	
16.580	0.060	0.102	
16.585	0.233	0.126	
16.590	0.370	0.156	
16.595	0.236	0.198	
16.600	0.268	0.233	
16.605	0.458	0.264	
16.610	0.321	0.300	
16.615	0.164	0.321	
16.620	0.346	0.318	
16.625	0.248	0.308	
16.630	0.004	0.286	
16.635	0.065	0.237	
16.640	0.097	0.180	
16.645	-0.097	0.126	
16.650	-0.131	0.066	
16.655	-0.056	0.005	
16.660	-0.132	-0.043	
16.665	-0.199	-0.083	
16.670	-0.092	-0.116	
16.675	-0.117	-0.134	
16.680	-0.227	-0.143	
16.685	-0.153	-0.155	
16.690	-0.089	-0.161	
16.695	-0.192	-0.158	
16.700	-0.189	-0.158	
16.705	-0.060	-0.158	
16.710	-0.120	-0.149	
16.715	-0.175	-0.138	
16.720	-0.050	-0.132	
16.725	-0.060	-0.120	
16.730	-0.182	-0.108	
16.735	-0.100	-0.106	
16.740	-0.008	-0.104	
16.745	-0.135	-0.095	
16.750	-0.123	-0.092	
16.755	0.001	-0.091	
16.760	-0.109	-0.084	
16.765	-0.204	-0.085	
16.770	-0.111	-0.098	
16.775	-0.115	-0.112	
16.780	-0.228	-0.124	
16.785	-0.173	-0.142	
16.790	-0.111	-0.156	
16.795	-0.221	-0.162	
16.800	-0.213	-0.171	
16.805	-0.100	-0.178	
16.810	-0.169	-0.175	
16.815	-0.230	-0.173	
16.820	-0.134	-0.175	
16.825	-0.138	-0.173	
16.830	-0.240	-0.170	
16.835	-0.131	-0.172	
16.840	0.068	-0.161	
16.845	0.045	-0.124	
16.850	0.140	-0.069	
16.855	0.263	-0.002	
16.860	-0.028	0.061	
16.865	-0.233	0.079	
16.870	-0.164	0.043	
16.875	-0.158	-0.016	
16.880	-0.234	-0.075	
16.885	-0.149	-0.126	
16.890	-0.060	-0.155	
16.895	-0.169	-0.161	
16.900	-0.164	-0.160	
16.905	-0.025	-0.154	
16.910	-0.086	-0.137	
16.915	-0.150	-0.119	
16.920	-0.015	-0.107	
16.925	-0.001	-0.089	
16.930	-0.128	-0.071	
16.935	-0.018	-0.061	
16.940	0.100	-0.048	
16.945	-0.051	-0.027	
16.950	-0.031	-0.013	
16.955	0.167	-0.001	
16.960	0.057	0.021	
16.965	-0.024	0.040	
16.970	0.191	0.052	
16.975	0.255	0.076	
16.980	0.118	0.112	
16.985	0.280	0.144	
16.990	0.429	0.185	
16.995	0.294	0.237	
17.000	0.303	0.279	
17.005	0.532	0.315	
17.010	0.419	0.357	
17.015	0.315	0.389	
17.020	0.477	0.403	
17.025	0.417	0.414	
17.030	0.149	0.410	
17.035	0.175	0.373	
17.040	0.161	0.317	
17.045	-0.071	0.250	
17.050	-0.095	0.168	
17.055	0.008	0.085	
17.060	-0.120	0.019	
17.065	-0.196	-0.037	
17.070	-0.102	-0.086	
17.075	-0.124	-0.118	
17.080	-0.227	-0.139	
17.085	-0.170	-0.158	
17.090	-0.106	-0.169	
17.095	-0.195	-0.170	
17.100	-0.189	-0.171	
17.105	-0.065	-0.169	
17.110	-0.140	-0.158	
17.115	-0.201	-0.149	
17.120	-0.063	-0.144	
17.125	-0.050	-0.133	
17.130	-0.170	-0.118	
17.135	-0.092	-0.112	
17.140	-0.007	-0.104	
17.145	-0.143	-0.093	
17.150	-0.158	-0.091	
17.155	-0.019	-0.095	
17.160	-0.099	-0.093	
17.165	-0.163	-0.093	
17.170	-0.057	-0.097	
17.175	-0.071	-0.098	
17.180	-0.213	-0.099	
17.185	-0.160	-0.112	
17.190	-0.111	-0.127	
17.195	-0.224	-0.139	
17.200	-0.231	-0.156	
17.205	-0.120	-0.172	
17.210	-0.184	-0.179	
17.215	-0.251	-0.183	
17.220	-0.147	-0.190	
17.225	-0.138	-0.190	
17.230	-0.236	-0.185	
17.235	-0.173	-0.185	
17.240	-0.083	-0.181	
17.245	-0.149	-0.169	
17.250	-0.034	-0.150	
17.255	0.333	-0.108	
17.260	0.239	-0.028	
17.265	0.014	0.055	
17.270	-0.048	0.096	
17.275	-0.178	0.086	
17.280	-0.309	0.033	
17.285	-0.222	-0.047	
17.290	-0.131	-0.118	
17.295	-0.210	-0.163	
17.300	-0.187	-0.189	
17.305	-0.062	-0.197	
17.310	-0.099	-0.183	
17.315	-0.144	-0.161	
17.320	0.010	-0.138	
17.325	0.010	-0.107	
17.330	-0.123	-0.076	
17.335	-0.030	-0.059	
17.340	0.065	-0.045	
17.345	-0.070	-0.029	
17.350	-0.030	-0.020	
17.355	0.165	-0.010	
17.360	0.049	0.012	
17.365	-0.045	0.031	
17.370	0.138	0.039	
17.375	0.164	0.054	
17.380	0.017	0.074	
17.385	0.207	0.089	
17.390	0.385	0.117	
17.395	0.236	0.166	
17.400	0.306	0.212	
17.405	0.526	0.260	
17.410	0.413	0.317	
17.415	0.300	0.362	
17.420	0.487	0.387	
17.425	0.452	0.408	
17.430	0.228	0.417	
17.435	0.289	0.400	
17.440	0.301	0.369	
17.445	0.060	0.330	
17.450	-0.028	0.267	
17.455	0.091	0.192	
17.460	-0.062	0.124	
17.465	-0.160	0.058	
17.470	-0.073	-0.006	
17.475	-0.100	-0.055	
17.480	-0.230	-0.092	
17.485	-0.173	-0.127	
17.490	-0.121	-0.153	
17.495	-0.230	-0.167	
17.500	-0.218	-0.180	
17.505	-0.106	-0.189	
17.510	-0.182	-0.187	
17.515	-0.228	-0.183	
17.520	-0.111	-0.182	
17.525	-0.099	-0.174	
17.530	-0.198	-0.161	
17.535	-0.115	-0.153	
17.540	-0.018	-0.141	
17.545	-0.149	-0.123	
17.550	-0.140	-0.113	
17.555	-0.015	-0.107	
17.560	-0.088	-0.096	
17.565	-0.173	-0.090	
17.570	-0.062	-0.093	
17.575	-0.088	-0.095	
17.580	-0.202	-0.099	
17.585	-0.147	-0.112	
17.590	-0.079	-0.124	
17.595	-0.216	-0.132	
17.600	-0.227	-0.145	
17.605	-0.109	-0.160	
17.610	-0.167	-0.167	
17.615	-0.236	-0.171	
17.620	-0.128	-0.176	
17.625	-0.131	-0.175	
17.630	-0.228	-0.171	
17.635	-0.158	-0.171	
17.640	-0.100	-0.170	
17.645	-0.214	-0.164	
17.650	-0.221	-0.166	
17.655	-0.062	-0.169	
17.660	-0.018	-0.156	
17.665	-0.028	-0.127	
17.670	0.133	-0.086	
17.675	0.013	-0.039	
17.680	-0.245	-0.012	
17.685	-0.227	-0.029	
17.690	-0.179	-0.073	
17.695	-0.231	-0.119	
17.700	-0.193	-0.158	
17.705	-0.030	-0.178	
17.710	-0.086	-0.170	
17.715	-0.143	-0.151	
17.720	0.021	-0.130	
17.725	0.010	-0.100	
17.730	-0.131	-0.071	
17.735	-0.028	-0.056	
17.740	0.094	-0.043	
17.745	-0.070	-0.025	
17.750	-0.042	-0.015	
17.755	0.156	-0.007	
17.760	0.021	0.011	
17.765	-0.056	0.025	
17.770	0.143	0.029	
17.775	0.146	0.043	
17.780	-0.016	0.062	
17.785	0.124	0.070	
17.790	0.257	0.084	
17.795	0.083	0.109	
17.800	0.141	0.127	
17.805	0.394	0.147	
17.810	0.309	0.187	
17.815	0.201	0.228	
17.820	0.429	0.259	
17.825	0.434	0.295	
17.830	0.208	0.328	
17.835	0.306	0.337	
17.840	0.359	0.334	
17.845	0.111	0.323	
17.850	0.051	0.287	
17.855	0.184	0.235	
17.860	-0.007	0.185	
17.865	-0.123	0.128	
17.870	-0.012	0.065	
17.875	-0.041	0.013	
17.880	-0.184	-0.028	
17.885	-0.132	-0.068	
17.890	-0.066	-0.098	
17.895	-0.187	-0.116	
17.900	-0.185	-0.132	
17.905	-0.059	-0.144	
17.910	-0.134	-0.144	
17.915	-0.182	-0.140	
17.920	-0.051	-0.138	
17.925	-0.060	-0.128	
17.930	-0.184	-0.115	
17.935	-0.095	-0.112	
17.940	-0.022	-0.108	
17.945	-0.141	-0.099	
17.950	-0.128	-0.096	
17.955	0.010	-0.095	
17.960	-0.085	-0.086	
17.965	-0.167	-0.080	
17.970	-0.044	-0.084	
17.975	-0.048	-0.085	
17.980	-0.184	-0.084	
17.985	-0.134	-0.094	
17.990	-0.080	-0.106	
17.995	-0.204	-0.115	
18.000	-0.211	-0.131	
18.005	-0.100	-0.148	
18.010	-0.175	-0.156	
18.015	-0.225	-0.162	
18.020	-0.108	-0.169	
18.025	-0.108	-0.167	
18.030	-0.218	-0.160	
18.035	-0.138	-0.158	
18.040	-0.077	-0.155	
18.045	-0.189	-0.146	
18.050	-0.175	-0.144	
18.055	0.042	-0.140	
18.060	0.063	-0.113	
18.065	-0.019	-0.072	
18.070	0.112	-0.032	
18.075	-0.057	0.000	
18.080	-0.262	0.004	
18.085	-0.218	-0.032	
18.090	-0.128	-0.082	
18.095	-0.198	-0.122	
18.100	-0.178	-0.152	
18.105	-0.051	-0.166	
18.110	-0.097	-0.160	
18.115	-0.152	-0.146	
18.120	-0.010	-0.131	
18.125	0.008	-0.107	
18.130	-0.120	-0.081	
18.135	-0.044	-0.066	
18.140	0.066	-0.052	
18.145	-0.083	-0.036	
18.150	-0.062	-0.029	
18.155	0.133	-0.023	
18.160	0.010	-0.006	
18.165	-0.071	0.007	
18.170	0.133	0.012	
18.175	0.126	0.027	
18.180	-0.047	0.045	
18.185	0.112	0.053	
18.190	0.277	0.067	
18.195	0.091	0.097	
18.200	0.156	0.122	
18.205	0.390	0.149	
18.210	0.274	0.190	
18.215	0.162	0.226	
18.220	0.387	0.247	
18.225	0.364	0.272	
18.230	0.143	0.292	
18.235	0.227	0.289	
18.240	0.288	0.274	
18.245	0.051	0.256	
18.250	-0.015	0.217	
18.255	0.123	0.164	
18.260	-0.044	0.117	
18.265	-0.153	0.067	
18.270	-0.054	0.011	
18.275	-0.092	-0.035	
18.280	-0.205	-0.071	
18.285	-0.149	-0.106	
18.290	-0.076	-0.131	
18.295	-0.202	-0.142	
18.300	-0.195	-0.152	
18.305	-0.059	-0.159	
18.310	-0.137	-0.154	
18.315	-0.193	-0.147	
18.320	-0.074	-0.144	
18.325	-0.068	-0.135	
18.330	-0.181	-0.124	
18.335	-0.092	-0.119	
18.340	-0.004	-0.112	
18.345	-0.131	-0.099	
18.350	-0.126	-0.092	
18.355	0.042	-0.087	
18.360	-0.063	-0.074	
18.365	-0.147	-0.064	
18.370	-0.037	-0.066	
18.375	-0.008	-0.065	
18.380	-0.143	-0.062	
18.385	-0.080	-0.066	
18.390	-0.021	-0.071	
18.395	-0.169	-0.074	
18.400	-0.181	-0.086	
18.405	-0.071	-0.104	
18.410	-0.147	-0.116	
18.415	-0.214	-0.127	
18.420	-0.105	-0.140	
18.425	-0.102	-0.145	
18.430	-0.221	-0.145	
18.435	-0.153	-0.151	
18.440	-0.065	-0.153	
18.445	-0.190	-0.147	
18.450	-0.189	-0.147	
18.455	-0.039	-0.147	
18.460	-0.080	-0.137	
18.465	-0.089	-0.119	
18.470	0.207	-0.091	
18.475	0.219	-0.036	
18.480	-0.018	0.027	
18.485	-0.048	0.059	
18.490	-0.105	0.054	
18.495	-0.263	0.018	
18.500	-0.230	-0.043	
18.505	-0.086	-0.103	
18.510	-0.129	-0.137	
18.515	-0.170	-0.153	
18.520	-0.039	-0.156	
18.525	-0.037	-0.142	
18.530	-0.163	-0.121	
18.535	-0.056	-0.108	
18.540	0.045	-0.092	
18.545	-0.092	-0.070	
18.550	-0.083	-0.057	
18.555	0.098	-0.047	
18.560	-0.015	-0.029	
18.565	-0.099	-0.016	
18.570	0.091	-0.012	
18.575	0.118	0.001	
18.580	-0.060	0.020	
18.585	0.049	0.027	
18.590	0.196	0.037	
18.595	0.040	0.057	
18.600	0.063	0.072	
18.605	0.307	0.088	
18.610	0.236	0.122	
18.615	0.178	0.160	
18.620	0.393	0.195	
18.625	0.417	0.240	
18.630	0.210	0.284	
18.635	0.346	0.308	
18.640	0.439	0.324	
18.645	0.211	0.339	
18.650	0.172	0.331	
18.655	0.303	0.306	
18.660	0.106	0.278	
18.665	-0.053	0.234	
18.670	0.056	0.172	
18.675	0.019	0.113	
18.680	-0.152	0.061	
18.685	-0.121	0.005	
18.690	-0.076	-0.045	
18.695	-0.172	-0.082	
18.700	-0.185	-0.113	
18.705	-0.070	-0.135	
18.710	-0.134	-0.143	
18.715	-0.201	-0.145	
18.720	-0.070	-0.147	
18.725	-0.076	-0.140	
18.730	-0.181	-0.129	
18.735	-0.086	-0.124	
18.740	-0.005	-0.116	
18.745	-0.147	-0.101	
18.750	-0.134	-0.095	
18.755	0.037	-0.092	
18.760	-0.053	-0.079	
18.765	-0.129	-0.067	
18.770	-0.024	-0.064	
18.775	0.008	-0.059	
18.780	-0.131	-0.051	
18.785	-0.053	-0.053	
18.790	0.017	-0.053	
18.795	-0.149	-0.052	
18.800	-0.160	-0.062	
18.805	-0.051	-0.079	
18.810	-0.144	-0.092	
18.815	-0.231	-0.107	
18.820	-0.121	-0.129	
18.825	-0.108	-0.143	
18.830	-0.236	-0.149	
18.835	-0.158	-0.159	
18.840	-0.063	-0.163	
18.845	-0.185	-0.156	
18.850	-0.199	-0.154	
18.855	-0.073	-0.154	
18.860	-0.123	-0.148	
18.865	-0.161	-0.139	
18.870	0.056	-0.127	
18.875	0.236	-0.089	
18.880	0.106	-0.025	
18.885	0.194	0.041	
18.890	0.121	0.094	
18.895	-0.195	0.114	
18.900	-0.233	0.080	
18.905	-0.108	0.013	
18.910	-0.158	-0.051	
18.915	-0.205	-0.101	
18.920	-0.065	-0.137	
18.925	-0.060	-0.147	
18.930	-0.161	-0.141	
18.935	-0.076	-0.133	
18.940	0.028	-0.118	
18.945	-0.109	-0.095	
18.950	-0.086	-0.078	
18.955	0.071	-0.066	
18.960	-0.051	-0.047	
18.965	-0.132	-0.037	
18.970	0.056	-0.037	
18.975	0.065	-0.028	
18.980	-0.094	-0.014	
18.985	0.034	-0.009	
18.990	0.178	0.002	
18.995	0.021	0.026	
19.000	0.033	0.045	
19.005	0.272	0.062	
19.010	0.191	0.095	
19.015	0.123	0.129	
19.020	0.358	0.159	
19.025	0.408	0.202	
19.030	0.239	0.251	
19.035	0.396	0.288	
19.040	0.515	0.324	
19.045	0.306	0.362	
19.050	0.259	0.378	
19.055	0.368	0.371	
19.060	0.173	0.353	
19.065	0.016	0.313	
19.070	0.135	0.251	
19.075	0.075	0.191	
19.080	-0.117	0.134	
19.085	-0.066	0.071	
19.090	-0.018	0.014	
19.095	-0.187	-0.029	
19.100	-0.211	-0.073	
19.105	-0.095	-0.114	
19.110	-0.160	-0.139	
19.115	-0.219	-0.155	
19.120	-0.105	-0.166	
19.125	-0.112	-0.166	
19.130	-0.219	-0.161	
19.135	-0.144	-0.161	
19.140	-0.059	-0.157	
19.145	-0.167	-0.146	
19.150	-0.163	-0.139	
19.155	-0.045	-0.135	
19.160	-0.105	-0.125	
19.165	-0.161	-0.116	
19.170	-0.025	-0.111	
19.175	-0.025	-0.099	
19.180	-0.158	-0.085	
19.185	-0.100	-0.084	
19.190	0.002	-0.084	
19.195	-0.123	-0.078	
19.200	-0.152	-0.079	
19.205	-0.060	-0.088	
19.210	-0.143	-0.095	
19.215	-0.207	-0.106	
19.220	-0.111	-0.123	
19.225	-0.123	-0.134	
19.230	-0.236	-0.142	
19.235	-0.164	-0.155	
19.240	-0.099	-0.163	
19.245	-0.205	-0.163	
19.250	-0.198	-0.166	
19.255	-0.074	-0.168	
19.260	-0.137	-0.160	
19.265	-0.225	-0.153	
19.270	-0.109	-0.153	
19.275	-0.071	-0.149	
19.280	-0.103	-0.136	
19.285	0.193	-0.108	
19.290	0.416	-0.042	
19.295	0.202	0.054	
19.300	-0.013	0.129	
19.305	-0.057	0.148	
19.310	-0.201	0.114	
19.315	-0.256	0.044	
19.320	-0.121	-0.037	
19.325	-0.109	-0.098	
19.330	-0.208	-0.136	
19.335	-0.128	-0.159	
19.340	-0.022	-0.164	
19.345	-0.126	-0.149	
19.350	-0.112	-0.133	
19.355	0.039	-0.114	
19.360	-0.060	-0.089	
19.365	-0.134	-0.070	
19.370	0.040	-0.061	
19.375	0.065	-0.044	
19.380	-0.080	-0.024	
19.385	0.037	-0.012	
19.390	0.172	0.003	
19.395	-0.008	0.028	
19.400	-0.015	0.041	
19.405	0.190	0.047	
19.410	0.118	0.064	
19.415	0.065	0.083	
19.420	0.329	0.103	
19.425	0.381	0.145	
19.430	0.223	0.200	
19.435	0.382	0.245	
19.440	0.532	0.293	
19.445	0.368	0.346	
19.450	0.359	0.383	
19.455	0.585	0.408	
19.460	0.437	0.435	
19.465	0.245	0.447	
19.470	0.349	0.429	
19.475	0.268	0.397	
19.480	0.010	0.349	
19.485	0.037	0.276	
19.490	0.060	0.196	
19.495	-0.120	0.122	
19.500	-0.147	0.048	
19.505	-0.057	-0.019	
19.510	-0.143	-0.067	
19.515	-0.221	-0.104	
19.520	-0.120	-0.136	
19.525	-0.135	-0.154	
19.530	-0.242	-0.163	
19.535	-0.176	-0.175	
19.540	-0.102	-0.180	
19.545	-0.199	-0.176	
19.550	-0.189	-0.174	
19.555	-0.051	-0.169	
19.560	-0.124	-0.155	
19.565	-0.190	-0.142	
19.570	-0.059	-0.135	
19.575	-0.045	-0.123	
19.580	-0.164	-0.109	
19.585	-0.091	-0.104	
19.590	0.008	-0.097	
19.595	-0.124	-0.085	
19.600	-0.123	-0.080	
19.605	0.034	-0.079	
19.610	-0.074	-0.069	
19.615	-0.172	-0.065	
19.620	-0.086	-0.074	
19.625	-0.095	-0.085	
19.630	-0.214	-0.098	
19.635	-0.158	-0.117	
19.640	-0.099	-0.134	
19.645	-0.214	-0.144	
19.650	-0.219	-0.157	
19.655	-0.100	-0.169	
19.660	-0.160	-0.170	
19.665	-0.227	-0.169	
19.670	-0.123	-0.172	
19.675	-0.102	-0.168	
19.680	-0.225	-0.160	
19.685	-0.156	-0.160	
19.690	-0.053	-0.157	
19.695	-0.100	-0.144	
19.700	0.092	-0.118	
19.705	0.384	-0.062	
19.710	0.223	0.027	
19.715	-0.114	0.099	
19.720	-0.149	0.109	
19.725	-0.204	0.065	
19.730	-0.282	-0.007	
19.735	-0.196	-0.085	
19.740	-0.100	-0.144	
19.745	-0.169	-0.172	
19.750	-0.141	-0.181	
19.755	0.008	-0.173	
19.760	-0.077	-0.146	
19.765	-0.140	-0.119	
19.770	0.008	-0.100	
19.775	0.007	-0.077	
19.780	-0.126	-0.057	
19.785	-0.024	-0.049	
19.790	0.104	-0.039	
19.795	-0.051	-0.021	
19.800	-0.044	-0.010	
19.805	0.159	-0.002	
19.810	0.072	0.019	
19.815	-0.036	0.038	
19.820	0.184	0.048	
19.825	0.223	0.070	
19.830	0.057	0.100	
19.835	0.208	0.121	
19.840	0.396	0.149	
19.845	0.268	0.194	
19.850	0.300	0.237	
19.855	0.519	0.279	
19.860	0.428	0.329	
19.865	0.288	0.370	
19.870	0.483	0.390	
19.875	0.460	0.407	
19.880	0.204	0.415	
19.885	0.237	0.393	
19.890	0.248	0.352	
19.895	0.010	0.301	
19.900	-0.057	0.231	
19.905	0.049	0.151	
19.910	-0.083	0.082	
19.915	-0.195	0.018	
19.920	-0.105	-0.043	
19.925	-0.118	-0.089	
19.930	-0.233	-0.122	
19.935	-0.169	-0.150	
19.940	-0.092	-0.167	
19.945	-0.214	-0.171	
19.950	-0.222	-0.175	
19.955	-0.100	-0.180	
19.960	-0.156	-0.176	
19.965	-0.218	-0.171	
19.970	-0.102	-0.168	
19.975	-0.086	-0.160	
19.980	-0.179	-0.147	
19.985	-0.105	-0.139	
19.990	-0.025	-0.128	
19.995	-0.123	-0.112	
20.000	-0.140	-0.103	
20.005	-0.024	-0.099	
20.010	-0.103	-0.092	
20.015	-0.172	-0.090	
20.020	-0.054	-0.096	
20.025	-0.060	-0.097	
20.030	-0.202	-0.097	
20.035	-0.141	-0.107	
20.040	-0.073	-0.118	
20.045	-0.196	-0.124	
20.050	-0.228	-0.136	
20.055	-0.128	-0.153	
20.060	-0.173	-0.163	
20.065	-0.227	-0.170	
20.070	-0.112	-0.177	
20.075	-0.108	-0.173	
20.080	-0.213	-0.164	
20.085	-0.146	-0.161	
20.090	-0.089	-0.157	
20.095	-0.208	-0.151	
20.100	-0.202	-0.152	
20.105	-0.071	-0.157	
20.110	-0.062	-0.149	
20.115	-0.044	-0.128	
20.120	0.188	-0.093	
20.125	0.117	-0.037	
20.130	-0.179	0.008	
20.135	-0.213	0.008	
20.140	-0.179	-0.030	
20.145	-0.239	-0.080	
20.150	-0.204	-0.130	
20.155	-0.056	-0.163	
20.160	-0.099	-0.168	
20.165	-0.155	-0.158	
20.170	0.005	-0.143	
20.175	0.021	-0.115	
20.180	-0.114	-0.083	
20.185	-0.066	-0.064	
20.190	0.088	-0.051	
20.195	-0.068	-0.033	
20.200	-0.088	-0.024	
20.205	0.115	-0.021	
20.210	0.046	-0.007	
20.215	-0.060	0.008	
20.220	0.120	0.016	
20.225	0.138	0.031	
20.230	-0.015	0.051	
20.235	0.114	0.061	
20.240	0.254	0.077	
20.245	0.100	0.103	
20.250	0.140	0.125	
20.255	0.336	0.145	
20.260	0.277	0.179	
20.265	0.211	0.213	
20.270	0.402	0.241	
20.275	0.413	0.277	
20.280	0.199	0.309	
20.285	0.291	0.318	
20.290	0.376	0.318	
20.295	0.164	0.314	
20.300	0.078	0.291	
20.305	0.210	0.250	
20.310	0.054	0.209	
20.315	-0.089	0.161	
20.320	0.010	0.103	
20.325	-0.060	0.049	
20.330	-0.196	-0.001	
20.335	-0.128	-0.052	
20.340	-0.077	-0.092	
20.345	-0.195	-0.116	
20.350	-0.193	-0.137	
20.355	-0.071	-0.153	
20.360	-0.128	-0.153	
20.365	-0.196	-0.149	
20.370	-0.094	-0.148	
20.375	-0.068	-0.141	
20.380	-0.170	-0.130	
20.385	-0.109	-0.125	
20.390	-0.042	-0.119	
20.395	-0.147	-0.110	
20.400	-0.144	-0.107	
20.405	-0.013	-0.107	
20.410	-0.088	-0.099	
20.415	-0.156	-0.093	
20.420	-0.045	-0.093	
20.425	-0.048	-0.090	
20.430	-0.187	-0.087	
20.435	-0.140	-0.095	
20.440	-0.073	-0.107	
20.445	-0.195	-0.115	
20.450	-0.198	-0.128	
20.455	-0.097	-0.143	
20.460	-0.167	-0.149	
20.465	-0.239	-0.156	
20.470	-0.118	-0.166	
20.475	-0.112	-0.167	
20.480	-0.221	-0.163	
20.485	-0.158	-0.164	
20.490	-0.088	-0.163	
20.495	-0.207	-0.157	
20.500	-0.214	-0.158	
20.505	-0.074	-0.163	
20.510	-0.108	-0.156	
20.515	-0.099	-0.142	
20.520	0.159	-0.116	
20.525	0.129	-0.065	
20.530	-0.114	-0.014	
20.535	-0.155	0.002	
20.540	-0.153	-0.018	
20.545	-0.248	-0.056	
20.550	-0.239	-0.106	
20.555	-0.100	-0.149	
20.560	-0.111	-0.168	
20.565	-0.158	-0.168	
20.570	-0.025	-0.158	
20.575	-0.013	-0.135	
20.580	-0.140	-0.107	
20.585	-0.062	-0.090	
20.590	0.048	-0.075	
20.595	-0.099	-0.057	
20.600	-0.095	-0.048	
20.605	0.053	-0.046	
20.610	-0.024	-0.038	
20.615	-0.080	-0.030	
20.620	0.085	-0.025	
20.625	0.115	-0.009	
20.630	-0.045	0.013	
20.635	0.068	0.026	
20.640	0.208	0.041	
20.645	0.046	0.066	
20.650	0.072	0.083	
20.655	0.306	0.099	
20.660	0.234	0.131	
20.665	0.140	0.165	
20.670	0.355	0.191	
20.675	0.362	0.224	
20.680	0.167	0.257	
20.685	0.255	0.270	
20.690	0.352	0.273	
20.695	0.127	0.275	
20.700	0.078	0.257	
20.705	0.210	0.223	
20.710	0.048	0.191	
20.715	-0.097	0.149	
20.720	-0.001	0.094	
20.725	-0.028	0.044	
20.730	-0.173	0.001	
20.735	-0.128	-0.044	
20.740	-0.051	-0.080	
20.745	-0.181	-0.102	
20.750	-0.190	-0.122	
20.755	-0.082	-0.139	
20.760	-0.150	-0.145	
20.765	-0.227	-0.149	
20.770	-0.109	-0.157	
20.775	-0.082	-0.156	
20.780	-0.182	-0.147	
20.785	-0.120	-0.142	
20.790	-0.030	-0.134	
20.795	-0.138	-0.120	
20.800	-0.143	-0.112	
20.805	-0.008	-0.107	
20.810	-0.076	-0.096	
20.815	-0.144	-0.087	
20.820	-0.027	-0.084	
20.825	-0.019	-0.077	
20.830	-0.146	-0.070	
20.835	-0.063	-0.070	
20.840	0.043	-0.068	
20.845	-0.117	-0.059	
20.850	-0.149	-0.059	
20.855	-0.019	-0.068	
20.860	-0.105	-0.074	
20.865	-0.185	-0.082	
20.870	-0.086	-0.097	
20.875	-0.102	-0.107	
20.880	-0.222	-0.116	
20.885	-0.146	-0.131	
20.890	-0.045	-0.140	
20.895	-0.170	-0.137	
20.900	-0.187	-0.137	
20.905	-0.050	-0.139	
20.910	-0.126	-0.133	
20.915	-0.202	-0.129	
20.920	-0.056	-0.130	
20.925	0.007	-0.121	
20.930	-0.042	-0.098	
20.935	0.172	-0.064	
20.940	0.245	-0.011	
20.945	-0.044	0.046	
20.950	-0.175	0.065	
20.955	-0.134	0.038	
20.960	-0.185	-0.011	
20.965	-0.233	-0.068	
20.970	-0.099	-0.117	
20.975	-0.062	-0.143	
20.980	-0.166	-0.147	
20.985	-0.083	-0.144	
20.990	0.005	-0.131	
20.995	-0.092	-0.108	
21.000	-0.105	-0.090	
21.005	0.059	-0.076	
21.010	-0.019	-0.055	
21.015	-0.109	-0.039	
21.020	0.040	-0.033	
21.025	0.095	-0.021	
21.030	-0.082	-0.004	
21.035	0.021	0.003	
21.040	0.161	0.011	
21.045	-0.002	0.029	
21.050	-0.008	0.039	
21.055	0.210	0.046	
21.060	0.144	0.066	
21.065	0.062	0.090	
21.070	0.300	0.111	
21.075	0.358	0.148	
21.080	0.187	0.194	
21.085	0.283	0.228	
21.090	0.420	0.257	
21.095	0.249	0.287	
21.100	0.248	0.302	
21.105	0.419	0.308	
21.110	0.284	0.317	
21.115	0.118	0.314	
21.120	0.231	0.289	
21.125	0.159	0.258	
21.130	-0.076	0.217	
21.135	-0.036	0.155	
21.140	0.013	0.090	
21.145	-0.135	0.035	
21.150	-0.169	-0.019	
21.155	-0.068	-0.066	
21.160	-0.141	-0.098	
21.165	-0.208	-0.121	
21.170	-0.112	-0.141	
21.175	-0.099	-0.150	
21.180	-0.208	-0.150	
21.185	-0.167	-0.154	
21.190	-0.060	-0.155	
21.195	-0.153	-0.148	
21.200	-0.140	-0.140	
21.205	-0.001	-0.130	
21.210	-0.086	-0.112	
21.215	-0.166	-0.098	
21.220	-0.044	-0.094	
21.225	-0.010	-0.087	
21.230	-0.149	-0.077	
21.235	-0.080	-0.076	
21.240	0.016	-0.075	
21.245	-0.117	-0.068	
21.250	-0.128	-0.068	
21.255	-0.001	-0.073	
21.260	-0.095	-0.072	
21.265	-0.181	-0.076	
21.270	-0.100	-0.089	
21.275	-0.109	-0.102	
21.280	-0.219	-0.114	
21.285	-0.166	-0.132	
21.290	-0.088	-0.146	
21.295	-0.190	-0.150	
21.300	-0.210	-0.156	
21.305	-0.092	-0.162	
21.310	-0.144	-0.160	
21.315	-0.214	-0.157	
21.320	-0.099	-0.158	
21.325	-0.092	-0.152	
21.330	-0.187	-0.143	
21.335	-0.076	-0.137	
21.340	0.176	-0.116	
21.345	0.126	-0.066	
21.350	0.121	-0.004	
21.355	0.193	0.053	
21.360	-0.092	0.091	
21.365	-0.245	0.081	
21.370	-0.173	0.027	
21.375	-0.146	-0.039	
21.380	-0.225	-0.096	
21.385	-0.149	-0.141	
21.390	-0.042	-0.163	
21.395	-0.135	-0.161	
21.400	-0.146	-0.151	
21.405	0.010	-0.138	
21.410	-0.060	-0.114	
21.415	-0.138	-0.093	
21.420	-0.001	-0.081	
21.425	0.033	-0.065	
21.430	-0.108	-0.047	
21.435	-0.028	-0.040	
21.440	0.094	-0.032	
21.445	-0.060	-0.017	
21.450	-0.054	-0.011	
21.455	0.140	-0.007	
21.460	0.060	0.009	
21.465	-0.033	0.026	
21.470	0.175	0.037	
21.475	0.231	0.061	
21.480	0.088	0.095	
21.485	0.248	0.124	
21.490	0.419	0.162	
21.495	0.262	0.213	
21.500	0.266	0.254	
21.505	0.461	0.286	
21.510	0.355	0.320	
21.515	0.196	0.340	
21.520	0.352	0.338	
21.525	0.310	0.331	
21.530	0.031	0.312	
21.535	0.045	0.265	
21.540	0.107	0.203	
21.545	-0.086	0.143	
21.550	-0.132	0.078	
21.555	-0.022	0.015	
21.560	-0.117	-0.033	
21.565	-0.199	-0.071	
21.570	-0.108	-0.106	
21.575	-0.115	-0.127	
21.580	-0.224	-0.141	
21.585	-0.164	-0.155	
21.590	-0.092	-0.163	
21.595	-0.201	-0.162	
21.600	-0.201	-0.164	
21.605	-0.060	-0.165	
21.610	-0.112	-0.155	
21.615	-0.181	-0.143	
21.620	-0.071	-0.136	
21.625	-0.063	-0.125	
21.630	-0.182	-0.114	
21.635	-0.106	-0.113	
21.640	-0.012	-0.110	
21.645	-0.137	-0.100	
21.650	-0.149	-0.097	
21.655	-0.010	-0.098	
21.660	-0.076	-0.092	
21.665	-0.169	-0.087	
21.670	-0.077	-0.091	
21.675	-0.083	-0.095	
21.680	-0.207	-0.100	
21.685	-0.169	-0.115	
21.690	-0.105	-0.131	
21.695	-0.207	-0.142	
21.700	-0.231	-0.155	
21.705	-0.095	-0.169	
21.710	-0.164	-0.171	
21.715	-0.237	-0.171	
21.720	-0.124	-0.175	
21.725	-0.111	-0.172	
21.730	-0.219	-0.165	
21.735	-0.155	-0.163	
21.740	-0.057	-0.160	
21.745	-0.120	-0.146	
21.750	-0.047	-0.129	
21.755	0.294	-0.092	
21.760	0.233	-0.022	
21.765	-0.004	0.052	
21.770	-0.050	0.086	
21.775	-0.147	0.076	
21.780	-0.279	0.028	
21.785	-0.205	-0.043	
21.790	-0.088	-0.105	
21.795	-0.167	-0.142	
21.800	-0.163	-0.161	
21.805	-0.033	-0.165	
21.810	-0.095	-0.151	
21.815	-0.160	-0.134	
21.820	-0.030	-0.122	
21.825	-0.013	-0.104	
21.830	-0.137	-0.085	
21.835	-0.073	-0.076	
21.840	0.040	-0.069	
21.845	-0.095	-0.057	
21.850	-0.105	-0.052	
21.855	0.092	-0.050	
21.860	0.040	-0.034	
21.865	-0.060	-0.015	
21.870	0.146	0.000	
21.875	0.184	0.027	
21.880	0.043	0.061	
21.885	0.170	0.086	
21.890	0.329	0.116	
21.895	0.185	0.156	
21.900	0.185	0.188	
21.905	0.458	0.215	
21.910	0.400	0.259	
21.915	0.263	0.302	
21.920	0.443	0.331	
21.925	0.448	0.358	
21.930	0.201	0.376	
21.935	0.208	0.364	
21.940	0.295	0.333	
21.945	0.051	0.296	
21.950	-0.021	0.240	
21.955	0.106	0.174	
21.960	-0.044	0.116	
21.965	-0.175	0.059	
21.970	-0.089	-0.002	
21.975	-0.095	-0.053	
21.980	-0.224	-0.091	
21.985	-0.176	-0.126	
21.990	-0.106	-0.152	
21.995	-0.205	-0.164	
22.000	-0.227	-0.174	
22.005	-0.114	-0.182	
22.010	-0.169	-0.181	
22.015	-0.227	-0.179	
22.020	-0.121	-0.179	
22.025	-0.102	-0.172	
22.030	-0.189	-0.161	
22.035	-0.129	-0.154	
22.040	-0.016	-0.143	
22.045	-0.134	-0.125	
22.050	-0.150	-0.113	
22.055	-0.027	-0.108	
22.060	-0.079	-0.098	
22.065	-0.173	-0.092	
22.070	-0.070	-0.095	
22.075	-0.051	-0.095	
22.080	-0.175	-0.094	
22.085	-0.153	-0.102	
22.090	-0.077	-0.112	
22.095	-0.185	-0.120	
22.100	-0.219	-0.132	
22.105	-0.118	-0.148	
22.110	-0.179	-0.158	
22.115	-0.253	-0.167	
22.120	-0.143	-0.179	
22.125	-0.134	-0.183	
22.130	-0.243	-0.181	
22.135	-0.185	-0.184	
22.140	-0.097	-0.184	
22.145	-0.211	-0.178	
22.150	-0.236	-0.177	
22.155	-0.118	-0.180	
22.160	-0.068	-0.174	
22.165	0.007	-0.150	
22.170	0.336	-0.098	
22.175	0.373	-0.005	
22.180	0.025	0.092	
22.185	-0.126	0.137	
22.190	-0.135	0.117	
22.195	-0.253	0.056	
22.200	-0.253	-0.026	
22.205	-0.108	-0.101	
22.210	-0.140	-0.148	
22.215	-0.207	-0.171	
22.220	-0.086	-0.180	
22.225	-0.041	-0.171	
22.230	-0.167	-0.150	
22.235	-0.097	-0.134	
22.240	0.033	-0.117	
22.245	-0.091	-0.092	
22.250	-0.100	-0.075	
22.255	0.092	-0.061	
22.260	0.031	-0.038	
22.265	-0.085	-0.017	
22.270	0.098	-0.005	
22.275	0.155	0.014	
22.280	-0.028	0.039	
22.285	0.062	0.051	
22.290	0.259	0.064	
22.295	0.132	0.091	
22.300	0.144	0.118	
22.305	0.364	0.146	
22.310	0.326	0.188	
22.315	0.255	0.233	
22.320	0.481	0.272	
22.325	0.536	0.323	
22.330	0.339	0.375	
22.335	0.420	0.407	
22.340	0.536	0.427	
22.345	0.320	0.442	
22.350	0.220	0.432	
22.355	0.355	0.399	
22.360	0.181	0.360	
22.365	-0.059	0.305	
22.370	0.042	0.226	
22.375	0.025	0.148	
22.380	-0.169	0.079	
22.385	-0.150	0.009	
22.390	-0.076	-0.052	
22.395	-0.189	-0.095	
22.400	-0.214	-0.130	
22.405	-0.109	-0.156	
22.410	-0.161	-0.168	
22.415	-0.254	-0.174	
22.420	-0.146	-0.183	
22.425	-0.128	-0.184	
22.430	-0.228	-0.180	
22.435	-0.169	-0.180	
22.440	-0.083	-0.176	
22.445	-0.176	-0.165	
22.450	-0.195	-0.159	
22.455	-0.053	-0.155	
22.460	-0.100	-0.143	
22.465	-0.166	-0.130	
22.470	-0.012	-0.120	
22.475	0.004	-0.101	
22.480	-0.146	-0.081	
22.485	-0.105	-0.074	
22.490	-0.004	-0.073	
22.495	-0.153	-0.072	
22.500	-0.182	-0.080	
22.505	-0.097	-0.098	
22.510	-0.160	-0.114	
22.515	-0.243	-0.131	
22.520	-0.150	-0.152	
22.525	-0.131	-0.165	
22.530	-0.225	-0.171	
22.535	-0.173	-0.177	
22.540	-0.086	-0.177	
22.545	-0.187	-0.170	
22.550	-0.207	-0.165	
22.555	-0.076	-0.164	
22.560	-0.143	-0.156	
22.565	-0.227	-0.150	
22.570	-0.112	-0.153	
22.575	-0.016	-0.147	
22.580	-0.013	-0.125	
22.585	0.187	-0.084	
22.590	0.353	-0.015	
22.595	0.039	0.064	
22.600	-0.173	0.103	
22.605	-0.147	0.082	
22.610	-0.205	0.026	
22.615	-0.256	-0.044	
22.620	-0.123	-0.109	
22.625	-0.073	-0.148	
22.630	-0.175	-0.160	
22.635	-0.111	-0.161	
22.640	0.037	-0.148	
22.645	-0.092	-0.121	
22.650	-0.128	-0.097	
22.655	0.059	-0.081	
22.660	-0.027	-0.060	
22.665	-0.111	-0.044	
22.670	0.062	-0.036	
22.675	0.121	-0.019	
22.680	-0.048	0.004	
22.685	0.039	0.018	
22.690	0.190	0.031	
22.695	0.036	0.053	
22.700	0.016	0.067	
22.705	0.255	0.076	
22.710	0.219	0.101	
22.715	0.117	0.132	
22.720	0.326	0.159	
22.725	0.411	0.197	
22.730	0.217	0.242	
22.735	0.320	0.274	
22.740	0.532	0.303	
22.745	0.370	0.342	
22.750	0.310	0.371	
22.755	0.486	0.385	
22.760	0.353	0.396	
22.765	0.127	0.390	
22.770	0.248	0.354	
22.775	0.188	0.308	
22.780	-0.066	0.255	
22.785	-0.065	0.181	
22.790	0.019	0.103	
22.795	-0.143	0.038	
22.800	-0.198	-0.022	
22.805	-0.097	-0.077	
22.810	-0.152	-0.115	
22.815	-0.231	-0.142	
22.820	-0.141	-0.163	
22.825	-0.121	-0.173	
22.830	-0.236	-0.175	
22.835	-0.202	-0.180	
22.840	-0.086	-0.183	
22.845	-0.175	-0.176	
22.850	-0.207	-0.170	
22.855	-0.073	-0.166	
22.860	-0.102	-0.154	
22.865	-0.176	-0.141	
22.870	-0.080	-0.133	
22.875	-0.053	-0.123	
22.880	-0.164	-0.111	
22.885	-0.131	-0.108	
22.890	-0.030	-0.108	
22.895	-0.140	-0.103	
22.900	-0.158	-0.103	
22.905	-0.042	-0.107	
22.910	-0.103	-0.105	
22.915	-0.208	-0.106	
22.920	-0.124	-0.117	
22.925	-0.115	-0.127	
22.930	-0.239	-0.136	
22.935	-0.195	-0.151	
22.940	-0.109	-0.165	
22.945	-0.198	-0.170	
22.950	-0.227	-0.174	
22.955	-0.100	-0.179	
22.960	-0.134	-0.174	
22.965	-0.224	-0.167	
22.970	-0.138	-0.166	
22.975	-0.120	-0.163	
22.980	-0.210	-0.159	
22.985	-0.137	-0.159	
22.990	0.063	-0.149	
22.995	0.074	-0.113	
23.000	0.051	-0.063	
23.005	0.181	-0.010	
23.010	-0.068	0.034	
23.015	-0.256	0.039	
23.020	-0.184	-0.001	
23.025	-0.134	-0.055	
23.030	-0.219	-0.102	
23.035	-0.156	-0.140	
23.040	-0.027	-0.159	
23.045	-0.112	-0.154	
23.050	-0.132	-0.140	
23.055	-0.004	-0.126	
23.060	-0.036	-0.103	
23.065	-0.118	-0.082	
23.070	0.014	-0.068	
23.075	0.072	-0.050	
23.080	-0.105	-0.029	
23.085	-0.057	-0.022	
23.090	0.120	-0.020	
23.095	-0.021	-0.007	
23.100	-0.039	0.002	
23.105	0.159	0.009	
23.110	0.117	0.029	
23.115	-0.008	0.051	
23.120	0.176	0.065	
23.125	0.239	0.087	
23.130	0.085	0.116	
23.135	0.202	0.137	
23.140	0.375	0.162	
23.145	0.248	0.199	
23.150	0.214	0.231	
23.155	0.426	0.255	
23.160	0.341	0.285	
23.165	0.185	0.306	
23.170	0.333	0.309	
23.175	0.332	0.308	
23.180	0.066	0.299	
23.185	0.066	0.264	
23.190	0.149	0.215	
23.195	-0.062	0.164	
23.200	-0.121	0.105	
23.205	-0.004	0.042	
23.210	-0.095	-0.007	
23.215	-0.204	-0.048	
23.220	-0.117	-0.088	
23.225	-0.074	-0.115	
23.230	-0.190	-0.128	
23.235	-0.158	-0.139	
23.240	-0.056	-0.145	
23.245	-0.161	-0.141	
23.250	-0.176	-0.138	
23.255	-0.053	-0.138	
23.260	-0.082	-0.129	
23.265	-0.169	-0.118	
23.270	-0.060	-0.114	
23.275	-0.018	-0.104	
23.280	-0.144	-0.092	
23.285	-0.094	-0.087	
23.290	0.039	-0.082	
23.295	-0.102	-0.070	
23.300	-0.134	-0.065	
23.305	0.002	-0.067	
23.310	-0.059	-0.065	
23.315	-0.160	-0.064	
23.320	-0.054	-0.072	
23.325	-0.036	-0.077	
23.330	-0.196	-0.080	
23.335	-0.166	-0.094	
23.340	-0.071	-0.111	
23.345	-0.182	-0.122	
23.350	-0.210	-0.134	
23.355	-0.076	-0.147	
23.360	-0.106	-0.148	
23.365	-0.201	-0.143	
23.370	-0.106	-0.143	
23.375	-0.085	-0.139	
23.380	-0.198	-0.134	
23.385	-0.150	-0.135	
23.390	-0.048	-0.136	
23.395	-0.123	-0.129	
23.400	-0.115	-0.120	
23.405	0.179	-0.102	
23.410	0.132	-0.057	
23.415	-0.077	-0.007	
23.420	-0.071	0.014	
23.425	-0.103	0.007	
23.430	-0.233	-0.021	
23.435	-0.185	-0.066	
23.440	-0.056	-0.106	
23.445	-0.140	-0.127	
23.450	-0.156	-0.136	
23.455	0.007	-0.136	
23.460	-0.030	-0.119	
23.465	-0.132	-0.097	
23.470	-0.005	-0.082	
23.475	0.053	-0.064	
23.480	-0.102	-0.043	
23.485	-0.060	-0.035	
23.490	0.117	-0.029	
23.495	-0.030	-0.014	
23.500	-0.066	-0.005	
23.505	0.127	-0.001	
23.510	0.054	0.012	
23.515	-0.070	0.024	
23.520	0.100	0.026	
23.525	0.187	0.037	
23.530	0.011	0.058	
23.535	0.094	0.071	
23.540	0.286	0.087	
23.545	0.176	0.118	
23.550	0.141	0.147	
23.555	0.355	0.172	
23.560	0.310	0.206	
23.565	0.149	0.236	
23.570	0.317	0.250	
23.575	0.352	0.263	
23.580	0.114	0.274	
23.585	0.150	0.262	
23.590	0.268	0.239	
23.595	0.037	0.217	
23.600	-0.056	0.179	
23.605	0.083	0.128	
23.610	-0.021	0.084	
23.615	-0.160	0.041	
23.620	-0.077	-0.007	
23.625	-0.054	-0.046	
23.630	-0.190	-0.074	
23.635	-0.166	-0.102	
23.640	-0.050	-0.123	
23.645	-0.155	-0.130	
23.650	-0.185	-0.135	
23.655	-0.048	-0.139	
23.660	-0.082	-0.132	
23.665	-0.182	-0.122	
23.670	-0.065	-0.119	
23.675	-0.008	-0.110	
23.680	-0.137	-0.095	
23.685	-0.095	-0.088	
23.690	0.042	-0.081	
23.695	-0.082	-0.067	
23.700	-0.121	-0.059	
23.705	0.031	-0.058	
23.710	-0.025	-0.050	
23.715	-0.132	-0.044	
23.720	-0.034	-0.048	
23.725	-0.016	-0.051	
23.730	-0.156	-0.054	
23.735	-0.129	-0.066	
23.740	-0.028	-0.080	
23.745	-0.144	-0.088	
23.750	-0.173	-0.098	
23.755	-0.057	-0.110	
23.760	-0.115	-0.114	
23.765	-0.214	-0.119	
23.770	-0.126	-0.130	
23.775	-0.068	-0.136	
23.780	-0.178	-0.134	
23.785	-0.149	-0.135	
23.790	-0.054	-0.135	
23.795	-0.166	-0.129	
23.800	-0.167	-0.128	
23.805	0.001	-0.127	
23.810	0.046	-0.109	
23.815	-0.007	-0.076	
23.820	0.147	-0.037	
23.825	0.129	0.008	
23.830	-0.163	0.040	
23.835	-0.208	0.029	
23.840	-0.128	-0.014	
23.845	-0.201	-0.063	
23.850	-0.208	-0.110	
23.855	-0.048	-0.143	
23.860	-0.042	-0.149	
23.865	-0.140	-0.137	
23.870	-0.030	-0.122	
23.875	0.027	-0.100	
23.880	-0.131	-0.076	
23.885	-0.080	-0.064	
23.890	0.082	-0.057	
23.895	-0.031	-0.040	
23.900	-0.079	-0.027	
23.905	0.106	-0.020	
23.910	0.051	-0.004	
23.915	-0.077	0.011	
23.920	0.043	0.013	
23.925	0.112	0.017	
23.930	-0.041	0.027	
23.935	0.040	0.030	
23.940	0.239	0.039	
23.945	0.117	0.065	
23.950	0.115	0.093	
23.955	0.349	0.122	
23.960	0.312	0.165	
23.965	0.167	0.209	
23.970	0.381	0.239	
23.975	0.436	0.273	
23.980	0.231	0.307	
23.985	0.248	0.320	
23.990	0.358	0.318	
23.995	0.169	0.310	
24.000	0.037	0.283	
24.005	0.161	0.236	
24.010	0.033	0.187	
24.015	-0.108	0.134	
24.020	-0.019	0.074	
24.025	-0.016	0.023	
24.030	-0.163	-0.016	
24.035	-0.149	-0.055	
24.040	-0.050	-0.087	
24.045	-0.156	-0.106	
24.050	-0.190	-0.121	
24.055	-0.076	-0.134	
24.060	-0.111	-0.137	
24.065	-0.187	-0.135	
24.070	-0.095	-0.136	
24.075	-0.045	-0.131	
24.080	-0.158	-0.120	
24.085	-0.106	-0.114	
24.090	0.002	-0.107	
24.095	-0.108	-0.094	
24.100	-0.146	-0.086	
24.105	0.007	-0.085	
24.110	-0.044	-0.077	
24.115	-0.140	-0.069	
24.120	-0.047	-0.069	
24.125	0.017	-0.066	
24.130	-0.126	-0.059	
24.135	-0.108	-0.061	
24.140	-0.008	-0.066	
24.145	-0.140	-0.069	
24.150	-0.187	-0.079	
24.155	-0.056	-0.096	
24.160	-0.100	-0.105	
24.165	-0.211	-0.112	
24.170	-0.134	-0.125	
24.175	-0.089	-0.134	
24.180	-0.213	-0.138	
24.185	-0.184	-0.147	
24.190	-0.073	-0.154	
24.195	-0.160	-0.152	
24.200	-0.195	-0.150	
24.205	-0.080	-0.150	
24.210	-0.109	-0.144	
24.215	-0.176	-0.136	
24.220	0.022	-0.128	
24.225	0.231	-0.095	
24.230	0.068	-0.036	
24.235	0.054	0.019	
24.240	0.031	0.052	
24.245	-0.184	0.056	
24.250	-0.259	0.020	
24.255	-0.141	-0.041	
24.260	-0.144	-0.094	
24.265	-0.204	-0.133	
24.270	-0.095	-0.157	
24.275	-0.033	-0.159	
24.280	-0.155	-0.146	
24.285	-0.128	-0.134	
24.290	0.014	-0.122	
24.295	-0.057	-0.100	
24.300	-0.112	-0.081	
24.305	0.048	-0.068	
24.310	0.022	-0.048	
24.315	-0.095	-0.030	
24.320	0.033	-0.022	
24.325	0.103	-0.010	
24.330	-0.054	0.006	
24.335	-0.015	0.012	
24.340	0.178	0.017	
24.345	0.068	0.035	
24.350	0.010	0.052	
24.355	0.243	0.067	
24.360	0.205	0.094	
24.365	0.092	0.124	
24.370	0.320	0.149	
24.375	0.463	0.189	
24.380	0.275	0.244	
24.385	0.318	0.287	
24.390	0.478	0.320	
24.395	0.295	0.349	
24.400	0.191	0.357	
24.405	0.330	0.342	
24.410	0.228	0.321	
24.415	-0.007	0.288	
24.420	0.063	0.231	
24.425	0.071	0.169	
24.430	-0.124	0.111	
24.435	-0.129	0.048	
24.440	-0.033	-0.011	
24.445	-0.156	-0.054	
24.450	-0.204	-0.091	
24.455	-0.102	-0.123	
24.460	-0.131	-0.141	
24.465	-0.224	-0.151	
24.470	-0.126	-0.160	
24.475	-0.085	-0.161	
24.480	-0.198	-0.155	
24.485	-0.179	-0.153	
24.490	-0.057	-0.153	
24.495	-0.153	-0.145	
24.500	-0.179	-0.139	
24.505	-0.034	-0.136	
24.510	-0.083	-0.125	
24.515	-0.173	-0.113	
24.520	-0.065	-0.110	
24.525	-0.018	-0.102	
24.530	-0.155	-0.092	
24.535	-0.135	-0.091	
24.540	0.005	-0.093	
24.545	-0.105	-0.088	
24.550	-0.167	-0.086	
24.555	-0.071	-0.093	
24.560	-0.114	-0.098	
24.565	-0.240	-0.108	
24.570	-0.163	-0.128	
24.575	-0.111	-0.145	
24.580	-0.225	-0.155	
24.585	-0.213	-0.167	
24.590	-0.106	-0.177	
24.595	-0.179	-0.177	
24.600	-0.224	-0.176	
24.605	-0.117	-0.178	
24.610	-0.163	-0.174	
24.615	-0.245	-0.172	
24.620	-0.146	-0.176	
24.625	-0.050	-0.173	
24.630	-0.129	-0.156	
24.635	0.021	-0.133	
24.640	0.304	-0.087	
24.645	0.158	-0.012	
24.650	-0.050	0.054	
24.655	-0.070	0.075	
24.660	-0.182	0.055	
24.665	-0.274	0.002	
24.670	-0.173	-0.066	
24.675	-0.114	-0.121	
24.680	-0.189	-0.153	
24.685	-0.152	-0.170	
24.690	-0.047	-0.172	
24.695	-0.134	-0.159	
24.700	-0.164	-0.145	
24.705	-0.024	-0.134	
24.710	-0.054	-0.116	
24.715	-0.149	-0.099	
24.720	-0.044	-0.090	
24.725	0.065	-0.077	
24.730	-0.088	-0.057	
24.735	-0.045	-0.043	
24.740	0.118	-0.032	
24.745	-0.004	-0.011	
24.750	-0.053	0.003	
24.755	0.165	0.013	
24.760	0.144	0.034	
24.765	-0.012	0.059	
24.770	0.173	0.074	
24.775	0.298	0.097	
24.780	0.165	0.133	
24.785	0.254	0.167	
24.790	0.457	0.205	
24.795	0.335	0.256	
24.800	0.243	0.296	
24.805	0.448	0.320	
24.810	0.419	0.345	
24.815	0.202	0.362	
24.820	0.274	0.354	
24.825	0.289	0.333	
24.830	0.017	0.301	
24.835	-0.027	0.244	
24.840	0.062	0.172	
24.845	-0.097	0.104	
24.850	-0.172	0.038	
24.855	-0.076	-0.025	
24.860	-0.115	-0.072	
24.865	-0.230	-0.106	
24.870	-0.166	-0.138	
24.875	-0.131	-0.160	
24.880	-0.234	-0.172	
24.885	-0.204	-0.183	
24.890	-0.106	-0.189	
24.895	-0.179	-0.185	
24.900	-0.224	-0.180	
24.905	-0.118	-0.179	
24.910	-0.129	-0.173	
24.915	-0.204	-0.165	
24.920	-0.103	-0.160	
24.925	-0.030	-0.148	
24.930	-0.152	-0.130	
24.935	-0.137	-0.118	
24.940	-0.019	-0.111	
24.945	-0.105	-0.100	
24.950	-0.158	-0.094	
24.955	-0.028	-0.095	
24.960	-0.048	-0.089	
24.965	-0.179	-0.084	
24.970	-0.105	-0.090	
24.975	-0.068	-0.097	
24.980	-0.187	-0.102	
24.985	-0.187	-0.115	
24.990	-0.114	-0.131	
24.995	-0.214	-0.144	
25.000	-0.253	-0.160	
25.005	-0.137	-0.178	
25.010	-0.137	-0.185	
25.015	-0.234	-0.184	
25.020	-0.150	-0.184	
25.025	-0.099	-0.179	
25.030	-0.204	-0.170	
25.035	-0.199	-0.166	
25.040	-0.095	-0.166	
25.045	-0.158	-0.160	
25.050	-0.156	-0.154	
25.055	0.219	-0.134	
25.060	0.367	-0.070	
25.065	0.198	0.028	
25.070	0.161	0.113	
25.075	-0.037	0.157	
25.080	-0.253	0.141	
25.085	-0.254	0.071	
25.090	-0.134	-0.018	
25.095	-0.182	-0.091	
25.100	-0.216	-0.143	
25.105	-0.077	-0.174	
25.110	-0.062	-0.177	
25.115	-0.158	-0.163	
25.120	-0.089	-0.147	
25.125	-0.012	-0.128	
25.130	-0.135	-0.107	
25.135	-0.106	-0.094	
25.140	0.080	-0.083	
25.145	-0.010	-0.060	
25.150	-0.079	-0.039	
25.155	0.088	-0.025	
25.160	0.074	-0.005	
25.165	-0.063	0.013	
25.170	0.080	0.021	
25.175	0.191	0.034	
25.180	0.030	0.057	
25.185	0.088	0.074	
25.190	0.347	0.093	
25.195	0.254	0.134	
25.200	0.190	0.177	
25.205	0.446	0.216	
25.210	0.475	0.267	
25.215	0.307	0.321	
25.220	0.460	0.360	
25.225	0.541	0.394	
25.230	0.332	0.425	
25.235	0.317	0.432	
25.240	0.436	0.420	
25.245	0.220	0.402	
25.250	0.059	0.362	
25.255	0.176	0.299	
25.260	0.091	0.236	
25.265	-0.115	0.173	
25.270	-0.077	0.100	
25.275	-0.041	0.031	
25.280	-0.185	-0.024	
25.285	-0.193	-0.075	
25.290	-0.102	-0.117	
25.295	-0.170	-0.142	
25.300	-0.230	-0.159	
25.305	-0.131	-0.174	
25.310	-0.146	-0.178	
25.315	-0.227	-0.177	
25.320	-0.166	-0.179	
25.325	-0.106	-0.178	
25.330	-0.205	-0.171	
25.335	-0.173	-0.168	
25.340	-0.037	-0.163	
25.345	-0.112	-0.147	
25.350	-0.170	-0.132	
25.355	-0.039	-0.123	
25.360	-0.045	-0.109	
25.365	-0.156	-0.096	
25.370	-0.073	-0.091	
25.375	-0.010	-0.086	
25.380	-0.144	-0.079	
25.385	-0.131	-0.081	
25.390	0.014	-0.085	
25.395	-0.120	-0.081	
25.400	-0.181	-0.083	
25.405	-0.085	-0.095	
25.410	-0.126	-0.105	
25.415	-0.230	-0.117	
25.420	-0.161	-0.136	
25.425	-0.097	-0.150	
25.430	-0.204	-0.155	
25.435	-0.199	-0.161	
25.440	-0.092	-0.167	
25.445	-0.156	-0.163	
25.450	-0.213	-0.160	
25.455	-0.099	-0.161	
25.460	-0.111	-0.155	
25.465	-0.222	-0.149	
25.470	-0.138	-0.150	
25.475	0.008	-0.146	
25.480	-0.002	-0.122	
25.485	0.193	-0.079	
25.490	0.376	-0.008	
25.495	0.088	0.076	
25.500	-0.185	0.120	
25.505	-0.161	0.099	
25.510	-0.181	0.039	
25.515	-0.256	-0.034	
25.520	-0.153	-0.102	
25.525	-0.060	-0.146	
25.530	-0.150	-0.160	
25.535	-0.141	-0.161	
25.540	0.002	-0.151	
25.545	-0.086	-0.129	
25.550	-0.141	-0.108	
25.555	0.011	-0.095	
25.560	0.007	-0.076	
25.565	-0.112	-0.057	
25.570	-0.010	-0.047	
25.575	0.075	-0.036	
25.580	-0.062	-0.021	
25.585	-0.022	-0.013	
25.590	0.167	-0.003	
25.595	0.080	0.020	
25.600	0.005	0.043	
25.605	0.214	0.060	
25.610	0.213	0.088	
25.615	0.053	0.117	
25.620	0.228	0.135	
25.625	0.384	0.160	
25.630	0.242	0.200	
25.635	0.272	0.235	
25.640	0.486	0.268	
25.645	0.378	0.309	
25.650	0.205	0.339	
25.655	0.397	0.346	
25.660	0.384	0.349	
25.665	0.167	0.348	
25.670	0.220	0.326	
25.675	0.243	0.295	
25.680	-0.018	0.257	
25.685	-0.060	0.197	
25.690	0.043	0.127	
25.695	-0.106	0.066	
25.700	-0.187	0.007	
25.705	-0.089	-0.050	
25.710	-0.115	-0.090	
25.715	-0.225	-0.119	
25.720	-0.173	-0.145	
25.725	-0.114	-0.163	
25.730	-0.207	-0.170	
25.735	-0.199	-0.175	
25.740	-0.083	-0.177	
25.745	-0.164	-0.170	
25.750	-0.218	-0.164	
25.755	-0.100	-0.163	
25.760	-0.085	-0.156	
25.765	-0.182	-0.144	
25.770	-0.108	-0.138	
25.775	-0.021	-0.128	
25.780	-0.160	-0.114	
25.785	-0.158	-0.109	
25.790	-0.021	-0.110	
25.795	-0.109	-0.104	
25.800	-0.167	-0.100	
25.805	-0.036	-0.102	
25.810	-0.037	-0.097	
25.815	-0.182	-0.090	
25.820	-0.123	-0.094	
25.825	-0.056	-0.101	
25.830	-0.195	-0.106	
25.835	-0.205	-0.119	
25.840	-0.103	-0.136	
25.845	-0.178	-0.146	
25.850	-0.242	-0.157	
25.855	-0.131	-0.170	
25.860	-0.129	-0.174	
25.865	-0.225	-0.172	
25.870	-0.152	-0.173	
25.875	-0.085	-0.170	
25.880	-0.193	-0.161	
25.885	-0.193	-0.157	
25.890	-0.080	-0.157	
25.895	-0.109	-0.149	
25.900	-0.100	-0.136	
25.905	0.190	-0.110	
25.910	0.213	-0.054	
25.915	-0.036	0.010	
25.920	-0.085	0.042	
25.925	-0.126	0.035	
25.930	-0.260	-0.002	
25.935	-0.253	-0.062	
25.940	-0.114	-0.120	
25.945	-0.144	-0.156	
25.950	-0.181	-0.171	
25.955	-0.037	-0.172	
25.960	-0.039	-0.155	
25.965	-0.143	-0.129	
25.970	-0.045	-0.110	
25.975	0.042	-0.089	
25.980	-0.099	-0.065	
25.985	-0.089	-0.053	
25.990	0.100	-0.045	
25.995	-0.012	-0.028	
26.000	-0.088	-0.015	
26.005	0.091	-0.011	
26.010	0.089	0.002	
26.015	-0.063	0.017	
26.020	0.053	0.022	
26.025	0.188	0.031	
26.030	0.019	0.051	
26.035	0.057	0.064	
26.040	0.275	0.077	
26.045	0.237	0.109	
26.050	0.155	0.146	
26.055	0.371	0.180	
26.060	0.376	0.222	
26.065	0.201	0.263	
26.070	0.307	0.284	
26.075	0.378	0.298	
26.080	0.153	0.305	
26.085	0.127	0.290	
26.090	0.294	0.262	
26.095	0.126	0.238	
26.100	-0.037	0.206	
26.105	0.091	0.159	
26.110	0.024	0.114	
26.115	-0.160	0.070	
26.120	-0.114	0.016	
26.125	-0.057	-0.033	
26.130	-0.173	-0.070	
26.135	-0.175	-0.102	
26.140	-0.059	-0.126	
26.145	-0.129	-0.134	
26.150	-0.211	-0.137	
26.155	-0.105	-0.144	
26.160	-0.091	-0.144	
26.165	-0.187	-0.140	
26.170	-0.108	-0.138	
26.175	-0.025	-0.131	
26.180	-0.138	-0.118	
26.185	-0.137	-0.109	
26.190	0.005	-0.104	
26.195	-0.082	-0.092	
26.200	-0.155	-0.083	
26.205	-0.036	-0.083	
26.210	-0.025	-0.080	
26.215	-0.134	-0.073	
26.220	-0.050	-0.072	
26.225	0.043	-0.067	
26.230	-0.115	-0.056	
26.235	-0.150	-0.056	
26.240	-0.034	-0.066	
26.245	-0.114	-0.074	
26.250	-0.181	-0.085	
26.255	-0.082	-0.100	
26.260	-0.106	-0.110	
26.265	-0.221	-0.118	
26.270	-0.155	-0.133	
26.275	-0.063	-0.143	
26.280	-0.169	-0.142	
26.285	-0.179	-0.143	
26.290	-0.063	-0.144	
26.295	-0.135	-0.138	
26.300	-0.198	-0.134	
26.305	-0.080	-0.136	
26.310	-0.066	-0.131	
26.315	-0.161	-0.122	
26.320	-0.024	-0.114	
26.325	0.193	-0.090	
26.330	0.027	-0.043	
26.335	-0.057	-0.004	
26.340	-0.056	0.010	
26.345	-0.196	-0.002	
26.350	-0.257	-0.040	
26.355	-0.134	-0.090	
26.360	-0.092	-0.127	
26.365	-0.167	-0.144	
26.370	-0.091	-0.149	
26.375	0.019	-0.140	
26.380	-0.106	-0.117	
26.385	-0.109	-0.098	
26.390	0.034	-0.084	
26.395	-0.036	-0.065	
26.400	-0.117	-0.051	
26.405	0.031	-0.046	
26.410	0.039	-0.035	
26.415	-0.100	-0.023	
26.420	0.008	-0.020	
26.425	0.144	-0.012	
26.430	-0.036	0.006	
26.435	-0.036	0.016	
26.440	0.185	0.021	
26.445	0.120	0.041	
26.450	0.025	0.064	
26.455	0.239	0.082	
26.460	0.272	0.112	
26.465	0.117	0.147	
26.470	0.217	0.171	
26.475	0.370	0.193	
26.480	0.220	0.223	
26.485	0.227	0.244	
26.490	0.432	0.261	
26.495	0.310	0.285	
26.500	0.156	0.301	
26.505	0.291	0.295	
26.510	0.230	0.282	
26.515	-0.033	0.257	
26.520	0.036	0.206	
26.525	0.082	0.149	
26.530	-0.103	0.098	
26.535	-0.131	0.043	
26.540	-0.039	-0.011	
26.545	-0.124	-0.051	
26.550	-0.211	-0.084	
26.555	-0.105	-0.115	
26.560	-0.102	-0.133	
26.565	-0.222	-0.142	
26.570	-0.147	-0.152	
26.575	-0.063	-0.156	
26.580	-0.181	-0.150	
26.585	-0.178	-0.147	
26.590	-0.030	-0.145	
26.595	-0.097	-0.132	
26.600	-0.169	-0.120	
26.605	-0.045	-0.114	
26.610	-0.025	-0.103	
26.615	-0.153	-0.090	
26.620	-0.099	-0.087	
26.625	0.024	-0.084	
26.630	-0.105	-0.075	
26.635	-0.120	-0.070	
26.640	0.027	-0.070	
26.645	-0.063	-0.063	
26.650	-0.144	-0.059	
26.655	-0.051	-0.065	
26.660	-0.063	-0.070	
26.665	-0.189	-0.077	
26.670	-0.137	-0.092	
26.675	-0.062	-0.107	
26.680	-0.181	-0.115	
26.685	-0.190	-0.126	
26.690	-0.076	-0.138	
26.695	-0.144	-0.140	
26.700	-0.205	-0.142	
26.705	-0.083	-0.146	
26.710	-0.074	-0.142	
26.715	-0.190	-0.133	
26.720	-0.128	-0.131	
26.725	-0.059	-0.129	
26.730	-0.147	-0.122	
26.735	-0.105	-0.118	
26.740	0.205	-0.101	
26.745	0.196	-0.051	
26.750	0.062	0.014	
26.755	0.086	0.062	
26.760	-0.086	0.081	
26.765	-0.260	0.059	
26.770	-0.204	0.000	
26.775	-0.102	-0.064	
26.780	-0.166	-0.111	
26.785	-0.152	-0.140	
26.790	-0.005	-0.150	
26.795	-0.066	-0.138	
26.800	-0.134	-0.120	
26.805	-0.012	-0.104	
26.810	0.040	-0.083	
26.815	-0.121	-0.059	
26.820	-0.056	-0.049	
26.825	0.085	-0.041	
26.830	-0.053	-0.027	
26.835	-0.048	-0.019	
26.840	0.135	-0.012	
26.845	0.049	0.007	
26.850	-0.059	0.022	
26.855	0.130	0.029	
26.860	0.170	0.044	
26.865	0.011	0.065	
26.870	0.147	0.080	
26.875	0.313	0.100	
26.880	0.161	0.135	
26.885	0.190	0.166	
26.890	0.410	0.194	
26.895	0.358	0.235	
26.900	0.245	0.275	
26.905	0.419	0.302	
26.910	0.416	0.329	
26.915	0.205	0.349	
26.920	0.257	0.344	
26.925	0.335	0.327	
26.930	0.080	0.304	
26.935	0.001	0.260	
26.940	0.132	0.200	
26.945	-0.018	0.145	
26.950	-0.150	0.089	
26.955	-0.062	0.027	
26.960	-0.071	-0.024	
26.965	-0.205	-0.064	
26.970	-0.155	-0.101	
26.975	-0.091	-0.128	
26.980	-0.204	-0.143	
26.985	-0.210	-0.157	
26.990	-0.102	-0.168	
26.995	-0.156	-0.169	
27.000	-0.216	-0.167	
27.005	-0.100	-0.167	
27.010	-0.080	-0.159	
27.015	-0.181	-0.146	
27.020	-0.123	-0.139	
27.025	-0.019	-0.130	
27.030	-0.132	-0.116	
27.035	-0.140	-0.106	
27.040	0.008	-0.101	
27.045	-0.068	-0.088	
27.050	-0.155	-0.079	
27.055	-0.024	-0.078	
27.060	-0.027	-0.074	
27.065	-0.156	-0.069	
27.070	-0.105	-0.074	
27.075	-0.045	-0.082	
27.080	-0.181	-0.088	
27.085	-0.213	-0.104	
27.090	-0.134	-0.126	
27.095	-0.185	-0.145	
27.100	-0.248	-0.162	
27.105	-0.137	-0.178	
27.110	-0.128	-0.183	
27.115	-0.231	-0.181	
27.120	-0.155	-0.180	
27.125	-0.065	-0.175	
27.130	-0.178	-0.161	
27.135	-0.195	-0.153	
27.140	-0.082	-0.151	
27.145	-0.141	-0.145	
27.150	-0.199	-0.141	
27.155	-0.004	-0.138	
27.160	0.191	-0.112	
27.165	0.129	-0.055	
27.170	0.198	0.013	
27.175	0.170	0.076	
27.180	-0.158	0.110	
27.185	-0.236	0.089	
27.190	-0.124	0.028	
27.195	-0.161	-0.037	
27.200	-0.221	-0.093	
27.205	-0.095	-0.136	
27.210	-0.063	-0.154	
27.215	-0.175	-0.152	
27.220	-0.114	-0.148	
27.225	-0.010	-0.137	
27.230	-0.134	-0.119	
27.235	-0.124	-0.107	
27.240	0.034	-0.097	
27.245	-0.025	-0.078	
27.250	-0.114	-0.060	
27.255	0.034	-0.051	
27.260	0.065	-0.036	
27.265	-0.077	-0.018	
27.270	0.017	-0.009	
27.275	0.193	0.004	
27.280	0.040	0.030	
27.285	0.028	0.051	
27.290	0.259	0.069	
27.295	0.219	0.100	
27.300	0.124	0.134	
27.305	0.338	0.164	
27.310	0.405	0.204	
27.315	0.243	0.250	
27.320	0.365	0.284	
27.325	0.519	0.318	
27.330	0.341	0.356	
27.335	0.289	0.378	
27.340	0.428	0.381	
27.345	0.259	0.377	
27.350	0.059	0.352	
27.355	0.176	0.300	
27.360	0.152	0.245	
27.365	-0.092	0.191	
27.370	-0.083	0.123	
27.375	-0.013	0.055	
27.380	-0.166	-0.001	
27.385	-0.219	-0.055	
27.390	-0.109	-0.104	
27.395	-0.149	-0.136	
27.400	-0.230	-0.156	
27.405	-0.128	-0.171	
27.410	-0.120	-0.175	
27.415	-0.237	-0.172	
27.420	-0.184	-0.175	
27.425	-0.089	-0.176	
27.430	-0.181	-0.169	
27.435	-0.189	-0.164	
27.440	-0.047	-0.159	
27.445	-0.099	-0.145	
27.450	-0.182	-0.131	
27.455	-0.070	-0.124	
27.460	-0.016	-0.114	
27.465	-0.167	-0.100	
27.470	-0.120	-0.096	
27.475	0.007	-0.095	
27.480	-0.108	-0.087	
27.485	-0.132	-0.083	
27.490	-0.005	-0.083	
27.495	-0.102	-0.079	
27.500	-0.196	-0.081	
27.505	-0.111	-0.095	
27.510	-0.114	-0.109	
27.515	-0.236	-0.122	
27.520	-0.195	-0.142	
27.525	-0.115	-0.160	
27.530	-0.211	-0.168	
27.535	-0.224	-0.177	
27.540	-0.106	-0.183	
27.545	-0.161	-0.180	
27.550	-0.234	-0.176	
27.555	-0.132	-0.177	
27.560	-0.111	-0.173	
27.565	-0.233	-0.166	
27.570	-0.163	-0.166	
27.575	-0.012	-0.162	
27.580	0.007	-0.138	
27.585	0.167	-0.093	
27.590	0.449	-0.017	
27.595	0.326	0.087	
27.600	-0.082	0.170	
27.605	-0.132	0.180	
27.610	-0.167	0.128	
27.615	-0.271	0.045	
27.620	-0.208	-0.046	
27.625	-0.106	-0.119	
27.630	-0.175	-0.161	
27.635	-0.169	-0.180	
27.640	-0.027	-0.181	
27.645	-0.070	-0.162	
27.650	-0.143	-0.137	
27.655	-0.015	-0.116	
27.660	0.014	-0.092	
27.665	-0.118	-0.068	
27.670	-0.053	-0.056	
27.675	0.098	-0.046	
27.680	-0.045	-0.028	
27.685	-0.073	-0.017	
27.690	0.121	-0.011	
27.695	0.085	0.005	
27.700	-0.007	0.025	
27.705	0.194	0.043	
27.710	0.274	0.074	
27.715	0.098	0.114	
27.720	0.208	0.144	
27.725	0.411	0.175	
27.730	0.315	0.220	
27.735	0.320	0.264	
27.740	0.535	0.306	
27.745	0.455	0.355	
27.750	0.317	0.395	
27.755	0.477	0.414	
27.760	0.474	0.427	
27.765	0.223	0.431	
27.770	0.230	0.406	
27.775	0.320	0.366	
27.780	0.089	0.322	
27.785	-0.036	0.263	
27.790	0.069	0.189	
27.795	-0.065	0.120	
27.800	-0.179	0.052	
27.805	-0.106	-0.015	
27.810	-0.100	-0.068	
27.815	-0.231	-0.106	
27.820	-0.204	-0.141	
27.825	-0.112	-0.166	
27.830	-0.234	-0.179	
27.835	-0.257	-0.191	
27.840	-0.149	-0.203	
27.845	-0.182	-0.205	
27.850	-0.245	-0.204	
27.855	-0.160	-0.204	
27.860	-0.121	-0.198	
27.865	-0.207	-0.186	
27.870	-0.153	-0.178	
27.875	-0.054	-0.167	
27.880	-0.163	-0.151	
27.885	-0.164	-0.140	
27.890	-0.022	-0.132	
27.895	-0.071	-0.117	
27.900	-0.169	-0.103	
27.905	-0.071	-0.100	
27.910	-0.045	-0.096	
27.915	-0.176	-0.092	
27.920	-0.132	-0.097	
27.925	-0.056	-0.105	
27.930	-0.179	-0.109	
27.935	-0.222	-0.120	
27.940	-0.144	-0.139	
27.945	-0.199	-0.155	
27.950	-0.253	-0.171	
27.955	-0.135	-0.186	
27.960	-0.114	-0.189	
27.965	-0.218	-0.182	
27.970	-0.175	-0.178	
27.975	-0.092	-0.174	
27.980	-0.190	-0.165	
27.985	-0.214	-0.162	
27.990	-0.088	-0.163	
27.995	-0.121	-0.157	
28.000	-0.169	-0.148	
28.005	0.109	-0.133	
28.010	0.355	-0.082	
28.015	0.193	0.005	
28.020	0.170	0.089	
28.025	0.024	0.139	
28.030	-0.225	0.138	
28.035	-0.292	0.079	
28.040	-0.178	-0.010	
28.045	-0.163	-0.090	
28.050	-0.213	-0.145	
28.055	-0.079	-0.177	
28.060	-0.018	-0.177	
28.065	-0.144	-0.157	
28.070	-0.097	-0.136	
28.075	0.031	-0.115	
28.080	-0.077	-0.089	
28.085	-0.097	-0.070	
28.090	0.086	-0.056	
28.095	0.022	-0.034	
28.100	-0.095	-0.016	
28.105	0.046	-0.009	
28.110	0.124	0.001	
28.115	-0.050	0.017	
28.120	0.010	0.024	
28.125	0.211	0.031	
28.130	0.091	0.053	
28.135	0.046	0.074	
28.140	0.262	0.091	
28.145	0.251	0.121	
28.150	0.146	0.155	
28.155	0.352	0.184	
28.160	0.439	0.224	
28.165	0.249	0.271	
28.170	0.339	0.302	
28.175	0.477	0.327	
28.180	0.327	0.354	
28.185	0.234	0.364	
28.190	0.370	0.356	
28.195	0.233	0.342	
28.200	0.024	0.312	
28.205	0.094	0.256	
28.210	0.083	0.195	
28.215	-0.120	0.136	
28.220	-0.115	0.069	
28.225	-0.039	0.005	
28.230	-0.164	-0.043	
28.235	-0.225	-0.087	
28.240	-0.111	-0.125	
28.245	-0.155	-0.149	
28.250	-0.230	-0.163	
28.255	-0.134	-0.175	
28.260	-0.121	-0.176	
28.265	-0.228	-0.173	
28.270	-0.187	-0.174	
28.275	-0.071	-0.174	
28.280	-0.172	-0.165	
28.285	-0.187	-0.158	
28.290	-0.048	-0.152	
28.295	-0.083	-0.139	
28.300	-0.176	-0.124	
28.305	-0.059	-0.117	
28.310	-0.018	-0.106	
28.315	-0.138	-0.092	
28.320	-0.108	-0.087	
28.325	0.001	-0.084	
28.330	-0.121	-0.078	
28.335	-0.161	-0.079	
28.340	-0.048	-0.088	
28.345	-0.106	-0.093	
28.350	-0.199	-0.099	
28.355	-0.109	-0.112	
28.360	-0.102	-0.122	
28.365	-0.224	-0.129	
28.370	-0.182	-0.142	
28.375	-0.091	-0.154	
28.380	-0.175	-0.156	
28.385	-0.198	-0.158	
28.390	-0.082	-0.160	
28.395	-0.126	-0.154	
28.400	-0.208	-0.147	
28.405	-0.121	-0.148	
28.410	-0.076	-0.145	
28.415	-0.184	-0.138	
28.420	-0.124	-0.135	
28.425	0.130	-0.123	
28.430	0.091	-0.084	
28.435	0.028	-0.033	
28.440	0.111	0.010	
28.445	-0.108	0.035	
28.450	-0.259	0.025	
28.455	-0.181	-0.022	
28.460	-0.137	-0.076	
28.465	-0.207	-0.119	
28.470	-0.135	-0.150	
28.475	-0.019	-0.160	
28.480	-0.108	-0.149	
28.485	-0.124	-0.132	
28.490	0.024	-0.115	
28.495	-0.024	-0.090	
28.500	-0.103	-0.067	
