Time	Potential	EKG	Unnamed: 3
0.0	0.379	0.0167978590813075	
0.005	0.220	0.06601113822960467	
0.01	0.475	0.14153171927158484	
0.015	0.460	0.2261165239889346	
0.02	0.217	0.29666192621424475	
0.025	0.333	0.3372777107814818	
0.03	0.472	0.35822171296389044	
0.035	0.250	0.36828664907639785	
0.04	0.206	0.36176327843893535	
0.045	0.452	0.3465338084818714	
0.05	0.365	0.3386836831153995	
0.055	0.208	0.3356082594748624	
0.06	0.464	0.3348335632030275	
0.065	0.502	0.34530818649900397	
0.07	0.272	0.3643211027014974	
0.075	0.431	0.3783436215395185	
0.08	0.654	0.39851037556806085	
0.085	0.455	0.43110110067950824	
0.09	0.359	0.4586473232693533	
0.095	0.586	0.47273751436251094	
0.1	0.447	0.47863541781286534	
0.105	0.208	0.47045750960834415	
0.11	0.360	0.44092305065912135	
0.115	0.336	0.401326215346949	
0.12	0.013	0.35223699738157327	
0.125	0.061	0.28737746605555015	
0.13	0.343	0.22551489685334025	
0.135	1.306	0.24315020658391204	
0.14	2.336	0.45294226211855904	
0.145	3.083	0.8949149001963075	
0.15	3.081	1.4754733069473656	
0.155	3.081	2.0573694270494993	
0.16	3.083	2.538000355488628	
0.165	3.080	2.8711851689959307	
0.17	3.044	3.069023613247352	
0.175	3.048	3.168503883944296	
0.18	3.005	3.1936001013663904	
0.185	2.565	3.1467646059641092	
0.19	2.308	3.0286373459395572	
0.195	2.299	2.8520215583754203	
0.2	1.894	2.6394524977001805	
0.205	1.442	2.395239196114014	
0.21	1.454	2.1262219668742457	
0.215	1.269	1.857404782772651	
0.22	0.754	1.5979160984451033	
0.225	0.657	1.3394997513866387	
0.23	0.605	1.0887885888679791	
0.235	0.185	0.8538016608691785	
0.24	0.015	0.6285894697469359	
0.245	0.079	0.42008458055491427	
0.25	-0.084	0.2385450771312992	
0.255	-0.248	0.08925841607509422	
0.26	-0.159	-0.029809644126339158	
0.265	-0.197	-0.12057984510626348	
0.27	-0.361	-0.18902126342446043	
0.275	-0.332	-0.2405253395337579	
0.28	-0.298	-0.281269796248254	
0.285	-0.430	-0.3181492131859761	
0.29	-0.440	-0.34838730847026955	
0.295	-0.278	-0.3679877765050614	
0.3	-0.333	-0.37645385440307866	
0.305	-0.494	-0.3787113679830871	
0.31	-0.465	-0.3858850992181788	
0.315	-0.512	-0.41062793375066114	
0.32	-0.636	-0.4489812994483018	
0.325	-0.549	-0.4875303480233598	
0.33	-0.434	-0.5152932116192226	
0.335	-0.527	-0.5291165683214725	
0.34	-0.535	-0.5293788987664818	
0.345	-0.413	-0.5210203531243616	
0.35	-0.472	-0.5094555344629168	
0.355	-0.558	-0.4997003050979537	
0.36	-0.430	-0.4898816642159657	
0.365	-0.416	-0.4816061332865306	
0.37	-0.515	-0.47498003707836983	
0.375	-0.475	-0.467558713274989	
0.38	-0.367	-0.461289559293648	
0.385	-0.468	-0.45611432803504487	
0.39	-0.475	-0.4484089476033156	
0.395	-0.315	-0.43800718294693197	
0.4	-0.347	-0.4244292860125221	
0.405	-0.423	-0.40572828258552873	
0.41	-0.271	-0.38387912509591127	
0.415	-0.220	-0.35957135344246793	
0.42	-0.303	-0.3320049437284458	
0.425	-0.199	-0.2995682611810174	
0.43	-0.092	-0.2642470769772727	
0.435	-0.213	-0.23113719547356135	
0.44	-0.232	-0.203451240757888	
0.445	-0.098	-0.18497196957646017	
0.45	-0.171	-0.17442862897866565	
0.455	-0.309	-0.17178439235523632	
0.46	-0.211	-0.17986296282869912	
0.465	-0.223	-0.1975458776220904	
0.47	-0.407	-0.22205371782409228	
0.475	-0.375	-0.25357609182999885	
0.48	-0.317	-0.28920921396033017	
0.485	-0.466	-0.3271561881142544	
0.49	-0.509	-0.36345963091606726	
0.495	-0.376	-0.39692958004932183	
0.5	-0.440	-0.4234299443297636	
0.505	-0.547	-0.4417972072088103	
0.51	-0.413	-0.4538247567586071	
0.515	-0.394	-0.46053907348083023	
0.52	-0.514	-0.46207780994079867	
0.525	-0.433	-0.4575455702375147	
0.53	-0.335	-0.4491906368355223	
0.535	-0.425	-0.4381953902833213	
0.54	-0.437	-0.42445034582022934	
0.545	-0.310	-0.40889509571161575	
0.55	-0.362	-0.3974767041730203	
0.555	-0.454	-0.3878265511723725	
0.56	-0.317	-0.3787663853572477	
0.565	-0.318	-0.37154854742464066	
0.57	-0.448	-0.3691529588301625	
0.575	-0.381	-0.3675064719462504	
0.58	-0.313	-0.3681359920982886	
0.585	-0.456	-0.3742805387676941	
0.59	-0.494	-0.38447728712503226	
0.595	-0.355	-0.39779197336264194	
0.6	-0.419	-0.41050116084969784	
0.605	-0.497	-0.4199140032687256	
0.61	-0.371	-0.42367971146332783	
0.615	-0.362	-0.42349722626067776	
0.62	-0.489	-0.4232678899606619	
0.625	-0.437	-0.42148873048683794	
0.63	-0.344	-0.42102397069312997	
0.635	-0.437	-0.4203607103008874	
0.64	-0.371	-0.4135296908531557	
0.645	-0.121	-0.3896466910269025	
0.65	-0.106	-0.34449850264193493	
0.655	-0.255	-0.287048779401679	
0.66	-0.234	-0.23862292415311287	
0.665	-0.313	-0.22144980477199996	
0.67	-0.446	-0.2374146297999906	
0.675	-0.361	-0.26747148342128146	
0.68	-0.222	-0.2968728877267177	
0.685	-0.315	-0.3134536735478881	
0.69	-0.317	-0.31561420800424955	
0.695	-0.141	-0.3034987580489894	
0.7	-0.222	-0.285528767622678	
0.705	-0.318	-0.2662103073494786	
0.71	-0.164	-0.24847902241671976	
0.715	-0.142	-0.23332125078215019	
0.72	-0.292	-0.22159304317254133	
0.725	-0.208	-0.21247516404399783	
0.73	-0.080	-0.20369512864279138	
0.735	-0.211	-0.195576589276655	
0.74	-0.222	-0.18574288784131582	
0.745	-0.045	-0.17331290704459362	
0.75	-0.110	-0.16151983667771375	
0.755	-0.170	-0.14640447229861936	
0.76	0.096	-0.12235345902297709	
0.765	0.232	-0.07916667704814977	
0.77	0.046	-0.019779464572582464	
0.775	0.232	0.04449365338820677	
0.78	0.467	0.11451103778388312	
0.785	0.252	0.18533957788185698	
0.79	0.224	0.24509090068351352	
0.795	0.542	0.29182934634127	
0.8	0.372	0.331547925935357	
0.805	0.097	0.35241228203750347	
0.81	0.301	0.3456157629711111	
0.815	0.220	0.3169471512829215	
0.82	-0.106	0.2691598653480876	
0.825	-0.071	0.1993819935911995	
0.83	0.018	0.1185791193984193	
0.835	-0.187	0.039423717686960416	
0.84	-0.237	-0.02997091052701913	
0.845	-0.119	-0.09020327669028609	
0.85	-0.193	-0.14035533280295612	
0.855	-0.294	-0.17654924389297236	
0.86	-0.161	-0.1984369454075963	
0.865	-0.150	-0.21102020691506107	
0.87	-0.295	-0.2187725498925255	
0.875	-0.217	-0.21964601259429717	
0.88	-0.126	-0.2174402808908468	
0.885	-0.254	-0.21654832749874234	
0.89	-0.284	-0.21599411402763535	
0.895	-0.100	-0.21321892337676632	
0.9	-0.190	-0.20932841412578862	
0.905	-0.321	-0.20758498984970278	
0.91	-0.185	-0.20747073972370753	
0.915	-0.119	-0.20997006775807336	
0.92	-0.283	-0.2107791430448456	
0.925	-0.225	-0.20770070291474485	
0.93	-0.133	-0.20639896245152295	
0.935	-0.280	-0.21052773047470016	
0.94	-0.333	-0.218059753074928	
0.945	-0.187	-0.22819812084736776	
0.95	-0.252	-0.2422821160487452	
0.955	-0.373	-0.254642171971309	
0.96	-0.219	-0.262461672301199	
0.965	-0.187	-0.26690117097882116	
0.97	-0.324	-0.26784180139107583	
0.975	-0.277	-0.26373074707462196	
0.98	-0.200	-0.26130262599886667	
0.985	-0.321	-0.26556660251861264	
0.99	-0.286	-0.26713775853788324	
0.995	0.145	-0.24806438521514684	
1.0	0.264	-0.18721280050676087	
1.005	0.059	-0.0897633930621472	
1.01	0.049	0.0015392430951637116	
1.015	-0.129	0.04412891212298421	
1.02	-0.349	0.026022505785365135	
1.025	-0.265	-0.031736986444378015	
1.03	-0.122	-0.09816840192862936	
1.035	-0.228	-0.15462149998586155	
1.04	-0.237	-0.18820025677941238	
1.045	-0.042	-0.19895756317160643	
1.05	-0.110	-0.1942641080793268	
1.055	-0.225	-0.1798987151945049	
1.06	-0.058	-0.16030877310520142	
1.065	0.001	-0.13973507028026072	
1.07	-0.164	-0.12012067746719374	
1.075	-0.068	-0.09972952848207758	
1.08	0.119	-0.07800794070940961	
1.085	-0.068	-0.05574627444384722	
1.09	-0.068	-0.03532745064359522	
1.095	0.215	-0.011786531798825238	
1.1	0.117	0.016747575955175495	
1.105	-0.064	0.043910428683509244	
1.11	0.227	0.06677354749945266	
1.115	0.314	0.0954073236781946	
1.12	0.084	0.12873709027354213	
1.125	0.263	0.16321246728528432	
1.13	0.539	0.20415560712990766	
1.135	0.359	0.25724512233100383	
1.14	0.334	0.3125395438326813	
1.145	0.651	0.3652680528042094	
1.15	0.504	0.4158296978320889	
1.155	0.206	0.44781515690395257	
1.16	0.411	0.450695680878265	
1.165	0.389	0.43047991663622176	
1.17	-0.006	0.3897620742880553	
1.175	0.026	0.3230951515812561	
1.18	0.139	0.24112934221165266	
1.185	-0.112	0.1573700345924139	
1.19	-0.200	0.07651939585486812	
1.195	-0.072	0.0021417510828511096	
1.2	-0.171	-0.06506655858341617	
1.205	-0.286	-0.12105544438740197	
1.21	-0.144	-0.1594208900814455	
1.215	-0.104	-0.18252654331634185	
1.22	-0.257	-0.1940623762254735	
1.225	-0.197	-0.19595538035153043	
1.23	-0.075	-0.19197891140753925	
1.235	-0.219	-0.18850808736982522	
1.24	-0.254	-0.18446534374107515	
1.245	-0.051	-0.1779904148341006	
1.25	-0.121	-0.1709987977170544	
1.255	-0.252	-0.16299233697214743	
1.26	-0.118	-0.15555688910777093	
1.265	-0.104	-0.15352677540511162	
1.27	-0.269	-0.15695951906425515	
1.275	-0.269	-0.16604612889510395	
1.28	-0.202	-0.18403708315988157	
1.285	-0.352	-0.21440294045559388	
1.29	-0.457	-0.24949069853482428	
1.295	-0.332	-0.2880749120258517	
1.3	-0.388	-0.32992643188310183	
1.305	-0.500	-0.36596291197557473	
1.31	-0.393	-0.3906182859256555	
1.315	-0.350	-0.4094865234145521	
1.32	-0.465	-0.4199241322780607	
1.325	-0.431	-0.4210860415113803	
1.33	-0.324	-0.41800420022969803	
1.335	-0.417	-0.41538002339793734	
1.34	-0.407	-0.4075370617895241	
1.345	-0.087	-0.38302160076786873	
1.35	0.065	-0.33086291929152234	
1.355	-0.071	-0.2470274969357237	
1.36	-0.080	-0.15963538981050285	
1.365	-0.193	-0.10947576009516999	
1.37	-0.364	-0.10903050208291283	
1.375	-0.291	-0.13809010841856947	
1.38	-0.133	-0.17488786250680638	
1.385	-0.208	-0.20344679874258537	
1.39	-0.208	-0.2126008843198563	
1.395	0.009	-0.19988164387654472	
1.4	-0.028	-0.17290662977966775	
1.405	-0.150	-0.13920712589477624	
1.41	0.030	-0.10248144471938007	
1.415	0.163	-0.06531258648041306	
1.42	-0.054	-0.02720922851685837	
1.425	0.079	0.009896883919927085	
1.43	0.330	0.0483135641426676	
1.435	0.131	0.09043450168505575	
1.44	0.073	0.12723641206890585	
1.445	0.421	0.16128860637091313	
1.45	0.354	0.20013337846649845	
1.455	0.166	0.2396086748590869	
1.46	0.460	0.2755753658282042	
1.465	0.567	0.31682209584081056	
1.47	0.331	0.35968041748203133	
1.475	0.492	0.40083187131265063	
1.48	0.735	0.444433889487209	
1.485	0.589	0.49344558713291503	
1.49	0.524	0.5411352547558712	
1.495	0.803	0.5843113580763111	
1.5	0.715	0.62220269237748	
1.505	0.450	0.6465471074686229	
1.51	0.644	0.6525067506667674	
1.515	0.651	0.6428811395933234	
1.52	0.331	0.6177048068592865	
1.525	0.359	0.5747370731904426	
1.53	0.487	0.5214272504840078	
1.535	0.180	0.4605364253277403	
1.54	0.007	0.38708217826996294	
1.545	0.241	0.30722669687114945	
1.55	0.139	0.23332439061763433	
1.555	-0.083	0.1706178775233595	
1.56	0.085	0.12037755623190753	
1.565	0.174	0.08291988477883624	
1.57	-0.064	0.05887057896932393	
1.575	0.000	0.044641287254022624	
1.58	0.243	0.04133622939012714	
1.585	0.079	0.04972174944881726	
1.59	-0.037	0.06309894607924688	
1.595	0.209	0.07503143226879545	
1.6	0.140	0.08440648112399785	
1.605	-0.032	0.09175049327616197	
1.61	0.128	0.09619298147881453	
1.615	0.169	0.09686617621541621	
1.62	-0.051	0.09106309527805778	
1.625	-0.032	0.0795558318993057	
1.63	0.114	0.06216735368539389	
1.635	-0.069	0.03988488295840041	
1.64	-0.156	0.015155969102406401	
1.645	-0.013	-0.011164649523432591	
1.65	-0.069	-0.039526870622496255	
1.655	-0.226	-0.06609379353193301	
1.66	-0.138	-0.0899592962615051	
1.665	-0.110	-0.11518557700510111	
1.67	-0.260	-0.14175397274226775	
1.675	-0.275	-0.16449256196597398	
1.68	-0.187	-0.1879633302072967	
1.685	-0.301	-0.21699374452701392	
1.69	-0.326	-0.23979354488025628	
1.695	-0.086	-0.24927502384924138	
1.7	-0.016	-0.2364679884067457	
1.705	-0.135	-0.20200504754942689	
1.71	-0.107	-0.15805334261483264	
1.715	-0.142	-0.13122567424541565	
1.72	-0.292	-0.13169904284907308	
1.725	-0.228	-0.1465222440251015	
1.73	-0.029	-0.1599733409133317	
1.735	-0.100	-0.1619354293481143	
1.74	-0.136	-0.14781453873636435	
1.745	0.113	-0.1193085712616705	
1.75	0.032	-0.08344149077246552	
1.755	-0.116	-0.0510435020486268	
1.76	0.027	-0.026087556864620134	
1.765	0.134	-0.007138267402832426	
1.77	-0.071	0.007323217092352202	
1.775	0.017	0.019390635120018297	
1.78	0.249	0.03405485278755741	
1.785	0.094	0.05613252020931365	
1.79	0.006	0.07809690571429667	
1.795	0.282	0.09964066889706642	
1.8	0.232	0.12266896029102863	
1.805	0.024	0.14395787073706323	
1.81	0.214	0.1577965584706379	
1.815	0.354	0.1719238481951675	
1.82	0.134	0.1884295309742511	
1.825	0.267	0.2092795696790655	
1.83	0.534	0.2390042978369912	
1.835	0.353	0.2802891873725587	
1.84	0.288	0.32006766008082654	
1.845	0.565	0.35647562767847746	
1.85	0.243	0.3797779162678278	
1.855	-0.291	0.35301634078257826	
1.86	-0.480	0.24451477360953122	
1.865	-0.648	0.05689035201887072	
1.87	-0.917	-0.17631668368236528	
1.875	-0.993	-0.4138462249101628	
1.88	-0.995	-0.631174830975112	
1.885	-0.993	-0.8114309499790524	
1.89	-0.995	-0.9328286898449433	
1.895	-0.995	-0.9977683869045612	
1.9	-0.993	-1.0341151831208029	
1.905	-0.993	-1.0477291965026676	
1.91	-0.967	-1.0365662561027245	
1.915	-0.839	-1.0141321699354244	
1.92	-0.879	-0.9851820703898578	
1.925	-0.795	-0.9409016844372973	
1.93	-0.621	-0.8842355017173886	
1.935	-0.605	-0.8223952538644415	
1.94	-0.604	-0.7509136905680454	
1.945	-0.420	-0.6747977938541967	
1.95	-0.355	-0.6000403681826119	
1.955	-0.419	-0.5278175524594364	
1.96	-0.271	-0.4556178808414047	
1.965	-0.144	-0.3870095851347668	
1.97	-0.220	-0.3252432682077926	
1.975	-0.179	-0.26502359614575943	
1.98	-0.029	-0.21110392027192748	
1.985	-0.075	-0.1663822184284956	
1.99	-0.133	-0.12809405472080163	
1.995	0.041	-0.0927000139000427	
2.0	0.081	-0.06191325831345286	
2.005	-0.049	-0.03200989205007963	
2.01	0.183	0.003382090495342884	
2.015	0.353	0.051222058610260995	
2.02	0.200	0.10763345477376657	
2.025	0.230	0.16581895524031545	
2.03	0.423	0.21812023210406561	
2.035	0.362	0.26264198800111754	
2.04	0.270	0.30166413008581405	
2.045	0.699	0.34643338802484025	
2.05	0.825	0.4142891115771463	
2.055	0.646	0.5057843542564755	
2.06	0.712	0.5952997120035499	
2.065	0.675	0.6553985587990774	
2.07	0.386	0.6695195259431228	
2.075	0.398	0.6436566073524792	
2.08	0.689	0.6023106574255856	
2.085	0.652	0.5757196950331651	
2.09	0.571	0.5744946079365149	
2.095	0.814	0.5954842877357633	
2.1	0.819	0.6303974764592539	
2.105	0.637	0.6696400943019555	
2.11	0.783	0.7052777162050595	
2.115	0.942	0.7375880084854125	
2.12	0.761	0.7685016525105846	
2.125	0.756	0.7945473902714912	
2.13	0.973	0.8153996068814271	
2.135	0.835	0.8307375287251122	
2.14	0.692	0.8393519968462176	
2.145	0.909	0.8405046444492655	
2.15	0.916	0.8384938310210565	
2.155	0.724	0.8385656694519373	
2.16	0.904	0.8422434543504814	
2.165	1.060	0.8546921510349712	
2.17	0.864	0.8744898309934105	
2.175	0.870	0.896466896161526	
2.18	1.091	0.9174595102584773	
2.185	1.022	0.9377857496355682	
2.19	0.887	0.9612845284385717	
2.195	1.158	0.9855120525907025	
2.2	1.087	1.0085537785246426	
2.205	0.805	1.0195070988744979	
2.21	0.919	1.0121837207659259	
2.215	0.993	0.9887421923809024	
2.22	0.727	0.9544940059651417	
2.225	0.635	0.9094016398860266	
2.23	0.767	0.8514727455497562	
2.235	0.548	0.782823424096583	
2.24	0.327	0.7062403875987053	
2.245	0.518	0.6254890677990624	
2.25	0.463	0.5496128722515212	
2.255	0.250	0.48353444092786635	
2.26	0.389	0.4321635078520264	
2.265	0.522	0.39877243160493514	
2.27	0.318	0.38253942920150813	
2.275	0.327	0.37638067866105596	
2.28	0.541	0.3784630468870591	
2.285	0.418	0.38687808986833494	
2.29	0.288	0.39523868691653985	
2.295	0.510	0.4044312507872553	
2.3	0.478	0.4116414026981098	
2.305	0.259	0.41456181008579707	
2.31	0.386	0.4100784497782869	
2.315	0.515	0.40475875755193447	
2.32	0.311	0.3986198180977931	
2.325	0.284	0.39232745886942777	
2.33	0.444	0.38339059944188536	
2.335	0.311	0.36796444993008337	
2.34	0.140	0.349250631626985	
2.345	0.321	0.3243275459143311	
2.35	0.295	0.2976900010943031	
2.355	0.088	0.27064504561490355	
2.36	0.217	0.24699464447127142	
2.365	0.325	0.22873903357686667	
2.37	0.114	0.215721290937885	
2.375	0.087	0.20328821390514162	
2.38	0.253	0.18931411927132086	
2.385	0.171	0.175055798183817	
2.39	0.046	0.1652879567036807	
2.395	0.360	0.1662358078052708	
2.4	0.447	0.18774116441269764	
2.405	0.279	0.22974419011909974	
2.41	0.293	0.27488933415216765	
2.415	0.278	0.18931411927132086	
2.42	0.020	0.28880926502771287	
2.425	0.035	0.251274639935939	
2.43	0.266	0.20722987813434565	
2.435	0.146	0.1731396767503997	
2.44	0.052	0.15233774597343325	
2.445	0.275	0.1451224956530776	
2.45	0.301	0.1527519086747661	
2.455	0.119	0.1688350502635148	
2.46	0.238	0.18881301650549062	
2.465	0.392	0.2096447364793172	
2.47	0.232	0.23196153218749344	
2.475	0.241	0.2542378569771539	
2.48	0.443	0.27709946182949674	
2.485	0.330	0.2972395959146863	
2.49	0.185	0.3113810068962456	
2.495	0.391	0.3179574999602217	
2.5	0.382	0.3207805231387246	
2.505	0.149	0.3189687510617557	
2.51	0.220	0.3066818671982059	
2.515	0.337	0.28756910681922987	
2.52	0.172	0.26714140485788873	
2.525	0.201	0.2522164374635958	
2.53	0.408	0.24894123104638632	
2.535	0.348	0.2573810822614885	
2.54	0.229	0.274483546209706	
2.545	0.463	0.297767535406568	
2.55	0.470	0.3258044640777573	
2.555	0.235	0.3501547301814213	
2.56	0.316	0.3625360260868701	
2.565	0.431	0.36145818694261245	
2.57	0.194	0.3513498767294121	
2.575	0.058	0.3251741560027195	
2.58	0.185	0.27969907511912206	
2.585	0.012	0.21952583072641868	
2.59	-0.107	0.15362827907426774	
2.595	-0.014	0.08952661786989048	
2.6	-0.002	0.031799472972556087	
2.605	-0.122	-0.01357417811750965	
2.61	-0.063	-0.041571849751750524	
2.615	0.041	-0.05670731613447387	
2.62	-0.071	-0.06241949335976589	
2.625	-0.078	-0.058766882805699146	
2.63	0.096	-0.04751568463202953	
2.635	0.012	-0.033373108262830735	
2.64	-0.100	-0.020222617229064592	
2.645	0.038	-0.010670520526527661	
2.65	0.064	-0.005238514926098734	
2.655	-0.068	-0.0013828226810460656	
2.66	-0.023	0.002321491348962355	
2.665	0.114	0.004149880249407193	
2.67	-0.017	0.006757580928324616	
2.675	-0.049	0.011255866022766388	
2.68	0.120	0.016287307238801594	
2.685	-0.016	0.01771239338823013	
2.69	-0.132	0.012910788101352443	
2.695	0.009	0.0011616216013658064	
2.7	0.015	-0.011265861833951634	
2.705	-0.121	-0.02419503610658358	
2.71	-0.068	-0.03376241641500326	
2.715	0.039	-0.04198085927437863	
2.72	-0.078	-0.04607257535433325	
2.725	-0.095	-0.04771637891733173	
2.73	0.007	-0.04689974096745089	
2.735	-0.063	-0.050197857643760765	
2.74	-0.148	-0.05595413506749437	
2.745	0.023	-0.05799820302105671	
2.75	0.186	-0.04727588841787515	
2.755	0.055	-0.01600078129706898	
2.76	0.183	0.02914907975795155	
2.765	0.149	0.0728768696390994	
2.77	-0.118	0.09306159130416203	
2.775	-0.153	0.07627548783487137	
2.78	0.029	0.03992815592849074	
2.785	0.038	0.007936616187616402	
2.79	-0.045	-0.008822069333558235	
2.795	0.159	-0.004200134202878012	
2.8	0.229	0.01972384598725723	
2.805	0.033	0.05320232099789572	
2.81	0.133	0.08498555262339634	
2.815	1.074	0.14878888863168557	
2.82	2.288	0.35852713199438113	
2.825	3.075	0.8005423400745969	
2.83	3.078	1.4046402792892052	
2.835	3.078	2.005786841467488	
2.84	3.078	2.4982960112119583	
2.845	3.080	2.8526902442530853	
2.85	3.081	3.067456755140844	
2.855	2.991	3.167202925236845	
2.86	2.873	3.1871582747926297	
2.865	2.808	3.141640143985807	
2.87	2.378	3.0360928045508926	
2.875	2.136	2.8734304858127944	
2.88	2.200	2.6758546476557843	
2.885	1.963	2.471795497913174	
2.89	1.570	2.2692545389304284	
2.895	1.673	2.068920444463082	
2.9	1.575	1.8855865738935766	
2.905	1.185	1.721116921181836	
2.91	1.120	1.5602137503572997	
2.915	1.048	1.4007487235412874	
2.92	0.640	1.237072556255785	
2.925	0.380	1.054428323627703	
2.93	0.421	0.8588680637414055	
2.935	0.127	0.6607855498416833	
2.94	-0.081	0.46829136828855655	
2.945	-0.060	0.2879059264327339	
2.95	-0.115	0.12954421265679456	
2.955	-0.268	-0.0018039614396232547	
2.96	-0.255	-0.10375545702407553	
2.965	-0.213	-0.17932721247731873	
2.97	-0.332	-0.234863640481637	
2.975	-0.376	-0.27447986297036975	
2.98	-0.269	-0.3022169856016834	
2.985	-0.332	-0.32223740499127385	
2.99	-0.422	-0.3356092049336543	
2.995	-0.338	-0.345144944607189	
3.0	-0.352	-0.35555422219620497	
3.005	-0.469	-0.3677428931286927	
3.01	-0.440	-0.38174332758537344	
3.015	-0.373	-0.3964319370139468	
3.02	-0.472	-0.4118449248475137	
3.025	-0.524	-0.4264122329000011	
3.03	-0.449	-0.442291149048417	
3.035	-0.521	-0.46227785601963883	
3.04	-0.613	-0.48553103640820355	
3.045	-0.518	-0.5061536252702049	
3.05	-0.533	-0.5256156878605815	
3.055	-0.639	-0.5446974508011075	
3.06	-0.579	-0.5597084425203123	
3.065	-0.509	-0.5694790356459388	
3.07	-0.611	-0.5758429071103024	
3.075	-0.613	-0.5783741373527822	
3.08	-0.503	-0.5773048808114457	
3.085	-0.546	-0.5752893765104933	
3.09	-0.637	-0.5715133953863802	
3.095	-0.492	-0.5661552261686271	
3.1	-0.385	-0.5536189205902693	
3.105	-0.414	-0.5266752226610963	
3.11	-0.370	-0.4846994047702228	
3.115	-0.350	-0.4425070140234936	
3.12	-0.543	-0.4198758753379819	
3.125	-0.587	-0.42237907873112285	
3.13	-0.457	-0.4422953510908608	
3.135	-0.459	-0.4652947502930515	
3.14	-0.501	-0.47851116538399024	
3.145	-0.359	-0.47512531969435595	
3.15	-0.329	-0.4596216165925878	
3.155	-0.414	-0.43672284350253465	
3.16	-0.350	-0.4096930552302333	
3.165	-0.268	-0.3844584496488034	
3.17	-0.336	-0.3618875214811388	
3.175	-0.344	-0.34138642126486396	
3.18	-0.217	-0.3212458259093207	
3.185	-0.280	-0.3063182882880093	
3.19	-0.362	-0.2955804814998084	
3.195	-0.240	-0.2880867506941136	
3.2	-0.202	-0.2815905658775638	
3.205	-0.310	-0.2737954037388095	
3.21	-0.236	-0.2646834587811372	
3.215	-0.119	-0.2513800921513405	
3.22	-0.187	-0.23393282769146598	
3.225	-0.150	-0.20942799302745818	
3.23	0.038	-0.1761592109183564	
3.235	-0.002	-0.13530901065023626	
3.24	-0.086	-0.09366236380894855	
3.245	0.099	-0.05404944776239193	
3.25	0.162	-0.01453151025859366	
3.255	-0.028	0.02213355736092626	
3.26	0.053	0.048280457254939714	
3.265	0.119	0.06167921590825069	
3.27	-0.093	0.06104546869204981	
3.275	-0.173	0.04049393223987793	
3.28	-0.098	0.001854014090125881	
3.285	-0.203	-0.048270377291434595	
3.29	-0.338	-0.10369360823229581	
3.295	-0.254	-0.1590699375040097	
3.3	-0.268	-0.210490648505164	
3.305	-0.401	-0.2558492976507354	
3.31	-0.362	-0.29174014757665095	
3.315	-0.291	-0.3202980586154984	
3.32	-0.376	-0.3419154796089745	
3.325	-0.391	-0.352508328081754	
3.33	-0.263	-0.35513613546553946	
3.335	-0.297	-0.3512483678565326	
3.34	-0.365	-0.34170843458856026	
3.345	-0.236	-0.3270695552122076	
3.35	-0.219	-0.3104740407596954	
3.355	-0.353	-0.29588134354847273	
3.36	-0.294	-0.2857574099577069	
3.365	-0.184	-0.27926762343992695	
3.37	-0.294	-0.2739323990469149	
3.375	-0.309	-0.2675431944626333	
3.38	-0.199	-0.2631105818667895	
3.385	-0.254	-0.26124483929358244	
3.39	-0.352	-0.26174930879977476	
3.395	-0.249	-0.264055787763409	
3.4	-0.246	-0.2694501483292092	
3.405	-0.361	-0.27691351993114455	
3.41	-0.300	-0.2837507730160687	
3.415	-0.196	-0.28622458757956437	
3.42	-0.286	-0.28596085085680434	
3.425	-0.326	-0.2805669514182272	
3.43	-0.226	-0.2760603262823376	
3.435	-0.312	-0.27825618439698196	
3.44	-0.408	-0.28680822481624235	
3.445	-0.268	-0.2970061055837111	
3.45	-0.121	-0.2983993381299849	
3.455	-0.130	-0.27796324991217836	
3.46	-0.028	-0.2307280276883815	
3.465	-0.009	-0.17216455603763337	
3.47	-0.260	-0.1320599010586401	
3.475	-0.368	-0.1266402073206595	
3.48	-0.239	-0.15396182795611615	
3.485	-0.245	-0.19324847863033165	
3.49	-0.303	-0.22589178545582764	
3.495	-0.145	-0.24093017672449032	
3.5	-0.097	-0.2373416123744667	
3.505	-0.229	-0.22309249889589183	
3.51	-0.167	-0.20274886880381532	
3.515	-0.058	-0.18304195342903196	
3.52	-0.133	-0.16408636204624666	
3.525	-0.158	-0.14468667167049337	
3.53	0.007	-0.12485242917047536	
3.535	-0.060	-0.1062520998665084	
3.54	-0.147	-0.09001893719541415	
3.545	-0.008	-0.0768807858978564	
3.55	0.030	-0.06427342053404587	
3.555	-0.097	-0.05320397804280683	
3.56	0.001	-0.039754085427418026	
3.565	0.189	-0.019916092021424494	
3.57	0.027	0.005856905476282996	
3.575	0.044	0.03322286255890823	
3.58	0.357	0.06725920218112422	
3.585	0.316	0.1157986601950437	
3.59	0.166	0.16986601206993943	
3.595	0.402	0.22012342819205494	
3.6	0.464	0.26782542882988575	
3.605	0.256	0.31074734292214334	
3.61	0.307	0.33815439405062425	
3.615	0.400	0.35012648488978687	
3.62	0.117	0.3408960172423073	
3.625	-0.008	0.30513197222408983	
3.63	0.108	0.24520446922328348	
3.635	-0.048	0.17287663802352998	
3.64	-0.208	0.09487858165650573	
3.645	-0.127	0.01803691070098183	
3.65	-0.147	-0.05413333543329997	
3.655	-0.297	-0.11715812782309537	
3.66	-0.258	-0.16690321962705743	
3.665	-0.177	-0.2048944382588446	
3.67	-0.252	-0.23198511973563943	
3.675	-0.283	-0.24485791793847883	
3.68	-0.161	-0.2468608810915967	
3.685	-0.173	-0.24306524698334947	
3.69	-0.258	-0.23308669725610012	
3.695	-0.148	-0.21802850661059922	
3.7	-0.092	-0.20212598750884914	
3.705	-0.210	-0.18712602939533077	
3.71	-0.159	-0.17094983904720756	
3.715	-0.043	-0.1559034907007873	
3.72	-0.158	-0.14496212948545642	
3.725	-0.197	-0.1358975050138309	
3.73	-0.072	-0.13087023443853063	
3.735	-0.150	-0.1320359388063334	
3.74	-0.249	-0.13812407898283668	
3.745	-0.156	-0.14704255337649033	
3.75	-0.159	-0.15907695919654075	
3.755	-0.281	-0.1761559997373497	
3.76	-0.210	-0.1889838888364216	
3.765	-0.139	-0.19782953843891715	
3.77	-0.239	-0.2059665286843244	
3.775	-0.283	-0.21097666252695604	
3.78	-0.113	-0.2117965089546963	
3.785	-0.187	-0.21097810536108225	
3.79	-0.315	-0.20923956910524866	
3.795	-0.182	-0.2100299569982368	
3.8	-0.049	-0.20795036990992533	
3.805	0.044	-0.18421906990367717	
3.81	0.347	-0.1150081805207128	
3.815	0.498	-0.001670903007886207	
3.82	0.024	0.11096523766968387	
3.825	-0.237	0.16279663364352087	
3.83	-0.158	0.1352642599525411	
3.835	-0.165	0.058133708151255604	
3.84	-0.245	-0.026365981333375803	
3.845	-0.097	-0.09103334009922553	
3.85	-0.032	-0.1297853148258773	
3.855	-0.130	-0.1432994445152464	
3.86	-0.068	-0.13516508622287404	
3.865	0.085	-0.11255896068680377	
3.87	-0.026	-0.08394057322935533	
3.875	-0.061	-0.05326605729101608	
3.88	0.139	-0.02365594409112018	
3.885	0.072	0.0032190591373725073	
3.89	-0.055	0.024493389640911575	
3.895	0.136	0.040926649345466325	
3.9	0.229	0.060344183072665585	
3.905	0.023	0.08163152690259926	
3.91	0.087	0.09870751953793731	
3.915	0.287	0.11355221983572295	
3.92	0.191	0.13312147153533838	
3.925	0.149	0.15660171171273252	
3.93	0.417	0.1873603128436263	
3.935	0.418	0.2273561968632063	
3.94	0.270	0.2724289891598244	
3.945	0.502	0.3188307398526672	
3.95	0.614	0.3684533310872451	
3.955	0.421	0.4176718464773627	
3.96	0.463	0.459573321074547	
3.965	0.620	0.48756313774689664	
3.97	0.388	0.5012236904342814	
3.975	0.204	0.4914987855788281	
3.98	0.343	0.45425766005892715	
3.985	0.203	0.3974668663147938	
3.99	-0.083	0.3244494507978839	
3.995	-0.019	0.23568427436316003	
4.0	-0.026	0.14048718825941983	
4.005	-0.176	0.05081283302522929	
4.01	-0.187	-0.023496440161784413	
4.015	-0.083	-0.0825023334290166	
4.02	-0.150	-0.12562739694608827	
4.025	-0.196	-0.14945340702267812	
4.03	-0.045	-0.15484592235293204	
4.035	-0.057	-0.14947471503855358	
4.04	-0.155	-0.13645519949038917	
4.045	-0.040	-0.11739389244230126	
4.05	0.033	-0.09653719537678376	
4.055	-0.115	-0.07811720434780371	
4.06	-0.060	-0.061548166967978976	
4.065	0.079	-0.046555274218900815	
4.07	-0.045	-0.034569839742819186	
4.075	-0.133	-0.027482349378482908	
4.08	0.003	-0.02792216953928652	
4.085	-0.049	-0.03542251137028064	
4.09	-0.187	-0.04843373316613288	
4.095	-0.107	-0.06447413887073652	
4.1	-0.069	-0.08251207674006532	
4.105	-0.208	-0.10305236120186054	
4.11	-0.194	-0.12060952693092121	
4.115	-0.113	-0.13757305879090834	
4.12	-0.188	-0.15449489728649107	
4.125	-0.222	-0.16650376416121096	
4.13	-0.090	-0.16895160017868582	
4.135	-0.113	-0.16735556379952704	
4.14	-0.248	-0.16444930762740897	
4.145	-0.155	-0.16152911615857737	
4.15	-0.071	-0.16044743988107132	
4.155	-0.090	-0.1540379465417041	
4.16	0.117	-0.12366142984175689	
4.165	0.403	-0.05748420490764767	
4.17	0.156	0.028546281640761534	
4.175	-0.136	0.09333149875514957	
4.18	-0.063	0.10600299992781581	
4.185	-0.083	0.07175521074988468	
4.19	-0.159	0.02050469566988913	
4.195	-0.029	-0.021592745817604925	
4.2	0.110	-0.044329849730809084	
4.205	-0.003	-0.04401725114665241	
4.21	0.052	-0.024791509642546575	
4.215	0.282	0.010533629652802589	
4.22	0.160	0.05463606708202849	
4.225	0.072	0.09829734027314423	
4.23	0.308	0.13601514350004917	
4.235	0.250	0.1678450150892104	
4.24	0.042	0.189450541169895	
4.245	0.233	0.19731072721965115	
4.25	0.342	0.202735249525667	
4.255	0.151	0.21202472632954986	
4.26	0.189	0.22009570524222757	
4.265	0.411	0.2295158316791251	
4.27	0.281	0.24575878316134708	
4.275	0.189	0.26226775202570574	
4.28	0.427	0.2778986649123141	
4.285	0.377	0.29594448499610765	
4.29	0.174	0.3095460056697058	
4.295	0.278	0.311150700054117	
4.3	0.363	0.30470280260478966	
4.305	0.175	0.2942113633479768	
4.31	0.204	0.2810220071700944	
4.315	0.330	0.2683509449875019	
4.32	0.122	0.25192634396970226	
4.325	-0.038	0.22232285924943565	
4.33	-0.013	0.17365396974017808	
4.335	-0.353	0.09499224290818767	
4.34	-0.761	-0.03329244120818002	
4.345	-0.963	-0.21507762914791245	
4.35	-0.992	-0.43436980515542867	
4.355	-0.993	-0.6494935228032965	
4.36	-0.995	-0.8150103592981123	
4.365	-0.995	-0.9268299778788041	
4.37	-0.995	-0.9998663936927713	
4.375	-0.995	-1.034570072775836	
4.38	-0.993	-1.0385231106104689	
4.385	-0.995	-1.035933819915571	
4.39	-0.995	-1.0301280902737542	
4.395	-0.993	-1.0151427230373633	
4.4	-0.943	-1.0013833107095726	
4.405	-0.926	-0.99147321554483	
4.41	-0.841	-0.9671018967063588	
4.415	-0.674	-0.9247960734235506	
4.42	-0.654	-0.8708339988113682	
4.425	-0.645	-0.8037117971650787	
4.43	-0.503	-0.730476308348978	
4.435	-0.433	-0.6588095702597936	
4.44	-0.475	-0.5902970115517485	
4.445	-0.368	-0.5231770449009971	
4.45	-0.268	-0.46217090657734367	
4.455	-0.324	-0.4085930899821616	
4.46	-0.291	-0.35927870704107395	
4.465	-0.138	-0.31358201623344345	
4.47	-0.152	-0.2718181219239644	
4.475	-0.181	-0.22996786375446818	
4.48	-0.003	-0.1843289049988931	
4.485	0.094	-0.1366294300619282	
4.49	-0.017	-0.08355685358159107	
4.495	0.192	-0.024183058242381778	
4.5	0.307	0.04011991711411609	
4.505	0.180	0.1042393638479204	
4.51	0.354	0.16653055545245082	
4.515	0.750	0.2467325999181611	
4.52	0.736	0.35323838668960245	
4.525	0.508	0.4667039673802223	
4.53	0.556	0.5487526520332029	
4.535	0.508	0.5825545477958479	
4.54	0.314	0.5741895131719263	
4.545	0.515	0.5467509330930473	
4.55	0.780	0.5314066925246863	
4.555	0.673	0.5451896904235085	
4.56	0.680	0.5843359165396174	
4.565	0.878	0.6348792657759614	
4.57	0.780	0.6842822297470537	
4.575	0.626	0.7235131208115299	
4.58	0.890	0.7508558120618434	
4.585	0.964	0.7777496257480542	
4.59	0.745	0.8070524379456274	
4.595	0.857	0.8316684936278015	
4.6	1.025	0.8515466292089399	
4.605	0.823	0.8691373792329106	
4.61	0.826	0.8831990194259414	
4.615	1.061	0.8949809500855636	
4.62	1.008	0.9113574635897732	
4.625	0.855	0.9314109413242735	
4.63	1.072	0.9518592664687904	
4.635	1.184	0.9758359325958086	
4.64	1.026	1.0080143031657085	
4.645	1.213	1.0506382751191108	
4.65	1.359	1.0996112417792934	
4.655	1.216	1.1511319426817337	
4.66	1.138	1.1951438909786924	
4.665	1.332	1.2239965898306042	
4.67	1.197	1.2363613616984264	
4.675	0.976	1.2303663224029133	
4.68	1.100	1.2028549414819647	
4.685	0.987	1.1568402994488962	
4.69	0.640	1.0859726591763335	
4.695	0.628	0.991608742822198	
4.7	0.655	0.8806234939531827	
4.705	0.354	0.7621454420979855	
4.71	0.259	0.6411385686640245	
4.715	0.389	0.5270070831567006	
4.72	0.252	0.4264102225108175	
4.725	0.107	0.34339056625002706	
4.73	0.316	0.2828450210188291	
4.735	0.357	0.24788985511546913	
4.74	0.163	0.2340321285525662	
4.745	0.270	0.2355779406609715	
4.75	0.432	0.24561559863524138	
4.755	0.266	0.2632083905023601	
4.76	0.236	0.28211649225133667	
4.765	0.450	0.29893859560096003	
4.77	0.359	0.31444898325412163	
4.775	0.181	0.3254101024274073	
4.78	0.293	0.32474323124876486	
4.785	0.316	0.3108621810484081	
4.79	0.116	0.29010793534434265	
4.795	0.186	0.2665448812525367	
4.8	0.282	0.24253946891345687	
4.805	0.072	0.2162698787458684	
4.81	0.036	0.18815554417892894	
4.815	0.203	0.16085795009581266	
4.82	0.101	0.13646254663341661	
4.825	-0.049	0.1144937525564875	
4.83	0.124	0.09570071882149339	
4.835	0.130	0.07983142587300712	
4.84	-0.023	0.06918869949534226	
4.845	0.036	0.06353474581673413	
4.85	0.110	0.05646653938989344	
4.855	-0.052	0.045319080731537995	
4.86	-0.049	0.03319652060632137	
4.865	0.266	0.030799107456584165	
4.87	0.238	0.05148817735025585	
4.875	0.116	0.09056681241647437	
4.88	0.185	0.12962942978275266	
4.885	0.012	0.14475561252826438	
4.89	-0.159	0.1232387224584551	
4.895	-0.089	0.07753050937334736	
4.9	0.039	0.028416667704348503	
4.905	-0.045	-0.010613966825879879	
4.91	-0.017	-0.027763650789613625	
4.915	0.214	-0.02026985438361144	
4.92	0.131	0.006493933066708429	
4.925	0.007	0.039603079518964926	
4.93	0.235	0.07258863877121728	
4.935	0.319	0.10879620787173452	
4.94	0.140	0.1493291208396809	
4.945	0.258	0.18646450723566482	
4.95	0.420	0.22135621808264475	
4.955	0.267	0.2534757691639652	
4.96	0.224	0.28020942948203537	
4.965	0.444	0.2995922420948809	
4.97	0.321	0.3145645309320208	
4.975	0.157	0.3196934755949281	
4.98	0.394	0.3174435904899164	
4.985	0.435	0.31878085857572136	
4.99	0.256	0.3255058652477972	
4.995	0.402	0.33738239630664413	
5.0	0.536	0.3552267799349531	
5.005	0.374	0.3776601628118368	
5.01	0.313	0.39523774717368754	
5.015	0.512	0.4053683474390086	
5.02	0.447	0.4116762574160443	
5.025	0.275	0.41587799475137444	
5.03	0.424	0.4132141849972657	
5.035	0.351	0.40070608425138055	
5.04	0.081	0.3717573417070642	
5.045	0.090	0.3222669501007591	
5.05	0.142	0.2579995070650756	
5.055	-0.066	0.18690238098829798	
5.06	-0.122	0.1153322143560531	
5.065	-0.045	0.046078016736704315	
5.07	-0.124	-0.016227766886161503	
5.075	-0.229	-0.0698665088726975	
5.08	-0.139	-0.11101480213596478	
5.085	-0.109	-0.14137851217327826	
5.09	-0.200	-0.1599166596358762	
5.095	-0.129	-0.1637959836895435	
5.1	-0.032	-0.1572433247658335	
5.105	-0.148	-0.1468708409811151	
5.11	-0.159	-0.13456958587349047	
5.115	-0.049	-0.12320840600760477	
5.12	-0.083	-0.11515931137491803	
5.125	-0.159	-0.10865059832358996	
5.13	-0.095	-0.1032326109314757	
5.135	-0.069	-0.102473929516747	
5.14	-0.158	-0.10567474727144678	
5.145	-0.113	-0.105872349735099	
5.15	-0.057	-0.10543769724800092	
5.155	-0.164	-0.10969155557801331	
5.16	-0.210	-0.11650664343411636	
5.165	-0.089	-0.1254150458426048	
5.17	-0.153	-0.13608623587700847	
5.175	-0.248	-0.14650210737471683	
5.18	-0.138	-0.15639106614527867	
5.185	-0.107	-0.16350314224237522	
5.19	-0.213	-0.1664935570838463	
5.195	-0.179	-0.16595553409374597	
5.2	-0.121	-0.16556365074972218	
5.205	-0.225	-0.16953317256888545	
5.21	-0.251	-0.176481302157121	
5.215	-0.119	-0.1825823582832822	
5.22	-0.058	-0.18099487711914367	
5.225	-0.086	-0.16336904712437061	
5.23	0.052	-0.12753371014410825	
5.235	0.013	-0.08653651282065122	
5.24	-0.210	-0.06036490402628331	
5.245	-0.196	-0.06005590947506434	
5.25	-0.130	-0.08166039881721084	
5.255	-0.194	-0.11137587330896796	
5.26	-0.156	-0.13547027715767979	
5.265	-0.008	-0.14172063533349666	
5.27	-0.060	-0.13389953323378767	
5.275	-0.130	-0.1183072249745071	
5.28	-0.011	-0.09970237184754017	
5.285	0.055	-0.07749458990364314	
5.29	-0.077	-0.05519008790562483	
5.295	-0.008	-0.03517398049507972	
5.3	0.124	-0.016732630502478883	
5.305	-0.013	0.0018082079495681538	
5.31	-0.055	0.014470313904627274	
5.315	0.134	0.02108347428391653	
5.32	0.085	0.03125987613140198	
5.325	-0.025	0.04180002197897261	
5.33	0.211	0.055061601806067006	
5.335	1.535	0.13959948990425697	
5.34	2.734	0.42929976317851903	
5.345	3.081	0.9608939747821431	
5.35	3.077	1.5989278158069256	
5.355	3.074	2.1807653941096747	
5.36	3.077	2.633632104190453	
5.365	3.077	2.9409006752089386	
5.37	3.078	3.113959650439064	
5.375	3.084	3.191945165895095	
5.38	3.084	3.213278269665378	
5.385	2.832	3.187211106883934	
5.39	2.297	3.092821406356686	
5.395	2.096	2.9180217015130574	
5.4	1.830	2.6790975979378504	
5.405	1.326	2.389581278098297	
5.41	0.993	2.0597058790907834	
5.415	0.924	1.7162213696492388	
5.42	0.626	1.3869401141522122	
5.425	0.314	1.082840623120442	
5.43	0.374	0.8134581934227438	
5.435	0.263	0.5903329171186165	
5.44	-0.003	0.4087747862554806	
5.445	-0.014	0.26009275995097886	
5.45	0.021	0.13921340420238515	
5.455	-0.147	0.04357304069194212	
5.46	-0.225	-0.0323010465846892	
5.465	-0.147	-0.09474429394249156	
5.47	-0.226	-0.14608172431404756	
5.475	-0.329	-0.18819254385853398	
5.48	-0.263	-0.22254550710251764	
5.485	-0.286	-0.2527013955500129	
5.49	-0.404	-0.2812603294002559	
5.495	-0.364	-0.30689443110200054	
5.5	-0.312	-0.3287950772466123	
5.505	-0.436	-0.34846911758471705	
5.51	-0.485	-0.36929933940897797	
5.515	-0.391	-0.3907262172758992	
5.52	-0.460	-0.4131078245398254	
5.525	-0.566	-0.43520980418633287	
5.53	-0.478	-0.4565225191121903	
5.535	-0.463	-0.47670013644384174	
5.54	-0.567	-0.4922791730838347	
5.545	-0.515	-0.5028803601530549	
5.55	-0.451	-0.5087841576238393	
5.555	-0.549	-0.5134911840473995	
5.56	-0.596	-0.5172956718437596	
5.565	-0.520	-0.5257066682373325	
5.57	-0.520	-0.5351303128016975	
5.575	-0.552	-0.5402111008959882	
5.58	-0.356	-0.5294723689164755	
5.585	-0.269	-0.4986984218928126	
5.59	-0.375	-0.45431558275760486	
5.595	-0.420	-0.4108695096999666	
5.6	-0.436	-0.38879163905186453	
5.605	-0.561	-0.395551480609066	
5.61	-0.561	-0.42228600884023204	
5.615	-0.417	-0.45164553342699615	
5.62	-0.422	-0.4701518702686369	
5.625	-0.469	-0.47324539560603784	
5.63	-0.349	-0.4614311750108763	
5.635	-0.330	-0.4417049810339586	
5.64	-0.426	-0.4203783558665371	
5.645	-0.352	-0.3988274637223541	
5.65	-0.255	-0.3777160706692224	
5.655	-0.326	-0.3565899089315345	
5.66	-0.344	-0.3363111590167516	
5.665	-0.219	-0.318592024618175	
5.67	-0.262	-0.30217916166453007	
5.675	-0.330	-0.28931227903627543	
5.68	-0.208	-0.2773895978587556	
5.685	-0.173	-0.2636729111043486	
5.69	-0.252	-0.24943587455960278	
5.695	-0.196	-0.23282331591085728	
5.7	-0.098	-0.2146602599951558	
5.705	-0.162	-0.19662383194133953	
5.71	-0.164	-0.17634503773563565	
5.715	-0.006	-0.1535314837560157	
5.72	-0.023	-0.12716926706394568	
5.725	-0.122	-0.09937337752362357	
5.73	0.015	-0.07436578903610164	
5.735	0.049	-0.052633308023134526	
5.74	-0.109	-0.03549279402659694	
5.745	-0.090	-0.027842446544961118	
5.75	-0.026	-0.03361707016999206	
5.755	-0.171	-0.0486512139949741	
5.76	-0.234	-0.07337811877407714	
5.765	-0.170	-0.10550202810420066	
5.77	-0.274	-0.14517859053762752	
5.775	-0.371	-0.1894013850441292	
5.78	-0.284	-0.23133004572733498	
5.785	-0.300	-0.26861675534347274	
5.79	-0.413	-0.3005239455959299	
5.795	-0.356	-0.32481513356912567	
5.8	-0.268	-0.34056750437509675	
5.805	-0.341	-0.34667664038641116	
5.81	-0.327	-0.3423884932892264	
5.815	-0.165	-0.32744103594675666	
5.82	-0.162	-0.30217424940891946	
5.825	-0.210	-0.2664458265945233	
5.83	-0.071	-0.22530009042503346	
5.835	-0.074	-0.1845983139641178	
5.84	-0.199	-0.153589348155305	
5.845	-0.148	-0.13482521236969844	
5.85	-0.086	-0.12652489202134326	
5.855	-0.181	-0.12671796522909173	
5.86	-0.213	-0.1314303763497816	
5.865	-0.116	-0.13939453847058014	
5.87	-0.193	-0.15117966578045366	
5.875	-0.294	-0.1675132849057131	
5.88	-0.197	-0.18426877698464633	
5.885	-0.190	-0.2015425698288243	
5.89	-0.333	-0.2176392182181653	
5.895	-0.281	-0.23383420431058358	
5.9	-0.208	-0.24844858308480308	
5.905	-0.289	-0.26073850089935535	
5.91	-0.315	-0.26748257012308796	
5.915	-0.232	-0.27032881346202126	
5.92	-0.283	-0.27516163388566484	
5.925	-0.371	-0.282594468916044	
5.93	-0.225	-0.28623059955246455	
5.935	-0.075	-0.2784623639297145	
5.94	-0.077	-0.24769771330768417	
5.945	0.032	-0.19183920113162584	
5.95	0.015	-0.1273621309031744	
5.955	-0.248	-0.2411753216430048	
5.96	-0.349	-0.08660277198571666	
5.965	-0.240	-0.12122244870517343	
5.97	-0.263	-0.17111690643481017	
5.975	-0.312	-0.21472024263546594	
5.98	-0.194	-0.2411753216430048	
5.985	-0.135	-0.2503517986940706	
5.99	-0.239	-0.24483872704627804	
5.995	-0.197	-0.22989689218013348	
6.0	-0.086	-0.21219180369569474	
6.005	-0.161	-0.19384065452213237	
6.01	-0.174	-0.1736967996412756	
6.015	-0.017	-0.15208686617600453	
6.02	-0.058	-0.13008708321034976	
6.025	-0.145	-0.10989289603631469	
6.03	-0.003	-0.09012438822838162	
6.035	0.059	-0.07023560191994986	
6.04	-0.080	-0.049985486069528504	
6.045	0.006	-0.03093831568944213	
6.05	0.198	-0.008019643088861914	
6.055	0.065	0.020106614069756206	
6.06	0.050	0.05016650426023112	
6.065	0.343	0.08404343041154769	
6.07	0.340	0.1299868005728522	
6.075	0.238	0.1849632036377117	
6.08	0.447	0.24188842003263933	
6.085	0.499	0.29888505615140737	
6.09	0.285	0.3469319031220911	
6.095	0.339	0.3759684354007201	
6.1	0.525	0.3920694772089939	
6.105	0.264	0.3971331976718298	
6.11	0.122	0.38304973074029836	
6.115	0.209	0.343020462364175	
6.12	0.050	0.2820591643333379	
6.125	-0.142	0.2069287345910819	
6.13	-0.087	0.1218136170219894	
6.135	-0.077	0.03794782069361573	
6.14	-0.213	-0.03598807081953123	
6.145	-0.179	-0.09207820029961786	
6.15	-0.093	-0.1319460342969302	
6.155	-0.187	-0.1587804616024699	
6.16	-0.188	-0.17093267376598348	
6.165	-0.057	-0.16901102170785542	
6.17	-0.083	-0.15989480654911903	
6.175	-0.181	-0.14604751039734895	
6.18	-0.043	-0.1282251676496175	
6.185	0.018	-0.11004087026951685	
6.19	-0.124	-0.09098196678888765	
6.195	-0.090	-0.0751280500760394	
6.2	0.042	-0.06394530782254018	
6.205	-0.089	-0.05676035245735714	
6.21	-0.142	-0.053976869000758994	
6.215	-0.013	-0.05502754170074031	
6.22	-0.080	-0.061861734731107565	
6.225	-0.208	-0.07306683011182846	
6.23	-0.141	-0.08925509097895577	
6.235	-0.130	-0.1100137780437999	
6.24	-0.257	-0.13597796414036134	
6.245	-0.231	-0.15915218353896976	
6.25	-0.144	-0.17891475664115605	
6.255	-0.229	-0.19574393914614704	
6.26	-0.277	-0.20701258903603648	
6.265	-0.147	-0.21199960221620298	
6.27	-0.188	-0.21582534683110968	
6.275	-0.294	-0.2171200955177965	
6.28	-0.214	-0.2172481759711434	
6.285	-0.158	-0.21994742833339018	
6.29	-0.219	-0.2200292478300086	
6.295	0.078	-0.19816577368645671	
6.3	0.507	-0.12877559957290277	
6.305	0.406	-0.007732364062868468	
6.31	0.108	0.12085147410477393	
6.315	0.010	0.1959754618956043	
6.32	-0.121	0.19218067300636937	
6.325	-0.239	0.13081177465187926	
6.33	-0.118	0.04977006741482824	
6.335	-0.063	-0.02588286214639172	
6.34	-0.145	-0.08106154093729456	
6.345	-0.101	-0.10918589369764817	
6.35	0.047	-0.1147688090291983	
6.355	-0.063	-0.10579842793874109	
6.36	-0.068	-0.08712169548625313	
6.365	0.151	-0.05885871127110065	
6.37	0.096	-0.023802021072394187	
6.375	-0.040	0.009715195537706346	
6.38	0.125	0.037825840760711535	
6.385	0.203	0.06116451272558774	
6.39	0.027	0.0818202722239752	
6.395	0.120	0.0997898400005972	
6.4	0.328	0.11932604163642181	
6.405	0.191	0.14516189050507367	
6.41	0.127	0.1718037964627658	
6.415	0.412	0.19819948821970196	
6.42	0.325	0.22822637984902544	
6.425	0.209	0.2576582148569194	
6.43	0.429	0.2848330449024403	
6.435	0.539	0.31821602688860273	
6.44	0.325	0.3548120899238528	
6.445	0.420	0.38674586312185705	
6.45	0.545	0.4123231055756106	
6.455	0.357	0.4281954629721498	
6.46	0.244	0.4287764975066909	
6.465	0.411	0.4121365025459631	
6.47	0.218	0.38326560530642384	
6.475	-0.066	0.33168999879073324	
6.48	-0.055	0.25272131597271763	
6.485	-0.118	0.1521940157889936	
6.49	-0.294	0.04293545260672274	
6.495	-0.297	-0.06028832214344225	
6.5	-0.229	-0.14976035682071262	
6.505	-0.329	-0.22167320817254332	
6.51	-0.367	-0.2721581607107511	
6.515	-0.236	-0.3019828679872306	
6.52	-0.252	-0.3156822624700316	
6.525	-0.321	-0.3151723209737972	
6.53	-0.216	-0.3023507039510719	
6.535	-0.147	-0.2828472078443217	
6.54	-0.237	-0.2609583846432866	
6.545	-0.188	-0.2343214343417281	
6.55	-0.069	-0.20785464080729255	
6.555	-0.138	-0.1836161071825629	
6.56	-0.165	-0.15914315885629077	
6.565	-0.034	-0.13707195063628458	
6.57	-0.090	-0.11967120240837333	
6.575	-0.188	-0.11013509739489047	
6.58	-0.104	-0.10540899779839481	
6.585	-0.087	-0.10785771091558961	
6.59	-0.199	-0.11591579431738926	
6.595	-0.158	-0.12334777659621776	
6.6	-0.078	-0.12986722061516204	
6.605	-0.177	-0.13758086394155855	
6.61	-0.219	-0.14416278876719119	
6.615	-0.095	-0.1490829363893652	
6.62	-0.101	-0.1516259759452434	
6.625	-0.205	-0.15014613811613226	
6.63	-0.103	-0.14443049510790923	
6.635	-0.040	-0.13681118368000056	
6.64	-0.174	-0.12992199413258293	
6.645	-0.141	-0.12239471120464632	
6.65	-0.022	-0.11582745890135282	
6.655	0.000	-0.10555592842953067	
6.66	0.156	-0.07319558397855373	
6.665	0.493	-0.002021083656906197	
6.67	0.371	0.09842574682277476	
6.675	-0.077	0.18072612091787438	
6.68	-0.106	0.1994763671602856	
6.685	-0.077	0.1532606019420491	
6.69	-0.158	0.07809039556000151	
6.695	-0.086	0.009545971989368162	
6.7	0.085	-0.035771405516100696	
6.705	-0.019	-0.05349374065997019	
6.71	-0.048	-0.05127608490708488	
6.715	0.145	-0.03408387104564182	
6.72	0.081	-0.009508643688424915	
6.725	-0.043	0.01478275826796671	
6.73	0.075	0.03247810332423854	
6.735	0.152	0.04629570684045008	
6.74	-0.013	0.05610880295903281	
6.745	0.010	0.06147949911746848	
6.75	0.197	0.06419900656877478	
6.755	0.029	0.06855562785888832	
6.76	-0.040	0.06869644049277976	
6.765	0.143	0.0658444467449037	
6.77	0.072	0.06254689142948779	
6.775	-0.071	0.05683413674800161	
6.78	0.075	0.04939125607993555	
6.785	0.162	0.04629934425109019	
6.79	0.015	0.05122506399109643	
6.795	0.035	0.05842160218309196	
6.8	0.172	0.06510323553472672	
6.805	0.062	0.07167369499531677	
6.81	0.012	0.07673525828525046	
6.815	0.165	0.08169798809049333	
6.82	0.099	0.08559306887620041	
6.825	-0.090	0.08095545691351225	
6.83	-0.051	0.06425061124944435	
6.835	-0.054	0.031226716817783277	
6.84	-0.199	-0.011614941068072022	
6.845	-0.213	-0.05761164134822094	
6.85	-0.152	-0.10303361399356042	
6.855	-0.286	-0.14820595194594405	
6.86	-0.342	-0.19220199830049242	
6.865	-0.252	-0.22945142426303516	
6.87	-0.310	-0.26236210240037827	
6.875	-0.468	-0.2949157484238254	
6.88	-0.497	-0.33186295061218585	
6.885	-0.504	-0.3798165128535972	
6.89	-0.625	-0.43647586291086754	
6.895	-0.637	-0.4906559965648883	
6.9	-0.546	-0.5371237944238991	
6.905	-0.599	-0.5730877205807028	
6.91	-0.611	-0.5931757646611704	
6.915	-0.524	-0.5975616428511928	
6.92	-0.585	-0.5963108254363868	
6.925	-0.732	-0.599860936966896	
6.93	-0.718	-0.6139578204783631	
6.935	-0.700	-0.6398009482319181	
6.94	-0.802	-0.6743957364125686	
6.945	-0.839	-0.7087326737857222	
6.95	-0.782	-0.7421553907053557	
6.955	-0.825	-0.7760070482918637	
6.96	-0.851	-0.800220036603552	
6.965	-0.757	-0.8116093060089355	
6.97	-0.723	-0.8132223336670101	
6.975	-0.763	-0.8028608346026662	
6.98	-0.679	-0.7800055659951517	
6.985	-0.567	-0.7487218915916005	
6.99	-0.593	-0.7113911260424766	
6.995	-0.549	-0.6648097315612047	
7.0	-0.417	-0.6130845423788612	
7.005	-0.440	-0.563980757607411	
7.01	-0.437	-0.5153407844453604	
7.015	-0.242	-0.4635648802411776	
7.02	-0.109	-0.4031231846018084	
7.025	-0.097	-0.32797531173612154	
7.03	0.030	-0.23702683482357098	
7.035	0.020	-0.15059345558834286	
7.04	-0.164	-0.08951017618779639	
7.045	-0.148	-0.05994280178466395	
7.05	0.075	-0.0499098754989539	
7.055	0.113	-0.03494251511590189	
7.06	0.091	-0.003513303429077612	
7.065	0.389	0.04953358962445222	
7.07	0.473	0.1250109126918954	
7.075	0.357	0.2138434924970588	
7.08	0.484	0.30092211246713596	
7.085	0.634	0.37859619077228457	
7.09	0.516	0.44545424603508665	
7.095	0.553	0.5029394918542407	
7.1	0.741	0.5502042896343141	
7.105	0.701	0.5920811432243587	
7.11	0.641	0.6323375379832836	
7.115	0.799	0.6695679475413072	
7.12	0.835	0.7020869857405714	
7.125	0.715	0.7327353467973688	
7.13	0.867	0.7619246855423121	
7.135	0.965	0.7937196269011142	
7.14	0.857	0.8253877146969852	
7.145	0.889	0.8568747263072167	
7.15	1.107	0.8903284196832352	
7.155	1.061	0.9290844884907659	
7.16	1.013	0.9722233961949904	
7.165	1.179	1.016639063748006	
7.17	1.190	1.058158918961796	
7.175	0.997	1.089614521307036	
7.18	1.094	1.1069019861912521	
7.185	1.153	1.1118274790035871	
7.19	0.907	1.1013286627141694	
7.195	0.823	1.0717760651095398	
7.2	0.909	1.0224065188564602	
7.205	0.735	0.9601084289970051	
7.21	0.531	0.8861153760357796	
7.215	0.615	0.8036583015071417	
7.22	0.550	0.7172485863394602	
7.225	0.311	0.6325673814872785	
7.23	0.392	0.551871088256525	
7.235	0.519	0.4859221600501355	
7.24	0.380	0.44036067207954077	
7.245	0.385	0.4177352832802669	
7.25	0.541	0.41144856344814373	
7.255	0.475	0.41515487568607756	
7.26	0.347	0.4260758739129475	
7.265	0.505	0.4356523258101452	
7.27	0.545	0.4442863203470765	
7.275	0.398	0.4545502338879087	
7.28	0.481	0.46584915601573407	
7.285	0.560	0.47392577758464893	
7.29	0.388	0.4763277574217568	
7.295	0.415	0.4737147783996255	
7.3	0.565	0.4714730529327371	
7.305	0.435	0.4691414122310094	
7.31	0.282	0.46004294871670454	
7.315	0.450	0.44367189811977803	
7.32	0.398	0.42330417275742194	
7.325	0.197	0.3975168582424998	
7.33	0.279	0.3668338212796635	
7.335	0.351	0.3359669170320815	
7.34	0.151	0.3043418351194285	
7.345	0.192	0.2756722987036013	
7.35	0.313	0.2534831442000748	
7.355	0.232	0.23819842981495506	
7.36	0.107	0.22701744884849495	
7.365	0.267	0.21863593665302877	
7.37	0.273	0.2133664455400896	
7.375	0.084	0.20852981427246464	
7.38	0.293	0.20776686455183083	
7.385	0.547	0.22501927758362125	
7.39	0.443	0.27043168089462827	
7.395	0.330	0.3275901042636449	
7.4	0.322	0.22501927758362125	
7.405	0.111	0.22501927758362125	
7.41	-0.022	0.3150114317183328	
7.415	0.198	0.2535579567831004	
7.42	0.258	0.20142789934654243	
7.425	0.124	0.17361236639982386	
7.43	0.250	0.1686927441977692	
7.435	0.368	0.18097623945069227	
7.44	0.203	0.20249623289737603	
7.445	0.174	0.2225706862702127	
7.45	0.427	0.24036305157971216	
7.455	0.813	0.28438617375334463	
7.46	1.242	0.4051438940281669	
7.465	1.821	0.6315466173423345	
7.47	2.076	0.9444208908100739	
7.475	2.004	1.2876269862642742	
7.48	2.126	1.6036115023839104	
7.485	2.216	1.8538869029923468	
7.49	2.013	2.024488035805288	
7.495	1.931	2.1155447808372134	
7.5	2.019	2.1382989913177246	
7.505	1.879	2.1103430072551186	
7.51	1.703	2.052067152201347	
7.515	1.828	1.9794434348437198	
7.52	1.775	1.9044181323488127	
7.525	1.520	1.8296904854716665	
7.53	1.544	1.7546233189008051	
7.535	1.553	1.678915334222232	
7.54	1.277	1.5995791925941245	
7.545	1.110	1.5085677755714464	
7.55	1.165	1.4052709599048347	
7.555	0.910	1.2893971112100404	
7.56	0.567	1.1580928155044452	
7.565	0.606	1.008357531528715	
7.57	0.544	0.852427234261635	
7.575	0.139	0.6987884719052337	
7.58	0.133	0.5445609854006584	
7.585	0.169	0.3948401957234412	
7.59	-0.016	0.2637222022351246	
7.595	-0.060	0.15663330206278664	
7.6	0.029	0.07413342746611105	
7.605	-0.049	0.012450474963291044	
7.61	-0.115	-0.029732677519475018	
7.615	-0.016	-0.05274169429985579	
7.62	-0.008	-0.06466837518047089	
7.625	-0.116	-0.0690496074169907	
7.63	-0.077	-0.06742932872225406	
7.635	0.006	-0.06632681685776565	
7.64	-0.092	-0.06622173904098069	
7.645	-0.100	-0.06327666867711648	
7.65	0.015	-0.0599997989831446	
7.655	0.107	-0.05058491151444493	
7.66	0.203	-0.016586867943804116	
7.665	0.496	0.054250001769080944	
7.67	0.522	0.15623126765710107	
7.675	0.327	0.2600007634008354	
7.68	0.340	0.3375885687818806	
7.685	0.345	0.37655654645290937	
7.69	0.117	0.37377060004598855	
7.695	0.021	0.33378045092244346	
7.7	0.087	0.26792890240944345	
7.705	-0.052	0.1873814063323611	
7.71	-0.153	0.10446801805348689	
7.715	-0.078	0.03019174056729545	
7.72	-0.113	-0.03481844907735041	
7.725	-0.232	-0.0878942141008804	
7.73	-0.207	-0.12936994643956884	
7.735	-0.150	-0.16249413999368456	
7.74	-0.263	-0.1891679621357516	
7.745	-0.203	-0.20514214367663614	
7.75	-0.002	-0.20310639613436943	
7.755	-0.028	-0.17961492454878492	
7.76	-0.150	-0.14548197194597434	
7.765	-0.132	-0.11786615921467875	
7.77	-0.159	-0.11188284239591148	
7.775	-0.211	-0.12184572233947784	
7.78	-0.081	-0.13035054723990375	
7.785	0.062	-0.12453780586713882	
7.79	-0.023	-0.10214396907202353	
7.795	-0.005	-0.069114421214069	
7.8	0.160	-0.031166289070899585	
7.805	0.070	0.006359553666366249	
7.81	-0.037	0.03555910192968797	
7.815	0.072	0.05112407024273731	
7.82	0.049	0.05409897679951378	
7.825	-0.075	0.04619060688931505	
7.83	-0.013	0.033631754531130424	
7.835	0.072	0.020407916174138604	
7.84	-0.081	0.006886257676846669	
7.845	-0.093	-0.006095055077690466	
7.85	0.032	-0.019219045459218723	
7.855	-0.034	-0.029621312021634306	
7.86	-0.081	-0.03537902836303171	
7.865	0.024	-0.03490379114101152	
7.87	0.059	-0.028914918806587683	
7.875	-0.054	-0.02075318726107703	
7.88	0.029	-0.008379631355614033	
7.885	0.174	0.007367534718863934	
7.89	0.023	0.027929492941207522	
7.895	-0.006	0.04491558020811102	
7.9	0.166	0.056718064148103514	
7.905	0.027	0.0633962606614947	
7.91	-0.109	0.05965732103719993	
7.915	-0.017	0.04201914079904287	
7.92	-0.054	0.014064654473377115	
7.925	-0.220	-0.021667845926873118	
7.93	-0.207	-0.06242195934850957	
7.935	-0.188	-0.10871797900019955	
7.94	-0.315	-0.1579834603741897	
7.945	-0.346	-0.20403882445732557	
7.95	-0.274	-0.24438113059865404	
7.955	-0.326	-0.28057443271005367	
7.96	-0.396	-0.3072372521300974	
7.965	-0.315	-0.32503292154999147	
7.97	-0.310	-0.33898048826913196	
7.975	-0.388	-0.34658324705121646	
7.98	-0.335	-0.3474065355907557	
7.985	-0.275	-0.3457855487944572	
7.99	-0.344	-0.34196356986879234	
7.995	-0.306	-0.3329861039222691	
8.0	-0.216	-0.31841674891112615	
8.005	-0.252	-0.30261419855035476	
8.01	-0.315	-0.2862030042404665	
8.015	-0.210	-0.272020688100053	
8.02	-0.214	-0.2610300963647483	
8.025	-0.306	-0.25358826936803314	
8.03	-0.236	-0.2483669151605583	
8.035	-0.173	-0.2428030974581459	
8.04	-0.313	-0.2420003528087319	
8.045	-0.318	-0.2449674307265573	
8.05	-0.232	-0.2534055747740787	
8.055	-0.300	-0.2646441247101827	
8.06	-0.358	-0.27719972325898834	
8.065	-0.274	-0.2869887994938077	
8.07	-0.287	-0.296039664977995	
8.075	-0.370	-0.3056108419162701	
8.08	-0.304	-0.31034208327345647	
8.085	-0.254	-0.3127812231894752	
8.09	-0.350	-0.31403237053172894	
8.095	-0.346	-0.31396938259448715	
8.1	-0.226	-0.31135492654310254	
8.105	-0.226	-0.30465671215744666	
8.11	-0.168	-0.2842340002562364	
8.115	0.117	-0.23791775099672635	
8.12	0.235	-0.15998990138764285	
8.125	-0.022	-0.06868908869172059	
8.13	-0.107	-0.003389970250148977	
8.135	-0.155	0.012233267865623553	
8.14	-0.266	-0.01906988855185508	
8.145	-0.254	-0.0709881047621704	
8.15	-0.148	-0.12330619099922879	
8.155	-0.187	-0.16466116618842952	
8.16	-0.237	-0.19027125246285803	
8.165	-0.118	-0.1989006312285396	
8.17	-0.100	-0.19500001378464699	
8.175	-0.199	-0.1847202674541569	
8.18	-0.145	-0.17031415755863488	
8.185	-0.081	-0.15769089315845192	
8.19	-0.167	-0.1491288743344961	
8.195	-0.167	-0.1420074664186513	
8.2	-0.028	-0.13322907217433183	
8.205	-0.103	-0.12370038668867687	
8.21	-0.176	-0.11535841259074167	
8.215	-0.048	-0.10883753472077186	
8.22	-0.022	-0.10096393082905059	
8.225	-0.103	-0.09081290314470719	
8.23	0.007	-0.0742933595517017	
8.235	0.157	-0.049593425683706255	
8.24	0.052	-0.015184976734374479	
8.245	0.082	0.022938773826547857	
8.25	0.333	0.06585661957570645	
8.255	0.276	0.11731260516895674	
8.26	0.133	0.16756242861362214	
8.265	0.305	0.20517417367225965	
8.27	0.324	0.23307608916647907	
8.275	0.070	0.24714615058650913	
8.28	0.136	0.24065727428206568	
8.285	0.136	0.2154082469501039	
8.29	-0.071	0.17383561976612166	
8.295	-0.122	0.11891642080318676	
8.3	-0.060	0.05480926858900869	
8.305	-0.145	-0.008655018520541766	
8.31	-0.239	-0.06638031352637018	
8.315	-0.136	-0.11186234432026325	
8.32	-0.148	-0.14693194853684488	
8.325	-0.266	-0.1727729869022558	
8.33	-0.216	-0.19034175452877988	
8.335	-0.141	-0.20163466360363838	
8.34	-0.257	-0.21010873617189046	
8.345	-0.236	-0.21405201831220055	
8.35	-0.141	-0.21324223060960326	
8.355	-0.196	-0.21064608647206398	
8.36	-0.255	-0.20735229220233833	
8.365	-0.130	-0.20090396535363608	
8.37	-0.122	-0.19293850558376976	
8.375	-0.223	-0.18474474541290686	
8.38	-0.155	-0.17437019776556856	
8.385	-0.081	-0.16564579868947238	
8.39	-0.182	-0.15908216250433047	
8.395	-0.194	-0.15307411246002028	
8.4	-0.092	-0.14925783476895177	
8.405	-0.181	-0.1506215038783309	
8.41	-0.283	-0.1573714004617669	
8.415	-0.184	-0.16992526369571903	
8.42	-0.182	-0.18591003600490522	
8.425	-0.298	-0.2017488696268112	
8.43	-0.242	-0.21439152567764574	
8.435	-0.165	-0.22461756353738777	
8.44	-0.268	-0.23207572933973217	
8.445	-0.297	-0.23610114205322463	
8.45	-0.190	-0.2392375325457593	
8.455	-0.262	-0.24560645475505444	
8.46	-0.341	-0.2513986058403783	
8.465	-0.271	-0.25890781003236873	
8.47	-0.228	-0.2688908046613172	
8.475	-0.203	-0.27078186198660725	
8.48	0.038	-0.24434946550782996	
8.485	0.275	-0.17853820725165348	
8.49	0.006	-0.23352634365799158	
8.495	-0.200	-0.23352634365799158	
8.5	-0.205	-0.21916876762809034	
8.505	-0.262	-0.04861655724353291	
8.51	-0.333	-0.10644483112405745	
8.515	-0.219	-0.16385886933982852	
8.52	-0.187	-0.20785455596877261	
8.525	-0.266	-0.2348336934162344	
8.53	-0.179	-0.24136046047552706	
8.535	-0.110	-0.23352634365799158	
8.54	-0.205	-0.21916876762809034	
8.545	-0.188	-0.20213853425608136	
8.55	-0.048	-0.18210922676621655	
8.555	-0.101	-0.16064417311659443	
8.56	-0.177	-0.1405089239615973	
8.565	-0.045	-0.12280266652881555	
8.57	-0.019	-0.10784323732871992	
8.575	-0.124	-0.09292630371298638	
8.58	-0.035	-0.07734753172742806	
8.585	0.099	-0.059459764226762864	
8.59	-0.014	-0.038225193952598116	
8.595	0.000	-0.014168777764541732	
8.6	0.227	0.012964570677741245	
8.605	0.151	0.04734585588274752	
8.61	0.117	0.08443697406470606	
8.615	0.365	0.12724875065482363	
8.62	0.388	0.179192422480976	
8.625	0.217	0.23001443505359614	
8.63	0.365	0.2726321692653967	
8.635	0.461	0.30858354736084803	
8.64	0.243	0.3347677765920394	
8.645	0.201	0.341764592914731	
8.65	0.299	0.32895140793364347	
8.655	0.111	0.2993955753514597	
8.66	-0.074	0.24940340900490982	
8.665	0.001	0.18216261180235827	
8.67	-0.054	0.10724572435391641	
8.675	-0.220	0.032090487546833406	
8.68	-0.184	-0.0374499686614291	
8.685	-0.103	-0.09542965556995828	
8.69	-0.217	-0.14009511602744748	
8.695	-0.240	-0.16925009653651088	
8.7	-0.148	-0.18813752609495724	
8.705	-0.174	-0.19949813091599727	
8.71	-0.240	-0.2035300261669668	
8.715	-0.122	-0.19894387990450257	
8.72	-0.112	-0.18973299021839374	
8.725	-0.188	-0.17781798639361407	
8.73	-0.124	-0.1635339812194497	
8.735	-0.052	-0.14747681229043264	
8.74	-0.133	-0.13501036365719998	
8.745	-0.170	-0.12328932316437206	
8.75	-0.061	-0.1162121462360892	
8.755	-0.122	-0.11542921947059405	
8.76	-0.181	-0.11652484787226466	
8.765	-0.095	-0.11702272028207555	
8.77	-0.124	-0.12169205400570969	
8.775	-0.240	-0.13178943016472422	
8.78	-0.193	-0.14460428704000508	
8.785	-0.122	-0.15744954859413385	
8.79	-0.237	-0.1719595147709518	
8.795	-0.251	-0.18335293330797725	
8.8	-0.165	-0.1932023925311608	
8.805	-0.214	-0.2043589130697395	
8.81	-0.280	-0.212586496899191	
8.815	-0.165	-0.21604388945577943	
8.82	-0.130	-0.21459374285614588	
8.825	-0.291	-0.2108249246888383	
8.83	-0.263	-0.20968241362257645	
8.835	-0.193	-0.21736964165798012	
8.84	-0.197	-0.22494216103069611	
8.845	-0.022	-0.2124210638781971	
8.85	0.394	-0.15610313817292434	
8.855	0.324	-0.2034850247398201	
8.86	-0.066	-0.1952681994158928	
8.865	-0.145	-0.1829092664606871	
8.87	-0.213	-0.17870712229343821	
8.875	-0.297	0.007163312124239688	
8.88	-0.236	-0.07072502605931524	
8.885	-0.139	-0.1373051136034449	
8.89	-0.200	-0.1829092664606871	
8.895	-0.202	-0.2034850247398201	
8.9	-0.093	-0.20413280365795375	
8.905	-0.118	-0.1952681994158928	
8.91	-0.170	-0.17870712229343821	
8.915	-0.072	-0.1570443605402212	
8.92	-0.035	-0.1354871398197458	
8.925	-0.124	-0.11591100468407234	
8.93	-0.032	-0.09471798333587453	
8.935	0.107	-0.07023582948752677	
8.94	0.000	-0.041991307903641494	
8.945	-0.028	-0.014550469199677684	
8.95	0.154	0.010961216804334048	
8.955	0.111	0.033722800833491294	
8.96	0.023	0.056189283711413726	
8.965	0.270	0.08202474764601499	
8.97	0.325	0.11859068570855814	
8.975	0.166	0.1599916572436385	
8.98	0.299	0.20025657321728366	
8.985	0.484	0.24186153956110323	
8.99	0.421	0.2899875895405894	
8.995	0.414	0.3423810054896127	
9.0	0.606	0.39501615796837986	
9.005	0.522	0.44175301694396796	
9.01	0.322	0.473107896723081	
9.015	0.418	0.47999358568743217	
9.02	0.383	0.46362732685116365	
9.025	0.079	0.42396858170573704	
9.03	0.053	0.35920493216521254	
9.035	0.082	0.27386944438535676	
9.04	-0.104	0.18101188581081912	
9.045	-0.147	0.09236962185813487	
9.05	-0.060	0.014010170827304193	
9.055	-0.139	-0.0502108333835155	
9.06	-0.219	-0.09985366829511771	
9.065	-0.106	-0.13099984581396334	
9.07	-0.084	-0.1483600043499144	
9.075	-0.161	-0.15399620740188336	
9.08	-0.077	-0.14577109393153345	
9.085	0.023	-0.12712412897960731	
9.09	-0.075	-0.10499878786633982	
9.095	-0.083	-0.08164795180948298	
9.1	0.082	-0.058980471909843867	
9.105	0.044	-0.0352112615134736	
9.11	-0.087	-0.014897422651705511	
9.115	0.056	-1.0858139830814906e-05	
9.12	0.119	0.01166715179769141	
9.125	-0.072	0.02097985798526502	
9.13	-0.011	0.025187827722669254	
9.135	0.090	0.023894000375487112	
9.14	-0.083	0.017019948753862976	
9.145	-0.129	0.003318843317995003	
9.15	-0.038	-0.01699609811927039	
9.155	-0.097	-0.04318069446529473	
9.16	-0.168	-0.06789043552468757	
9.165	-0.068	-0.0840231003312994	
9.17	-0.049	-0.09531603647271643	
9.175	-0.132	-0.10201436393033467	
9.18	-0.093	-0.09981569011053118	
9.185	0.000	-0.09408049626075635	
9.19	-0.113	-0.08899059489674963	
9.195	-0.164	-0.08570666918212472	
9.2	-0.071	-0.08795159130518224	
9.205	-0.017	-0.09217646523049103	
9.21	0.159	-0.07593208440089884	
9.215	0.573	-0.007927186287834363	
9.22	0.670	0.11576915657071794	
9.225	0.230	0.24984792715515886	
9.23	-0.020	0.32607042080684173	
9.235	-0.011	0.3129692318942518	
9.24	-0.106	0.23599244970898808	
9.245	-0.086	0.14224293684266992	
9.25	0.116	0.06713536974192515	
9.255	0.062	0.022872691076426845	
9.26	-0.006	0.005974780272185638	
9.265	0.215	0.01503430578378846	
9.27	0.258	0.04581317069666047	
9.275	0.093	0.08585752368612985	
9.28	0.146	0.12211209165337462	
9.285	0.342	0.15206665392781887	
9.29	0.235	0.1819973421098687	
9.295	0.229	0.21417062497705563	
9.3	0.437	0.24613300829344395	
9.305	0.359	0.27889625443835775	
9.31	0.243	0.3069261059186425	
9.315	0.460	0.32998996121416446	
9.32	0.505	0.3548446971700093	
9.325	0.400	0.3838858640033137	
9.33	0.521	0.4160825988579439	
9.335	0.693	0.4550626027108102	
9.34	0.597	0.50004469644985	
9.345	0.596	0.5471545668248166	
9.35	0.840	0.5940803121632343	
9.355	0.800	0.6449482002942633	
9.36	0.667	0.6929680054445356	
9.365	0.825	0.7308973967791789	
9.37	0.843	0.7588278937753605	
9.375	0.565	0.7689733353661623	
9.38	0.556	0.7540040575764061	
9.385	0.617	0.7149566474868132	
9.39	0.362	0.6571581051885279	
9.395	0.194	0.5801759592167512	
9.4	0.261	0.48691080246134033	
9.405	0.038	0.3810033189967341	
9.41	-0.121	0.26711005869565574	
9.415	-0.060	0.1547636175320003	
9.42	-0.052	0.05579726862829998	
9.425	-0.165	-0.022805510755672047	
9.43	-0.138	-0.07602473472003249	
9.435	-0.075	-0.11118387296073534	
9.44	-0.148	-0.1336782242334823	
9.445	-0.156	-0.14174032960221333	
9.45	-0.046	-0.13925612057191517	
9.455	-0.072	-0.13194809456016515	
9.46	-0.156	-0.12074680748998007	
9.465	-0.066	-0.10836606917015945	
9.47	-0.023	-0.09928196666642214	
9.475	-0.098	-0.08967707075377604	
9.48	-0.068	-0.07705534531855485	
9.485	0.010	-0.06630781242416005	
9.49	-0.090	-0.059609609737108826	
9.495	-0.104	-0.056691213185862656	
9.5	0.020	-0.05335894775487058	
9.505	-0.043	-0.05094252829578651	
9.51	-0.152	-0.05166637302920099	
9.515	-0.080	-0.05742646531196232	
9.52	-0.084	-0.06932498852160954	
9.525	-0.197	-0.08760358721256226	
9.53	-0.196	-0.10707007003874755	
9.535	-0.130	-0.1283661494485135	
9.54	-0.194	-0.15055117953154484	
9.545	-0.219	-0.16566275759081056	
9.55	-0.109	-0.1734150481543067	
9.555	-0.168	-0.1769253198495775	
9.56	-0.301	-0.18162864748040886	
9.565	-0.248	-0.1924653416770716	
9.57	-0.194	-0.20933210302441582	
9.575	-0.197	-0.22155601394169297	
9.58	-0.013	-0.21105610387732854	
9.585	0.194	-0.16635535885019168	
9.59	-0.026	-0.10253492944124219	
9.595	-0.284	-0.057724037381914284	
9.6	-0.359	-0.06449528347767464	
9.605	-0.451	-0.1269123819753895	
9.61	-0.495	-0.21759726804089055	
9.615	-0.371	-0.29947235668233807	
9.62	-0.287	-0.3573014533441219	
9.625	-0.368	-0.38452911268879	
9.63	-0.309	-0.38409922061202884	
9.635	-0.190	-0.3653773411582719	
9.64	-0.260	-0.338506342194598	
9.645	-0.262	-0.3056933567333959	
9.65	-0.126	-0.27043920825272383	
9.655	-0.115	-0.23688349917844825	
9.66	-0.159	-0.20164355611954715	
9.665	-0.072	-0.16547927965524534	
9.67	-0.034	-0.13428907088856773	
9.675	-0.109	-0.1096013485364481	
9.68	-0.042	-0.08711602035891687	
9.685	0.130	-0.06030230956451056	
9.69	0.017	-0.03154536413515826	
9.695	0.035	0.00024022997749649567	
9.7	0.240	0.03464818309141402	
9.705	0.238	0.07514504708070097	
9.71	0.148	0.12025255967375147	
9.715	0.340	0.1655522718316344	
9.72	0.452	0.21480696396714	
9.725	0.343	0.2683322063015028	
9.73	0.453	0.3228354816025351	
9.735	0.605	0.3767777431164019	
9.74	0.408	0.424442666535572	
9.745	0.275	0.44914399768866947	
9.75	0.386	0.4446543124208224	
9.755	0.236	0.41518224011693317	
9.76	0.018	0.3632033322990926	
9.765	0.053	0.29050828505878196	
9.77	0.046	0.20784465896115262	
9.775	-0.176	0.1233598754508391	
9.78	-0.193	0.03978924387119252	
9.785	-0.147	-0.039234715689065496	
9.79	-0.220	-0.10947879639631287	
9.795	-0.272	-0.1618187721062264	
9.8	-0.182	-0.19637515563595476	
9.805	-0.223	-0.221787784909701	
9.81	-0.297	-0.2377427152754872	
9.815	-0.210	-0.24350324096409484	
9.82	-0.184	-0.24416969031341826	
9.825	-0.248	-0.24262733745283777	
9.83	-0.193	-0.2322013810404194	
9.835	-0.106	-0.21722777724688455	
9.84	-0.173	-0.20151122508637936	
9.845	-0.159	-0.18285023858621735	
9.85	-0.011	-0.15932721582620818	
9.855	-0.034	-0.1317843016876883	
9.86	-0.100	-0.10482268520796062	
9.865	0.021	-0.07647406788335796	
9.87	0.111	-0.047098838120065954	
9.875	-0.032	-0.0187089267818549	
9.88	0.020	0.005751631053572034	
9.885	0.223	0.028873618550738986	
9.89	0.142	0.058486760376218944	
9.895	0.151	0.09305792907982476	
9.9	0.331	0.1337236210408288	
9.905	0.264	0.17427303444903652	
9.91	0.061	0.20308290465722606	
9.915	0.224	0.21248839254287738	
9.92	0.307	0.214990817858548	
9.925	0.149	0.21729361084420562	
9.93	0.160	0.21767144852072254	
9.935	0.256	0.21289436978001863	
9.94	0.099	0.20154084560193203	
9.945	0.116	0.18700059648475503	
9.95	0.527	0.18870121872130693	
9.955	0.663	0.23540624436613525	
9.96	0.466	0.3201366837742661	
9.965	0.408	0.4003471982338563	
9.97	0.243	0.43493529823632204	
9.975	0.030	0.4093778899849088	
9.98	0.046	0.34162384760963527	
9.985	0.203	0.2618167167246905	
9.99	0.114	0.1956681448503929	
9.995	0.075	0.15106034874005064	
10.0	0.263	0.13054430392452354	
10.005	0.154	0.1263898167946807	
10.01	-0.014	0.12524619493497474	
10.015	0.085	0.11628446327416908	
10.02	0.110	0.10192784518997353	
10.025	-0.037	0.08354922839420359	
10.03	-0.011	0.06458953347075884	
10.035	0.119	0.04767450763162971	
10.04	0.003	0.0367827326118116	
10.045	-0.055	0.028108281537289434	
10.05	0.047	0.020353612162870464	
10.055	0.018	0.012430742569077806	
10.06	-0.113	0.0024154183543460984	
10.065	-0.066	-0.010856316955081616	
10.07	-0.072	-0.03115876587762722	
10.075	-0.167	-0.056257969237354724	
10.08	-0.142	-0.08043935377677788	
10.085	-0.097	-0.10049694820254307	
10.09	-0.185	-0.12108912317919997	
10.095	-0.266	-0.1408110373877851	
10.1	-0.196	-0.16382382778333304	
10.105	-0.237	-0.18854021201383073	
10.11	-0.346	-0.21543297344906334	
10.115	-0.310	-0.24097138192619663	
10.12	-0.460	-0.2762297570278661	
10.125	-0.845	-0.3421388738448794	
10.13	-0.993	-0.45352638997598843	
10.135	-0.995	-0.5986247741741961	
10.14	-0.995	-0.7479241973697194	
10.145	-0.995	-0.8657363027534469	
10.15	-0.995	-0.943964817089943	
10.155	-0.995	-0.9944760079078792	
10.16	-0.995	-1.0213078137785505	
10.165	-0.995	-1.0260789050117496	
10.17	-0.995	-1.022248819408527	
10.175	-0.993	-1.0199927504977966	
10.18	-0.993	-1.0105262931784371	
10.185	-0.993	-1.0006754078846025	
10.19	-0.995	-0.9989078497188065	
10.195	-0.993	-0.9967868884637774	
10.2	-0.854	-0.9849735907902223	
10.205	-0.764	-0.9594178343790531	
10.21	-0.747	-0.9173768712226367	
10.215	-0.642	-0.8561014851656492	
10.22	-0.530	-0.7871331336061784	
10.225	-0.530	-0.7150547338498364	
10.23	-0.462	-0.639623724021272	
10.235	-0.339	-0.5645314580077989	
10.24	-0.350	-0.49689739578827546	
10.245	-0.358	-0.4359667282704617	
10.25	-0.226	-0.38088536890095515	
10.255	-0.168	-0.3313120615093371	
10.26	-0.219	-0.2845783734091655	
10.265	-0.119	-0.23811001153390085	
10.27	-0.055	-0.19493003441324547	
10.275	-0.110	-0.15819255413762295	
10.28	-0.043	-0.12275941572258142	
10.285	0.159	-0.08129030560349623	
10.29	0.110	-0.03288279703488244	
10.295	0.044	0.016788955419503853	
10.3	0.235	0.06225103526272178	
10.305	0.316	0.10885976918078713	
10.31	0.166	0.15618999573171474	
10.315	0.394	0.2038569173802651	
10.32	0.701	0.2653353761256648	
10.325	0.644	0.35474094985009313	
10.33	0.599	0.45606091853013325	
10.335	0.592	0.5368289655553802	
10.34	0.363	0.5711223031409465	
10.345	0.287	0.5576069003837664	
10.35	0.512	0.5193261754457807	
10.355	0.603	0.4899936023119011	
10.36	0.528	0.4850840363115904	
10.365	0.707	0.5078397917020896	
10.37	0.814	0.5524537041759876	
10.375	0.706	0.6076583833581766	
10.38	0.695	0.6609683166222021	
10.385	0.851	0.7039766882592373	
10.39	0.837	0.739188820103659	
10.395	0.725	0.769498735964657	
10.4	0.851	0.7933524708679466	
10.405	0.852	0.8060474829168237	
10.41	0.709	0.8109685517806556	
10.415	0.855	0.813817034865155	
10.42	0.977	0.8205557356109809	
10.425	0.848	0.8366092174292498	
10.43	0.855	0.8559144842640184	
10.435	1.022	0.8760769051502307	
10.44	0.977	0.8981886615755316	
10.445	0.886	0.9204111460263023	
10.45	1.022	0.9414157729834244	
10.455	1.063	0.9591008922824418	
10.46	0.953	0.9768886128877527	
10.465	1.054	0.9958244504968481	
10.47	1.152	1.0156188078076296	
10.475	0.988	1.0335451409388807	
10.48	0.948	1.0428774423109664	
10.485	1.051	1.0401427360048516	
10.49	0.900	1.0231584281858712	
10.495	0.686	0.9893400772217157	
10.5	0.739	0.9344622406179591	
10.505	0.652	0.8611133880731091	
10.51	0.427	0.7768201286778091	
10.515	0.441	0.6878504322877945	
10.52	0.466	0.5986644299024292	
10.525	0.273	0.5144979433318669	
10.53	0.238	0.4398939549073252	
10.535	0.386	0.3772187384371543	
10.54	0.296	0.33213464367600287	
10.545	0.189	0.30233353822896	
10.55	0.347	0.2845440661973726	
10.555	0.392	0.2781077150711389	
10.56	0.246	0.28477942737698697	
10.565	0.337	0.296906621712636	
10.57	0.435	0.3106627012732246	
10.575	0.278	0.3224289498549747	
10.58	0.281	0.3319308974804086	
10.585	0.449	0.33723715458014103	
10.59	0.369	0.3440514799524599	
10.595	0.258	0.3503525047274352	
10.6	0.406	0.35459803151711644	
10.605	0.395	0.3550218394970772	
10.61	0.214	0.35075530732866245	
10.615	0.299	0.34199534888900474	
10.62	0.324	0.3266172903362084	
10.625	0.166	0.3043584797546446	
10.63	0.097	0.2760190433550151	
10.635	0.181	0.23924690858133058	
10.64	0.073	0.19594190025619013	
10.645	-0.005	0.15340743558228087	
10.65	0.168	0.12069727304631964	
10.655	0.172	0.10193630463993178	
10.66	0.021	0.09472920272823976	
10.665	0.125	0.09611631905529289	
10.67	0.214	0.10058790491025063	
10.675	0.070	0.10726552163606523	
10.68	0.058	0.11411422325501373	
10.685	0.308	0.12229700352604983	
10.69	0.386	0.1468456329945381	
10.695	0.958	0.22649094213682275	
10.7	2.606	0.4559344186772342	
10.705	3.084	0.9070484446876984	
10.71	3.083	1.5057016001639465	
10.715	3.080	2.0969646515577676	
10.72	3.081	2.568446750993978	
10.725	3.081	2.889313842711882	
10.73	3.086	3.087060830842336	
10.735	3.074	3.1860807680727126	
10.74	2.727	3.1928948865027964	
10.745	2.382	3.1105070173283744	
10.75	2.320	2.954505010169214	
10.755	2.065	2.747843531719925	
10.76	1.822	2.5179814190409666	
10.765	1.819	2.2930275164147798	
10.77	1.761	2.0913822058105556	
10.775	1.485	1.9165729526153708	
10.78	1.332	1.7601683666699741	
10.785	1.304	1.6129089036278297	
10.79	1.051	1.4680417123457234	
10.795	0.840	1.3217229252939098	
10.8	0.918	1.1793366376410164	
10.805	0.826	1.0498303309895691	
10.81	0.644	0.9382277762980834	
10.815	0.693	0.8449038048639876	
10.82	0.706	0.768193389070728	
10.825	0.541	0.7067983086260092	
10.83	0.507	0.6552082638723747	
10.835	0.554	0.6086474704653353	
10.84	0.432	0.5631621658120303	
10.845	0.217	0.512912151985834	
10.85	0.273	0.4500749168398461	
10.855	0.166	0.3757556863422309	
10.86	-0.014	0.2955011226477022	
10.865	-0.025	0.21078440264702478	
10.87	-0.086	0.12295592065188186	
10.875	-0.237	0.03303440421499039	
10.88	-0.289	-0.05370408797306879	
10.885	-0.266	-0.13363883105849417	
10.89	-0.344	-0.20674443532427175	
10.895	-0.402	-0.26683509291764856	
10.9	-0.367	-0.31312687829160213	
10.905	-0.385	-0.35033609353347167	
10.91	-0.449	-0.38023081900278743	
10.915	-0.408	-0.3982690441801856	
10.92	-0.379	-0.41024690292611327	
10.925	-0.426	-0.41778645813278353	
10.93	-0.411	-0.4176179615745121	
10.935	-0.358	-0.41185364300213345	
10.94	-0.384	-0.40670793848666525	
10.945	-0.420	-0.40068201477191767	
10.95	-0.352	-0.3922662236334904	
10.955	-0.320	-0.3854038046319495	
10.96	-0.364	-0.37507699782516446	
10.965	-0.315	-0.36030415752530764	
10.97	-0.301	-0.3463721117611611	
10.975	-0.347	-0.33770100407650083	
10.98	-0.339	-0.3295698837481233	
10.985	-0.292	-0.32396062701883543	
10.99	-0.347	-0.3236994878769819	
10.995	-0.404	-0.32760485264244193	
11.0	-0.346	-0.3353183291288198	
11.005	-0.341	-0.34544473325460223	
11.01	-0.404	-0.3550168150027274	
11.015	-0.341	-0.3592995772806509	
11.02	-0.300	-0.35941469258398495	
11.025	-0.352	-0.3556730123286391	
11.03	-0.336	-0.34754107661535344	
11.035	-0.274	-0.33799222437599274	
11.04	-0.342	-0.33070537088776125	
11.045	-0.390	-0.32857691018790447	
11.05	-0.292	-0.328325609711104	
11.055	-0.200	-0.32445463045975154	
11.06	-0.162	-0.303986227962691	
11.065	-0.022	-0.2592763894678248	
11.07	0.033	-0.1974306108303206	
11.075	-0.168	-0.14070100858958615	
11.08	-0.271	-0.10956232906084047	
11.085	-0.239	-0.11701036977773491	
11.09	-0.272	-0.1487121407817763	
11.095	-0.283	-0.18655497168855478	
11.1	-0.174	-0.21330376989470703	
11.105	-0.167	-0.2264728821889168	
11.11	-0.200	-0.2260064783856594	
11.115	-0.124	-0.21226366054927565	
11.12	-0.083	-0.19143189431436297	
11.125	-0.130	-0.16871021424322724	
11.13	-0.104	-0.14451272898013076	
11.135	0.006	-0.11896106566253006	
11.14	-0.040	-0.09475031504272238	
11.145	-0.055	-0.07058660743518684	
11.15	0.039	-0.04726139821858156	
11.155	0.030	-0.02748648793465939	
11.16	-0.055	-0.012076708264173047	
11.165	0.035	-0.0012352784098108088	
11.17	0.093	0.00961473696367273	
11.175	0.032	0.021232238216141095	
11.18	0.152	0.03947835648580392	
11.185	0.402	0.07712790306570345	
11.19	0.440	0.14225465035197152	
11.195	0.458	0.22835941333477203	
11.2	0.652	0.3247734393461157	
11.205	0.702	0.4235525468029436	
11.21	0.567	0.5128714787591881	
11.215	0.667	0.5817267840810405	
11.22	0.738	0.629644844990841	
11.225	0.537	0.6572324906586404	
11.23	0.385	0.6534051028521886	
11.235	0.376	0.610064402296992	
11.24	0.177	0.5332630805609215	
11.245	0.041	0.4333684660479112	
11.25	0.119	0.3247278614825878	
11.255	0.007	0.22256329777016598	
11.26	-0.104	0.12995521671101565	
11.265	-0.084	0.05172098242667475	
11.27	-0.060	-0.0123929398541593	
11.275	-0.142	-0.06068188244774811	
11.28	-0.135	-0.09353499383976278	
11.285	-0.075	-0.11298058294627454	
11.29	-0.132	-0.12369959286668812	
11.295	-0.158	-0.1295669974256279	
11.3	-0.060	-0.1283326058900633	
11.305	-0.064	-0.12245975046987975	
11.31	-0.136	-0.11298321821323687	
11.315	-0.104	-0.10531956990455751	
11.32	-0.055	-0.10045506500899332	
11.325	-0.116	-0.09762859516645428	
11.33	-0.121	-0.0955322790815483	
11.335	-0.049	-0.093055963011704	
11.34	-0.103	-0.09366999442726859	
11.345	-0.150	-0.09452190683905279	
11.35	-0.093	-0.09739912065919691	
11.355	-0.129	-0.10447792854523091	
11.36	-0.216	-0.1169229802891221	
11.365	-0.167	-0.13134020774621386	
11.37	-0.156	-0.1474921780242714	
11.375	-0.260	-0.16458681550898663	
11.38	-0.266	-0.1845291242623044	
11.385	-0.210	-0.20409597350694558	
11.39	-0.248	-0.22264062154427788	
11.395	-0.295	-0.23649560410690054	
11.4	-0.229	-0.2464356357212642	
11.405	-0.231	-0.25246713259647413	
11.41	-0.313	-0.25788343875544495	
11.415	-0.298	-0.26237327996145354	
11.42	-0.242	-0.2695115841912461	
11.425	-0.223	-0.2735386616517912	
11.43	-0.031	-0.25550938249394073	
11.435	0.247	-0.19908727601803194	
11.44	0.185	-0.10860619612166875	
11.445	-0.087	-0.01953465180403717	
11.45	-0.162	0.024472344778739524	
11.455	-0.239	0.009523515975761747	
11.46	-0.295	-0.04485094058749525	
11.465	-0.234	-0.10939051415254494	
11.47	-0.165	-0.16351266162480355	
11.475	-0.214	-0.1994974032713473	
11.48	-0.216	-0.21552850242417382	
11.485	-0.142	-0.21815734683269813	
11.49	-0.173	-0.21360194183889447	
11.495	-0.199	-0.20346148545666148	
11.5	-0.097	-0.18848593964700627	
11.505	-0.113	-0.17147180541889787	
11.51	-0.159	-0.15584345426439628	
11.515	-0.087	-0.14039039983809787	
11.52	-0.031	-0.12352973128780753	
11.525	-0.083	-0.10651620054491115	
11.53	-0.055	-0.08753442015962287	
11.535	0.056	-0.06714940988606263	
11.54	0.058	-0.04260179971671037	
11.545	-0.005	-0.01447425372522794	
11.55	0.134	0.013513753650148123	
11.555	0.189	0.04353906712331819	
11.56	0.148	0.07916145823400456	
11.565	0.273	0.11960950774479691	
11.57	0.359	0.16646726349356286	
11.575	0.325	0.21648858214719377	
11.58	0.331	0.2644689555647601	
11.585	0.432	0.30682694814114364	
11.59	0.327	0.33838386106025165	
11.595	0.218	0.3515326187951749	
11.6	0.276	0.3444872459228971	
11.605	0.137	0.31651281887972127	
11.61	-0.060	0.2661700990456072	
11.615	-0.040	0.1935825877368223	
11.62	-0.072	0.1124430433184026	
11.625	-0.176	0.03254001913517369	
11.63	-0.207	-0.040522109170191715	
11.635	-0.203	-0.10321832919594683	
11.64	-0.243	-0.15756154705130992	
11.645	-0.300	-0.2014073218008224	
11.65	-0.226	-0.23156051845157433	
11.655	-0.260	-0.25246812054098305	
11.66	-0.317	-0.2667468110286133	
11.665	-0.248	-0.27445099921325755	
11.67	-0.179	-0.27358668329572877	
11.675	-0.214	-0.26339472921805174	
11.68	-0.199	-0.2445388404190522	
11.685	-0.129	-0.2232790159251558	
11.69	-0.139	-0.20151929172244304	
11.695	-0.164	-0.18039393804535792	
11.7	-0.095	-0.1596295913220804	
11.705	-0.112	-0.14345858545214984	
11.71	-0.161	-0.13270597883558755	
11.715	-0.100	-0.1244986581928825	
11.72	-0.043	-0.11660643277272555	
11.725	-0.142	-0.10835221032852839	
11.73	-0.176	-0.10656770532806568	
11.735	-0.124	-0.11232111033463231	
11.74	-0.171	-0.12447270781122514	
11.745	-0.222	-0.1393836339243158	
11.75	-0.159	-0.15368244156691474	
11.755	-0.181	-0.16742838354152795	
11.76	-0.231	-0.1796587694629205	
11.765	-0.171	-0.18754835042744894	
11.77	-0.118	-0.18861444255306686	
11.775	-0.203	-0.18528761835874108	
11.78	-0.197	-0.18059149878035785	
11.785	-0.161	-0.17836148930293855	
11.79	-0.214	-0.18141909512304333	
11.795	-0.216	-0.18638085599248197	
11.8	-0.019	-0.18172819754076747	
11.805	0.169	-0.15236184535885325	
11.81	0.104	-0.0916029518662679	
11.815	-0.028	-0.0256383275782407	
11.82	-0.245	0.002314265177984888	
11.825	-0.420	-0.030272539919846398	
11.83	-0.434	-0.10960497515563959	
11.835	-0.362	-0.20237264729376261	
11.84	-0.362	-0.28337289002453436	
11.845	-0.373	-0.33835938514719993	
11.85	-0.291	-0.3647467903277539	
11.855	-0.263	-0.36837281809933364	
11.86	-0.307	-0.3556177782344843	
11.865	-0.239	-0.3326189568472593	
11.87	-0.170	-0.30360359777699863	
11.875	-0.211	-0.2732378434253534	
11.88	-0.179	-0.24163951439305567	
11.885	-0.080	-0.20936366960318564	
11.89	-0.101	-0.1783643628356135	
11.895	-0.116	-0.14842187551546304	
11.9	-0.005	-0.11876129311367364	
11.905	0.042	-0.08833106036463212	
11.91	-0.037	-0.05665304079113828	
11.915	0.052	-0.026657808256955434	
11.92	0.160	0.003446969615278926	
11.925	0.116	0.036772424456898364	
11.93	0.160	0.0743114339957944	
11.935	0.345	0.11666066715768993	
11.94	0.324	0.16667907728589304	
11.945	0.321	0.22154440530202818	
11.95	0.453	0.2762164665171006	
11.955	0.437	0.32669982523741337	
11.96	0.311	0.3653373597054306	
11.965	0.363	0.3852941516766274	
11.97	0.365	0.3884500727678728	
11.975	0.128	0.3717910592334176	
11.98	-0.011	0.32525411842786356	
11.985	-0.028	0.24760576508081775	
11.99	-0.139	0.15172712589944679	
11.995	-0.231	0.05157235625521322	
12.0	-0.237	-0.0438460847443982	
12.005	-0.278	-0.12827821062344663	
12.01	-0.342	-0.20156584438258057	
12.015	-0.298	-0.25573071275151366	
12.02	-0.280	-0.29058131217761685	
12.025	-0.327	-0.3121111354275526	
12.03	-0.315	-0.3207146876600364	
12.035	-0.240	-0.3194443529630394	
12.04	-0.266	-0.311226642154128	
12.045	-0.277	-0.29840279207991904	
12.05	-0.190	-0.2809138307986033	
12.055	-0.161	-0.25925879969471677	
12.06	-0.268	-0.23953187155593084	
12.065	-0.425	-0.2338253441128171	
12.07	-0.642	-0.2686389794545867	
12.075	-0.870	-0.3580938884508897	
12.08	-0.993	-0.49076442606758847	
12.085	-0.993	-0.6404626234671862	
12.09	-0.995	-0.7821567737486121	
12.095	-0.993	-0.8913983810740571	
12.1	-0.995	-0.9609227210458297	
12.105	-0.995	-1.0032068838557415	
12.11	-0.993	-1.0235464162346948	
12.115	-0.995	-1.025822821568236	
12.12	-0.993	-1.0205282895654006	
12.125	-0.995	-1.0160908605847982	
12.13	-0.984	-1.0078202048465617	
12.135	-0.834	-0.9913692868959342	
12.14	-0.786	-0.9611517651866175	
12.145	-0.752	-0.915541548600768	
12.15	-0.637	-0.8558706225212935	
12.155	-0.590	-0.7911191994477844	
12.16	-0.579	-0.725697060069902	
12.165	-0.465	-0.6588470415537782	
12.17	-0.292	-0.5873567689230315	
12.175	-0.168	-0.5031554768328232	
12.18	-0.060	-0.3989284121451475	
12.185	0.101	-0.2802178037526317	
12.19	-0.043	-0.16916563040239183	
12.195	-0.165	-0.0907704184444684	
12.2	-0.119	-0.05480559295801545	
12.205	-0.038	-0.04898258762891916	
12.21	0.006	-0.047854718265466764	
12.215	0.198	-0.027857240163602318	
12.22	0.385	0.023853371999208624	
12.225	0.343	0.10175134177607591	
12.23	0.402	0.19090117321109046	
12.235	0.602	0.28294978311185437	
12.24	0.641	0.3769160901589429	
12.245	0.643	0.4690711459237464	
12.25	0.770	0.5552652566943328	
12.255	0.829	0.6331626998588947	
12.26	0.707	0.6969809505023206	
12.265	0.796	0.7420365481077531	
12.27	0.955	0.7790027442711129	
12.275	0.926	0.816736647816544	
12.28	0.907	0.857761771605903	
12.285	1.043	0.8970332474199737	
12.29	1.049	0.9339925338895554	
12.295	0.974	0.9689517146945044	
12.3	1.110	1.000264765117333	
12.305	1.182	1.0322831108394892	
12.31	1.144	1.066941045286228	
12.315	1.214	1.106984860702668	
12.32	1.324	1.1490875745857319	
12.325	1.251	1.1897255136476002	
12.33	1.149	1.220670054810613	
12.335	1.216	1.2340765270354142	
12.34	1.141	1.227024512987555	
12.345	0.999	1.2038682369456555	
12.35	1.046	1.1672745461561682	
12.355	0.977	1.1203428782149518	
12.36	0.782	1.0618695873409445	
12.365	0.741	0.9919466670548881	
12.37	0.764	0.9151652711075198	
12.375	0.629	0.8377155568259226	
12.38	0.530	0.7646226019012579	
12.385	0.602	0.6961514784224618	
12.39	0.545	0.6360656431535994	
12.395	0.441	0.5858119506644806	
12.4	0.524	0.5473055462591274	
12.405	0.547	0.5204098780905115	
12.41	0.450	0.5028301986580025	
12.415	0.513	0.4949374806305643	
12.42	0.641	0.4992377962329052	
12.425	0.556	0.5126976915801711	
12.43	0.536	0.5325629268323044	
12.435	0.683	0.5531972832661805	
12.44	0.635	0.5750880995153609	
12.445	0.512	0.5927349274676952	
12.45	0.573	0.5982919333062549	
12.455	0.641	0.5954558675877011	
12.46	0.476	0.5888025033789617	
12.465	0.446	0.5738925999052602	
12.47	0.492	0.548244948270903	
12.475	0.357	0.5127021661293677	
12.48	0.266	0.4695494053825833	
12.485	0.354	0.42218796069303177	
12.49	0.316	0.3770964746062364	
12.495	0.212	0.33976796417265653	
12.5	0.304	0.3103006144311015	
12.505	0.354	0.29243642948554205	
12.51	0.246	0.2838287539402241	
12.515	0.288	0.28292402004537925	
12.52	0.356	0.2862181154222996	
12.525	0.226	0.28669974195978987	
12.53	0.201	0.282582944339862	
12.535	0.296	0.2741668795680179	
12.54	0.371	0.27007729930653357	
12.545	0.464	0.2858187395635132	
12.55	0.649	0.33532749953597607	
12.555	0.658	0.2862181154222996	
12.56	0.369	0.2862181154222996	
12.565	0.194	0.28669974195978987	
12.57	0.250	0.4611752843999757	
12.575	0.168	0.3957078437781242	
12.58	0.156	0.3256298608290798	
12.585	0.307	0.2711642188830976	
12.59	0.337	0.2420617451252135	
12.595	0.310	0.24084738372169298	
12.6	0.446	0.26531421987749376	
12.605	0.492	0.3043551157484108	
12.61	0.374	0.34785214357626953	
12.615	0.431	0.3849721053412022	
12.62	0.505	0.4141453221570112	
12.625	0.389	0.432681961486118	
12.63	0.327	0.43665819898469443	
12.635	0.400	0.4281225892248915	
12.64	0.350	0.4100077687017123	
12.645	0.259	0.3868748239170274	
12.65	0.391	0.36630965730059695	
12.655	0.380	0.3523176876119212	
12.66	0.324	0.345893776531538	
12.665	0.388	0.34699997606404565	
12.67	0.512	0.3591117907160346	
12.675	0.449	0.3807140360818829	
12.68	0.452	0.40870149922207494	
12.685	0.596	0.43908221328922825	
12.69	0.580	0.4730115135769955	
12.695	0.534	0.5069263648704454	
12.7	0.605	0.5382614008684719	
12.705	0.608	0.5612703734460669	
12.71	0.482	0.5719455838608003	
12.715	0.481	0.5699828033288019	
12.72	0.466	0.5530311899756093	
12.725	0.259	0.515737119482158	
12.73	0.136	0.45572102861761554	
12.735	0.178	0.3770121091815249	
12.74	0.068	0.2920236140993885	
12.745	-0.072	0.20598991474595812	
12.75	-0.045	0.12421616257384399	
12.755	-0.031	0.051259487243441135	
12.76	-0.074	-0.005955512372823364	
12.765	-0.054	-0.040013412639367946	
12.77	-0.022	-0.058021293305462844	
12.775	-0.052	-0.06719290925201833	
12.78	-0.064	-0.06622328353229875	
12.785	0.009	-0.059043981736194795	
12.79	0.009	-0.04898301447657777	
12.795	-0.037	-0.036961432442701364	
12.8	0.038	-0.02180066421323401	
12.805	0.082	-0.00577842096454668	
12.81	-0.029	0.008043375212527865	
12.815	-0.014	0.016979412592051074	
12.82	0.044	0.01895807585374438	
12.825	-0.037	0.013800050014593742	
12.83	-0.045	0.006778413615387945	
12.835	0.032	0.0009589343939959759	
12.84	-0.009	-0.00498604486921071	
12.845	-0.077	-0.010972552479255987	
12.85	-0.051	-0.017795853782248836	
12.855	-0.035	-0.02877183259572465	
12.86	-0.112	-0.04297429532765154	
12.865	-0.110	-0.05601026608533174	
12.87	-0.037	-0.06800670645008142	
12.875	-0.087	-0.07722124425578253	
12.88	-0.136	-0.08224076710104639	
12.885	-0.078	-0.08699965453099626	
12.89	-0.098	-0.09499939339422535	
12.895	-0.124	-0.10001378361586928	
12.9	-0.121	-0.10173812203796756	
12.905	-0.104	-0.10675790576555766	
12.91	-0.116	-0.11405800849709492	
12.915	-0.005	-0.10795529316123612	
12.92	0.188	-0.08190642479366386	
12.925	0.117	-0.035319629000582255	
12.93	-0.034	-0.08699965453099626	
12.935	-0.068	-0.08699965453099626	
12.94	-0.150	0.023924104844835904	
12.945	-0.205	-0.014128913691419064	
12.95	-0.110	-0.05759053669001979	
12.955	-0.060	-0.09170882924013929	
12.96	-0.092	-0.11021736142978851	
12.965	-0.058	-0.10888834212471196	
12.97	0.009	-0.09679654598042732	
12.975	-0.063	-0.08149592582748852	
12.98	-0.061	-0.0663032809388795	
12.985	0.052	-0.04865570821397787	
12.99	0.038	-0.031143112032748846	
12.995	-0.035	-0.014298759553109327	
13.0	0.039	0.002586475144536916	
13.005	0.088	0.01334054600230146	
13.01	0.018	0.02453696609097472	
13.015	1.396	0.09924665564818215	
13.02	3.002	0.3866544511695533	
13.025	3.078	0.935576449964538	
13.03	3.077	1.599435066491646	
13.035	3.074	2.201221470354855	
13.04	3.074	2.6549315480874527	
13.045	3.078	2.954645183582596	
13.05	3.080	3.1283179105456034	
13.055	3.081	3.2033447357802824	
13.06	2.939	3.2077887271072383	
13.065	2.718	3.1609684886566516	
13.07	2.531	3.05809971106527	
13.075	2.171	2.898651004962945	
13.08	1.862	2.6897002315473806	
13.085	1.706	2.4440661029606687	
13.09	1.439	2.1789693311078575	
13.095	1.098	1.9069906504981022	
13.1	0.915	1.636271098314889	
13.105	0.680	1.3651821697828006	
13.11	0.366	1.0990307965799022	
13.115	0.249	0.8450778018283063	
13.12	0.159	0.612912555408299	
13.125	-0.049	0.40478134881056105	
13.13	-0.138	0.2259216279512122	
13.135	-0.115	0.07890688086571992	
13.14	-0.167	-0.036071159066462674	
13.145	-0.252	-0.1187759722735016	
13.15	-0.199	-0.17379120836929704	
13.155	-0.214	-0.21097859310307887	
13.16	-0.298	-0.23479968628346998	
13.165	-0.284	-0.25087494007080435	
13.17	-0.284	-0.265308989707854	
13.175	-0.355	-0.2821764761619693	
13.18	-0.382	-0.30093367282188627	
13.185	-0.358	-0.32026555774262866	
13.19	-0.404	-0.34216225185259486	
13.195	-0.466	-0.3666084204661113	
13.2	-0.426	-0.38884100292610146	
13.205	-0.463	-0.4111334889529497	
13.21	-0.532	-0.435681549099954	
13.215	-0.527	-0.45981377330391043	
13.22	-0.508	-0.48245479321636225	
13.225	-0.598	-0.5061392426970812	
13.23	-0.614	-0.5308226632469677	
13.235	-0.587	-0.5533665929478367	
13.24	-0.622	-0.5761935117365593	
13.245	-0.647	-0.5964913642782566	
13.25	-0.587	-0.6088794451465454	
13.255	-0.588	-0.6142018169012033	
13.26	-0.639	-0.6175951195073031	
13.265	-0.613	-0.6158073812100284	
13.27	-0.584	-0.614534102109056	
13.275	-0.636	-0.6150949785598485	
13.28	-0.601	-0.6137835032220413	
13.285	-0.428	-0.6024160850472087	
13.29	-0.364	-0.5721636155383099	
13.295	-0.365	-0.5224406871378585	
13.3	-0.353	-0.46493901756143297	
13.305	-0.457	-0.4232424689937563	
13.31	-0.595	-0.41257336040033815	
13.315	-0.579	-0.4308358604632143	
13.32	-0.508	-0.46455559392648094	
13.325	-0.526	-0.49604601239019896	
13.33	-0.511	-0.5137743817717625	
13.335	-0.430	-0.5174575131650219	
13.34	-0.433	-0.5091603653498374	
13.345	-0.449	-0.4924268610957107	
13.35	-0.384	-0.4689514007554338	
13.355	-0.355	-0.4452197679967207	
13.36	-0.388	-0.4215309627710091	
13.365	-0.336	-0.39783521564787544	
13.37	-0.274	-0.37356946806152236	
13.375	-0.312	-0.3500482059221706	
13.38	-0.292	-0.32778669830206375	
13.385	-0.211	-0.30546698167996567	
13.39	-0.231	-0.2841580318163073	
13.395	-0.262	-0.26544013891766943	
13.4	-0.202	-0.2479590181387055	
13.405	-0.139	-0.23220074599768678	
13.41	-0.188	-0.2145321120361991	
13.415	-0.126	-0.19285055157833758	
13.42	-0.014	-0.16755081729965882	
13.425	0.001	-0.13403350310312134	
13.43	0.039	-0.08979664861387861	
13.435	0.180	-0.037456963988003744	
13.44	0.168	0.01884909874679853	
13.445	0.076	0.06953957071008807	
13.45	0.146	0.10603278659733488	
13.455	0.108	0.12579547472040725	
13.46	-0.040	0.12444484817192822	
13.465	-0.060	0.10213238566484635	
13.47	-0.025	0.06444719545625249	
13.475	-0.147	0.01896386036408674	
13.48	-0.200	-0.02880776247094905	
13.485	-0.164	-0.0784688063175679	
13.49	-0.242	-0.12613907901265814	
13.495	-0.313	-0.17143634142515024	
13.5	-0.280	-0.21196683885593864	
13.505	-0.277	-0.24719803085040476	
13.51	-0.346	-0.27551574563854336	
13.515	-0.318	-0.29484965280190223	
13.52	-0.266	-0.30756872859763784	
13.525	-0.313	-0.3130265656438006	
13.53	-0.306	-0.3127839233594296	
13.535	-0.245	-0.3064808525949768	
13.54	-0.265	-0.2981532571714729	
13.545	-0.317	-0.28942319129036626	
13.55	-0.242	-0.2819680963129258	
13.555	-0.220	-0.2742170495249177	
13.56	-0.306	-0.2675150318043788	
13.565	-0.265	-0.2628483808625109	
13.57	-0.211	-0.2595847829932235	
13.575	-0.284	-0.25802719058866347	
13.58	-0.304	-0.25878073908412647	
13.585	-0.251	-0.2614973325150662	
13.59	-0.292	-0.26815329532433607	
13.595	-0.342	-0.27640888191516993	
13.6	-0.298	-0.28597838981612955	
13.605	-0.310	-0.2962248985432391	
13.61	-0.362	-0.3085013893799414	
13.615	-0.324	-0.31684513796820635	
13.62	-0.292	-0.32258651647074543	
13.625	-0.339	-0.32602402034496447	
13.63	-0.339	-0.32678137385469885	
13.635	-0.280	-0.32448642720174187	
13.64	-0.353	-0.32415065666905707	
13.645	-0.431	-0.32943561193955584	
13.65	-0.326	-0.33997435777286966	
13.655	-0.188	-0.3421832374015837	
13.66	-0.101	-0.31949159176503894	
13.665	0.006	-0.26384398517693747	
13.67	-0.008	-0.1925700203104107	
13.675	-0.251	-0.13606339912525	
13.68	-0.365	-0.12284947488973529	
13.685	-0.320	-0.15148200262407185	
13.69	-0.313	-0.2011146258979867	
13.695	-0.339	-0.24844125529521963	
13.7	-0.255	-0.2799729343540861	
13.705	-0.205	-0.2941622103377547	
13.71	-0.245	-0.29051841857563254	
13.715	-0.214	-0.27488279054973036	
13.72	-0.158	-0.2545447452350428	
13.725	-0.202	-0.23401758548361237	
13.73	-0.202	-0.2148313294218805	
13.735	-0.127	-0.1974688325238082	
13.74	-0.139	-0.1821167907551741	
13.745	-0.155	-0.16746412537890876	
13.75	-0.084	-0.1509749007222903	
13.755	-0.068	-0.13416314623397813	
13.76	-0.113	-0.11854834177648453	
13.765	-0.043	-0.10188347720722687	
13.77	0.068	-0.08050989767214099	
13.775	0.026	-0.053026046814294375	
13.78	0.032	-0.020855449618062648	
13.785	0.181	0.013560521430749137	
13.79	0.188	0.05189984115438044	
13.795	0.180	0.09450431416872387	
13.8	0.369	0.14403302117677175	
13.805	0.421	0.20187516976467254	
13.81	0.379	0.26443445556937994	
13.815	0.354	0.3190790072923352	
13.82	0.395	0.35648862869674014	
13.825	0.223	0.36896522706019297	
13.83	0.152	0.3541078078193748	
13.835	0.174	0.31654751419435945	
13.84	0.021	0.26091307095802285	
13.845	-0.118	0.1894851873343013	
13.85	-0.101	0.10699886572546671	
13.855	-0.132	0.024896440882115106	
13.86	-0.249	-0.050531557019301336	
13.865	-0.237	-0.11593857697180211	
13.87	-0.207	-0.1684956577644586	
13.875	-0.263	-0.20896188979742802	
13.88	-0.269	-0.23488776388900937	
13.885	-0.226	-0.24948051280684888	
13.89	-0.237	-0.258036239260391	
13.895	-0.265	-0.25948521048328266	
13.9	-0.188	-0.25304048824292874	
13.905	-0.170	-0.2420959393070855	
13.91	-0.211	-0.22851165341358312	
13.915	-0.158	-0.21097218242054505	
13.92	-0.097	-0.19249932838450645	
13.925	-0.145	-0.17294993395210442	
13.93	-0.171	-0.15592253937843026	
13.935	-0.086	-0.14348817236173972	
13.94	-0.107	-0.134012237736731	
13.945	-0.159	-0.1265080670499712	
13.95	-0.122	-0.12206279653873205	
13.955	-0.150	-0.1240773528219284	
13.96	-0.222	-0.13351964658850843	
13.965	-0.193	-0.14799573050213588	
13.97	-0.161	-0.1624804760678436	
13.975	-0.216	-0.17593663805680348	
13.98	-0.214	-0.185941905588758	
13.985	-0.144	-0.19147495609532544	
13.99	-0.190	-0.19298703355343438	
13.995	-0.231	-0.19353442091019202	
14.0	-0.177	-0.19307051403595873	
14.005	-0.170	-0.1940334996415063	
14.01	-0.237	-0.19552732593944083	
14.015	-0.239	-0.19803223554144755	
14.02	-0.182	-0.20345166209375282	
14.025	-0.109	-0.20491854040628044	
14.03	0.154	-0.17795252926560598	
14.035	0.505	-0.096402319701185	
14.04	0.452	0.03306431053495204	
14.045	0.015	-0.13489502484748156	
14.05	-0.116	-0.12585025967691582	
14.055	-0.164	0.17600037935943447	
14.06	-0.229	0.09448960546060096	
14.065	-0.182	0.0019204709519334172	
14.07	-0.103	-0.07442079757572742	
14.075	-0.129	-0.12585025967691582	
14.08	-0.127	-0.14900877610301969	
14.085	-0.023	-0.14949743352353656	
14.09	-0.054	-0.13489502484748156	
14.095	-0.106	-0.11455377828643662	
14.1	0.009	-0.09214969302298906	
14.105	0.075	-0.06596884078947621	
14.11	0.003	-0.035470623665445046	
14.115	0.049	-0.006124534443244298	
14.12	0.110	0.020531350060426334	
14.125	0.070	0.0421790178819315	
14.13	0.029	0.05897438122308671	
14.135	0.148	0.07143615726791411	
14.14	0.097	0.08113516018509279	
14.145	-0.011	0.08548575254408552	
14.15	0.036	0.07977696901595768	
14.155	0.035	0.06601016519570455	
14.16	-0.048	0.047606775719468655	
14.165	-0.003	0.028852338532643063	
14.17	0.038	0.014474580544366447	
14.175	0.010	0.006255377988077395	
14.18	0.009	0.004006129523427868	
14.185	0.052	0.008351522632213455	
14.19	0.013	0.013161995904130447	
14.195	-0.077	0.011554687863667168	
14.2	-0.046	0.0027045616459230194	
14.205	-0.037	-0.012006394930379596	
14.21	-0.145	-0.031305157634036115	
14.215	-0.177	-0.05720040880312088	
14.22	-0.161	-0.08859916082344658	
14.225	-0.234	-0.12365550466435472	
14.23	-0.268	-0.15898655761212183	
14.235	-0.243	-0.19175190250820773	
14.24	-0.252	-0.22077488496536793	
14.245	-0.295	-0.24335994228251262	
14.25	-0.236	-0.2563855576660539	
14.255	-0.220	-0.2620139654533149	
14.26	-0.231	-0.26019511330366785	
14.265	-0.217	-0.2512419482449245	
14.27	-0.139	-0.23666045889443607	
14.275	-0.139	-0.21756562410468683	
14.28	-0.130	-0.19297751510353484	
14.285	-0.052	-0.16383844067759923	
14.29	-0.086	-0.13573435758738656	
14.295	-0.148	-0.11532639821041103	
14.3	-0.124	-0.10447714801071555	
14.305	-0.124	-0.10501448338404365	
14.31	-0.179	-0.11312911997163648	
14.315	-0.196	-0.1253019006459553	
14.32	-0.179	-0.14269898112432283	
14.325	-0.234	-0.1624955750611332	
14.33	-0.295	-0.1859976873332316	
14.335	-0.243	-0.20990268169839796	
14.34	-0.228	-0.23167070199952955	
14.345	-0.309	-0.24728212176031075	
14.35	-0.262	-0.2575387000376384	
14.355	-0.232	-0.2650011638616796	
14.36	-0.301	-0.26906377332723586	
14.365	-0.472	-0.28035003313150114	
14.37	-0.711	-0.32277105225007974	
14.375	-0.978	-0.41949149475743247	
14.38	-0.993	-0.5580026280136334	
14.385	-0.995	-0.7039024592827261	
14.39	-0.995	-0.8306267651783189	
14.395	-0.995	-0.9242815986737859	
14.4	-0.993	-0.9815386922799675	
14.405	-0.970	-1.0109443078378706	
14.41	-0.960	-1.0200818417759225	
14.415	-0.981	-1.0143838098112319	
14.42	-0.967	-1.0016586290786136	
14.425	-0.964	-0.9924371943144401	
14.43	-0.911	-0.9800953400867913	
14.435	-0.766	-0.9548634855509142	
14.44	-0.656	-0.9105493270607895	
14.445	-0.598	-0.8454020950497527	
14.45	-0.472	-0.76257241270272	
14.455	-0.353	-0.6678150794882546	
14.46	-0.312	-0.5701568407848486	
14.465	-0.266	-0.472501431448793	
14.47	-0.101	-0.37851763756066825	
14.475	-0.040	-0.2894049605455613	
14.48	-0.028	-0.20126794527044423	
14.485	0.181	-0.11480739409677676	
14.49	0.319	-0.022434178657285832	
14.495	0.302	0.07744952728157922	
14.5	0.426	0.17738324945220776	
14.505	0.571	0.2733310310699919	
14.51	0.576	0.36578125834798525	
14.515	0.687	0.45740106197234565	
14.52	0.874	0.5496103226369171	
14.525	0.907	0.6446147029000081	
14.53	0.924	0.7396056792805553	
14.535	1.104	0.8302481489542313	
14.54	1.205	0.9206355039284061	
14.545	1.153	1.0083427524124031	
14.55	1.280	1.0893741067462899	
14.555	1.353	1.1624276988648217	
14.56	1.248	1.2217211837008084	
14.565	1.225	1.261320291393016	
14.57	1.271	1.2796739508288075	
14.575	1.159	1.2766203739804598	
14.58	1.029	1.252516876582529	
14.585	1.017	1.208265470713037	
14.59	0.926	1.1456851469813234	
14.595	0.758	1.0682809287507626	
14.6	0.741	0.9833569988637748	
14.605	0.701	0.8955087540661275	
14.61	0.611	0.8117152619990486	
14.615	0.571	0.7372863885232026	
14.62	0.632	0.6767565816563295	
14.625	0.577	0.6296577802946925	
14.63	0.548	0.5984616610203459	
14.635	0.676	0.5843205239736127	
14.64	0.709	0.5877651998565895	
14.645	0.629	0.6052178429372668	
14.65	0.692	0.6273359131823825	
14.655	0.776	0.6515886208572756	
14.66	0.680	0.6746815688786674	
14.665	0.654	0.6922068939051227	
14.67	0.713	0.6997992820706924	
14.675	0.669	0.697671448272537	
14.68	0.606	0.6903849434937334	
14.685	0.689	0.6813264504856991	
14.69	0.664	0.6718052050913097	
14.695	0.541	0.6581632894679486	
14.7	0.518	0.6383130738189091	
14.705	0.557	0.6086402295183297	
14.71	0.479	0.5766641196368518	
14.715	0.467	0.5471822108983633	
14.72	0.562	0.5258630690389308	
14.725	0.507	0.5116817111962875	
14.73	0.415	0.5013283236253989	
14.735	0.461	0.490353364433097	
14.74	0.486	0.47683942870982554	
14.745	0.426	0.46612046684700686	
14.75	0.455	0.4603304470680785	
14.755	0.450	0.454690217693777	
14.76	0.351	0.44360725282372643	
14.765	0.414	0.43115461182730397	
14.77	0.655	0.4319477636173476	
14.775	0.730	0.4626918206234622	
14.78	0.663	0.5202778791025231	
14.785	0.676	0.5813866289666851	
14.79	0.510	0.4626918206234622	
14.795	0.279	0.4626918206234622	
14.8	0.307	0.5633199325745419	
14.805	0.420	0.49576038297216296	
14.81	0.397	0.4386107744578066	
14.815	0.431	0.407137678182985	
14.82	0.542	0.4019660641599052	
14.825	0.539	0.4166775729274929	
14.83	0.458	0.4422465297892637	
14.835	0.524	0.46840922057747275	
14.84	0.559	0.48787257097910014	
14.845	0.495	0.5040386601813749	
14.85	0.562	0.5193435129895712	
14.855	0.634	0.5357555977284493	
14.86	0.539	0.5505632558777938	
14.865	0.524	0.5611246044138355	
14.87	0.669	0.5689781267724249	
14.875	0.625	0.5796536238054821	
14.88	0.542	0.591238904615181	
14.885	0.661	0.6004344102283623	
14.89	0.696	0.610869260717784	
14.895	0.637	0.6240348127391163	
14.9	0.738	0.6443603113565017	
14.905	0.846	0.6717505809468287	
14.91	0.759	0.7055651282683146	
14.915	0.799	0.7391430255014622	
14.92	0.883	0.770957081281969	
14.925	0.803	0.7966354393072241	
14.93	0.724	0.8102573027099713	
14.935	0.770	0.8104171833872846	
14.94	0.742	0.7978417762257	
14.945	0.600	0.7730519644481824	
14.95	0.567	0.7373463000440861	
14.955	0.521	0.6887080313968227	
14.96	0.366	0.6245783854968745	
14.965	0.249	0.5491541987271371	
14.97	0.275	0.46592884918046307	
14.975	0.157	0.3796500827404549	
14.98	0.059	0.2962943017934955	
14.985	0.104	0.22241558011406426	
14.99	0.117	0.15984961288628463	
14.995	-0.009	0.11308354215456089	
15.0	0.064	0.08035731487506642	
15.005	0.154	0.061714757679020626	
15.01	0.128	0.060607592719895374	
15.015	0.114	0.07517543414882617	
15.02	0.214	0.09691437630442726	
15.025	0.157	0.11863376694759033	
15.03	0.093	0.1363073843693461	
15.035	0.189	0.14740830740363542	
15.04	0.177	0.1538076803965191	
15.045	0.070	0.15408370745221273	
15.05	0.104	0.14937499130816395	
15.055	0.159	0.139673549378532	
15.06	0.055	0.12758200490453453	
15.065	0.059	0.11520924881822368	
15.07	0.162	0.10491055865584897	
15.075	0.029	0.09660694037913793	
15.08	-0.072	0.081329481578611	
15.085	-0.006	0.05640897169766154	
15.09	0.006	0.028784217732766796	
15.095	-0.081	0.003119535559100933	
15.1	-0.063	-0.016607599665283097	
15.105	-0.022	-0.03336755506126537	
15.11	-0.048	-0.04639692384703903	
15.115	-0.066	-0.05074743409516992	
15.12	-0.025	-0.050133178497091806	
15.125	-0.086	-0.05341838108222976	
15.13	-0.133	-0.0606154171160515	
15.135	-0.032	-0.06757809572329623	
15.14	0.065	-0.0662545926653751	
15.145	0.090	-0.04685870838840818	
15.15	0.220	-0.004553692499171274	
15.155	0.223	-0.04685870838840818	
15.16	-0.026	-0.04685870838840818	
15.165	-0.119	-0.04685870838840818	
15.17	-0.089	0.07587467386794569	
15.175	-0.106	0.02557661121687555	
15.18	-0.121	-0.023609393583117023	
15.185	-0.014	-0.05655482970853904	
15.19	0.026	-0.07025195764910262	
15.195	-0.040	-0.06588236717861226	
15.2	0.015	-0.050566506575498854	
15.205	0.058	-0.03137860594999297	
15.21	-0.014	-0.01344080425692743	
15.215	0.012	0.0012635277616836055	
15.22	0.088	0.01489594977539039	
15.225	0.026	0.0255620267306618	
15.23	0.009	0.032365678431163	
15.235	0.114	0.041448011146425975	
15.24	0.102	0.05074937582194507	
15.245	-0.009	0.05908444179274536	
15.25	0.039	0.06041864732530458	
15.255	0.110	0.0586531835527439	
15.26	0.046	0.05756536598614185	
15.265	0.101	0.06223752563337354	
15.27	0.226	0.07691955735857323	
15.275	0.204	0.10159894005654498	
15.28	0.188	0.13333712529915553	
15.285	0.301	0.16742664668688406	
15.29	0.345	0.20378751768862952	
15.295	0.287	0.24109257790744845	
15.3	0.299	0.2743814471752867	
15.305	0.310	0.2956529790552449	
15.31	0.180	0.2985725691093346	
15.315	0.104	0.2821958142995252	
15.32	0.145	0.24889652643932275	
15.325	0.001	0.20161643938470925	
15.33	-0.078	0.14432388812140654	
15.335	-0.080	0.08140622684969309	
15.34	-0.132	0.016809172272804943	
15.345	-0.202	-0.044900448588575455	
15.35	-0.193	-0.09762750129934254	
15.355	-0.158	-0.14030953378061287	
15.36	-0.234	-0.1723977240432789	
15.365	-0.242	-0.19481854294127135	
15.37	-0.188	-0.20908331120490917	
15.375	-0.191	-0.21835160830772984	
15.38	-0.234	-0.21969562680417434	
15.385	-0.168	-0.214590229396956	
15.39	-0.136	-0.20716286559414135	
15.395	-0.190	-0.1969315372616382	
15.4	-0.161	-0.18264161988947505	
15.405	-0.101	-0.17027776807687597	
15.41	-0.162	-0.16043435333118153	
15.415	-0.158	-0.15084791901721314	
15.42	-0.104	-0.14302725010309258	
15.425	-0.148	-0.13937587160397447	
15.43	-0.164	-0.1387649634288064	
15.435	-0.104	-0.1355211287245376	
15.44	-0.122	-0.1341316831744674	
15.445	-0.211	-0.13704374408958792	
15.45	-0.199	-0.14361906224685367	
15.455	-0.150	-0.15517130511248017	
15.46	-0.234	-0.1695260983944316	
15.465	-0.240	-0.182906136818141	
15.47	-0.203	-0.19588661559724455	
15.475	-0.223	-0.20939500268512046	
15.48	-0.142	-0.21489235088978204	
15.485	1.489	-0.1283199614473584	
15.49	2.684	0.1902246073093355	
15.495	3.081	0.7680237520664924	
15.5	3.083	1.4641996058929403	
15.505	3.083	2.1057027597593265	
15.51	3.046	2.5954970784327003	
15.515	3.037	2.923017401677099	
15.52	3.049	3.10887987487249	
15.525	2.756	3.1716101405880672	
15.53	2.322	3.119224769210317	
15.535	1.948	2.952319796887908	
15.54	1.579	2.682757922764	
15.545	1.315	2.350125450058856	
15.55	1.265	2.0084206737759898	
15.555	1.162	1.7006417885073646	
15.56	0.883	1.4386310078135713	
15.565	0.750	1.2152981579069304	
15.57	0.673	1.0248324398175335	
15.575	0.464	0.8565821814900829	
15.58	0.276	0.7024784710591288	
15.585	0.243	0.5583725212589382	
15.59	0.133	0.4236547037795355	
15.595	-0.020	0.3002595742683059	
15.6	-0.013	0.19046186730071013	
15.605	-0.031	0.09744757169880579	
15.61	-0.132	0.021670735280655183	
15.615	-0.144	-0.037568522750565284	
15.62	-0.133	-0.08432014600682734	
15.625	-0.200	-0.12247723544378157	
15.63	-0.228	-0.15334295213200552	
15.635	-0.164	-0.17567983896839626	
15.64	-0.208	-0.19149241015310547	
15.645	-0.258	-0.20360981919215101	
15.65	-0.203	-0.21249113421452698	
15.655	-0.181	-0.2167274058183956	
15.66	-0.243	-0.21828784415125965	
15.665	-0.245	-0.2194483188205408	
15.67	-0.219	-0.221457530692744	
15.675	-0.295	-0.22952671431520244	
15.68	-0.330	-0.24420038873970204	
15.685	-0.300	-0.2607407742159834	
15.69	-0.350	-0.2816030963156385	
15.695	-0.442	-0.30849589267361566	
15.7	-0.439	-0.33847171071069576	
15.705	-0.449	-0.37285606100332436	
15.71	-0.532	-0.4102349422217132	
15.715	-0.543	-0.4453635064083732	
15.72	-0.491	-0.4765459819821524	
15.725	-0.546	-0.502533724461173	
15.73	-0.562	-0.5200969628640322	
15.735	-0.489	-0.5307779569092188	
15.74	-0.480	-0.5326612956468479	
15.745	-0.506	-0.5274086597371559	
15.75	-0.460	-0.514448752976344	
15.755	-0.417	-0.49894191738107085	
15.76	-0.474	-0.483205549664491	
15.765	-0.446	-0.4672997584825399	
15.77	-0.391	-0.45361864465661544	
15.775	-0.407	-0.44156721226562534	
15.78	-0.408	-0.4280170930092929	
15.785	-0.339	-0.4117954249904974	
15.79	-0.333	-0.39573990511629625	
15.795	-0.361	-0.3783627277709499	
15.8	-0.297	-0.3604039357156025	
15.805	-0.272	-0.3420139948012031	
15.81	-0.353	-0.32721636682407007	
15.815	-0.349	-0.3182315776154616	
15.82	-0.323	-0.31765457668937624	
15.825	-0.361	-0.3246237184813534	
15.83	-0.382	-0.33295573655898814	
15.835	-0.333	-0.3407740627775351	
15.84	-0.375	-0.3488138246407246	
15.845	-0.423	-0.35934758551453144	
15.85	-0.367	-0.36934197346020436	
15.855	-0.349	-0.37505669634117184	
15.86	-0.417	-0.38024434584088096	
15.865	-0.420	-0.3841680852489766	
15.87	-0.381	-0.3896507822909828	
15.875	-0.442	-0.39867789059784436	
15.88	-0.416	-0.40593054940123124	
15.885	-0.237	-0.401723382603296	
15.89	-0.142	-0.3758269389902055	
15.895	-0.158	-0.32534822486291726	
15.9	-0.181	-0.2683167167868815	
15.905	-0.292	-0.2281030798571291	
15.91	-0.437	-0.2243054873397292	
15.915	-0.408	-0.2511379115673863	
15.92	-0.280	-0.28861882538405703	
15.925	-0.258	-0.3127000240305813	
15.93	-0.232	-0.3129091511561417	
15.935	-0.167	-0.2946995312277051	
15.94	-0.162	-0.26688835800237143	
15.945	-0.181	-0.2363720455016739	
15.95	-0.107	-0.20325090419080788	
15.955	-0.112	-0.1740923301992212	
15.96	-0.164	-0.15233452628517558	
15.965	-0.141	-0.13809231534895566	
15.97	-0.106	-0.13060696025325177	
15.975	-0.156	-0.12878646782521586	
15.98	-0.164	-0.12991818943183162	
15.985	-0.075	-0.13063230580913837	
15.99	-0.103	-0.1279230888819286	
15.995	-0.141	-0.12342251263371969	
16.0	-0.086	-0.1171886198260529	
16.005	-0.051	-0.11007124048025746	
16.01	-0.116	-0.10239527010970721	
16.015	-0.081	-0.0950664002422521	
16.02	0.078	-0.08154784982228522	
16.025	0.044	-0.05781893698887394	
16.03	0.052	-0.023933053420573887	
16.035	0.165	0.013409000899642564	
16.04	0.136	0.05105815337209026	
16.045	0.050	0.08154112321051431	
16.05	0.096	0.09983028983387385	
16.055	0.067	0.10392263406037713	
16.06	-0.074	0.09157063174788097	
16.065	-0.107	0.06193812692992463	
16.07	-0.110	0.018446396746226914	
16.075	-0.202	-0.03284845075003769	
16.08	-0.271	-0.08792351127867727	
16.085	-0.248	-0.142578226117872	
16.09	-0.292	-0.19395495636429794	
16.095	-0.359	-0.23943961163708397	
16.1	-0.320	-0.2761381797059117	
16.105	-0.323	-0.30508278192905336	
16.11	-0.375	-0.32642065081706323	
16.115	-0.349	-0.3410250852394129	
16.12	-0.300	-0.34655083645411405	
16.125	-0.336	-0.34786396671814884	
16.13	-0.335	-0.3439097897376238	
16.135	-0.245	-0.3335627999681954	
16.14	-0.240	-0.3189686068142058	
16.145	-0.278	-0.29945407491314624	
16.15	-0.200	-0.27812842725226317	
16.155	-0.174	-0.256080620344746	
16.16	-0.239	-0.23744668663715326	
16.165	-0.208	-0.22103319919048467	
16.17	-0.177	-0.21053459268735703	
16.175	-0.237	-0.20588309112872005	
16.18	-0.245	-0.20593330102839283	
16.185	-0.220	-0.20953960090220883	
16.19	-0.260	-0.21897333062724103	
16.195	-0.317	-0.23249393025156342	
16.2	-0.269	-0.2471036810803921	
16.205	-0.226	-0.25904633778589736	
16.21	-0.301	-0.2674862107272974	
16.215	-0.281	-0.27003314160601094	
16.22	-0.237	-0.2724788423076532	
16.225	-0.252	-0.27190891871654743	
16.23	-0.265	-0.2669623056343031	
16.235	-0.217	-0.25947849508755494	
16.24	-0.265	-0.25497979069313614	
16.245	-0.324	-0.25555916481136537	
16.25	-0.263	-0.2600561295506341	
16.255	-0.148	-0.2610085480772979	
16.26	-0.016	-0.24254443674377463	
16.265	0.166	-0.18698160757761034	
16.27	0.275	-0.09638625829531325	
16.275	-0.035	-0.006015313294261147	
16.28	-0.216	0.039923094016970744	
16.285	-0.200	0.026589961034383956	
16.29	-0.185	-0.023956600669937295	
16.295	-0.200	-0.08063253069823416	
16.3	-0.132	-0.12400957584848091	
16.305	-0.077	-0.1479397838021359	
16.31	-0.119	-0.153625572090062	
16.315	-0.064	-0.14303646632598005	
16.32	0.001	-0.12232362793862152	
16.325	-0.075	-0.09899749609688488	
16.33	-0.061	-0.07807665670075287	
16.335	0.056	-0.05733116406945238	
16.34	0.059	-0.03394174473569156	
16.345	0.026	-0.00771094562486899	
16.35	0.284	0.02800753874085223	
16.355	0.469	0.088134837393552	
16.36	0.489	0.17734023138224597	
16.365	0.641	0.2879166502729102	
16.37	0.782	0.4077263126130345	
16.375	0.742	0.5240173147899982	
16.38	0.722	0.6238513579528768	
16.385	0.887	0.7016522910991314	
16.39	0.909	0.7651080946000783	
16.395	0.835	0.8172719243643538	
16.4	0.936	0.8579370114138057	
16.405	0.977	0.8881278952035064	
16.41	0.851	0.9093609478921694	
16.415	0.800	0.9148656660332064	
16.42	0.796	0.8996786966752353	
16.425	0.641	0.8630655155072864	
16.43	0.510	0.8058785102251569	
16.435	0.502	0.7315928132355021	
16.44	0.353	0.6441117903312644	
16.445	0.093	0.540329464800724	
16.45	0.039	0.4198895969734762	
16.455	-0.048	0.28808833977532833	
16.46	-0.142	0.15845209881987632	
16.465	-0.139	0.04590178559173684	
16.47	-0.109	-0.04136555484680799	
16.475	-0.171	-0.10387010095863936	
16.48	-0.213	-0.14505344927438216	
16.485	-0.177	-0.17246721605069182	
16.49	-0.187	-0.1908871486180082	
16.495	-0.232	-0.20157929955687492	
16.5	-0.165	-0.20512665968635757	
16.505	-0.127	-0.2009605836171891	
16.51	-0.177	-0.1924992519793351	
16.515	-0.158	-0.1791019087718028	
16.52	-0.127	-0.1674487269958902	
16.525	-0.153	-0.15986356253826683	
16.53	-0.171	-0.15401391121391017	
16.535	-0.107	-0.14751213190272788	
16.54	-0.116	-0.14291015724422862	
16.545	-0.150	-0.13754062770815795	
16.55	-0.083	-0.13013322426251855	
16.555	-0.084	-0.12099409718359184	
16.56	-0.190	-0.11749365244565166	
16.565	-0.185	-0.12109697951625638	
16.57	-0.159	-0.13346068954331752	
16.575	-0.213	-0.1508606305879197	
16.58	-0.229	-0.16800761124172436	
16.585	-0.185	-0.1825121084853723	
16.59	-0.210	-0.1959079876755011	
16.595	-0.246	-0.20654420895168593	
16.6	-0.167	-0.21012843637119133	
16.605	-0.142	-0.20797836569755668	
16.61	-0.205	-0.2014995432321805	
16.615	-0.222	-0.19409793891554883	
16.62	-0.207	-0.19344201719403448	
16.625	-0.217	-0.19887901270846883	
16.63	-0.116	-0.20001839283024864	
16.635	0.198	-0.17244442367245574	
16.64	0.295	-0.10286604077325706	
16.645	0.139	-0.007596398655292682	
16.65	-0.026	0.0688233792457561	
16.655	-0.158	0.08899624587048112	
16.66	-0.232	0.053461875634795	
16.665	-0.179	-0.008084425334401766	
16.67	-0.066	-0.06638988709807717	
16.675	-0.098	-0.10488385255900877	
16.68	-0.090	-0.1190338774627475	
16.685	0.027	-0.11343537955878444	
16.69	0.023	-0.0929111364780683	
16.695	-0.017	-0.06461826082239894	
16.7	0.065	-0.0330781967325987	
16.705	0.110	-0.0019455470922334532	
16.71	0.041	0.02641199883715409	
16.715	0.119	0.051921359015467475	
16.72	0.220	0.07964841536199403	
16.725	0.168	0.10806043520587186	
16.73	0.137	0.1349221153976316	
16.735	0.261	0.15860591329283386	
16.74	0.267	0.18108642055251556	
16.745	0.180	0.20233311707922044	
16.75	0.343	0.22394413076141922	
16.755	0.415	0.2510956866694869	
16.76	0.379	0.2873910635849102	
16.765	0.476	0.3309094059268981	
16.77	0.594	0.38067540605080136	
16.775	0.577	0.43506198164812093	
16.78	0.556	0.4889043704878711	
16.785	0.695	0.5376066907461751	
16.79	0.663	0.5800909904808238	
16.795	0.562	0.6123252563563792	
16.8	0.592	0.6279201910572183	
16.805	0.519	0.6230694208009087	
16.81	0.331	0.5943850095855333	
16.815	0.255	0.5388924938425941	
16.82	0.195	0.4606386997983938	
16.825	0.017	0.3650688127532475	
16.83	-0.057	0.258928436954274	
16.835	0.009	0.15759130608912386	
16.84	-0.023	0.0741144621393941	
16.845	-0.087	0.011384303385029536	
16.85	-0.042	-0.029090335476326737	
16.855	-0.020	-0.05292778158502202	
16.86	-0.075	-0.06454256298780703	
16.865	-0.061	-0.06710647343133838	
16.87	0.020	-0.06339290997476145	
16.875	-0.026	-0.05487227648676745	
16.88	-0.023	-0.04205573199205828	
16.885	0.075	-0.025480364499379463	
16.89	0.036	-0.007879872437293916	
16.895	-0.043	0.006411496024196893	
16.9	0.017	0.013842419066709197	
16.905	0.041	0.01505139003376806	
16.91	-0.049	0.012514403478844005	
16.915	-0.023	0.00786350803310169	
16.92	0.047	0.002556822503205286	
16.925	-0.016	-0.0008157838950376337	
16.93	-0.077	-0.004042307227646359	
16.935	-0.048	-0.012559340677867804	
16.94	-0.080	-0.02886446787018585	
16.945	-0.158	-0.04851889795187324	
16.95	-0.110	-0.07020012633301945	
16.955	-0.136	-0.09198633603724873	
16.96	-0.219	-0.11642112527483263	
16.965	-0.200	-0.14013232652185187	
16.97	-0.174	-0.16150306961072397	
16.975	-0.217	-0.1807847662526681	
16.98	-0.231	-0.19499948103220088	
16.985	-0.190	-0.2035956476532802	
16.99	-0.252	-0.21186562685195165	
16.995	-0.344	-0.22649110468010514	
17.0	-0.312	-0.24623064151932134	
17.005	-0.213	-0.26598605923905155	
17.01	-0.097	-0.26736408422360536	
17.015	0.105	-0.23011451357950855	
17.02	0.188	-0.15449957161353606	
17.025	-0.162	-0.07679370987543596	
17.03	-0.414	-0.04909462641103558	
17.035	-0.466	-0.09166260115931493	
17.04	-0.482	-0.18180026243816272	
17.045	-0.494	-0.2824595335840897	
17.05	-0.422	-0.36427933157727055	
17.055	-0.359	-0.4159419193842201	
17.06	-0.376	-0.43731203174148914	
17.065	-0.333	-0.4312130665937912	
17.07	-0.272	-0.40853940420214707	
17.075	-0.257	-0.37666524457793416	
17.08	-0.262	-0.34004217306792217	
17.085	-0.177	-0.300698388713679	
17.09	-0.145	-0.2627560875201636	
17.095	-0.156	-0.22544915364492463	
17.1	-0.066	-0.18735831069692538	
17.105	0.010	-0.14694122224197437	
17.11	-0.008	-0.10528326892160139	
17.115	0.064	-0.060271722518582246	
17.12	0.214	-0.010545334124248441	
17.125	0.204	0.04539535996572372	
17.13	0.233	0.10392103193599868	
17.135	0.443	0.16826455547719116	
17.14	0.472	0.23932037265231204	
17.145	0.457	0.31455331676651566	
17.15	0.537	0.38455068274823767	
17.155	0.585	0.44508915337771476	
17.16	0.492	0.4917723132045181	
17.165	0.490	0.5206348711280213	
17.17	0.492	0.531411937285937	
17.175	0.372	0.5204780604649426	
17.18	0.197	0.4858768576161649	
17.185	0.185	0.42515741620136976	
17.19	0.062	0.34438308755931746	
17.195	-0.107	0.24859954083485677	
17.2	-0.129	0.14545433508856412	
17.205	-0.170	0.043114750094862625	
17.21	-0.263	-0.051109807152164295	
17.215	-0.262	-0.13041306861243712	
17.22	-0.249	-0.19262377006542325	
17.225	-0.300	-0.23839541799563993	
17.23	-0.336	-0.2711067313091782	
17.235	-0.292	-0.293926376253803	
17.24	-0.277	-0.3075368101274333	
17.245	-0.300	-0.31132880018536885	
17.25	-0.232	-0.3046423184521295	
17.255	-0.200	-0.2898847545759	
17.26	-0.217	-0.2710208606955607	
17.265	-0.207	-0.24848823673619555	
17.27	-0.145	-0.2266904751833016	
17.275	-0.170	-0.20630831689362322	
17.28	-0.344	-0.19712837378251027	
17.285	-0.537	-0.21805453589958534	
17.29	-0.711	-0.28752780931521615	
17.295	-0.896	-0.4023030245445202	
17.3	-0.958	-0.5417161589663032	
17.305	-0.984	-0.6848733141339733	
17.31	-0.993	-0.8119461666910649	
17.315	-0.993	-0.9065018366473488	
17.32	-0.972	-0.9666884033441885	
17.325	-0.954	-0.9992557464245564	
17.33	-0.964	-1.008129690615081	
17.335	-0.880	-0.9980210081464576	
17.34	-0.796	-0.9724385157159106	
