Vernier Format 2
ecg3.txt 10/20/2025 9:42:12
Run 1
Time	Potential	EKG	
T	P	E	
s	mV	mV	

0.000	-0.167	-0.008	
0.005	-0.122	-0.031	
0.010	-0.074	-0.059	
0.015	-0.069	-0.078	
0.020	-0.023	-0.083	
0.025	0.046	-0.074	
0.030	-0.014	-0.053	
0.035	0.047	-0.030	
0.040	0.136	-0.003	
0.045	0.183	0.034	
0.050	0.243	0.080	
0.055	0.250	0.130	
0.060	0.392	0.183	
0.065	0.565	0.250	
0.070	0.718	0.339	
0.075	0.793	0.450	
0.080	0.806	0.564	
0.085	0.889	0.669	
0.090	0.956	0.760	
0.095	1.066	0.843	
0.100	1.144	0.923	
0.105	1.164	1.001	
0.110	1.162	1.068	
0.115	1.162	1.119	
0.120	1.139	1.151	
0.125	1.028	1.160	
0.130	0.964	1.143	
0.135	0.867	1.099	
0.140	0.706	1.032	
0.145	0.550	0.939	
0.150	0.379	0.821	
0.155	0.230	0.682	
0.160	0.081	0.531	
0.165	0.007	0.376	
0.170	-0.034	0.234	
0.175	-0.061	0.115	
0.180	-0.122	0.023	
0.185	-0.139	-0.048	
0.190	-0.164	-0.099	
0.195	-0.153	-0.135	
0.200	-0.090	-0.154	
0.205	-0.052	-0.152	
0.210	-0.057	-0.135	
0.215	-0.069	-0.112	
0.220	-0.068	-0.093	
0.225	-0.084	-0.079	
0.230	-0.116	-0.074	
0.235	-0.130	-0.079	
0.240	-0.139	-0.090	
0.245	-0.179	-0.106	
0.250	-0.190	-0.126	
0.255	-0.210	-0.148	
0.260	-0.225	-0.170	
0.265	-0.284	-0.193	
0.270	-0.272	-0.218	
0.275	-0.291	-0.242	
0.280	-0.335	-0.263	
0.285	-0.324	-0.285	
0.290	-0.309	-0.302	
0.295	-0.344	-0.315	
0.300	-0.390	-0.326	
0.305	-0.402	-0.342	
0.310	-0.312	-0.357	
0.315	-0.152	-0.352	
0.320	0.042	-0.311	
0.325	0.026	-0.236	
0.330	-0.164	-0.158	
0.335	-0.312	-0.119	
0.340	-0.375	-0.132	
0.345	-0.371	-0.180	
0.350	-0.367	-0.238	
0.355	-0.309	-0.289	
0.360	-0.262	-0.318	
0.365	-0.255	-0.323	
0.370	-0.216	-0.312	
0.375	-0.171	-0.289	
0.380	-0.174	-0.258	
0.385	-0.152	-0.226	
0.390	-0.136	-0.197	
0.395	-0.124	-0.172	
0.400	-0.121	-0.151	
0.405	-0.095	-0.134	
0.410	-0.069	-0.119	
0.415	-0.103	-0.105	
0.420	-0.058	-0.094	
0.425	-0.019	-0.082	
0.430	0.030	-0.064	
0.435	0.046	-0.040	
0.440	0.162	-0.007	
0.445	0.287	0.040	
0.450	0.395	0.109	
0.455	0.461	0.193	
0.460	0.484	0.282	
0.465	0.382	0.357	
0.470	0.380	0.403	
0.475	0.342	0.420	
0.480	0.256	0.412	
0.485	0.094	0.375	
0.490	0.006	0.309	
0.495	-0.069	0.221	
0.500	-0.184	0.123	
0.505	-0.214	0.021	
0.510	-0.222	-0.071	
0.515	-0.249	-0.145	
0.520	-0.249	-0.199	
0.525	-0.246	-0.235	
0.530	-0.265	-0.256	
0.535	-0.249	-0.266	
0.540	-0.245	-0.268	
0.545	-0.223	-0.265	
0.550	-0.223	-0.256	
0.555	-0.202	-0.245	
0.560	-0.217	-0.233	
0.565	-0.229	-0.224	
0.570	-0.216	-0.220	
0.575	-0.200	-0.217	
0.580	-0.219	-0.214	
0.585	-0.242	-0.213	
0.590	-0.275	-0.219	
0.595	-0.315	-0.232	
0.600	-0.294	-0.251	
0.605	-0.265	-0.268	
0.610	-0.239	-0.276	
0.615	-0.269	-0.275	
0.620	-0.278	-0.273	
0.625	-0.287	-0.273	
0.630	-0.274	-0.274	
0.635	-0.312	-0.277	
0.640	-0.320	-0.284	
0.645	-0.324	-0.294	
0.650	-0.312	-0.303	
0.655	-0.148	-0.302	
0.660	0.058	-0.272	
0.665	0.117	-0.203	
0.670	-0.034	-0.119	
0.675	-0.245	-0.065	
0.680	-0.358	-0.067	
0.685	-0.355	-0.117	
0.690	-0.318	-0.183	
0.695	-0.286	-0.241	
0.700	-0.272	-0.279	
0.705	-0.226	-0.294	
0.710	-0.205	-0.291	
0.715	-0.207	-0.274	
0.720	-0.222	-0.254	
0.725	-0.182	-0.236	
0.730	-0.122	-0.216	
0.735	-0.064	-0.189	
0.740	-0.052	-0.155	
0.745	-0.031	-0.119	
0.750	-0.019	-0.085	
0.755	0.013	-0.055	
0.760	0.088	-0.026	
0.765	0.124	0.008	
0.770	0.177	0.046	
0.775	0.232	0.090	
0.780	0.215	0.134	
0.785	0.301	0.175	
0.790	0.270	0.213	
0.795	0.308	0.246	
0.800	0.472	0.279	
0.805	0.525	0.326	
0.810	0.542	0.384	
0.815	0.455	0.437	
0.820	0.385	0.467	
0.825	0.281	0.465	
0.830	0.139	0.428	
0.835	-0.008	0.357	
0.840	-0.072	0.258	
0.845	-0.122	0.149	
0.850	-0.155	0.046	
0.855	-0.207	-0.042	
0.860	-0.211	-0.114	
0.865	-0.255	-0.169	
0.870	-0.248	-0.210	
0.875	-0.220	-0.236	
0.880	-0.216	-0.247	
0.885	-0.207	-0.246	
0.890	-0.150	-0.236	
0.895	-0.142	-0.218	
0.900	-0.112	-0.194	
0.905	-0.103	-0.168	
0.910	-0.095	-0.143	
0.915	-0.124	-0.124	
0.920	-0.104	-0.112	
0.925	-0.115	-0.106	
0.930	-0.153	-0.106	
0.935	-0.199	-0.115	
0.940	-0.197	-0.133	
0.945	-0.237	-0.155	
0.950	-0.255	-0.181	
0.955	-0.231	-0.205	
0.960	-0.228	-0.222	
0.965	-0.232	-0.233	
0.970	-0.203	-0.236	
0.975	-0.213	-0.233	
0.980	-0.225	-0.228	
0.985	-0.239	-0.225	
0.990	-0.263	-0.227	
0.995	-0.222	-0.231	
1.000	-0.084	-0.227	
1.005	0.035	-0.200	
1.010	0.070	-0.147	
1.015	-0.119	-0.091	
1.020	-0.203	-0.064	
1.025	-0.226	-0.074	
1.030	-0.214	-0.105	
1.035	-0.145	-0.138	
1.040	-0.069	-0.155	
1.045	-0.014	-0.149	
1.050	0.047	-0.120	
1.055	0.130	-0.075	
1.060	0.117	-0.019	
1.065	0.084	0.033	
1.070	0.183	0.074	
1.075	0.185	0.109	
1.080	0.189	0.141	
1.085	0.293	0.170	
1.090	0.311	0.203	
1.095	0.276	0.237	
1.100	0.266	0.262	
1.105	0.318	0.278	
1.110	0.356	0.292	
1.115	0.285	0.306	
1.120	0.368	0.316	
1.125	0.429	0.330	
1.130	0.435	0.352	
1.135	0.536	0.383	
1.140	0.567	0.423	
1.145	0.527	0.466	
1.150	0.486	0.498	
1.155	0.457	0.512	
1.160	0.400	0.508	
1.165	0.246	0.481	
1.170	0.097	0.425	
1.175	-0.025	0.338	
1.180	-0.101	0.230	
1.185	-0.152	0.118	
1.190	-0.171	0.014	
1.195	-0.226	-0.073	
1.200	-0.245	-0.142	
1.205	-0.223	-0.193	
1.210	-0.213	-0.225	
1.215	-0.208	-0.238	
1.220	-0.184	-0.238	
1.225	-0.156	-0.228	
1.230	-0.152	-0.211	
1.235	-0.116	-0.190	
1.240	-0.083	-0.166	
1.245	-0.115	-0.142	
1.250	-0.103	-0.123	
1.255	-0.095	-0.110	
1.260	-0.080	-0.101	
1.265	-0.090	-0.093	
1.270	-0.081	-0.088	
1.275	-0.097	-0.086	
1.280	-0.112	-0.086	
1.285	-0.121	-0.091	
1.290	-0.156	-0.100	
1.295	-0.141	-0.113	
1.300	-0.112	-0.123	
1.305	-0.092	-0.127	
1.310	-0.068	-0.122	
1.315	-0.060	-0.110	
1.320	-0.049	-0.095	
1.325	-0.040	-0.079	
1.330	-0.110	-0.068	
1.335	-0.086	-0.066	
1.340	0.009	-0.065	
1.345	0.149	-0.049	
1.350	0.259	-0.006	
1.355	0.217	0.057	
1.360	0.021	0.111	
1.365	-0.122	0.123	
1.370	-0.098	0.091	
1.375	-0.019	0.043	
1.380	0.035	0.007	
1.385	0.120	-0.004	
1.390	0.180	0.012	
1.395	0.186	0.049	
1.400	0.240	0.094	
1.405	0.318	0.145	
1.410	0.314	0.197	
1.415	0.304	0.245	
1.420	0.327	0.280	
1.425	0.334	0.306	
1.430	0.269	0.320	
1.435	0.304	0.322	
1.440	0.398	0.323	
1.445	0.362	0.331	
1.450	0.337	0.341	
1.455	0.408	0.350	
1.460	0.446	0.363	
1.465	0.472	0.385	
1.470	0.541	0.413	
1.475	0.631	0.452	
1.480	0.602	0.498	
1.485	0.608	0.542	
1.490	0.614	0.575	
1.495	0.586	0.597	
1.500	0.510	0.604	
1.505	0.450	0.591	
1.510	0.398	0.559	
1.515	0.238	0.508	
1.520	0.177	0.438	
1.525	0.073	0.354	
1.530	-0.046	0.259	
1.535	-0.028	0.163	
1.540	-0.032	0.080	
1.545	-0.045	0.017	
1.550	-0.072	-0.025	
1.555	-0.071	-0.054	
1.560	-0.089	-0.072	
1.565	-0.063	-0.082	
1.570	0.018	-0.080	
1.575	0.003	-0.066	
1.580	-0.042	-0.048	
1.585	-0.054	-0.036	
1.590	-0.013	-0.031	
1.595	-0.022	-0.028	
1.600	-0.016	-0.024	
1.605	-0.031	-0.022	
1.610	-0.011	-0.021	
1.615	-0.048	-0.021	
1.620	-0.072	-0.025	
1.625	-0.060	-0.035	
1.630	-0.161	-0.049	
1.635	-0.164	-0.072	
1.640	-0.113	-0.098	
1.645	-0.064	-0.114	
1.650	-0.095	-0.116	
1.655	-0.129	-0.113	
1.660	-0.142	-0.114	
1.665	-0.164	-0.120	
1.670	-0.135	-0.129	
1.675	-0.145	-0.136	
1.680	-0.133	-0.140	
1.685	-0.100	-0.140	
1.690	-0.002	-0.129	
1.695	0.082	-0.101	
1.700	0.079	-0.058	
1.705	-0.061	-0.017	
1.710	-0.124	-0.002	
1.715	-0.162	-0.016	
1.720	-0.121	-0.046	
1.725	-0.115	-0.076	
1.730	-0.063	-0.096	
1.735	0.021	-0.098	
1.740	0.064	-0.079	
1.745	0.061	-0.046	
1.750	0.030	-0.011	
1.755	0.036	0.016	
1.760	0.032	0.032	
1.765	0.117	0.044	
1.770	0.191	0.063	
1.775	0.172	0.092	
1.780	0.104	0.118	
1.785	0.116	0.132	
1.790	0.171	0.138	
1.795	0.240	0.148	
1.800	0.204	0.165	
1.805	0.276	0.185	
1.810	0.319	0.211	
1.815	0.325	0.242	
1.820	0.389	0.275	
1.825	0.427	0.311	
1.830	0.452	0.350	
1.835	0.470	0.387	
1.840	0.489	0.421	
1.845	0.482	0.449	
1.850	0.437	0.467	
1.855	0.284	0.465	
1.860	0.226	0.436	
1.865	0.113	0.380	
1.870	0.041	0.305	
1.875	-0.026	0.219	
1.880	-0.110	0.131	
1.885	-0.156	0.045	
1.890	-0.138	-0.031	
1.895	-0.109	-0.088	
1.900	-0.110	-0.121	
1.905	-0.092	-0.135	
1.910	-0.095	-0.134	
1.915	-0.106	-0.127	
1.920	-0.086	-0.118	
1.925	-0.025	-0.106	
1.930	-0.037	-0.088	
1.935	-0.009	-0.068	
1.940	-0.016	-0.049	
1.945	-0.014	-0.033	
1.950	-0.045	-0.023	
1.955	-0.060	-0.022	
1.960	-0.104	-0.029	
1.965	-0.100	-0.045	
1.970	-0.078	-0.061	
1.975	-0.106	-0.075	
1.980	-0.121	-0.087	
1.985	-0.122	-0.098	
1.990	-0.133	-0.109	
1.995	-0.165	-0.120	
2.000	-0.170	-0.132	
2.005	-0.162	-0.144	
2.010	-0.173	-0.155	
2.015	-0.190	-0.163	
2.020	-0.173	-0.171	
2.025	-0.193	-0.177	
2.030	-0.184	-0.181	
2.035	-0.072	-0.179	
2.040	0.088	-0.156	
2.045	0.105	-0.106	
2.050	-0.009	-0.049	
2.055	-0.139	-0.014	
2.060	-0.182	-0.016	
2.065	-0.165	-0.045	
2.070	-0.145	-0.081	
2.075	-0.100	-0.110	
2.080	-0.057	-0.122	
2.085	-0.023	-0.116	
2.090	0.050	-0.095	
2.095	0.099	-0.058	
2.100	0.136	-0.012	
2.105	0.133	0.036	
2.110	0.145	0.078	
2.115	0.104	0.109	
2.120	0.134	0.126	
2.125	0.154	0.136	
2.130	0.139	0.142	
2.135	0.186	0.148	
2.140	0.255	0.158	
2.145	0.258	0.178	
2.150	0.215	0.201	
2.155	0.238	0.218	
2.160	0.343	0.233	
2.165	0.386	0.259	
2.170	0.499	0.298	
2.175	0.588	0.353	
2.180	0.577	0.419	
2.185	0.576	0.481	
2.190	0.519	0.527	
2.195	0.469	0.548	
2.200	0.279	0.537	
2.205	0.250	0.492	
2.210	0.189	0.423	
2.215	0.073	0.344	
2.220	0.012	0.258	
2.225	-0.066	0.169	
2.230	-0.115	0.083	
2.235	-0.130	0.006	
2.240	-0.129	-0.056	
2.245	-0.129	-0.100	
2.250	-0.124	-0.127	
2.255	-0.127	-0.140	
2.260	-0.095	-0.142	
2.265	-0.103	-0.137	
2.270	-0.087	-0.126	
2.275	-0.045	-0.113	
2.280	-0.043	-0.096	
2.285	-0.016	-0.076	
2.290	-0.019	-0.057	
2.295	-0.020	-0.040	
2.300	-0.042	-0.029	
2.305	-0.029	-0.025	
2.310	-0.016	-0.023	
2.315	-0.078	-0.024	
2.320	-0.126	-0.034	
2.325	-0.142	-0.055	
2.330	-0.147	-0.080	
2.335	-0.155	-0.105	
2.340	-0.144	-0.126	
2.345	-0.122	-0.139	
2.350	-0.133	-0.144	
2.355	-0.132	-0.144	
2.360	-0.121	-0.141	
2.365	-0.145	-0.138	
2.370	-0.168	-0.137	
2.375	-0.168	-0.142	
2.380	-0.132	-0.147	
2.385	-0.003	-0.143	
2.390	0.220	-0.111	
2.395	0.267	-0.042	
2.400	0.094	0.039	
2.405	-0.048	0.090	
2.410	-0.097	0.094	
2.415	-0.095	0.063	
2.420	-0.057	0.021	
2.425	0.027	-0.012	
2.430	0.088	-0.023	
2.435	0.145	-0.007	
2.440	0.197	0.028	
2.445	0.177	0.073	
2.450	0.165	0.115	
2.455	0.183	0.146	
2.460	0.215	0.169	
2.465	0.252	0.189	
2.470	0.328	0.212	
2.475	0.322	0.241	
2.480	0.302	0.270	
2.485	0.308	0.291	
2.490	0.377	0.308	
2.495	0.423	0.327	
2.500	0.431	0.353	
2.505	0.444	0.380	
2.510	0.539	0.409	
2.515	0.585	0.445	
2.520	0.638	0.489	
2.525	0.701	0.538	
2.530	0.675	0.589	
2.535	0.643	0.629	
2.540	0.643	0.653	
2.545	0.596	0.661	
2.550	0.580	0.654	
2.555	0.501	0.634	
2.560	0.434	0.600	
2.565	0.328	0.551	
2.570	0.232	0.486	
2.575	0.096	0.406	
2.580	0.073	0.314	
2.585	0.224	0.233	
2.590	0.365	0.190	
2.595	0.450	0.199	
2.600	0.458	0.247	
2.605	0.476	0.309	
2.610	0.455	0.369	
2.615	0.374	0.412	
2.620	0.415	0.431	
2.625	0.453	0.438	
2.630	0.365	0.438	
2.635	0.258	0.424	
2.640	0.249	0.391	
2.645	0.218	0.347	
2.650	0.208	0.303	
2.655	0.197	0.264	
2.660	0.177	0.231	
2.665	0.108	0.203	
2.670	0.105	0.175	
2.675	0.108	0.148	
2.680	0.076	0.126	
2.685	0.007	0.104	
2.690	0.000	0.079	
2.695	0.000	0.052	
2.700	-0.028	0.028	
2.705	-0.038	0.006	
2.710	-0.040	-0.012	
2.715	-0.086	-0.028	
2.720	-0.118	-0.046	
2.725	-0.089	-0.065	
2.730	0.023	-0.075	
2.735	0.220	-0.058	
2.740	0.241	-0.007	
2.745	0.151	0.059	
2.750	-0.093	0.102	
2.755	-0.199	0.093	
2.760	-0.239	0.038	
2.765	-0.251	-0.039	
2.770	-0.208	-0.113	
2.775	-0.190	-0.169	
2.780	-0.185	-0.200	
2.785	-0.153	-0.212	
2.790	-0.135	-0.207	
2.795	-0.165	-0.194	
2.800	-0.142	-0.180	
2.805	-0.092	-0.164	
2.810	-0.077	-0.145	
2.815	-0.078	-0.124	
2.820	-0.075	-0.105	
2.825	-0.057	-0.089	
2.830	-0.068	-0.077	
2.835	-0.069	-0.069	
2.840	-0.087	-0.066	
2.845	-0.048	-0.065	
2.850	-0.011	-0.062	
2.855	0.067	-0.049	
2.860	0.131	-0.022	
2.865	0.175	0.019	
2.870	0.240	0.069	
2.875	0.296	0.124	
2.880	0.252	0.179	
2.885	0.195	0.218	
2.890	0.183	0.236	
2.895	0.142	0.233	
2.900	0.052	0.213	
2.905	-0.019	0.174	
2.910	-0.075	0.120	
2.915	-0.158	0.056	
2.920	-0.234	-0.014	
2.925	-0.248	-0.087	
2.930	-0.277	-0.153	
2.935	-0.275	-0.207	
2.940	-0.300	-0.247	
2.945	-0.310	-0.276	
2.950	-0.295	-0.295	
2.955	-0.315	-0.306	
2.960	-0.287	-0.311	
2.965	-0.263	-0.309	
2.970	-0.251	-0.301	
2.975	-0.210	-0.286	
2.980	-0.213	-0.266	
2.985	-0.199	-0.246	
2.990	-0.176	-0.227	
2.995	-0.147	-0.208	
3.000	-0.145	-0.189	
3.005	-0.144	-0.171	
3.010	-0.148	-0.158	
3.015	-0.188	-0.151	
3.020	-0.188	-0.153	
3.025	-0.182	-0.160	
3.030	-0.222	-0.170	
3.035	-0.232	-0.183	
3.040	-0.223	-0.197	
3.045	-0.203	-0.209	
3.050	-0.213	-0.215	
3.055	-0.193	-0.216	
3.060	-0.210	-0.214	
3.065	-0.251	-0.213	
3.070	-0.237	-0.217	
3.075	-0.202	-0.222	
3.080	-0.043	-0.215	
3.085	0.253	-0.173	
3.090	0.412	-0.080	
3.095	0.258	0.042	
3.100	-0.115	0.132	
3.105	-0.237	0.142	
3.110	-0.255	0.082	
3.115	-0.246	-0.009	
3.120	-0.196	-0.095	
3.125	-0.112	-0.155	
3.130	-0.063	-0.178	
3.135	-0.077	-0.171	
3.140	-0.042	-0.148	
3.145	-0.014	-0.117	
3.150	-0.023	-0.085	
3.155	-0.020	-0.057	
3.160	-0.014	-0.036	
3.165	0.036	-0.020	
3.170	0.073	-0.002	
3.175	0.042	0.017	
3.180	0.059	0.034	
3.185	0.110	0.048	
3.190	0.204	0.069	
3.195	0.276	0.103	
3.200	0.342	0.151	
3.205	0.372	0.209	
3.210	0.457	0.270	
3.215	0.476	0.331	
3.220	0.525	0.389	
3.225	0.594	0.444	
3.230	0.585	0.495	
3.235	0.608	0.538	
3.240	0.522	0.567	
3.245	0.457	0.574	
3.250	0.295	0.551	
3.255	0.137	0.493	
3.260	0.113	0.405	
3.265	-0.013	0.303	
3.270	-0.090	0.197	
3.275	-0.139	0.093	
3.280	-0.158	0.000	
3.285	-0.210	-0.076	
3.290	-0.226	-0.136	
3.295	-0.236	-0.182	
3.300	-0.248	-0.215	
3.305	-0.236	-0.236	
3.310	-0.199	-0.245	
3.315	-0.177	-0.242	
3.320	-0.171	-0.229	
3.325	-0.185	-0.213	
3.330	-0.202	-0.200	
3.335	-0.187	-0.193	
3.340	-0.197	-0.189	
3.345	-0.217	-0.189	
3.350	-0.254	-0.195	
3.355	-0.260	-0.208	
3.360	-0.294	-0.225	
3.365	-0.330	-0.246	
3.370	-0.332	-0.270	
3.375	-0.365	-0.295	
3.380	-0.411	-0.321	
3.385	-0.439	-0.349	
3.390	-0.486	-0.381	
3.395	-0.492	-0.414	
3.400	-0.538	-0.446	
3.405	-0.584	-0.479	
3.410	-0.625	-0.515	
3.415	-0.662	-0.552	
3.420	-0.702	-0.591	
3.425	-0.685	-0.628	
3.430	-0.608	-0.654	
3.435	-0.491	-0.656	
3.440	-0.430	-0.629	
3.445	-0.506	-0.586	
3.450	-0.643	-0.552	
3.455	-0.676	-0.548	
3.460	-0.613	-0.565	
3.465	-0.564	-0.583	
3.470	-0.478	-0.586	
3.475	-0.408	-0.569	
3.480	-0.342	-0.531	
3.485	-0.286	-0.478	
3.490	-0.219	-0.416	
3.495	-0.165	-0.350	
3.500	-0.155	-0.285	
3.505	-0.087	-0.227	
3.510	0.017	-0.170	
3.515	-0.014	-0.115	
3.520	0.023	-0.065	
3.525	0.070	-0.024	
3.530	0.191	0.016	
3.535	0.201	0.064	
3.540	0.259	0.114	
3.545	0.351	0.168	
3.550	0.432	0.227	
3.555	0.545	0.296	
3.560	0.637	0.375	
3.565	0.647	0.458	
3.570	0.701	0.536	
3.575	0.764	0.605	
3.580	0.770	0.666	
3.585	0.777	0.715	
3.590	0.728	0.748	
3.595	0.676	0.760	
3.600	0.560	0.748	
3.605	0.409	0.706	
3.610	0.328	0.634	
3.615	0.233	0.541	
3.620	0.185	0.441	
3.625	0.068	0.341	
3.630	-0.031	0.243	
3.635	0.015	0.150	
3.640	0.018	0.078	
3.645	-0.045	0.028	
3.650	-0.014	-0.005	
3.655	0.033	-0.023	
3.660	0.039	-0.023	
3.665	0.020	-0.013	
3.670	0.154	0.006	
3.675	0.120	0.034	
3.680	0.122	0.066	
3.685	0.136	0.092	
3.690	0.053	0.109	
3.695	0.068	0.111	
3.700	0.027	0.102	
3.705	0.006	0.084	
3.710	0.030	0.063	
3.715	-0.032	0.043	
3.720	0.000	0.023	
3.725	0.004	0.008	
3.730	-0.061	-0.003	
3.735	-0.100	-0.018	
3.740	-0.049	-0.037	
3.745	-0.032	-0.050	
3.750	-0.037	-0.054	
3.755	-0.020	-0.052	
3.760	-0.046	-0.047	
3.765	-0.092	-0.045	
3.770	-0.090	-0.051	
3.775	-0.064	-0.060	
3.780	-0.016	-0.064	
3.785	0.201	-0.049	
3.790	0.322	-0.000	
3.795	0.191	0.072	
3.800	-0.040	0.124	
3.805	-0.121	0.127	
3.810	-0.142	0.085	
3.815	-0.109	0.025	
3.820	-0.028	-0.027	
3.825	0.049	-0.053	
3.830	0.036	-0.051	
3.835	0.068	-0.032	
3.840	0.145	-0.002	
3.845	0.203	0.039	
3.850	0.188	0.086	
3.855	0.209	0.130	
3.860	0.264	0.167	
3.865	0.278	0.202	
3.870	0.279	0.232	
3.875	0.288	0.256	
3.880	0.287	0.273	
3.885	0.293	0.285	
3.890	0.295	0.292	
3.895	0.273	0.295	
3.900	0.282	0.293	
3.905	0.331	0.293	
3.910	0.398	0.300	
3.915	0.371	0.318	
3.920	0.409	0.339	
3.925	0.495	0.365	
3.930	0.443	0.395	
3.935	0.429	0.420	
3.940	0.458	0.437	
3.945	0.405	0.445	
3.950	0.331	0.440	
3.955	0.263	0.418	
3.960	0.156	0.377	
3.965	0.041	0.315	
3.970	0.009	0.238	
3.975	-0.028	0.158	
3.980	-0.086	0.083	
3.985	-0.136	0.015	
3.990	-0.124	-0.043	
3.995	-0.129	-0.087	
4.000	-0.158	-0.118	
4.005	-0.138	-0.138	
4.010	-0.121	-0.148	
4.015	-0.135	-0.149	
4.020	-0.138	-0.147	
4.025	-0.129	-0.143	
4.030	-0.176	-0.142	
4.035	-0.181	-0.145	
4.040	-0.214	-0.155	
4.045	-0.236	-0.170	
4.050	-0.248	-0.189	
4.055	-0.199	-0.206	
4.060	-0.181	-0.215	
4.065	-0.193	-0.214	
4.070	-0.214	-0.210	
4.075	-0.210	-0.208	
4.080	-0.236	-0.208	
4.085	-0.202	-0.211	
4.090	-0.211	-0.213	
4.095	-0.199	-0.212	
4.100	-0.185	-0.209	
4.105	-0.152	-0.203	
4.110	-0.139	-0.191	
4.115	-0.162	-0.177	
4.120	-0.113	-0.164	
4.125	-0.058	-0.148	
4.130	-0.083	-0.128	
4.135	0.026	-0.103	
4.140	0.215	-0.063	
4.145	0.227	-0.001	
4.150	0.097	0.066	
4.155	-0.055	0.103	
4.160	-0.098	0.097	
4.165	-0.129	0.059	
4.170	-0.058	0.010	
4.175	-0.011	-0.027	
4.180	0.000	-0.045	
4.185	0.076	-0.042	
4.190	0.154	-0.019	
4.195	0.172	0.022	
4.200	0.189	0.069	
4.205	0.230	0.116	
4.210	0.201	0.157	
4.215	0.236	0.188	
4.220	0.316	0.214	
4.225	0.336	0.243	
4.230	0.296	0.272	
4.235	0.318	0.293	
4.240	0.330	0.308	
4.245	0.281	0.316	
4.250	0.324	0.318	
4.255	0.421	0.322	
4.260	0.542	0.344	
4.265	0.550	0.386	
4.270	0.666	0.442	
4.275	0.793	0.511	
4.280	0.825	0.593	
4.285	0.893	0.677	
4.290	0.936	0.758	
4.295	0.842	0.824	
4.300	0.713	0.858	
4.305	0.647	0.851	
4.310	0.539	0.808	
4.315	0.398	0.736	
4.320	0.290	0.639	
4.325	0.204	0.529	
4.330	0.111	0.414	
4.335	0.059	0.304	
4.340	0.050	0.206	
4.345	-0.016	0.127	
4.350	-0.043	0.063	
4.355	0.013	0.016	
4.360	0.018	-0.010	
4.365	-0.061	-0.021	
4.370	-0.002	-0.028	
4.375	0.023	-0.028	
4.380	0.021	-0.020	
4.385	0.070	-0.006	
4.390	0.085	0.013	
4.395	0.075	0.035	
4.400	0.067	0.053	
4.405	0.068	0.065	
4.410	0.041	0.070	
4.415	-0.002	0.067	
4.420	-0.034	0.053	
4.425	-0.054	0.030	
4.430	-0.090	0.003	
4.435	-0.118	-0.027	
4.440	-0.119	-0.057	
4.445	-0.138	-0.085	
4.450	-0.130	-0.107	
4.455	-0.098	-0.121	
4.460	-0.061	-0.123	
4.465	-0.121	-0.117	
4.470	-0.145	-0.114	
4.475	-0.152	-0.117	
4.480	-0.187	-0.126	
4.485	-0.176	-0.140	
4.490	-0.068	-0.149	
4.495	0.033	-0.138	
4.500	0.059	-0.105	
4.505	-0.055	-0.065	
4.510	-0.150	-0.042	
4.515	-0.188	-0.049	
4.520	-0.133	-0.073	
4.525	-0.104	-0.097	
4.530	-0.087	-0.111	
4.535	-0.068	-0.113	
4.540	-0.013	-0.104	
4.545	-0.022	-0.086	
4.550	-0.005	-0.064	
4.555	0.052	-0.040	
4.560	0.082	-0.013	
4.565	0.094	0.017	
4.570	0.162	0.049	
4.575	0.183	0.083	
4.580	0.194	0.118	
4.585	0.258	0.151	
4.590	0.276	0.186	
4.595	0.276	0.218	
4.600	0.314	0.247	
4.605	0.400	0.275	
4.610	0.487	0.313	
4.615	0.541	0.362	
4.620	0.592	0.419	
4.625	0.660	0.479	
4.630	0.702	0.541	
4.635	0.695	0.599	
4.640	0.718	0.647	
4.645	0.672	0.680	
4.650	0.580	0.693	
4.655	0.531	0.680	
4.660	0.435	0.644	
4.665	0.302	0.587	
4.670	0.243	0.509	
4.675	0.130	0.419	
4.680	0.015	0.322	
4.685	-0.043	0.220	
4.690	-0.077	0.122	
4.695	-0.113	0.037	
4.700	-0.124	-0.031	
4.705	-0.106	-0.080	
4.710	-0.075	-0.109	
4.715	-0.066	-0.118	
4.720	-0.064	-0.113	
4.725	-0.072	-0.102	
4.730	-0.069	-0.090	
4.735	-0.051	-0.080	
4.740	-0.045	-0.070	
4.745	-0.028	-0.060	
4.750	-0.063	-0.052	
4.755	-0.052	-0.047	
4.760	-0.031	-0.046	
4.765	-0.048	-0.044	
4.770	-0.078	-0.044	
4.775	-0.100	-0.050	
4.780	-0.098	-0.061	
4.785	-0.095	-0.073	
4.790	-0.095	-0.084	
4.795	-0.119	-0.092	
4.800	-0.135	-0.100	
4.805	-0.112	-0.109	
4.810	-0.119	-0.116	
4.815	-0.155	-0.121	
4.820	-0.150	-0.127	
4.825	-0.142	-0.135	
4.830	-0.200	-0.143	
4.835	-0.210	-0.155	
4.840	-0.107	-0.166	
4.845	0.072	-0.157	
4.850	0.156	-0.115	
4.855	0.166	-0.048	
4.860	-0.023	0.016	
4.865	-0.136	0.043	
4.870	-0.162	0.028	
4.875	-0.119	-0.012	
4.880	-0.112	-0.053	
4.885	-0.078	-0.083	
4.890	-0.083	-0.098	
4.895	0.001	-0.099	
4.900	0.024	-0.084	
4.905	-0.002	-0.058	
4.910	0.001	-0.034	
4.915	-0.023	-0.017	
4.920	0.030	-0.006	
4.925	0.023	0.003	
4.930	-0.008	0.010	
4.935	0.056	0.015	
4.940	0.131	0.025	
4.945	0.148	0.047	
4.950	0.099	0.073	
4.955	0.156	0.096	
4.960	0.278	0.121	
4.965	0.304	0.158	
4.970	0.409	0.207	
4.975	0.565	0.270	
4.980	0.709	0.355	
4.985	0.753	0.458	
4.990	0.809	0.563	
4.995	0.794	0.657	
5.000	0.716	0.726	
5.005	0.699	0.761	
5.010	0.596	0.762	
5.015	0.444	0.730	
5.020	0.293	0.662	
5.025	0.130	0.559	
5.030	-0.003	0.431	
5.035	-0.069	0.291	
5.040	-0.112	0.157	
5.045	-0.130	0.042	
5.050	-0.165	-0.047	
5.055	-0.133	-0.109	
5.060	-0.103	-0.144	
5.065	-0.101	-0.155	
5.070	-0.087	-0.150	
5.075	-0.013	-0.133	
5.080	-0.014	-0.106	
5.085	-0.006	-0.075	
5.090	0.010	-0.047	
5.095	0.006	-0.024	
5.100	-0.057	-0.009	
5.105	-0.064	-0.008	
5.110	-0.037	-0.017	
5.115	-0.084	-0.028	
5.120	-0.113	-0.043	
5.125	-0.132	-0.063	
5.130	-0.156	-0.086	
5.135	-0.188	-0.110	
5.140	-0.226	-0.137	
5.145	-0.219	-0.164	
5.150	-0.252	-0.190	
5.155	-0.232	-0.212	
5.160	-0.217	-0.226	
5.165	-0.237	-0.233	
5.170	-0.243	-0.237	
5.175	-0.236	-0.239	
5.180	-0.272	-0.242	
5.185	-0.303	-0.248	
5.190	-0.324	-0.261	
5.195	-0.214	-0.273	
5.200	-0.077	-0.267	
5.205	0.082	-0.228	
5.210	0.108	-0.157	
5.215	-0.127	-0.086	
5.220	-0.242	-0.053	
5.225	-0.234	-0.066	
5.230	-0.205	-0.102	
5.235	-0.210	-0.141	
5.240	-0.165	-0.170	
5.245	-0.142	-0.185	
5.250	-0.106	-0.183	
5.255	-0.092	-0.169	
5.260	-0.019	-0.146	
5.265	-0.026	-0.114	
5.270	-0.043	-0.083	
5.275	-0.014	-0.058	
5.280	0.007	-0.038	
5.285	0.003	-0.021	
5.290	0.078	-0.005	
5.295	0.171	0.019	
5.300	0.211	0.057	
5.305	0.209	0.102	
5.310	0.241	0.145	
5.315	0.318	0.186	
5.320	0.415	0.232	
5.325	0.470	0.286	
5.330	0.527	0.347	
5.335	0.518	0.407	
5.340	0.596	0.461	
5.345	0.686	0.513	
5.350	0.612	0.563	
5.355	0.563	0.598	
5.360	0.576	0.611	
5.365	0.429	0.604	
5.370	0.241	0.566	
5.375	0.156	0.492	
5.380	0.041	0.393	
5.385	-0.089	0.278	
5.390	-0.138	0.158	
5.395	-0.174	0.044	
5.400	-0.223	-0.052	
5.405	-0.249	-0.130	
5.410	-0.245	-0.189	
5.415	-0.274	-0.230	
5.420	-0.294	-0.258	
5.425	-0.258	-0.275	
5.430	-0.246	-0.282	
5.435	-0.251	-0.279	
5.440	-0.217	-0.271	
5.445	-0.159	-0.256	
5.450	-0.211	-0.236	
5.455	-0.211	-0.219	
5.460	-0.190	-0.208	
5.465	-0.205	-0.201	
5.470	-0.211	-0.198	
5.475	-0.185	-0.197	
5.480	-0.207	-0.197	
5.485	-0.252	-0.200	
5.490	-0.257	-0.209	
5.495	-0.237	-0.221	
5.500	-0.280	-0.233	
5.505	-0.287	-0.246	
5.510	-0.269	-0.259	
5.515	-0.281	-0.268	
5.520	-0.297	-0.276	
5.525	-0.249	-0.280	
5.530	-0.245	-0.279	
5.535	-0.335	-0.276	
5.540	-0.324	-0.281	
5.545	-0.207	-0.286	
5.550	-0.042	-0.272	
5.555	0.236	-0.217	
5.560	0.397	-0.112	
5.565	0.174	0.016	
5.570	-0.136	0.104	
5.575	-0.263	0.111	
5.580	-0.260	0.052	
5.585	-0.217	-0.033	
5.590	-0.164	-0.108	
5.595	-0.109	-0.155	
5.600	-0.113	-0.173	
5.605	-0.107	-0.170	
5.610	-0.084	-0.156	
5.615	-0.034	-0.135	
5.620	-0.003	-0.107	
5.625	0.007	-0.075	
5.630	0.030	-0.043	
5.635	0.013	-0.016	
5.640	0.024	0.004	
5.645	0.094	0.020	
5.650	0.072	0.038	
5.655	0.116	0.056	
5.660	0.188	0.077	
5.665	0.142	0.102	
5.670	0.206	0.127	
5.675	0.334	0.157	
5.680	0.435	0.203	
5.685	0.438	0.264	
5.690	0.545	0.331	
5.695	0.649	0.403	
5.700	0.563	0.475	
5.705	0.533	0.530	
5.710	0.469	0.555	
5.715	0.398	0.552	
5.720	0.270	0.519	
5.725	0.120	0.456	
5.730	0.000	0.364	
5.735	-0.097	0.253	
5.740	-0.173	0.135	
5.745	-0.193	0.023	
5.750	-0.225	-0.073	
5.755	-0.234	-0.147	
5.760	-0.245	-0.200	
5.765	-0.294	-0.235	
5.770	-0.300	-0.262	
5.775	-0.277	-0.280	
5.780	-0.243	-0.288	
5.785	-0.263	-0.287	
5.790	-0.280	-0.281	
5.795	-0.219	-0.275	
5.800	-0.225	-0.264	
5.805	-0.239	-0.252	
5.810	-0.217	-0.242	
5.815	-0.197	-0.233	
5.820	-0.190	-0.222	
5.825	-0.226	-0.213	
5.830	-0.246	-0.210	
5.835	-0.277	-0.216	
5.840	-0.274	-0.228	
5.845	-0.278	-0.243	
5.850	-0.320	-0.259	
5.855	-0.336	-0.276	
5.860	-0.346	-0.296	
5.865	-0.359	-0.315	
5.870	-0.368	-0.332	
5.875	-0.379	-0.347	
5.880	-0.361	-0.359	
5.885	-0.338	-0.365	
5.890	-0.338	-0.364	
5.895	-0.326	-0.358	
5.900	-0.281	-0.348	
5.905	-0.148	-0.326	
5.910	-0.042	-0.284	
5.915	-0.002	-0.222	
5.920	-0.112	-0.157	
5.925	-0.237	-0.118	
5.930	-0.323	-0.119	
5.935	-0.320	-0.153	
5.940	-0.272	-0.198	
5.945	-0.229	-0.234	
5.950	-0.216	-0.253	
5.955	-0.176	-0.254	
5.960	-0.167	-0.241	
5.965	-0.179	-0.222	
5.970	-0.127	-0.202	
5.975	-0.118	-0.180	
5.980	-0.104	-0.158	
5.985	-0.097	-0.137	
5.990	-0.089	-0.119	
5.995	-0.081	-0.105	
6.000	-0.071	-0.094	
6.005	-0.057	-0.083	
6.010	-0.046	-0.074	
6.015	-0.022	-0.063	
6.020	0.061	-0.048	
6.025	0.078	-0.023	
6.030	0.125	0.009	
6.035	0.156	0.045	
6.040	0.211	0.085	
6.045	0.307	0.129	
6.050	0.290	0.179	
6.055	0.307	0.225	
6.060	0.244	0.259	
6.065	0.160	0.272	
6.070	0.137	0.261	
6.075	0.001	0.227	
6.080	-0.057	0.173	
6.085	-0.141	0.102	
6.090	-0.207	0.024	
6.095	-0.242	-0.056	
6.100	-0.277	-0.130	
6.105	-0.294	-0.192	
6.110	-0.297	-0.241	
6.115	-0.336	-0.277	
6.120	-0.353	-0.304	
6.125	-0.346	-0.326	
6.130	-0.317	-0.339	
6.135	-0.298	-0.342	
6.140	-0.300	-0.336	
6.145	-0.289	-0.326	
6.150	-0.272	-0.314	
6.155	-0.277	-0.301	
6.160	-0.249	-0.289	
6.165	-0.265	-0.278	
6.170	-0.217	-0.267	
6.175	-0.200	-0.254	
6.180	-0.202	-0.238	
6.185	-0.164	-0.222	
6.190	-0.194	-0.207	
6.195	-0.193	-0.195	
6.200	-0.207	-0.190	
6.205	-0.184	-0.189	
6.210	-0.194	-0.189	
6.215	-0.232	-0.191	
6.220	-0.200	-0.197	
6.225	-0.168	-0.200	
6.230	-0.150	-0.196	
6.235	-0.156	-0.187	
6.240	-0.122	-0.175	
6.245	-0.124	-0.161	
6.250	-0.130	-0.148	
6.255	-0.051	-0.134	
6.260	0.099	-0.108	
6.265	0.175	-0.061	
6.270	0.240	0.005	
6.275	0.168	0.075	
6.280	-0.026	0.121	
6.285	-0.089	0.122	
6.290	-0.077	0.087	
6.295	0.006	0.043	
6.300	0.096	0.015	
6.305	0.218	0.017	
6.310	0.328	0.055	
6.315	0.314	0.118	
6.320	0.351	0.188	
6.325	0.360	0.251	
6.330	0.435	0.305	
6.335	0.493	0.355	
6.340	0.507	0.403	
6.345	0.472	0.444	
6.350	0.397	0.467	
6.355	0.453	0.471	
6.360	0.510	0.470	
6.365	0.530	0.476	
6.370	0.545	0.488	
6.375	0.539	0.503	
6.380	0.570	0.519	
6.385	0.606	0.537	
6.390	0.634	0.558	
6.395	0.712	0.584	
6.400	0.790	0.621	
6.405	0.799	0.667	
6.410	0.773	0.712	
6.415	0.724	0.745	
6.420	0.725	0.759	
6.425	0.637	0.756	
6.430	0.525	0.731	
6.435	0.458	0.683	
6.440	0.310	0.614	
6.445	0.243	0.528	
6.450	0.110	0.430	
6.455	0.061	0.326	
6.460	0.053	0.228	
6.465	-0.011	0.145	
6.470	-0.002	0.079	
6.475	-0.008	0.031	
6.480	-0.025	-0.001	
6.485	0.026	-0.017	
6.490	0.018	-0.020	
6.495	0.038	-0.013	
6.500	0.050	-0.001	
6.505	0.101	0.016	
6.510	0.125	0.039	
6.515	0.116	0.065	
6.520	0.130	0.088	
6.525	0.087	0.104	
6.530	0.082	0.111	
6.535	0.087	0.109	
6.540	0.124	0.106	
6.545	0.065	0.103	
6.550	0.015	0.095	
6.555	0.026	0.079	
6.560	-0.008	0.059	
6.565	-0.032	0.038	
6.570	-0.077	0.013	
6.575	-0.054	-0.012	
6.580	-0.055	-0.034	
6.585	-0.008	-0.046	
6.590	0.023	-0.046	
6.595	0.010	-0.035	
6.600	-0.029	-0.023	
6.605	-0.042	-0.016	
6.610	-0.075	-0.019	
6.615	-0.008	-0.026	
6.620	0.188	-0.020	
6.625	0.240	0.014	
6.630	0.151	0.066	
6.635	-0.003	0.105	
6.640	-0.075	0.107	
6.645	-0.103	0.077	
6.650	-0.068	0.032	
6.655	0.021	-0.006	
6.660	0.041	-0.023	
6.665	0.104	-0.018	
6.670	0.172	0.008	
6.675	0.128	0.045	
6.680	0.127	0.081	
6.685	0.172	0.109	
6.690	0.154	0.132	
6.695	0.200	0.150	
6.700	0.200	0.166	
6.705	0.250	0.182	
6.710	0.266	0.201	
6.715	0.279	0.223	
6.720	0.385	0.248	
6.725	0.380	0.280	
6.730	0.402	0.316	
6.735	0.464	0.351	
6.740	0.427	0.385	
6.745	0.446	0.412	
6.750	0.452	0.431	
6.755	0.515	0.447	
6.760	0.631	0.469	
6.765	0.620	0.505	
6.770	0.620	0.544	
6.775	0.605	0.576	
6.780	0.536	0.595	
6.785	0.487	0.594	
6.790	0.368	0.571	
6.795	0.236	0.521	
6.800	0.099	0.444	
6.805	0.039	0.346	
6.810	-0.025	0.241	
6.815	-0.095	0.140	
6.820	-0.103	0.050	
6.825	-0.113	-0.023	
6.830	-0.130	-0.075	
6.835	-0.113	-0.110	
6.840	-0.087	-0.127	
6.845	-0.071	-0.129	
6.850	-0.035	-0.118	
6.855	0.003	-0.097	
6.860	0.024	-0.069	
6.865	-0.014	-0.041	
6.870	0.032	-0.018	
6.875	0.024	-0.000	
6.880	0.009	0.013	
6.885	-0.005	0.018	
6.890	-0.009	0.017	
6.895	-0.011	0.012	
6.900	-0.038	0.004	
6.905	-0.042	-0.007	
6.910	-0.028	-0.018	
6.915	-0.057	-0.027	
6.920	-0.064	-0.036	
6.925	-0.080	-0.046	
6.930	-0.090	-0.057	
6.935	-0.103	-0.069	
6.940	-0.110	-0.080	
6.945	-0.089	-0.090	
6.950	-0.089	-0.096	
6.955	-0.086	-0.097	
6.960	-0.090	-0.096	
6.965	-0.090	-0.094	
6.970	-0.009	-0.089	
6.975	0.070	-0.072	
6.980	0.198	-0.035	
6.985	0.301	0.025	
6.990	0.275	0.100	
6.995	0.056	0.160	
7.000	-0.057	0.175	
7.005	-0.057	0.145	
7.010	-0.011	0.095	
7.015	0.023	0.050	
7.020	0.134	0.027	
7.025	0.169	0.032	
7.030	0.175	0.058	
7.035	0.174	0.092	
7.040	0.157	0.124	
7.045	0.226	0.149	
7.050	0.238	0.173	
7.055	0.235	0.196	
7.060	0.285	0.217	
7.065	0.275	0.237	
7.070	0.295	0.255	
7.075	0.278	0.270	
7.080	0.250	0.278	
7.085	0.269	0.279	
7.090	0.295	0.278	
7.095	0.383	0.283	
7.100	0.447	0.303	
7.105	0.461	0.337	
7.110	0.551	0.380	
7.115	0.579	0.430	
7.120	0.580	0.481	
7.125	0.586	0.524	
7.130	0.597	0.557	
7.135	0.577	0.580	
7.140	0.467	0.586	
7.145	0.368	0.568	
7.150	0.229	0.520	
7.155	0.104	0.443	
7.160	0.021	0.345	
7.165	-0.043	0.238	
7.170	-0.086	0.134	
7.175	-0.132	0.042	
7.180	-0.147	-0.033	
7.185	-0.156	-0.091	
7.190	-0.182	-0.133	
7.195	-0.142	-0.159	
7.200	-0.144	-0.171	
7.205	-0.113	-0.170	
7.210	-0.116	-0.161	
7.215	-0.109	-0.148	
7.220	-0.072	-0.133	
7.225	-0.049	-0.115	
7.230	-0.020	-0.093	
7.235	0.001	-0.070	
7.240	-0.003	-0.046	
7.245	-0.002	-0.027	
7.250	0.001	-0.012	
7.255	0.017	-0.002	
7.260	0.024	0.006	
7.265	-0.040	0.010	
7.270	-0.061	0.005	
7.275	-0.089	-0.010	
7.280	-0.040	-0.029	
7.285	-0.023	-0.041	
7.290	-0.031	-0.045	
7.295	0.001	-0.043	
7.300	-0.028	-0.036	
7.305	0.010	-0.028	
7.310	-0.002	-0.020	
7.315	-0.049	-0.014	
7.320	-0.063	-0.016	
7.325	-0.043	-0.024	
7.330	0.076	-0.027	
7.335	0.333	-0.003	
7.340	0.449	0.064	
7.345	0.466	0.164	
7.350	0.209	0.256	
7.355	-0.008	0.294	
7.360	-0.038	0.266	
7.365	0.041	0.201	
7.370	0.160	0.141	
7.375	0.310	0.117	
7.380	0.360	0.136	
7.385	0.443	0.188	
7.390	0.397	0.255	
7.395	0.383	0.315	
7.400	0.376	0.358	
7.405	0.421	0.385	
7.410	0.438	0.403	
7.415	0.386	0.416	
7.420	0.383	0.419	
7.425	0.426	0.416	
7.430	0.440	0.415	
7.435	0.347	0.414	
7.440	0.360	0.406	
7.445	0.369	0.394	
7.450	0.385	0.383	
7.455	0.432	0.380	
7.460	0.537	0.391	
7.465	0.580	0.420	
7.470	0.599	0.463	
7.475	0.602	0.508	
7.480	0.629	0.549	
7.485	0.611	0.582	
7.490	0.518	0.600	
7.495	0.455	0.595	
7.500	0.398	0.567	
7.505	0.281	0.519	
7.510	0.166	0.452	
7.515	0.039	0.366	
7.520	-0.035	0.265	
7.525	-0.118	0.160	
7.530	-0.158	0.059	
7.535	-0.165	-0.029	
7.540	-0.190	-0.098	
7.545	-0.231	-0.150	
7.550	-0.225	-0.188	
7.555	-0.213	-0.213	
7.560	-0.164	-0.224	
7.565	-0.202	-0.222	
7.570	-0.190	-0.215	
7.575	-0.165	-0.206	
7.580	-0.156	-0.195	
7.585	-0.188	-0.184	
7.590	-0.185	-0.178	
7.595	-0.190	-0.177	
7.600	-0.203	-0.179	
7.605	-0.187	-0.183	
7.610	-0.179	-0.186	
7.615	-0.205	-0.188	
7.620	-0.240	-0.192	
7.625	-0.225	-0.201	
7.630	-0.243	-0.211	
7.635	-0.274	-0.223	
7.640	-0.297	-0.237	
7.645	-0.327	-0.256	
7.650	-0.338	-0.277	
7.655	-0.298	-0.297	
7.660	-0.275	-0.307	
7.665	-0.286	-0.308	
7.670	-0.280	-0.304	
7.675	-0.313	-0.299	
7.680	-0.359	-0.300	
7.685	-0.313	-0.307	
7.690	-0.148	-0.306	
7.695	0.061	-0.275	
7.700	0.162	-0.202	
7.705	0.023	-0.111	
7.710	-0.173	-0.043	
7.715	-0.287	-0.031	
7.720	-0.352	-0.069	
7.725	-0.269	-0.134	
7.730	-0.208	-0.191	
7.735	-0.167	-0.224	
7.740	-0.141	-0.230	
7.745	-0.098	-0.216	
7.750	-0.103	-0.189	
7.755	-0.092	-0.159	
7.760	-0.034	-0.130	
7.765	-0.028	-0.100	
7.770	-0.029	-0.073	
7.775	-0.037	-0.051	
7.780	-0.006	-0.036	
7.785	0.024	-0.024	
7.790	0.072	-0.008	
7.795	0.146	0.016	
7.800	0.169	0.049	
7.805	0.264	0.091	
7.810	0.368	0.144	
7.815	0.461	0.211	
7.820	0.527	0.289	
7.825	0.553	0.369	
7.830	0.605	0.444	
7.835	0.628	0.509	
7.840	0.644	0.562	
7.845	0.632	0.603	
7.850	0.533	0.624	
7.855	0.432	0.617	
7.860	0.420	0.584	
7.865	0.249	0.530	
7.870	0.128	0.454	
7.875	0.000	0.356	
7.880	-0.080	0.244	
7.885	-0.165	0.129	
7.890	-0.214	0.020	
7.895	-0.231	-0.075	
7.900	-0.254	-0.151	
7.905	-0.245	-0.206	
7.910	-0.229	-0.240	
7.915	-0.229	-0.255	
7.920	-0.217	-0.258	
7.925	-0.237	-0.253	
7.930	-0.188	-0.244	
7.935	-0.164	-0.231	
7.940	-0.164	-0.213	
7.945	-0.122	-0.193	
7.950	-0.121	-0.172	
7.955	-0.136	-0.153	
7.960	-0.133	-0.140	
7.965	-0.170	-0.134	
7.970	-0.145	-0.135	
7.975	-0.155	-0.139	
7.980	-0.165	-0.144	
7.985	-0.159	-0.149	
7.990	-0.148	-0.154	
7.995	-0.161	-0.156	
8.000	-0.184	-0.158	
8.005	-0.190	-0.163	
8.010	-0.184	-0.170	
8.015	-0.156	-0.175	
8.020	-0.132	-0.174	
8.025	-0.138	-0.167	
8.030	-0.150	-0.159	
8.035	-0.196	-0.154	
8.040	-0.213	-0.159	
8.045	-0.101	-0.165	
8.050	0.171	-0.149	
8.055	0.420	-0.083	
8.060	0.525	0.036	
8.065	0.214	0.165	
8.070	-0.081	0.238	
8.075	-0.139	0.226	
8.080	-0.145	0.155	
8.085	-0.129	0.066	
8.090	-0.116	-0.014	
8.095	-0.054	-0.070	
8.100	-0.035	-0.097	
8.105	-0.060	-0.100	
8.110	-0.002	-0.091	
8.115	0.036	-0.071	
8.120	0.082	-0.041	
8.125	0.094	-0.005	
8.130	0.134	0.032	
8.135	0.093	0.066	
8.140	0.113	0.090	
8.145	0.156	0.107	
8.150	0.136	0.122	
8.155	0.146	0.133	
8.160	0.178	0.142	
8.165	0.240	0.154	
8.170	0.261	0.174	
8.175	0.333	0.203	
8.180	0.371	0.239	
8.185	0.427	0.282	
8.190	0.498	0.331	
8.195	0.531	0.384	
8.200	0.502	0.434	
8.205	0.463	0.471	
8.210	0.415	0.487	
8.215	0.371	0.482	
8.220	0.266	0.456	
8.225	0.169	0.409	
8.230	0.036	0.340	
8.235	-0.097	0.250	
8.240	-0.171	0.144	
8.245	-0.187	0.037	
8.250	-0.213	-0.058	
8.255	-0.181	-0.130	
8.260	-0.168	-0.176	
8.265	-0.171	-0.198	
8.270	-0.207	-0.205	
8.275	-0.225	-0.208	
8.280	-0.223	-0.212	
8.285	-0.184	-0.214	
8.290	-0.173	-0.211	
8.295	-0.141	-0.201	
8.300	-0.138	-0.187	
8.305	-0.133	-0.171	
8.310	-0.150	-0.157	
8.315	-0.110	-0.146	
8.320	-0.124	-0.137	
8.325	-0.116	-0.129	
8.330	-0.126	-0.123	
8.335	-0.167	-0.123	
8.340	-0.193	-0.130	
8.345	-0.187	-0.143	
8.350	-0.229	-0.160	
8.355	-0.217	-0.179	
8.360	-0.208	-0.195	
8.365	-0.216	-0.206	
8.370	-0.265	-0.216	
8.375	-0.265	-0.227	
8.380	-0.240	-0.238	
8.385	-0.245	-0.246	
8.390	-0.297	-0.251	
8.395	-0.292	-0.260	
8.400	-0.307	-0.271	
8.405	-0.216	-0.278	
8.410	-0.075	-0.268	
8.415	0.024	-0.229	
8.420	0.033	-0.168	
8.425	-0.090	-0.106	
8.430	-0.229	-0.074	
8.435	-0.298	-0.084	
8.440	-0.248	-0.122	
8.445	-0.155	-0.163	
8.450	-0.174	-0.186	
8.455	-0.130	-0.193	
8.460	-0.061	-0.183	
8.465	-0.061	-0.159	
8.470	-0.064	-0.129	
8.475	-0.025	-0.101	
8.480	0.027	-0.072	
8.485	0.072	-0.040	
8.490	0.041	-0.007	
8.495	0.050	0.020	
8.500	0.058	0.039	
8.505	0.065	0.051	
8.510	0.145	0.063	
8.515	0.169	0.082	
8.520	0.140	0.105	
8.525	0.189	0.126	
8.530	0.226	0.148	
8.535	0.211	0.170	
8.540	0.290	0.193	
8.545	0.440	0.226	
8.550	0.484	0.276	
8.555	0.513	0.339	
8.560	0.479	0.399	
8.565	0.402	0.441	
8.570	0.357	0.456	
8.575	0.299	0.445	
8.580	0.188	0.410	
8.585	0.027	0.349	
8.590	-0.061	0.263	
8.595	-0.112	0.163	
8.600	-0.182	0.062	
8.605	-0.219	-0.031	
8.610	-0.219	-0.110	
8.615	-0.242	-0.170	
8.620	-0.240	-0.211	
8.625	-0.255	-0.238	
8.630	-0.274	-0.254	
8.635	-0.292	-0.266	
8.640	-0.255	-0.274	
8.645	-0.207	-0.274	
8.650	-0.210	-0.264	
8.655	-0.199	-0.248	
8.660	-0.165	-0.230	
8.665	-0.162	-0.211	
8.670	-0.188	-0.194	
8.675	-0.167	-0.182	
8.680	-0.144	-0.173	
8.685	-0.196	-0.167	
8.690	-0.164	-0.166	
8.695	-0.138	-0.165	
8.700	-0.174	-0.162	
8.705	-0.203	-0.163	
8.710	-0.219	-0.170	
8.715	-0.214	-0.182	
8.720	-0.234	-0.194	
8.725	-0.210	-0.206	
8.730	-0.190	-0.213	
8.735	-0.168	-0.212	
8.740	-0.150	-0.203	
8.745	-0.176	-0.191	
8.750	-0.202	-0.183	
8.755	-0.205	-0.181	
8.760	-0.181	-0.183	
8.765	-0.145	-0.183	
8.770	-0.055	-0.174	
8.775	0.096	-0.145	
8.780	0.050	-0.095	
8.785	-0.003	-0.044	
8.790	-0.135	-0.015	
8.795	-0.170	-0.018	
8.800	-0.181	-0.047	
8.805	-0.174	-0.085	
8.810	-0.110	-0.117	
8.815	-0.064	-0.133	
8.820	-0.049	-0.129	
8.825	-0.017	-0.112	
8.830	-0.022	-0.088	
8.835	-0.019	-0.063	
8.840	0.041	-0.040	
8.845	0.046	-0.017	
8.850	0.015	0.005	
8.855	0.053	0.021	
8.860	0.114	0.035	
8.865	0.104	0.054	
8.870	0.009	0.068	
8.875	-0.049	0.066	
8.880	-0.098	0.044	
8.885	-0.133	0.008	
8.890	-0.100	-0.033	
8.895	-0.035	-0.064	
8.900	0.001	-0.075	
8.905	0.049	-0.066	
8.910	0.174	-0.037	
8.915	0.204	0.012	
8.920	0.236	0.072	
8.925	0.267	0.131	
8.930	0.212	0.182	
8.935	0.128	0.211	
8.940	0.124	0.214	
8.945	0.061	0.196	
8.950	-0.029	0.161	
8.955	-0.078	0.110	
8.960	-0.092	0.052	
8.965	-0.133	-0.004	
8.970	-0.110	-0.053	
8.975	-0.097	-0.088	
8.980	-0.129	-0.109	
8.985	-0.129	-0.121	
8.990	-0.107	-0.128	
8.995	-0.087	-0.127	
9.000	-0.089	-0.121	
9.005	-0.042	-0.109	
9.010	-0.020	-0.092	
9.015	-0.025	-0.072	
9.020	-0.026	-0.053	
9.025	0.065	-0.035	
9.030	0.104	-0.009	
9.035	0.136	0.023	
9.040	0.113	0.058	
9.045	0.108	0.086	
9.050	0.072	0.102	
9.055	0.114	0.108	
9.060	0.088	0.109	
9.065	0.027	0.104	
9.070	-0.013	0.088	
9.075	-0.011	0.064	
9.080	0.007	0.039	
9.085	-0.037	0.018	
9.090	-0.037	-0.001	
9.095	-0.014	-0.015	
9.100	-0.031	-0.024	
9.105	-0.008	-0.028	
9.110	0.012	-0.026	
9.115	-0.017	-0.021	
9.120	-0.022	-0.016	
9.125	0.032	-0.012	
9.130	0.056	-0.004	
9.135	0.165	0.016	
9.140	0.270	0.052	
9.145	0.281	0.106	
9.150	0.145	0.158	
9.155	0.001	0.181	
9.160	-0.048	0.163	
9.165	-0.026	0.119	
9.170	0.046	0.073	
9.175	0.131	0.046	
9.180	0.157	0.045	
9.185	0.143	0.064	
9.190	0.162	0.089	
9.195	0.143	0.113	
9.200	0.130	0.131	
9.205	0.215	0.144	
9.210	0.284	0.163	
9.215	0.243	0.189	
9.220	0.272	0.215	
9.225	0.295	0.238	
9.230	0.321	0.260	
9.235	0.302	0.280	
9.240	0.350	0.297	
9.245	0.406	0.315	
9.250	0.408	0.339	
9.255	0.461	0.365	
9.260	0.457	0.393	
9.265	0.466	0.419	
9.270	0.522	0.443	
9.275	0.579	0.469	
9.280	0.634	0.502	
9.285	0.600	0.539	
9.290	0.586	0.569	
9.295	0.522	0.585	
9.300	0.414	0.579	
9.305	0.330	0.547	
9.310	0.259	0.491	
9.315	0.154	0.420	
9.320	0.029	0.335	
9.325	-0.035	0.239	
9.330	-0.025	0.145	
9.335	-0.055	0.065	
9.340	-0.052	0.006	
9.345	-0.084	-0.036	
9.350	-0.127	-0.066	
9.355	-0.129	-0.090	
9.360	-0.095	-0.107	
9.365	-0.066	-0.114	
9.370	-0.048	-0.109	
9.375	-0.051	-0.096	
9.380	-0.051	-0.081	
9.385	-0.049	-0.068	
9.390	-0.023	-0.057	
9.395	0.006	-0.045	
9.400	-0.034	-0.033	
9.405	-0.014	-0.025	
9.410	0.009	-0.018	
9.415	0.015	-0.011	
9.420	0.007	-0.003	
9.425	-0.026	0.001	
9.430	-0.080	-0.002	
9.435	-0.103	-0.017	
9.440	-0.112	-0.039	
9.445	-0.129	-0.064	
9.450	-0.153	-0.089	
9.455	-0.147	-0.111	
9.460	-0.089	-0.126	
9.465	-0.090	-0.130	
9.470	-0.103	-0.125	
9.475	-0.087	-0.117	
9.480	-0.092	-0.108	
9.485	-0.122	-0.102	
9.490	-0.113	-0.101	
9.495	-0.014	-0.099	
9.500	0.052	-0.084	
9.505	0.146	-0.050	
9.510	0.122	-0.002	
9.515	-0.071	0.036	
9.520	-0.122	0.042	
9.525	-0.109	0.017	
9.530	-0.080	-0.017	
9.535	-0.046	-0.046	
9.540	0.079	-0.055	
9.545	0.169	-0.037	
9.550	0.191	0.007	
9.555	0.197	0.062	
9.560	0.266	0.117	
9.565	0.233	0.166	
9.570	0.269	0.206	
9.575	0.253	0.235	
9.580	0.252	0.253	
9.585	0.288	0.264	
9.590	0.339	0.274	
9.595	0.343	0.289	
9.600	0.311	0.305	
9.605	0.334	0.316	
9.610	0.490	0.331	
9.615	0.722	0.372	
9.620	0.889	0.453	
9.625	1.034	0.573	
9.630	1.112	0.713	
9.635	1.124	0.853	
9.640	1.109	0.971	
9.645	1.046	1.052	
9.650	1.152	1.098	
9.655	1.260	1.131	
9.660	1.278	1.167	
9.665	1.167	1.199	
9.670	1.011	1.207	
9.675	0.900	1.177	
9.680	0.731	1.108	
9.685	0.544	1.004	
9.690	0.405	0.870	
9.695	0.325	0.721	
9.700	0.227	0.574	
9.705	0.110	0.437	
9.710	0.056	0.312	
9.715	0.029	0.204	
9.720	-0.014	0.118	
9.725	0.006	0.055	
9.730	0.007	0.013	
9.735	-0.009	-0.009	
9.740	-0.006	-0.019	
9.745	0.000	-0.021	
9.750	-0.048	-0.021	
9.755	-0.035	-0.023	
9.760	-0.031	-0.027	
9.765	-0.077	-0.032	
9.770	-0.097	-0.041	
9.775	-0.089	-0.055	
9.780	-0.095	-0.068	
9.785	-0.133	-0.081	
9.790	-0.132	-0.096	
9.795	-0.153	-0.110	
9.800	-0.211	-0.127	
9.805	-0.220	-0.149	
9.810	-0.197	-0.171	
9.815	-0.216	-0.189	
9.820	-0.210	-0.201	
9.825	-0.181	-0.208	
9.830	-0.185	-0.208	
9.835	-0.177	-0.203	
9.840	-0.205	-0.197	
9.845	-0.216	-0.195	
9.850	-0.232	-0.198	
9.855	-0.225	-0.205	
9.860	-0.148	-0.209	
9.865	-0.075	-0.200	
9.870	0.013	-0.171	
9.875	0.009	-0.128	
9.880	-0.156	-0.088	
9.885	-0.257	-0.079	
9.890	-0.287	-0.103	
9.895	-0.210	-0.145	
9.900	-0.165	-0.178	
9.905	-0.121	-0.193	
9.910	-0.054	-0.185	
9.915	-0.061	-0.161	
9.920	-0.063	-0.130	
9.925	-0.034	-0.101	
9.930	-0.035	-0.076	
9.935	-0.025	-0.056	
9.940	0.007	-0.039	
9.945	0.078	-0.020	
9.950	0.056	0.003	
9.955	0.094	0.027	
9.960	0.156	0.052	
9.965	0.191	0.082	
9.970	0.226	0.117	
9.975	0.311	0.157	
9.980	0.313	0.201	
9.985	0.343	0.245	
9.990	0.444	0.288	
9.995	0.533	0.337	
10.000	0.547	0.394	
10.005	0.609	0.453	
10.010	0.672	0.510	
10.015	0.608	0.563	
10.020	0.573	0.598	
10.025	0.541	0.611	
10.030	0.472	0.603	
10.035	0.322	0.571	
10.040	0.183	0.509	
10.045	0.082	0.421	
10.050	-0.048	0.314	
10.055	-0.064	0.199	
10.060	-0.081	0.094	
10.065	-0.141	0.009	
10.070	-0.219	-0.062	
10.075	-0.200	-0.121	
10.080	-0.181	-0.165	
10.085	-0.211	-0.192	
10.090	-0.193	-0.206	
10.095	-0.135	-0.209	
10.100	-0.127	-0.199	
10.105	-0.103	-0.180	
10.110	-0.058	-0.155	
10.115	-0.058	-0.128	
10.120	-0.042	-0.100	
10.125	-0.049	-0.077	
10.130	-0.083	-0.062	
10.135	-0.080	-0.056	
10.140	-0.093	-0.059	
10.145	-0.089	-0.066	
10.150	-0.130	-0.075	
10.155	-0.159	-0.090	
10.160	-0.193	-0.110	
10.165	-0.225	-0.135	
10.170	-0.269	-0.164	
10.175	-0.274	-0.196	
10.180	-0.291	-0.227	
10.185	-0.320	-0.254	
10.190	-0.310	-0.278	
10.195	-0.277	-0.295	
10.200	-0.287	-0.301	
10.205	-0.350	-0.305	
10.210	-0.330	-0.311	
10.215	-0.335	-0.319	
10.220	-0.318	-0.324	
10.225	-0.194	-0.321	
10.230	0.030	-0.292	
10.235	0.047	-0.227	
10.240	-0.066	-0.151	
10.245	-0.225	-0.100	
10.250	-0.336	-0.096	
10.255	-0.355	-0.134	
10.260	-0.269	-0.188	
10.265	-0.243	-0.233	
10.270	-0.226	-0.257	
10.275	-0.207	-0.263	
10.280	-0.188	-0.256	
10.285	-0.196	-0.241	
10.290	-0.139	-0.222	
10.295	-0.118	-0.199	
10.300	-0.138	-0.175	
10.305	-0.118	-0.154	
10.310	-0.113	-0.138	
10.315	-0.138	-0.127	
10.320	-0.152	-0.123	
10.325	-0.071	-0.122	
10.330	0.012	-0.112	
10.335	-0.031	-0.090	
10.340	-0.016	-0.065	
10.345	0.058	-0.042	
10.350	0.068	-0.014	
10.355	0.105	0.015	
10.360	0.166	0.048	
10.365	0.256	0.087	
10.370	0.307	0.136	
10.375	0.374	0.192	
10.380	0.382	0.250	
10.385	0.299	0.299	
10.390	0.270	0.326	
10.395	0.209	0.327	
10.400	-0.020	0.298	
10.405	-0.071	0.233	
10.410	-0.089	0.147	
10.415	-0.176	0.058	
10.420	-0.231	-0.028	
10.425	-0.237	-0.105	
10.430	-0.236	-0.167	
10.435	-0.284	-0.213	
10.440	-0.300	-0.247	
10.445	-0.297	-0.272	
10.450	-0.310	-0.290	
10.455	-0.318	-0.302	
10.460	-0.263	-0.308	
10.465	-0.251	-0.305	
10.470	-0.257	-0.294	
10.475	-0.237	-0.281	
10.480	-0.202	-0.265	
10.485	-0.231	-0.249	
10.490	-0.184	-0.234	
10.495	-0.173	-0.219	
10.500	-0.211	-0.206	
10.505	-0.181	-0.197	
10.510	-0.171	-0.190	
10.515	-0.200	-0.185	
10.520	-0.257	-0.187	
10.525	-0.237	-0.197	
10.530	-0.243	-0.211	
10.535	-0.287	-0.225	
10.540	-0.262	-0.241	
10.545	-0.236	-0.252	
10.550	-0.258	-0.257	
10.555	-0.286	-0.260	
10.560	-0.242	-0.263	
10.565	-0.243	-0.262	
10.570	-0.262	-0.259	
10.575	-0.271	-0.258	
10.580	-0.294	-0.260	
10.585	-0.277	-0.266	
10.590	-0.090	-0.263	
10.595	0.227	-0.223	
10.600	0.321	-0.131	
10.605	0.240	-0.010	
10.610	-0.066	0.085	
10.615	-0.199	0.112	
10.620	-0.236	0.072	
10.625	-0.196	-0.001	
10.630	-0.159	-0.073	
10.635	-0.179	-0.127	
10.640	-0.124	-0.159	
10.645	-0.046	-0.168	
10.650	-0.054	-0.154	
10.655	-0.045	-0.127	
10.660	0.026	-0.096	
10.665	0.033	-0.061	
10.670	0.029	-0.027	
10.675	0.053	0.001	
10.680	0.096	0.026	
10.685	0.093	0.048	
10.690	0.096	0.068	
10.695	0.171	0.086	
10.700	0.148	0.106	
10.705	0.178	0.126	
10.710	0.259	0.148	
10.715	0.296	0.177	
10.720	0.301	0.212	
10.725	0.392	0.250	
10.730	0.490	0.295	
10.735	0.486	0.348	
10.740	0.507	0.401	
10.745	0.525	0.446	
10.750	0.460	0.479	
10.755	0.406	0.493	
10.760	0.418	0.486	
10.765	0.290	0.464	
10.770	0.137	0.420	
10.775	0.036	0.348	
10.780	-0.058	0.256	
10.785	-0.138	0.153	
10.790	-0.203	0.050	
10.795	-0.182	-0.044	
10.800	-0.203	-0.118	
10.805	-0.228	-0.170	
10.810	-0.225	-0.205	
10.815	-0.245	-0.227	
10.820	-0.266	-0.241	
10.825	-0.239	-0.250	
10.830	-0.205	-0.253	
10.835	-0.208	-0.247	
10.840	-0.220	-0.237	
10.845	-0.153	-0.225	
10.850	-0.136	-0.209	
10.855	-0.141	-0.188	
10.860	-0.081	-0.166	
10.865	-0.086	-0.143	
10.870	-0.038	-0.118	
10.875	0.049	-0.090	
10.880	0.047	-0.054	
10.885	-0.013	-0.021	
10.890	0.000	0.001	
10.895	0.038	0.012	
10.900	-0.028	0.018	
10.905	-0.057	0.014	
10.910	0.006	0.003	
10.915	0.029	-0.004	
10.920	0.001	-0.003	
10.925	0.020	-0.000	
10.930	0.050	0.006	
10.935	0.029	0.014	
10.940	-0.011	0.020	
10.945	-0.017	0.019	
10.950	-0.063	0.010	
10.955	-0.049	-0.005	
10.960	0.065	-0.016	
10.965	0.255	-0.003	
10.970	0.198	0.040	
10.975	0.056	0.086	
10.980	-0.101	0.103	
10.985	-0.181	0.077	
10.990	-0.150	0.022	
10.995	-0.164	-0.039	
11.000	-0.193	-0.093	
11.005	-0.228	-0.138	
11.010	-0.226	-0.175	
11.015	-0.252	-0.204	
11.020	-0.278	-0.227	
11.025	-0.275	-0.247	
11.030	-0.265	-0.261	
11.035	-0.309	-0.272	
11.040	-0.262	-0.279	
11.045	-0.193	-0.279	
11.050	-0.159	-0.264	
11.055	-0.141	-0.239	
11.060	-0.103	-0.207	
11.065	-0.087	-0.173	
11.070	-0.071	-0.141	
11.075	-0.037	-0.111	
11.080	-0.009	-0.083	
11.085	0.053	-0.054	
11.090	0.105	-0.021	
11.095	0.157	0.019	
11.100	0.075	0.058	
11.105	-0.017	0.080	
11.110	-0.006	0.077	
11.115	-0.075	0.057	
11.120	-0.121	0.024	
11.125	-0.152	-0.019	
11.130	-0.188	-0.064	
11.135	-0.265	-0.111	
11.140	-0.342	-0.163	
11.145	-0.373	-0.219	
11.150	-0.419	-0.276	
11.155	-0.472	-0.331	
11.160	-0.471	-0.381	
11.165	-0.530	-0.425	
11.170	-0.611	-0.467	
11.175	-0.608	-0.511	
11.180	-0.599	-0.550	
11.185	-0.602	-0.579	
11.190	-0.564	-0.595	
11.195	-0.514	-0.597	
11.200	-0.480	-0.583	
11.205	-0.442	-0.557	
11.210	-0.384	-0.522	
11.215	-0.336	-0.480	
11.220	-0.287	-0.433	
11.225	-0.262	-0.384	
11.230	-0.223	-0.336	
11.235	-0.226	-0.294	
11.240	-0.205	-0.260	
11.245	-0.145	-0.231	
11.250	-0.127	-0.203	
11.255	-0.129	-0.176	
11.260	-0.119	-0.154	
11.265	-0.152	-0.138	
11.270	-0.159	-0.132	
11.275	-0.104	-0.131	
11.280	-0.054	-0.126	
11.285	-0.019	-0.111	
11.290	-0.032	-0.088	
11.295	0.003	-0.065	
11.300	0.023	-0.042	
11.305	0.076	-0.017	
11.310	0.084	0.011	
11.315	0.064	0.036	
11.320	0.104	0.057	
11.325	0.256	0.081	
11.330	0.421	0.125	
11.335	0.372	0.192	
11.340	0.266	0.256	
11.345	0.165	0.289	
11.350	0.088	0.284	
11.355	0.068	0.247	
11.360	0.168	0.202	
11.365	0.252	0.173	
11.370	0.314	0.172	
11.375	0.362	0.197	
11.380	0.411	0.240	
11.385	0.501	0.294	
11.390	0.490	0.355	
11.395	0.467	0.409	
11.400	0.460	0.447	
11.405	0.415	0.466	
11.410	0.504	0.472	
11.415	0.498	0.477	
11.420	0.539	0.485	
11.425	0.547	0.498	
11.430	0.557	0.513	
11.435	0.551	0.528	
11.440	0.580	0.541	
11.445	0.644	0.557	
11.450	0.626	0.576	
11.455	0.635	0.597	
11.460	0.748	0.619	
11.465	0.771	0.649	
11.470	0.779	0.686	
11.475	0.779	0.721	
11.480	0.761	0.748	
11.485	0.686	0.761	
11.490	0.657	0.756	
11.495	0.678	0.737	
11.500	0.565	0.711	
11.505	0.496	0.673	
11.510	0.371	0.619	
11.515	0.276	0.548	
11.520	0.220	0.465	
11.525	0.168	0.379	
11.530	0.133	0.299	
11.535	0.035	0.225	
11.540	-0.013	0.157	
11.545	-0.006	0.094	
11.550	-0.026	0.044	
11.555	-0.020	0.007	
11.560	0.061	-0.013	
11.565	0.085	-0.011	
11.570	0.125	0.008	
11.575	0.183	0.040	
11.580	0.114	0.076	
11.585	0.139	0.105	
11.590	0.145	0.125	
11.595	0.201	0.141	
11.600	0.128	0.154	
11.605	0.163	0.160	
11.610	0.148	0.162	
11.615	0.163	0.161	
11.620	0.160	0.161	
11.625	0.056	0.156	
11.630	-0.006	0.137	
11.635	-0.040	0.102	
11.640	-0.009	0.062	
11.645	-0.032	0.027	
11.650	-0.045	-0.001	
11.655	-0.009	-0.021	
11.660	0.000	-0.029	
11.665	0.000	-0.029	
11.670	0.023	-0.022	
11.675	0.017	-0.012	
11.680	0.007	-0.002	
11.685	-0.042	0.003	
11.690	-0.035	-0.000	
11.695	0.090	-0.003	
11.700	0.151	0.010	
11.705	0.151	0.040	
11.710	0.097	0.072	
11.715	-0.078	0.087	
11.720	-0.118	0.070	
11.725	-0.066	0.032	
11.730	-0.046	-0.007	
11.735	-0.013	-0.033	
11.740	0.087	-0.038	
11.745	0.174	-0.019	
11.750	0.157	0.022	
11.755	0.194	0.069	
11.760	0.149	0.112	
11.765	0.133	0.141	
11.770	0.183	0.157	
11.775	0.214	0.169	
11.780	0.223	0.182	
11.785	0.191	0.194	
11.790	0.230	0.203	
11.795	0.293	0.213	
11.800	0.302	0.230	
11.805	0.347	0.254	
11.810	0.353	0.281	
11.815	0.353	0.307	
11.820	0.417	0.331	
11.825	0.450	0.358	
11.830	0.486	0.388	
11.835	0.533	0.421	
11.840	0.576	0.458	
11.845	0.559	0.495	
11.850	0.507	0.523	
11.855	0.469	0.535	
11.860	0.412	0.528	
11.865	0.382	0.504	
11.870	0.267	0.466	
11.875	0.107	0.408	
11.880	0.041	0.329	
11.885	-0.019	0.237	
11.890	-0.089	0.144	
11.895	-0.130	0.057	
11.900	-0.141	-0.019	
11.905	-0.116	-0.078	
11.910	-0.118	-0.114	
11.915	-0.122	-0.133	
11.920	-0.115	-0.140	
11.925	-0.110	-0.139	
11.930	-0.115	-0.133	
11.935	-0.095	-0.126	
11.940	-0.068	-0.117	
11.945	-0.045	-0.103	
11.950	-0.028	-0.086	
11.955	-0.045	-0.068	
11.960	-0.052	-0.055	
11.965	-0.054	-0.047	
11.970	0.003	-0.042	
11.975	-0.013	-0.035	
11.980	-0.006	-0.026	
11.985	-0.035	-0.020	
11.990	-0.048	-0.019	
11.995	-0.060	-0.024	
12.000	-0.081	-0.033	
12.005	-0.092	-0.046	
12.010	-0.081	-0.060	
12.015	-0.116	-0.073	
12.020	-0.141	-0.087	
12.025	-0.129	-0.102	
12.030	-0.130	-0.115	
12.035	-0.138	-0.124	
12.040	-0.112	-0.130	
12.045	-0.098	-0.130	
12.050	-0.103	-0.125	
12.055	-0.127	-0.119	
12.060	-0.107	-0.116	
12.065	0.009	-0.108	
12.070	0.209	-0.079	
12.075	0.227	-0.020	
12.080	0.097	0.048	
12.085	-0.068	0.089	
12.090	-0.127	0.085	
12.095	-0.081	0.049	
12.100	0.108	0.014	
12.105	0.304	0.014	
12.110	0.415	0.064	
12.115	0.447	0.150	
12.120	0.530	0.249	
12.125	0.702	0.354	
12.130	0.776	0.465	
12.135	0.809	0.575	
12.140	0.799	0.671	
12.145	0.826	0.743	
12.150	0.890	0.796	
12.155	0.860	0.835	
12.160	0.898	0.862	
12.165	0.909	0.880	
12.170	0.915	0.895	
12.175	0.887	0.904	
12.180	0.840	0.904	
12.185	0.816	0.894	
12.190	0.814	0.875	
12.195	0.848	0.856	
12.200	0.845	0.844	
12.205	0.816	0.837	
12.210	0.829	0.831	
12.215	0.779	0.825	
12.220	0.747	0.815	
12.225	0.716	0.797	
12.230	0.652	0.772	
12.235	0.635	0.739	
12.240	0.550	0.701	
12.245	0.452	0.654	
12.250	0.269	0.589	
12.255	0.082	0.498	
12.260	-0.038	0.380	
12.265	-0.089	0.248	
12.270	-0.109	0.122	
12.275	-0.116	0.018	
12.280	-0.155	-0.059	
12.285	-0.171	-0.114	
12.290	-0.113	-0.148	
12.295	-0.019	-0.157	
12.300	0.032	-0.137	
12.305	0.010	-0.100	
12.310	0.076	-0.057	
12.315	0.061	-0.015	
12.320	0.044	0.019	
12.325	0.110	0.045	
12.330	0.085	0.065	
12.335	0.038	0.078	
12.340	0.020	0.078	
12.345	0.013	0.068	
12.350	0.020	0.053	
12.355	-0.014	0.038	
12.360	-0.046	0.021	
12.365	-0.064	0.001	
12.370	-0.095	-0.022	
12.375	-0.107	-0.045	
12.380	-0.141	-0.069	
12.385	-0.147	-0.093	
12.390	-0.197	-0.117	
12.395	-0.168	-0.140	
12.400	-0.167	-0.157	
12.405	-0.158	-0.168	
12.410	-0.158	-0.171	
12.415	-0.222	-0.173	
12.420	-0.257	-0.182	
12.425	-0.228	-0.197	
12.430	-0.113	-0.206	
12.435	0.027	-0.192	
12.440	0.041	-0.151	
12.445	0.003	-0.098	
12.450	-0.181	-0.059	
12.455	-0.263	-0.058	
12.460	-0.291	-0.093	
12.465	-0.263	-0.144	
12.470	-0.205	-0.190	
12.475	-0.174	-0.216	
12.480	-0.147	-0.222	
12.485	-0.135	-0.211	
12.490	-0.133	-0.193	
12.495	-0.124	-0.172	
12.500	-0.107	-0.153	
12.505	-0.077	-0.134	
12.510	-0.046	-0.114	
12.515	-0.009	-0.092	
12.520	-0.009	-0.067	
12.525	-0.019	-0.045	
12.530	0.035	-0.026	
12.535	0.021	-0.009	
12.540	0.029	0.006	
12.545	0.024	0.017	
12.550	0.024	0.024	
12.555	0.087	0.030	
12.560	0.247	0.048	
12.565	0.264	0.087	
12.570	0.275	0.139	
12.575	0.363	0.193	
12.580	0.397	0.248	
12.585	0.339	0.299	
12.590	0.270	0.330	
12.595	0.282	0.339	
12.600	0.156	0.326	
12.605	0.076	0.290	
12.610	0.075	0.237	
12.615	-0.031	0.176	
12.620	-0.112	0.109	
12.625	-0.170	0.036	
12.630	-0.185	-0.036	
12.635	-0.219	-0.099	
12.640	-0.222	-0.151	
12.645	-0.219	-0.190	
12.650	-0.220	-0.214	
12.655	-0.226	-0.227	
12.660	-0.210	-0.233	
12.665	-0.214	-0.232	
12.670	-0.216	-0.228	
12.675	-0.185	-0.223	
12.680	-0.152	-0.213	
12.685	-0.179	-0.199	
12.690	-0.202	-0.189	
12.695	-0.168	-0.184	
12.700	-0.194	-0.181	
12.705	-0.222	-0.182	
12.710	-0.176	-0.187	
12.715	-0.176	-0.189	
12.720	-0.184	-0.188	
12.725	-0.193	-0.187	
12.730	-0.240	-0.189	
12.735	-0.255	-0.198	
12.740	-0.252	-0.212	
12.745	-0.248	-0.227	
12.750	-0.275	-0.239	
12.755	-0.274	-0.250	
12.760	-0.252	-0.259	
12.765	-0.268	-0.264	
12.770	-0.263	-0.266	
12.775	-0.265	-0.267	
12.780	-0.286	-0.268	
12.785	-0.304	-0.271	
12.790	-0.281	-0.277	
12.795	-0.129	-0.275	
12.800	0.032	-0.247	
12.805	0.097	-0.186	
12.810	0.087	-0.107	
12.815	-0.155	-0.043	
12.820	-0.281	-0.027	
12.825	-0.330	-0.062	
12.830	-0.318	-0.126	
12.835	-0.239	-0.190	
12.840	-0.182	-0.232	
12.845	-0.139	-0.243	
12.850	-0.148	-0.232	
12.855	-0.136	-0.211	
12.860	-0.124	-0.186	
12.865	-0.107	-0.162	
12.870	-0.106	-0.141	
12.875	-0.069	-0.123	
12.880	-0.054	-0.105	
12.885	-0.011	-0.085	
12.890	0.010	-0.063	
12.895	0.065	-0.037	
12.900	0.067	-0.008	
12.905	0.056	0.020	
12.910	0.143	0.045	
12.915	0.166	0.072	
12.920	0.183	0.103	
12.925	0.318	0.138	
12.930	0.383	0.185	
12.935	0.434	0.244	
12.940	0.512	0.310	
12.945	0.504	0.375	
12.950	0.482	0.430	
12.955	0.437	0.466	
12.960	0.449	0.481	
12.965	0.357	0.477	
12.970	0.246	0.453	
12.975	0.101	0.401	
12.980	-0.014	0.321	
12.985	-0.081	0.222	
12.990	-0.148	0.118	
12.995	-0.197	0.018	
13.000	-0.236	-0.070	
13.005	-0.252	-0.143	
13.010	-0.252	-0.198	
13.015	-0.265	-0.236	
13.020	-0.260	-0.259	
13.025	-0.269	-0.271	
13.030	-0.263	-0.276	
13.035	-0.257	-0.276	
13.040	-0.217	-0.271	
13.045	-0.164	-0.258	
13.050	-0.170	-0.237	
13.055	-0.164	-0.214	
13.060	-0.135	-0.192	
13.065	-0.173	-0.174	
13.070	-0.150	-0.162	
13.075	-0.101	-0.153	
13.080	-0.100	-0.141	
13.085	-0.179	-0.131	
13.090	-0.200	-0.132	
13.095	-0.188	-0.144	
13.100	-0.208	-0.159	
13.105	-0.226	-0.176	
13.110	-0.207	-0.192	
13.115	-0.223	-0.204	
13.120	-0.225	-0.213	
13.125	-0.216	-0.219	
13.130	-0.229	-0.222	
13.135	-0.249	-0.226	
13.140	-0.249	-0.231	
13.145	-0.260	-0.237	
13.150	-0.297	-0.246	
13.155	-0.234	-0.255	
13.160	-0.029	-0.249	
13.165	0.258	-0.202	
13.170	0.334	-0.103	
13.175	0.221	0.017	
13.180	-0.072	0.106	
13.185	-0.211	0.123	
13.190	-0.225	0.076	
13.195	-0.174	0.000	
13.200	-0.130	-0.069	
13.205	-0.087	-0.115	
13.210	-0.034	-0.132	
13.215	-0.037	-0.125	
13.220	-0.048	-0.105	
13.225	0.021	-0.081	
13.230	0.070	-0.052	
13.235	0.081	-0.016	
13.240	0.152	0.022	
13.245	0.209	0.064	
13.250	0.204	0.109	
13.255	0.177	0.147	
13.260	0.264	0.177	
13.265	0.197	0.201	
13.270	0.230	0.216	
13.275	0.282	0.227	
13.280	0.347	0.243	
13.285	0.406	0.270	
13.290	0.435	0.307	
13.295	0.518	0.351	
13.300	0.530	0.400	
13.305	0.516	0.447	
13.310	0.641	0.489	
13.315	0.660	0.533	
13.320	0.614	0.575	
13.325	0.560	0.603	
13.330	0.461	0.606	
13.335	0.307	0.579	
13.340	0.149	0.515	
13.345	0.084	0.420	
13.350	-0.003	0.311	
13.355	-0.081	0.199	
13.360	-0.126	0.094	
13.365	-0.171	0.002	
13.370	-0.174	-0.073	
13.375	-0.177	-0.129	
13.380	-0.148	-0.164	
13.385	-0.174	-0.181	
13.390	-0.170	-0.186	
13.395	-0.153	-0.186	
13.400	-0.152	-0.180	
13.405	-0.153	-0.172	
13.410	-0.103	-0.162	
13.415	-0.095	-0.148	
13.420	-0.090	-0.132	
13.425	-0.084	-0.116	
13.430	-0.089	-0.103	
13.435	-0.097	-0.094	
13.440	-0.098	-0.090	
13.445	-0.051	-0.087	
13.450	-0.086	-0.083	
13.455	-0.141	-0.082	
13.460	-0.147	-0.090	
13.465	-0.179	-0.106	
13.470	-0.184	-0.126	
13.475	-0.174	-0.146	
13.480	-0.176	-0.161	
13.485	-0.176	-0.172	
13.490	-0.174	-0.177	
13.495	-0.147	-0.178	
13.500	-0.141	-0.174	
13.505	-0.164	-0.167	
13.510	-0.139	-0.161	
13.515	-0.136	-0.155	
13.520	-0.118	-0.148	
13.525	0.038	-0.132	
13.530	0.244	-0.091	
13.535	0.197	-0.021	
13.540	0.059	0.050	
13.545	-0.097	0.086	
13.550	-0.170	0.073	
13.555	-0.173	0.026	
13.560	-0.121	-0.032	
13.565	-0.045	-0.076	
13.570	0.030	-0.091	
13.575	0.093	-0.077	
13.580	0.177	-0.038	
13.585	0.224	0.019	
13.590	0.263	0.085	
13.595	0.296	0.150	
13.600	0.388	0.211	
13.605	0.435	0.272	
13.610	0.460	0.331	
13.615	0.394	0.380	
13.620	0.379	0.408	
13.625	0.415	0.419	
13.630	0.400	0.422	
13.635	0.392	0.419	
13.640	0.389	0.413	
13.645	0.447	0.409	
13.650	0.473	0.412	
13.655	0.547	0.427	
13.660	0.632	0.457	
13.665	0.687	0.503	
13.670	0.676	0.556	
13.675	0.609	0.602	
13.680	0.631	0.630	
13.685	0.573	0.640	
13.690	0.507	0.632	
13.695	0.460	0.606	
13.700	0.305	0.561	
13.705	0.201	0.494	
13.710	0.079	0.407	
13.715	-0.013	0.304	
13.720	-0.068	0.197	
13.725	-0.119	0.096	
13.730	-0.121	0.009	
13.735	-0.130	-0.059	
13.740	-0.138	-0.105	
13.745	-0.145	-0.134	
13.750	-0.135	-0.149	
13.755	-0.126	-0.154	
13.760	-0.095	-0.150	
13.765	-0.119	-0.141	
13.770	-0.104	-0.130	
13.775	-0.097	-0.121	
13.780	-0.097	-0.112	
13.785	-0.060	-0.103	
13.790	-0.013	-0.090	
13.795	-0.013	-0.072	
13.800	-0.023	-0.052	
13.805	-0.019	-0.037	
13.810	-0.019	-0.026	
13.815	-0.104	-0.023	
13.820	-0.133	-0.034	
13.825	-0.182	-0.059	
13.830	-0.217	-0.093	
13.835	-0.323	-0.136	
13.840	-0.428	-0.192	
13.845	-0.480	-0.260	
13.850	-0.518	-0.334	
13.855	-0.530	-0.403	
13.860	-0.517	-0.459	
13.865	-0.540	-0.499	
13.870	-0.547	-0.526	
13.875	-0.537	-0.542	
13.880	-0.512	-0.548	
13.885	-0.468	-0.544	
13.890	-0.350	-0.524	
13.895	-0.287	-0.485	
13.900	-0.309	-0.433	
13.905	-0.414	-0.389	
13.910	-0.480	-0.370	
13.915	-0.460	-0.377	
13.920	-0.388	-0.393	
13.925	-0.326	-0.401	
13.930	-0.289	-0.392	
13.935	-0.274	-0.370	
13.940	-0.252	-0.341	
13.945	-0.237	-0.310	
13.950	-0.271	-0.284	
13.955	-0.281	-0.268	
13.960	-0.286	-0.262	
13.965	-0.297	-0.264	
13.970	-0.278	-0.269	
13.975	-0.243	-0.273	
13.980	-0.211	-0.269	
13.985	-0.171	-0.257	
13.990	-0.155	-0.236	
13.995	-0.150	-0.211	
14.000	-0.098	-0.185	
14.005	-0.071	-0.158	
14.010	0.000	-0.126	
14.015	0.017	-0.090	
14.020	0.149	-0.047	
14.025	0.181	0.006	
14.030	0.236	0.065	
14.035	0.310	0.127	
14.040	0.385	0.191	
14.045	0.411	0.256	
14.050	0.415	0.316	
14.055	0.388	0.362	
14.060	0.322	0.388	
14.065	0.206	0.386	
14.070	0.154	0.355	
14.075	0.102	0.302	
14.080	0.035	0.239	
14.085	-0.009	0.171	
14.090	-0.022	0.106	
14.095	-0.042	0.050	
14.100	-0.038	0.007	
14.105	-0.071	-0.025	
14.110	-0.075	-0.047	
14.115	-0.095	-0.064	
14.120	-0.048	-0.075	
14.125	0.006	-0.075	
14.130	0.013	-0.062	
14.135	0.030	-0.042	
14.140	0.041	-0.018	
14.145	0.091	0.006	
14.150	0.093	0.031	
14.155	0.073	0.054	
14.160	0.110	0.071	
14.165	0.113	0.086	
14.170	0.145	0.099	
14.175	0.104	0.110	
14.180	0.091	0.116	
14.185	0.061	0.114	
14.190	0.015	0.102	
14.195	0.007	0.082	
14.200	-0.005	0.058	
14.205	-0.020	0.035	
14.210	0.009	0.015	
14.215	0.039	0.004	
14.220	0.030	0.004	
14.225	0.064	0.010	
14.230	0.032	0.020	
14.235	0.023	0.029	
14.240	-0.038	0.029	
14.245	0.015	0.022	
14.250	0.186	0.023	
14.255	0.252	0.048	
14.260	0.331	0.099	
14.265	0.275	0.161	
14.270	0.053	0.204	
14.275	0.003	0.206	
14.280	0.010	0.172	
14.285	0.081	0.128	
14.290	0.130	0.097	
14.295	0.201	0.089	
14.300	0.287	0.106	
14.305	0.261	0.143	
14.310	0.240	0.183	
14.315	0.281	0.216	
14.320	0.333	0.245	
14.325	0.318	0.272	
14.330	0.314	0.294	
14.335	0.311	0.309	
14.340	0.368	0.319	
14.345	0.397	0.332	
14.350	0.386	0.349	
14.355	0.362	0.363	
14.360	0.429	0.374	
14.365	0.447	0.387	
14.370	0.464	0.405	
14.375	0.524	0.426	
14.380	0.568	0.454	
14.385	0.600	0.488	
14.390	0.570	0.523	
14.395	0.621	0.552	
14.400	0.666	0.579	
14.405	0.661	0.606	
14.410	0.661	0.630	
14.415	0.612	0.645	
14.420	0.473	0.642	
14.425	0.424	0.614	
14.430	0.353	0.564	
14.435	0.204	0.497	
14.440	0.124	0.413	
14.445	0.058	0.319	
14.450	0.020	0.226	
14.455	-0.026	0.142	
14.460	-0.051	0.070	
14.465	-0.055	0.014	
14.470	-0.049	-0.026	
14.475	0.001	-0.048	
14.480	0.026	-0.051	
14.485	0.038	-0.039	
14.490	0.024	-0.020	
14.495	0.036	-0.001	
14.500	0.075	0.016	
14.505	0.101	0.035	
14.510	0.107	0.055	
14.515	0.079	0.073	
14.520	0.030	0.082	
14.525	0.029	0.079	
14.530	0.021	0.068	
14.535	0.013	0.054	
14.540	-0.017	0.039	
14.545	0.020	0.024	
14.550	0.027	0.014	
14.555	-0.022	0.010	
14.560	-0.069	0.001	
14.565	-0.083	-0.014	
14.570	-0.098	-0.034	
14.575	-0.071	-0.054	
14.580	-0.106	-0.070	
14.585	-0.110	-0.083	
14.590	-0.087	-0.093	
14.595	-0.081	-0.098	
14.600	-0.121	-0.099	
14.605	-0.138	-0.103	
14.610	-0.104	-0.109	
14.615	-0.058	-0.110	
14.620	0.062	-0.098	
14.625	0.211	-0.061	
14.630	0.127	-0.003	
14.635	-0.016	0.046	
14.640	-0.084	0.063	
14.645	-0.078	0.047	
14.650	-0.057	0.017	
14.655	-0.042	-0.012	
14.660	0.020	-0.029	
14.665	0.047	-0.030	
14.670	0.099	-0.016	
14.675	0.105	0.011	
14.680	0.114	0.041	
14.685	0.220	0.074	
14.690	0.230	0.113	
14.695	0.235	0.153	
14.700	0.227	0.188	
14.705	0.292	0.215	
14.710	0.310	0.241	
14.715	0.281	0.264	
14.720	0.310	0.281	
14.725	0.377	0.297	
14.730	0.411	0.317	
14.735	0.530	0.349	
14.740	0.647	0.398	
14.745	0.794	0.469	
14.750	0.930	0.564	
14.755	0.979	0.674	
14.760	1.005	0.783	
14.765	1.029	0.878	
14.770	0.990	0.949	
14.775	0.939	0.992	
14.780	0.855	1.001	
14.785	0.721	0.977	
14.790	0.565	0.916	
14.795	0.479	0.825	
14.800	0.310	0.713	
14.805	0.204	0.586	
14.810	0.146	0.455	
14.815	0.026	0.331	
14.820	0.035	0.220	
14.825	0.052	0.131	
14.830	-0.011	0.069	
14.835	-0.052	0.025	
14.840	-0.055	-0.009	
14.845	-0.049	-0.034	
14.850	-0.054	-0.050	
14.855	-0.057	-0.058	
14.860	-0.038	-0.061	
14.865	-0.069	-0.060	
14.870	-0.055	-0.060	
14.875	-0.060	-0.059	
14.880	-0.077	-0.060	
14.885	-0.100	-0.064	
14.890	-0.103	-0.071	
14.895	-0.098	-0.080	
14.900	-0.110	-0.089	
14.905	-0.139	-0.098	
14.910	-0.145	-0.109	
14.915	-0.165	-0.122	
14.920	-0.181	-0.136	
14.925	-0.213	-0.152	
14.930	-0.219	-0.170	
14.935	-0.207	-0.187	
14.940	-0.182	-0.198	
14.945	-0.179	-0.202	
14.950	-0.199	-0.200	
14.955	-0.185	-0.198	
14.960	-0.184	-0.195	
14.965	-0.228	-0.193	
14.970	-0.248	-0.198	
14.975	-0.200	-0.206	
14.980	-0.064	-0.205	
14.985	0.082	-0.178	
14.990	0.104	-0.123	
14.995	-0.022	-0.060	
15.000	-0.158	-0.023	
15.005	-0.208	-0.026	
15.010	-0.197	-0.058	
15.015	-0.159	-0.098	
15.020	-0.145	-0.130	
15.025	-0.115	-0.148	
15.030	-0.087	-0.151	
15.035	-0.064	-0.141	
15.040	-0.068	-0.123	
15.045	-0.063	-0.104	
15.050	-0.072	-0.087	
15.055	-0.048	-0.075	
15.060	-0.011	-0.063	
15.065	-0.032	-0.050	
15.070	-0.016	-0.039	
15.075	0.024	-0.028	
15.080	0.053	-0.014	
15.085	0.067	0.005	
15.090	0.068	0.025	
15.095	0.171	0.048	
15.100	0.218	0.079	
15.105	0.235	0.119	
15.110	0.235	0.159	
15.115	0.350	0.198	
15.120	0.470	0.245	
15.125	0.554	0.309	
15.130	0.473	0.377	
15.135	0.449	0.432	
15.140	0.403	0.460	
15.145	0.368	0.464	
15.150	0.259	0.445	
15.155	0.159	0.402	
15.160	0.052	0.335	
15.165	-0.054	0.250	
15.170	-0.109	0.155	
15.175	-0.142	0.060	
15.180	-0.216	-0.026	
15.185	-0.257	-0.101	
15.190	-0.249	-0.165	
15.195	-0.229	-0.211	
15.200	-0.242	-0.239	
15.205	-0.229	-0.252	
15.210	-0.203	-0.253	
15.215	-0.185	-0.245	
15.220	-0.158	-0.230	
15.225	-0.126	-0.209	
15.230	-0.107	-0.184	
15.235	-0.081	-0.157	
15.240	-0.113	-0.132	
15.245	-0.109	-0.115	
15.250	-0.113	-0.106	
15.255	-0.132	-0.103	
15.260	-0.106	-0.105	
15.265	-0.110	-0.108	
15.270	-0.136	-0.110	
15.275	-0.144	-0.116	
15.280	-0.176	-0.125	
15.285	-0.232	-0.140	
15.290	-0.228	-0.161	
15.295	-0.223	-0.184	
15.300	-0.214	-0.203	
15.305	-0.222	-0.214	
15.310	-0.223	-0.221	
15.315	-0.210	-0.224	
15.320	-0.174	-0.222	
15.325	-0.168	-0.214	
15.330	-0.254	-0.205	
15.335	-0.268	-0.207	
15.340	-0.162	-0.213	
15.345	0.090	-0.200	
15.350	0.278	-0.143	
15.355	0.307	-0.045	
15.360	0.056	0.055	
15.365	-0.152	0.107	
15.370	-0.226	0.091	
15.375	-0.202	0.029	
15.380	-0.141	-0.043	
15.385	-0.097	-0.097	
15.390	-0.064	-0.124	
15.395	-0.057	-0.127	
15.400	-0.107	-0.119	
15.405	-0.089	-0.109	
15.410	-0.014	-0.098	
15.415	0.009	-0.080	
15.420	0.024	-0.054	
15.425	0.072	-0.026	
15.430	0.084	0.004	
15.435	0.113	0.035	
15.440	0.064	0.060	
15.445	0.114	0.078	
15.450	0.122	0.092	
15.455	0.152	0.105	
15.460	0.266	0.124	
15.465	0.267	0.154	
15.470	0.296	0.191	
15.475	0.386	0.232	
15.480	0.427	0.278	
15.485	0.547	0.332	
15.490	0.597	0.395	
15.495	0.562	0.459	
15.500	0.521	0.509	
15.505	0.481	0.536	
15.510	0.455	0.540	
15.515	0.287	0.520	
15.520	0.156	0.468	
15.525	0.072	0.388	
15.530	0.013	0.291	
15.535	-0.055	0.191	
15.540	-0.109	0.098	
15.545	-0.147	0.014	
15.550	-0.173	-0.056	
15.555	-0.232	-0.114	
15.560	-0.237	-0.161	
15.565	-0.240	-0.199	
15.570	-0.234	-0.224	
15.575	-0.202	-0.238	
15.580	-0.187	-0.238	
15.585	-0.173	-0.229	
15.590	-0.203	-0.216	
15.595	-0.188	-0.206	
15.600	-0.145	-0.196	
15.605	-0.155	-0.184	
15.610	-0.144	-0.172	
15.615	-0.193	-0.164	
15.620	-0.214	-0.164	
15.625	-0.156	-0.169	
15.630	-0.144	-0.172	
15.635	-0.177	-0.170	
15.640	-0.199	-0.170	
15.645	-0.211	-0.175	
15.650	-0.217	-0.184	
15.655	-0.220	-0.194	
15.660	-0.232	-0.204	
15.665	-0.254	-0.215	
15.670	-0.245	-0.226	
15.675	-0.208	-0.234	
15.680	-0.197	-0.234	
15.685	-0.205	-0.228	
15.690	-0.237	-0.222	
15.695	-0.254	-0.221	
15.700	-0.266	-0.227	
15.705	-0.205	-0.233	
15.710	-0.034	-0.226	
15.715	0.221	-0.183	
15.720	0.282	-0.097	
15.725	0.142	0.007	
15.730	-0.141	0.076	
15.735	-0.242	0.078	
15.740	-0.223	0.026	
15.745	-0.193	-0.045	
15.750	-0.152	-0.107	
15.755	-0.118	-0.146	
15.760	-0.097	-0.160	
15.765	-0.080	-0.156	
15.770	-0.023	-0.138	
15.775	0.024	-0.108	
15.780	0.017	-0.072	
15.785	0.070	-0.035	
15.790	0.114	0.002	
15.795	0.169	0.042	
15.800	0.113	0.080	
15.805	0.029	0.103	
15.810	0.061	0.106	
15.815	0.042	0.097	
15.820	0.035	0.083	
15.825	0.078	0.070	
15.830	0.149	0.066	
15.835	0.226	0.080	
15.840	0.290	0.113	
15.845	0.296	0.159	
15.850	0.351	0.209	
15.855	0.374	0.259	
15.860	0.427	0.306	
15.865	0.385	0.347	
15.870	0.379	0.376	
15.875	0.342	0.389	
15.880	0.197	0.382	
15.885	0.087	0.346	
15.890	-0.029	0.280	
15.895	-0.112	0.192	
15.900	-0.130	0.096	
15.905	-0.182	0.005	
15.910	-0.217	-0.073	
15.915	-0.283	-0.140	
15.920	-0.307	-0.197	
15.925	-0.286	-0.243	
15.930	-0.262	-0.274	
15.935	-0.240	-0.287	
15.940	-0.155	-0.282	
15.945	-0.107	-0.257	
15.950	-0.058	-0.218	
15.955	-0.074	-0.172	
15.960	-0.025	-0.128	
15.965	-0.031	-0.090	
15.970	-0.048	-0.061	
15.975	-0.043	-0.043	
15.980	-0.057	-0.035	
15.985	-0.090	-0.036	
15.990	-0.104	-0.046	
15.995	-0.110	-0.061	
16.000	-0.152	-0.079	
16.005	-0.188	-0.101	
16.010	-0.194	-0.127	
16.015	-0.243	-0.154	
16.020	-0.272	-0.183	
16.025	-0.304	-0.213	
16.030	-0.320	-0.245	
16.035	-0.358	-0.275	
16.040	-0.361	-0.303	
16.045	-0.352	-0.327	
16.050	-0.359	-0.345	
16.055	-0.382	-0.356	
16.060	-0.378	-0.366	
16.065	-0.367	-0.372	
16.070	-0.356	-0.374	
16.075	-0.286	-0.369	
16.080	-0.184	-0.350	
16.085	-0.113	-0.311	
16.090	-0.087	-0.258	
16.095	-0.162	-0.205	
16.100	-0.277	-0.173	
16.105	-0.326	-0.173	
16.110	-0.300	-0.198	
16.115	-0.225	-0.227	
16.120	-0.165	-0.241	
16.125	-0.074	-0.233	
16.130	-0.074	-0.204	
16.135	-0.035	-0.163	
16.140	0.047	-0.118	
16.145	0.049	-0.069	
16.150	0.067	-0.022	
16.155	0.093	0.017	
16.160	0.178	0.054	
16.165	0.218	0.092	
16.170	0.087	0.127	
16.175	0.168	0.146	
16.180	0.261	0.160	
16.185	0.249	0.181	
16.190	0.314	0.207	
16.195	0.371	0.239	
16.200	0.391	0.278	
16.205	0.444	0.319	
16.210	0.562	0.366	
16.215	0.608	0.421	
16.220	0.608	0.481	
16.225	0.686	0.537	
16.230	0.750	0.592	
16.235	0.704	0.643	
16.240	0.629	0.678	
16.245	0.567	0.686	
16.250	0.492	0.668	
16.255	0.380	0.625	
16.260	0.356	0.562	
16.265	0.253	0.490	
16.270	0.180	0.412	
16.275	0.059	0.329	
16.280	0.015	0.241	
16.285	0.000	0.158	
16.290	-0.069	0.085	
16.295	-0.072	0.024	
16.300	-0.058	-0.023	
16.305	-0.078	-0.054	
16.310	-0.068	-0.073	
16.315	-0.074	-0.081	
16.320	-0.057	-0.083	
16.325	-0.008	-0.078	
16.330	0.006	-0.064	
16.335	0.059	-0.042	
16.340	0.131	-0.012	
16.345	0.091	0.024	
16.350	0.114	0.057	
16.355	0.104	0.082	
16.360	0.152	0.101	
16.365	0.068	0.114	
16.370	0.072	0.116	
16.375	0.101	0.110	
16.380	0.046	0.101	
16.385	0.023	0.088	
16.390	-0.026	0.069	
16.395	-0.057	0.042	
16.400	-0.057	0.012	
16.405	-0.038	-0.014	
16.410	-0.058	-0.034	
16.415	-0.046	-0.046	
16.420	-0.034	-0.052	
16.425	0.007	-0.051	
16.430	-0.028	-0.043	
16.435	-0.043	-0.035	
16.440	-0.055	-0.033	
16.445	-0.038	-0.034	
16.450	0.177	-0.027	
16.455	0.299	0.010	
16.460	0.292	0.076	
16.465	0.097	0.139	
16.470	-0.064	0.164	
16.475	-0.100	0.140	
16.480	-0.075	0.087	
16.485	0.010	0.034	
16.490	0.062	0.002	
16.495	0.096	-0.004	
16.500	0.134	0.012	
16.505	0.157	0.042	
16.510	0.165	0.077	
16.515	0.214	0.112	
16.520	0.215	0.146	
16.525	0.220	0.176	
16.530	0.249	0.200	
16.535	0.256	0.219	
16.540	0.233	0.234	
16.545	0.261	0.244	
16.550	0.266	0.251	
16.555	0.250	0.256	
16.560	0.304	0.261	
16.565	0.296	0.268	
16.570	0.278	0.276	
16.575	0.372	0.286	
16.580	0.469	0.307	
16.585	0.479	0.343	
16.590	0.597	0.391	
16.595	0.626	0.448	
16.600	0.571	0.506	
16.605	0.537	0.547	
16.610	0.547	0.567	
16.615	0.415	0.567	
16.620	0.318	0.541	
16.625	0.241	0.487	
16.630	0.146	0.415	
16.635	0.050	0.330	
16.640	-0.034	0.237	
16.645	-0.075	0.143	
16.650	-0.084	0.058	
16.655	-0.121	-0.011	
16.660	-0.132	-0.064	
16.665	-0.135	-0.102	
16.670	-0.165	-0.129	
16.675	-0.132	-0.145	
16.680	-0.132	-0.152	
16.685	-0.098	-0.151	
16.690	-0.078	-0.141	
16.695	-0.046	-0.124	
16.700	-0.083	-0.104	
16.705	-0.084	-0.089	
16.710	0.003	-0.077	
16.715	0.052	-0.058	
16.720	-0.002	-0.033	
16.725	0.030	-0.011	
16.730	0.000	0.005	
16.735	-0.016	0.012	
16.740	-0.046	0.010	
16.745	-0.061	-0.001	
16.750	-0.060	-0.016	
16.755	-0.086	-0.033	
16.760	-0.098	-0.051	
16.765	-0.116	-0.068	
16.770	-0.130	-0.086	
16.775	-0.148	-0.103	
16.780	-0.150	-0.119	
16.785	-0.136	-0.132	
16.790	-0.084	-0.137	
16.795	-0.069	-0.132	
16.800	-0.110	-0.120	
16.805	-0.135	-0.112	
16.810	-0.107	-0.110	
16.815	-0.109	-0.109	
16.820	-0.032	-0.106	
16.825	0.119	-0.087	
16.830	0.163	-0.044	
16.835	0.033	0.007	
16.840	-0.097	0.037	
16.845	-0.153	0.030	
16.850	-0.136	-0.003	
16.855	-0.116	-0.044	
16.860	-0.052	-0.076	
16.865	-0.023	-0.088	
16.870	0.009	-0.082	
16.875	0.044	-0.063	
16.880	0.079	-0.033	
16.885	0.053	-0.001	
16.890	0.065	0.027	
16.895	0.050	0.046	
16.900	0.076	0.059	
16.905	0.133	0.069	
16.910	0.214	0.087	
16.915	0.162	0.113	
16.920	0.067	0.133	
16.925	0.171	0.140	
16.930	0.203	0.145	
16.935	0.208	0.158	
16.940	0.275	0.176	
16.945	0.328	0.202	
16.950	0.339	0.237	
16.955	0.417	0.275	
16.960	0.466	0.319	
16.965	0.421	0.364	
16.970	0.414	0.398	
16.975	0.499	0.422	
16.980	0.444	0.441	
16.985	0.386	0.451	
16.990	0.316	0.444	
16.995	0.276	0.418	
17.000	0.166	0.376	
17.005	0.056	0.316	
17.010	-0.008	0.241	
17.015	-0.090	0.158	
17.020	-0.132	0.072	
17.025	-0.124	-0.005	
17.030	-0.170	-0.067	
17.035	-0.127	-0.113	
17.040	-0.090	-0.138	
17.045	-0.090	-0.143	
17.050	-0.126	-0.138	
17.055	-0.095	-0.130	
17.060	-0.014	-0.117	
17.065	0.050	-0.093	
17.070	0.133	-0.053	
17.075	0.255	0.002	
17.080	0.308	0.073	
17.085	0.318	0.149	
17.090	0.336	0.218	
17.095	0.351	0.274	
17.100	0.505	0.322	
17.105	0.632	0.378	
17.110	0.728	0.451	
17.115	0.770	0.536	
17.120	0.710	0.616	
17.125	0.615	0.671	
17.130	0.620	0.693	
17.135	0.519	0.685	
17.140	0.475	0.653	
17.145	0.411	0.604	
17.150	0.350	0.544	
17.155	0.279	0.478	
17.160	0.253	0.411	
17.165	0.185	0.347	
17.170	0.111	0.285	
17.175	0.073	0.225	
17.180	-0.025	0.164	
17.185	-0.089	0.101	
17.190	-0.013	0.041	
17.195	0.160	0.007	
17.200	0.340	0.018	
17.205	0.411	0.078	
17.210	0.224	0.157	
17.215	-0.043	0.205	
17.220	-0.113	0.192	
17.225	-0.084	0.133	
17.230	-0.072	0.064	
17.235	-0.095	0.003	
17.240	-0.025	-0.041	
17.245	-0.014	-0.062	
17.250	-0.037	-0.065	
17.255	-0.045	-0.061	
17.260	-0.022	-0.054	
17.265	-0.051	-0.047	
17.270	-0.020	-0.042	
17.275	0.033	-0.034	
17.280	0.030	-0.020	
17.285	0.038	-0.004	
17.290	0.027	0.011	
17.295	0.042	0.023	
17.300	0.062	0.032	
17.305	0.093	0.043	
17.310	0.114	0.057	
17.315	0.093	0.073	
17.320	0.131	0.087	
17.325	0.263	0.106	
17.330	0.293	0.140	
17.335	0.319	0.185	
17.340	0.356	0.232	
17.345	0.356	0.276	
17.350	0.316	0.311	
17.355	0.307	0.330	
17.360	0.318	0.336	
17.365	0.206	0.330	
17.370	0.061	0.303	
17.375	0.035	0.250	
17.380	-0.077	0.181	
17.385	-0.194	0.099	
17.390	-0.252	0.007	
17.395	-0.330	-0.087	
17.400	-0.344	-0.175	
17.405	-0.329	-0.248	
17.410	-0.283	-0.298	
17.415	-0.309	-0.323	
17.420	-0.321	-0.332	
17.425	-0.287	-0.332	
17.430	-0.284	-0.325	
17.435	-0.294	-0.315	
17.440	-0.272	-0.305	
17.445	-0.252	-0.294	
17.450	-0.251	-0.281	
17.455	-0.263	-0.270	
17.460	-0.228	-0.261	
17.465	-0.213	-0.252	
17.470	-0.223	-0.241	
17.475	-0.179	-0.230	
17.480	-0.165	-0.216	
17.485	-0.182	-0.202	
17.490	-0.208	-0.191	
17.495	-0.219	-0.189	
17.500	-0.252	-0.194	
17.505	-0.284	-0.207	
17.510	-0.278	-0.226	
17.515	-0.298	-0.246	
17.520	-0.318	-0.266	
17.525	-0.265	-0.282	
17.530	-0.243	-0.288	
17.535	-0.269	-0.285	
17.540	-0.260	-0.279	
17.545	-0.252	-0.272	
17.550	-0.278	-0.267	
17.555	-0.321	-0.267	
17.560	-0.265	-0.273	
17.565	-0.171	-0.272	
17.570	0.032	-0.248	
17.575	0.191	-0.187	
17.580	0.142	-0.097	
17.585	-0.107	-0.017	
17.590	-0.251	0.010	
17.595	-0.280	-0.020	
17.600	-0.232	-0.079	
17.605	-0.207	-0.137	
17.610	-0.184	-0.179	
17.615	-0.171	-0.201	
17.620	-0.162	-0.206	
17.625	-0.139	-0.200	
17.630	-0.136	-0.187	
17.635	-0.104	-0.170	
17.640	-0.071	-0.149	
17.645	-0.043	-0.125	
17.650	-0.028	-0.098	
17.655	-0.028	-0.073	
17.660	0.032	-0.049	
17.665	0.006	-0.027	
17.670	-0.026	-0.010	
17.675	0.075	0.001	
17.680	0.142	0.019	
17.685	0.162	0.048	
17.690	0.246	0.086	
17.695	0.278	0.132	
17.700	0.350	0.183	
17.705	0.402	0.238	
17.710	0.458	0.296	
17.715	0.498	0.353	
17.720	0.528	0.408	
17.725	0.545	0.456	
17.730	0.461	0.492	
17.735	0.351	0.502	
17.740	0.227	0.479	
17.745	0.140	0.423	
17.750	0.055	0.343	
17.755	-0.008	0.252	
17.760	-0.063	0.159	
17.765	-0.136	0.072	
17.770	-0.210	-0.009	
17.775	-0.236	-0.084	
17.780	-0.240	-0.148	
17.785	-0.242	-0.196	
17.790	-0.216	-0.227	
17.795	-0.214	-0.241	
17.800	-0.229	-0.244	
17.805	-0.211	-0.241	
17.810	-0.222	-0.235	
17.815	-0.202	-0.229	
17.820	-0.193	-0.221	
17.825	-0.133	-0.210	
17.830	-0.127	-0.192	
17.835	-0.124	-0.172	
17.840	-0.129	-0.154	
17.845	-0.110	-0.139	
17.850	-0.112	-0.127	
17.855	-0.107	-0.118	
17.860	-0.107	-0.112	
17.865	-0.133	-0.109	
17.870	-0.184	-0.114	
17.875	-0.173	-0.126	
17.880	-0.181	-0.141	
17.885	-0.228	-0.158	
17.890	-0.216	-0.176	
17.895	-0.199	-0.192	
17.900	-0.211	-0.203	
17.905	-0.203	-0.209	
17.910	-0.167	-0.209	
17.915	-0.165	-0.203	
17.920	-0.177	-0.194	
17.925	-0.181	-0.186	
17.930	-0.200	-0.182	
17.935	-0.193	-0.182	
17.940	-0.005	-0.176	
17.945	0.351	-0.133	
17.950	0.518	-0.032	
17.955	0.492	0.111	
17.960	0.160	0.237	
17.965	-0.086	0.289	
17.970	-0.210	0.251	
17.975	-0.188	0.154	
17.980	-0.133	0.045	
17.985	-0.118	-0.044	
17.990	-0.074	-0.100	
17.995	-0.057	-0.123	
18.000	-0.045	-0.123	
18.005	-0.057	-0.110	
18.010	-0.020	-0.091	
18.015	0.013	-0.069	
18.020	0.038	-0.043	
18.025	0.133	-0.012	
18.030	0.146	0.026	
18.035	0.122	0.065	
18.040	0.120	0.096	
18.045	0.139	0.117	
18.050	0.180	0.132	
18.055	0.259	0.150	
18.060	0.345	0.179	
18.065	0.426	0.224	
18.070	0.533	0.285	
18.075	0.638	0.360	
18.080	0.683	0.446	
18.085	0.724	0.531	
18.090	0.767	0.609	
18.095	0.777	0.675	
18.100	0.684	0.721	
18.105	0.629	0.739	
18.110	0.618	0.730	
18.115	0.519	0.700	
18.120	0.307	0.647	
18.125	0.244	0.565	
18.130	0.136	0.464	
18.135	0.010	0.352	
18.140	-0.038	0.238	
18.145	-0.106	0.130	
18.150	-0.155	0.034	
18.155	-0.170	-0.046	
18.160	-0.145	-0.107	
18.165	-0.176	-0.146	
18.170	-0.252	-0.173	
18.175	-0.223	-0.196	
18.180	-0.249	-0.215	
18.185	-0.251	-0.230	
18.190	-0.248	-0.240	
18.195	-0.200	-0.245	
18.200	-0.144	-0.239	
18.205	-0.121	-0.220	
18.210	-0.063	-0.190	
18.215	-0.060	-0.155	
18.220	-0.090	-0.122	
18.225	-0.034	-0.095	
18.230	-0.013	-0.073	
18.235	-0.072	-0.054	
18.240	-0.107	-0.047	
18.245	-0.136	-0.055	
18.250	-0.155	-0.073	
18.255	-0.184	-0.097	
18.260	-0.156	-0.123	
18.265	-0.168	-0.143	
18.270	-0.181	-0.158	
18.275	-0.203	-0.170	
18.280	-0.275	-0.184	
18.285	-0.327	-0.207	
18.290	-0.368	-0.240	
18.295	-0.430	-0.281	
18.300	-0.556	-0.331	
18.305	-0.595	-0.394	
18.310	-0.599	-0.460	
18.315	-0.562	-0.516	
18.320	-0.483	-0.550	
18.325	-0.408	-0.555	
18.330	-0.404	-0.533	
18.335	-0.503	-0.504	
18.340	-0.598	-0.489	
18.345	-0.585	-0.496	
18.350	-0.527	-0.515	
18.355	-0.440	-0.525	
18.360	-0.327	-0.513	
18.365	-0.284	-0.476	
18.370	-0.248	-0.423	
18.375	-0.199	-0.364	
18.380	-0.190	-0.306	
18.385	-0.141	-0.254	
18.390	-0.078	-0.207	
18.395	-0.011	-0.160	
18.400	-0.002	-0.112	
18.405	0.041	-0.067	
18.410	0.119	-0.023	
18.415	0.157	0.023	
18.420	0.110	0.066	
18.425	0.134	0.099	
18.430	0.169	0.122	
18.435	0.171	0.141	
18.440	0.175	0.155	
18.445	0.148	0.165	
18.450	0.116	0.166	
18.455	0.105	0.159	
18.460	0.249	0.152	
18.465	0.227	0.159	
18.470	0.221	0.176	
18.475	0.230	0.193	
18.480	0.194	0.206	
18.485	0.157	0.211	
18.490	0.130	0.203	
18.495	0.053	0.184	
18.500	-0.026	0.150	
18.505	-0.077	0.102	
18.510	-0.077	0.048	
18.515	-0.132	-0.004	
18.520	-0.152	-0.052	
18.525	-0.121	-0.091	
18.530	-0.165	-0.120	
18.535	-0.182	-0.141	
18.540	-0.153	-0.157	
18.545	-0.171	-0.166	
18.550	-0.165	-0.170	
18.555	-0.145	-0.171	
18.560	-0.116	-0.166	
18.565	-0.101	-0.155	
18.570	-0.086	-0.140	
18.575	-0.064	-0.122	
18.580	-0.080	-0.104	
18.585	-0.035	-0.088	
18.590	0.020	-0.070	
18.595	-0.022	-0.049	
18.600	-0.009	-0.031	
18.605	0.004	-0.018	
18.610	0.032	-0.007	
18.615	0.023	0.004	
18.620	-0.003	0.012	
18.625	0.058	0.017	
18.630	-0.031	0.020	
18.635	-0.075	0.014	
18.640	-0.046	-0.002	
18.645	0.009	-0.016	
18.650	0.009	-0.022	
18.655	-0.028	-0.020	
18.660	0.012	-0.017	
18.665	0.010	-0.013	
18.670	0.030	-0.005	
18.675	0.075	0.006	
18.680	0.018	0.020	
18.685	-0.031	0.027	
18.690	0.119	0.028	
18.695	0.313	0.048	
18.700	0.351	0.099	
18.705	0.331	0.168	
18.710	0.198	0.227	
18.715	-0.003	0.248	
18.720	-0.097	0.216	
18.725	-0.058	0.149	
18.730	0.047	0.081	
18.735	0.122	0.040	
18.740	0.217	0.036	
18.745	0.223	0.063	
18.750	0.214	0.105	
18.755	0.243	0.148	
18.760	0.282	0.187	
18.765	0.235	0.219	
18.770	0.272	0.242	
18.775	0.351	0.261	
18.780	0.379	0.284	
18.785	0.316	0.309	
18.790	0.347	0.327	
18.795	0.321	0.337	
18.800	0.325	0.340	
18.805	0.403	0.342	
18.810	0.408	0.351	
18.815	0.400	0.365	
18.820	0.398	0.379	
18.825	0.482	0.393	
18.830	0.557	0.416	
18.835	0.605	0.452	
18.840	0.660	0.499	
18.845	0.657	0.548	
18.850	0.542	0.588	
18.855	0.505	0.602	
18.860	0.505	0.593	
18.865	0.423	0.569	
18.870	0.281	0.527	
18.875	0.238	0.466	
18.880	0.136	0.391	
18.885	0.032	0.307	
18.890	-0.008	0.218	
18.895	-0.049	0.132	
18.900	-0.092	0.057	
18.905	-0.087	-0.006	
18.910	-0.077	-0.051	
18.915	-0.124	-0.081	
18.920	-0.115	-0.101	
18.925	-0.071	-0.112	
18.930	-0.068	-0.111	
18.935	-0.078	-0.104	
18.940	-0.032	-0.093	
18.945	-0.034	-0.078	
18.950	-0.006	-0.062	
18.955	0.023	-0.043	
18.960	0.085	-0.020	
18.965	0.058	0.006	
18.970	-0.014	0.027	
18.975	0.055	0.036	
18.980	0.035	0.040	
18.985	-0.008	0.040	
18.990	0.009	0.034	
18.995	-0.013	0.024	
19.000	-0.087	0.010	
19.005	-0.104	-0.012	
19.010	-0.055	-0.037	
19.015	-0.081	-0.056	
19.020	-0.026	-0.066	
19.025	0.061	-0.062	
19.030	0.058	-0.042	
19.035	0.067	-0.013	
19.040	0.108	0.018	
19.045	0.064	0.045	
19.050	-0.002	0.061	
19.055	0.010	0.061	
19.060	0.020	0.052	
19.065	0.136	0.046	
19.070	0.232	0.059	
19.075	0.340	0.098	
19.080	0.226	0.151	
19.085	-0.002	0.186	
19.090	-0.061	0.176	
19.095	-0.066	0.130	
19.100	-0.046	0.072	
19.105	-0.006	0.023	
19.110	0.044	-0.006	
19.115	0.061	-0.013	
19.120	0.084	-0.002	
19.125	0.175	0.022	
19.130	0.136	0.056	
19.135	0.059	0.086	
19.140	0.145	0.103	
19.145	0.191	0.117	
19.150	0.166	0.135	
19.155	0.163	0.150	
19.160	0.243	0.164	
19.165	0.253	0.182	
19.170	0.250	0.203	
19.175	0.284	0.224	
19.180	0.290	0.244	
19.185	0.255	0.261	
19.190	0.376	0.275	
19.195	0.539	0.302	
19.200	0.756	0.362	
19.205	0.956	0.463	
19.210	1.107	0.602	
19.215	1.165	0.759	
19.220	1.197	0.910	
19.225	1.231	1.037	
19.230	1.179	1.132	
19.235	1.063	1.184	
19.240	1.057	1.192	
19.245	0.832	1.162	
19.250	0.631	1.087	
19.255	0.530	0.970	
19.260	0.434	0.832	
19.265	0.281	0.688	
19.270	0.172	0.544	
19.275	0.127	0.407	
19.280	0.050	0.287	
19.285	-0.005	0.185	
19.290	0.056	0.105	
19.295	0.059	0.054	
19.300	0.065	0.030	
19.305	0.065	0.025	
19.310	0.064	0.029	
19.315	0.050	0.037	
19.320	0.084	0.046	
19.325	0.139	0.058	
19.330	0.061	0.073	
19.335	0.023	0.080	
19.340	0.073	0.077	
19.345	0.075	0.072	
19.350	0.070	0.070	
19.355	0.085	0.070	
19.360	0.116	0.074	
19.365	0.042	0.078	
19.370	-0.017	0.075	
19.375	0.039	0.061	
19.380	-0.016	0.045	
19.385	-0.106	0.025	
19.390	-0.090	-0.005	
19.395	-0.069	-0.035	
19.400	-0.106	-0.058	
19.405	-0.118	-0.078	
19.410	-0.095	-0.093	
19.415	-0.103	-0.102	
19.420	-0.113	-0.107	
19.425	-0.118	-0.110	
19.430	-0.156	-0.115	
19.435	-0.185	-0.124	
19.440	-0.104	-0.135	
19.445	0.006	-0.133	
19.450	0.110	-0.107	
19.455	0.174	-0.056	
19.460	0.035	0.002	
19.465	-0.138	0.035	
19.470	-0.167	0.026	
19.475	-0.152	-0.012	
19.480	-0.126	-0.056	
19.485	-0.109	-0.091	
19.490	-0.040	-0.109	
19.495	-0.034	-0.108	
19.500	-0.064	-0.095	
19.505	-0.057	-0.082	
19.510	-0.072	-0.072	
19.515	-0.115	-0.068	
19.520	-0.103	-0.072	
19.525	-0.066	-0.079	
19.530	-0.055	-0.081	
19.535	-0.080	-0.079	
19.540	-0.023	-0.074	
19.545	-0.020	-0.065	
19.550	-0.034	-0.053	
19.555	0.012	-0.041	
19.560	0.065	-0.025	
19.565	0.053	-0.003	
19.570	0.094	0.020	
19.575	0.220	0.049	
19.580	0.246	0.091	
19.585	0.240	0.138	
19.590	0.339	0.185	
19.595	0.328	0.231	
19.600	0.295	0.271	
19.605	0.292	0.296	
19.610	0.244	0.306	
19.615	0.108	0.295	
19.620	0.026	0.258	
19.625	-0.016	0.198	
19.630	-0.089	0.128	
19.635	-0.161	0.054	
19.640	-0.170	-0.020	
19.645	-0.237	-0.086	
19.650	-0.263	-0.145	
19.655	-0.263	-0.194	
19.660	-0.251	-0.231	
19.665	-0.280	-0.254	
19.670	-0.277	-0.269	
19.675	-0.246	-0.277	
19.680	-0.245	-0.276	
19.685	-0.239	-0.270	
19.690	-0.174	-0.258	
19.695	-0.179	-0.240	
19.700	-0.174	-0.220	
19.705	-0.148	-0.200	
19.710	-0.110	-0.181	
19.715	-0.087	-0.159	
19.720	-0.150	-0.139	
19.725	-0.101	-0.126	
19.730	-0.092	-0.117	
19.735	-0.152	-0.111	
19.740	-0.141	-0.112	
19.745	-0.177	-0.120	
19.750	-0.252	-0.137	
19.755	-0.283	-0.164	
19.760	-0.278	-0.198	
19.765	-0.272	-0.229	
19.770	-0.301	-0.254	
19.775	-0.263	-0.272	
19.780	-0.268	-0.281	
19.785	-0.298	-0.284	
19.790	-0.255	-0.285	
19.795	-0.266	-0.282	
19.800	-0.303	-0.279	
19.805	-0.287	-0.280	
19.810	-0.265	-0.281	
19.815	-0.171	-0.275	
19.820	0.017	-0.249	
19.825	0.198	-0.187	
19.830	0.145	-0.097	
19.835	-0.106	-0.017	
19.840	-0.219	0.013	
19.845	-0.252	-0.012	
19.850	-0.242	-0.066	
19.855	-0.181	-0.123	
19.860	-0.152	-0.163	
19.865	-0.135	-0.181	
19.870	-0.092	-0.180	
19.875	-0.029	-0.163	
19.880	-0.040	-0.133	
19.885	-0.083	-0.102	
19.890	-0.043	-0.080	
19.895	-0.040	-0.064	
19.900	-0.026	-0.051	
19.905	0.075	-0.036	
19.910	0.140	-0.010	
19.915	0.130	0.027	
19.920	0.178	0.067	
19.925	0.246	0.108	
19.930	0.177	0.147	
19.935	0.240	0.178	
19.940	0.414	0.210	
19.945	0.432	0.256	
19.950	0.467	0.312	
19.955	0.562	0.371	
19.960	0.606	0.433	
19.965	0.618	0.494	
19.970	0.672	0.549	
19.975	0.678	0.596	
19.980	0.614	0.631	
19.985	0.505	0.643	
19.990	0.505	0.629	
19.995	0.359	0.592	
20.000	0.117	0.527	
20.005	0.046	0.427	
20.010	0.012	0.309	
20.015	-0.092	0.193	
20.020	-0.130	0.086	
20.025	-0.133	-0.004	
20.030	-0.196	-0.075	
20.035	-0.207	-0.130	
20.040	-0.187	-0.170	
20.045	-0.199	-0.194	
20.050	-0.236	-0.208	
20.055	-0.188	-0.216	
20.060	-0.139	-0.215	
20.065	-0.138	-0.202	
20.070	-0.122	-0.184	
20.075	-0.061	-0.161	
20.080	-0.081	-0.135	
20.085	-0.068	-0.111	
20.090	-0.040	-0.091	
20.095	-0.086	-0.074	
20.100	-0.101	-0.067	
20.105	-0.064	-0.068	
20.110	-0.066	-0.069	
20.115	-0.118	-0.071	
20.120	-0.147	-0.080	
20.125	-0.118	-0.094	
20.130	-0.148	-0.108	
20.135	-0.182	-0.123	
20.140	-0.121	-0.136	
20.145	-0.133	-0.144	
20.150	-0.145	-0.145	
20.155	-0.095	-0.143	
20.160	-0.113	-0.137	
20.165	-0.141	-0.129	
20.170	-0.126	-0.126	
20.175	-0.126	-0.125	
20.180	-0.171	-0.127	
20.185	-0.138	-0.132	
20.190	0.058	-0.128	
20.195	0.371	-0.087	
20.200	0.467	0.008	
20.205	0.486	0.136	
20.210	0.133	0.246	
20.215	-0.115	0.284	
20.220	-0.136	0.240	
20.225	-0.090	0.152	
20.230	-0.083	0.062	
20.235	-0.086	-0.009	
20.240	-0.005	-0.055	
20.245	0.001	-0.071	
20.250	0.003	-0.066	
20.255	0.064	-0.048	
20.260	0.128	-0.019	
20.265	0.130	0.020	
20.270	0.163	0.061	
20.275	0.214	0.101	
20.280	0.214	0.139	
20.285	0.238	0.172	
20.290	0.327	0.204	
20.295	0.314	0.238	
20.300	0.301	0.268	
20.305	0.357	0.292	
20.310	0.389	0.315	
20.315	0.427	0.340	
20.320	0.521	0.371	
20.325	0.612	0.414	
20.330	0.588	0.466	
20.335	0.655	0.519	
20.340	0.701	0.569	
20.345	0.741	0.617	
20.350	0.735	0.662	
20.355	0.797	0.700	
20.360	0.814	0.735	
20.365	0.710	0.761	
20.370	0.637	0.766	
20.375	0.641	0.748	
20.380	0.505	0.713	
20.385	0.356	0.657	
20.390	0.266	0.577	
20.395	0.171	0.479	
20.400	0.047	0.373	
20.405	0.047	0.267	
20.410	-0.019	0.171	
20.415	-0.058	0.090	
20.420	-0.045	0.025	
20.425	-0.028	-0.019	
20.430	-0.054	-0.045	
20.435	-0.093	-0.060	
20.440	-0.061	-0.070	
20.445	-0.060	-0.075	
20.450	-0.064	-0.075	
20.455	-0.064	-0.072	
20.460	-0.069	-0.070	
20.465	-0.087	-0.069	
20.470	-0.107	-0.072	
20.475	-0.077	-0.078	
20.480	-0.097	-0.083	
20.485	-0.107	-0.087	
20.490	-0.084	-0.092	
20.495	-0.158	-0.097	
20.500	-0.216	-0.110	
20.505	-0.202	-0.133	
20.510	-0.229	-0.158	
20.515	-0.297	-0.186	
20.520	-0.263	-0.215	
20.525	-0.208	-0.238	
20.530	-0.161	-0.243	
20.535	-0.150	-0.233	
20.540	-0.097	-0.210	
20.545	-0.104	-0.181	
20.550	-0.148	-0.154	
20.555	-0.112	-0.136	
20.560	-0.068	-0.122	
20.565	-0.003	-0.105	
20.570	0.217	-0.070	
20.575	0.334	-0.005	
20.580	0.204	0.078	
20.585	-0.110	0.134	
20.590	-0.194	0.127	
20.595	-0.225	0.067	
20.600	-0.203	-0.014	
20.605	-0.145	-0.087	
20.610	-0.100	-0.135	
20.615	-0.087	-0.153	
20.620	-0.026	-0.148	
20.625	0.021	-0.123	
20.630	0.009	-0.087	
20.635	-0.037	-0.053	
20.640	0.003	-0.030	
20.645	-0.025	-0.015	
20.650	-0.026	-0.009	
20.655	0.015	-0.007	
20.660	0.055	-0.002	
20.665	0.049	0.009	
20.670	0.044	0.022	
20.675	0.033	0.032	
20.680	0.036	0.038	
20.685	0.072	0.042	
20.690	0.209	0.054	
20.695	0.208	0.082	
20.700	0.177	0.118	
20.705	0.171	0.147	
20.710	0.061	0.162	
20.715	-0.026	0.151	
20.720	-0.109	0.113	
20.725	-0.196	0.054	
20.730	-0.249	-0.020	
20.735	-0.309	-0.099	
20.740	-0.341	-0.175	
20.745	-0.426	-0.246	
20.750	-0.558	-0.316	
20.755	-0.633	-0.392	
20.760	-0.724	-0.475	
20.765	-0.776	-0.560	
20.770	-0.786	-0.640	
20.775	-0.766	-0.704	
20.780	-0.760	-0.748	
20.785	-0.750	-0.772	
20.790	-0.695	-0.777	
20.795	-0.657	-0.766	
20.800	-0.631	-0.740	
20.805	-0.566	-0.706	
20.810	-0.526	-0.664	
20.815	-0.488	-0.618	
20.820	-0.439	-0.571	
20.825	-0.394	-0.524	
20.830	-0.367	-0.477	
20.835	-0.359	-0.435	
20.840	-0.309	-0.398	
20.845	-0.263	-0.364	
20.850	-0.240	-0.329	
20.855	-0.220	-0.296	
20.860	-0.207	-0.266	
20.865	-0.208	-0.241	
20.870	-0.179	-0.221	
20.875	-0.155	-0.204	
20.880	-0.158	-0.188	
20.885	-0.185	-0.175	
20.890	-0.153	-0.168	
20.895	-0.115	-0.162	
20.900	-0.100	-0.151	
20.905	-0.042	-0.134	
20.910	-0.051	-0.112	
20.915	-0.069	-0.090	
20.920	-0.054	-0.074	
20.925	-0.086	-0.064	
20.930	-0.122	-0.064	
20.935	-0.075	-0.071	
20.940	0.079	-0.070	
20.945	0.195	-0.044	
20.950	0.146	0.006	
20.955	0.065	0.054	
20.960	-0.029	0.080	
20.965	-0.097	0.073	
20.970	-0.101	0.042	
20.975	-0.045	0.003	
20.980	-0.017	-0.027	
20.985	0.032	-0.038	
20.990	0.140	-0.028	
20.995	0.223	0.006	
21.000	0.243	0.061	
21.005	0.273	0.121	
21.010	0.247	0.177	
21.015	0.273	0.219	
21.020	0.307	0.250	
21.025	0.382	0.278	
21.030	0.389	0.308	
21.035	0.362	0.336	
21.040	0.340	0.355	
21.045	0.380	0.364	
21.050	0.357	0.369	
21.055	0.463	0.375	
21.060	0.559	0.394	
21.065	0.582	0.430	
21.070	0.599	0.476	
21.075	0.666	0.523	
21.080	0.684	0.570	
21.085	0.664	0.613	
21.090	0.704	0.646	
21.095	0.712	0.672	
21.100	0.611	0.687	
21.105	0.530	0.681	
21.110	0.545	0.655	
21.115	0.426	0.615	
21.120	0.360	0.563	
21.125	0.328	0.502	
21.130	0.211	0.436	
21.135	0.117	0.363	
21.140	0.058	0.283	
21.145	0.007	0.203	
21.150	-0.037	0.128	
21.155	-0.032	0.062	
21.160	-0.035	0.013	
21.165	-0.054	-0.022	
21.170	-0.040	-0.043	
21.175	-0.040	-0.053	
21.180	-0.011	-0.055	
21.185	0.064	-0.045	
21.190	0.107	-0.022	
21.195	0.079	0.010	
21.200	0.050	0.038	
21.205	0.084	0.057	
21.210	0.065	0.069	
21.215	0.049	0.074	
21.220	0.070	0.074	
21.225	0.053	0.071	
21.230	0.026	0.066	
21.235	-0.003	0.056	
21.240	-0.002	0.042	
21.245	-0.048	0.024	
21.250	-0.052	0.004	
21.255	-0.034	-0.015	
21.260	-0.043	-0.029	
21.265	-0.042	-0.038	
21.270	-0.061	-0.044	
21.275	-0.055	-0.049	
21.280	-0.057	-0.053	
21.285	-0.064	-0.056	
21.290	-0.060	-0.058	
21.295	-0.087	-0.061	
21.300	-0.107	-0.067	
21.305	-0.072	-0.075	
21.310	-0.043	-0.079	
21.315	0.058	-0.070	
21.320	0.145	-0.043	
21.325	0.107	-0.001	
21.330	0.021	0.037	
21.335	-0.101	0.052	
21.340	-0.086	0.037	
21.345	-0.061	0.007	
21.350	-0.080	-0.022	
21.355	-0.025	-0.044	
21.360	0.039	-0.050	
21.365	0.042	-0.040	
21.370	0.039	-0.020	
21.375	0.061	0.002	
21.380	0.062	0.023	
21.385	0.093	0.042	
21.390	0.110	0.060	
21.395	0.073	0.075	
21.400	0.038	0.083	
21.405	0.154	0.085	
21.410	0.151	0.093	
21.415	0.159	0.109	
21.420	0.198	0.127	
21.425	0.247	0.149	
21.430	0.276	0.178	
21.435	0.215	0.206	
21.440	0.296	0.228	
21.445	0.395	0.252	
21.450	0.406	0.286	
21.455	0.524	0.330	
21.460	0.571	0.384	
21.465	0.545	0.442	
21.470	0.507	0.489	
21.475	0.476	0.516	
21.480	0.398	0.519	
21.485	0.359	0.501	
21.490	0.350	0.467	
21.495	0.250	0.424	
21.500	0.119	0.370	
21.505	0.024	0.298	
21.510	-0.031	0.214	
21.515	-0.051	0.130	
21.520	-0.031	0.056	
21.525	-0.052	0.002	
21.530	-0.089	-0.035	
21.535	-0.144	-0.064	
21.540	-0.115	-0.089	
21.545	-0.087	-0.106	
21.550	-0.100	-0.113	
21.555	-0.035	-0.111	
21.560	-0.002	-0.097	
21.565	-0.028	-0.075	
21.570	-0.019	-0.054	
21.575	-0.026	-0.038	
21.580	0.012	-0.026	
21.585	0.000	-0.015	
21.590	0.030	-0.005	
21.595	0.018	0.004	
21.600	-0.009	0.011	
21.605	-0.022	0.011	
21.610	-0.060	0.004	
21.615	-0.097	-0.011	
21.620	-0.081	-0.032	
21.625	-0.075	-0.052	
21.630	-0.084	-0.067	
21.635	-0.124	-0.078	
21.640	-0.107	-0.090	
21.645	-0.119	-0.100	
21.650	-0.122	-0.108	
21.655	-0.116	-0.115	
21.660	-0.141	-0.119	
21.665	-0.124	-0.124	
21.670	-0.109	-0.126	
21.675	-0.126	-0.125	
21.680	-0.153	-0.126	
21.685	-0.066	-0.126	
21.690	0.117	-0.110	
21.695	0.195	-0.065	
21.700	0.175	0.000	
21.705	0.084	0.061	
21.710	-0.049	0.094	
21.715	-0.119	0.086	
21.720	-0.072	0.050	
21.725	-0.020	0.010	
21.730	0.018	-0.016	
21.735	0.073	-0.022	
21.740	0.181	-0.005	
21.745	0.136	0.031	
21.750	0.101	0.068	
21.755	0.163	0.097	
21.760	0.149	0.120	
21.765	0.165	0.138	
21.770	0.183	0.152	
21.775	0.224	0.166	
21.780	0.200	0.180	
21.785	0.180	0.191	
21.790	0.183	0.195	
21.795	0.192	0.196	
21.800	0.209	0.195	
21.805	0.325	0.202	
21.810	0.412	0.227	
21.815	0.382	0.268	
21.820	0.446	0.314	
21.825	0.591	0.364	
21.830	0.647	0.427	
21.835	0.727	0.499	
21.840	0.786	0.576	
21.845	0.771	0.649	
21.850	0.722	0.706	
21.855	0.722	0.739	
21.860	0.643	0.749	
21.865	0.539	0.733	
21.870	0.469	0.691	
21.875	0.571	0.637	
21.880	0.649	0.597	
21.885	0.702	0.586	
21.890	0.765	0.603	
21.895	0.698	0.635	
21.900	0.596	0.661	
21.905	0.614	0.667	
21.910	0.589	0.658	
21.915	0.463	0.636	
21.920	0.443	0.599	
21.925	0.450	0.553	
21.930	0.383	0.508	
21.935	0.336	0.463	
21.940	0.318	0.420	
21.945	0.313	0.380	
21.950	0.279	0.346	
21.955	0.389	0.324	
21.960	0.340	0.318	
21.965	0.227	0.316	
21.970	0.124	0.299	
21.975	0.107	0.263	
21.980	0.024	0.213	
21.985	-0.061	0.153	
21.990	-0.074	0.088	
21.995	-0.113	0.025	
22.000	-0.165	-0.033	
22.005	-0.153	-0.082	
22.010	-0.150	-0.120	
22.015	-0.129	-0.143	
22.020	-0.119	-0.153	
22.025	-0.144	-0.153	
22.030	-0.190	-0.152	
22.035	-0.211	-0.158	
22.040	-0.168	-0.167	
22.045	-0.210	-0.176	
22.050	-0.287	-0.188	
22.055	-0.243	-0.207	
22.060	-0.181	-0.222	
22.065	-0.119	-0.222	
22.070	-0.052	-0.203	
22.075	-0.026	-0.167	
22.080	-0.164	-0.131	
22.085	-0.291	-0.119	
22.090	-0.287	-0.139	
22.095	-0.274	-0.175	
22.100	-0.248	-0.211	
22.105	-0.152	-0.232	
22.110	-0.142	-0.232	
22.115	-0.170	-0.217	
22.120	-0.118	-0.197	
22.125	-0.087	-0.174	
22.130	-0.162	-0.151	
22.135	-0.141	-0.138	
22.140	-0.083	-0.130	
22.145	-0.095	-0.121	
22.150	-0.130	-0.112	
22.155	-0.097	-0.109	
22.160	-0.090	-0.106	
22.165	-0.106	-0.102	
22.170	-0.071	-0.099	
22.175	-0.031	-0.092	
22.180	-0.019	-0.078	
22.185	-0.016	-0.061	
22.190	0.030	-0.042	
22.195	0.067	-0.020	
22.200	0.050	0.004	
22.205	0.185	0.032	
22.210	0.221	0.069	
22.215	0.177	0.112	
22.220	0.266	0.151	
22.225	0.292	0.188	
22.230	0.227	0.222	
22.235	0.099	0.236	
22.240	0.029	0.221	
22.245	-0.087	0.175	
22.250	-0.185	0.106	
22.255	-0.211	0.021	
22.260	-0.291	-0.066	
22.265	-0.346	-0.149	
22.270	-0.361	-0.224	
22.275	-0.371	-0.286	
22.280	-0.398	-0.333	
22.285	-0.381	-0.366	
22.290	-0.346	-0.384	
22.295	-0.341	-0.387	
22.300	-0.361	-0.381	
22.305	-0.320	-0.372	
22.310	-0.298	-0.359	
22.315	-0.327	-0.343	
22.320	-0.294	-0.330	
22.325	-0.252	-0.316	
22.330	-0.251	-0.299	
22.335	-0.217	-0.281	
22.340	-0.158	-0.259	
22.345	-0.141	-0.231	
22.350	-0.152	-0.202	
22.355	-0.145	-0.178	
22.360	-0.165	-0.161	
22.365	-0.184	-0.154	
22.370	-0.147	-0.153	
22.375	-0.171	-0.154	
22.380	-0.223	-0.159	
22.385	-0.236	-0.172	
22.390	-0.207	-0.188	
22.395	-0.239	-0.202	
22.400	-0.249	-0.215	
22.405	-0.194	-0.224	
22.410	-0.188	-0.226	
22.415	-0.208	-0.221	
22.420	-0.205	-0.215	
22.425	-0.203	-0.210	
22.430	-0.207	-0.207	
22.435	-0.119	-0.201	
22.440	0.146	-0.175	
22.445	0.293	-0.108	
22.450	0.290	-0.008	
22.455	0.091	0.087	
22.460	-0.113	0.134	
22.465	-0.182	0.118	
22.470	-0.162	0.059	
22.475	-0.072	-0.008	
22.480	-0.048	-0.055	
22.485	-0.020	-0.077	
22.490	-0.016	-0.079	
22.495	-0.017	-0.068	
22.500	0.030	-0.051	
22.505	0.130	-0.025	
22.510	0.162	0.013	
22.515	0.113	0.055	
22.520	0.159	0.091	
22.525	0.169	0.120	
22.530	0.143	0.141	
22.535	0.171	0.155	
22.540	0.247	0.166	
22.545	0.227	0.183	
22.550	0.230	0.200	
22.555	0.293	0.217	
22.560	0.305	0.237	
22.565	0.333	0.260	
22.570	0.458	0.289	
22.575	0.574	0.335	
22.580	0.585	0.396	
22.585	0.594	0.461	
22.590	0.667	0.521	
22.595	0.626	0.572	
22.600	0.533	0.604	
22.605	0.533	0.612	
22.610	0.400	0.595	
22.615	0.247	0.549	
22.620	0.215	0.477	
22.625	0.114	0.390	
22.630	-0.038	0.294	
22.635	-0.101	0.189	
22.640	-0.129	0.086	
22.645	-0.188	-0.006	
22.650	-0.236	-0.084	
22.655	-0.234	-0.148	
22.660	-0.232	-0.196	
22.665	-0.237	-0.226	
22.670	-0.193	-0.241	
22.675	-0.196	-0.241	
22.680	-0.219	-0.234	
22.685	-0.208	-0.226	
22.690	-0.164	-0.217	
22.695	-0.145	-0.204	
22.700	-0.165	-0.189	
22.705	-0.101	-0.173	
22.710	-0.107	-0.155	
22.715	-0.170	-0.140	
22.720	-0.104	-0.132	
22.725	-0.078	-0.125	
22.730	-0.103	-0.115	
22.735	-0.119	-0.108	
22.740	-0.116	-0.105	
22.745	-0.173	-0.109	
22.750	-0.222	-0.122	
22.755	-0.196	-0.144	
22.760	-0.223	-0.166	
22.765	-0.255	-0.188	
22.770	-0.226	-0.208	
22.775	-0.207	-0.222	
22.780	-0.223	-0.228	
22.785	-0.222	-0.229	
22.790	-0.152	-0.225	
22.795	-0.177	-0.214	
22.800	-0.205	-0.202	
22.805	-0.181	-0.194	
22.810	-0.150	-0.187	
22.815	-0.013	-0.172	
22.820	0.285	-0.128	
22.825	0.466	-0.035	
22.830	0.313	0.087	
22.835	-0.038	0.180	
22.840	-0.173	0.195	
22.845	-0.220	0.139	
22.850	-0.217	0.047	
22.855	-0.135	-0.043	
22.860	-0.133	-0.108	
22.865	-0.162	-0.146	
22.870	-0.087	-0.163	
22.875	-0.066	-0.160	
22.880	-0.066	-0.142	
22.885	-0.048	-0.118	
22.890	-0.016	-0.093	
22.895	-0.023	-0.068	
22.900	0.000	-0.046	
22.905	0.055	-0.025	
22.910	0.038	-0.004	
22.915	0.049	0.016	
22.920	0.163	0.036	
22.925	0.229	0.068	
22.930	0.201	0.108	
22.935	0.243	0.149	
22.940	0.343	0.189	
22.945	0.397	0.235	
22.950	0.449	0.287	
22.955	0.597	0.347	
22.960	0.576	0.415	
22.965	0.528	0.477	
22.970	0.612	0.523	
22.975	0.609	0.558	
22.980	0.464	0.578	
22.985	0.376	0.570	
22.990	0.391	0.534	
22.995	0.292	0.485	
23.000	0.379	0.434	
23.005	0.394	0.395	
23.010	0.279	0.370	
23.015	0.157	0.340	
23.020	0.128	0.296	
23.025	0.085	0.243	
23.030	-0.020	0.185	
23.035	-0.026	0.123	
23.040	0.009	0.067	
23.045	-0.031	0.025	
23.050	-0.052	-0.005	
23.055	-0.051	-0.027	
23.060	-0.083	-0.044	
23.065	-0.046	-0.056	
23.070	-0.014	-0.061	
23.075	-0.055	-0.058	
23.080	-0.109	-0.056	
23.085	-0.074	-0.061	
23.090	-0.035	-0.066	
23.095	-0.093	-0.067	
23.100	-0.136	-0.072	
23.105	-0.110	-0.083	
23.110	-0.118	-0.095	
23.115	-0.156	-0.106	
23.120	-0.147	-0.119	
23.125	-0.205	-0.134	
23.130	-0.257	-0.154	
23.135	-0.255	-0.180	
23.140	-0.262	-0.207	
23.145	-0.271	-0.231	
23.150	-0.309	-0.251	
23.155	-0.266	-0.268	
23.160	-0.268	-0.278	
23.165	-0.265	-0.281	
23.170	-0.240	-0.278	
23.175	-0.269	-0.272	
23.180	-0.298	-0.269	
23.185	-0.292	-0.271	
23.190	-0.232	-0.273	
23.195	-0.119	-0.265	
23.200	0.000	-0.233	
23.205	0.093	-0.176	
23.210	-0.093	-0.111	
23.215	-0.242	-0.074	
23.220	-0.262	-0.081	
23.225	-0.266	-0.117	
23.230	-0.243	-0.161	
23.235	-0.182	-0.196	
23.240	-0.136	-0.211	
23.245	-0.113	-0.206	
23.250	-0.122	-0.188	
23.255	-0.095	-0.165	
23.260	-0.080	-0.142	
23.265	-0.071	-0.119	
23.270	-0.026	-0.097	
23.275	-0.013	-0.075	
23.280	-0.095	-0.057	
23.285	-0.049	-0.049	
23.290	-0.003	-0.045	
23.295	0.041	-0.036	
23.300	0.055	-0.018	
23.305	0.099	0.005	
23.310	0.110	0.032	
23.315	0.090	0.059	
23.320	0.180	0.082	
23.325	0.241	0.111	
23.330	0.331	0.150	
23.335	0.432	0.203	
23.340	0.460	0.268	
23.345	0.432	0.333	
23.350	0.351	0.381	
23.355	0.402	0.405	
23.360	0.395	0.413	
23.365	0.220	0.406	
23.370	0.194	0.376	
23.375	0.061	0.322	
23.380	-0.077	0.247	
23.385	-0.188	0.152	
23.390	-0.252	0.044	
23.395	-0.332	-0.064	
23.400	-0.410	-0.167	
23.405	-0.426	-0.259	
23.410	-0.456	-0.336	
23.415	-0.472	-0.395	
23.420	-0.442	-0.437	
23.425	-0.439	-0.459	
23.430	-0.451	-0.467	
23.435	-0.436	-0.467	
23.440	-0.385	-0.459	
23.445	-0.368	-0.443	
23.450	-0.384	-0.423	
23.455	-0.370	-0.405	
23.460	-0.373	-0.390	
23.465	-0.370	-0.379	
23.470	-0.320	-0.370	
23.475	-0.364	-0.361	
23.480	-0.404	-0.356	
23.485	-0.408	-0.361	
23.490	-0.358	-0.370	
23.495	-0.378	-0.375	
23.500	-0.390	-0.378	
23.505	-0.352	-0.379	
23.510	-0.368	-0.377	
23.515	-0.413	-0.376	
23.520	-0.378	-0.378	
23.525	-0.330	-0.379	
23.530	-0.338	-0.373	
23.535	-0.341	-0.363	
23.540	-0.295	-0.352	
23.545	-0.277	-0.337	
23.550	-0.214	-0.317	
23.555	-0.145	-0.288	
23.560	-0.176	-0.252	
23.565	-0.182	-0.219	
23.570	-0.087	-0.191	
23.575	0.064	-0.156	
23.580	0.191	-0.099	
23.585	0.238	-0.021	
23.590	0.105	0.056	
23.595	-0.078	0.101	
23.600	-0.156	0.095	
23.605	-0.136	0.050	
23.610	-0.035	-0.003	
23.615	0.067	-0.034	
23.620	0.194	-0.030	
23.625	0.249	0.010	
23.630	0.275	0.072	
23.635	0.295	0.140	
23.640	0.276	0.200	
23.645	0.292	0.245	
23.650	0.302	0.276	
23.655	0.350	0.297	
23.660	0.292	0.313	
23.665	0.302	0.320	
23.670	0.362	0.322	
23.675	0.411	0.330	
23.680	0.395	0.346	
23.685	0.424	0.365	
23.690	0.504	0.388	
23.695	0.573	0.420	
23.700	0.638	0.464	
23.705	0.704	0.517	
23.710	0.706	0.575	
23.715	0.712	0.628	
23.720	0.796	0.673	
23.725	0.826	0.715	
23.730	0.771	0.753	
23.735	0.670	0.772	
23.740	0.594	0.764	
23.745	0.501	0.728	
23.750	0.507	0.673	
23.755	0.489	0.614	
23.760	0.383	0.558	
23.765	0.230	0.496	
23.770	0.240	0.424	
23.775	0.124	0.349	
23.780	0.059	0.273	
23.785	0.047	0.198	
23.790	0.038	0.134	
23.795	-0.008	0.083	
23.800	-0.020	0.042	
23.805	0.023	0.014	
23.810	0.013	-0.001	
23.815	-0.003	-0.006	
23.820	0.065	-0.004	
23.825	0.151	0.010	
23.830	0.120	0.038	
23.835	0.146	0.070	
23.840	0.208	0.101	
23.845	0.258	0.135	
23.850	0.166	0.168	
23.855	0.220	0.191	
23.860	0.221	0.205	
23.865	0.172	0.213	
23.870	0.180	0.211	
23.875	0.111	0.202	
23.880	0.061	0.181	
23.885	0.050	0.150	
23.890	-0.017	0.114	
23.895	-0.003	0.076	
23.900	0.007	0.042	
23.905	0.059	0.021	
23.910	0.020	0.014	
23.915	-0.005	0.012	
23.920	0.036	0.011	
23.925	0.021	0.012	
23.930	0.023	0.016	
23.935	0.090	0.021	
23.940	0.110	0.035	
23.945	0.067	0.052	
23.950	0.084	0.066	
23.955	0.285	0.085	
23.960	0.434	0.129	
23.965	0.405	0.198	
23.970	0.382	0.271	
23.975	0.243	0.322	
23.980	0.052	0.330	
23.985	0.027	0.290	
23.990	0.122	0.227	
23.995	0.152	0.174	
24.000	0.175	0.144	
24.005	0.259	0.137	
24.010	0.240	0.152	
24.015	0.189	0.174	
24.020	0.285	0.194	
24.025	0.243	0.215	
24.030	0.246	0.232	
24.035	0.264	0.244	
24.040	0.229	0.251	
24.045	0.258	0.253	
24.050	0.295	0.256	
24.055	0.325	0.264	
24.060	0.288	0.276	
24.065	0.279	0.285	
24.070	0.353	0.293	
24.075	0.414	0.307	
24.080	0.440	0.332	
24.085	0.400	0.361	
24.090	0.498	0.389	
24.095	0.599	0.423	
24.100	0.609	0.468	
24.105	0.652	0.518	
24.110	0.609	0.563	
24.115	0.576	0.594	
24.120	0.516	0.605	
24.125	0.405	0.591	
24.130	0.369	0.554	
24.135	0.284	0.499	
24.140	0.220	0.433	
24.145	0.145	0.361	
24.150	0.073	0.286	
24.155	0.059	0.212	
24.160	0.018	0.147	
24.165	-0.008	0.091	
24.170	0.007	0.048	
24.175	0.003	0.018	
24.180	-0.025	-0.001	
24.185	-0.020	-0.013	
24.190	-0.043	-0.021	
24.195	0.024	-0.025	
24.200	0.032	-0.021	
24.205	0.079	-0.007	
24.210	0.240	0.021	
24.215	0.400	0.075	
24.220	0.644	0.165	
24.225	0.739	0.291	
24.230	0.762	0.433	
24.235	0.765	0.562	
24.240	0.802	0.665	
24.245	0.816	0.739	
24.250	0.808	0.789	
24.255	0.712	0.813	
24.260	0.628	0.807	
24.265	0.492	0.768	
24.270	0.435	0.702	
24.275	0.340	0.618	
24.280	0.276	0.527	
24.285	0.267	0.439	
24.290	0.218	0.362	
24.295	0.194	0.298	
24.300	0.165	0.248	
24.305	0.152	0.208	
24.310	0.093	0.176	
24.315	0.050	0.146	
24.320	0.038	0.115	
24.325	-0.046	0.082	
24.330	-0.089	0.044	
24.335	0.018	0.008	
24.340	0.240	-0.003	
24.345	0.316	0.030	
24.350	0.276	0.093	
24.355	0.033	0.149	
24.360	-0.116	0.159	
24.365	-0.156	0.119	
24.370	-0.090	0.053	
24.375	-0.035	-0.007	
24.380	-0.035	-0.044	
24.385	0.001	-0.059	
24.390	0.046	-0.055	
24.395	0.030	-0.037	
24.400	0.029	-0.015	
24.405	0.021	0.003	
24.410	-0.002	0.015	
24.415	0.012	0.019	
24.420	0.044	0.021	
24.425	-0.035	0.021	
24.430	-0.013	0.015	
24.435	0.082	0.011	
24.440	0.082	0.017	
24.445	0.015	0.029	
24.450	0.027	0.036	
24.455	0.124	0.042	
24.460	0.156	0.057	
24.465	0.151	0.081	
24.470	0.232	0.109	
24.475	0.316	0.146	
24.480	0.372	0.194	
24.485	0.461	0.252	
24.490	0.405	0.313	
24.495	0.354	0.360	
24.500	0.273	0.380	
24.505	0.220	0.372	
24.510	0.169	0.340	
24.515	0.038	0.289	
24.520	-0.002	0.222	
24.525	-0.119	0.144	
24.530	-0.185	0.059	
24.535	-0.196	-0.025	
24.540	-0.239	-0.099	
24.545	-0.252	-0.160	
24.550	-0.254	-0.207	
24.555	-0.248	-0.238	
24.560	-0.243	-0.255	
24.565	-0.242	-0.262	
24.570	-0.223	-0.260	
24.575	-0.257	-0.255	
24.580	-0.257	-0.251	
24.585	-0.203	-0.248	
24.590	-0.167	-0.239	
24.595	-0.184	-0.224	
24.600	-0.171	-0.207	
24.605	-0.144	-0.192	
24.610	-0.170	-0.178	
24.615	-0.167	-0.168	
24.620	-0.116	-0.161	
24.625	-0.122	-0.152	
24.630	-0.142	-0.143	
24.635	-0.136	-0.137	
24.640	-0.156	-0.135	
24.645	-0.174	-0.138	
24.650	-0.179	-0.146	
24.655	-0.174	-0.155	
24.660	-0.237	-0.166	
24.665	-0.222	-0.181	
24.670	-0.164	-0.194	
24.675	-0.197	-0.199	
24.680	-0.226	-0.201	
24.685	-0.181	-0.203	
24.690	-0.174	-0.202	
24.695	-0.188	-0.197	
24.700	-0.170	-0.192	
24.705	-0.170	-0.186	
24.710	-0.162	-0.180	
24.715	-0.133	-0.172	
24.720	-0.009	-0.157	
24.725	0.263	-0.116	
24.730	0.339	-0.034	
24.735	0.313	0.070	
24.740	0.029	0.154	
24.745	-0.148	0.177	
24.750	-0.156	0.136	
24.755	-0.095	0.065	
24.760	-0.078	-0.001	
24.765	-0.075	-0.049	
24.770	-0.035	-0.075	
24.775	-0.043	-0.083	
24.780	-0.037	-0.079	
24.785	0.009	-0.067	
24.790	-0.014	-0.051	
24.795	-0.008	-0.034	
24.800	-0.017	-0.022	
24.805	0.018	-0.013	
24.810	0.021	-0.005	
24.815	0.038	0.005	
24.820	0.116	0.019	
24.825	0.107	0.039	
24.830	0.079	0.061	
24.835	0.174	0.081	
24.840	0.212	0.105	
24.845	0.247	0.137	
24.850	0.276	0.172	
24.855	0.264	0.207	
24.860	0.253	0.235	
24.865	0.360	0.257	
24.870	0.466	0.287	
24.875	0.449	0.329	
24.880	0.414	0.371	
24.885	0.365	0.399	
24.890	0.296	0.405	
24.895	0.212	0.388	
24.900	0.189	0.349	
24.905	0.130	0.299	
24.910	0.009	0.241	
24.915	-0.089	0.170	
24.920	-0.141	0.090	
24.925	-0.223	0.006	
24.930	-0.222	-0.073	
24.935	-0.216	-0.140	
24.940	-0.234	-0.187	
24.945	-0.242	-0.219	
24.950	-0.232	-0.238	
24.955	-0.220	-0.246	
24.960	-0.255	-0.248	
24.965	-0.236	-0.247	
24.970	-0.194	-0.244	
24.975	-0.184	-0.234	
24.980	-0.217	-0.223	
24.985	-0.150	-0.211	
24.990	-0.130	-0.196	
24.995	-0.124	-0.177	
25.000	-0.081	-0.157	
25.005	-0.058	-0.133	
25.010	-0.113	-0.112	
25.015	-0.145	-0.100	
25.020	-0.113	-0.100	
25.025	-0.129	-0.105	
25.030	-0.121	-0.110	
25.035	-0.135	-0.116	
25.040	-0.193	-0.124	
25.045	-0.217	-0.139	
25.050	-0.187	-0.159	
25.055	-0.193	-0.175	
25.060	-0.234	-0.188	
25.065	-0.239	-0.201	
25.070	-0.207	-0.213	
25.075	-0.211	-0.219	
25.080	-0.202	-0.220	
25.085	-0.190	-0.217	
25.090	-0.182	-0.211	
25.095	-0.255	-0.206	
25.100	-0.237	-0.209	
25.105	-0.194	-0.214	
25.110	-0.066	-0.209	
25.115	0.203	-0.174	
25.120	0.424	-0.089	
25.125	0.246	0.029	
25.130	-0.132	0.118	
25.135	-0.229	0.128	
25.140	-0.242	0.071	
25.145	-0.229	-0.013	
25.150	-0.181	-0.093	
25.155	-0.129	-0.148	
25.160	-0.119	-0.174	
25.165	-0.116	-0.177	
25.170	-0.064	-0.165	
25.175	-0.068	-0.143	
25.180	-0.048	-0.117	
25.185	0.020	-0.089	
25.190	0.042	-0.058	
25.195	0.000	-0.027	
25.200	0.007	-0.004	
25.205	0.108	0.013	
25.210	0.131	0.036	
25.215	0.160	0.065	
25.220	0.209	0.097	
25.225	0.197	0.131	
25.230	0.165	0.159	
25.235	0.189	0.177	
25.240	0.330	0.193	
25.245	0.427	0.224	
25.250	0.519	0.277	
25.255	0.605	0.347	
25.260	0.615	0.426	
25.265	0.603	0.498	
25.270	0.652	0.556	
25.275	0.557	0.596	
25.280	0.522	0.611	
25.285	0.521	0.603	
25.290	0.388	0.579	
25.295	0.166	0.527	
25.300	0.056	0.440	
25.305	-0.008	0.329	
25.310	-0.135	0.209	
25.315	-0.193	0.090	
25.320	-0.144	-0.016	
25.325	-0.181	-0.096	
25.330	-0.223	-0.151	
25.335	-0.176	-0.187	
25.340	-0.216	-0.207	
25.345	-0.246	-0.218	
25.350	-0.216	-0.226	
25.355	-0.185	-0.228	
25.360	-0.205	-0.223	
25.365	-0.196	-0.216	
25.370	-0.142	-0.207	
25.375	-0.139	-0.193	
25.380	-0.139	-0.176	
25.385	-0.106	-0.160	
25.390	-0.104	-0.143	
25.395	-0.103	-0.128	
25.400	-0.103	-0.116	
25.405	-0.069	-0.106	
25.410	-0.068	-0.096	
25.415	-0.087	-0.086	
25.420	-0.087	-0.081	
25.425	-0.112	-0.081	
25.430	-0.167	-0.088	
25.435	-0.173	-0.104	
25.440	-0.184	-0.124	
25.445	-0.207	-0.146	
25.450	-0.239	-0.168	
25.455	-0.217	-0.190	
25.460	-0.246	-0.208	
25.465	-0.236	-0.222	
25.470	-0.187	-0.230	
25.475	-0.197	-0.228	
25.480	-0.177	-0.220	
25.485	-0.156	-0.209	
25.490	-0.237	-0.198	
25.495	-0.248	-0.197	
25.500	-0.164	-0.201	
25.505	0.032	-0.191	
25.510	0.194	-0.147	
25.515	0.215	-0.069	
25.520	0.052	0.014	
25.525	-0.161	0.059	
25.530	-0.258	0.046	
25.535	-0.239	-0.011	
25.540	-0.232	-0.082	
25.545	-0.188	-0.143	
25.550	-0.122	-0.180	
25.555	-0.090	-0.189	
25.560	0.013	-0.172	
25.565	0.215	-0.125	
25.570	0.389	-0.040	
25.575	0.460	0.076	
25.580	0.521	0.203	
25.585	0.544	0.323	
25.590	0.507	0.420	
25.595	0.418	0.481	
25.600	0.476	0.506	
25.605	0.482	0.511	
25.610	0.405	0.504	
25.615	0.380	0.485	
25.620	0.435	0.460	
25.625	0.392	0.438	
25.630	0.432	0.423	
25.635	0.534	0.420	
25.640	0.579	0.437	
25.645	0.573	0.469	
25.650	0.663	0.509	
25.655	0.614	0.550	
25.660	0.568	0.582	
25.665	0.513	0.595	
25.670	0.434	0.585	
25.675	0.247	0.547	
25.680	0.180	0.479	
25.685	0.107	0.390	
25.690	-0.011	0.292	
25.695	-0.063	0.191	
25.700	-0.109	0.094	
25.705	-0.188	0.008	
25.710	-0.243	-0.070	
25.715	-0.284	-0.139	
25.720	-0.287	-0.198	
25.725	-0.362	-0.247	
25.730	-0.398	-0.291	
25.735	-0.401	-0.330	
25.740	-0.431	-0.364	
25.745	-0.391	-0.390	
25.750	-0.365	-0.403	
25.755	-0.382	-0.405	
25.760	-0.425	-0.403	
25.765	-0.469	-0.406	
25.770	-0.483	-0.418	
25.775	-0.478	-0.435	
25.780	-0.488	-0.452	
25.785	-0.462	-0.465	
25.790	-0.459	-0.472	
25.795	-0.474	-0.474	
25.800	-0.454	-0.473	
25.805	-0.436	-0.469	
25.810	-0.422	-0.461	
25.815	-0.401	-0.450	
25.820	-0.399	-0.436	
25.825	-0.423	-0.424	
25.830	-0.426	-0.416	
25.835	-0.393	-0.413	
25.840	-0.396	-0.409	
25.845	-0.416	-0.406	
25.850	-0.385	-0.404	
25.855	-0.381	-0.400	
25.860	-0.378	-0.395	
25.865	-0.393	-0.390	
25.870	-0.399	-0.388	
25.875	-0.376	-0.387	
25.880	-0.353	-0.385	
25.885	-0.321	-0.378	
25.890	-0.298	-0.364	
25.895	-0.262	-0.344	
25.900	-0.159	-0.317	
25.905	-0.129	-0.277	
25.910	-0.152	-0.233	
25.915	-0.222	-0.198	
25.920	-0.338	-0.188	
25.925	-0.399	-0.208	
25.930	-0.350	-0.248	
25.935	-0.295	-0.286	
25.940	-0.258	-0.307	
25.945	-0.190	-0.307	
25.950	-0.126	-0.286	
25.955	-0.142	-0.249	
25.960	-0.165	-0.212	
25.965	-0.121	-0.182	
25.970	-0.089	-0.156	
25.975	-0.048	-0.131	
25.980	-0.008	-0.103	
25.985	0.053	-0.071	
25.990	0.049	-0.035	
25.995	0.056	-0.002	
26.000	0.099	0.027	
26.005	0.154	0.055	
26.010	0.152	0.085	
26.015	0.185	0.113	
26.020	0.217	0.140	
26.025	0.275	0.169	
26.030	0.366	0.204	
26.035	0.498	0.253	
26.040	0.441	0.314	
26.045	0.461	0.371	
26.050	0.525	0.417	
26.055	0.585	0.460	
26.060	0.553	0.500	
26.065	0.534	0.530	
26.070	0.466	0.543	
26.075	0.414	0.536	
26.080	0.389	0.511	
26.085	0.319	0.475	
26.090	0.185	0.425	
26.095	0.107	0.359	
26.100	0.097	0.283	
26.105	-0.009	0.207	
26.110	0.009	0.135	
26.115	-0.013	0.075	
26.120	0.033	0.032	
26.125	0.024	0.009	
26.130	-0.003	-0.001	
26.135	-0.031	-0.006	
26.140	-0.075	-0.014	
26.145	-0.009	-0.024	
26.150	0.093	-0.025	
26.155	0.165	-0.005	
26.160	0.209	0.035	
26.165	0.189	0.084	
26.170	0.272	0.132	
26.175	0.220	0.175	
26.180	0.198	0.206	
26.185	0.249	0.223	
26.190	0.243	0.234	
26.195	0.235	0.240	
26.200	0.267	0.245	
26.205	0.192	0.246	
26.210	0.200	0.240	
26.215	0.186	0.229	
26.220	0.180	0.216	
26.225	0.137	0.201	
26.230	0.090	0.182	
26.235	0.124	0.159	
26.240	0.064	0.137	
26.245	0.049	0.115	
26.250	0.088	0.094	
26.255	0.068	0.080	
26.260	0.081	0.073	
26.265	0.097	0.071	
26.270	0.119	0.075	
26.275	0.064	0.081	
26.280	0.087	0.085	
26.285	0.178	0.090	
26.290	0.256	0.109	
26.295	0.426	0.149	
26.300	0.518	0.216	
26.305	0.409	0.296	
26.310	0.183	0.350	
26.315	0.064	0.351	
26.320	0.029	0.303	
26.325	0.039	0.230	
26.330	0.119	0.163	
26.335	0.178	0.120	
26.340	0.157	0.107	
26.345	0.240	0.114	
26.350	0.322	0.141	
26.355	0.330	0.184	
26.360	0.314	0.231	
26.365	0.333	0.271	
26.370	0.348	0.302	
26.375	0.290	0.322	
26.380	0.302	0.330	
26.385	0.382	0.331	
26.390	0.409	0.339	
26.395	0.450	0.356	
26.400	0.470	0.381	
26.405	0.398	0.406	
26.410	0.434	0.421	
26.415	0.473	0.431	
26.420	0.563	0.447	
26.425	0.617	0.474	
26.430	0.654	0.513	
26.435	0.725	0.560	
26.440	0.693	0.608	
26.445	0.638	0.647	
26.450	0.724	0.671	
26.455	0.739	0.689	
26.460	0.658	0.703	
26.465	0.589	0.702	
26.470	0.486	0.679	
26.475	0.272	0.627	
26.480	0.209	0.543	
26.485	0.174	0.441	
26.490	0.056	0.338	
26.495	0.017	0.239	
26.500	0.018	0.151	
26.505	0.012	0.083	
26.510	-0.003	0.036	
26.515	0.021	0.007	
26.520	0.035	-0.005	
26.525	-0.078	-0.009	
26.530	-0.063	-0.018	
26.535	0.125	-0.023	
26.540	0.218	-0.002	
26.545	0.298	0.048	
26.550	0.398	0.120	
26.555	0.414	0.202	
26.560	0.389	0.280	
26.565	0.362	0.339	
26.570	0.366	0.373	
26.575	0.313	0.386	
26.580	0.269	0.379	
26.585	0.298	0.359	
26.590	0.252	0.334	
26.595	0.208	0.307	
26.600	0.278	0.280	
26.605	0.263	0.263	
26.610	0.148	0.250	
26.615	0.119	0.228	
26.620	0.033	0.195	
26.625	-0.022	0.150	
26.630	-0.032	0.099	
26.635	-0.025	0.050	
26.640	-0.038	0.011	
26.645	-0.026	-0.016	
26.650	0.029	-0.029	
26.655	0.026	-0.028	
26.660	0.032	-0.017	
26.665	0.099	0.001	
26.670	0.145	0.026	
26.675	0.226	0.062	
26.680	0.331	0.111	
26.685	0.588	0.183	
26.690	0.750	0.289	
26.695	0.739	0.418	
26.700	0.614	0.535	
26.705	0.249	0.596	
26.710	0.032	0.569	
26.715	0.050	0.468	
26.720	0.061	0.340	
26.725	0.042	0.225	
26.730	0.177	0.141	
26.735	0.313	0.107	
26.740	0.282	0.120	
26.745	0.295	0.159	
26.750	0.339	0.204	
26.755	0.318	0.248	
26.760	0.304	0.283	
26.765	0.292	0.304	
26.770	0.296	0.313	
26.775	0.287	0.314	
26.780	0.275	0.309	
26.785	0.336	0.303	
26.790	0.261	0.301	
26.795	0.285	0.296	
26.800	0.359	0.295	
26.805	0.380	0.303	
26.810	0.405	0.322	
26.815	0.486	0.349	
26.820	0.525	0.385	
26.825	0.524	0.427	
26.830	0.547	0.467	
26.835	0.608	0.503	
26.840	0.524	0.533	
26.845	0.427	0.546	
26.850	0.348	0.531	
26.855	0.220	0.488	
26.860	0.075	0.416	
26.865	-0.006	0.321	
26.870	-0.072	0.214	
26.875	-0.174	0.107	
26.880	-0.234	0.005	
26.885	-0.254	-0.088	
26.890	-0.295	-0.165	
26.895	-0.327	-0.227	
26.900	-0.320	-0.274	
26.905	-0.353	-0.307	
26.910	-0.342	-0.330	
26.915	-0.332	-0.344	
26.920	-0.335	-0.349	
26.925	-0.355	-0.349	
26.930	-0.370	-0.351	
26.935	-0.335	-0.352	
26.940	-0.321	-0.351	
26.945	-0.310	-0.345	
26.950	-0.300	-0.336	
26.955	-0.297	-0.325	
26.960	-0.309	-0.315	
26.965	-0.258	-0.306	
26.970	-0.223	-0.294	
26.975	-0.245	-0.277	
26.980	-0.258	-0.263	
26.985	-0.231	-0.253	
26.990	-0.281	-0.248	
26.995	-0.326	-0.251	
27.000	-0.303	-0.263	
27.005	-0.321	-0.279	
27.010	-0.324	-0.293	
27.015	-0.300	-0.305	
27.020	-0.303	-0.311	
27.025	-0.321	-0.313	
27.030	-0.324	-0.315	
27.035	-0.307	-0.317	
27.040	-0.298	-0.316	
27.045	-0.277	-0.312	
27.050	-0.231	-0.302	
27.055	-0.287	-0.289	
27.060	-0.318	-0.281	
27.065	-0.315	-0.282	
27.070	-0.266	-0.287	
27.075	-0.138	-0.282	
27.080	0.076	-0.249	
27.085	0.284	-0.173	
27.090	0.125	-0.068	
27.095	-0.133	0.014	
27.100	-0.240	0.035	
27.105	-0.274	-0.003	
27.110	-0.278	-0.070	
27.115	-0.249	-0.140	
27.120	-0.182	-0.192	
27.125	-0.147	-0.218	
27.130	-0.133	-0.218	
27.135	-0.092	-0.202	
27.140	-0.119	-0.176	
27.145	-0.113	-0.152	
27.150	-0.060	-0.130	
27.155	-0.066	-0.110	
27.160	-0.074	-0.091	
27.165	-0.029	-0.077	
27.170	0.001	-0.061	
27.175	-0.026	-0.045	
27.180	-0.011	-0.032	
27.185	0.067	-0.018	
27.190	0.058	0.000	
27.195	0.046	0.020	
27.200	0.075	0.036	
27.205	0.136	0.052	
27.210	0.217	0.077	
27.215	0.340	0.117	
27.220	0.382	0.174	
27.225	0.405	0.239	
27.230	0.464	0.304	
27.235	0.444	0.361	
27.240	0.343	0.401	
27.245	0.325	0.414	
27.250	0.334	0.405	
27.255	0.149	0.379	
27.260	0.020	0.326	
27.265	-0.028	0.247	
27.270	-0.063	0.158	
27.275	-0.164	0.071	
27.280	-0.196	-0.012	
27.285	-0.176	-0.085	
27.290	-0.248	-0.141	
27.295	-0.258	-0.186	
27.300	-0.228	-0.219	
27.305	-0.229	-0.239	
27.310	-0.222	-0.246	
27.315	-0.210	-0.245	
27.320	-0.240	-0.240	
27.325	-0.242	-0.236	
27.330	-0.219	-0.234	
27.335	-0.184	-0.230	
27.340	-0.194	-0.221	
27.345	-0.179	-0.211	
27.350	-0.133	-0.198	
27.355	-0.129	-0.182	
27.360	-0.112	-0.164	
27.365	-0.106	-0.146	
27.370	-0.116	-0.130	
27.375	-0.116	-0.119	
27.380	-0.112	-0.113	
27.385	-0.078	-0.109	
27.390	-0.130	-0.105	
27.395	-0.173	-0.107	
27.400	-0.196	-0.119	
27.405	-0.228	-0.140	
27.410	-0.226	-0.165	
27.415	-0.190	-0.187	
27.420	-0.185	-0.200	
27.425	-0.205	-0.204	
27.430	-0.236	-0.207	
27.435	-0.208	-0.211	
27.440	-0.203	-0.214	
27.445	-0.196	-0.213	
27.450	-0.162	-0.208	
27.455	-0.156	-0.199	
27.460	-0.193	-0.188	
27.465	-0.136	-0.179	
27.470	0.046	-0.161	
27.475	0.330	-0.110	
27.480	0.470	-0.010	
27.485	0.398	0.118	
27.490	0.032	0.219	
27.495	-0.174	0.242	
27.500	-0.203	0.184	
27.505	-0.190	0.086	
27.510	-0.161	-0.012	
27.515	-0.110	-0.087	
27.520	-0.155	-0.132	
27.525	-0.138	-0.156	
27.530	-0.087	-0.163	
27.535	-0.008	-0.151	
27.540	0.007	-0.122	
27.545	0.035	-0.083	
27.550	0.102	-0.040	
27.555	0.020	0.000	
27.560	-0.014	0.026	
27.565	0.020	0.034	
27.570	0.036	0.035	
27.575	0.006	0.033	
27.580	0.078	0.032	
27.585	0.134	0.039	
27.590	0.137	0.058	
27.595	0.185	0.084	
27.600	0.325	0.119	
27.605	0.415	0.172	
27.610	0.487	0.243	
27.615	0.533	0.321	
27.620	0.599	0.400	
27.625	0.618	0.473	
27.630	0.654	0.536	
27.635	0.702	0.590	
27.640	0.652	0.632	
27.645	0.548	0.655	
27.650	0.499	0.648	
27.655	0.282	0.610	
27.660	0.122	0.533	
27.665	0.091	0.426	
27.670	0.024	0.309	
27.675	-0.063	0.199	
27.680	-0.126	0.097	
27.685	-0.144	0.008	
27.690	-0.173	-0.064	
27.695	-0.187	-0.119	
27.700	-0.185	-0.158	
27.705	-0.210	-0.183	
27.710	-0.223	-0.200	
27.715	-0.223	-0.212	
27.720	-0.202	-0.219	
27.725	-0.200	-0.220	
27.730	-0.174	-0.216	
27.735	-0.135	-0.206	
27.740	-0.156	-0.190	
27.745	-0.132	-0.174	
27.750	-0.060	-0.156	
27.755	-0.042	-0.132	
27.760	-0.060	-0.105	
27.765	-0.055	-0.083	
27.770	-0.055	-0.067	
27.775	-0.078	-0.058	
27.780	-0.068	-0.056	
27.785	-0.055	-0.057	
27.790	-0.124	-0.061	
27.795	-0.133	-0.072	
27.800	-0.093	-0.086	
27.805	-0.089	-0.096	
27.810	-0.110	-0.101	
27.815	-0.100	-0.104	
27.820	-0.080	-0.104	
27.825	-0.090	-0.101	
27.830	-0.101	-0.097	
27.835	-0.046	-0.093	
27.840	-0.071	-0.086	
27.845	-0.046	-0.078	
27.850	-0.052	-0.069	
27.855	-0.064	-0.062	
27.860	-0.040	-0.057	
27.865	0.101	-0.046	
27.870	0.275	-0.012	
27.875	0.331	0.052	
27.880	0.131	0.123	
27.885	-0.087	0.159	
27.890	-0.248	0.134	
27.895	-0.263	0.058	
27.900	-0.211	-0.036	
27.905	-0.280	-0.120	
27.910	-0.349	-0.191	
27.915	-0.388	-0.253	
27.920	-0.420	-0.309	
27.925	-0.488	-0.358	
27.930	-0.488	-0.403	
27.935	-0.446	-0.439	
27.940	-0.426	-0.459	
27.945	-0.420	-0.464	
27.950	-0.376	-0.456	
27.955	-0.365	-0.439	
27.960	-0.352	-0.417	
27.965	-0.310	-0.393	
27.970	-0.281	-0.366	
27.975	-0.274	-0.339	
27.980	-0.252	-0.312	
27.985	-0.205	-0.287	
27.990	-0.199	-0.262	
27.995	-0.193	-0.237	
28.000	-0.104	-0.213	
28.005	-0.037	-0.183	
28.010	-0.009	-0.142	
28.015	-0.048	-0.101	
28.020	-0.072	-0.070	
28.025	-0.126	-0.057	
28.030	-0.164	-0.062	
28.035	-0.156	-0.081	
28.040	-0.208	-0.107	
28.045	-0.246	-0.138	
28.050	-0.281	-0.173	
28.055	-0.320	-0.210	
28.060	-0.361	-0.249	
28.065	-0.371	-0.287	
28.070	-0.368	-0.321	
28.075	-0.371	-0.347	
28.080	-0.375	-0.364	
28.085	-0.367	-0.374	
28.090	-0.379	-0.378	
28.095	-0.376	-0.380	
28.100	-0.312	-0.377	
28.105	-0.301	-0.366	
28.110	-0.251	-0.347	
28.115	-0.223	-0.321	
28.120	-0.193	-0.290	
28.125	-0.161	-0.257	
28.130	-0.138	-0.223	
28.135	-0.087	-0.189	
28.140	-0.014	-0.153	
28.145	0.033	-0.111	
28.150	0.081	-0.063	
28.155	0.029	-0.018	
28.160	0.020	0.015	
28.165	0.087	0.035	
28.170	0.078	0.052	
28.175	0.105	0.066	
28.180	0.087	0.078	
28.185	0.075	0.086	
28.190	0.020	0.086	
28.195	0.030	0.077	
28.200	-0.009	0.061	
28.205	0.021	0.044	
28.210	0.061	0.031	
28.215	0.093	0.030	
28.220	0.110	0.041	
28.225	0.087	0.057	
28.230	0.165	0.075	
28.235	0.221	0.099	
28.240	0.165	0.129	
28.245	0.143	0.151	
28.250	0.181	0.164	
28.255	0.235	0.174	
28.260	0.421	0.196	
28.265	0.615	0.249	
28.270	0.588	0.333	
28.275	0.391	0.413	
28.280	0.246	0.451	
28.285	0.160	0.434	
28.290	0.136	0.378	
28.295	0.197	0.310	
28.300	0.287	0.257	
28.305	0.330	0.234	
28.310	0.388	0.241	
28.315	0.391	0.269	
28.320	0.441	0.308	
28.325	0.466	0.350	
28.330	0.458	0.391	
28.335	0.489	0.425	
28.340	0.502	0.453	
28.345	0.501	0.475	
28.350	0.453	0.488	
28.355	0.446	0.490	
28.360	0.472	0.485	
28.365	0.573	0.483	
28.370	0.600	0.495	
28.375	0.623	0.521	
28.380	0.632	0.551	
28.385	0.675	0.583	
28.390	0.722	0.616	
28.395	0.713	0.649	
28.400	0.793	0.681	
28.405	0.811	0.715	
28.410	0.790	0.747	
28.415	0.809	0.773	
28.420	0.733	0.788	
28.425	0.672	0.786	
28.430	0.602	0.763	
28.435	0.553	0.723	
28.440	0.476	0.671	
28.445	0.359	0.607	
28.450	0.293	0.533	
28.455	0.183	0.450	
28.460	0.124	0.362	
28.465	0.091	0.276	
28.470	0.029	0.198	
28.475	-0.014	0.130	
28.480	-0.034	0.071	
28.485	-0.051	0.022	
28.490	-0.061	-0.015	
28.495	-0.107	-0.043	
28.500	-0.075	-0.065	
28.505	-0.043	-0.078	
28.510	-0.049	-0.080	
28.515	-0.016	-0.073	
28.520	0.046	-0.058	
28.525	0.064	-0.033	
28.530	0.125	-0.001	
28.535	0.097	0.034	
28.540	0.056	0.062	
28.545	0.038	0.076	
28.550	0.090	0.079	
28.555	0.039	0.078	
28.560	0.065	0.074	
28.565	0.059	0.069	
28.570	0.018	0.063	
28.575	-0.028	0.051	
28.580	-0.055	0.032	
28.585	-0.058	0.008	
28.590	-0.040	-0.016	
28.595	-0.031	-0.032	
28.600	-0.071	-0.042	
28.605	-0.109	-0.052	
28.610	-0.084	-0.065	
28.615	-0.051	-0.074	
28.620	-0.086	-0.078	
28.625	-0.068	-0.078	
28.630	-0.032	-0.076	
28.635	-0.066	-0.070	
28.640	-0.090	-0.066	
28.645	-0.083	-0.067	
28.650	0.039	-0.065	
28.655	0.241	-0.041	
28.660	0.302	0.016	
28.665	0.310	0.095	
28.670	0.099	0.163	
28.675	-0.042	0.188	
28.680	-0.037	0.165	
28.685	-0.020	0.116	
28.690	0.041	0.070	
28.695	0.119	0.042	
28.700	0.203	0.043	
28.705	0.195	0.069	
28.710	0.252	0.108	
28.715	0.252	0.151	
28.720	0.223	0.189	
28.725	0.180	0.214	
28.730	0.229	0.224	
28.735	0.282	0.230	
28.740	0.269	0.239	
28.745	0.287	0.251	
28.750	0.328	0.264	
28.755	0.295	0.279	
28.760	0.241	0.289	
28.765	0.295	0.289	
28.770	0.360	0.291	
28.775	0.339	0.301	
28.780	0.380	0.315	
28.785	0.467	0.337	
28.790	0.499	0.369	
28.795	0.541	0.409	
28.800	0.612	0.454	
28.805	0.614	0.503	
28.810	0.661	0.549	
28.815	0.713	0.593	
28.820	0.621	0.630	
28.825	0.516	0.646	
28.830	0.426	0.631	
28.835	0.360	0.586	
28.840	0.313	0.524	
28.845	0.266	0.454	
28.850	0.212	0.385	
28.855	0.125	0.317	
28.860	0.036	0.248	
28.865	0.130	0.184	
28.870	0.107	0.137	
28.875	0.084	0.108	
28.880	0.111	0.092	
28.885	0.151	0.088	
28.890	0.154	0.096	
28.895	0.166	0.111	
28.900	0.181	0.129	
28.905	0.156	0.145	
28.910	0.198	0.159	
28.915	0.226	0.172	
28.920	0.188	0.185	
28.925	0.166	0.193	
28.930	0.148	0.192	
