Time	Potential	EKG	Unnamed: 3
0.0	-0.173	-0.00912362840690537	
0.005	-0.109	-0.030478775185924067	
0.01	-0.065	-0.05711333243880715	
0.015	-0.195	-0.08213359837554446	
0.02	-0.181	-0.10623256377021453	
0.025	-0.091	-0.1276234601843838	
0.03	-0.187	-0.14262042707067946	
0.035	-0.219	-0.1540721127224089	
0.04	-0.094	-0.1626497367419851	
0.045	-0.094	-0.1617063495818124	
0.05	-0.211	-0.15560688504758202	
0.055	-0.150	-0.15129232597040387	
0.06	-0.066	-0.1487606169236204	
0.065	-0.138	-0.14252667643650668	
0.07	-0.037	-0.12831951426938096	
0.075	0.231	-0.09517009022089762	
0.08	0.098	-0.14252667643650668	
0.085	-0.086	-0.1409417252972901	
0.09	-0.092	-0.13249210808301837	
0.095	-0.178	-0.12831951426938096	
0.1	-0.276	-0.03697646213774771	
0.105	-0.167	-0.0911210530843132	
0.11	-0.077	-0.13249210808301837	
0.115	-0.173	-0.15482582632318814	
0.12	-0.149	-0.16137907467980922	
0.125	-0.019	-0.1548623060548049	
0.13	-0.103	-0.1409417252972901	
0.135	-0.152	-0.12460356957588409	
0.14	-0.015	-0.10902664617608585	
0.145	-0.050	-0.09559444283251746	
0.15	-0.160	-0.08528598480309751	
0.155	-0.059	-0.07998925854078623	
0.16	0.013	-0.07629342247274504	
0.165	-0.124	-0.07110355842098137	
0.17	-0.102	-0.06742835472562805	
0.175	0.049	-0.06458244235828581	
0.18	-0.065	-0.05907488076700081	
0.185	-0.111	-0.05279167609646662	
0.19	0.059	-0.046781056426799916	
0.195	0.043	-0.036559599192072335	
0.2	-0.071	-0.02252848871539203	
0.205	0.098	-0.007862414153584811	
0.21	0.211	0.015867299823451586	
0.215	0.060	0.047693708948562064	
0.22	0.126	0.07854922832166299	
0.225	0.330	0.1116132557733108	
0.23	0.201	0.1478335142858126	
0.235	0.114	0.17808316345737454	
0.24	0.283	0.19734895557958715	
0.245	0.198	0.2074543314917763	
0.25	-0.027	0.20133414287882428	
0.255	0.045	0.17516545012538948	
0.26	0.071	0.13492934742161394	
0.265	-0.144	0.08862640396051792	
0.27	-0.149	0.0355309828302289	
0.275	-0.051	-0.017335875078636112	
0.28	-0.166	-0.0641715783396023	
0.285	-0.222	-0.1029242499242217	
0.29	-0.120	-0.1316230072900412	
0.295	-0.156	-0.15453704647995048	
0.3	-0.260	-0.17065600948561813	
0.305	-0.185	-0.18180956721914254	
0.31	-0.128	-0.19007479505028724	
0.315	-0.221	-0.19337969201172478	
0.32	-0.195	-0.19144193002286183	
0.325	-0.106	-0.18633713385511233	
0.33	-0.173	-0.18021012228967082	
0.335	-0.227	-0.17491679213353936	
0.34	-0.089	-0.16859742183442222	
0.345	-0.103	-0.16156918556854294	
0.35	-0.208	-0.15367269679803397	
0.355	-0.135	-0.1467740786415239	
0.36	-0.095	-0.14308842997218826	
0.365	-0.207	-0.14442240227123193	
0.37	-0.193	-0.14741639376541654	
0.375	-0.111	-0.15131310885314325	
0.38	-0.213	-0.1592540771364927	
0.385	-0.263	-0.16992444093658	
0.39	-0.164	-0.1815492052884377	
0.395	-0.195	-0.19358715131063048	
0.4	-0.294	-0.20471606272391624	
0.405	-0.207	-0.212726594088558	
0.41	-0.160	-0.21905683420024866	
0.415	-0.257	-0.2214804482378451	
0.42	-0.243	-0.22140866539848644	
0.425	-0.155	-0.21925096206478978	
0.43	-0.228	-0.21929732596175014	
0.435	-0.256	-0.2169588835803781	
0.44	-0.086	-0.21047120115990223	
0.445	0.053	-0.18857946389264252	
0.45	0.005	-0.1447685130010169	
0.455	0.143	-0.19762100396003784	
0.46	0.088	-0.1943917994842475	
0.465	-0.224	-0.18857946389264252	
0.47	-0.280	-0.18497876579566924	
0.475	-0.198	-0.04618056569540754	
0.48	-0.242	-0.109335134160048	
0.485	-0.256	-0.16298514547648466	
0.49	-0.129	-0.1943917994842475	
0.495	-0.137	-0.20859416834972405	
0.5	-0.230	-0.20785466480504414	
0.505	-0.135	-0.19762100396003784	
0.51	-0.089	-0.18497876579566924	
0.515	-0.202	-0.1726465486524164	
0.52	-0.167	-0.16139236347608255	
0.525	-0.047	-0.15109177936624774	
0.53	-0.126	-0.14041265649588314	
0.535	-0.167	-0.13005011341038475	
0.54	-0.025	-0.11930328756975797	
0.545	-0.044	-0.10761072018308085	
0.55	-0.147	-0.09595570715373891	
0.555	-0.041	-0.08455639548573589	
0.56	0.066	-0.07192120967276576	
0.565	-0.065	-0.05673926409895543	
0.57	-0.008	-0.03738400484699656	
0.575	0.153	-0.014999890847531429	
0.58	0.086	0.010526681735688322	
0.585	0.088	0.040902871597090676	
0.59	0.353	0.08180032678353433	
0.595	0.350	0.13539301597990233	
0.6	0.194	0.1919478260565242	
0.605	0.364	0.24148373475209475	
0.61	0.439	0.2821303387042948	
0.615	0.216	0.31217727067183454	
0.62	0.216	0.32458573208524033	
0.625	0.330	0.3170537287992946	
0.63	0.104	0.29550024783885465	
0.635	-0.033	0.2548484594466677	
0.64	0.065	0.1968027110144062	
0.645	-0.045	0.13039914910644523	
0.65	-0.175	0.061954161628361995	
0.655	-0.126	-0.0015060606331905228	
0.66	-0.097	-0.05787277808287059	
0.665	-0.219	-0.10479392673763405	
0.67	-0.196	-0.13737443351114814	
0.675	-0.091	-0.15895695026433185	
0.68	-0.172	-0.17049746297648655	
0.685	-0.190	-0.17310120004867507	
0.69	-0.053	-0.16518489142195442	
0.695	-0.076	-0.15163158955909145	
0.7	-0.173	-0.13704363838987102	
0.705	-0.065	-0.12148529353434294	
0.71	0.024	-0.10588995077782073	
0.715	-0.123	-0.08982091080689181	
0.72	-0.091	-0.07536849417894895	
0.725	0.013	-0.06595577583948298	
0.73	-0.071	-0.060523821649753645	
0.735	-0.120	-0.05710612612126228	
0.74	0.056	-0.05216777562391095	
0.745	0.010	-0.04364021897304906	
0.75	-0.138	-0.0370571684280918	
0.755	-0.050	-0.0354780519448449	
0.76	-0.015	-0.041895800222286284	
0.765	-0.141	-0.0518312871942084	
0.77	-0.120	-0.06235195576754649	
0.775	-0.002	-0.07094653869561249	
0.78	-0.112	-0.0795372450641148	
0.785	-0.158	-0.0851018747353392	
0.79	-0.041	-0.0891551307796449	
0.795	-0.068	-0.09265666070047576	
0.8	-0.173	-0.09606279073911916	
0.805	-0.091	-0.09744384868751606	
0.81	-0.039	-0.09989426722910286	
0.815	-0.126	-0.10086570170835746	
0.82	0.075	-0.08831908406649071	
0.825	0.486	-0.03987495195200778	
0.83	0.432	0.05346233793395583	
0.835	0.245	-0.08831908406649071	
0.84	0.129	-0.0891551307796449	
0.845	-0.100	-0.09265666070047576	
0.85	-0.236	-0.0941408268897837	
0.855	-0.143	0.09958922758814358	
0.86	-0.089	0.007123321260533413	
0.865	-0.198	-0.06888067138014997	
0.87	-0.155	-0.11830563452907329	
0.875	-0.030	-0.14388204015937622	
0.88	-0.121	-0.15059663086931846	
0.885	-0.146	-0.14412103756064393	
0.89	-0.008	-0.129070358230395	
0.895	-0.031	-0.11168113853873922	
0.9	-0.149	-0.0941408268897837	
0.905	-0.041	-0.07937757508439627	
0.91	0.043	-0.06785639878863577	
0.915	-0.089	-0.05696054778252084	
0.92	-0.051	-0.0443138554249309	
0.925	0.123	-0.03182951051261232	
0.93	-0.010	-0.016651441649229028	
0.935	-0.051	-0.002157725146695713	
0.94	0.161	0.011996661209263895	
0.945	0.138	0.031310104665000234	
0.95	0.017	0.05381028341468877	
0.955	0.198	0.07767042870171824	
0.96	0.326	0.10816544756421309	
0.965	0.179	0.14499776431505734	
0.97	0.262	0.18469980244732478	
0.975	0.457	0.22618891088936446	
0.98	0.310	0.26732488482512423	
0.985	0.233	0.2998405330304307	
0.99	0.429	0.32098920035160033	
0.995	0.358	0.33529284139609133	
1.0	0.112	0.3358238690787638	
1.005	0.178	0.3146375751957412	
1.01	0.156	0.2741145137589654	
1.015	-0.092	0.21704275483716184	
1.02	-0.100	0.1467057473959454	
1.025	-0.024	0.07311075267152835	
1.03	-0.155	0.0033809213639848686	
1.035	-0.213	-0.05507190027605706	
1.04	-0.114	-0.10109488160346859	
1.045	-0.158	-0.13671923044170634	
1.05	-0.253	-0.163044856377859	
1.055	-0.172	-0.17838467110304576	
1.06	-0.138	-0.18896049269793685	
1.065	-0.222	-0.1948608711381206	
1.07	-0.181	-0.19225126126631575	
1.075	-0.071	-0.18398421078021004	
1.08	-0.167	-0.1746118299067596	
1.085	-0.210	-0.1640107448443599	
1.09	-0.063	-0.15414892936134178	
1.095	-0.097	-0.14575975025861176	
1.1	-0.198	-0.13699413827172668	
1.105	-0.117	-0.1303875236546007	
1.11	-0.079	-0.12801730706595416	
1.115	-0.208	-0.12984554490118305	
1.12	-0.173	-0.13321841462895662	
1.125	-0.095	-0.1390248538664967	
1.13	-0.201	-0.14763173071570573	
1.135	-0.242	-0.15696289686811724	
1.14	-0.143	-0.1661501213824272	
1.145	-0.176	-0.17680718875425236	
1.15	-0.274	-0.18697091100498459	
1.155	-0.190	-0.19434449030033518	
1.16	-0.146	-0.2000502744025347	
1.165	-0.247	-0.20486699661701807	
1.17	-0.222	-0.20416693726129329	
1.175	-0.138	-0.20301785040636613	
1.18	-0.236	-0.20368988682386674	
1.185	-0.276	-0.2059459396103755	
1.19	-0.150	-0.20809345588925876	
1.195	-0.121	-0.20684885861493102	
1.2	-0.123	-0.1939966386755977	
1.205	0.082	-0.15925481493029015	
1.21	0.123	-0.1939966386755977	
1.215	-0.170	-0.19300163976674684	
1.22	-0.237	-0.18721193666229008	
1.225	-0.207	-0.06197218120095045	
1.23	-0.285	-0.10974796593480736	
1.235	-0.268	-0.15895732510761085	
1.24	-0.111	-0.19300163976674684	
1.245	-0.128	-0.20686263752924866	
1.25	-0.201	-0.20307215225819766	
1.255	-0.100	-0.18721193666229008	
1.26	-0.037	-0.16701499900465838	
1.265	-0.155	-0.1460314126315186	
1.27	-0.123	-0.1261144049665703	
1.275	0.022	-0.10788251940285584	
1.28	-0.092	-0.0938273849632042	
1.285	-0.129	-0.0810052678286243	
1.29	0.046	-0.06891487989509273	
1.295	0.007	-0.05589739437461774	
1.3	-0.086	-0.04316862302409996	
1.305	0.078	-0.026131319511944577	
1.31	0.143	-0.004961905320163705	
1.315	-0.037	0.015855740419660334	
1.32	0.027	0.032890303120797854	
1.325	0.240	0.04922870082107863	
1.33	0.094	0.06911721928908335	
1.335	0.066	0.09092466158910212	
1.34	0.356	0.11718047188412176	
1.345	0.324	0.15413189498384472	
1.35	0.167	0.19573935076095775	
1.355	0.370	0.23387660628508336	
1.36	0.422	0.26909850437490235	
1.365	0.217	0.297818976126799	
1.37	0.228	0.3118441977880524	
1.375	0.376	0.3112492863031904	
1.38	0.146	0.2991334648624935	
1.385	0.013	0.2718889441890122	
1.39	0.140	0.22713634336394345	
1.395	0.036	0.17315096564092886	
1.4	-0.138	0.11678079336205816	
1.405	-0.054	0.05983949249304993	
1.41	-0.033	0.006071006022452515	
1.415	-0.172	-0.04010011403293718	
1.42	-0.153	-0.07512649876823854	
1.425	-0.059	-0.10081993552490347	
1.43	-0.158	-0.12083346361822574	
1.435	-0.176	-0.13202289356196992	
1.44	-0.030	-0.13290337482330292	
1.445	-0.071	-0.12788805435002493	
1.45	-0.167	-0.11915503241100886	
1.455	-0.063	-0.10915714663329323	
1.46	-0.013	-0.09999236243113209	
1.465	-0.132	-0.09208493986123702	
1.47	-0.076	-0.08209303639112739	
1.475	0.078	-0.06985611594830546	
1.48	-0.074	-0.05685163596614441	
1.485	-0.134	-0.04699931767177272	
1.49	-0.007	-0.044924340668646104	
1.495	-0.045	-0.04992001151136519	
1.5	-0.152	-0.05612489998683027	
1.505	-0.068	-0.062139531007063306	
1.51	-0.047	-0.07103445416998957	
1.515	-0.193	-0.08308714179893663	
1.52	-0.164	-0.09705168245165198	
1.525	-0.047	-0.1098784386752261	
1.53	-0.155	-0.12088282586077292	
1.535	-0.198	-0.12794851423440523	
1.54	-0.079	-0.13190080187260528	
1.545	-0.112	-0.13597386518101592	
1.55	-0.198	-0.1381184262285579	
1.555	-0.105	-0.13508116321601243	
1.56	-0.080	-0.13406518634770204	
1.565	-0.175	-0.1331326705065925	
1.57	-0.118	-0.12898884270709107	
1.575	0.057	-0.11784910462910966	
1.58	-0.019	-0.09695729588239912	
1.585	-0.034	-0.12602739596189666	
1.59	0.100	-0.12320855912125811	
1.595	-0.108	-0.11784910462910966	
1.6	-0.262	-0.022200700125954816	
1.605	-0.164	-0.052004176679411596	
1.61	-0.103	-0.09103800030864614	
1.615	-0.182	-0.12320855912125811	
1.62	-0.121	-0.13895302951638966	
1.625	0.027	-0.1377804374110841	
1.63	-0.100	-0.12602739596189666	
1.635	-0.123	-0.10796855516659366	
1.64	0.069	-0.08673807537922298	
1.645	0.005	-0.06504354177132204	
1.65	-0.111	-0.045253140612513294	
1.655	0.062	-0.02794434107740864	
1.66	0.130	-0.010006328663322482	
1.665	-0.048	0.008703375837507752	
1.67	0.014	0.023036023498209608	
1.675	0.159	0.03427701011789332	
1.68	-0.005	0.04293178249795085	
1.685	-0.031	0.04598913760990492	
1.69	0.194	0.05031299614181892	
1.695	0.158	0.060977400277426666	
1.7	0.039	0.07971201570741553	
1.705	0.190	0.0990565826429935	
1.71	0.275	0.12101648747993317	
1.715	0.129	0.14370203117266994	
1.72	0.228	0.1690258391712216	
1.725	0.422	0.19828442626654033	
1.73	0.278	0.23195343743062208	
1.735	0.213	0.2629823187461898	
1.74	0.402	0.2862747206785725	
1.745	0.315	0.2999761742020153	
1.75	0.104	0.3027323361648505	
1.755	0.260	0.2910203303650329	
1.76	0.265	0.26999234008781536	
1.765	0.007	0.24174803744576687	
1.77	0.019	0.20200955243190158	
1.775	0.103	0.15421347045894415	
1.78	-0.085	0.10200085607643035	
1.785	-0.126	0.05104141172771983	
1.79	0.024	0.0072063703667735665	
1.795	-0.059	-0.028016578412332988	
1.8	-0.158	-0.053162882309297006	
1.805	-0.066	-0.07001908033023375	
1.81	-0.030	-0.08206947869344672	
1.815	-0.140	-0.09015702928438674	
1.82	-0.112	-0.09196302491201733	
1.825	0.002	-0.09087376191568108	
1.83	-0.085	-0.08796681703020907	
1.835	-0.100	-0.0808935833705557	
1.84	0.059	-0.06785981760866039	
1.845	-0.010	-0.05404949123195432	
1.85	-0.131	-0.043106629777980174	
1.855	-0.005	-0.036038727393115325	
1.86	0.042	-0.03311796918584631	
1.865	-0.120	-0.03212242572654412	
1.87	-0.062	-0.031949750623768994	
1.875	0.069	-0.03291684267423606	
1.88	-0.091	-0.03395632016079182	
1.885	-0.135	-0.03786962401419726	
1.89	-0.012	-0.04489919649988345	
1.895	-0.079	-0.05605750679780013	
1.9	-0.182	-0.06906067852866293	
1.905	-0.100	-0.08205070254701788	
1.91	-0.083	-0.0961516463124872	
1.915	-0.187	-0.11109014607191367	
1.92	-0.129	-0.11992859773036779	
1.925	-0.022	-0.12294465138290497	
1.93	-0.147	-0.12195393733366444	
1.935	-0.173	-0.11884489258342801	
1.94	-0.037	-0.11590542207272156	
1.945	-0.070	-0.11306913126338451	
1.95	-0.132	-0.10604761642903471	
1.955	0.083	-0.08903045005511338	
1.96	0.167	-0.057145745537049215	
1.965	-0.042	-0.11109014607191367	
1.97	-0.080	-0.10604761642903471	
1.975	-0.082	-0.10112880070652494	
1.98	-0.207	-0.0189668220775469	
1.985	-0.230	-0.060827064562897985	
1.99	-0.089	-0.09989305704546333	
1.995	-0.088	-0.12907859936623417	
2.0	-0.152	-0.14003800426473095	
2.005	-0.044	-0.13400839012496876	
2.01	0.007	-0.11917487888983992	
2.015	-0.120	-0.10112880070652494	
2.02	-0.060	-0.08188750626089647	
2.025	0.062	-0.06493065916810195	
2.03	-0.080	-0.05102592710537156	
2.035	-0.092	-0.04082907780705977	
2.04	0.095	-0.03183137611750985	
2.045	0.007	-0.022130326447742987	
2.05	-0.100	-0.014101116579985178	
2.055	0.062	-0.007948393494841367	
2.06	0.123	0.0018415321905557653	
2.065	-0.025	0.013807881910572741	
2.07	0.043	0.02813462154140537	
2.075	0.211	0.04411769750457421	
2.08	0.056	0.061937209232376465	
2.085	0.053	0.07815289606210515	
2.09	0.291	0.09821077629963446	
2.095	0.246	0.12487558343331794	
2.1	0.130	0.15587288765930993	
2.105	0.275	0.18405234540151744	
2.11	0.350	0.2098512097657799	
2.115	0.179	0.2318016159851556	
2.12	0.263	0.2501206361846432	
2.125	0.411	0.266115492044248	
2.13	0.199	0.2779516147151445	
2.135	0.068	0.2751352360457969	
2.14	0.194	0.2521596043905538	
2.145	0.074	0.21388336900146993	
2.15	-0.086	0.16591174705841422	
2.155	0.016	0.1140162429637841	
2.16	0.017	0.06283183612273817	
2.165	-0.155	0.016869712272250745	
2.17	-0.111	-0.02187994282826234	
2.175	-0.033	-0.054947661453938985	
2.18	-0.166	-0.0819971679056602	
2.185	-0.169	-0.10279637077799163	
2.19	-0.037	-0.11488844401574325	
2.195	-0.088	-0.12012075769566469	
2.2	-0.173	-0.11901634457289316	
2.205	-0.068	-0.11401053200963712	
2.21	-0.025	-0.10822184116958573	
2.215	-0.141	-0.10208185933379446	
2.22	-0.083	-0.09286439295441767	
2.225	0.033	-0.0830070709448115	
2.23	-0.095	-0.07398777076215618	
2.235	-0.124	-0.06575960036830902	
2.24	0.017	-0.060931030522317214	
2.245	-0.053	-0.05914856054154223	
2.25	-0.156	-0.058974756560356424	
2.255	-0.045	-0.06201234447386171	
2.26	-0.033	-0.06726656799084785	
2.265	-0.179	-0.07506166517634519	
2.27	-0.141	-0.0848358331400092	
2.275	-0.070	-0.0970492618670568	
2.28	-0.173	-0.11199683141708412	
2.285	-0.208	-0.12470719487387187	
2.29	-0.088	-0.13494072143635483	
2.295	-0.129	-0.14418944047219456	
2.3	-0.214	-0.14893705923037814	
2.305	-0.111	-0.14897812425280055	
2.31	-0.097	-0.1483138794835257	
2.315	-0.213	-0.14907572058473267	
2.32	-0.158	-0.14777668359233936	
2.325	-0.037	-0.14505173717706232	
2.33	-0.105	-0.13805143193386743	
2.335	-0.057	-0.12066715785847536	
2.34	0.194	-0.13802827685373736	
2.345	0.100	-0.13802827685373736	
2.35	-0.138	-0.13684874700550262	
2.355	-0.132	-0.12066715785847536	
2.36	-0.170	-0.012345074769020413	
2.365	-0.253	-0.0601142277714183	
2.37	-0.169	-0.10671756935219039	
2.375	-0.047	-0.13802827685373736	
2.38	-0.135	-0.15210314004522235	
2.385	-0.147	-0.1496483225415689	
2.39	0.004	-0.13684874700550262	
2.395	-0.060	-0.11929956491193969	
2.4	-0.137	-0.10097495224405978	
2.405	-0.005	-0.08385100711740504	
2.41	0.043	-0.06735326075543206	
2.415	-0.108	-0.05218123350263889	
2.42	-0.047	-0.0396774773298179	
2.425	0.123	-0.029013941535169764	
2.43	-0.024	-0.016177852084962148	
2.435	-0.030	-0.0026349711044682173	
2.44	0.155	0.013200817356779663	
2.445	0.086	0.029649765115318024	
2.45	-0.033	0.045009863749883694	
2.455	0.153	0.05820511935064604	
2.46	0.214	0.07362566859174538	
2.465	0.075	0.09379123397019073	
2.47	0.181	0.11637238026754775	
2.475	0.344	0.14398275250380443	
2.48	0.214	0.17478217136663363	
2.485	0.207	0.20539613340059765	
2.49	0.423	0.2352080065105081	
2.495	0.342	0.26561249386700403	
2.5	0.207	0.291033394779004	
2.505	0.364	0.308211105164922	
2.51	0.365	0.3165743447074099	
2.515	0.107	0.31380511129461736	
2.52	0.129	0.2923834773191903	
2.525	0.181	0.25391433659097473	
2.53	-0.034	0.2037954075030293	
2.535	-0.088	0.14445510584227067	
2.54	0.036	0.08514537363623577	
2.545	-0.065	0.031599324876003136	
2.55	-0.163	-0.013863326728818624	
2.555	-0.073	-0.048817303227604816	
2.56	-0.068	-0.07749278568428905	
2.565	-0.182	-0.09909241920824288	
2.57	-0.132	-0.11257413336569846	
2.575	-0.013	-0.11817527298982038	
2.58	-0.115	-0.11816159995235931	
2.585	-0.121	-0.11046403803386647	
2.59	0.030	-0.09693242870383274	
2.595	-0.042	-0.08243721646043557	
2.6	-0.129	-0.06978933015980937	
2.605	0.011	-0.057841841107771616	
2.61	0.016	-0.0485565205540314	
2.615	-0.135	-0.04304956333699406	
2.62	-0.079	-0.042562202018424464	
2.625	0.002	-0.04723833533764673	
2.63	-0.111	-0.055148787715885335	
2.635	-0.120	-0.061423601041910934	
2.64	0.002	-0.06597165440315125	
2.645	-0.103	-0.07045279651041417	
2.65	-0.179	-0.07874720212634265	
2.655	-0.092	-0.08785363341970179	
2.66	-0.077	-0.09958593452030688	
2.665	-0.198	-0.11101761995832761	
2.67	-0.149	-0.11954325489159603	
2.675	-0.073	-0.12726411568013496	
2.68	-0.156	-0.13414848662557635	
2.685	-0.175	-0.13540004590953214	
2.69	-0.086	-0.13497670375266652	
2.695	-0.155	-0.13847735075902226	
2.7	-0.211	-0.14273916070040546	
2.705	-0.085	-0.14381636534545938	
2.71	0.019	-0.13759504478041157	
2.715	-0.022	-0.11604212110675301	
2.72	0.150	-0.07248702630564491	
2.725	0.263	-0.13414848662557635	
2.73	-0.070	-0.13414848662557635	
2.735	-0.208	-0.1297580514235594	
2.74	-0.152	-0.129261799521578	
2.745	-0.201	-0.025495663350103677	
2.75	-0.233	-0.08576809125177756	
2.755	-0.099	-0.1297580514235594	
2.76	-0.076	-0.15358110009792764	
2.765	-0.176	-0.16010388899602468	
2.77	-0.115	-0.15347918967033214	
2.775	-0.033	-0.1421985508351073	
2.78	-0.123	-0.129261799521578	
2.785	-0.124	-0.11540831188908288	
2.79	0.053	-0.09784818605636678	
2.795	-0.036	-0.07953804891414948	
2.8	-0.115	-0.06183533765307901	
2.805	0.042	-0.046704258945119884	
2.81	0.074	-0.031576445659066935	
2.815	-0.079	-0.01718854507168206	
2.82	-0.027	-0.006457029745825826	
2.825	0.109	-0.0011447981997623204	
2.83	-0.013	0.004681336084218728	
2.835	0.028	0.014582116594627036	
2.84	0.227	0.03322057041854414	
2.845	0.167	0.06043708530578912	
2.85	0.078	0.09212576547522369	
2.855	0.292	0.12434846506214851	
2.86	0.344	0.16142896607211837	
2.865	0.191	0.19976676514263905	
2.87	0.303	0.23456790974005368	
2.875	0.440	0.26587552202821196	
2.88	0.275	0.29364656351719287	
2.885	0.231	0.3125716994898486	
2.89	0.370	0.31921593769056045	
2.895	0.196	0.3124142580055036	
2.9	-0.001	0.2851237532912719	
2.905	0.143	0.24133359238812696	
2.91	0.111	0.18941386803886823	
2.915	-0.108	0.13780275556666907	
2.92	-0.073	0.0835659813389189	
2.925	0.001	0.030831508981804652	
2.93	-0.137	-0.016304038669203096	
2.935	-0.158	-0.053376475483057656	
2.94	-0.047	-0.0808414650244687	
2.945	-0.112	-0.10157344183828157	
2.95	-0.175	-0.11377804460966008	
2.955	-0.047	-0.11669525214433182	
2.96	-0.030	-0.11364868280402358	
2.965	-0.164	-0.10712847444847536	
2.97	-0.108	-0.10040961768130836	
2.975	0.013	-0.09525061819959749	
2.98	-0.099	-0.08829010921552546	
2.985	-0.106	-0.07931547454594681	
2.99	0.053	-0.06890064696470374	
2.995	-0.039	-0.05761054821869542	
3.0	-0.138	-0.04971194758356254	
3.005	-0.036	-0.047720748561671696	
3.01	-0.021	-0.05072216533723677	
3.015	-0.158	-0.058065874399739946	
3.02	-0.097	-0.06537296327425762	
3.025	-0.037	-0.07433684577345266	
3.03	-0.169	-0.08627980385281889	
3.035	-0.182	-0.09924326438632203	
3.04	-0.088	-0.1119564124706455	
3.045	-0.164	-0.12764928550275276	
3.05	-0.239	-0.1416345498312538	
3.055	-0.128	-0.1527124565819508	
3.06	-0.109	-0.1607827780787287	
3.065	-0.207	-0.16403408023278465	
3.07	-0.152	-0.16132368438174466	
3.075	-0.088	-0.1573832587748909	
3.08	-0.198	-0.15630683445695842	
3.085	-0.184	-0.15418688795310584	
3.09	0.045	-0.1459436300760663	
3.095	0.149	-0.11668220801443685	
3.1	0.118	-0.06058894279407176	
3.105	0.272	-0.1527124565819508	
3.11	0.062	-0.1459436300760663	
3.115	-0.231	-0.13785516194123504	
3.12	-0.231	-0.13513427927314517	
3.125	-0.166	0.0006081016724857335	
3.13	-0.239	-0.07533470497589032	
3.135	-0.210	-0.13513427927314517	
3.14	-0.063	-0.16891834717943965	
3.145	-0.120	-0.1807405459626518	
3.15	-0.178	-0.17560245299549232	
3.155	-0.036	-0.15962819698745112	
3.16	-0.025	-0.13785516194123504	
3.165	-0.152	-0.11608514426004496	
3.17	-0.080	-0.09723994167968106	
3.175	0.024	-0.08338838757253267	
3.18	-0.105	-0.0733865077208362	
3.185	-0.106	-0.06513949461328661	
3.19	0.082	-0.05590140516194813	
3.195	0.011	-0.04377448556336898	
3.2	-0.076	-0.028618754101294865	
3.205	0.083	-0.01259913407333571	
3.21	0.127	0.004134274337232686	
3.215	-0.033	0.02189389900425756	
3.22	0.095	0.039791537920315215	
3.225	0.240	0.05962051973461292	
3.23	0.098	0.0835885595954133	
3.235	0.146	0.11087978662290841	
3.24	0.370	0.14211249496673706	
3.245	0.283	0.17919808703567974	
3.25	0.201	0.21739000800710936	
3.255	0.364	0.24941108619131275	
3.26	0.346	0.2750980179333888	
3.265	0.121	0.2868953671082982	
3.27	0.184	0.2818014488206927	
3.275	0.231	0.25957216927820426	
3.28	-0.005	0.22558898305667974	
3.285	-0.068	0.17691269804191828	
3.29	0.033	0.11905641800241029	
3.295	-0.105	0.05818436547286465	
3.3	-0.195	0.0004709884661282329	
3.305	-0.112	-0.0506119856414011	
3.31	-0.135	-0.09495309246073401	
3.315	-0.245	-0.1320134978000583	
3.32	-0.182	-0.15715873972530958	
3.325	-0.123	-0.17450544130808354	
3.33	-0.210	-0.18537574938124815	
3.335	-0.195	-0.18800308830781814	
3.34	-0.074	-0.18199465817184818	
3.345	-0.137	-0.17285516484140118	
3.35	-0.201	-0.16146901335778935	
3.355	-0.062	-0.14861389587283805	
3.36	-0.056	-0.1360117103993268	
3.365	-0.167	-0.12299682010828636	
3.37	-0.077	-0.11113074160616973	
3.375	0.001	-0.09854498688548438	
3.38	-0.131	-0.08939222679438227	
3.385	-0.137	-0.08397820779726214	
3.39	0.011	-0.08000868914149944	
3.395	-0.071	-0.07787382156246106	
3.4	-0.161	-0.07544850340624573	
3.405	-0.074	-0.0766161124785164	
3.41	-0.082	-0.08403859048578423	
3.415	-0.201	-0.09598674110556175	
3.42	-0.147	-0.10811166452491672	
3.425	-0.088	-0.1205611215498048	
3.43	-0.189	-0.1334014005258456	
3.435	-0.182	-0.14194918637345305	
3.44	-0.080	-0.14599710496049573	
3.445	-0.143	-0.14890718559732774	
3.45	-0.216	-0.14944775970186172	
3.455	-0.108	-0.14856890750397345	
3.46	-0.114	-0.14905226865132964	
3.465	-0.208	-0.15003123538251045	
3.47	-0.085	-0.1460653274119275	
3.475	0.202	-0.1255119123263061	
3.48	0.255	-0.07043097487096754	
3.485	0.301	-0.14147403105846068	
3.49	0.385	-0.14147403105846068	
3.495	-0.028	-0.12796925686941557	
3.5	-0.231	-0.1255119123263061	
3.505	-0.158	-0.10854413500546295	
3.51	-0.143	0.046966566140086374	
3.515	-0.218	-0.03907747937553628	
3.52	-0.150	-0.1030277103905882	
3.525	-0.062	-0.14147403105846068	
3.53	-0.153	-0.15950846765084745	
3.535	-0.141	-0.15895661039893738	
3.54	0.004	-0.1468687747030225	
3.545	-0.076	-0.12796925686941557	
3.55	-0.147	-0.10854413500546295	
3.555	0.001	-0.0914548776442477	
3.56	0.008	-0.07502380383453355	
3.565	-0.111	-0.06116120271666082	
3.57	-0.007	-0.04802605564477105	
3.575	0.115	-0.032427291617914064	
3.58	-0.034	-0.016564270786427096	
3.585	-0.031	-0.000998488127743879	
3.59	0.149	0.012185539882393426	
3.595	0.086	0.027034371697308938	
3.6	0.022	0.04540862233165234	
3.605	0.248	0.06957848850340473	
3.61	0.301	0.10201652388544986	
3.615	0.149	0.14280068063749762	
3.62	0.309	0.1829614769882416	
3.625	0.465	0.22660769161279917	
3.63	0.304	0.27143199504866145	
3.635	0.330	0.3119752055117354	
3.64	0.532	0.3461853078234348	
3.645	0.390	0.3760492760923873	
3.65	0.262	0.3943963716128929	
3.655	0.397	0.39652733533249906	
3.66	0.303	0.38300878737277094	
3.665	0.016	0.34983569146985016	
3.67	0.080	0.29391132625788774	
3.675	0.109	0.2245589376074067	
3.68	-0.108	0.1525170952446488	
3.685	-0.132	0.08199451049684958	
3.69	-0.041	0.016087604250021176	
3.695	-0.132	-0.04089191126886187	
3.7	-0.202	-0.08449094052955337	
3.705	-0.106	-0.11455891548889623	
3.71	-0.118	-0.13602071093917534	
3.715	-0.211	-0.151017417597424	
3.72	-0.160	-0.1570992318916577	
3.725	-0.080	-0.15954999688882135	
3.73	-0.179	-0.15940498502556522	
3.735	-0.156	-0.1539451298921482	
3.74	-0.045	-0.14501581303782565	
3.745	-0.106	-0.13490139643665694	
3.75	-0.163	-0.12441467982865521	
3.755	-0.034	-0.11260851507216582	
3.76	-0.060	-0.10307362159234945	
3.765	-0.173	-0.09696196163172295	
3.77	-0.100	-0.09509997585923924	
3.775	-0.025	-0.09460687748917589	
3.78	-0.153	-0.09637621678094044	
3.785	-0.163	-0.09892028627028357	
3.79	-0.077	-0.10406681713301526	
3.795	-0.161	-0.11490100258980275	
3.8	-0.242	-0.12837570066119702	
3.805	-0.147	-0.14263424900592708	
3.81	-0.156	-0.15909120047629732	
3.815	-0.256	-0.1739244592406845	
3.82	-0.192	-0.18309179583478535	
3.825	-0.103	-0.1886293487244446	
3.83	-0.213	-0.189370063934016	
3.835	-0.213	-0.18589817343903564	
3.84	-0.117	-0.18206946450315692	
3.845	-0.181	-0.17992080765183238	
3.85	-0.218	-0.17836553984881265	
3.855	-0.065	-0.17060356856643027	
3.86	0.046	-0.15309857540417177	
3.865	-0.012	-0.11793485022865577	
3.87	0.135	-0.17703648063997285	
3.875	0.103	-0.17060356856643027	
3.88	-0.208	-0.15958592064276822	
3.885	-0.274	-0.15437863750341388	
3.89	-0.189	-0.042032499361302975	
3.895	-0.221	-0.10393186971465279	
3.9	-0.245	-0.15437863750341388	
3.905	-0.114	-0.1835568374442218	
3.91	-0.103	-0.19409800069447225	
3.915	-0.201	-0.1909911390243616	
3.92	-0.118	-0.17703648063997285	
3.925	-0.034	-0.15958592064276822	
3.93	-0.143	-0.142466493155673	
3.935	-0.126	-0.1238971076514877	
3.94	0.017	-0.10696257428431506	
3.945	-0.073	-0.09198664241246801	
3.95	-0.120	-0.07844701029966608	
3.955	0.048	-0.06448689331415731	
3.96	0.053	-0.04809372901146834	
3.965	-0.088	-0.031089208910635116	
3.97	0.014	-0.01599787389648496	
3.975	0.138	-0.0025183916561095023	
3.98	-0.002	0.012454135598480569	
3.985	0.013	0.02808827828693218	
3.99	0.240	0.045125717069803506	
3.995	0.170	0.0709854827306267	
4.0	0.086	0.10150488876152854	
4.005	0.327	0.13356823734209478	
4.01	0.364	0.1729118911054313	
4.015	0.207	0.21487252049196012	
4.02	0.339	0.25302287509339505	
4.025	0.405	0.2844782564000682	
4.03	0.194	0.3034247981107935	
4.035	0.187	0.3060957447561928	
4.04	0.333	0.29610859284092694	
4.045	0.143	0.2759652345301693	
4.05	-0.021	0.24352269199815738	
4.055	0.074	0.19654003651194343	
4.06	-0.001	0.13888024170716884	
4.065	-0.153	0.07791985797338788	
4.07	-0.097	0.021035170261549645	
4.075	-0.063	-0.030560808407379087	
4.08	-0.196	-0.0745317216221003	
4.085	-0.190	-0.10885027308980762	
4.09	-0.074	-0.13293200056199705	
4.095	-0.147	-0.14803812867982383	
4.1	-0.201	-0.1534044979418272	
4.105	-0.074	-0.15146175151101826	
4.11	-0.076	-0.14616745089632224	
4.115	-0.182	-0.13804822879129133	
4.12	-0.097	-0.1279373785811324	
4.125	-0.013	-0.11761309609481625	
4.13	-0.146	-0.10854508687208039	
4.135	-0.128	-0.10080845261668411	
4.14	0.017	-0.09295513931951398	
4.145	-0.092	-0.08608100310904662	
4.15	-0.156	-0.08037514472058059	
4.155	-0.018	-0.07845145913545663	
4.16	-0.050	-0.07721062192557154	
4.165	-0.167	-0.07803654447896599	
4.17	-0.105	-0.08190968754214575	
4.175	-0.056	-0.08864991204254202	
4.18	-0.189	-0.0995507400046819	
4.185	-0.182	-0.11076745908001626	
4.19	-0.080	-0.12297648636151715	
4.195	-0.155	-0.13410761432351323	
4.2	-0.208	-0.14232942618190353	
4.205	-0.106	-0.14644131043518727	
4.21	-0.132	-0.15025724371891175	
4.215	-0.224	-0.15502215904749067	
4.22	-0.132	-0.15586462255928527	
4.225	-0.071	-0.15367170212546155	
4.23	-0.184	-0.150578768910605	
4.235	-0.181	-0.14673411947645576	
4.24	0.005	-0.13895709309049145	
4.245	0.007	-0.12313690312688146	
4.25	-0.063	-0.0943240184039271	
4.255	0.071	-0.13895709309049145	
4.26	-0.079	-0.13836424507944717	
4.265	-0.256	-0.13561656829929708	
4.27	-0.202	-0.0598405324562199	
4.275	-0.134	-0.0986501991843493	
4.28	-0.208	-0.13561656829929708	
4.285	-0.161	-0.15771145942826975	
4.29	-0.021	-0.1619031157905324	
4.295	-0.102	-0.15418702148102745	
4.3	-0.160	-0.13836424507944717	
4.305	-0.037	-0.12133772598863093	
4.31	-0.002	-0.10527941751510744	
4.315	-0.115	-0.08812238451700319	
4.32	-0.012	-0.06878005781899071	
4.325	0.082	-0.05061924594474261	
4.33	-0.074	-0.033711150360061046	
4.335	-0.044	-0.019711769989513503	
4.34	0.118	-0.008835118518479606	
4.345	-0.010	0.0007434926454999272	
4.35	-0.068	0.007597095636765868	
4.355	0.147	0.014756509858043686	
4.36	0.146	0.02870927195754637	
4.365	-0.024	0.04680184824957039	
4.37	0.107	0.062271638002658156	
4.375	0.191	0.07540944439288001	
4.38	0.049	0.0872281261970703	
4.385	0.132	0.10030966909416492	
4.39	0.353	0.1222158369901018	
4.395	0.240	0.15371428290784134	
4.4	0.165	0.18858538206666142	
4.405	0.355	0.218774014813893	
4.41	0.315	0.2436849333416406	
4.415	0.111	0.25879138373268007	
4.42	0.227	0.2592813131982111	
4.425	0.237	0.24838859022766116	
4.43	0.007	0.2242266065692687	
4.435	-0.005	0.1863123549074327	
4.44	0.100	0.14017394099273178	
4.445	-0.056	0.09272313044635573	
4.45	-0.143	0.04563108729307888	
4.455	-0.037	0.0017366057378924772	
4.46	-0.085	-0.038325149143008365	
4.465	-0.193	-0.0721307496293929	
4.47	-0.126	-0.09672613182507984	
4.475	-0.070	-0.11565805157728783	
4.48	-0.170	-0.1297090464971078	
4.485	-0.143	-0.13364849348416352	
4.49	-0.018	-0.12988183329992958	
4.495	-0.106	-0.12327494680237795	
4.5	-0.155	-0.11432528320152248	
4.505	-0.016	-0.1032851873991189	
4.51	-0.039	-0.09335384535458155	
4.515	-0.158	-0.08511792742054525	
4.52	-0.054	-0.07872181874922102	
4.525	0.028	-0.07367326474448974	
4.53	-0.118	-0.06771635327049291	
4.535	-0.099	-0.06164602313465713	
4.54	0.025	-0.058887544205970095	
4.545	-0.086	-0.058286099683224256	
4.55	-0.138	-0.05931832035941016	
4.555	-0.034	-0.06227939863077971	
4.56	-0.071	-0.06937294170010033	
4.565	-0.198	-0.07911645005601789	
4.57	-0.134	-0.09169813385319987	
4.575	-0.089	-0.10769319924483532	
4.58	-0.213	-0.12473785942144645	
4.585	-0.190	-0.13860559234055506	
4.59	-0.085	-0.1488743944238935	
4.595	-0.164	-0.15633055694961184	
4.6	-0.216	-0.1582994855161542	
4.605	-0.076	-0.15722958931885295	
4.61	-0.082	-0.15141195581245465	
4.615	-0.193	-0.1441391932061967	
4.62	-0.099	-0.133634620598847	
4.625	0.028	-0.12169828884842802	
4.63	-0.062	-0.10379323218213479	
4.635	0.008	-0.0755550727806601	
4.64	0.129	-0.04083825572311054	
4.645	-0.118	-0.015421235373614124	
4.65	-0.237	-0.01533206880494221	
4.655	-0.156	-0.04116994662883564	
4.66	-0.176	-0.08444167398162826	
4.665	-0.243	-0.12718691044853597	
4.67	-0.123	-0.15555872776484736	
4.675	-0.027	-0.165663629140023	
4.68	-0.143	-0.15987408871340136	
4.685	-0.114	-0.1425463561088816	
4.69	0.025	-0.12176597266109798	
4.695	-0.074	-0.10046114485821901	
4.7	-0.129	-0.08234655176905226	
4.705	0.031	-0.06707882169505483	
4.71	0.005	-0.05446071205334023	
4.715	-0.117	-0.04427354764076704	
4.72	0.017	-0.03451029844565115	
4.725	0.103	-0.023633806739935394	
4.73	-0.083	-0.01296457918166058	
4.735	-0.063	-0.006543100337566741	
4.74	0.135	-0.002692775721692814	
4.745	0.031	0.004497945947082406	
4.75	-0.033	0.015622777299364574	
4.755	0.185	0.030986653136928943	
4.76	0.155	0.050536566596011724	
4.765	0.022	0.07267813828041045	
4.77	0.216	0.09452243958333804	
4.775	0.326	0.12338974533381802	
4.78	0.138	0.15500548605481196	
4.785	0.199	0.18445938323496314	
4.79	0.352	0.20731667163101172	
4.795	0.185	0.22547997598501976	
4.8	0.074	0.22961176272995734	
4.805	0.255	0.22297066374413732	
4.81	0.149	0.20753511707723715	
4.815	-0.062	0.1816963017159035	
4.82	0.040	0.14448479388850852	
4.825	0.054	0.10136331131817163	
4.83	-0.118	0.058067459062685366	
4.835	-0.120	0.016459370499510403	
4.84	-0.013	-0.021746017639608237	
4.845	-0.128	-0.05546005002838601	
4.85	-0.179	-0.0803243865384533	
4.855	-0.062	-0.09810170956937742	
4.86	-0.091	-0.11146804072993129	
4.865	-0.187	-0.12020773611908803	
4.87	-0.099	-0.12153941525765331	
4.875	-0.045	-0.12170013363916557	
4.88	-0.166	-0.11987724557906114	
4.885	-0.134	-0.11651278129851755	
4.89	0.014	-0.10980773901395921	
4.895	-0.088	-0.10145807409326162	
4.9	-0.149	-0.09128214903645833	
4.905	0.019	-0.08113389181895445	
4.91	-0.025	-0.07249642848812327	
4.915	-0.146	-0.06517476642961051	
4.92	-0.041	-0.05954157723800233	
4.925	0.036	-0.056736508431358496	
4.93	-0.128	-0.0538582687364138	
4.935	-0.109	-0.05349161779380136	
4.94	-0.007	-0.056848846632750694	
4.945	-0.132	-0.06647052279256993	
4.95	-0.201	-0.07924149401612074	
4.955	-0.089	-0.09414456075305729	
4.96	-0.132	-0.11253460709827279	
4.965	-0.222	-0.1291428882715901	
4.97	-0.123	-0.14050649422612504	
4.975	-0.088	-0.14677336546484843	
4.98	-0.187	-0.14987194508362853	
4.985	-0.161	-0.1484412700213901	
4.99	-0.036	-0.1428432710972462	
4.995	-0.141	-0.13751511848352174	
5.0	-0.182	-0.1312245134735844	
5.005	-0.019	-0.12309860376970655	
5.01	0.021	-0.10956162726399721	
5.015	-0.056	-0.0871668687021527	
5.02	0.072	-0.054458507546843615	
5.025	0.065	-0.1294056634523892	
5.03	-0.198	-0.007951755150000135	
5.035	-0.237	-0.020445957283870383	
5.04	-0.149	-0.05880300516601395	
5.045	-0.208	-0.10655105322311273	
5.05	-0.205	-0.14523007218393724	
5.055	-0.044	-0.1620244165700066	
5.06	-0.065	-0.1625776312344176	
5.065	-0.155	-0.1492348238710277	
5.07	-0.062	-0.1294056634523892	
5.075	0.007	-0.10973675020635715	
5.08	-0.120	-0.09301591471437555	
5.085	-0.100	-0.07840706014188764	
5.09	0.066	-0.06571388191477236	
5.095	-0.050	-0.05463510019658972	
5.1	-0.103	-0.04329207763773365	
5.105	0.074	-0.03392991711043348	
5.11	0.048	-0.022601913397413225	
5.115	-0.102	-0.012335753263396735	
5.12	0.036	-0.004330152917715633	
5.125	0.124	0.003313590233098698	
5.13	-0.045	0.011885827083197737	
5.135	0.045	0.022613750461151685	
5.14	0.231	0.038375829574178906	
5.145	0.103	0.061302165663338896	
5.15	0.065	0.0856696770417206	
5.155	0.306	0.11215012486297882	
5.16	0.263	0.143390088074572	
5.165	0.129	0.17360307979235673	
5.17	0.310	0.20170679114989243	
5.175	0.384	0.22834270820278219	
5.18	0.167	0.2518393884124288	
5.185	0.170	0.2625934547537304	
5.19	0.317	0.2593863912293608	
5.195	0.100	0.24629666851183876	
5.2	-0.027	0.21765362464355092	
5.205	0.133	0.17712607392806873	
5.21	0.017	0.1314000195149933	
5.215	-0.147	0.08363894251154741	
5.22	-0.073	0.03467365511827926	
5.225	-0.041	-0.01268615484275899	
5.23	-0.172	-0.0540843138244282	
5.235	-0.156	-0.084382449320668	
5.24	-0.053	-0.10667854529001727	
5.245	-0.156	-0.12266298438442182	
5.25	-0.190	-0.1322723173706732	
5.255	-0.053	-0.13492748977131397	
5.26	-0.073	-0.13262621456800283	
5.265	-0.173	-0.12628827128500725	
5.27	-0.065	-0.11633489250305254	
5.275	-0.010	-0.10574841686164096	
5.28	-0.153	-0.09705564697039246	
5.285	-0.118	-0.09036121071547532	
5.29	0.034	-0.08473015668816425	
5.295	-0.089	-0.0786595926541292	
5.3	-0.129	-0.07223499075311696	
5.305	0.013	-0.0659638623037005	
5.31	-0.030	-0.06164956062322127	
5.315	-0.146	-0.05924885716088966	
5.32	-0.059	-0.0583439978842741	
5.325	-0.027	-0.06278769524139588	
5.33	-0.172	-0.07102952386181484	
5.335	-0.160	-0.08133783665013578	
5.34	-0.062	-0.09576865351223722	
5.345	-0.166	-0.11166869057751166	
5.35	-0.211	-0.12519185562826457	
5.355	-0.086	-0.134965333416666	
5.36	-0.123	-0.14268707988593174	
5.365	-0.228	-0.1482273797887833	
5.37	-0.131	-0.1503055484409358	
5.375	-0.095	-0.15181885471017606	
5.38	-0.201	-0.15405200513595213	
5.385	-0.156	-0.15228692094277219	
5.39	0.001	-0.14475318546869284	
5.395	-0.036	-0.12871476464261733	
5.4	-0.021	-0.10017273276876658	
5.405	0.201	-0.14268707988593174	
5.41	0.068	-0.14268707988593174	
5.415	-0.196	-0.14172063292018952	
5.42	-0.172	-0.12871476464261733	
5.425	-0.161	-0.02481124173649347	
5.43	-0.259	-0.08008765597248589	
5.435	-0.192	-0.12726763743429897	
5.44	-0.051	-0.15670872270239938	
5.445	-0.149	-0.1687427190235124	
5.45	-0.187	-0.16720180877510502	
5.455	-0.033	-0.15587425199490704	
5.46	-0.082	-0.14172063292018952	
5.465	-0.163	-0.1273109374747582	
5.47	-0.051	-0.11122977973202222	
5.475	0.043	-0.0957696957312415	
5.48	-0.112	-0.07815768622994437	
5.485	-0.071	-0.06228464952160016	
5.49	0.089	-0.048657207885841935	
5.495	-0.047	-0.0357879840351774	
5.5	-0.082	-0.025248831622169184	
5.505	0.129	-0.013813108576689059	
5.51	0.060	0.0002868046525931472	
5.515	-0.071	0.012626525132167261	
5.52	0.117	0.024795288082104627	
5.525	0.230	0.04227817511615582	
5.53	0.042	0.06680803249088413	
5.535	0.107	0.0906918594644979	
5.54	0.306	0.1133772734163352	
5.545	0.210	0.14022786288190062	
5.55	0.185	0.1717304195175492	
5.555	0.399	0.2061763362763265	
5.56	0.344	0.2403031975518536	
5.565	0.146	0.26863334683530216	
5.57	0.283	0.28075484611630697	
5.575	0.320	0.28124981222849094	
5.58	0.030	0.26784460921909947	
5.585	0.017	0.23568138131877503	
5.59	0.127	0.1873073117992863	
5.595	-0.076	0.13126322134225826	
5.6	-0.153	0.07378552149660106	
5.605	-0.041	0.017095121030739253	
5.61	-0.100	-0.03470653536525283	
5.615	-0.202	-0.07523962787031414	
5.62	-0.129	-0.10526846382354343	
5.625	-0.105	-0.12784223634464137	
5.63	-0.213	-0.1460512570645961	
5.635	-0.173	-0.15524393841584594	
5.64	-0.070	-0.15880147839621656	
5.645	-0.156	-0.15873512535251358	
5.65	-0.166	-0.15310303524319202	
5.655	-0.016	-0.13995515235466333	
5.66	-0.057	-0.12478573030105802	
5.665	-0.172	-0.11017208887750027	
5.67	-0.060	-0.09725084180689617	
5.675	-0.018	-0.08992538830720749	
5.68	-0.152	-0.08503928213496442	
5.685	-0.114	-0.08318822692840191	
5.69	0.011	-0.08185030204112405	
5.695	-0.124	-0.08176799406390318	
5.7	-0.160	-0.08304950303567182	
5.705	-0.027	-0.084964946996646	
5.71	-0.100	-0.08983954393911797	
5.715	-0.219	-0.09813625933796276	
5.72	-0.128	-0.10922003439468608	
5.725	-0.094	-0.12197361683725677	
5.73	-0.216	-0.13503474573691537	
5.735	-0.189	-0.14513885915417762	
5.74	-0.092	-0.15287653825501135	
5.745	-0.172	-0.15979688257768132	
5.75	-0.204	-0.1610029305813252	
5.755	-0.100	-0.1589507682642417	
5.76	-0.138	-0.15788943724262572	
5.765	-0.231	-0.1581272107858438	
5.77	-0.115	-0.15616541099399106	
5.775	-0.019	-0.1509984346417076	
5.78	-0.053	-0.13406899716956958	
5.785	0.114	-0.09706841608049935	
5.79	0.303	-0.1509984346417076	
5.795	0.010	-0.1449917391471518	
5.8	-0.176	-0.1379085186019933	
5.805	-0.134	-0.13406899716956958	
5.81	-0.181	0.002081993976519313	
5.815	-0.253	-0.058147286931934224	
5.82	-0.144	-0.11011203951628383	
5.825	-0.080	-0.1449917391471518	
5.83	-0.184	-0.16311267801690454	
5.835	-0.132	-0.16405554718163656	
5.84	-0.004	-0.15282484974653235	
5.845	-0.126	-0.1379085186019933	
5.85	-0.153	-0.12200242296773266	
5.855	0.017	-0.1058421510212546	
5.86	-0.024	-0.08994848782598543	
5.865	-0.129	-0.07420233323989703	
5.87	-0.008	-0.06106842625913128	
5.875	0.056	-0.048987574494455295	
5.88	-0.099	-0.03818757320587937	
5.885	-0.036	-0.030044889560081552	
5.89	0.135	-0.0197753041019357	
5.895	-0.012	-0.006947282827081009	
5.9	-0.036	0.005976165943194005	
5.905	0.184	0.02120389515960227	
5.91	0.165	0.04205294715589785	
5.915	0.043	0.0687710390447002	
5.92	0.265	0.09894926034053837	
5.925	0.335	0.13603196529721268	
5.93	0.184	0.1748022707955635	
5.935	0.257	0.2119406216513024	
5.94	0.440	0.2452240063952855	
5.945	0.283	0.27506436500659115	
5.95	0.214	0.2979667677224043	
5.955	0.393	0.31017044682963446	
5.96	0.263	0.3120545964082704	
5.965	0.028	0.29678157272895533	
5.97	0.126	0.26189904515879153	
5.975	0.133	0.21301139446541725	
5.98	-0.095	0.1588616905602412	
5.985	-0.100	0.09993022107488296	
5.99	-0.028	0.04016086305995349	
5.995	-0.160	-0.017877729458493464	
6.0	-0.187	-0.06497010445427315	
6.005	-0.059	-0.09989404372288034	
6.01	-0.117	-0.12193874744804449	
6.015	-0.207	-0.1351148664111158	
6.02	-0.099	-0.14012648309171488	
6.025	-0.062	-0.14004804454328557	
6.03	-0.187	-0.13806647227669624	
6.035	-0.150	-0.13304826610317647	
6.04	-0.024	-0.12891537038591216	
6.045	-0.121	-0.12285627828422416	
6.05	-0.146	-0.1149220820997017	
6.055	-0.008	-0.10395853197537366	
6.06	-0.059	-0.094965380939773	
6.065	-0.170	-0.08805832295132034	
6.07	-0.080	-0.08514956072738555	
6.075	-0.018	-0.08509948797708	
6.08	-0.143	-0.08702271364994757	
6.085	-0.115	-0.08602345596838568	
6.09	-0.021	-0.08596771510543105	
6.095	-0.167	-0.09086033584412434	
6.1	-0.211	-0.10088736789818387	
6.105	-0.089	-0.11397853733717843	
6.11	-0.141	-0.1289848849819324	
6.115	-0.237	-0.14202732318747496	
6.12	-0.141	-0.15113551835125794	
6.125	-0.118	-0.15912297354734153	
6.13	-0.242	-0.16702822157981967	
6.135	-0.201	-0.172001063055927	
6.14	-0.102	-0.17596330763907275	
6.145	-0.199	-0.17887903897747948	
6.15	-0.219	-0.1788751939190827	
6.155	-0.079	-0.17394715746014583	
6.16	-0.070	-0.16500437040115898	
6.165	-0.053	-0.14404479782342436	
6.17	0.275	-0.09707094697529954	
6.175	0.365	-0.15912297354734153	
6.18	0.022	-0.16500437040115898	
6.185	-0.123	-0.15398617554039867	
6.19	-0.135	-0.15098352458851777	
6.195	-0.251	-0.14404479782342436	
6.2	-0.259	-0.03589133750027753	
6.205	-0.118	-0.10291652054877368	
6.21	-0.135	-0.15098352458851777	
6.215	-0.230	-0.17706603069796012	
6.22	-0.120	-0.18408850281152023	
6.225	-0.071	-0.18109415113200544	
6.23	-0.178	-0.17109000086979606	
6.235	-0.117	-0.15398617554039867	
6.24	0.014	-0.13490116385799705	
6.245	-0.120	-0.11593889548929925	
6.25	-0.132	-0.09891200003994846	
6.255	0.040	-0.08386835409305746	
6.26	-0.019	-0.06902486405464782	
6.265	-0.115	-0.0561307622013244	
6.27	0.021	-0.04403470324981948	
6.275	0.091	-0.031075432501015254	
6.28	-0.065	-0.017163609731782305	
6.285	0.022	-0.0029692828431330132	
6.29	0.202	0.014157844575487638	
6.295	0.069	0.03702112842042763	
6.3	0.072	0.06306715252489878	
6.305	0.341	0.09418566934356919	
6.31	0.307	0.13597815265969704	
6.315	0.176	0.18183696017230833	
6.32	0.428	0.22797576561066824	
6.325	0.483	0.27593977980921247	
6.33	0.289	0.3208285178908141	
6.335	0.344	0.35400469793174316	
6.34	0.469	0.37313504644612605	
6.345	0.240	0.3780407073321894	
6.35	0.112	0.3620573210575143	
6.355	0.220	0.32311043541573037	
6.36	0.082	0.26898848281826165	
6.365	-0.105	0.20390237908290215	
6.37	-0.036	0.13291179789857355	
6.375	-0.060	0.05989462374656475	
6.38	-0.201	-0.008060168783712362	
6.385	-0.161	-0.06397595629424427	
6.39	-0.094	-0.10595163652430145	
6.395	-0.198	-0.13888895186359357	
6.4	-0.227	-0.15985233041360808	
6.405	-0.109	-0.17096069227740712	
6.41	-0.150	-0.1780228059008674	
6.415	-0.233	-0.17900905414395257	
6.42	-0.108	-0.17410893145623563	
6.425	-0.073	-0.16616050464937565	
6.43	-0.187	-0.15602200347088174	
6.435	-0.144	-0.14496640666224697	
6.44	-0.022	-0.13400414170667915	
6.445	-0.128	-0.1238873098989888	
6.45	-0.152	-0.11382452494713768	
6.455	-0.034	-0.10498808581034308	
6.46	-0.082	-0.10004631132463074	
6.465	-0.170	-0.09798623649154317	
6.47	-0.057	-0.09510563046951143	
6.475	-0.041	-0.09318529957759758	
6.48	-0.190	-0.09502271186572614	
6.485	-0.172	-0.09995303574648344	
6.49	-0.086	-0.11201237775381317	
6.495	-0.205	-0.12790411540901736	
6.5	-0.221	-0.14281177633929004	
6.505	-0.108	-0.15496397135810136	
6.51	-0.161	-0.1640617231505316	
6.515	-0.233	-0.17100094258658124	
6.52	-0.135	-0.17107050524397255	
6.525	-0.111	-0.17118091753856274	
6.53	-0.222	-0.1700654938184373	
6.535	-0.198	-0.16792448411275246	
6.54	-0.099	-0.16796836643699098	
6.545	-0.172	-0.1689613452622286	
6.55	-0.112	-0.16081975208572924	
6.555	0.294	-0.12786000991031732	
6.56	0.353	-0.16081975208572924	
6.565	0.179	-0.16081975208572924	
6.57	0.126	-0.15982086109790383	
6.575	-0.080	-0.15291782451307118	
6.58	-0.285	-0.1341392452446296	
6.585	-0.248	0.05111072052587594	
6.59	-0.138	-0.03689921921821457	
6.595	-0.196	-0.11201568773836564	
6.6	-0.196	-0.15982086109790383	
6.605	-0.053	-0.1787963365242734	
6.61	-0.105	-0.17912964118347702	
6.615	-0.198	-0.16912887542935096	
6.62	-0.063	-0.15291782451307118	
6.625	-0.005	-0.1341392452446296	
6.63	-0.138	-0.11425024526099037	
6.635	-0.082	-0.0948553244247885	
6.64	0.069	-0.07782126081882432	
6.645	-0.074	-0.061122462965557844	
6.65	-0.102	-0.04788313420507049	
6.655	0.092	-0.03669969149337879	
6.66	0.066	-0.022153230749929115	
6.665	-0.060	-0.005214699491464014	
6.67	0.127	0.014152751123954038	
6.675	0.187	0.03589495873224593	
6.68	0.014	0.05866484447243441	
6.685	0.158	0.08216760343638886	
6.69	0.338	0.11024899337086604	
6.695	0.208	0.14582949165589704	
6.7	0.217	0.18409387529272447	
6.705	0.497	0.22535826701288536	
6.71	0.445	0.27584086073958536	
6.715	0.278	0.3247436477041681	
6.72	0.443	0.3621538488272482	
6.725	0.439	0.3848939078513204	
6.73	0.179	0.3896547350780154	
6.735	0.225	0.3721458042807453	
6.74	0.320	0.3402172505462239	
6.745	0.051	0.29785624681075157	
6.75	-0.042	0.24210341087297357	
6.755	0.059	0.1752804276587313	
6.76	-0.080	0.10485670536173403	
6.765	-0.202	0.035834660070779914	
6.77	-0.099	-0.025897932539908033	
6.775	-0.082	-0.07613473594878302	
6.78	-0.224	-0.11321387594626191	
6.785	-0.176	-0.1388547455797038	
6.79	-0.085	-0.15388579557900323	
6.795	-0.178	-0.16405099551497632	
6.8	-0.201	-0.1658200459809151	
6.805	-0.051	-0.15983046831091405	
6.81	-0.086	-0.15113521422505158	
6.815	-0.179	-0.13906554729969736	
6.82	-0.056	-0.1239740883893983	
6.825	-0.028	-0.11119751760618032	
6.83	-0.166	-0.10213445985453927	
6.835	-0.115	-0.09486906011159063	
6.84	-0.018	-0.09196109786731746	
6.845	-0.140	-0.09301055158669648	
6.85	-0.167	-0.09479361864908852	
6.855	-0.022	-0.09688679307961062	
6.86	-0.102	-0.10013199523034738	
6.865	-0.196	-0.10302704779280325	
6.87	-0.106	-0.10800097098270245	
6.875	-0.099	-0.1162176256114558	
6.88	-0.234	-0.12810320469721903	
6.885	-0.199	-0.13986399746936212	
6.89	-0.114	-0.1539842523967665	
6.895	-0.216	-0.1670016729277251	
6.9	-0.237	-0.17677105224705406	
6.905	-0.117	-0.18189452060589184	
6.91	-0.156	-0.18514730917391428	
6.915	-0.233	-0.18401163086739575	
6.92	-0.144	-0.17897970179744557	
6.925	-0.131	-0.17623724985239786	
6.93	-0.233	-0.17612454241912767	
6.935	-0.160	-0.1728265687896444	
6.94	0.031	-0.16296081528805317	
6.945	0.002	-0.1380393616904066	
6.95	0.017	-0.09475391415206272	
6.955	0.178	-0.1607756389713782	
6.96	-0.073	-0.15978440224818102	
6.965	-0.263	-0.14277452266944257	
6.97	-0.208	-0.01993326337517977	
6.975	-0.169	-0.07122434792731497	
6.98	-0.243	-0.12517315779794203	
6.985	-0.158	-0.15978440224818102	
6.99	-0.037	-0.17491489219628203	
6.995	-0.152	-0.17310605660029313	
7.0	-0.160	-0.1607756389713782	
7.005	0.002	-0.14277452266944257	
7.01	-0.044	-0.12121416900317625	
7.015	-0.143	-0.10010519792441008	
7.02	0.005	-0.08086211047135665	
7.025	0.034	-0.06321255586632613	
7.03	-0.102	-0.04825702892036725	
7.035	-0.037	-0.036779430810192304	
7.04	0.109	-0.02587189163138874	
7.045	-0.008	-0.014157241600361142	
7.05	-0.042	-0.0007975042127278344	
7.055	0.164	0.01427893174250916	
7.06	0.130	0.03177440493471374	
7.065	-0.008	0.05285764274296982	
7.07	0.184	0.07417575629987061	
7.075	0.254	0.09579983400351177	
7.08	0.080	0.11970555720161859	
7.085	0.194	0.14324243103907947	
7.09	0.367	0.16814999457586932	
7.095	0.216	0.19580630915299968	
7.1	0.204	0.22220869725305606	
7.105	0.423	0.24730237595530016	
7.11	0.327	0.2717419481413751	
7.115	0.147	0.2888508608342438	
7.12	0.315	0.29318882402443414	
7.125	0.277	0.28777009977822887	
7.13	0.016	0.26770258222883203	
7.135	0.019	0.22924638764363242	
7.14	0.109	0.17710869652913608	
7.145	-0.077	0.11982601945646391	
7.15	-0.123	0.06425325842053194	
7.155	0.001	0.014252290199941361	
7.16	-0.083	-0.027259803544200194	
7.165	-0.195	-0.06006176562642347	
7.17	-0.103	-0.08583738912055873	
7.175	-0.074	-0.10728451210445589	
7.18	-0.196	-0.12320642549476285	
7.185	-0.132	-0.13071074072933325	
7.19	-0.025	-0.13097378318872147	
7.195	-0.149	-0.12915707306348156	
7.2	-0.160	-0.12367829905895818	
7.205	-0.010	-0.11580565093700518	
7.21	-0.068	-0.107301740581325	
7.215	-0.150	-0.09799989509370498	
7.22	-0.001	-0.08683928818614917	
7.225	0.028	-0.07333974625567335	
7.23	-0.124	-0.061183985233909215	
7.235	-0.074	-0.05169291337013371	
7.24	0.025	-0.04802067085904435	
7.245	-0.118	-0.05015861816358527	
7.25	-0.135	-0.054643597771677294	
7.255	0.001	-0.06082843921471264	
7.26	-0.073	-0.06732238187670192	
7.265	-0.178	-0.07396828676516372	
7.27	-0.080	-0.08084058908512506	
7.275	-0.083	-0.09137611046361294	
7.28	-0.204	-0.10517017258879983	
7.285	-0.152	-0.11665816945358319	
7.29	-0.062	-0.12603450889216747	
7.295	-0.166	-0.13417745145763643	
7.3	-0.178	-0.1366144172035746	
7.305	-0.065	-0.13580954402116885	
7.31	-0.109	-0.13435947081726984	
7.315	-0.187	-0.13197684939103366	
7.32	-0.066	-0.12578712866613337	
7.325	-0.012	-0.11738000014796288	
7.33	-0.086	-0.10422152294222889	
7.335	0.042	-0.07961228946215472	
7.34	0.179	-0.043982785723011036	
7.345	-0.066	-0.12578712866613337	
7.35	-0.196	-0.11738000014796288	
7.355	-0.121	-0.0097547910211521	
7.36	-0.185	-0.05038075315959272	
7.365	-0.254	-0.09702991292658457	
7.37	-0.112	-0.13272087098167243	
7.375	-0.050	-0.1523430149621631	
7.38	-0.169	-0.15629298261642688	
7.385	-0.103	-0.14660348094226117	
7.39	0.033	-0.12992430497180724	
7.395	-0.108	-0.11030271514230744	
7.4	-0.120	-0.09166528744180683	
7.405	0.053	-0.0746555349957822	
7.41	-0.028	-0.06040362124324941	
7.415	-0.123	-0.04811536922985597	
7.42	0.042	-0.03866588435553067	
7.425	0.094	-0.027315653022819193	
7.43	-0.071	-0.013383821694305357	
7.435	0.001	-0.0005933307608152228	
7.44	0.147	0.010139657639187002	
7.445	-0.034	0.01964237784125108	
7.45	-0.042	0.02530852323856375	
7.455	0.204	0.0314106941187046	
7.46	0.146	0.046593754572840373	
7.465	0.017	0.06785075798574591	
7.47	0.225	0.09135915624285597	
7.475	0.262	0.11668900737270328	
7.48	0.074	0.14059618094200765	
7.485	0.182	0.1594113179492629	
7.49	0.329	0.17613895560793388	
7.495	0.173	0.19164828104526743	
7.5	0.117	0.20331714008086849	
7.505	0.292	0.20837524558308043	
7.51	0.172	0.20758178138281846	
7.515	-0.015	0.19588021465244781	
7.52	0.118	0.17232424372690558	
7.525	0.059	0.13865582530424703	
7.53	-0.129	0.09765257739229416	
7.535	-0.092	0.05141073565232538	
7.54	-0.012	0.005077111352808281	
7.545	-0.160	-0.0373015095593501	
7.55	-0.199	-0.07263034316855915	
7.555	-0.080	-0.10269389099553483	
7.56	-0.126	-0.12541082440994505	
7.565	-0.195	-0.13902180347234694	
7.57	-0.079	-0.14170647522385565	
7.575	-0.053	-0.13839892850005564	
7.58	-0.169	-0.13126975119109385	
7.585	-0.103	-0.1215692061640688	
7.59	-0.002	-0.11000591928784038	
7.595	-0.117	-0.10128304671109245	
7.6	-0.123	-0.09157533497920742	
7.605	0.045	-0.08074607262964456	
7.61	-0.044	-0.06943810010234353	
7.615	-0.135	-0.05997872754233626	
7.62	-0.005	-0.052726649722411305	
7.625	0.024	-0.04843630420684993	
7.63	-0.124	-0.04523697507797895	
7.635	-0.042	-0.04256043327573378	
7.64	0.069	-0.03803944283369656	
7.645	-0.105	-0.036268646698465884	
7.65	-0.144	-0.03856172845296875	
7.655	-0.013	-0.046781371081933566	
7.66	-0.086	-0.05943491443009233	
7.665	-0.178	-0.07294548913293042	
7.67	-0.066	-0.08274234358191929	
7.675	-0.059	-0.09244902886444734	
7.68	-0.184	-0.10121425177243959	
7.685	-0.131	-0.10756211845811052	
7.69	-0.024	-0.11105124712310563	
7.695	-0.146	-0.11325651340356116	
7.7	-0.164	-0.11255339316665586	
7.705	-0.021	-0.11077963273046887	
7.71	-0.059	-0.10643248344291545	
7.715	-0.111	-0.09694839981779035	
7.72	0.124	-0.07572833757520854	
7.725	0.188	-0.03942758107988374	
7.73	-0.018	0.0037704567757164504	
7.735	-0.059	-0.10643248344291545	
7.74	-0.088	0.03393043992844448	
7.745	-0.222	-0.0002699532002254381	
7.75	-0.234	-0.04955530195042654	
7.755	-0.091	-0.09575593708319258	
7.76	-0.112	-0.131428236547618	
7.765	-0.173	-0.14796276304870049	
7.77	-0.042	-0.14570560083287318	
7.775	0.019	-0.13142567369842012	
7.78	-0.121	-0.1102716466777996	
7.785	-0.059	-0.0875522867319602	
7.79	0.059	-0.0669930789206449	
7.795	-0.077	-0.052322081348043815	
7.8	-0.089	-0.040590557725672105	
7.805	0.100	-0.029679747718141546	
7.81	0.033	-0.018456289135029457	
7.815	-0.074	-0.006055635261979024	
7.82	0.083	0.0053519915834887005	
7.825	0.104	0.016614007319362963	
7.83	-0.076	0.024631402501752123	
7.835	0.013	0.02845702621836586	
7.84	0.173	0.031099302147427912	
7.845	0.034	0.03862858837415336	
7.85	0.033	0.051366103559357654	
7.855	0.307	0.07040158840520583	
7.86	0.234	0.10254974890229347	
7.865	0.117	0.1398823322452297	
7.87	0.350	0.17537680928515367	
7.875	0.365	0.21264647605802928	
7.88	0.147	0.2436027209689769	
7.885	0.242	0.26143350768058	
7.89	0.356	0.26810120695293244	
7.895	0.140	0.2666438518150397	
7.9	0.063	0.2513460813475078	
7.905	0.213	0.22434288783869658	
7.91	0.072	0.18957423480190874	
7.915	-0.091	0.14893143332669864	
7.92	0.008	0.10330480321021948	
7.925	-0.028	0.0536240655582463	
7.93	-0.172	0.0057101189254625435	
7.935	-0.150	-0.03857921345334594	
7.94	-0.057	-0.07598028728800074	
7.945	-0.167	-0.10626820779137432	
7.95	-0.190	-0.12558774828377267	
7.955	-0.074	-0.1367512530811124	
7.96	-0.146	-0.14441936874789338	
7.965	-0.214	-0.14897122706317284	
7.97	-0.082	-0.14874203382704196	
7.975	-0.073	-0.14442746040213333	
7.98	-0.190	-0.13921648050253818	
7.985	-0.123	-0.13158152063069717	
7.99	-0.028	-0.12505287313851068	
7.995	-0.144	-0.11923689892846927	
8.0	-0.153	-0.1125574328244162	
8.005	-0.019	-0.10680793515174294	
8.01	-0.108	-0.1034213425439234	
8.015	-0.170	-0.10192804572112069	
8.02	-0.050	-0.0997707066360412	
8.025	-0.030	-0.09645172052866101	
8.03	-0.170	-0.09418135890877903	
8.035	-0.137	-0.09358566355059847	
8.04	-0.063	-0.09908769691167413	
8.045	-0.176	-0.10922091560868329	
8.05	-0.199	-0.11953794473831503	
8.055	-0.083	-0.12882691285015546	
8.06	-0.153	-0.139425363890256	
8.065	-0.231	-0.1479099707470258	
8.07	-0.121	-0.15276761862143542	
8.075	-0.112	-0.15746582302335346	
8.08	-0.216	-0.1601856672480625	
8.085	-0.161	-0.1595586900095235	
8.09	-0.082	-0.15707566884394952	
8.095	-0.190	-0.15725799407213942	
8.1	-0.169	-0.15353401884919965	
8.105	0.060	-0.1417683398285417	
8.11	0.083	-0.11343776618442522	
8.115	-0.002	-0.15276761862143542	
8.12	0.127	-0.15276761862143542	
8.125	-0.044	-0.1417683398285417	
8.13	-0.266	-0.1356536516953546	
8.135	-0.236	-0.019550942986420454	
8.14	-0.129	-0.07200470485399839	
8.145	-0.202	-0.12329909220821181	
8.15	-0.195	-0.15555632462743224	
8.155	-0.042	-0.16869373237486035	
8.16	-0.097	-0.16646137356741278	
8.165	-0.175	-0.15402299158931962	
8.17	-0.031	-0.1356536516953546	
8.175	-0.004	-0.11641290618750934	
8.18	-0.135	-0.09734527335909399	
8.185	-0.062	-0.0795233842928399	
8.19	0.077	-0.06393374229334449	
8.195	-0.071	-0.049384160577491176	
8.2	-0.086	-0.03760759074309511	
8.205	0.097	-0.026607909516584496	
8.21	0.022	-0.01648804317206394	
8.215	-0.073	-0.006107585414672186	
8.22	0.104	0.005419203325556511	
8.225	0.144	0.02062918630549797	
8.23	-0.002	0.03756309468795547	
8.235	0.135	0.05749487126311982	
8.24	0.310	0.08415617893892534	
8.245	0.162	0.1175619579870375	
8.25	0.176	0.15334319949469039	
8.255	0.416	0.1894708233391393	
8.26	0.350	0.22952057937725212	
8.265	0.228	0.2678175313964346	
8.27	0.436	0.30043714244264874	
8.275	0.440	0.329673545078064	
8.28	0.208	0.3485168082575496	
8.285	0.243	0.3504485571355684	
8.29	0.350	0.3351759798008089	
8.295	0.124	0.30957685899464715	
8.3	0.027	0.2713089354888189	
8.305	0.167	0.22244213630603266	
8.31	0.025	0.16955511355934008	
8.315	-0.121	0.11584504866127718	
8.32	-0.018	0.06339143352915866	
8.325	-0.027	0.014672143004608515	
8.33	-0.170	-0.027403396612518727	
8.335	-0.111	-0.059550565012439376	
8.34	-0.018	-0.08287218473388987	
8.345	-0.160	-0.09836707707157244	
8.35	-0.166	-0.10864729128575465	
8.355	-0.027	-0.11261690383018381	
8.36	-0.068	-0.11343916883374222	
8.365	-0.144	-0.10709280754964307	
8.37	-0.010	-0.09564313189201096	
8.375	0.005	-0.08236757713472648	
8.38	-0.124	-0.07036228407375922	
8.385	-0.062	-0.060555682992682075	
8.39	0.071	-0.05192176896056765	
8.395	-0.086	-0.04434519402014743	
8.4	-0.109	-0.038625424867976973	
8.405	0.040	-0.037663322307162725	
8.41	-0.037	-0.03844501890233932	
8.415	-0.141	-0.040052408161179075	
8.42	-0.015	-0.04367127136834959	
8.425	-0.022	-0.04840022337763457	
8.43	-0.179	-0.05731469510362215	
8.435	-0.146	-0.07055311783302784	
8.44	-0.071	-0.08797985779050055	
8.445	-0.173	-0.1073145749204471	
8.45	-0.182	-0.12157347795863978	
8.455	-0.079	-0.13070861693521763	
8.46	-0.138	-0.13846307539675592	
8.465	-0.213	-0.1439980899073673	
8.47	-0.095	-0.14467547755860732	
8.475	-0.082	-0.14343723116160628	
8.48	-0.208	-0.1422912134850025	
8.485	-0.156	-0.13952616780975297	
8.49	-0.025	-0.13800045822866125	
8.495	-0.037	-0.12832369387394976	
8.5	0.098	-0.09753130812194172	
8.505	0.350	-0.13597895907160967	
8.51	0.135	-0.13800045822866125	
8.515	-0.172	-0.13597895907160967	
8.52	-0.149	-0.12832369387394976	
8.525	-0.160	-0.12502214076695017	
8.53	-0.253	-0.03229260533875551	
8.535	-0.173	-0.09250951585967312	
8.54	-0.071	-0.13597895907160967	
8.545	-0.160	-0.1593320171991184	
8.55	-0.161	-0.16455296971179528	
8.555	-0.018	-0.1556807336252668	
8.56	-0.085	-0.14049024237099436	
8.565	-0.172	-0.12502214076695017	
8.57	-0.048	-0.10963985350856191	
8.575	-0.008	-0.098435980366744	
8.58	-0.137	-0.08733765178929945	
8.585	-0.059	-0.07649963004371899	
8.59	0.065	-0.06496162632756844	
8.595	-0.095	-0.054385780465466715	
8.6	-0.099	-0.04657309356151208	
8.605	0.097	-0.03863499202447577	
8.61	0.017	-0.028502023573739495	
8.615	-0.068	-0.016057826519772344	
8.62	0.144	0.0003998961479131858	
8.625	0.194	0.024590578689173564	
8.63	0.043	0.054624179201589095	
8.635	0.198	0.0864964254188922	
8.64	0.381	0.1250775433130297	
8.645	0.242	0.16961659556613212	
8.65	0.230	0.21439628320074458	
8.655	0.458	0.25436061690757583	
8.66	0.362	0.29052152451477264	
8.665	0.228	0.3199333266061596	
8.67	0.384	0.33635017375448134	
8.675	0.342	0.3415871738735941	
8.68	0.080	0.32965733270182673	
8.685	0.098	0.2964469021071421	
8.69	0.170	0.24602170046790597	
8.695	-0.074	0.1876822212023	
8.7	-0.146	0.12141714893201183	
8.705	-0.022	0.05226913430538923	
8.71	-0.117	-0.010434500409054076	
8.715	-0.210	-0.061954677699855944	
8.72	-0.120	-0.1007298320230289	
8.725	-0.105	-0.1284530682352507	
8.73	-0.218	-0.14819058901838283	
8.735	-0.169	-0.15855641409313465	
8.74	-0.079	-0.16209757048096735	
8.745	-0.169	-0.16322223122564655	
8.75	-0.175	-0.15750610366797313	
8.755	-0.053	-0.14785647694468806	
8.76	-0.102	-0.1394404138210124	
8.765	-0.172	-0.12985690472645617	
8.77	-0.051	-0.11779559052886517	
8.775	-0.033	-0.10751460271084617	
8.78	-0.172	-0.10011905731370269	
8.785	-0.129	-0.09556095416072392	
8.79	-0.007	-0.09516622954957815	
8.795	-0.128	-0.09619098336806181	
8.8	-0.143	-0.09446957714716415	
8.805	-0.001	-0.09090058650945924	
8.81	-0.108	-0.08945190153257171	
8.815	-0.196	-0.091822771564997	
8.82	-0.100	-0.09881015480117926	
8.825	-0.111	-0.10954047149950917	
8.83	-0.224	-0.12409490337250402	
8.835	-0.179	-0.13654423329875018	
8.84	-0.105	-0.1491851335153599	
8.845	-0.214	-0.16119668248200328	
8.85	-0.225	-0.1694533604124248	
8.855	-0.109	-0.17389445118429633	
8.86	-0.160	-0.17746432655534916	
8.865	-0.234	-0.1778215758140227	
8.87	-0.134	-0.17378008914617593	
8.875	-0.132	-0.17254558356960947	
8.88	-0.204	-0.1711345495407619	
8.885	-0.031	-0.16050555887003648	
8.89	0.352	-0.1211156544011997	
8.895	0.271	-0.16050555887003648	
8.9	0.185	-0.16050555887003648	
8.905	0.115	-0.15447071980893118	
8.91	-0.161	-0.15076975119577923	
8.915	-0.295	-0.13854087946775684	
8.92	-0.167	0.03327694003195751	
8.925	-0.132	-0.04952689961780744	
8.93	-0.222	-0.11517047527435874	
8.935	-0.150	-0.15447071980893118	
8.94	-0.054	-0.171108691165604	
8.945	-0.158	-0.173303715182217	
8.95	-0.175	-0.16346040314680604	
8.955	-0.045	-0.15076975119577923	
8.96	-0.102	-0.13854087946775684	
8.965	-0.160	-0.12691560249564418	
8.97	-0.004	-0.11163820599212201	
8.975	0.028	-0.09252575174330405	
8.98	-0.115	-0.07329191993710645	
8.985	-0.031	-0.05544364897224108	
8.99	0.106	-0.0390345496114533	
8.995	-0.034	-0.023400895853643477	
9.0	-0.045	-0.008495371428597635	
9.005	0.190	0.007344102089136497	
9.01	0.120	0.029437908995470573	
9.015	0.021	0.05499521842258859	
9.02	0.262	0.08242970181836712	
9.025	0.324	0.11852036893610145	
9.03	0.191	0.16063435926923847	
9.035	0.333	0.20556342508899564	
9.04	0.504	0.25302543959815726	
9.045	0.349	0.3015669328112901	
9.05	0.329	0.3434682270137542	
9.055	0.536	0.3763648419241255	
9.06	0.397	0.4004383967808165	
9.065	0.194	0.4079630188886088	
9.07	0.339	0.3944020085953128	
9.075	0.291	0.3655211550096098	
9.08	0.005	0.3226488619494906	
9.085	0.011	0.26152603948772063	
9.09	0.092	0.18998966534211645	
9.095	-0.102	0.11763323828842015	
9.1	-0.153	0.05149935575031443	
9.105	-0.062	-0.008711694370271025	
9.11	-0.149	-0.061529126310957014	
9.115	-0.234	-0.10392619140568297	
9.12	-0.126	-0.13464717670920304	
9.125	-0.126	-0.15552935960333975	
9.13	-0.230	-0.16923800893278074	
9.135	-0.166	-0.1744503972022815	
9.14	-0.066	-0.17310681259943403	
9.145	-0.170	-0.16732783179868754	
9.15	-0.172	-0.15743615582440074	
9.155	-0.045	-0.14579154150515727	
9.16	-0.120	-0.13555469364448136	
9.165	-0.176	-0.12785733946712008	
9.17	-0.047	-0.11868153600688486	
9.175	-0.025	-0.10858118772595782	
9.18	-0.156	-0.09918710258860855	
9.185	-0.105	-0.09145064582023626	
9.19	-0.001	-0.08716706326845206	
9.195	-0.140	-0.08630141504879597	
9.2	-0.150	-0.08640630986871017	
9.205	-0.037	-0.0888384605816053	
9.21	-0.121	-0.09455512579444345	
9.215	-0.213	-0.10381708400509432	
9.22	-0.121	-0.11370803742014117	
9.225	-0.123	-0.12760689141517595	
9.23	-0.250	-0.14315428655718637	
9.235	-0.193	-0.15644034339414098	
9.24	-0.108	-0.16818795181784418	
9.245	-0.204	-0.17629429345424213	
9.25	-0.211	-0.17838513491274804	
9.255	-0.089	-0.17583843119925485	
9.26	-0.164	-0.17356988875426263	
9.265	-0.240	-0.17081540324189434	
9.27	-0.109	-0.16668324787606537	
9.275	-0.053	-0.1606094971796399	
9.28	-0.095	-0.14617380826430998	
9.285	0.161	-0.11039783747445978	
9.29	0.353	-0.1606094971796399	
9.295	0.080	-0.15336954220627697	
9.3	-0.144	-0.1515951343075999	
9.305	-0.137	-0.14617380826430998	
9.31	-0.231	-0.1363817308250512	
9.315	-0.272	-0.03982762703941173	
9.32	-0.141	-0.10465194250762618	
9.325	-0.117	-0.1515951343075999	
9.33	-0.193	-0.17619176667598124	
9.335	-0.123	-0.1793929040169886	
9.34	-0.028	-0.16915469581046108	
9.345	-0.149	-0.15336954220627697	
9.35	-0.146	-0.1363817308250512	
9.355	0.008	-0.1187635268378273	
9.36	-0.070	-0.10262468202965053	
9.365	-0.129	-0.08886421256900304	
9.37	0.034	-0.07259411752487058	
9.375	0.059	-0.05461140144809134	
9.38	-0.092	-0.03727686783529075	
9.385	-0.001	-0.021367781559900552	
9.39	0.155	-0.007103441933143057	
9.395	-0.010	0.0095732933214515	
9.4	-0.013	0.024596982497290077	
9.405	0.217	0.04030178677545219	
9.41	0.140	0.06036774335802256	
9.415	0.045	0.08409059850221545	
9.42	0.280	0.10943715033623758	
9.425	0.326	0.14141070104788162	
9.43	0.172	0.17769849716624836	
9.435	0.318	0.21463326342463815	
9.44	0.460	0.25190631095958743	
9.445	0.286	0.28756908783374413	
9.45	0.252	0.31458940302149263	
9.455	0.402	0.3292774420081622	
9.46	0.262	0.3303609843828663	
9.465	0.075	0.31610341479520504	
9.47	0.202	0.28440097881576876	
9.475	0.135	0.24238442438792968	
9.48	-0.106	0.18974100265922944	
9.485	-0.077	0.12661797609227043	
9.49	-0.030	0.05985194637021076	
9.495	-0.173	-0.004368311033595791	
9.5	-0.196	-0.05835917576124945	
9.505	-0.070	-0.09978677851228276	
9.51	-0.146	-0.12961242658724315	
9.515	-0.207	-0.14680063392094717	
9.52	-0.099	-0.15264440738473747	
9.525	-0.092	-0.15365721865474782	
9.53	-0.211	-0.152173298182577	
9.535	-0.135	-0.14837509762761034	
9.54	-0.034	-0.1422197300609015	
9.545	-0.137	-0.13433682026132632	
9.55	-0.144	-0.12332433238978571	
9.555	-0.018	-0.1118499698205328	
9.56	-0.082	-0.10363014904895754	
9.565	-0.156	-0.0957568871918196	
9.57	-0.028	-0.08866529618619279	
9.575	-0.019	-0.08169216738423378	
9.58	-0.155	-0.07814429491590669	
9.585	-0.091	-0.07536525795159796	
9.59	0.007	-0.07525379048754427	
9.595	-0.140	-0.07633491214209567	
9.6	-0.172	-0.08030339872965916	
9.605	-0.056	-0.08886789295216686	
9.61	-0.131	-0.10064204474372151	
9.615	-0.228	-0.1137331394813395	
9.62	-0.126	-0.1266660384534584	
9.625	-0.099	-0.1387132993694416	
9.63	-0.216	-0.14812496708201717	
9.635	-0.166	-0.1523427910391983	
9.64	-0.085	-0.1542780843925987	
9.645	-0.198	-0.15734543104975002	
9.65	-0.199	-0.15826965134807414	
9.655	-0.094	-0.15786113792346715	
9.66	-0.153	-0.15867484199289567	
9.665	-0.184	-0.15672607546269043	
9.67	-0.024	-0.14662082543671168	
9.675	0.100	-0.12372063838660763	
9.68	-0.019	-0.1523427910391983	
9.685	0.046	-0.1523427910391983	
9.69	0.021	-0.14662082543671168	
9.695	-0.221	-0.13626995165971406	
9.7	-0.274	-0.02628317591618784	
9.705	-0.146	-0.07280277083763129	
9.71	-0.167	-0.12069608096560999	
9.715	-0.207	-0.154752251199646	
9.72	-0.076	-0.16756184785455985	
9.725	-0.071	-0.16572468109147526	
9.73	-0.155	-0.15522745918777847	
9.735	-0.070	-0.13626995165971406	
9.74	0.051	-0.11319989901786628	
9.745	-0.088	-0.089468894038128	
9.75	-0.100	-0.06829010817441175	
9.755	0.059	-0.05172462498871704	
9.76	-0.034	-0.04074111816917207	
9.765	-0.109	-0.03384181945839532	
9.77	0.072	-0.02649361435509545	
9.775	0.106	-0.014686991987911492	
9.78	-0.083	-0.0013285100420765705	
9.785	0.001	0.00873469463557757	
9.79	0.167	0.01688404606569932	
9.795	0.005	0.02648075672099952	
9.8	0.007	0.038668161079122895	
9.805	0.254	0.05435742877662345	
9.81	0.185	0.07826989158222494	
9.815	0.071	0.10709522222149276	
9.82	0.324	0.13753084059746618	
9.825	0.317	0.17134719730184406	
9.83	0.130	0.20263277610212094	
9.835	0.252	0.2247188807226289	
9.84	0.373	0.24090946650887662	
9.845	0.172	0.25248098021448073	
9.85	0.130	0.2536368350427306	
9.855	0.300	0.24533552990449303	
9.86	0.124	0.22929167086434724	
9.865	-0.048	0.20209876428631265	
9.87	0.057	0.16147062651850794	
9.875	0.030	0.11235086072022488	
9.88	-0.155	0.06170820399379984	
9.885	-0.100	0.013689749925664536	
9.89	-0.039	-0.03014420177649083	
9.895	-0.163	-0.06743758216332577	
9.9	-0.175	-0.09532383653752988	
9.905	-0.066	-0.11474371868816029	
9.91	-0.132	-0.12868300617150003	
9.915	-0.205	-0.13681325130867017	
9.92	-0.079	-0.1385737034738798	
9.925	-0.060	-0.13668811801793027	
9.93	-0.175	-0.13122352787803446	
9.935	-0.114	-0.12331308910660149	
9.94	-0.030	-0.11621103917278325	
9.945	-0.141	-0.11141238202258104	
9.95	-0.128	-0.10529092408013235	
9.955	0.008	-0.09779067448404999	
9.96	-0.060	-0.08869349290200733	
9.965	-0.138	-0.07977490837276541	
9.97	-0.015	-0.07159367235294459	
9.975	0.005	-0.06471969213603851	
9.98	-0.143	-0.0601965019325421	
9.985	-0.082	-0.05730557874328152	
9.99	-0.002	-0.06024457155493196	
9.995	-0.147	-0.0664055083185997	
10.0	-0.170	-0.0752666034840061	
10.005	-0.074	-0.08881801870106483	
10.01	-0.140	-0.1047124404797906	
10.015	-0.208	-0.11973603023385426	
10.02	-0.106	-0.13058408342868413	
10.025	-0.095	-0.13775772599034264	
10.03	-0.196	-0.14318269786587	
10.035	-0.135	-0.142261880368155	
10.04	-0.041	-0.13926642932700403	
10.045	-0.164	-0.13443311802969954	
10.05	-0.173	-0.1292273944185519	
10.055	-0.039	-0.12480247186148485	
10.06	-0.094	-0.12075637032626305	
10.065	-0.097	-0.11172781590110978	
10.07	0.130	-0.08852809051966155	
10.075	0.117	-0.12480247186148485	
10.08	-0.120	-0.12075637032626305	
10.085	-0.140	-0.11377751668810238	
10.09	-0.124	-0.01826908352298282	
10.095	-0.222	-0.05746617609490107	
10.1	-0.199	-0.09820958564153712	
10.105	-0.033	-0.126757486752838	
10.11	-0.097	-0.13877043834149586	
10.115	-0.166	-0.13775236185653145	
10.12	-0.030	-0.12750993755619483	
10.125	-0.021	-0.11377751668810238	
10.13	-0.135	-0.09925298601896992	
10.135	-0.065	-0.08421100405337803	
10.14	0.048	-0.07122811461511447	
10.145	-0.108	-0.06151395610539421	
10.15	-0.124	-0.05522925975676178	
10.155	0.056	-0.05172037168215171	
10.16	-0.016	-0.04779871547926168	
10.165	-0.074	-0.039789180706813664	
10.17	0.092	-0.02545972997703745	
10.175	0.103	-0.007768734123824646	
10.18	-0.068	0.009686215543303324	
10.185	0.031	0.021810052252105385	
10.19	0.179	0.03181699003561165	
10.195	0.036	0.044446432476166496	
10.2	0.056	0.06076564674350545	
10.205	0.291	0.08133028310147389	
10.21	0.208	0.10918235105642644	
10.215	0.082	0.13917806476962147	
10.22	0.271	0.16355949931955654	
10.225	0.283	0.18422578375945955	
10.23	0.123	0.2006769143905087	
10.235	0.228	0.21182877594917046	
10.24	0.317	0.22079961804072576	
10.245	0.086	0.22142936223803966	
10.25	0.037	0.20877580196933038	
10.255	0.188	0.18430091953596492	
10.26	0.013	0.15216967219633312	
10.265	-0.111	0.11221296684562831	
10.27	-0.016	0.06753913494623813	
10.275	-0.031	0.022207801699589653	
10.28	-0.167	-0.019267917454490885	
10.285	-0.112	-0.05317464317371228	
10.29	-0.074	-0.08124366513933476	
10.295	-0.195	-0.10651965835459679	
10.3	-0.198	-0.12618648474240013	
10.305	-0.045	-0.1387431979416564	
10.31	-0.112	-0.14281336314614007	
10.315	-0.182	-0.13973514087551525	
10.32	-0.041	-0.13049233132055277	
10.325	-0.025	-0.11881442510551841	
10.33	-0.152	-0.10623265880431138	
10.335	-0.073	-0.09318807381595867	
10.34	0.025	-0.08127594399371463	
10.345	-0.123	-0.0734967493295981	
10.35	-0.123	-0.06818511294523384	
10.355	0.043	-0.06477782883736335	
10.36	-0.065	-0.06080346639807651	
10.365	-0.135	-0.05872296466443661	
10.37	-0.002	-0.05652117152126628	
10.375	-0.005	-0.0548091378110212	
10.38	-0.156	-0.05521017045789413	
10.385	-0.099	-0.05921785962668643	
10.39	-0.025	-0.06728429613214527	
10.395	-0.160	-0.07845734667132274	
10.4	-0.182	-0.09119956942942292	
10.405	-0.082	-0.10480989428444672	
10.41	-0.144	-0.11976870645190377	
10.415	-0.207	-0.13270998229430347	
10.42	-0.103	-0.13855319970180013	
10.425	-0.095	-0.14279166042277808	
10.43	-0.211	-0.1461923489631177	
10.435	-0.150	-0.14523915307889326	
10.44	-0.066	-0.14526832486698282	
10.445	-0.147	-0.14344703983558366	
10.45	-0.137	-0.1362221377610206	
10.455	0.083	-0.11877537593339227	
10.46	0.098	-0.088743775484871	
10.465	-0.018	-0.13581372968298927	
10.47	0.104	-0.13581372968298927	
10.475	-0.031	-0.11877537593339227	
10.48	-0.243	-0.11648358314172957	
10.485	-0.214	-0.015254350516743719	
10.49	-0.124	-0.06521201143707206	
10.495	-0.178	-0.11346779825959596	
10.5	-0.172	-0.14324244930151664	
10.505	-0.025	-0.1527195983708176	
10.51	-0.088	-0.1487613364126128	
10.515	-0.146	-0.13581372968298927	
10.52	-0.015	-0.11648358314172957	
10.525	0.011	-0.09672568455261406	
10.53	-0.132	-0.07832405347083587	
10.535	-0.051	-0.06322887460693111	
10.54	0.062	-0.0521387642759184	
10.545	-0.080	-0.042551696527064274	
10.55	-0.076	-0.03529963617771478	
10.555	0.091	-0.0276289973695837	
10.56	-0.012	-0.020780555862746804	
10.565	-0.102	-0.014908833640606928	
10.57	0.094	-0.008414504929609988	
10.575	0.135	0.0023311765244197384	
10.58	-0.056	0.017585551005988954	
10.585	0.092	0.03377668930351707	
10.59	0.269	0.05295139067323292	
10.595	0.118	0.0824081205036145	
10.6	0.140	0.11365305711580961	
10.605	0.362	0.14743006046211427	
10.61	0.289	0.1842306864465744	
10.615	0.165	0.2190439391397112	
10.62	0.378	0.24758639344714178	
10.625	0.376	0.2723470578718543	
10.63	0.126	0.2885753597190924	
10.635	0.196	0.28674512183398104	
10.64	0.284	0.2709269961402696	
10.645	0.021	0.24243522865465256	
10.65	-0.051	0.2006498687471774	
10.655	0.075	0.14636384396820123	
10.66	-0.053	0.08926065982291632	
10.665	-0.156	0.03511995354896899	
10.67	-0.044	-0.010475283309050683	
10.675	-0.074	-0.04868341741075251	
10.68	-0.193	-0.08031237314285603	
10.685	-0.118	-0.10225255196990657	
10.69	-0.054	-0.11615246281719553	
10.695	-0.179	-0.12649344467636947	
10.7	-0.182	-0.13129174877422511	
10.705	-0.053	-0.13371439872668273	
10.71	-0.118	-0.13473824699377276	
10.715	-0.172	-0.1318145252976825	
10.72	-0.047	-0.12351756845381705	
10.725	-0.041	-0.11472242434969862	
10.73	-0.173	-0.10626909321884867	
10.735	-0.102	-0.09925785654375537	
10.74	0.008	-0.09419718515294706	
10.745	-0.140	-0.09047558387739241	
10.75	-0.138	-0.08827053540695663	
10.755	0.027	-0.08474239966162816	
10.76	-0.076	-0.07974049706376032	
10.765	-0.155	-0.07679595072527295	
10.77	-0.036	-0.07453954389778158	
10.775	-0.048	-0.07573052279820842	
10.78	-0.189	-0.08024417116546537	
10.785	-0.146	-0.08927360324012207	
10.79	-0.077	-0.10221605224829952	
10.795	-0.190	-0.11844629813687002	
10.8	-0.201	-0.13126817525875156	
10.805	-0.095	-0.1417672163098128	
10.81	-0.160	-0.15172686002903057	
10.815	-0.227	-0.15778086676956116	
10.82	-0.108	-0.1595465865271631	
10.825	-0.105	-0.15972909983696093	
10.83	-0.221	-0.15824165449958605	
10.835	-0.150	-0.155265722559015	
10.84	-0.041	-0.15120477753286796	
10.845	-0.114	-0.14245986461186577	
10.85	-0.012	-0.12126090418347502	
10.855	0.269	-0.07872118346538924	
10.86	0.155	-0.14245986461186577	
10.865	-0.102	-0.14077076631997038	
10.87	-0.106	-0.13018589398585212	
10.875	-0.164	-0.12380815363348159	
10.88	-0.277	-0.025254496918539943	
10.885	-0.185	-0.0832466354435486	
10.89	-0.071	-0.13018589398585212	
10.895	-0.163	-0.15747102742487928	
10.9	-0.158	-0.16325448745376028	
10.905	-0.010	-0.1557202218973202	
10.91	-0.088	-0.14077076631997038	
10.915	-0.158	-0.12380815363348159	
10.92	-0.024	-0.10648087337756443	
10.925	-0.019	-0.09175180127992885	
10.93	-0.132	-0.08030951530572267	
10.935	-0.068	-0.07019841198524447	
10.94	0.059	-0.062177589219125425	
10.945	-0.076	-0.05356031421341555	
10.95	-0.074	-0.04323866911323011	
10.955	0.095	-0.032656405982376756	
10.96	0.002	-0.0218376985912811	
10.965	-0.073	-0.011837565476674158	
10.97	0.135	0.0016105749475023325	
10.975	0.153	0.020235109211918914	
10.98	-0.001	0.04261748375796462	
10.985	0.143	0.06486214804643615	
10.99	0.315	0.09186224702496186	
10.995	0.167	0.12537005567166964	
11.0	0.201	0.16177026472836054	
11.005	0.419	0.1983967581434028	
11.01	0.291	0.23612349673237631	
11.015	0.170	0.2641352379706623	
11.02	0.353	0.28063047643999567	
11.025	0.310	0.2882178377971653	
11.03	0.060	0.28260450211979193	
11.035	0.143	0.2598577393500259	
11.04	0.211	0.22683490146125018	
11.045	-0.053	0.18638744021212605	
11.05	-0.092	0.1357770853022759	
11.055	0.008	0.07933960252902886	
11.06	-0.108	0.02215708288754918	
11.065	-0.187	-0.027788830977156762	
11.07	-0.074	-0.06742633769497514	
11.075	-0.089	-0.09779936262168684	
11.08	-0.211	-0.11928708847958673	
11.085	-0.153	-0.13315497765209644	
11.09	-0.074	-0.1422439579832167	
11.095	-0.190	-0.14953830513788274	
11.1	-0.187	-0.15117084113883644	
11.105	-0.051	-0.14874131436891652	
11.11	-0.100	-0.14384152268828476	
11.115	-0.167	-0.1347232975707969	
11.12	-0.041	-0.12147160220488633	
11.125	-0.042	-0.1088452626056346	
11.13	-0.158	-0.09924232682026109	
11.135	-0.097	-0.0921538556558166	
11.14	-0.005	-0.08728865965112981	
11.145	-0.124	-0.08552382580767567	
11.15	-0.132	-0.08314998356709938	
11.155	0.017	-0.08076626944529208	
11.16	-0.088	-0.07784846066404845	
11.165	-0.181	-0.07871126661366458	
11.17	-0.083	-0.08348561606641733	
11.175	-0.082	-0.09285077390330282	
11.18	-0.221	-0.10622682027541691	
11.185	-0.170	-0.11915754765619524	
11.19	-0.089	-0.1332943303587067	
11.195	-0.204	-0.14751376538721603	
11.2	-0.216	-0.15614797465765745	
11.205	-0.073	-0.16076524792868085	
11.21	-0.141	-0.16284646658417648	
11.215	-0.208	-0.15871092297789202	
11.22	-0.099	-0.15246639211090945	
11.225	-0.109	-0.14885514222207719	
11.23	-0.204	-0.14725784570296724	
11.235	-0.108	-0.14212396806034333	
11.24	0.126	-0.12725687807464206	
11.245	0.104	-0.09055101630737403	
11.25	0.155	-0.14212396806034333	
11.255	0.284	-0.1366430644264095	
11.26	-0.079	-0.12725687807464206	
11.265	-0.248	-0.12308609684892195	
11.27	-0.156	-0.11990793221263117	
11.275	-0.137	-0.01583690242879591	
11.28	-0.219	-0.0793101126357337	
11.285	-0.132	-0.12308609684892195	
11.29	-0.050	-0.14621419623485118	
11.295	-0.158	-0.15461712237366565	
11.3	-0.141	-0.15015810239388905	
11.305	0.005	-0.1366430644264095	
11.31	-0.074	-0.11990793221263117	
11.315	-0.153	-0.10280956189786326	
11.32	-0.013	-0.0883545379299851	
11.325	0.019	-0.07581911791744242	
11.33	-0.123	-0.06338681363172952	
11.335	-0.042	-0.053091107783711074	
11.34	0.082	-0.043165978279732266	
11.345	-0.070	-0.03366580585797409	
11.35	-0.047	-0.02419329777983311	
11.355	0.172	-0.011584456453116499	
11.36	0.082	0.00909578530899662	
11.365	-0.012	0.03214414426310179	
11.37	0.223	0.05666940181222192	
11.375	0.239	0.08521434233341556	
11.38	0.082	0.11658700350225029	
11.385	0.228	0.14488898977324588	
11.39	0.384	0.17485875291835293	
11.395	0.269	0.20935793187689047	
11.4	0.315	0.24878592968167873	
11.405	0.529	0.29138873146990035	
11.41	0.364	0.33312047308363557	
11.415	0.208	0.3591439547353752	
11.42	0.378	0.36559942406681756	
11.425	0.303	0.35621855658228607	
11.43	0.030	0.3286432596360943	
11.435	0.065	0.27981701353654	
11.44	0.117	0.21680616117471918	
11.445	-0.099	0.1494626138563833	
11.45	-0.141	0.0817761517572421	
11.455	-0.039	0.018270280117169416	
11.46	-0.143	-0.03878261107845908	
11.465	-0.236	-0.08574534983784583	
11.47	-0.106	-0.12052251037152943	
11.475	-0.115	-0.144781513035806	
11.48	-0.224	-0.15918883880781037	
11.485	-0.164	-0.16523966872099682	
11.49	-0.083	-0.16629657024440603	
11.495	-0.187	-0.16641052330739065	
11.5	-0.179	-0.16119883521765796	
11.505	-0.045	-0.1528637925816005	
11.51	-0.109	-0.14373262467289333	
11.515	-0.175	-0.13266583162412954	
11.52	-0.056	-0.12163291808124942	
11.525	-0.056	-0.111805933624431	
11.53	-0.164	-0.1060929605843711	
11.535	-0.102	-0.10029038710033428	
11.54	-0.036	-0.0973595541434222	
11.545	-0.143	-0.0983344423795694	
11.55	-0.156	-0.09919853340747026	
11.555	-0.031	-0.09993486460527186	
11.56	-0.121	-0.10369138724765044	
11.565	-0.213	-0.10863754981609147	
11.57	-0.117	-0.11669153239705755	
11.575	-0.117	-0.12779172462174182	
11.58	-0.231	-0.1400508545858467	
11.585	-0.172	-0.14932523014194593	
11.59	-0.089	-0.1573630353724641	
11.595	-0.213	-0.16329648957052678	
11.6	-0.228	-0.1672183852825308	
11.605	-0.117	-0.17095183259432492	
11.61	-0.160	-0.17566254349004742	
11.615	-0.231	-0.17663724023437646	
11.62	-0.137	-0.17370111589808218	
11.625	-0.126	-0.17277955417785468	
11.63	-0.196	-0.17106139621267613	
11.635	0.028	-0.1553138640263709	
11.64	0.352	-0.10930502287060519	
11.645	0.237	-0.16329648957052678	
11.65	0.132	-0.16530186195786248	
11.655	0.040	-0.1553138640263709	
11.66	-0.187	-0.15385668474512998	
11.665	-0.288	-0.14170598815588087	
11.67	-0.170	0.0013361038847432066	
11.675	-0.137	-0.07574943137186753	
11.68	-0.221	-0.13308846399840188	
11.685	-0.147	-0.16530186195786248	
11.69	-0.063	-0.1772991253522032	
11.695	-0.169	-0.17635689810374133	
11.7	-0.178	-0.16624000241621895	
11.705	-0.047	-0.15385668474512998	
11.71	-0.100	-0.14170598815588087	
11.715	-0.175	-0.12972338251008625	
11.72	-0.018	-0.11559586663105184	
11.725	0.005	-0.09974956544722643	
11.73	-0.123	-0.08319369792294701	
11.735	-0.028	-0.06727668653357839	
11.74	0.103	-0.04923500294725469	
11.745	-0.041	-0.0314401172127396	
11.75	-0.042	-0.014269350461918792	
11.755	0.172	0.00223811034087422	
11.76	0.114	0.02427571391564334	
11.765	0.042	0.05020543078757728	
11.77	0.274	0.08146474127966065	
11.775	0.321	0.12028897981889305	
11.78	0.172	0.16373914153636032	
11.785	0.329	0.20672446739333877	
11.79	0.489	0.24981751196453236	
11.795	0.339	0.29553571621042807	
11.8	0.347	0.3367009671718837	
11.805	0.500	0.3692535229631736	
11.81	0.349	0.3892672948653822	
11.815	0.201	0.39217570262958173	
11.82	0.330	0.37644918520763504	
11.825	0.254	0.3472851988288456	
11.83	-0.031	0.3027411240992557	
11.835	0.007	0.2397019141501413	
11.84	0.042	0.16579468483468418	
11.845	-0.138	0.09057560892417627	
11.85	-0.158	0.022725082884279775	
11.855	-0.056	-0.03478215917055158	
11.86	-0.149	-0.08170046817135458	
11.865	-0.231	-0.116755839345322	
11.87	-0.134	-0.14158366626623525	
11.875	-0.143	-0.1597359411962287	
11.88	-0.230	-0.173183281342433	
11.885	-0.166	-0.1772819874493175	
11.89	-0.085	-0.17625566691944505	
11.895	-0.196	-0.1734106183470539	
11.9	-0.178	-0.1672495220757596	
11.905	-0.031	-0.15681111916628637	
11.91	-0.109	-0.14371565157363264	
11.915	-0.170	-0.13074675159399798	
11.92	-0.045	-0.11758976209070118	
11.925	-0.041	-0.10674287075780128	
11.93	-0.170	-0.09819082232185183	
11.935	-0.100	-0.09329325563702262	
11.94	-0.022	-0.09124959222703555	
11.945	-0.152	-0.09240859725215136	
11.95	-0.160	-0.09526777327790945	
11.955	-0.044	-0.09981036835750129	
11.96	-0.140	-0.10670335201183759	
11.965	-0.218	-0.11476000640875667	
11.97	-0.123	-0.12459428750586769	
11.975	-0.161	-0.1387285306082629	
11.98	-0.251	-0.1551995972876648	
11.985	-0.178	-0.16829282133167786	
11.99	-0.102	-0.1762206585093954	
11.995	-0.207	-0.18041925840837403	
12.0	-0.202	-0.17928672019437092	
12.005	-0.068	-0.1727700381130714	
12.01	-0.149	-0.16570005592874912	
12.015	-0.233	-0.1598133689890877	
12.02	-0.123	-0.15556411548808752	
12.025	-0.073	-0.1536809544072693	
12.03	-0.117	-0.14525488174145518	
12.035	0.167	-0.11528435209016819	
12.04	0.402	-0.05111509440609187	
12.045	0.150	-0.1536809544072693	
12.05	-0.083	-0.14525488174145518	
12.055	-0.115	-0.13962625778393475	
12.06	-0.236	-0.13637323342594074	
12.065	-0.286	-0.006860802281624324	
12.07	-0.150	-0.08153722770096827	
12.075	-0.128	-0.13962625778393475	
12.08	-0.208	-0.1742867343510805	
12.085	-0.121	-0.18430593746760324	
12.09	-0.010	-0.17610002048134485	
12.095	-0.137	-0.15847928754430932	
12.1	-0.131	-0.13637323342594074	
12.105	0.036	-0.11265589683960246	
12.11	-0.051	-0.09169306305016119	
12.115	-0.128	-0.07293819966093013	
12.12	0.030	-0.05748798356915538	
12.125	0.056	-0.04360401632437878	
12.13	-0.097	-0.030391211150525087	
12.135	-0.008	-0.01930521456186612	
12.14	0.141	-0.008023269724890364	
12.145	-0.018	0.004460861437623506	
12.15	0.005	0.017583685529719853	
12.155	0.243	0.03643268038277771	
12.16	0.162	0.06331227655626184	
12.165	0.036	0.09198663440916183	
12.17	0.275	0.11854553365673363	
12.175	0.350	0.15045154921606485	
12.18	0.220	0.1885694674236002	
12.185	0.344	0.23167221733325566	
12.19	0.513	0.2750169786099744	
12.195	0.327	0.3184639347839455	
12.2	0.309	0.35253922006623023	
12.205	0.483	0.37441457750351137	
12.21	0.300	0.38232950807184474	
12.215	0.091	0.36997741494749253	
12.22	0.208	0.3334956896320566	
12.225	0.185	0.28244698516522526	
12.23	-0.057	0.22561507740031478	
12.235	-0.033	0.16264319446563344	
12.24	0.022	0.09796395128105555	
12.245	-0.149	0.035534081834981135	
12.25	-0.178	-0.019411950297612866	
12.255	-0.071	-0.06566224819837913	
12.26	-0.156	-0.10364564772369182	
12.265	-0.214	-0.13090565468180396	
12.27	-0.097	-0.14654341639753196	
12.275	-0.097	-0.15361301192220417	
12.28	-0.208	-0.15529495259607226	
12.285	-0.138	-0.1523381376147582	
12.29	-0.054	-0.14712392406049196	
12.295	-0.167	-0.1424372426158674	
12.3	-0.158	-0.13535772125587794	
12.305	-0.016	-0.12672748602505376	
12.31	-0.089	-0.11766863273240095	
12.315	-0.160	-0.10784993462134447	
12.32	-0.033	-0.09756957499830556	
12.325	-0.024	-0.08966244308986578	
12.33	-0.150	-0.08325687001680068	
12.335	-0.063	-0.0773203111951557	
12.34	0.022	-0.07116832074851233	
12.345	-0.121	-0.06743341266567707	
12.35	-0.147	-0.06732851835578271	
12.355	-0.039	-0.07175542445679378	
12.36	-0.132	-0.08268880834717188	
12.365	-0.213	-0.09682199059491031	
12.37	-0.114	-0.11156645717678143	
12.375	-0.108	-0.1266840363417067	
12.38	-0.224	-0.14024606068347156	
12.385	-0.172	-0.14830011900575119	
12.39	-0.091	-0.15517968195512655	
12.395	-0.195	-0.16144844671514397	
12.4	-0.184	-0.1613017926084386	
12.405	-0.074	-0.15772810513360616	
12.41	-0.155	-0.15472478841344497	
12.415	-0.230	-0.15283894941126638	
12.42	-0.100	-0.15151025685073488	
12.425	-0.034	-0.14769096226723116	
12.43	-0.071	-0.13329981019198495	
12.435	0.127	-0.09823407612401058	
12.44	0.236	-0.14769096226723116	
12.445	-0.111	-0.14744713939588178	
12.45	-0.216	-0.13329981019198495	
12.455	-0.158	-0.13008617309941728	
12.46	-0.211	-0.0507400233545386	
12.465	-0.259	-0.10588554417103178	
12.47	-0.120	-0.14744713939588178	
12.475	-0.063	-0.16965762699689985	
12.48	-0.160	-0.1713614484529721	
12.485	-0.056	-0.15523524750143797	
12.49	0.033	-0.13008617309941728	
12.495	-0.108	-0.10357391922919296	
12.5	-0.105	-0.08133555239789642	
12.505	0.062	-0.06359615776111444	
12.51	-0.034	-0.049775405225577204	
12.515	-0.124	-0.039940750294513	
12.52	0.028	-0.03340487325177505	
12.525	0.066	-0.027659607832000173	
12.53	-0.076	-0.019430313337304682	
12.535	0.045	-0.008212593805579722	
12.54	0.193	0.008959896653826994	
12.545	-0.012	0.02838243559321911	
12.55	-0.004	0.04464934887719513	
12.555	0.239	0.05845196173239621	
12.56	0.170	0.07822384784964875	
12.565	0.075	0.10303831927919958	
12.57	0.310	0.13161296762765617	
12.575	0.341	0.16534973773956074	
12.58	0.164	0.20156097690156757	
12.585	0.274	0.23077078311538216	
12.59	0.399	0.2549411980638106	
12.595	0.230	0.27340712625697544	
12.6	0.181	0.28366106233507454	
12.605	0.367	0.2843935935011037	
12.61	0.214	0.2782246287852771	
12.615	0.039	0.26209000126585846	
12.62	0.155	0.23254834825574883	
12.625	0.100	0.19229950588135353	
12.63	-0.115	0.14465427620660676	
12.635	-0.057	0.09076888338826172	
12.64	-0.007	0.03784570220696343	
12.645	-0.158	-0.012514630481161526	
12.65	-0.182	-0.054260259613669475	
12.655	-0.066	-0.08871208340101441	
12.66	-0.143	-0.11576942313953445	
12.665	-0.222	-0.13477849152262633	
12.67	-0.108	-0.14550530502656092	
12.675	-0.108	-0.15177348627161452	
12.68	-0.204	-0.15523474687818883	
12.685	-0.129	-0.15221191659771216	
12.69	-0.033	-0.14526035715038788	
12.695	-0.138	-0.136475745169779	
12.7	-0.175	-0.12519495862171104	
12.705	-0.034	-0.11779737151589391	
12.71	-0.091	-0.11279934397283653	
12.715	-0.141	-0.10669519578178144	
12.72	-0.008	-0.0955234326870493	
12.725	-0.019	-0.0838443226667285	
12.73	-0.152	-0.076194778426317	
12.735	-0.068	-0.0701789022344644	
12.74	0.004	-0.06732046690183671	
12.745	-0.146	-0.06848645067815895	
12.75	-0.150	-0.07314380448113106	
12.755	-0.045	-0.08181155321671932	
12.76	-0.135	-0.09283644206858335	
12.765	-0.218	-0.1066719942585756	
12.77	-0.115	-0.1195090828911837	
12.775	-0.126	-0.13387120068244351	
12.78	-0.225	-0.14719034009164517	
12.785	-0.156	-0.1541453937837895	
12.79	-0.086	-0.15832691982069036	
12.795	-0.184	-0.16051133793539962	
12.8	-0.182	-0.15811780789464353	
12.805	-0.059	-0.1517801968433563	
12.81	-0.126	-0.14587432567349073	
12.815	-0.181	-0.13869140757839588	
12.82	-0.005	-0.12744660330342833	
12.825	0.082	-0.10586491454854986	
12.83	-0.036	-0.07424972014944309	
12.835	0.085	-0.13673608093331457	
12.84	0.097	-0.12744660330342833	
12.845	-0.187	-0.12609998921837037	
12.85	-0.251	0.001831998678759559	
12.855	-0.153	-0.0417154487602111	
12.86	-0.178	-0.09587463460459181	
12.865	-0.205	-0.13673608093331457	
12.87	-0.053	-0.15638986475180722	
12.875	-0.039	-0.15583751765147782	
12.88	-0.161	-0.14432586403274342	
12.885	-0.074	-0.12609998921837037	
12.89	0.039	-0.10621169446375178	
12.895	-0.089	-0.08663220890058705	
12.9	-0.083	-0.06817474662301796	
12.905	0.091	-0.04962707928732302	
12.91	-0.022	-0.0349103826123274	
12.915	-0.106	-0.022834698333611896	
12.92	0.085	-0.014334563721271846	
12.925	0.107	-0.0027968020636497436	
12.93	-0.074	0.00958134809741295	
12.935	0.031	0.019902375766030423	
12.94	0.159	0.027869486082924815	
12.945	0.011	0.037320964780248836	
12.95	0.024	0.04878229759531149	
12.955	0.248	0.06244488802659633	
12.96	0.155	0.0830976299931388	
12.965	0.075	0.10711328496725747	
12.97	0.313	0.13369325591089293	
12.975	0.347	0.1672327720023704	
12.98	0.159	0.20254954640251271	
12.985	0.286	0.23289171265739494	
12.99	0.396	0.2568852591544437	
12.995	0.194	0.2733168963923667	
13.0	0.170	0.2787600866454255	
13.005	0.346	0.2744267614759027	
13.01	0.178	0.2641128911134963	
13.015	-0.005	0.2421168125739102	
13.02	0.106	0.2046368086282364	
13.025	0.039	0.1562252273857204	
13.03	-0.143	0.10261365174520254	
13.035	-0.092	0.046868044503939346	
13.04	-0.028	-0.0051637514864340504	
13.045	-0.164	-0.050601178545432085	
13.05	-0.175	-0.08419884161305113	
13.055	-0.063	-0.10865714692316317	
13.06	-0.134	-0.12586049829241708	
13.065	-0.208	-0.13678634376751697	
13.07	-0.080	-0.13941160176910514	
13.075	-0.070	-0.1388159024404219	
13.08	-0.181	-0.13530705618839944	
13.085	-0.102	-0.12713228301082238	
13.09	0.005	-0.11723348910423333	
13.095	-0.114	-0.10557306596766304	
13.1	-0.124	-0.09316883461328543	
13.105	0.028	-0.08171132380339641	
13.11	-0.082	-0.07387163785238281	
13.115	-0.140	-0.06874905070767007	
13.12	-0.010	-0.06543269115342046	
13.125	-0.025	-0.0628434647201804	
13.13	-0.172	-0.06528333411979698	
13.135	-0.097	-0.06913276490230481	
13.14	-0.024	-0.07726001212296074	
13.145	-0.152	-0.08556065989454714	
13.15	-0.155	-0.0931539043916092	
13.155	-0.039	-0.0987251142612535	
13.16	-0.131	-0.10587112121364649	
13.165	-0.208	-0.11373876360541778	
13.17	-0.115	-0.1214366108701388	
13.175	-0.114	-0.13184605741319538	
13.18	-0.218	-0.14128006301549279	
13.185	-0.149	-0.14712123374684757	
13.19	-0.089	-0.15025222021510282	
13.195	-0.192	-0.15358048898377308	
13.2	-0.204	-0.1551575936675292	
13.205	-0.074	-0.1546924262736094	
13.21	-0.129	-0.1538830538359038	
13.215	-0.170	-0.14776772311177155	
13.22	0.080	-0.1303843453510167	
13.225	0.191	-0.09280912496392668	
13.23	-0.013	-0.1453770520348932	
13.235	0.013	-0.1453770520348932	
13.24	-0.051	-0.1303843453510167	
13.245	-0.237	-0.12888500281299542	
13.25	-0.260	-0.03117869464552997	
13.255	-0.117	-0.0836449815800387	
13.26	-0.153	-0.12888500281299542	
13.265	-0.204	-0.15678767345987493	
13.27	-0.054	-0.16435306854851706	
13.275	-0.059	-0.15782152312885733	
13.28	-0.163	-0.1453770520348932	
13.285	-0.074	-0.1270855635317629	
13.29	0.054	-0.10616991097973119	
13.295	-0.102	-0.08567000270760072	
13.3	-0.102	-0.06819534191000401	
13.305	0.075	-0.053584453737944696	
13.31	-0.019	-0.04091492939037095	
13.315	-0.108	-0.03086652517767899	
13.32	0.051	-0.022312525250377496	
13.325	0.057	-0.015786110161927554	
13.33	-0.074	-0.008448454123553228	
13.335	0.063	0.0009173059700949942	
13.34	0.182	0.015902680002137737	
13.345	0.022	0.03529318593917339	
13.35	0.045	0.05476064976216077	
13.355	0.266	0.07547998338525291	
13.36	0.182	0.10010012149476433	
13.365	0.124	0.12907508624245534	
13.37	0.365	0.1617127980424925	
13.375	0.396	0.20226552253639354	
13.38	0.207	0.24451012830327792	
13.385	0.336	0.2788743740112279	
13.39	0.448	0.3049328026867376	
13.395	0.219	0.3233085474120757	
13.4	0.143	0.3227079488867364	
13.405	0.298	0.30444598158997493	
13.41	0.124	0.2731456668815606	
13.415	-0.048	0.23008150412751635	
13.42	0.083	0.1776296509834896	
13.425	0.036	0.12227833842989341	
13.43	-0.147	0.0696055868711942	
13.435	-0.108	0.019824117852578402	
13.44	-0.047	-0.027131906434967625	
13.445	-0.170	-0.06857691331211735	
13.45	-0.179	-0.09824540740541378	
13.455	-0.059	-0.11865389911060326	
13.46	-0.146	-0.1328162536897342	
13.465	-0.210	-0.14081746443776733	
13.47	-0.082	-0.14344008432182404	
13.475	-0.063	-0.14176933221942484	
13.48	-0.166	-0.1353014599206686	
13.485	-0.092	-0.1241790328613091	
13.49	0.011	-0.11121616148697439	
13.495	-0.117	-0.09853841778093443	
13.5	-0.114	-0.08620574940468062	
13.505	0.034	-0.07472697418302754	
13.51	-0.057	-0.06582438157365886	
13.515	-0.138	-0.059757170670492646	
13.52	-0.007	-0.05547814453165503	
13.525	-0.008	-0.05381264557350449	
13.53	-0.141	-0.05425119915290015	
13.535	-0.079	-0.0561777555239664	
13.54	0.002	-0.06026876519472095	
13.545	-0.144	-0.0665110710228645	
13.55	-0.172	-0.07517578422234694	
13.555	-0.060	-0.08777439589259368	
13.56	-0.138	-0.10282635387630078	
13.565	-0.202	-0.1167050018214158	
13.57	-0.097	-0.12549444800212586	
13.575	-0.111	-0.13384634153484437	
13.58	-0.211	-0.14121736084541736	
13.585	-0.138	-0.1441563826484679	
13.59	-0.065	-0.14429819104767255	
13.595	-0.189	-0.14451604203875984	
13.6	-0.173	-0.1431468459077303	
13.605	-0.024	-0.13776550865906648	
13.61	-0.082	-0.12984611429787635	
13.615	-0.106	-0.11570985661718111	
13.62	0.205	-0.0854555181077141	
13.625	0.277	-0.12984611429787635	
13.63	0.048	-0.12726376748403484	
13.635	-0.016	-0.11570985661718111	
13.64	-0.071	-0.11513384830881865	
13.645	-0.225	-0.11083637684634069	
13.65	-0.218	-0.006155030861407785	
13.655	-0.080	-0.06474902048559711	
13.66	-0.132	-0.11083637684634069	
13.665	-0.181	-0.1367083648431229	
13.67	-0.036	-0.14345228397500637	
13.675	-0.053	-0.13784513297090048	
13.68	-0.172	-0.12726376748403484	
13.685	-0.077	-0.11513384830881865	
13.69	0.027	-0.10126195762286341	
13.695	-0.089	-0.0875633799691245	
13.7	-0.080	-0.07115621378374812	
13.705	0.112	-0.05270832106506304	
13.71	0.002	-0.03287613441507055	
13.715	-0.085	-0.015763102583240943	
13.72	0.072	-0.003418933685176799	
13.725	0.095	0.007168685972542302	
13.73	-0.057	0.016689696752305312	
13.735	0.049	0.02587654714579684	
13.74	0.188	0.03577490560241939	
13.745	0.040	0.0504109507561916	
13.75	0.054	0.06582817359010777	
13.755	0.291	0.0863201992118919	
13.76	0.242	0.11413061708655825	
13.765	0.188	0.1512321644292766	
13.77	0.428	0.19559265670696313	
13.775	0.434	0.24617226358094715	
13.78	0.239	0.29268143132380897	
13.785	0.341	0.3248567659111412	
13.79	0.454	0.34475958976161913	
13.795	0.233	0.35342839308899376	
13.8	0.155	0.34481360012630785	
13.805	0.286	0.31926218417549007	
13.81	0.086	0.27914786848327006	
13.815	-0.074	0.22626285426513687	
13.82	0.030	0.1625168311246029	
13.825	-0.027	0.0951622928906154	
13.83	-0.176	0.032790817760080186	
13.835	-0.135	-0.023162986383993993	
13.84	-0.083	-0.07031765910477064	
13.845	-0.199	-0.10947320075493029	
13.85	-0.189	-0.1361207809264221	
13.855	-0.073	-0.14983074442496896	
13.86	-0.138	-0.15682851322960006	
13.865	-0.204	-0.15663325893179553	
13.87	-0.088	-0.15154258540373838	
13.875	-0.079	-0.14589302972592777	
13.88	-0.184	-0.13913133123505592	
13.885	-0.108	-0.13016557442444188	
13.89	-0.010	-0.12039213772835279	
13.895	-0.147	-0.11144454392569336	
13.9	-0.144	-0.1040927018549602	
13.905	0.008	-0.09788954833214332	
13.91	-0.088	-0.09183217970113533	
13.915	-0.167	-0.08758837528313346	
13.92	-0.054	-0.08557632655499259	
13.925	-0.044	-0.0869217393393571	
13.93	-0.153	-0.0890839662651344	
13.935	-0.085	-0.08816572510053325	
13.94	-0.013	-0.08643571496255811	
13.945	-0.158	-0.08742114986803776	
13.95	-0.176	-0.09207076888096744	
13.955	-0.077	-0.10092733990165274	
13.96	-0.176	-0.11583696739306398	
13.965	-0.239	-0.1325576298784279	
13.97	-0.124	-0.14657910510720912	
13.975	-0.128	-0.15793213644417836	
13.98	-0.237	-0.16707795313569285	
13.985	-0.169	-0.17016083322699344	
13.99	-0.100	-0.17143058809625955	
13.995	-0.201	-0.17242830094343425	
14.0	-0.213	-0.17007238074179576	
14.005	-0.089	-0.16789875594218678	
14.01	-0.120	-0.16484301766716153	
14.015	-0.115	-0.15258053935532745	
14.02	0.239	-0.11852262431609456	
14.025	0.344	-0.15793213644417836	
14.03	0.133	-0.16060676764243498	
14.035	0.051	-0.15258053935532745	
14.04	-0.079	-0.14912141296196796	
14.045	-0.260	-0.1293572211742129	
14.05	-0.254	0.02592005355342767	
14.055	-0.118	-0.051844565895759614	
14.06	-0.184	-0.11685006977136081	
14.065	-0.233	-0.16060676764243498	
14.07	-0.082	-0.1804952607045201	
14.075	-0.057	-0.18190510598944215	
14.08	-0.176	-0.16917331720869117	
14.085	-0.097	-0.14912141296196796	
14.09	0.002	-0.1293572211742129	
14.095	-0.131	-0.11152712597548323	
14.1	-0.114	-0.09609045412343087	
14.105	0.042	-0.08178559317365881	
14.11	-0.025	-0.06789989333130689	
14.115	-0.097	-0.05367088374564563	
14.12	0.086	-0.03643462789102122	
14.125	0.088	-0.017903539688501738	
14.13	-0.068	-0.00025999042467833897	
14.135	0.071	0.015915824162477134	
14.14	0.217	0.03371031686073964	
14.145	0.051	0.05640810178935405	
14.15	0.095	0.07988790527686589	
14.155	0.339	0.10729274167762072	
14.16	0.277	0.14308917756808176	
14.165	0.237	0.18727790253848486	
14.17	0.483	0.23660622792773722	
14.175	0.521	0.29312110317652884	
14.18	0.318	0.3487001605766944	
14.185	0.442	0.39090105541207	
14.19	0.518	0.41871279202217715	
14.195	0.289	0.4314016742977586	
14.2	0.234	0.42287096394996593	
14.205	0.350	0.39525474015050305	
14.21	0.141	0.3520911510770517	
14.215	-0.044	0.29329961680649863	
14.22	0.092	0.22255062773433615	
14.225	0.022	0.15110839303578785	
14.23	-0.152	0.08379204455695896	
14.235	-0.112	0.022886526666422775	
14.24	-0.079	-0.03235290981458418	
14.245	-0.198	-0.08150326503866681	
14.25	-0.196	-0.11706788430877542	
14.255	-0.083	-0.14083133682705912	
14.26	-0.155	-0.15588056981534035	
14.265	-0.218	-0.1625988660170403	
14.27	-0.111	-0.16350813759835853	
14.275	-0.114	-0.16194777896685655	
14.28	-0.210	-0.16013233635346813	
14.285	-0.132	-0.15510970905058433	
14.29	-0.045	-0.14742260224214732	
14.295	-0.184	-0.14148021470723698	
14.3	-0.155	-0.13504200872210453	
14.305	-0.012	-0.12687938974023819	
14.31	-0.082	-0.11688123226617235	
14.315	-0.140	-0.1045681013349314	
14.32	-0.007	-0.0915347679024685	
14.325	-0.019	-0.07895815384506757	
14.33	-0.152	-0.07110917154592464	
14.335	-0.092	-0.06713120008862383	
14.34	-0.022	-0.07044049170311174	
14.345	-0.161	-0.0774537519514828	
14.35	-0.187	-0.08804642995931573	
14.355	-0.092	-0.10290925930458689	
14.36	-0.173	-0.12187032610964209	
14.365	-0.243	-0.13955009327969503	
14.37	-0.134	-0.15454762739772215	
14.375	-0.135	-0.16596191991416603	
14.38	-0.240	-0.17408921802361552	
14.385	-0.175	-0.17712032953960052	
14.39	-0.092	-0.17744844844375873	
14.395	-0.199	-0.17645715780640997	
14.4	-0.184	-0.17102895189551692	
14.405	-0.079	-0.16289610268326526	
14.41	-0.150	-0.15689241568534085	
14.415	-0.195	-0.15156347998734743	
14.42	0.019	-0.13951013129543577	
14.425	0.201	-0.10894143388534823	
14.43	0.107	-0.05311002839310515	
14.435	0.178	-0.14807381183837987	
14.44	0.089	-0.14058616840666577	
14.445	-0.219	-0.13951013129543577	
14.45	-0.274	0.05493455852355334	
14.455	-0.169	-0.01184412071129567	
14.46	-0.190	-0.08489193471337947	
14.465	-0.213	-0.14058616840666577	
14.47	-0.082	-0.1684586389884666	
14.475	-0.068	-0.1749412995918025	
14.48	-0.167	-0.16718966197490062	
14.485	-0.068	-0.14807381183837987	
14.49	0.037	-0.12435610219420756	
14.495	-0.092	-0.09856788956771449	
14.5	-0.091	-0.07607337654724909	
14.505	0.071	-0.05675843463597669	
14.51	-0.016	-0.03993185120523626	
14.515	-0.083	-0.026686403139269538	
14.52	0.112	-0.013402697078505025	
14.525	0.127	0.005100437634821833	
14.53	-0.041	0.02471697200955098	
14.535	0.066	0.04091678047205452	
14.54	0.208	0.05472132469095616	
14.545	0.042	0.07040387507222459	
14.55	0.072	0.08487685828373387	
14.555	0.298	0.10229401133811981	
14.56	0.220	0.12810423554535438	
14.565	0.144	0.1572682051978199	
14.57	0.365	0.18857891795926865	
14.575	0.425	0.22614627048730968	
14.58	0.259	0.2667301428966754	
14.585	0.375	0.3038641955477317	
14.59	0.500	0.3357156456760597	
14.595	0.295	0.360459427101422	
14.6	0.228	0.37083995610707887	
14.605	0.382	0.36321135700212936	
14.61	0.222	0.34315637498404317	
14.615	0.021	0.3083109626219265	
14.62	0.114	0.2574666199569941	
14.625	0.048	0.1951301482240427	
14.63	-0.137	0.1288527207569939	
14.635	-0.102	0.06281951105971732	
14.64	-0.051	0.0006205578267011627	
14.645	-0.185	-0.05341525554467752	
14.65	-0.190	-0.09509023333418651	
14.655	-0.097	-0.12491385765194192	
14.66	-0.164	-0.14781046285745647	
14.665	-0.230	-0.1615520124035354	
14.67	-0.124	-0.16760697680898395	
14.675	-0.121	-0.1709365717645983	
14.68	-0.207	-0.17103347863472645	
14.685	-0.131	-0.16417344342256887	
14.69	-0.037	-0.15448380121401842	
14.695	-0.163	-0.1433790073902202	
14.7	-0.160	-0.13203526083749	
14.705	-0.025	-0.12198979440042018	
14.71	-0.089	-0.11383464184282138	
14.715	-0.146	-0.10548469681285645	
14.72	-0.031	-0.09462521893947842	
14.725	-0.056	-0.08799448610322008	
14.73	-0.166	-0.08600409240153836	
14.735	-0.076	-0.08514699281364677	
14.74	0.022	-0.08252146829917653	
14.745	-0.135	-0.07938484072288532	
14.75	-0.150	-0.07800521466319377	
14.755	-0.062	-0.08300278152851148	
14.76	-0.153	-0.09486219348659641	
14.765	-0.218	-0.11046974192455972	
14.77	-0.111	-0.12460579358373355	
14.775	-0.126	-0.1380081198067462	
14.78	-0.225	-0.14900871274867766	
14.785	-0.158	-0.1561240056343003	
14.79	-0.106	-0.16052364653382495	
14.795	-0.216	-0.16541171794257858	
14.8	-0.207	-0.16798761753176328	
14.805	-0.077	-0.16796489191449926	
14.81	-0.144	-0.1658849865929279	
14.815	-0.201	-0.15949225115742854	
14.82	-0.070	-0.15056232631283661	
14.825	0.011	-0.13700403540848405	
14.83	-0.050	-0.11204905408227939	
14.835	0.089	-0.15056232631283661	
14.84	0.111	-0.030495167197839294	
14.845	-0.160	-0.13700403540848405	
14.85	-0.240	-0.005019834328755186	
14.855	-0.153	-0.0389136088960176	
14.86	-0.199	-0.08791305113622652	
14.865	-0.234	-0.13252350151443962	
14.87	-0.074	-0.15848891395031262	
14.875	-0.057	-0.16599137918344686	
14.88	-0.158	-0.158125714824095	
14.885	-0.073	-0.14006061333668457	
14.89	0.027	-0.11843476875971012	
14.895	-0.102	-0.09653603628277649	
14.9	-0.114	-0.0780102868879258	
14.905	0.049	-0.06383133717699263	
14.91	-0.042	-0.05395689987996537	
14.915	-0.109	-0.04559432272608561	
14.92	0.054	-0.03642677596497762	
14.925	0.048	-0.0269865946760523	
14.93	-0.077	-0.017216651749506536	
14.935	0.043	-0.0070229147655833934	
14.94	0.159	0.007633920027150051	
14.945	-0.015	0.023389826478582454	
14.95	0.005	0.03696577766809316	
14.955	0.233	0.05025942503844868	
14.96	0.136	0.07003073024861281	
14.965	0.063	0.09333879520668772	
14.97	0.295	0.11861887991467714	
14.975	0.318	0.15105489941779388	
14.98	0.130	0.18373301067129225	
14.985	0.271	0.2119527198227975	
14.99	0.404	0.23566840831990743	
14.995	0.207	0.25740038242958246	
15.0	0.198	0.27093014189393244	
15.005	0.339	0.2742353059094949	
15.01	0.155	0.26705555189375085	
15.015	0.002	0.24533788253181904	
15.02	0.143	0.2075560658025512	
15.025	0.080	0.1650629574466918	
15.03	-0.118	0.11880376635874362	
15.035	-0.076	0.0689057944642993	
15.04	-0.037	0.017611457021491188	
15.045	-0.169	-0.031501903291635755	
15.05	-0.176	-0.0720398712230853	
15.055	-0.066	-0.10185925471101291	
15.06	-0.144	-0.12488782385858162	
15.065	-0.208	-0.1385632466749171	
15.07	-0.099	-0.14452639213905943	
15.075	-0.102	-0.14796835499957148	
15.08	-0.190	-0.14809519153960327	
15.085	-0.115	-0.14311169190035658	
15.09	-0.031	-0.1354581543110843	
15.095	-0.147	-0.12645193475874256	
15.1	-0.138	-0.1170209213226796	
15.105	-0.018	-0.10792600569740148	
15.11	-0.092	-0.10088122274880768	
15.115	-0.143	-0.09452409634758607	
15.12	-0.012	-0.08656154476529829	
15.125	-0.027	-0.0789844165189394	
15.13	-0.149	-0.07406427011636524	
15.135	-0.083	-0.07112902833560919	
15.14	-0.012	-0.07148116971089215	
15.145	-0.132	-0.0754280114593217	
15.15	-0.146	-0.0790208883895442	
15.155	-0.056	-0.08494424151383792	
15.16	-0.134	-0.09587224310848994	
15.165	-0.202	-0.10752356341410603	
15.17	-0.100	-0.11756406795649713	
15.175	-0.106	-0.127975440940109	
15.18	-0.230	-0.1370750391111243	
15.185	-0.172	-0.14512365893475004	
15.19	-0.108	-0.15445883435002603	
15.195	-0.208	-0.16245224793846208	
15.2	-0.204	-0.16702524537679786	
15.205	-0.077	-0.1668962253569995	
15.21	-0.146	-0.16488987767862703	
15.215	-0.213	-0.16056297178273432	
15.22	-0.099	-0.1535144397486719	
15.225	-0.051	-0.146964059460434	
15.23	-0.089	-0.13313423473883518	
15.235	0.088	-0.1030728806590815	
15.24	0.196	-0.146964059460434	
15.245	-0.097	-0.14043555133210095	
15.25	-0.204	-0.13432294590203758	
15.255	-0.141	-0.010828310487082236	
15.26	-0.210	-0.05590997671524552	
15.265	-0.240	-0.10462711952097543	
15.27	-0.109	-0.14043555133210095	
15.275	-0.074	-0.15992099203885465	
15.28	-0.170	-0.16322390941997755	
15.285	-0.082	-0.1520655355289703	
15.29	0.001	-0.13432294590203758	
15.295	-0.120	-0.11560066526922877	
15.3	-0.092	-0.09608398269719384	
15.305	0.072	-0.07670651355431134	
15.31	-0.034	-0.05795152341117557	
15.315	-0.118	-0.0427331433984009	
15.32	0.051	-0.032354523122779755	
15.325	0.068	-0.02189004098789806	
15.33	-0.091	-0.012349068620066678	
15.335	0.027	-0.0030430253754176136	
15.34	0.165	0.00777713952272651	
15.345	-0.015	0.021322953785816508	
15.35	0.019	0.034867019472634125	
15.355	0.237	0.05139299957843691	
15.36	0.153	0.07304756781513112	
15.365	0.042	0.09818926740306845	
15.37	0.277	0.12169225453932302	
15.375	0.318	0.14915564968284806	
15.38	0.153	0.18059549982582027	
15.385	0.300	0.21195007985354855	
15.39	0.423	0.2418166134620713	
15.395	0.214	0.26930258583744004	
15.4	0.170	0.28383628308413833	
15.405	0.355	0.2843902353057565	
15.41	0.190	0.2750487689562139	
15.415	0.036	0.2551924716154743	
15.42	0.194	0.22566916240098925	
15.425	0.121	0.1911392983857254	
15.43	-0.094	0.15063008104777345	
15.435	-0.047	0.10393707885187259	
15.44	-0.013	0.05276878714143229	
15.445	-0.156	0.001356463560361738	
15.45	-0.160	-0.04311398632489041	
15.455	-0.039	-0.0776624414162452	
15.46	-0.121	-0.10193656710234596	
15.465	-0.196	-0.11773332577753311	
15.47	-0.082	-0.12536706190777785	
15.475	-0.086	-0.12989613704496478	
15.48	-0.211	-0.13330557508860608	
15.485	-0.109	-0.1330557215321492	
15.49	-0.019	-0.1292789957623746	
15.495	-0.134	-0.12261710313730122	
15.5	-0.131	-0.11209504516196414	
15.505	0.008	-0.10070889621041881	
15.51	-0.074	-0.09094183442235045	
15.515	-0.132	-0.08170734324187284	
15.52	0.022	-0.07138468125805876	
15.525	0.002	-0.059908081539271386	
15.53	-0.141	-0.052291449260782316	
15.535	-0.062	-0.04906865017589457	
15.54	0.037	-0.04929198998583341	
15.545	-0.117	-0.05060141041936867	
15.55	-0.131	-0.05310135459269643	
15.555	-0.012	-0.05972831399460825	
15.56	-0.108	-0.0689249924147545	
15.565	-0.179	-0.07969763988458732	
15.57	-0.076	-0.0894095080727082	
15.575	-0.092	-0.10090589368153574	
15.58	-0.216	-0.11326672573143046	
15.585	-0.132	-0.12307356075442472	
15.59	-0.045	-0.1292990660070397	
15.595	-0.161	-0.13258900059442053	
15.6	-0.164	-0.1300967224654021	
15.605	-0.041	-0.1257262670738839	
15.61	-0.120	-0.12292708548471948	
15.615	-0.199	-0.12070917854355676	
15.62	-0.074	-0.11939641289264985	
15.625	-0.053	-0.11889599589703848	
15.63	-0.134	-0.11428890849282371	
15.635	0.057	-0.09705363686825738	
15.64	0.205	-0.06225756968690302	
15.645	-0.034	-0.11939641289264985	
15.65	-0.141	-0.11889599589703848	
15.655	-0.102	0.005288150350425367	
15.66	-0.193	-0.027934945957583134	
15.665	-0.240	-0.0727336366778991	
15.67	-0.131	-0.11235923608154831	
15.675	-0.091	-0.14287744728358662	
15.68	-0.185	-0.15732488488950813	
15.685	-0.089	-0.15503736022475512	
15.69	0.027	-0.1412381448243576	
15.695	-0.108	-0.12067363772565162	
15.7	-0.105	-0.09811214624336054	
15.705	0.045	-0.07762470036296953	
15.71	-0.050	-0.06298796512062452	
15.715	-0.117	-0.05078634061309101	
15.72	0.074	-0.040274805059523314	
15.725	0.048	-0.02688856930589134	
15.73	-0.117	-0.01743292696232584	
15.735	0.001	-0.010994148826167822	
15.74	0.135	-0.0061766259474847025	
15.745	-0.033	0.0032444795526920655	
15.75	-0.030	0.012878157953570524	
15.755	0.184	0.022459410296507457	
15.76	0.066	0.03598275951100345	
15.765	0.005	0.05116875090132497	
15.77	0.280	0.07178096070357985	
15.775	0.294	0.1041284005999553	
15.78	0.129	0.1435334319179628	
15.785	0.280	0.18001353599160733	
15.79	0.393	0.2148282554353191	
15.795	0.217	0.2462368468226368	
15.8	0.217	0.2678743829418998	
15.805	0.396	0.2804319928432354	
15.81	0.234	0.2869926873816554	
15.815	0.057	0.27918971057969133	
15.82	0.175	0.25470576545936247	
15.825	0.118	0.21510054965139414	
15.83	-0.095	0.16762150743001064	
15.835	-0.042	0.11398378515716859	
15.84	-0.002	0.05774279746718642	
15.845	-0.150	0.004333442052630032	
15.85	-0.160	-0.04006281269673969	
15.855	-0.047	-0.07467845129152428	
15.86	-0.141	-0.10198538840184228	
15.865	-0.208	-0.12168193055534461	
15.87	-0.091	-0.13234946964816194	
15.875	-0.105	-0.13996314352040318	
15.88	-0.211	-0.14527744134277915	
15.885	-0.126	-0.14499984131871585	
15.89	-0.044	-0.14234600276420778	
15.895	-0.163	-0.13663534601289754	
15.9	-0.160	-0.13001380288128123	
15.905	-0.030	-0.1227447881734559	
15.91	-0.126	-0.11800566956451372	
15.915	-0.164	-0.11462795488490321	
15.92	0.010	-0.10636642293297724	
15.925	0.002	-0.09299436766176715	
15.93	-0.137	-0.07824584341560185	
15.935	-0.059	-0.06600533524511717	
15.94	0.046	-0.05738175814321932	
15.945	-0.117	-0.0526125595892882	
15.95	-0.118	-0.0500042111434373	
15.955	0.010	-0.052780080577543555	
15.96	-0.103	-0.05899314679075161	
15.965	-0.184	-0.06860377104454093	
15.97	-0.082	-0.08040401626465896	
15.975	-0.123	-0.09701146880757341	
15.98	-0.227	-0.11620806682782596	
15.985	-0.134	-0.13099981184887513	
15.99	-0.074	-0.14040120282881594	
15.995	-0.181	-0.14659968602165413	
16.0	-0.170	-0.1459867145267154	
16.005	-0.050	-0.1427812904603278	
16.01	-0.123	-0.13800022800984624	
16.015	-0.185	-0.13260489543424886	
16.02	-0.066	-0.12538492083970273	
16.025	-0.076	-0.12100860064044214	
16.03	-0.163	-0.11723882467532688	
16.035	-0.002	-0.10598220468366912	
16.04	0.216	-0.0793544402299392	
16.045	-0.001	-0.0376297721203527	
16.05	-0.065	-0.12100860064044214	
16.055	-0.039	-0.11723882467532688	
16.06	-0.198	-0.002022663318162148	
16.065	-0.272	-0.04264285300096661	
16.07	-0.140	-0.09034815763812427	
16.075	-0.103	-0.12997967664396154	
16.08	-0.184	-0.15426427116499514	
16.085	-0.083	-0.15697092101210575	
16.09	0.019	-0.14533771984709332	
16.095	-0.128	-0.1256698826624656	
16.1	-0.120	-0.10601902920543493	
16.105	0.031	-0.08869507563523746	
16.11	-0.071	-0.07602915516808403	
16.115	-0.138	-0.06668541946361989	
16.12	0.007	-0.0593084130641015	
16.125	0.025	-0.0539724066091862	
16.13	-0.120	-0.047337618805620624	
16.135	-0.027	-0.04096344147458615	
16.14	0.104	-0.03329087423704921	
16.145	-0.047	-0.022714605493013837	
16.15	-0.024	-0.010032148714210232	
16.155	0.193	0.00536639220712366	
16.16	0.077	0.026957325334645132	
16.165	0.004	0.04827524055005713	
16.17	0.231	0.0707293611505769	
16.175	0.265	0.09804580974449302	
16.18	0.109	0.13063265653544112	
16.185	0.262	0.16303729802775702	
16.19	0.402	0.1957217953110633	
16.195	0.234	0.2302835498377748	
16.2	0.230	0.2589578355878185	
16.205	0.378	0.27833810204355625	
16.21	0.230	0.2869574010113353	
16.215	0.111	0.28129757747516326	
16.22	0.257	0.2656912012974689	
16.225	0.194	0.24302046636371924	
16.23	-0.054	0.21067793216909014	
16.235	0.013	0.16601325000400546	
16.24	0.054	0.1146675505189725	
16.245	-0.129	0.06234870740861924	
16.25	-0.152	0.011986196829447479	
16.255	-0.048	-0.03373461801832988	
16.26	-0.143	-0.0739952690758062	
16.265	-0.210	-0.10461849920639855	
16.27	-0.095	-0.1253809236264561	
16.275	-0.100	-0.1389992912508316	
16.28	-0.219	-0.14721439681268494	
16.285	-0.149	-0.15000621421865445	
16.29	-0.070	-0.15141040429854202	
16.295	-0.170	-0.15058527739623698	
16.3	-0.152	-0.14497624184520827	
16.305	-0.012	-0.13381282139465972	
16.31	-0.092	-0.12199186645854017	
16.315	-0.160	-0.1095663766754792	
16.32	-0.016	-0.09842794698507139	
16.325	-0.019	-0.08702906254791223	
16.33	-0.144	-0.07816586599743075	
16.335	-0.068	-0.07101881632096707	
16.34	0.007	-0.06745345358131843	
16.345	-0.131	-0.06755495346336343	
16.35	-0.132	-0.0689667087775761	
16.355	-0.024	-0.07285681520579763	
16.36	-0.123	-0.0809813441492786	
16.365	-0.196	-0.09153729289968607	
16.37	-0.083	-0.10145303865998734	
16.375	-0.109	-0.11303743334874378	
16.38	-0.213	-0.12514214004942975	
16.385	-0.163	-0.13401931496586164	
16.39	-0.099	-0.14345917621382454	
16.395	-0.207	-0.15355382785684366	
16.4	-0.199	-0.15896272575455656	
16.405	-0.074	-0.16083608987488912	
16.41	-0.144	-0.15998744747811317	
16.415	-0.219	-0.15656053722471397	
16.42	-0.112	-0.1524225346246546	
16.425	-0.105	-0.15202991578318248	
16.43	-0.185	-0.14919035846329437	
16.435	-0.048	-0.1399851718641673	
16.44	0.211	-0.11239848264772762	
16.445	0.078	-0.14395891846576106	
16.45	0.053	-0.14395891846576106	
16.455	0.109	-0.1399851718641673	
16.46	-0.140	-0.13572878557898832	
16.465	-0.253	-0.11904393721727669	
16.47	-0.138	-0.01237494610384234	
16.475	-0.134	-0.06801788236459569	
16.48	-0.221	-0.11522461273282192	
16.485	-0.131	-0.14395891846576106	
16.49	-0.053	-0.15638402174532776	
16.495	-0.166	-0.15764814435388375	
16.5	-0.140	-0.14997313876131288	
16.505	0.002	-0.13572878557898832	
16.51	-0.080	-0.11904393721727669	
16.515	-0.147	-0.10263950265616567	
16.52	0.002	-0.08732029235246613	
16.525	-0.002	-0.07401033711220772	
16.53	-0.128	-0.06330733636851182	
16.535	-0.027	-0.053950512109494905	
16.54	0.094	-0.043326255729519925	
16.545	-0.063	-0.03170418505729925	
16.55	-0.054	-0.020012822360675114	
16.555	0.149	-0.008660435839463125	
16.56	0.053	0.0069570034955038626	
16.565	-0.019	0.024300382800179137	
16.57	0.198	0.04371585437973879	
16.575	0.227	0.06903469382346425	
16.58	0.060	0.09864983209155333	
16.585	0.233	0.12703216515317806	
16.59	0.370	0.15871442055862744	
16.595	0.236	0.19530269658347485	
16.6	0.268	0.2319557479647356	
16.605	0.458	0.26733199027019067	
16.61	0.321	0.2989822984239076	
16.615	0.164	0.31828851899563937	
16.62	0.346	0.3206566006230197	
16.625	0.248	0.3090414169724352	
16.63	0.004	0.2826951850137922	
16.635	0.065	0.2379710408934772	
16.64	0.097	0.1826665233783735	
16.645	-0.097	0.12339159844288966	
16.65	-0.131	0.06495967685898957	
16.655	-0.056	0.008231415375489158	
16.66	-0.132	-0.043949908181061204	
16.665	-0.199	-0.08560760182967943	
16.67	-0.092	-0.11342916200860596	
16.675	-0.117	-0.13297788288095927	
16.68	-0.227	-0.14617769802376357	
16.685	-0.153	-0.1540509547626162	
16.69	-0.089	-0.1584179057378397	
16.695	-0.192	-0.16053209273790542	
16.7	-0.189	-0.1590044991960144	
16.705	-0.060	-0.1548556942340822	
16.71	-0.120	-0.14993661337607433	
16.715	-0.175	-0.14054966692499932	
16.72	-0.050	-0.12948829417387175	
16.725	-0.060	-0.11901086398670709	
16.73	-0.182	-0.1111193158223913	
16.735	-0.100	-0.10506287094123522	
16.74	-0.008	-0.10147120895218971	
16.745	-0.135	-0.09749772057616528	
16.75	-0.123	-0.09297632023243502	
16.755	0.001	-0.08790460015772261	
16.76	-0.109	-0.08494245695313732	
16.765	-0.204	-0.08751276488736695	
16.77	-0.111	-0.0955173339301008	
16.775	-0.115	-0.11103750270565912	
16.78	-0.228	-0.12707565657927433	
16.785	-0.173	-0.1410533050155574	
16.79	-0.111	-0.15351138895208988	
16.795	-0.221	-0.16448536221384097	
16.8	-0.213	-0.17194232744571808	
16.805	-0.100	-0.17492512698974647	
16.81	-0.169	-0.17595845830756643	
16.815	-0.230	-0.1754796175861864	
16.82	-0.134	-0.17250305464689591	
16.825	-0.138	-0.17206626408655573	
16.83	-0.240	-0.17308235053321225	
16.835	-0.131	-0.17102324999750054	
16.84	0.068	-0.15850140920552844	
16.845	0.045	-0.12649580883767114	
16.85	0.140	-0.15850140920552844	
16.855	0.263	-0.15247409930045064	
16.86	-0.028	-0.15086917555323703	
16.865	-0.233	-0.13797942433415683	
16.87	-0.164	0.04550719566663306	
16.875	-0.158	-0.015045945035985919	
16.88	-0.234	-0.07809984413492146	
16.885	-0.149	-0.12501302109920936	
16.89	-0.060	-0.15247409930045064	
16.895	-0.169	-0.16352500227779249	
16.9	-0.164	-0.16095058272287874	
16.905	-0.025	-0.15086917555323703	
16.91	-0.086	-0.13797942433415683	
16.915	-0.150	-0.12153041899040629	
16.92	-0.015	-0.10444817450669641	
16.925	-0.001	-0.0880429498271278	
16.93	-0.128	-0.0741573467192339	
16.935	-0.018	-0.0600061597416075	
16.94	0.100	-0.045444124171075295	
16.945	-0.051	-0.029578523758276503	
16.95	-0.031	-0.013969158579969646	
16.955	0.167	0.0021881477573895457	
16.96	0.057	0.02000155509070901	
16.965	-0.024	0.03741997805297003	
16.97	0.191	0.0545963519284297	
16.975	0.255	0.07698653615271811	
16.98	0.118	0.10880304853768274	
16.985	0.280	0.1450006032635164	
16.99	0.429	0.18758671085714843	
16.995	0.294	0.2344054855406487	
17.0	0.303	0.27801717921221625	
17.005	0.532	0.31819137546603793	
17.01	0.419	0.35600428488524394	
17.015	0.315	0.38642300990023815	
17.02	0.477	0.4055670861380223	
17.025	0.417	0.4149654084662209	
17.03	0.149	0.4068253215545805	
17.035	0.175	0.37395975897933137	
17.04	0.161	0.3195277936099066	
17.045	-0.071	0.24746364063750342	
17.05	-0.095	0.1670379606448793	
