Time	Potential	EKG	Unnamed: 3
0.0	-0.167	-0.00807044738704226	
0.005	-0.122	-0.03070647560986657	
0.01	-0.074	-0.05911260139118126	
0.015	-0.069	-0.07820545772551116	
0.02	-0.023	-0.08274312430397537	
0.025	0.046	-0.07393133227042067	
0.03	-0.014	-0.05327774800074461	
0.035	0.047	-0.029893035383737436	
0.04	0.136	-0.0027916226109111096	
0.045	0.183	0.033781686114911835	
0.05	0.243	0.0799508921470073	
0.055	0.250	0.13024856953795388	
0.06	0.392	0.1828911452963799	
0.065	0.565	0.24984432446147178	
0.07	0.718	0.33924632588622367	
0.075	0.793	0.45003191389454916	
0.08	0.806	0.5637423892505995	
0.085	0.889	0.6691122652687795	
0.09	0.956	0.760161349682998	
0.095	1.066	0.8427748041778989	
0.1	1.144	0.9229796868110003	
0.105	1.164	1.0012347986435315	
0.11	1.162	1.0678574476065823	
0.115	1.162	1.118826864782021	
0.12	1.139	1.1512228977739913	
0.125	1.028	1.1600028218804423	
0.13	0.964	1.1427314174932421	
0.135	0.867	1.0991220908039534	
0.14	0.706	1.0321616424943572	
0.145	0.550	0.9387402788169338	
0.15	0.379	0.8209542853812373	
0.155	0.230	0.6822583520384478	
0.16	0.081	0.5308710418998639	
0.165	0.007	0.3758108962969964	
0.17	-0.034	0.2342608466961456	
0.175	-0.061	0.11507420770435195	
0.18	-0.122	0.02273367826531546	
0.185	-0.139	-0.04788432230021478	
0.19	-0.164	-0.09877228278112084	
0.195	-0.153	-0.13522735160815447	
0.2	-0.090	-0.15407267110005235	
0.205	-0.052	-0.15169578496537622	
0.21	-0.057	-0.13507624926130582	
0.215	-0.069	-0.11225798901239159	
0.22	-0.068	-0.09277983294479634	
0.225	-0.084	-0.07887356452364744	
0.23	-0.116	-0.07430910255814663	
0.235	-0.130	-0.07896630806016856	
0.24	-0.139	-0.08971528081961097	
0.245	-0.179	-0.10620335701228521	
0.25	-0.190	-0.12618016908607632	
0.255	-0.210	-0.147692609093189	
0.26	-0.225	-0.16999141084029357	
0.265	-0.284	-0.1933208409259483	
0.27	-0.272	-0.2178276399810447	
0.275	-0.291	-0.24176960980262963	
0.28	-0.335	-0.26330501198605816	
0.285	-0.324	-0.28505887826960663	
0.29	-0.309	-0.3016507890008726	
0.295	-0.344	-0.31513172447165566	
0.3	-0.390	-0.32627764985822505	
0.305	-0.402	-0.34171236401185157	
0.31	-0.312	-0.3568864835640529	
0.315	-0.152	-0.35233477409826974	
0.32	0.042	-0.31085878950916657	
0.325	0.026	-0.23567937439897285	
0.33	-0.164	-0.15832720219011948	
0.335	-0.312	-0.28871565153847345	
0.34	-0.375	-0.13163617314266768	
0.345	-0.371	-0.18006651135195095	
0.35	-0.367	-0.23834270394687088	
0.355	-0.309	-0.28871565153847345	
0.36	-0.262	-0.31778985754051337	
0.365	-0.255	-0.32337386781818356	
0.37	-0.216	-0.3119629787350436	
0.375	-0.171	-0.2886307777530357	
0.38	-0.174	-0.2582452861564396	
0.385	-0.152	-0.2262208534138233	
0.39	-0.136	-0.1966283505678431	
0.395	-0.124	-0.17200744548360364	
0.4	-0.121	-0.15137393699625018	
0.405	-0.095	-0.13377436644834817	
0.41	-0.069	-0.11876312645200893	
0.415	-0.103	-0.10537029345474713	
0.42	-0.058	-0.0940192477322768	
0.425	-0.019	-0.08161720078573403	
0.43	0.030	-0.06420147304138785	
0.435	0.046	-0.0402513007943549	
0.44	0.162	-0.006635987394602755	
0.445	0.287	0.04005333708094788	
0.45	0.395	0.10863609561853221	
0.455	0.461	0.19319605553940913	
0.46	0.484	0.2822521501319681	
0.465	0.382	0.3566279628448469	
0.47	0.380	0.40292853281749164	
0.475	0.342	0.4203683315310428	
0.48	0.256	0.41181225509957403	
0.485	0.094	0.3747070415286972	
0.49	0.006	0.3093155024357467	
0.495	-0.069	0.22106492562722918	
0.5	-0.184	0.12263495214139017	
0.505	-0.214	0.021153853651773528	
0.51	-0.222	-0.07072299156680194	
0.515	-0.249	-0.14528952404579826	
0.52	-0.249	-0.19906286647678673	
0.525	-0.246	-0.2346527861219951	
0.53	-0.265	-0.2561281796925166	
0.535	-0.249	-0.2662443256157986	
0.54	-0.245	-0.26771407480138465	
0.545	-0.223	-0.2649277223167776	
0.55	-0.223	-0.25631752377412687	
0.555	-0.202	-0.2448702707288063	
0.56	-0.217	-0.23276728558308818	
0.565	-0.229	-0.2242759280280865	
0.57	-0.216	-0.22006679777966198	
0.575	-0.200	-0.2166904099768598	
0.58	-0.219	-0.21412188476482538	
0.585	-0.242	-0.21323235675966115	
0.59	-0.275	-0.2187487832458576	
0.595	-0.315	-0.23193787621999196	
0.6	-0.294	-0.251293657547747	
0.605	-0.265	-0.2678801834943101	
0.61	-0.239	-0.27576865512488513	
0.615	-0.269	-0.2752422738112035	
0.62	-0.278	-0.2730792046417857	
0.625	-0.287	-0.2727210233043127	
0.63	-0.274	-0.27409170545549166	
0.635	-0.312	-0.27721791388528416	
0.64	-0.320	-0.2837864084961981	
0.645	-0.324	-0.2939226292410174	
0.65	-0.312	-0.3032529921979662	
0.655	-0.148	-0.30190906843809096	
0.66	0.058	-0.2717686861782711	
0.665	0.117	-0.20316175936392636	
0.67	-0.034	-0.2730792046417857	
0.675	-0.245	-0.2727210233043127	
0.68	-0.358	-0.2717686861782711	
0.685	-0.355	-0.11715624136137902	
0.69	-0.318	-0.18281219107945829	
0.695	-0.286	-0.24095176025418527	
0.7	-0.272	-0.27918269621642344	
0.705	-0.226	-0.29389500929916934	
0.71	-0.205	-0.29085839053207707	
0.715	-0.207	-0.2741757758038422	
0.72	-0.222	-0.2540192037326071	
0.725	-0.182	-0.23581919408500576	
0.73	-0.122	-0.21610101875928234	
0.735	-0.064	-0.18909803362464495	
0.74	-0.052	-0.15481941123945508	
0.745	-0.031	-0.11902258214769894	
0.75	-0.019	-0.08517178587203564	
0.755	0.013	-0.05486490188687007	
0.76	0.088	-0.02592074580763353	
0.765	0.124	0.007813697725051048	
0.77	0.177	0.046058867773312466	
0.775	0.232	0.0901573608521126	
0.78	0.215	0.13383189607586782	
0.785	0.301	0.17494891494380782	
0.79	0.270	0.21320188702682982	
0.795	0.308	0.24590890360893314	
0.8	0.472	0.27884940937213387	
0.805	0.525	0.3262138969492532	
0.81	0.542	0.3840440820617263	
0.815	0.455	0.4367431026963529	
0.82	0.385	0.4670768526957515	
0.825	0.281	0.46516745252236513	
0.83	0.139	0.4277625860774025	
0.835	-0.008	0.35692151871200317	
0.84	-0.072	0.25825009961514744	
0.845	-0.122	0.14890527268208048	
0.85	-0.155	0.0458133903509343	
0.855	-0.207	-0.04175722063120163	
0.86	-0.211	-0.11393657020250006	
0.865	-0.255	-0.1692689378663671	
0.87	-0.248	-0.20986911756345306	
0.875	-0.220	-0.2357821188657009	
0.88	-0.216	-0.24725425570289913	
0.885	-0.207	-0.24604199350721037	
0.89	-0.150	-0.23569432440787014	
0.895	-0.142	-0.21814372713673716	
0.9	-0.112	-0.19421474087362384	
0.905	-0.103	-0.16770579442745287	
0.91	-0.095	-0.14297052805828858	
0.915	-0.124	-0.12433503515598208	
0.92	-0.104	-0.11182484165884128	
0.925	-0.115	-0.10577360210186997	
0.93	-0.153	-0.10633775081196349	
0.935	-0.199	-0.1150307354957396	
0.94	-0.197	-0.13264389874361196	
0.945	-0.237	-0.15520640485006956	
0.95	-0.255	-0.1812393618446433	
0.955	-0.231	-0.20463104739564678	
0.96	-0.228	-0.22197911116890803	
0.965	-0.232	-0.23338196263335526	
0.97	-0.203	-0.2357676961160253	
0.975	-0.213	-0.23274306832575622	
0.98	-0.225	-0.22839878666502772	
0.985	-0.239	-0.22501725673566575	
0.99	-0.263	-0.22658414757276993	
0.995	-0.222	-0.23125070746841137	
1.0	-0.084	-0.22726300030851074	
1.005	0.035	-0.19953702522956795	
1.01	0.070	-0.1469718046005781	
1.015	-0.119	-0.09148645678248055	
1.02	-0.203	-0.0637722624988893	
1.025	-0.226	-0.07370975710471607	
1.03	-0.214	-0.10545145619676759	
1.035	-0.145	-0.1380094198659356	
1.04	-0.069	-0.15450678528529344	
1.045	-0.014	-0.14926703659605434	
1.05	0.047	-0.12029941441853204	
1.055	0.130	-0.07450910854947564	
1.06	0.117	-0.01899044934500106	
1.065	0.084	0.03248788078731857	
1.07	0.183	0.07429497991418606	
1.075	0.185	0.10932275020584431	
1.08	0.189	0.14049514049314205	
1.085	0.293	0.16998679416374302	
1.09	0.311	0.2035218262326311	
1.095	0.276	0.23669370161446593	
1.1	0.266	0.26165198022950287	
1.105	0.318	0.27850337281336357	
1.11	0.356	0.29203614542103007	
1.115	0.285	0.3054781282353953	
1.12	0.368	0.31627872307290505	
1.125	0.429	0.33034843075052833	
1.13	0.435	0.35152519813754013	
1.135	0.536	0.3829616874969131	
1.14	0.567	0.4235051899864154	
1.145	0.527	0.4657350529736505	
1.15	0.486	0.4976484423369336	
1.155	0.457	0.5124438896229973	
1.16	0.400	0.5080480693500722	
1.165	0.246	0.4805050759954438	
1.17	0.097	0.425208055649835	
1.175	-0.025	0.33830952394418257	
1.18	-0.101	0.2295741198135171	
1.185	-0.152	0.11794969859092183	
1.19	-0.171	0.014466727620466163	
1.195	-0.226	-0.0732113609036358	
1.2	-0.245	-0.14230480364518727	
1.205	-0.223	-0.1925754857581915	
1.21	-0.213	-0.22493094096598523	
1.215	-0.208	-0.23843582814178743	
1.22	-0.184	-0.23777679215497788	
1.225	-0.156	-0.22769174504356046	
1.23	-0.152	-0.2114043109801369	
1.235	-0.116	-0.19004800252335824	
1.24	-0.083	-0.1655626145354225	
1.245	-0.115	-0.14222474349412617	
1.25	-0.103	-0.12330393233350215	
1.255	-0.095	-0.10959663013501814	
1.26	-0.080	-0.10095388528450103	
1.265	-0.090	-0.09343365084688467	
1.27	-0.081	-0.08777754204280587	
1.275	-0.097	-0.08571073786284916	
1.28	-0.112	-0.08640918944001913	
1.285	-0.121	-0.09103743685569998	
1.29	-0.156	-0.09957340830100483	
1.295	-0.141	-0.11323826425564937	
1.3	-0.112	-0.12327656053063366	
1.305	-0.092	-0.1265717169988505	
1.31	-0.068	-0.12197801807278356	
1.315	-0.060	-0.1104381128709902	
1.32	-0.049	-0.09473802924855712	
1.325	-0.040	-0.0787203067297485	
1.33	-0.110	-0.06845111122005032	
1.335	-0.086	-0.06601309156934111	
1.34	0.009	-0.06453907464432075	
1.345	0.149	-0.049256641470107464	
1.35	0.259	-0.006259695196137069	
1.355	0.217	0.05746451873700824	
1.36	0.021	0.11095891833054244	
1.365	-0.122	0.12248076608167352	
1.37	-0.098	0.09128999048822417	
1.375	-0.019	0.043322222094007164	
1.38	0.035	0.006529569167426561	
1.385	0.120	-0.00399380363042472	
1.39	0.180	0.01251423299101093	
1.395	0.186	0.04870765420556672	
1.4	0.240	0.09367348866046331	
1.405	0.318	0.1455016709150001	
1.41	0.314	0.19702668480556912	
1.415	0.304	0.24447013621111036	
1.42	0.327	0.2802779444708072	
1.425	0.334	0.3063472723522799	
1.43	0.269	0.31949346619587127	
1.435	0.304	0.3219395133696177	
1.44	0.398	0.3235393813248212	
1.445	0.362	0.33074950475806275	
1.45	0.337	0.34061901278641926	
1.455	0.408	0.35047214934150434	
1.46	0.446	0.3630994716463056	
1.465	0.472	0.38448793999292624	
1.47	0.541	0.4132206797144512	
1.475	0.631	0.4523852931226896	
1.48	0.602	0.4975653687196588	
1.485	0.608	0.5418800934228551	
1.49	0.614	0.5754802112301745	
1.495	0.586	0.5968098435561706	
1.5	0.510	0.6036248899017431	
1.505	0.450	0.5913833321602395	
1.51	0.398	0.559102743459768	
1.515	0.238	0.5075362870282897	
1.52	0.177	0.4381542553819241	
1.525	0.073	0.3543350534351215	
1.53	-0.046	0.25863100836737607	
1.535	-0.028	0.16289328894212504	
1.54	-0.032	0.08044374287397496	
1.545	-0.045	0.016871588380355112	
1.55	-0.072	-0.02532584075737156	
1.555	-0.071	-0.053658595667966304	
1.56	-0.089	-0.0718723854588908	
1.565	-0.063	-0.08239850831894482	
1.57	0.018	-0.07986947649894212	
1.575	0.003	-0.06566633853649444	
1.58	-0.042	-0.04831930468277128	
1.585	-0.054	-0.036150290083981684	
1.59	-0.013	-0.030610279747486802	
1.595	-0.022	-0.0280838979217923	
1.6	-0.016	-0.024330811364562395	
1.605	-0.031	-0.02172436902344563	
1.61	-0.011	-0.02084148949235621	
1.615	-0.048	-0.021365596532495243	
1.62	-0.072	-0.024943048565723932	
1.625	-0.060	-0.03468462640619059	
1.63	-0.161	-0.04925204499333076	
1.635	-0.164	-0.07216832902506126	
1.64	-0.113	-0.09766214840858159	
1.645	-0.064	-0.11402480095712568	
1.65	-0.095	-0.1162845656051309	
1.655	-0.129	-0.11279590949507047	
1.66	-0.142	-0.1138608546900271	
1.665	-0.164	-0.12029020142358247	
1.67	-0.135	-0.12895773836266922	
1.675	-0.145	-0.13574493370806925	
1.68	-0.133	-0.14019256747809092	
1.685	-0.100	-0.1401206278067274	
1.69	-0.002	-0.12872732873765286	
1.695	0.082	-0.10102381478755293	
1.7	0.079	-0.058220074839441374	
1.705	-0.061	-0.016843133644943154	
1.71	-0.124	-0.0019269592847900147	
1.715	-0.162	-0.01625064391616385	
1.72	-0.121	-0.04593705069136341	
1.725	-0.115	-0.0757873181550614	
1.73	-0.063	-0.09618221795270887	
1.735	0.021	-0.09807174215582003	
1.74	0.064	-0.07873627094039085	
1.745	0.061	-0.04606918115332616	
1.75	0.030	-0.011222337259541682	
1.755	0.036	0.016195501208769517	
1.76	0.032	0.03208582469320882	
1.765	0.117	0.043737950699387906	
1.77	0.191	0.06308801021486998	
1.775	0.172	0.09223451405184054	
1.78	0.104	0.11776195187333881	
1.785	0.116	0.13188016060245336	
1.79	0.171	0.13830355722047208	
1.795	0.240	0.14794667863906266	
1.8	0.204	0.16473484031935592	
1.805	0.276	0.18522033148016792	
1.81	0.319	0.21114133598970805	
1.815	0.325	0.24170052233599137	
1.82	0.389	0.2750436112306959	
1.825	0.427	0.31127734116329686	
1.83	0.452	0.34979285834075846	
1.835	0.470	0.3868469136702318	
1.84	0.489	0.4212929968876075	
1.845	0.482	0.4489679004120715	
1.85	0.437	0.46671237779210295	
1.855	0.284	0.46517756049332226	
1.86	0.226	0.43613725692364924	
1.865	0.113	0.37969458555733415	
1.87	0.041	0.30501942004192456	
1.875	-0.026	0.21928226195967015	
1.88	-0.110	0.13080253818306112	
1.885	-0.156	0.04483929097477897	
1.89	-0.138	-0.030686750494485545	
1.895	-0.109	-0.08800149323403411	
1.9	-0.110	-0.12127817538644355	
1.905	-0.092	-0.1347941060859834	
1.91	-0.095	-0.1338262218886056	
1.915	-0.106	-0.12730628903635866	
1.92	-0.086	-0.11798362408274278	
1.925	-0.025	-0.10569742105149857	
1.93	-0.037	-0.08819442526352984	
1.935	-0.009	-0.06817864985669896	
1.94	-0.016	-0.04869685824622564	
1.945	-0.014	-0.03301374673826286	
1.95	-0.045	-0.023303762540235536	
1.955	-0.060	-0.0218115043137867	
1.96	-0.104	-0.028826123706570887	
1.965	-0.100	-0.04530896512993758	
1.97	-0.078	-0.06098780572414519	
1.975	-0.106	-0.07468835617456171	
1.98	-0.121	-0.0872003582728477	
1.985	-0.122	-0.09819497637029356	
1.99	-0.133	-0.10867447685947883	
1.995	-0.165	-0.12000024875479352	
2.0	-0.170	-0.13233587543825048	
2.005	-0.162	-0.14379359840590814	
2.01	-0.173	-0.1547790950998012	
2.015	-0.190	-0.16334509212638637	
2.02	-0.173	-0.17101274896949242	
2.025	-0.193	-0.1766355152614053	
2.03	-0.184	-0.18120854482499477	
2.035	-0.072	-0.1792390094395635	
2.04	0.088	-0.15561024973542256	
2.045	0.105	-0.10594419667650068	
2.05	-0.009	-0.0494137722579349	
2.055	-0.139	-0.013845648602839279	
2.06	-0.182	-0.01573554409282707	
2.065	-0.165	-0.0453609802738105	
2.07	-0.145	-0.08105851998545681	
2.075	-0.100	-0.10958135929072876	
2.08	-0.057	-0.12217242638477585	
2.085	-0.023	-0.11629394697268088	
2.09	0.050	-0.09461707770479247	
2.095	0.099	-0.05791437058050259	
2.1	0.136	-0.012428230250206269	
2.105	0.133	0.0361812578553851	
2.11	0.145	0.0783156658449654	
2.115	0.104	0.1086003498179618	
2.12	0.134	0.12590365148084487	
2.125	0.154	0.13645559245924854	
2.13	0.139	0.14181339884429392	
2.135	0.186	0.147647732811725	
2.14	0.255	0.15841379115898674	
2.145	0.258	0.1781217166675068	
2.15	0.215	0.20051112183148667	
2.155	0.238	0.21816460521912895	
2.16	0.343	0.23338768017794911	
2.165	0.386	0.258611686075219	
2.17	0.499	0.29787317363539306	
2.175	0.588	0.3534916707968467	
2.18	0.577	0.4188424437458719	
2.185	0.576	0.4806005165981976	
2.19	0.519	0.5273758883717947	
2.195	0.469	0.548131171720539	
2.2	0.279	0.5364956724607779	
2.205	0.250	0.49212378893774966	
2.21	0.189	0.4233895424207529	
2.215	0.073	0.34362450350016427	
2.22	0.012	0.25783578057423456	
2.225	-0.066	0.1694667758843587	
2.23	-0.115	0.08287950913123376	
2.235	-0.130	0.0056257623784160765	
2.24	-0.129	-0.055627161005534546	
2.245	-0.129	-0.09982961177416493	
2.25	-0.124	-0.12744976937399308	
2.255	-0.127	-0.13987192755895256	
2.26	-0.095	-0.14161347678703345	
2.265	-0.103	-0.13735524417146844	
2.27	-0.087	-0.12616086670331578	
2.275	-0.045	-0.11253879620951465	
2.28	-0.043	-0.09611990988530299	
2.285	-0.016	-0.07638507182189505	
2.29	-0.019	-0.05663829262139125	
2.295	-0.020	-0.039842469877915954	
2.3	-0.042	-0.029472571092097142	
2.305	-0.029	-0.02487443174777513	
2.31	-0.016	-0.022606035617446573	
2.315	-0.078	-0.024373754307439276	
2.32	-0.126	-0.03417727317413935	
2.325	-0.142	-0.05453342373029132	
2.33	-0.147	-0.08012038597671453	
2.335	-0.155	-0.10539012816691852	
2.34	-0.144	-0.1256300384830863	
2.345	-0.122	-0.1388285941393564	
2.35	-0.133	-0.14446414910610722	
2.355	-0.132	-0.14387369092343386	
2.36	-0.121	-0.14060996282894161	
2.365	-0.145	-0.13837024454948121	
2.37	-0.168	-0.13716378830840295	
2.375	-0.168	-0.14153261656853944	
2.38	-0.132	-0.14713321863694087	
2.385	-0.003	-0.14337462211685392	
2.39	0.220	-0.11058760999004896	
2.395	0.267	-0.041818003540879355	
2.4	0.094	0.03850016584898693	
2.405	-0.048	0.09007916427547277	
2.41	-0.097	0.09436331593696982	
2.415	-0.095	0.06264082134489632	
2.42	-0.057	0.020852773968152553	
2.425	0.027	-0.011536875001086256	
2.43	0.088	-0.023111933512667954	
2.435	0.145	-0.007346233167288392	
2.44	0.197	0.028363619379027986	
2.445	0.177	0.07312582610347272	
2.45	0.165	0.11455252588640649	
2.455	0.183	0.14614280710632654	
2.46	0.215	0.16933918666403536	
2.465	0.252	0.1886377189651232	
2.47	0.328	0.21189875209932396	
2.475	0.322	0.24143620143067723	
2.48	0.302	0.2698257888313136	
2.485	0.308	0.29066022001071196	
2.49	0.377	0.30837789464787513	
2.495	0.423	0.3271087591351515	
2.5	0.431	0.3525652018238746	
2.505	0.444	0.3801674604205524	
2.51	0.539	0.409328774129532	
2.515	0.585	0.44463467592868616	
2.52	0.638	0.4889187859212266	
2.525	0.701	0.5384256885301947	
2.53	0.675	0.5888101102544268	
2.535	0.643	0.628682961259331	
2.54	0.643	0.653364327185401	
2.545	0.596	0.6610567040764761	
2.55	0.580	0.653580325033565	
2.555	0.501	0.6341918805653787	
2.56	0.434	0.600275198797001	
2.565	0.328	0.5506088097857391	
2.57	0.232	0.4859502572684042	
2.575	0.096	0.40640136896007395	
2.58	0.073	0.31377357010328677	
2.585	0.224	0.23274742947315255	
2.59	0.365	0.1904534172826139	
2.595	0.450	0.1990579038937643	
2.6	0.458	0.2465642343876885	
2.605	0.476	0.3092349108101332	
2.61	0.455	0.3692884107488411	
2.615	0.374	0.411556929502417	
2.62	0.415	0.4309457703241735	
2.625	0.453	0.4384565163676199	
2.63	0.365	0.4377699887170074	
2.635	0.258	0.4236658314358629	
2.64	0.249	0.391398341753029	
2.645	0.218	0.3470703548480441	
2.65	0.208	0.30256533117720386	
2.655	0.197	0.2642052965321767	
2.66	0.177	0.2313136642792777	
2.665	0.108	0.20261121306312646	
2.67	0.105	0.17492902060778137	
2.675	0.108	0.14842812489408858	
2.68	0.076	0.12581396134696748	
2.685	0.007	0.10369603366691461	
2.69	0.000	0.07936328008601476	
2.695	0.000	0.0520700216137816	
2.7	-0.028	0.027604647224489763	
2.705	-0.038	0.00618248863389283	
2.71	-0.040	-0.011721404499525134	
2.715	-0.086	-0.02834916822928885	
2.72	-0.118	-0.04605729659460014	
2.725	-0.089	-0.06462604586836093	
2.73	0.023	-0.07516759316834101	
2.735	0.220	-0.05822144610527926	
2.74	0.241	-0.006635579921509753	
2.745	0.151	0.0590196948220155	
2.75	-0.093	0.10158813515770489	
2.755	-0.199	0.09315109863800332	
2.76	-0.239	0.038236065655906114	
2.765	-0.251	-0.03932685199476002	
2.77	-0.208	-0.11302000732049788	
2.775	-0.190	-0.1686364820197047	
2.78	-0.185	-0.2001704191444206	
2.785	-0.153	-0.2122189904439385	
2.79	-0.135	-0.2066730573657738	
2.795	-0.165	-0.19397430269009658	
2.8	-0.142	-0.1803369918059588	
2.805	-0.092	-0.1638180342168669	
2.81	-0.077	-0.1447718105369858	
2.815	-0.078	-0.12431541597820914	
2.82	-0.075	-0.10503747672877939	
2.825	-0.057	-0.08867019915629759	
2.83	-0.068	-0.07716842010919243	
2.835	-0.069	-0.06923166181580845	
2.84	-0.087	-0.06569885511039318	
2.845	-0.048	-0.06495702314419127	
2.85	-0.011	-0.062323663431053306	
2.855	0.067	-0.04883116876453118	
2.86	0.131	-0.021755266407884215	
2.865	0.175	0.01870320710610622	
2.87	0.240	0.0689483997441917	
2.875	0.296	0.1243370208110908	
2.88	0.252	0.1788474095402686	
2.885	0.195	0.21773432948442284	
2.89	0.183	0.2362750504700947	
2.895	0.142	0.23306733132438717	
2.9	0.052	0.21266255424564606	
2.905	-0.019	0.1741090435670279	
2.91	-0.075	0.12024276771053563	
2.915	-0.158	0.05573127581897838	
2.92	-0.234	-0.01408483117001006	
2.925	-0.248	-0.08668791555678955	
2.93	-0.277	-0.15309892741104814	
2.935	-0.275	-0.20722590215674017	
2.94	-0.300	-0.24674124463219044	
2.945	-0.310	-0.2759203501958959	
2.95	-0.295	-0.29529210845137877	
2.955	-0.315	-0.30588434369903705	
2.96	-0.287	-0.31077171307448637	
2.965	-0.263	-0.3092499826313787	
2.97	-0.251	-0.30106074830723656	
2.975	-0.210	-0.28570071385334506	
2.98	-0.213	-0.266119611443601	
2.985	-0.199	-0.24622424001501705	
2.99	-0.176	-0.22674272262583892	
2.995	-0.147	-0.20793649249911805	
3.0	-0.145	-0.18929644489464525	
3.005	-0.144	-0.17087983481258406	
3.01	-0.148	-0.1577840480004788	
3.015	-0.188	-0.15126747036485272	
3.02	-0.188	-0.15306232495821834	
3.025	-0.182	-0.1597006514022662	
3.03	-0.222	-0.1701284175991846	
3.035	-0.232	-0.18322470094894028	
3.04	-0.223	-0.19673347903640315	
3.045	-0.203	-0.20893698484355383	
3.05	-0.213	-0.21529863135063385	
3.055	-0.193	-0.21586715898762768	
3.06	-0.210	-0.21377744530236986	
3.065	-0.251	-0.2132759986511777	
3.07	-0.237	-0.21705927731131514	
3.075	-0.202	-0.2216881104986038	
3.08	-0.043	-0.215120565825488	
3.085	0.253	-0.1731884065083629	
3.09	0.412	-0.0796743189603344	
3.095	0.258	-0.1712411413283099	
3.1	-0.115	-0.15466631913533607	
3.105	-0.237	0.14206047711086914	
3.11	-0.255	0.08225178502588618	
3.115	-0.246	-0.00924868867431947	
3.12	-0.196	-0.09508672247418404	
3.125	-0.112	-0.15466631913533607	
3.13	-0.063	-0.17805707220987005	
3.135	-0.077	-0.1712411413283099	
3.14	-0.042	-0.1477798741862577	
3.145	-0.014	-0.11689078932979868	
3.15	-0.023	-0.08527235373983319	
3.155	-0.020	-0.05694891526499151	
3.16	-0.014	-0.03578238074234901	
3.165	0.036	-0.020186129135606905	
3.17	0.073	-0.0020946903716294054	
3.175	0.042	0.017240976168580904	
3.18	0.059	0.033942455674426227	
3.185	0.110	0.04779351513498506	
3.19	0.204	0.06918834394920263	
3.195	0.276	0.10311364726305781	
3.2	0.342	0.15076943014099822	
3.205	0.372	0.20903795223920024	
3.21	0.457	0.2702108695989761	
3.215	0.476	0.33083597970388334	
3.22	0.525	0.38888335490261067	
3.225	0.594	0.44422796875293835	
3.23	0.585	0.4949755059523003	
3.235	0.608	0.5377758658250118	
3.24	0.522	0.5671367387666193	
3.245	0.457	0.5741106648921271	
3.25	0.295	0.5507515933941238	
3.255	0.137	0.4929825556374464	
3.26	0.113	0.40521217633834045	
3.265	-0.013	0.3028680339677986	
3.27	-0.090	0.19686566225452445	
3.275	-0.139	0.09321627399806838	
3.28	-0.158	1.49546042154192e-05	
3.285	-0.210	-0.07619588456165667	
3.29	-0.226	-0.1358662722619508	
3.295	-0.236	-0.1818705172816884	
3.3	-0.248	-0.21519556106809176	
3.305	-0.236	-0.23598518752848038	
3.31	-0.199	-0.24479715500564161	
3.315	-0.177	-0.24212638986390722	
3.32	-0.171	-0.22910495896341468	
3.325	-0.185	-0.21279972146900575	
3.33	-0.202	-0.20003095171300578	
3.335	-0.187	-0.1931922707532714	
3.34	-0.197	-0.1888488835273018	
3.345	-0.217	-0.1889059592565529	
3.35	-0.254	-0.19522492418647072	
3.355	-0.260	-0.20796355443008088	
3.36	-0.294	-0.22479955582388686	
3.365	-0.330	-0.24616950500642298	
3.37	-0.332	-0.27010359103898995	
3.375	-0.365	-0.2947626659821144	
3.38	-0.411	-0.32104310076327586	
3.385	-0.439	-0.3492202873190064	
3.39	-0.486	-0.380823546685178	
3.395	-0.492	-0.41388753305915943	
3.4	-0.538	-0.44624950728629664	
3.405	-0.584	-0.47895770336911003	
3.41	-0.625	-0.5147764963417277	
3.415	-0.662	-0.5521891339699984	
3.42	-0.702	-0.5911090787819486	
3.425	-0.685	-0.6277355091310883	
3.43	-0.608	-0.6540435958908053	
3.435	-0.491	-0.6562056650619006	
3.44	-0.430	-0.6287726773965496	
3.445	-0.506	-0.5859041544828125	
3.45	-0.643	-0.5523115784574633	
3.455	-0.676	-0.547950436749387	
3.46	-0.613	-0.5647526891582749	
3.465	-0.564	-0.5832067673440334	
3.47	-0.478	-0.5860919805499192	
3.475	-0.408	-0.5686999026253776	
3.48	-0.342	-0.5310681615737647	
3.485	-0.286	-0.4782350910085154	
3.49	-0.219	-0.41576648215592693	
3.495	-0.165	-0.34990711612724823	
3.5	-0.155	-0.285297312739356	
3.505	-0.087	-0.2269125677385765	
3.51	0.017	-0.16976296178250339	
3.515	-0.014	-0.1152378206926587	
3.52	0.023	-0.06509214284905841	
3.525	0.070	-0.023719959125400182	
3.53	0.191	0.01590687739245901	
3.535	0.201	0.06379582104944649	
3.54	0.259	0.11423730391365244	
3.545	0.351	0.16804461424468553	
3.55	0.432	0.2267391013645886	
3.555	0.545	0.2961506356579698	
3.56	0.637	0.37517829775766115	
3.565	0.647	0.45773173736850986	
3.57	0.701	0.5359938173550423	
3.575	0.764	0.6052617338182311	
3.58	0.770	0.6658138877277602	
3.585	0.777	0.7148450346182705	
3.59	0.728	0.7482707463154001	
3.595	0.676	0.7599390847818588	
3.6	0.560	0.74772607368912	
3.605	0.409	0.7062063917521345	
3.61	0.328	0.6340902279657668	
3.615	0.233	0.5406859580087926	
3.62	0.185	0.4411137117211702	
3.625	0.068	0.3412560729607654	
3.63	-0.031	0.24270520355092323	
3.635	0.015	0.14993592719685928	
3.64	0.018	0.07838482393762719	
3.645	-0.045	0.02785364620416551	
3.65	-0.014	-0.005282085320278278	
3.655	0.033	-0.02264361124528732	
3.66	0.039	-0.022907300328580252	
3.665	0.020	-0.01340946722753518	
3.67	0.154	0.006173013310621377	
3.675	0.120	0.034328535759448234	
3.68	0.122	0.06562522089143251	
3.685	0.136	0.09188600025716638	
3.69	0.053	0.10943907208731857	
3.695	0.068	0.11082539766419673	
3.7	0.027	0.1016346774017231	
3.705	0.006	0.08439392845990903	
3.71	0.030	0.06312969170953711	
3.715	-0.032	0.042512275170161956	
3.72	0.000	0.023170904254047057	
3.725	0.004	0.008403935466621387	
3.73	-0.061	-0.0034200082354937265	
3.735	-0.100	-0.018159074423191625	
3.74	-0.049	-0.03647951225433391	
3.745	-0.032	-0.05015459030054953	
3.75	-0.037	-0.054417130434608836	
3.755	-0.020	-0.051570252422263915	
3.76	-0.046	-0.04684181349238292	
3.765	-0.092	-0.04554162947506572	
3.77	-0.090	-0.05083279381254513	
3.775	-0.064	-0.059561612275409556	
3.78	-0.016	-0.06443834759209419	
3.785	0.201	-0.04914331047793258	
3.79	0.322	0.0005898468341341816	
3.795	0.191	-0.04554162947506572	
3.8	-0.040	-0.03221752394045077	
3.805	-0.121	-0.0268449310503308	
3.81	-0.142	0.08519637071992056	
3.815	-0.109	0.02445013446969765	
3.82	-0.028	-0.0268449310503308	
3.825	0.049	-0.05250340979993949	
3.83	0.036	-0.051413498793608264	
3.835	0.068	-0.03221752394045077	
3.84	0.145	-0.0014414566782868132	
3.845	0.203	0.03889245392776717	
3.85	0.188	0.0855214087328986	
3.855	0.209	0.13039500877168492	
3.86	0.264	0.16722092323325294	
3.865	0.278	0.20146496436602035	
3.87	0.279	0.23210883904857338	
3.875	0.288	0.2564559395615035	
3.88	0.287	0.2725934930644787	
3.885	0.293	0.28479061480462187	
3.89	0.295	0.2925343994838757	
3.895	0.273	0.29486669259653087	
3.9	0.282	0.29253748608189084	
3.905	0.331	0.2934266900552295	
3.91	0.398	0.300212228653466	
3.915	0.371	0.31745146506942845	
3.92	0.409	0.33913846532182745	
3.925	0.495	0.3654701165096472	
3.93	0.443	0.39457118412523523	
3.935	0.429	0.4197938533706567	
3.94	0.458	0.43754436963874627	
3.945	0.405	0.44484917966670867	
3.95	0.331	0.43953290447030113	
3.955	0.263	0.4184190319061677	
3.96	0.156	0.3771731572810653	
3.965	0.041	0.31443943960944015	
3.97	0.009	0.23815386985539444	
3.975	-0.028	0.1584606211542352	
3.98	-0.086	0.08256749982322205	
3.985	-0.136	0.014819967772575656	
3.99	-0.124	-0.042440296410415385	
3.995	-0.129	-0.08714786607124861	
4.0	-0.158	-0.11844699618056849	
4.005	-0.138	-0.13755614909759406	
4.01	-0.121	-0.1478147701732362	
4.015	-0.135	-0.14954787009641168	
4.02	-0.138	-0.1468356692932124	
4.025	-0.129	-0.1425521713665467	
4.03	-0.176	-0.14244963721615927	
4.035	-0.181	-0.14517568427884112	
4.04	-0.214	-0.15444587836258913	
4.045	-0.236	-0.17018060860994955	
4.05	-0.248	-0.1894525848300052	
4.055	-0.199	-0.20552983468497918	
4.06	-0.181	-0.21482447628438284	
4.065	-0.193	-0.2145708605720117	
4.07	-0.214	-0.2098110316443316	
4.075	-0.210	-0.2075450640550484	
4.08	-0.236	-0.20848599190299866	
4.085	-0.202	-0.21115614517956802	
4.09	-0.211	-0.21240585778031948	
4.095	-0.199	-0.2122141631463976	
4.1	-0.185	-0.20946473242169214	
4.105	-0.152	-0.20248302931578183	
4.11	-0.139	-0.19084597269615705	
4.115	-0.162	-0.17761824465772258	
4.12	-0.113	-0.16376862007266135	
4.125	-0.058	-0.14751554944577022	
4.13	-0.083	-0.12853172937653656	
4.135	0.026	-0.10315036197757782	
4.14	0.215	-0.062347210623438065	
4.145	0.227	-0.0012190789606525356	
4.15	0.097	0.06549435451013352	
4.155	-0.055	0.1034930671779797	
4.16	-0.098	0.09711794708151336	
4.165	-0.129	0.05837585829003658	
4.17	-0.058	0.01026971259771881	
4.175	-0.011	-0.026524847141185515	
4.18	0.000	-0.04554558452878566	
4.185	0.076	-0.042098191381124986	
4.19	0.154	-0.018354120481419697	
4.195	0.172	0.021713165388671067	
4.2	0.189	0.06854200470011222	
4.205	0.230	0.11657985457293428	
4.21	0.201	0.1570844830829663	
4.215	0.236	0.18734352282841507	
4.22	0.316	0.21432055167873076	
4.225	0.336	0.24346874415877687	
4.23	0.296	0.2713838538530199	
4.235	0.318	0.2928987070684448	
4.24	0.330	0.3086733640074363	
4.245	0.281	0.3156754840380882	
4.25	0.324	0.317510444796434	
4.255	0.421	0.3226314539561149	
4.26	0.542	0.34413090667088087	
4.265	0.550	0.3853187689118817	
4.27	0.666	0.4423099398565034	
4.275	0.793	0.5115090152086572	
4.28	0.825	0.5923949605417774	
4.285	0.893	0.6768722249479049	
4.29	0.936	0.7586760001726528	
4.295	0.842	0.8236893120158786	
4.3	0.713	0.8574701494005943	
4.305	0.647	0.8515697093753558	
4.31	0.539	0.8081196086925042	
4.315	0.398	0.7353184005570887	
4.32	0.290	0.6392652272770019	
4.325	0.204	0.5294896863534316	
4.33	0.111	0.41342957128495594	
4.335	0.059	0.3038728900054019	
4.34	0.050	0.2066641794949152	
4.345	-0.016	0.12674509122498767	
4.35	-0.043	0.0625224246431463	
4.355	0.013	0.016569761574375643	
4.36	0.018	-0.009844905536277284	
4.365	-0.061	-0.021632554342008545	
4.37	-0.002	-0.02776046112712556	
4.375	0.023	-0.027518916696386828	
4.38	0.021	-0.020513588746747212	
4.385	0.070	-0.006147705604953743	
4.39	0.085	0.013598266699141678	
4.395	0.075	0.03478539824647348	
4.4	0.067	0.052541145495483846	
4.405	0.068	0.06547644157494388	
4.41	0.041	0.07014998760405142	
4.415	-0.002	0.06643214767837044	
4.42	-0.034	0.05318042904522455	
4.425	-0.054	0.030431247193655656	
4.43	-0.090	0.0025558517273111428	
4.435	-0.118	-0.027154706562708696	
4.44	-0.119	-0.05647260573184081	
4.445	-0.138	-0.0851660592571514	
4.45	-0.130	-0.10740760540895093	
4.455	-0.098	-0.12057549121643228	
4.46	-0.061	-0.12284089136694441	
4.465	-0.121	-0.11749993916693292	
4.47	-0.145	-0.11385403128041943	
4.475	-0.152	-0.1166129284522345	
4.48	-0.187	-0.12638854383913975	
4.485	-0.176	-0.14014633061512446	
4.49	-0.068	-0.14852752813280637	
4.495	0.033	-0.13811701174005475	
4.5	0.059	-0.10534684867141395	
4.505	-0.055	-0.06465968717988586	
4.51	-0.150	-0.04190229262408521	
4.515	-0.188	-0.04944316546420605	
4.52	-0.133	-0.07285197883353156	
4.525	-0.104	-0.09665009496639444	
4.53	-0.087	-0.11134245989745008	
4.535	-0.068	-0.11311960035055399	
4.54	-0.013	-0.10357127708331851	
4.545	-0.022	-0.08612872610526061	
4.55	-0.005	-0.06434072554497412	
4.555	0.052	-0.03966331592494663	
4.56	0.082	-0.012862080094068062	
4.565	0.094	0.01658710141087942	
4.57	0.162	0.049116781457524857	
4.575	0.183	0.08334237283214778	
4.58	0.194	0.11767758565495855	
4.585	0.258	0.15085229967253672	
4.59	0.276	0.18641074031984237	
4.595	0.276	0.21789981073214693	
4.6	0.314	0.24664205675231773	
4.605	0.400	0.2753115706218634	
4.61	0.487	0.31318682183362717	
4.615	0.541	0.36159807332710125	
4.62	0.592	0.4190634707806709	
4.625	0.660	0.4793675192422168	
4.63	0.702	0.5407201073240266	
4.635	0.695	0.5987956586464753	
4.64	0.718	0.6473867207978041	
4.645	0.672	0.6799493678785417	
4.65	0.580	0.6926132225464281	
4.655	0.531	0.6802451592720964	
4.66	0.435	0.6442016432451518	
4.665	0.302	0.5866027351950232	
4.67	0.243	0.5090087767914786	
4.675	0.130	0.4193683383389557	
4.68	0.015	0.3217617966407038	
4.685	-0.043	0.2197715207779092	
4.69	-0.077	0.12237374949684238	
4.695	-0.113	0.03702498867599577	
4.7	-0.124	-0.03135543393174403	
4.705	-0.106	-0.07978856615760822	
4.71	-0.075	-0.10874395744210821	
4.715	-0.066	-0.11832845854051623	
4.72	-0.064	-0.11303761101773233	
4.725	-0.072	-0.10164451336973529	
4.73	-0.069	-0.09017304120987837	
4.735	-0.051	-0.08025326908067801	
4.74	-0.045	-0.06967889960063561	
4.745	-0.028	-0.059936280457137274	
4.75	-0.063	-0.052360649456560014	
4.755	-0.052	-0.04685677118994956	
4.76	-0.031	-0.04572840148861379	
4.765	-0.048	-0.04430521018760357	
4.77	-0.078	-0.044091001935752674	
4.775	-0.100	-0.04964725396545358	
4.78	-0.098	-0.06113203954666971	
4.785	-0.095	-0.07327738594561292	
4.79	-0.095	-0.08369308616183394	
4.795	-0.119	-0.0919032363724117	
4.8	-0.135	-0.10036994603806525	
4.805	-0.112	-0.10887355462212069	
4.81	-0.119	-0.11570028661725736	
4.815	-0.155	-0.12130665888495612	
4.82	-0.150	-0.1271173401052973	
4.825	-0.142	-0.13462229169926482	
4.83	-0.200	-0.14311255658829186	
4.835	-0.210	-0.15531614831755125	
4.84	-0.107	-0.16569715399074914	
4.845	0.072	-0.15684093284244405	
4.85	0.156	-0.11534261388465275	
4.855	0.166	-0.04790449581911448	
4.86	-0.023	0.01627884117345764	
4.865	-0.136	0.042674142186276603	
4.87	-0.162	0.02784458819447437	
4.875	-0.119	-0.011614961892640678	
4.88	-0.112	-0.053073144028005434	
4.885	-0.078	-0.0833259853894199	
4.89	-0.083	-0.09770752096779467	
4.895	0.001	-0.09882414857055898	
4.9	0.024	-0.0843807122474329	
4.905	-0.002	-0.05792812901669906	
4.91	0.001	-0.033654901504681936	
4.915	-0.023	-0.01730329247341786	
4.92	0.030	-0.006178209011974432	
4.925	0.023	0.003424624232777311	
4.93	-0.008	0.009918175703695093	
4.935	0.056	0.014603840434846516	
4.94	0.131	0.02533725853027479	
4.945	0.148	0.04722445605419417	
4.95	0.099	0.07252209533426435	
4.955	0.156	0.09605136655933766	
4.96	0.278	0.12146189185618186	
4.965	0.304	0.15768563214294545	
4.97	0.409	0.20673866821741893	
4.975	0.565	0.2705000871836669	
4.98	0.709	0.35499322735563915	
4.985	0.753	0.4575278663153242	
4.99	0.809	0.5633022219391393	
4.995	0.794	0.6572718824791124	
5.0	0.716	0.7254888634539094	
5.005	0.699	0.7609879132984956	
5.01	0.596	0.7624705089685466	
5.015	0.444	0.7296737689026616	
5.02	0.293	0.661672511391877	
5.025	0.130	0.5594752115370145	
5.03	-0.003	0.43099713959512176	
5.035	-0.069	0.29050507938991543	
5.04	-0.112	0.15731619100322042	
5.045	-0.130	0.042336918854783	
5.05	-0.165	-0.04748697050283667	
5.055	-0.133	-0.10900088293014662	
5.06	-0.103	-0.1434641293927857	
5.065	-0.101	-0.1552915139412339	
5.07	-0.087	-0.1503400353545457	
5.075	-0.013	-0.13247855904860067	
5.08	-0.014	-0.10595950198232074	
5.085	-0.006	-0.07554659589121869	
5.09	0.010	-0.04671065223062766	
5.095	0.006	-0.023632135268183665	
5.1	-0.057	-0.009530586062748732	
5.105	-0.064	-0.008067357785058436	
5.11	-0.037	-0.016440500530245396	
5.115	-0.084	-0.028278492369314442	
5.12	-0.113	-0.04339442402439756	
5.125	-0.132	-0.06248715142662773	
5.13	-0.156	-0.0859250587676554	
5.135	-0.188	-0.11056188733165062	
5.14	-0.226	-0.1367316416158661	
5.145	-0.219	-0.1636036992447625	
5.15	-0.252	-0.19051242286624867	
5.155	-0.232	-0.21207589430657003	
5.16	-0.217	-0.22542519444556822	
5.165	-0.237	-0.23326568796191446	
5.17	-0.243	-0.2374118834908325	
5.175	-0.236	-0.23847684808277506	
5.18	-0.272	-0.24190455486091766	
5.185	-0.303	-0.24859414816403935	
5.19	-0.324	-0.26074187431992174	
5.195	-0.214	-0.2725586243645203	
5.2	-0.077	-0.26750953438657	
5.205	0.082	-0.22807883909592608	
5.21	0.108	-0.15637611158519313	
5.215	-0.127	-0.08629883825591769	
5.22	-0.242	-0.05351788439944737	
5.225	-0.234	-0.06545980904135301	
5.23	-0.205	-0.10183793893735306	
5.235	-0.210	-0.14164387741546247	
5.24	-0.165	-0.16975933451885258	
5.245	-0.142	-0.1844713509108235	
5.25	-0.106	-0.18353941750217423	
5.255	-0.092	-0.16918867876802343	
5.26	-0.019	-0.14532466712473197	
5.265	-0.026	-0.11420801717783566	
5.27	-0.043	-0.083555596810951	
5.275	-0.014	-0.05746208990508071	
5.28	0.007	-0.0377754810810281	
5.285	0.003	-0.021684740386252253	
5.29	0.078	-0.004810363624654018	
5.295	0.171	0.01958662007587789	
5.3	0.211	0.05647302446690621	
5.305	0.209	0.10174478566012178	
5.31	0.241	0.14568354253376337	
5.315	0.318	0.18582966719575594	
5.32	0.415	0.2314213759894573	
5.325	0.470	0.2865476819153365	
5.33	0.527	0.3472580169292849	
5.335	0.518	0.4062808447976697	
5.34	0.596	0.461174092323591	
5.345	0.686	0.5136189634510887	
5.35	0.612	0.5624386501206292	
5.355	0.563	0.5977005135391029	
5.36	0.576	0.6117167864123593	
5.365	0.429	0.6038252820862287	
5.37	0.241	0.5653456736764069	
5.375	0.156	0.4925224810122443	
5.38	0.041	0.39328780830234017	
5.385	-0.089	0.2772805757711423	
5.39	-0.138	0.15814991345274085	
5.395	-0.174	0.0446329191064542	
5.4	-0.223	-0.05251379988847389	
5.405	-0.249	-0.13028136112863703	
5.41	-0.245	-0.18828664615641058	
5.415	-0.274	-0.230135258315134	
5.42	-0.294	-0.2586057720059569	
5.425	-0.258	-0.2744746098950865	
5.43	-0.246	-0.2817060210829728	
5.435	-0.251	-0.2796921685229242	
5.44	-0.217	-0.27085479549799096	
5.445	-0.159	-0.2553903751567197	
5.45	-0.211	-0.23651462358341846	
5.455	-0.211	-0.21929165927560157	
5.46	-0.190	-0.20731749499590935	
5.465	-0.205	-0.20114014004446834	
5.47	-0.211	-0.19859757032198885	
5.475	-0.185	-0.19649285386065093	
5.48	-0.207	-0.19671951438854832	
5.485	-0.252	-0.20068465613924955	
5.49	-0.257	-0.20886497220975864	
5.495	-0.237	-0.2204052576968395	
5.5	-0.280	-0.23350331570614513	
5.505	-0.287	-0.2462828516214298	
5.51	-0.269	-0.2583218429207207	
5.515	-0.281	-0.26813313776693015	
5.52	-0.297	-0.2765913723880973	
5.525	-0.249	-0.2794969339562203	
5.53	-0.245	-0.27871083467679053	
5.535	-0.335	-0.2766775925639783	
5.54	-0.324	-0.2808817337400611	
5.545	-0.207	-0.2854040794976519	
5.55	-0.042	-0.2724594573865594	
5.555	0.236	-0.21724420063329403	
5.56	0.397	-0.11130776692190132	
5.565	0.174	0.015860932142612312	
5.57	-0.136	0.10333715809471862	
5.575	-0.263	0.11140326763392333	
5.58	-0.260	0.052297672294255027	
5.585	-0.217	-0.03360770037306901	
5.59	-0.164	-0.107901317659162	
5.595	-0.109	-0.15442177016900172	
5.6	-0.113	-0.1734027784372238	
5.605	-0.107	-0.17029009449583277	
5.61	-0.084	-0.15541297583117653	
5.615	-0.034	-0.1350645139892555	
5.62	-0.003	-0.10752764786202278	
5.625	0.007	-0.07460470694651772	
5.63	0.030	-0.042722339959772315	
5.635	0.013	-0.016570454189483625	
5.64	0.024	0.004064987413324219	
5.645	0.094	0.02051928888058864	
5.65	0.072	0.037617715324571546	
5.655	0.116	0.05572386490073441	
5.66	0.188	0.07755134893500404	
5.665	0.142	0.10194035610270083	
5.67	0.206	0.12649293226007663	
5.675	0.334	0.15737257181166586	
5.68	0.435	0.2032971864705744	
5.685	0.438	0.2634816670242522	
5.69	0.545	0.33102964759177833	
5.695	0.649	0.40349157138546154	
5.7	0.563	0.47468099477247816	
5.705	0.533	0.5296914534321986	
5.71	0.469	0.5554418696296048	
5.715	0.398	0.5519888921864069	
5.72	0.270	0.518545401741612	
5.725	0.120	0.45623414891387815	
5.73	0.000	0.3642493289619556	
5.735	-0.097	0.25260055761284855	
5.74	-0.173	0.1349909856117545	
5.745	-0.193	0.023395009000871103	
5.75	-0.225	-0.07320157224415856	
5.755	-0.234	-0.1472232948739155	
5.76	-0.245	-0.19964235882800546	
5.765	-0.294	-0.23497419931598473	
5.77	-0.300	-0.26234325045763845	
5.775	-0.277	-0.2798135695108551	
5.78	-0.243	-0.28776554568357016	
5.785	-0.263	-0.28729850072153573	
5.79	-0.280	-0.2810449406737513	
5.795	-0.219	-0.2746898190040966	
5.8	-0.225	-0.26413177849875175	
5.805	-0.239	-0.2522121562515923	
5.81	-0.217	-0.24175693866009834	
5.815	-0.197	-0.2329455564504423	
5.82	-0.190	-0.22225507911554843	
5.825	-0.226	-0.21290190422044558	
5.83	-0.246	-0.2098310106351406	
5.835	-0.277	-0.21620474881662552	
5.84	-0.274	-0.22804587672820584	
5.845	-0.278	-0.24278555619872452	
5.85	-0.320	-0.25908436095366943	
5.855	-0.336	-0.2761517677356431	
5.86	-0.346	-0.29583629288437696	
5.865	-0.359	-0.31495638648972296	
5.87	-0.368	-0.3321714862817129	
5.875	-0.379	-0.3469357619054519	
5.88	-0.361	-0.3588790361773341	
5.885	-0.338	-0.365120553602796	
5.89	-0.338	-0.36402574192654213	
5.895	-0.326	-0.35786966370819084	
5.9	-0.281	-0.34805087962120507	
5.905	-0.148	-0.3260709498915389	
5.91	-0.042	-0.2838788701787556	
5.915	-0.002	-0.22197677034516072	
5.92	-0.112	-0.1571168475041595	
5.925	-0.237	-0.11798978145434398	
5.93	-0.323	-0.11897166618355932	
5.935	-0.320	-0.1530755105828165	
5.94	-0.272	-0.1979856448683948	
5.945	-0.229	-0.23392832138213476	
5.95	-0.216	-0.2530341221092316	
5.955	-0.176	-0.254010774695862	
5.96	-0.167	-0.240942050123799	
5.965	-0.179	-0.22202404233952727	
5.97	-0.127	-0.20203439295834547	
5.975	-0.118	-0.17995111399034722	
5.98	-0.104	-0.1580016739201135	
5.985	-0.097	-0.13704700047343216	
5.99	-0.089	-0.11896888845716681	
5.995	-0.081	-0.10498402620187265	
6.0	-0.071	-0.09404801870954586	
6.005	-0.057	-0.08298008456662181	
6.01	-0.046	-0.07396587291170727	
6.015	-0.022	-0.06304828716612373	
6.02	0.061	-0.0479923831131057	
6.025	0.078	-0.022936565536922526	
6.03	0.125	0.008959601334519627	
6.035	0.156	0.04496515462382325	
6.04	0.211	0.0850721965209104	
6.045	0.307	0.12899619120514905	
6.05	0.290	0.17893373722913639	
6.055	0.307	0.22504845556477568	
6.06	0.244	0.25901684498360555	
6.065	0.160	0.2719008827699625	
6.07	0.137	0.2610116390396636	
6.075	0.001	0.2270618747227975	
6.08	-0.057	0.17291248779100377	
6.085	-0.141	0.10196625589111992	
6.09	-0.207	0.024102081662265802	
6.095	-0.242	-0.05603200121808665	
6.1	-0.277	-0.1300796819549887	
6.105	-0.294	-0.19189585747819699	
6.11	-0.297	-0.24095868726346914	
6.115	-0.336	-0.27711862210841404	
6.12	-0.353	-0.30395353494355315	
6.125	-0.346	-0.3258940922907479	
6.13	-0.317	-0.3391087803849776	
6.135	-0.298	-0.34202437975790323	
6.14	-0.300	-0.33585019007075845	
6.145	-0.289	-0.32606686101573484	
6.15	-0.272	-0.3141170363088333	
6.155	-0.277	-0.30084772312831964	
6.16	-0.249	-0.2889732448432476	
6.165	-0.265	-0.27818679018513837	
6.17	-0.217	-0.26690707225139726	
6.175	-0.200	-0.25385363370118813	
6.18	-0.202	-0.23819157228048632	
6.185	-0.164	-0.22203252283670316	
6.19	-0.194	-0.20677465940281275	
6.195	-0.193	-0.19511548125095216	
6.2	-0.207	-0.1901768737708635	
6.205	-0.184	-0.18877263232305475	
6.21	-0.194	-0.18895752041152858	
6.215	-0.232	-0.1912687098963181	
6.22	-0.200	-0.19688224015140063	
6.225	-0.168	-0.1997913285473485	
6.23	-0.150	-0.19624030743436569	
6.235	-0.156	-0.18705586656772183	
6.24	-0.122	-0.17471360692311222	
6.245	-0.124	-0.16111952685265046	
6.25	-0.130	-0.14822016774850005	
6.255	-0.051	-0.13373985809306993	
6.26	0.099	-0.10792213719371826	
6.265	0.175	-0.06127970179644616	
6.27	0.240	0.0051307319639870876	
6.275	0.168	0.07521149866185306	
6.28	-0.026	0.12069752458600157	
6.285	-0.089	0.1218995152112017	
6.29	-0.077	0.08730542017214458	
6.295	0.006	0.04290008256194902	
6.3	0.096	0.014784041249505116	
6.305	0.218	0.017280622937341672	
6.31	0.328	0.055097058350468416	
6.315	0.314	0.1177029322526174	
6.32	0.351	0.18809663415219607	
6.325	0.360	0.2512202502079538	
6.33	0.435	0.3047515719529097	
6.335	0.493	0.3549306291738244	
6.34	0.507	0.4032907245056879	
6.345	0.472	0.4438781274726443	
6.35	0.397	0.46675768428588554	
6.355	0.453	0.4712390069141399	
6.36	0.510	0.47008228001271996	
6.365	0.530	0.4757277924740171	
6.37	0.545	0.4881018786682864	
6.375	0.539	0.503204452571698	
6.38	0.570	0.5187712912767144	
6.385	0.606	0.5369481684270289	
6.39	0.634	0.5582629607586889	
6.395	0.712	0.5838897049315597	
6.4	0.790	0.6208255297391531	
6.405	0.799	0.667241129182935	
6.41	0.773	0.7120191779591515	
6.415	0.724	0.7447220876597842	
6.42	0.725	0.7591307195587869	
6.425	0.637	0.7561703504801419	
6.43	0.525	0.730727827440858	
6.435	0.458	0.6829633824413159	
6.44	0.310	0.6142653146651899	
6.445	0.243	0.5278444510328508	
6.45	0.110	0.42981058312470566	
6.455	0.061	0.32626743260337077	
6.46	0.053	0.22803046338371752	
6.465	-0.011	0.14473480696318977	
6.47	-0.002	0.07916634625797248	
6.475	-0.008	0.031188121708982032	
6.48	-0.025	-0.0012638430710527329	
6.485	0.026	-0.01699784287716349	
6.49	0.018	-0.019711864380032723	
6.495	0.038	-0.013171919673296938	
6.5	0.050	-0.001176122588359532	
6.505	0.101	0.016294216509991702	
6.51	0.125	0.039001589025819725	
6.515	0.116	0.06470555176599901	
6.52	0.130	0.08818151468788656	
6.525	0.087	0.10417198646339097	
6.53	0.082	0.1106910803106669	
6.535	0.087	0.1090080622706895	
6.54	0.124	0.10630520682779951	
6.545	0.065	0.1028024939908028	
6.55	0.015	0.09480907056979729	
6.555	0.026	0.07930405708511687	
6.56	-0.008	0.05899385844526045	
6.565	-0.032	0.0376989631816582	
6.57	-0.077	0.01319196219872701	
6.575	-0.054	-0.011824504830299707	
6.58	-0.055	-0.03429759461713279	
6.585	-0.008	-0.04597123163482596	
6.59	0.023	-0.04569994545739664	
6.595	0.010	-0.0352027023078698	
6.6	-0.029	-0.023168617681065144	
6.605	-0.042	-0.015699777074571236	
6.61	-0.075	-0.0190371269366047	
6.615	-0.008	-0.02628782231214248	
6.62	0.188	-0.019763072472428905	
6.625	0.240	0.01418882493802435	
6.63	0.151	0.06568024274342799	
6.635	-0.003	0.10499013205055725	
6.64	-0.075	0.10726020048736587	
6.645	-0.103	0.07679077012316353	
6.65	-0.068	0.03185525286107063	
6.655	0.021	-0.005688068747232197	
6.66	0.041	-0.023022090332778068	
6.665	0.104	-0.018258515067510268	
6.67	0.172	0.008216388388590203	
6.675	0.128	0.04513870368726071	
6.68	0.127	0.08069548521137873	
6.685	0.172	0.10903755323555797	
6.69	0.154	0.13227044481062947	
6.695	0.200	0.14979110005381882	
6.7	0.200	0.1658543524774833	
6.705	0.250	0.18229763657301296	
6.71	0.266	0.20096830922684644	
6.715	0.279	0.22272696656564825	
6.72	0.385	0.2482026929724923	
6.725	0.380	0.28015814063945277	
6.73	0.402	0.31571092096189396	
6.735	0.464	0.3510163875696598	
6.74	0.427	0.38527218233709426	
6.745	0.446	0.4118137739892213	
6.75	0.452	0.4308269727852086	
6.755	0.515	0.4472796162956593	
6.76	0.631	0.4690172526012102	
6.765	0.620	0.504734454066033	
6.77	0.620	0.5441510259525274	
6.775	0.605	0.5761586976895733	
6.78	0.536	0.5947308306565767	
6.785	0.487	0.593980628502842	
6.79	0.368	0.5712447614175182	
6.795	0.236	0.5208277667810359	
6.8	0.099	0.44382034184527297	
6.805	0.039	0.34624898383829045	
6.81	-0.025	0.2410138611255906	
6.815	-0.095	0.13975257640586222	
6.82	-0.103	0.05015651394298998	
6.825	-0.113	-0.022826851556344625	
6.83	-0.130	-0.07523020342140371	
6.835	-0.113	-0.10999945235754441	
6.84	-0.087	-0.12674992558968265	
6.845	-0.071	-0.12913181757194744	
6.85	-0.035	-0.11814382589319976	
6.855	0.003	-0.09676703394672473	
6.86	0.024	-0.06899246951095972	
6.865	-0.014	-0.041231745837659636	
6.87	0.032	-0.017873676684895683	
6.875	0.024	0.000139603804243095	
6.88	0.009	0.012785259121410089	
6.885	-0.005	0.01798527023514384	
6.89	-0.009	0.017204915177361	
6.895	-0.011	0.011883976968048401	
6.9	-0.038	0.003870725356798137	
6.905	-0.042	-0.006814845606994948	
6.91	-0.028	-0.017990860175739466	
6.915	-0.057	-0.027178157502970826	
6.92	-0.064	-0.03589723853631295	
6.925	-0.080	-0.04589748325747459	
6.93	-0.090	-0.057163735503649685	
6.935	-0.103	-0.06899498977101597	
6.94	-0.110	-0.07984705897766492	
6.945	-0.089	-0.09009913956556448	
6.95	-0.089	-0.09607784195979885	
6.955	-0.086	-0.09684751278844647	
6.96	-0.090	-0.09601737603317603	
6.965	-0.090	-0.09413704222693092	
6.97	-0.009	-0.08889288346592525	
6.975	0.070	-0.0719177154990537	
6.98	0.198	-0.0351240211834393	
6.985	0.301	0.025035746832592742	
6.99	0.275	0.10012287149150535	
6.995	0.056	0.15987140169583663	
7.0	-0.057	0.17488638219278207	
7.005	-0.057	0.14511138956799585	
7.01	-0.011	0.09501631573360207	
7.015	0.023	0.04990409355861353	
7.02	0.134	0.02706738952701422	
7.025	0.169	0.03209002526435392	
7.03	0.175	0.05792801956348473	
7.035	0.174	0.09196386937226873	
7.04	0.157	0.12407229447923704	
7.045	0.226	0.1489928388575274	
7.05	0.238	0.1729362227684664	
7.055	0.235	0.19603279507719668	
7.06	0.285	0.21704323745633683	
7.065	0.275	0.2369483844544932	
7.07	0.295	0.2549779546343638	
7.075	0.278	0.2700562455410827	
7.08	0.250	0.27798881190982216	
7.085	0.269	0.2789347902689644	
7.09	0.295	0.2780370972941568	
7.095	0.383	0.283062364177257	
7.1	0.447	0.30295089833111377	
7.105	0.461	0.33698067244066937	
7.11	0.551	0.3800782316438665	
7.115	0.579	0.42998626978817983	
7.12	0.580	0.4809270457808793	
7.125	0.586	0.5240465508178412	
7.13	0.597	0.5570305355917085	
7.135	0.577	0.579917563942505	
7.14	0.467	0.5859980240775642	
7.145	0.368	0.5680476057024738	
7.15	0.229	0.5199233590748902	
7.155	0.104	0.4429543962224931	
7.16	0.021	0.3450746311119779	
7.165	-0.043	0.2379846182976536	
7.17	-0.086	0.1339384164598424	
7.175	-0.132	0.04207506275199255	
7.18	-0.147	-0.0329580193901243	
7.185	-0.156	-0.09107720492976686	
7.19	-0.182	-0.13296970891082177	
7.195	-0.142	-0.15891599170649573	
7.2	-0.144	-0.17106138954259362	
7.205	-0.113	-0.17002843665395362	
7.21	-0.116	-0.16090510342541342	
7.215	-0.109	-0.14802498452192803	
7.22	-0.072	-0.13308116991910196	
7.225	-0.049	-0.11491805223305934	
7.23	-0.020	-0.09295981797335157	
7.235	0.001	-0.07010799032213894	
7.24	-0.003	-0.04597557407202579	
7.245	-0.002	-0.026906166626323762	
7.25	0.001	-0.01209380494391999	
7.255	0.017	-0.0020478766657315434	
7.26	0.024	0.006126741461823888	
7.265	-0.040	0.00996681096912833	
7.27	-0.061	0.004872880678155164	
7.275	-0.089	-0.009904091664213808	
7.28	-0.040	-0.028933622203481377	
7.285	-0.023	-0.04113139640933807	
7.29	-0.031	-0.044969574284879354	
7.295	0.001	-0.0428734623530756	
7.3	-0.028	-0.03610825625732645	
7.305	0.010	-0.028057455202049227	
7.31	-0.002	-0.019850648936852677	
7.315	-0.049	-0.014041267191529644	
7.32	-0.063	-0.016137854694790628	
7.325	-0.043	-0.023882019400570918	
7.33	0.076	-0.026930134211372636	
7.335	0.333	-0.0031255015005905843	
7.34	0.449	0.064081275467604	
7.345	0.466	0.16413883145458322	
7.35	0.209	0.2558195409506665	
7.355	-0.008	0.2938803494290393	
7.36	-0.038	0.26614569853060294	
7.365	0.041	0.20096924450189435	
7.37	0.160	0.14088541567593663	
7.375	0.310	0.11716344233761791	
7.38	0.360	0.1360821921014786	
7.385	0.443	0.1878340428647176	
7.39	0.397	0.255044145743917	
7.395	0.383	0.315131625137531	
7.4	0.376	0.35783912425048814	
7.405	0.421	0.38493993976641877	
7.41	0.438	0.40319386717496597	
7.415	0.386	0.41593232164194155	
7.42	0.383	0.41882763156918856	
7.425	0.426	0.41616431459919523	
7.43	0.440	0.41507811648102766	
7.435	0.347	0.4137902145805693	
7.44	0.360	0.40603727688684865	
7.445	0.369	0.39417572630945097	
7.45	0.385	0.3828612305423525	
7.455	0.432	0.3799219573408035	
7.46	0.537	0.3912036515724492	
7.465	0.580	0.41998361241442567	
7.47	0.599	0.46283290325491977	
7.475	0.602	0.5081193715549157	
7.48	0.629	0.549081510232593	
7.485	0.611	0.5818235866063391	
7.49	0.518	0.6000085658073706	
7.495	0.455	0.5951298494106314	
7.5	0.398	0.5668726210773914	
7.505	0.281	0.518925576079744	
7.51	0.166	0.45214575675883917	
7.515	0.039	0.3659488883636538	
7.52	-0.035	0.26486370551621474	
7.525	-0.118	0.16013228884990088	
7.53	-0.158	0.05906025959662706	
7.535	-0.165	-0.02915368580491546	
7.54	-0.190	-0.09793258789156906	
7.545	-0.231	-0.149856291758132	
7.55	-0.225	-0.18814254453747029	
7.555	-0.213	-0.2130389462625369	
7.56	-0.164	-0.22380349563886273	
7.565	-0.202	-0.22206415112881692	
7.57	-0.190	-0.21515432566037723	
7.575	-0.165	-0.20583544264803344	
7.58	-0.156	-0.19494159450969972	
7.585	-0.188	-0.1842039191646489	
7.59	-0.185	-0.17793931102705068	
7.595	-0.190	-0.17684012864361853	
7.6	-0.203	-0.17916652211057227	
7.605	-0.187	-0.18305948687627238	
7.61	-0.179	-0.18579345382590445	
7.615	-0.205	-0.1880664507291829	
7.62	-0.240	-0.19216954868557418	
7.625	-0.225	-0.20083562719653295	
7.63	-0.243	-0.21093596211308566	
7.635	-0.274	-0.2232041415863665	
7.64	-0.297	-0.23694097938441316	
7.645	-0.327	-0.25584036365036344	
7.65	-0.338	-0.27716365299163315	
7.655	-0.298	-0.29705524641597647	
7.66	-0.275	-0.30678777056402984	
7.665	-0.286	-0.30805824748940025	
7.67	-0.280	-0.304169741456509	
7.675	-0.313	-0.2988385559374157	
7.68	-0.359	-0.299933871238988	
7.685	-0.313	-0.30721561317397245	
7.69	-0.148	-0.3059309244401488	
7.695	0.061	-0.2747746702688643	
7.7	0.162	-0.20213424130833052	
7.705	0.023	-0.11111096835706225	
7.71	-0.173	-0.042835861717059345	
7.715	-0.287	-0.03108055866146603	
7.72	-0.352	-0.06920335559830601	
7.725	-0.269	-0.13382918281943698	
7.73	-0.208	-0.19088545149764746	
7.735	-0.167	-0.22420433027752343	
7.74	-0.141	-0.2299464731595184	
7.745	-0.098	-0.21579430070532776	
7.75	-0.103	-0.18916488644110202	
7.755	-0.092	-0.15910030467696556	
7.76	-0.034	-0.12977266780414534	
7.765	-0.028	-0.10004162877919875	
7.77	-0.029	-0.07320396025092495	
7.775	-0.037	-0.05083916038963579	
7.78	-0.006	-0.03590789235693899	
7.785	0.024	-0.024225537253091046	
7.79	0.072	-0.00794468356665033	
7.795	0.146	0.016207804776109634	
7.8	0.169	0.04882650008953977	
7.805	0.264	0.09091048089475418	
7.81	0.368	0.144249918667732	
7.815	0.461	0.21095574871714382	
7.82	0.527	0.2887920615844576	
7.825	0.553	0.3691807403961602	
7.83	0.605	0.44408729360874716	
7.835	0.628	0.5087444288913523	
7.84	0.644	0.5620556394405047	
7.845	0.632	0.6032068038157898	
7.85	0.533	0.6237849125424149	
7.855	0.432	0.6168802720883799	
7.86	0.420	0.5842490493549097	
7.865	0.249	0.5299370347020085	
7.87	0.128	0.453757853170796	
7.875	0.000	0.3561754344198157	
7.88	-0.080	0.24411054129499604	
7.885	-0.165	0.1287547656160272	
7.89	-0.214	0.02005088494383637	
7.895	-0.231	-0.07476722567933926	
7.9	-0.254	-0.15116415613551942	
7.905	-0.245	-0.20609791838066321	
7.91	-0.229	-0.2397449512935689	
7.915	-0.229	-0.25503050825574103	
7.92	-0.217	-0.25821537544434325	
7.925	-0.237	-0.2528279492454427	
7.93	-0.188	-0.2438845930625301	
7.935	-0.164	-0.23123659435118885	
7.94	-0.164	-0.2129633547817978	
7.945	-0.122	-0.19277978135370072	
7.95	-0.121	-0.17217270598681295	
7.955	-0.136	-0.15311858916309312	
7.96	-0.133	-0.13975915968928676	
7.965	-0.170	-0.13404229179849375	
7.97	-0.145	-0.1352296461977827	
7.975	-0.155	-0.13881806644441747	
7.98	-0.165	-0.14387945360896004	
7.985	-0.159	-0.149261810714343	
7.99	-0.148	-0.15396017079145757	
7.995	-0.161	-0.1557526405370348	
8.0	-0.184	-0.15819177884315658	
8.005	-0.190	-0.1631404569145303	
8.01	-0.184	-0.16972236588538195	
8.015	-0.156	-0.1750233582099653	
8.02	-0.132	-0.17426014338179188	
8.025	-0.138	-0.16680567281360703	
8.03	-0.150	-0.1588496095423495	
8.035	-0.196	-0.15429962523789786	
8.04	-0.213	-0.1589832776395331	
8.045	-0.101	-0.16470982517644406	
8.05	0.171	-0.14916871622445577	
8.055	0.420	-0.08311281932640621	
8.06	0.525	0.03633944729413301	
8.065	0.214	0.16493190723567727	
8.07	-0.081	0.23759934051819695	
8.075	-0.139	0.22616618049297682	
8.08	-0.145	0.1552135354891807	
8.085	-0.129	0.06568458560110596	
8.09	-0.116	-0.014009272653148296	
8.095	-0.054	-0.06964251402993454	
8.1	-0.035	-0.09715844446546627	
8.105	-0.060	-0.10022534876757194	
8.11	-0.002	-0.09068813947089642	
8.115	0.036	-0.07095123021106794	
8.12	0.082	-0.0413237704790998	
8.125	0.094	-0.004839716717349446	
8.13	0.134	0.03222483053433858	
8.135	0.093	0.06569610687080352	
8.14	0.113	0.08995011605284325	
8.145	0.156	0.10731877902476337	
8.15	0.136	0.12185008600846745	
8.155	0.146	0.13277557057255793	
8.16	0.178	0.1422790225540885	
8.165	0.240	0.15405208880297525	
8.17	0.261	0.17370918139777303	
8.175	0.333	0.2031424055776248	
8.18	0.371	0.23920693469988097	
8.185	0.427	0.2817415353614695	
8.19	0.498	0.3309673012939447	
8.195	0.531	0.38428152511140684	
8.2	0.502	0.433853436116643	
8.205	0.463	0.47079363283845327	
8.21	0.415	0.48724002230060814	
8.215	0.371	0.48202016069003933	
8.22	0.266	0.45572114928067264	
8.225	0.169	0.4091232584907444	
8.23	0.036	0.3401639176383656	
8.235	-0.097	0.24974289492698928	
8.24	-0.171	0.1439742144992394	
8.245	-0.187	0.037265977644629265	
8.25	-0.213	-0.05811929521320192	
8.255	-0.181	-0.1301526149506267	
8.26	-0.168	-0.1757467618264862	
8.265	-0.171	-0.1979696491086887	
8.27	-0.207	-0.2052457462326286	
8.275	-0.225	-0.20787174300351816	
8.28	-0.223	-0.21184130947878616	
8.285	-0.184	-0.21422474279897366	
8.29	-0.173	-0.21100564703019128	
8.295	-0.141	-0.20076252974019212	
8.3	-0.138	-0.1871382250934705	
8.305	-0.133	-0.17114711449645925	
8.31	-0.150	-0.15677037146829464	
8.315	-0.110	-0.14600444672352797	
8.32	-0.124	-0.13723209769710565	
8.325	-0.116	-0.12884712791502057	
8.33	-0.126	-0.12286535099511915	
8.335	-0.167	-0.12325065378715114	
8.34	-0.193	-0.12998899095013847	
8.345	-0.187	-0.14276066195846648	
8.35	-0.229	-0.1601696565102777	
8.355	-0.217	-0.1791400025721927	
8.36	-0.208	-0.19473400777417815	
8.365	-0.216	-0.20601554812123635	
8.37	-0.265	-0.21625877867732662	
8.375	-0.265	-0.22682588870951384	
8.38	-0.240	-0.23784564639536174	
8.385	-0.245	-0.24626875203198598	
8.39	-0.297	-0.25098355969916375	
8.395	-0.292	-0.2597391675117573	
8.4	-0.307	-0.2711907063950134	
8.405	-0.216	-0.27814200866495475	
8.41	-0.075	-0.2676856400493133	
8.415	0.024	-0.22900871750251958	
8.42	0.033	-0.1682770652509175	
8.425	-0.090	-0.10581017772965319	
8.43	-0.229	-0.07388321033267742	
8.435	-0.298	-0.0843457948679602	
8.44	-0.248	-0.12194902565688627	
8.445	-0.155	-0.1626720726431311	
8.45	-0.174	-0.18623213973138825	
8.455	-0.130	-0.19316414266381898	
8.46	-0.061	-0.18263343362954376	
8.465	-0.061	-0.15903928924201272	
8.47	-0.064	-0.12934047468864812	
8.475	-0.025	-0.10075065839646907	
8.48	0.027	-0.0718110222278748	
8.485	0.072	-0.040365302748788856	
8.49	0.041	-0.006959096333715158	
8.495	0.050	0.020336961024957075	
8.5	0.058	0.0387296976778425	
8.505	0.065	0.05081637698012987	
8.51	0.145	0.06339264574016562	
8.515	0.169	0.08194984393343435	
8.52	0.140	0.1046403796608091	
8.525	0.189	0.12627529996803963	
8.53	0.226	0.14818793584572046	
8.535	0.211	0.16960563180960836	
8.54	0.290	0.1930604484996964	
8.545	0.440	0.22637031962886892	
8.55	0.484	0.2757351373540754	
8.555	0.513	0.33881994421281975	
8.56	0.479	0.3993757246175741	
8.565	0.402	0.4409113042755762	
8.57	0.357	0.4556355485857308	
8.575	0.299	0.44528088051227455	
8.58	0.188	0.41015435233287534	
8.585	0.027	0.34857952595566144	
8.59	-0.061	0.263068991189106	
8.595	-0.112	0.16335718236299124	
8.6	-0.182	0.06170594062058533	
8.605	-0.219	-0.031161303586318304	
8.61	-0.219	-0.10958096772060513	
8.615	-0.242	-0.17007251939556767	
8.62	-0.240	-0.21134638002898543	
8.625	-0.255	-0.23768534578205353	
8.63	-0.274	-0.25383471928173246	
8.635	-0.292	-0.2664147235077432	
8.64	-0.255	-0.2739014767968274	
8.645	-0.207	-0.2736316305626605	
8.65	-0.210	-0.26431337541644284	
8.655	-0.199	-0.24816486930675147	
8.66	-0.165	-0.22957877867203033	
8.665	-0.162	-0.21109750435559613	
8.67	-0.188	-0.19436517471542009	
8.675	-0.167	-0.18167971085005521	
8.68	-0.144	-0.17284028383045857	
8.685	-0.196	-0.16742642941083585	
8.69	-0.164	-0.16589846958946713	
8.695	-0.138	-0.1646387909048784	
8.7	-0.174	-0.16232426730070715	
8.705	-0.203	-0.163159933004418	
8.71	-0.219	-0.16958863193125867	
8.715	-0.214	-0.18210809051342486	
8.72	-0.234	-0.19434157406700853	
8.725	-0.210	-0.20567342917221576	
8.73	-0.190	-0.21286165112999117	
8.735	-0.168	-0.21240196173900192	
8.74	-0.150	-0.20286661813442203	
8.745	-0.176	-0.19067688821689294	
8.75	-0.202	-0.18334919162188257	
8.755	-0.205	-0.18111293446308868	
8.76	-0.181	-0.18257992862318118	
8.765	-0.145	-0.18315317834978345	
8.77	-0.055	-0.17431506786482195	
8.775	0.096	-0.14461191268010717	
8.78	0.050	-0.09488967502001244	
8.785	-0.003	-0.04445730636851814	
8.79	-0.135	-0.01486156779138991	
8.795	-0.170	-0.017678746820383336	
8.8	-0.181	-0.047383049927894515	
8.805	-0.174	-0.08509857494504515	
8.81	-0.110	-0.11653744477294604	
8.815	-0.064	-0.13316561195143373	
8.82	-0.049	-0.1293365308608538	
8.825	-0.017	-0.11159394180170457	
8.83	-0.022	-0.08790459895443117	
8.835	-0.019	-0.06347733598324473	
8.84	0.041	-0.03979601306809067	
8.845	0.046	-0.01664038780500369	
8.85	0.015	0.004560518053180509	
8.855	0.053	0.020902661054582796	
8.86	0.114	0.03550541109227902	
8.865	0.104	0.05378615113130248	
8.87	0.009	0.0676214157971409	
8.875	-0.049	0.06642996411401045	
8.88	-0.098	0.04407425696922073	
8.885	-0.133	0.0074951663453531065	
8.89	-0.100	-0.03275837480871248	
8.895	-0.035	-0.06362995862202553	
8.9	0.001	-0.07544946901485858	
8.905	0.049	-0.06605183120315405	
8.91	0.174	-0.036483689520838095	
8.915	0.204	0.011750027968220608	
8.92	0.236	0.07166100611948281	
8.925	0.267	0.13146947895828354	
8.93	0.212	0.18202202480279872	
8.935	0.128	0.21048328312508086	
8.94	0.124	0.21426777338759917	
8.945	0.061	0.19631108136241154	
8.95	-0.029	0.1605093890025282	
8.955	-0.078	0.10997990914160723	
8.96	-0.092	0.052487570168140416	
8.965	-0.133	-0.004287056623399092	
8.97	-0.110	-0.05328889186725402	
8.975	-0.097	-0.08751107157213174	
8.98	-0.129	-0.10899952130566375	
8.985	-0.129	-0.12147240365843673	
8.99	-0.107	-0.12769611866918953	
8.995	-0.087	-0.12671152229970564	
9.0	-0.089	-0.12147235710809198	
9.005	-0.042	-0.10898381062956783	
9.01	-0.020	-0.09153190912272491	
9.015	-0.025	-0.07230304865335528	
9.02	-0.026	-0.053279833229604785	
9.025	0.065	-0.03452595427913341	
9.03	0.104	-0.009006955429575282	
9.035	0.136	0.022547435354365722	
9.04	0.113	0.058292590129121066	
9.045	0.108	0.08625743836460364	
9.05	0.072	0.10152743849398559	
9.055	0.114	0.10802038472610263	
9.06	0.088	0.10945475701407768	
9.065	0.027	0.10369024367379763	
9.07	-0.013	0.08771773191532695	
9.075	-0.011	0.0644697782324126	
9.08	0.007	0.03899314482428195	
9.085	-0.037	0.01754052326834777	
9.09	-0.037	-0.0007052220878825834	
9.095	-0.014	-0.014716722122843138	
9.1	-0.031	-0.024461757714956213	
9.105	-0.008	-0.027990134529254203	
9.11	0.012	-0.025534829414530984	
9.115	-0.017	-0.021291270809542573	
9.12	-0.022	-0.01628823487346682	
9.125	0.032	-0.011531750134007732	
9.13	0.056	-0.003994353526455636	
9.135	0.165	0.015542314035652222	
9.14	0.270	0.05230518790350295	
9.145	0.281	0.10630062533701884	
9.15	0.145	0.15750984311431054	
9.155	0.001	0.18095433579714343	
9.16	-0.048	0.16344916438889803	
9.165	-0.026	0.11872362630570485	
9.17	0.046	0.07272285534784048	
9.175	0.131	0.04648146144557756	
9.18	0.157	0.045019724684448065	
9.185	0.143	0.06353592773758096	
9.19	0.162	0.0892797384470385	
9.195	0.143	0.11328607671262579	
9.2	0.130	0.1305309909586101	
9.205	0.215	0.14399779602982124	
9.21	0.284	0.16347833812029539	
9.215	0.243	0.18872148005296474	
9.22	0.272	0.21469466036763873	
9.225	0.295	0.23845674061047117	
9.23	0.321	0.26002286248338924	
9.235	0.302	0.279531186786554	
9.24	0.350	0.2972578115526987	
9.245	0.406	0.3153077921398375	
9.25	0.408	0.3385660950201542	
9.255	0.461	0.364967036880394	
9.26	0.457	0.3934494348743285	
9.265	0.466	0.41875560704932624	
9.27	0.522	0.442700634983117	
9.275	0.579	0.469426523249472	
9.28	0.634	0.502048488548681	
9.285	0.600	0.538556760049338	
9.29	0.586	0.5692122489903533	
9.295	0.522	0.5852848453320179	
9.3	0.414	0.5785846527531102	
9.305	0.330	0.546931764275037	
9.31	0.259	0.4914140029314944	
9.315	0.154	0.4197916645457691	
9.32	0.029	0.3347023877470819	
9.325	-0.035	0.23936799350683094	
9.33	-0.025	0.14506503333750265	
9.335	-0.055	0.06462488095567513	
9.34	-0.052	0.006201657601209089	
9.345	-0.084	-0.035730654892994144	
9.35	-0.127	-0.06634914013446772	
9.355	-0.129	-0.0900386764145424	
9.36	-0.095	-0.10662326307874648	
9.365	-0.066	-0.11418153928826903	
9.37	-0.048	-0.10923884086553551	
9.375	-0.051	-0.0956572135191916	
9.38	-0.051	-0.08097664338288009	
9.385	-0.049	-0.06835994903527434	
9.39	-0.023	-0.05679961427253718	
9.395	0.006	-0.04476561791510253	
9.4	-0.034	-0.03334617394634479	
9.405	-0.014	-0.02502193992003375	
9.41	0.009	-0.01764606137590357	
9.415	0.015	-0.011197565575258644	
9.42	0.007	-0.0032268371310775227	
9.425	-0.026	0.0013341516785550201	
9.43	-0.080	-0.001995474462811689	
9.435	-0.103	-0.01735441359281663	
9.44	-0.112	-0.03879645857481836	
9.445	-0.129	-0.06377452341208784	
9.45	-0.153	-0.0893435551918602	
9.455	-0.147	-0.11101040310516841	
9.46	-0.089	-0.12563697300146995	
9.465	-0.090	-0.13019706352669574	
9.47	-0.103	-0.12522847273119664	
9.475	-0.087	-0.1166541924742313	
9.48	-0.092	-0.10798604505405172	
9.485	-0.122	-0.10236073839772158	
9.49	-0.113	-0.10079623997563329	
9.495	-0.014	-0.09876621780227929	
9.5	0.052	-0.08433321958306801	
9.505	0.146	-0.04999148159473216	
9.51	0.122	-0.001644136784931663	
9.515	-0.071	0.03575445131292343	
9.52	-0.122	0.041739732811792774	
9.525	-0.109	0.017355352338378125	
9.53	-0.080	-0.01697247151983046	
9.535	-0.046	-0.04635796042045009	
9.54	0.079	-0.054781436697017974	
9.545	0.169	-0.03673446077239283	
9.55	0.191	0.00666412482044065	
9.555	0.197	0.061958426294947744	
9.56	0.266	0.11735327682037519	
9.565	0.233	0.16581708007770632	
9.57	0.269	0.20574985481136007	
9.575	0.253	0.2353158708842235	
9.58	0.252	0.2530376246120507	
9.585	0.288	0.26365256398396875	
9.59	0.339	0.2741737136235544	
9.595	0.343	0.2892477739549002	
9.6	0.311	0.30468103965252835	
9.605	0.334	0.31593786301501026	
9.61	0.490	0.33135279111655996	
9.615	0.722	0.37188731394521585	
9.62	0.889	0.4527883067197591	
9.625	1.034	0.5732998056026302	
9.63	1.112	0.7130572759352588	
9.635	1.124	0.8526664179191341	
9.64	1.109	0.9711148299561349	
9.645	1.046	1.0522032002407018	
9.65	1.152	1.0977005208769566	
9.655	1.260	1.1309585199321701	
9.66	1.278	1.1673423837037247	
9.665	1.167	1.1988318237028537	
9.67	1.011	1.206713186289211	
9.675	0.900	1.177285069841982	
9.68	0.731	1.1080599945350889	
9.685	0.544	1.0036192792305614	
9.69	0.405	0.8701245832754907	
9.695	0.325	0.7212863225682662	
9.7	0.227	0.573702172573659	
9.705	0.110	0.4369108344658508	
9.71	0.056	0.31237579323332243	
9.715	0.029	0.20388040456917378	
9.72	-0.014	0.11772659452459476	
9.725	0.006	0.05533091379359281	
9.73	0.007	0.013103155813714048	
9.735	-0.009	-0.009375385432209622	
9.74	-0.006	-0.018845563904751207	
9.745	0.000	-0.020702441678185225	
9.75	-0.048	-0.021345734056715113	
9.755	-0.035	-0.02308810047709031	
9.76	-0.031	-0.026592526049460247	
9.765	-0.077	-0.032170634587850515	
9.77	-0.097	-0.04131439860169271	
9.775	-0.089	-0.05463371595743052	
9.78	-0.095	-0.06791215193407849	
9.785	-0.133	-0.08142608533844878	
9.79	-0.132	-0.09582223010402893	
9.795	-0.153	-0.10968112965812163	
9.8	-0.211	-0.12738236972989475	
9.805	-0.220	-0.14909157085870234	
9.81	-0.197	-0.1705594087764174	
9.815	-0.216	-0.18917338044304022	
9.82	-0.210	-0.20132735041871608	
9.825	-0.181	-0.20761404313424656	
9.83	-0.185	-0.2078997167644242	
9.835	-0.177	-0.2034429536221146	
9.84	-0.205	-0.19682363919138135	
9.845	-0.216	-0.19466826067181076	
9.85	-0.232	-0.19839539138571421	
9.855	-0.225	-0.20509546548983196	
9.86	-0.148	-0.20853506425805302	
9.865	-0.075	-0.20017514795833968	
9.87	0.013	-0.171330815791953	
9.875	0.009	-0.1275862892604936	
9.88	-0.156	-0.08792619562573768	
9.885	-0.257	-0.07951682898631252	
9.89	-0.287	-0.10281459774739599	
9.895	-0.210	-0.14461480398459817	
9.9	-0.165	-0.1784126764339064	
9.905	-0.121	-0.1931033648656678	
9.91	-0.054	-0.18448211627991112	
9.915	-0.061	-0.16118962164064168	
9.92	-0.063	-0.1303993468115197	
9.925	-0.034	-0.10056312550058533	
9.93	-0.035	-0.07587183529764309	
9.935	-0.025	-0.05653218899086193	
9.94	0.007	-0.03880536666667568	
9.945	0.078	-0.019575205034403177	
9.95	0.056	0.00254520265013741	
9.955	0.094	0.026851274401100415	
9.96	0.156	0.052555990912854816	
9.965	0.191	0.08181281154326774	
9.97	0.226	0.11655947783211987	
9.975	0.311	0.15747231644649579	
9.98	0.313	0.201161223390884	
9.985	0.343	0.24441852587350774	
9.99	0.444	0.2881938205771737	
9.995	0.533	0.33747991609462097	
10.0	0.547	0.39352070283555346	
10.005	0.609	0.4528131947128041	
10.01	0.672	0.5105971480831328	
10.015	0.608	0.5628141097068029	
10.02	0.573	0.5974877759779853	
10.025	0.541	0.6114640268638594	
10.03	0.472	0.603198982795007	
10.035	0.322	0.570379158535905	
10.04	0.183	0.5091335468433766	
10.045	0.082	0.4214973057633245	
10.05	-0.048	0.31353533688397717	
10.055	-0.064	0.198772630335443	
10.06	-0.081	0.09461657392205856	
10.065	-0.141	0.008888943061657292	
10.07	-0.219	-0.06252466461006675	
10.075	-0.200	-0.12056201866437494	
10.08	-0.181	-0.1647166730121006	
10.085	-0.211	-0.19257716581397782	
10.09	-0.193	-0.20591793408451112	
10.095	-0.135	-0.20845940501866062	
10.1	-0.127	-0.19938645983798908	
10.105	-0.103	-0.18029075637122838	
10.11	-0.058	-0.1544324026874995	
10.115	-0.058	-0.12804814572892903	
10.12	-0.042	-0.10053780186284891	
10.125	-0.049	-0.0766322077704378	
10.13	-0.083	-0.061696543192176594	
10.135	-0.080	-0.05656922093713825	
10.14	-0.093	-0.058971711315481325	
10.145	-0.089	-0.06545057300843085	
10.15	-0.130	-0.07536525433258687	
10.155	-0.159	-0.09033879157993277	
10.16	-0.193	-0.10943608323388819	
10.165	-0.225	-0.135007532681445	
10.17	-0.269	-0.1645706987185714	
10.175	-0.274	-0.19565065934070594	
10.18	-0.291	-0.22663387242643868	
10.185	-0.320	-0.2545700186436547	
10.19	-0.310	-0.2780180850767875	
10.195	-0.277	-0.2944029298386168	
10.2	-0.287	-0.3013287613393353	
10.205	-0.350	-0.3053949729035439	
10.21	-0.330	-0.31043459368715554	
10.215	-0.335	-0.31895129991654403	
10.22	-0.318	-0.32459499247737933	
10.225	-0.194	-0.3206727703043465	
10.23	0.030	-0.29156622471442706	
10.235	0.047	-0.22753519092328994	
10.24	-0.066	-0.1510750603365957	
10.245	-0.225	-0.0994613157263203	
10.25	-0.336	-0.0963439996865338	
10.255	-0.355	-0.13439093394448243	
10.26	-0.269	-0.18743218612819487	
10.265	-0.243	-0.23294698056211596	
10.27	-0.226	-0.2575701376904781	
10.275	-0.207	-0.2626644985237693	
10.28	-0.188	-0.2556188074220187	
10.285	-0.196	-0.24156843954116966	
10.29	-0.139	-0.22201866610267218	
10.295	-0.118	-0.19840781398589055	
10.3	-0.138	-0.17535317934224262	
10.305	-0.118	-0.15438164635155482	
10.31	-0.113	-0.13740892722337372	
10.315	-0.138	-0.12699360181272243	
10.32	-0.152	-0.12361475454710386	
10.325	-0.071	-0.12162606931718262	
10.33	0.012	-0.11159861668271812	
10.335	-0.031	-0.09060801430219988	
10.34	-0.016	-0.06501784722353514	
10.345	0.058	-0.04138175535644016	
10.35	0.068	-0.014367498076380889	
10.355	0.105	0.014618379509043588	
10.36	0.166	0.048612908903788846	
10.365	0.256	0.08700360000766122	
10.37	0.307	0.1353983389973803	
10.375	0.374	0.19239173624074207	
10.38	0.382	0.2503593912094728	
10.385	0.299	0.2983633357490211	
10.39	0.270	0.32600952716539505	
10.395	0.209	0.32759297703567214	
10.4	-0.020	0.2975691148873477	
10.405	-0.071	0.23262237874910047	
10.41	-0.089	0.14763063941218843	
10.415	-0.176	0.05798091029225379	
10.42	-0.231	-0.028606888032137543	
10.425	-0.237	-0.10459434932349086	
10.43	-0.236	-0.1666251226184765	
10.435	-0.284	-0.21360747697275015	
10.44	-0.300	-0.24697963684899188	
10.445	-0.297	-0.27139661600696424	
10.45	-0.310	-0.2903818280228798	
10.455	-0.318	-0.30235647116293385	
10.46	-0.263	-0.30738999581424464	
10.465	-0.251	-0.3050083658166354	
10.47	-0.257	-0.2945907798306817	
10.475	-0.237	-0.2806206597704935	
10.48	-0.202	-0.26464440158885805	
10.485	-0.231	-0.24959795670443619	
10.49	-0.184	-0.23398531479606585	
10.495	-0.173	-0.21841256272732604	
10.5	-0.211	-0.2063805918559262	
10.505	-0.181	-0.19735901973688638	
10.51	-0.171	-0.18940096139012208	
10.515	-0.200	-0.18501087704149527	
10.52	-0.257	-0.1876040748221901	
10.525	-0.237	-0.1966325192231767	
10.53	-0.243	-0.21062545014158726	
10.535	-0.287	-0.22559787004443724	
10.54	-0.262	-0.24101058593894972	
10.545	-0.236	-0.2513901250158239	
10.55	-0.258	-0.2573503020334945	
10.555	-0.286	-0.26039216718740066	
10.56	-0.242	-0.2624129708327349	
10.565	-0.243	-0.2619610158047657	
10.57	-0.262	-0.25960364884535403	
10.575	-0.271	-0.2576743658386291	
10.58	-0.294	-0.2596026247131088	
10.585	-0.277	-0.26657268717160865	
10.59	-0.090	-0.2630409079620736	
10.595	0.227	-0.22234966745062634	
10.6	0.321	-0.13126236736260213	
10.605	0.240	-0.010435900848177108	
10.61	-0.066	0.08548472174801358	
10.615	-0.199	0.11202477853867007	
10.62	-0.236	0.07138796802233899	
10.625	-0.196	-0.0006980262979537234	
10.63	-0.159	-0.07255901176815255	
10.635	-0.179	-0.12754659868836654	
10.64	-0.124	-0.15907929870240478	
10.645	-0.046	-0.16736111132476778	
10.65	-0.054	-0.1542759859971218	
10.655	-0.045	-0.12745732577682034	
10.66	0.026	-0.0954343673354849	
10.665	0.033	-0.06088123534884361	
10.67	0.029	-0.0276440093525387	
10.675	0.053	0.0012669382728850832	
10.68	0.096	0.026478121810735708	
10.685	0.093	0.047434663280007124	
10.69	0.096	0.06786139919323708	
10.695	0.171	0.08665314039026283	
10.7	0.148	0.1057400280683735	
10.705	0.178	0.1255018763483074	
10.71	0.259	0.14857112499320144	
10.715	0.296	0.1771614189652485	
10.72	0.301	0.21133544774752966	
10.725	0.392	0.25025027541517264	
10.73	0.490	0.295524092523629	
10.735	0.486	0.3474398533936548	
10.74	0.507	0.4008200493275928	
10.745	0.525	0.4466605980413611	
10.75	0.460	0.47875335542676467	
10.755	0.406	0.49246116693689573	
10.76	0.418	0.4865476698889307	
10.765	0.290	0.46417763002918455	
10.77	0.137	0.4193144870946432	
10.775	0.036	0.34819949963474894	
10.78	-0.058	0.2565246679424501	
10.785	-0.138	0.15246721791644322	
10.79	-0.203	0.049804345248406046	
10.795	-0.182	-0.043337184717057296	
10.8	-0.203	-0.11818109988791442	
10.805	-0.228	-0.17051254830808113	
10.81	-0.225	-0.20447803526120023	
10.815	-0.245	-0.22679325847814275	
10.82	-0.266	-0.24163567393270707	
10.825	-0.239	-0.24980649538091937	
10.83	-0.205	-0.2524765517734252	
10.835	-0.208	-0.24750394221349556	
10.84	-0.220	-0.2372016477697115	
10.845	-0.153	-0.22437032566415438	
10.85	-0.136	-0.2091859606156951	
10.855	-0.141	-0.18850423561897073	
10.86	-0.081	-0.16549497005584796	
10.865	-0.086	-0.14281329048222702	
10.87	-0.038	-0.11862137652908325	
10.875	0.049	-0.08978944577202103	
10.88	0.047	-0.05349795344866429	
10.885	-0.013	-0.021525691477981508	
10.89	0.000	0.0008043627354634982	
10.895	0.038	0.012629196032898016	
10.9	-0.028	0.017799170822028747	
10.905	-0.057	0.013484140023147394	
10.91	0.006	0.00350301119215334	
10.915	0.029	-0.0037918589167044527	
10.92	0.001	-0.003609870636211127	
10.925	0.020	0.0001731383522504315	
10.93	0.050	0.006495397454244124	
10.935	0.029	0.013530221600800557	
10.94	-0.011	0.01979967737772749	
10.945	-0.017	0.019573902485943883	
10.95	-0.063	0.00983007424974691	
10.955	-0.049	-0.0054702883582267185	
10.96	0.065	-0.015538202008086114	
10.965	0.255	-0.002787081672050123	
10.97	0.198	0.03946744358707327	
10.975	0.056	0.0861357574966925	
10.98	-0.101	0.10338454730830132	
10.985	-0.181	0.07654937252946468	
10.99	-0.150	0.021862140943308524	
10.995	-0.164	-0.03847142973206183	
11.0	-0.193	-0.09318562430316944	
11.005	-0.228	-0.13839365000633533	
11.01	-0.226	-0.17455349817300825	
11.015	-0.252	-0.2038793618388643	
11.02	-0.278	-0.22751240969244096	
11.025	-0.275	-0.24678994396289408	
11.03	-0.265	-0.2606151096675502	
11.035	-0.309	-0.2724463214761615	
11.04	-0.262	-0.2790979070892595	
11.045	-0.193	-0.27848228692875604	
11.05	-0.159	-0.2642069635912586	
11.055	-0.141	-0.2393654191791413	
11.06	-0.103	-0.20655512718010094	
11.065	-0.087	-0.17291437347285624	
11.07	-0.071	-0.1414995536012701	
11.075	-0.037	-0.1107752095938017	
11.08	-0.009	-0.08264477351874297	
11.085	0.053	-0.05444841185510169	
11.09	0.105	-0.021067483712943258	
11.095	0.157	0.019505050043296456	
11.1	0.075	0.05775253787629644	
11.105	-0.017	0.0796210282413059	
11.11	-0.006	0.07744269148983648	
11.115	-0.075	0.05707469289359136	
11.12	-0.121	0.02349637127036676	
11.125	-0.152	-0.0187762657939529	
11.13	-0.188	-0.06364472465402979	
11.135	-0.265	-0.11144085060966988	
11.14	-0.342	-0.16308640261544896	
11.145	-0.373	-0.21852022420238473	
11.15	-0.419	-0.27621109491551754	
11.155	-0.472	-0.331339901043882	
11.16	-0.471	-0.38057501895051504	
11.165	-0.530	-0.4249155152324123	
11.17	-0.611	-0.4674682293647932	
11.175	-0.608	-0.5108002853873526	
11.18	-0.599	-0.5496563175435123	
11.185	-0.602	-0.5793891681470458	
11.19	-0.564	-0.5950799241412169	
11.195	-0.514	-0.5965479596384375	
11.2	-0.480	-0.5831744013668916	
11.205	-0.442	-0.5573175224361919	
11.21	-0.384	-0.5216218991673298	
11.215	-0.336	-0.47990979481609974	
11.22	-0.287	-0.4334189221083255	
11.225	-0.262	-0.38382844311269115	
11.23	-0.223	-0.33569439474304535	
11.235	-0.226	-0.29436531675401456	
11.24	-0.205	-0.2600913662779365	
11.245	-0.145	-0.23059156983049828	
11.25	-0.127	-0.2031597050332867	
11.255	-0.129	-0.17630658001311472	
11.26	-0.119	-0.15366145679224646	
11.265	-0.152	-0.13791491955329138	
11.27	-0.159	-0.13240079258580037	
11.275	-0.104	-0.13085007293714912	
11.28	-0.054	-0.12568872248775415	
11.285	-0.019	-0.11131924336677515	
11.29	-0.032	-0.08810088017959819	
11.295	0.003	-0.06462273651941382	
11.3	0.023	-0.04213442635579377	
11.305	0.076	-0.01728790012720484	
11.31	0.084	0.011318013246531146	
11.315	0.064	0.03608754472683667	
11.32	0.104	0.056616529608202	
11.325	0.256	0.08115207309871086	
11.33	0.421	0.12532233354796124	
11.335	0.372	0.19169045426040068	
11.34	0.266	0.25587140676838704	
11.345	0.165	0.2893330421139782	
11.35	0.088	0.28385363197804714	
11.355	0.068	0.2467176012849763	
11.36	0.168	0.20230646585752354	
11.365	0.252	0.1731111231545453	
11.37	0.314	0.17167837319755214	
11.375	0.362	0.1971328657226821	
11.38	0.411	0.24025602802406848	
11.385	0.501	0.29372515116746134	
11.39	0.490	0.3549328054902401	
11.395	0.467	0.40930715823726416	
11.4	0.460	0.44684160450607663	
11.405	0.415	0.4657636599789067	
11.41	0.504	0.47229131539023766	
11.415	0.498	0.47704688404298606	
11.42	0.539	0.4846857791082763	
11.425	0.547	0.4981626873366402	
11.43	0.557	0.5132140375226817	
11.435	0.551	0.5276977486501022	
11.44	0.580	0.5409761447364243	
11.445	0.644	0.5573222752621426	
11.45	0.626	0.5758250329648322	
11.455	0.635	0.5967900818295572	
11.46	0.748	0.6193102691366368	
11.465	0.771	0.6490231071502947	
11.47	0.779	0.6856894378984935	
11.475	0.779	0.7211749118379414	
11.48	0.761	0.7481808747395492	
11.485	0.686	0.7606883271858262	
11.49	0.657	0.7559947703856448	
11.495	0.678	0.7372882388796305	
11.5	0.565	0.7108082041635632	
11.505	0.496	0.6728280831089146	
11.51	0.371	0.6192725240351915	
11.515	0.276	0.5479618180808434	
11.52	0.220	0.4647401330647808	
11.525	0.168	0.379203872017024	
11.53	0.133	0.2991307261739055	
11.535	0.035	0.2247262959025953	
11.54	-0.013	0.15705804393984135	
11.545	-0.006	0.09423844164135803	
11.55	-0.026	0.04380306258221261	
11.555	-0.020	0.0069200606043696745	
11.56	0.061	-0.012728844968513155	
11.565	0.085	-0.01107129866000717	
11.57	0.125	0.007814115792469134	
11.575	0.183	0.04021278698132829	
11.58	0.114	0.07604382156536048	
11.585	0.139	0.10475313840890278	
11.59	0.145	0.1251046899229594	
11.595	0.201	0.14116387755120274	
11.6	0.128	0.1537892606714824	
11.605	0.163	0.1599702088156289	
11.61	0.148	0.16221153287787976	
11.615	0.163	0.16088843668312153	
11.62	0.160	0.16087195807596505	
11.625	0.056	0.1561867804639872	
11.63	-0.006	0.1369782103951569	
11.635	-0.040	0.10180279377876117	
11.64	-0.009	0.06214252018493089	
11.645	-0.032	0.027113673291055795	
11.65	-0.045	-0.0012030885298592257	
11.655	-0.009	-0.020972419681570598	
11.66	0.000	-0.02879806158057602	
11.665	0.000	-0.029138521667274597	
11.67	0.023	-0.022106929565893434	
11.675	0.017	-0.011789865180935812	
11.68	0.007	-0.002022527221208231	
11.685	-0.042	0.0027952757833795833	
11.69	-0.035	0.0001361971863931596	
11.695	0.090	-0.002883004859176877	
11.7	0.151	0.009813975147645105	
11.705	0.151	0.04003563096024856	
11.71	0.097	0.07217027730077599	
11.715	-0.078	0.08682141740453941	
11.72	-0.118	0.06989329555776685	
11.725	-0.066	0.03221102643886624	
11.73	-0.046	-0.007029935138694072	
11.735	-0.013	-0.03316581245271248	
11.74	0.087	-0.037832329226726906	
11.745	0.174	-0.018907669098989416	
11.75	0.157	0.021810702073096974	
11.755	0.194	0.06904539787482945	
11.76	0.149	0.11214329765185038	
11.765	0.133	0.1408404345356039	
11.77	0.183	0.15694411904774513	
11.775	0.214	0.16918371525760134	
11.78	0.223	0.1819403989238924	
11.785	0.191	0.19386108511132077	
11.79	0.230	0.2031387214870005	
11.795	0.293	0.21304395065092743	
11.8	0.302	0.22985200008915763	
11.805	0.347	0.25406726454410083	
11.81	0.353	0.2811005710340229	
11.815	0.353	0.30686608241491575	
11.82	0.417	0.33098948800751915	
11.825	0.450	0.3581388963975429	
11.83	0.486	0.38792527358342255	
11.835	0.533	0.4209197970586985	
11.84	0.576	0.4581290622903537	
11.845	0.559	0.49499613693999345	
11.85	0.507	0.5228658164207367	
11.855	0.469	0.5350621459305558	
11.86	0.412	0.5280597117102215	
11.865	0.382	0.5038775180026387	
11.87	0.267	0.4660001115571972	
11.875	0.107	0.4080918557587285	
11.88	0.041	0.32890377162778694	
11.885	-0.019	0.23694806716523087	
11.89	-0.089	0.14413266962567498	
11.895	-0.130	0.05697808578409362	
11.9	-0.141	-0.019107241768890514	
11.905	-0.116	-0.0778827485536692	
11.91	-0.118	-0.11392749472240173	
11.915	-0.122	-0.13313581663773993	
11.92	-0.115	-0.13997459443193488	
11.925	-0.110	-0.13886585584411937	
11.93	-0.115	-0.13309843783229325	
11.935	-0.095	-0.12607514605847037	
11.94	-0.068	-0.11685460404274478	
11.945	-0.045	-0.10300303821971266	
11.95	-0.028	-0.08613695482574406	
11.955	-0.045	-0.06791618493266996	
11.96	-0.052	-0.05491852531619586	
11.965	-0.054	-0.04714216469493265	
11.97	0.003	-0.04200306719686436	
11.975	-0.013	-0.034850477818729075	
11.98	-0.006	-0.02608029302237811	
11.985	-0.035	-0.02010853326170782	
11.99	-0.048	-0.018864942183874647	
11.995	-0.060	-0.02397707255226508	
12.0	-0.081	-0.03315683627425678	
12.005	-0.092	-0.0459370267506748	
12.01	-0.081	-0.05987993542728171	
12.015	-0.116	-0.0731326460607502	
12.02	-0.141	-0.08704346810264654	
12.025	-0.129	-0.10184318943939562	
12.03	-0.130	-0.1150472238069342	
12.035	-0.138	-0.12412241836782954	
12.04	-0.112	-0.12987354331211315	
12.045	-0.098	-0.12994690052048047	
12.05	-0.103	-0.12514900023617803	
12.055	-0.127	-0.11895959393546479	
12.06	-0.107	-0.11588263685031434	
12.065	0.009	-0.10811037614027316	
12.07	0.209	-0.07901680951530385	
12.075	0.227	-0.019825308542520678	
12.08	0.097	0.04793214545584201	
12.085	-0.068	0.08881902457708908	
12.09	-0.127	0.08509753297486161	
12.095	-0.081	0.04907314960824436	
12.1	0.108	0.013861756254502887	
12.105	0.304	0.014061732621240648	
12.11	0.415	0.06418508833902614	
12.115	0.447	0.14989062591676147	
12.12	0.530	0.2488889733027944	
12.125	0.702	0.35417485469111687	
12.13	0.776	0.4650294821278113	
12.135	0.809	0.5748098189361439	
12.14	0.799	0.6710497508570548	
12.145	0.826	0.7431285447330342	
12.15	0.890	0.7958479840058382	
12.155	0.860	0.8349348340775653	
12.16	0.898	0.8621762600300718	
12.165	0.909	0.8799505001061322	
12.17	0.915	0.8948406585483245	
12.175	0.887	0.9041415939143259	
12.18	0.840	0.904066303069933	
12.185	0.816	0.8937931181357553	
12.19	0.814	0.8750443364060307	
12.195	0.848	0.8561875143237646	
12.2	0.845	0.8438498831445136	
12.205	0.816	0.8369090810451413	
12.21	0.829	0.831212165220224	
12.215	0.779	0.8249595936815006	
12.22	0.747	0.8148033491021456	
12.225	0.716	0.7971523273708935	
12.23	0.652	0.7720919317885149	
12.235	0.635	0.7387768181276975	
12.24	0.550	0.7010372613967438	
12.245	0.452	0.6541937098119548	
12.25	0.269	0.588815084852057	
12.255	0.082	0.49787343339904844	
12.26	-0.038	0.3802250327309705	
12.265	-0.089	0.2479657515940405	
12.27	-0.109	0.12179845404986162	
12.275	-0.116	0.01819900527547762	
12.28	-0.155	-0.05887181489410953	
12.285	-0.171	-0.11425298736281565	
12.29	-0.113	-0.1479466004522939	
12.295	-0.019	-0.15673199070977384	
12.3	0.032	-0.13717534016392402	
12.305	0.010	-0.10013682810974789	
12.31	0.076	-0.056729082355215024	
12.315	0.061	-0.015032073282877723	
12.32	0.044	0.018733875587213133	
12.325	0.110	0.0451827192382635	
12.33	0.085	0.06514808417876357	
12.335	0.038	0.0777154088939892	
12.34	0.020	0.0780061731197457	
12.345	0.013	0.06826302971425377	
12.35	0.020	0.05282629632286792	
12.355	-0.014	0.03784443597664869	
12.36	-0.046	0.02126844928756131	
12.365	-0.064	0.0009840445017469952	
12.37	-0.095	-0.022265551384870075	
12.375	-0.107	-0.044818844228315675	
12.38	-0.141	-0.06884311954070622	
12.385	-0.147	-0.0932838558811961	
12.39	-0.197	-0.11698273091015038	
12.395	-0.168	-0.1397182759586273	
12.4	-0.167	-0.15718754325699275	
12.405	-0.158	-0.16815895996727337	
12.41	-0.158	-0.1706959265012188	
12.415	-0.222	-0.17302384240041468	
12.42	-0.257	-0.1823089214242816	
12.425	-0.228	-0.1967969298158995	
12.43	-0.113	-0.20580150329129476	
12.435	0.027	-0.19229544716743946	
12.44	0.041	-0.15097235541926543	
12.445	0.003	-0.09768986335026233	
12.45	-0.181	-0.17162802200680444	
12.455	-0.263	-0.17162802200680444	
12.46	-0.291	-0.09266694123486673	
12.465	-0.263	-0.14399881401278614	
12.47	-0.205	-0.19033064736125566	
12.475	-0.174	-0.2157642046751319	
12.48	-0.147	-0.22177299210825732	
12.485	-0.135	-0.21135951065481975	
12.49	-0.133	-0.19299768559703412	
12.495	-0.124	-0.17162802200680444	
12.5	-0.107	-0.15323708200725816	
12.505	-0.077	-0.1342386526649955	
12.51	-0.046	-0.11360251676533331	
12.515	-0.009	-0.09199699010316842	
12.52	-0.009	-0.06741196430807471	
12.525	-0.019	-0.044745669626593	
12.53	0.035	-0.02573874969126404	
12.535	0.021	-0.00943431548608247	
12.54	0.029	0.006002339718305117	
12.545	0.024	0.017446052633218325	
12.55	0.024	0.02370480396069055	
12.555	0.087	0.02971939754986066	
12.56	0.247	0.04850330766174097	
12.565	0.264	0.08700955181342063	
12.57	0.275	0.1384957575141993	
12.575	0.363	0.1933074063658682	
12.58	0.397	0.24832559054715833	
12.585	0.339	0.29847792924765965	
12.59	0.270	0.32996619667496396	
12.595	0.282	0.3395121379022091	
12.6	0.156	0.32568234563200715	
12.605	0.076	0.28964682798452124	
12.61	0.075	0.23751110454897878	
12.615	-0.031	0.1760270236720316	
12.62	-0.112	0.10846299181209533	
12.625	-0.170	0.036295032543800926	
12.63	-0.185	-0.035644925889927084	
12.635	-0.219	-0.09950101109407629	
12.64	-0.222	-0.15102579165428104	
12.645	-0.219	-0.1894633908517753	
12.65	-0.220	-0.21428616615232624	
12.655	-0.226	-0.22734013229570432	
12.66	-0.210	-0.23249093166414198	
12.665	-0.214	-0.23196911200317447	
12.67	-0.216	-0.22852227164485647	
12.675	-0.185	-0.22270339913536236	
12.68	-0.152	-0.21265808538078967	
12.685	-0.179	-0.19950068330513432	
12.69	-0.202	-0.18903223208587538	
12.695	-0.168	-0.18349388567424726	
12.7	-0.194	-0.18128753639004686	
12.705	-0.222	-0.18232426158720705	
12.71	-0.176	-0.18652046518705998	
12.715	-0.176	-0.1889787845559587	
12.72	-0.184	-0.18847687768140292	
12.725	-0.193	-0.18672075514700454	
12.73	-0.240	-0.18871331907499336	
12.735	-0.255	-0.19846509996025732	
12.74	-0.252	-0.21199902067591941	
12.745	-0.248	-0.22654309145414805	
12.75	-0.275	-0.2392828370755893	
12.755	-0.274	-0.2502705486933674	
12.76	-0.252	-0.25854970685101475	
12.765	-0.268	-0.2640095931855402	
12.77	-0.263	-0.26643222819611717	
12.775	-0.265	-0.2667180362400281	
12.78	-0.286	-0.2677509263230541	
12.785	-0.304	-0.2714376297036881	
12.79	-0.281	-0.27697645201197985	
12.795	-0.129	-0.27457496093199224	
12.8	0.032	-0.24725113305108803	
12.805	0.097	-0.1862031129025513	
12.81	0.087	-0.1065901121920637	
12.815	-0.155	-0.23192737902106808	
12.82	-0.281	-0.027431805523535642	
12.825	-0.330	-0.061730918637230736	
12.83	-0.318	-0.1257861783103185	
12.835	-0.239	-0.19039676188376153	
12.84	-0.182	-0.23192737902106808	
12.845	-0.139	-0.24260255792884045	
12.85	-0.148	-0.23228316840009217	
12.855	-0.136	-0.21120711526026886	
12.86	-0.124	-0.18558691126971147	
12.865	-0.107	-0.16204714649344276	
12.87	-0.106	-0.1413889774730206	
12.875	-0.069	-0.12272009763978374	
12.88	-0.054	-0.10478175634914683	
12.885	-0.011	-0.08541052528516724	
12.89	0.010	-0.06296426695675016	
12.895	0.065	-0.036604623650771446	
12.9	0.067	-0.008271918088236758	
12.905	0.056	0.019768166166457504	
12.91	0.143	0.045408817854934	
12.915	0.166	0.07198352061922474	
12.92	0.183	0.10260853524756404	
12.925	0.318	0.138263527938722	
12.93	0.383	0.1852433890687152	
12.935	0.434	0.24361037921208847	
12.94	0.512	0.3100091885478806	
12.945	0.504	0.37537842627404155	
12.95	0.482	0.4297435922448772	
12.955	0.437	0.46575292131679374	
12.96	0.449	0.48137194923265325	
12.965	0.357	0.4769891318542276	
12.97	0.246	0.4526098827382239	
12.975	0.101	0.40120948540836	
12.98	-0.014	0.32121042665464083	
12.985	-0.081	0.22163147850928372	
12.99	-0.148	0.1180145606646662	
12.995	-0.197	0.018366827464901737	
13.0	-0.236	-0.07022824793995798	
13.005	-0.252	-0.14319993580530843	
13.01	-0.252	-0.1976170712492518	
13.015	-0.265	-0.23601388218611485	
13.02	-0.260	-0.2593547440110896	
13.025	-0.269	-0.27074447183794403	
13.03	-0.263	-0.2757918921663406	
13.035	-0.257	-0.276384795083807	
13.04	-0.217	-0.27096017372329567	
13.045	-0.164	-0.25762132132670623	
13.05	-0.170	-0.23726690841395262	
13.055	-0.164	-0.21421217536986237	
13.06	-0.135	-0.19159804168198669	
13.065	-0.173	-0.17404341525373096	
13.07	-0.150	-0.16239087299317584	
13.075	-0.101	-0.15271672180361245	
13.08	-0.100	-0.1407748961744611	
13.085	-0.179	-0.13142647781988429	
13.09	-0.200	-0.13198097539255982	
13.095	-0.188	-0.14360223322553783	
13.1	-0.208	-0.1592705674352165	
13.105	-0.226	-0.17623026395857905	
13.11	-0.207	-0.19158655115553466	
13.115	-0.223	-0.20402111974275725	
13.12	-0.225	-0.2133931471379046	
13.125	-0.216	-0.21873160551456475	
13.13	-0.229	-0.22176937014231674	
13.135	-0.249	-0.22641035978354676	
13.14	-0.249	-0.23098155218703736	
13.145	-0.260	-0.23660128941124048	
13.15	-0.297	-0.24626616992391479	
13.155	-0.234	-0.2552414985131069	
13.16	-0.029	-0.24856594094634388	
13.165	0.258	-0.20195996106550598	
13.17	0.334	-0.10337306100875182	
13.175	0.221	0.01723458678297693	
13.18	-0.072	0.10617866498681112	
13.185	-0.211	0.12252898106629115	
13.19	-0.225	0.07600297605355176	
13.195	-0.174	0.00043827579131367183	
13.2	-0.130	-0.06925894142831977	
13.205	-0.087	-0.11525022561983266	
13.21	-0.034	-0.13153667313942813	
13.215	-0.037	-0.12499024535669914	
13.22	-0.048	-0.10546018940789578	
13.225	0.021	-0.08072355013131947	
13.23	0.070	-0.051693592526388124	
13.235	0.081	-0.01645841324490902	
13.24	0.152	0.02197491164918496	
13.245	0.209	0.06448421620237277	
13.25	0.204	0.10873438669218503	
13.255	0.177	0.14666557710381511	
13.26	0.264	0.177454799951774	
13.265	0.197	0.20105106873341586	
13.27	0.230	0.21550224735379497	
13.275	0.282	0.2272380221952373	
13.28	0.347	0.24336343383884718	
13.285	0.406	0.26956393666662565	
13.29	0.435	0.3069121032258463	
13.295	0.518	0.3514992019000569	
13.3	0.530	0.39979686235064177	
13.305	0.516	0.44661974161747664	
13.31	0.641	0.48942152176966186	
13.315	0.660	0.5331281175639428	
13.32	0.614	0.5745062666467926	
13.325	0.560	0.6031480609816877	
13.33	0.461	0.606360587930818	
13.335	0.307	0.5785903771739546	
13.34	0.149	0.5148362833888678	
13.345	0.084	0.4204523750488873	
13.35	-0.003	0.3108654815113207	
13.355	-0.081	0.1986378320908382	
13.36	-0.126	0.09436025379551788	
13.365	-0.171	0.002156291548444561	
13.37	-0.174	-0.07342099633373758	
13.375	-0.177	-0.1288703874519833	
13.38	-0.148	-0.1636342447865161	
13.385	-0.174	-0.18131913808932099	
13.39	-0.170	-0.18614909407132627	
13.395	-0.153	-0.18558966305918523	
13.4	-0.152	-0.18009513133293958	
13.405	-0.153	-0.1723390873376422	
13.41	-0.103	-0.16170018760122262	
13.415	-0.095	-0.14784453747526727	
13.42	-0.090	-0.13238125021205494	
13.425	-0.084	-0.11592322168938432	
13.43	-0.089	-0.10267837362925974	
13.435	-0.097	-0.09427479233747509	
13.44	-0.098	-0.09015706276318296	
13.445	-0.051	-0.08663948360898696	
13.45	-0.086	-0.08305882484683166	
13.455	-0.141	-0.08232036879786793	
13.46	-0.147	-0.08976607804911661	
13.465	-0.179	-0.10584133587546836	
13.47	-0.184	-0.12632797607260077	
13.475	-0.174	-0.14595769624561045	
13.48	-0.176	-0.16069894026449155	
13.485	-0.176	-0.17221246996295353	
13.49	-0.174	-0.17716111407947793	
13.495	-0.147	-0.17768866873572886	
13.5	-0.141	-0.17402013048487122	
13.505	-0.164	-0.1672894011522295	
13.51	-0.139	-0.1608080966270677	
13.515	-0.136	-0.15483227816339565	
13.52	-0.118	-0.14828725555036848	
13.525	0.038	-0.13198198038338538	
13.53	0.244	-0.09069274426149289	
13.535	0.197	-0.021148472427446115	
13.54	0.059	0.04979850102635751	
13.545	-0.097	0.08620147370753897	
13.55	-0.170	0.07299134969027413	
13.555	-0.173	0.025762617771654547	
13.56	-0.121	-0.03185996863495502	
13.565	-0.045	-0.07583908607162387	
13.57	0.030	-0.09118541781281757	
13.575	0.093	-0.07699060291606546	
13.58	0.177	-0.0377975716256778	
13.585	0.224	0.01889150772673158	
13.59	0.263	0.08489417393347069	
13.595	0.296	0.15016457327221733	
13.6	0.388	0.2109836814566721	
13.605	0.435	0.27185800242676794	
13.61	0.460	0.33111090276884214	
13.615	0.394	0.38004340692566974	
13.62	0.379	0.4078311474870014	
13.625	0.415	0.4190419038792698	
13.63	0.400	0.4221241944868507	
13.635	0.392	0.4188732979840527	
13.64	0.389	0.41295466985283075	
13.645	0.447	0.40915298096411695	
13.65	0.473	0.41195937076518213	
13.655	0.547	0.42689568095414343	
13.66	0.632	0.45712754968631325	
13.665	0.687	0.5030457475816522	
13.67	0.676	0.5558621112342941	
13.675	0.609	0.6020306816141245	
13.68	0.631	0.6300822142562613	
13.685	0.573	0.639889618676685	
13.69	0.507	0.6319691344710449	
13.695	0.460	0.6060980096187802	
13.7	0.305	0.5609345806610733	
13.705	0.201	0.4939185237179868	
13.71	0.079	0.4070844663505621	
13.715	-0.013	0.3039957406414763	
13.72	-0.068	0.1969145764579098	
13.725	-0.119	0.09607503014639138	
13.73	-0.121	0.009053564594066074	
13.735	-0.130	-0.059082971084837344	
13.74	-0.138	-0.104959416892797	
13.745	-0.145	-0.13391443749617404	
13.75	-0.135	-0.1490844132593001	
13.755	-0.126	-0.154012603678212	
13.76	-0.095	-0.14988690991817935	
13.765	-0.119	-0.1410583445604464	
13.77	-0.104	-0.13007690951364614	
13.775	-0.097	-0.12088601456318515	
13.78	-0.097	-0.11200038213553067	
13.785	-0.060	-0.10312000364861276	
13.79	-0.013	-0.08991077797807256	
13.795	-0.013	-0.07192469004701492	
13.8	-0.023	-0.05214141174927908	
13.805	-0.019	-0.03699118016820935	
13.81	-0.019	-0.025867727427145853	
13.815	-0.104	-0.023105809205846525	
13.82	-0.133	-0.034087837987625914	
13.825	-0.182	-0.05886073533128821	
13.83	-0.217	-0.09301447698271095	
13.835	-0.323	-0.13614045655422508	
13.84	-0.428	-0.19191568437147868	
13.845	-0.480	-0.2599369677002481	
13.85	-0.518	-0.3341334381999892	
13.855	-0.530	-0.40296796157511633	
13.86	-0.517	-0.45886671640344057	
13.865	-0.540	-0.49909283067137705	
13.87	-0.547	-0.5260520605211578	
13.875	-0.537	-0.5418586181903089	
13.88	-0.512	-0.5480246371217207	
13.885	-0.468	-0.5441091191834801	
13.89	-0.350	-0.5238835912075821	
13.895	-0.287	-0.484934235310382	
13.9	-0.309	-0.4331332715657089	
13.905	-0.414	-0.3889903731199183	
13.91	-0.480	-0.3699193447800976	
13.915	-0.460	-0.37710667688772037	
13.92	-0.388	-0.39302413526547597	
13.925	-0.326	-0.4008605847262944	
13.93	-0.289	-0.39203984208374143	
13.935	-0.274	-0.3700924787061717	
13.94	-0.252	-0.340889434467156	
13.945	-0.237	-0.3099775699278685	
13.95	-0.271	-0.2841313982328978	
13.955	-0.281	-0.26795306459677415	
13.96	-0.286	-0.2619174359306524	
13.965	-0.297	-0.26411157619845893	
13.97	-0.278	-0.26901431384170094	
13.975	-0.243	-0.27287797829290217	
13.98	-0.211	-0.2690544109950257	
13.985	-0.171	-0.25706985674039573	
13.99	-0.155	-0.23588776514438348	
13.995	-0.150	-0.21099720999452903	
14.0	-0.098	-0.18511263925849045	
14.005	-0.071	-0.15792938057462313	
14.01	0.000	-0.1259263640802642	
14.015	0.017	-0.09010822175984612	
14.02	0.149	-0.04699678126605847	
14.025	0.181	0.0061202188731267265	
14.03	0.236	0.06493646267014413	
14.035	0.310	0.1269206899628555	
14.04	0.385	0.1911116243872977	
14.045	0.411	0.256017449567004	
14.05	0.415	0.31587271903243974	
14.055	0.388	0.36203430440983164	
14.06	0.322	0.3880756761652702	
14.065	0.206	0.38588347589635524	
14.07	0.154	0.35494462310206165	
14.075	0.102	0.3021118733963818	
14.08	0.035	0.23898017120437137	
14.085	-0.009	0.1708961485263834	
14.09	-0.022	0.10607596289714968	
14.095	-0.042	0.050076378870036325	
14.1	-0.038	0.006906162207012907	
14.105	-0.071	-0.02501081985903946	
14.11	-0.075	-0.0468886670733412	
14.115	-0.095	-0.06403661690001078	
14.12	-0.048	-0.07508743946863516	
14.125	0.006	-0.07490368401921489	
14.13	0.013	-0.061936009324665885	
14.135	0.030	-0.04212071096525596	
14.14	0.041	-0.01800443149820204	
14.145	0.091	0.006132873177292108	
14.15	0.093	0.03093647894990806	
14.155	0.073	0.05388771297707622	
14.16	0.110	0.07112164333022275	
14.165	0.113	0.08604734561994866	
14.17	0.145	0.09884173212487742	
14.175	0.104	0.11003671275503453	
14.18	0.091	0.11614115194449089	
14.185	0.061	0.11386645244549809	
14.19	0.015	0.10191060381778436	
14.195	0.007	0.0821823455031907	
14.2	-0.005	0.05798213917614791	
14.205	-0.020	0.034816296067838585	
14.21	0.009	0.015134686786838589	
14.215	0.039	0.004127296612185557	
14.22	0.030	0.003797884997216652	
14.225	0.064	0.009999942240617154	
14.23	0.032	0.020216880316974776	
14.235	0.023	0.028867423869199115	
14.24	-0.038	0.02884176041595566	
14.245	0.015	0.022218165071651225	
14.25	0.186	0.023039999346907803	
14.255	0.252	0.047790890075846124	
14.26	0.331	0.09913264947699733	
14.265	0.275	0.16115322389060577	
14.27	0.053	0.2037412757127243	
14.275	0.003	0.20593223927571935	
14.28	0.010	0.17224356469181895	
14.285	0.081	0.1279056340588164	
14.29	0.130	0.09683559482989852	
14.295	0.201	0.08923355757278002	
14.3	0.287	0.10605957589464764	
14.305	0.261	0.14275867073631654	
14.31	0.240	0.18309907905338157	
14.315	0.281	0.21616480693118414	
14.32	0.333	0.24478384347598195	
14.325	0.318	0.2719761036246111	
14.33	0.314	0.2942295359819973	
14.335	0.311	0.30885687952784485	
14.34	0.368	0.31885133746558003	
14.345	0.397	0.33225152035226846	
14.35	0.386	0.3489960379729597	
14.355	0.362	0.36273966749408965	
14.36	0.429	0.3741640773678314	
14.365	0.447	0.38716468137073423	
14.37	0.464	0.40473670424456326	
14.375	0.524	0.426004944396892	
14.38	0.568	0.4542721430594458	
14.385	0.600	0.4878353106351223	
14.39	0.570	0.5228313038989978	
14.395	0.621	0.5522620367914906	
14.4	0.666	0.5789971174865174	
14.405	0.661	0.6057417981307545	
14.41	0.661	0.630165886793673	
14.415	0.612	0.6451375974496434	
14.42	0.473	0.6417176949554348	
14.425	0.424	0.6140046954282297	
14.43	0.353	0.5642427468251623	
14.435	0.204	0.4968151244042923	
14.44	0.124	0.41285380708103936	
14.445	0.058	0.31925670387411786	
14.45	0.020	0.2259816515182857	
14.455	-0.026	0.14177687766950728	
14.46	-0.051	0.07017907394009937	
14.465	-0.055	0.014125309236683386	
14.47	-0.049	-0.026228636948047234	
14.475	0.001	-0.04794933232349452	
14.48	0.026	-0.050781022876437196	
14.485	0.038	-0.03916407576230166	
14.49	0.024	-0.020098228186643214	
14.495	0.036	-0.0007798664541103289	
14.5	0.075	0.01595100779933331	
14.505	0.101	0.03481894866073618	
14.51	0.107	0.05516974791394559	
14.515	0.079	0.07306447624046383	
14.52	0.030	0.08177629725755087	
14.525	0.029	0.07906231481518569	
14.53	0.021	0.06816666413956926	
14.535	0.013	0.053826749149739714	
14.54	-0.017	0.038948423687436576	
14.545	0.020	0.02420377339304614	
14.55	0.027	0.01392260142116521	
14.555	-0.022	0.009862383537254724	
14.56	-0.069	0.0011662801179007929	
14.565	-0.083	-0.013995237607490855	
14.57	-0.098	-0.03417676522744261	
14.575	-0.071	-0.05387659228884014	
14.58	-0.106	-0.06990403778168935	
14.585	-0.110	-0.08318839876035024	
14.59	-0.087	-0.09295896482255489	
14.595	-0.081	-0.09782949742070074	
14.6	-0.121	-0.09915493564285249	
14.605	-0.138	-0.10306765743236346	
14.61	-0.104	-0.10880251617996178	
14.615	-0.058	-0.11006367339077994	
14.62	0.062	-0.09813306497157083	
14.625	0.211	-0.06080474283187937	
14.63	0.127	-0.0029597171639940897	
14.635	-0.016	0.04576986802985909	
14.64	-0.084	0.0630514193541179	
14.645	-0.078	0.047135653913770933	
14.65	-0.057	0.01684319032045239	
14.655	-0.042	-0.012022495491032126	
14.66	0.020	-0.028817234512917882	
14.665	0.047	-0.030073555780853058	
14.67	0.099	-0.016102153352336553	
14.675	0.105	0.011156607523535802	
14.68	0.114	0.041001741571637544	
14.685	0.220	0.07384583095598017	
14.69	0.230	0.11310980913534924	
14.695	0.235	0.1530890825695727	
14.7	0.227	0.18781971771178452	
14.705	0.292	0.21501198124144594	
14.71	0.310	0.24117360398171986	
14.715	0.281	0.26387773799482567	
14.72	0.310	0.2808896091144376	
14.725	0.377	0.2971857420201845	
14.73	0.411	0.3170073240337683	
14.735	0.530	0.34882533292341394	
14.74	0.647	0.3981236970365201	
14.745	0.794	0.4691361785015536	
14.75	0.930	0.5638291493619756	
14.755	0.979	0.6739920771277979	
14.76	1.005	0.7831777091798602	
14.765	1.029	0.8778732532409141	
14.77	0.990	0.9488610138772825	
14.775	0.939	0.9921734939681734	
14.78	0.855	1.0009834144053107	
14.785	0.721	0.9767776981135364	
14.79	0.565	0.9161035174843588	
14.795	0.479	0.8251139882631309	
14.8	0.310	0.7127869241776048	
14.805	0.204	0.585999840326896	
14.81	0.146	0.45520973368825335	
14.815	0.026	0.33087471056884665	
14.82	0.035	0.21989054315386986	
14.825	0.052	0.13122943831927403	
14.83	-0.011	0.06900564185849413	
14.835	-0.052	0.024799157610965034	
14.84	-0.055	-0.00886722094895282	
14.845	-0.049	-0.03387497176663076	
14.85	-0.054	-0.050192110443896217	
14.855	-0.057	-0.05798950156557316	
14.86	-0.038	-0.060812374476225145	
14.865	-0.069	-0.06012278257574568	
14.87	-0.055	-0.06010482888481428	
14.875	-0.060	-0.05881698031258011	
14.88	-0.077	-0.060012991928073765	
14.885	-0.100	-0.06417410994466871	
14.89	-0.103	-0.07088606689062124	
14.895	-0.098	-0.07990330944078664	
14.9	-0.110	-0.08917001629799695	
14.905	-0.139	-0.09798920854802749	
14.91	-0.145	-0.10884318714763842	
14.915	-0.165	-0.12211203720786867	
14.92	-0.181	-0.13608583564304666	
14.925	-0.213	-0.15183718819706216	
14.93	-0.219	-0.1700217264334506	
14.935	-0.207	-0.1871483377237264	
14.94	-0.182	-0.19787429572640033	
14.945	-0.179	-0.20191771279949228	
14.95	-0.199	-0.2001708145210069	
14.955	-0.185	-0.19797342645591787	
14.96	-0.184	-0.19484586212806343	
14.965	-0.228	-0.19312407715801905	
14.97	-0.248	-0.19808427282082225	
14.975	-0.200	-0.20583472635691932	
14.98	-0.064	-0.20500796415377665	
14.985	0.082	-0.1781156590714324	
14.99	0.104	-0.12287012574383263	
14.995	-0.022	-0.05995114199120666	
15.0	-0.158	-0.023201507679003315	
15.005	-0.208	-0.02599534065118179	
15.01	-0.197	-0.057848692562427	
15.015	-0.159	-0.09810265452257182	
15.02	-0.145	-0.13007488621058383	
15.025	-0.115	-0.14783250138201998	
15.03	-0.087	-0.1510024196591876	
15.035	-0.064	-0.1411450478811435	
15.04	-0.068	-0.12289867709216151	
15.045	-0.063	-0.10391408555283721	
15.05	-0.072	-0.08715829309435043	
15.055	-0.048	-0.07499738964295294	
15.06	-0.011	-0.06284498230700779	
15.065	-0.032	-0.050092045261869056	
15.07	-0.016	-0.03910096840298555	
15.075	0.024	-0.027852803338336663	
15.08	0.053	-0.013981326684012531	
15.085	0.067	0.004853487502809393	
15.09	0.068	0.025069402008746543	
15.095	0.171	0.04810333696436715	
15.1	0.218	0.0788839622622028	
15.105	0.235	0.11898530205081678	
15.11	0.235	0.1591235296970422	
15.115	0.350	0.19793037568833888	
15.12	0.470	0.24493152167734747	
15.125	0.554	0.3091443625598861	
15.13	0.473	0.37699288208302045	
15.135	0.449	0.43183052973399755	
15.14	0.403	0.46006808856534015	
15.145	0.368	0.4640946442463624	
15.15	0.259	0.44484033831283687	
15.155	0.159	0.40196399626146606	
15.16	0.052	0.33514644076248734	
15.165	-0.054	0.24991865673045877	
15.17	-0.109	0.1548862016086313	
15.175	-0.142	0.06015215865133488	
15.18	-0.216	-0.02596349163873531	
15.185	-0.257	-0.10115745342426045	
15.19	-0.249	-0.16492524963302369	
15.195	-0.229	-0.21086366925723649	
15.2	-0.242	-0.23912449200369246	
15.205	-0.229	-0.25203811505206	
15.21	-0.203	-0.25283988144574304	
15.215	-0.185	-0.2450420050904603	
15.22	-0.158	-0.23012188902834485	
15.225	-0.126	-0.20888028028430428	
15.23	-0.107	-0.18394267304759682	
15.235	-0.081	-0.15714798243185069	
15.24	-0.113	-0.1319740094679256	
15.245	-0.109	-0.11487956329041607	
15.25	-0.113	-0.10611096931111033	
15.255	-0.132	-0.10306392965085344	
15.26	-0.106	-0.1048558149694854	
15.265	-0.110	-0.10802578496041855	
15.27	-0.136	-0.11012802766704959	
15.275	-0.144	-0.11589749685344293	
15.28	-0.176	-0.12494348137441832	
15.285	-0.232	-0.14014615805660785	
15.29	-0.228	-0.16097358915040721	
15.295	-0.223	-0.183876106009554	
15.3	-0.214	-0.2030979271963685	
15.305	-0.222	-0.21404716325278486	
15.31	-0.223	-0.22086393947305696	
15.315	-0.210	-0.224038758671855	
15.32	-0.174	-0.22210363745814987	
15.325	-0.168	-0.21388069201354054	
15.33	-0.254	-0.20497061897038682	
15.335	-0.268	-0.2071570347610758	
15.34	-0.162	-0.21294451013776797	
15.345	0.090	-0.19984958615633114	
15.35	0.278	-0.14307649463061145	
15.355	0.307	-0.0450295976919825	
15.36	0.056	0.05510410358680624	
15.365	-0.152	0.1068830890251478	
15.37	-0.226	0.09084919513387837	
15.375	-0.202	0.02913899023301522	
15.38	-0.141	-0.04293961639684499	
15.385	-0.097	-0.09715033597007515	
15.39	-0.064	-0.12392685535045214	
15.395	-0.057	-0.1268505526697794	
15.4	-0.107	-0.1191488105842281	
15.405	-0.089	-0.10906521703642189	
15.41	-0.014	-0.09780643816579937	
15.415	0.009	-0.08003831586839619	
15.42	0.024	-0.05416224791493737	
15.425	0.072	-0.02585737961866504	
15.43	0.084	0.004078395322039411	
15.435	0.113	0.03480865121800162	
15.44	0.064	0.06003348730432745	
15.445	0.114	0.07815776902208971	
15.45	0.122	0.09185951581401955	
15.455	0.152	0.10493143366628847	
15.46	0.266	0.1241913802338881	
15.465	0.267	0.15396462641627445	
15.47	0.296	0.1908469982662435	
15.475	0.386	0.23213416192202607	
15.48	0.427	0.27807126940561433	
15.485	0.547	0.33183809875334314	
15.49	0.597	0.3950469108795647	
15.495	0.562	0.45913265125199443	
15.5	0.521	0.5088500122224638	
15.505	0.481	0.5359234625160074	
15.51	0.455	0.5401595229656069	
15.515	0.287	0.5199462536501538	
15.52	0.156	0.46782869291300627	
15.525	0.072	0.3881046966258848	
15.53	0.013	0.2910824249371805	
15.535	-0.055	0.1908496238694648	
15.54	-0.109	0.09801531803412167	
15.545	-0.147	0.014152980964065042	
15.55	-0.173	-0.05608364639024365	
15.555	-0.232	-0.1140816993047912	
15.56	-0.237	-0.16085546816291618	
15.565	-0.240	-0.1989908458090897	
15.57	-0.234	-0.2241299696643755	
15.575	-0.202	-0.23791268797146495	
15.58	-0.187	-0.23790530143402328	
15.585	-0.173	-0.2291264139779765	
15.59	-0.203	-0.2160120397669267	
15.595	-0.188	-0.20587408329911333	
15.6	-0.145	-0.19606732999180593	
15.605	-0.155	-0.18407684597166502	
15.61	-0.144	-0.17188405118407818	
15.615	-0.193	-0.16400467207010308	
15.62	-0.214	-0.16412431436329078	
15.625	-0.156	-0.1689263691327677	
15.63	-0.144	-0.17192043711429417	
15.635	-0.177	-0.17011170821939617	
15.64	-0.199	-0.17000854779882618	
15.645	-0.211	-0.1748988823693027	
15.65	-0.217	-0.1840618790465098	
15.655	-0.220	-0.1940562903612687	
15.66	-0.232	-0.20390518620709283	
15.665	-0.254	-0.2150095190596055	
15.67	-0.245	-0.22608492675326958	
15.675	-0.208	-0.23393125028776268	
15.68	-0.197	-0.23395159853350808	
15.685	-0.205	-0.2280846312055322	
15.69	-0.237	-0.22199115182510717	
15.695	-0.254	-0.22093664025748216	
15.7	-0.266	-0.2270600028521802	
15.705	-0.205	-0.233022053995732	
15.71	-0.034	-0.22591083915656235	
15.715	0.221	-0.18298551686138764	
15.72	0.282	-0.09701685506508333	
15.725	0.142	0.007036431814538743	
15.73	-0.141	0.07593156161240612	
15.735	-0.242	0.07788647062954734	
15.74	-0.223	0.02605510668276573	
15.745	-0.193	-0.04494080751265564	
15.75	-0.152	-0.10707788478102313	
15.755	-0.118	-0.14597778952601684	
15.76	-0.097	-0.15989088253049605	
15.765	-0.080	-0.15606087581263295	
15.77	-0.023	-0.1380605177896591	
15.775	0.024	-0.107879736522032	
15.78	0.017	-0.07199468594443888	
15.785	0.070	-0.03513309099185745	
15.79	0.114	0.0020716169158390154	
15.795	0.169	0.04210609971424247	
15.8	0.113	0.07986113702633502	
15.805	0.029	0.10294729094592195	
15.81	0.061	0.10614228528903552	
15.815	0.042	0.09694921009992563	
15.82	0.035	0.08287894535244207	
15.825	0.078	0.07012688011289234	
15.83	0.149	0.06605837303448575	
15.835	0.226	0.07986214917597322	
15.84	0.290	0.11305860268299314	
15.845	0.296	0.1591255526205649	
15.85	0.351	0.20886544068604934	
15.855	0.374	0.2589529855536462	
15.86	0.427	0.3061663100277661	
15.865	0.385	0.3469354899798963	
15.87	0.379	0.375848990297015	
15.875	0.342	0.3891365486574441	
15.88	0.197	0.3820416418996077	
15.885	0.087	0.3457899540639777	
15.89	-0.029	0.2800358098201288	
15.895	-0.112	0.19215912019306763	
15.9	-0.130	0.09585485101294196	
15.905	-0.182	0.004932998638657616	
15.91	-0.217	-0.0727885899933866	
15.915	-0.283	-0.1400396984391822	
15.92	-0.307	-0.19718283329762062	
15.925	-0.286	-0.24283210337406344	
15.93	-0.262	-0.27388727004010316	
15.935	-0.240	-0.2872158881774665	
15.94	-0.155	-0.28195858204139074	
15.945	-0.107	-0.2567702933724757	
15.95	-0.058	-0.21815748474884222	
15.955	-0.074	-0.172134279748969	
15.96	-0.025	-0.12775797988980375	
15.965	-0.031	-0.09001683564755994	
15.97	-0.048	-0.06125581127809678	
15.975	-0.043	-0.04284308223501169	
15.98	-0.057	-0.03484543242044302	
15.985	-0.090	-0.03627189254749137	
15.99	-0.104	-0.04600735358261749	
15.995	-0.110	-0.060721882298758266	
16.0	-0.152	-0.07916647096420815	
16.005	-0.188	-0.10119153659201992	
16.01	-0.194	-0.12671735182771793	
16.015	-0.243	-0.1539776508371999	
16.02	-0.272	-0.18330658658232643	
16.025	-0.304	-0.21283810793500565	
16.03	-0.320	-0.24478493257159883	
16.035	-0.358	-0.2752984018992112	
16.04	-0.361	-0.303033771793747	
16.045	-0.352	-0.3266642456196417	
16.05	-0.359	-0.34516487633024784	
16.055	-0.382	-0.35623428527971895	
16.06	-0.378	-0.36567757053505306	
16.065	-0.367	-0.37195876717765275	
16.07	-0.356	-0.37435282295753075	
16.075	-0.286	-0.36880771981357174	
16.08	-0.184	-0.3497377772867246	
16.085	-0.113	-0.3113335996096862	
16.09	-0.087	-0.25803084158442136	
16.095	-0.162	-0.20463504550588146	
16.1	-0.277	-0.17323434069192245	
16.105	-0.326	-0.17328233859799247	
16.11	-0.300	-0.19762091603547763	
16.115	-0.225	-0.22695531830940424	
16.12	-0.165	-0.24139401065824784	
16.125	-0.074	-0.23275836442764103	
16.13	-0.074	-0.20371402767859742	
16.135	-0.035	-0.16341248884114573	
16.14	0.047	-0.118028568739503	
16.145	0.049	-0.06855207107557096	
16.15	0.067	-0.022251762589577402	
16.155	0.093	0.016682539401229303	
16.16	0.178	0.05444815041715294	
16.165	0.218	0.0920557635211902	
16.17	0.087	0.12650317156282614	
16.175	0.168	0.14622386072880755	
16.18	0.261	0.16035191053858625	
16.185	0.249	0.18057056039100405	
16.19	0.314	0.20692526592683916	
16.195	0.371	0.23948069997442648	
16.2	0.391	0.2777867293705333	
16.205	0.444	0.31866044046314235	
16.21	0.562	0.36642583566990977	
16.215	0.608	0.42108833457512634	
16.22	0.608	0.48053462979112654	
16.225	0.686	0.537191522818844	
16.23	0.750	0.5923344572282792	
16.235	0.704	0.6426067263604784	
16.24	0.629	0.6778921652029861	
16.245	0.567	0.6864042666607882	
16.25	0.492	0.6678143628662547	
16.255	0.380	0.6246888697972457	
16.26	0.356	0.5623406792015158	
16.265	0.253	0.4900731953145374	
16.27	0.180	0.41162357168428654	
16.275	0.059	0.32915499314206254	
16.28	0.015	0.24125449532331789	
16.285	0.000	0.1576979254653524	
16.29	-0.069	0.08496593776896708	
16.295	-0.072	0.024329684759702284	
16.3	-0.058	-0.023159922390689165	
16.305	-0.078	-0.05418927546963232	
16.31	-0.068	-0.07270070427638613	
16.315	-0.074	-0.08100004440100393	
16.32	-0.057	-0.083280499352799	
16.325	-0.008	-0.07780421754074904	
16.33	0.006	-0.06384345640952338	
16.335	0.059	-0.04228115830975365	
16.34	0.131	-0.01195480226198893	
16.345	0.091	0.02425519012315241	
16.35	0.114	0.05678453728642269	
16.355	0.104	0.08187495708720025	
16.36	0.152	0.10128321599951061	
16.365	0.068	0.11393366581620179	
16.37	0.072	0.11574774489700353	
16.375	0.101	0.11020943931953255	
16.38	0.046	0.10111201969860162	
16.385	0.023	0.08772226685916903	
16.39	-0.026	0.0690526360111047	
16.395	-0.057	0.04222586177927405	
16.4	-0.057	0.011801840345591948	
16.405	-0.038	-0.014091071288966764	
16.41	-0.058	-0.03373566849673201	
16.415	-0.046	-0.04606668623374465	
16.42	-0.034	-0.05220974185518436	
16.425	0.007	-0.05079064687304548	
16.43	-0.028	-0.04291365341625308	
16.435	-0.043	-0.03525945666188088	
16.44	-0.055	-0.032933325635655056	
16.445	-0.038	-0.03379437230036009	
16.45	0.177	-0.027182803796431038	
16.455	0.299	0.009954962699735148	
16.46	0.292	0.07626674597158108	
16.465	0.097	0.13888201376514447	
16.47	-0.064	0.16373314700915498	
16.475	-0.100	0.14020018094956807	
16.48	-0.075	0.08710522930530741	
16.485	0.010	0.033734491442997123	
16.49	0.062	0.0020886650128986977	
16.495	0.096	-0.0037392780250747448	
16.5	0.134	0.011783027665667524	
16.505	0.157	0.041885142865834286	
16.51	0.165	0.0773029907864566	
16.515	0.214	0.1119306576820553	
16.52	0.215	0.14572580851230718	
16.525	0.220	0.1762387639645001	
16.53	0.249	0.20012685930579097	
16.535	0.256	0.21866111266453128	
16.54	0.233	0.23407557729330128	
16.545	0.261	0.24430165486939173	
16.55	0.266	0.2507220521376177	
16.555	0.250	0.2558565883786943	
16.56	0.304	0.2613849762404492	
16.565	0.296	0.26790814285529607	
16.57	0.278	0.27565531845317565	
16.575	0.372	0.286318685438928	
16.58	0.469	0.30717270165146315	
16.585	0.479	0.34258272259957934	
16.59	0.597	0.3911069458758588	
16.595	0.626	0.4483785098541161	
16.6	0.571	0.505650706500286	
16.605	0.537	0.5468079628634452	
16.61	0.547	0.5674424680012868	
16.615	0.415	0.5668863657642755	
16.62	0.318	0.5405856300937326	
16.625	0.241	0.48732957813809585	
16.63	0.146	0.4151802981912591	
16.635	0.050	0.32954065601028915	
16.64	-0.034	0.23709327618218567	
16.645	-0.075	0.14339840507372525	
16.65	-0.084	0.057671527566140954	
16.655	-0.121	-0.011167739915262015	
16.66	-0.132	-0.06353849332909522	
16.665	-0.135	-0.10210044862659934	
16.67	-0.165	-0.12938464357845522	
16.675	-0.132	-0.14464020950877046	
16.68	-0.132	-0.15182299292785661	
16.685	-0.098	-0.1514646344282671	
16.69	-0.078	-0.14087441374685666	
16.695	-0.046	-0.12359280662202828	
16.7	-0.083	-0.10437991880884276	
16.705	-0.084	-0.0891844584962086	
16.71	0.003	-0.07650446026650123	
16.715	0.052	-0.05811403139685667	
16.72	-0.002	-0.033416462135923794	
16.725	0.030	-0.010625453144862223	
16.73	0.000	0.005169998339126682	
16.735	-0.016	0.01150147209799635	
16.74	-0.046	0.010131572591482008	
16.745	-0.061	-0.0005936305308782426	
16.75	-0.060	-0.0164005892272059	
16.755	-0.086	-0.03315712230246335	
16.76	-0.098	-0.05049293562437776	
16.765	-0.116	-0.06816613522803136	
16.77	-0.130	-0.08640945417012766	
16.775	-0.148	-0.10256720166623325	
16.78	-0.150	-0.11885794712755772	
16.785	-0.136	-0.1325298661004365	
16.79	-0.084	-0.13679459654113502	
16.795	-0.069	-0.13156961515015397	
16.8	-0.110	-0.12047451904901284	
16.805	-0.135	-0.11214441464795356	
16.81	-0.107	-0.10943380777741947	
16.815	-0.109	-0.10921600073579789	
16.82	-0.032	-0.10643657749039784	
16.825	0.119	-0.08648173109574842	
16.83	0.163	-0.043841043590421576	
16.835	0.033	0.006393932705197649	
16.84	-0.097	0.03718467534322724	
16.845	-0.153	0.030432626493257967	
16.85	-0.136	-0.003504669217368199	
16.855	-0.116	-0.04412627611852904	
16.86	-0.052	-0.07539205180912878	
16.865	-0.023	-0.08822942248734941	
16.87	0.009	-0.0824397387088568	
16.875	0.044	-0.06246616489560902	
16.88	0.079	-0.03288087501380669	
16.885	0.053	-0.0016111973005462688	
16.89	0.065	0.027262064915609726	
16.895	0.050	0.04643819254154024	
16.9	0.076	0.058441886663780515	
16.905	0.133	0.06890811098592206	
16.91	0.214	0.08763732758616	
16.915	0.162	0.11270383134853033	
16.92	0.067	0.13253519421751553	
16.925	0.171	0.14056837020121637	
16.93	0.203	0.14510143332544123	
16.935	0.208	0.1573805678034972	
16.94	0.275	0.1763047172816583	
16.945	0.328	0.20243295677862663	
16.95	0.339	0.2364318022000143	
16.955	0.417	0.2749409391208592	
16.96	0.466	0.31960931465459164	
16.965	0.421	0.3636729239911072	
16.97	0.414	0.39758898900690726	
16.975	0.499	0.422563556385609	
16.98	0.444	0.4410432961354994	
16.985	0.386	0.45040856343709684	
16.99	0.316	0.44430264591451124	
16.995	0.276	0.41835846449749525	
17.0	0.166	0.3754525648831948	
17.005	0.056	0.3159706962083101	
17.01	-0.008	0.24153019486301092	
17.015	-0.090	0.15767743342749793	
17.02	-0.132	0.07168398591352537	
17.025	-0.124	-0.004470902905469118	
17.03	-0.170	-0.06700197163256787	
17.035	-0.127	-0.11349220395690789	
17.04	-0.090	-0.13765770463427401	
17.045	-0.090	-0.1426985211751723	
17.05	-0.126	-0.1385086751708916	
17.055	-0.095	-0.12997884506913115	
17.06	-0.014	-0.11650687602339284	
17.065	0.050	-0.09330899338022502	
17.07	0.133	-0.05326941673232134	
17.075	0.255	0.002496742639931398	
17.08	0.308	0.0729787767185256	
17.085	0.318	0.14853462989440053	
17.09	0.336	0.21830002802881798	
17.095	0.351	0.274247057883254	
17.1	0.505	0.32153485047522645	
17.105	0.632	0.378059359230028	
17.11	0.728	0.4514555451874331	
17.115	0.770	0.5356765603298648	
17.12	0.710	0.6157404161581193	
17.125	0.615	0.6714472657049032	
17.13	0.620	0.6929236948839259	
17.135	0.519	0.6845521034862699	
17.14	0.475	0.653326786453752	
17.145	0.411	0.6042177150742662	
17.15	0.350	0.543513083974803	
17.155	0.279	0.4780820037886795	
17.16	0.253	0.41144057505563747	
17.165	0.185	0.34663899373443946	
17.17	0.111	0.28478769972998286	
17.175	0.073	0.22550591991131463	
17.18	-0.025	0.1638916793833856	
17.185	-0.089	0.10054845443508163	
17.19	-0.013	0.04140153153215284	
17.195	0.160	0.00723847303149423	
17.2	0.340	0.017512637894171634	
17.205	0.411	0.07815179193895248	
17.21	0.224	0.15743873976645	
17.215	-0.043	0.20451482695090517	
17.22	-0.113	0.19175007438777497	
17.225	-0.084	0.13357562894652764	
17.23	-0.072	0.06388459743612249	
17.235	-0.095	0.002506229723235924	
17.24	-0.025	-0.04055323490266168	
17.245	-0.014	-0.06174307934403303	
17.25	-0.037	-0.0655775849162874	
17.255	-0.045	-0.06089221020446063	
17.26	-0.022	-0.05348512743071533	
