Vernier Format 2
ecg6.txt 10/18/2025 9:10:28
Run 1
Time	Potential	EKG	
T	P	E	
s	mV	mV	

0.000	0.611	0.028	
0.005	0.845	0.132	
0.010	0.811	0.302	
0.015	0.502	0.467	
0.020	0.565	0.572	
0.025	0.669	0.624	
0.030	0.391	0.640	
0.035	0.209	0.607	
0.040	0.336	0.531	
0.045	0.151	0.443	
0.050	-0.045	0.346	
0.055	0.087	0.241	
0.060	0.044	0.153	
0.065	-0.106	0.085	
0.070	-0.066	0.025	
0.075	0.087	-0.016	
0.080	-0.032	-0.030	
0.085	-0.097	-0.035	
0.090	-0.046	-0.043	
0.095	-0.139	-0.054	
0.100	-0.084	-0.069	
0.105	0.152	-0.070	
0.110	0.139	-0.042	
0.115	-0.089	-0.004	
0.120	-0.097	0.009	
0.125	-0.060	-0.002	
0.130	-0.153	-0.024	
0.135	-0.165	-0.055	
0.140	-0.100	-0.087	
0.145	-0.196	-0.113	
0.150	-0.277	-0.140	
0.155	-0.188	-0.171	
0.160	-0.132	-0.190	
0.165	-0.226	-0.196	
0.170	-0.257	-0.202	
0.175	-0.208	-0.211	
0.180	-0.303	-0.222	
0.185	-0.260	-0.236	
0.190	0.082	-0.233	
0.195	0.324	-0.178	
0.200	0.295	-0.071	
0.205	0.263	0.049	
0.210	-0.087	0.133	
0.215	-0.393	0.135	
0.220	-0.494	0.049	
0.225	-0.508	-0.090	
0.230	-0.576	-0.238	
0.235	-0.491	-0.366	
0.240	-0.326	-0.448	
0.245	-0.326	-0.474	
0.250	-0.232	-0.455	
0.255	0.003	-0.398	
0.260	0.062	-0.304	
0.265	-0.087	-0.200	
0.270	0.021	-0.116	
0.275	0.218	-0.045	
0.280	0.049	0.021	
0.285	0.007	0.065	
0.290	0.165	0.085	
0.295	0.165	0.102	
0.300	0.093	0.119	
0.305	0.281	0.134	
0.310	0.339	0.163	
0.315	0.256	0.203	
0.320	0.427	0.244	
0.325	0.605	0.299	
0.330	0.403	0.364	
0.335	0.440	0.415	
0.340	0.617	0.451	
0.345	0.551	0.488	
0.350	0.473	0.517	
0.355	0.570	0.532	
0.360	0.541	0.540	
0.365	0.295	0.534	
0.370	0.241	0.496	
0.375	0.243	0.433	
0.380	-0.029	0.354	
0.385	-0.083	0.254	
0.390	-0.008	0.149	
0.395	-0.101	0.061	
0.400	-0.179	-0.012	
0.405	-0.136	-0.073	
0.410	-0.129	-0.116	
0.415	-0.225	-0.145	
0.420	-0.150	-0.166	
0.425	-0.089	-0.174	
0.430	-0.152	-0.168	
0.435	-0.173	-0.160	
0.440	-0.058	-0.152	
0.445	-0.107	-0.139	
0.450	-0.200	-0.128	
0.455	-0.145	-0.130	
0.460	-0.127	-0.135	
0.465	-0.199	-0.140	
0.470	-0.148	-0.148	
0.475	-0.132	-0.153	
0.480	-0.252	-0.159	
0.485	-0.269	-0.174	
0.490	-0.187	-0.194	
0.495	-0.245	-0.209	
0.500	-0.295	-0.223	
0.505	-0.207	-0.236	
0.510	-0.219	-0.242	
0.515	-0.378	-0.248	
0.520	-0.333	-0.265	
0.525	-0.182	-0.281	
0.530	-0.115	-0.275	
0.535	0.082	-0.236	
0.540	0.351	-0.155	
0.545	0.076	-0.047	
0.550	-0.211	0.029	
0.555	-0.304	0.030	
0.560	-0.443	-0.033	
0.565	-0.588	-0.140	
0.570	-0.530	-0.266	
0.575	-0.426	-0.375	
0.580	-0.448	-0.443	
0.585	-0.398	-0.475	
0.590	-0.234	-0.471	
0.595	-0.208	-0.431	
0.600	-0.211	-0.372	
0.605	-0.118	-0.309	
0.610	-0.055	-0.244	
0.615	-0.083	-0.181	
0.620	0.128	-0.121	
0.625	0.223	-0.051	
0.630	0.068	0.022	
0.635	0.102	0.076	
0.640	0.266	0.113	
0.645	0.252	0.151	
0.650	0.125	0.183	
0.655	0.301	0.202	
0.660	0.431	0.228	
0.665	0.273	0.264	
0.670	0.366	0.296	
0.675	0.533	0.327	
0.680	0.446	0.369	
0.685	0.470	0.409	
0.690	0.591	0.444	
0.695	0.482	0.478	
0.700	0.304	0.492	
0.705	0.403	0.477	
0.710	0.235	0.444	
0.715	-0.028	0.385	
0.720	-0.066	0.290	
0.725	-0.077	0.179	
0.730	-0.229	0.070	
0.735	-0.182	-0.029	
0.740	0.013	-0.099	
0.745	-0.113	-0.128	
0.750	-0.182	-0.137	
0.755	-0.080	-0.141	
0.760	-0.064	-0.136	
0.765	-0.090	-0.123	
0.770	0.000	-0.104	
0.775	0.000	-0.080	
0.780	-0.150	-0.061	
0.785	-0.165	-0.061	
0.790	-0.071	-0.076	
0.795	-0.139	-0.089	
0.800	-0.223	-0.106	
0.805	-0.132	-0.128	
0.810	-0.133	-0.143	
0.815	-0.171	-0.151	
0.820	-0.161	-0.156	
0.825	-0.184	-0.161	
0.830	-0.265	-0.170	
0.835	-0.248	-0.188	
0.840	-0.152	-0.204	
0.845	-0.193	-0.208	
0.850	-0.249	-0.208	
0.855	-0.236	-0.213	
0.860	-0.280	-0.222	
0.865	-0.291	-0.235	
0.870	-0.095	-0.243	
0.875	0.128	-0.218	
0.880	0.253	-0.146	
0.885	0.302	-0.041	
0.890	0.152	0.065	
0.895	-0.274	0.121	
0.900	-0.488	0.085	
0.905	-0.460	-0.027	
0.910	-0.460	-0.163	
0.915	-0.492	-0.287	
0.920	-0.398	-0.379	
0.925	-0.286	-0.428	
0.930	-0.307	-0.431	
0.935	-0.262	-0.407	
0.940	-0.083	-0.362	
0.945	-0.115	-0.298	
0.950	-0.170	-0.234	
0.955	-0.017	-0.181	
0.960	0.053	-0.129	
0.965	0.010	-0.074	
0.970	0.160	-0.023	
0.975	0.288	0.035	
0.980	0.177	0.099	
0.985	0.191	0.151	
0.990	0.293	0.188	
0.995	0.269	0.219	
1.000	0.253	0.245	
1.005	0.449	0.268	
1.010	0.524	0.308	
1.015	0.440	0.360	
1.020	0.508	0.407	
1.025	0.515	0.446	
1.030	0.447	0.475	
1.035	0.505	0.489	
1.040	0.654	0.504	
1.045	0.444	0.522	
1.050	0.197	0.515	
1.055	0.230	0.466	
1.060	0.159	0.393	
1.065	-0.048	0.308	
1.070	-0.052	0.210	
1.075	-0.011	0.115	
1.080	-0.141	0.038	
1.085	-0.181	-0.029	
1.090	-0.074	-0.083	
1.095	-0.048	-0.112	
1.100	-0.139	-0.120	
1.105	-0.068	-0.119	
1.110	-0.037	-0.112	
1.115	-0.145	-0.100	
1.120	-0.110	-0.097	
1.125	-0.083	-0.098	
1.130	-0.152	-0.100	
1.135	-0.089	-0.104	
1.140	-0.043	-0.105	
1.145	-0.115	-0.099	
1.150	-0.177	-0.098	
1.155	-0.121	-0.107	
1.160	-0.168	-0.119	
1.165	-0.292	-0.137	
1.170	-0.272	-0.168	
1.175	-0.248	-0.203	
1.180	-0.347	-0.233	
1.185	-0.335	-0.264	
1.190	-0.272	-0.290	
1.195	-0.327	-0.305	
1.200	-0.323	-0.314	
1.205	-0.193	-0.314	
1.210	-0.170	-0.297	
1.215	-0.205	-0.267	
1.220	0.026	-0.229	
1.225	0.308	-0.161	
1.230	0.088	-0.064	
1.235	-0.155	0.011	
1.240	-0.332	0.020	
1.245	-0.587	-0.044	
1.250	-0.694	-0.169	
1.255	-0.592	-0.317	
1.260	-0.533	-0.443	
1.265	-0.488	-0.522	
1.270	-0.352	-0.551	
1.275	-0.228	-0.528	
1.280	-0.223	-0.467	
1.285	-0.211	-0.392	
1.290	-0.048	-0.315	
1.295	-0.037	-0.234	
1.300	-0.086	-0.161	
1.305	0.038	-0.103	
1.310	0.085	-0.052	
1.315	-0.026	-0.009	
1.320	0.061	0.018	
1.325	0.183	0.041	
1.330	0.151	0.071	
1.335	0.240	0.107	
1.340	0.398	0.152	
1.345	0.325	0.209	
1.350	0.374	0.264	
1.355	0.670	0.323	
1.360	0.718	0.404	
1.365	0.528	0.491	
1.370	0.583	0.552	
1.375	0.728	0.592	
1.380	0.486	0.619	
1.385	0.452	0.617	
1.390	0.585	0.594	
1.395	0.340	0.563	
1.400	0.073	0.506	
1.405	0.162	0.414	
1.410	0.053	0.313	
1.415	-0.097	0.214	
1.420	-0.098	0.115	
1.425	-0.095	0.027	
1.430	-0.222	-0.045	
1.435	-0.228	-0.107	
1.440	-0.116	-0.155	
1.445	-0.153	-0.178	
1.450	-0.199	-0.185	
1.455	-0.097	-0.184	
1.460	-0.063	-0.171	
1.465	-0.165	-0.151	
1.470	-0.135	-0.137	
1.475	-0.090	-0.130	
1.480	-0.185	-0.125	
1.485	-0.203	-0.130	
1.490	-0.130	-0.142	
1.495	-0.136	-0.149	
1.500	-0.171	-0.152	
1.505	-0.145	-0.154	
1.510	-0.199	-0.157	
1.515	-0.312	-0.169	
1.520	-0.281	-0.195	
1.525	-0.232	-0.222	
1.530	-0.306	-0.244	
1.535	-0.298	-0.262	
1.540	-0.229	-0.275	
1.545	-0.321	-0.280	
1.550	-0.394	-0.289	
1.555	-0.297	-0.305	
1.560	-0.147	-0.309	
1.565	0.030	-0.280	
1.570	0.386	-0.200	
1.575	0.372	-0.070	
1.580	-0.130	0.054	
1.585	-0.379	0.092	
1.590	-0.512	0.029	
1.595	-0.672	-0.103	
1.600	-0.695	-0.266	
1.605	-0.520	-0.417	
1.610	-0.445	-0.515	
1.615	-0.420	-0.552	
1.620	-0.262	-0.540	
1.625	-0.119	-0.483	
1.630	-0.135	-0.396	
1.635	-0.078	-0.301	
1.640	0.078	-0.209	
1.645	0.015	-0.121	
1.650	-0.042	-0.052	
1.655	0.107	-0.007	
1.660	0.186	0.033	
1.665	0.061	0.072	
1.670	0.195	0.100	
1.675	0.357	0.133	
1.680	0.238	0.178	
1.685	0.285	0.219	
1.690	0.551	0.261	
1.695	0.533	0.322	
1.700	0.504	0.391	
1.705	0.680	0.455	
1.710	0.663	0.519	
1.715	0.557	0.573	
1.720	0.724	0.609	
1.725	0.837	0.646	
1.730	0.623	0.684	
1.735	0.556	0.698	
1.740	0.577	0.683	
1.745	0.292	0.642	
1.750	0.018	0.558	
1.755	0.059	0.431	
1.760	-0.057	0.293	
1.765	-0.231	0.158	
1.770	-0.165	0.031	
1.775	-0.133	-0.070	
1.780	-0.263	-0.138	
1.785	-0.216	-0.187	
1.790	-0.080	-0.212	
1.795	-0.100	-0.207	
1.800	-0.145	-0.186	
1.805	-0.057	-0.162	
1.810	-0.093	-0.137	
1.815	-0.217	-0.120	
1.820	-0.173	-0.122	
1.825	-0.104	-0.131	
1.830	-0.188	-0.138	
1.835	-0.165	-0.146	
1.840	-0.066	-0.149	
1.845	-0.165	-0.145	
1.850	-0.231	-0.145	
1.855	-0.171	-0.155	
1.860	-0.228	-0.168	
1.865	-0.341	-0.189	
1.870	-0.303	-0.220	
1.875	-0.294	-0.252	
1.880	-0.332	-0.277	
1.885	-0.295	-0.296	
1.890	-0.223	-0.304	
1.895	-0.286	-0.299	
1.900	-0.289	-0.291	
1.905	-0.121	-0.279	
1.910	0.169	-0.239	
1.915	0.288	-0.151	
1.920	0.270	-0.033	
1.925	-0.064	0.066	
1.930	-0.434	0.089	
1.935	-0.619	0.013	
1.940	-0.651	-0.135	
1.945	-0.676	-0.302	
1.950	-0.621	-0.450	
1.955	-0.437	-0.548	
1.960	-0.336	-0.579	
1.965	-0.309	-0.554	
1.970	-0.141	-0.489	
1.975	0.076	-0.391	
1.980	-0.020	-0.271	
1.985	-0.013	-0.161	
1.990	0.224	-0.069	
1.995	0.247	0.021	
2.000	0.157	0.101	
2.005	0.340	0.164	
2.010	0.308	0.217	
2.015	0.185	0.256	
2.020	0.440	0.279	
2.025	0.557	0.314	
2.030	0.444	0.365	
2.035	0.541	0.415	
2.040	0.765	0.468	
2.045	0.731	0.537	
2.050	0.680	0.606	
2.055	0.849	0.664	
2.060	0.898	0.721	
2.065	0.773	0.774	
2.070	0.816	0.807	
2.075	0.762	0.821	
2.080	0.463	0.805	
2.085	0.350	0.743	
2.090	0.513	0.653	
2.095	0.327	0.566	
2.100	0.084	0.477	
2.105	0.120	0.373	
2.110	-0.031	0.267	
2.115	-0.176	0.160	
2.120	-0.118	0.055	
2.125	-0.106	-0.031	
2.130	-0.219	-0.093	
2.135	-0.179	-0.139	
2.140	-0.035	-0.165	
2.145	-0.107	-0.163	
2.150	-0.150	-0.151	
2.155	-0.042	-0.138	
2.160	-0.046	-0.119	
2.165	-0.152	-0.101	
2.170	-0.118	-0.095	
2.175	-0.112	-0.097	
2.180	-0.176	-0.105	
2.185	-0.127	-0.116	
2.190	-0.038	-0.122	
2.195	-0.133	-0.118	
2.200	-0.213	-0.118	
2.205	-0.181	-0.130	
2.210	-0.240	-0.150	
2.215	-0.333	-0.178	
2.220	-0.275	-0.213	
2.225	-0.231	-0.243	
2.230	-0.352	-0.263	
2.235	-0.300	-0.281	
2.240	-0.203	-0.291	
2.245	-0.284	-0.288	
2.250	-0.274	-0.282	
2.255	0.052	-0.263	
2.260	0.278	-0.200	
2.265	0.125	-0.098	
2.270	-0.068	-0.009	
2.275	-0.287	0.023	
2.280	-0.587	-0.022	
2.285	-0.744	-0.142	
2.290	-0.665	-0.301	
2.295	-0.610	-0.448	
2.300	-0.547	-0.549	
2.305	-0.323	-0.591	
2.310	-0.214	-0.568	
2.315	-0.232	-0.497	
2.320	-0.055	-0.404	
2.325	0.050	-0.297	
2.330	0.027	-0.187	
2.335	0.067	-0.090	
2.340	0.238	-0.007	
2.345	0.183	0.068	
2.350	0.145	0.127	
2.355	0.305	0.169	
2.360	0.314	0.207	
2.365	0.218	0.241	
2.370	0.434	0.268	
2.375	0.562	0.308	
2.380	0.498	0.365	
2.385	0.570	0.424	
2.390	0.736	0.485	
2.395	0.770	0.554	
2.400	0.762	0.627	
2.405	0.915	0.695	
2.410	0.912	0.761	
2.415	0.690	0.812	
2.420	0.776	0.829	
2.425	0.776	0.823	
2.430	0.484	0.798	
2.435	0.394	0.737	
2.440	0.377	0.647	
2.445	0.101	0.541	
2.450	-0.081	0.412	
2.455	0.075	0.273	
2.460	-0.022	0.157	
2.465	-0.179	0.063	
2.470	-0.113	-0.017	
2.475	-0.080	-0.075	
2.480	-0.193	-0.112	
2.485	-0.184	-0.139	
2.490	-0.112	-0.158	
2.495	-0.148	-0.164	
2.500	-0.173	-0.163	
2.505	-0.112	-0.161	
2.510	-0.089	-0.152	
2.515	-0.129	-0.139	
2.520	-0.052	-0.126	
2.525	-0.006	-0.107	
2.530	-0.165	-0.088	
2.535	-0.177	-0.087	
2.540	-0.075	-0.097	
2.545	-0.113	-0.105	
2.550	-0.199	-0.113	
2.555	-0.113	-0.124	
2.560	-0.152	-0.134	
2.565	-0.277	-0.146	
2.570	-0.240	-0.168	
2.575	-0.197	-0.192	
2.580	-0.272	-0.211	
2.585	-0.257	-0.227	
2.590	-0.219	-0.239	
2.595	-0.243	-0.244	
2.600	-0.158	-0.242	
2.605	0.143	-0.215	
2.610	0.327	-0.141	
2.615	0.211	-0.032	
2.620	-0.038	0.060	
2.625	-0.303	0.086	
2.630	-0.592	0.027	
2.635	-0.669	-0.107	
2.640	-0.590	-0.270	
2.645	-0.555	-0.411	
2.650	-0.482	-0.505	
2.655	-0.292	-0.541	
2.660	-0.144	-0.515	
2.665	-0.118	-0.440	
2.670	0.013	-0.338	
2.675	0.143	-0.223	
2.680	0.085	-0.108	
2.685	0.137	-0.010	
2.690	0.376	0.073	
2.695	0.290	0.155	
2.700	0.240	0.222	
2.705	0.366	0.266	
2.710	0.453	0.305	
2.715	0.380	0.344	
2.720	0.544	0.380	
2.725	0.655	0.426	
2.730	0.556	0.481	
2.735	0.693	0.533	
2.740	0.950	0.594	
2.745	0.990	0.679	
2.750	0.952	0.775	
2.755	1.077	0.862	
2.760	1.000	0.935	
2.765	0.739	0.975	
2.770	0.744	0.963	
2.775	0.744	0.917	
2.780	0.446	0.848	
2.785	0.259	0.745	
2.790	0.278	0.615	
2.795	0.072	0.478	
2.800	-0.064	0.339	
2.805	0.097	0.210	
2.810	-0.029	0.112	
2.815	-0.164	0.038	
2.820	-0.129	-0.028	
2.825	-0.136	-0.081	
2.830	-0.213	-0.121	
2.835	-0.177	-0.152	
2.840	-0.118	-0.171	
2.845	-0.188	-0.176	
2.850	-0.193	-0.178	
2.855	-0.064	-0.176	
2.860	-0.072	-0.160	
2.865	-0.109	-0.138	
2.870	-0.025	-0.116	
2.875	0.033	-0.089	
2.880	-0.115	-0.063	
2.885	-0.144	-0.054	
2.890	-0.090	-0.063	
2.895	-0.191	-0.079	
2.900	-0.271	-0.107	
2.905	-0.262	-0.147	
2.910	-0.301	-0.190	
2.915	-0.304	-0.230	
2.920	-0.196	-0.258	
2.925	-0.170	-0.264	
2.930	-0.297	-0.257	
2.935	-0.317	-0.256	
2.940	-0.255	-0.263	
2.945	-0.286	-0.269	
2.950	-0.182	-0.269	
2.955	0.227	-0.239	
2.960	0.385	-0.150	
2.965	0.079	-0.029	
2.970	-0.164	0.054	
2.975	-0.384	0.055	
2.980	-0.648	-0.027	
2.985	-0.694	-0.172	
2.990	-0.616	-0.334	
2.995	-0.581	-0.468	
3.000	-0.486	-0.551	
3.005	-0.312	-0.577	
3.010	-0.229	-0.545	
3.015	-0.217	-0.474	
3.020	-0.069	-0.386	
3.025	0.027	-0.286	
3.030	-0.078	-0.189	
3.035	0.032	-0.110	
3.040	0.229	-0.042	
3.045	0.142	0.029	
3.050	0.133	0.088	
3.055	0.249	0.131	
3.060	0.236	0.168	
3.065	0.212	0.198	
3.070	0.437	0.227	
3.075	0.602	0.277	
3.080	0.534	0.351	
3.085	0.582	0.427	
3.090	0.758	0.498	
3.095	0.728	0.572	
3.100	0.739	0.639	
3.105	0.912	0.698	
3.110	0.825	0.754	
3.115	0.620	0.790	
3.120	0.641	0.786	
3.125	0.612	0.755	
3.130	0.314	0.701	
3.135	0.159	0.610	
3.140	0.137	0.488	
3.145	-0.063	0.355	
3.150	-0.124	0.219	
3.155	-0.077	0.094	
3.160	-0.147	-0.005	
3.165	-0.226	-0.080	
3.170	-0.173	-0.138	
3.175	-0.130	-0.173	
3.180	-0.211	-0.188	
3.185	-0.203	-0.196	
3.190	-0.104	-0.197	
3.195	-0.165	-0.188	
3.200	-0.185	-0.177	
3.205	-0.090	-0.168	
3.210	-0.129	-0.155	
3.215	-0.222	-0.147	
3.220	-0.072	-0.145	
3.225	-0.031	-0.136	
3.230	-0.187	-0.121	
3.235	-0.184	-0.119	
3.240	-0.069	-0.124	
3.245	-0.176	-0.127	
3.250	-0.236	-0.135	
3.255	-0.184	-0.153	
3.260	-0.228	-0.171	
3.265	-0.333	-0.194	
3.270	-0.274	-0.223	
3.275	-0.217	-0.247	
3.280	-0.291	-0.259	
3.285	-0.269	-0.267	
3.290	-0.239	-0.270	
3.295	-0.274	-0.269	
3.300	-0.210	-0.265	
3.305	0.053	-0.244	
3.310	0.267	-0.181	
3.315	0.113	-0.084	
3.320	-0.090	-0.002	
3.325	-0.353	0.019	
3.330	-0.566	-0.037	
3.335	-0.634	-0.156	
3.340	-0.575	-0.296	
3.345	-0.547	-0.418	
3.350	-0.457	-0.499	
3.355	-0.278	-0.527	
3.360	-0.226	-0.501	
3.365	-0.236	-0.440	
3.370	-0.135	-0.367	
3.375	0.015	-0.286	
3.380	-0.048	-0.201	
3.385	0.042	-0.123	
3.390	0.186	-0.052	
3.395	0.102	0.016	
3.400	0.076	0.068	
3.405	0.318	0.108	
3.410	0.307	0.154	
3.415	0.180	0.200	
3.420	0.386	0.234	
3.425	0.534	0.276	
3.430	0.429	0.333	
3.435	0.502	0.387	
3.440	0.710	0.441	
3.445	0.576	0.501	
3.450	0.565	0.550	
3.455	0.808	0.589	
3.460	0.738	0.634	
3.465	0.611	0.673	
3.470	0.704	0.690	
3.475	0.629	0.694	
3.480	0.327	0.673	
3.485	0.293	0.611	
3.490	0.263	0.522	
3.495	0.036	0.422	
3.500	-0.092	0.306	
3.505	-0.051	0.183	
3.510	-0.124	0.074	
3.515	-0.239	-0.018	
3.520	-0.187	-0.096	
3.525	-0.100	-0.150	
3.530	-0.171	-0.174	
3.535	-0.130	-0.180	
3.540	-0.028	-0.171	
3.545	-0.135	-0.150	
3.550	-0.136	-0.132	
3.555	-0.020	-0.118	
3.560	-0.057	-0.101	
3.565	-0.159	-0.087	
3.570	-0.069	-0.085	
3.575	-0.026	-0.083	
3.580	-0.129	-0.078	
3.585	-0.136	-0.081	
3.590	-0.061	-0.089	
3.595	-0.127	-0.094	
3.600	-0.185	-0.102	
3.605	-0.159	-0.118	
3.610	-0.202	-0.136	
3.615	-0.269	-0.159	
3.620	-0.220	-0.185	
3.625	-0.177	-0.204	
3.630	-0.228	-0.213	
3.635	-0.219	-0.218	
3.640	-0.188	-0.219	
3.645	-0.211	-0.216	
3.650	-0.148	-0.210	
3.655	0.232	-0.181	
3.660	0.398	-0.101	
3.665	0.149	0.012	
3.670	-0.141	0.091	
3.675	-0.346	0.091	
3.680	-0.556	0.010	
3.685	-0.601	-0.127	
3.690	-0.509	-0.275	
3.695	-0.498	-0.395	
3.700	-0.430	-0.470	
3.705	-0.245	-0.494	
3.710	-0.164	-0.465	
3.715	-0.165	-0.399	
3.720	-0.064	-0.318	
3.725	0.052	-0.231	
3.730	-0.040	-0.146	
3.735	0.059	-0.075	
3.740	0.206	-0.014	
3.745	0.117	0.046	
3.750	0.111	0.093	
3.755	0.284	0.127	
3.760	0.319	0.167	
3.765	0.165	0.206	
3.770	0.321	0.231	
3.775	0.415	0.258	
3.780	0.360	0.293	
3.785	0.563	0.334	
3.790	0.736	0.396	
3.795	0.585	0.474	
3.800	0.628	0.542	
3.805	0.826	0.598	
3.810	0.761	0.656	
3.815	0.582	0.698	
3.820	0.620	0.708	
3.825	0.537	0.691	
3.830	0.266	0.645	
3.835	0.125	0.559	
3.840	0.163	0.445	
3.845	-0.058	0.324	
3.850	-0.182	0.199	
3.855	-0.133	0.075	
3.860	-0.203	-0.030	
3.865	-0.284	-0.114	
3.870	-0.197	-0.179	
3.875	-0.133	-0.215	
3.880	-0.216	-0.225	
3.885	-0.174	-0.222	
3.890	-0.113	-0.211	
3.895	-0.174	-0.193	
3.900	-0.188	-0.179	
3.905	-0.107	-0.169	
3.910	-0.144	-0.158	
3.915	-0.210	-0.152	
3.920	-0.162	-0.154	
3.925	-0.139	-0.158	
3.930	-0.274	-0.163	
3.935	-0.274	-0.180	
3.940	-0.119	-0.199	
3.945	-0.194	-0.204	
3.950	-0.268	-0.204	
3.955	-0.226	-0.211	
3.960	-0.277	-0.221	
3.965	-0.378	-0.239	
3.970	-0.303	-0.265	
3.975	-0.258	-0.286	
3.980	-0.352	-0.298	
3.985	-0.347	-0.309	
3.990	-0.332	-0.321	
3.995	-0.346	-0.330	
4.000	-0.188	-0.330	
4.005	0.236	-0.291	
4.010	0.288	-0.192	
4.015	-0.029	-0.071	
4.020	-0.260	-0.000	
4.025	-0.526	-0.015	
4.030	-0.747	-0.114	
4.035	-0.726	-0.269	
4.040	-0.605	-0.425	
4.045	-0.561	-0.538	
4.050	-0.482	-0.596	
4.055	-0.313	-0.600	
4.060	-0.248	-0.553	
4.065	-0.294	-0.479	
4.070	-0.112	-0.398	
4.075	0.064	-0.306	
4.080	-0.048	-0.205	
4.085	0.015	-0.119	
4.090	0.101	-0.050	
4.095	0.006	0.003	
4.100	0.024	0.035	
4.105	0.247	0.058	
4.110	0.314	0.097	
4.115	0.272	0.151	
4.120	0.467	0.211	
4.125	0.557	0.283	
4.130	0.441	0.359	
4.135	0.513	0.421	
4.140	0.722	0.474	
4.145	0.736	0.537	
4.150	0.707	0.603	
4.155	0.780	0.659	
4.160	0.773	0.706	
4.165	0.710	0.738	
4.170	0.745	0.754	
4.175	0.649	0.754	
4.180	0.316	0.723	
4.185	0.174	0.642	
4.190	0.189	0.523	
4.195	-0.061	0.391	
4.200	-0.148	0.250	
4.205	-0.072	0.114	
4.210	-0.141	0.007	
4.215	-0.219	-0.074	
4.220	-0.170	-0.134	
4.225	-0.144	-0.172	
4.230	-0.208	-0.189	
4.235	-0.162	-0.196	
4.240	-0.092	-0.192	
4.245	-0.176	-0.179	
4.250	-0.216	-0.170	
4.255	-0.106	-0.167	
4.260	-0.132	-0.160	
4.265	-0.194	-0.154	
4.270	-0.075	-0.149	
4.275	-0.042	-0.138	
4.280	-0.144	-0.120	
4.285	-0.135	-0.111	
4.290	-0.090	-0.109	
4.295	-0.194	-0.112	
4.300	-0.246	-0.126	
4.305	-0.179	-0.149	
4.310	-0.216	-0.171	
4.315	-0.287	-0.192	
4.320	-0.240	-0.214	
4.325	-0.239	-0.232	
4.330	-0.338	-0.247	
4.335	-0.350	-0.267	
4.340	-0.237	-0.286	
4.345	-0.214	-0.291	
4.350	-0.107	-0.275	
4.355	0.359	-0.220	
4.360	0.499	-0.101	
4.365	0.181	0.047	
4.370	-0.069	0.148	
4.375	-0.335	0.157	
4.380	-0.590	0.071	
4.385	-0.656	-0.085	
4.390	-0.602	-0.261	
4.395	-0.570	-0.412	
4.400	-0.482	-0.512	
4.405	-0.254	-0.550	
4.410	-0.139	-0.519	
4.415	-0.106	-0.437	
4.420	0.061	-0.330	
4.425	0.154	-0.208	
4.430	0.061	-0.090	
4.435	0.195	0.006	
4.440	0.363	0.090	
4.445	0.288	0.171	
4.450	0.319	0.237	
4.455	0.525	0.293	
4.460	0.453	0.350	
4.465	0.305	0.394	
4.470	0.441	0.412	
4.475	0.608	0.428	
4.480	0.597	0.461	
4.485	0.738	0.509	
4.490	0.895	0.576	
4.495	0.822	0.657	
4.500	0.790	0.729	
4.505	0.939	0.784	
4.510	0.875	0.830	
4.515	0.716	0.856	
4.520	0.736	0.852	
4.525	0.647	0.823	
4.530	0.397	0.769	
4.535	0.281	0.680	
4.540	0.174	0.563	
4.545	0.065	0.434	
4.550	0.007	0.304	
4.555	0.010	0.189	
4.560	-0.101	0.094	
4.565	-0.165	0.013	
4.570	-0.071	-0.052	
4.575	-0.092	-0.093	
4.580	-0.199	-0.117	
4.585	-0.148	-0.136	
4.590	-0.049	-0.146	
4.595	-0.139	-0.142	
4.600	-0.141	-0.135	
4.605	-0.035	-0.128	
4.610	-0.100	-0.115	
4.615	-0.161	-0.106	
4.620	-0.060	-0.104	
4.625	-0.009	-0.097	
4.630	-0.148	-0.086	
4.635	-0.142	-0.086	
4.640	-0.068	-0.093	
4.645	-0.161	-0.099	
4.650	-0.226	-0.113	
4.655	-0.211	-0.136	
4.660	-0.240	-0.164	
4.665	-0.271	-0.192	
4.670	-0.208	-0.215	
4.675	-0.210	-0.229	
4.680	-0.298	-0.236	
4.685	-0.246	-0.244	
4.690	-0.211	-0.250	
4.695	-0.255	-0.249	
4.700	-0.144	-0.242	
4.705	0.275	-0.207	
4.710	0.435	-0.113	
4.715	0.188	0.016	
4.720	-0.071	0.111	
4.725	-0.294	0.125	
4.730	-0.561	0.053	
4.735	-0.628	-0.086	
4.740	-0.538	-0.248	
4.745	-0.483	-0.382	
4.750	-0.349	-0.463	
4.755	-0.103	-0.477	
4.760	-0.017	-0.422	
4.765	0.001	-0.323	
4.770	0.197	-0.207	
4.775	0.275	-0.080	
4.780	0.175	0.039	
4.785	0.325	0.135	
4.790	0.537	0.220	
4.795	0.402	0.304	
4.800	0.266	0.363	
4.805	0.469	0.390	
4.810	0.596	0.414	
4.815	0.563	0.452	
4.820	0.727	0.501	
4.825	0.771	0.561	
4.830	0.673	0.622	
4.835	0.768	0.671	
4.840	0.956	0.717	
4.845	0.904	0.773	
4.850	0.898	0.827	
4.855	1.107	0.876	
4.860	1.020	0.930	
4.865	0.843	0.968	
4.870	0.828	0.972	
4.875	0.753	0.944	
4.880	0.486	0.886	
4.885	0.423	0.793	
4.890	0.368	0.680	
4.895	0.140	0.558	
4.900	0.015	0.426	
4.905	0.088	0.294	
4.910	-0.037	0.182	
4.915	-0.197	0.085	
4.920	-0.103	-0.003	
4.925	-0.035	-0.066	
4.930	-0.129	-0.099	
4.935	-0.133	-0.116	
4.940	-0.029	-0.123	
4.945	-0.072	-0.116	
4.950	-0.090	-0.103	
4.955	0.027	-0.088	
4.960	-0.066	-0.069	
4.965	-0.136	-0.058	
4.970	-0.074	-0.061	
4.975	-0.060	-0.067	
4.980	-0.138	-0.073	
4.985	-0.080	-0.082	
4.990	-0.023	-0.085	
4.995	-0.170	-0.085	
5.000	-0.220	-0.096	
5.005	-0.167	-0.120	
5.010	-0.214	-0.145	
5.015	-0.243	-0.169	
5.020	-0.190	-0.191	
5.025	-0.210	-0.205	
5.030	-0.255	-0.214	
5.035	-0.193	-0.221	
5.040	-0.132	-0.219	
5.045	-0.222	-0.209	
5.050	-0.168	-0.200	
5.055	0.181	-0.176	
5.060	0.420	-0.103	
5.065	0.296	0.012	
5.070	0.064	0.116	
5.075	-0.200	0.157	
5.080	-0.489	0.109	
5.085	-0.598	-0.016	
5.090	-0.538	-0.177	
5.095	-0.533	-0.326	
5.100	-0.433	-0.433	
5.105	-0.242	-0.481	
5.110	-0.177	-0.466	
5.115	-0.164	-0.408	
5.120	0.013	-0.327	
5.125	0.122	-0.227	
5.130	0.026	-0.123	
5.135	0.157	-0.034	
5.140	0.301	0.045	
5.145	0.122	0.117	
5.150	0.087	0.160	
5.155	0.288	0.178	
5.160	0.256	0.197	
5.165	0.214	0.216	
5.170	0.453	0.239	
5.175	0.582	0.284	
5.180	0.513	0.352	
5.185	0.605	0.423	
5.190	0.808	0.496	
5.195	0.747	0.578	
5.200	0.684	0.649	
5.205	0.820	0.700	
5.210	0.820	0.740	
5.215	0.759	0.772	
5.220	0.838	0.792	
5.225	0.725	0.802	
5.230	0.402	0.782	
5.235	0.353	0.715	
5.240	0.376	0.619	
5.245	0.108	0.513	
5.250	-0.005	0.393	
5.255	0.061	0.269	
5.260	-0.075	0.161	
5.265	-0.167	0.066	
5.270	-0.144	-0.019	
5.275	-0.161	-0.085	
5.280	-0.173	-0.131	
5.285	-0.101	-0.158	
5.290	0.012	-0.159	
5.295	-0.084	-0.137	
5.300	-0.092	-0.113	
5.305	0.049	-0.090	
5.310	-0.040	-0.064	
5.315	-0.126	-0.046	
5.320	-0.078	-0.046	
5.325	-0.042	-0.053	
5.330	-0.133	-0.060	
5.335	-0.139	-0.073	
5.340	-0.098	-0.089	
5.345	-0.158	-0.104	
5.350	-0.167	-0.118	
5.355	-0.107	-0.131	
5.360	-0.174	-0.139	
5.365	-0.254	-0.150	
5.370	-0.210	-0.169	
5.375	-0.223	-0.188	
5.380	-0.283	-0.206	
5.385	-0.255	-0.225	
5.390	-0.234	-0.241	
5.395	-0.280	-0.250	
5.400	-0.225	-0.255	
5.405	0.046	-0.243	
5.410	0.197	-0.189	
5.415	0.127	-0.101	
5.420	-0.023	-0.020	
5.425	-0.307	0.013	
5.430	-0.588	-0.029	
5.435	-0.657	-0.144	
5.440	-0.627	-0.290	
5.445	-0.616	-0.425	
5.450	-0.544	-0.524	
5.455	-0.336	-0.570	
5.460	-0.219	-0.554	
5.465	-0.208	-0.489	
5.470	-0.071	-0.399	
5.475	0.072	-0.294	
5.480	-0.045	-0.187	
5.485	0.023	-0.100	
5.490	0.186	-0.030	
5.495	0.088	0.033	
5.500	0.055	0.076	
5.505	0.198	0.102	
5.510	0.149	0.124	
5.515	0.131	0.140	
5.520	0.431	0.162	
5.525	0.495	0.211	
5.530	0.403	0.280	
5.535	0.527	0.347	
5.540	0.719	0.416	
5.545	0.658	0.494	
5.550	0.655	0.566	
5.555	0.779	0.623	
5.560	0.709	0.671	
5.565	0.614	0.701	
5.570	0.599	0.703	
5.575	0.515	0.681	
5.580	0.336	0.636	
5.585	0.295	0.564	
5.590	0.171	0.476	
5.595	-0.038	0.372	
5.600	-0.083	0.253	
5.605	-0.072	0.135	
5.610	-0.158	0.034	
5.615	-0.251	-0.051	
5.620	-0.211	-0.124	
5.625	-0.210	-0.177	
5.630	-0.283	-0.213	
5.635	-0.236	-0.238	
5.640	-0.167	-0.249	
5.645	-0.187	-0.243	
5.650	-0.210	-0.230	
5.655	-0.156	-0.216	
5.660	-0.184	-0.202	
5.665	-0.213	-0.192	
5.670	-0.109	-0.184	
5.675	-0.068	-0.170	
5.680	-0.173	-0.150	
5.685	-0.165	-0.140	
5.690	-0.147	-0.139	
5.695	-0.265	-0.146	
5.700	-0.317	-0.169	
5.705	-0.239	-0.201	
5.710	-0.280	-0.229	
5.715	-0.330	-0.253	
5.720	-0.280	-0.274	
5.725	-0.271	-0.288	
5.730	-0.356	-0.295	
5.735	-0.336	-0.306	
5.740	-0.297	-0.315	
5.745	-0.344	-0.321	
5.750	-0.243	-0.321	
5.755	0.010	-0.300	
5.760	0.166	-0.236	
5.765	0.050	-0.144	
5.770	-0.112	-0.064	
5.775	-0.388	-0.039	
5.780	-0.682	-0.092	
5.785	-0.749	-0.217	
5.790	-0.691	-0.370	
5.795	-0.660	-0.506	
5.800	-0.535	-0.597	
5.805	-0.341	-0.627	
5.810	-0.275	-0.595	
5.815	-0.242	-0.522	
5.820	-0.126	-0.430	
5.825	-0.098	-0.333	
5.830	-0.177	-0.247	
5.835	-0.130	-0.186	
5.840	0.079	-0.138	
5.845	0.090	-0.084	
5.850	0.151	-0.023	
5.855	0.233	0.041	
5.860	0.273	0.105	
5.865	0.238	0.164	
5.870	0.441	0.218	
5.875	0.519	0.280	
5.880	0.415	0.346	
5.885	0.583	0.404	
5.890	0.739	0.465	
5.895	0.698	0.536	
5.900	0.764	0.606	
5.905	0.965	0.676	
5.910	0.837	0.748	
5.915	0.660	0.798	
5.920	0.680	0.806	
5.925	0.588	0.782	
5.930	0.391	0.729	
5.935	0.285	0.645	
5.940	0.120	0.534	
5.945	-0.101	0.401	
5.950	-0.051	0.255	
5.955	-0.020	0.126	
5.960	-0.168	0.028	
5.965	-0.251	-0.054	
5.970	-0.199	-0.124	
5.975	-0.229	-0.176	
5.980	-0.307	-0.214	
5.985	-0.251	-0.244	
5.990	-0.193	-0.259	
5.995	-0.254	-0.260	
6.000	-0.217	-0.255	
6.005	-0.121	-0.243	
6.010	-0.181	-0.221	
6.015	-0.168	-0.200	
6.020	-0.078	-0.180	
6.025	-0.089	-0.156	
6.030	-0.194	-0.136	
6.035	-0.217	-0.133	
6.040	-0.194	-0.145	
6.045	-0.220	-0.163	
6.050	-0.242	-0.181	
6.055	-0.219	-0.200	
6.060	-0.315	-0.218	
6.065	-0.388	-0.244	
6.070	-0.298	-0.275	
6.075	-0.271	-0.298	
6.080	-0.318	-0.308	
6.085	-0.298	-0.311	
6.090	-0.315	-0.312	
6.095	-0.414	-0.317	
6.100	-0.333	-0.329	
6.105	-0.003	-0.324	
6.110	0.305	-0.264	
6.115	0.310	-0.143	
6.120	0.217	-0.005	
6.125	-0.200	0.089	
6.130	-0.538	0.086	
6.135	-0.668	-0.021	
6.140	-0.677	-0.188	
6.145	-0.708	-0.361	
6.150	-0.593	-0.503	
6.155	-0.426	-0.588	
6.160	-0.306	-0.601	
6.165	-0.223	-0.555	
6.170	-0.077	-0.469	
6.175	-0.064	-0.360	
6.180	-0.046	-0.251	
6.185	0.082	-0.155	
6.190	0.208	-0.064	
6.195	0.165	0.023	
6.200	0.235	0.097	
6.205	0.418	0.164	
6.210	0.368	0.233	
6.215	0.290	0.291	
6.220	0.490	0.332	
6.225	0.603	0.377	
6.230	0.580	0.435	
6.235	0.718	0.498	
6.240	0.867	0.570	
6.245	0.884	0.654	
6.250	0.962	0.741	
6.255	1.080	0.826	
6.260	0.918	0.902	
6.265	0.826	0.945	
6.270	0.872	0.951	
6.275	0.747	0.932	
6.280	0.499	0.882	
6.285	0.418	0.795	
6.290	0.365	0.684	
6.295	0.113	0.561	
6.300	-0.020	0.424	
6.305	-0.043	0.279	
6.310	-0.129	0.146	
6.315	-0.187	0.031	
6.320	-0.147	-0.061	
6.325	-0.177	-0.126	
6.330	-0.251	-0.169	
6.335	-0.210	-0.200	
6.340	-0.158	-0.217	
6.345	-0.177	-0.217	
6.350	-0.142	-0.208	
6.355	-0.093	-0.190	
6.360	-0.176	-0.170	
6.365	-0.196	-0.158	
6.370	-0.092	-0.154	
6.375	-0.075	-0.144	
6.380	-0.171	-0.132	
6.385	-0.155	-0.128	
6.390	-0.153	-0.132	
6.395	-0.243	-0.142	
6.400	-0.258	-0.162	
6.405	-0.249	-0.188	
6.410	-0.286	-0.215	
6.415	-0.284	-0.239	
6.420	-0.194	-0.255	
6.425	-0.205	-0.257	
6.430	-0.295	-0.252	
6.435	-0.281	-0.252	
6.440	-0.272	-0.258	
6.445	-0.364	-0.268	
6.450	-0.352	-0.286	
6.455	-0.136	-0.298	
6.460	0.039	-0.275	
6.465	0.146	-0.209	
6.470	0.082	-0.119	
6.475	-0.223	-0.049	
6.480	-0.488	-0.045	
6.485	-0.572	-0.116	
6.490	-0.631	-0.234	
6.495	-0.708	-0.366	
6.500	-0.650	-0.488	
6.505	-0.474	-0.572	
6.510	-0.399	-0.600	
6.515	-0.381	-0.579	
6.520	-0.208	-0.525	
6.525	-0.153	-0.446	
6.530	-0.170	-0.356	
6.535	-0.034	-0.270	
6.540	0.091	-0.185	
6.545	0.017	-0.101	
6.550	0.055	-0.033	
6.555	0.157	0.019	
6.560	0.044	0.061	
6.565	0.047	0.083	
6.570	0.293	0.099	
6.575	0.337	0.133	
6.580	0.223	0.180	
6.585	0.366	0.223	
6.590	0.542	0.272	
6.595	0.461	0.334	
6.600	0.537	0.395	
6.605	0.654	0.454	
6.610	0.608	0.512	
6.615	0.638	0.561	
6.620	0.770	0.605	
6.625	0.611	0.643	
6.630	0.342	0.651	
6.635	0.308	0.609	
6.640	0.197	0.529	
6.645	-0.048	0.422	
6.650	-0.109	0.291	
6.655	-0.063	0.158	
6.660	-0.158	0.045	
6.665	-0.217	-0.046	
6.670	-0.121	-0.115	
6.675	-0.153	-0.156	
6.680	-0.246	-0.179	
6.685	-0.229	-0.197	
6.690	-0.182	-0.211	
6.695	-0.202	-0.215	
6.700	-0.152	-0.212	
6.705	-0.090	-0.198	
6.710	-0.127	-0.176	
6.715	-0.156	-0.156	
6.720	-0.061	-0.140	
6.725	-0.092	-0.124	
6.730	-0.197	-0.113	
6.735	-0.171	-0.118	
6.740	-0.132	-0.129	
6.745	-0.208	-0.140	
6.750	-0.211	-0.155	
6.755	-0.168	-0.171	
6.760	-0.251	-0.184	
6.765	-0.304	-0.201	
6.770	-0.226	-0.223	
6.775	-0.251	-0.239	
6.780	-0.281	-0.249	
6.785	-0.179	-0.254	
6.790	-0.158	-0.246	
6.795	-0.237	-0.231	
6.800	-0.165	-0.217	
6.805	0.042	-0.195	
6.810	0.206	-0.142	
6.815	0.510	-0.045	
6.820	0.651	0.097	
6.825	0.330	0.248	
6.830	-0.161	0.330	
6.835	-0.335	0.294	
6.840	-0.404	0.165	
6.845	-0.482	-0.004	
6.850	-0.419	-0.168	
6.855	-0.258	-0.291	
6.860	-0.214	-0.351	
6.865	-0.179	-0.355	
6.870	-0.028	-0.320	
6.875	0.033	-0.252	
6.880	0.072	-0.168	
6.885	0.156	-0.080	
6.890	0.282	0.009	
6.895	0.149	0.091	
6.900	0.151	0.148	
6.905	0.437	0.190	
6.910	0.484	0.245	
6.915	0.388	0.310	
6.920	0.470	0.364	
6.925	0.521	0.409	
6.930	0.385	0.443	
6.935	0.461	0.459	
6.940	0.530	0.467	
6.945	0.427	0.474	
6.950	0.460	0.476	
6.955	0.596	0.478	
6.960	0.464	0.489	
6.965	0.398	0.492	
6.970	0.586	0.489	
6.975	0.502	0.492	
6.980	0.226	0.487	
6.985	0.197	0.448	
6.990	0.169	0.382	
6.995	0.001	0.304	
7.000	-0.055	0.215	
7.005	-0.060	0.124	
7.010	-0.161	0.041	
7.015	-0.225	-0.036	
7.020	-0.182	-0.103	
7.025	-0.246	-0.156	
7.030	-0.269	-0.197	
7.035	-0.153	-0.224	
7.040	-0.051	-0.224	
7.045	-0.177	-0.203	
7.050	-0.202	-0.184	
7.055	-0.083	-0.171	
7.060	-0.106	-0.155	
7.065	-0.174	-0.140	
7.070	-0.016	-0.128	
7.075	0.044	-0.107	
7.080	-0.058	-0.075	
7.085	-0.005	-0.050	
7.090	0.030	-0.030	
7.095	-0.118	-0.017	
7.100	-0.158	-0.025	
7.105	-0.127	-0.050	
7.110	-0.222	-0.082	
7.115	-0.236	-0.120	
7.120	-0.150	-0.155	
7.125	-0.148	-0.176	
7.130	-0.174	-0.182	
7.135	-0.055	-0.177	
7.140	-0.005	-0.155	
7.145	-0.148	-0.126	
7.150	-0.193	-0.111	
7.155	-0.061	-0.111	
7.160	0.061	-0.102	
7.165	0.171	-0.068	
7.170	0.246	-0.009	
7.175	-0.022	0.051	
7.180	-0.332	0.065	
7.185	-0.504	0.005	
7.190	-0.598	-0.114	
7.195	-0.660	-0.261	
7.200	-0.549	-0.399	
7.205	-0.375	-0.491	
7.210	-0.320	-0.521	
7.215	-0.272	-0.499	
7.220	-0.138	-0.442	
7.225	-0.019	-0.358	
7.230	-0.060	-0.262	
7.235	0.003	-0.173	
7.240	0.127	-0.093	
7.245	0.041	-0.024	
7.250	0.072	0.028	
7.255	0.208	0.066	
7.260	0.111	0.101	
7.265	0.059	0.121	
7.270	0.214	0.130	
7.275	0.278	0.145	
7.280	0.343	0.177	
7.285	0.479	0.227	
7.290	0.521	0.294	
7.295	0.512	0.366	
7.300	0.631	0.434	
7.305	0.813	0.507	
7.310	0.712	0.586	
7.315	0.612	0.648	
7.320	0.707	0.681	
7.325	0.525	0.689	
7.330	0.241	0.658	
7.335	0.253	0.580	
7.340	0.246	0.480	
7.345	0.023	0.378	
7.350	-0.003	0.271	
7.355	-0.057	0.167	
7.360	-0.181	0.071	
7.365	-0.210	-0.018	
7.370	-0.144	-0.093	
7.375	-0.188	-0.144	
7.380	-0.286	-0.180	
7.385	-0.254	-0.211	
7.390	-0.196	-0.233	
7.395	-0.269	-0.243	
7.400	-0.222	-0.247	
7.405	-0.095	-0.241	
7.410	-0.159	-0.220	
7.415	-0.239	-0.199	
7.420	-0.176	-0.189	
7.425	-0.165	-0.185	
7.430	-0.187	-0.180	
7.435	-0.119	-0.175	
7.440	-0.103	-0.165	
7.445	-0.228	-0.155	
7.450	-0.274	-0.160	
7.455	-0.219	-0.178	
7.460	-0.312	-0.202	
7.465	-0.358	-0.232	
7.470	-0.265	-0.263	
7.475	-0.217	-0.281	
7.480	-0.292	-0.284	
7.485	-0.251	-0.281	
7.490	-0.231	-0.275	
7.495	-0.318	-0.269	
7.500	-0.329	-0.272	
7.505	-0.205	-0.277	
7.510	-0.107	-0.268	
7.515	0.042	-0.231	
7.520	0.201	-0.162	
7.525	-0.057	-0.080	
7.530	-0.393	-0.039	
7.535	-0.556	-0.077	
7.540	-0.605	-0.178	
7.545	-0.665	-0.307	
7.550	-0.607	-0.431	
7.555	-0.462	-0.521	
7.560	-0.399	-0.558	
7.565	-0.327	-0.546	
7.570	-0.150	-0.495	
7.575	-0.097	-0.412	
7.580	-0.167	-0.319	
7.585	-0.058	-0.237	
7.590	0.104	-0.161	
7.595	0.015	-0.086	
7.600	0.015	-0.027	
7.605	0.194	0.018	
7.610	0.107	0.061	
7.615	0.105	0.094	
7.620	0.324	0.122	
7.625	0.304	0.163	
7.630	0.192	0.204	
7.635	0.403	0.237	
7.640	0.548	0.281	
7.645	0.504	0.343	
7.650	0.670	0.413	
7.655	0.822	0.494	
7.660	0.722	0.583	
7.665	0.658	0.654	
7.670	0.768	0.698	
7.675	0.638	0.721	
7.680	0.450	0.715	
7.685	0.461	0.672	
7.690	0.377	0.608	
7.695	0.035	0.522	
7.700	-0.080	0.400	
7.705	-0.078	0.257	
7.710	-0.132	0.122	
7.715	-0.168	0.010	
7.720	-0.136	-0.075	
7.725	-0.159	-0.131	
7.730	-0.231	-0.166	
7.735	-0.200	-0.190	
7.740	-0.152	-0.203	
7.745	-0.210	-0.205	
7.750	-0.165	-0.202	
7.755	-0.100	-0.193	
7.760	-0.188	-0.178	
7.765	-0.214	-0.170	
7.770	-0.112	-0.168	
7.775	-0.106	-0.161	
7.780	-0.176	-0.151	
7.785	-0.138	-0.146	
7.790	-0.121	-0.143	
7.795	-0.217	-0.142	
7.800	-0.226	-0.152	
7.805	-0.210	-0.169	
7.810	-0.255	-0.188	
7.815	-0.277	-0.209	
7.820	-0.254	-0.229	
7.825	-0.277	-0.246	
7.830	-0.326	-0.261	
7.835	-0.281	-0.276	
7.840	-0.284	-0.287	
7.845	-0.373	-0.295	
7.850	-0.332	-0.308	
7.855	-0.205	-0.315	
7.860	-0.145	-0.301	
7.865	0.027	-0.260	
7.870	0.285	-0.183	
7.875	0.094	-0.080	
7.880	-0.278	-0.005	
7.885	-0.488	-0.011	
7.890	-0.624	-0.099	
7.895	-0.746	-0.238	
7.900	-0.700	-0.392	
7.905	-0.552	-0.520	
7.910	-0.478	-0.593	
7.915	-0.382	-0.606	
7.920	-0.171	-0.566	
7.925	-0.121	-0.481	
7.930	-0.135	-0.376	
7.935	-0.002	-0.273	
7.940	0.104	-0.173	
7.945	-0.006	-0.083	
7.950	0.036	-0.018	
7.955	0.149	0.028	
7.960	0.134	0.067	
7.965	0.157	0.100	
7.970	0.330	0.134	
7.975	0.331	0.179	
7.980	0.261	0.226	
7.985	0.502	0.270	
7.990	0.614	0.328	
7.995	0.541	0.401	
8.000	0.657	0.472	
8.005	0.860	0.544	
8.010	0.796	0.626	
8.015	0.741	0.698	
8.020	0.884	0.750	
8.025	0.777	0.789	
8.030	0.608	0.803	
8.035	0.495	0.777	
8.040	0.461	0.715	
8.045	0.270	0.631	
8.050	0.131	0.525	
8.055	0.094	0.405	
8.060	-0.087	0.282	
8.065	-0.176	0.158	
8.070	-0.127	0.041	
8.075	-0.153	-0.050	
8.080	-0.216	-0.116	
8.085	-0.181	-0.162	
8.090	-0.205	-0.191	
8.095	-0.231	-0.208	
8.100	-0.187	-0.217	
8.105	-0.095	-0.214	
8.110	-0.167	-0.198	
8.115	-0.207	-0.183	
8.120	-0.138	-0.175	
8.125	-0.129	-0.167	
8.130	-0.191	-0.159	
8.135	-0.124	-0.155	
8.140	-0.093	-0.149	
8.145	-0.190	-0.142	
8.150	-0.207	-0.143	
8.155	-0.179	-0.154	
8.160	-0.262	-0.169	
8.165	-0.362	-0.194	
8.170	-0.289	-0.229	
8.175	-0.284	-0.261	
8.180	-0.347	-0.284	
8.185	-0.324	-0.303	
8.190	-0.300	-0.316	
8.195	-0.350	-0.323	
8.200	-0.335	-0.328	
8.205	-0.268	-0.330	
8.210	-0.200	-0.319	
8.215	-0.025	-0.287	
8.220	0.368	-0.213	
8.225	0.339	-0.088	
8.230	-0.106	0.032	
8.235	-0.346	0.076	
8.240	-0.550	0.021	
8.245	-0.724	-0.110	
8.250	-0.740	-0.280	
8.255	-0.566	-0.440	
8.260	-0.480	-0.546	
8.265	-0.405	-0.586	
8.270	-0.219	-0.568	
8.275	-0.138	-0.499	
8.280	-0.159	-0.403	
8.285	-0.038	-0.305	
8.290	0.099	-0.206	
8.295	0.030	-0.111	
8.300	0.012	-0.036	
8.305	0.142	0.017	
8.310	0.160	0.061	
8.315	0.229	0.103	
8.320	0.460	0.154	
8.325	0.463	0.226	
8.330	0.406	0.301	
8.335	0.527	0.366	
8.340	0.631	0.427	
8.345	0.577	0.487	
8.350	0.731	0.543	
8.355	0.955	0.608	
8.360	0.855	0.690	
8.365	0.765	0.760	
8.370	0.897	0.806	
8.375	0.941	0.842	
8.380	0.759	0.867	
8.385	0.725	0.866	
8.390	0.654	0.838	
8.395	0.359	0.780	
8.400	0.214	0.681	
8.405	0.152	0.549	
8.410	-0.028	0.406	
8.415	-0.126	0.259	
8.420	-0.090	0.122	
8.425	-0.135	0.012	
8.430	-0.171	-0.069	
8.435	-0.135	-0.124	
8.440	-0.116	-0.154	
8.445	-0.190	-0.166	
8.450	-0.187	-0.173	
8.455	-0.126	-0.176	
8.460	-0.159	-0.173	
8.465	-0.170	-0.167	
8.470	-0.074	-0.160	
8.475	-0.068	-0.145	
8.480	-0.109	-0.125	
8.485	-0.032	-0.107	
8.490	0.013	-0.086	
8.495	-0.098	-0.064	
8.500	-0.127	-0.056	
8.505	-0.100	-0.063	
8.510	-0.197	-0.078	
8.515	-0.260	-0.106	
8.520	-0.229	-0.144	
8.525	-0.260	-0.181	
8.530	-0.341	-0.217	
8.535	-0.214	-0.247	
8.540	-0.173	-0.260	
8.545	-0.243	-0.256	
8.550	-0.260	-0.249	
8.555	-0.217	-0.244	
8.560	-0.252	-0.241	
8.565	-0.176	-0.236	
8.570	0.206	-0.209	
8.575	0.389	-0.128	
8.580	0.175	-0.011	
8.585	-0.090	0.079	
8.590	-0.342	0.092	
8.595	-0.637	0.016	
8.600	-0.706	-0.131	
8.605	-0.624	-0.303	
8.610	-0.540	-0.446	
8.615	-0.401	-0.531	
8.620	-0.237	-0.548	
8.625	-0.181	-0.504	
8.630	-0.152	-0.424	
8.635	-0.008	-0.329	
8.640	0.087	-0.225	
8.645	0.021	-0.124	
8.650	0.079	-0.042	
8.655	0.221	0.025	
8.660	0.230	0.088	
8.665	0.168	0.142	
8.670	0.340	0.184	
8.675	0.391	0.228	
8.680	0.272	0.272	
8.685	0.490	0.309	
8.690	0.611	0.356	
8.695	0.567	0.419	
8.700	0.663	0.483	
8.705	0.845	0.552	
8.710	0.771	0.628	
8.715	0.790	0.696	
8.720	0.964	0.754	
8.725	0.880	0.809	
8.730	0.715	0.846	
8.735	0.751	0.849	
8.740	0.672	0.827	
8.745	0.386	0.778	
8.750	0.214	0.687	
8.755	0.290	0.566	
8.760	0.058	0.442	
8.765	-0.098	0.313	
8.770	-0.019	0.185	
8.775	-0.060	0.079	
8.780	-0.148	-0.001	
8.785	-0.135	-0.063	
8.790	-0.103	-0.106	
8.795	-0.153	-0.130	
8.800	-0.124	-0.143	
8.805	-0.086	-0.145	
8.810	-0.173	-0.141	
8.815	-0.181	-0.141	
8.820	-0.061	-0.143	
8.825	-0.071	-0.134	
8.830	-0.112	-0.120	
8.835	-0.038	-0.106	
8.840	-0.037	-0.090	
8.845	-0.101	-0.075	
8.850	-0.078	-0.069	
8.855	-0.028	-0.066	
8.860	-0.118	-0.064	
8.865	-0.129	-0.070	
8.870	-0.103	-0.081	
8.875	-0.171	-0.095	
8.880	-0.269	-0.118	
8.885	-0.255	-0.151	
8.890	-0.167	-0.184	
8.895	-0.217	-0.203	
8.900	-0.165	-0.210	
8.905	-0.058	-0.203	
8.910	-0.057	-0.178	
8.915	0.013	-0.140	
8.920	0.383	-0.079	
8.925	0.788	0.038	
8.930	0.976	0.224	
8.935	0.907	0.442	
8.940	0.356	0.613	
8.945	-0.240	0.648	
8.950	-0.371	0.522	
8.955	-0.448	0.298	
8.960	-0.526	0.050	
8.965	-0.485	-0.173	
8.970	-0.346	-0.335	
8.975	-0.278	-0.420	
8.980	-0.234	-0.437	
8.985	-0.104	-0.404	
8.990	-0.011	-0.334	
8.995	-0.042	-0.246	
9.000	0.091	-0.157	
9.005	0.211	-0.068	
9.010	0.264	0.024	
9.015	0.489	0.121	
9.020	0.738	0.238	
9.025	0.758	0.377	
9.030	0.791	0.516	
9.035	1.109	0.649	
9.040	1.367	0.796	
9.045	1.384	0.963	
9.050	1.295	1.117	
9.055	1.402	1.235	
9.060	1.451	1.322	
9.065	1.425	1.384	
9.070	1.439	1.425	
9.075	1.379	1.444	
9.080	1.335	1.442	
9.085	1.410	1.427	
9.090	1.286	1.407	
9.095	1.074	1.371	
9.100	1.194	1.314	
9.105	1.136	1.255	
9.110	0.615	1.183	
9.115	0.305	1.053	
9.120	0.230	0.862	
9.125	0.044	0.646	
9.130	-0.155	0.428	
9.135	-0.116	0.224	
9.140	-0.035	0.063	
9.145	-0.148	-0.043	
9.150	-0.167	-0.110	
9.155	-0.110	-0.151	
9.160	-0.197	-0.169	
9.165	-0.263	-0.183	
9.170	-0.173	-0.197	
9.175	-0.196	-0.205	
9.180	-0.252	-0.209	
9.185	-0.207	-0.214	
9.190	-0.174	-0.216	
9.195	-0.229	-0.213	
9.200	-0.240	-0.213	
9.205	-0.193	-0.215	
9.210	-0.248	-0.217	
9.215	-0.292	-0.223	
9.220	-0.271	-0.236	
9.225	-0.335	-0.252	
9.230	-0.417	-0.277	
9.235	-0.388	-0.309	
9.240	-0.370	-0.341	
9.245	-0.433	-0.365	
9.250	-0.375	-0.384	
9.255	-0.303	-0.391	
9.260	-0.390	-0.385	
9.265	-0.375	-0.379	
9.270	-0.278	-0.371	
9.275	-0.226	-0.352	
9.280	-0.124	-0.317	
9.285	0.087	-0.260	
9.290	-0.034	-0.182	
9.295	-0.306	-0.124	
9.300	-0.506	-0.126	
9.305	-0.628	-0.193	
9.310	-0.763	-0.307	
9.315	-0.766	-0.441	
9.320	-0.561	-0.557	
9.325	-0.489	-0.621	
9.330	-0.449	-0.630	
9.335	-0.284	-0.595	
9.340	-0.193	-0.524	
9.345	-0.249	-0.435	
9.350	-0.158	-0.350	
9.355	-0.040	-0.271	
9.360	-0.074	-0.197	
9.365	-0.060	-0.136	
9.370	0.087	-0.085	
9.375	0.125	-0.034	
9.380	0.032	0.015	
9.385	0.214	0.055	
9.390	0.308	0.099	
9.395	0.226	0.152	
9.400	0.311	0.199	
9.405	0.470	0.246	
9.410	0.385	0.300	
9.415	0.383	0.345	
9.420	0.615	0.386	
9.425	0.586	0.436	
9.430	0.460	0.484	
9.435	0.567	0.514	
9.440	0.560	0.533	
9.445	0.394	0.540	
9.450	0.258	0.518	
9.455	0.152	0.461	
9.460	-0.011	0.373	
9.465	-0.064	0.264	
9.470	-0.055	0.153	
9.475	-0.161	0.054	
9.480	-0.248	-0.033	
9.485	-0.216	-0.110	
9.490	-0.225	-0.169	
9.495	-0.304	-0.212	
9.500	-0.292	-0.246	
9.505	-0.258	-0.270	
9.510	-0.298	-0.283	
9.515	-0.313	-0.291	
9.520	-0.232	-0.295	
9.525	-0.258	-0.290	
9.530	-0.307	-0.283	
9.535	-0.242	-0.279	
9.540	-0.228	-0.272	
9.545	-0.265	-0.263	
9.550	-0.228	-0.256	
9.555	-0.179	-0.246	
9.560	-0.252	-0.235	
9.565	-0.330	-0.233	
9.570	-0.216	-0.241	
9.575	-0.254	-0.247	
9.580	-0.341	-0.254	
9.585	-0.292	-0.267	
9.590	-0.284	-0.280	
9.595	-0.352	-0.291	
9.600	-0.355	-0.304	
9.605	-0.277	-0.316	
9.610	-0.326	-0.321	
9.615	-0.379	-0.324	
9.620	-0.324	-0.331	
9.625	-0.315	-0.335	
9.630	-0.286	-0.333	
9.635	-0.026	-0.312	
9.640	0.171	-0.252	
9.645	-0.038	-0.163	
9.650	-0.255	-0.097	
9.655	-0.440	-0.092	
9.660	-0.619	-0.154	
9.665	-0.702	-0.265	
9.670	-0.622	-0.393	
9.675	-0.573	-0.500	
9.680	-0.523	-0.566	
9.685	-0.371	-0.586	
9.690	-0.271	-0.558	
9.695	-0.263	-0.496	
9.700	-0.155	-0.418	
9.705	0.065	-0.326	
9.710	0.020	-0.220	
9.715	-0.006	-0.123	
9.720	0.145	-0.046	
9.725	0.085	0.018	
9.730	-0.014	0.060	
9.735	0.174	0.080	
9.740	0.233	0.101	
9.745	0.070	0.126	
9.750	0.235	0.143	
9.755	0.447	0.170	
9.760	0.444	0.225	
9.765	0.515	0.296	
9.770	0.673	0.375	
9.775	0.713	0.464	
9.780	0.673	0.550	
9.785	0.780	0.621	
9.790	0.857	0.685	
9.795	0.620	0.733	
9.800	0.473	0.740	
9.805	0.508	0.703	
9.810	0.345	0.639	
9.815	0.172	0.553	
9.820	0.110	0.446	
9.825	-0.087	0.325	
9.830	-0.173	0.194	
9.835	-0.122	0.069	
9.840	-0.148	-0.032	
9.845	-0.248	-0.106	
9.850	-0.266	-0.165	
9.855	-0.223	-0.210	
9.860	-0.228	-0.237	
9.865	-0.187	-0.246	
9.870	-0.119	-0.239	
9.875	-0.171	-0.218	
9.880	-0.205	-0.199	
9.885	-0.130	-0.185	
9.890	-0.126	-0.172	
9.895	-0.200	-0.160	
9.900	-0.159	-0.157	
9.905	-0.055	-0.152	
9.910	-0.135	-0.141	
9.915	-0.179	-0.132	
9.920	-0.106	-0.131	
9.925	-0.147	-0.132	
9.930	-0.249	-0.137	
9.935	-0.251	-0.156	
9.940	-0.242	-0.182	
9.945	-0.321	-0.210	
9.950	-0.291	-0.239	
9.955	-0.237	-0.262	
9.960	-0.237	-0.271	
9.965	-0.262	-0.270	
9.970	-0.239	-0.266	
9.975	-0.300	-0.263	
9.980	-0.320	-0.266	
9.985	-0.147	-0.269	
9.990	0.151	-0.242	
9.995	0.250	-0.165	
10.000	0.177	-0.059	
10.005	-0.119	0.027	
10.010	-0.446	0.040	
10.015	-0.593	-0.034	
10.020	-0.578	-0.167	
10.025	-0.598	-0.309	
10.030	-0.598	-0.432	
10.035	-0.440	-0.515	
10.040	-0.327	-0.545	
10.045	-0.263	-0.521	
10.050	-0.119	-0.458	
10.055	0.049	-0.364	
10.060	-0.029	-0.253	
10.065	-0.040	-0.154	
10.070	0.152	-0.075	
10.075	0.151	-0.003	
10.080	0.111	0.059	
10.085	0.175	0.104	
10.090	0.223	0.138	
10.095	0.197	0.168	
10.100	0.362	0.196	
10.105	0.507	0.240	
10.110	0.424	0.300	
10.115	0.429	0.357	
10.120	0.658	0.408	
10.125	0.710	0.472	
10.130	0.733	0.545	
10.135	0.875	0.622	
10.140	0.889	0.700	
10.145	0.747	0.766	
10.150	0.754	0.802	
10.155	0.725	0.809	
10.160	0.547	0.790	
10.165	0.402	0.738	
10.170	0.333	0.653	
10.175	0.149	0.547	
10.180	-0.051	0.421	
10.185	-0.046	0.281	
10.190	-0.080	0.150	
10.195	-0.162	0.041	
10.200	-0.148	-0.045	
10.205	-0.150	-0.108	
10.210	-0.207	-0.149	
10.215	-0.220	-0.178	
10.220	-0.155	-0.196	
10.225	-0.132	-0.199	
10.230	-0.177	-0.192	
10.235	-0.148	-0.182	
10.240	-0.118	-0.171	
10.245	-0.168	-0.159	
10.250	-0.132	-0.151	
10.255	-0.084	-0.143	
10.260	-0.150	-0.134	
10.265	-0.148	-0.129	
10.270	-0.005	-0.124	
10.275	-0.066	-0.108	
10.280	-0.181	-0.096	
10.285	-0.159	-0.099	
10.290	-0.177	-0.113	
10.295	-0.265	-0.135	
10.300	-0.229	-0.165	
10.305	-0.217	-0.192	
10.310	-0.281	-0.214	
10.315	-0.272	-0.233	
10.320	-0.229	-0.249	
10.325	-0.268	-0.256	
10.330	-0.341	-0.264	
10.335	-0.252	-0.274	
10.340	-0.129	-0.274	
10.345	-0.025	-0.248	
10.350	0.238	-0.186	
10.355	0.476	-0.079	
10.360	0.136	0.050	
10.365	-0.268	0.126	
10.370	-0.449	0.101	
10.375	-0.602	-0.012	
10.380	-0.712	-0.174	
10.385	-0.585	-0.342	
10.390	-0.423	-0.468	
10.395	-0.373	-0.527	
10.400	-0.237	-0.524	
10.405	-0.126	-0.470	
10.410	-0.107	-0.385	
10.415	-0.011	-0.288	
10.420	0.175	-0.185	
10.425	0.140	-0.078	
10.430	0.065	0.013	
10.435	0.180	0.076	
10.440	0.266	0.125	
10.445	0.169	0.167	
10.450	0.223	0.194	
10.455	0.412	0.220	
10.460	0.434	0.260	
10.465	0.475	0.313	
10.470	0.644	0.374	
10.475	0.670	0.448	
10.480	0.666	0.524	
10.485	0.828	0.595	
10.490	0.900	0.669	
10.495	0.895	0.744	
10.500	0.912	0.810	
10.505	0.874	0.859	
10.510	0.768	0.882	
10.515	0.750	0.877	
10.520	0.751	0.852	
10.525	0.486	0.808	
10.530	0.269	0.730	
10.535	0.223	0.614	
10.540	0.075	0.480	
10.545	-0.115	0.338	
10.550	-0.097	0.194	
10.555	-0.061	0.070	
10.560	-0.162	-0.021	
10.565	-0.254	-0.092	
10.570	-0.177	-0.149	
10.575	-0.156	-0.184	
10.580	-0.181	-0.199	
10.585	-0.100	-0.198	
10.590	-0.055	-0.181	
10.595	-0.147	-0.156	
10.600	-0.156	-0.138	
10.605	-0.069	-0.128	
10.610	-0.135	-0.119	
10.615	-0.165	-0.116	
10.620	-0.072	-0.118	
10.625	-0.078	-0.115	
10.630	-0.139	-0.109	
10.635	-0.034	-0.104	
10.640	-0.052	-0.095	
10.645	-0.193	-0.088	
10.650	-0.231	-0.099	
10.655	-0.182	-0.125	
10.660	-0.243	-0.153	
10.665	-0.292	-0.183	
10.670	-0.249	-0.214	
10.675	-0.274	-0.238	
10.680	-0.309	-0.258	
10.685	-0.232	-0.271	
10.690	-0.231	-0.274	
10.695	-0.263	-0.269	
10.700	-0.122	-0.258	
10.705	0.223	-0.218	
10.710	0.369	-0.126	
10.715	0.246	-0.002	
10.720	0.026	0.100	
10.725	-0.341	0.130	
10.730	-0.578	0.064	
10.735	-0.630	-0.079	
10.740	-0.633	-0.248	
10.745	-0.573	-0.400	
10.750	-0.433	-0.502	
10.755	-0.284	-0.540	
10.760	-0.232	-0.515	
10.765	-0.165	-0.451	
10.770	0.021	-0.360	
10.775	0.067	-0.252	
10.780	0.036	-0.144	
10.785	0.169	-0.049	
10.790	0.229	0.034	
10.795	0.197	0.107	
10.800	0.198	0.161	
10.805	0.385	0.203	
10.810	0.398	0.249	
10.815	0.354	0.297	
10.820	0.542	0.341	
10.825	0.628	0.396	
10.830	0.623	0.461	
10.835	0.762	0.530	
10.840	0.858	0.604	
10.845	0.840	0.683	
10.850	1.028	0.760	
10.855	1.138	0.844	
10.860	1.036	0.929	
10.865	0.947	0.992	
10.870	0.947	1.018	
10.875	0.706	1.007	
10.880	0.476	0.946	
10.885	0.460	0.840	
10.890	0.383	0.714	
10.895	0.148	0.584	
10.900	-0.003	0.444	
10.905	0.009	0.300	
10.910	-0.101	0.169	
10.915	-0.150	0.058	
10.920	-0.090	-0.030	
10.925	-0.142	-0.089	
10.930	-0.210	-0.129	
10.935	-0.222	-0.161	
10.940	-0.126	-0.183	
10.945	-0.121	-0.187	
10.950	-0.101	-0.177	
10.955	-0.097	-0.158	
10.960	-0.107	-0.138	
10.965	-0.106	-0.122	
10.970	0.006	-0.106	
10.975	-0.040	-0.085	
10.980	-0.095	-0.067	
10.985	-0.017	-0.057	
10.990	-0.040	-0.049	
10.995	-0.176	-0.049	
11.000	-0.150	-0.065	
11.005	-0.106	-0.088	
11.010	-0.214	-0.109	
11.015	-0.232	-0.135	
11.020	-0.203	-0.163	
11.025	-0.246	-0.188	
11.030	-0.277	-0.210	
11.035	-0.251	-0.231	
11.040	-0.242	-0.246	
11.045	-0.300	-0.255	
11.050	-0.275	-0.264	
11.055	-0.182	-0.268	
11.060	-0.095	-0.254	
11.065	0.178	-0.209	
11.070	0.467	-0.115	
11.075	0.342	0.020	
11.080	-0.115	0.130	
11.085	-0.379	0.148	
11.090	-0.627	0.060	
11.095	-0.772	-0.105	
11.100	-0.662	-0.297	
11.105	-0.515	-0.458	
11.110	-0.422	-0.549	
11.115	-0.339	-0.572	
11.120	-0.171	-0.536	
11.125	-0.098	-0.455	
11.130	-0.115	-0.354	
11.135	0.065	-0.251	
11.140	0.163	-0.146	
11.145	0.053	-0.046	
11.150	0.070	0.027	
11.155	0.221	0.077	
11.160	0.198	0.120	
11.165	0.181	0.156	
11.170	0.366	0.188	
11.175	0.495	0.234	
11.180	0.489	0.298	
11.185	0.626	0.372	
11.190	0.699	0.452	
11.195	0.629	0.530	
11.200	0.698	0.594	
11.205	0.845	0.648	
11.210	0.918	0.707	
11.215	0.947	0.773	
11.220	1.002	0.839	
11.225	0.819	0.890	
11.230	0.681	0.905	
11.235	0.689	0.877	
11.240	0.560	0.822	
11.245	0.275	0.740	
11.250	0.116	0.619	
11.255	0.081	0.473	
11.260	-0.072	0.323	
11.265	-0.144	0.180	
11.270	-0.133	0.054	
11.275	-0.167	-0.045	
11.280	-0.245	-0.118	
11.285	-0.210	-0.172	
11.290	-0.188	-0.206	
11.295	-0.239	-0.223	
11.300	-0.207	-0.230	
11.305	-0.142	-0.228	
11.310	-0.200	-0.217	
11.315	-0.173	-0.204	
11.320	-0.107	-0.191	
11.325	-0.139	-0.173	
11.330	-0.190	-0.159	
11.335	-0.103	-0.151	
11.340	-0.107	-0.143	
11.345	-0.126	-0.133	
11.350	-0.052	-0.122	
11.355	-0.042	-0.107	
11.360	-0.147	-0.093	
11.365	-0.220	-0.094	
11.370	-0.210	-0.114	
11.375	-0.265	-0.145	
11.380	-0.321	-0.182	
11.385	-0.257	-0.220	
11.390	-0.251	-0.249	
11.395	-0.330	-0.267	
11.400	-0.284	-0.282	
11.405	-0.211	-0.288	
11.410	-0.306	-0.285	
11.415	-0.292	-0.282	
11.420	-0.029	-0.271	
11.425	0.247	-0.221	
11.430	0.348	-0.117	
11.435	0.267	0.011	
11.440	-0.086	0.109	
11.445	-0.428	0.121	
11.450	-0.585	0.035	
11.455	-0.631	-0.117	
11.460	-0.689	-0.287	
11.465	-0.627	-0.440	
11.470	-0.425	-0.543	
11.475	-0.359	-0.578	
11.480	-0.301	-0.555	
11.485	-0.116	-0.491	
11.490	0.020	-0.393	
11.495	-0.031	-0.277	
11.500	0.061	-0.168	
11.505	0.250	-0.068	
11.510	0.185	0.029	
11.515	0.154	0.106	
11.520	0.273	0.160	
11.525	0.250	0.201	
11.530	0.181	0.228	
11.535	0.345	0.244	
11.540	0.469	0.268	
11.545	0.426	0.309	
11.550	0.412	0.353	
11.555	0.637	0.396	
11.560	0.715	0.455	
11.565	0.813	0.533	
11.570	1.003	0.627	
11.575	0.909	0.730	
11.580	0.753	0.810	
11.585	0.800	0.849	
11.590	0.773	0.855	
11.595	0.537	0.834	
11.600	0.452	0.775	
11.605	0.414	0.689	
11.610	0.125	0.584	
11.615	-0.031	0.454	
11.620	-0.005	0.309	
11.625	-0.110	0.174	
11.630	-0.245	0.053	
11.635	-0.164	-0.051	
11.640	-0.141	-0.126	
11.645	-0.236	-0.171	
11.650	-0.245	-0.201	
11.655	-0.158	-0.219	
11.660	-0.188	-0.222	
11.665	-0.188	-0.216	
11.670	-0.130	-0.205	
11.675	-0.170	-0.191	
11.680	-0.179	-0.178	
11.685	-0.107	-0.168	
11.690	-0.078	-0.154	
11.695	-0.159	-0.138	
11.700	-0.122	-0.129	
11.705	-0.090	-0.123	
11.710	-0.142	-0.118	
11.715	-0.202	-0.121	
11.720	-0.171	-0.133	
11.725	-0.168	-0.147	
11.730	-0.239	-0.161	
11.735	-0.229	-0.179	
11.740	-0.229	-0.197	
11.745	-0.262	-0.214	
11.750	-0.214	-0.227	
11.755	-0.142	-0.230	
11.760	-0.239	-0.223	
11.765	-0.275	-0.220	
11.770	-0.222	-0.224	
11.775	-0.249	-0.230	
11.780	-0.181	-0.232	
11.785	0.096	-0.213	
11.790	0.363	-0.148	
11.795	0.151	-0.043	
11.800	-0.139	0.040	
11.805	-0.335	0.053	
11.810	-0.550	-0.014	
11.815	-0.688	-0.142	
11.820	-0.630	-0.296	
11.825	-0.527	-0.432	
11.830	-0.445	-0.517	
11.835	-0.301	-0.543	
11.840	-0.205	-0.513	
11.845	-0.182	-0.445	
11.850	-0.084	-0.360	
11.855	0.044	-0.265	
11.860	-0.028	-0.171	
11.865	-0.005	-0.094	
11.870	0.221	-0.030	
11.875	0.183	0.035	
11.880	0.104	0.093	
11.885	0.203	0.131	
11.890	0.238	0.161	
11.895	0.097	0.181	
11.900	0.255	0.190	
11.905	0.479	0.209	
11.910	0.472	0.258	
11.915	0.495	0.322	
11.920	0.623	0.391	
11.925	0.640	0.462	
11.930	0.634	0.529	
11.935	0.747	0.587	
11.940	0.797	0.642	
11.945	0.628	0.687	
11.950	0.536	0.702	
11.955	0.599	0.686	
11.960	0.418	0.651	
11.965	0.197	0.589	
11.970	0.130	0.493	
11.975	-0.063	0.373	
11.980	-0.170	0.238	
11.985	-0.090	0.104	
11.990	-0.089	-0.001	
11.995	-0.167	-0.072	
12.000	-0.203	-0.123	
12.005	-0.161	-0.159	
12.010	-0.167	-0.179	
12.015	-0.181	-0.187	
12.020	-0.107	-0.186	
12.025	-0.152	-0.176	
12.030	-0.179	-0.166	
12.035	-0.097	-0.158	
12.040	-0.077	-0.146	
12.045	-0.150	-0.132	
12.050	-0.139	-0.124	
12.055	-0.066	-0.120	
12.060	-0.139	-0.115	
12.065	-0.179	-0.115	
12.070	-0.068	-0.120	
12.075	-0.066	-0.118	
12.080	-0.174	-0.113	
12.085	-0.179	-0.116	
12.090	-0.165	-0.129	
12.095	-0.213	-0.145	
12.100	-0.199	-0.162	
12.105	-0.147	-0.176	
12.110	-0.219	-0.183	
12.115	-0.249	-0.191	
12.120	-0.197	-0.202	
12.125	-0.229	-0.210	
12.130	-0.275	-0.219	
12.135	-0.208	-0.228	
12.140	-0.104	-0.227	
12.145	-0.031	-0.206	
12.150	0.270	-0.152	
12.155	0.354	-0.058	
12.160	-0.048	0.042	
12.165	-0.300	0.082	
12.170	-0.404	0.037	
12.175	-0.520	-0.066	
12.180	-0.561	-0.197	
12.185	-0.457	-0.322	
12.190	-0.327	-0.407	
12.195	-0.280	-0.438	
12.200	-0.202	-0.423	
12.205	-0.006	-0.369	
12.210	-0.029	-0.286	
12.215	-0.009	-0.195	
12.220	0.133	-0.111	
12.225	0.096	-0.033	
12.230	0.070	0.030	
12.235	0.181	0.074	
12.240	0.220	0.113	
12.245	0.097	0.144	
12.250	0.162	0.159	
12.255	0.372	0.174	
12.260	0.348	0.207	
12.265	0.359	0.251	
12.270	0.512	0.299	
12.275	0.505	0.354	
12.280	0.446	0.407	
12.285	0.608	0.450	
12.290	0.687	0.497	
12.295	0.640	0.549	
12.300	0.661	0.595	
12.305	0.771	0.633	
12.310	0.632	0.666	
12.315	0.464	0.675	
12.320	0.420	0.646	
12.325	0.235	0.584	
12.330	0.030	0.488	
12.335	0.023	0.365	
12.340	-0.029	0.240	
12.345	-0.126	0.126	
12.350	-0.144	0.028	
12.355	-0.148	-0.052	
12.360	-0.177	-0.110	
12.365	-0.188	-0.150	
12.370	-0.139	-0.174	
12.375	-0.148	-0.182	
12.380	-0.184	-0.181	
12.385	-0.122	-0.177	
12.390	-0.054	-0.164	
12.395	-0.113	-0.143	
12.400	-0.103	-0.125	
12.405	-0.055	-0.109	
12.410	-0.130	-0.098	
12.415	-0.188	-0.097	
12.420	-0.097	-0.107	
12.425	-0.060	-0.112	
12.430	-0.159	-0.111	
12.435	-0.130	-0.114	
12.440	-0.104	-0.118	
12.445	-0.205	-0.124	
12.450	-0.243	-0.138	
12.455	-0.210	-0.162	
12.460	-0.248	-0.185	
12.465	-0.278	-0.208	
12.470	-0.208	-0.228	
12.475	-0.211	-0.237	
12.480	-0.266	-0.239	
12.485	-0.245	-0.242	
12.490	-0.248	-0.245	
12.495	-0.272	-0.248	
12.500	-0.144	-0.247	
12.505	0.127	-0.221	
12.510	0.226	-0.152	
12.515	0.078	-0.059	
12.520	-0.109	0.009	
12.525	-0.361	0.018	
12.530	-0.573	-0.045	
12.535	-0.552	-0.163	
12.540	-0.512	-0.292	
12.545	-0.483	-0.397	
12.550	-0.394	-0.461	
12.555	-0.297	-0.480	
12.560	-0.236	-0.457	
12.565	-0.153	-0.404	
12.570	-0.025	-0.330	
12.575	-0.031	-0.243	
12.580	-0.061	-0.162	
12.585	0.064	-0.097	
12.590	0.124	-0.038	
12.595	0.058	0.015	
12.600	0.059	0.052	
12.605	0.177	0.077	
12.610	0.130	0.100	
12.615	0.117	0.118	
12.620	0.379	0.140	
12.625	0.455	0.186	
12.630	0.379	0.251	
12.635	0.515	0.317	
12.640	0.631	0.384	
12.645	0.560	0.455	
12.650	0.609	0.514	
12.655	0.730	0.564	
12.660	0.602	0.608	
12.665	0.519	0.630	
12.670	0.585	0.628	
12.675	0.469	0.610	
12.680	0.247	0.571	
12.685	0.226	0.501	
12.690	0.180	0.414	
12.695	0.026	0.324	
12.700	-0.037	0.228	
12.705	-0.034	0.136	
12.710	-0.126	0.054	
12.715	-0.202	-0.018	
12.720	-0.145	-0.082	
12.725	-0.145	-0.127	
12.730	-0.197	-0.155	
12.735	-0.155	-0.173	
12.740	-0.118	-0.178	
12.745	-0.187	-0.174	
12.750	-0.187	-0.172	
12.755	-0.136	-0.171	
12.760	-0.132	-0.166	
12.765	-0.136	-0.158	
12.770	-0.061	-0.146	
12.775	-0.055	-0.128	
12.780	-0.101	-0.108	
12.785	-0.072	-0.093	
12.790	-0.087	-0.084	
12.795	-0.170	-0.084	
12.800	-0.177	-0.096	
12.805	-0.173	-0.116	
12.810	-0.262	-0.141	
12.815	-0.295	-0.173	
12.820	-0.275	-0.209	
12.825	-0.258	-0.239	
12.830	-0.251	-0.258	
12.835	-0.188	-0.263	
12.840	-0.182	-0.255	
12.845	-0.232	-0.240	
12.850	-0.242	-0.229	
12.855	-0.177	-0.223	
12.860	-0.127	-0.212	
12.865	0.018	-0.187	
12.870	0.235	-0.133	
12.875	0.175	-0.052	
12.880	-0.148	0.018	
12.885	-0.335	0.028	
12.890	-0.480	-0.032	
12.895	-0.598	-0.143	
12.900	-0.599	-0.276	
12.905	-0.462	-0.395	
12.910	-0.378	-0.468	
12.915	-0.295	-0.487	
12.920	-0.142	-0.458	
12.925	-0.167	-0.394	
12.930	-0.162	-0.319	
12.935	-0.031	-0.247	
12.940	0.091	-0.173	
12.945	0.111	-0.092	
12.950	0.264	-0.008	
12.955	0.342	0.079	
12.960	0.236	0.162	
12.965	0.208	0.221	
12.970	0.345	0.254	
12.975	0.302	0.279	
12.980	0.258	0.296	
12.985	0.327	0.302	
12.990	0.513	0.315	
12.995	0.615	0.354	
13.000	0.701	0.421	
13.005	0.883	0.510	
13.010	0.785	0.609	
13.015	0.716	0.692	
13.020	0.774	0.743	
13.025	0.554	0.761	
13.030	0.522	0.740	
13.035	0.667	0.698	
13.040	0.557	0.660	
13.045	0.247	0.613	
13.050	0.097	0.530	
13.055	0.088	0.416	
13.060	-0.077	0.292	
13.065	-0.187	0.166	
13.070	-0.132	0.046	
13.075	-0.222	-0.052	
13.080	-0.217	-0.127	
13.085	-0.118	-0.177	
13.090	-0.126	-0.195	
13.095	-0.219	-0.195	
13.100	-0.219	-0.195	
13.105	-0.176	-0.198	
13.110	-0.207	-0.198	
13.115	-0.187	-0.198	
13.120	-0.148	-0.195	
13.125	-0.155	-0.187	
13.130	-0.190	-0.178	
13.135	-0.089	-0.170	
13.140	-0.032	-0.153	
13.145	-0.118	-0.129	
13.150	-0.133	-0.112	
13.155	-0.135	-0.107	
13.160	-0.203	-0.112	
13.165	-0.234	-0.130	
13.170	-0.234	-0.157	
13.175	-0.278	-0.186	
13.180	-0.281	-0.216	
13.185	-0.226	-0.240	
13.190	-0.211	-0.251	
13.195	-0.284	-0.253	
13.200	-0.274	-0.256	
13.205	-0.228	-0.259	
13.210	-0.303	-0.261	
13.215	-0.339	-0.267	
13.220	-0.165	-0.274	
13.225	0.026	-0.257	
13.230	0.186	-0.197	
13.235	0.266	-0.101	
13.240	0.020	-0.001	
13.245	-0.317	0.048	
13.250	-0.508	0.011	
13.255	-0.584	-0.097	
13.260	-0.648	-0.240	
13.265	-0.579	-0.379	
13.270	-0.411	-0.480	
13.275	-0.309	-0.520	
13.280	-0.263	-0.503	
13.285	-0.155	-0.448	
13.290	-0.064	-0.367	
13.295	-0.069	-0.276	
13.300	0.038	-0.188	
13.305	0.188	-0.101	
13.310	0.156	-0.013	
13.315	0.114	0.061	
13.320	0.301	0.117	
13.325	0.304	0.171	
13.330	0.217	0.217	
13.335	0.380	0.252	
13.340	0.475	0.289	
13.345	0.452	0.336	
13.350	0.457	0.382	
13.355	0.635	0.426	
13.360	0.698	0.481	
13.365	0.754	0.548	
13.370	0.898	0.623	
13.375	0.898	0.704	
13.380	0.829	0.776	
13.385	0.867	0.827	
13.390	0.820	0.855	
13.395	0.582	0.854	
13.400	0.479	0.809	
13.405	0.420	0.728	
13.410	0.246	0.626	
13.415	0.157	0.510	
13.420	0.142	0.391	
13.425	-0.022	0.280	
13.430	-0.173	0.170	
13.435	-0.164	0.060	
13.440	-0.144	-0.035	
13.445	-0.254	-0.108	
13.450	-0.228	-0.164	
13.455	-0.138	-0.201	
13.460	-0.168	-0.213	
13.465	-0.229	-0.212	
13.470	-0.210	-0.211	
13.475	-0.155	-0.209	
13.480	-0.171	-0.201	
13.485	-0.141	-0.189	
13.490	-0.104	-0.174	
13.495	-0.155	-0.158	
13.500	-0.135	-0.146	
13.505	-0.078	-0.137	
13.510	-0.158	-0.127	
13.515	-0.187	-0.126	
13.520	-0.109	-0.132	
13.525	-0.170	-0.137	
13.530	-0.219	-0.145	
13.535	-0.197	-0.159	
13.540	-0.203	-0.174	
13.545	-0.301	-0.192	
13.550	-0.287	-0.215	
13.555	-0.225	-0.238	
13.560	-0.243	-0.250	
13.565	-0.271	-0.256	
13.570	-0.213	-0.257	
13.575	-0.245	-0.254	
13.580	-0.291	-0.251	
13.585	-0.115	-0.247	
13.590	0.206	-0.214	
13.595	0.299	-0.130	
13.600	0.314	-0.014	
13.605	0.104	0.094	
13.610	-0.294	0.140	
13.615	-0.541	0.089	
13.620	-0.639	-0.045	
13.625	-0.643	-0.216	
13.630	-0.579	-0.376	
13.635	-0.425	-0.488	
13.640	-0.275	-0.532	
13.645	-0.232	-0.511	
13.650	-0.147	-0.447	
13.655	-0.020	-0.359	
13.660	0.027	-0.256	
13.665	0.009	-0.157	
13.670	0.171	-0.069	
13.675	0.133	0.009	
13.680	0.175	0.074	
13.685	0.354	0.131	
13.690	0.455	0.197	
13.695	0.322	0.266	
13.700	0.418	0.321	
13.705	0.577	0.369	
13.710	0.533	0.421	
13.715	0.560	0.471	
13.720	0.805	0.522	
13.725	0.845	0.590	
13.730	0.803	0.666	
13.735	0.932	0.737	
13.740	0.952	0.803	
13.745	0.803	0.855	
13.750	0.935	0.884	
13.755	1.011	0.905	
13.760	0.783	0.921	
13.765	0.559	0.903	
13.770	0.545	0.841	
13.775	0.354	0.748	
13.780	0.061	0.624	
13.785	0.018	0.471	
13.790	0.059	0.316	
13.795	-0.092	0.184	
13.800	-0.127	0.073	
13.805	-0.115	-0.016	
13.810	-0.220	-0.084	
13.815	-0.245	-0.138	
13.820	-0.130	-0.178	
13.825	-0.144	-0.195	
13.830	-0.158	-0.194	
13.835	-0.081	-0.182	
13.840	-0.083	-0.162	
13.845	-0.159	-0.140	
13.850	-0.121	-0.128	
13.855	-0.058	-0.120	
13.860	-0.126	-0.110	
13.865	-0.145	-0.106	
13.870	-0.045	-0.106	
13.875	-0.052	-0.099	
13.880	-0.141	-0.091	
13.885	-0.116	-0.091	
13.890	-0.080	-0.095	
13.895	-0.179	-0.101	
13.900	-0.197	-0.114	
13.905	-0.150	-0.133	
13.910	-0.210	-0.150	
13.915	-0.231	-0.168	
13.920	-0.181	-0.185	
13.925	-0.213	-0.196	
13.930	-0.283	-0.207	
13.935	-0.266	-0.222	
13.940	-0.286	-0.239	
13.945	-0.307	-0.256	
13.950	-0.155	-0.266	
13.955	0.244	-0.239	
13.960	0.460	-0.145	
13.965	0.347	-0.002	
13.970	0.010	0.122	
13.975	-0.294	0.164	
13.980	-0.517	0.104	
13.985	-0.596	-0.034	
13.990	-0.625	-0.203	
13.995	-0.584	-0.360	
14.000	-0.488	-0.477	
14.005	-0.333	-0.533	
14.010	-0.231	-0.527	
14.015	-0.142	-0.469	
14.020	0.012	-0.378	
14.025	0.024	-0.267	
14.030	-0.043	-0.163	
14.035	0.062	-0.082	
14.040	0.114	-0.017	
14.045	0.076	0.034	
14.050	0.250	0.077	
14.055	0.380	0.128	
14.060	0.295	0.190	
14.065	0.272	0.242	
14.070	0.368	0.279	
14.075	0.470	0.314	
14.080	0.541	0.358	
14.085	0.681	0.417	
14.090	0.802	0.494	
14.095	0.770	0.581	
14.100	0.846	0.664	
14.105	0.965	0.740	
14.110	0.875	0.810	
14.115	0.790	0.856	
14.120	0.764	0.869	
14.125	0.609	0.850	
14.130	0.446	0.796	
14.135	0.414	0.711	
14.140	0.305	0.611	
14.145	0.017	0.497	
14.150	-0.055	0.362	
14.155	-0.029	0.223	
14.160	-0.139	0.102	
14.165	-0.223	-0.001	
14.170	-0.161	-0.086	
14.175	-0.216	-0.147	
14.180	-0.271	-0.189	
14.185	-0.217	-0.220	
14.190	-0.205	-0.237	
14.195	-0.214	-0.240	
14.200	-0.181	-0.235	
14.205	-0.113	-0.221	
14.210	-0.158	-0.199	
14.215	-0.236	-0.182	
14.220	-0.165	-0.177	
14.225	-0.100	-0.173	
14.230	-0.110	-0.160	
14.235	-0.086	-0.144	
14.240	-0.040	-0.124	
14.245	-0.110	-0.104	
14.250	-0.133	-0.093	
14.255	-0.086	-0.092	
14.260	-0.182	-0.097	
14.265	-0.257	-0.114	
14.270	-0.232	-0.144	
14.275	-0.272	-0.178	
14.280	-0.289	-0.211	
14.285	-0.243	-0.239	
14.290	-0.229	-0.255	
14.295	-0.272	-0.261	
14.300	-0.236	-0.262	
14.305	-0.200	-0.258	
14.310	-0.271	-0.250	
14.315	-0.252	-0.246	
14.320	-0.058	-0.237	
14.325	0.201	-0.197	
14.330	0.253	-0.113	
14.335	0.122	-0.013	
14.340	-0.135	0.056	
14.345	-0.419	0.053	
14.350	-0.567	-0.029	
14.355	-0.599	-0.164	
14.360	-0.634	-0.310	
14.365	-0.578	-0.438	
14.370	-0.378	-0.520	
14.375	-0.271	-0.538	
14.380	-0.242	-0.501	
14.385	-0.097	-0.430	
14.390	0.076	-0.332	
14.395	0.027	-0.219	
14.400	0.068	-0.114	
14.405	0.172	-0.025	
14.410	0.047	0.044	
14.415	0.111	0.087	
14.420	0.345	0.121	
14.425	0.343	0.168	
14.430	0.215	0.218	
14.435	0.328	0.253	
14.440	0.458	0.285	
14.445	0.450	0.326	
14.450	0.495	0.372	
14.455	0.676	0.423	
14.460	0.728	0.489	
14.465	0.748	0.564	
14.470	0.872	0.640	
14.475	0.878	0.715	
14.480	0.750	0.775	
14.485	0.750	0.806	
14.490	0.738	0.811	
14.495	0.525	0.790	
14.500	0.368	0.734	
14.505	0.307	0.643	
14.510	0.185	0.533	
14.515	0.085	0.416	
14.520	0.099	0.303	
14.525	-0.037	0.202	
14.530	-0.164	0.109	
14.535	-0.159	0.019	
14.540	-0.158	-0.058	
14.545	-0.237	-0.118	
14.550	-0.207	-0.165	
14.555	-0.174	-0.195	
14.560	-0.187	-0.208	
14.565	-0.156	-0.209	
14.570	-0.081	-0.197	
14.575	-0.113	-0.175	
14.580	-0.177	-0.154	
14.585	-0.133	-0.143	
14.590	-0.110	-0.137	
14.595	-0.133	-0.131	
14.600	-0.092	-0.126	
14.605	-0.003	-0.115	
14.610	-0.077	-0.096	
14.615	-0.127	-0.082	
14.620	-0.100	-0.080	
14.625	-0.150	-0.086	
14.630	-0.225	-0.102	
14.635	-0.214	-0.129	
14.640	-0.155	-0.155	
14.645	-0.217	-0.174	
14.650	-0.242	-0.189	
14.655	-0.184	-0.203	
14.660	-0.226	-0.210	
14.665	-0.281	-0.218	
14.670	-0.216	-0.227	
14.675	-0.231	-0.234	
14.680	-0.277	-0.238	
14.685	-0.174	-0.240	
14.690	0.050	-0.224	
14.695	0.246	-0.166	
14.700	0.284	-0.069	
14.705	0.093	0.033	
14.710	-0.294	0.085	
14.715	-0.520	0.049	
14.720	-0.564	-0.066	
14.725	-0.584	-0.213	
14.730	-0.569	-0.352	
14.735	-0.428	-0.455	
14.740	-0.329	-0.502	
14.745	-0.309	-0.497	
14.750	-0.181	-0.455	
14.755	-0.016	-0.382	
14.760	-0.002	-0.285	
14.765	-0.032	-0.188	
14.770	0.105	-0.103	
14.775	0.136	-0.028	
14.780	0.065	0.034	
14.785	0.171	0.079	
14.790	0.223	0.115	
14.795	0.105	0.145	
14.800	0.214	0.163	
14.805	0.383	0.184	
14.810	0.356	0.222	
14.815	0.327	0.265	
14.820	0.512	0.308	
14.825	0.615	0.362	
14.830	0.577	0.430	
14.835	0.673	0.496	
14.840	0.730	0.560	
14.845	0.539	0.611	
14.850	0.640	0.636	
14.855	0.793	0.652	
14.860	0.628	0.671	
14.865	0.400	0.669	
14.870	0.391	0.629	
14.875	0.247	0.559	
14.880	0.009	0.463	
14.885	-0.002	0.342	
14.890	-0.048	0.218	
14.895	-0.158	0.105	
14.900	-0.182	0.005	
14.905	-0.158	-0.077	
14.910	-0.249	-0.137	
14.915	-0.268	-0.184	
14.920	-0.161	-0.217	
14.925	-0.147	-0.227	
14.930	-0.199	-0.220	
14.935	-0.165	-0.209	
14.940	-0.150	-0.196	
14.945	-0.176	-0.183	
14.950	-0.145	-0.173	
14.955	-0.049	-0.160	
14.960	-0.122	-0.141	
14.965	-0.167	-0.127	
14.970	-0.060	-0.120	
14.975	-0.071	-0.111	
14.980	-0.167	-0.103	
14.985	-0.164	-0.107	
14.990	-0.122	-0.117	
14.995	-0.177	-0.127	
15.000	-0.197	-0.140	
15.005	-0.174	-0.155	
15.010	-0.228	-0.170	
15.015	-0.266	-0.187	
15.020	-0.219	-0.206	
15.025	-0.196	-0.219	
15.030	-0.232	-0.224	
15.035	-0.217	-0.225	
15.040	-0.210	-0.225	
15.045	-0.263	-0.225	
15.050	-0.223	-0.227	
15.055	-0.068	-0.223	
15.060	0.062	-0.193	
15.065	0.168	-0.132	
15.070	0.259	-0.048	
15.075	-0.084	0.030	
15.080	-0.390	0.049	
15.085	-0.480	-0.012	
15.090	-0.517	-0.127	
15.095	-0.543	-0.254	
15.100	-0.460	-0.365	
15.105	-0.327	-0.435	
15.110	-0.286	-0.454	
15.115	-0.254	-0.432	
15.120	-0.112	-0.384	
15.125	-0.057	-0.314	
15.130	-0.081	-0.236	
15.135	0.021	-0.163	
15.140	0.085	-0.095	
15.145	0.039	-0.033	
15.150	0.094	0.015	
15.155	0.208	0.056	
15.160	0.119	0.095	
15.165	0.093	0.121	
15.170	0.227	0.137	
15.175	0.233	0.155	
15.180	0.168	0.175	
15.185	0.331	0.194	
15.190	0.505	0.229	
15.195	0.470	0.288	
15.200	0.508	0.354	
15.205	0.652	0.420	
15.210	0.640	0.488	
15.215	0.567	0.546	
15.220	0.602	0.584	
15.225	0.496	0.599	
15.230	0.339	0.585	
15.235	0.314	0.539	
15.240	0.282	0.475	
15.245	0.059	0.399	
15.250	-0.019	0.305	
15.255	-0.019	0.203	
15.260	-0.119	0.107	
15.265	-0.182	0.020	
15.270	-0.139	-0.055	
15.275	-0.174	-0.111	
15.280	-0.251	-0.153	
15.285	-0.210	-0.185	
15.290	-0.161	-0.206	
15.295	-0.200	-0.212	
15.300	-0.202	-0.211	
15.305	-0.135	-0.205	
15.310	-0.144	-0.193	
15.315	-0.161	-0.179	
15.320	-0.089	-0.164	
15.325	-0.052	-0.145	
15.330	-0.098	-0.122	
15.335	-0.051	-0.102	
15.340	-0.011	-0.083	
15.345	-0.095	-0.066	
15.350	-0.124	-0.061	
15.355	-0.097	-0.067	
15.360	-0.164	-0.080	
15.365	-0.257	-0.103	
15.370	-0.257	-0.138	
15.375	-0.205	-0.175	
15.380	-0.229	-0.202	
15.385	-0.196	-0.218	
15.390	-0.171	-0.222	
15.395	-0.242	-0.219	
15.400	-0.297	-0.221	
15.405	-0.197	-0.229	
15.410	-0.207	-0.232	
15.415	-0.223	-0.229	
15.420	-0.069	-0.219	
15.425	0.105	-0.185	
15.430	0.215	-0.118	
15.435	0.273	-0.026	
15.440	0.099	0.064	
15.445	-0.239	0.107	
15.450	-0.451	0.070	
15.455	-0.517	-0.037	
15.460	-0.529	-0.176	
15.465	-0.488	-0.307	
15.470	-0.373	-0.401	
15.475	-0.291	-0.444	
15.480	-0.251	-0.439	
15.485	-0.116	-0.397	
15.490	-0.005	-0.326	
15.495	-0.077	-0.240	
15.500	-0.049	-0.163	
15.505	0.070	-0.100	
15.510	0.046	-0.044	
15.515	0.006	-0.001	
15.520	0.140	0.030	
15.525	0.152	0.059	
15.530	0.020	0.085	
15.535	0.072	0.093	
15.540	0.194	0.097	
15.545	0.273	0.115	
15.550	0.357	0.153	
15.555	0.516	0.213	
15.560	0.444	0.288	
15.565	0.452	0.357	
15.570	0.655	0.418	
15.575	0.666	0.482	
15.580	0.553	0.542	
15.585	0.583	0.580	
15.590	0.577	0.598	
15.595	0.363	0.593	
15.600	0.238	0.553	
15.605	0.206	0.479	
15.610	0.044	0.386	
15.615	-0.038	0.281	
15.620	0.018	0.177	
15.625	-0.045	0.091	
15.630	-0.167	0.021	
15.635	-0.153	-0.042	
15.640	-0.132	-0.093	
15.645	-0.211	-0.130	
15.650	-0.200	-0.159	
15.655	-0.139	-0.178	
15.660	-0.193	-0.186	
15.665	-0.207	-0.189	
15.670	-0.121	-0.189	
15.675	-0.135	-0.182	
15.680	-0.168	-0.170	
15.685	-0.090	-0.159	
15.690	-0.017	-0.141	
15.695	-0.109	-0.117	
15.700	-0.106	-0.099	
15.705	-0.045	-0.089	
15.710	-0.115	-0.082	
15.715	-0.129	-0.082	
15.720	-0.043	-0.086	
15.725	-0.077	-0.085	
15.730	-0.197	-0.088	
15.735	-0.210	-0.104	
15.740	-0.156	-0.128	
15.745	-0.196	-0.150	
15.750	-0.219	-0.168	
15.755	-0.170	-0.183	
15.760	-0.213	-0.192	
15.765	-0.260	-0.201	
15.770	-0.243	-0.213	
15.775	-0.246	-0.225	
15.780	-0.246	-0.235	
15.785	-0.165	-0.238	
15.790	0.018	-0.222	
15.795	0.146	-0.172	
15.800	0.259	-0.089	
15.805	0.296	0.012	
15.810	-0.086	0.095	
15.815	-0.368	0.107	
15.820	-0.488	0.033	
15.825	-0.543	-0.097	
15.830	-0.556	-0.241	
15.835	-0.468	-0.365	
15.840	-0.339	-0.444	
15.845	-0.317	-0.468	
15.850	-0.298	-0.452	
15.855	-0.098	-0.407	
15.860	0.012	-0.333	
15.865	-0.003	-0.238	
15.870	0.140	-0.141	
15.875	0.140	-0.048	
15.880	0.020	0.027	
15.885	0.094	0.072	
15.890	0.214	0.100	
15.895	0.142	0.126	
15.900	0.198	0.147	
15.905	0.354	0.172	
15.910	0.263	0.206	
15.915	0.308	0.240	
15.920	0.499	0.276	
15.925	0.603	0.331	
15.930	0.519	0.399	
15.935	0.618	0.464	
15.940	0.765	0.526	
15.945	0.689	0.590	
15.950	0.707	0.645	
15.955	0.808	0.687	
15.960	0.621	0.716	
15.965	0.379	0.711	
15.970	0.350	0.657	
15.975	0.288	0.572	
15.980	0.111	0.473	
15.985	0.027	0.361	
15.990	-0.009	0.247	
15.995	-0.124	0.140	
16.000	-0.200	0.040	
16.005	-0.162	-0.048	
16.010	-0.150	-0.113	
16.015	-0.200	-0.155	
16.020	-0.164	-0.180	
16.025	-0.148	-0.190	
16.030	-0.188	-0.190	
16.035	-0.153	-0.186	
16.040	-0.122	-0.178	
16.045	-0.161	-0.167	
16.050	-0.148	-0.158	
16.055	-0.107	-0.151	
16.060	-0.142	-0.143	
16.065	-0.188	-0.139	
16.070	-0.074	-0.139	
16.075	-0.026	-0.130	
16.080	-0.097	-0.112	
16.085	-0.106	-0.097	
16.090	-0.080	-0.090	
16.095	-0.179	-0.090	
16.100	-0.219	-0.104	
16.105	-0.162	-0.128	
16.110	-0.194	-0.150	
16.115	-0.246	-0.170	
16.120	-0.228	-0.190	
16.125	-0.252	-0.209	
16.130	-0.257	-0.226	
16.135	-0.203	-0.237	
16.140	-0.171	-0.237	
16.145	-0.257	-0.231	
16.150	-0.295	-0.230	
16.155	-0.197	-0.236	
16.160	-0.150	-0.234	
16.165	-0.025	-0.213	
16.170	0.386	-0.156	
16.175	0.403	-0.045	
16.180	-0.045	0.070	
16.185	-0.272	0.116	
16.190	-0.419	0.071	
16.195	-0.593	-0.043	
16.200	-0.634	-0.195	
16.205	-0.530	-0.343	
16.210	-0.425	-0.451	
16.215	-0.342	-0.500	
16.220	-0.232	-0.494	
16.225	-0.132	-0.443	
16.230	-0.115	-0.365	
16.235	-0.052	-0.278	
16.240	0.137	-0.188	
16.245	0.079	-0.095	
16.250	0.053	-0.015	
16.255	0.186	0.044	
16.260	0.194	0.093	
16.265	0.039	0.129	
16.270	0.215	0.145	
16.275	0.365	0.165	
16.280	0.389	0.205	
16.285	0.470	0.262	
16.290	0.589	0.330	
16.295	0.542	0.404	
16.300	0.580	0.469	
16.305	0.754	0.528	
16.310	0.745	0.591	
16.315	0.687	0.648	
16.320	0.817	0.692	
16.325	0.842	0.731	
16.330	0.678	0.763	
16.335	0.620	0.767	
16.340	0.583	0.743	
16.345	0.284	0.690	
16.350	0.139	0.596	
16.355	0.209	0.475	
16.360	-0.006	0.354	
16.365	-0.129	0.232	
16.370	-0.103	0.112	
16.375	-0.139	0.011	
16.380	-0.202	-0.068	
16.385	-0.187	-0.128	
16.390	-0.170	-0.168	
16.395	-0.232	-0.192	
16.400	-0.251	-0.209	
16.405	-0.161	-0.220	
16.410	-0.165	-0.219	
16.415	-0.220	-0.211	
16.420	-0.147	-0.203	
16.425	-0.136	-0.191	
16.430	-0.174	-0.178	
16.435	-0.116	-0.166	
16.440	-0.055	-0.151	
16.445	-0.144	-0.133	
16.450	-0.148	-0.122	
16.455	-0.063	-0.117	
16.460	-0.158	-0.113	
16.465	-0.249	-0.120	
16.470	-0.138	-0.137	
16.475	-0.144	-0.151	
16.480	-0.254	-0.162	
16.485	-0.260	-0.179	
16.490	-0.217	-0.200	
16.495	-0.262	-0.218	
16.500	-0.272	-0.233	
16.505	-0.208	-0.244	
16.510	-0.262	-0.249	
16.515	-0.330	-0.254	
16.520	-0.254	-0.264	
16.525	-0.231	-0.269	
16.530	-0.202	-0.265	
16.535	0.010	-0.242	
16.540	0.310	-0.181	
16.545	0.299	-0.074	
16.550	0.035	0.035	
16.555	-0.242	0.089	
16.560	-0.524	0.054	
16.565	-0.666	-0.064	
16.570	-0.621	-0.224	
16.575	-0.550	-0.375	
16.580	-0.515	-0.483	
16.585	-0.376	-0.537	
16.590	-0.220	-0.534	
16.595	-0.165	-0.479	
16.600	-0.084	-0.392	
16.605	0.101	-0.288	
16.610	0.101	-0.174	
16.615	0.003	-0.072	
16.620	0.055	-0.001	
16.625	0.137	0.046	
16.630	0.174	0.084	
16.635	0.241	0.120	
16.640	0.408	0.165	
16.645	0.325	0.220	
16.650	0.256	0.268	
16.655	0.461	0.301	
16.660	0.528	0.341	
16.665	0.501	0.391	
16.670	0.608	0.442	
16.675	0.767	0.500	
16.680	0.771	0.571	
16.685	0.813	0.644	
16.690	0.890	0.713	
16.695	0.822	0.773	
16.700	0.764	0.812	
16.705	0.790	0.826	
16.710	0.576	0.815	
16.715	0.409	0.768	
16.720	0.376	0.684	
16.725	0.246	0.582	
16.730	0.018	0.465	
16.735	-0.061	0.332	
16.740	-0.054	0.198	
16.745	-0.190	0.079	
16.750	-0.182	-0.023	
16.755	-0.113	-0.099	
16.760	-0.194	-0.146	
16.765	-0.248	-0.177	
16.770	-0.170	-0.199	
16.775	-0.161	-0.208	
16.780	-0.211	-0.206	
16.785	-0.165	-0.202	
16.790	-0.097	-0.192	
16.795	-0.152	-0.175	
16.800	-0.168	-0.161	
16.805	-0.133	-0.153	
16.810	-0.148	-0.147	
16.815	-0.168	-0.145	
16.820	-0.054	-0.142	
16.825	-0.049	-0.130	
16.830	-0.112	-0.112	
16.835	-0.072	-0.098	
16.840	-0.042	-0.087	
16.845	-0.130	-0.079	
16.850	-0.171	-0.082	
16.855	-0.182	-0.099	
16.860	-0.232	-0.124	
16.865	-0.255	-0.155	
16.870	-0.216	-0.186	
16.875	-0.232	-0.210	
16.880	-0.278	-0.227	
16.885	-0.249	-0.241	
16.890	-0.232	-0.250	
16.895	-0.272	-0.254	
16.900	-0.229	-0.256	
16.905	-0.028	-0.244	
16.910	0.142	-0.200	
16.915	0.316	-0.115	
16.920	0.374	0.001	
16.925	0.006	0.107	
16.930	-0.365	0.141	
16.935	-0.552	0.072	
16.940	-0.634	-0.072	
16.945	-0.604	-0.241	
16.950	-0.529	-0.389	
16.955	-0.370	-0.484	
16.960	-0.274	-0.513	
16.965	-0.229	-0.485	
16.970	-0.095	-0.420	
16.975	0.128	-0.324	
16.980	0.093	-0.205	
16.985	0.143	-0.088	
16.990	0.204	0.013	
16.995	0.124	0.091	
17.000	0.197	0.143	
17.005	0.379	0.183	
17.010	0.365	0.230	
17.015	0.336	0.277	
17.020	0.418	0.316	
17.025	0.542	0.356	
17.030	0.551	0.405	
17.035	0.669	0.461	
17.040	0.768	0.526	
17.045	0.713	0.595	
17.050	0.823	0.659	
17.055	1.103	0.728	
17.060	1.126	0.820	
17.065	1.029	0.916	
17.070	1.008	0.987	
17.075	0.981	1.026	
17.080	0.741	1.027	
17.085	0.654	0.982	
17.090	0.573	0.899	
17.095	0.319	0.790	
17.100	0.073	0.650	
17.105	0.174	0.491	
17.110	0.110	0.346	
17.115	-0.068	0.226	
17.120	-0.101	0.120	
17.125	-0.107	0.028	
17.130	-0.181	-0.045	
17.135	-0.173	-0.103	
17.140	-0.139	-0.143	
17.145	-0.174	-0.165	
17.150	-0.165	-0.175	
17.155	1.259	-0.114	
17.160	3.032	0.186	
17.165	3.006	0.776	
17.170	2.994	1.478	
17.175	2.991	2.104	
17.180	2.991	2.575	
17.185	2.994	2.884	
17.190	2.994	3.056	
17.195	2.997	3.129	
17.200	3.000	3.141	
17.205	3.000	3.121	
17.210	3.006	3.089	
17.215	3.011	3.058	
17.220	3.014	3.034	
17.225	3.019	3.018	
17.230	3.020	3.011	
17.235	3.025	3.009	
17.240	3.028	3.011	
17.245	3.031	3.015	
17.250	3.032	3.020	
17.255	3.037	3.025	
17.260	3.040	3.029	
17.265	2.910	3.027	
17.270	2.725	3.002	
17.275	2.562	2.940	
17.280	2.462	2.842	
17.285	2.577	2.734	
17.290	2.612	2.648	
17.295	2.166	2.577	
17.300	1.456	2.454	
17.305	0.710	2.208	
17.310	-0.035	1.810	
17.315	-0.436	1.290	
17.320	-0.811	0.717	
17.325	-0.995	0.162	
17.330	-0.995	-0.316	
17.335	-0.995	-0.676	
17.340	-0.996	-0.912	
17.345	-0.996	-1.044	
17.350	-0.996	-1.100	
17.355	-0.996	-1.108	
17.360	-0.996	-1.092	
17.365	-0.996	-1.066	
17.370	-0.996	-1.040	
17.375	-0.996	-1.020	
17.380	-0.996	-1.005	
17.385	-0.996	-0.997	
17.390	-0.996	-0.992	
17.395	-0.996	-0.991	
17.400	-0.996	-0.991	
17.405	-0.996	-0.992	
17.410	-0.996	-0.994	
17.415	-0.996	-0.995	
17.420	-0.996	-0.996	
17.425	-0.995	-0.996	
17.430	-0.995	-0.996	
17.435	-0.995	-0.996	
17.440	-0.995	-0.996	
17.445	-0.995	-0.995	
17.450	-0.995	-0.995	
17.455	-0.995	-0.995	
17.460	-0.995	-0.995	
17.465	-0.995	-0.995	
17.470	-0.995	-0.995	
17.475	-0.995	-0.995	
17.480	-0.995	-0.995	
17.485	-0.995	-0.995	
17.490	-0.995	-0.995	
17.495	-0.995	-0.995	
17.500	-0.995	-0.995	
17.505	-0.995	-0.995	
17.510	-0.995	-0.995	
17.515	-0.995	-0.995	
17.520	-0.993	-0.995	
17.525	-0.995	-0.995	
17.530	-0.995	-0.994	
17.535	-0.995	-0.994	
17.540	-0.929	-0.992	
17.545	-0.937	-0.982	
17.550	-0.873	-0.966	
17.555	-0.773	-0.939	
17.560	-0.769	-0.899	
17.565	-0.767	-0.856	
17.570	-0.666	-0.814	
17.575	-0.627	-0.769	
17.580	-0.639	-0.723	
17.585	-0.569	-0.681	
17.590	-0.520	-0.640	
17.595	-0.575	-0.603	
17.600	-0.604	-0.578	
17.605	-0.553	-0.567	
17.610	-0.585	-0.563	
17.615	-0.617	-0.565	
17.620	-0.537	-0.570	
17.625	-0.459	-0.567	
17.630	-0.492	-0.550	
17.635	-0.478	-0.529	
17.640	-0.411	-0.507	
17.645	-0.445	-0.483	
17.650	-0.431	-0.462	
17.655	-0.274	-0.439	
17.660	-0.133	-0.398	
17.665	0.085	-0.326	
17.670	0.127	-0.222	
17.675	-0.145	-0.122	
17.680	-0.449	-0.078	
17.685	-0.628	-0.119	
17.690	-0.682	-0.228	
17.695	-0.741	-0.365	
17.700	-0.637	-0.494	
17.705	-0.408	-0.579	
17.710	-0.277	-0.593	
17.715	-0.214	-0.545	
17.720	-0.049	-0.456	
17.725	0.131	-0.336	
17.730	0.099	-0.201	
17.735	0.185	-0.073	
17.740	0.345	0.040	
17.745	0.281	0.142	
17.750	0.357	0.224	
17.755	0.574	0.296	
17.760	0.534	0.370	
17.765	0.534	0.439	
17.770	0.707	0.499	
17.775	0.768	0.561	
17.780	0.756	0.627	
17.785	0.886	0.689	
17.790	1.071	0.759	
17.795	1.025	0.840	
17.800	1.086	0.919	
17.805	1.289	0.995	
17.810	1.281	1.077	
17.815	1.184	1.151	
17.820	1.254	1.201	
17.825	1.190	1.229	
17.830	0.965	1.229	
17.835	0.881	1.186	
17.840	0.854	1.111	
17.845	0.605	1.017	
17.850	0.351	0.894	
17.855	0.342	0.745	
17.860	0.218	0.592	
17.865	0.093	0.448	
17.870	0.119	0.318	
17.875	0.168	0.219	
17.880	-0.006	0.150	
17.885	-0.005	0.096	
17.890	0.101	0.055	
17.895	-0.008	0.034	
17.900	-0.017	0.020	
17.905	0.133	0.014	
17.910	0.122	0.025	
17.915	0.044	0.046	
17.920	0.097	0.061	
17.925	0.163	0.076	
17.930	0.075	0.093	
17.935	0.120	0.104	
17.940	0.238	0.115	
17.945	0.137	0.134	
17.950	0.084	0.146	
17.955	0.206	0.148	
17.960	0.183	0.153	
17.965	0.042	0.156	
17.970	0.091	0.145	
17.975	0.088	0.127	
17.980	0.007	0.108	
17.985	0.070	0.086	
17.990	0.114	0.072	
17.995	-0.016	0.065	
18.000	-0.084	0.049	
18.005	0.009	0.024	
18.010	-0.037	0.003	
18.015	-0.115	-0.017	
18.020	-0.092	-0.040	
18.025	-0.052	-0.060	
18.030	-0.055	-0.070	
18.035	0.284	-0.057	
18.040	0.693	0.016	
18.045	0.571	0.152	
18.050	0.127	0.282	
18.055	-0.167	0.324	
18.060	-0.358	0.259	
18.065	-0.504	0.115	
18.070	-0.453	-0.061	
18.075	-0.338	-0.217	
18.080	-0.329	-0.321	
18.085	-0.222	-0.369	
18.090	-0.028	-0.361	
18.095	-0.002	-0.304	
18.100	0.142	-0.214	
18.105	0.372	-0.101	
18.110	0.395	0.033	
18.115	0.348	0.162	
18.120	0.455	0.267	
18.125	0.479	0.350	
18.130	0.372	0.408	
18.135	0.478	0.440	
18.140	0.628	0.465	
18.145	0.646	0.501	
18.150	0.625	0.544	
18.155	0.721	0.585	
18.160	0.780	0.629	
18.165	0.704	0.672	
18.170	0.806	0.707	
18.175	0.945	0.745	
18.180	0.900	0.792	
18.185	0.950	0.839	
18.190	1.057	0.885	
18.195	0.999	0.932	
18.200	0.861	0.964	
18.205	0.817	0.965	
18.210	0.750	0.937	
18.215	0.579	0.884	
18.220	0.525	0.807	
18.225	0.458	0.717	
18.230	0.217	0.616	
18.235	0.097	0.499	
18.240	0.099	0.373	
18.245	-0.011	0.255	
18.250	-0.086	0.150	
18.255	-0.048	0.060	
18.260	-0.072	-0.007	
18.265	-0.150	-0.055	
18.270	-0.084	-0.089	
18.275	-0.048	-0.106	
18.280	-0.127	-0.109	
18.285	-0.107	-0.110	
18.290	-0.045	-0.107	
18.295	-0.081	-0.099	
18.300	-0.090	-0.091	
18.305	-0.025	-0.083	
18.310	-0.031	-0.072	
18.315	-0.069	-0.060	
18.320	-0.022	-0.052	
18.325	0.041	-0.042	
18.330	-0.049	-0.029	
18.335	-0.089	-0.024	
18.340	-0.025	-0.028	
18.345	-0.112	-0.037	
18.350	-0.187	-0.054	
18.355	-0.165	-0.083	
18.360	-0.179	-0.114	
18.365	-0.228	-0.143	
18.370	-0.196	-0.169	
18.375	-0.177	-0.187	
18.380	-0.229	-0.198	
18.385	-0.234	-0.207	
18.390	-0.190	-0.214	
18.395	-0.239	-0.217	
18.400	-0.240	-0.221	
18.405	-0.054	-0.217	
18.410	0.174	-0.183	
18.415	0.217	-0.109	
18.420	0.180	-0.017	
18.425	-0.042	0.057	
18.430	-0.327	0.072	
18.435	-0.474	0.012	
18.440	-0.506	-0.102	
18.445	-0.533	-0.232	
18.450	-0.477	-0.348	
18.455	-0.335	-0.425	
18.460	-0.251	-0.449	
18.465	-0.205	-0.426	
18.470	-0.090	-0.370	
18.475	0.047	-0.291	
18.480	0.023	-0.196	
18.485	0.082	-0.106	
18.490	0.204	-0.024	
18.495	0.188	0.052	
18.500	0.169	0.115	
18.505	0.235	0.159	
18.510	0.324	0.196	
18.515	0.281	0.232	
18.520	0.365	0.264	
18.525	0.426	0.298	
18.530	0.389	0.333	
18.535	0.478	0.367	
18.540	0.647	0.408	
18.545	0.692	0.466	
18.550	0.672	0.534	
18.555	0.820	0.600	
18.560	0.768	0.664	
18.565	0.657	0.712	
18.570	0.728	0.734	
18.575	0.716	0.740	
18.580	0.510	0.729	
18.585	0.392	0.688	
18.590	0.318	0.615	
18.595	0.111	0.518	
18.600	-0.031	0.398	
18.605	0.009	0.269	
18.610	-0.038	0.153	
18.615	-0.156	0.057	
18.620	-0.144	-0.023	
18.625	-0.141	-0.085	
18.630	-0.216	-0.130	
18.635	-0.208	-0.164	
18.640	-0.110	-0.184	
18.645	-0.119	-0.186	
18.650	-0.168	-0.176	
18.655	-0.089	-0.164	
18.660	-0.078	-0.147	
18.665	-0.187	-0.132	
18.670	-0.145	-0.127	
18.675	-0.031	-0.125	
18.680	-0.095	-0.115	
18.685	-0.090	-0.103	
18.690	-0.051	-0.093	
18.695	-0.064	-0.083	
18.700	-0.115	-0.076	
18.705	-0.064	-0.075	
18.710	-0.077	-0.076	
18.715	-0.165	-0.080	
18.720	-0.162	-0.093	
18.725	-0.155	-0.112	
18.730	-0.232	-0.134	
18.735	-0.265	-0.160	
18.740	-0.211	-0.188	
18.745	-0.239	-0.210	
18.750	-0.254	-0.226	
18.755	-0.176	-0.234	
18.760	-0.226	-0.234	
18.765	-0.304	-0.233	
18.770	-0.249	-0.240	
18.775	-0.122	-0.242	
18.780	-0.022	-0.222	
18.785	0.203	-0.169	
18.790	0.278	-0.082	
18.795	-0.042	0.009	
18.800	-0.320	0.047	
18.805	-0.442	0.005	
18.810	-0.540	-0.097	
18.815	-0.613	-0.228	
18.820	-0.544	-0.357	
18.825	-0.433	-0.453	
18.830	-0.384	-0.499	
18.835	-0.249	-0.497	
18.840	-0.127	-0.450	
18.845	-0.103	-0.372	
18.850	-0.103	-0.285	
18.855	0.013	-0.204	
18.860	0.030	-0.128	
18.865	-0.063	-0.067	
18.870	0.033	-0.027	
18.875	0.131	0.004	
18.880	0.023	0.033	
18.885	0.035	0.051	
18.890	0.180	0.063	
18.895	0.223	0.086	
18.900	0.288	0.123	
18.905	0.420	0.175	
18.910	0.476	0.242	
18.915	0.453	0.315	
18.920	0.556	0.382	
18.925	0.664	0.447	
18.930	0.596	0.511	
18.935	0.554	0.560	
18.940	0.655	0.589	
18.945	0.638	0.610	
18.950	0.501	0.620	
18.955	0.470	0.608	
18.960	0.324	0.571	
18.965	0.078	0.503	
18.970	-0.008	0.398	
18.975	-0.063	0.273	
18.980	-0.112	0.150	
18.985	-0.113	0.043	
18.990	-0.080	-0.037	
18.995	-0.179	-0.090	
19.000	-0.249	-0.131	
19.005	-0.161	-0.166	
19.010	-0.142	-0.185	
19.015	-0.205	-0.191	
19.020	-0.182	-0.192	
19.025	-0.141	-0.190	
19.030	-0.173	-0.183	
19.035	-0.170	-0.176	
19.040	-0.098	-0.169	
19.045	-0.124	-0.156	
19.050	-0.170	-0.145	
19.055	-0.097	-0.139	
19.060	-0.071	-0.130	
19.065	-0.103	-0.117	
19.070	-0.057	-0.105	
19.075	-0.042	-0.091	
19.080	-0.142	-0.081	
19.085	-0.173	-0.084	
19.090	-0.139	-0.099	
19.095	-0.207	-0.118	
19.100	-0.269	-0.144	
19.105	-0.228	-0.175	
19.110	-0.231	-0.202	
19.115	-0.265	-0.222	
19.120	-0.242	-0.237	
19.125	-0.213	-0.245	
19.130	-0.248	-0.246	
19.135	-0.254	-0.245	
19.140	-0.217	-0.245	
19.145	-0.188	-0.240	
19.150	-0.064	-0.223	
19.155	0.298	-0.175	
19.160	0.363	-0.078	
19.165	0.009	0.032	
19.170	-0.200	0.089	
19.175	-0.376	0.065	
19.180	-0.553	-0.029	
19.185	-0.616	-0.166	
19.190	-0.529	-0.310	
19.195	-0.453	-0.421	
19.200	-0.394	-0.483	
19.205	-0.234	-0.492	
19.210	-0.147	-0.452	
19.215	-0.139	-0.380	
19.220	-0.034	-0.296	
19.225	0.134	-0.203	
19.230	0.075	-0.106	
19.235	0.024	-0.024	
19.240	0.160	0.034	
19.245	0.142	0.078	
19.250	0.116	0.111	
19.255	0.266	0.137	
19.260	0.255	0.166	
19.265	0.188	0.194	
19.270	0.293	0.214	
19.275	0.414	0.240	
19.280	0.402	0.278	
19.285	0.505	0.325	
19.290	0.680	0.385	
19.295	0.640	0.459	
19.300	0.654	0.531	
19.305	0.793	0.595	
19.310	0.809	0.657	
19.315	0.669	0.709	
19.320	0.672	0.733	
19.325	0.628	0.732	
19.330	0.437	0.705	
19.335	0.252	0.643	
19.340	0.157	0.544	
19.345	0.024	0.422	
19.350	-0.084	0.290	
19.355	-0.064	0.162	
19.360	-0.119	0.054	
19.365	-0.242	-0.035	
19.370	-0.228	-0.110	
19.375	-0.168	-0.167	
19.380	-0.231	-0.201	
19.385	-0.249	-0.221	
19.390	-0.176	-0.232	
19.395	-0.173	-0.230	
19.400	-0.208	-0.220	
19.405	-0.150	-0.209	
19.410	-0.141	-0.195	
19.415	-0.240	-0.183	
19.420	-0.199	-0.181	
19.425	-0.100	-0.181	
19.430	-0.142	-0.172	
19.435	-0.132	-0.160	
19.440	-0.058	-0.146	
19.445	-0.126	-0.129	
19.450	-0.208	-0.121	
19.455	-0.118	-0.125	
19.460	-0.113	-0.130	
19.465	-0.217	-0.134	
19.470	-0.231	-0.147	
19.475	-0.194	-0.167	
19.480	-0.245	-0.186	
19.485	-0.271	-0.205	
19.490	-0.223	-0.223	
19.495	-0.251	-0.235	
19.500	-0.300	-0.245	
19.505	-0.228	-0.255	
19.510	-0.249	-0.259	
19.515	-0.292	-0.260	
19.520	-0.158	-0.258	
19.525	0.148	-0.231	
19.530	0.347	-0.153	
19.535	0.324	-0.032	
19.540	0.087	0.083	
19.545	-0.271	0.135	
19.550	-0.533	0.090	
19.555	-0.604	-0.039	
19.560	-0.605	-0.203	
19.565	-0.575	-0.356	
19.570	-0.443	-0.467	
19.575	-0.303	-0.517	
19.580	-0.254	-0.506	
19.585	-0.188	-0.454	
19.590	-0.031	-0.375	
19.595	-0.025	-0.279	
19.600	-0.017	-0.185	
19.605	0.072	-0.104	
19.610	0.120	-0.034	
19.615	0.047	0.024	
19.620	0.146	0.064	
19.625	0.269	0.100	
19.630	0.169	0.139	
19.635	0.223	0.171	
19.640	0.432	0.203	
19.645	0.437	0.252	
19.650	0.389	0.307	
19.655	0.544	0.359	
19.660	0.634	0.416	
19.665	0.658	0.481	
19.670	0.748	0.549	
19.675	0.867	0.620	
19.680	0.759	0.690	
19.685	0.721	0.741	
19.690	0.826	0.769	
19.695	0.712	0.783	
19.700	0.481	0.771	
19.705	0.392	0.719	
19.710	0.310	0.633	
19.715	0.136	0.527	
19.720	0.032	0.406	
19.725	-0.055	0.278	
19.730	-0.164	0.153	
19.735	-0.196	0.036	
19.740	-0.124	-0.059	
19.745	-0.197	-0.125	
19.750	-0.252	-0.169	
19.755	-0.196	-0.202	
19.760	-0.197	-0.219	
19.765	-0.234	-0.225	
19.770	-0.171	-0.225	
19.775	-0.135	-0.217	
19.780	-0.179	-0.201	
19.785	-0.161	-0.186	
19.790	-0.113	-0.173	
19.795	-0.162	-0.160	
19.800	-0.197	-0.153	
19.805	-0.071	-0.151	
19.810	-0.022	-0.138	
19.815	-0.130	-0.118	
19.820	-0.080	-0.103	
19.825	-0.011	-0.090	
19.830	-0.145	-0.079	
19.835	-0.181	-0.081	
19.840	-0.159	-0.098	
19.845	-0.184	-0.119	
19.850	-0.257	-0.144	
19.855	-0.225	-0.172	
19.860	-0.185	-0.196	
19.865	-0.265	-0.210	
19.870	-0.231	-0.223	
19.875	-0.207	-0.231	
19.880	-0.287	-0.235	
19.885	-0.303	-0.244	
19.890	-0.225	-0.255	
19.895	-0.129	-0.254	
19.900	0.052	-0.226	
19.905	0.278	-0.159	
19.910	0.288	-0.056	
19.915	-0.119	0.039	
19.920	-0.355	0.065	
19.925	-0.500	0.004	
19.930	-0.647	-0.119	
19.935	-0.663	-0.271	
19.940	-0.540	-0.411	
19.945	-0.445	-0.505	
19.950	-0.385	-0.542	
19.955	-0.232	-0.527	
19.960	-0.126	-0.467	
19.965	-0.107	-0.379	
19.970	-0.086	-0.285	
19.975	0.151	-0.192	
19.980	0.134	-0.095	
19.985	0.114	-0.005	
19.990	0.244	0.068	
19.995	0.209	0.129	
20.000	0.159	0.173	
20.005	0.324	0.202	
20.010	0.360	0.233	
20.015	0.261	0.265	
20.020	0.369	0.290	
20.025	0.545	0.320	
20.030	0.551	0.368	
20.035	0.525	0.424	
20.040	0.837	0.486	
20.045	0.897	0.570	
20.050	0.808	0.664	
20.055	0.903	0.746	
20.060	0.886	0.810	
20.065	0.686	0.847	
20.070	0.621	0.841	
20.075	0.588	0.800	
20.080	0.334	0.730	
20.085	0.133	0.625	
20.090	0.075	0.489	
20.095	-0.048	0.343	
20.100	-0.109	0.202	
20.105	-0.089	0.079	
20.110	-0.112	-0.015	
20.115	-0.188	-0.081	
20.120	-0.207	-0.131	
20.125	-0.165	-0.166	
20.130	-0.225	-0.188	
20.135	-0.271	-0.205	
20.140	-0.190	-0.220	
20.145	-0.187	-0.225	
20.150	-0.249	-0.224	
20.155	-0.217	-0.223	
20.160	-0.136	-0.220	
20.165	-0.127	-0.206	
20.170	-0.092	-0.183	
20.175	-0.064	-0.156	
20.180	-0.130	-0.130	
20.185	-0.112	-0.113	
20.190	-0.055	-0.103	
20.195	-0.121	-0.095	
20.200	-0.150	-0.094	
20.205	-0.090	-0.100	
20.210	-0.122	-0.105	
20.215	-0.223	-0.114	
20.220	-0.262	-0.136	
20.225	-0.237	-0.167	
20.230	-0.269	-0.198	
20.235	-0.272	-0.225	
20.240	-0.246	-0.245	
20.245	-0.301	-0.259	
20.250	-0.291	-0.271	
20.255	-0.229	-0.278	
20.260	-0.219	-0.275	
20.265	-0.265	-0.266	
20.270	-0.174	-0.254	
20.275	0.097	-0.226	
20.280	0.337	-0.154	
20.285	0.264	-0.042	
20.290	0.013	0.061	
20.295	-0.298	0.100	
20.300	-0.555	0.049	
20.305	-0.630	-0.080	
20.310	-0.621	-0.241	
20.315	-0.605	-0.389	
20.320	-0.488	-0.498	
20.325	-0.371	-0.549	
20.330	-0.287	-0.543	
20.335	-0.167	-0.491	
20.340	-0.038	-0.406	
20.345	0.003	-0.300	
20.350	0.013	-0.193	
20.355	0.130	-0.098	
20.360	0.178	-0.012	
20.365	0.094	0.059	
20.370	0.180	0.109	
20.375	0.321	0.149	
20.380	0.264	0.191	
20.385	0.290	0.229	
20.390	0.429	0.264	
20.395	0.432	0.306	
20.400	0.426	0.349	
20.405	0.661	0.396	
20.410	2.910	0.560	
20.415	3.016	0.976	
20.420	2.996	1.551	
20.425	2.991	2.101	
20.430	2.989	2.536	
20.435	2.989	2.834	
20.440	2.993	3.009	
20.445	2.991	3.092	
20.450	2.989	3.114	
20.455	2.991	3.102	
20.460	2.993	3.076	
20.465	2.993	3.047	
20.470	2.989	3.023	
20.475	2.991	3.005	
20.480	2.991	2.994	
20.485	2.991	2.988	
20.490	2.993	2.985	
20.495	2.991	2.985	
20.500	2.991	2.986	
20.505	2.991	2.988	
20.510	2.994	2.989	
20.515	3.000	2.991	
20.520	3.002	2.993	
20.525	3.005	2.996	
20.530	3.009	2.999	
20.535	3.014	3.003	
20.540	3.016	3.006	
20.545	3.022	3.010	
20.550	3.023	3.014	
20.555	3.026	3.017	
20.560	3.028	3.021	
20.565	3.029	3.024	
20.570	3.034	3.026	
20.575	3.037	3.029	
20.580	3.040	3.032	
20.585	2.669	3.017	
20.590	2.432	2.952	
20.595	2.136	2.821	
20.600	1.738	2.626	
20.605	1.445	2.371	
20.610	1.175	2.075	
20.615	0.944	1.766	
20.620	0.765	1.464	
20.625	0.681	1.191	
20.630	0.398	0.954	
20.635	0.128	0.735	
20.640	0.049	0.524	
20.645	-0.006	0.334	
20.650	0.006	0.181	
20.655	0.140	0.079	
20.660	0.233	0.038	
20.665	0.041	0.041	
20.670	-0.222	0.039	
20.675	-0.485	-0.010	
20.680	-0.772	-0.123	
20.685	-0.958	-0.293	
20.690	-0.980	-0.492	
20.695	-0.954	-0.678	
20.700	-0.928	-0.820	
20.705	-0.813	-0.906	
20.710	-0.666	-0.929	
20.715	-0.653	-0.898	
20.720	-0.648	-0.838	
20.725	-0.604	-0.772	
20.730	-0.608	-0.710	
20.735	-0.598	-0.661	
20.740	-0.549	-0.623	
20.745	-0.552	-0.593	
20.750	-0.533	-0.570	
20.755	-0.492	-0.550	
20.760	-0.482	-0.532	
20.765	-0.520	-0.515	
20.770	-0.506	-0.506	
20.775	-0.462	-0.500	
20.780	-0.446	-0.491	
20.785	-0.454	-0.480	
20.790	-0.417	-0.467	
20.795	-0.423	-0.454	
20.800	-0.465	-0.443	
20.805	-0.456	-0.440	
20.810	-0.440	-0.441	
20.815	-0.482	-0.444	
20.820	-0.538	-0.453	
20.825	-0.616	-0.474	
20.830	-0.734	-0.512	
20.835	-0.850	-0.572	
20.840	-0.926	-0.651	
20.845	-0.995	-0.740	
20.850	-0.995	-0.828	
20.855	-0.995	-0.902	
20.860	-0.993	-0.955	
20.865	-0.995	-0.989	
20.870	-0.995	-1.006	
20.875	-0.995	-1.013	
20.880	-0.995	-1.013	
20.885	-0.995	-1.009	
20.890	-0.995	-1.005	
20.895	-0.995	-1.001	
20.900	-0.996	-0.998	
20.905	-0.996	-0.996	
20.910	-0.996	-0.995	
20.915	-0.996	-0.995	
20.920	-0.996	-0.995	
20.925	-0.996	-0.995	
20.930	-0.996	-0.996	
20.935	-0.996	-0.996	
20.940	-0.996	-0.996	
20.945	-0.996	-0.996	
20.950	-0.996	-0.996	
20.955	-0.996	-0.996	
20.960	-0.996	-0.996	
20.965	-0.996	-0.996	
20.970	-0.996	-0.996	
20.975	-0.996	-0.996	
20.980	-0.996	-0.996	
20.985	-0.996	-0.996	
20.990	-0.996	-0.996	
20.995	-0.996	-0.996	
21.000	-0.996	-0.996	
21.005	-0.996	-0.996	
21.010	-0.996	-0.996	
21.015	-0.996	-0.996	
21.020	-0.996	-0.996	
21.025	-0.996	-0.996	
21.030	-0.996	-0.996	
21.035	-0.996	-0.996	
21.040	-0.996	-0.996	
21.045	-0.996	-0.996	
21.050	-0.998	-0.996	
21.055	-0.996	-0.997	
21.060	-0.996	-0.997	
21.065	-0.996	-0.997	
21.070	-0.998	-0.997	
21.075	-0.996	-0.997	
21.080	-0.996	-0.997	
21.085	-0.996	-0.997	
21.090	-0.996	-0.997	
21.095	-0.996	-0.997	
21.100	-0.996	-0.996	
21.105	-0.996	-0.996	
21.110	-0.996	-0.996	
21.115	-0.996	-0.996	
21.120	-0.996	-0.996	
21.125	-0.996	-0.996	
21.130	-0.995	-0.996	
21.135	-0.995	-0.996	
21.140	-0.996	-0.996	
21.145	-0.995	-0.996	
21.150	-0.995	-0.995	
21.155	-0.995	-0.995	
21.160	-0.989	-0.995	
21.165	-0.918	-0.990	
21.170	-0.819	-0.974	
21.175	-0.674	-0.935	
21.180	-0.599	-0.871	
21.185	-0.538	-0.790	
21.190	-0.431	-0.701	
21.195	-0.401	-0.612	
21.200	-0.379	-0.529	
21.205	-0.272	-0.457	
21.210	-0.232	-0.390	
21.215	-0.312	-0.334	
21.220	-0.327	-0.299	
21.225	-0.298	-0.285	
21.230	-0.359	-0.285	
21.235	-0.416	-0.298	
21.240	-0.321	-0.320	
21.245	-0.297	-0.334	
21.250	-0.344	-0.337	
21.255	-0.265	-0.334	
21.260	-0.194	-0.320	
21.265	-0.239	-0.296	
21.270	-0.159	-0.267	
21.275	0.119	-0.224	
21.280	0.276	-0.145	
21.285	0.369	-0.032	
21.290	0.621	0.106	
21.295	0.637	0.257	
21.300	0.567	0.398	
21.305	0.750	0.510	
21.310	0.927	0.609	
21.315	0.843	0.704	
21.320	0.887	0.783	
21.325	1.057	0.846	
21.330	0.970	0.905	
21.335	0.915	0.947	
21.340	1.095	0.973	
21.345	1.115	1.000	
21.350	0.926	1.026	
21.355	0.959	1.030	
21.360	1.017	1.020	
21.365	0.884	1.006	
21.370	0.854	0.981	
21.375	0.965	0.952	
21.380	0.921	0.933	
21.385	0.860	0.921	
21.390	1.013	0.913	
21.395	1.028	0.922	
21.400	0.877	0.938	
21.405	0.971	0.946	
21.410	1.272	0.964	
21.415	1.488	1.026	
21.420	1.758	1.144	
21.425	1.915	1.310	
21.430	1.508	1.478	
21.435	0.895	1.556	
21.440	0.576	1.486	
21.445	0.339	1.288	
21.450	0.149	1.017	
21.455	0.334	0.741	
21.460	0.602	0.534	
21.465	0.724	0.438	
21.470	0.939	0.448	
21.475	1.233	0.547	
21.480	1.321	0.713	
21.485	1.398	0.906	
21.490	1.558	1.096	
21.495	1.618	1.270	
21.500	1.508	1.412	
21.505	1.599	1.508	
21.510	1.610	1.569	
21.515	1.511	1.601	
21.520	1.552	1.607	
21.525	1.708	1.605	
21.530	1.755	1.618	
21.535	1.706	1.645	
21.540	1.857	1.679	
21.545	1.890	1.723	
21.550	1.805	1.770	
21.555	1.923	1.809	
21.560	2.021	1.848	
21.565	1.923	1.891	
21.570	1.938	1.922	
21.575	2.024	1.944	
21.580	1.922	1.961	
21.585	1.764	1.960	
21.590	1.763	1.930	
21.595	1.616	1.878	
21.600	1.343	1.798	
21.605	1.271	1.684	
21.610	1.231	1.553	
21.615	0.985	1.420	
21.620	0.874	1.280	
21.625	0.877	1.142	
21.630	0.800	1.021	
21.635	0.709	0.920	
21.640	0.788	0.840	
21.645	0.710	0.783	
21.650	0.548	0.738	
21.655	0.644	0.693	
21.660	0.725	0.661	
21.665	0.600	0.647	
21.670	0.724	0.644	
21.675	1.014	0.664	
21.680	1.026	0.726	
21.685	0.967	0.809	
21.690	1.104	0.888	
21.695	1.066	0.958	
21.700	0.939	1.009	
21.705	0.994	1.029	
21.710	1.084	1.034	
21.715	0.956	1.036	
21.720	0.921	1.027	
21.725	0.974	1.006	
21.730	0.880	0.984	
21.735	0.765	0.953	
21.740	0.831	0.911	
21.745	0.832	0.873	
21.750	0.715	0.841	
21.755	0.747	0.809	
21.760	0.780	0.782	
21.765	0.618	0.759	
21.770	0.574	0.728	
21.775	0.654	0.689	
21.780	0.512	0.654	
21.785	0.457	0.614	
21.790	0.750	0.581	
21.795	0.977	0.594	
21.800	1.097	0.665	
21.805	1.181	0.779	
21.810	0.962	0.895	
21.815	0.379	0.947	
21.820	-0.051	0.875	
21.825	-0.142	0.685	
21.830	-0.220	0.439	
21.835	-0.231	0.200	
21.840	-0.083	0.010	
21.845	0.038	-0.102	
21.850	0.094	-0.134	
21.855	0.307	-0.101	
21.860	0.507	-0.009	
21.865	0.472	0.120	
21.870	0.519	0.252	
21.875	0.664	0.371	
21.880	0.612	0.474	
21.885	0.478	0.547	
21.890	0.596	0.582	
21.895	0.643	0.598	
21.900	0.530	0.607	
21.905	0.603	0.606	
21.910	0.707	0.606	
21.915	0.644	0.617	
21.920	0.666	0.632	
21.925	0.834	0.652	
21.930	0.831	0.687	
21.935	0.805	0.730	
21.940	0.933	0.772	
21.945	0.974	0.819	
21.950	0.860	0.863	
21.955	0.883	0.891	
21.960	0.942	0.904	
21.965	0.736	0.906	
21.970	0.606	0.879	
21.975	0.589	0.820	
21.980	0.385	0.740	
21.985	0.195	0.636	
21.990	0.174	0.511	
21.995	0.073	0.384	
22.000	-0.081	0.261	
22.005	-0.112	0.144	
22.010	-0.080	0.042	
22.015	-0.147	-0.036	
22.020	-0.159	-0.092	
22.025	-0.124	-0.129	
22.030	-0.167	-0.151	
22.035	-0.210	-0.164	
22.040	-0.145	-0.174	
22.045	-0.122	-0.176	
22.050	-0.177	-0.170	
22.055	-0.171	-0.166	
22.060	-0.129	-0.163	
22.065	-0.176	-0.160	
22.070	-0.193	-0.160	
22.075	-0.126	-0.162	
22.080	-0.139	-0.160	
22.085	-0.162	-0.156	
22.090	-0.100	-0.151	
22.095	-0.089	-0.141	
22.100	-0.121	-0.129	
22.105	-0.115	-0.120	
22.110	-0.103	-0.114	
22.115	-0.197	-0.114	
22.120	-0.237	-0.127	
22.125	-0.210	-0.150	
22.130	-0.246	-0.176	
22.135	-0.286	-0.202	
22.140	-0.234	-0.225	
22.145	-0.231	-0.241	
22.150	-0.280	-0.249	
22.155	-0.286	-0.257	
22.160	-0.255	-0.264	
22.165	-0.272	-0.269	
22.170	-0.182	-0.266	
22.175	0.013	-0.245	
22.180	0.134	-0.190	
22.185	0.030	-0.114	
22.190	-0.072	-0.049	
22.195	-0.289	-0.027	
22.200	-0.527	-0.066	
22.205	-0.605	-0.162	
22.210	-0.575	-0.287	
22.215	-0.572	-0.402	
22.220	-0.515	-0.488	
22.225	-0.376	-0.531	
22.230	-0.304	-0.527	
22.235	-0.300	-0.487	
22.240	-0.207	-0.429	
22.245	-0.121	-0.359	
22.250	-0.162	-0.287	
22.255	-0.150	-0.226	
22.260	-0.104	-0.180	
22.265	-0.104	-0.146	
22.270	-0.084	-0.121	
22.275	0.032	-0.097	
22.280	0.084	-0.064	
22.285	0.036	-0.026	
22.290	0.099	0.010	
22.295	0.152	0.043	
22.300	0.108	0.075	
22.305	0.209	0.104	
22.310	0.339	0.139	
22.315	0.327	0.186	
22.320	0.343	0.237	
22.325	0.467	0.286	
22.330	0.438	0.337	
22.335	0.368	0.379	
22.340	0.417	0.403	
22.345	0.376	0.413	
22.350	0.188	0.404	
22.355	0.154	0.367	
22.360	0.091	0.308	
22.365	-0.074	0.235	
22.370	-0.156	0.145	
22.375	-0.138	0.050	
22.380	-0.226	-0.036	
22.385	-0.307	-0.113	
22.390	-0.304	-0.183	
22.395	-0.295	-0.240	
22.400	-0.323	-0.279	
22.405	-0.304	-0.305	
22.410	-0.301	-0.318	
22.415	-0.335	-0.323	
22.420	-0.309	-0.325	
22.425	-0.258	-0.322	
22.430	-0.254	-0.311	
22.435	-0.309	-0.297	
22.440	-0.219	-0.286	
22.445	-0.197	-0.272	
22.450	-0.248	-0.254	
22.455	-0.257	-0.242	
22.460	-0.242	-0.238	
22.465	-0.286	-0.239	
22.470	-0.315	-0.248	
22.475	-0.266	-0.261	
22.480	-0.292	-0.272	
22.485	-0.350	-0.282	
22.490	-0.324	-0.296	
22.495	-0.300	-0.308	
22.500	-0.370	-0.317	
22.505	-0.338	-0.326	
22.510	-0.291	-0.332	
22.515	-0.350	-0.333	
22.520	-0.341	-0.333	
22.525	-0.295	-0.333	
22.530	-0.310	-0.328	
22.535	-0.333	-0.323	
22.540	-0.303	-0.320	
22.545	-0.265	-0.315	
22.550	-0.248	-0.304	
22.555	-0.126	-0.284	
22.560	0.151	-0.237	
22.565	0.105	-0.158	
22.570	-0.179	-0.081	
22.575	-0.376	-0.057	
22.580	-0.575	-0.105	
22.585	-0.731	-0.213	
22.590	-0.685	-0.352	
22.595	-0.549	-0.478	
22.600	-0.488	-0.556	
22.605	-0.365	-0.579	
22.610	-0.231	-0.551	
22.615	-0.184	-0.482	
22.620	-0.181	-0.395	
22.625	-0.066	-0.307	
22.630	-0.046	-0.224	
22.635	-0.068	-0.152	
22.640	-0.002	-0.097	
22.645	0.036	-0.054	
22.650	-0.020	-0.020	
22.655	0.053	0.002	
22.660	0.136	0.023	
22.665	0.163	0.052	
22.670	0.258	0.089	
22.675	0.382	0.140	
22.680	0.418	0.206	
22.685	0.398	0.275	
22.690	0.536	0.339	
22.695	0.657	0.406	
22.700	0.626	0.478	
22.705	0.687	0.545	
22.710	0.826	0.608	
22.715	0.702	0.667	
22.720	0.586	0.703	
22.725	0.620	0.706	
22.730	0.475	0.683	
22.735	0.259	0.631	
22.740	0.174	0.542	
22.745	0.097	0.431	
22.750	-0.049	0.312	
22.755	-0.107	0.190	
22.760	-0.113	0.078	
22.765	-0.190	-0.015	
22.770	-0.242	-0.093	
22.775	-0.228	-0.155	
22.780	-0.254	-0.201	
22.785	-0.281	-0.233	
22.790	-0.231	-0.255	
22.795	-0.219	-0.262	
22.800	-0.269	-0.261	
22.805	-0.242	-0.258	
22.810	-0.156	-0.251	
22.815	-0.213	-0.237	
22.820	-0.229	-0.223	
22.825	-0.142	-0.213	
22.830	-0.153	-0.199	
22.835	-0.207	-0.186	
22.840	-0.142	-0.178	
22.845	-0.127	-0.170	
22.850	-0.177	-0.161	
22.855	-0.164	-0.156	
22.860	-0.135	-0.155	
22.865	-0.181	-0.154	
22.870	-0.208	-0.158	
22.875	-0.205	-0.167	
22.880	-0.248	-0.181	
22.885	-0.281	-0.200	
22.890	-0.239	-0.220	
22.895	-0.239	-0.236	
22.900	-0.274	-0.246	
22.905	-0.223	-0.252	
22.910	-0.193	-0.250	
22.915	-0.271	-0.244	
22.920	-0.277	-0.243	
22.925	-0.208	-0.245	
22.930	-0.162	-0.240	
22.935	-0.023	-0.219	
22.940	0.266	-0.166	
22.945	0.156	-0.078	
22.950	-0.234	-0.005	
22.955	-0.449	-0.003	
22.960	-0.605	-0.082	
22.965	-0.758	-0.217	
22.970	-0.804	-0.378	
22.975	-0.702	-0.529	
22.980	-0.581	-0.635	
22.985	-0.501	-0.678	
22.990	-0.390	-0.666	
22.995	-0.255	-0.608	
23.000	-0.177	-0.517	
23.005	-0.119	-0.410	
23.010	-0.048	-0.304	
23.015	-0.090	-0.209	
23.020	-0.106	-0.140	
23.025	0.041	-0.092	
23.030	0.061	-0.049	
23.035	-0.005	-0.012	
23.040	0.094	0.015	
23.045	0.285	0.047	
23.050	0.279	0.098	
23.055	0.357	0.160	
23.060	0.467	0.229	
23.065	0.460	0.301	
23.070	0.589	0.372	
23.075	0.861	0.454	
23.080	0.861	0.557	
23.085	0.843	0.663	
23.090	0.910	0.752	
23.095	0.887	0.821	
23.100	0.793	0.864	
23.105	0.796	0.876	
23.110	0.817	0.868	
23.115	0.557	0.842	
23.120	0.318	0.777	
23.125	0.339	0.673	
23.130	0.191	0.552	
23.135	0.018	0.425	
23.140	0.041	0.296	
23.145	0.017	0.184	
23.150	-0.145	0.091	
23.155	-0.148	0.009	
23.160	-0.138	-0.059	
23.165	-0.197	-0.111	
23.170	-0.211	-0.150	
23.175	-0.112	-0.175	
23.180	-0.142	-0.182	
23.185	-0.187	-0.179	
23.190	-0.113	-0.173	
23.195	-0.104	-0.162	
23.200	-0.164	-0.149	
23.205	-0.147	-0.142	
23.210	-0.080	-0.137	
23.215	-0.098	-0.128	
23.220	-0.090	-0.117	
23.225	-0.061	-0.105	
23.230	-0.019	-0.091	
23.235	-0.063	-0.075	
23.240	-0.020	-0.060	
23.245	-0.045	-0.049	
23.250	-0.165	-0.047	
23.255	-0.197	-0.064	
23.260	-0.155	-0.093	
23.265	-0.208	-0.123	
23.270	-0.219	-0.152	
23.275	-0.168	-0.176	
23.280	-0.185	-0.189	
23.285	-0.225	-0.196	
23.290	-0.182	-0.201	
23.295	-0.179	-0.202	
23.300	-0.243	-0.201	
23.305	-0.229	-0.205	
23.310	-0.080	-0.205	
23.315	0.171	-0.177	
23.320	0.469	-0.097	
23.325	0.660	0.042	
23.330	0.339	0.200	
23.335	-0.171	0.295	
23.340	-0.407	0.268	
23.345	-0.532	0.136	
23.350	-0.647	-0.052	
23.355	-0.621	-0.248	
23.360	-0.446	-0.406	
23.365	-0.321	-0.493	
23.370	-0.220	-0.506	
23.375	-0.068	-0.457	
23.380	-0.005	-0.365	
23.385	-0.002	-0.256	
23.390	0.128	-0.150	
23.395	0.204	-0.049	
23.400	0.136	0.041	
23.405	0.156	0.107	
23.410	0.293	0.153	
23.415	0.227	0.193	
23.420	0.151	0.218	
23.425	0.397	0.233	
23.430	0.573	0.267	
23.435	0.505	0.329	
23.440	0.596	0.400	
23.445	0.712	0.472	
23.450	0.696	0.545	
23.455	0.837	0.616	
23.460	0.988	0.693	
23.465	0.935	0.775	
23.470	0.927	0.847	
23.475	1.045	0.903	
23.480	0.945	0.947	
23.485	0.759	0.964	
23.490	0.753	0.943	
23.495	0.628	0.892	
23.500	0.547	0.820	
23.505	0.412	0.732	
23.510	0.331	0.632	
23.515	0.140	0.522	
23.520	-0.043	0.398	
23.525	-0.054	0.264	
23.530	-0.127	0.136	
23.535	-0.196	0.025	
23.540	-0.168	-0.066	
23.545	-0.147	-0.130	
23.550	-0.232	-0.169	
23.555	-0.211	-0.196	
23.560	-0.115	-0.208	
23.565	-0.142	-0.202	
23.570	-0.176	-0.189	
23.575	-0.101	-0.175	
23.580	-0.130	-0.159	
23.585	-0.171	-0.147	
23.590	-0.110	-0.140	
23.595	-0.077	-0.133	
23.600	-0.162	-0.124	
23.605	-0.089	-0.120	
23.610	-0.042	-0.113	
23.615	-0.078	-0.100	
23.620	-0.089	-0.089	
23.625	-0.071	-0.082	
23.630	-0.107	-0.079	
23.635	-0.165	-0.084	
23.640	-0.171	-0.099	
23.645	-0.200	-0.120	
23.650	-0.278	-0.148	
23.655	-0.242	-0.181	
23.660	-0.170	-0.206	
23.665	-0.243	-0.219	
23.670	-0.300	-0.229	
23.675	-0.216	-0.240	
23.680	-0.223	-0.246	
23.685	-0.313	-0.248	
23.690	-0.268	-0.255	
23.695	-0.126	-0.256	
23.700	0.023	-0.232	
23.705	0.388	-0.164	
23.710	0.504	-0.040	
23.715	0.091	0.097	
23.720	-0.287	0.165	
23.725	-0.540	0.121	
23.730	-0.668	-0.017	
23.735	-0.694	-0.200	
23.740	-0.593	-0.376	
23.745	-0.462	-0.501	
23.750	-0.417	-0.559	
23.755	-0.300	-0.558	
23.760	-0.104	-0.506	
23.765	-0.045	-0.413	
23.770	-0.043	-0.302	
23.775	0.050	-0.195	
23.780	0.172	-0.096	
23.785	0.097	-0.007	
23.790	0.183	0.064	
23.795	0.278	0.121	
23.800	0.191	0.169	
23.805	0.322	0.207	
23.810	0.495	0.249	
23.815	0.489	0.307	
23.820	0.507	0.370	
23.825	0.701	0.434	
23.830	0.817	0.511	
23.835	0.806	0.600	
23.840	0.846	0.684	
23.845	1.112	0.766	
23.850	1.120	0.858	
23.855	1.144	0.952	
23.860	1.211	1.036	
23.865	1.120	1.102	
23.870	0.936	1.134	
23.875	0.886	1.119	
23.880	0.727	1.064	
23.885	0.478	0.970	
23.890	0.394	0.841	
23.895	0.285	0.694	
23.900	0.015	0.539	
23.905	-0.071	0.374	
23.910	-0.034	0.217	
23.915	-0.138	0.087	
23.920	-0.167	-0.015	
23.925	-0.144	-0.091	
23.930	-0.155	-0.140	
23.935	-0.208	-0.168	
23.940	-0.181	-0.186	
23.945	-0.159	-0.194	
23.950	-0.200	-0.194	
23.955	-0.168	-0.192	
23.960	-0.104	-0.185	
23.965	-0.138	-0.171	
23.970	-0.119	-0.156	
23.975	-0.057	-0.140	
23.980	-0.052	-0.119	
23.985	-0.115	-0.100	
23.990	-0.104	-0.089	
23.995	0.026	-0.082	
24.000	-0.031	-0.067	
24.005	-0.051	-0.051	
24.010	-0.031	-0.041	
24.015	-0.081	-0.038	
24.020	-0.142	-0.045	
24.025	-0.135	-0.063	
24.030	-0.208	-0.089	
24.035	-0.289	-0.124	
24.040	-0.239	-0.166	
24.045	-0.213	-0.201	
24.050	-0.265	-0.224	
24.055	-0.223	-0.238	
24.060	-0.152	-0.241	
24.065	-0.213	-0.232	
24.070	-0.278	-0.225	
24.075	-0.200	-0.224	
24.080	-0.107	-0.219	
24.085	0.046	-0.193	
24.090	0.455	-0.124	
24.095	0.608	0.005	
24.100	0.163	0.152	
24.105	-0.225	0.229	
24.110	-0.407	0.192	
24.115	-0.601	0.063	
24.120	-0.686	-0.117	
24.125	-0.598	-0.303	
24.130	-0.465	-0.447	
24.135	-0.413	-0.525	
24.140	-0.278	-0.538	
24.145	-0.080	-0.494	
24.150	-0.020	-0.402	
24.155	0.053	-0.286	
24.160	0.206	-0.163	
24.165	0.142	-0.044	
24.170	0.105	0.050	
24.175	0.249	0.115	
24.180	0.304	0.167	
24.185	0.256	0.213	
24.190	0.369	0.252	
24.195	0.472	0.292	
24.200	0.351	0.334	
24.205	0.420	0.367	
24.210	0.673	0.401	
24.215	0.695	0.458	
24.220	0.745	0.531	
24.225	0.921	0.612	
24.230	0.979	0.703	
24.235	0.935	0.795	
24.240	1.043	0.872	
24.245	1.104	0.940	
24.250	0.968	0.994	
24.255	0.875	1.018	
24.260	0.883	1.008	
24.265	0.658	0.970	
24.270	0.400	0.891	
24.275	0.328	0.771	
24.280	0.178	0.626	
24.285	-0.025	0.470	
24.290	-0.084	0.309	
24.295	-0.075	0.160	
24.300	-0.162	0.039	
24.305	-0.197	-0.055	
24.310	-0.152	-0.124	
24.315	-0.184	-0.167	
24.320	-0.239	-0.192	
24.325	-0.213	-0.209	
24.330	-0.210	-0.219	
24.335	-0.237	-0.224	
24.340	-0.193	-0.225	
24.345	-0.144	-0.220	
24.350	-0.185	-0.207	
24.355	-0.167	-0.194	
24.360	-0.115	-0.181	
24.365	-0.214	-0.170	
24.370	-0.225	-0.168	
24.375	-0.084	-0.171	
24.380	-0.068	-0.162	
24.385	-0.132	-0.144	
24.390	-0.095	-0.128	
24.395	-0.083	-0.115	
24.400	-0.155	-0.107	
24.405	-0.170	-0.109	
24.410	-0.141	-0.119	
24.415	-0.213	-0.133	
24.420	-0.272	-0.154	
24.425	-0.245	-0.182	
24.430	-0.255	-0.209	
24.435	-0.309	-0.233	
24.440	-0.284	-0.255	
24.445	-0.243	-0.271	
24.450	-0.284	-0.277	
24.455	-0.287	-0.280	
24.460	-0.239	-0.280	
24.465	-0.205	-0.273	
24.470	-0.100	-0.254	
24.475	0.296	-0.203	
24.480	0.449	-0.097	
24.485	0.162	0.036	
24.490	-0.182	0.122	
24.495	-0.436	0.112	
24.500	-0.611	0.010	
24.505	-0.647	-0.149	
24.510	-0.570	-0.313	
24.515	-0.533	-0.443	
24.520	-0.440	-0.522	
24.525	-0.263	-0.541	
24.530	-0.164	-0.503	
24.535	-0.148	-0.425	
24.540	-0.078	-0.334	
24.545	0.041	-0.239	
24.550	0.029	-0.147	
24.555	0.067	-0.067	
24.560	0.229	0.003	
24.565	0.255	0.073	
24.570	0.244	0.139	
24.575	0.388	0.198	
24.580	0.394	0.256	
24.585	0.327	0.306	
24.590	0.369	0.340	
24.595	0.528	0.367	
24.600	0.683	0.410	
24.605	0.762	0.478	
24.610	0.927	0.568	
24.615	0.886	0.669	
24.620	0.843	0.758	
24.625	0.950	0.825	
24.630	0.953	0.876	
24.635	0.817	0.909	
24.640	0.776	0.913	
24.645	0.728	0.889	
24.650	0.487	0.839	
24.655	0.348	0.754	
24.660	0.331	0.643	
24.665	0.133	0.522	
24.670	-0.051	0.392	
24.675	-0.084	0.253	
24.680	-0.153	0.121	
24.685	-0.199	0.006	
24.690	-0.171	-0.084	
24.695	-0.162	-0.146	
24.700	-0.251	-0.184	
24.705	-0.269	-0.211	
24.710	-0.214	-0.232	
24.715	-0.252	-0.244	
24.720	-0.284	-0.250	
24.725	-0.240	-0.257	
24.730	-0.213	-0.257	
24.735	-0.242	-0.252	
24.740	-0.234	-0.246	
24.745	-0.193	-0.239	
24.750	-0.220	-0.230	
24.755	-0.202	-0.222	
24.760	-0.145	-0.213	
24.765	-0.148	-0.198	
24.770	-0.181	-0.183	
24.775	-0.150	-0.173	
24.780	-0.168	-0.165	
24.785	-0.220	-0.164	
24.790	-0.226	-0.172	
24.795	-0.219	-0.185	
24.800	-0.283	-0.201	
24.805	-0.294	-0.221	
24.810	-0.249	-0.242	
24.815	-0.286	-0.258	
24.820	-0.327	-0.271	
24.825	-0.284	-0.284	
24.830	-0.265	-0.291	
24.835	-0.315	-0.293	
24.840	-0.306	-0.296	
24.845	-0.271	-0.297	
24.850	-0.271	-0.295	
24.855	-0.142	-0.283	
24.860	0.124	-0.245	
24.865	0.208	-0.167	
24.870	0.026	-0.072	
24.875	-0.222	-0.010	
24.880	-0.457	-0.018	
24.885	-0.630	-0.100	
24.890	-0.651	-0.231	
24.895	-0.581	-0.369	
24.900	-0.561	-0.478	
24.905	-0.471	-0.544	
24.910	-0.307	-0.559	
24.915	-0.251	-0.525	
24.920	-0.184	-0.458	
24.925	-0.092	-0.372	
24.930	-0.032	-0.280	
24.935	-0.046	-0.193	
24.940	0.042	-0.118	
24.945	0.122	-0.052	
24.950	0.032	0.005	
24.955	0.059	0.043	
24.960	0.186	0.070	
24.965	0.154	0.097	
24.970	0.157	0.122	
24.975	0.347	0.150	
24.980	0.389	0.193	
24.985	0.336	0.246	
24.990	0.481	0.298	
24.995	0.655	0.358	
25.000	0.599	0.432	
25.005	0.615	0.503	
25.010	0.759	0.564	
25.015	0.728	0.622	
25.020	0.646	0.668	
25.025	0.690	0.692	
25.030	0.602	0.698	
25.035	0.406	0.678	
25.040	0.351	0.624	
25.045	0.261	0.546	
25.050	0.038	0.449	
25.055	-0.066	0.331	
25.060	-0.087	0.203	
25.065	-0.196	0.083	
25.070	-0.229	-0.024	
25.075	-0.196	-0.112	
25.080	-0.200	-0.172	
25.085	-0.274	-0.210	
25.090	-0.275	-0.237	
25.095	-0.234	-0.256	
25.100	-0.287	-0.265	
25.105	-0.294	-0.272	
25.110	-0.164	-0.273	
25.115	-0.167	-0.259	
25.120	-0.207	-0.237	
25.125	-0.144	-0.216	
25.130	-0.132	-0.195	
25.135	-0.190	-0.176	
25.140	-0.167	-0.165	
25.145	-0.155	-0.161	
25.150	-0.199	-0.160	
25.155	-0.167	-0.163	
25.160	-0.081	-0.163	
25.165	-0.147	-0.155	
25.170	-0.242	-0.151	
25.175	-0.210	-0.160	
25.180	-0.200	-0.174	
25.185	-0.249	-0.189	
25.190	-0.246	-0.205	
25.195	-0.245	-0.220	
25.200	-0.312	-0.236	
25.205	-0.309	-0.254	
25.210	-0.245	-0.270	
25.215	-0.284	-0.278	
25.220	-0.321	-0.283	
25.225	-0.298	-0.290	
25.230	-0.257	-0.294	
25.235	-0.236	-0.290	
25.240	-0.072	-0.271	
25.245	0.342	-0.214	
25.250	0.285	-0.105	
25.255	-0.013	0.010	
25.260	-0.257	0.064	
25.265	-0.517	0.031	
25.270	-0.694	-0.082	
25.275	-0.663	-0.241	
25.280	-0.602	-0.396	
25.285	-0.562	-0.511	
25.290	-0.459	-0.574	
25.295	-0.292	-0.581	
25.300	-0.211	-0.535	
25.305	-0.145	-0.453	
25.310	-0.043	-0.355	
25.315	-0.040	-0.253	
25.320	-0.075	-0.166	
25.325	0.056	-0.098	
25.330	0.108	-0.040	
25.335	0.036	0.010	
25.340	0.114	0.046	
25.345	0.235	0.079	
25.350	0.203	0.117	
25.355	0.252	0.155	
25.360	0.423	0.197	
25.365	0.406	0.251	
25.370	0.418	0.307	
25.375	0.614	0.364	
25.380	0.617	0.429	
25.385	0.641	0.497	
25.390	0.800	0.563	
25.395	0.858	0.635	
25.400	0.828	0.707	
25.405	0.783	0.764	
25.410	0.829	0.800	
25.415	0.669	0.814	
25.420	0.427	0.790	
25.425	0.353	0.719	
25.430	0.178	0.612	
25.435	-0.040	0.477	
25.440	-0.072	0.324	
25.445	-0.110	0.175	
25.450	-0.193	0.048	
25.455	-0.220	-0.057	
25.460	-0.196	-0.136	
25.465	-0.229	-0.189	
25.470	-0.281	-0.223	
25.475	-0.257	-0.247	
25.480	-0.248	-0.262	
25.485	-0.295	-0.269	
25.490	-0.246	-0.273	
25.495	-0.196	-0.270	
25.500	-0.226	-0.258	
25.505	-0.240	-0.246	
25.510	-0.200	-0.236	
25.515	-0.208	-0.227	
25.520	-0.171	-0.217	
25.525	-0.129	-0.203	
25.530	-0.113	-0.184	
25.535	-0.158	-0.164	
25.540	-0.139	-0.151	
25.545	-0.110	-0.141	
25.550	-0.181	-0.135	
25.555	-0.203	-0.139	
25.560	-0.181	-0.150	
25.565	-0.239	-0.165	
25.570	-0.297	-0.186	
25.575	-0.277	-0.213	
25.580	-0.269	-0.239	
25.585	-0.336	-0.260	
25.590	-0.313	-0.281	
25.595	-0.249	-0.295	
25.600	-0.310	-0.299	
25.605	-0.336	-0.302	
25.610	-0.315	-0.307	
25.615	-0.342	-0.314	
25.620	-0.277	-0.318	
25.625	-0.042	-0.304	
25.630	0.266	-0.246	
25.635	0.177	-0.141	
25.640	-0.100	-0.040	
25.645	-0.300	0.003	
25.650	-0.576	-0.036	
25.655	-0.732	-0.149	
25.660	-0.732	-0.305	
25.665	-0.677	-0.458	
25.670	-0.605	-0.573	
25.675	-0.442	-0.631	
25.680	-0.320	-0.627	
25.685	-0.280	-0.572	
25.690	-0.200	-0.489	
25.695	-0.089	-0.394	
25.700	-0.034	-0.293	
25.705	-0.002	-0.197	
25.710	0.124	-0.109	
25.715	0.090	-0.031	
25.720	0.032	0.029	
25.725	0.131	0.066	
25.730	0.189	0.095	
25.735	0.120	0.120	
25.740	0.276	0.143	
25.745	0.498	0.182	
25.750	0.443	0.247	
25.755	0.450	0.318	
25.760	0.667	0.387	
25.765	0.765	0.467	
25.770	0.758	0.556	
25.775	0.895	0.644	
25.780	0.897	0.728	
25.785	0.793	0.795	
25.790	0.840	0.834	
25.795	0.861	0.854	
25.800	0.678	0.855	
25.805	0.504	0.824	
25.810	0.435	0.754	
25.815	0.212	0.654	
25.820	-0.020	0.523	
25.825	-0.020	0.369	
25.830	-0.066	0.219	
25.835	-0.182	0.090	
25.840	-0.216	-0.020	
25.845	-0.202	-0.108	
25.850	-0.280	-0.173	
25.855	-0.313	-0.223	
25.860	-0.223	-0.258	
25.865	-0.248	-0.274	
25.870	-0.303	-0.279	
25.875	-0.243	-0.280	
25.880	-0.199	-0.275	
25.885	-0.232	-0.262	
25.890	-0.181	-0.246	
25.895	-0.113	-0.225	
25.900	-0.155	-0.200	
25.905	-0.171	-0.177	
25.910	-0.106	-0.162	
25.915	-0.132	-0.148	
25.920	-0.159	-0.138	
25.925	-0.071	-0.132	
25.930	-0.051	-0.121	
25.935	-0.127	-0.107	
25.940	-0.110	-0.099	
25.945	-0.106	-0.098	
25.950	-0.187	-0.103	
25.955	-0.225	-0.119	
25.960	-0.188	-0.143	
25.965	-0.226	-0.166	
25.970	-0.260	-0.189	
25.975	-0.229	-0.210	
25.980	-0.217	-0.225	
25.985	-0.274	-0.234	
25.990	-0.232	-0.241	
25.995	-0.194	-0.243	
26.000	-0.260	-0.240	
26.005	-0.220	-0.237	
26.010	0.000	-0.225	
26.015	0.374	-0.170	
26.020	0.536	-0.052	
26.025	0.473	0.104	
26.030	-0.040	0.228	
26.035	-0.385	0.247	
26.040	-0.543	0.149	
26.045	-0.601	-0.023	
26.050	-0.645	-0.213	
26.055	-0.546	-0.380	
26.060	-0.370	-0.489	
26.065	-0.263	-0.524	
26.070	-0.193	-0.494	
26.075	-0.040	-0.421	
26.080	0.085	-0.315	
26.085	0.035	-0.198	
26.090	0.091	-0.092	
26.095	0.287	0.000	
26.100	0.259	0.088	
26.105	0.230	0.163	
26.110	0.366	0.220	
26.115	0.336	0.267	
26.120	0.340	0.305	
26.125	0.516	0.338	
26.130	0.620	0.383	
26.135	0.553	0.442	
26.140	0.646	0.498	
26.145	0.813	0.557	
26.150	0.806	0.625	
26.155	0.869	0.695	
26.160	1.055	0.767	
26.165	1.057	0.847	
26.170	0.926	0.919	
26.175	1.031	0.967	
26.180	1.051	0.998	
26.185	0.848	1.013	
26.190	0.730	0.994	
26.195	0.649	0.937	
26.200	0.406	0.849	
26.205	0.224	0.726	
26.210	0.211	0.581	
26.215	0.030	0.434	
26.220	-0.122	0.288	
26.225	-0.104	0.149	
26.230	-0.139	0.031	
26.235	-0.222	-0.061	
26.240	-0.213	-0.131	
26.245	-0.171	-0.179	
26.250	-0.213	-0.205	
26.255	-0.229	-0.218	
26.260	-0.158	-0.223	
26.265	-0.161	-0.216	
26.270	-0.203	-0.205	
26.275	-0.126	-0.193	
26.280	-0.074	-0.176	
26.285	-0.132	-0.154	
26.290	-0.112	-0.135	
26.295	-0.009	-0.118	
26.300	-0.063	-0.097	
26.305	-0.097	-0.079	
26.310	0.020	-0.067	
26.315	-0.002	-0.051	
26.320	-0.098	-0.038	
26.325	-0.057	-0.036	
26.330	-0.048	-0.040	
26.335	-0.158	-0.049	
26.340	-0.147	-0.068	
26.345	-0.129	-0.092	
26.350	-0.196	-0.114	
26.355	-0.213	-0.138	
26.360	-0.170	-0.160	
26.365	-0.199	-0.177	
26.370	-0.240	-0.189	
26.375	-0.199	-0.201	
26.380	-0.182	-0.208	
26.385	-0.249	-0.210	
26.390	-0.216	-0.214	
26.395	-0.078	-0.211	
26.400	0.130	-0.182	
26.405	0.414	-0.107	
26.410	0.544	0.019	
26.415	0.204	0.156	
26.420	-0.252	0.227	
26.425	-0.471	0.185	
26.430	-0.599	0.047	
26.435	-0.668	-0.137	
26.440	-0.579	-0.319	
26.445	-0.431	-0.453	
26.450	-0.347	-0.518	
26.455	-0.251	-0.518	
26.460	-0.092	-0.466	
26.465	-0.017	-0.375	
26.470	-0.009	-0.267	
26.475	0.094	-0.162	
26.480	0.214	-0.063	
26.485	0.186	0.031	
26.490	0.290	0.111	
26.495	0.397	0.184	
26.500	0.371	0.253	
26.505	0.405	0.311	
26.510	0.554	0.363	
26.515	0.548	0.416	
26.520	0.482	0.464	
26.525	0.635	0.501	
26.530	0.786	0.544	
26.535	0.747	0.601	
26.540	0.849	0.663	
26.545	1.029	0.731	
26.550	1.014	0.810	
26.555	0.988	0.887	
26.560	1.058	0.947	
26.565	0.970	0.990	
26.570	0.773	1.003	
26.575	0.806	0.977	
26.580	0.735	0.928	
26.585	0.423	0.857	
26.590	0.282	0.750	
26.595	0.238	0.616	
26.600	0.047	0.473	
26.605	-0.077	0.327	
26.610	-0.031	0.189	
26.615	-0.092	0.075	
26.620	-0.196	-0.013	
26.625	-0.187	-0.085	
26.630	-0.165	-0.139	
26.635	-0.226	-0.174	
26.640	-0.225	-0.198	
26.645	-0.167	-0.212	
26.650	-0.219	-0.216	
26.655	-0.246	-0.217	
26.660	-0.141	-0.217	
26.665	-0.150	-0.208	
26.670	-0.196	-0.195	
26.675	-0.136	-0.183	
26.680	-0.116	-0.171	
26.685	-0.173	-0.158	
26.690	-0.148	-0.151	
26.695	-0.052	-0.144	
26.700	-0.090	-0.129	
26.705	-0.141	-0.116	
26.710	-0.087	-0.109	
26.715	-0.126	-0.106	
26.720	-0.205	-0.110	
26.725	-0.179	-0.124	
26.730	-0.165	-0.142	
26.735	-0.252	-0.160	
26.740	-0.257	-0.182	
26.745	-0.205	-0.204	
26.750	-0.246	-0.219	
26.755	-0.286	-0.232	
26.760	-0.225	-0.243	
26.765	-0.229	-0.248	
26.770	-0.275	-0.249	
26.775	-0.240	-0.251	
26.780	-0.156	-0.247	
26.785	-0.100	-0.230	
26.790	0.151	-0.189	
26.795	0.441	-0.104	
26.800	0.198	0.014	
26.805	-0.202	0.099	
26.810	-0.373	0.095	
26.815	-0.540	0.008	
26.820	-0.665	-0.135	
26.825	-0.602	-0.294	
26.830	-0.469	-0.426	
26.835	-0.414	-0.502	
26.840	-0.317	-0.522	
26.845	-0.179	-0.492	
26.850	-0.124	-0.423	
26.855	-0.080	-0.334	
26.860	0.061	-0.239	
26.865	0.101	-0.142	
26.870	0.015	-0.055	
26.875	0.134	0.010	
26.880	0.218	0.063	
26.885	0.177	0.112	
26.890	0.221	0.152	
26.895	0.347	0.188	
26.900	0.314	0.228	
26.905	0.330	0.266	
26.910	0.479	0.302	
26.915	0.521	0.348	
26.920	0.507	0.400	
26.925	0.695	0.454	
26.930	0.783	0.521	
26.935	0.756	0.597	
26.940	0.832	0.668	
26.945	0.956	0.736	
26.950	0.855	0.799	
26.955	0.750	0.841	
26.960	0.748	0.849	
26.965	0.626	0.829	
26.970	0.377	0.776	
26.975	0.305	0.684	
26.980	0.215	0.568	
26.985	-0.005	0.440	
26.990	-0.058	0.303	
26.995	-0.055	0.171	
27.000	-0.144	0.060	
27.005	-0.207	-0.031	
27.010	-0.156	-0.103	
27.015	-0.177	-0.151	
27.020	-0.242	-0.182	
27.025	-0.220	-0.204	
27.030	-0.207	-0.218	
27.035	-0.258	-0.226	
27.040	-0.222	-0.232	
27.045	-0.150	-0.231	
27.050	-0.179	-0.221	
27.055	-0.197	-0.207	
27.060	-0.121	-0.194	
27.065	-0.127	-0.178	
27.070	-0.165	-0.162	
27.075	-0.133	-0.152	
27.080	-0.087	-0.143	
27.085	-0.150	-0.133	
27.090	-0.136	-0.128	
27.095	-0.064	-0.124	
27.100	-0.141	-0.118	
27.105	-0.210	-0.119	
27.110	-0.188	-0.132	
27.115	-0.219	-0.151	
27.120	-0.284	-0.175	
27.125	-0.269	-0.203	
27.130	-0.263	-0.229	
27.135	-0.326	-0.252	
27.140	-0.297	-0.272	
27.145	-0.231	-0.285	
27.150	-0.260	-0.286	
27.155	-0.318	-0.283	
27.160	-0.306	-0.285	
27.165	-0.281	-0.289	
27.170	-0.214	-0.288	
27.175	0.030	-0.265	
27.180	0.365	-0.196	
27.185	0.197	-0.081	
27.190	-0.103	0.020	
27.195	-0.332	0.051	
27.200	-0.602	-0.007	
27.205	-0.735	-0.138	
27.210	-0.676	-0.305	
27.215	-0.608	-0.454	
27.220	-0.544	-0.557	
27.225	-0.394	-0.601	
27.230	-0.266	-0.585	
27.235	-0.237	-0.523	
27.240	-0.147	-0.437	
27.245	0.015	-0.338	
27.250	-0.023	-0.233	
27.255	-0.022	-0.141	
27.260	0.108	-0.068	
27.265	0.070	-0.007	
27.270	0.042	0.037	
27.275	0.175	0.068	
27.280	0.282	0.101	
27.285	0.244	0.145	
27.290	0.301	0.189	
27.295	0.438	0.235	
27.300	0.408	0.287	
27.305	0.438	0.338	
27.310	0.625	0.389	
27.315	0.704	0.452	
27.320	0.670	0.525	
27.325	0.783	0.594	
27.330	0.860	0.661	
27.335	0.745	0.722	
27.340	0.712	0.760	
27.345	0.730	0.772	
27.350	0.547	0.761	
27.355	0.340	0.715	
27.360	0.256	0.629	
27.365	0.152	0.517	
27.370	-0.046	0.390	
27.375	-0.089	0.255	
27.380	-0.132	0.124	
27.385	-0.248	0.010	
27.390	-0.266	-0.090	
27.395	-0.243	-0.169	
27.400	-0.300	-0.226	
27.405	-0.349	-0.267	
27.410	-0.306	-0.298	
27.415	-0.297	-0.316	
27.420	-0.333	-0.324	
27.425	-0.295	-0.326	
27.430	-0.283	-0.322	
27.435	-0.304	-0.315	
27.440	-0.262	-0.306	
27.445	-0.196	-0.293	
27.450	-0.223	-0.273	
27.455	-0.248	-0.253	
27.460	-0.171	-0.238	
27.465	-0.187	-0.223	
27.470	-0.242	-0.210	
27.475	-0.200	-0.205	
27.480	-0.155	-0.202	
27.485	-0.222	-0.197	
27.490	-0.246	-0.197	
27.495	-0.168	-0.201	
27.500	-0.237	-0.204	
27.505	-0.300	-0.211	
27.510	-0.255	-0.226	
27.515	-0.289	-0.243	
27.520	-0.358	-0.261	
27.525	-0.313	-0.282	
27.530	-0.281	-0.299	
27.535	-0.330	-0.308	
27.540	-0.350	-0.315	
27.545	-0.312	-0.322	
27.550	-0.353	-0.328	
27.555	-0.321	-0.332	
27.560	-0.115	-0.324	
27.565	0.224	-0.275	
27.570	0.305	-0.171	
27.575	0.243	-0.038	
27.580	-0.118	0.065	
27.585	-0.477	0.082	
27.590	-0.688	-0.006	
27.595	-0.731	-0.167	
27.600	-0.741	-0.349	
27.605	-0.676	-0.507	
27.610	-0.508	-0.611	
27.615	-0.391	-0.646	
27.620	-0.315	-0.618	
27.625	-0.167	-0.545	
27.630	-0.052	-0.441	
27.635	-0.089	-0.325	
27.640	-0.087	-0.222	
27.645	0.018	-0.142	
27.650	0.065	-0.076	
27.655	-0.003	-0.023	
27.660	0.177	0.019	
27.665	0.229	0.062	
27.670	0.156	0.109	
27.675	0.256	0.148	
27.680	0.376	0.188	
27.685	0.333	0.235	
27.690	0.411	0.282	
27.695	0.602	0.334	
27.700	0.608	0.400	
27.705	0.617	0.471	
27.710	0.765	0.540	
27.715	0.834	0.611	
27.720	0.779	0.682	
27.725	0.855	0.740	
27.730	0.843	0.786	
27.735	0.638	0.811	
27.740	0.531	0.795	
27.745	0.492	0.742	
27.750	0.197	0.658	
27.755	0.004	0.536	
27.760	-0.035	0.385	
27.765	-0.142	0.230	
27.770	-0.266	0.085	
27.775	-0.272	-0.046	
27.780	-0.272	-0.152	
27.785	-0.335	-0.229	
27.790	-0.347	-0.284	
27.795	-0.291	-0.320	
27.800	-0.336	-0.337	
27.805	-0.371	-0.344	
27.810	-0.312	-0.349	
27.815	-0.284	-0.346	
27.820	-0.333	-0.336	
27.825	-0.268	-0.326	
27.830	-0.216	-0.311	
27.835	-0.266	-0.290	
27.840	-0.243	-0.273	
27.845	-0.168	-0.256	
27.850	-0.193	-0.236	
27.855	-0.237	-0.219	
27.860	-0.171	-0.209	
27.865	-0.153	-0.200	
27.870	-0.187	-0.189	
27.875	-0.161	-0.180	
27.880	-0.119	-0.172	
27.885	-0.196	-0.163	
27.890	-0.242	-0.164	
27.895	-0.216	-0.175	
27.900	-0.251	-0.191	
27.905	-0.303	-0.211	
27.910	-0.272	-0.233	
27.915	-0.269	-0.253	
27.920	-0.313	-0.268	
27.925	-0.294	-0.281	
27.930	-0.269	-0.289	
27.935	-0.315	-0.293	
27.940	-0.326	-0.297	
27.945	-0.245	-0.300	
27.950	-0.130	-0.290	
27.955	0.194	-0.246	
27.960	0.586	-0.140	
27.965	0.479	0.023	
27.970	-0.058	0.168	
27.975	-0.330	0.209	
27.980	-0.527	0.134	
27.985	-0.695	-0.024	
27.990	-0.702	-0.218	
27.995	-0.566	-0.396	
28.000	-0.486	-0.518	
28.005	-0.398	-0.571	
28.010	-0.239	-0.562	
28.015	-0.118	-0.500	
28.020	-0.103	-0.404	
28.025	0.001	-0.297	
28.030	0.140	-0.187	
28.035	0.079	-0.082	
28.040	0.097	0.003	
28.045	0.246	0.068	
28.050	0.226	0.125	
28.055	0.198	0.171	
28.060	0.336	0.207	
28.065	0.417	0.245	
28.070	0.345	0.289	
28.075	0.453	0.329	
28.080	0.654	0.376	
28.085	0.649	0.441	
28.090	0.719	0.515	
28.095	0.909	0.594	
28.100	0.952	0.685	
28.105	0.953	0.776	
28.110	1.072	0.860	
28.115	1.026	0.932	
28.120	0.854	0.979	
28.125	0.867	0.988	
28.130	0.864	0.969	
28.135	0.585	0.928	
28.140	0.403	0.849	
28.145	0.405	0.736	
28.150	0.181	0.609	
28.155	-0.031	0.468	
28.160	-0.057	0.315	
28.165	-0.109	0.170	
28.170	-0.205	0.046	
28.175	-0.199	-0.057	
28.180	-0.174	-0.133	
28.185	-0.240	-0.182	
28.190	-0.258	-0.215	
28.195	-0.194	-0.235	
28.200	-0.234	-0.242	
28.205	-0.245	-0.243	
28.210	-0.176	-0.240	
28.215	-0.147	-0.229	
28.220	-0.184	-0.211	
28.225	-0.142	-0.194	
28.230	-0.075	-0.174	
28.235	-0.119	-0.152	
28.240	-0.071	-0.130	
28.245	-0.009	-0.108	
28.250	-0.069	-0.085	
28.255	-0.106	-0.069	
28.260	-0.051	-0.064	
28.265	-0.045	-0.061	
28.270	-0.103	-0.060	
28.275	-0.072	-0.063	
28.280	-0.075	-0.068	
28.285	-0.181	-0.076	
28.290	-0.202	-0.096	
28.295	-0.153	-0.122	
28.300	-0.211	-0.145	
28.305	-0.251	-0.168	
28.310	-0.190	-0.190	
28.315	-0.199	-0.204	
28.320	-0.243	-0.211	
28.325	-0.239	-0.219	
28.330	-0.210	-0.225	
28.335	-0.236	-0.228	
28.340	-0.155	-0.225	
28.345	0.211	-0.198	
28.350	0.504	-0.113	
28.355	0.446	0.027	
28.360	0.238	0.166	
28.365	-0.152	0.239	
28.370	-0.454	0.207	
28.375	-0.573	0.078	
28.380	-0.587	-0.101	
28.385	-0.579	-0.278	
28.390	-0.491	-0.416	
28.395	-0.329	-0.495	
28.400	-0.242	-0.506	
28.405	-0.185	-0.465	
28.410	-0.040	-0.388	
28.415	0.096	-0.287	
28.420	0.084	-0.173	
28.425	0.227	-0.063	
28.430	0.337	0.044	
28.435	0.321	0.144	
28.440	0.345	0.228	
28.445	0.484	0.296	
28.450	0.452	0.357	
28.455	0.391	0.402	
28.460	0.525	0.432	
28.465	0.597	0.461	
28.470	0.576	0.496	
28.475	0.706	0.535	
28.480	0.863	0.587	
28.485	0.826	0.654	
28.490	0.813	0.720	
28.495	0.991	0.779	
28.500	1.022	0.840	
28.505	0.988	0.900	
28.510	1.036	0.950	
28.515	0.976	0.985	
28.520	0.767	0.994	
28.525	0.683	0.962	
28.530	0.554	0.893	
28.535	0.299	0.790	
28.540	0.146	0.654	
28.545	0.127	0.500	
28.550	0.015	0.350	
28.555	-0.115	0.214	
28.560	-0.092	0.094	
28.565	-0.132	-0.003	
28.570	-0.205	-0.076	
28.575	-0.179	-0.131	
28.580	-0.139	-0.166	
28.585	-0.203	-0.183	
28.590	-0.207	-0.193	
28.595	-0.148	-0.197	
28.600	-0.185	-0.195	
28.605	-0.213	-0.191	
28.610	-0.132	-0.189	
28.615	-0.113	-0.180	
28.620	-0.161	-0.166	
28.625	-0.098	-0.153	
28.630	-0.031	-0.137	
28.635	-0.098	-0.115	
28.640	-0.115	-0.099	
28.645	-0.013	-0.089	
28.650	-0.055	-0.076	
28.655	-0.116	-0.067	
28.660	-0.064	-0.066	
28.665	-0.087	-0.069	
28.670	-0.173	-0.077	
28.675	-0.188	-0.095	
28.680	-0.168	-0.120	
28.685	-0.226	-0.144	
28.690	-0.245	-0.170	
28.695	-0.199	-0.193	
28.700	-0.217	-0.209	
28.705	-0.248	-0.218	
28.710	-0.202	-0.225	
28.715	-0.182	-0.225	
28.720	-0.269	-0.222	
28.725	-0.240	-0.224	
