Vernier Format 2
ecg5.txt 10/18/2025 9:5:9
Run 1
Time	Potential	EKG	
T	P	E	
s	mV	mV	

0.000	0.321	0.015	
0.005	0.154	0.056	
0.010	0.264	0.107	
0.015	0.070	0.147	
0.020	-0.075	0.155	
0.025	0.215	0.136	
0.030	0.252	0.130	
0.035	0.000	0.136	
0.040	0.114	0.131	
0.045	0.492	0.137	
0.050	0.504	0.189	
0.055	0.631	0.278	
0.060	1.100	0.402	
0.065	1.084	0.570	
0.070	0.935	0.741	
0.075	1.161	0.878	
0.080	1.120	0.986	
0.085	0.874	1.054	
0.090	1.060	1.074	
0.095	1.182	1.078	
0.100	0.768	1.075	
0.105	0.629	1.029	
0.110	0.771	0.946	
0.115	0.450	0.851	
0.120	0.215	0.735	
0.125	0.360	0.599	
0.130	0.236	0.476	
0.135	-0.058	0.363	
0.140	-0.011	0.246	
0.145	0.062	0.142	
0.150	-0.139	0.063	
0.155	-0.162	-0.004	
0.160	0.020	-0.057	
0.165	-0.161	-0.086	
0.170	-0.286	-0.111	
0.175	-0.165	-0.145	
0.180	-0.208	-0.172	
0.185	-0.382	-0.199	
0.190	-0.388	-0.238	
0.195	-0.341	-0.282	
0.200	-0.520	-0.325	
0.205	-0.608	-0.378	
0.210	-0.596	-0.442	
0.215	-0.698	-0.507	
0.220	-0.757	-0.572	
0.225	-0.650	-0.631	
0.230	-0.660	-0.669	
0.235	-0.795	-0.691	
0.240	-0.705	-0.711	
0.245	-0.631	-0.720	
0.250	-0.714	-0.716	
0.255	-0.588	-0.704	
0.260	-0.330	-0.670	
0.265	-0.248	-0.599	
0.270	-0.364	-0.509	
0.275	-0.463	-0.436	
0.280	-0.734	-0.414	
0.285	-0.995	-0.461	
0.290	-0.995	-0.571	
0.295	-0.921	-0.700	
0.300	-0.929	-0.808	
0.305	-0.810	-0.877	
0.310	-0.617	-0.896	
0.315	-0.558	-0.860	
0.320	-0.485	-0.786	
0.325	-0.326	-0.690	
0.330	-0.306	-0.582	
0.335	-0.388	-0.482	
0.340	-0.300	-0.408	
0.345	-0.220	-0.352	
0.350	-0.304	-0.308	
0.355	-0.272	-0.280	
0.360	-0.156	-0.261	
0.365	-0.179	-0.239	
0.370	-0.141	-0.214	
0.375	0.165	-0.176	
0.380	0.258	-0.104	
0.385	0.133	-0.012	
0.390	0.295	0.073	
0.395	0.400	0.153	
0.400	0.316	0.229	
0.405	0.550	0.298	
0.410	0.779	0.377	
0.415	0.545	0.469	
0.420	0.313	0.529	
0.425	0.559	0.540	
0.430	0.432	0.532	
0.435	0.010	0.496	
0.440	0.088	0.412	
0.445	0.127	0.309	
0.450	-0.144	0.210	
0.455	-0.200	0.106	
0.460	-0.072	0.007	
0.465	-0.168	-0.067	
0.470	-0.208	-0.119	
0.475	-0.055	-0.152	
0.480	-0.080	-0.159	
0.485	-0.228	-0.153	
0.490	-0.118	-0.152	
0.495	-0.034	-0.147	
0.500	-0.181	-0.134	
0.505	-0.179	-0.129	
0.510	-0.013	-0.129	
0.515	-0.127	-0.120	
0.520	-0.229	-0.116	
0.525	-0.103	-0.125	
0.530	-0.193	-0.135	
0.535	-0.307	-0.152	
0.540	-0.190	-0.178	
0.545	-0.103	-0.194	
0.550	-0.254	-0.197	
0.555	-0.257	-0.201	
0.560	-0.155	-0.209	
0.565	-0.234	-0.211	
0.570	-0.309	-0.216	
0.575	-0.197	-0.227	
0.580	-0.205	-0.233	
0.585	-0.246	-0.232	
0.590	0.053	-0.218	
0.595	0.441	-0.157	
0.600	0.128	-0.049	
0.605	-0.200	0.036	
0.610	-0.310	0.044	
0.615	-0.506	-0.021	
0.620	-0.654	-0.140	
0.625	-0.541	-0.282	
0.630	-0.504	-0.403	
0.635	-0.532	-0.484	
0.640	-0.300	-0.521	
0.645	-0.121	-0.501	
0.650	-0.141	-0.430	
0.655	-0.032	-0.336	
0.660	0.163	-0.229	
0.665	0.030	-0.120	
0.670	0.058	-0.031	
0.675	0.356	0.042	
0.680	0.279	0.118	
0.685	0.058	0.179	
0.690	0.250	0.205	
0.695	0.298	0.220	
0.700	0.145	0.232	
0.705	0.270	0.235	
0.710	0.583	0.252	
0.715	0.542	0.305	
0.720	0.380	0.369	
0.725	0.618	0.421	
0.730	0.710	0.476	
0.735	0.508	0.533	
0.740	0.614	0.571	
0.745	0.790	0.600	
0.750	0.644	0.635	
0.755	0.528	0.655	
0.760	0.629	0.652	
0.765	0.377	0.630	
0.770	0.142	0.573	
0.775	0.192	0.479	
0.780	0.036	0.370	
0.785	-0.126	0.255	
0.790	-0.048	0.139	
0.795	0.026	0.047	
0.800	-0.199	-0.015	
0.805	-0.177	-0.069	
0.810	0.001	-0.108	
0.815	-0.150	-0.122	
0.820	-0.236	-0.131	
0.825	-0.066	-0.143	
0.830	-0.090	-0.144	
0.835	-0.251	-0.141	
0.840	-0.171	-0.148	
0.845	-0.060	-0.155	
0.850	-0.187	-0.151	
0.855	-0.236	-0.153	
0.860	-0.124	-0.161	
0.865	-0.213	-0.168	
0.870	-0.303	-0.179	
0.875	-0.190	-0.198	
0.880	-0.216	-0.213	
0.885	-0.344	-0.225	
0.890	-0.248	-0.243	
0.895	-0.202	-0.255	
0.900	-0.338	-0.259	
0.905	-0.346	-0.270	
0.910	-0.226	-0.283	
0.915	-0.237	-0.285	
0.920	-0.153	-0.273	
0.925	0.266	-0.230	
0.930	0.198	-0.139	
0.935	-0.219	-0.049	
0.940	-0.370	-0.023	
0.945	-0.492	-0.073	
0.950	-0.726	-0.180	
0.955	-0.750	-0.324	
0.960	-0.523	-0.462	
0.965	-0.478	-0.549	
0.970	-0.439	-0.579	
0.975	-0.228	-0.560	
0.980	-0.190	-0.498	
0.985	-0.229	-0.414	
0.990	-0.113	-0.331	
0.995	0.038	-0.249	
1.000	-0.080	-0.168	
1.005	-0.058	-0.105	
1.010	0.139	-0.058	
1.015	-0.057	-0.016	
1.020	-0.109	0.003	
1.025	0.281	0.013	
1.030	0.345	0.052	
1.035	0.163	0.114	
1.040	0.310	0.168	
1.045	0.461	0.222	
1.050	0.252	0.275	
1.055	0.307	0.310	
1.060	0.603	0.337	
1.065	0.467	0.380	
1.070	0.391	0.420	
1.075	0.661	0.450	
1.080	0.632	0.490	
1.085	0.359	0.525	
1.090	0.481	0.529	
1.095	0.363	0.512	
1.100	-0.054	0.462	
1.105	-0.003	0.364	
1.110	0.203	0.255	
1.115	-0.057	0.170	
1.120	-0.161	0.094	
1.125	0.038	0.023	
1.130	-0.023	-0.021	
1.135	-0.176	-0.047	
1.140	-0.113	-0.074	
1.145	-0.032	-0.093	
1.150	-0.216	-0.104	
1.155	-0.217	-0.121	
1.160	-0.022	-0.139	
1.165	-0.115	-0.139	
1.170	-0.217	-0.135	
1.175	-0.058	-0.136	
1.180	-0.045	-0.129	
1.185	-0.217	-0.119	
1.190	-0.168	-0.121	
1.195	-0.115	-0.131	
1.200	-0.274	-0.143	
1.205	-0.280	-0.166	
1.210	-0.193	-0.194	
1.215	-0.315	-0.217	
1.220	-0.384	-0.244	
1.225	-0.252	-0.274	
1.230	-0.271	-0.292	
1.235	-0.378	-0.300	
1.240	-0.213	-0.307	
1.245	-0.063	-0.293	
1.250	-0.132	-0.254	
1.255	0.018	-0.202	
1.260	0.224	-0.133	
1.265	-0.069	-0.057	
1.270	-0.358	-0.021	
1.275	-0.385	-0.054	
1.280	-0.512	-0.135	
1.285	-0.647	-0.245	
1.290	-0.552	-0.363	
1.295	-0.472	-0.456	
1.300	-0.504	-0.510	
1.305	-0.391	-0.529	
1.310	-0.237	-0.511	
1.315	-0.197	-0.457	
1.320	-0.155	-0.382	
1.325	0.085	-0.294	
1.330	0.009	-0.196	
1.335	-0.197	-0.115	
1.340	-0.069	-0.076	
1.345	-0.005	-0.058	
1.350	-0.129	-0.048	
1.355	-0.075	-0.050	
1.360	0.165	-0.047	
1.365	-0.025	-0.026	
1.370	-0.100	-0.010	
1.375	0.362	0.006	
1.380	0.394	0.059	
1.385	0.183	0.136	
1.390	0.418	0.203	
1.395	0.614	0.274	
1.400	0.406	0.353	
1.405	0.426	0.412	
1.410	0.588	0.450	
1.415	0.325	0.475	
1.420	0.259	0.468	
1.425	0.452	0.439	
1.430	0.322	0.412	
1.435	0.015	0.374	
1.440	0.146	0.309	
1.445	0.183	0.243	
1.450	-0.097	0.185	
1.455	-0.081	0.118	
1.460	0.093	0.055	
1.465	-0.069	0.016	
1.470	-0.153	-0.015	
1.475	0.059	-0.042	
1.480	0.032	-0.048	
1.485	-0.152	-0.043	
1.490	-0.016	-0.046	
1.495	0.136	-0.041	
1.500	-0.116	-0.025	
1.505	-0.122	-0.022	
1.510	0.026	-0.032	
1.515	-0.106	-0.040	
1.520	-0.176	-0.052	
1.525	-0.005	-0.070	
1.530	-0.081	-0.079	
1.535	-0.249	-0.087	
1.540	-0.170	-0.110	
1.545	-0.093	-0.132	
1.550	-0.225	-0.146	
1.555	-0.202	-0.160	
1.560	-0.110	-0.171	
1.565	-0.232	-0.176	
1.570	-0.258	-0.184	
1.575	-0.112	-0.194	
1.580	0.015	-0.184	
1.585	0.091	-0.145	
1.590	0.368	-0.073	
1.595	0.273	0.027	
1.600	-0.196	0.104	
1.605	-0.368	0.100	
1.610	-0.430	0.017	
1.615	-0.564	-0.110	
1.620	-0.567	-0.250	
1.625	-0.361	-0.367	
1.630	-0.350	-0.433	
1.635	-0.342	-0.450	
1.640	-0.139	-0.430	
1.645	0.050	-0.367	
1.650	-0.118	-0.275	
1.655	-0.071	-0.191	
1.660	0.169	-0.119	
1.665	0.065	-0.046	
1.670	0.079	0.016	
1.675	0.376	0.071	
1.680	0.270	0.136	
1.685	0.029	0.186	
1.690	0.321	0.207	
1.695	0.534	0.234	
1.700	0.371	0.285	
1.705	0.467	0.339	
1.710	0.730	0.396	
1.715	0.559	0.466	
1.720	0.455	0.521	
1.725	0.800	0.556	
1.730	0.786	0.602	
1.735	0.629	0.652	
1.740	0.869	0.691	
1.745	0.939	0.735	
1.750	0.544	0.773	
1.755	0.478	0.764	
1.760	0.534	0.713	
1.765	0.325	0.643	
1.770	0.159	0.551	
1.775	0.302	0.448	
1.780	0.078	0.354	
1.785	-0.194	0.254	
1.790	-0.060	0.141	
1.795	0.097	0.049	
1.800	-0.071	-0.002	
1.805	-0.090	-0.033	
1.810	0.148	-0.047	
1.815	0.044	-0.034	
1.820	-0.042	-0.012	
1.825	0.113	0.004	
1.830	0.004	0.020	
1.835	-0.170	0.022	
1.840	-0.022	0.002	
1.845	0.145	-0.011	
1.850	-0.028	-0.004	
1.855	-0.028	0.003	
1.860	-0.011	0.001	
1.865	-0.150	-0.009	
1.870	-0.231	-0.037	
1.875	-0.104	-0.077	
1.880	-0.174	-0.111	
1.885	-0.277	-0.141	
1.890	-0.130	-0.169	
1.895	-0.075	-0.180	
1.900	-0.213	-0.175	
1.905	-0.171	-0.171	
1.910	-0.009	-0.164	
1.915	0.114	-0.133	
1.920	0.235	-0.073	
1.925	0.414	0.016	
1.930	-0.032	0.105	
1.935	-0.401	0.126	
1.940	-0.529	0.051	
1.945	-0.564	-0.089	
1.950	-0.593	-0.245	
1.955	-0.474	-0.379	
1.960	-0.297	-0.460	
1.965	-0.301	-0.478	
1.970	-0.254	-0.452	
1.975	-0.032	-0.394	
1.980	0.038	-0.306	
1.985	-0.063	-0.207	
1.990	0.047	-0.122	
1.995	0.220	-0.046	
2.000	0.090	0.026	
2.005	0.151	0.082	
2.010	0.415	0.132	
2.015	0.220	0.188	
2.020	0.131	0.226	
2.025	0.345	0.241	
2.030	0.460	0.263	
2.035	0.372	0.301	
2.040	0.617	0.348	
2.045	0.767	0.416	
2.050	0.602	0.500	
2.055	0.651	0.570	
2.060	0.872	0.627	
2.065	0.695	0.682	
2.070	0.631	0.717	
2.075	0.860	0.731	
2.080	0.663	0.743	
2.085	0.363	0.729	
2.090	0.478	0.674	
2.095	0.455	0.604	
2.100	0.075	0.526	
2.105	0.052	0.421	
2.110	0.154	0.307	
2.115	-0.028	0.209	
2.120	-0.092	0.123	
2.125	0.059	0.051	
2.130	-0.055	0.005	
2.135	-0.155	-0.028	
2.140	0.021	-0.055	
2.145	0.116	-0.058	
2.150	-0.121	-0.043	
2.155	-0.118	-0.039	
2.160	0.013	-0.045	
2.165	-0.084	-0.048	
2.170	-0.045	-0.050	
2.175	0.183	-0.041	
2.180	0.021	-0.013	
2.185	-0.165	0.005	
2.190	-0.119	-0.006	
2.195	-0.112	-0.034	
2.200	-0.252	-0.069	
2.205	-0.274	-0.115	
2.210	-0.124	-0.159	
2.215	-0.170	-0.183	
2.220	-0.223	-0.193	
2.225	-0.103	-0.195	
2.230	-0.152	-0.187	
2.235	-0.249	-0.179	
2.240	-0.032	-0.173	
2.245	0.372	-0.136	
2.250	0.417	-0.040	
2.255	0.351	0.086	
2.260	0.148	0.191	
2.265	-0.295	0.223	
2.270	-0.463	0.156	
2.275	-0.437	0.018	
2.280	-0.538	-0.140	
2.285	-0.575	-0.288	
2.290	-0.349	-0.402	
2.295	-0.214	-0.452	
2.300	-0.208	-0.439	
2.305	-0.087	-0.384	
2.310	0.107	-0.299	
2.315	0.146	-0.190	
2.320	0.739	-0.048	
2.325	1.656	0.181	
2.330	1.783	0.530	
2.335	1.440	0.911	
2.340	1.442	1.212	
2.345	1.370	1.399	
2.350	1.257	1.484	
2.355	1.622	1.506	
2.360	2.004	1.539	
2.365	1.708	1.610	
2.370	1.553	1.669	
2.375	1.772	1.694	
2.380	1.718	1.708	
2.385	1.689	1.718	
2.390	2.001	1.734	
2.395	2.160	1.783	
2.400	1.909	1.859	
2.405	1.741	1.909	
2.410	1.805	1.913	
2.415	1.531	1.880	
2.420	1.310	1.802	
2.425	1.385	1.686	
2.430	1.048	1.555	
2.435	0.683	1.395	
2.440	0.573	1.197	
2.445	0.382	0.981	
2.450	-0.026	0.754	
2.455	0.050	0.521	
2.460	0.157	0.320	
2.465	0.006	0.180	
2.470	-0.074	0.082	
2.475	0.105	0.017	
2.480	-0.008	-0.012	
2.485	-0.162	-0.028	
2.490	-0.103	-0.050	
2.495	-0.014	-0.070	
2.500	-0.138	-0.079	
2.505	-0.153	-0.089	
2.510	0.090	-0.094	
2.515	0.195	-0.069	
2.520	0.197	-0.013	
2.525	0.741	0.079	
2.530	1.008	0.233	
2.535	1.051	0.442	
2.540	1.431	0.672	
2.545	1.570	0.914	
2.550	1.297	1.136	
2.555	1.326	1.288	
2.560	1.628	1.383	
2.565	1.425	1.451	
2.570	1.407	1.489	
2.575	1.818	1.512	
2.580	1.969	1.568	
2.585	1.838	1.656	
2.590	1.699	1.733	
2.595	1.237	1.749	
2.600	0.441	1.647	
2.605	0.090	1.395	
2.610	0.130	1.048	
2.615	0.033	0.702	
2.620	0.091	0.415	
2.625	0.415	0.227	
2.630	0.466	0.156	
2.635	0.461	0.176	
2.640	0.823	0.255	
2.645	1.078	0.394	
2.650	1.651	0.603	
2.655	2.343	0.905	
2.660	2.605	1.299	
2.665	2.220	1.704	
2.670	2.015	2.006	
2.675	2.168	2.173	
2.680	2.090	2.244	
2.685	1.897	2.245	
2.690	2.088	2.199	
2.695	2.261	2.155	
2.700	2.139	2.139	
2.705	2.155	2.138	
2.710	2.300	2.146	
2.715	2.241	2.169	
2.720	2.290	2.199	
2.725	2.478	2.237	
2.730	2.382	2.287	
2.735	2.076	2.319	
2.740	2.074	2.304	
2.745	2.001	2.251	
2.750	1.621	2.165	
2.755	1.404	2.029	
2.760	1.249	1.850	
2.765	0.816	1.638	
2.770	0.609	1.393	
2.775	0.716	1.142	
2.780	0.489	0.925	
2.785	0.211	0.735	
2.790	0.334	0.563	
2.795	0.369	0.433	
2.800	0.097	0.343	
2.805	0.061	0.264	
2.810	0.137	0.193	
2.815	-0.005	0.138	
2.820	-0.043	0.089	
2.825	0.180	0.053	
2.830	0.127	0.046	
2.835	-0.002	0.054	
2.840	0.044	0.055	
2.845	0.033	0.052	
2.850	-0.145	0.039	
2.855	-0.194	0.004	
2.860	-0.158	-0.045	
2.865	-0.271	-0.097	
2.870	-0.364	-0.154	
2.875	-0.342	-0.215	
2.880	-0.414	-0.273	
2.885	-0.442	-0.326	
2.890	-0.402	-0.370	
2.895	-0.426	-0.400	
2.900	-0.572	-0.426	
2.905	-0.515	-0.456	
2.910	-0.269	-0.473	
2.915	-0.197	-0.452	
2.920	-0.236	-0.399	
2.925	-0.307	-0.345	
2.930	-0.633	-0.323	
2.935	-0.967	-0.370	
2.940	-0.993	-0.489	
2.945	-0.995	-0.639	
2.950	-0.995	-0.779	
2.955	-0.995	-0.887	
2.960	-0.995	-0.961	
2.965	-0.995	-1.003	
2.970	-0.995	-1.022	
2.975	-0.996	-1.027	
2.980	-0.996	-1.023	
2.985	-0.996	-1.017	
2.990	-0.996	-1.010	
2.995	-0.996	-1.004	
3.000	-0.996	-0.999	
3.005	-0.996	-0.997	
3.010	-0.995	-0.995	
3.015	-0.996	-0.995	
3.020	-0.996	-0.995	
3.025	-0.996	-0.995	
3.030	-0.996	-0.995	
3.035	-0.996	-0.996	
3.040	-0.995	-0.996	
3.045	-0.996	-0.996	
3.050	-0.995	-0.996	
3.055	-0.995	-0.996	
3.060	-0.995	-0.996	
3.065	-0.995	-0.995	
3.070	-0.995	-0.995	
3.075	-0.995	-0.995	
3.080	-0.995	-0.995	
3.085	-0.995	-0.995	
3.090	-0.995	-0.995	
3.095	-0.995	-0.995	
3.100	-0.995	-0.995	
3.105	-0.995	-0.995	
3.110	-0.995	-0.995	
3.115	-0.995	-0.995	
3.120	-0.995	-0.995	
3.125	-0.995	-0.995	
3.130	-0.995	-0.995	
3.135	-0.993	-0.995	
3.140	-0.860	-0.988	
3.145	-0.773	-0.964	
3.150	-0.822	-0.923	
3.155	-0.724	-0.877	
3.160	-0.621	-0.826	
3.165	-0.723	-0.773	
3.170	-0.691	-0.731	
3.175	-0.561	-0.699	
3.180	-0.556	-0.663	
3.185	-0.624	-0.629	
3.190	-0.517	-0.603	
3.195	-0.426	-0.576	
3.200	-0.526	-0.543	
3.205	-0.491	-0.518	
3.210	-0.382	-0.497	
3.215	-0.482	-0.475	
3.220	-0.463	-0.460	
3.225	-0.310	-0.447	
3.230	-0.309	-0.422	
3.235	-0.352	-0.391	
3.240	-0.142	-0.357	
3.245	0.122	-0.298	
3.250	0.258	-0.198	
3.255	0.476	-0.060	
3.260	0.366	0.091	
3.265	-0.226	0.194	
3.270	-0.454	0.184	
3.275	-0.434	0.073	
3.280	-0.491	-0.079	
3.285	-0.504	-0.228	
3.290	-0.237	-0.339	
3.295	-0.037	-0.378	
3.300	-0.071	-0.345	
3.305	0.168	-0.266	
3.310	0.567	-0.139	
3.315	0.481	0.031	
3.320	0.457	0.200	
3.325	0.803	0.348	
3.330	0.858	0.491	
3.335	0.744	0.622	
3.340	1.019	0.726	
3.345	1.113	0.823	
3.350	0.854	0.908	
3.355	1.019	0.960	
3.360	1.245	0.999	
3.365	1.095	1.046	
3.370	1.149	1.088	
3.375	1.456	1.131	
3.380	1.362	1.194	
3.385	1.326	1.258	
3.390	1.631	1.318	
3.395	1.711	1.395	
3.400	1.437	1.475	
3.405	1.497	1.523	
3.410	1.636	1.545	
3.415	1.286	1.550	
3.420	1.092	1.511	
3.425	1.181	1.428	
3.430	0.971	1.327	
3.435	0.698	1.209	
3.440	0.747	1.072	
3.445	0.709	0.940	
3.450	0.438	0.822	
3.455	0.583	0.712	
3.460	0.771	0.636	
3.465	0.499	0.603	
3.470	0.464	0.578	
3.475	0.730	0.559	
3.480	0.600	0.563	
3.485	0.415	0.569	
3.490	0.614	0.561	
3.495	0.579	0.557	
3.500	0.360	0.550	
3.505	0.476	0.527	
3.510	0.591	0.506	
3.515	0.403	0.498	
3.520	0.424	0.486	
3.525	0.568	0.474	
3.530	0.333	0.468	
3.535	0.078	0.440	
3.540	0.246	0.378	
3.545	0.293	0.318	
3.550	0.050	0.270	
3.555	0.113	0.220	
3.560	0.221	0.178	
3.565	0.003	0.150	
3.570	-0.006	0.119	
3.575	0.455	0.102	
3.580	0.585	0.144	
3.585	0.638	0.242	
3.590	0.744	0.366	
3.595	0.415	0.477	
3.600	-0.181	0.507	
3.605	-0.287	0.418	
3.610	-0.291	0.249	
3.615	-0.411	0.061	
3.620	-0.356	-0.111	
3.625	-0.118	-0.232	
3.630	-0.100	-0.281	
3.635	-0.126	-0.273	
3.640	0.281	-0.222	
3.645	0.368	-0.119	
3.650	0.330	0.016	
3.655	0.573	0.153	
3.660	0.771	0.296	
3.665	0.592	0.436	
3.670	0.597	0.543	
3.675	0.820	0.615	
3.680	0.709	0.673	
3.685	0.464	0.702	
3.690	0.646	0.692	
3.695	0.814	0.678	
3.700	0.702	0.683	
3.705	0.889	0.703	
3.710	1.087	0.748	
3.715	0.897	0.814	
3.720	0.924	0.872	
3.725	1.254	0.924	
3.730	1.110	0.989	
3.735	0.877	1.039	
3.740	1.129	1.056	
3.745	1.181	1.069	
3.750	0.816	1.076	
3.755	0.730	1.045	
3.760	0.803	0.979	
3.765	0.473	0.895	
3.770	0.313	0.784	
3.775	0.443	0.656	
3.780	0.146	0.534	
3.785	-0.072	0.406	
3.790	0.224	0.279	
3.795	0.255	0.194	
3.800	-0.066	0.147	
3.805	0.090	0.107	
3.810	0.392	0.091	
3.815	0.183	0.115	
3.820	0.058	0.143	
3.825	0.249	0.156	
3.830	0.125	0.165	
3.835	-0.034	0.160	
3.840	0.154	0.138	
3.845	0.119	0.120	
3.850	-0.139	0.100	
3.855	-0.126	0.059	
3.860	-0.022	0.009	
3.865	-0.150	-0.032	
3.870	-0.113	-0.066	
3.875	0.050	-0.086	
3.880	-0.089	-0.085	
3.885	-0.181	-0.082	
3.890	-0.066	-0.090	
3.895	-0.095	-0.096	
3.900	-0.242	-0.104	
3.905	-0.153	-0.123	
3.910	0.052	-0.132	
3.915	0.056	-0.112	
3.920	0.191	-0.065	
3.925	0.363	0.007	
3.930	-0.055	0.081	
3.935	-0.326	0.099	
3.940	-0.355	0.041	
3.945	-0.442	-0.064	
3.950	-0.567	-0.187	
3.955	-0.465	-0.307	
3.960	-0.309	-0.392	
3.965	-0.332	-0.427	
3.970	-0.255	-0.422	
3.975	-0.016	-0.382	
3.980	-0.011	-0.305	
3.985	-0.031	-0.214	
3.990	0.236	-0.122	
3.995	0.233	-0.023	
4.000	0.036	0.064	
4.005	0.104	0.114	
4.010	0.145	0.135	
4.015	0.111	0.144	
4.020	0.149	0.146	
4.025	0.397	0.157	
4.030	0.276	0.190	
4.035	0.197	0.224	
4.040	0.460	0.251	
4.045	0.542	0.295	
4.050	0.376	0.351	
4.055	0.507	0.396	
4.060	0.702	0.442	
4.065	0.515	0.495	
4.070	0.498	0.533	
4.075	0.718	0.556	
4.080	0.571	0.580	
4.085	0.368	0.588	
4.090	0.427	0.563	
4.095	0.321	0.518	
4.100	-0.002	0.450	
4.105	0.007	0.348	
4.110	0.058	0.237	
4.115	-0.104	0.140	
4.120	-0.100	0.054	
4.125	0.117	-0.006	
4.130	-0.017	-0.029	
4.135	-0.153	-0.039	
4.140	-0.045	-0.053	
4.145	0.024	-0.060	
4.150	-0.127	-0.058	
4.155	-0.061	-0.060	
4.160	0.050	-0.059	
4.165	-0.122	-0.052	
4.170	-0.104	-0.052	
4.175	0.104	-0.053	
4.180	0.039	-0.037	
4.185	-0.130	-0.020	
4.190	-0.055	-0.021	
4.195	-0.106	-0.033	
4.200	-0.242	-0.057	
4.205	-0.177	-0.093	
4.210	-0.121	-0.127	
4.215	-0.271	-0.152	
4.220	-0.258	-0.179	
4.225	-0.107	-0.200	
4.230	-0.174	-0.204	
4.235	-0.301	-0.203	
4.240	-0.148	-0.208	
4.245	0.001	-0.199	
4.250	0.003	-0.165	
4.255	0.340	-0.102	
4.260	0.406	-0.001	
4.265	-0.089	0.097	
4.270	-0.338	0.123	
4.275	-0.370	0.060	
4.280	-0.518	-0.055	
4.285	-0.543	-0.192	
4.290	-0.379	-0.315	
4.295	-0.300	-0.391	
4.300	-0.303	-0.416	
4.305	-0.165	-0.400	
4.310	-0.013	-0.349	
4.315	-0.103	-0.273	
4.320	-0.100	-0.199	
4.325	0.094	-0.136	
4.330	-0.038	-0.078	
4.335	-0.060	-0.036	
4.340	0.236	-0.006	
4.345	0.302	0.043	
4.350	0.130	0.104	
4.355	0.197	0.150	
4.360	0.327	0.184	
4.365	0.255	0.218	
4.370	0.311	0.247	
4.375	0.576	0.283	
4.380	0.487	0.338	
4.385	0.374	0.392	
4.390	0.605	0.431	
4.395	0.507	0.467	
4.400	0.372	0.490	
4.405	0.670	0.500	
4.410	0.849	0.531	
4.415	0.522	0.581	
4.420	0.371	0.603	
4.425	0.441	0.582	
4.430	0.249	0.533	
4.435	0.072	0.457	
4.440	0.174	0.362	
4.445	0.046	0.269	
4.450	-0.193	0.178	
4.455	-0.113	0.079	
4.460	0.036	-0.002	
4.465	-0.142	-0.050	
4.470	-0.141	-0.082	
4.475	0.020	-0.101	
4.480	-0.063	-0.100	
4.485	-0.181	-0.094	
4.490	-0.040	-0.095	
4.495	0.021	-0.089	
4.500	-0.161	-0.077	
4.505	-0.057	-0.073	
4.510	0.111	-0.066	
4.515	-0.107	-0.047	
4.520	-0.162	-0.041	
4.525	-0.008	-0.051	
4.530	-0.132	-0.061	
4.535	-0.249	-0.078	
4.540	-0.199	-0.111	
4.545	-0.156	-0.143	
4.550	-0.258	-0.168	
4.555	-0.208	-0.190	
4.560	-0.112	-0.202	
4.565	-0.280	-0.204	
4.570	-0.309	-0.212	
4.575	-0.074	-0.222	
4.580	-0.028	-0.208	
4.585	0.013	-0.168	
4.590	0.495	-0.095	
4.595	0.340	0.021	
4.600	-0.162	0.121	
4.605	-0.341	0.132	
4.610	-0.456	0.054	
4.615	-0.614	-0.081	
4.620	-0.585	-0.237	
4.625	-0.420	-0.372	
4.630	-0.433	-0.455	
4.635	-0.371	-0.489	
4.640	-0.101	-0.474	
4.645	0.035	-0.404	
4.650	-0.086	-0.300	
4.655	0.021	-0.199	
4.660	0.162	-0.108	
4.665	-0.093	-0.031	
4.670	-0.068	0.008	
4.675	0.318	0.030	
4.680	0.215	0.071	
4.685	0.058	0.116	
4.690	0.362	0.148	
4.695	0.417	0.192	
4.700	0.215	0.243	
4.705	0.400	0.281	
4.710	0.554	0.320	
4.715	0.427	0.370	
4.720	0.498	0.414	
4.725	0.683	0.456	
4.730	0.547	0.504	
4.735	0.513	0.540	
4.740	0.832	0.569	
4.745	0.797	0.616	
4.750	0.539	0.662	
4.755	0.585	0.676	
4.760	0.579	0.664	
4.765	0.152	0.622	
4.770	0.006	0.528	
4.775	0.130	0.398	
4.780	-0.098	0.268	
4.785	-0.245	0.141	
4.790	-0.052	0.022	
4.795	-0.025	-0.057	
4.800	-0.179	-0.099	
4.805	-0.115	-0.124	
4.810	-0.028	-0.134	
4.815	-0.138	-0.128	
4.820	-0.122	-0.121	
4.825	0.070	-0.110	
4.830	-0.100	-0.088	
4.835	-0.199	-0.076	
4.840	0.009	-0.079	
4.845	-0.051	-0.076	
4.850	-0.159	-0.072	
4.855	-0.064	-0.077	
4.860	0.017	-0.078	
4.865	-0.190	-0.074	
4.870	-0.246	-0.087	
4.875	-0.127	-0.114	
4.880	-0.229	-0.140	
4.885	-0.320	-0.169	
4.890	-0.162	-0.200	
4.895	-0.176	-0.216	
4.900	-0.294	-0.221	
4.905	-0.225	-0.228	
4.910	-0.185	-0.233	
4.915	-0.152	-0.226	
4.920	0.110	-0.199	
4.925	0.547	-0.120	
4.930	0.343	0.012	
4.935	-0.089	0.127	
4.940	-0.251	0.157	
4.945	-0.478	0.093	
4.950	-0.689	-0.043	
4.955	-0.645	-0.217	
4.960	-0.492	-0.377	
4.965	-0.480	-0.483	
4.970	-0.367	-0.530	
4.975	-0.127	-0.517	
4.980	-0.152	-0.451	
4.985	-0.159	-0.363	
4.990	0.061	-0.271	
4.995	0.113	-0.172	
5.000	0.020	-0.078	
5.005	0.206	-0.001	
5.010	0.377	0.075	
5.015	0.229	0.153	
5.020	0.259	0.214	
5.025	0.606	0.267	
5.030	0.518	0.335	
5.035	0.392	0.401	
5.040	0.606	0.447	
5.045	0.586	0.489	
5.050	0.402	0.519	
5.055	0.695	0.535	
5.060	0.926	0.569	
5.065	0.715	0.631	
5.070	0.722	0.687	
5.075	1.025	0.735	
5.080	0.860	0.790	
5.085	0.661	0.829	
5.090	0.771	0.831	
5.095	0.608	0.809	
5.100	0.146	0.747	
5.105	0.163	0.627	
5.110	0.238	0.486	
5.115	-0.072	0.353	
5.120	-0.103	0.222	
5.125	0.046	0.106	
5.130	0.003	0.029	
5.135	-0.058	-0.015	
5.140	0.130	-0.033	
5.145	0.036	-0.025	
5.150	-0.116	-0.012	
5.155	-0.068	-0.016	
5.160	-0.051	-0.029	
5.165	-0.118	-0.043	
5.170	-0.075	-0.059	
5.175	0.058	-0.065	
5.180	-0.028	-0.056	
5.185	-0.061	-0.044	
5.190	0.151	-0.030	
5.195	0.003	-0.006	
5.200	-0.199	0.005	
5.205	-0.119	-0.015	
5.210	-0.078	-0.045	
5.215	-0.249	-0.076	
5.220	-0.272	-0.116	
5.225	-0.193	-0.160	
5.230	-0.275	-0.195	
5.235	-0.303	-0.225	
5.240	-0.193	-0.247	
5.245	-0.220	-0.255	
5.250	-0.248	-0.252	
5.255	0.055	-0.235	
5.260	0.530	-0.165	
5.265	0.328	-0.033	
5.270	-0.043	0.090	
5.275	-0.237	0.134	
5.280	-0.543	0.083	
5.285	-0.737	-0.053	
5.290	-0.637	-0.233	
5.295	-0.546	-0.396	
5.300	-0.553	-0.508	
5.305	-0.359	-0.563	
5.310	-0.168	-0.552	
5.315	-0.229	-0.488	
5.320	-0.139	-0.401	
5.325	0.065	-0.305	
5.330	-0.060	-0.205	
5.335	-0.110	-0.125	
5.340	0.198	-0.067	
5.345	0.181	-0.004	
5.350	-0.026	0.052	
5.355	0.116	0.081	
5.360	0.307	0.105	
5.365	0.194	0.139	
5.370	0.330	0.178	
5.375	0.629	0.232	
5.380	0.476	0.312	
5.385	0.386	0.384	
5.390	0.758	0.441	
5.395	0.834	0.514	
5.400	0.649	0.597	
5.405	0.825	0.664	
5.410	0.855	0.720	
5.415	0.617	0.760	
5.420	0.670	0.767	
5.425	0.758	0.754	
5.430	0.400	0.728	
5.435	0.162	0.660	
5.440	0.394	0.556	
5.445	0.224	0.457	
5.450	-0.132	0.356	
5.455	-0.097	0.235	
5.460	-0.061	0.114	
5.465	-0.194	0.015	
5.470	-0.170	-0.066	
5.475	-0.005	-0.118	
5.480	-0.098	-0.135	
5.485	-0.199	-0.136	
5.490	-0.100	-0.140	
5.495	-0.129	-0.140	
5.500	-0.243	-0.142	
5.505	-0.145	-0.152	
5.510	-0.063	-0.156	
5.515	-0.268	-0.154	
5.520	-0.245	-0.164	
5.525	-0.020	-0.174	
5.530	-0.135	-0.166	
5.535	-0.274	-0.158	
5.540	-0.199	-0.165	
5.545	-0.271	-0.182	
5.550	-0.390	-0.209	
5.555	-0.287	-0.245	
5.560	-0.234	-0.273	
5.565	-0.370	-0.288	
5.570	-0.326	-0.303	
5.575	-0.214	-0.311	
5.580	-0.315	-0.307	
5.585	-0.272	-0.300	
5.590	0.154	-0.273	
5.595	0.466	-0.187	
5.600	0.369	-0.043	
5.605	0.343	0.107	
5.610	-0.026	0.209	
5.615	-0.405	0.215	
5.620	-0.529	0.115	
5.625	-0.472	-0.044	
5.630	-0.512	-0.206	
5.635	-0.501	-0.340	
5.640	-0.286	-0.426	
5.645	-0.190	-0.448	
5.650	-0.211	-0.417	
5.655	-0.055	-0.355	
5.660	0.117	-0.269	
5.665	0.038	-0.167	
5.670	0.090	-0.073	
5.675	0.340	0.013	
5.680	0.110	0.093	
5.685	-0.045	0.139	
5.690	0.178	0.145	
5.695	0.154	0.143	
5.700	-0.063	0.135	
5.705	0.052	0.110	
5.710	0.247	0.091	
5.715	0.062	0.092	
5.720	0.058	0.096	
5.725	0.400	0.107	
5.730	0.457	0.153	
5.735	0.475	0.230	
5.740	0.783	0.326	
5.745	0.736	0.442	
5.750	0.479	0.543	
5.755	0.612	0.599	
5.760	0.563	0.621	
5.765	0.133	0.603	
5.770	-0.029	0.520	
5.775	0.021	0.388	
5.780	-0.174	0.244	
5.785	-0.286	0.099	
5.790	-0.119	-0.030	
5.795	-0.196	-0.121	
5.800	-0.368	-0.184	
5.805	-0.326	-0.239	
5.810	-0.252	-0.281	
5.815	-0.349	-0.304	
5.820	-0.346	-0.319	
5.825	-0.228	-0.326	
5.830	-0.318	-0.321	
5.835	-0.388	-0.317	
5.840	-0.265	-0.319	
5.845	-0.283	-0.317	
5.850	-0.350	-0.312	
5.855	-0.271	-0.309	
5.860	-0.294	-0.306	
5.865	-0.399	-0.306	
5.870	-0.359	-0.316	
5.875	-0.291	-0.328	
5.880	-0.457	-0.338	
5.885	-0.573	-0.362	
5.890	-0.426	-0.401	
5.895	-0.420	-0.431	
5.900	-0.500	-0.448	
5.905	-0.425	-0.459	
5.910	-0.405	-0.460	
5.915	-0.540	-0.458	
5.920	-0.518	-0.465	
5.925	-0.338	-0.471	
5.930	-0.272	-0.454	
5.935	-0.210	-0.413	
5.940	-0.104	-0.353	
5.945	-0.271	-0.290	
5.950	-0.613	-0.264	
5.955	-0.749	-0.306	
5.960	-0.775	-0.403	
5.965	-0.862	-0.522	
5.970	-0.767	-0.635	
5.975	-0.593	-0.712	
5.980	-0.530	-0.732	
5.985	-0.482	-0.706	
5.990	-0.277	-0.644	
5.995	-0.222	-0.553	
6.000	-0.300	-0.453	
6.005	-0.226	-0.369	
6.010	-0.092	-0.298	
6.015	-0.087	-0.231	
6.020	0.001	-0.168	
6.025	0.117	-0.104	
6.030	-0.074	-0.046	
6.035	-0.034	-0.012	
6.040	0.273	0.013	
6.045	0.276	0.059	
6.050	0.093	0.114	
6.055	0.327	0.156	
6.060	0.499	0.205	
6.065	0.322	0.268	
6.070	0.470	0.323	
6.075	0.741	0.384	
6.080	0.649	0.462	
6.085	0.592	0.537	
6.090	0.823	0.597	
6.095	0.754	0.655	
6.100	0.472	0.692	
6.105	0.473	0.682	
6.110	0.426	0.637	
6.115	0.046	0.560	
6.120	-0.034	0.441	
6.125	0.049	0.303	
6.130	-0.098	0.177	
6.135	-0.190	0.067	
6.140	-0.034	-0.023	
6.145	-0.025	-0.076	
6.150	-0.184	-0.100	
6.155	-0.103	-0.117	
6.160	-0.017	-0.122	
6.165	-0.121	-0.114	
6.170	-0.129	-0.107	
6.175	0.018	-0.100	
6.180	-0.064	-0.086	
6.185	-0.132	-0.074	
6.190	-0.025	-0.071	
6.195	-0.095	-0.069	
6.200	-0.138	-0.072	
6.205	-0.040	-0.079	
6.210	-0.029	-0.079	
6.215	-0.240	-0.080	
6.220	-0.226	-0.100	
6.225	-0.177	-0.131	
6.230	-0.263	-0.162	
6.235	-0.280	-0.192	
6.240	-0.119	-0.215	
6.245	-0.161	-0.218	
6.250	-0.278	-0.212	
6.255	-0.177	-0.212	
6.260	-0.116	-0.207	
6.265	-0.119	-0.191	
6.270	0.197	-0.155	
6.275	0.547	-0.071	
6.280	0.169	0.051	
6.285	-0.243	0.131	
6.290	-0.399	0.113	
6.295	-0.533	0.011	
6.300	-0.659	-0.139	
6.305	-0.546	-0.298	
6.310	-0.401	-0.420	
6.315	-0.411	-0.484	
6.320	-0.327	-0.498	
6.325	-0.122	-0.467	
6.330	-0.052	-0.395	
6.335	0.061	-0.294	
6.340	0.405	-0.168	
6.345	0.313	-0.021	
6.350	0.096	0.107	
6.355	0.243	0.185	
6.360	0.350	0.232	
6.365	0.166	0.264	
6.370	0.229	0.272	
6.375	0.484	0.278	
6.380	0.354	0.300	
6.385	0.376	0.329	
6.390	0.719	0.366	
6.395	0.644	0.430	
6.400	0.525	0.499	
6.405	0.864	0.559	
6.410	0.961	0.634	
6.415	0.725	0.716	
6.420	0.797	0.772	
6.425	1.026	0.811	
6.430	0.828	0.851	
6.435	0.570	0.863	
6.440	0.718	0.834	
6.445	0.537	0.783	
6.450	0.188	0.705	
6.455	0.270	0.591	
6.460	0.270	0.472	
6.465	-0.063	0.361	
6.470	-0.037	0.244	
6.475	0.191	0.145	
6.480	0.044	0.087	
6.485	-0.054	0.053	
6.490	0.084	0.027	
6.495	0.055	0.017	
6.500	-0.122	0.013	
6.505	-0.035	-0.002	
6.510	0.052	-0.016	
6.515	-0.089	-0.021	
6.520	0.065	-0.022	
6.525	0.290	-0.003	
6.530	0.020	0.037	
6.535	-0.118	0.060	
6.540	0.052	0.053	
6.545	-0.008	0.038	
6.550	-0.156	0.018	
6.555	-0.127	-0.015	
6.560	-0.054	-0.050	
6.565	-0.208	-0.079	
6.570	-0.179	-0.108	
6.575	-0.019	-0.130	
6.580	-0.165	-0.134	
6.585	-0.222	-0.138	
6.590	-0.098	-0.147	
6.595	-0.190	-0.152	
6.600	-0.208	-0.158	
6.605	0.272	-0.148	
6.610	0.617	-0.071	
6.615	0.272	0.062	
6.620	0.003	0.169	
6.625	-0.136	0.197	
6.630	-0.428	0.143	
6.635	-0.578	0.017	
6.640	-0.457	-0.142	
6.645	-0.453	-0.284	
6.650	-0.472	-0.386	
6.655	-0.237	-0.440	
6.660	-0.054	-0.432	
6.665	-0.135	-0.370	
6.670	-0.170	-0.294	
6.675	0.117	-0.219	
6.680	0.023	-0.138	
6.685	-0.003	-0.065	
6.690	0.486	0.006	
6.695	0.690	0.116	
6.700	0.579	0.262	
6.705	0.780	0.406	
6.710	0.919	0.544	
6.715	0.615	0.660	
6.720	0.599	0.722	
6.725	0.765	0.738	
6.730	0.635	0.738	
6.735	0.612	0.723	
6.740	1.032	0.716	
6.745	0.979	0.749	
6.750	0.756	0.800	
6.755	0.977	0.837	
6.760	1.049	0.875	
6.765	0.793	0.910	
6.770	0.800	0.918	
6.775	0.903	0.905	
6.780	0.508	0.875	
6.785	0.275	0.800	
6.790	0.498	0.687	
6.795	0.366	0.580	
6.800	0.013	0.478	
6.805	0.056	0.360	
6.810	0.168	0.250	
6.815	-0.023	0.166	
6.820	0.023	0.101	
6.825	0.223	0.062	
6.830	-0.009	0.052	
6.835	-0.110	0.042	
6.840	0.105	0.024	
6.845	-0.017	0.014	
6.850	-0.158	0.003	
6.855	-0.029	-0.020	
6.860	-0.122	-0.043	
6.865	-0.274	-0.072	
6.870	-0.187	-0.112	
6.875	-0.040	-0.143	
6.880	-0.187	-0.153	
6.885	-0.254	-0.160	
6.890	-0.161	-0.174	
6.895	-0.255	-0.187	
6.900	-0.411	-0.208	
6.905	-0.286	-0.244	
6.910	-0.266	-0.274	
6.915	-0.390	-0.294	
6.920	-0.338	-0.313	
6.925	-0.226	-0.325	
6.930	-0.361	-0.323	
6.935	-0.390	-0.325	
6.940	-0.182	-0.327	
6.945	-0.077	-0.306	
6.950	-0.138	-0.261	
6.955	-0.109	-0.212	
6.960	-0.283	-0.178	
6.965	-0.608	-0.188	
6.970	-0.709	-0.260	
6.975	-0.694	-0.373	
6.980	-0.819	-0.494	
6.985	-0.836	-0.609	
6.990	-0.721	-0.701	
6.995	-0.688	-0.754	
7.000	-0.650	-0.767	
7.005	-0.503	-0.747	
7.010	-0.478	-0.698	
7.015	-0.595	-0.640	
7.020	-0.559	-0.596	
7.025	-0.422	-0.563	
7.030	-0.495	-0.530	
7.035	-0.562	-0.507	
7.040	-0.394	-0.496	
7.045	-0.387	-0.478	
7.050	-0.457	-0.457	
7.055	-0.324	-0.437	
7.060	-0.240	-0.408	
7.065	-0.312	-0.371	
7.070	-0.222	-0.334	
7.075	-0.080	-0.293	
7.080	-0.182	-0.244	
7.085	-0.243	-0.207	
7.090	0.000	-0.182	
7.095	0.030	-0.145	
7.100	-0.049	-0.100	
7.105	0.235	-0.052	
7.110	0.308	0.015	
7.115	-0.025	0.084	
7.120	-0.049	0.111	
7.125	0.062	0.102	
7.130	-0.150	0.075	
7.135	-0.272	0.024	
7.140	-0.197	-0.046	
7.145	-0.277	-0.116	
7.150	-0.376	-0.181	
7.155	-0.251	-0.238	
7.160	-0.237	-0.274	
7.165	-0.332	-0.290	
7.170	-0.269	-0.298	
7.175	-0.031	-0.289	
7.180	-0.087	-0.250	
7.185	-0.159	-0.202	
7.190	0.003	-0.159	
7.195	-0.126	-0.122	
7.200	-0.324	-0.107	
7.205	-0.229	-0.127	
7.210	-0.152	-0.156	
7.215	-0.232	-0.177	
7.220	-0.225	-0.193	
7.225	-0.214	-0.207	
7.230	-0.398	-0.224	
7.235	-0.489	-0.260	
7.240	-0.365	-0.310	
7.245	-0.404	-0.353	
7.250	-0.503	-0.386	
7.255	-0.410	-0.415	
7.260	-0.407	-0.432	
7.265	-0.547	-0.443	
7.270	-0.489	-0.458	
7.275	-0.339	-0.467	
7.280	-0.298	-0.453	
7.285	-0.159	-0.413	
7.290	0.006	-0.345	
7.295	-0.260	-0.267	
7.300	-0.584	-0.230	
7.305	-0.665	-0.266	
7.310	-0.741	-0.357	
7.315	-0.871	-0.475	
7.320	-0.784	-0.596	
7.325	-0.576	-0.685	
7.330	-0.535	-0.716	
7.335	-0.413	-0.694	
7.340	-0.193	-0.627	
7.345	-0.199	-0.524	
7.350	-0.216	-0.414	
7.355	-0.031	-0.314	
7.360	0.055	-0.217	
7.365	-0.121	-0.131	
7.370	0.006	-0.073	
7.375	0.252	-0.025	
7.380	0.105	0.032	
7.385	0.139	0.082	
7.390	0.369	0.126	
7.395	0.301	0.179	
7.400	0.230	0.227	
7.405	0.570	0.270	
7.410	0.683	0.336	
7.415	0.447	0.417	
7.420	0.690	0.484	
7.425	1.025	0.559	
7.430	0.843	0.658	
7.435	0.817	0.748	
7.440	1.123	0.821	
7.445	0.961	0.890	
7.450	0.649	0.931	
7.455	0.748	0.917	
7.460	0.631	0.870	
7.465	0.261	0.791	
7.470	0.250	0.670	
7.475	0.356	0.539	
7.480	0.055	0.422	
7.485	-0.058	0.305	
7.490	0.279	0.202	
7.495	0.191	0.145	
7.500	-0.029	0.120	
7.505	0.226	0.102	
7.510	0.279	0.106	
7.515	0.012	0.126	
7.520	0.068	0.129	
7.525	0.183	0.122	
7.530	0.012	0.117	
7.535	-0.014	0.102	
7.540	0.206	0.084	
7.545	0.052	0.081	
7.550	-0.152	0.071	
7.555	-0.071	0.039	
7.560	-0.051	-0.000	
7.565	-0.245	-0.039	
7.570	-0.203	-0.085	
7.575	-0.107	-0.127	
7.580	-0.229	-0.154	
7.585	-0.284	-0.178	
7.590	-0.165	-0.202	
7.595	-0.219	-0.214	
7.600	-0.335	-0.224	
7.605	-0.225	-0.239	
7.610	-0.173	-0.247	
7.615	-0.136	-0.237	
7.620	0.340	-0.194	
7.625	0.758	-0.077	
7.630	0.380	0.098	
7.635	-0.115	0.231	
7.640	-0.229	0.250	
7.645	-0.388	0.169	
7.650	-0.486	0.029	
7.655	-0.297	-0.122	
7.660	-0.138	-0.229	
7.665	-0.132	-0.273	
7.670	0.124	-0.256	
7.675	0.486	-0.173	
7.680	0.398	-0.032	
7.685	0.441	0.123	
7.690	0.765	0.271	
7.695	0.680	0.416	
7.700	0.492	0.531	
7.705	0.730	0.600	
7.710	0.822	0.651	
7.715	0.567	0.692	
7.720	0.628	0.703	
7.725	0.924	0.706	
7.730	0.758	0.726	
7.735	0.770	0.750	
7.740	1.075	0.779	
7.745	1.026	0.831	
7.750	0.901	0.890	
7.755	1.155	0.938	
7.760	1.187	0.992	
7.765	0.938	1.041	
7.770	1.026	1.062	
7.775	1.170	1.068	
7.780	0.932	1.072	
7.785	0.771	1.052	
7.790	0.985	1.007	
7.795	0.742	0.960	
7.800	0.272	0.886	
7.805	0.250	0.757	
7.810	0.122	0.595	
7.815	-0.168	0.421	
7.820	-0.130	0.241	
7.825	-0.049	0.087	
7.830	-0.177	-0.024	
7.835	-0.181	-0.101	
7.840	-0.037	-0.147	
7.845	-0.141	-0.161	
7.850	-0.236	-0.163	
7.855	-0.110	-0.168	
7.860	-0.057	-0.163	
7.865	-0.203	-0.150	
7.870	-0.129	-0.143	
7.875	0.062	-0.132	
7.880	-0.087	-0.106	
7.885	-0.103	-0.084	
7.890	0.073	-0.068	
7.895	-0.093	-0.049	
7.900	-0.262	-0.049	
7.905	-0.200	-0.077	
7.910	-0.217	-0.117	
7.915	-0.336	-0.160	
7.920	-0.272	-0.205	
7.925	-0.219	-0.241	
7.930	-0.390	-0.264	
7.935	-0.428	-0.293	
7.940	-0.295	-0.324	
7.945	-0.376	-0.344	
7.950	-0.426	-0.358	
7.955	-0.107	-0.361	
7.960	0.281	-0.312	
7.965	0.163	-0.202	
7.970	0.038	-0.081	
7.975	-0.217	-0.005	
7.980	-0.622	-0.014	
7.985	-0.816	-0.121	
7.990	-0.729	-0.289	
7.995	-0.729	-0.457	
8.000	-0.755	-0.591	
8.005	-0.544	-0.676	
8.010	-0.411	-0.697	
8.015	-0.430	-0.662	
8.020	-0.326	-0.596	
8.025	-0.190	-0.512	
8.030	-0.251	-0.421	
8.035	-0.252	-0.341	
8.040	-0.054	-0.277	
8.045	-0.064	-0.214	
8.050	-0.153	-0.159	
8.055	-0.045	-0.121	
8.060	-0.019	-0.093	
8.065	-0.142	-0.072	
8.070	-0.017	-0.063	
8.075	0.215	-0.045	
8.080	-0.006	-0.010	
8.085	-0.005	0.019	
8.090	0.316	0.043	
8.095	0.261	0.088	
8.100	0.186	0.141	
8.105	0.464	0.192	
8.110	0.516	0.257	
8.115	0.354	0.327	
8.120	0.501	0.380	
8.125	0.641	0.429	
8.130	0.220	0.466	
8.135	0.018	0.449	
8.140	0.168	0.377	
8.145	-0.019	0.288	
8.150	-0.119	0.191	
8.155	0.032	0.098	
8.160	0.012	0.032	
8.165	-0.173	-0.012	
8.170	-0.129	-0.052	
8.175	-0.025	-0.084	
8.180	-0.155	-0.099	
8.185	-0.148	-0.111	
8.190	0.012	-0.116	
8.195	-0.040	-0.105	
8.200	-0.170	-0.091	
8.205	-0.046	-0.087	
8.210	0.110	-0.076	
8.215	0.003	-0.049	
8.220	0.136	-0.014	
8.225	0.273	0.030	
8.230	0.065	0.081	
8.235	0.090	0.114	
8.240	0.363	0.137	
8.245	0.188	0.170	
8.250	-0.031	0.187	
8.255	0.154	0.174	
8.260	0.163	0.156	
8.265	-0.092	0.136	
8.270	-0.054	0.098	
8.275	0.061	0.054	
8.280	-0.129	0.020	
8.285	-0.147	-0.016	
8.290	0.120	-0.045	
8.295	0.255	-0.035	
8.300	0.467	0.027	
8.305	0.907	0.149	
8.310	0.785	0.323	
8.315	0.026	0.465	
8.320	-0.252	0.475	
8.325	-0.365	0.354	
8.330	-0.566	0.158	
8.335	-0.537	-0.062	
8.340	-0.281	-0.247	
8.345	-0.219	-0.353	
8.350	-0.203	-0.383	
8.355	0.149	-0.349	
8.360	0.270	-0.251	
8.365	0.107	-0.120	
8.370	0.295	0.003	
8.375	0.490	0.117	
8.380	0.272	0.223	
8.385	0.270	0.294	
8.390	0.553	0.338	
8.395	0.409	0.379	
8.400	0.221	0.403	
8.405	0.537	0.405	
8.410	0.655	0.421	
8.415	0.418	0.455	
8.420	0.618	0.486	
8.425	0.825	0.526	
8.430	0.651	0.583	
8.435	0.800	0.638	
8.440	1.162	0.705	
8.445	0.974	0.797	
8.450	0.718	0.872	
8.455	0.927	0.902	
8.460	0.889	0.910	
8.465	0.568	0.897	
8.470	0.600	0.846	
8.475	0.623	0.775	
8.480	0.177	0.691	
8.485	0.004	0.567	
8.490	0.078	0.414	
8.495	-0.090	0.265	
8.500	-0.194	0.129	
8.505	-0.061	0.014	
8.510	-0.055	-0.063	
8.515	-0.217	-0.107	
8.520	-0.213	-0.141	
8.525	-0.119	-0.167	
8.530	-0.213	-0.180	
8.535	-0.177	-0.186	
8.540	-0.066	-0.184	
8.545	-0.182	-0.172	
8.550	-0.269	-0.166	
8.555	-0.155	-0.173	
8.560	-0.167	-0.179	
8.565	-0.268	-0.184	
8.570	-0.202	-0.194	
8.575	-0.104	-0.199	
8.580	-0.291	-0.197	
8.585	-0.295	-0.205	
8.590	-0.174	-0.220	
8.595	-0.295	-0.230	
8.600	-0.349	-0.244	
8.605	-0.203	-0.261	
8.610	-0.210	-0.265	
8.615	-0.336	-0.263	
8.620	-0.310	-0.268	
8.625	-0.257	-0.277	
8.630	-0.344	-0.285	
8.635	-0.236	-0.290	
8.640	0.212	-0.267	
8.645	0.232	-0.187	
8.650	-0.126	-0.088	
8.655	-0.226	-0.034	
8.660	-0.430	-0.048	
8.665	-0.753	-0.131	
8.670	-0.721	-0.270	
8.675	-0.578	-0.417	
8.680	-0.625	-0.527	
8.685	-0.518	-0.593	
8.690	-0.313	-0.607	
8.695	-0.294	-0.568	
8.700	-0.292	-0.499	
8.705	-0.089	-0.418	
8.710	-0.032	-0.324	
8.715	-0.135	-0.231	
8.720	0.036	-0.155	
8.725	0.195	-0.083	
8.730	-0.074	-0.016	
8.735	-0.025	0.021	
8.740	0.304	0.044	
8.745	0.215	0.084	
8.750	0.067	0.125	
8.755	0.435	0.158	
8.760	0.493	0.211	
8.765	0.292	0.278	
8.770	0.525	0.333	
8.775	0.767	0.396	
8.780	0.551	0.474	
8.785	0.577	0.538	
8.790	0.785	0.585	
8.795	0.631	0.628	
8.800	0.447	0.649	
8.805	0.588	0.637	
8.810	0.487	0.610	
8.815	0.111	0.562	
8.820	0.079	0.471	
8.825	0.174	0.360	
8.830	-0.064	0.255	
8.835	-0.101	0.154	
8.840	-0.003	0.064	
8.845	-0.142	-0.004	
8.850	-0.248	-0.062	
8.855	-0.141	-0.114	
8.860	-0.110	-0.149	
8.865	-0.231	-0.165	
8.870	-0.167	-0.177	
8.875	-0.071	-0.180	
8.880	-0.187	-0.171	
8.885	-0.196	-0.164	
8.890	-0.045	-0.159	
8.895	-0.135	-0.147	
8.900	-0.190	-0.137	
8.905	0.007	-0.130	
8.910	-0.008	-0.111	
8.915	-0.251	-0.093	
8.920	-0.223	-0.101	
8.925	-0.182	-0.127	
8.930	-0.298	-0.157	
8.935	-0.309	-0.193	
8.940	-0.225	-0.228	
8.945	-0.298	-0.251	
8.950	-0.381	-0.272	
8.955	-0.237	-0.292	
8.960	-0.220	-0.297	
8.965	-0.313	-0.291	
8.970	-0.220	-0.283	
8.975	-0.052	-0.264	
8.980	0.013	-0.221	
8.985	0.151	-0.153	
8.990	0.238	-0.066	
8.995	-0.133	0.012	
9.000	-0.449	0.026	
9.005	-0.509	-0.043	
9.010	-0.587	-0.164	
9.015	-0.682	-0.302	
9.020	-0.624	-0.433	
9.025	-0.425	-0.526	
9.030	-0.358	-0.559	
9.035	-0.255	-0.537	
9.040	0.001	-0.467	
9.045	-0.051	-0.360	
9.050	-0.155	-0.253	
9.055	-0.011	-0.171	
9.060	-0.009	-0.107	
9.065	-0.196	-0.067	
9.070	-0.118	-0.058	
9.075	0.059	-0.061	
9.080	-0.139	-0.057	
9.085	-0.135	-0.061	
9.090	0.110	-0.066	
9.095	0.124	-0.046	
9.100	0.064	-0.009	
9.105	0.238	0.034	
9.110	0.224	0.084	
9.115	0.046	0.127	
9.120	0.252	0.151	
9.125	0.412	0.179	
9.130	0.192	0.218	
9.135	0.203	0.244	
9.140	0.444	0.259	
9.145	0.267	0.282	
9.150	0.044	0.288	
9.155	0.165	0.262	
9.160	0.021	0.219	
9.165	-0.217	0.157	
9.170	-0.216	0.068	
9.175	-0.174	-0.026	
9.180	-0.284	-0.106	
9.185	-0.307	-0.175	
9.190	-0.193	-0.227	
9.195	-0.265	-0.255	
9.200	-0.338	-0.270	
9.205	-0.263	-0.283	
9.210	-0.274	-0.290	
9.215	-0.342	-0.293	
9.220	-0.217	-0.295	
9.225	-0.173	-0.285	
9.230	-0.329	-0.269	
9.235	-0.292	-0.263	
9.240	-0.144	-0.260	
9.245	-0.199	-0.247	
9.250	-0.309	-0.234	
9.255	-0.251	-0.234	
9.260	-0.332	-0.243	
9.265	-0.456	-0.266	
9.270	-0.367	-0.303	
9.275	-0.330	-0.335	
9.280	-0.426	-0.356	
9.285	-0.359	-0.372	
9.290	-0.228	-0.374	
9.295	-0.306	-0.358	
9.300	-0.417	-0.342	
9.305	-0.318	-0.338	
9.310	-0.283	-0.336	
9.315	-0.225	-0.324	
9.320	0.061	-0.289	
9.325	0.313	-0.209	
9.330	-0.046	-0.101	
9.335	-0.228	-0.030	
9.340	-0.324	-0.028	
9.345	-0.549	-0.087	
9.350	-0.654	-0.196	
9.355	-0.543	-0.324	
9.360	-0.445	-0.428	
9.365	-0.456	-0.487	
9.370	-0.263	-0.501	
9.375	-0.126	-0.467	
9.380	-0.182	-0.396	
9.385	-0.181	-0.319	
9.390	0.050	-0.245	
9.395	0.018	-0.166	
9.400	0.006	-0.092	
9.405	0.233	-0.027	
9.410	0.276	0.045	
9.415	0.189	0.117	
9.420	0.360	0.177	
9.425	0.567	0.243	
9.430	0.398	0.317	
9.435	0.479	0.380	
9.440	0.742	0.438	
9.445	0.655	0.506	
9.450	0.606	0.569	
9.455	0.843	0.620	
9.460	0.858	0.676	
9.465	0.706	0.729	
9.470	0.916	0.768	
9.475	1.049	0.811	
9.480	0.803	0.858	
9.485	0.707	0.879	
9.490	0.802	0.866	
9.495	0.519	0.830	
9.500	0.366	0.761	
9.505	0.467	0.666	
9.510	0.180	0.565	
9.515	-0.090	0.445	
9.520	-0.043	0.302	
9.525	0.009	0.168	
9.530	-0.171	0.062	
9.535	-0.182	-0.025	
9.540	-0.035	-0.090	
9.545	-0.112	-0.122	
9.550	-0.127	-0.133	
9.555	0.059	-0.128	
9.560	-0.042	-0.104	
9.565	-0.188	-0.083	
9.570	-0.098	-0.081	
9.575	0.042	-0.081	
9.580	-0.121	-0.072	
9.585	-0.066	-0.067	
9.590	0.099	-0.059	
9.595	-0.110	-0.043	
9.600	-0.283	-0.046	
9.605	-0.197	-0.079	
9.610	-0.214	-0.122	
9.615	-0.284	-0.163	
9.620	-0.199	-0.198	
9.625	-0.148	-0.217	
9.630	-0.294	-0.223	
9.635	-0.295	-0.232	
9.640	-0.200	-0.244	
9.645	-0.307	-0.251	
9.650	-0.338	-0.261	
9.655	-0.017	-0.264	
9.660	0.208	-0.225	
9.665	0.278	-0.132	
9.670	0.284	-0.014	
9.675	-0.069	0.082	
9.680	-0.477	0.099	
9.685	-0.639	0.013	
9.690	-0.617	-0.142	
9.695	-0.663	-0.309	
9.700	-0.610	-0.451	
9.705	-0.396	-0.544	
9.710	-0.260	-0.565	
9.715	-0.245	-0.525	
9.720	-0.064	-0.446	
9.725	0.117	-0.337	
9.730	-0.046	-0.215	
9.735	0.039	-0.113	
9.740	0.276	-0.027	
9.745	0.165	0.055	
9.750	0.148	0.120	
9.755	0.504	0.174	
9.760	0.519	0.246	
9.765	0.301	0.321	
9.770	0.608	0.378	
9.775	0.861	0.446	
9.780	0.736	0.539	
9.785	0.797	0.629	
9.790	1.007	0.712	
9.795	0.883	0.791	
9.800	0.890	0.853	
9.805	1.208	0.905	
9.810	1.187	0.971	
9.815	0.947	1.033	
9.820	1.057	1.064	
9.825	1.071	1.073	
9.830	0.758	1.062	
9.835	0.681	1.012	
9.840	0.742	0.932	
9.845	0.418	0.840	
9.850	0.140	0.719	
9.855	0.281	0.572	
9.860	0.226	0.437	
9.865	-0.011	0.323	
9.870	0.151	0.224	
9.875	0.243	0.158	
9.880	0.001	0.126	
9.885	0.009	0.099	
9.890	0.235	0.079	
9.895	0.111	0.082	
9.900	-0.008	0.089	
9.905	0.168	0.088	
9.910	0.009	0.087	
9.915	-0.162	0.071	
9.920	0.107	0.041	
9.925	0.288	0.034	
9.930	0.015	0.057	
9.935	-0.017	0.071	
9.940	0.039	0.066	
9.945	-0.139	0.048	
9.950	-0.225	0.009	
9.955	-0.132	-0.045	
9.960	-0.210	-0.096	
9.965	-0.341	-0.144	
9.970	-0.211	-0.192	
9.975	-0.130	-0.222	
9.980	-0.281	-0.230	
9.985	-0.301	-0.237	
9.990	-0.231	-0.249	
9.995	-0.184	-0.252	
10.000	0.027	-0.234	
10.005	0.597	-0.160	
10.010	0.515	-0.014	
10.015	0.003	0.136	
10.020	-0.217	0.198	
10.025	-0.414	0.153	
10.030	-0.666	0.024	
10.035	-0.682	-0.156	
10.040	-0.533	-0.334	
10.045	-0.541	-0.466	
10.050	-0.503	-0.542	
10.055	-0.222	-0.561	
10.060	-0.116	-0.516	
10.065	-0.130	-0.426	
10.070	0.036	-0.318	
10.075	0.166	-0.202	
10.080	-0.048	-0.092	
10.085	0.018	-0.017	
10.090	0.279	0.035	
10.095	0.137	0.087	
10.100	0.021	0.123	
10.105	0.267	0.139	
10.110	0.256	0.158	
10.115	0.130	0.181	
10.120	0.475	0.204	
10.125	0.725	0.261	
10.130	0.548	0.355	
10.135	0.602	0.448	
10.140	0.858	0.531	
10.145	0.796	0.618	
10.150	0.687	0.691	
10.155	0.970	0.744	
10.160	0.948	0.798	
10.165	0.652	0.840	
10.170	0.678	0.840	
10.175	0.644	0.808	
10.180	0.259	0.746	
10.185	0.136	0.637	
10.190	0.137	0.497	
10.195	-0.017	0.355	
10.200	-0.058	0.221	
10.205	0.133	0.115	
10.210	0.026	0.052	
10.215	-0.170	0.012	
10.220	-0.081	-0.028	
10.225	-0.025	-0.059	
10.230	-0.144	-0.076	
10.235	-0.106	-0.090	
10.240	0.020	-0.095	
10.245	-0.141	-0.090	
10.250	-0.208	-0.093	
10.255	-0.103	-0.107	
10.260	-0.081	-0.117	
10.265	-0.176	-0.121	
10.270	-0.115	-0.126	
10.275	-0.112	-0.129	
10.280	-0.271	-0.135	
10.285	-0.306	-0.157	
10.290	-0.278	-0.192	
10.295	-0.417	-0.233	
10.300	-0.480	-0.284	
10.305	-0.405	-0.339	
10.310	-0.456	-0.384	
10.315	-0.511	-0.419	
10.320	-0.382	-0.445	
10.325	-0.329	-0.450	
10.330	-0.463	-0.438	
10.335	-0.413	-0.429	
10.340	-0.155	-0.412	
10.345	-0.016	-0.361	
10.350	0.029	-0.277	
10.355	0.056	-0.180	
10.360	-0.307	-0.107	
10.365	-0.662	-0.107	
10.370	-0.750	-0.198	
10.375	-0.790	-0.342	
10.380	-0.853	-0.496	
10.385	-0.743	-0.630	
10.390	-0.553	-0.713	
10.395	-0.512	-0.731	
10.400	-0.433	-0.698	
10.405	-0.225	-0.627	
10.410	-0.223	-0.527	
10.415	-0.339	-0.427	
10.420	-0.190	-0.350	
10.425	-0.046	-0.282	
10.430	-0.139	-0.217	
10.435	-0.013	-0.160	
10.440	0.180	-0.102	
10.445	-0.035	-0.040	
10.450	-0.150	-0.004	
10.455	0.073	0.002	
10.460	0.133	0.011	
10.465	0.003	0.029	
10.470	0.263	0.051	
10.475	0.479	0.099	
10.480	0.340	0.176	
10.485	0.487	0.258	
10.490	0.797	0.348	
10.495	0.725	0.457	
10.500	0.582	0.557	
10.505	0.690	0.623	
10.510	0.487	0.653	
10.515	0.137	0.630	
10.520	0.143	0.545	
10.525	0.151	0.429	
10.530	-0.129	0.307	
10.535	-0.158	0.178	
10.540	-0.069	0.059	
10.545	-0.220	-0.035	
10.550	-0.300	-0.112	
10.555	-0.199	-0.176	
10.560	-0.208	-0.217	
10.565	-0.283	-0.238	
10.570	-0.216	-0.251	
10.575	-0.200	-0.253	
10.580	-0.284	-0.249	
10.585	-0.203	-0.246	
10.590	-0.049	-0.233	
10.595	-0.118	-0.203	
10.600	-0.197	-0.173	
10.605	-0.084	-0.154	
10.610	-0.142	-0.140	
10.615	-0.284	-0.137	
10.620	-0.217	-0.153	
10.625	-0.152	-0.173	
10.630	-0.312	-0.189	
10.635	-0.307	-0.212	
10.640	-0.194	-0.236	
10.645	-0.268	-0.249	
10.650	-0.286	-0.256	
10.655	-0.162	-0.258	
10.660	-0.210	-0.250	
10.665	-0.306	-0.240	
10.670	-0.207	-0.239	
10.675	-0.159	-0.234	
10.680	-0.216	-0.223	
10.685	-0.034	-0.205	
10.690	0.544	-0.147	
10.695	0.534	-0.017	
10.700	0.229	0.134	
10.705	-0.043	0.228	
10.710	-0.330	0.223	
10.715	-0.570	0.121	
10.720	-0.521	-0.044	
10.725	-0.411	-0.210	
10.730	-0.413	-0.334	
10.735	-0.275	-0.403	
10.740	-0.106	-0.412	
10.745	-0.119	-0.368	
10.750	-0.029	-0.296	
10.755	0.333	-0.199	
10.760	0.411	-0.066	
10.765	0.281	0.078	
10.770	0.518	0.203	
10.775	0.735	0.321	
10.780	0.617	0.441	
10.785	0.730	0.542	
10.790	0.907	0.630	
10.795	0.689	0.706	
10.800	0.536	0.743	
10.805	0.831	0.744	
10.810	0.867	0.748	
10.815	0.770	0.766	
10.820	1.008	0.791	
10.825	1.188	0.841	
10.830	0.988	0.912	
10.835	1.055	0.973	
10.840	1.277	1.026	
10.845	1.112	1.080	
10.850	0.942	1.112	
10.855	1.023	1.108	
10.860	0.750	1.075	
10.865	0.447	0.997	
10.870	0.673	0.881	
10.875	0.680	0.776	
10.880	0.340	0.691	
10.885	0.299	0.598	
10.890	0.385	0.503	
10.895	0.128	0.418	
10.900	0.044	0.331	
10.905	0.334	0.253	
10.910	0.295	0.214	
10.915	0.088	0.202	
10.920	0.261	0.193	
10.925	0.318	0.195	
10.930	0.033	0.203	
10.935	0.111	0.193	
10.940	0.350	0.180	
10.945	0.185	0.186	
10.950	0.049	0.190	
10.955	0.264	0.182	
10.960	0.073	0.175	
10.965	-0.127	0.152	
10.970	-0.022	0.103	
10.975	-0.014	0.052	
10.980	-0.229	0.004	
10.985	-0.197	-0.051	
10.990	-0.093	-0.102	
10.995	-0.228	-0.136	
11.000	-0.255	-0.165	
11.005	-0.063	-0.186	
11.010	-0.103	-0.184	
11.015	-0.249	-0.173	
11.020	-0.168	-0.171	
11.025	-0.083	-0.170	
11.030	-0.057	-0.156	
11.035	0.272	-0.116	
11.040	0.461	-0.032	
11.045	-0.072	0.067	
11.050	-0.338	0.103	
11.055	-0.399	0.048	
11.060	-0.601	-0.068	
11.065	-0.711	-0.219	
11.070	-0.504	-0.369	
11.075	-0.353	-0.471	
11.080	-0.375	-0.507	
11.085	-0.277	-0.495	
11.090	-0.116	-0.446	
11.095	-0.173	-0.371	
11.100	-0.187	-0.295	
11.105	0.006	-0.229	
11.110	0.085	-0.158	
11.115	0.067	-0.083	
11.120	0.398	-0.002	
11.125	0.573	0.104	
11.130	0.288	0.222	
11.135	0.340	0.308	
11.140	0.669	0.368	
11.145	0.603	0.436	
11.150	0.611	0.503	
11.155	0.898	0.569	
11.160	0.796	0.644	
11.165	0.576	0.704	
11.170	0.756	0.728	
11.175	0.987	0.747	
11.180	0.800	0.782	
11.185	0.848	0.813	
11.190	0.981	0.839	
11.195	0.690	0.858	
11.200	0.567	0.844	
11.205	0.698	0.798	
11.210	0.476	0.740	
11.215	0.133	0.658	
11.220	0.189	0.539	
11.225	0.181	0.413	
11.230	-0.055	0.298	
11.235	-0.086	0.185	
11.240	0.020	0.086	
11.245	-0.057	0.017	
11.250	-0.103	-0.029	
11.255	0.128	-0.053	
11.260	0.099	-0.043	
11.265	-0.075	-0.019	
11.270	0.004	-0.005	
11.275	-0.019	-0.002	
11.280	-0.141	-0.008	
11.285	-0.049	-0.025	
11.290	0.099	-0.036	
11.295	-0.109	-0.032	
11.300	-0.185	-0.039	
11.305	-0.028	-0.058	
11.310	-0.106	-0.073	
11.315	-0.239	-0.089	
11.320	-0.181	-0.115	
11.325	-0.223	-0.145	
11.330	-0.327	-0.177	
11.335	-0.271	-0.213	
11.340	-0.177	-0.240	
11.345	-0.326	-0.252	
11.350	-0.364	-0.267	
11.355	-0.213	-0.284	
11.360	-0.271	-0.288	
11.365	-0.327	-0.287	
11.370	-0.081	-0.280	
11.375	0.250	-0.236	
11.380	0.117	-0.146	
11.385	-0.049	-0.055	
11.390	-0.240	-0.010	
11.395	-0.543	-0.035	
11.400	-0.685	-0.134	
11.405	-0.617	-0.275	
11.410	-0.665	-0.412	
11.415	-0.640	-0.523	
11.420	-0.457	-0.592	
11.425	-0.355	-0.605	
11.430	-0.401	-0.572	
11.435	-0.260	-0.515	
11.440	-0.101	-0.440	
11.445	-0.193	-0.351	
11.450	-0.182	-0.274	
11.455	0.012	-0.211	
11.460	-0.028	-0.149	
11.465	-0.124	-0.099	
11.470	0.117	-0.063	
11.475	0.203	-0.020	
11.480	-0.037	0.028	
11.485	0.094	0.056	
11.490	0.348	0.083	
11.495	0.236	0.128	
11.500	0.247	0.176	
11.505	0.544	0.226	
11.510	0.444	0.291	
11.515	0.287	0.348	
11.520	0.536	0.384	
11.525	0.586	0.420	
11.530	0.418	0.459	
11.535	0.510	0.482	
11.540	0.669	0.502	
11.545	0.377	0.522	
11.550	0.116	0.506	
11.555	0.198	0.442	
11.560	-0.014	0.352	
11.565	-0.193	0.242	
11.570	-0.136	0.118	
11.575	-0.142	0.008	
11.580	-0.324	-0.083	
11.585	-0.333	-0.164	
11.590	-0.225	-0.229	
11.595	-0.307	-0.270	
11.600	-0.280	-0.291	
11.605	-0.132	-0.294	
11.610	-0.231	-0.277	
11.615	-0.370	-0.262	
11.620	-0.213	-0.261	
11.625	-0.150	-0.256	
11.630	-0.278	-0.243	
11.635	-0.243	-0.235	
11.640	-0.188	-0.232	
11.645	-0.344	-0.232	
11.650	-0.379	-0.247	
11.655	-0.240	-0.271	
11.660	-0.323	-0.287	
11.665	-0.449	-0.304	
11.670	-0.394	-0.330	
11.675	-0.361	-0.356	
11.680	-0.469	-0.376	
11.685	-0.436	-0.397	
11.690	-0.300	-0.409	
11.695	-0.405	-0.406	
11.700	-0.511	-0.405	
11.705	-0.408	-0.414	
11.710	-0.384	-0.421	
11.715	-0.391	-0.419	
11.720	-0.168	-0.402	
11.725	-0.121	-0.359	
11.730	-0.413	-0.309	
11.735	-0.643	-0.301	
11.740	-0.782	-0.356	
11.745	-0.981	-0.465	
11.750	-0.993	-0.605	
11.755	-0.860	-0.739	
11.760	-0.811	-0.831	
11.765	-0.821	-0.875	
11.770	-0.662	-0.879	
11.775	-0.504	-0.841	
11.780	-0.508	-0.768	
11.785	-0.437	-0.680	
11.790	-0.303	-0.589	
11.795	-0.326	-0.499	
11.800	-0.295	-0.420	
11.805	-0.113	-0.351	
11.810	-0.119	-0.282	
11.815	-0.155	-0.220	
11.820	0.067	-0.165	
11.825	0.146	-0.102	
11.830	0.070	-0.032	
11.835	0.339	0.037	
11.840	0.637	0.128	
11.845	0.527	0.248	
11.850	0.531	0.363	
11.855	0.855	0.466	
11.860	0.779	0.570	
11.865	0.765	0.662	
11.870	1.042	0.740	
11.875	1.075	0.823	
11.880	0.748	0.894	
11.885	0.727	0.916	
11.890	0.846	0.898	
11.895	0.508	0.859	
11.900	0.246	0.778	
11.905	0.368	0.658	
11.910	0.152	0.530	
11.915	-0.110	0.395	
11.920	-0.042	0.251	
11.925	-0.008	0.124	
11.930	-0.197	0.027	
11.935	-0.159	-0.051	
11.940	-0.072	-0.108	
11.945	-0.200	-0.139	
11.950	-0.220	-0.160	
11.955	-0.071	-0.174	
11.960	-0.121	-0.171	
11.965	-0.167	-0.160	
11.970	0.035	-0.145	
11.975	0.091	-0.111	
11.980	-0.126	-0.069	
11.985	-0.153	-0.050	
11.990	-0.090	-0.056	
11.995	-0.222	-0.074	
12.000	-0.303	-0.108	
12.005	-0.200	-0.152	
12.010	-0.159	-0.185	
12.015	-0.223	-0.202	
12.020	-0.124	-0.206	
12.025	-0.045	-0.194	
12.030	-0.171	-0.170	
12.035	-0.176	-0.153	
12.040	-0.148	-0.147	
12.045	-0.281	-0.152	
12.050	-0.286	-0.172	
12.055	-0.022	-0.191	
12.060	0.119	-0.175	
12.065	0.327	-0.109	
12.070	0.649	0.009	
12.075	0.279	0.153	
12.080	-0.341	0.236	
12.085	-0.509	0.191	
12.090	-0.517	0.047	
12.095	-0.616	-0.132	
12.100	-0.543	-0.301	
12.105	-0.313	-0.422	
12.110	-0.254	-0.469	
12.115	-0.277	-0.456	
12.120	-0.071	-0.406	
12.125	0.204	-0.317	
12.130	0.056	-0.196	
12.135	0.229	-0.075	
12.140	0.408	0.041	
12.145	0.180	0.146	
12.150	0.119	0.212	
12.155	0.499	0.248	
12.160	0.515	0.295	
12.165	0.372	0.351	
12.170	0.596	0.400	
12.175	0.696	0.454	
12.180	0.531	0.513	
12.185	0.754	0.564	
12.190	1.040	0.626	
12.195	0.889	0.714	
12.200	0.869	0.795	
12.205	1.115	0.861	
12.210	1.025	0.925	
12.215	0.854	0.971	
12.220	1.011	0.987	
12.225	1.058	0.994	
12.230	0.686	0.990	
12.235	0.670	0.949	
12.240	0.683	0.878	
12.245	0.316	0.790	
12.250	0.113	0.667	
12.255	0.212	0.518	
12.260	0.000	0.374	
12.265	-0.174	0.236	
12.270	-0.095	0.104	
12.275	-0.130	-0.003	
12.280	-0.294	-0.085	
12.285	-0.179	-0.151	
12.290	-0.026	-0.187	
12.295	-0.138	-0.187	
12.300	-0.116	-0.172	
12.305	0.143	-0.143	
12.310	0.029	-0.094	
12.315	-0.164	-0.050	
12.320	0.589	-0.006	
12.325	2.224	0.166	
12.330	2.699	0.577	
12.335	2.873	1.157	
12.340	2.928	1.753	
12.345	2.487	2.241	
12.350	2.116	2.529	
12.355	2.087	2.610	
12.360	2.119	2.556	
12.365	2.663	2.473	
12.370	3.043	2.459	
12.375	3.044	2.543	
12.380	2.603	2.656	
12.385	2.459	2.716	
12.390	2.447	2.704	
12.395	2.233	2.641	
12.400	2.330	2.550	
12.405	2.809	2.482	
12.410	3.041	2.497	
12.415	3.041	2.595	
12.420	3.044	2.725	
12.425	2.464	2.821	
12.430	1.780	2.798	
12.435	1.502	2.617	
12.440	1.508	2.336	
12.445	1.459	2.042	
12.450	1.598	1.798	
12.455	1.835	1.646	
12.460	1.691	1.588	
12.465	1.500	1.577	
12.470	1.529	1.567	
12.475	1.369	1.547	
12.480	0.939	1.491	
12.485	0.840	1.377	
12.490	0.626	1.217	
12.495	-0.115	1.005	
12.500	-0.521	0.709	
12.505	-0.767	0.344	
12.510	-0.995	-0.040	
12.515	-0.995	-0.394	
12.520	-0.995	-0.679	
12.525	-0.995	-0.878	
12.530	-0.995	-0.997	
12.535	-0.993	-1.055	
12.540	-0.940	-1.070	
12.545	-0.972	-1.057	
12.550	-0.995	-1.035	
12.555	-0.995	-1.015	
12.560	-0.995	-1.002	
12.565	-0.995	-0.994	
12.570	-0.996	-0.990	
12.575	-0.995	-0.990	
12.580	-0.996	-0.990	
12.585	-0.995	-0.992	
12.590	-0.995	-0.993	
12.595	-0.995	-0.994	
12.600	-0.995	-0.995	
12.605	-0.995	-0.995	
12.610	-0.995	-0.995	
12.615	-0.995	-0.995	
12.620	-0.995	-0.995	
12.625	-0.995	-0.995	
12.630	-0.995	-0.995	
12.635	-0.995	-0.995	
12.640	-0.995	-0.995	
12.645	-0.995	-0.995	
12.650	-0.995	-0.995	
12.655	-0.996	-0.995	
12.660	-0.993	-0.995	
12.665	-0.995	-0.995	
12.670	-0.943	-0.992	
12.675	-0.902	-0.983	
12.680	-0.980	-0.968	
12.685	-0.908	-0.956	
12.690	-0.815	-0.941	
12.695	-0.893	-0.917	
12.700	-0.905	-0.898	
12.705	-0.798	-0.885	
12.710	-0.784	-0.866	
12.715	-0.824	-0.844	
12.720	-0.691	-0.822	
12.725	-0.630	-0.790	
12.730	-0.700	-0.751	
12.735	-0.657	-0.717	
12.740	-0.564	-0.687	
12.745	-0.587	-0.655	
12.750	-0.442	-0.619	
12.755	-0.121	-0.560	
12.760	-0.106	-0.465	
12.765	-0.326	-0.362	
12.770	-0.465	-0.301	
12.775	-0.662	-0.304	
12.780	-0.883	-0.373	
12.785	-0.827	-0.488	
12.790	-0.700	-0.604	
12.795	-0.688	-0.684	
12.800	-0.596	-0.720	
12.805	-0.359	-0.709	
12.810	-0.246	-0.644	
12.815	-0.251	-0.544	
12.820	-0.058	-0.432	
12.825	0.081	-0.310	
12.830	-0.057	-0.191	
12.835	0.088	-0.095	
12.840	0.282	-0.011	
12.845	0.116	0.067	
12.850	0.152	0.124	
12.855	0.426	0.168	
12.860	0.339	0.221	
12.865	0.197	0.266	
12.870	0.499	0.296	
12.875	0.635	0.341	
12.880	0.498	0.404	
12.885	0.678	0.467	
12.890	0.950	0.542	
12.895	0.819	0.635	
12.900	0.799	0.720	
12.905	1.066	0.789	
12.910	0.933	0.856	
12.915	0.776	0.902	
12.920	0.817	0.911	
12.925	0.637	0.887	
12.930	0.240	0.820	
12.935	0.180	0.695	
12.940	0.160	0.540	
12.945	-0.138	0.381	
12.950	-0.199	0.218	
12.955	-0.121	0.068	
12.960	-0.197	-0.049	
12.965	-0.297	-0.134	
12.970	-0.170	-0.196	
12.975	-0.167	-0.227	
12.980	-0.284	-0.237	
12.985	-0.237	-0.243	
12.990	-0.170	-0.244	
12.995	-0.283	-0.239	
13.000	-0.289	-0.240	
13.005	-0.208	-0.245	
13.010	-0.265	-0.247	
13.015	-0.329	-0.252	
13.020	-0.171	-0.258	
13.025	-0.147	-0.251	
13.030	-0.303	-0.237	
13.035	-0.266	-0.233	
13.040	-0.193	-0.236	
13.045	-0.344	-0.239	
13.050	-0.393	-0.256	
13.055	-0.287	-0.282	
13.060	-0.330	-0.303	
13.065	-0.365	-0.318	
13.070	-0.239	-0.326	
13.075	-0.266	-0.322	
13.080	-0.313	-0.310	
13.085	-0.297	-0.302	
13.090	-0.254	-0.296	
13.095	-0.275	-0.288	
13.100	-0.145	-0.275	
13.105	0.053	-0.241	
13.110	-0.184	-0.191	
13.115	-0.468	-0.167	
13.120	-0.562	-0.202	
13.125	-0.698	-0.287	
13.130	-0.847	-0.406	
13.135	-0.734	-0.533	
13.140	-0.573	-0.631	
13.145	-0.537	-0.674	
13.150	-0.413	-0.666	
13.155	-0.236	-0.613	
13.160	-0.174	-0.522	
13.165	-0.152	-0.415	
13.170	0.159	-0.301	
13.175	0.178	-0.173	
13.180	-0.115	-0.060	
13.185	0.023	0.006	
13.190	0.232	0.044	
13.195	0.076	0.081	
13.200	0.154	0.109	
13.205	0.441	0.141	
13.210	0.377	0.196	
13.215	0.327	0.257	
13.220	0.611	0.315	
13.225	0.728	0.391	
13.230	0.606	0.479	
13.235	0.780	0.560	
13.240	0.985	0.642	
13.245	0.860	0.730	
13.250	0.869	0.804	
13.255	1.092	0.862	
13.260	0.909	0.914	
13.265	0.719	0.939	
13.270	0.852	0.925	
13.275	0.727	0.893	
13.280	0.427	0.839	
13.285	0.515	0.754	
13.290	0.626	0.669	
13.295	0.356	0.602	
13.300	0.293	0.533	
13.305	0.339	0.460	
13.310	0.127	0.390	
13.315	0.003	0.311	
13.320	0.282	0.234	
13.325	0.307	0.193	
13.330	0.134	0.185	
13.335	0.282	0.186	
13.340	0.450	0.206	
13.345	0.261	0.244	
13.350	0.188	0.271	
13.355	0.443	0.284	
13.360	0.391	0.306	
13.365	0.267	0.329	
13.370	0.409	0.341	
13.375	0.420	0.354	
13.380	0.206	0.362	
13.385	0.295	0.351	
13.390	0.386	0.335	
13.395	0.159	0.322	
13.400	0.180	0.297	
13.405	0.405	0.273	
13.410	0.311	0.270	
13.415	0.244	0.278	
13.420	0.429	0.287	
13.425	0.490	0.312	
13.430	0.305	0.346	
13.435	0.530	0.374	
13.440	0.866	0.422	
13.445	0.984	0.517	
13.450	1.254	0.657	
13.455	1.416	0.831	
13.460	0.945	0.995	
13.465	0.331	1.060	
13.470	0.128	0.977	
13.475	0.001	0.783	
13.480	-0.112	0.543	
13.485	0.099	0.320	
13.490	0.453	0.176	
13.495	0.470	0.141	
13.500	0.657	0.192	
13.505	0.962	0.308	
13.510	0.947	0.472	
13.515	0.820	0.634	
13.520	1.046	0.765	
13.525	1.045	0.871	
13.530	0.828	0.945	
13.535	0.965	0.976	
13.540	1.156	0.992	
13.545	0.919	1.010	
13.550	0.938	1.014	
13.555	1.162	1.012	
13.560	1.016	1.021	
13.565	0.938	1.028	
13.570	1.246	1.032	
13.575	1.253	1.060	
13.580	1.036	1.099	
13.585	1.199	1.124	
13.590	1.382	1.151	
13.595	1.149	1.188	
13.600	1.103	1.207	
13.605	1.268	1.207	
13.610	1.040	1.200	
13.615	0.788	1.166	
13.620	0.863	1.095	
13.625	0.741	1.008	
13.630	0.400	0.906	
13.635	0.374	0.777	
13.640	0.368	0.640	
13.645	0.058	0.508	
13.650	0.033	0.374	
13.655	0.241	0.255	
13.660	0.024	0.175	
13.665	-0.086	0.113	
13.670	0.142	0.061	
13.675	0.181	0.042	
13.680	-0.074	0.044	
13.685	-0.084	0.035	
13.690	-0.054	0.011	
13.695	-0.193	-0.021	
13.700	-0.170	-0.061	
13.705	0.007	-0.094	
13.710	-0.126	-0.105	
13.715	-0.210	-0.113	
13.720	-0.084	-0.124	
13.725	-0.122	-0.130	
13.730	-0.260	-0.136	
13.735	-0.208	-0.153	
13.740	-0.181	-0.173	
13.745	-0.330	-0.192	
13.750	-0.303	-0.219	
13.755	-0.194	-0.244	
13.760	-0.251	-0.255	
13.765	-0.320	-0.260	
13.770	-0.237	-0.266	
13.775	-0.243	-0.268	
13.780	-0.303	-0.267	
13.785	-0.150	-0.263	
13.790	0.137	-0.234	
13.795	0.133	-0.165	
13.800	0.039	-0.080	
13.805	-0.083	-0.018	
13.810	-0.385	-0.007	
13.815	-0.663	-0.071	
13.820	-0.654	-0.198	
13.825	-0.643	-0.345	
13.830	-0.656	-0.473	
13.835	-0.492	-0.562	
13.840	-0.333	-0.593	
13.845	-0.341	-0.568	
13.850	-0.234	-0.508	
13.855	-0.084	-0.427	
13.860	-0.124	-0.332	
13.865	-0.156	-0.247	
13.870	0.009	-0.179	
13.875	-0.042	-0.121	
13.880	-0.124	-0.079	
13.885	-0.011	-0.058	
13.890	0.195	-0.034	
13.895	0.097	0.005	
13.900	0.142	0.049	
13.905	0.365	0.095	
13.910	0.217	0.151	
13.915	0.250	0.199	
13.920	0.599	0.246	
13.925	0.625	0.320	
13.930	0.539	0.407	
13.935	0.709	0.486	
13.940	0.860	0.565	
13.945	0.683	0.643	
13.950	0.655	0.696	
13.955	0.797	0.722	
13.960	0.556	0.731	
13.965	0.345	0.705	
13.970	0.402	0.638	
13.975	0.212	0.550	
13.980	2.294	0.549	
13.985	3.017	0.808	
13.990	2.991	1.308	
13.995	2.991	1.866	
14.000	2.989	2.348	
14.005	2.989	2.703	
14.010	2.993	2.931	
14.015	2.991	3.054	
14.020	2.991	3.103	
14.025	2.993	3.107	
14.030	2.999	3.087	
14.035	3.003	3.062	
14.040	3.003	3.038	
14.045	3.011	3.020	
14.050	3.016	3.010	
14.055	3.014	3.005	
14.060	3.012	3.005	
14.065	3.016	3.006	
14.070	3.019	3.008	
14.075	3.026	3.012	
14.080	3.032	3.016	
14.085	3.035	3.021	
14.090	3.038	3.026	
14.095	2.880	3.023	
14.100	2.507	2.986	
14.105	2.322	2.887	
14.110	1.876	2.723	
14.115	1.576	2.492	
14.120	1.556	2.223	
14.125	1.275	1.955	
14.130	0.967	1.697	
14.135	1.078	1.455	
14.140	1.281	1.270	
14.145	1.069	1.162	
14.150	0.632	1.082	
14.155	0.020	0.951	
14.160	-0.399	0.724	
14.165	-0.621	0.414	
14.170	-0.666	0.079	
14.175	-0.706	-0.223	
14.180	-0.781	-0.463	
14.185	-0.784	-0.636	
14.190	-0.807	-0.749	
14.195	-0.899	-0.819	
14.200	-0.854	-0.861	
14.205	-0.749	-0.878	
14.210	-0.798	-0.870	
14.215	-0.816	-0.851	
14.220	-0.714	-0.830	
14.225	-0.694	-0.802	
14.230	-0.735	-0.771	
14.235	-0.700	-0.745	
14.240	-0.650	-0.724	
14.245	-0.686	-0.704	
14.250	-0.663	-0.688	
14.255	-0.567	-0.672	
14.260	-0.555	-0.649	
14.265	-0.578	-0.622	
14.270	-0.533	-0.597	
14.275	-0.540	-0.576	
14.280	-0.559	-0.559	
14.285	-0.474	-0.546	
14.290	-0.468	-0.530	
14.295	-0.544	-0.514	
14.300	-0.556	-0.509	
14.305	-0.556	-0.515	
14.310	-0.669	-0.531	
14.315	-0.795	-0.564	
14.320	-0.822	-0.619	
14.325	-0.873	-0.684	
14.330	-0.977	-0.754	
14.335	-0.981	-0.824	
14.340	-0.989	-0.888	
14.345	-0.995	-0.938	
14.350	-0.995	-0.973	
14.355	-0.995	-0.994	
14.360	-0.993	-1.004	
14.365	-0.993	-1.008	
14.370	-0.949	-1.004	
14.375	-0.955	-0.995	
14.380	-0.995	-0.985	
14.385	-0.993	-0.979	
14.390	-0.918	-0.976	
14.395	-0.926	-0.968	
14.400	-0.920	-0.955	
14.405	-0.847	-0.939	
14.410	-0.893	-0.920	
14.415	-0.954	-0.906	
14.420	-0.889	-0.902	
14.425	-0.908	-0.902	
14.430	-0.990	-0.906	
14.435	-0.980	-0.919	
14.440	-0.978	-0.937	
14.445	-0.993	-0.954	
14.450	-0.995	-0.969	
14.455	-0.912	-0.978	
14.460	-0.900	-0.973	
14.465	-0.946	-0.960	
14.470	-0.928	-0.948	
14.475	-0.911	-0.938	
14.480	-0.807	-0.925	
14.485	-0.562	-0.890	
14.490	-0.399	-0.816	
14.495	-0.509	-0.715	
14.500	-0.694	-0.631	
14.505	-0.870	-0.601	
14.510	-0.995	-0.633	
14.515	-0.995	-0.710	
14.520	-0.995	-0.801	
14.525	-0.967	-0.880	
14.530	-0.882	-0.932	
14.535	-0.706	-0.944	
14.540	-0.552	-0.907	
14.545	-0.549	-0.831	
14.550	-0.495	-0.739	
14.555	-0.399	-0.646	
14.560	-0.361	-0.558	
14.565	-0.358	-0.480	
14.570	-0.295	-0.416	
14.575	-0.320	-0.366	
14.580	-0.410	-0.336	
14.585	-0.393	-0.330	
14.590	-0.294	-0.335	
14.595	-0.272	-0.333	
14.600	-0.200	-0.319	
14.605	-0.037	-0.286	
14.610	-0.055	-0.232	
14.615	-0.072	-0.173	
14.620	0.359	-0.104	
14.625	0.519	0.002	
14.630	0.391	0.137	
14.635	0.426	0.257	
14.640	0.496	0.349	
14.645	0.263	0.408	
14.650	0.165	0.416	
14.655	0.120	0.376	
14.660	-0.104	0.301	
14.665	-0.220	0.194	
14.670	-0.196	0.072	
14.675	-0.353	-0.046	
14.680	-0.599	-0.165	
14.685	-0.735	-0.298	
14.690	-0.865	-0.444	
14.695	-0.995	-0.594	
14.700	-0.993	-0.735	
14.705	-0.995	-0.852	
14.710	-0.995	-0.936	
14.715	-0.996	-0.988	
14.720	-0.996	-1.015	
14.725	-0.996	-1.025	
14.730	-0.996	-1.025	
14.735	-0.996	-1.019	
14.740	-0.996	-1.012	
14.745	-0.996	-1.006	
14.750	-0.996	-1.001	
14.755	-0.996	-0.998	
14.760	-0.996	-0.996	
14.765	-0.996	-0.995	
14.770	-0.996	-0.995	
14.775	-0.996	-0.995	
14.780	-0.996	-0.995	
14.785	-0.996	-0.996	
14.790	-0.996	-0.996	
14.795	-0.996	-0.996	
14.800	-0.996	-0.996	
14.805	-0.996	-0.996	
14.810	-0.996	-0.996	
14.815	-0.996	-0.996	
14.820	-0.996	-0.996	
14.825	-0.996	-0.996	
14.830	-0.996	-0.996	
14.835	-0.996	-0.996	
14.840	-0.996	-0.996	
14.845	-0.996	-0.996	
14.850	-0.996	-0.996	
14.855	-0.996	-0.996	
14.860	-0.996	-0.996	
14.865	-0.996	-0.996	
14.870	-0.996	-0.996	
14.875	-0.995	-0.996	
14.880	-0.996	-0.996	
14.885	-0.996	-0.996	
14.890	-0.995	-0.996	
14.895	-0.995	-0.996	
14.900	-0.944	-0.993	
14.905	-0.786	-0.978	
14.910	-0.747	-0.940	
14.915	-0.605	-0.882	
14.920	-0.405	-0.799	
14.925	-0.375	-0.694	
14.930	-0.405	-0.586	
14.935	-0.225	-0.489	
14.940	-0.011	-0.392	
14.945	-0.155	-0.290	
14.950	0.024	-0.200	
14.955	0.580	-0.097	
14.960	0.586	0.053	
14.965	0.571	0.225	
14.970	0.945	0.391	
14.975	1.147	0.567	
14.980	1.123	0.750	
14.985	1.330	0.920	
14.990	1.390	1.072	
14.995	1.156	1.192	
15.000	1.291	1.262	
15.005	1.433	1.301	
15.010	1.141	1.325	
15.015	0.890	1.305	
15.020	1.052	1.237	
15.025	0.958	1.158	
15.030	0.745	1.077	
15.035	0.858	0.991	
15.040	0.907	0.921	
15.045	0.698	0.872	
15.050	0.819	0.831	
15.055	1.025	0.813	
15.060	0.832	0.824	
15.065	0.858	0.842	
15.070	1.179	0.867	
15.075	1.130	0.920	
15.080	0.883	0.975	
15.085	1.100	1.007	
15.090	1.251	1.037	
15.095	1.043	1.074	
15.100	1.152	1.102	
15.105	1.369	1.129	
15.110	1.185	1.169	
15.115	0.997	1.191	
15.120	1.191	1.184	
15.125	1.138	1.170	
15.130	0.835	1.146	
15.135	0.884	1.093	
15.140	1.100	1.036	
15.145	0.897	1.001	
15.150	0.890	0.973	
15.155	1.120	0.955	
15.160	0.965	0.959	
15.165	0.922	0.967	
15.170	1.110	0.974	
15.175	1.127	0.994	
15.180	1.314	1.037	
15.185	1.899	1.127	
15.190	1.940	1.289	
15.195	1.324	1.458	
15.200	0.832	1.523	
15.205	0.599	1.439	
15.210	0.229	1.236	
15.215	0.042	0.959	
15.220	0.434	0.680	
15.225	0.647	0.490	
15.230	0.658	0.416	
15.235	0.953	0.437	
15.240	1.201	0.541	
15.245	1.161	0.700	
15.250	1.318	0.873	
15.255	1.619	1.046	
15.260	1.407	1.214	
15.265	1.295	1.336	
15.270	1.485	1.403	
15.275	1.404	1.438	
15.280	1.376	1.452	
15.285	1.549	1.454	
15.290	1.616	1.467	
15.295	1.443	1.490	
15.300	1.627	1.510	
15.305	1.926	1.546	
15.310	1.835	1.616	
15.315	1.772	1.692	
15.320	2.027	1.759	
15.325	1.996	1.828	
15.330	1.851	1.888	
15.335	1.943	1.921	
15.340	1.948	1.938	
15.345	1.686	1.936	
15.350	1.596	1.896	
15.355	1.688	1.830	
15.360	1.436	1.755	
15.365	1.197	1.660	
15.370	1.242	1.541	
15.375	1.101	1.419	
15.380	0.870	1.296	
15.385	0.893	1.169	
15.390	0.935	1.056	
15.395	0.750	0.968	
15.400	0.744	0.893	
15.405	0.938	0.837	
15.410	0.768	0.812	
15.415	0.693	0.796	
15.420	0.979	0.785	
15.425	0.906	0.800	
15.430	0.706	0.820	
15.435	0.728	0.820	
15.440	0.762	0.803	
15.445	0.644	0.780	
15.450	0.748	0.754	
15.455	0.878	0.742	
15.460	0.690	0.746	
15.465	0.547	0.740	
15.470	0.725	0.716	
15.475	0.629	0.693	
15.480	0.325	0.661	
15.485	0.426	0.602	
15.490	0.570	0.542	
15.495	0.392	0.503	
15.500	0.412	0.472	
15.505	0.568	0.453	
15.510	0.383	0.448	
15.515	0.319	0.440	
15.520	0.646	0.431	
15.525	0.764	0.457	
15.530	0.834	0.524	
15.535	1.068	0.622	
15.540	0.952	0.736	
15.545	0.345	0.809	
15.550	-0.022	0.771	
15.555	-0.037	0.622	
15.560	-0.197	0.420	
15.565	-0.217	0.214	
15.570	-0.016	0.043	
15.575	0.140	-0.054	
15.580	0.163	-0.072	
15.585	0.452	-0.025	
15.590	0.600	0.079	
15.595	0.406	0.211	
15.600	0.499	0.325	
15.605	0.767	0.421	
15.610	0.629	0.514	
15.615	0.544	0.583	
15.620	0.849	0.628	
15.625	0.813	0.675	
15.630	0.562	0.713	
15.635	0.776	0.726	
15.640	0.933	0.739	
15.645	0.790	0.767	
15.650	0.877	0.796	
15.655	1.065	0.829	
15.660	0.987	0.877	
15.665	0.979	0.924	
15.670	1.327	0.974	
15.675	1.417	1.051	
15.680	1.274	1.146	
15.685	1.337	1.226	
15.690	1.304	1.281	
15.695	0.988	1.300	
15.700	0.994	1.266	
15.705	1.106	1.204	
15.710	0.783	1.136	
15.715	0.554	1.041	
15.720	0.709	0.923	
15.725	0.512	0.809	
15.730	0.243	0.694	
15.735	0.327	0.571	
15.740	0.314	0.461	
15.745	0.156	0.373	
15.750	0.203	0.299	
15.755	0.379	0.251	
15.760	0.166	0.233	
15.765	-0.002	0.214	
15.770	0.229	0.183	
15.775	0.241	0.166	
15.780	0.139	0.167	
15.785	0.345	0.176	
15.790	0.379	0.204	
15.795	0.072	0.234	
15.800	0.101	0.234	
15.805	0.259	0.216	
15.810	0.047	0.198	
15.815	-0.048	0.166	
15.820	0.056	0.121	
15.825	-0.068	0.076	
15.830	-0.226	0.026	
15.835	-0.145	-0.034	
15.840	-0.063	-0.084	
15.845	-0.167	-0.114	
15.850	-0.196	-0.134	
15.855	-0.119	-0.151	
15.860	-0.210	-0.161	
15.865	-0.210	-0.171	
15.870	-0.017	-0.174	
15.875	0.212	-0.145	
15.880	0.264	-0.073	
15.885	0.440	0.030	
15.890	0.221	0.139	
15.895	-0.251	0.195	
15.900	-0.431	0.154	
15.905	-0.472	0.033	
15.910	-0.549	-0.122	
15.915	-0.478	-0.270	
15.920	-0.265	-0.375	
15.925	-0.248	-0.415	
15.930	-0.297	-0.407	
15.935	-0.132	-0.373	
15.940	-0.009	-0.313	
15.945	-0.112	-0.239	
15.950	-0.086	-0.172	
15.955	0.047	-0.119	
15.960	-0.045	-0.072	
15.965	-0.071	-0.041	
15.970	0.096	-0.023	
15.975	0.078	-0.000	
15.980	-0.023	0.022	
15.985	0.145	0.036	
15.990	0.288	0.063	
15.995	0.134	0.103	
16.000	0.189	0.139	
16.005	0.486	0.177	
16.010	0.400	0.235	
16.015	0.357	0.296	
16.020	0.544	0.348	
16.025	0.501	0.399	
16.030	0.386	0.439	
16.035	0.513	0.461	
16.040	0.495	0.474	
16.045	0.195	0.472	
16.050	0.218	0.434	
16.055	0.243	0.376	
16.060	-0.054	0.308	
16.065	-0.139	0.218	
16.070	-0.060	0.115	
16.075	-0.153	0.024	
16.080	-0.254	-0.054	
16.085	-0.164	-0.120	
16.090	-0.158	-0.165	
16.095	-0.257	-0.190	
16.100	-0.177	-0.207	
16.105	-0.112	-0.210	
16.110	-0.240	-0.203	
16.115	-0.213	-0.199	
16.120	-0.081	-0.195	
16.125	-0.121	-0.179	
16.130	-0.210	-0.164	
16.135	-0.118	-0.156	
16.140	-0.075	-0.147	
16.145	-0.228	-0.139	
16.150	-0.179	-0.142	
16.155	-0.072	-0.147	
16.160	-0.217	-0.148	
16.165	-0.324	-0.159	
16.170	-0.223	-0.186	
16.175	-0.200	-0.209	
16.180	-0.275	-0.224	
16.185	-0.214	-0.234	
16.190	-0.210	-0.238	
16.195	-0.352	-0.242	
16.200	-0.294	-0.254	
16.205	-0.203	-0.266	
16.210	-0.303	-0.269	
16.215	-0.284	-0.272	
16.220	-0.055	-0.265	
16.225	0.099	-0.227	
16.230	0.073	-0.156	
16.235	0.122	-0.076	
16.240	-0.145	-0.014	
16.245	-0.483	-0.011	
16.250	-0.608	-0.087	
16.255	-0.576	-0.213	
16.260	-0.593	-0.345	
16.265	-0.500	-0.450	
16.270	-0.324	-0.507	
16.275	-0.317	-0.509	
16.280	-0.338	-0.476	
16.285	-0.174	-0.426	
16.290	-0.129	-0.360	
16.295	-0.182	-0.290	
16.300	-0.074	-0.228	
16.305	0.107	-0.165	
16.310	-0.064	-0.101	
16.315	-0.101	-0.056	
16.320	0.211	-0.026	
16.325	0.159	0.015	
16.330	-0.025	0.056	
16.335	0.224	0.081	
16.340	0.314	0.113	
16.345	0.117	0.152	
16.350	0.230	0.179	
16.355	0.487	0.209	
16.360	0.351	0.257	
16.365	0.313	0.302	
16.370	0.516	0.337	
16.375	0.586	0.382	
16.380	0.469	0.433	
16.385	0.563	0.474	
16.390	0.475	0.503	
16.395	0.212	0.503	
16.400	0.195	0.461	
16.405	0.244	0.395	
16.410	-0.019	0.320	
16.415	-0.110	0.228	
16.420	-0.026	0.129	
16.425	-0.164	0.041	
16.430	-0.303	-0.040	
16.435	-0.177	-0.116	
16.440	-0.144	-0.169	
16.445	-0.277	-0.198	
16.450	-0.228	-0.219	
16.455	-0.113	-0.227	
16.460	-0.222	-0.221	
16.465	-0.210	-0.212	
16.470	-0.037	-0.200	
16.475	-0.092	-0.175	
16.480	-0.205	-0.149	
16.485	-0.133	-0.139	
16.490	-0.133	-0.136	
16.495	-0.237	-0.139	
16.500	-0.182	-0.151	
16.505	-0.121	-0.162	
16.510	-0.239	-0.169	
16.515	-0.252	-0.180	
16.520	-0.184	-0.195	
16.525	-0.298	-0.209	
16.530	-0.361	-0.230	
16.535	-0.210	-0.254	
16.540	-0.173	-0.263	
16.545	-0.304	-0.259	
16.550	-0.266	-0.257	
16.555	-0.203	-0.257	
16.560	-0.324	-0.255	
16.565	-0.317	-0.261	
16.570	-0.031	-0.262	
16.575	0.181	-0.223	
16.580	0.097	-0.143	
16.585	0.099	-0.055	
16.590	-0.155	0.005	
16.595	-0.491	0.001	
16.600	-0.567	-0.080	
16.605	-0.527	-0.204	
16.610	-0.576	-0.329	
16.615	-0.530	-0.431	
16.620	-0.338	-0.494	
16.625	-0.297	-0.502	
16.630	-0.284	-0.470	
16.635	-0.098	-0.412	
16.640	-0.046	-0.332	
16.645	-0.121	-0.245	
16.650	0.001	-0.171	
16.655	0.181	-0.100	
16.660	-0.034	-0.031	
16.665	-0.083	0.010	
16.670	0.215	0.029	
16.675	0.249	0.060	
16.680	0.088	0.102	
16.685	0.308	0.137	
16.690	0.365	0.179	
16.695	0.235	0.225	
16.700	0.438	0.265	
16.705	0.651	0.317	
16.710	0.537	0.389	
16.715	0.554	0.458	
16.720	0.799	0.520	
16.725	0.675	0.585	
16.730	0.524	0.632	
16.735	0.745	0.653	
16.740	0.709	0.668	
16.745	0.319	0.667	
16.750	0.250	0.617	
16.755	0.292	0.530	
16.760	-0.038	0.426	
16.765	-0.116	0.301	
16.770	0.042	0.173	
16.775	-0.071	0.074	
16.780	-0.190	-0.002	
16.785	-0.112	-0.065	
16.790	-0.141	-0.109	
16.795	-0.234	-0.140	
16.800	-0.187	-0.166	
16.805	-0.115	-0.181	
16.810	-0.216	-0.185	
16.815	-0.214	-0.187	
16.820	-0.107	-0.189	
16.825	-0.144	-0.181	
16.830	-0.220	-0.172	
16.835	-0.107	-0.168	
16.840	-0.113	-0.160	
16.845	-0.242	-0.153	
16.850	-0.190	-0.158	
16.855	-0.097	-0.164	
16.860	-0.199	-0.164	
16.865	-0.232	-0.167	
16.870	-0.161	-0.176	
16.875	-0.257	-0.185	
16.880	-0.333	-0.202	
16.885	-0.214	-0.225	
16.890	-0.197	-0.240	
16.895	-0.318	-0.245	
16.900	-0.269	-0.254	
16.905	-0.216	-0.260	
16.910	-0.310	-0.262	
16.915	-0.269	-0.266	
16.920	-0.013	-0.258	
16.925	0.198	-0.211	
16.930	0.177	-0.123	
16.935	0.183	-0.023	
16.940	-0.182	0.047	
16.945	-0.523	0.040	
16.950	-0.595	-0.055	
16.955	-0.572	-0.196	
16.960	-0.643	-0.340	
16.965	-0.549	-0.459	
16.970	-0.324	-0.528	
16.975	-0.275	-0.532	
16.980	-0.257	-0.488	
16.985	-0.089	-0.417	
16.990	0.000	-0.325	
16.995	-0.092	-0.228	
17.000	-0.026	-0.148	
17.005	0.192	-0.079	
17.010	0.015	-0.014	
17.015	0.001	0.032	
17.020	0.252	0.060	
17.025	0.295	0.100	
17.030	0.256	0.152	
17.035	0.501	0.210	
17.040	0.544	0.283	
17.045	0.398	0.358	
17.050	0.589	0.418	
17.055	0.779	0.479	
17.060	0.646	0.550	
17.065	0.654	0.608	
17.070	0.967	0.660	
17.075	0.857	0.722	
17.080	0.672	0.774	
17.085	0.790	0.795	
17.090	0.796	0.799	
17.095	0.508	0.787	
17.100	0.432	0.739	
17.105	0.389	0.661	
17.110	0.024	0.557	
17.115	-0.090	0.419	
17.120	-0.040	0.265	
17.125	-0.130	0.127	
17.130	-0.226	0.011	
17.135	-0.162	-0.083	
17.140	-0.159	-0.146	
17.145	-0.248	-0.184	
17.150	-0.211	-0.208	
17.155	-0.182	-0.221	
17.160	-0.257	-0.225	
17.165	-0.222	-0.228	
17.170	-0.100	-0.224	
17.175	-0.187	-0.209	
17.180	-0.280	-0.198	
17.185	-0.129	-0.196	
17.190	-0.054	-0.186	
17.195	-0.174	-0.166	
17.200	-0.122	-0.150	
17.205	-0.046	-0.135	
17.210	-0.197	-0.123	
17.215	-0.251	-0.125	
17.220	-0.150	-0.143	
17.225	-0.225	-0.161	
17.230	-0.309	-0.182	
17.235	-0.257	-0.209	
17.240	-0.211	-0.232	
17.245	-0.272	-0.244	
17.250	-0.217	-0.250	
17.255	-0.155	-0.246	
17.260	-0.268	-0.236	
17.265	-0.219	-0.229	
17.270	0.088	-0.212	
17.275	0.288	-0.153	
17.280	0.334	-0.050	
17.285	0.295	0.068	
17.290	-0.153	0.149	
17.295	-0.530	0.136	
17.300	-0.647	0.019	
17.305	-0.605	-0.154	
17.310	-0.650	-0.327	
17.315	-0.582	-0.466	
17.320	-0.399	-0.550	
17.325	-0.324	-0.569	
17.330	1.081	-0.472	
17.335	3.008	-0.113	
17.340	2.991	0.549	
17.345	2.989	1.327	
17.350	2.989	2.016	
17.355	2.991	2.534	
17.360	2.991	2.874	
17.365	2.997	3.062	
17.370	3.005	3.143	
17.375	3.009	3.157	
17.380	3.014	3.137	
17.385	3.016	3.104	
17.390	3.019	3.072	
17.395	3.025	3.046	
17.400	3.026	3.029	
17.405	3.028	3.020	
17.410	3.031	3.018	
17.415	3.034	3.019	
17.420	3.032	3.022	
17.425	3.037	3.025	
17.430	3.040	3.029	
17.435	3.041	3.033	
17.440	2.941	3.032	
17.445	2.459	2.997	
17.450	2.198	2.891	
17.455	1.992	2.713	
17.460	1.506	2.480	
17.465	1.129	2.190	
17.470	0.962	1.862	
17.475	0.617	1.526	
17.480	0.307	1.195	
17.485	0.241	0.879	
17.490	0.149	0.605	
17.495	-0.037	0.382	
17.500	-0.052	0.203	
17.505	-0.023	0.070	
17.510	-0.133	-0.019	
17.515	-0.152	-0.080	
17.520	-0.048	-0.117	
17.525	-0.049	-0.128	
17.530	-0.029	-0.117	
17.535	0.308	-0.081	
17.540	0.661	0.009	
17.545	0.738	0.161	
17.550	1.040	0.353	
17.555	1.291	0.571	
17.560	1.359	0.803	
17.565	1.508	1.024	
17.570	1.670	1.222	
17.575	1.582	1.391	
17.580	1.685	1.518	
17.585	2.029	1.622	
17.590	2.198	1.740	
17.595	2.021	1.867	
17.600	1.931	1.962	
17.605	1.815	2.001	
17.610	1.532	1.979	
17.615	1.384	1.891	
17.620	1.477	1.766	
17.625	1.553	1.650	
17.630	1.523	1.570	
17.635	1.425	1.519	
17.640	0.974	1.461	
17.645	0.200	1.327	
17.650	-0.152	1.073	
17.655	-0.320	0.730	
17.660	-0.471	0.369	
17.665	-0.459	0.044	
17.670	-0.339	-0.204	
17.675	-0.318	-0.355	
17.680	-0.295	-0.423	
17.685	-0.155	-0.427	
17.690	-0.112	-0.383	
17.695	-0.181	-0.317	
17.700	-0.181	-0.256	
17.705	-0.142	-0.210	
17.710	-0.207	-0.180	
17.715	-0.248	-0.169	
17.720	-0.232	-0.175	
17.725	-0.280	-0.192	
17.730	-0.313	-0.216	
17.735	-0.197	-0.239	
17.740	-0.141	-0.245	
17.745	-0.214	-0.235	
17.750	-0.188	-0.221	
17.755	-0.119	-0.207	
17.760	-0.161	-0.189	
17.765	-0.148	-0.172	
17.770	-0.087	-0.157	
17.775	-0.144	-0.142	
17.780	-0.138	-0.133	
17.785	-0.089	-0.127	
17.790	-0.150	-0.122	
17.795	-0.301	-0.129	
17.800	-0.323	-0.158	
17.805	-0.349	-0.203	
17.810	-0.527	-0.259	
17.815	-0.645	-0.333	
17.820	-0.665	-0.423	
17.825	-0.740	-0.514	
17.830	-0.833	-0.601	
17.835	-0.811	-0.682	
17.840	-0.831	-0.747	
17.845	-0.893	-0.797	
17.850	-0.882	-0.836	
17.855	-0.805	-0.860	
17.860	-0.853	-0.868	
17.865	-0.848	-0.866	
17.870	-0.790	-0.860	
17.875	-0.830	-0.848	
17.880	-0.866	-0.839	
17.885	-0.779	-0.834	
17.890	-0.799	-0.826	
17.895	-0.879	-0.820	
17.900	-0.845	-0.823	
17.905	-0.789	-0.827	
17.910	-0.854	-0.828	
17.915	-0.914	-0.833	
17.920	-0.854	-0.845	
17.925	-0.929	-0.858	
17.930	-0.990	-0.878	
17.935	-0.941	-0.903	
17.940	-0.964	-0.926	
17.945	-0.993	-0.944	
17.950	-0.993	-0.961	
17.955	-0.992	-0.975	
17.960	-0.995	-0.986	
17.965	-0.995	-0.992	
17.970	-0.995	-0.996	
17.975	-0.993	-0.997	
17.980	-0.944	-0.995	
17.985	-0.747	-0.978	
17.990	-0.810	-0.939	
17.995	-0.993	-0.901	
18.000	-0.995	-0.892	
18.005	-0.995	-0.906	
18.010	-0.995	-0.929	
18.015	-0.995	-0.953	
18.020	-0.995	-0.972	
18.025	-0.995	-0.986	
18.030	-0.995	-0.994	
18.035	-0.995	-0.998	
18.040	-0.995	-1.000	
18.045	-0.995	-1.000	
18.050	-0.995	-0.999	
18.055	-0.995	-0.997	
18.060	-0.995	-0.996	
18.065	-0.993	-0.995	
18.070	-0.995	-0.995	
18.075	-0.995	-0.994	
18.080	-0.995	-0.994	
18.085	-0.995	-0.994	
18.090	-0.993	-0.994	
18.095	-0.995	-0.994	
18.100	-0.995	-0.994	
18.105	-0.995	-0.994	
18.110	-0.995	-0.995	
18.115	-0.995	-0.995	
18.120	-0.860	-0.989	
18.125	-0.886	-0.969	
18.130	-0.966	-0.947	
18.135	-0.946	-0.935	
18.140	-0.972	-0.933	
18.145	-0.995	-0.939	
18.150	-0.995	-0.951	
18.155	-0.995	-0.965	
18.160	-0.993	-0.978	
18.165	-0.995	-0.987	
18.170	-0.995	-0.993	
18.175	-0.995	-0.996	
18.180	-0.995	-0.997	
18.185	-0.996	-0.998	
18.190	-0.996	-0.997	
18.195	-0.996	-0.997	
18.200	-0.996	-0.997	
18.205	-0.996	-0.997	
18.210	-0.996	-0.996	
18.215	-0.996	-0.996	
18.220	-0.996	-0.996	
18.225	-0.996	-0.996	
18.230	-0.996	-0.996	
18.235	-0.996	-0.996	
18.240	-0.996	-0.996	
18.245	-0.996	-0.996	
18.250	-0.996	-0.996	
18.255	-0.996	-0.996	
18.260	-0.996	-0.996	
18.265	-0.996	-0.996	
18.270	-0.996	-0.996	
18.275	-0.996	-0.996	
18.280	-0.996	-0.996	
18.285	-0.996	-0.996	
18.290	-0.996	-0.996	
18.295	-0.996	-0.996	
18.300	-0.996	-0.996	
18.305	-0.996	-0.996	
18.310	-0.996	-0.996	
18.315	-0.996	-0.996	
18.320	-0.996	-0.996	
18.325	-0.996	-0.996	
18.330	-0.996	-0.996	
18.335	-0.996	-0.996	
18.340	-0.996	-0.996	
18.345	-0.996	-0.996	
18.350	-0.995	-0.996	
18.355	-0.996	-0.996	
18.360	-0.996	-0.996	
18.365	-0.996	-0.996	
18.370	-0.996	-0.996	
18.375	-0.995	-0.996	
18.380	-0.996	-0.996	
18.385	-0.995	-0.996	
18.390	-0.995	-0.996	
18.395	-0.995	-0.995	
18.400	-0.888	-0.990	
18.405	-0.680	-0.964	
18.410	-0.643	-0.907	
18.415	-0.544	-0.827	
18.420	-0.336	-0.731	
18.425	-0.280	-0.618	
18.430	-0.240	-0.500	
18.435	0.021	-0.384	
18.440	0.125	-0.260	
18.445	0.088	-0.134	
18.450	0.374	-0.016	
18.455	0.626	0.112	
18.460	0.657	0.260	
18.465	0.944	0.418	
18.470	1.337	0.597	
18.475	1.431	0.808	
18.480	1.474	1.024	
18.485	1.706	1.223	
18.490	1.702	1.398	
18.495	1.579	1.535	
18.500	1.767	1.625	
18.505	1.845	1.690	
18.510	1.556	1.734	
18.515	1.466	1.732	
18.520	1.624	1.693	
18.525	1.488	1.648	
18.530	1.228	1.590	
18.535	1.259	1.509	
18.540	1.253	1.421	
18.545	1.162	1.342	
18.550	1.259	1.279	
18.555	1.372	1.245	
18.560	1.213	1.239	
18.565	1.135	1.235	
18.570	1.425	1.232	
18.575	1.457	1.254	
18.580	1.398	1.298	
18.585	1.653	1.352	
18.590	1.625	1.422	
18.595	1.356	1.482	
18.600	1.497	1.508	
18.605	1.582	1.516	
18.610	1.365	1.518	
18.615	1.439	1.504	
18.620	1.625	1.491	
18.625	1.498	1.494	
18.630	1.408	1.499	
18.635	1.637	1.499	
18.640	1.553	1.510	
18.645	1.242	1.513	
18.650	1.310	1.482	
18.655	1.430	1.437	
18.660	1.223	1.399	
18.665	1.251	1.359	
18.670	1.417	1.325	
18.675	1.246	1.310	
18.680	1.126	1.293	
18.685	1.494	1.277	
18.690	1.740	1.303	
18.695	1.822	1.389	
18.700	1.977	1.514	
18.705	1.805	1.647	
18.710	1.149	1.718	
18.715	0.767	1.661	
18.720	0.739	1.484	
18.725	0.531	1.252	
18.730	0.484	1.012	
18.735	0.867	0.816	
18.740	1.045	0.720	
18.745	1.029	0.724	
18.750	1.338	0.797	
18.755	1.592	0.930	
18.760	1.416	1.098	
18.765	1.508	1.252	
18.770	1.723	1.380	
18.775	1.581	1.490	
18.780	1.566	1.567	
18.785	1.835	1.617	
18.790	1.859	1.671	
18.795	1.660	1.722	
18.800	1.784	1.750	
18.805	1.912	1.771	
18.810	1.737	1.793	
18.815	1.783	1.804	
18.820	2.012	1.814	
18.825	1.981	1.843	
18.830	1.942	1.883	
18.835	2.207	1.927	
18.840	2.184	1.987	
18.845	1.867	2.040	
18.850	1.896	2.049	
18.855	1.955	2.027	
18.860	1.662	1.987	
18.865	1.587	1.917	
18.870	1.706	1.831	
18.875	1.428	1.747	
18.880	1.153	1.647	
18.885	1.249	1.524	
18.890	1.097	1.401	
18.895	0.736	1.275	
18.900	0.794	1.133	
18.905	0.936	1.004	
18.910	0.704	0.911	
18.915	0.672	0.836	
18.920	0.825	0.778	
18.925	0.728	0.746	
18.930	0.628	0.727	
18.935	0.854	0.714	
18.940	0.903	0.726	
18.945	0.745	0.754	
18.950	0.874	0.780	
18.955	0.922	0.806	
18.960	0.615	0.824	
18.965	0.537	0.805	
18.970	0.765	0.760	
18.975	0.655	0.724	
18.980	0.531	0.692	
18.985	0.702	0.661	
18.990	0.612	0.641	
18.995	0.362	0.619	
19.000	0.528	0.579	
19.005	0.631	0.548	
19.010	0.435	0.534	
19.015	0.403	0.516	
19.020	0.541	0.494	
19.025	0.368	0.478	
19.030	0.246	0.452	
19.035	0.487	0.418	
19.040	0.570	0.406	
19.045	0.573	0.427	
19.050	0.967	0.482	
19.055	1.028	0.584	
19.060	0.557	0.691	
19.065	0.157	0.722	
19.070	0.018	0.645	
19.075	-0.173	0.489	
19.080	-0.272	0.295	
19.085	-0.138	0.105	
19.090	-0.049	-0.035	
19.095	-0.090	-0.113	
19.100	0.125	-0.135	
19.105	0.395	-0.095	
19.110	0.314	-0.001	
19.115	0.354	0.109	
19.120	0.580	0.217	
19.125	0.457	0.321	
19.130	0.353	0.398	
19.135	0.618	0.445	
19.140	0.673	0.490	
19.145	0.487	0.535	
19.150	0.626	0.563	
19.155	0.735	0.587	
19.160	0.573	0.614	
19.165	0.696	0.633	
19.170	0.979	0.661	
19.175	0.843	0.714	
19.180	0.713	0.764	
19.185	1.054	0.801	
19.190	1.106	0.853	
19.195	0.961	0.916	
19.200	1.068	0.967	
19.205	1.165	1.010	
19.210	0.932	1.044	
19.215	0.837	1.047	
19.220	0.930	1.018	
19.225	0.649	0.971	
19.230	0.427	0.891	
19.235	0.510	0.780	
19.240	0.316	0.663	
19.245	0.052	0.538	
19.250	0.159	0.404	
19.255	0.227	0.291	
19.260	0.001	0.210	
19.265	-0.019	0.141	
19.270	0.136	0.086	
19.275	0.038	0.056	
19.280	0.000	0.041	
19.285	0.221	0.038	
19.290	0.183	0.058	
19.295	-0.022	0.084	
19.300	0.090	0.091	
19.305	0.169	0.093	
19.310	-0.048	0.095	
19.315	-0.061	0.078	
19.320	0.151	0.055	
19.325	0.099	0.049	
19.330	-0.022	0.052	
19.335	0.094	0.051	
19.340	0.052	0.051	
19.345	-0.116	0.045	
19.350	-0.083	0.022	
19.355	-0.069	-0.010	
19.360	-0.211	-0.043	
19.365	-0.188	-0.083	
19.370	-0.058	-0.117	
19.375	-0.150	-0.133	
19.380	-0.222	-0.143	
19.385	-0.100	-0.154	
19.390	-0.098	-0.155	
19.395	-0.139	-0.146	
19.400	0.142	-0.126	
19.405	0.496	-0.064	
19.410	0.290	0.045	
19.415	0.085	0.143	
19.420	-0.077	0.183	
19.425	-0.410	0.147	
19.430	-0.617	0.032	
19.435	-0.533	-0.131	
19.440	-0.474	-0.286	
19.445	-0.436	-0.398	
19.450	-0.254	-0.454	
19.455	-0.109	-0.446	
19.460	-0.156	-0.389	
19.465	-0.113	-0.313	
19.470	0.062	-0.233	
19.475	0.033	-0.149	
19.480	-0.003	-0.074	
19.485	0.247	-0.011	
19.490	0.264	0.057	
19.495	0.139	0.122	
19.500	0.302	0.170	
19.505	0.438	0.217	
19.510	0.284	0.268	
19.515	0.408	0.308	
19.520	0.702	0.354	
19.525	0.654	0.426	
19.530	0.618	0.503	
19.535	0.854	0.575	
19.540	0.929	0.655	
19.545	0.799	0.735	
19.550	0.898	0.797	
19.555	1.005	0.846	
19.560	0.791	0.885	
19.565	0.768	0.895	
19.570	0.936	0.886	
19.575	0.638	0.869	
19.580	0.382	0.820	
19.585	0.482	0.732	
19.590	0.299	0.629	
19.595	-0.014	0.512	
19.600	0.070	0.375	
19.605	0.059	0.248	
19.610	-0.150	0.141	
19.615	-0.170	0.043	
19.620	-0.071	-0.038	
19.625	-0.104	-0.091	
19.630	-0.148	-0.119	
19.635	-0.052	-0.132	
19.640	-0.084	-0.130	
19.645	-0.187	-0.124	
19.650	-0.064	-0.122	
19.655	0.007	-0.113	
19.660	-0.122	-0.095	
19.665	-0.104	-0.085	
19.670	0.036	-0.078	
19.675	-0.089	-0.065	
19.680	-0.184	-0.062	
19.685	-0.068	-0.073	
19.690	-0.124	-0.086	
19.695	-0.254	-0.102	
19.700	-0.184	-0.129	
19.705	-0.144	-0.154	
19.710	-0.243	-0.171	
19.715	-0.205	-0.186	
19.720	-0.110	-0.194	
19.725	-0.182	-0.191	
19.730	-0.237	-0.186	
19.735	-0.097	-0.185	
19.740	-0.139	-0.176	
19.745	-0.310	-0.171	
19.750	-0.245	-0.183	
19.755	-0.103	-0.197	
19.760	-0.038	-0.190	
19.765	0.330	-0.145	
19.770	0.660	-0.036	
19.775	0.270	0.112	
19.780	0.108	0.225	
19.785	0.634	0.290	
19.790	0.999	0.379	
19.795	1.181	0.528	
19.800	1.706	0.738	
19.805	2.126	1.015	
19.810	2.140	1.337	
19.815	2.252	1.649	
19.820	2.620	1.925	
19.825	2.594	2.171	
19.830	2.502	2.367	
19.835	2.640	2.499	
19.840	2.540	2.579	
19.845	2.241	2.602	
19.850	2.316	2.564	
19.855	2.352	2.498	
19.860	2.026	2.421	
19.865	2.065	2.328	
19.870	2.204	2.238	
19.875	1.984	2.171	
19.880	1.816	2.106	
19.885	1.964	2.035	
19.890	1.961	1.980	
19.895	1.769	1.941	
19.900	1.813	1.901	
19.905	1.902	1.867	
19.910	1.758	1.846	
19.915	1.711	1.824	
19.920	1.847	1.801	
19.925	1.618	1.781	
19.930	1.358	1.740	
19.935	1.332	1.660	
19.940	1.063	1.549	
19.945	0.710	1.401	
19.950	0.693	1.216	
19.955	0.550	1.023	
19.960	0.188	0.830	
19.965	0.177	0.633	
19.970	0.285	0.458	
19.975	0.052	0.324	
19.980	-0.049	0.214	
19.985	0.059	0.121	
19.990	0.024	0.057	
19.995	-0.104	0.015	
20.000	-0.029	-0.018	
20.005	-0.005	-0.039	
20.010	-0.126	-0.049	
20.015	-0.162	-0.065	
20.020	-0.032	-0.083	
20.025	-0.122	-0.092	
20.030	-0.216	-0.103	
20.035	-0.122	-0.120	
20.040	-0.139	-0.134	
20.045	-0.287	-0.148	
20.050	-0.236	-0.171	
20.055	-0.217	-0.196	
20.060	-0.362	-0.220	
20.065	-0.393	-0.253	
20.070	-0.312	-0.289	
20.075	-0.419	-0.320	
20.080	-0.530	-0.354	
20.085	-0.495	-0.396	
20.090	-0.546	-0.439	
20.095	-0.663	-0.483	
20.100	-0.674	-0.533	
20.105	-0.651	-0.582	
20.110	-0.672	-0.621	
20.115	-0.538	-0.642	
20.120	-0.289	-0.628	
20.125	-0.384	-0.575	
20.130	-0.599	-0.519	
20.135	-0.781	-0.504	
20.140	-0.993	-0.550	
20.145	-0.995	-0.644	
20.150	-0.995	-0.755	
20.155	-0.993	-0.854	
20.160	-0.995	-0.928	
20.165	-0.995	-0.977	
20.170	-0.995	-1.004	
20.175	-0.995	-1.016	
20.180	-0.995	-1.018	
20.185	-0.993	-1.014	
20.190	-0.995	-1.009	
20.195	-0.995	-1.004	
20.200	-0.995	-0.999	
20.205	-0.993	-0.996	
20.210	-0.995	-0.994	
20.215	-0.995	-0.994	
20.220	-0.995	-0.993	
20.225	-0.993	-0.993	
20.230	-0.993	-0.993	
20.235	-0.899	-0.989	
20.240	-0.845	-0.972	
20.245	-0.854	-0.943	
20.250	-0.720	-0.906	
20.255	-0.607	-0.854	
20.260	-0.587	-0.788	
20.265	-0.466	-0.713	
20.270	-0.306	-0.629	
20.275	-0.347	-0.537	
20.280	-0.375	-0.457	
20.285	0.945	-0.339	
20.290	3.011	-0.010	
20.295	2.989	0.613	
20.300	2.989	1.359	
20.305	2.997	2.027	
20.310	3.006	2.535	
20.315	3.016	2.871	
20.320	3.023	3.063	
20.325	3.029	3.150	
20.330	3.032	3.171	
20.335	3.031	3.155	
20.340	3.034	3.124	
20.345	3.037	3.093	
20.350	3.032	3.066	
20.355	3.037	3.048	
20.360	3.037	3.036	
20.365	3.040	3.031	
20.370	3.037	3.030	
20.375	3.040	3.031	
20.380	3.041	3.033	
20.385	3.040	3.035	
20.390	3.041	3.038	
20.395	2.834	3.030	
20.400	2.797	2.998	
20.405	2.773	2.945	
20.410	2.490	2.876	
20.415	2.395	2.779	
20.420	2.406	2.666	
20.425	2.171	2.550	
20.430	1.998	2.427	
20.435	2.070	2.298	
20.440	1.989	2.185	
20.445	1.813	2.090	
20.450	1.821	2.000	
20.455	1.751	1.919	
20.460	1.430	1.837	
20.465	1.358	1.733	
20.470	1.590	1.626	
20.475	1.689	1.561	
20.480	1.816	1.554	
20.485	1.700	1.588	
20.490	1.034	1.600	
20.495	0.230	1.495	
20.500	-0.080	1.233	
20.505	-0.236	0.869	
20.510	-0.355	0.488	
20.515	-0.275	0.154	
20.520	-0.145	-0.087	
20.525	-0.161	-0.223	
20.530	-0.164	-0.278	
20.535	-0.049	-0.278	
20.540	-0.046	-0.241	
20.545	-0.141	-0.192	
20.550	-0.101	-0.152	
20.555	-0.106	-0.125	
20.560	-0.274	-0.115	
20.565	-0.437	-0.140	
20.570	-0.538	-0.204	
20.575	-0.686	-0.299	
20.580	-0.805	-0.416	
20.585	-0.766	-0.538	
20.590	-0.781	-0.643	
20.595	-0.944	-0.726	
20.600	-0.993	-0.803	
20.605	-0.993	-0.873	
20.610	-0.995	-0.930	
20.615	-0.995	-0.970	
20.620	-0.995	-0.994	
20.625	-0.995	-1.006	
20.630	-0.995	-1.010	
20.635	-0.995	-1.009	
20.640	-0.996	-1.006	
20.645	-0.996	-1.003	
20.650	-0.996	-1.000	
20.655	-0.996	-0.998	
20.660	-0.996	-0.997	
20.665	-0.996	-0.996	
20.670	-0.996	-0.996	
20.675	-0.996	-0.996	
20.680	-0.995	-0.996	
20.685	-0.996	-0.996	
20.690	-0.996	-0.996	
20.695	-0.996	-0.996	
20.700	-0.996	-0.996	
20.705	-0.998	-0.996	
20.710	-0.996	-0.996	
20.715	-0.996	-0.997	
20.720	-0.996	-0.997	
20.725	-0.996	-0.997	
20.730	-0.996	-0.997	
20.735	-0.996	-0.996	
20.740	-0.996	-0.996	
20.745	-0.996	-0.996	
20.750	-0.996	-0.996	
20.755	-0.996	-0.996	
20.760	-0.996	-0.996	
20.765	-0.996	-0.996	
20.770	-0.996	-0.996	
20.775	-0.996	-0.996	
20.780	-0.996	-0.996	
20.785	-0.996	-0.996	
20.790	-0.996	-0.996	
20.795	-0.995	-0.996	
20.800	-0.995	-0.996	
20.805	-0.995	-0.996	
20.810	-0.995	-0.995	
20.815	-0.995	-0.995	
20.820	-0.995	-0.995	
20.825	-0.995	-0.995	
20.830	-0.993	-0.995	
20.835	-0.886	-0.990	
20.840	-0.746	-0.966	
20.845	-0.825	-0.924	
20.850	-0.905	-0.886	
20.855	-0.995	-0.870	
20.860	-0.995	-0.882	
20.865	-0.995	-0.908	
20.870	-0.995	-0.937	
20.875	-0.995	-0.962	
20.880	-0.906	-0.976	
20.885	-0.662	-0.963	
20.890	-0.566	-0.908	
20.895	-0.491	-0.819	
20.900	-0.286	-0.708	
20.905	-0.138	-0.579	
20.910	-0.182	-0.442	
20.915	-0.052	-0.319	
20.920	0.183	-0.205	
20.925	0.111	-0.091	
20.930	0.127	0.006	
20.935	0.371	0.087	
20.940	0.403	0.169	
20.945	0.353	0.249	
20.950	0.696	0.326	
20.955	1.028	0.431	
20.960	0.887	0.571	
20.965	1.046	0.712	
20.970	1.381	0.852	
20.975	1.327	1.000	
20.980	1.295	1.134	
20.985	1.575	1.244	
20.990	1.538	1.345	
20.995	1.353	1.423	
21.000	1.462	1.462	
21.005	1.541	1.480	
21.010	1.257	1.483	
21.015	1.171	1.452	
21.020	1.219	1.391	
21.025	0.837	1.310	
21.030	0.608	1.189	
21.035	0.845	1.044	
21.040	0.692	0.918	
21.045	0.460	0.811	
21.050	0.727	0.716	
21.055	0.790	0.662	
21.060	0.544	0.645	
21.065	0.618	0.632	
21.070	0.849	0.631	
21.075	0.664	0.651	
21.080	0.534	0.666	
21.085	0.855	0.670	
21.090	0.860	0.692	
21.095	0.643	0.723	
21.100	0.831	0.742	
21.105	0.929	0.764	
21.110	0.661	0.788	
21.115	0.728	0.792	
21.120	0.956	0.790	
21.125	0.776	0.800	
21.130	0.651	0.804	
21.135	0.845	0.792	
21.140	0.736	0.782	
21.145	0.431	0.759	
21.150	0.577	0.708	
21.155	0.664	0.656	
21.160	0.435	0.618	
21.165	0.519	0.579	
21.170	0.699	0.554	
21.175	0.505	0.551	
21.180	0.379	0.544	
21.185	0.628	0.528	
21.190	0.712	0.530	
21.195	0.932	0.571	
21.200	1.332	0.666	
21.205	1.266	0.814	
21.210	0.603	0.943	
21.215	0.168	0.954	
21.220	0.036	0.828	
21.225	-0.205	0.615	
21.230	-0.258	0.368	
21.235	0.015	0.146	
21.240	0.250	0.011	
21.245	0.229	-0.024	
21.250	0.473	0.019	
21.255	0.623	0.119	
21.260	0.481	0.248	
21.265	0.779	0.374	
21.270	1.097	0.512	
21.275	0.987	0.668	
21.280	0.849	0.802	
21.285	1.061	0.893	
21.290	1.008	0.957	
21.295	0.799	0.990	
21.300	0.912	0.986	
21.305	1.077	0.973	
21.310	0.878	0.969	
21.315	1.071	0.968	
21.320	1.271	0.987	
21.325	1.115	1.032	
21.330	1.095	1.076	
21.335	1.365	1.115	
21.340	1.384	1.168	
21.345	1.355	1.232	
21.350	1.543	1.296	
21.355	1.384	1.357	
21.360	1.063	1.385	
21.365	1.055	1.353	
21.370	1.089	1.285	
21.375	0.727	1.197	
21.380	0.550	1.075	
21.385	0.690	0.933	
21.390	0.504	0.803	
21.395	0.224	0.680	
21.400	0.287	0.551	
21.405	0.308	0.437	
21.410	0.017	0.343	
21.415	-0.009	0.248	
21.420	0.142	0.163	
21.425	0.113	0.108	
21.430	0.073	0.082	
21.435	0.371	0.083	
21.440	0.305	0.120	
21.445	0.033	0.163	
21.450	0.168	0.179	
21.455	0.259	0.182	
21.460	0.020	0.183	
21.465	0.068	0.167	
21.470	0.183	0.144	
21.475	0.047	0.128	
21.480	0.007	0.110	
21.485	0.168	0.091	
21.490	0.039	0.083	
21.495	-0.142	0.068	
21.500	-0.074	0.034	
21.505	-0.078	-0.006	
21.510	-0.228	-0.046	
21.515	-0.249	-0.093	
21.520	-0.141	-0.139	
21.525	-0.236	-0.172	
21.530	-0.306	-0.198	
21.535	-0.207	-0.223	
21.540	-0.213	-0.237	
21.545	-0.200	-0.239	
21.550	0.137	-0.218	
21.555	0.478	-0.141	
21.560	0.191	-0.019	
21.565	0.021	0.086	
21.570	-0.136	0.126	
21.575	-0.440	0.090	
21.580	-0.558	-0.016	
21.585	-0.466	-0.159	
21.590	-0.411	-0.288	
21.595	-0.422	-0.377	
21.600	-0.268	-0.421	
21.605	-0.153	-0.417	
21.610	-0.188	-0.373	
21.615	-0.080	-0.310	
21.620	0.172	-0.231	
21.625	-0.042	-0.138	
21.630	-0.066	-0.067	
21.635	0.233	-0.016	
21.640	0.247	0.042	
21.645	0.157	0.103	
21.650	0.318	0.155	
21.655	0.457	0.209	
21.660	0.285	0.267	
21.665	0.325	0.309	
21.670	0.548	0.341	
21.675	0.458	0.380	
21.680	0.421	0.417	
21.685	0.696	0.450	
21.690	0.669	0.498	
21.695	0.512	0.547	
21.700	0.660	0.578	
21.705	0.721	0.605	
21.710	0.621	0.632	
21.715	0.709	0.652	
21.720	0.805	0.673	
21.725	0.423	0.685	
21.730	0.223	0.651	
21.735	0.382	0.572	
21.740	0.233	0.484	
21.745	-0.017	0.390	
21.750	-0.019	0.280	
21.755	-0.031	0.170	
21.760	-0.174	0.073	
21.765	-0.187	-0.014	
21.770	-0.074	-0.083	
21.775	-0.156	-0.124	
21.780	-0.202	-0.149	
21.785	-0.089	-0.163	
21.790	-0.097	-0.162	
21.795	-0.207	-0.154	
21.800	-0.106	-0.150	
21.805	0.050	-0.138	
21.810	-0.052	-0.109	
21.815	0.107	-0.072	
21.820	0.391	-0.015	
21.825	0.191	0.065	
21.830	0.091	0.133	
21.835	0.357	0.175	
21.840	0.241	0.212	
21.845	-0.023	0.229	
21.850	-0.037	0.202	
21.855	-0.005	0.147	
21.860	-0.173	0.082	
21.865	-0.121	0.014	
21.870	-0.046	-0.044	
21.875	-0.208	-0.083	
21.880	-0.287	-0.122	
21.885	-0.205	-0.164	
21.890	-0.252	-0.198	
21.895	-0.359	-0.228	
21.900	-0.295	-0.259	
21.905	-0.161	-0.277	
21.910	-0.098	-0.268	
21.915	0.156	-0.224	
21.920	0.295	-0.137	
21.925	-0.097	-0.039	
21.930	-0.353	0.005	
21.935	-0.332	-0.027	
21.940	-0.346	-0.101	
21.945	-0.333	-0.181	
21.950	0.058	-0.231	
21.955	0.606	-0.195	
21.960	0.817	-0.045	
21.965	1.249	0.198	
21.970	1.711	0.513	
21.975	1.747	0.869	
21.980	1.793	1.207	
21.985	2.015	1.489	
21.990	1.860	1.708	
21.995	1.344	1.827	
22.000	1.058	1.807	
22.005	0.702	1.656	
22.010	0.085	1.393	
22.015	-0.104	1.043	
22.020	-0.046	0.670	
22.025	-0.161	0.347	
22.030	-0.216	0.097	
22.035	-0.090	-0.076	
22.040	-0.132	-0.171	
22.045	-0.213	-0.212	
22.050	-0.132	-0.225	
22.055	-0.113	-0.217	
22.060	-0.220	-0.200	
22.065	-0.174	-0.188	
22.070	-0.066	-0.177	
22.075	-0.280	-0.166	
22.080	-0.382	-0.176	
22.085	-0.294	-0.211	
22.090	-0.349	-0.249	
22.095	-0.529	-0.293	
22.100	-0.477	-0.347	
22.105	-0.535	-0.402	
22.110	-0.622	-0.456	
22.115	-0.585	-0.507	
22.120	-0.533	-0.546	
22.125	-0.616	-0.569	
22.130	-0.607	-0.585	
22.135	-0.474	-0.591	
22.140	-0.459	-0.578	
22.145	-0.552	-0.554	
22.150	-0.469	-0.534	
22.155	-0.430	-0.514	
22.160	-0.518	-0.495	
22.165	-0.423	-0.481	
22.170	-0.310	-0.463	
22.175	-0.367	-0.434	
22.180	-0.384	-0.405	
22.185	-0.271	-0.381	
22.190	-0.327	-0.357	
22.195	-0.391	-0.340	
22.200	-0.287	-0.333	
22.205	-0.304	-0.327	
22.210	-0.425	-0.325	
22.215	-0.411	-0.336	
22.220	-0.330	-0.352	
22.225	-0.420	-0.364	
22.230	-0.443	-0.377	
22.235	-0.327	-0.389	
22.240	-0.352	-0.390	
22.245	-0.454	-0.387	
22.250	-0.398	-0.391	
22.255	-0.364	-0.395	
22.260	-0.468	-0.397	
22.265	-0.352	-0.402	
22.270	-0.072	-0.387	
22.275	-0.020	-0.332	
22.280	-0.055	-0.252	
22.285	-0.032	-0.173	
22.290	-0.356	-0.124	
22.295	-0.654	-0.142	
22.300	-0.688	-0.233	
22.305	-0.676	-0.360	
22.310	-0.708	-0.482	
22.315	-0.572	-0.576	
22.320	-0.375	-0.619	
22.325	-0.396	-0.605	
22.330	-0.376	-0.558	
22.335	-0.226	-0.495	
22.340	-0.232	-0.422	
22.345	-0.283	-0.353	
22.350	-0.158	-0.298	
22.355	-0.090	-0.248	
22.360	-0.171	-0.201	
22.365	-0.081	-0.164	
22.370	0.232	-0.121	
22.375	0.160	-0.052	
22.380	0.134	0.023	
22.385	0.397	0.094	
22.390	0.438	0.174	
22.395	0.457	0.262	
22.400	0.780	0.355	
22.405	0.956	0.472	
22.410	0.864	0.607	
22.415	0.926	0.728	
22.420	1.205	0.834	
22.425	1.152	0.939	
22.430	1.078	1.029	
22.435	1.248	1.094	
22.440	1.092	1.139	
22.445	0.816	1.147	
22.450	0.819	1.103	
22.455	0.774	1.026	
22.460	0.482	0.931	
22.465	0.437	0.812	
22.470	0.464	0.688	
22.475	0.214	0.573	
22.480	0.093	0.456	
22.485	0.206	0.342	
22.490	0.093	0.251	
22.495	-0.023	0.176	
22.500	0.171	0.117	
22.505	0.232	0.092	
22.510	0.020	0.093	
22.515	0.130	0.095	
22.520	0.246	0.102	
22.525	0.075	0.119	
22.530	0.082	0.127	
22.535	0.279	0.132	
22.540	0.168	0.147	
22.545	-0.005	0.156	
22.550	0.172	0.146	
22.555	0.246	0.142	
22.560	0.056	0.147	
22.565	0.059	0.141	
22.570	0.160	0.128	
22.575	-0.042	0.113	
22.580	-0.152	0.082	
22.585	-0.028	0.034	
22.590	-0.057	-0.008	
22.595	-0.188	-0.042	
22.600	-0.081	-0.075	
22.605	-0.031	-0.095	
22.610	-0.194	-0.103	
22.615	-0.182	-0.115	
22.620	-0.048	-0.128	
22.625	-0.077	-0.127	
22.630	0.107	-0.108	
22.635	0.617	-0.043	
22.640	0.516	0.082	
22.645	0.026	0.206	
22.650	-0.226	0.244	
22.655	-0.402	0.180	
22.660	-0.636	0.038	
22.665	-0.676	-0.147	
22.670	-0.524	-0.327	
22.675	-0.454	-0.455	
22.680	-0.358	-0.517	
22.685	-0.181	-0.514	
22.690	-0.130	-0.457	
22.695	-0.156	-0.372	
22.700	0.010	-0.282	
22.705	0.142	-0.185	
22.710	-0.028	-0.091	
22.715	0.046	-0.022	
22.720	0.278	0.032	
22.725	0.091	0.084	
22.730	0.020	0.117	
22.735	0.270	0.130	
22.740	0.281	0.151	
22.745	0.174	0.180	
22.750	0.440	0.210	
22.755	0.626	0.264	
22.760	0.427	0.339	
22.765	0.542	0.407	
22.770	0.820	0.473	
22.775	0.724	0.552	
22.780	0.695	0.626	
22.785	0.922	0.687	
22.790	0.858	0.747	
22.795	0.612	0.788	
22.800	0.666	0.790	
22.805	0.592	0.762	
22.810	0.224	0.704	
22.815	0.177	0.601	
22.820	0.201	0.476	
22.825	-0.052	0.351	
22.830	-0.152	0.222	
22.835	-0.100	0.097	
22.840	-0.190	-0.008	
22.845	-0.321	-0.095	
22.850	-0.271	-0.171	
22.855	-0.266	-0.229	
22.860	-0.371	-0.269	
22.865	-0.333	-0.301	
22.870	-0.196	-0.319	
22.875	-0.257	-0.313	
22.880	-0.295	-0.300	
22.885	-0.164	-0.284	
22.890	-0.223	-0.263	
22.895	-0.318	-0.247	
22.900	-0.202	-0.242	
22.905	-0.089	-0.233	
22.910	-0.199	-0.212	
22.915	-0.202	-0.194	
22.920	-0.126	-0.183	
22.925	-0.281	-0.178	
22.930	-0.332	-0.190	
22.935	-0.214	-0.214	
22.940	-0.272	-0.234	
22.945	-0.382	-0.253	
22.950	-0.309	-0.278	
22.955	-0.266	-0.297	
22.960	-0.387	-0.309	
22.965	-0.413	-0.324	
22.970	-0.313	-0.342	
22.975	-0.407	-0.355	
22.980	-0.463	-0.369	
22.985	-0.327	-0.384	
22.990	-0.214	-0.382	
22.995	-0.167	-0.353	
23.000	-0.118	-0.305	
23.005	-0.312	-0.257	
23.010	-0.708	-0.254	
23.015	-0.885	-0.325	
23.020	-0.921	-0.457	
23.025	-0.995	-0.610	
23.030	-0.993	-0.752	
23.035	-0.802	-0.858	
23.040	-0.708	-0.904	
23.045	-0.663	-0.893	
23.050	-0.517	-0.840	
23.055	-0.433	-0.758	
23.060	-0.463	-0.662	
23.065	-0.396	-0.574	
23.070	-0.265	-0.495	
23.075	-0.297	-0.421	
23.080	-0.297	-0.360	
23.085	-0.136	-0.311	
23.090	-0.142	-0.263	
23.095	-0.208	-0.219	
23.100	-0.083	-0.187	
23.105	0.047	-0.152	
23.110	-0.014	-0.106	
23.115	0.149	-0.057	
23.120	0.374	0.008	
23.125	0.331	0.096	
23.130	0.461	0.190	
23.135	0.780	0.295	
23.140	0.767	0.421	
23.145	0.655	0.542	
23.150	0.867	0.638	
23.155	0.857	0.717	
23.160	0.539	0.767	
23.165	0.476	0.762	
23.170	0.531	0.712	
23.175	0.159	0.634	
23.180	-0.013	0.518	
23.185	0.177	0.379	
23.190	0.044	0.259	
23.195	-0.132	0.158	
23.200	-0.069	0.066	
23.205	-0.077	-0.007	
23.210	-0.182	-0.061	
23.215	-0.126	-0.102	
23.220	0.003	-0.123	
23.225	-0.098	-0.121	
23.230	-0.090	-0.111	
23.235	0.142	-0.092	
23.240	0.073	-0.053	
23.245	-0.061	-0.014	
23.250	0.203	0.015	
23.255	0.290	0.056	
23.260	0.015	0.102	
23.265	0.075	0.125	
23.270	0.275	0.133	
23.275	0.023	0.142	
23.280	-0.092	0.131	
23.285	-0.032	0.092	
23.290	-0.142	0.043	
23.295	-0.295	-0.018	
23.300	-0.252	-0.090	
23.305	-0.248	-0.157	
23.310	-0.358	-0.212	
23.315	-0.324	-0.259	
23.320	-0.228	-0.292	
23.325	-0.321	-0.305	
23.330	-0.359	-0.311	
23.335	-0.263	-0.317	
23.340	-0.333	-0.318	
23.345	-0.342	-0.318	
23.350	-0.017	-0.308	
23.355	0.380	-0.245	
23.360	0.365	-0.118	
23.365	0.342	0.033	
23.370	0.062	0.153	
23.375	-0.381	0.187	
23.380	-0.598	0.110	
23.385	-0.602	-0.049	
23.390	-0.614	-0.229	
23.395	-0.587	-0.387	
23.400	-0.384	-0.494	
23.405	-0.275	-0.530	
23.410	-0.260	-0.505	
23.415	-0.003	-0.437	
23.420	0.244	-0.323	
23.425	0.114	-0.180	
23.430	0.149	-0.048	
23.435	0.403	0.064	
23.440	0.328	0.166	
23.445	0.183	0.243	
23.450	0.380	0.286	
23.455	0.455	0.318	
23.460	0.302	0.349	
23.465	0.496	0.372	
23.470	0.747	0.408	
23.475	0.606	0.471	
23.480	0.599	0.533	
23.485	0.893	0.589	
23.490	0.913	0.660	
23.495	0.855	0.739	
23.500	1.167	0.816	
23.505	1.272	0.909	
23.510	1.037	1.006	
23.515	1.055	1.071	
23.520	1.133	1.103	
23.525	0.809	1.106	
23.530	0.596	1.058	
23.535	0.643	0.961	
23.540	0.362	0.839	
23.545	0.052	0.690	
23.550	0.067	0.514	
23.555	0.023	0.342	
23.560	-0.126	0.194	
23.565	-0.097	0.070	
23.570	-0.020	-0.019	
23.575	-0.164	-0.074	
23.580	-0.211	-0.112	
23.585	-0.086	-0.142	
23.590	-0.148	-0.155	
23.595	-0.239	-0.161	
23.600	-0.176	-0.171	
23.605	-0.144	-0.179	
23.610	-0.242	-0.182	
23.615	-0.211	-0.189	
23.620	-0.109	-0.193	
23.625	-0.148	-0.186	
23.630	-0.155	-0.174	
23.635	-0.051	-0.159	
23.640	-0.139	-0.141	
23.645	-0.249	-0.133	
23.650	-0.139	-0.140	
23.655	-0.168	-0.150	
23.660	-0.350	-0.165	
23.665	-0.368	-0.199	
23.670	-0.292	-0.243	
23.675	-0.394	-0.282	
23.680	-0.419	-0.318	
23.685	-0.300	-0.348	
23.690	-0.315	-0.360	
23.695	-0.381	-0.360	
23.700	-0.275	-0.356	
23.705	-0.237	-0.342	
23.710	-0.287	-0.320	
23.715	-0.113	-0.293	
23.720	0.377	-0.232	
23.725	0.314	-0.115	
23.730	0.006	0.011	
23.735	-0.210	0.076	
23.740	-0.535	0.050	
23.745	-0.764	-0.066	
23.750	-0.734	-0.240	
23.755	-0.639	-0.414	
23.760	-0.607	-0.544	
23.765	-0.437	-0.613	
23.770	-0.234	-0.613	
23.775	-0.202	-0.551	
23.780	-0.150	-0.455	
23.785	0.058	-0.344	
23.790	-0.054	-0.231	
23.795	-0.090	-0.139	
23.800	0.139	-0.072	
23.805	0.249	-0.006	
23.810	0.020	0.058	
23.815	0.108	0.097	
23.820	0.295	0.123	
23.825	0.162	0.152	
23.830	0.192	0.176	
23.835	0.510	0.204	
23.840	0.499	0.259	
23.845	0.414	0.327	
23.850	0.692	0.393	
23.855	0.870	0.476	
23.860	0.701	0.574	
23.865	0.811	0.658	
23.870	1.032	0.733	
23.875	0.870	0.807	
23.880	0.739	0.857	
23.885	0.790	0.868	
23.890	0.582	0.847	
23.895	0.342	0.786	
23.900	0.389	0.688	
23.905	0.281	0.577	
23.910	-0.077	0.456	
23.915	-0.106	0.314	
23.920	-0.046	0.170	
23.925	-0.199	0.050	
23.930	-0.242	-0.050	
23.935	-0.162	-0.129	
23.940	-0.210	-0.180	
23.945	-0.277	-0.211	
23.950	-0.177	-0.231	
23.955	-0.138	-0.234	
23.960	-0.260	-0.225	
23.965	-0.242	-0.220	
23.970	-0.136	-0.218	
23.975	-0.176	-0.209	
23.980	-0.199	-0.197	
23.985	-0.061	-0.184	
23.990	-0.113	-0.164	
23.995	-0.219	-0.147	
24.000	-0.086	-0.141	
24.005	-0.063	-0.133	
24.010	-0.202	-0.124	
24.015	-0.179	-0.126	
24.020	-0.103	-0.134	
24.025	-0.236	-0.142	
24.030	-0.292	-0.160	
24.035	-0.182	-0.185	
24.040	-0.231	-0.204	
24.045	-0.347	-0.222	
24.050	-0.260	-0.244	
24.055	-0.202	-0.259	
24.060	-0.335	-0.265	
24.065	-0.306	-0.273	
24.070	-0.174	-0.279	
24.075	-0.193	-0.269	
24.080	-0.061	-0.243	
24.085	0.420	-0.181	
24.090	0.314	-0.066	
24.095	-0.132	0.044	
24.100	-0.304	0.079	
24.105	-0.511	0.024	
24.110	-0.700	-0.101	
24.115	-0.672	-0.263	
24.120	-0.512	-0.412	
24.125	-0.469	-0.509	
24.130	-0.364	-0.547	
24.135	-0.159	-0.527	
24.140	-0.124	-0.457	
24.145	-0.118	-0.363	
24.150	0.157	-0.259	
24.155	0.272	-0.138	
24.160	0.108	-0.016	
24.165	0.201	0.079	
24.170	0.345	0.150	
24.175	0.188	0.208	
24.180	0.146	0.237	
24.185	0.383	0.248	
24.190	0.376	0.267	
24.195	0.267	0.292	
24.200	0.512	0.316	
24.205	0.695	0.361	
24.210	0.567	0.430	
24.215	0.710	0.502	
24.220	0.985	0.582	
24.225	0.906	0.679	
24.230	0.895	0.772	
24.235	1.184	0.854	
24.240	1.023	0.935	
24.245	0.783	0.987	
24.250	0.875	0.990	
24.255	0.780	0.962	
24.260	0.466	0.905	
24.265	0.431	0.808	
24.270	0.473	0.695	
24.275	0.120	0.580	
24.280	-0.063	0.446	
24.285	0.036	0.300	
24.290	-0.045	0.171	
24.295	-0.208	0.064	
24.300	-0.133	-0.028	
24.305	-0.084	-0.094	
24.310	-0.200	-0.132	
24.315	-0.145	-0.156	
24.320	-0.028	-0.162	
24.325	-0.119	-0.151	
24.330	-0.116	-0.135	
24.335	0.065	-0.115	
24.340	-0.019	-0.085	
24.345	-0.147	-0.059	
24.350	-0.014	-0.051	
24.355	0.032	-0.044	
24.360	-0.115	-0.036	
24.365	-0.066	-0.037	
24.370	0.061	-0.039	
24.375	-0.126	-0.037	
24.380	-0.217	-0.047	
24.385	-0.110	-0.075	
24.390	-0.187	-0.103	
24.395	-0.272	-0.133	
24.400	-0.173	-0.165	
24.405	-0.156	-0.186	
24.410	-0.258	-0.196	
24.415	-0.225	-0.206	
24.420	-0.110	-0.211	
24.425	-0.203	-0.204	
24.430	-0.262	-0.199	
24.435	-0.093	-0.198	
24.440	0.026	-0.180	
24.445	0.159	-0.133	
24.450	0.534	-0.045	
24.455	0.366	0.081	
24.460	-0.181	0.177	
24.465	-0.388	0.175	
24.470	-0.456	0.076	
24.475	-0.581	-0.073	
24.480	-0.590	-0.235	
24.485	-0.394	-0.371	
24.490	-0.341	-0.448	
24.495	-0.375	-0.471	
24.500	-0.226	-0.456	
24.505	-0.068	-0.405	
24.510	-0.113	-0.328	
24.515	0.042	-0.241	
24.520	0.261	-0.143	
24.525	0.075	-0.039	
24.530	-0.009	0.038	
24.535	0.264	0.084	
24.540	0.275	0.127	
24.545	0.059	0.165	
24.550	0.198	0.181	
24.555	0.325	0.191	
24.560	0.174	0.208	
24.565	0.324	0.224	
24.570	0.588	0.256	
24.575	0.470	0.315	
24.580	0.398	0.375	
24.585	0.669	0.424	
24.590	0.592	0.478	
24.595	0.414	0.521	
24.600	0.672	0.542	
24.605	0.747	0.568	
24.610	0.484	0.598	
24.615	0.470	0.604	
24.620	0.573	0.587	
24.625	0.247	0.556	
24.630	-0.006	0.488	
24.635	0.050	0.377	
24.640	-0.098	0.253	
24.645	-0.226	0.128	
24.650	-0.159	0.010	
24.655	-0.122	-0.080	
24.660	-0.260	-0.141	
24.665	-0.239	-0.185	
24.670	-0.155	-0.214	
24.675	-0.254	-0.226	
24.680	-0.303	-0.234	
24.685	-0.147	-0.242	
24.690	-0.190	-0.237	
24.695	-0.280	-0.228	
24.700	-0.171	-0.224	
24.705	-0.167	-0.217	
24.710	-0.249	-0.209	
24.715	-0.194	-0.205	
24.720	-0.130	-0.201	
24.725	-0.217	-0.193	
24.730	-0.217	-0.190	
24.735	-0.087	-0.187	
24.740	-0.159	-0.177	
24.745	-0.292	-0.171	
24.750	-0.239	-0.182	
24.755	-0.246	-0.201	
24.760	-0.388	-0.225	
24.765	-0.332	-0.257	
24.770	-0.211	-0.284	
24.775	-0.307	-0.294	
24.780	-0.362	-0.299	
24.785	-0.249	-0.306	
24.790	-0.281	-0.305	
24.795	-0.350	-0.302	
24.800	-0.199	-0.300	
24.805	-0.032	-0.279	
24.810	0.001	-0.229	
24.815	0.053	-0.162	
24.820	-0.019	-0.094	
24.825	-0.323	-0.058	
24.830	-0.508	-0.083	
24.835	-0.512	-0.166	
24.840	-0.559	-0.272	
24.845	-0.593	-0.377	
24.850	-0.423	-0.459	
24.855	-0.336	-0.497	
24.860	-0.402	-0.493	
24.865	-0.297	-0.466	
24.870	-0.095	-0.417	
24.875	-0.139	-0.345	
24.880	-0.135	-0.269	
24.885	0.044	-0.199	
24.890	-0.026	-0.131	
24.895	-0.136	-0.080	
24.900	0.035	-0.053	
24.905	0.133	-0.026	
24.910	-0.063	0.002	
24.915	0.026	0.018	
24.920	0.270	0.034	
24.925	0.194	0.071	
24.930	0.201	0.115	
24.935	0.495	0.166	
24.940	0.478	0.238	
24.945	0.292	0.309	
24.950	0.586	0.363	
24.955	0.713	0.423	
24.960	0.512	0.491	
24.965	0.585	0.541	
24.970	0.718	0.576	
24.975	0.435	0.601	
24.980	0.275	0.588	
24.985	0.446	0.539	
24.990	0.211	0.479	
24.995	-0.110	0.396	
25.000	-0.043	0.280	
25.005	-0.051	0.159	
25.010	-0.220	0.054	
25.015	-0.196	-0.039	
25.020	-0.107	-0.111	
25.025	-0.252	-0.157	
25.030	-0.292	-0.192	
25.035	-0.155	-0.219	
25.040	-0.162	-0.228	
25.045	-0.257	-0.224	
25.050	-0.133	-0.218	
25.055	-0.069	-0.202	
25.060	-0.196	-0.179	
25.065	-0.188	-0.164	
25.070	-0.055	-0.156	
25.075	-0.167	-0.144	
25.080	-0.199	-0.139	
25.085	-0.042	-0.139	
25.090	-0.087	-0.130	
25.095	-0.242	-0.123	
25.100	-0.170	-0.131	
25.105	-0.159	-0.145	
25.110	-0.271	-0.160	
25.115	-0.234	-0.181	
25.120	-0.170	-0.200	
25.125	-0.295	-0.212	
25.130	-0.327	-0.229	
25.135	-0.199	-0.249	
25.140	-0.254	-0.257	
25.145	-0.358	-0.263	
25.150	-0.265	-0.274	
25.155	-0.245	-0.282	
25.160	-0.318	-0.283	
25.165	-0.171	-0.279	
25.170	0.172	-0.249	
25.175	0.137	-0.174	
25.180	-0.057	-0.087	
25.185	-0.116	-0.032	
25.190	-0.376	-0.030	
25.195	-0.633	-0.093	
25.200	-0.636	-0.212	
25.205	-0.566	-0.345	
25.210	-0.561	-0.454	
25.215	-0.440	-0.522	
25.220	-0.242	-0.537	
25.225	-0.243	-0.499	
25.230	-0.229	-0.432	
25.235	-0.061	-0.355	
25.240	-0.080	-0.271	
25.245	-0.133	-0.197	
25.250	0.056	-0.137	
25.255	0.091	-0.079	
25.260	-0.077	-0.028	
25.265	0.058	0.001	
25.270	0.250	0.029	
25.275	0.116	0.069	
25.280	0.084	0.101	
25.285	0.380	0.129	
25.290	0.366	0.175	
25.295	0.288	0.230	
25.300	0.556	0.284	
25.305	0.670	0.353	
25.310	0.499	0.433	
25.315	0.644	0.499	
25.320	0.813	0.559	
25.325	0.632	0.620	
25.330	0.545	0.656	
25.335	0.686	0.664	
25.340	0.542	0.659	
25.345	0.302	0.630	
25.350	0.402	0.571	
25.355	0.252	0.499	
25.360	-0.083	0.410	
25.365	-0.080	0.291	
25.370	0.026	0.168	
25.375	-0.150	0.069	
25.380	-0.246	-0.017	
25.385	-0.138	-0.092	
25.390	-0.205	-0.145	
25.395	-0.306	-0.184	
25.400	-0.194	-0.216	
25.405	-0.122	-0.229	
25.410	-0.240	-0.225	
25.415	-0.190	-0.218	
25.420	-0.071	-0.206	
25.425	-0.147	-0.184	
25.430	-0.194	-0.165	
25.435	-0.048	-0.152	
25.440	-0.110	-0.136	
25.445	-0.202	-0.125	
25.450	-0.086	-0.124	
25.455	-0.072	-0.121	
25.460	-0.219	-0.118	
25.465	-0.210	-0.128	
25.470	-0.168	-0.146	
25.475	-0.274	-0.166	
25.480	-0.298	-0.192	
25.485	-0.185	-0.218	
25.490	-0.246	-0.233	
25.495	-0.349	-0.244	
25.500	-0.219	-0.259	
25.505	-0.170	-0.262	
25.510	-0.310	-0.255	
25.515	-0.303	-0.255	
25.520	-0.202	-0.260	
25.525	-0.229	-0.257	
25.530	-0.138	-0.245	
25.535	0.296	-0.204	
25.540	0.279	-0.112	
25.545	-0.054	-0.009	
25.550	-0.211	0.041	
25.555	-0.402	0.018	
25.560	-0.648	-0.074	
25.565	-0.657	-0.214	
25.570	-0.520	-0.358	
25.575	-0.518	-0.465	
25.580	-0.457	-0.524	
25.585	-0.255	-0.535	
25.590	-0.207	-0.496	
25.595	-0.249	-0.427	
25.600	-0.126	-0.353	
25.605	-0.074	-0.278	
25.610	-0.182	-0.211	
25.615	-0.121	-0.164	
25.620	0.053	-0.129	
25.625	-0.072	-0.091	
25.630	-0.106	-0.065	
25.635	0.133	-0.047	
25.640	0.258	-0.010	
25.645	0.189	0.048	
25.650	0.409	0.116	
25.655	0.475	0.197	
25.660	0.273	0.275	
25.665	0.495	0.333	
25.670	0.842	0.397	
25.675	0.727	0.489	
25.680	0.751	0.585	
25.685	1.036	0.675	
25.690	0.906	0.766	
25.695	0.596	0.829	
25.700	0.753	0.838	
25.705	0.794	0.821	
25.710	0.472	0.792	
25.715	0.398	0.729	
25.720	0.424	0.642	
25.725	0.058	0.541	
25.730	-0.106	0.412	
25.735	-0.009	0.264	
25.740	-0.152	0.130	
25.745	-0.286	0.013	
25.750	-0.202	-0.090	
25.755	-0.220	-0.166	
25.760	-0.349	-0.218	
25.765	-0.346	-0.262	
25.770	-0.236	-0.294	
25.775	-0.300	-0.307	
25.780	-0.333	-0.311	
25.785	-0.226	-0.310	
25.790	-0.257	-0.301	
25.795	-0.329	-0.290	
25.800	-0.226	-0.284	
25.805	-0.211	-0.274	
25.810	-0.315	-0.263	
25.815	-0.254	-0.260	
25.820	-0.161	-0.256	
25.825	-0.292	-0.246	
25.830	-0.375	-0.248	
25.835	-0.287	-0.264	
25.840	-0.367	-0.284	
25.845	-0.478	-0.311	
25.850	-0.393	-0.346	
25.855	-0.384	-0.375	
25.860	-0.515	-0.398	
25.865	-0.483	-0.423	
25.870	-0.365	-0.442	
25.875	-0.449	-0.447	
25.880	-0.517	-0.449	
25.885	-0.439	-0.456	
25.890	-0.401	-0.458	
25.895	-0.310	-0.446	
25.900	0.035	-0.403	
25.905	0.206	-0.309	
25.910	-0.176	-0.194	
25.915	-0.404	-0.126	
25.920	-0.614	-0.144	
25.925	-0.893	-0.242	
25.930	-0.961	-0.401	
25.935	-0.790	-0.571	
25.940	-0.712	-0.700	
25.945	-0.712	-0.769	
25.950	-0.495	-0.782	
25.955	-0.365	-0.740	
25.960	-0.368	-0.656	
25.965	-0.255	-0.557	
25.970	-0.083	-0.449	
25.975	-0.139	-0.339	
25.980	-0.061	-0.242	
25.985	0.339	-0.146	
25.990	0.360	-0.027	
25.995	0.188	0.094	
26.000	0.504	0.194	
26.005	0.701	0.294	
26.010	0.534	0.402	
26.015	0.638	0.492	
26.020	0.901	0.570	
26.025	0.793	0.653	
26.030	0.745	0.722	
26.035	0.984	0.774	
26.040	0.948	0.825	
26.045	0.819	0.869	
26.050	1.063	0.898	
26.055	1.063	0.932	
26.060	0.738	0.958	
26.065	0.719	0.944	
26.070	0.794	0.900	
26.075	0.453	0.840	
26.080	0.223	0.744	
26.085	0.391	0.619	
26.090	0.113	0.495	
26.095	-0.124	0.365	
26.100	-0.046	0.226	
26.105	-0.075	0.102	
26.110	-0.228	0.003	
26.115	-0.197	-0.080	
26.120	-0.106	-0.140	
26.125	-0.203	-0.172	
26.130	-0.225	-0.190	
26.135	-0.063	-0.196	
26.140	-0.103	-0.184	
26.145	-0.207	-0.166	
26.150	-0.103	-0.155	
26.155	-0.049	-0.143	
26.160	-0.179	-0.127	
26.165	-0.119	-0.121	
26.170	0.110	-0.109	
26.175	-0.040	-0.081	
26.180	-0.074	-0.054	
26.185	0.192	-0.031	
26.190	0.059	0.004	
26.195	-0.122	0.029	
26.200	-0.031	0.026	
26.205	-0.028	0.010	
26.210	-0.216	-0.014	
26.215	-0.194	-0.053	
26.220	-0.106	-0.095	
26.225	-0.205	-0.127	
26.230	-0.262	-0.155	
26.235	-0.148	-0.180	
26.240	-0.202	-0.195	
26.245	-0.327	-0.206	
26.250	-0.243	-0.225	
26.255	-0.136	-0.236	
26.260	-0.031	-0.223	
26.265	0.379	-0.168	
26.270	0.689	-0.044	
26.275	0.313	0.120	
26.280	-0.159	0.232	
26.285	-0.289	0.231	
26.290	-0.474	0.132	
26.295	-0.625	-0.027	
26.300	-0.495	-0.203	
26.305	-0.335	-0.342	
26.310	-0.281	-0.414	
26.315	0.122	-0.409	
26.320	2.478	-0.218	
26.325	3.028	0.290	
26.330	3.017	1.019	
26.335	2.997	1.746	
26.340	2.989	2.335	
26.345	2.989	2.746	
26.350	2.989	2.993	
26.355	2.991	3.114	
26.360	2.991	3.150	
26.365	2.989	3.139	
26.370	2.989	3.106	
26.375	2.993	3.068	
26.380	2.989	3.036	
26.385	2.989	3.011	
26.390	2.991	2.995	
26.395	2.991	2.986	
26.400	2.989	2.983	
26.405	2.991	2.983	
26.410	2.994	2.984	
26.415	2.997	2.987	
26.420	2.997	2.990	
26.425	2.999	2.993	
26.430	3.003	2.995	
26.435	3.003	2.998	
26.440	3.008	3.000	
26.445	3.011	3.003	
26.450	3.014	3.006	
26.455	3.017	3.009	
26.460	3.020	3.012	
26.465	3.025	3.015	
26.470	3.028	3.018	
26.475	3.032	3.021	
26.480	3.038	3.025	
26.485	2.846	3.020	
26.490	2.186	2.964	
26.495	1.382	2.786	
26.500	0.600	2.441	
26.505	-0.284	1.926	
26.510	-0.993	1.274	
26.515	-0.995	0.567	
26.520	-0.995	-0.069	
26.525	-0.995	-0.552	
26.530	-0.995	-0.872	
26.535	-0.995	-1.052	
26.540	-0.995	-1.130	
26.545	-0.995	-1.143	
26.550	-0.995	-1.122	
26.555	-0.995	-1.089	
26.560	-0.995	-1.055	
26.565	-0.995	-1.027	
26.570	-0.995	-1.007	
26.575	-0.996	-0.996	
26.580	-0.995	-0.990	
26.585	-0.996	-0.988	
26.590	-0.996	-0.989	
26.595	-0.996	-0.990	
26.600	-0.996	-0.992	
26.605	-0.996	-0.994	
26.610	-0.996	-0.995	
26.615	-0.996	-0.996	
26.620	-0.995	-0.996	
26.625	-0.996	-0.996	
26.630	-0.995	-0.996	
26.635	-0.995	-0.996	
26.640	-0.995	-0.996	
26.645	-0.995	-0.995	
26.650	-0.996	-0.995	
26.655	-0.996	-0.995	
26.660	-0.996	-0.995	
26.665	-0.995	-0.996	
26.670	-0.996	-0.996	
26.675	-0.996	-0.996	
26.680	-0.995	-0.996	
26.685	-0.995	-0.996	
26.690	-0.995	-0.996	
26.695	-0.995	-0.995	
26.700	-0.995	-0.995	
26.705	-0.980	-0.994	
26.710	-0.995	-0.993	
26.715	-0.993	-0.991	
26.720	-0.825	-0.983	
26.725	-0.821	-0.958	
26.730	-0.755	-0.917	
26.735	-0.607	-0.863	
26.740	-0.709	-0.801	
26.745	-0.896	-0.758	
26.750	-0.851	-0.751	
26.755	-0.879	-0.769	
26.760	-0.983	-0.802	
26.765	-0.937	-0.845	
26.770	-0.810	-0.879	
26.775	-0.789	-0.888	
26.780	-0.663	-0.869	
26.785	-0.411	-0.816	
26.790	-0.367	-0.725	
26.795	-0.391	-0.617	
26.800	-0.266	-0.516	
26.805	-0.196	-0.422	
26.810	-0.298	-0.342	
26.815	-0.315	-0.291	
26.820	-0.286	-0.268	
26.825	-0.437	-0.268	
26.830	-0.543	-0.298	
26.835	-0.471	-0.349	
26.840	-0.526	-0.403	
26.845	-0.653	-0.455	
26.850	-0.564	-0.507	
26.855	-0.540	-0.546	
26.860	-0.657	-0.571	
26.865	-0.604	-0.591	
26.870	-0.497	-0.601	
26.875	-0.561	-0.594	
26.880	-0.587	-0.583	
26.885	-0.488	-0.573	
26.890	-0.533	-0.558	
26.895	-0.640	-0.550	
26.900	-0.535	-0.552	
26.905	-0.471	-0.552	
26.910	-0.564	-0.545	
26.915	-0.550	-0.539	
26.920	-0.454	-0.535	
26.925	-0.488	-0.524	
26.930	-0.521	-0.512	
26.935	-0.448	-0.503	
26.940	-0.492	-0.493	
26.945	-0.617	-0.492	
26.950	-0.566	-0.507	
26.955	-0.520	-0.525	
26.960	-0.619	-0.540	
26.965	-0.564	-0.554	
26.970	-0.434	-0.560	
26.975	-0.491	-0.548	
26.980	-0.543	-0.531	
26.985	-0.449	-0.519	
26.990	-0.393	-0.501	
26.995	-0.284	-0.470	
27.000	0.114	-0.407	
27.005	0.360	-0.287	
27.010	-0.045	-0.139	
27.015	-0.283	-0.041	
27.020	-0.446	-0.034	
27.025	-0.695	-0.110	
27.030	-0.789	-0.249	
27.035	-0.617	-0.404	
27.040	-0.509	-0.523	
27.045	-0.448	-0.581	
27.050	-0.242	-0.578	
27.055	-0.023	-0.514	
27.060	-0.049	-0.403	
27.065	0.072	-0.277	
27.070	0.356	-0.143	
27.075	0.226	-0.004	
27.080	0.137	0.109	
27.085	0.333	0.182	
27.090	0.266	0.234	
27.095	0.084	0.260	
27.100	0.288	0.258	
27.105	0.443	0.261	
27.110	0.266	0.280	
27.115	0.365	0.300	
27.120	0.707	0.333	
27.125	0.776	0.405	
27.130	0.834	0.509	
27.135	1.129	0.631	
27.140	1.156	0.770	
27.145	1.028	0.903	
27.150	1.158	1.003	
27.155	1.288	1.081	
27.160	1.126	1.144	
27.165	1.138	1.180	
27.170	1.240	1.194	
27.175	0.929	1.190	
27.180	0.681	1.143	
27.185	0.750	1.049	
27.190	0.487	0.932	
27.195	0.113	0.788	
27.200	0.269	0.617	
27.205	0.295	0.462	
27.210	-0.005	0.340	
27.215	0.021	0.232	
27.220	0.162	0.145	
27.225	-0.016	0.090	
27.230	-0.084	0.049	
27.235	0.137	0.018	
27.240	0.079	0.011	
27.245	-0.083	0.016	
27.250	0.058	0.014	
27.255	0.204	0.021	
27.260	-0.016	0.042	
27.265	0.053	0.055	
27.270	0.301	0.069	
27.275	0.243	0.105	
27.280	0.168	0.147	
27.285	0.383	0.185	
27.290	0.311	0.227	
27.295	0.130	0.258	
27.300	0.249	0.264	
27.305	0.279	0.260	
27.310	-0.020	0.246	
27.315	-0.032	0.203	
27.320	0.110	0.146	
27.325	-0.080	0.096	
27.330	-0.202	0.042	
27.335	-0.075	-0.018	
27.340	-0.086	-0.065	
27.345	-0.220	-0.097	
27.350	-0.162	-0.127	
27.355	-0.139	-0.150	
27.360	-0.138	-0.160	
27.365	0.212	-0.145	
27.370	0.724	-0.064	
27.375	0.530	0.088	
27.380	0.030	0.231	
27.385	-0.173	0.278	
27.390	-0.399	0.216	
27.395	-0.602	0.074	
27.400	-0.533	-0.109	
27.405	-0.439	-0.275	
27.410	-0.465	-0.393	
27.415	-0.326	-0.457	
27.420	-0.109	-0.460	
27.425	-0.141	-0.409	
27.430	-0.155	-0.333	
27.435	0.168	-0.247	
27.440	0.096	-0.147	
27.445	-0.109	-0.059	
27.450	0.032	-0.009	
27.455	0.159	0.023	
27.460	-0.042	0.048	
27.465	0.018	0.056	
27.470	0.266	0.062	
27.475	0.101	0.083	
27.480	0.032	0.101	
27.485	0.301	0.113	
27.490	0.308	0.141	
27.495	0.220	0.182	
27.500	0.450	0.223	
27.505	0.629	0.283	
27.510	0.536	0.364	
27.515	0.592	0.442	
27.520	0.794	0.515	
27.525	0.623	0.585	
27.530	0.482	0.628	
27.535	0.611	0.635	
27.540	0.455	0.621	
27.545	0.133	0.575	
27.550	0.122	0.486	
27.555	0.070	0.373	
27.560	-0.203	0.251	
27.565	-0.249	0.118	
27.570	-0.187	-0.010	
27.575	-0.312	-0.115	
27.580	-0.382	-0.200	
27.585	-0.283	-0.268	
27.590	-0.310	-0.310	
27.595	-0.417	-0.334	
27.600	-0.332	-0.353	
27.605	-0.278	-0.359	
27.610	-0.368	-0.354	
27.615	-0.304	-0.347	
27.620	-0.182	-0.333	
27.625	-0.252	-0.307	
27.630	-0.313	-0.284	
27.635	-0.200	-0.270	
27.640	-0.245	-0.257	
27.645	-0.346	-0.252	
27.650	-0.237	-0.256	
27.655	-0.164	-0.257	
27.660	-0.277	-0.248	
27.665	-0.295	-0.245	
27.670	-0.226	-0.249	
27.675	-0.333	-0.255	
27.680	-0.385	-0.269	
27.685	-0.269	-0.290	
27.690	-0.303	-0.304	
27.695	-0.388	-0.312	
27.700	-0.327	-0.324	
27.705	-0.323	-0.333	
27.710	-0.504	-0.344	
27.715	-0.617	-0.376	
27.720	-0.627	-0.431	
27.725	-0.698	-0.498	
27.730	-0.657	-0.562	
27.735	-0.410	-0.602	
27.740	-0.365	-0.595	
27.745	-0.587	-0.562	
27.750	-0.708	-0.545	
27.755	-0.795	-0.566	
27.760	-0.992	-0.623	
27.765	-0.995	-0.710	
27.770	-0.995	-0.806	
27.775	-0.995	-0.887	
27.780	-0.995	-0.947	
27.785	-0.995	-0.986	
27.790	-0.995	-1.006	
27.795	-0.993	-1.014	
27.800	-0.761	-1.004	
27.805	-0.569	-0.955	
27.810	-0.498	-0.866	
27.815	-0.342	-0.750	
27.820	-0.045	-0.612	
27.825	0.302	-0.436	
27.830	0.551	-0.219	
27.835	0.722	0.027	
27.840	0.621	0.264	
27.845	0.366	0.439	
27.850	0.466	0.528	
27.855	0.609	0.562	
27.860	0.533	0.578	
27.865	0.719	0.589	
27.870	1.002	0.623	
27.875	0.997	0.697	
27.880	1.017	0.789	
27.885	1.353	0.892	
27.890	1.347	1.011	
27.895	1.103	1.121	
27.900	1.162	1.186	
27.905	1.084	1.207	
27.910	0.806	1.185	
27.915	0.765	1.116	
27.920	0.843	1.022	
27.925	0.539	0.926	
27.930	0.295	0.810	
27.935	0.478	0.677	
27.940	0.406	0.563	
27.945	0.192	0.472	
27.950	0.342	0.392	
27.955	0.545	0.346	
27.960	0.411	0.345	
27.965	0.418	0.363	
27.970	0.596	0.390	
27.975	0.470	0.427	
27.980	0.377	0.455	
27.985	0.611	0.469	
27.990	0.576	0.490	
27.995	0.353	0.507	
28.000	0.426	0.501	
28.005	0.498	0.484	
28.010	0.252	0.464	
28.015	0.214	0.424	
28.020	0.379	0.375	
28.025	0.252	0.338	
28.030	0.067	0.301	
28.035	0.188	0.254	
28.040	0.099	0.209	
28.045	-0.133	0.160	
28.050	-0.081	0.095	
28.055	-0.078	0.028	
28.060	-0.231	-0.032	
28.065	-0.220	-0.090	
28.070	-0.127	-0.139	
28.075	-0.217	-0.170	
28.080	-0.275	-0.192	
28.085	-0.176	-0.211	
28.090	-0.174	-0.218	
28.095	-0.193	-0.215	
28.100	0.078	-0.196	
28.105	0.427	-0.132	
28.110	0.253	-0.022	
28.115	-0.058	0.077	
28.120	-0.236	0.107	
28.125	-0.523	0.053	
28.130	-0.685	-0.074	
28.135	-0.601	-0.237	
28.140	-0.567	-0.387	
28.145	-0.530	-0.494	
28.150	-0.355	-0.547	
28.155	-0.252	-0.541	
28.160	-0.281	-0.491	
28.165	-0.205	-0.422	
28.170	-0.052	-0.345	
28.175	-0.139	-0.264	
28.180	-0.176	-0.199	
28.185	-0.040	-0.155	
28.190	-0.028	-0.118	
28.195	-0.113	-0.087	
28.200	-0.009	-0.068	
28.205	0.154	-0.045	
28.210	0.085	-0.008	
28.215	0.195	0.036	
28.220	0.424	0.092	
28.225	0.325	0.166	
28.230	0.295	0.235	
28.235	0.568	0.294	
28.240	0.684	0.366	
28.245	0.611	0.452	
28.250	0.805	0.535	
28.255	0.867	0.620	
28.260	0.643	0.694	
28.265	0.626	0.731	
28.270	0.776	0.737	
28.275	0.565	0.731	
28.280	0.266	0.693	
28.285	0.336	0.613	
28.290	0.241	0.514	
28.295	-0.028	0.408	
28.300	0.021	0.289	
28.305	-0.006	0.178	
28.310	-0.199	0.082	
28.315	-0.193	-0.008	
28.320	-0.106	-0.083	
28.325	-0.220	-0.133	
28.330	-0.277	-0.171	
28.335	-0.174	-0.202	
28.340	-0.142	-0.215	
28.345	-0.208	-0.213	
28.350	-0.087	-0.202	
28.355	-0.011	-0.178	
28.360	-0.152	-0.145	
28.365	-0.147	-0.123	
28.370	-0.023	-0.112	
28.375	-0.118	-0.100	
28.380	-0.171	-0.095	
28.385	-0.037	-0.098	
28.390	-0.075	-0.097	
28.395	-0.197	-0.096	
28.400	-0.127	-0.105	
28.405	-0.135	-0.117	
28.410	-0.274	-0.133	
28.415	-0.272	-0.160	
28.420	-0.167	-0.189	
28.425	-0.246	-0.208	
28.430	-0.297	-0.223	
28.435	-0.179	-0.236	
28.440	-0.187	-0.238	
28.445	-0.304	-0.234	
28.450	-0.255	-0.238	
28.455	-0.200	-0.243	
28.460	-0.210	-0.240	
28.465	-0.054	-0.226	
28.470	0.389	-0.173	
28.475	0.319	-0.068	
28.480	-0.029	0.043	
28.485	-0.245	0.090	
28.490	-0.495	0.050	
28.495	-0.689	-0.068	
28.500	-0.654	-0.230	
28.505	-0.541	-0.384	
28.510	-0.538	-0.494	
28.515	-0.414	-0.551	
28.520	-0.200	-0.549	
28.525	-0.184	-0.493	
28.530	-0.159	-0.408	
28.535	0.082	-0.310	
28.540	0.146	-0.198	
28.545	0.009	-0.089	
28.550	0.120	-0.005	
28.555	0.275	0.061	
28.560	0.189	0.122	
28.565	0.238	0.170	
28.570	0.435	0.214	
28.575	0.308	0.261	
28.580	0.230	0.295	
28.585	0.539	0.318	
28.590	0.635	0.360	
28.595	0.562	0.424	
28.600	0.759	0.493	
28.605	0.932	0.575	
28.610	0.785	0.667	
28.615	0.924	0.747	
28.620	1.185	0.824	
28.625	1.039	0.910	
28.630	0.875	0.975	
28.635	1.013	1.003	
28.640	0.921	1.008	
28.645	0.623	0.984	
28.650	0.626	0.920	
28.655	0.542	0.830	
28.660	0.156	0.719	
28.665	0.050	0.573	
28.670	0.136	0.414	
28.675	-0.068	0.271	
28.680	-0.185	0.142	
28.685	-0.084	0.028	
28.690	-0.112	-0.054	
28.695	-0.187	-0.108	
28.700	-0.071	-0.140	
28.705	0.062	-0.142	
28.710	-0.084	-0.118	
28.715	-0.126	-0.095	
28.720	-0.049	-0.084	
28.725	-0.130	-0.080	
28.730	-0.162	-0.084	
28.735	-0.028	-0.093	
28.740	-0.051	-0.093	
28.745	-0.139	-0.088	
28.750	-0.048	-0.087	
28.755	0.039	-0.079	
28.760	-0.115	-0.065	
28.765	-0.141	-0.061	
28.770	-0.072	-0.069	
28.775	-0.202	-0.083	
28.780	-0.310	-0.111	
28.785	-0.248	-0.154	
28.790	-0.251	-0.195	
28.795	-0.327	-0.229	
28.800	-0.231	-0.256	
28.805	-0.136	-0.265	
28.810	-0.258	-0.255	
28.815	-0.277	-0.246	
28.820	-0.194	-0.243	
28.825	-0.254	-0.239	
28.830	-0.187	-0.234	
28.835	0.336	-0.202	
28.840	0.556	-0.101	
28.845	0.243	0.046	
28.850	-0.038	0.155	
28.855	-0.326	0.173	
28.860	-0.630	0.089	
28.865	-0.726	-0.075	
28.870	-0.624	-0.267	
28.875	-0.605	-0.431	
28.880	-0.559	-0.543	
28.885	-0.327	-0.592	
28.890	-0.240	-0.574	
28.895	-0.257	-0.508	
28.900	-0.095	-0.422	
28.905	0.072	-0.318	
