Vernier Format 2
ecg2.txt 10/18/2025 8:17:47
Run 1
Time	Potential	EKG	
T	P	E	
s	mV	mV	

0.000	-0.143	-0.007	
0.005	0.248	-0.010	
0.010	-0.101	0.001	
0.015	-0.253	-0.003	
0.020	0.082	-0.028	
0.025	0.043	-0.038	
0.030	-0.256	-0.040	
0.035	-0.102	-0.060	
0.040	0.037	-0.078	
0.045	-0.323	-0.089	
0.050	-0.290	-0.119	
0.055	0.082	-0.150	
0.060	-0.156	-0.151	
0.065	-0.293	-0.147	
0.070	-0.032	-0.154	
0.075	-0.104	-0.150	
0.080	-0.332	-0.147	
0.085	-0.127	-0.160	
0.090	0.187	-0.155	
0.095	-0.006	-0.113	
0.100	0.343	-0.047	
0.105	0.777	0.061	
0.110	0.175	0.198	
0.115	-0.270	0.269	
0.120	-0.212	0.228	
0.125	-0.354	0.117	
0.130	-0.541	-0.027	
0.135	-0.372	-0.176	
0.140	-0.186	-0.284	
0.145	-0.363	-0.336	
0.150	-0.277	-0.355	
0.155	0.101	-0.336	
0.160	-0.107	-0.273	
0.165	-0.213	-0.207	
0.170	0.194	-0.152	
0.175	0.172	-0.081	
0.180	-0.174	-0.014	
0.185	0.111	0.018	
0.190	0.373	0.050	
0.195	-0.110	0.091	
0.200	-0.096	0.097	
0.205	0.462	0.090	
0.210	0.268	0.120	
0.215	0.099	0.163	
0.220	0.599	0.204	
0.225	0.535	0.270	
0.230	0.061	0.333	
0.235	0.422	0.352	
0.240	0.713	0.371	
0.245	0.264	0.410	
0.250	0.357	0.427	
0.255	0.837	0.440	
0.260	0.489	0.482	
0.265	0.229	0.507	
0.270	0.762	0.505	
0.275	0.803	0.529	
0.280	0.265	0.565	
0.285	0.459	0.561	
0.290	0.646	0.539	
0.295	0.097	0.515	
0.300	0.027	0.448	
0.305	0.386	0.357	
0.310	-0.006	0.283	
0.315	-0.215	0.202	
0.320	0.067	0.107	
0.325	-0.031	0.036	
0.330	-0.303	-0.019	
0.335	-0.128	-0.078	
0.340	0.102	-0.114	
0.345	-0.236	-0.118	
0.350	-0.174	-0.123	
0.355	0.195	-0.121	
0.360	-0.066	-0.091	
0.365	-0.218	-0.066	
0.370	0.136	-0.059	
0.375	0.043	-0.040	
0.380	-0.299	-0.027	
0.385	-0.072	-0.044	
0.390	0.235	-0.054	
0.395	-0.151	-0.038	
0.400	-0.137	-0.032	
0.405	0.209	-0.034	
0.410	-0.142	-0.022	
0.415	-0.285	-0.028	
0.420	0.032	-0.058	
0.425	-0.029	-0.073	
0.430	-0.319	-0.083	
0.435	-0.180	-0.112	
0.440	0.017	-0.136	
0.445	-0.276	-0.142	
0.450	-0.264	-0.156	
0.455	-0.012	-0.171	
0.460	-0.244	-0.172	
0.465	-0.415	-0.183	
0.470	-0.182	-0.212	
0.475	-0.136	-0.230	
0.480	-0.264	-0.229	
0.485	0.258	-0.205	
0.490	0.662	-0.113	
0.495	-0.024	0.024	
0.500	-0.227	0.105	
0.505	-0.201	0.095	
0.510	-0.526	0.018	
0.515	-0.727	-0.114	
0.520	-0.534	-0.274	
0.525	-0.453	-0.406	
0.530	-0.547	-0.487	
0.535	-0.317	-0.524	
0.540	-0.096	-0.504	
0.545	-0.285	-0.438	
0.550	-0.206	-0.365	
0.555	0.204	-0.284	
0.560	-0.076	-0.186	
0.565	-0.212	-0.111	
0.570	0.175	-0.069	
0.575	0.091	-0.025	
0.580	-0.232	0.008	
0.585	0.040	0.007	
0.590	0.378	0.015	
0.595	-0.082	0.050	
0.600	0.027	0.068	
0.605	0.552	0.089	
0.610	0.250	0.147	
0.615	-0.002	0.196	
0.620	0.506	0.219	
0.625	0.509	0.260	
0.630	0.038	0.304	
0.635	0.369	0.314	
0.640	0.765	0.332	
0.645	0.360	0.384	
0.650	0.375	0.424	
0.655	0.869	0.457	
0.660	0.556	0.512	
0.665	0.320	0.551	
0.670	0.764	0.559	
0.675	0.614	0.573	
0.680	0.044	0.568	
0.685	0.273	0.506	
0.690	0.389	0.427	
0.695	-0.145	0.351	
0.700	-0.213	0.244	
0.705	0.059	0.122	
0.710	-0.182	0.027	
0.715	-0.345	-0.054	
0.720	-0.018	-0.126	
0.725	-0.032	-0.156	
0.730	-0.325	-0.162	
0.735	-0.172	-0.174	
0.740	0.015	-0.178	
0.745	-0.279	-0.166	
0.750	-0.252	-0.167	
0.755	0.079	-0.169	
0.760	-0.177	-0.151	
0.765	-0.297	-0.141	
0.770	0.026	-0.144	
0.775	-0.021	-0.132	
0.780	-0.310	-0.116	
0.785	-0.113	-0.122	
0.790	0.158	-0.120	
0.795	-0.229	-0.098	
0.800	-0.229	-0.093	
0.805	0.075	-0.102	
0.810	-0.180	-0.099	
0.815	-0.375	-0.110	
0.820	-0.169	-0.146	
0.825	-0.180	-0.178	
0.830	-0.406	-0.204	
0.835	-0.253	-0.236	
0.840	-0.130	-0.257	
0.845	-0.393	-0.261	
0.850	-0.404	-0.276	
0.855	-0.166	-0.296	
0.860	-0.363	-0.301	
0.865	-0.435	-0.310	
0.870	0.020	-0.313	
0.875	0.277	-0.262	
0.880	-0.029	-0.163	
0.885	0.276	-0.062	
0.890	0.154	0.031	
0.895	-0.451	0.077	
0.900	-0.593	0.023	
0.905	-0.483	-0.105	
0.910	-0.659	-0.251	
0.915	-0.756	-0.395	
0.920	-0.421	-0.512	
0.925	-0.296	-0.563	
0.930	-0.415	-0.549	
0.935	-0.162	-0.501	
0.940	0.122	-0.413	
0.945	-0.180	-0.298	
0.950	-0.143	-0.204	
0.955	0.229	-0.131	
0.960	-0.044	-0.059	
0.965	-0.149	-0.013	
0.970	0.369	0.013	
0.975	0.273	0.064	
0.980	-0.116	0.113	
0.985	0.255	0.131	
0.990	0.526	0.157	
0.995	0.052	0.204	
1.000	0.134	0.225	
1.005	0.628	0.237	
1.010	0.293	0.277	
1.015	0.050	0.304	
1.020	0.636	0.308	
1.025	0.671	0.346	
1.030	0.206	0.401	
1.035	0.651	0.434	
1.040	1.000	0.486	
1.045	0.501	0.567	
1.050	0.521	0.619	
1.055	0.947	0.645	
1.060	0.530	0.675	
1.065	0.195	0.666	
1.070	0.587	0.609	
1.075	0.376	0.549	
1.080	-0.119	0.474	
1.085	0.110	0.362	
1.090	0.268	0.256	
1.095	-0.185	0.179	
1.100	-0.185	0.094	
1.105	0.091	0.014	
1.110	-0.204	-0.037	
1.115	-0.354	-0.087	
1.120	-0.066	-0.140	
1.125	-0.079	-0.167	
1.130	-0.322	-0.174	
1.135	-0.149	-0.186	
1.140	0.041	-0.184	
1.145	-0.264	-0.165	
1.150	-0.253	-0.159	
1.155	0.073	-0.159	
1.160	-0.156	-0.142	
1.165	-0.291	-0.131	
1.170	0.090	-0.132	
1.175	0.085	-0.109	
1.180	-0.233	-0.077	
1.185	-0.034	-0.066	
1.190	0.203	-0.053	
1.195	-0.221	-0.029	
1.200	-0.232	-0.034	
1.205	0.053	-0.060	
1.210	-0.241	-0.078	
1.215	-0.404	-0.111	
1.220	-0.169	-0.163	
1.225	-0.160	-0.200	
1.230	-0.354	-0.220	
1.235	-0.172	-0.238	
1.240	-0.041	-0.236	
1.245	-0.374	-0.221	
1.250	-0.389	-0.227	
1.255	-0.120	-0.247	
1.260	-0.191	-0.249	
1.265	-0.072	-0.230	
1.270	0.751	-0.159	
1.275	0.703	0.003	
1.280	-0.102	0.177	
1.285	-0.215	0.243	
1.290	-0.313	0.192	
1.295	-0.653	0.062	
1.300	-0.672	-0.118	
1.305	-0.428	-0.297	
1.310	-0.508	-0.425	
1.315	-0.549	-0.501	
1.320	-0.189	-0.529	
1.325	-0.096	-0.492	
1.330	-0.267	-0.413	
1.335	0.041	-0.325	
1.340	0.343	-0.215	
1.345	-0.120	-0.093	
1.350	-0.120	-0.016	
1.355	0.415	0.026	
1.360	0.154	0.083	
1.365	-0.079	0.125	
1.370	0.399	0.140	
1.375	0.341	0.171	
1.380	-0.099	0.200	
1.385	0.253	0.196	
1.390	0.579	0.203	
1.395	0.142	0.241	
1.400	0.177	0.263	
1.405	0.715	0.281	
1.410	0.511	0.336	
1.415	0.341	0.397	
1.420	0.901	0.450	
1.425	0.877	0.532	
1.430	0.410	0.616	
1.435	0.806	0.659	
1.440	1.084	0.702	
1.445	0.518	0.754	
1.450	0.453	0.760	
1.455	0.826	0.726	
1.460	0.364	0.689	
1.465	0.068	0.619	
1.470	0.466	0.515	
1.475	0.294	0.428	
1.480	-0.182	0.347	
1.485	-0.009	0.239	
1.490	0.175	0.141	
1.495	-0.218	0.072	
1.500	-0.226	0.003	
1.505	0.023	-0.062	
1.510	-0.213	-0.100	
1.515	-0.316	-0.134	
1.520	-0.027	-0.166	
1.525	-0.055	-0.171	
1.530	-0.306	-0.162	
1.535	-0.093	-0.163	
1.540	0.154	-0.149	
1.545	-0.206	-0.114	
1.550	-0.191	-0.097	
1.555	0.226	-0.087	
1.560	-0.044	-0.056	
1.565	-0.207	-0.034	
1.570	0.140	-0.031	
1.575	0.133	-0.015	
1.580	-0.204	0.005	
1.585	0.053	0.004	
1.590	0.268	0.010	
1.595	-0.188	0.030	
1.600	-0.188	0.021	
1.605	0.119	-0.008	
1.610	-0.174	-0.027	
1.615	-0.340	-0.057	
1.620	-0.085	-0.105	
1.625	-0.143	-0.139	
1.630	-0.367	-0.164	
1.635	-0.215	-0.197	
1.640	-0.078	-0.217	
1.645	-0.340	-0.220	
1.650	-0.303	-0.229	
1.655	0.125	-0.230	
1.660	0.130	-0.184	
1.665	0.306	-0.096	
1.670	0.928	0.042	
1.675	0.608	0.230	
1.680	-0.241	0.368	
1.685	-0.322	0.359	
1.690	-0.364	0.231	
1.695	-0.689	0.045	
1.700	-0.662	-0.166	
1.705	-0.352	-0.348	
1.710	-0.381	-0.454	
1.715	-0.403	-0.492	
1.720	0.023	-0.474	
1.725	0.133	-0.388	
1.730	-0.166	-0.268	
1.735	0.186	-0.161	
1.740	0.483	-0.046	
1.745	0.052	0.074	
1.750	0.157	0.154	
1.755	0.628	0.211	
1.760	0.268	0.277	
1.765	0.111	0.318	
1.770	0.598	0.329	
1.775	0.623	0.363	
1.780	0.212	0.408	
1.785	0.559	0.428	
1.790	0.858	0.461	
1.795	0.392	0.514	
1.800	0.456	0.543	
1.805	0.960	0.561	
1.810	0.681	0.607	
1.815	0.483	0.648	
1.820	1.056	0.673	
1.825	1.005	0.727	
1.830	0.555	0.787	
1.835	0.875	0.809	
1.840	1.117	0.828	
1.845	0.569	0.855	
1.850	0.559	0.840	
1.855	0.936	0.798	
1.860	0.498	0.766	
1.865	0.137	0.704	
1.870	0.518	0.603	
1.875	0.332	0.512	
1.880	-0.165	0.419	
1.885	0.030	0.298	
1.890	0.262	0.191	
1.895	-0.185	0.120	
1.900	-0.177	0.050	
1.905	0.134	-0.013	
1.910	-0.154	-0.044	
1.915	-0.317	-0.074	
1.920	-0.101	-0.116	
1.925	-0.093	-0.143	
1.930	-0.259	-0.156	
1.935	-0.018	-0.162	
1.940	0.197	-0.140	
1.945	-0.183	-0.094	
1.950	-0.108	-0.067	
1.955	0.296	-0.046	
1.960	-0.031	-0.007	
1.965	-0.166	0.017	
1.970	0.239	0.020	
1.975	0.216	0.042	
1.980	-0.153	0.069	
1.985	-0.012	0.065	
1.990	0.236	0.054	
1.995	-0.174	0.052	
2.000	-0.171	0.028	
2.005	0.108	-0.008	
2.010	-0.215	-0.032	
2.015	-0.360	-0.069	
2.020	-0.032	-0.119	
2.025	-0.058	-0.144	
2.030	-0.319	-0.151	
2.035	-0.154	-0.166	
2.040	-0.038	-0.173	
2.045	-0.364	-0.172	
2.050	-0.303	-0.190	
2.055	0.200	-0.199	
2.060	0.242	-0.151	
2.065	0.236	-0.057	
2.070	0.742	0.067	
2.075	0.354	0.211	
2.080	-0.360	0.293	
2.085	-0.419	0.243	
2.090	-0.419	0.099	
2.095	-0.712	-0.081	
2.100	-0.634	-0.269	
2.105	-0.317	-0.418	
2.110	-0.389	-0.490	
2.115	-0.433	-0.506	
2.120	-0.009	-0.479	
2.125	0.116	-0.392	
2.130	-0.177	-0.275	
2.135	0.157	-0.171	
2.140	0.445	-0.061	
2.145	-0.034	0.051	
2.150	0.038	0.116	
2.155	0.468	0.150	
2.160	0.125	0.190	
2.165	-0.066	0.204	
2.170	0.404	0.192	
2.175	0.297	0.199	
2.180	-0.073	0.208	
2.185	0.378	0.198	
2.190	0.700	0.221	
2.195	0.236	0.284	
2.200	0.303	0.331	
2.205	0.791	0.368	
2.210	0.521	0.430	
2.215	0.302	0.479	
2.220	0.848	0.506	
2.225	0.791	0.554	
2.230	0.338	0.604	
2.235	0.709	0.617	
2.240	0.933	0.634	
2.245	0.366	0.661	
2.250	0.334	0.644	
2.255	0.645	0.595	
2.260	0.149	0.542	
2.265	-0.117	0.455	
2.270	0.236	0.335	
2.275	0.081	0.234	
2.280	-0.285	0.146	
2.285	-0.137	0.047	
2.290	0.001	-0.036	
2.295	-0.302	-0.090	
2.300	-0.313	-0.143	
2.305	-0.081	-0.188	
2.310	-0.270	-0.211	
2.315	-0.370	-0.228	
2.320	-0.090	-0.246	
2.325	-0.111	-0.239	
2.330	-0.351	-0.223	
2.335	-0.175	-0.219	
2.340	-0.060	-0.212	
2.345	-0.335	-0.198	
2.350	-0.281	-0.202	
2.355	0.067	-0.204	
2.360	-0.146	-0.182	
2.365	-0.279	-0.160	
2.370	0.004	-0.152	
2.375	-0.064	-0.136	
2.380	-0.325	-0.123	
2.385	-0.140	-0.134	
2.390	0.011	-0.142	
2.395	-0.340	-0.141	
2.400	-0.339	-0.161	
2.405	-0.137	-0.194	
2.410	-0.332	-0.218	
2.415	-0.450	-0.248	
2.420	-0.213	-0.283	
2.425	-0.249	-0.300	
2.430	-0.476	-0.308	
2.435	-0.335	-0.326	
2.440	-0.229	-0.338	
2.445	-0.467	-0.340	
2.450	-0.345	-0.347	
2.455	0.200	-0.331	
2.460	0.192	-0.251	
2.465	0.000	-0.138	
2.470	0.206	-0.039	
2.475	-0.200	0.027	
2.480	-0.631	0.016	
2.485	-0.621	-0.088	
2.490	-0.601	-0.237	
2.495	-0.814	-0.388	
2.500	-0.709	-0.527	
2.505	-0.413	-0.619	
2.510	-0.473	-0.643	
2.515	-0.489	-0.622	
2.520	-0.192	-0.572	
2.525	-0.142	-0.489	
2.530	-0.323	-0.395	
2.535	-0.105	-0.317	
2.540	0.101	-0.240	
2.545	-0.244	-0.165	
2.550	-0.215	-0.125	
2.555	0.099	-0.109	
2.560	-0.139	-0.088	
2.565	-0.279	-0.083	
2.570	0.008	-0.097	
2.575	0.050	-0.096	
2.580	-0.151	-0.079	
2.585	0.180	-0.060	
2.590	0.419	-0.010	
2.595	-0.053	0.060	
2.600	0.014	0.099	
2.605	0.505	0.122	
2.610	0.206	0.167	
2.615	0.020	0.202	
2.620	0.562	0.219	
2.625	0.450	0.260	
2.630	0.114	0.306	
2.635	0.517	0.326	
2.640	0.697	0.362	
2.645	0.047	0.402	
2.650	-0.011	0.384	
2.655	0.384	0.323	
2.660	-0.032	0.267	
2.665	-0.244	0.194	
2.670	-0.032	0.096	
2.675	-0.162	0.009	
2.680	-0.433	-0.072	
2.685	-0.270	-0.158	
2.690	-0.178	-0.225	
2.695	-0.404	-0.263	
2.700	-0.369	-0.296	
2.705	-0.166	-0.318	
2.710	-0.334	-0.318	
2.715	-0.442	-0.318	
2.720	-0.166	-0.323	
2.725	-0.186	-0.311	
2.730	-0.375	-0.289	
2.735	-0.171	-0.276	
2.740	-0.049	-0.254	
2.745	-0.355	-0.225	
2.750	-0.310	-0.219	
2.755	-0.024	-0.221	
2.760	-0.209	-0.208	
2.765	-0.328	-0.198	
2.770	-0.095	-0.201	
2.775	-0.166	-0.197	
2.780	-0.375	-0.196	
2.785	-0.220	-0.211	
2.790	-0.113	-0.223	
2.795	-0.386	-0.226	
2.800	-0.374	-0.243	
2.805	-0.180	-0.268	
2.810	-0.392	-0.282	
2.815	-0.491	-0.304	
2.820	-0.206	-0.332	
2.825	-0.229	-0.337	
2.830	-0.467	-0.329	
2.835	-0.320	-0.333	
2.840	-0.209	-0.334	
2.845	-0.370	-0.324	
2.850	-0.174	-0.311	
2.855	0.472	-0.259	
2.860	0.251	-0.138	
2.865	-0.085	-0.012	
2.870	-0.049	0.053	
2.875	-0.364	0.051	
2.880	-0.715	-0.029	
2.885	-0.585	-0.173	
2.890	-0.470	-0.320	
2.895	-0.639	-0.433	
2.900	-0.532	-0.514	
2.905	-0.232	-0.548	
2.910	-0.293	-0.523	
2.915	-0.325	-0.467	
2.920	0.049	-0.395	
2.925	0.062	-0.294	
2.930	-0.223	-0.192	
2.935	0.027	-0.123	
2.940	0.198	-0.065	
2.945	-0.159	-0.012	
2.950	-0.064	0.007	
2.955	0.460	0.024	
2.960	0.131	0.073	
2.965	-0.060	0.114	
2.970	0.439	0.134	
2.975	0.380	0.175	
2.980	-0.011	0.217	
2.985	0.355	0.231	
2.990	0.622	0.256	
2.995	0.140	0.301	
3.000	0.288	0.323	
3.005	0.761	0.342	
3.010	0.459	0.393	
3.015	0.329	0.438	
3.020	0.951	0.475	
3.025	0.916	0.551	
3.030	0.422	0.634	
3.035	0.726	0.673	
3.040	0.873	0.694	
3.045	0.253	0.703	
3.050	0.223	0.651	
3.055	0.544	0.563	
3.060	0.081	0.480	
3.065	-0.175	0.375	
3.070	0.152	0.249	
3.075	-0.011	0.146	
3.080	-0.337	0.059	
3.085	-0.153	-0.033	
3.090	0.004	-0.102	
3.095	-0.297	-0.137	
3.100	-0.233	-0.167	
3.105	0.049	-0.184	
3.110	-0.189	-0.173	
3.115	-0.319	-0.166	
3.120	-0.044	-0.172	
3.125	-0.055	-0.164	
3.130	-0.288	-0.151	
3.135	-0.070	-0.149	
3.140	0.107	-0.135	
3.145	-0.256	-0.109	
3.150	-0.206	-0.104	
3.155	0.125	-0.107	
3.160	-0.157	-0.094	
3.165	-0.291	-0.093	
3.170	0.015	-0.108	
3.175	-0.032	-0.110	
3.180	-0.317	-0.107	
3.185	-0.162	-0.124	
3.190	-0.055	-0.142	
3.195	-0.342	-0.152	
3.200	-0.317	-0.178	
3.205	-0.090	-0.207	
3.210	-0.334	-0.222	
3.215	-0.422	-0.242	
3.220	-0.127	-0.268	
3.225	-0.185	-0.271	
3.230	-0.439	-0.265	
3.235	-0.294	-0.276	
3.240	-0.139	-0.285	
3.245	-0.306	-0.277	
3.250	-0.047	-0.259	
3.255	0.668	-0.190	
3.260	0.232	-0.051	
3.265	-0.249	0.068	
3.270	-0.244	0.090	
3.275	-0.503	0.027	
3.280	-0.843	-0.105	
3.285	-0.678	-0.283	
3.290	-0.500	-0.443	
3.295	-0.639	-0.547	
3.300	-0.511	-0.603	
3.305	-0.169	-0.603	
3.310	-0.242	-0.543	
3.315	-0.290	-0.456	
3.320	0.151	-0.360	
3.325	0.090	-0.242	
3.330	-0.233	-0.135	
3.335	0.043	-0.073	
3.340	0.264	-0.023	
3.345	-0.168	0.024	
3.350	-0.125	0.034	
3.355	0.291	0.026	
3.360	0.000	0.039	
3.365	-0.148	0.045	
3.370	0.431	0.045	
3.375	0.495	0.093	
3.380	0.093	0.169	
3.385	0.468	0.229	
3.390	0.742	0.297	
3.395	0.315	0.381	
3.400	0.437	0.435	
3.405	0.924	0.479	
3.410	0.607	0.546	
3.415	0.386	0.594	
3.420	0.907	0.614	
3.425	0.826	0.650	
3.430	0.312	0.680	
3.435	0.695	0.668	
3.440	0.889	0.659	
3.445	0.267	0.659	
3.450	0.244	0.614	
3.455	0.550	0.539	
3.460	0.038	0.466	
3.465	-0.206	0.364	
3.470	0.125	0.235	
3.475	-0.063	0.127	
3.480	-0.319	0.036	
3.485	-0.104	-0.052	
3.490	0.053	-0.108	
3.495	-0.296	-0.129	
3.500	-0.239	-0.151	
3.505	0.055	-0.168	
3.510	-0.233	-0.162	
3.515	-0.337	-0.163	
3.520	0.084	-0.172	
3.525	0.047	-0.150	
3.530	-0.235	-0.114	
3.535	0.017	-0.094	
3.540	0.207	-0.067	
3.545	-0.195	-0.030	
3.550	-0.133	-0.021	
3.555	0.305	-0.020	
3.560	-0.043	0.004	
3.565	-0.174	0.018	
3.570	0.265	0.015	
3.575	0.105	0.032	
3.580	-0.285	0.044	
3.585	-0.095	0.015	
3.590	0.079	-0.020	
3.595	-0.299	-0.044	
3.600	-0.268	-0.084	
3.605	0.029	-0.126	
3.610	-0.226	-0.143	
3.615	-0.348	-0.161	
3.620	-0.087	-0.186	
3.625	-0.160	-0.196	
3.630	-0.412	-0.202	
3.635	-0.194	-0.222	
3.640	0.093	-0.224	
3.645	-0.069	-0.187	
3.650	0.413	-0.117	
3.655	0.979	0.019	
3.660	0.349	0.208	
3.665	-0.250	0.328	
3.670	-0.236	0.309	
3.675	-0.464	0.188	
3.680	-0.741	0.006	
3.685	-0.528	-0.199	
3.690	-0.310	-0.360	
3.695	-0.465	-0.447	
3.700	-0.326	-0.480	
3.705	0.192	-0.450	
3.710	-0.037	-0.351	
3.715	-0.124	-0.238	
3.720	0.431	-0.132	
3.725	0.341	-0.005	
3.730	-0.078	0.106	
3.735	0.319	0.164	
3.740	0.610	0.216	
3.745	0.186	0.282	
3.750	0.308	0.321	
3.755	0.762	0.354	
3.760	0.401	0.407	
3.765	0.198	0.440	
3.770	0.744	0.446	
3.775	0.652	0.474	
3.780	0.258	0.507	
3.785	0.715	0.517	
3.790	0.988	0.549	
3.795	0.575	0.615	
3.800	0.742	0.666	
3.805	1.245	0.721	
3.810	0.899	0.806	
3.815	0.724	0.872	
3.820	1.297	0.912	
3.825	1.188	0.972	
3.830	0.666	1.022	
3.835	0.942	1.017	
3.840	1.021	0.992	
3.845	0.387	0.952	
3.850	0.358	0.856	
3.855	0.642	0.732	
3.860	0.122	0.617	
3.865	-0.122	0.482	
3.870	0.287	0.334	
3.875	0.084	0.224	
3.880	-0.282	0.137	
3.885	-0.027	0.045	
3.890	0.213	-0.014	
3.895	-0.163	-0.030	
3.900	-0.085	-0.041	
3.905	0.319	-0.040	
3.910	-0.085	-0.010	
3.915	-0.218	0.003	
3.920	0.238	-0.004	
3.925	0.169	0.013	
3.930	-0.194	0.036	
3.935	0.064	0.034	
3.940	0.285	0.037	
3.945	-0.159	0.053	
3.950	0.017	0.051	
3.955	0.500	0.058	
3.960	0.101	0.102	
3.965	-0.116	0.132	
3.970	0.287	0.129	
3.975	0.142	0.132	
3.980	-0.227	0.125	
3.985	-0.034	0.082	
3.990	0.134	0.039	
3.995	-0.259	0.009	
4.000	-0.201	-0.034	
4.005	0.105	-0.075	
4.010	-0.206	-0.090	
4.015	-0.331	-0.110	
4.020	-0.055	-0.143	
4.025	-0.116	-0.158	
4.030	-0.375	-0.167	
4.035	-0.113	-0.185	
4.040	0.314	-0.174	
4.045	0.154	-0.105	
4.050	0.594	0.004	
4.055	1.005	0.165	
4.060	0.175	0.342	
4.065	-0.352	0.413	
4.070	-0.306	0.332	
4.075	-0.508	0.164	
4.080	-0.765	-0.046	
4.085	-0.524	-0.259	
4.090	-0.345	-0.415	
4.095	-0.488	-0.494	
4.100	-0.305	-0.517	
4.105	0.128	-0.477	
4.110	-0.076	-0.375	
4.115	-0.159	-0.265	
4.120	0.364	-0.163	
4.125	0.305	-0.042	
4.130	-0.076	0.066	
4.135	0.314	0.129	
4.140	0.532	0.186	
4.145	0.012	0.244	
4.150	0.160	0.260	
4.155	0.605	0.264	
4.160	0.244	0.291	
4.165	0.049	0.304	
4.170	0.630	0.298	
4.175	0.576	0.328	
4.180	0.160	0.371	
4.185	0.613	0.394	
4.190	0.893	0.437	
4.195	0.416	0.508	
4.200	0.637	0.558	
4.205	1.152	0.611	
4.210	0.805	0.697	
4.215	0.582	0.765	
4.220	1.061	0.797	
4.225	0.947	0.834	
4.230	0.442	0.855	
4.235	0.718	0.825	
4.240	0.762	0.780	
4.245	0.142	0.724	
4.250	0.171	0.619	
4.255	0.489	0.498	
4.260	-0.020	0.398	
4.265	-0.220	0.287	
4.270	0.099	0.162	
4.275	-0.056	0.067	
4.280	-0.357	-0.009	
4.285	-0.113	-0.085	
4.290	0.101	-0.129	
4.295	-0.252	-0.135	
4.300	-0.186	-0.140	
4.305	0.136	-0.139	
4.310	-0.175	-0.117	
4.315	-0.277	-0.107	
4.320	0.088	-0.112	
4.325	-0.017	-0.100	
4.330	-0.288	-0.086	
4.335	-0.037	-0.092	
4.340	0.183	-0.086	
4.345	-0.186	-0.061	
4.350	-0.101	-0.051	
4.355	0.300	-0.040	
4.360	-0.076	-0.008	
4.365	-0.217	0.006	
4.370	0.126	-0.006	
4.375	-0.055	-0.011	
4.380	-0.348	-0.027	
4.385	-0.180	-0.073	
4.390	-0.073	-0.118	
4.395	-0.294	-0.147	
4.400	-0.206	-0.174	
4.405	0.073	-0.185	
4.410	-0.192	-0.167	
4.415	-0.299	-0.156	
4.420	-0.021	-0.159	
4.425	-0.148	-0.154	
4.430	-0.380	-0.155	
4.435	-0.079	-0.173	
4.440	0.341	-0.158	
4.445	0.133	-0.088	
4.450	0.358	0.007	
4.455	0.565	0.118	
4.460	-0.204	0.210	
4.465	-0.534	0.199	
4.470	-0.419	0.079	
4.475	-0.555	-0.084	
4.480	-0.764	-0.254	
4.485	-0.521	-0.411	
4.490	-0.270	-0.508	
4.495	-0.404	-0.530	
4.500	-0.250	-0.504	
4.505	0.168	-0.432	
4.510	-0.102	-0.318	
4.515	-0.191	-0.214	
4.520	0.235	-0.134	
4.525	0.166	-0.050	
4.530	-0.156	0.020	
4.535	0.187	0.052	
4.540	0.387	0.087	
4.545	-0.145	0.125	
4.550	-0.043	0.124	
4.555	0.425	0.109	
4.560	0.161	0.126	
4.565	0.058	0.149	
4.570	0.620	0.174	
4.575	0.520	0.238	
4.580	0.064	0.305	
4.585	0.483	0.334	
4.590	0.726	0.368	
4.595	0.239	0.417	
4.600	0.430	0.439	
4.605	0.930	0.463	
4.610	0.550	0.520	
4.615	0.296	0.560	
4.620	0.700	0.561	
4.625	0.628	0.565	
4.630	0.218	0.563	
4.635	0.534	0.532	
4.640	0.605	0.506	
4.645	-0.003	0.480	
4.650	0.009	0.407	
4.655	0.325	0.311	
4.660	-0.108	0.232	
4.665	-0.258	0.144	
4.670	0.047	0.047	
4.675	-0.090	-0.021	
4.680	-0.360	-0.073	
4.685	-0.145	-0.129	
4.690	-0.038	-0.165	
4.695	-0.381	-0.180	
4.700	-0.261	-0.203	
4.705	0.139	-0.212	
4.710	-0.174	-0.185	
4.715	-0.259	-0.159	
4.720	0.110	-0.144	
4.725	-0.015	-0.112	
4.730	-0.277	-0.085	
4.735	-0.050	-0.085	
4.740	0.155	-0.079	
4.745	-0.229	-0.060	
4.750	-0.217	-0.064	
4.755	0.184	-0.076	
4.760	-0.105	-0.066	
4.765	-0.239	-0.061	
4.770	0.088	-0.070	
4.775	-0.029	-0.066	
4.780	-0.303	-0.064	
4.785	-0.116	-0.086	
4.790	-0.005	-0.106	
4.795	-0.322	-0.117	
4.800	-0.273	-0.143	
4.805	-0.049	-0.172	
4.810	-0.271	-0.184	
4.815	-0.407	-0.202	
4.820	-0.157	-0.231	
4.825	-0.200	-0.245	
4.830	-0.381	-0.250	
4.835	-0.015	-0.251	
4.840	0.559	-0.199	
4.845	0.206	-0.076	
4.850	0.140	0.050	
4.855	0.149	0.132	
4.860	-0.389	0.150	
4.865	-0.657	0.072	
4.870	-0.517	-0.082	
4.875	-0.572	-0.247	
4.880	-0.718	-0.392	
4.885	-0.430	-0.504	
4.890	-0.191	-0.547	
4.895	-0.357	-0.522	
4.900	-0.235	-0.465	
4.905	0.189	-0.381	
4.910	-0.085	-0.267	
4.915	-0.195	-0.169	
4.920	0.236	-0.101	
4.925	0.163	-0.029	
4.930	-0.157	0.031	
4.935	0.142	0.054	
4.940	0.363	0.078	
4.945	-0.078	0.112	
4.950	0.058	0.120	
4.955	0.529	0.128	
4.960	0.143	0.167	
4.965	-0.014	0.192	
4.970	0.547	0.199	
4.975	0.482	0.238	
4.980	0.084	0.287	
4.985	0.558	0.314	
4.990	0.779	0.360	
4.995	0.355	0.431	
5.000	0.547	0.480	
5.005	0.968	0.527	
5.010	0.655	0.598	
5.015	0.454	0.648	
5.020	0.933	0.669	
5.025	0.774	0.698	
5.030	0.203	0.708	
5.035	0.472	0.658	
5.040	0.544	0.590	
5.045	-0.058	0.517	
5.050	-0.060	0.403	
5.055	0.256	0.276	
5.060	-0.137	0.177	
5.065	-0.255	0.083	
5.070	0.030	-0.007	
5.075	-0.098	-0.063	
5.080	-0.361	-0.104	
5.085	-0.153	-0.149	
5.090	-0.041	-0.177	
5.095	-0.277	-0.181	
5.100	-0.191	-0.186	
5.105	0.125	-0.179	
5.110	-0.178	-0.148	
5.115	-0.252	-0.128	
5.120	0.107	-0.121	
5.125	-0.017	-0.097	
5.130	-0.268	-0.077	
5.135	0.011	-0.078	
5.140	0.221	-0.065	
5.145	-0.204	-0.035	
5.150	-0.154	-0.030	
5.155	0.221	-0.035	
5.160	-0.090	-0.022	
5.165	-0.218	-0.020	
5.170	0.093	-0.035	
5.175	-0.076	-0.041	
5.180	-0.352	-0.055	
5.185	-0.166	-0.096	
5.190	-0.072	-0.133	
5.195	-0.363	-0.158	
5.200	-0.303	-0.192	
5.205	-0.050	-0.220	
5.210	-0.308	-0.226	
5.215	-0.438	-0.238	
5.220	-0.198	-0.264	
5.225	-0.203	-0.276	
5.230	-0.313	-0.273	
5.235	0.244	-0.248	
5.240	0.780	-0.146	
5.245	0.230	0.025	
5.250	-0.006	0.161	
5.255	-0.050	0.206	
5.260	-0.497	0.163	
5.265	-0.729	0.029	
5.270	-0.537	-0.157	
5.275	-0.557	-0.328	
5.280	-0.674	-0.459	
5.285	-0.370	-0.544	
5.290	-0.142	-0.557	
5.295	-0.308	-0.505	
5.300	-0.185	-0.430	
5.305	0.245	-0.333	
5.310	-0.029	-0.212	
5.315	-0.137	-0.110	
5.320	0.337	-0.039	
5.325	0.242	0.040	
5.330	-0.102	0.104	
5.335	0.268	0.131	
5.340	0.433	0.160	
5.345	-0.024	0.196	
5.350	0.169	0.203	
5.355	0.617	0.212	
5.360	0.293	0.255	
5.365	0.107	0.290	
5.370	0.671	0.308	
5.375	0.642	0.356	
5.380	0.227	0.415	
5.385	0.686	0.449	
5.390	0.947	0.501	
5.395	0.491	0.575	
5.400	0.703	0.627	
5.405	1.149	0.677	
5.410	0.692	0.748	
5.415	0.512	0.785	
5.420	1.020	0.784	
5.425	0.780	0.793	
5.430	0.184	0.779	
5.435	0.421	0.700	
5.440	0.506	0.603	
5.445	-0.093	0.506	
5.450	-0.067	0.376	
5.455	0.219	0.243	
5.460	-0.186	0.141	
5.465	-0.313	0.043	
5.470	-0.026	-0.051	
5.475	-0.075	-0.109	
5.480	-0.317	-0.140	
5.485	-0.087	-0.166	
5.490	0.043	-0.169	
5.495	-0.265	-0.151	
5.500	-0.188	-0.146	
5.505	0.105	-0.141	
5.510	-0.175	-0.120	
5.515	-0.262	-0.111	
5.520	0.126	-0.112	
5.525	0.046	-0.091	
5.530	-0.210	-0.063	
5.535	0.088	-0.051	
5.540	0.201	-0.028	
5.545	-0.213	0.001	
5.550	-0.084	0.001	
5.555	0.372	0.000	
5.560	-0.031	0.029	
5.565	-0.175	0.044	
5.570	0.154	0.033	
5.575	-0.053	0.025	
5.580	-0.337	0.003	
5.585	-0.163	-0.049	
5.590	-0.078	-0.100	
5.595	-0.346	-0.137	
5.600	-0.271	-0.178	
5.605	-0.031	-0.208	
5.610	-0.281	-0.213	
5.615	-0.419	-0.222	
5.620	-0.203	-0.247	
5.625	-0.244	-0.263	
5.630	-0.314	-0.268	
5.635	0.294	-0.248	
5.640	0.812	-0.143	
5.645	0.247	0.036	
5.650	-0.037	0.175	
5.655	-0.146	0.213	
5.660	-0.573	0.150	
5.665	-0.782	-0.004	
5.670	-0.566	-0.204	
5.675	-0.578	-0.379	
5.680	-0.683	-0.507	
5.685	-0.383	-0.583	
5.690	-0.182	-0.588	
5.695	-0.357	-0.533	
5.700	-0.238	-0.460	
5.705	0.155	-0.370	
5.710	-0.113	-0.260	
5.715	-0.185	-0.169	
5.720	0.194	-0.107	
5.725	0.043	-0.045	
5.730	-0.198	-0.003	
5.735	0.190	0.011	
5.740	0.361	0.041	
5.745	-0.104	0.085	
5.750	0.061	0.101	
5.755	0.491	0.114	
5.760	0.091	0.151	
5.765	-0.056	0.170	
5.770	0.437	0.167	
5.775	0.344	0.189	
5.780	0.009	0.217	
5.785	0.508	0.231	
5.790	0.722	0.276	
5.795	0.273	0.349	
5.800	0.436	0.400	
5.805	0.855	0.443	
5.810	0.491	0.504	
5.815	0.314	0.541	
5.820	0.777	0.546	
5.825	0.523	0.558	
5.830	0.000	0.545	
5.835	0.287	0.476	
5.840	0.305	0.394	
5.845	-0.209	0.313	
5.850	-0.178	0.202	
5.855	0.032	0.085	
5.860	-0.255	-0.005	
5.865	-0.360	-0.087	
5.870	-0.130	-0.162	
5.875	-0.238	-0.209	
5.880	-0.462	-0.242	
5.885	-0.252	-0.279	
5.890	-0.171	-0.298	
5.895	-0.442	-0.301	
5.900	-0.345	-0.311	
5.905	-0.089	-0.315	
5.910	-0.282	-0.296	
5.915	-0.355	-0.278	
5.920	-0.085	-0.268	
5.925	-0.133	-0.244	
5.930	-0.351	-0.219	
5.935	-0.117	-0.211	
5.940	0.032	-0.193	
5.945	-0.279	-0.164	
5.950	-0.207	-0.154	
5.955	0.046	-0.150	
5.960	-0.224	-0.136	
5.965	-0.323	-0.138	
5.970	-0.092	-0.157	
5.975	-0.218	-0.172	
5.980	-0.453	-0.192	
5.985	-0.246	-0.230	
5.990	-0.151	-0.257	
5.995	-0.415	-0.267	
6.000	-0.340	-0.283	
6.005	-0.148	-0.297	
6.010	-0.346	-0.294	
6.015	-0.439	-0.297	
6.020	-0.221	-0.311	
6.025	-0.290	-0.314	
6.030	-0.369	-0.312	
6.035	0.101	-0.296	
6.040	0.561	-0.215	
6.045	0.065	-0.077	
6.050	-0.142	0.031	
6.055	-0.207	0.059	
6.060	-0.587	0.009	
6.065	-0.765	-0.117	
6.070	-0.566	-0.280	
6.075	-0.599	-0.424	
6.080	-0.714	-0.531	
6.085	-0.421	-0.599	
6.090	-0.242	-0.604	
6.095	-0.416	-0.556	
6.100	-0.249	-0.491	
6.105	0.142	-0.404	
6.110	-0.143	-0.292	
6.115	-0.201	-0.199	
6.120	0.238	-0.130	
6.125	0.120	-0.055	
6.130	-0.185	0.006	
6.135	0.107	0.029	
6.140	0.238	0.047	
6.145	-0.140	0.067	
6.150	0.000	0.063	
6.155	0.393	0.061	
6.160	0.053	0.087	
6.165	-0.009	0.107	
6.170	0.511	0.122	
6.175	0.399	0.172	
6.180	0.044	0.227	
6.185	0.503	0.258	
6.190	0.797	0.311	
6.195	0.372	0.394	
6.200	0.559	0.458	
6.205	0.941	0.518	
6.210	0.534	0.589	
6.215	0.370	0.625	
6.220	0.780	0.622	
6.225	0.523	0.619	
6.230	0.015	0.588	
6.235	0.290	0.503	
6.240	0.348	0.412	
6.245	-0.131	0.331	
6.250	-0.096	0.229	
6.255	0.148	0.129	
6.260	-0.153	0.058	
6.265	-0.249	-0.006	
6.270	0.064	-0.064	
6.275	-0.085	-0.090	
6.280	-0.326	-0.106	
6.285	-0.107	-0.133	
6.290	0.017	-0.146	
6.295	-0.297	-0.143	
6.300	-0.244	-0.153	
6.305	0.070	-0.162	
6.310	-0.136	-0.148	
6.315	-0.200	-0.132	
6.320	0.178	-0.117	
6.325	0.037	-0.078	
6.330	-0.226	-0.044	
6.335	0.017	-0.037	
6.340	0.110	-0.031	
6.345	-0.229	-0.022	
6.350	-0.124	-0.035	
6.355	0.197	-0.048	
6.360	-0.160	-0.040	
6.365	-0.273	-0.048	
6.370	-0.040	-0.077	
6.375	-0.148	-0.100	
6.380	-0.360	-0.125	
6.385	-0.178	-0.163	
6.390	-0.104	-0.189	
6.395	-0.345	-0.201	
6.400	-0.264	-0.218	
6.405	-0.078	-0.230	
6.410	-0.329	-0.228	
6.415	-0.401	-0.238	
6.420	-0.139	-0.257	
6.425	-0.168	-0.258	
6.430	-0.264	-0.245	
6.435	0.283	-0.213	
6.440	0.594	-0.116	
6.445	-0.075	0.018	
6.450	-0.180	0.092	
6.455	-0.200	0.083	
6.460	-0.573	0.009	
6.465	-0.746	-0.125	
6.470	-0.541	-0.288	
6.475	-0.543	-0.424	
6.480	-0.631	-0.517	
6.485	-0.337	-0.566	
6.490	-0.182	-0.555	
6.495	-0.343	-0.495	
6.500	-0.175	-0.422	
6.505	0.215	-0.330	
6.510	-0.093	-0.217	
6.515	-0.160	-0.127	
6.520	0.187	-0.070	
6.525	0.061	-0.016	
6.530	-0.130	0.021	
6.535	0.312	0.041	
6.540	0.445	0.087	
6.545	-0.015	0.148	
6.550	0.157	0.177	
6.555	0.547	0.198	
6.560	0.158	0.236	
6.565	0.049	0.254	
6.570	0.543	0.253	
6.575	0.418	0.277	
6.580	0.073	0.305	
6.585	0.570	0.314	
6.590	0.774	0.353	
6.595	0.357	0.421	
6.600	0.601	0.473	
6.605	0.971	0.528	
6.610	0.506	0.598	
6.615	0.364	0.631	
6.620	0.819	0.625	
6.625	0.569	0.625	
6.630	0.085	0.604	
6.635	0.363	0.533	
6.640	0.329	0.453	
6.645	-0.194	0.368	
6.650	-0.143	0.249	
6.655	0.099	0.127	
6.660	-0.221	0.036	
6.665	-0.311	-0.046	
6.670	-0.078	-0.120	
6.675	-0.191	-0.165	
6.680	-0.390	-0.195	
6.685	-0.159	-0.227	
6.690	-0.026	-0.234	
6.695	-0.308	-0.218	
6.700	-0.210	-0.210	
6.705	0.088	-0.196	
6.710	-0.178	-0.163	
6.715	-0.249	-0.141	
6.720	0.026	-0.134	
6.725	-0.093	-0.119	
6.730	-0.267	-0.109	
6.735	0.011	-0.113	
6.740	0.160	-0.098	
6.745	-0.209	-0.067	
6.750	-0.145	-0.058	
6.755	0.172	-0.058	
6.760	-0.160	-0.045	
6.765	-0.246	-0.049	
6.770	0.043	-0.070	
6.775	-0.137	-0.081	
6.780	-0.357	-0.099	
6.785	-0.169	-0.136	
6.790	-0.111	-0.167	
6.795	-0.374	-0.186	
6.800	-0.281	-0.214	
6.805	-0.070	-0.235	
6.810	-0.339	-0.236	
6.815	-0.407	-0.247	
6.820	-0.127	-0.266	
6.825	-0.165	-0.264	
6.830	-0.230	-0.246	
6.835	0.425	-0.201	
6.840	0.820	-0.075	
6.845	0.171	0.104	
6.850	-0.082	0.222	
6.855	-0.174	0.232	
6.860	-0.578	0.147	
6.865	-0.744	-0.017	
6.870	-0.514	-0.214	
6.875	-0.514	-0.377	
6.880	-0.590	-0.485	
6.885	-0.294	-0.541	
6.890	-0.093	-0.527	
6.895	-0.267	-0.458	
6.900	-0.090	-0.372	
6.905	0.314	-0.267	
6.910	-0.011	-0.142	
6.915	-0.049	-0.043	
6.920	0.472	0.030	
6.925	0.309	0.116	
6.930	-0.064	0.185	
6.935	0.329	0.208	
6.940	0.465	0.230	
6.945	-0.014	0.255	
6.950	0.189	0.250	
6.955	0.620	0.246	
6.960	0.283	0.278	
6.965	0.213	0.307	
6.970	0.758	0.333	
6.975	0.614	0.392	
6.980	0.325	0.455	
6.985	0.898	0.502	
6.990	1.069	0.580	
6.995	0.627	0.680	
7.000	0.881	0.751	
7.005	1.259	0.816	
7.010	0.791	0.891	
7.015	0.614	0.922	
7.020	1.018	0.908	
7.025	0.669	0.887	
7.030	0.190	0.830	
7.035	0.541	0.722	
7.040	0.546	0.620	
7.045	-0.055	0.528	
7.050	-0.026	0.404	
7.055	0.267	0.276	
7.060	-0.117	0.180	
7.065	-0.191	0.092	
7.070	0.134	0.015	
7.075	-0.082	-0.026	
7.080	-0.326	-0.057	
7.085	-0.133	-0.103	
7.090	-0.003	-0.133	
7.095	-0.268	-0.143	
7.100	-0.162	-0.153	
7.105	0.142	-0.151	
7.110	-0.172	-0.124	
7.115	-0.239	-0.109	
7.120	0.134	-0.105	
7.125	-0.032	-0.084	
7.130	-0.261	-0.067	
7.135	0.065	-0.069	
7.140	0.209	-0.053	
7.145	-0.171	-0.021	
7.150	-0.072	-0.011	
7.155	0.283	-0.006	
7.160	-0.076	0.018	
7.165	-0.180	0.023	
7.170	0.131	0.008	
7.175	-0.104	-0.002	
7.180	-0.339	-0.026	
7.185	-0.143	-0.075	
7.190	-0.113	-0.120	
7.195	-0.372	-0.154	
7.200	-0.242	-0.193	
7.205	-0.018	-0.217	
7.210	-0.305	-0.216	
7.215	-0.386	-0.222	
7.220	-0.151	-0.241	
7.225	-0.253	-0.249	
7.230	-0.282	-0.250	
7.235	0.494	-0.220	
7.240	0.925	-0.089	
7.245	0.366	0.117	
7.250	0.131	0.279	
7.255	-0.061	0.333	
7.260	-0.532	0.274	
7.265	-0.743	0.109	
7.270	-0.561	-0.112	
7.275	-0.579	-0.312	
7.280	-0.662	-0.463	
7.285	-0.329	-0.555	
7.290	-0.134	-0.565	
7.295	-0.302	-0.507	
7.300	-0.133	-0.425	
7.305	0.238	-0.322	
7.310	-0.098	-0.200	
7.315	-0.142	-0.108	
7.320	0.296	-0.047	
7.325	0.128	0.019	
7.330	-0.174	0.065	
7.335	0.158	0.073	
7.340	0.352	0.086	
7.345	-0.061	0.114	
7.350	0.142	0.123	
7.355	0.517	0.140	
7.360	0.151	0.183	
7.365	0.108	0.213	
7.370	0.625	0.235	
7.375	0.462	0.286	
7.380	0.168	0.337	
7.385	0.655	0.367	
7.390	0.800	0.420	
7.395	0.381	0.489	
7.400	0.622	0.534	
7.405	0.974	0.578	
7.410	0.500	0.634	
7.415	0.358	0.652	
7.420	0.748	0.632	
7.425	0.433	0.610	
7.430	0.029	0.563	
7.435	0.369	0.476	
7.440	0.334	0.396	
7.445	-0.168	0.323	
7.450	-0.104	0.223	
7.455	0.081	0.119	
7.460	-0.247	0.037	
7.465	-0.303	-0.043	
7.470	-0.061	-0.117	
7.475	-0.213	-0.161	
7.480	-0.418	-0.195	
7.485	-0.180	-0.232	
7.490	-0.131	-0.250	
7.495	-0.389	-0.251	
7.500	-0.268	-0.259	
7.505	-0.011	-0.259	
7.510	-0.256	-0.236	
7.515	-0.311	-0.220	
7.520	-0.082	-0.215	
7.525	-0.153	-0.203	
7.530	-0.302	-0.191	
7.535	-0.049	-0.187	
7.540	0.037	-0.167	
7.545	-0.246	-0.137	
7.550	-0.134	-0.124	
7.555	0.094	-0.114	
7.560	-0.220	-0.096	
7.565	-0.281	-0.098	
7.570	-0.058	-0.120	
7.575	-0.198	-0.136	
7.580	-0.406	-0.158	
7.585	-0.242	-0.198	
7.590	-0.197	-0.231	
7.595	-0.410	-0.253	
7.600	-0.314	-0.278	
7.605	-0.143	-0.294	
7.610	-0.343	-0.291	
7.615	-0.416	-0.293	
7.620	-0.220	-0.305	
7.625	-0.285	-0.307	
7.630	-0.375	-0.305	
7.635	0.079	-0.292	
7.640	0.509	-0.218	
7.645	0.105	-0.086	
7.650	0.026	0.029	
7.655	-0.113	0.082	
7.660	-0.549	0.059	
7.665	-0.726	-0.053	
7.670	-0.566	-0.216	
7.675	-0.637	-0.372	
7.680	-0.743	-0.499	
7.685	-0.444	-0.588	
7.690	-0.296	-0.612	
7.695	-0.444	-0.579	
7.700	-0.249	-0.522	
7.705	0.047	-0.439	
7.710	-0.212	-0.334	
7.715	-0.233	-0.249	
7.720	0.143	-0.186	
7.725	-0.008	-0.118	
7.730	-0.200	-0.067	
7.735	0.160	-0.040	
7.740	0.224	-0.004	
7.745	-0.207	0.033	
7.750	-0.050	0.034	
7.755	0.376	0.031	
7.760	0.012	0.057	
7.765	0.012	0.078	
7.770	0.521	0.100	
7.775	0.326	0.156	
7.780	0.000	0.209	
7.785	0.468	0.233	
7.790	0.619	0.274	
7.795	0.206	0.331	
7.800	0.495	0.369	
7.805	0.867	0.414	
7.810	0.434	0.483	
7.815	0.296	0.522	
7.820	0.715	0.525	
7.825	0.392	0.527	
7.830	-0.020	0.499	
7.835	0.380	0.427	
7.840	0.357	0.363	
7.845	-0.166	0.308	
7.850	-0.104	0.220	
7.855	0.065	0.122	
7.860	-0.285	0.039	
7.865	-0.351	-0.048	
7.870	-0.108	-0.133	
7.875	-0.215	-0.186	
7.880	-0.399	-0.221	
7.885	-0.183	-0.253	
7.890	-0.107	-0.262	
7.895	-0.358	-0.253	
7.900	-0.224	-0.250	
7.905	0.011	-0.239	
7.910	-0.261	-0.211	
7.915	-0.302	-0.196	
7.920	-0.005	-0.192	
7.925	-0.137	-0.176	
7.930	-0.317	-0.163	
7.935	-0.089	-0.166	
7.940	-0.002	-0.160	
7.945	-0.253	-0.143	
7.950	-0.142	-0.139	
7.955	0.088	-0.131	
7.960	-0.183	-0.110	
7.965	-0.223	-0.103	
7.970	0.023	-0.108	
7.975	-0.153	-0.106	
7.980	-0.331	-0.114	
7.985	-0.119	-0.139	
7.990	-0.092	-0.157	
7.995	-0.370	-0.168	
8.000	-0.274	-0.193	
8.005	-0.072	-0.216	
8.010	-0.319	-0.221	
8.015	-0.358	-0.232	
8.020	-0.145	-0.249	
8.025	-0.276	-0.254	
8.030	-0.357	-0.258	
8.035	0.161	-0.251	
8.040	0.567	-0.176	
8.045	0.178	-0.039	
8.050	0.154	0.085	
8.055	0.062	0.156	
8.060	-0.438	0.155	
8.065	-0.613	0.060	
8.070	-0.470	-0.096	
8.075	-0.569	-0.253	
8.080	-0.631	-0.387	
8.085	-0.331	-0.481	
8.090	-0.198	-0.507	
8.095	-0.326	-0.475	
8.100	-0.136	-0.417	
8.105	0.183	-0.331	
8.110	-0.101	-0.221	
8.115	-0.084	-0.131	
8.120	0.369	-0.058	
8.125	0.158	0.026	
8.130	-0.076	0.091	
8.135	0.375	0.123	
8.140	0.430	0.168	
8.145	-0.037	0.214	
8.150	0.277	0.226	
8.155	0.637	0.244	
8.160	0.255	0.291	
8.165	0.244	0.324	
8.170	0.715	0.348	
8.175	0.535	0.398	
8.180	0.279	0.444	
8.185	0.823	0.473	
8.190	0.956	0.533	
8.195	0.534	0.615	
8.200	0.776	0.671	
8.205	1.101	0.722	
8.210	0.751	0.785	
8.215	0.727	0.825	
8.220	1.137	0.847	
8.225	0.828	0.878	
8.230	0.393	0.878	
8.235	0.698	0.823	
8.240	0.672	0.757	
8.245	0.104	0.684	
8.250	0.229	0.573	
8.255	0.437	0.459	
8.260	-0.053	0.366	
8.265	-0.113	0.263	
8.270	0.235	0.162	
8.275	-0.015	0.098	
8.280	-0.218	0.048	
8.285	0.053	-0.004	
8.290	0.136	-0.028	
8.295	-0.168	-0.027	
8.300	-0.018	-0.032	
8.305	0.297	-0.024	
8.310	-0.067	0.008	
8.315	-0.090	0.025	
8.320	0.361	0.035	
8.325	0.175	0.070	
8.330	-0.114	0.102	
8.335	0.268	0.109	
8.340	0.285	0.125	
8.345	-0.089	0.144	
8.350	0.172	0.140	
8.355	0.485	0.146	
8.360	0.011	0.176	
8.365	-0.114	0.176	
8.370	0.230	0.144	
8.375	0.026	0.119	
8.380	-0.200	0.088	
8.385	0.056	0.042	
8.390	0.065	0.011	
8.395	-0.261	-0.010	
8.400	-0.151	-0.046	
8.405	0.062	-0.079	
8.410	-0.227	-0.092	
8.415	-0.258	-0.111	
8.420	-0.020	-0.136	
8.425	-0.183	-0.145	
8.430	-0.300	-0.154	
8.435	0.261	-0.154	
8.440	0.694	-0.084	
8.445	0.422	0.062	
8.450	0.500	0.216	
8.455	0.315	0.332	
8.460	-0.361	0.363	
8.465	-0.581	0.266	
8.470	-0.450	0.078	
8.475	-0.563	-0.123	
8.480	-0.650	-0.302	
8.485	-0.358	-0.436	
8.490	-0.210	-0.495	
8.495	-0.342	-0.484	
8.500	-0.154	-0.438	
8.505	0.291	-0.351	
8.510	0.000	-0.223	
8.515	-0.015	-0.107	
8.520	0.416	-0.012	
8.525	0.171	0.082	
8.530	-0.089	0.144	
8.535	0.363	0.165	
8.540	0.431	0.194	
8.545	-0.024	0.228	
8.550	0.189	0.229	
8.555	0.547	0.228	
8.560	0.215	0.255	
8.565	0.203	0.276	
8.570	0.657	0.294	
8.575	0.483	0.341	
8.580	0.238	0.387	
8.585	0.733	0.416	
8.590	0.848	0.472	
8.595	0.404	0.542	
8.600	0.701	0.586	
8.605	1.059	0.631	
8.610	0.634	0.697	
8.615	0.561	0.733	
8.620	0.966	0.742	
8.625	0.686	0.756	
8.630	0.271	0.743	
8.635	0.582	0.684	
8.640	0.524	0.619	
8.645	-0.046	0.546	
8.650	0.064	0.432	
8.655	0.230	0.311	
8.660	-0.178	0.210	
8.665	-0.250	0.104	
8.670	-0.002	0.001	
8.675	-0.182	-0.069	
8.680	-0.352	-0.124	
8.685	-0.130	-0.175	
8.690	-0.095	-0.201	
8.695	-0.337	-0.206	
8.700	-0.217	-0.216	
8.705	-0.017	-0.218	
8.710	-0.253	-0.202	
8.715	-0.267	-0.193	
8.720	0.015	-0.188	
8.725	-0.146	-0.169	
8.730	-0.305	-0.155	
8.735	-0.061	-0.158	
8.740	-0.040	-0.151	
8.745	-0.282	-0.140	
8.750	-0.139	-0.142	
8.755	0.058	-0.141	
8.760	-0.232	-0.126	
8.765	-0.203	-0.123	
8.770	0.094	-0.124	
8.775	-0.140	-0.109	
8.780	-0.323	-0.105	
8.785	-0.120	-0.125	
8.790	-0.137	-0.145	
8.795	-0.381	-0.163	
8.800	-0.271	-0.196	
8.805	-0.137	-0.225	
8.810	-0.370	-0.240	
8.815	-0.389	-0.262	
8.820	-0.198	-0.286	
8.825	-0.355	-0.298	
8.830	-0.465	-0.312	
8.835	-0.119	-0.326	
8.840	0.218	-0.295	
8.845	0.099	-0.207	
8.850	0.361	-0.089	
8.855	0.297	0.037	
8.860	-0.348	0.120	
8.865	-0.564	0.094	
8.870	-0.497	-0.027	
8.875	-0.686	-0.185	
8.880	-0.817	-0.352	
8.885	-0.528	-0.501	
8.890	-0.399	-0.587	
8.895	-0.509	-0.605	
8.900	-0.308	-0.582	
8.905	-0.113	-0.521	
8.910	-0.267	-0.431	
8.915	-0.195	-0.346	
8.920	0.203	-0.262	
8.925	-0.044	-0.164	
8.930	-0.200	-0.090	
8.935	0.218	-0.047	
8.940	0.242	0.005	
8.945	-0.127	0.056	
8.950	0.120	0.076	
8.955	0.422	0.096	
8.960	-0.015	0.132	
8.965	-0.024	0.143	
8.970	0.500	0.142	
8.975	0.329	0.175	
8.980	0.049	0.215	
8.985	0.530	0.239	
8.990	0.662	0.288	
8.995	0.323	0.360	
9.000	0.695	0.421	
9.005	1.041	0.501	
9.010	0.628	0.604	
9.015	0.623	0.679	
9.020	1.041	0.724	
9.025	0.755	0.773	
9.030	0.335	0.787	
9.035	0.631	0.744	
9.040	0.552	0.684	
9.045	-0.012	0.608	
9.050	0.073	0.486	
9.055	0.283	0.356	
9.060	-0.156	0.248	
9.065	-0.212	0.139	
9.070	0.003	0.032	
9.075	-0.192	-0.044	
9.080	-0.375	-0.109	
9.085	-0.149	-0.171	
9.090	-0.136	-0.207	
9.095	-0.383	-0.224	
9.100	-0.262	-0.244	
9.105	-0.093	-0.256	
9.110	-0.293	-0.248	
9.115	-0.287	-0.243	
9.120	-0.037	-0.238	
9.125	-0.185	-0.216	
9.130	-0.339	-0.200	
9.135	-0.111	-0.200	
9.140	-0.038	-0.191	
9.145	-0.252	-0.171	
9.150	-0.095	-0.159	
9.155	0.142	-0.138	
9.160	-0.165	-0.101	
9.165	-0.165	-0.080	
9.170	0.149	-0.071	
9.175	-0.116	-0.053	
9.180	-0.331	-0.053	
9.185	-0.143	-0.086	
9.190	-0.128	-0.121	
9.195	-0.351	-0.150	
9.200	-0.220	-0.185	
9.205	-0.075	-0.208	
9.210	-0.326	-0.213	
9.215	-0.335	-0.225	
9.220	-0.101	-0.240	
9.225	-0.274	-0.241	
9.230	-0.424	-0.246	
9.235	-0.178	-0.263	
9.240	0.000	-0.259	
9.245	-0.034	-0.219	
9.250	0.587	-0.135	
9.255	0.817	0.022	
9.260	-0.056	0.194	
9.265	-0.337	0.260	
9.270	-0.322	0.196	
9.275	-0.576	0.057	
9.280	-0.762	-0.126	
9.285	-0.526	-0.313	
9.290	-0.442	-0.452	
9.295	-0.529	-0.526	
9.300	-0.271	-0.547	
9.305	0.015	-0.505	
9.310	-0.210	-0.412	
9.315	-0.156	-0.316	
9.320	0.308	-0.221	
9.325	0.059	-0.109	
9.330	-0.128	-0.020	
9.335	0.357	0.035	
9.340	0.381	0.100	
9.345	-0.078	0.161	
9.350	0.224	0.183	
9.355	0.585	0.203	
9.360	0.186	0.249	
9.365	0.183	0.278	
9.370	0.630	0.296	
9.375	0.395	0.334	
9.380	0.154	0.364	
9.385	0.628	0.373	
9.390	0.672	0.405	
9.395	0.291	0.450	
9.400	0.617	0.476	
9.405	0.954	0.515	
9.410	0.619	0.584	
9.415	0.669	0.642	
9.420	1.099	0.694	
9.425	0.784	0.759	
9.430	0.428	0.794	
9.435	0.799	0.777	
9.440	0.704	0.751	
9.445	0.175	0.710	
9.450	0.296	0.621	
9.455	0.433	0.518	
9.460	-0.085	0.421	
9.465	-0.130	0.302	
9.470	0.154	0.179	
9.475	-0.130	0.088	
9.480	-0.271	0.009	
9.485	0.008	-0.062	
9.490	-0.012	-0.098	
9.495	-0.297	-0.112	
9.500	-0.151	-0.133	
9.505	0.068	-0.143	
9.510	-0.212	-0.133	
9.515	-0.226	-0.130	
9.520	-0.002	-0.135	
9.525	-0.130	-0.129	
9.530	-0.244	-0.126	
9.535	0.041	-0.127	
9.540	0.020	-0.111	
9.545	-0.253	-0.091	
9.550	-0.075	-0.090	
9.555	0.198	-0.082	
9.560	-0.139	-0.055	
9.565	-0.145	-0.042	
9.570	0.177	-0.039	
9.575	-0.050	-0.023	
9.580	-0.224	-0.018	
9.585	0.015	-0.034	
9.590	-0.043	-0.047	
9.595	-0.331	-0.063	
9.600	-0.230	-0.102	
9.605	-0.069	-0.143	
9.610	-0.271	-0.166	
9.615	-0.264	-0.187	
9.620	-0.044	-0.201	
9.625	-0.236	-0.199	
9.630	-0.393	-0.203	
9.635	-0.145	-0.221	
9.640	-0.049	-0.223	
9.645	-0.157	-0.201	
9.650	0.369	-0.153	
9.655	0.771	-0.039	
9.660	0.148	0.119	
9.665	-0.172	0.217	
9.670	-0.213	0.205	
9.675	-0.528	0.110	
9.680	-0.733	-0.049	
9.685	-0.543	-0.236	
9.690	-0.471	-0.390	
9.695	-0.564	-0.488	
9.700	-0.363	-0.537	
9.705	-0.146	-0.528	
9.710	-0.259	-0.468	
9.715	-0.146	-0.390	
9.720	0.319	-0.290	
9.725	0.084	-0.161	
9.730	-0.131	-0.052	
9.735	0.274	0.016	
9.740	0.299	0.080	
9.745	-0.087	0.132	
9.750	0.126	0.145	
9.755	0.389	0.151	
9.760	-0.046	0.165	
9.765	0.029	0.157	
9.770	0.588	0.151	
9.775	0.389	0.194	
9.780	0.149	0.249	
9.785	0.610	0.290	
9.790	0.631	0.349	
9.795	0.262	0.412	
9.800	0.605	0.448	
9.805	0.904	0.493	
9.810	0.491	0.558	
9.815	0.495	0.597	
9.820	0.866	0.614	
9.825	0.691	0.644	
9.830	0.505	0.667	
9.835	0.867	0.673	
9.840	0.738	0.690	
9.845	0.142	0.685	
9.850	0.273	0.616	
9.855	0.450	0.521	
9.860	-0.046	0.430	
9.865	-0.110	0.317	
9.870	0.181	0.200	
9.875	-0.113	0.111	
9.880	-0.290	0.032	
9.885	-0.085	-0.049	
9.890	-0.082	-0.105	
9.895	-0.265	-0.137	
9.900	-0.117	-0.161	
9.905	0.104	-0.161	
9.910	-0.201	-0.137	
9.915	-0.191	-0.122	
9.920	0.104	-0.115	
9.925	-0.069	-0.092	
9.930	-0.213	-0.075	
9.935	0.084	-0.072	
9.940	0.082	-0.056	
9.945	-0.204	-0.035	
9.950	-0.002	-0.034	
9.955	0.302	-0.023	
9.960	-0.079	0.011	
9.965	-0.079	0.029	
9.970	0.261	0.033	
9.975	-0.031	0.048	
9.980	-0.238	0.045	
9.985	-0.052	0.009	
9.990	-0.052	-0.028	
9.995	-0.276	-0.061	
10.000	-0.133	-0.100	
10.005	0.006	-0.126	
10.010	-0.296	-0.134	
10.015	-0.273	-0.153	
10.020	-0.015	-0.174	
10.025	-0.194	-0.175	
10.030	-0.357	-0.178	
10.035	-0.156	-0.196	
10.040	-0.131	-0.205	
10.045	-0.246	-0.203	
10.050	0.206	-0.183	
10.055	0.683	-0.101	
10.060	0.178	0.039	
10.065	-0.075	0.145	
10.070	-0.078	0.168	
10.075	-0.428	0.118	
10.080	-0.668	-0.002	
10.085	-0.502	-0.165	
10.090	-0.471	-0.314	
10.095	-0.595	-0.423	
10.100	-0.370	-0.493	
10.105	-0.140	-0.504	
10.110	-0.277	-0.459	
10.115	-0.209	-0.394	
10.120	0.160	-0.314	
10.125	-0.053	-0.214	
10.130	-0.182	-0.131	
10.135	0.287	-0.072	
10.140	0.319	0.003	
10.145	-0.064	0.079	
10.150	0.213	0.120	
10.155	0.463	0.157	
10.160	0.015	0.199	
10.165	0.032	0.207	
10.170	0.485	0.199	
10.175	0.251	0.216	
10.180	0.006	0.230	
10.185	0.474	0.229	
10.190	0.515	0.254	
10.195	0.158	0.296	
10.200	0.501	0.324	
10.205	0.893	0.372	
10.210	0.565	0.459	
10.215	0.642	0.540	
10.220	1.052	0.614	
10.225	0.744	0.698	
10.230	0.436	0.748	
10.235	0.793	0.745	
10.240	0.651	0.730	
10.245	0.096	0.689	
10.250	0.326	0.595	
10.255	0.441	0.494	
10.260	-0.107	0.404	
10.265	-0.154	0.289	
10.270	0.163	0.167	
10.275	-0.084	0.080	
10.280	-0.249	0.011	
10.285	0.008	-0.051	
10.290	-0.049	-0.086	
10.295	-0.316	-0.105	
10.300	-0.156	-0.134	
10.305	0.000	-0.153	
10.310	-0.268	-0.153	
10.315	-0.210	-0.159	
10.320	0.111	-0.160	
10.325	-0.124	-0.136	
10.330	-0.238	-0.116	
10.335	0.061	-0.110	
10.340	-0.006	-0.092	
10.345	-0.250	-0.076	
10.350	-0.040	-0.079	
10.355	0.270	-0.069	
10.360	-0.122	-0.033	
10.365	-0.102	-0.014	
10.370	0.247	-0.005	
10.375	-0.095	0.014	
10.380	-0.268	0.011	
10.385	-0.023	-0.023	
10.390	-0.060	-0.052	
10.395	-0.339	-0.079	
10.400	-0.229	-0.123	
10.405	-0.130	-0.164	
10.410	-0.332	-0.192	
10.415	-0.311	-0.221	
10.420	-0.090	-0.243	
10.425	-0.264	-0.244	
10.430	-0.409	-0.246	
10.435	-0.221	-0.262	
10.440	-0.238	-0.272	
10.445	-0.392	-0.277	
10.450	-0.079	-0.279	
10.455	0.567	-0.228	
10.460	0.255	-0.100	
10.465	0.111	0.036	
10.470	0.084	0.122	
10.475	-0.409	0.136	
10.480	-0.726	0.050	
10.485	-0.610	-0.115	
10.490	-0.596	-0.292	
10.495	-0.707	-0.441	
10.500	-0.479	-0.548	
10.505	-0.267	-0.589	
10.510	-0.381	-0.564	
10.515	-0.259	-0.507	
10.520	0.136	-0.421	
10.525	-0.060	-0.303	
10.530	-0.177	-0.197	
10.535	0.201	-0.118	
10.540	0.151	-0.040	
10.545	-0.168	0.021	
10.550	0.113	0.044	
10.555	0.398	0.068	
10.560	-0.050	0.107	
10.565	-0.026	0.119	
10.570	0.480	0.120	
10.575	0.253	0.153	
10.580	0.068	0.190	
10.585	0.559	0.217	
10.590	0.561	0.271	
10.595	0.221	0.335	
10.600	0.582	0.378	
10.605	0.893	0.434	
10.610	0.508	0.515	
10.615	0.599	0.575	
10.620	1.049	0.625	
10.625	0.758	0.694	
10.630	0.497	0.741	
10.635	0.953	0.752	
10.640	0.855	0.769	
10.645	0.343	0.774	
10.650	0.556	0.731	
10.655	0.666	0.672	
10.660	0.050	0.609	
10.665	-0.055	0.498	
10.670	0.239	0.360	
10.675	-0.072	0.242	
10.680	-0.244	0.132	
10.685	-0.031	0.027	
10.690	-0.101	-0.049	
10.695	-0.348	-0.104	
10.700	-0.201	-0.158	
10.705	-0.027	-0.191	
10.710	-0.287	-0.197	
10.715	-0.279	-0.204	
10.720	-0.024	-0.210	
10.725	-0.169	-0.197	
10.730	-0.291	-0.185	
10.735	-0.031	-0.181	
10.740	-0.043	-0.163	
10.745	-0.261	-0.142	
10.750	-0.055	-0.134	
10.755	0.171	-0.115	
10.760	-0.183	-0.079	
10.765	-0.162	-0.064	
10.770	0.186	-0.059	
10.775	-0.078	-0.040	
10.780	-0.223	-0.032	
10.785	0.040	-0.044	
10.790	-0.029	-0.050	
10.795	-0.294	-0.058	
10.800	-0.162	-0.088	
10.805	-0.081	-0.118	
10.810	-0.357	-0.142	
10.815	-0.328	-0.180	
10.820	-0.095	-0.216	
10.825	-0.276	-0.231	
10.830	-0.398	-0.244	
10.835	-0.188	-0.263	
10.840	-0.268	-0.272	
10.845	-0.482	-0.282	
10.850	-0.210	-0.301	
10.855	0.273	-0.284	
10.860	0.241	-0.197	
10.865	0.462	-0.061	
10.870	0.733	0.104	
10.875	-0.049	0.253	
10.880	-0.496	0.286	
10.885	-0.485	0.179	
10.890	-0.601	-0.002	
10.895	-0.805	-0.205	
10.900	-0.610	-0.398	
10.905	-0.406	-0.531	
10.910	-0.514	-0.588	
10.915	-0.375	-0.591	
10.920	-0.072	-0.545	
10.925	-0.166	-0.453	
10.930	-0.198	-0.352	
10.935	0.241	-0.253	
10.940	0.227	-0.133	
10.945	-0.142	-0.025	
10.950	0.078	0.034	
10.955	0.380	0.075	
10.960	0.003	0.120	
10.965	0.076	0.141	
10.970	0.486	0.155	
10.975	0.181	0.190	
10.980	-0.023	0.210	
10.985	0.457	0.209	
10.990	0.433	0.231	
10.995	0.084	0.264	
11.000	0.399	0.277	
11.005	0.707	0.306	
11.010	0.422	0.367	
11.015	0.562	0.427	
11.020	1.008	0.495	
11.025	0.730	0.590	
11.030	0.500	0.665	
11.035	0.928	0.701	
11.040	0.840	0.738	
11.045	0.378	0.757	
11.050	0.578	0.727	
11.055	0.654	0.679	
11.060	0.093	0.621	
11.065	0.067	0.520	
11.070	0.340	0.401	
11.075	-0.089	0.298	
11.080	-0.268	0.188	
11.085	-0.015	0.070	
11.090	-0.084	-0.019	
11.095	-0.337	-0.083	
11.100	-0.204	-0.144	
11.105	-0.075	-0.185	
11.110	-0.297	-0.201	
11.115	-0.277	-0.216	
11.120	-0.081	-0.226	
11.125	-0.250	-0.221	
11.130	-0.331	-0.220	
11.135	-0.056	-0.224	
11.140	-0.090	-0.209	
11.145	-0.302	-0.188	
11.150	-0.133	-0.181	
11.155	-0.015	-0.171	
11.160	-0.296	-0.156	
11.165	-0.209	-0.157	
11.170	0.122	-0.156	
11.175	-0.133	-0.131	
11.180	-0.238	-0.113	
11.185	0.078	-0.107	
11.190	-0.027	-0.090	
11.195	-0.322	-0.078	
11.200	-0.171	-0.097	
11.205	-0.098	-0.124	
11.210	-0.355	-0.147	
11.215	-0.328	-0.184	
11.220	-0.146	-0.221	
11.225	-0.314	-0.242	
11.230	-0.406	-0.262	
11.235	-0.188	-0.284	
11.240	-0.255	-0.290	
11.245	-0.465	-0.293	
11.250	-0.299	-0.309	
11.255	-0.114	-0.314	
11.260	-0.207	-0.293	
11.265	0.097	-0.248	
11.270	0.660	-0.150	
11.275	0.128	-0.003	
11.280	-0.352	0.096	
11.285	-0.383	0.082	
11.290	-0.587	-0.018	
11.295	-0.846	-0.175	
11.300	-0.698	-0.357	
11.305	-0.511	-0.508	
11.310	-0.585	-0.595	
11.315	-0.453	-0.626	
11.320	-0.168	-0.603	
11.325	-0.253	-0.528	
11.330	-0.300	-0.439	
11.335	0.015	-0.353	
11.340	-0.006	-0.258	
11.345	-0.252	-0.175	
11.350	-0.026	-0.127	
11.355	0.247	-0.082	
11.360	-0.117	-0.029	
11.365	-0.069	-0.000	
11.370	0.299	0.016	
11.375	-0.012	0.045	
11.380	-0.113	0.058	
11.385	0.346	0.059	
11.390	0.270	0.088	
11.395	-0.040	0.125	
11.400	0.375	0.146	
11.405	0.613	0.190	
11.410	0.206	0.261	
11.415	0.322	0.309	
11.420	0.773	0.351	
11.425	0.497	0.415	
11.430	0.352	0.468	
11.435	0.848	0.503	
11.440	0.756	0.556	
11.445	0.323	0.603	
11.450	0.555	0.606	
11.455	0.602	0.589	
11.460	0.046	0.555	
11.465	0.043	0.470	
11.470	0.328	0.363	
11.475	-0.111	0.270	
11.480	-0.261	0.167	
11.485	-0.009	0.056	
11.490	-0.116	-0.027	
11.495	-0.355	-0.090	
11.500	-0.229	-0.154	
11.505	-0.171	-0.202	
11.510	-0.398	-0.233	
11.515	-0.314	-0.264	
11.520	-0.119	-0.284	
11.525	-0.300	-0.280	
11.530	-0.404	-0.279	
11.535	-0.172	-0.286	
11.540	-0.172	-0.279	
11.545	-0.345	-0.264	
11.550	-0.186	-0.256	
11.555	-0.073	-0.241	
11.560	-0.332	-0.220	
11.565	-0.273	-0.216	
11.570	-0.020	-0.215	
11.575	-0.204	-0.199	
11.580	-0.299	-0.188	
11.585	-0.090	-0.189	
11.590	-0.133	-0.183	
11.595	-0.335	-0.178	
11.600	-0.192	-0.189	
11.605	-0.124	-0.198	
11.610	-0.381	-0.204	
11.615	-0.366	-0.227	
11.620	-0.180	-0.256	
11.625	-0.339	-0.272	
11.630	-0.432	-0.289	
11.635	-0.236	-0.311	
11.640	-0.291	-0.319	
11.645	-0.471	-0.324	
11.650	-0.294	-0.337	
11.655	-0.154	-0.337	
11.660	-0.305	-0.317	
11.665	-0.110	-0.289	
11.670	0.471	-0.224	
11.675	0.172	-0.105	
11.680	-0.209	0.001	
11.685	-0.218	0.032	
11.690	-0.456	-0.010	
11.695	-0.761	-0.116	
11.700	-0.645	-0.267	
11.705	-0.494	-0.410	
11.710	-0.627	-0.509	
11.715	-0.509	-0.568	
11.720	-0.223	-0.578	
11.725	-0.311	-0.535	
11.730	-0.366	-0.471	
11.735	-0.049	-0.403	
11.740	-0.024	-0.317	
11.745	-0.261	-0.233	
11.750	-0.011	-0.175	
11.755	0.218	-0.117	
11.760	-0.148	-0.054	
11.765	-0.075	-0.020	
11.770	0.326	0.002	
11.775	0.017	0.039	
11.780	-0.105	0.062	
11.785	0.323	0.068	
11.790	0.201	0.093	
11.795	-0.072	0.118	
11.800	0.360	0.128	
11.805	0.619	0.167	
11.810	0.187	0.238	
11.815	0.290	0.288	
11.820	0.709	0.328	
11.825	0.444	0.386	
11.830	0.355	0.433	
11.835	0.844	0.469	
11.840	0.729	0.528	
11.845	0.288	0.579	
11.850	0.604	0.585	
11.855	0.663	0.580	
11.860	0.073	0.563	
11.865	0.186	0.496	
11.870	0.498	0.416	
11.875	0.014	0.354	
11.880	-0.178	0.275	
11.885	0.110	0.174	
11.890	-0.075	0.091	
11.895	-0.297	0.018	
11.900	-0.081	-0.056	
11.905	0.065	-0.100	
11.910	-0.265	-0.113	
11.915	-0.226	-0.131	
11.920	-0.061	-0.151	
11.925	-0.268	-0.162	
11.930	-0.302	-0.179	
11.935	0.012	-0.194	
11.940	-0.017	-0.179	
11.945	-0.224	-0.150	
11.950	0.035	-0.128	
11.955	0.177	-0.092	
11.960	-0.182	-0.048	
11.965	-0.107	-0.031	
11.970	0.226	-0.025	
11.975	-0.104	-0.006	
11.980	-0.198	-0.004	
11.985	0.133	-0.019	
11.990	-0.067	-0.023	
11.995	-0.302	-0.035	
12.000	-0.110	-0.070	
12.005	0.027	-0.097	
12.010	-0.264	-0.108	
12.015	-0.223	-0.126	
12.020	-0.043	-0.147	
12.025	-0.262	-0.156	
12.030	-0.308	-0.172	
12.035	-0.035	-0.190	
12.040	-0.130	-0.188	
12.045	-0.366	-0.182	
12.050	-0.218	-0.196	
12.055	-0.143	-0.210	
12.060	-0.355	-0.218	
12.065	-0.128	-0.227	
12.070	0.534	-0.193	
12.075	0.351	-0.081	
12.080	0.027	0.047	
12.085	0.050	0.122	
12.090	-0.320	0.128	
12.095	-0.657	0.050	
12.100	-0.561	-0.099	
12.105	-0.477	-0.258	
12.110	-0.631	-0.388	
12.115	-0.476	-0.482	
12.120	-0.185	-0.521	
12.125	-0.267	-0.495	
12.130	-0.271	-0.437	
12.135	0.166	-0.357	
12.140	0.154	-0.242	
12.145	-0.137	-0.125	
12.150	0.216	-0.040	
12.155	0.407	0.041	
12.160	-0.084	0.117	
12.165	0.107	0.149	
12.170	0.543	0.168	
12.175	0.198	0.211	
12.180	0.096	0.240	
12.185	0.570	0.255	
12.190	0.436	0.292	
12.195	0.094	0.328	
12.200	0.517	0.337	
12.205	0.697	0.364	
12.210	0.294	0.411	
12.215	0.480	0.440	
12.220	0.944	0.475	
12.225	0.623	0.542	
12.230	0.503	0.599	
12.235	1.021	0.639	
12.240	0.855	0.698	
12.245	0.506	0.747	
12.250	0.925	0.762	
12.255	1.017	0.785	
12.260	0.480	0.810	
12.265	0.517	0.788	
12.270	0.779	0.737	
12.275	0.268	0.684	
12.280	-0.040	0.591	
12.285	0.300	0.459	
12.290	0.131	0.341	
12.295	-0.198	0.237	
12.300	-0.008	0.129	
12.305	0.111	0.048	
12.310	-0.221	-0.001	
12.315	-0.151	-0.047	
12.320	0.189	-0.077	
12.325	-0.105	-0.071	
12.330	-0.197	-0.066	
12.335	0.213	-0.064	
12.340	0.130	-0.035	
12.345	-0.182	-0.000	
12.350	0.093	0.010	
12.355	0.290	0.027	
12.360	-0.120	0.056	
12.365	-0.006	0.061	
12.370	0.386	0.065	
12.375	-0.024	0.088	
12.380	-0.146	0.093	
12.385	0.389	0.081	
12.390	0.315	0.104	
12.395	-0.069	0.140	
12.400	0.227	0.150	
12.405	0.308	0.160	
12.410	-0.168	0.166	
12.415	-0.128	0.131	
12.420	0.189	0.079	
12.425	-0.127	0.045	
12.430	-0.221	0.006	
12.435	0.123	-0.034	
12.440	-0.012	-0.047	
12.445	-0.255	-0.052	
12.450	-0.063	-0.072	
12.455	0.017	-0.085	
12.460	-0.247	-0.089	
12.465	-0.023	-0.097	
12.470	0.742	-0.063	
12.475	0.655	0.064	
12.480	0.399	0.227	
12.485	0.441	0.353	
12.490	-0.159	0.401	
12.495	-0.546	0.332	
12.500	-0.497	0.156	
12.505	-0.450	-0.051	
12.510	-0.607	-0.236	
12.515	-0.430	-0.380	
12.520	-0.120	-0.454	
12.525	-0.229	-0.448	
12.530	-0.233	-0.400	
12.535	0.197	-0.325	
12.540	0.136	-0.215	
12.545	-0.117	-0.105	
12.550	0.247	-0.025	
12.555	0.329	0.052	
12.560	-0.060	0.119	
12.565	0.184	0.148	
12.570	0.567	0.176	
12.575	0.238	0.229	
12.580	0.143	0.267	
12.585	0.605	0.289	
12.590	0.495	0.332	
12.595	0.166	0.373	
12.600	0.596	0.390	
12.605	0.765	0.424	
12.610	0.291	0.474	
12.615	0.471	0.495	
12.620	0.936	0.514	
12.625	0.614	0.565	
12.630	0.514	0.609	
12.635	1.008	0.641	
12.640	0.902	0.697	
12.645	0.540	0.750	
12.650	0.919	0.772	
12.655	0.976	0.795	
12.660	0.366	0.809	
12.665	0.357	0.761	
12.670	0.646	0.677	
12.675	0.126	0.593	
12.680	-0.070	0.480	
12.685	0.317	0.350	
12.690	0.065	0.251	
12.695	-0.241	0.165	
12.700	-0.069	0.070	
12.705	-0.044	-0.009	
12.710	-0.297	-0.067	
12.715	-0.207	-0.123	
12.720	-0.014	-0.161	
12.725	-0.250	-0.172	
12.730	-0.297	-0.183	
12.735	0.001	-0.194	
12.740	-0.110	-0.182	
12.745	-0.299	-0.166	
12.750	-0.076	-0.164	
12.755	0.035	-0.152	
12.760	-0.244	-0.130	
12.765	-0.114	-0.121	
12.770	0.226	-0.106	
12.775	-0.124	-0.069	
12.780	-0.203	-0.048	
12.785	0.125	-0.048	
12.790	0.014	-0.036	
12.795	-0.213	-0.027	
12.800	-0.003	-0.036	
12.805	0.008	-0.044	
12.810	-0.306	-0.053	
12.815	-0.229	-0.087	
12.820	-0.075	-0.126	
12.825	-0.317	-0.154	
12.830	-0.370	-0.189	
12.835	-0.134	-0.226	
12.840	-0.230	-0.243	
12.845	-0.430	-0.254	
12.850	-0.281	-0.275	
12.855	-0.253	-0.293	
12.860	-0.479	-0.306	
12.865	-0.305	-0.325	
12.870	0.158	-0.318	
12.875	0.143	-0.249	
12.880	0.242	-0.137	
12.885	0.527	-0.003	
12.890	-0.110	0.118	
12.895	-0.579	0.143	
12.900	-0.599	0.043	
12.905	-0.650	-0.126	
12.910	-0.857	-0.313	
12.915	-0.698	-0.489	
12.920	-0.430	-0.608	
12.925	-0.523	-0.651	
12.930	-0.505	-0.643	
12.935	-0.215	-0.601	
12.940	-0.221	-0.523	
12.945	-0.319	-0.433	
12.950	-0.050	-0.351	
12.955	0.053	-0.263	
12.960	-0.215	-0.178	
12.965	-0.085	-0.125	
12.970	0.250	-0.082	
12.975	-0.114	-0.032	
12.980	-0.156	-0.008	
12.985	0.258	-0.002	
12.990	0.084	0.022	
12.995	-0.185	0.040	
13.000	0.168	0.037	
13.005	0.326	0.050	
13.010	-0.029	0.084	
13.015	0.221	0.108	
13.020	0.643	0.148	
13.025	0.282	0.223	
13.030	0.166	0.282	
13.035	0.730	0.321	
13.040	0.668	0.387	
13.045	0.340	0.459	
13.050	0.751	0.506	
13.055	0.846	0.560	
13.060	0.280	0.609	
13.065	0.319	0.600	
13.070	0.532	0.552	
13.075	-0.011	0.490	
13.080	-0.172	0.384	
13.085	0.102	0.250	
13.090	-0.105	0.134	
13.095	-0.339	0.032	
13.100	-0.154	-0.067	
13.105	-0.131	-0.140	
13.110	-0.395	-0.187	
13.115	-0.334	-0.234	
13.120	-0.160	-0.270	
13.125	-0.348	-0.284	
13.130	-0.410	-0.297	
13.135	-0.185	-0.311	
13.140	-0.246	-0.308	
13.145	-0.389	-0.298	
13.150	-0.183	-0.294	
13.155	-0.114	-0.278	
13.160	-0.329	-0.253	
13.165	-0.200	-0.239	
13.170	0.102	-0.217	
13.175	-0.168	-0.173	
13.180	-0.233	-0.142	
13.185	0.081	-0.125	
13.190	-0.079	-0.101	
13.195	-0.290	-0.088	
13.200	-0.098	-0.100	
13.205	-0.067	-0.113	
13.210	-0.339	-0.125	
13.215	-0.290	-0.155	
13.220	-0.140	-0.190	
13.225	-0.360	-0.215	
13.230	-0.406	-0.246	
13.235	-0.212	-0.280	
13.240	-0.328	-0.298	
13.245	-0.456	-0.313	
13.250	-0.236	-0.331	
13.255	-0.204	-0.331	
13.260	-0.468	-0.321	
13.265	-0.384	-0.327	
13.270	-0.127	-0.333	
13.275	-0.175	-0.312	
13.280	0.070	-0.263	
13.285	0.640	-0.162	
13.290	0.157	-0.013	
13.295	-0.424	0.087	
13.300	-0.485	0.066	
13.305	-0.595	-0.048	
13.310	-0.889	-0.214	
13.315	-0.799	-0.402	
13.320	-0.541	-0.560	
13.325	-0.617	-0.650	
13.330	-0.564	-0.682	
13.335	-0.242	-0.664	
13.340	-0.255	-0.592	
13.345	-0.366	-0.500	
13.350	-0.076	-0.411	
13.355	0.070	-0.312	
13.360	-0.213	-0.213	
13.365	-0.093	-0.145	
13.370	0.256	-0.092	
13.375	-0.098	-0.034	
13.380	-0.159	-0.004	
13.385	0.226	0.003	
13.390	0.056	0.022	
13.395	-0.178	0.035	
13.400	0.218	0.031	
13.405	0.384	0.053	
13.410	-0.032	0.098	
13.415	0.201	0.126	
13.420	0.570	0.160	
13.425	0.192	0.218	
13.430	0.130	0.256	
13.435	0.646	0.278	
13.440	0.634	0.333	
13.445	0.412	0.405	
13.450	0.829	0.472	
13.455	0.857	0.552	
13.460	0.325	0.622	
13.465	0.462	0.633	
13.470	0.698	0.611	
13.475	0.171	0.581	
13.480	-0.055	0.504	
13.485	0.206	0.386	
13.490	-0.089	0.269	
13.495	-0.305	0.149	
13.500	-0.089	0.026	
13.505	-0.055	-0.064	
13.510	-0.343	-0.121	
13.515	-0.277	-0.174	
13.520	-0.081	-0.213	
13.525	-0.306	-0.227	
13.530	-0.389	-0.242	
13.535	-0.116	-0.260	
13.540	-0.186	-0.258	
13.545	-0.343	-0.248	
13.550	-0.114	-0.243	
13.555	-0.063	-0.225	
13.560	-0.335	-0.201	
13.565	-0.218	-0.196	
13.570	0.020	-0.192	
13.575	-0.246	-0.174	
13.580	-0.290	-0.168	
13.585	0.078	-0.169	
13.590	-0.064	-0.147	
13.595	-0.265	-0.124	
13.600	0.001	-0.117	
13.605	0.110	-0.099	
13.610	-0.229	-0.072	
13.615	-0.142	-0.068	
13.620	0.055	-0.075	
13.625	-0.264	-0.078	
13.630	-0.317	-0.102	
13.635	-0.082	-0.140	
13.640	-0.207	-0.164	
13.645	-0.393	-0.187	
13.650	-0.200	-0.219	
13.655	-0.128	-0.237	
13.660	-0.377	-0.240	
13.665	-0.291	-0.252	
13.670	-0.087	-0.259	
13.675	-0.224	-0.247	
13.680	-0.078	-0.223	
13.685	0.683	-0.157	
13.690	0.567	-0.009	
13.695	-0.049	0.146	
13.700	-0.102	0.213	
13.705	-0.302	0.181	
13.710	-0.665	0.068	
13.715	-0.631	-0.104	
13.720	-0.460	-0.280	
13.725	-0.570	-0.412	
13.730	-0.517	-0.499	
13.735	-0.215	-0.534	
13.740	-0.192	-0.505	
13.745	-0.262	-0.437	
13.750	0.128	-0.350	
13.755	0.312	-0.229	
13.760	-0.070	-0.095	
13.765	0.200	0.005	
13.770	0.570	0.095	
13.775	0.152	0.190	
13.780	0.070	0.246	
13.785	0.558	0.267	
13.790	0.413	0.302	
13.795	0.108	0.332	
13.800	0.550	0.340	
13.805	0.613	0.365	
13.810	0.265	0.405	
13.815	0.581	0.429	
13.820	0.924	0.470	
13.825	0.494	0.538	
13.830	0.453	0.582	
13.835	0.979	0.605	
13.840	0.808	0.654	
13.845	0.547	0.702	
13.850	1.005	0.730	
13.855	1.062	0.776	
13.860	0.553	0.826	
13.865	0.733	0.831	
13.870	0.994	0.820	
13.875	0.505	0.812	
13.880	0.303	0.764	
13.885	0.614	0.680	
13.890	0.305	0.597	
13.895	-0.090	0.499	
13.900	0.215	0.374	
13.905	0.216	0.269	
13.910	-0.165	0.190	
13.915	-0.064	0.108	
13.920	0.200	0.044	
13.925	-0.174	0.011	
13.930	-0.213	-0.023	
13.935	0.091	-0.060	
13.940	-0.098	-0.072	
13.945	-0.236	-0.081	
13.950	0.128	-0.091	
13.955	0.209	-0.068	
13.960	-0.168	-0.027	
13.965	-0.043	-0.010	
13.970	0.230	-0.000	
13.975	-0.136	0.017	
13.980	-0.136	0.015	
13.985	0.297	0.005	
13.990	0.099	0.026	
13.995	-0.156	0.047	
14.000	0.142	0.045	
14.005	0.148	0.049	
14.010	-0.201	0.052	
14.015	-0.084	0.029	
14.020	0.168	0.003	
14.025	-0.203	-0.008	
14.030	-0.233	-0.034	
14.035	0.061	-0.068	
14.040	-0.127	-0.084	
14.045	-0.308	-0.099	
14.050	-0.076	-0.126	
14.055	-0.038	-0.139	
14.060	-0.325	-0.142	
14.065	-0.250	-0.160	
14.070	-0.044	-0.180	
14.075	-0.230	-0.183	
14.080	-0.127	-0.179	
14.085	0.625	-0.138	
14.090	0.623	-0.012	
14.095	0.172	0.147	
14.100	0.314	0.257	
14.105	-0.060	0.298	
14.110	-0.499	0.249	
14.115	-0.474	0.108	
14.120	-0.352	-0.064	
14.125	-0.524	-0.215	
14.130	-0.467	-0.336	
14.135	-0.110	-0.406	
14.140	-0.117	-0.402	
14.145	-0.210	-0.352	
14.150	0.183	-0.279	
14.155	0.303	-0.170	
14.160	-0.015	-0.050	
14.165	0.283	0.045	
14.170	0.633	0.137	
14.175	0.186	0.238	
14.180	0.149	0.296	
14.185	0.646	0.323	
14.190	0.413	0.362	
14.195	0.076	0.386	
14.200	0.517	0.376	
14.205	0.628	0.382	
14.210	0.207	0.406	
14.215	0.491	0.414	
14.220	0.843	0.435	
14.225	0.412	0.484	
14.230	0.421	0.516	
14.235	0.979	0.539	
14.240	0.835	0.599	
14.245	0.578	0.667	
14.250	1.056	0.718	
14.255	1.142	0.787	
14.260	0.681	0.862	
14.265	0.834	0.893	
14.270	1.014	0.899	
14.275	0.594	0.895	
14.280	0.511	0.854	
14.285	0.848	0.789	
14.290	0.508	0.737	
14.295	0.114	0.667	
14.300	0.424	0.562	
14.305	0.375	0.469	
14.310	-0.116	0.385	
14.315	-0.047	0.278	
14.320	0.212	0.173	
14.325	-0.130	0.102	
14.330	-0.156	0.038	
14.335	0.174	-0.012	
14.340	-0.038	-0.028	
14.345	-0.213	-0.036	
14.350	0.087	-0.050	
14.355	0.056	-0.048	
14.360	-0.218	-0.038	
14.365	0.026	-0.043	
14.370	0.344	-0.029	
14.375	-0.058	0.013	
14.380	-0.076	0.039	
14.385	0.320	0.049	
14.390	0.166	0.079	
14.395	-0.067	0.106	
14.400	0.322	0.116	
14.405	0.343	0.142	
14.410	-0.090	0.171	
14.415	0.075	0.164	
14.420	0.293	0.147	
14.425	-0.142	0.135	
14.430	-0.182	0.097	
14.435	0.099	0.041	
14.440	-0.111	0.002	
14.445	-0.268	-0.036	
14.450	-0.037	-0.079	
14.455	-0.029	-0.103	
14.460	-0.291	-0.114	
14.465	-0.182	-0.135	
14.470	-0.066	-0.153	
14.475	-0.300	-0.162	
14.480	-0.223	-0.178	
14.485	0.381	-0.170	
14.490	0.543	-0.084	
14.495	0.376	0.058	
14.500	0.575	0.204	
14.505	0.186	0.317	
14.510	-0.389	0.340	
14.515	-0.462	0.240	
14.520	-0.447	0.065	
14.525	-0.668	-0.126	
14.530	-0.617	-0.308	
14.535	-0.299	-0.442	
14.540	-0.290	-0.496	
14.545	-0.310	-0.485	
14.550	0.040	-0.431	
14.555	0.151	-0.328	
14.560	-0.137	-0.208	
14.565	0.088	-0.112	
14.570	0.415	-0.023	
14.575	0.020	0.068	
14.580	-0.015	0.121	
14.585	0.404	0.142	
14.590	0.239	0.174	
14.595	0.027	0.200	
14.600	0.482	0.211	
14.605	0.523	0.248	
14.610	0.110	0.296	
14.615	0.396	0.317	
14.620	0.651	0.341	
14.625	0.341	0.384	
14.630	0.503	0.419	
14.635	1.006	0.467	
14.640	0.802	0.558	
14.645	0.541	0.645	
14.650	0.983	0.701	
14.655	1.069	0.764	
14.660	0.691	0.830	
14.665	0.942	0.866	
14.670	1.178	0.897	
14.675	0.704	0.931	
14.680	0.559	0.921	
14.685	0.840	0.869	
14.690	0.491	0.809	
14.695	0.076	0.718	
14.700	0.343	0.586	
14.705	0.238	0.459	
14.710	-0.153	0.343	
14.715	-0.040	0.217	
14.720	0.181	0.113	
14.725	-0.194	0.047	
14.730	-0.224	-0.014	
14.735	0.091	-0.067	
14.740	-0.082	-0.086	
14.745	-0.238	-0.094	
14.750	0.017	-0.106	
14.755	0.020	-0.100	
14.760	-0.233	-0.087	
14.765	-0.066	-0.089	
14.770	0.186	-0.081	
14.775	-0.177	-0.056	
14.780	-0.195	-0.051	
14.785	0.189	-0.056	
14.790	-0.029	-0.041	
14.795	-0.209	-0.030	
14.800	0.120	-0.034	
14.805	0.158	-0.021	
14.810	-0.157	0.002	
14.815	-0.018	0.005	
14.820	0.151	0.004	
14.825	-0.174	0.007	
14.830	-0.218	-0.011	
14.835	0.000	-0.047	
14.840	-0.189	-0.074	
14.845	-0.366	-0.108	
14.850	-0.191	-0.156	
14.855	-0.183	-0.194	
14.860	-0.393	-0.221	
14.865	-0.252	-0.249	
14.870	-0.125	-0.265	
14.875	-0.401	-0.265	
14.880	-0.416	-0.278	
14.885	-0.162	-0.298	
14.890	-0.165	-0.294	
14.895	-0.113	-0.266	
14.900	0.578	-0.194	
14.905	0.550	-0.050	
14.910	-0.168	0.100	
14.915	-0.293	0.152	
14.920	-0.380	0.097	
14.925	-0.724	-0.030	
14.930	-0.794	-0.208	
14.935	-0.555	-0.389	
14.940	-0.572	-0.521	
14.945	-0.605	-0.596	
14.950	-0.276	-0.618	
14.955	-0.180	-0.576	
14.960	-0.342	-0.494	
14.965	-0.154	-0.410	
14.970	0.102	-0.318	
14.975	-0.177	-0.220	
14.980	-0.182	-0.151	
14.985	0.184	-0.106	
14.990	-0.018	-0.056	
14.995	-0.171	-0.023	
15.000	0.186	-0.010	
15.005	0.186	0.016	
15.010	-0.171	0.044	
15.015	0.035	0.044	
15.020	0.369	0.048	
15.025	0.018	0.078	
15.030	0.049	0.099	
15.035	0.506	0.120	
15.040	0.282	0.170	
15.045	0.104	0.217	
15.050	0.619	0.252	
15.055	0.681	0.315	
15.060	0.322	0.395	
15.065	0.599	0.450	
15.070	0.875	0.504	
15.075	0.399	0.565	
15.080	0.352	0.584	
15.085	0.712	0.569	
15.090	0.325	0.554	
15.095	-0.044	0.505	
15.100	0.261	0.411	
15.105	0.151	0.317	
15.110	-0.250	0.227	
15.115	-0.182	0.117	
15.120	-0.044	0.010	
15.125	-0.284	-0.069	
15.130	-0.305	-0.138	
15.135	-0.108	-0.193	
15.140	-0.285	-0.221	
15.145	-0.448	-0.246	
15.150	-0.210	-0.277	
15.155	-0.177	-0.290	
15.160	-0.403	-0.287	
15.165	-0.250	-0.290	
15.170	-0.090	-0.283	
15.175	-0.335	-0.263	
15.180	-0.329	-0.255	
15.185	-0.113	-0.255	
15.190	-0.252	-0.245	
15.195	-0.346	-0.239	
15.200	-0.061	-0.239	
15.205	-0.034	-0.218	
15.210	-0.290	-0.186	
15.215	-0.154	-0.172	
15.220	0.037	-0.159	
15.225	-0.259	-0.139	
15.230	-0.267	-0.138	
15.235	-0.037	-0.150	
15.240	-0.215	-0.154	
15.245	-0.387	-0.167	
15.250	-0.192	-0.197	
15.255	-0.224	-0.221	
15.260	-0.459	-0.243	
15.265	-0.339	-0.277	
15.270	-0.157	-0.303	
15.275	-0.358	-0.306	
15.280	-0.386	-0.309	
15.285	-0.223	-0.316	
15.290	-0.419	-0.319	
15.295	-0.514	-0.334	
15.300	-0.107	-0.352	
15.305	0.285	-0.316	
15.310	0.200	-0.209	
15.315	0.457	-0.066	
15.320	0.341	0.084	
15.325	-0.361	0.178	
15.330	-0.610	0.146	
15.335	-0.582	0.003	
15.340	-0.770	-0.185	
15.345	-0.860	-0.381	
15.350	-0.570	-0.548	
15.355	-0.489	-0.644	
15.360	-0.558	-0.670	
15.365	-0.277	-0.646	
15.370	-0.027	-0.567	
15.375	-0.250	-0.451	
15.380	-0.223	-0.345	
15.385	0.146	-0.255	
15.390	-0.090	-0.164	
15.395	-0.226	-0.101	
15.400	0.163	-0.069	
15.405	0.197	-0.027	
15.410	-0.145	0.018	
15.415	0.084	0.036	
15.420	0.344	0.055	
15.425	-0.035	0.089	
15.430	0.033	0.103	
15.435	0.489	0.115	
15.440	0.259	0.158	
15.445	0.064	0.200	
15.450	0.579	0.228	
15.455	0.605	0.284	
15.460	0.288	0.355	
15.465	0.677	0.410	
15.470	0.986	0.483	
15.475	0.517	0.576	
15.480	0.558	0.634	
15.485	1.020	0.668	
15.490	0.680	0.713	
15.495	0.317	0.727	
15.500	0.652	0.691	
15.505	0.506	0.644	
15.510	-0.009	0.578	
15.515	0.169	0.470	
15.520	0.279	0.358	
15.525	-0.168	0.262	
15.530	-0.201	0.155	
15.535	0.046	0.050	
15.540	-0.197	-0.026	
15.545	-0.374	-0.091	
15.550	-0.154	-0.157	
15.555	-0.153	-0.199	
15.560	-0.357	-0.221	
15.565	-0.204	-0.240	
15.570	-0.040	-0.242	
15.575	-0.297	-0.226	
15.580	-0.288	-0.218	
15.585	-0.070	-0.218	
15.590	-0.229	-0.208	
15.595	-0.313	-0.203	
15.600	-0.029	-0.204	
15.605	-0.041	-0.186	
15.610	-0.271	-0.160	
15.615	-0.096	-0.150	
15.620	0.114	-0.133	
15.625	-0.198	-0.103	
15.630	-0.172	-0.090	
15.635	0.142	-0.086	
15.640	-0.087	-0.067	
15.645	-0.229	-0.057	
15.650	0.032	-0.065	
15.655	-0.055	-0.068	
15.660	-0.345	-0.076	
15.665	-0.256	-0.112	
15.670	-0.166	-0.156	
15.675	-0.367	-0.193	
15.680	-0.340	-0.233	
15.685	-0.084	-0.262	
15.690	-0.241	-0.262	
15.695	-0.395	-0.258	
15.700	-0.198	-0.265	
15.705	-0.223	-0.267	
15.710	-0.398	-0.266	
15.715	-0.137	-0.270	
15.720	0.416	-0.234	
15.725	0.283	-0.128	
15.730	0.276	0.006	
15.735	0.308	0.123	
15.740	-0.308	0.185	
15.745	-0.694	0.135	
15.750	-0.607	-0.020	
15.755	-0.614	-0.210	
15.760	-0.776	-0.384	
15.765	-0.572	-0.526	
15.770	-0.366	-0.604	
15.775	-0.442	-0.611	
15.780	-0.314	-0.574	
15.785	0.023	-0.498	
15.790	-0.117	-0.387	
15.795	-0.227	-0.281	
15.800	0.125	-0.198	
15.805	0.139	-0.113	
15.810	-0.178	-0.040	
15.815	0.043	-0.005	
15.820	0.326	0.024	
15.825	-0.079	0.062	
15.830	-0.072	0.074	
15.835	0.337	0.071	
15.840	0.189	0.093	
15.845	0.040	0.122	
15.850	0.532	0.150	
15.855	0.530	0.212	
15.860	0.161	0.284	
15.865	0.494	0.329	
15.870	0.878	0.384	
15.875	0.546	0.469	
15.880	0.616	0.544	
15.885	1.058	0.611	
15.890	0.802	0.694	
15.895	0.532	0.754	
15.900	0.912	0.773	
15.905	0.832	0.786	
15.910	0.361	0.783	
15.915	0.562	0.735	
15.920	0.671	0.675	
15.925	0.126	0.615	
15.930	0.088	0.518	
15.935	0.381	0.407	
15.940	-0.006	0.316	
15.945	-0.213	0.220	
15.950	0.043	0.114	
15.955	-0.029	0.034	
15.960	-0.303	-0.027	
15.965	-0.163	-0.088	
15.970	-0.027	-0.133	
15.975	-0.314	-0.155	
15.980	-0.288	-0.180	
15.985	0.053	-0.198	
15.990	-0.145	-0.186	
15.995	-0.287	-0.169	
16.000	0.027	-0.162	
16.005	0.035	-0.137	
16.010	-0.220	-0.106	
16.015	-0.056	-0.092	
16.020	0.152	-0.076	
16.025	-0.178	-0.051	
16.030	-0.168	-0.047	
16.035	0.108	-0.055	
16.040	-0.111	-0.051	
16.045	-0.197	-0.055	
16.050	0.218	-0.059	
16.055	0.181	-0.031	
16.060	-0.177	0.007	
16.065	-0.041	0.015	
16.070	0.114	0.009	
16.075	-0.244	0.002	
16.080	-0.264	-0.031	
16.085	-0.014	-0.078	
16.090	-0.182	-0.109	
16.095	-0.305	-0.135	
16.100	-0.089	-0.164	
16.105	-0.102	-0.174	
16.110	-0.317	-0.176	
16.115	-0.172	-0.186	
16.120	-0.044	-0.189	
16.125	-0.244	-0.179	
16.130	-0.101	-0.170	
16.135	0.572	-0.129	
16.140	0.463	-0.015	
16.145	0.061	0.116	
16.150	0.125	0.191	
16.155	-0.235	0.197	
16.160	-0.610	0.119	
16.165	-0.534	-0.033	
16.170	-0.419	-0.198	
16.175	-0.579	-0.333	
16.180	-0.477	-0.433	
16.185	-0.146	-0.479	
16.190	-0.210	-0.459	
16.195	-0.264	-0.403	
16.200	0.108	-0.330	
16.205	0.142	-0.229	
16.210	-0.148	-0.126	
16.215	0.116	-0.053	
16.220	0.358	0.012	
16.225	-0.050	0.078	
16.230	0.003	0.108	
16.235	0.472	0.123	
16.240	0.190	0.160	
16.245	-0.069	0.185	
16.250	0.387	0.183	
16.255	0.413	0.200	
16.260	0.038	0.229	
16.265	0.369	0.241	
16.270	0.639	0.267	
16.275	0.195	0.316	
16.280	0.287	0.342	
16.285	0.784	0.364	
16.290	0.552	0.418	
16.295	0.351	0.471	
16.300	0.793	0.504	
16.305	0.790	0.553	
16.310	0.402	0.603	
16.315	0.703	0.623	
16.320	0.910	0.643	
16.325	0.412	0.669	
16.330	0.346	0.655	
16.335	0.620	0.606	
16.340	0.183	0.552	
16.345	-0.142	0.463	
16.350	0.143	0.335	
16.355	0.047	0.220	
16.360	-0.246	0.122	
16.365	-0.104	0.026	
16.370	0.024	-0.046	
16.375	-0.291	-0.089	
16.380	-0.267	-0.131	
16.385	-0.046	-0.168	
16.390	-0.253	-0.184	
16.395	-0.329	-0.198	
16.400	-0.053	-0.213	
16.405	-0.089	-0.205	
16.410	-0.290	-0.188	
16.415	-0.131	-0.181	
16.420	-0.012	-0.171	
16.425	-0.255	-0.153	
16.430	-0.195	-0.149	
16.435	0.119	-0.144	
16.440	-0.145	-0.120	
16.445	-0.244	-0.105	
16.450	0.096	-0.103	
16.455	0.072	-0.082	
16.460	-0.191	-0.054	
16.465	0.050	-0.043	
16.470	0.235	-0.022	
16.475	-0.162	0.008	
16.480	-0.159	0.010	
16.485	0.094	-0.008	
16.490	-0.177	-0.023	
16.495	-0.308	-0.052	
16.500	-0.066	-0.096	
16.505	-0.096	-0.125	
16.510	-0.310	-0.142	
16.515	-0.137	-0.164	
16.520	-0.020	-0.172	
16.525	-0.303	-0.167	
16.530	-0.288	-0.175	
16.535	-0.056	-0.190	
16.540	-0.108	-0.186	
16.545	-0.020	-0.163	
16.550	0.709	-0.096	
16.555	0.636	0.049	
16.560	-0.073	0.199	
16.565	-0.156	0.251	
16.570	-0.262	0.201	
16.575	-0.619	0.079	
16.580	-0.663	-0.095	
16.585	-0.422	-0.273	
16.590	-0.502	-0.402	
16.595	-0.492	-0.480	
16.600	-0.156	-0.506	
16.605	-0.061	-0.465	
16.610	-0.227	-0.382	
16.615	0.053	-0.292	
16.620	0.334	-0.184	
16.625	-0.087	-0.068	
16.630	-0.055	0.007	
16.635	0.460	0.054	
16.640	0.206	0.117	
16.645	-0.006	0.166	
16.650	0.453	0.190	
16.655	0.439	0.228	
16.660	0.008	0.266	
16.665	0.328	0.272	
16.670	0.630	0.284	
16.675	0.247	0.323	
16.680	0.343	0.349	
16.685	0.748	0.376	
16.690	0.497	0.427	
16.695	0.314	0.468	
16.700	0.777	0.490	
16.705	0.828	0.535	
16.710	0.439	0.590	
16.715	0.785	0.624	
16.720	1.030	0.665	
16.725	0.590	0.721	
16.730	0.578	0.745	
16.735	0.890	0.740	
16.740	0.530	0.735	
16.745	0.235	0.697	
16.750	0.565	0.622	
16.755	0.351	0.550	
16.760	-0.119	0.466	
16.765	0.052	0.346	
16.770	0.148	0.229	
16.775	-0.201	0.136	
16.780	-0.183	0.045	
16.785	0.017	-0.033	
16.790	-0.194	-0.082	
16.795	-0.290	-0.121	
16.800	-0.027	-0.155	
16.805	-0.090	-0.163	
16.810	-0.310	-0.161	
16.815	-0.136	-0.169	
16.820	0.012	-0.168	
16.825	-0.262	-0.154	
16.830	-0.188	-0.151	
16.835	0.143	-0.144	
16.840	-0.096	-0.114	
16.845	-0.212	-0.091	
16.850	0.105	-0.081	
16.855	0.011	-0.061	
16.860	-0.224	-0.045	
16.865	0.000	-0.048	
16.870	0.244	-0.040	
16.875	-0.134	-0.013	
16.880	-0.098	-0.002	
16.885	0.224	-0.002	
16.890	-0.063	0.012	
16.895	-0.218	0.011	
16.900	0.021	-0.013	
16.905	-0.085	-0.035	
16.910	-0.335	-0.062	
16.915	-0.182	-0.107	
16.920	-0.084	-0.145	
16.925	-0.322	-0.168	
16.930	-0.290	-0.196	
16.935	-0.113	-0.220	
16.940	-0.335	-0.230	
16.945	-0.438	-0.249	
16.950	-0.191	-0.277	
16.955	-0.107	-0.283	
16.960	-0.113	-0.257	
16.965	0.492	-0.189	
16.970	0.780	-0.045	
16.975	0.117	0.134	
16.980	-0.191	0.236	
16.985	-0.265	0.218	
16.990	-0.605	0.108	
16.995	-0.788	-0.071	
17.000	-0.578	-0.273	
17.005	-0.517	-0.435	
17.010	-0.598	-0.537	
17.015	-0.354	-0.583	
17.020	-0.185	-0.567	
17.025	-0.320	-0.502	
17.030	-0.198	-0.425	
17.035	0.143	-0.335	
17.040	-0.066	-0.228	
17.045	-0.148	-0.140	
17.050	0.216	-0.077	
17.055	0.183	-0.010	
17.060	-0.130	0.045	
17.065	0.125	0.066	
17.070	0.279	0.083	
17.075	-0.087	0.103	
17.080	-0.002	0.099	
17.085	0.436	0.095	
17.090	0.142	0.122	
17.095	-0.006	0.145	
17.100	0.457	0.157	
17.105	0.390	0.194	
17.110	0.033	0.235	
17.115	0.448	0.253	
17.120	0.703	0.291	
17.125	0.360	0.358	
17.130	0.511	0.414	
17.135	0.875	0.469	
17.140	0.616	0.542	
17.145	0.422	0.595	
17.150	0.796	0.615	
17.155	0.611	0.633	
17.160	0.085	0.622	
17.165	0.320	0.552	
17.170	0.376	0.467	
17.175	-0.133	0.382	
17.180	-0.159	0.268	
17.185	0.032	0.143	
17.190	-0.212	0.041	
17.195	-0.361	-0.052	
17.200	-0.172	-0.139	
17.205	-0.233	-0.199	
17.210	-0.412	-0.241	
17.215	-0.232	-0.276	
17.220	-0.140	-0.289	
17.225	-0.361	-0.283	
17.230	-0.328	-0.282	
17.235	-0.130	-0.283	
17.240	-0.310	-0.272	
17.245	-0.410	-0.270	
17.250	-0.172	-0.280	
17.255	-0.204	-0.277	
17.260	-0.370	-0.268	
17.265	-0.204	-0.268	
17.270	-0.114	-0.259	
17.275	-0.328	-0.242	
17.280	-0.224	-0.235	
17.285	0.067	-0.221	
17.290	-0.165	-0.185	
17.295	-0.296	-0.159	
17.300	-0.024	-0.153	
17.305	-0.081	-0.141	
17.310	-0.303	-0.132	
17.315	-0.169	-0.143	
17.320	-0.116	-0.157	
17.325	-0.398	-0.171	
17.330	-0.387	-0.207	
17.335	-0.194	-0.249	
17.340	-0.352	-0.276	
17.345	-0.439	-0.300	
17.350	-0.215	-0.323	
17.355	-0.265	-0.327	
17.360	-0.489	-0.326	
17.365	-0.381	-0.340	
17.370	-0.305	-0.356	
17.375	-0.383	-0.362	
17.380	-0.131	-0.353	
17.385	0.596	-0.286	
17.390	0.492	-0.129	
17.395	0.123	0.051	
17.400	0.047	0.166	
17.405	-0.340	0.187	
17.410	-0.733	0.099	
17.415	-0.680	-0.077	
17.420	-0.587	-0.273	
17.425	-0.729	-0.438	
17.430	-0.593	-0.560	
17.435	-0.316	-0.620	
17.440	-0.366	-0.608	
17.445	-0.354	-0.555	
17.450	-0.032	-0.477	
17.455	-0.058	-0.373	
17.460	-0.262	-0.272	
17.465	0.053	-0.196	
17.470	0.296	-0.116	
17.475	-0.099	-0.031	
17.480	-0.005	0.022	
17.485	0.331	0.054	
17.490	0.006	0.090	
17.495	-0.069	0.104	
17.500	0.392	0.104	
17.505	0.312	0.132	
17.510	-0.031	0.167	
17.515	0.332	0.180	
17.520	0.598	0.210	
17.525	0.180	0.265	
17.530	0.351	0.303	
17.535	0.790	0.343	
17.540	0.518	0.413	
17.545	0.416	0.474	
17.550	0.902	0.521	
17.555	0.828	0.588	
17.560	0.436	0.651	
17.565	0.736	0.674	
17.570	0.831	0.687	
17.575	0.245	0.689	
17.580	0.273	0.636	
17.585	0.594	0.557	
17.590	0.165	0.490	
17.595	-0.124	0.404	
17.600	0.131	0.289	
17.605	-0.044	0.184	
17.610	-0.293	0.086	
17.615	-0.148	-0.013	
17.620	-0.089	-0.091	
17.625	-0.346	-0.144	
17.630	-0.296	-0.192	
17.635	-0.099	-0.229	
17.640	-0.288	-0.241	
17.645	-0.383	-0.251	
17.650	-0.156	-0.265	
17.655	-0.229	-0.266	
17.660	-0.453	-0.267	
17.665	-0.252	-0.281	
17.670	-0.064	-0.284	
17.675	-0.265	-0.263	
17.680	-0.201	-0.240	
17.685	0.061	-0.213	
17.690	-0.182	-0.172	
17.695	-0.285	-0.148	
17.700	0.026	-0.142	
17.705	-0.027	-0.125	
17.710	-0.259	-0.107	
17.715	-0.040	-0.105	
17.720	0.119	-0.095	
17.725	-0.209	-0.073	
17.730	-0.160	-0.070	
17.735	0.053	-0.078	
17.740	-0.244	-0.081	
17.745	-0.354	-0.104	
17.750	-0.119	-0.145	
17.755	-0.191	-0.175	
17.760	-0.416	-0.200	
17.765	-0.238	-0.233	
17.770	-0.130	-0.254	
17.775	-0.367	-0.257	
17.780	-0.331	-0.266	
17.785	-0.201	-0.278	
17.790	-0.410	-0.286	
17.795	-0.465	-0.305	
17.800	-0.133	-0.326	
17.805	0.078	-0.307	
17.810	0.094	-0.235	
17.815	0.587	-0.117	
17.820	0.497	0.044	
17.825	-0.314	0.174	
17.830	-0.474	0.177	
17.835	-0.454	0.067	
17.840	-0.703	-0.096	
17.845	-0.788	-0.280	
17.850	-0.517	-0.448	
17.855	-0.471	-0.554	
17.860	-0.538	-0.596	
17.865	-0.241	-0.589	
17.870	-0.044	-0.526	
17.875	-0.238	-0.424	
17.880	-0.137	-0.326	
17.885	0.200	-0.232	
17.890	-0.037	-0.133	
17.895	-0.087	-0.057	
17.900	0.372	-0.002	
17.905	0.273	0.068	
17.910	-0.079	0.129	
17.915	0.303	0.154	
17.920	0.477	0.184	
17.925	0.021	0.224	
17.930	0.207	0.236	
17.935	0.662	0.249	
17.940	0.360	0.297	
17.945	0.242	0.340	
17.950	0.722	0.371	
17.955	0.652	0.426	
17.960	0.351	0.484	
17.965	0.730	0.519	
17.970	0.951	0.568	
17.975	0.588	0.636	
17.980	0.715	0.683	
17.985	1.091	0.724	
17.990	0.730	0.778	
17.995	0.503	0.801	
18.000	0.808	0.783	
18.005	0.553	0.752	
18.010	0.105	0.692	
18.015	0.354	0.586	
18.020	0.370	0.480	
18.025	-0.120	0.385	
18.030	-0.092	0.268	
18.035	0.157	0.155	
18.040	-0.136	0.074	
18.045	-0.230	0.005	
18.050	0.023	-0.056	
18.055	-0.140	-0.091	
18.060	-0.346	-0.119	
18.065	-0.117	-0.155	
18.070	-0.005	-0.171	
18.075	-0.282	-0.166	
18.080	-0.224	-0.170	
18.085	0.020	-0.173	
18.090	-0.210	-0.161	
18.095	-0.293	-0.157	
18.100	0.037	-0.161	
18.105	-0.012	-0.144	
18.110	-0.239	-0.120	
18.115	0.015	-0.108	
18.120	0.158	-0.084	
18.125	-0.206	-0.051	
18.130	-0.128	-0.043	
18.135	0.227	-0.042	
18.140	-0.081	-0.022	
18.145	-0.174	-0.014	
18.150	0.189	-0.018	
18.155	0.050	-0.005	
18.160	-0.229	0.005	
18.165	-0.047	-0.012	
18.170	0.026	-0.032	
18.175	-0.306	-0.050	
18.180	-0.291	-0.090	
18.185	-0.089	-0.138	
18.190	-0.258	-0.170	
18.195	-0.319	-0.197	
18.200	-0.064	-0.218	
18.205	-0.154	-0.216	
18.210	-0.374	-0.209	
18.215	-0.230	-0.220	
18.220	-0.127	-0.229	
18.225	-0.250	-0.225	
18.230	0.040	-0.208	
18.235	0.753	-0.135	
18.240	0.477	0.019	
18.245	-0.008	0.170	
18.250	-0.104	0.229	
18.255	-0.377	0.189	
18.260	-0.683	0.063	
18.265	-0.584	-0.118	
18.270	-0.518	-0.294	
18.275	-0.668	-0.432	
18.280	-0.500	-0.529	
18.285	-0.224	-0.566	
18.290	-0.306	-0.538	
18.295	-0.294	-0.477	
18.300	0.061	-0.397	
18.305	0.032	-0.291	
18.310	-0.192	-0.189	
18.315	0.206	-0.110	
18.320	0.422	-0.022	
18.325	-0.027	0.073	
18.330	0.125	0.129	
18.335	0.488	0.165	
18.340	0.152	0.211	
18.345	0.033	0.232	
18.350	0.530	0.234	
18.355	0.442	0.263	
18.360	0.105	0.299	
18.365	0.491	0.314	
18.370	0.677	0.345	
18.375	0.268	0.394	
18.380	0.463	0.423	
18.385	0.886	0.455	
18.390	0.570	0.516	
18.395	0.462	0.566	
18.400	0.963	0.599	
18.405	0.855	0.655	
18.410	0.491	0.707	
18.415	0.805	0.724	
18.420	0.869	0.736	
18.425	0.288	0.737	
18.430	0.306	0.682	
18.435	0.631	0.600	
18.440	0.241	0.532	
18.445	0.004	0.452	
18.450	0.337	0.357	
18.455	0.102	0.280	
18.460	-0.209	0.206	
18.465	-0.037	0.115	
18.470	0.055	0.039	
18.475	-0.252	-0.014	
18.480	-0.203	-0.068	
18.485	0.012	-0.111	
18.490	-0.229	-0.131	
18.495	-0.294	-0.151	
18.500	0.044	-0.168	
18.505	-0.015	-0.156	
18.510	-0.209	-0.130	
18.515	0.044	-0.111	
18.520	0.145	-0.081	
18.525	-0.197	-0.044	
18.530	-0.066	-0.033	
18.535	0.277	-0.023	
18.540	-0.040	0.006	
18.545	-0.114	0.024	
18.550	0.291	0.029	
18.555	0.172	0.056	
18.560	-0.142	0.081	
18.565	0.110	0.079	
18.570	0.290	0.080	
18.575	-0.056	0.095	
18.580	0.049	0.095	
18.585	0.314	0.094	
18.590	-0.084	0.104	
18.595	-0.198	0.087	
18.600	0.053	0.043	
18.605	-0.093	0.005	
18.610	-0.264	-0.033	
18.615	-0.050	-0.077	
18.620	0.050	-0.098	
18.625	-0.247	-0.100	
18.630	-0.162	-0.110	
18.635	0.065	-0.118	
18.640	-0.218	-0.112	
18.645	-0.241	-0.116	
18.650	0.358	-0.113	
18.655	0.573	-0.042	
18.660	0.376	0.088	
18.665	0.572	0.223	
18.670	0.253	0.330	
18.675	-0.352	0.355	
18.680	-0.436	0.261	
18.685	-0.375	0.093	
18.690	-0.564	-0.088	
18.695	-0.549	-0.255	
18.700	-0.220	-0.377	
18.705	-0.165	-0.421	
18.710	-0.249	-0.401	
18.715	0.152	-0.341	
18.720	0.392	-0.228	
18.725	0.018	-0.086	
18.730	0.203	0.028	
18.735	0.559	0.125	
18.740	0.250	0.222	
18.745	0.146	0.284	
18.750	0.614	0.316	
18.755	0.456	0.357	
18.760	0.094	0.387	
18.765	0.460	0.381	
18.770	0.564	0.380	
18.775	0.163	0.391	
18.780	0.386	0.383	
18.785	0.721	0.384	
18.790	0.372	0.416	
18.795	0.354	0.438	
18.800	0.851	0.458	
18.805	0.793	0.514	
18.810	0.500	0.582	
18.815	0.924	0.634	
18.820	1.073	0.700	
18.825	0.657	0.775	
18.830	0.826	0.817	
18.835	1.125	0.846	
18.840	0.672	0.877	
18.845	0.503	0.867	
18.850	0.848	0.819	
18.855	0.503	0.769	
18.860	0.082	0.692	
18.865	0.398	0.575	
18.870	0.366	0.469	
18.875	-0.108	0.377	
18.880	-0.075	0.266	
18.885	0.177	0.159	
18.890	-0.134	0.083	
18.895	-0.178	0.018	
18.900	0.123	-0.034	
18.905	-0.058	-0.053	
18.910	-0.281	-0.065	
18.915	-0.102	-0.092	
18.920	-0.006	-0.111	
18.925	-0.242	-0.117	
18.930	-0.131	-0.126	
18.935	0.110	-0.126	
18.940	-0.142	-0.105	
18.945	-0.172	-0.091	
18.950	0.184	-0.082	
18.955	0.024	-0.052	
18.960	-0.241	-0.028	
18.965	-0.018	-0.033	
18.970	0.130	-0.036	
18.975	-0.182	-0.028	
18.980	-0.061	-0.033	
18.985	0.229	-0.032	
18.990	-0.131	-0.014	
18.995	-0.182	-0.012	
19.000	0.130	-0.026	
19.005	-0.073	-0.028	
19.010	-0.308	-0.039	
19.015	-0.130	-0.074	
19.020	-0.085	-0.109	
19.025	-0.323	-0.134	
19.030	-0.252	-0.167	
19.035	-0.085	-0.195	
19.040	-0.319	-0.207	
19.045	-0.363	-0.224	
19.050	-0.136	-0.246	
19.055	-0.230	-0.251	
19.060	-0.392	-0.253	
19.065	-0.154	-0.261	
19.070	0.024	-0.248	
19.075	-0.078	-0.204	
19.080	0.312	-0.137	
19.085	0.480	-0.031	
19.090	-0.197	0.076	
19.095	-0.467	0.098	
19.100	-0.442	0.018	
19.105	-0.634	-0.117	
19.110	-0.790	-0.276	
19.115	-0.541	-0.431	
19.120	-0.393	-0.532	
19.125	-0.496	-0.568	
19.130	-0.328	-0.560	
19.135	-0.067	-0.508	
19.140	-0.246	-0.422	
19.145	-0.239	-0.339	
19.150	0.097	-0.264	
19.155	-0.024	-0.182	
19.160	-0.223	-0.116	
19.165	0.037	-0.082	
19.170	0.130	-0.051	
19.175	-0.177	-0.021	
19.180	-0.073	-0.016	
19.185	0.223	-0.015	
19.190	-0.113	-0.000	
19.195	-0.140	0.001	
19.200	0.308	-0.003	
19.205	0.190	0.026	
19.210	-0.064	0.065	
19.215	0.306	0.089	
19.220	0.373	0.127	
19.225	0.004	0.171	
19.230	0.210	0.188	
19.235	0.534	0.206	
19.240	0.206	0.246	
19.245	0.163	0.271	
19.250	0.669	0.288	
19.255	0.474	0.335	
19.260	0.062	0.374	
19.265	0.375	0.369	
19.270	0.376	0.353	
19.275	-0.105	0.327	
19.280	-0.064	0.259	
19.285	0.084	0.171	
19.290	-0.247	0.089	
19.295	-0.328	-0.001	
19.300	-0.136	-0.094	
19.305	-0.267	-0.162	
19.310	-0.453	-0.217	
19.315	-0.293	-0.272	
19.320	-0.239	-0.308	
19.325	-0.451	-0.325	
19.330	-0.390	-0.344	
19.335	-0.210	-0.357	
19.340	-0.381	-0.352	
19.345	-0.419	-0.349	
19.350	-0.203	-0.349	
19.355	-0.296	-0.336	
19.360	-0.445	-0.325	
19.365	-0.244	-0.325	
19.370	-0.185	-0.317	
19.375	-0.398	-0.301	
19.380	-0.306	-0.297	
19.385	-0.133	-0.293	
19.390	-0.306	-0.278	
19.395	-0.340	-0.269	
19.400	-0.120	-0.266	
19.405	-0.232	-0.253	
19.410	-0.407	-0.246	
19.415	-0.229	-0.255	
19.420	-0.194	-0.262	
19.425	-0.418	-0.265	
19.430	-0.363	-0.281	
19.435	-0.235	-0.301	
19.440	-0.430	-0.314	
19.445	-0.485	-0.335	
19.450	-0.271	-0.360	
19.455	-0.355	-0.370	
19.460	-0.520	-0.376	
19.465	-0.357	-0.390	
19.470	-0.323	-0.397	
19.475	-0.535	-0.398	
19.480	-0.444	-0.410	
19.485	-0.267	-0.418	
19.490	-0.355	-0.406	
19.495	-0.213	-0.381	
19.500	0.288	-0.320	
19.505	0.023	-0.214	
19.510	-0.390	-0.125	
19.515	-0.416	-0.112	
19.520	-0.589	-0.169	
19.525	-0.860	-0.279	
19.530	-0.794	-0.424	
19.535	-0.598	-0.558	
19.540	-0.678	-0.644	
19.545	-0.604	-0.686	
19.550	-0.311	-0.681	
19.555	-0.339	-0.625	
19.560	-0.453	-0.549	
19.565	-0.210	-0.477	
19.570	-0.114	-0.399	
19.575	-0.317	-0.322	
19.580	-0.197	-0.269	
19.585	0.047	-0.223	
19.590	-0.224	-0.175	
19.595	-0.259	-0.149	
19.600	-0.014	-0.144	
19.605	-0.127	-0.134	
19.610	-0.232	-0.127	
19.615	0.091	-0.124	
19.620	0.133	-0.095	
19.625	-0.209	-0.057	
19.630	0.004	-0.040	
19.635	0.375	-0.017	
19.640	0.056	0.035	
19.645	0.081	0.081	
19.650	0.559	0.124	
19.655	0.367	0.195	
19.660	0.082	0.257	
19.665	0.486	0.287	
19.670	0.527	0.322	
19.675	0.081	0.355	
19.680	0.340	0.353	
19.685	0.593	0.349	
19.690	0.091	0.357	
19.695	-0.052	0.329	
19.700	0.197	0.263	
19.705	-0.067	0.194	
19.710	-0.287	0.115	
19.715	-0.107	0.020	
19.720	-0.101	-0.058	
19.725	-0.348	-0.116	
19.730	-0.238	-0.171	
19.735	-0.087	-0.208	
19.740	-0.334	-0.223	
19.745	-0.387	-0.241	
19.750	-0.174	-0.265	
19.755	-0.262	-0.274	
19.760	-0.403	-0.278	
19.765	-0.157	-0.286	
19.770	-0.128	-0.276	
19.775	-0.366	-0.256	
19.780	-0.261	-0.250	
19.785	-0.053	-0.245	
19.790	-0.274	-0.227	
19.795	-0.310	-0.218	
19.800	-0.008	-0.215	
19.805	-0.142	-0.195	
19.810	-0.302	-0.177	
19.815	-0.037	-0.172	
19.820	0.004	-0.154	
19.825	-0.281	-0.131	
19.830	-0.130	-0.128	
19.835	0.180	-0.119	
19.840	-0.186	-0.091	
19.845	-0.242	-0.080	
19.850	0.018	-0.090	
19.855	-0.189	-0.097	
19.860	-0.351	-0.115	
19.865	-0.149	-0.151	
19.870	-0.160	-0.178	
19.875	-0.398	-0.198	
19.880	-0.261	-0.228	
19.885	-0.122	-0.249	
19.890	-0.357	-0.253	
19.895	-0.370	-0.264	
19.900	-0.137	-0.277	
19.905	-0.252	-0.274	
19.910	-0.366	-0.269	
19.915	0.065	-0.259	
19.920	0.515	-0.193	
19.925	0.351	-0.058	
19.930	0.515	0.098	
19.935	0.376	0.238	
19.940	-0.340	0.306	
19.945	-0.573	0.243	
19.950	-0.480	0.076	
19.955	-0.625	-0.120	
19.960	-0.688	-0.306	
19.965	-0.389	-0.451	
19.970	-0.246	-0.518	
19.975	-0.340	-0.512	
19.980	-0.104	-0.462	
19.985	0.256	-0.365	
19.990	-0.075	-0.235	
19.995	-0.029	-0.124	
20.000	0.503	-0.030	
20.005	0.280	0.080	
20.010	0.003	0.169	
20.015	0.425	0.214	
20.020	0.472	0.258	
20.025	0.044	0.297	
20.030	0.340	0.303	
20.035	0.643	0.313	
20.040	0.235	0.346	
20.045	0.294	0.363	
20.050	0.790	0.379	
20.055	0.576	0.430	
20.060	0.372	0.482	
20.065	0.854	0.519	
20.070	0.895	0.579	
20.075	0.492	0.646	
20.080	0.799	0.683	
20.085	1.122	0.724	
20.090	0.741	0.785	
20.095	0.777	0.826	
20.100	1.200	0.855	
20.105	0.878	0.898	
20.110	0.501	0.914	
20.115	0.861	0.879	
20.120	0.799	0.839	
20.125	0.226	0.789	
20.130	0.358	0.692	
20.135	0.576	0.587	
20.140	0.056	0.500	
20.145	-0.014	0.395	
20.150	0.352	0.289	
20.155	0.053	0.217	
20.160	-0.194	0.154	
20.165	0.114	0.085	
20.170	0.094	0.041	
20.175	-0.221	0.015	
20.180	-0.006	-0.016	
20.185	0.273	-0.027	
20.190	-0.116	-0.008	
20.195	-0.142	-0.001	
20.200	0.203	-0.007	
20.205	0.000	0.003	
20.210	-0.169	0.010	
20.215	0.203	0.005	
20.220	0.293	0.026	
20.225	-0.087	0.064	
20.230	0.149	0.083	
20.235	0.395	0.105	
20.240	-0.011	0.139	
20.245	0.003	0.148	
20.250	0.466	0.146	
20.255	0.267	0.174	
20.260	0.020	0.202	
20.265	0.419	0.212	
20.270	0.367	0.235	
20.275	-0.108	0.251	
20.280	0.110	0.224	
20.285	0.331	0.190	
20.290	-0.107	0.169	
20.295	-0.137	0.127	
20.300	0.187	0.073	
20.305	-0.084	0.041	
20.310	-0.229	0.008	
20.315	0.108	-0.030	
20.320	0.053	-0.041	
20.325	-0.293	-0.043	
20.330	-0.108	-0.065	
20.335	0.169	-0.080	
20.340	-0.063	-0.065	
20.345	0.285	-0.030	
20.350	1.044	0.064	
20.355	0.849	0.247	
20.360	0.334	0.434	
20.365	0.250	0.527	
20.370	-0.175	0.506	
20.375	-0.563	0.371	
20.380	-0.521	0.153	
20.385	-0.381	-0.075	
20.390	-0.479	-0.254	
20.395	-0.366	-0.374	
20.400	0.000	-0.420	
20.405	-0.096	-0.386	
20.410	-0.151	-0.314	
20.415	0.338	-0.224	
20.420	0.369	-0.097	
20.425	-0.008	0.033	
20.430	0.273	0.120	
20.435	0.663	0.195	
20.440	0.265	0.283	
20.445	0.311	0.343	
20.450	0.753	0.385	
20.455	0.529	0.443	
20.460	0.287	0.486	
20.465	0.733	0.503	
20.470	0.712	0.532	
20.475	0.308	0.561	
20.480	0.689	0.566	
20.485	0.998	0.587	
20.490	0.613	0.641	
20.495	0.657	0.683	
20.500	1.104	0.717	
20.505	0.905	0.775	
20.510	0.712	0.828	
20.515	1.203	0.864	
20.520	1.223	0.923	
20.525	0.820	0.987	
20.530	1.056	1.018	
20.535	1.279	1.039	
20.540	0.765	1.060	
20.545	0.654	1.034	
20.550	0.962	0.971	
20.555	0.526	0.904	
20.560	0.131	0.803	
20.565	0.497	0.664	
20.570	0.422	0.545	
20.575	-0.069	0.444	
20.580	0.091	0.330	
20.585	0.259	0.230	
20.590	-0.113	0.162	
20.595	-0.111	0.095	
20.600	0.265	0.041	
20.605	-0.035	0.025	
20.610	-0.180	0.013	
20.615	0.151	-0.007	
20.620	0.114	-0.004	
20.625	-0.185	0.007	
20.630	0.021	0.000	
20.635	0.267	0.003	
20.640	-0.116	0.024	
20.645	-0.104	0.026	
20.650	0.279	0.021	
20.655	0.052	0.038	
20.660	-0.130	0.051	
20.665	0.267	0.050	
20.670	0.248	0.071	
20.675	-0.073	0.100	
20.680	0.267	0.113	
20.685	0.515	0.143	
20.690	0.072	0.195	
20.695	0.056	0.217	
20.700	0.418	0.216	
20.705	0.123	0.222	
20.710	-0.110	0.210	
20.715	0.174	0.169	
20.720	0.041	0.130	
20.725	-0.252	0.087	
20.730	-0.076	0.025	
20.735	0.133	-0.022	
20.740	-0.172	-0.041	
20.745	-0.160	-0.060	
20.750	0.114	-0.075	
20.755	-0.139	-0.072	
20.760	-0.290	-0.078	
20.765	-0.041	-0.102	
20.770	0.068	-0.109	
20.775	0.020	-0.087	
20.780	0.662	-0.024	
20.785	1.009	0.119	
20.790	0.412	0.311	
20.795	0.001	0.432	
20.800	-0.085	0.427	
20.805	-0.439	0.318	
20.810	-0.648	0.131	
20.815	-0.439	-0.085	
20.820	-0.372	-0.263	
20.825	-0.480	-0.379	
20.830	-0.227	-0.438	
20.835	0.041	-0.428	
20.840	-0.163	-0.358	
20.845	-0.085	-0.274	
20.850	0.349	-0.182	
20.855	0.113	-0.070	
20.860	-0.052	0.023	
20.865	0.393	0.082	
20.870	0.383	0.148	
20.875	0.081	0.210	
20.880	0.418	0.246	
20.885	0.633	0.290	
20.890	0.181	0.344	
20.895	0.248	0.365	
20.900	0.710	0.371	
20.905	0.453	0.404	
20.910	0.230	0.431	
20.915	0.712	0.439	
20.920	0.727	0.472	
20.925	0.343	0.517	
20.930	0.726	0.542	
20.935	0.994	0.583	
20.940	0.594	0.648	
20.945	0.742	0.696	
20.950	1.183	0.741	
20.955	0.910	0.812	
20.960	0.636	0.865	
20.965	0.985	0.877	
20.970	0.884	0.883	
20.975	0.378	0.867	
20.980	0.552	0.800	
20.985	0.651	0.718	
20.990	0.070	0.634	
20.995	-0.002	0.512	
21.000	0.279	0.374	
21.005	-0.090	0.258	
21.010	-0.247	0.147	
21.015	0.011	0.038	
21.020	-0.003	-0.032	
21.025	-0.250	-0.073	
21.030	-0.082	-0.106	
21.035	0.055	-0.120	
21.040	-0.246	-0.114	
21.045	-0.249	-0.122	
21.050	-0.052	-0.140	
21.055	-0.186	-0.148	
21.060	-0.306	-0.158	
21.065	-0.015	-0.172	
21.070	-0.005	-0.162	
21.075	-0.239	-0.140	
21.080	-0.075	-0.129	
21.085	0.105	-0.113	
21.090	-0.200	-0.087	
21.095	-0.172	-0.080	
21.100	0.160	-0.079	
21.105	-0.090	-0.062	
21.110	-0.191	-0.051	
21.115	0.165	-0.051	
21.120	0.101	-0.030	
21.125	-0.178	-0.006	
21.130	0.000	-0.005	
21.135	0.184	-0.003	
21.140	-0.177	0.007	
21.145	-0.188	-0.005	
21.150	0.017	-0.035	
21.155	-0.224	-0.061	
21.160	-0.361	-0.099	
21.165	-0.137	-0.149	
21.170	-0.130	-0.182	
21.175	-0.322	-0.197	
21.180	-0.163	-0.212	
21.185	-0.060	-0.213	
21.190	-0.306	-0.201	
21.195	-0.294	-0.203	
21.200	-0.090	-0.211	
21.205	-0.163	-0.206	
21.210	-0.085	-0.189	
21.215	0.648	-0.131	
21.220	0.663	0.008	
21.225	-0.026	0.165	
21.230	-0.156	0.233	
21.235	-0.340	0.192	
21.240	-0.721	0.064	
21.245	-0.715	-0.125	
21.250	-0.491	-0.317	
21.255	-0.555	-0.457	
21.260	-0.537	-0.540	
21.265	-0.221	-0.567	
21.270	-0.175	-0.528	
21.275	-0.302	-0.452	
21.280	-0.067	-0.371	
21.285	0.200	-0.273	
21.290	-0.125	-0.165	
21.295	-0.066	-0.087	
21.300	0.312	-0.030	
21.305	-0.003	0.029	
21.310	-0.133	0.061	
21.315	0.296	0.067	
21.320	0.268	0.091	
21.325	-0.081	0.120	
21.330	0.198	0.127	
21.335	0.453	0.142	
21.340	0.085	0.178	
21.345	0.189	0.200	
21.350	0.613	0.224	
21.355	0.331	0.275	
21.360	0.151	0.315	
21.365	0.631	0.335	
21.370	0.614	0.376	
21.375	0.315	0.428	
21.380	0.675	0.463	
21.385	0.866	0.511	
21.390	0.437	0.572	
21.395	0.494	0.599	
21.400	0.814	0.606	
21.405	0.451	0.616	
21.410	0.157	0.593	
21.415	0.451	0.529	
21.420	0.218	0.459	
21.425	-0.210	0.371	
21.430	-0.095	0.245	
21.435	0.015	0.121	
21.440	-0.277	0.021	
21.445	-0.273	-0.069	
21.450	-0.067	-0.142	
21.455	-0.264	-0.182	
21.460	-0.384	-0.214	
21.465	-0.194	-0.246	
21.470	-0.229	-0.263	
21.475	-0.416	-0.272	
21.480	-0.262	-0.287	
21.485	-0.148	-0.292	
21.490	-0.349	-0.282	
21.495	-0.314	-0.279	
21.500	-0.127	-0.277	
21.505	-0.293	-0.264	
21.510	-0.375	-0.260	
21.515	-0.124	-0.263	
21.520	-0.146	-0.252	
21.525	-0.331	-0.234	
21.530	-0.171	-0.228	
21.535	-0.072	-0.217	
21.540	-0.290	-0.199	
21.545	-0.233	-0.195	
21.550	-0.020	-0.192	
21.555	-0.201	-0.178	
21.560	-0.282	-0.170	
21.565	-0.046	-0.172	
21.570	-0.157	-0.166	
21.575	-0.398	-0.167	
21.580	-0.239	-0.192	
21.585	-0.165	-0.217	
21.590	-0.395	-0.234	
21.595	-0.370	-0.260	
21.600	-0.182	-0.285	
21.605	-0.345	-0.295	
21.610	-0.468	-0.307	
21.615	-0.271	-0.328	
21.620	-0.284	-0.338	
21.625	-0.445	-0.339	
21.630	-0.277	-0.344	
21.635	-0.105	-0.334	
21.640	-0.194	-0.299	
21.645	0.110	-0.244	
21.650	0.598	-0.144	
21.655	0.032	-0.006	
21.660	-0.349	0.077	
21.665	-0.355	0.057	
21.670	-0.576	-0.039	
21.675	-0.834	-0.187	
21.680	-0.648	-0.359	
21.685	-0.483	-0.498	
21.690	-0.614	-0.577	
21.695	-0.483	-0.611	
21.700	-0.197	-0.597	
21.705	-0.294	-0.534	
21.710	-0.346	-0.456	
21.715	-0.020	-0.381	
21.720	-0.027	-0.292	
21.725	-0.236	-0.209	
21.730	-0.029	-0.154	
21.735	0.120	-0.107	
21.740	-0.178	-0.062	
21.745	-0.087	-0.044	
21.750	0.262	-0.031	
21.755	-0.053	-0.001	
21.760	-0.153	0.014	
21.765	0.224	0.013	
21.770	0.151	0.030	
21.775	-0.124	0.052	
21.780	0.198	0.058	
21.785	0.393	0.080	
21.790	-0.046	0.120	
21.795	0.114	0.137	
21.800	0.655	0.158	
21.805	0.436	0.226	
21.810	0.276	0.300	
21.815	0.736	0.361	
21.820	0.651	0.435	
21.825	0.221	0.495	
21.830	0.532	0.509	
21.835	0.649	0.510	
21.840	0.117	0.507	
21.845	0.113	0.458	
21.850	0.346	0.381	
21.855	-0.075	0.306	
21.860	-0.244	0.211	
21.865	-0.079	0.096	
21.870	-0.133	-0.004	
21.875	-0.363	-0.084	
21.880	-0.168	-0.156	
21.885	-0.029	-0.196	
21.890	-0.293	-0.203	
21.895	-0.255	-0.209	
21.900	-0.079	-0.215	
21.905	-0.288	-0.210	
21.910	-0.372	-0.216	
21.915	-0.124	-0.233	
21.920	-0.206	-0.236	
21.925	-0.390	-0.237	
21.930	-0.178	-0.247	
21.935	-0.084	-0.245	
21.940	-0.267	-0.227	
21.945	-0.195	-0.214	
21.950	0.050	-0.196	
21.955	-0.191	-0.164	
21.960	-0.259	-0.145	
21.965	0.011	-0.142	
21.970	-0.067	-0.128	
21.975	-0.261	-0.115	
21.980	-0.063	-0.118	
21.985	0.033	-0.113	
21.990	-0.270	-0.103	
21.995	-0.232	-0.113	
22.000	-0.037	-0.132	
22.005	-0.238	-0.142	
22.010	-0.306	-0.159	
22.015	-0.095	-0.181	
22.020	-0.186	-0.190	
22.025	-0.381	-0.199	
22.030	-0.215	-0.220	
22.035	-0.146	-0.234	
22.040	-0.380	-0.239	
22.045	-0.322	-0.253	
22.050	-0.157	-0.268	
22.055	-0.325	-0.271	
22.060	-0.377	-0.276	
22.065	-0.063	-0.281	
22.070	0.201	-0.245	
22.075	0.101	-0.162	
22.080	0.332	-0.057	
22.085	0.102	0.045	
22.090	-0.430	0.092	
22.095	-0.567	0.037	
22.100	-0.520	-0.093	
22.105	-0.695	-0.246	
22.110	-0.744	-0.398	
22.115	-0.419	-0.520	
22.120	-0.343	-0.572	
22.125	-0.427	-0.563	
22.130	-0.168	-0.518	
22.135	-0.018	-0.436	
22.140	-0.235	-0.336	
22.145	-0.102	-0.251	
22.150	0.296	-0.170	
22.155	-0.021	-0.077	
22.160	-0.117	-0.011	
22.165	0.250	0.023	
22.170	0.145	0.060	
22.175	-0.137	0.086	
22.180	0.177	0.085	
22.185	0.348	0.095	
22.190	-0.050	0.120	
22.195	0.082	0.125	
22.200	0.534	0.135	
22.205	0.242	0.179	
22.210	0.110	0.219	
22.215	0.572	0.247	
22.220	0.576	0.299	
22.225	0.267	0.361	
22.230	0.672	0.407	
22.235	0.857	0.469	
22.240	0.453	0.543	
22.245	0.552	0.587	
22.250	0.840	0.610	
22.255	0.489	0.635	
22.260	0.317	0.628	
22.265	0.646	0.591	
22.270	0.407	0.556	
22.275	-0.017	0.503	
22.280	0.219	0.412	
22.285	0.194	0.319	
22.290	-0.198	0.233	
22.295	-0.149	0.132	
22.300	0.021	0.036	
22.305	-0.227	-0.033	
22.310	-0.291	-0.095	
22.315	-0.070	-0.148	
22.320	-0.157	-0.174	
22.325	-0.370	-0.190	
22.330	-0.188	-0.212	
22.335	-0.073	-0.222	
22.340	-0.310	-0.216	
22.345	-0.238	-0.216	
22.350	-0.021	-0.213	
22.355	-0.252	-0.197	
22.360	-0.337	-0.192	
22.365	-0.032	-0.199	
22.370	-0.090	-0.188	
22.375	-0.265	-0.170	
22.380	-0.064	-0.161	
22.385	0.061	-0.143	
22.390	-0.229	-0.115	
22.395	-0.148	-0.105	
22.400	0.139	-0.099	
22.405	-0.160	-0.079	
22.410	-0.218	-0.073	
22.415	0.062	-0.081	
22.420	-0.096	-0.079	
22.425	-0.308	-0.084	
22.430	-0.108	-0.108	
22.435	-0.066	-0.128	
22.440	-0.343	-0.140	
22.445	-0.282	-0.169	
22.450	-0.093	-0.197	
22.455	-0.290	-0.210	
22.460	-0.352	-0.225	
22.465	-0.133	-0.243	
22.470	-0.226	-0.245	
22.475	-0.435	-0.249	
22.480	-0.261	-0.267	
22.485	-0.153	-0.278	
22.490	-0.281	-0.271	
22.495	0.026	-0.249	
22.500	0.675	-0.172	
22.505	0.337	-0.023	
22.510	-0.055	0.114	
22.515	-0.095	0.166	
22.520	-0.421	0.131	
22.525	-0.758	0.011	
22.530	-0.660	-0.170	
22.535	-0.572	-0.349	
22.540	-0.683	-0.488	
22.545	-0.489	-0.578	
22.550	-0.213	-0.602	
22.555	-0.316	-0.560	
22.560	-0.299	-0.488	
22.565	0.075	-0.402	
22.570	0.003	-0.292	
22.575	-0.201	-0.190	
22.580	0.064	-0.120	
22.585	0.178	-0.058	
22.590	-0.159	-0.005	
22.595	-0.031	0.014	
22.600	0.314	0.025	
22.605	0.011	0.054	
22.610	-0.009	0.073	
22.615	0.436	0.089	
22.620	0.311	0.134	
22.625	-0.020	0.180	
22.630	0.344	0.197	
22.635	0.500	0.224	
22.640	0.096	0.262	
22.645	0.322	0.279	
22.650	0.698	0.302	
22.655	0.392	0.355	
22.660	0.364	0.401	
22.665	0.858	0.441	
22.670	0.697	0.507	
22.675	0.308	0.564	
22.680	0.715	0.582	
22.685	0.843	0.602	
22.690	0.303	0.626	
22.695	0.341	0.604	
22.700	0.523	0.552	
22.705	0.029	0.490	
22.710	-0.127	0.390	
22.715	0.148	0.265	
22.720	-0.041	0.161	
22.725	-0.288	0.069	
22.730	-0.117	-0.022	
22.735	-0.087	-0.091	
22.740	-0.375	-0.139	
22.745	-0.264	-0.188	
22.750	-0.085	-0.223	
22.755	-0.277	-0.232	
22.760	-0.325	-0.238	
22.765	-0.105	-0.245	
22.770	-0.198	-0.237	
22.775	-0.386	-0.230	
22.780	-0.159	-0.236	
22.785	-0.034	-0.230	
22.790	-0.261	-0.207	
22.795	-0.156	-0.190	
22.800	0.075	-0.170	
22.805	-0.206	-0.138	
22.810	-0.249	-0.124	
22.815	0.065	-0.124	
22.820	-0.043	-0.108	
22.825	-0.268	-0.094	
22.830	-0.035	-0.098	
22.835	0.133	-0.091	
22.840	-0.198	-0.070	
22.845	-0.122	-0.064	
22.850	0.114	-0.065	
22.855	-0.218	-0.058	
22.860	-0.334	-0.074	
22.865	-0.127	-0.115	
22.870	-0.204	-0.151	
22.875	-0.370	-0.182	
22.880	-0.186	-0.216	
22.885	-0.136	-0.234	
22.890	-0.375	-0.237	
22.895	-0.282	-0.249	
22.900	-0.122	-0.258	
22.905	-0.369	-0.256	
22.910	-0.451	-0.268	
22.915	-0.140	-0.290	
22.920	-0.053	-0.283	
22.925	-0.011	-0.240	
22.930	0.607	-0.149	
22.935	0.598	0.006	
22.940	-0.186	0.155	
22.945	-0.377	0.193	
22.950	-0.438	0.113	
22.955	-0.717	-0.038	
22.960	-0.778	-0.228	
22.965	-0.524	-0.408	
22.970	-0.531	-0.530	
22.975	-0.579	-0.592	
22.980	-0.262	-0.603	
22.985	-0.108	-0.554	
22.990	-0.305	-0.463	
22.995	-0.114	-0.371	
23.000	0.244	-0.271	
23.005	-0.090	-0.159	
23.010	-0.149	-0.078	
23.015	0.232	-0.031	
23.020	0.137	0.018	
23.025	-0.122	0.057	
23.030	0.244	0.072	
23.035	0.331	0.098	
23.040	-0.113	0.129	
23.045	0.097	0.130	
23.050	0.485	0.133	
23.055	0.143	0.165	
23.060	0.102	0.191	
23.065	0.540	0.209	
23.070	0.369	0.251	
23.075	0.143	0.291	
23.080	0.637	0.317	
23.085	0.855	0.375	
23.090	0.491	0.466	
23.095	0.722	0.543	
23.100	1.049	0.618	
23.105	0.623	0.700	
23.110	0.480	0.739	
23.115	0.841	0.734	
23.120	0.611	0.724	
23.125	0.180	0.689	
23.130	0.407	0.608	
23.135	0.383	0.520	
23.140	-0.114	0.429	
23.145	-0.060	0.310	
23.150	0.119	0.189	
23.155	-0.209	0.093	
23.160	-0.265	0.003	
23.165	-0.040	-0.078	
23.170	-0.149	-0.126	
23.175	-0.308	-0.157	
23.180	-0.107	-0.183	
23.185	-0.047	-0.188	
23.190	-0.306	-0.180	
23.195	-0.221	-0.183	
23.200	-0.014	-0.186	
23.205	-0.267	-0.177	
23.210	-0.337	-0.181	
23.215	-0.017	-0.193	
23.220	-0.101	-0.186	
23.225	-0.256	-0.169	
23.230	-0.015	-0.159	
23.235	0.084	-0.134	
23.240	-0.210	-0.100	
23.245	-0.089	-0.084	
23.250	0.194	-0.070	
23.255	-0.133	-0.042	
23.260	-0.183	-0.033	
23.265	0.187	-0.036	
23.270	0.024	-0.021	
23.275	-0.198	-0.008	
23.280	0.058	-0.015	
23.285	0.070	-0.016	
23.290	-0.291	-0.018	
23.295	-0.255	-0.051	
23.300	-0.093	-0.099	
23.305	-0.279	-0.138	
23.310	-0.317	-0.176	
23.315	-0.089	-0.208	
23.320	-0.210	-0.218	
23.325	-0.367	-0.224	
23.330	-0.185	-0.237	
23.335	-0.168	-0.242	
23.340	-0.393	-0.241	
23.345	-0.242	-0.252	
23.350	0.186	-0.243	
23.355	0.201	-0.178	
23.360	0.402	-0.068	
23.365	0.745	0.080	
23.370	0.064	0.228	
23.375	-0.442	0.279	
23.380	-0.451	0.193	
23.385	-0.543	0.029	
23.390	-0.778	-0.164	
23.395	-0.625	-0.355	
23.400	-0.372	-0.493	
23.405	-0.460	-0.555	
23.410	-0.393	-0.561	
23.415	-0.044	-0.520	
23.420	-0.084	-0.430	
23.425	-0.207	-0.325	
23.430	0.175	-0.229	
23.435	0.282	-0.120	
23.440	-0.092	-0.014	
23.445	0.096	0.050	
23.450	0.398	0.095	
23.455	0.011	0.141	
23.460	-0.049	0.155	
23.465	0.425	0.149	
23.470	0.255	0.167	
23.475	0.043	0.190	
23.480	0.527	0.207	
23.485	0.640	0.257	
23.490	0.255	0.329	
23.495	0.476	0.379	
23.500	0.797	0.426	
23.505	0.468	0.487	
23.510	0.494	0.531	
23.515	0.980	0.566	
23.520	0.814	0.630	
23.525	0.552	0.691	
23.530	0.963	0.726	
23.535	0.957	0.768	
23.540	0.479	0.802	
23.545	0.634	0.788	
23.550	0.887	0.757	
23.555	0.415	0.733	
23.560	0.253	0.676	
23.565	0.541	0.591	
23.570	0.187	0.510	
23.575	-0.151	0.412	
23.580	0.097	0.287	
23.585	0.061	0.177	
23.590	-0.249	0.089	
23.595	-0.165	0.002	
23.600	0.008	-0.068	
23.605	-0.247	-0.108	
23.610	-0.274	-0.143	
23.615	-0.034	-0.172	
23.620	-0.169	-0.178	
23.625	-0.313	-0.180	
23.630	-0.082	-0.188	
23.635	-0.026	-0.180	
23.640	-0.273	-0.162	
23.645	-0.156	-0.157	
23.650	0.136	-0.146	
23.655	-0.142	-0.115	
23.660	-0.168	-0.093	
23.665	0.093	-0.083	
23.670	-0.101	-0.066	
23.675	-0.197	-0.060	
23.680	0.149	-0.062	
23.685	0.238	-0.036	
23.690	-0.122	0.007	
23.695	0.021	0.027	
23.700	0.297	0.042	
23.705	-0.072	0.067	
23.710	-0.105	0.069	
23.715	0.259	0.056	
23.720	0.004	0.059	
23.725	-0.220	0.051	
23.730	0.000	0.018	
23.735	-0.008	-0.012	
23.740	-0.285	-0.038	
23.745	-0.188	-0.080	
23.750	-0.015	-0.116	
23.755	-0.256	-0.135	
23.760	-0.259	-0.155	
23.765	-0.005	-0.173	
23.770	-0.177	-0.170	
23.775	-0.328	-0.169	
23.780	-0.040	-0.177	
23.785	0.264	-0.156	
23.790	0.244	-0.082	
23.795	0.698	0.036	
23.800	0.794	0.200	
23.805	-0.031	0.347	
23.810	-0.335	0.374	
23.815	-0.334	0.271	
23.820	-0.550	0.098	
23.825	-0.707	-0.104	
23.830	-0.454	-0.295	
23.835	-0.320	-0.425	
23.840	-0.406	-0.479	
23.845	-0.168	-0.477	
23.850	0.184	-0.414	
23.855	-0.058	-0.300	
23.860	-0.017	-0.186	
23.865	0.434	-0.080	
23.870	0.200	0.035	
23.875	-0.029	0.123	
23.880	0.422	0.169	
23.885	0.514	0.222	
23.890	0.158	0.281	
23.895	0.373	0.314	
23.900	0.608	0.342	
23.905	0.232	0.377	
23.910	0.245	0.385	
23.915	0.692	0.383	
23.920	0.512	0.410	
23.925	0.268	0.440	
23.930	0.700	0.454	
23.935	0.768	0.489	
23.940	0.437	0.540	
23.945	0.687	0.572	
23.950	1.003	0.613	
23.955	0.674	0.675	
23.960	0.726	0.723	
23.965	1.125	0.763	
23.970	0.905	0.821	
23.975	0.593	0.861	
23.980	0.872	0.858	
23.985	0.780	0.842	
23.990	0.270	0.804	
23.995	0.380	0.715	
24.000	0.537	0.612	
24.005	0.033	0.516	
24.010	-0.049	0.400	
24.015	0.261	0.278	
24.020	-0.002	0.188	
24.025	-0.194	0.112	
24.030	0.033	0.038	
24.035	0.055	-0.009	
24.040	-0.224	-0.034	
24.045	-0.098	-0.063	
24.050	0.107	-0.080	
24.055	-0.174	-0.076	
24.060	-0.182	-0.080	
24.065	0.058	-0.089	
24.070	-0.119	-0.086	
24.075	-0.204	-0.086	
24.080	0.093	-0.090	
24.085	0.126	-0.071	
24.090	-0.151	-0.039	
24.095	0.012	-0.024	
24.100	0.233	-0.007	
24.105	-0.113	0.019	
24.110	-0.133	0.023	
24.115	0.261	0.015	
24.120	0.082	0.030	
24.125	-0.122	0.046	
24.130	0.207	0.047	
24.135	0.212	0.063	
24.140	-0.122	0.082	
24.145	-0.015	0.074	
24.150	0.139	0.056	
24.155	-0.157	0.042	
24.160	-0.182	0.010	
24.165	0.017	-0.030	
24.170	-0.171	-0.059	
24.175	-0.302	-0.092	
24.180	-0.095	-0.131	
24.185	-0.061	-0.151	
24.190	-0.277	-0.156	
24.195	-0.148	-0.165	
24.200	-0.005	-0.166	
24.205	-0.250	-0.154	
24.210	-0.186	-0.152	
24.215	0.337	-0.136	
24.220	0.387	-0.063	
24.225	0.236	0.047	
24.230	0.486	0.154	
24.235	0.046	0.237	
24.240	-0.432	0.240	
24.245	-0.459	0.139	
24.250	-0.428	-0.019	
24.255	-0.665	-0.184	
24.260	-0.576	-0.339	
24.265	-0.255	-0.448	
24.270	-0.290	-0.483	
24.275	-0.319	-0.464	
24.280	0.020	-0.411	
24.285	0.122	-0.316	
24.290	-0.151	-0.206	
24.295	0.041	-0.120	
24.300	0.276	-0.046	
24.305	-0.037	0.024	
24.310	0.040	0.066	
24.315	0.436	0.096	
24.320	0.201	0.144	
24.325	-0.035	0.179	
24.330	0.294	0.182	
24.335	0.291	0.189	
24.340	0.001	0.198	
24.345	0.255	0.191	
24.350	0.532	0.201	
24.355	0.175	0.237	
24.360	0.206	0.262	
24.365	0.648	0.282	
24.370	0.471	0.331	
24.375	0.308	0.382	
24.380	0.732	0.420	
24.385	0.713	0.476	
24.390	0.323	0.530	
24.395	0.598	0.549	
24.400	0.822	0.565	
24.405	0.375	0.589	
24.410	0.294	0.579	
24.415	0.567	0.537	
24.420	0.265	0.496	
24.425	-0.061	0.432	
24.430	0.155	0.334	
24.435	0.053	0.239	
24.440	-0.233	0.149	
24.445	-0.116	0.053	
24.450	0.015	-0.025	
24.455	-0.255	-0.074	
24.460	-0.273	-0.120	
24.465	-0.096	-0.162	
24.470	-0.242	-0.185	
24.475	-0.374	-0.207	
24.480	-0.183	-0.233	
24.485	-0.172	-0.245	
24.490	-0.354	-0.247	
24.495	-0.195	-0.251	
24.500	-0.064	-0.245	
24.505	-0.284	-0.224	
24.510	-0.262	-0.214	
24.515	-0.064	-0.210	
24.520	-0.207	-0.196	
24.525	-0.308	-0.190	
24.530	-0.098	-0.194	
24.535	-0.079	-0.187	
24.540	-0.284	-0.174	
24.545	-0.159	-0.173	
24.550	-0.027	-0.169	
24.555	-0.236	-0.157	
24.560	-0.224	-0.155	
24.565	-0.015	-0.158	
24.570	-0.210	-0.152	
24.575	-0.351	-0.157	
24.580	-0.177	-0.181	
24.585	-0.239	-0.203	
24.590	-0.456	-0.227	
24.595	-0.316	-0.265	
24.600	-0.185	-0.294	
24.605	-0.386	-0.303	
24.610	-0.386	-0.313	
24.615	-0.239	-0.325	
24.620	-0.392	-0.329	
24.625	-0.471	-0.339	
24.630	-0.261	-0.355	
24.635	-0.221	-0.353	
24.640	-0.314	-0.334	
24.645	0.015	-0.302	
24.650	0.407	-0.224	
24.655	-0.069	-0.110	
24.660	-0.277	-0.034	
24.665	-0.335	-0.034	
24.670	-0.628	-0.101	
24.675	-0.846	-0.228	
24.680	-0.707	-0.388	
24.685	-0.616	-0.527	
24.690	-0.691	-0.620	
24.695	-0.479	-0.666	
24.700	-0.255	-0.653	
24.705	-0.377	-0.589	
24.710	-0.303	-0.510	
24.715	-0.078	-0.425	
24.720	-0.177	-0.335	
24.725	-0.276	-0.261	
24.730	-0.058	-0.213	
24.735	-0.066	-0.171	
24.740	-0.264	-0.140	
24.745	-0.102	-0.131	
24.750	0.088	-0.120	
24.755	-0.200	-0.098	
24.760	-0.206	-0.093	
24.765	0.061	-0.099	
24.770	-0.090	-0.091	
24.775	-0.209	-0.086	
24.780	0.097	-0.087	
24.785	0.152	-0.064	
24.790	-0.143	-0.030	
24.795	0.123	-0.008	
24.800	0.412	0.028	
24.805	0.065	0.088	
24.810	0.149	0.132	
24.815	0.534	0.171	
24.820	0.296	0.229	
24.825	0.059	0.269	
24.830	0.401	0.277	
24.835	0.290	0.283	
24.840	-0.117	0.273	
24.845	0.055	0.223	
24.850	0.158	0.164	
24.855	-0.204	0.113	
24.860	-0.247	0.044	
24.865	-0.108	-0.036	
24.870	-0.287	-0.103	
24.875	-0.410	-0.167	
24.880	-0.227	-0.229	
24.885	-0.267	-0.270	
24.890	-0.468	-0.297	
24.895	-0.345	-0.327	
24.900	-0.238	-0.345	
24.905	-0.432	-0.349	
24.910	-0.389	-0.355	
24.915	-0.207	-0.357	
24.920	-0.364	-0.347	
24.925	-0.445	-0.341	
24.930	-0.242	-0.345	
24.935	-0.241	-0.337	
24.940	-0.386	-0.322	
24.945	-0.213	-0.312	
24.950	-0.090	-0.291	
24.955	-0.306	-0.259	
24.960	-0.290	-0.242	
24.965	-0.081	-0.233	
24.970	-0.238	-0.218	
24.975	-0.342	-0.211	
24.980	-0.104	-0.216	
24.985	-0.130	-0.210	
24.990	-0.351	-0.201	
24.995	-0.246	-0.210	
25.000	-0.137	-0.220	
25.005	-0.349	-0.225	
25.010	-0.355	-0.240	
25.015	-0.215	-0.263	
25.020	-0.386	-0.279	
25.025	-0.459	-0.302	
25.030	-0.236	-0.329	
25.035	-0.270	-0.337	
25.040	-0.457	-0.335	
25.045	-0.339	-0.343	
25.050	-0.273	-0.349	
25.055	-0.477	-0.350	
25.060	-0.381	-0.360	
25.065	-0.072	-0.359	
25.070	-0.041	-0.318	
25.075	-0.023	-0.248	
25.080	0.319	-0.157	
25.085	-0.044	-0.057	
25.090	-0.506	-0.010	
25.095	-0.585	-0.061	
25.100	-0.592	-0.179	
25.105	-0.790	-0.322	
25.110	-0.707	-0.466	
25.115	-0.435	-0.573	
25.120	-0.460	-0.613	
25.125	-0.465	-0.604	
25.130	-0.194	-0.561	
25.135	-0.146	-0.483	
25.140	-0.277	-0.390	
25.145	-0.040	-0.307	
25.150	0.158	-0.218	
25.155	-0.163	-0.129	
25.160	-0.120	-0.075	
25.165	0.189	-0.044	
25.170	-0.102	-0.014	
25.175	-0.182	-0.006	
25.180	0.207	-0.012	
25.185	0.233	0.008	
25.190	-0.072	0.045	
25.195	0.270	0.071	
25.200	0.454	0.113	
25.205	0.101	0.172	
25.210	0.261	0.212	
25.215	0.643	0.250	
25.220	0.384	0.312	
25.225	0.241	0.361	
25.230	0.687	0.390	
25.235	0.657	0.438	
25.240	0.364	0.489	
25.245	0.675	0.519	
25.250	0.806	0.555	
25.255	0.360	0.592	
25.260	0.396	0.590	
25.265	0.681	0.564	
25.270	0.358	0.545	
25.275	0.116	0.505	
25.280	0.427	0.439	
25.285	0.232	0.381	
25.290	-0.177	0.315	
25.295	-0.015	0.218	
25.300	0.090	0.125	
25.305	-0.246	0.052	
25.310	-0.238	-0.023	
25.315	-0.026	-0.090	
25.320	-0.210	-0.129	
25.325	-0.310	-0.160	
25.330	-0.084	-0.187	
25.335	-0.119	-0.194	
25.340	-0.329	-0.191	
25.345	-0.178	-0.199	
25.350	-0.006	-0.198	
25.355	-0.217	-0.180	
25.360	-0.131	-0.164	
25.365	0.189	-0.139	
25.370	-0.087	-0.094	
25.375	-0.192	-0.063	
25.380	0.122	-0.052	
25.385	0.058	-0.032	
25.390	-0.180	-0.013	
25.395	0.064	-0.013	
25.400	0.209	-0.003	
25.405	-0.140	0.018	
25.410	-0.041	0.020	
25.415	0.322	0.022	
25.420	-0.035	0.045	
25.425	-0.188	0.051	
25.430	0.105	0.030	
25.435	-0.043	0.014	
25.440	-0.258	-0.008	
25.445	-0.098	-0.047	
25.450	0.017	-0.078	
25.455	-0.264	-0.094	
25.460	-0.206	-0.118	
25.465	0.037	-0.137	
25.470	-0.230	-0.138	
25.475	-0.334	-0.148	
25.480	-0.130	-0.173	
25.485	-0.125	-0.186	
25.490	-0.226	-0.187	
25.495	0.291	-0.165	
25.500	0.809	-0.071	
25.505	0.447	0.098	
25.510	0.227	0.251	
25.515	0.061	0.325	
25.520	-0.395	0.299	
25.525	-0.617	0.169	
25.530	-0.499	-0.024	
25.535	-0.528	-0.214	
25.540	-0.616	-0.368	
25.545	-0.349	-0.473	
25.550	-0.148	-0.505	
25.555	-0.267	-0.469	
25.560	-0.111	-0.402	
25.565	0.320	-0.302	
25.570	0.084	-0.169	
25.575	-0.020	-0.051	
25.580	0.428	0.038	
25.585	0.354	0.130	
25.590	0.004	0.204	
25.595	0.320	0.234	
25.600	0.488	0.258	
25.605	0.180	0.290	
25.610	0.332	0.307	
25.615	0.756	0.332	
25.620	0.476	0.390	
25.625	0.349	0.442	
25.630	0.759	0.475	
25.635	0.655	0.520	
25.640	0.363	0.558	
25.645	0.799	0.575	
25.650	0.998	0.613	
25.655	0.581	0.675	
25.660	0.767	0.716	
25.665	1.169	0.755	
25.670	0.896	0.820	
25.675	0.790	0.873	
25.680	1.201	0.908	
25.685	1.030	0.953	
25.690	0.564	0.975	
25.695	0.771	0.941	
25.700	0.838	0.887	
25.705	0.305	0.824	
25.710	0.290	0.721	
25.715	0.517	0.602	
25.720	0.043	0.495	
25.725	-0.136	0.373	
25.730	0.247	0.245	
25.735	0.116	0.158	
25.740	-0.178	0.101	
25.745	0.049	0.045	
25.750	0.163	0.013	
25.755	-0.212	0.002	
25.760	-0.168	-0.023	
25.765	0.161	-0.049	
25.770	-0.102	-0.050	
25.775	-0.185	-0.052	
25.780	0.110	-0.060	
25.785	-0.005	-0.052	
25.790	-0.200	-0.042	
25.795	0.117	-0.043	
25.800	0.255	-0.022	
25.805	-0.096	0.016	
25.810	0.017	0.036	
25.815	0.328	0.051	
25.820	-0.011	0.080	
25.825	-0.087	0.089	
25.830	0.291	0.082	
25.835	0.181	0.095	
25.840	-0.105	0.109	
25.845	0.189	0.103	
25.850	0.282	0.107	
25.855	-0.142	0.117	
25.860	-0.101	0.096	
25.865	0.155	0.059	
25.870	-0.148	0.033	
25.875	-0.238	-0.003	
25.880	0.012	-0.049	
25.885	-0.061	-0.075	
25.890	-0.268	-0.091	
25.895	-0.073	-0.114	
25.900	0.035	-0.121	
25.905	-0.273	-0.115	
25.910	-0.247	-0.126	
25.915	-0.047	-0.146	
25.920	-0.142	-0.151	
25.925	-0.006	-0.141	
25.930	0.814	-0.080	
25.935	0.791	0.076	
25.940	0.244	0.261	
25.945	0.087	0.366	
25.950	-0.233	0.359	
25.955	-0.617	0.243	
25.960	-0.625	0.045	
25.965	-0.444	-0.168	
25.970	-0.531	-0.335	
25.975	-0.474	-0.447	
25.980	-0.127	-0.494	
25.985	-0.093	-0.464	
25.990	-0.203	-0.387	
25.995	0.192	-0.292	
26.000	0.392	-0.165	
26.005	-0.002	-0.027	
26.010	0.149	0.070	
26.015	0.521	0.143	
26.020	0.192	0.216	
26.025	0.047	0.256	
26.030	0.422	0.261	
26.035	0.319	0.272	
26.040	0.093	0.280	
26.045	0.509	0.279	
26.050	0.630	0.307	
26.055	0.216	0.356	
26.060	0.419	0.383	
26.065	0.803	0.411	
26.070	0.511	0.466	
26.075	0.436	0.511	
26.080	0.887	0.544	
26.085	0.805	0.599	
26.090	0.524	0.655	
26.095	0.919	0.689	
26.100	1.035	0.736	
26.105	0.558	0.787	
26.110	0.669	0.796	
26.115	1.058	0.791	
26.120	0.655	0.801	
26.125	0.433	0.787	
26.130	0.729	0.739	
26.135	0.445	0.687	
26.140	0.033	0.610	
26.145	0.285	0.497	
26.150	0.271	0.390	
26.155	-0.163	0.296	
26.160	-0.095	0.188	
26.165	0.152	0.091	
26.170	-0.177	0.028	
26.175	-0.262	-0.029	
26.180	-0.034	-0.086	
26.185	-0.130	-0.119	
26.190	-0.300	-0.141	
26.195	-0.064	-0.162	
26.200	0.044	-0.161	
26.205	-0.242	-0.140	
26.210	-0.117	-0.130	
26.215	0.160	-0.116	
26.220	-0.142	-0.084	
26.225	-0.168	-0.067	
26.230	0.195	-0.059	
26.235	0.068	-0.031	
26.240	-0.178	-0.004	
26.245	0.068	-0.000	
26.250	0.180	0.008	
26.255	-0.140	0.024	
26.260	-0.014	0.022	
26.265	0.317	0.024	
26.270	-0.046	0.047	
26.275	-0.111	0.055	
26.280	0.309	0.051	
26.285	0.175	0.071	
26.290	-0.137	0.091	
26.295	0.075	0.084	
26.300	0.056	0.068	
26.305	-0.277	0.043	
26.310	-0.186	-0.009	
26.315	-0.003	-0.062	
26.320	-0.220	-0.096	
26.325	-0.259	-0.128	
26.330	-0.015	-0.154	
26.335	-0.148	-0.159	
26.340	-0.339	-0.162	
26.345	-0.177	-0.180	
26.350	-0.142	-0.194	
26.355	-0.265	-0.199	
26.360	0.131	-0.189	
26.365	0.837	-0.111	
26.370	0.634	0.060	
26.375	0.300	0.244	
26.380	0.180	0.355	
26.385	-0.297	0.361	
26.390	-0.625	0.249	
26.395	-0.560	0.051	
26.400	-0.509	-0.160	
26.405	-0.614	-0.335	
26.410	-0.422	-0.459	
26.415	-0.157	-0.510	
26.420	-0.247	-0.486	
26.425	-0.197	-0.424	
26.430	0.224	-0.334	
26.435	0.120	-0.211	
26.440	-0.098	-0.095	
26.445	0.255	-0.012	
26.450	0.373	0.067	
26.455	-0.021	0.139	
26.460	0.187	0.173	
26.465	0.495	0.196	
26.470	0.146	0.233	
26.475	0.082	0.248	
26.480	0.483	0.246	
26.485	0.355	0.265	
26.490	0.064	0.283	
26.495	0.512	0.286	
26.500	0.674	0.316	
26.505	0.262	0.370	
26.510	0.532	0.408	
26.515	0.963	0.457	
26.520	0.630	0.540	
26.525	0.553	0.608	
26.530	0.989	0.656	
26.535	0.837	0.714	
26.540	0.530	0.758	
26.545	0.910	0.769	
26.550	0.939	0.784	
26.555	0.418	0.795	
26.560	0.471	0.757	
26.565	0.677	0.693	
26.570	0.233	0.628	
26.575	0.056	0.536	
26.580	0.312	0.422	
26.585	0.027	0.321	
26.590	-0.191	0.220	
26.595	0.046	0.116	
26.600	0.055	0.041	
26.605	-0.265	-0.009	
26.610	-0.185	-0.062	
26.615	0.029	-0.104	
26.620	-0.210	-0.122	
26.625	-0.270	-0.138	
26.630	-0.072	-0.159	
26.635	-0.156	-0.166	
26.640	-0.281	-0.169	
26.645	-0.053	-0.175	
26.650	0.015	-0.163	
26.655	-0.236	-0.139	
26.660	-0.149	-0.129	
26.665	0.041	-0.124	
26.670	-0.194	-0.110	
26.675	-0.217	-0.109	
26.680	0.158	-0.110	
26.685	0.014	-0.085	
26.690	-0.188	-0.057	
26.695	0.082	-0.046	
26.700	0.169	-0.025	
26.705	-0.156	0.002	
26.710	-0.043	0.007	
26.715	0.268	0.009	
26.720	-0.073	0.028	
26.725	-0.140	0.031	
26.730	0.155	0.018	
26.735	-0.063	0.013	
26.740	-0.261	-0.002	
26.745	-0.095	-0.041	
26.750	-0.089	-0.077	
26.755	-0.303	-0.107	
26.760	-0.189	-0.143	
26.765	-0.021	-0.167	
26.770	-0.259	-0.170	
26.775	-0.316	-0.180	
26.780	-0.095	-0.197	
26.785	-0.213	-0.202	
26.790	-0.354	-0.208	
26.795	-0.012	-0.215	
26.800	0.386	-0.179	
26.805	0.319	-0.078	
26.810	0.579	0.060	
26.815	0.552	0.210	
26.820	-0.224	0.312	
26.825	-0.494	0.287	
26.830	-0.448	0.145	
26.835	-0.610	-0.044	
26.840	-0.738	-0.240	
26.845	-0.483	-0.410	
26.850	-0.345	-0.513	
26.855	-0.441	-0.543	
26.860	-0.239	-0.526	
26.865	0.065	-0.459	
26.870	-0.090	-0.351	
26.875	-0.041	-0.240	
26.880	0.386	-0.132	
26.885	0.194	-0.011	
26.890	-0.064	0.083	
26.895	0.343	0.132	
26.900	0.434	0.181	
26.905	0.041	0.230	
26.910	0.233	0.246	
26.915	0.503	0.255	
26.920	0.126	0.275	
26.925	0.139	0.276	
26.930	0.590	0.271	
26.935	0.421	0.299	
26.940	0.151	0.330	
26.945	0.599	0.346	
26.950	0.738	0.386	
26.955	0.376	0.448	
26.960	0.633	0.493	
26.965	0.933	0.543	
26.970	0.576	0.610	
26.975	0.572	0.652	
26.980	1.005	0.679	
26.985	0.765	0.721	
26.990	0.437	0.745	
26.995	0.765	0.731	
27.000	0.680	0.711	
27.005	0.116	0.674	
27.010	0.210	0.583	
27.015	0.352	0.471	
27.020	-0.099	0.367	
27.025	-0.175	0.247	
27.030	0.058	0.125	
27.035	-0.151	0.031	
27.040	-0.300	-0.045	
27.045	-0.101	-0.114	
27.050	-0.085	-0.154	
27.055	-0.314	-0.172	
27.060	-0.188	-0.191	
27.065	-0.041	-0.199	
27.070	-0.262	-0.190	
27.075	-0.265	-0.189	
27.080	-0.052	-0.193	
27.085	-0.195	-0.185	
27.090	-0.329	-0.183	
27.095	-0.105	-0.192	
27.100	-0.061	-0.189	
27.105	-0.285	-0.176	
27.110	-0.159	-0.174	
27.115	0.101	-0.164	
27.120	-0.165	-0.134	
27.125	-0.162	-0.113	
27.130	0.146	-0.097	
27.135	-0.050	-0.068	
27.140	-0.217	-0.049	
27.145	0.046	-0.051	
27.150	0.078	-0.044	
27.155	-0.210	-0.034	
27.160	-0.104	-0.043	
27.165	0.053	-0.056	
27.170	-0.229	-0.063	
27.175	-0.267	-0.085	
27.180	-0.089	-0.120	
27.185	-0.267	-0.148	
27.190	-0.433	-0.183	
27.195	-0.178	-0.227	
27.200	-0.130	-0.249	
27.205	-0.335	-0.250	
27.210	-0.246	-0.252	
27.215	-0.142	-0.252	
27.220	-0.363	-0.246	
27.225	-0.355	-0.254	
27.230	-0.063	-0.264	
27.235	-0.044	-0.244	
27.240	-0.029	-0.198	
27.245	0.469	-0.121	
27.250	0.287	-0.006	
27.255	-0.361	0.083	
27.260	-0.485	0.069	
27.265	-0.486	-0.034	
27.270	-0.712	-0.179	
27.275	-0.710	-0.338	
27.280	-0.457	-0.473	
27.285	-0.470	-0.549	
27.290	-0.506	-0.573	
27.295	-0.233	-0.558	
27.300	-0.133	-0.499	
27.305	-0.277	-0.413	
27.310	-0.111	-0.332	
27.315	0.119	-0.248	
27.320	-0.174	-0.163	
27.325	-0.178	-0.110	
27.330	0.161	-0.081	
27.335	0.011	-0.044	
27.340	-0.149	-0.017	
27.345	0.178	-0.005	
27.350	0.184	0.020	
27.355	-0.133	0.047	
27.360	0.041	0.050	
27.365	0.290	0.054	
27.370	-0.050	0.072	
27.375	-0.031	0.075	
27.380	0.441	0.077	
27.385	0.312	0.118	
27.390	0.119	0.171	
27.395	0.556	0.217	
27.400	0.578	0.282	
27.405	0.157	0.349	
27.410	0.451	0.379	
27.415	0.748	0.407	
27.420	0.370	0.453	
27.425	0.294	0.474	
27.430	0.596	0.469	
27.435	0.242	0.459	
27.440	-0.066	0.417	
27.445	0.273	0.337	
27.450	0.200	0.266	
27.455	-0.197	0.205	
27.460	-0.134	0.121	
27.465	-0.027	0.035	
27.470	-0.274	-0.035	
27.475	-0.271	-0.102	
27.480	-0.069	-0.157	
27.485	-0.229	-0.185	
27.490	-0.372	-0.206	
27.495	-0.175	-0.231	
27.500	-0.186	-0.243	
27.505	-0.389	-0.247	
27.510	-0.250	-0.259	
27.515	-0.108	-0.264	
27.520	-0.328	-0.254	
27.525	-0.329	-0.253	
27.530	-0.110	-0.256	
27.535	-0.246	-0.247	
27.540	-0.325	-0.240	
27.545	-0.084	-0.237	
27.550	-0.085	-0.219	
27.555	-0.279	-0.194	
27.560	-0.139	-0.182	
27.565	0.052	-0.166	
27.570	-0.210	-0.139	
27.575	-0.210	-0.126	
27.580	0.032	-0.125	
27.585	-0.131	-0.114	
27.590	-0.247	-0.109	
27.595	-0.015	-0.117	
27.600	-0.052	-0.114	
27.605	-0.299	-0.111	
27.610	-0.192	-0.128	
27.615	-0.108	-0.149	
27.620	-0.328	-0.166	
27.625	-0.326	-0.194	
27.630	-0.162	-0.225	
27.635	-0.271	-0.241	
27.640	-0.360	-0.253	
27.645	-0.142	-0.265	
27.650	-0.156	-0.259	
27.655	-0.387	-0.247	
27.660	-0.262	-0.250	
27.665	-0.101	-0.253	
27.670	-0.201	-0.238	
27.675	-0.003	-0.210	
27.680	0.637	-0.138	
27.685	0.329	-0.003	
27.690	-0.188	0.115	
27.695	-0.244	0.138	
27.700	-0.433	0.073	
27.705	-0.714	-0.056	
27.710	-0.633	-0.225	
27.715	-0.497	-0.380	
27.720	-0.573	-0.488	
27.725	-0.457	-0.548	
27.730	-0.149	-0.552	
27.735	-0.183	-0.495	
27.740	-0.252	-0.411	
27.745	0.059	-0.323	
27.750	0.154	-0.219	
27.755	-0.137	-0.117	
27.760	0.076	-0.047	
27.765	0.315	0.011	
27.770	-0.049	0.068	
27.775	-0.026	0.092	
27.780	0.348	0.099	
27.785	0.043	0.116	
27.790	-0.110	0.119	
27.795	0.317	0.104	
27.800	0.358	0.119	
27.805	-0.014	0.151	
27.810	0.274	0.167	
27.815	0.565	0.195	
27.820	0.229	0.248	
27.825	0.322	0.290	
27.830	0.771	0.333	
27.835	0.553	0.405	
27.840	0.349	0.468	
27.845	0.719	0.503	
27.850	0.684	0.542	
27.855	0.282	0.570	
27.860	0.515	0.560	
27.865	0.683	0.544	
27.870	0.241	0.534	
27.875	0.198	0.493	
27.880	0.505	0.435	
27.885	0.143	0.388	
27.890	-0.125	0.324	
27.895	0.068	0.231	
27.900	-0.034	0.142	
27.905	-0.252	0.060	
27.910	-0.136	-0.022	
27.915	-0.038	-0.084	
27.920	-0.261	-0.121	
27.925	-0.259	-0.155	
27.930	-0.078	-0.182	
27.935	-0.258	-0.193	
27.940	-0.352	-0.207	
27.945	-0.108	-0.224	
27.950	-0.101	-0.223	
27.955	-0.302	-0.209	
27.960	-0.178	-0.204	
27.965	-0.072	-0.198	
27.970	-0.290	-0.187	
27.975	-0.233	-0.187	
27.980	0.073	-0.185	
27.985	-0.128	-0.159	
27.990	-0.223	-0.136	
27.995	0.029	-0.125	
28.000	0.008	-0.103	
28.005	-0.229	-0.082	
28.010	-0.082	-0.081	
28.015	0.059	-0.081	
28.020	-0.172	-0.072	
28.025	-0.127	-0.074	
28.030	0.175	-0.072	
28.035	-0.095	-0.052	
28.040	-0.224	-0.044	
28.045	-0.006	-0.057	
28.050	-0.104	-0.069	
28.055	-0.351	-0.088	
28.060	-0.201	-0.127	
28.065	-0.078	-0.162	
28.070	-0.305	-0.179	
28.075	-0.288	-0.200	
28.080	-0.079	-0.217	
28.085	-0.239	-0.218	
28.090	-0.366	-0.220	
28.095	-0.197	-0.235	
28.100	-0.194	-0.242	
28.105	-0.274	-0.241	
28.110	0.107	-0.225	
28.115	0.614	-0.150	
28.120	0.236	-0.013	
28.125	0.024	0.108	
28.130	-0.037	0.159	
28.135	-0.451	0.132	
28.140	-0.703	0.018	
28.145	-0.547	-0.152	
28.150	-0.529	-0.315	
28.155	-0.622	-0.440	
28.160	-0.399	-0.520	
28.165	-0.215	-0.539	
28.170	-0.314	-0.502	
28.175	-0.229	-0.440	
28.180	0.140	-0.358	
28.185	-0.021	-0.250	
28.190	-0.134	-0.152	
28.195	0.198	-0.081	
28.200	0.158	-0.011	
28.205	-0.116	0.044	
28.210	0.215	0.069	
28.215	0.404	0.102	
28.220	-0.011	0.146	
28.225	0.064	0.161	
28.230	0.453	0.165	
28.235	0.212	0.191	
28.240	0.067	0.212	
28.245	0.448	0.220	
28.250	0.457	0.249	
28.255	0.149	0.287	
28.260	0.456	0.308	
28.265	0.733	0.345	
28.270	0.378	0.405	
28.275	0.425	0.449	
28.280	0.767	0.479	
28.285	0.562	0.522	
28.290	0.428	0.554	
28.295	0.843	0.572	
28.300	0.733	0.606	
28.305	0.273	0.631	
28.310	0.425	0.605	
28.315	0.537	0.557	
28.320	0.067	0.503	
28.325	0.049	0.417	
28.330	0.262	0.317	
28.335	-0.095	0.232	
28.340	-0.229	0.140	
28.345	-0.063	0.040	
28.350	-0.090	-0.036	
28.355	-0.282	-0.092	
28.360	-0.133	-0.138	
28.365	-0.040	-0.163	
28.370	-0.293	-0.168	
28.375	-0.259	-0.180	
28.380	-0.070	-0.194	
28.385	-0.221	-0.193	
28.390	-0.314	-0.196	
28.395	-0.087	-0.204	
28.400	-0.124	-0.198	
28.405	-0.313	-0.189	
28.410	-0.156	-0.191	
28.415	-0.035	-0.187	
28.420	-0.235	-0.172	
28.425	-0.171	-0.164	
28.430	0.099	-0.152	
28.435	-0.137	-0.123	
28.440	-0.239	-0.105	
28.445	0.032	-0.104	
28.450	-0.024	-0.093	
28.455	-0.239	-0.083	
28.460	-0.064	-0.088	
28.465	0.087	-0.088	
28.470	-0.197	-0.075	
28.475	-0.171	-0.077	
28.480	0.094	-0.085	
28.485	-0.163	-0.079	
28.490	-0.274	-0.085	
28.495	-0.095	-0.110	
28.500	-0.160	-0.130	
28.505	-0.352	-0.152	
28.510	-0.195	-0.183	
28.515	-0.102	-0.204	
28.520	-0.317	-0.209	
28.525	-0.306	-0.222	
28.530	-0.124	-0.235	
28.535	-0.308	-0.238	
28.540	-0.419	-0.249	
28.545	-0.166	-0.269	
28.550	-0.047	-0.266	
28.555	-0.058	-0.230	
28.560	0.512	-0.154	
28.565	0.616	-0.015	
28.570	-0.142	0.130	
28.575	-0.357	0.176	
28.580	-0.399	0.108	
28.585	-0.665	-0.029	
28.590	-0.776	-0.207	
28.595	-0.528	-0.382	
28.600	-0.467	-0.504	
28.605	-0.537	-0.563	
28.610	-0.271	-0.572	
28.615	-0.050	-0.523	
28.620	-0.213	-0.429	
28.625	-0.122	-0.332	
28.630	0.206	-0.234	
28.635	-0.082	-0.133	
28.640	-0.143	-0.064	
28.645	0.239	-0.024	
28.650	0.181	0.024	
28.655	-0.120	0.065	
28.660	0.161	0.078	
28.665	0.352	0.096	
28.670	-0.040	0.125	
28.675	0.105	0.134	
28.680	0.491	0.144	
28.685	0.201	0.182	
28.690	0.082	0.212	
28.695	0.512	0.228	
28.700	0.471	0.267	
28.705	0.216	0.314	
28.710	0.614	0.349	
28.715	0.806	0.406	
28.720	0.460	0.483	
28.725	0.584	0.538	
28.730	0.918	0.584	
28.735	0.596	0.637	
28.740	0.465	0.665	
28.745	0.873	0.666	
28.750	0.703	0.679	
28.755	0.239	0.676	
28.760	0.451	0.625	
28.765	0.486	0.560	
28.770	-0.044	0.488	
28.775	-0.081	0.377	
28.780	0.146	0.250	
28.785	-0.159	0.144	
28.790	-0.276	0.045	
28.795	-0.046	-0.047	
28.800	-0.131	-0.107	
28.805	-0.335	-0.146	
28.810	-0.182	-0.184	
28.815	-0.090	-0.205	
28.820	-0.291	-0.207	
28.825	-0.247	-0.213	
28.830	-0.034	-0.214	
28.835	-0.215	-0.200	
28.840	-0.294	-0.191	
