Time	Potential	EKG	Unnamed: 3
0.0	-0.265	-0.01471652323952504	
0.005	-0.174	-0.048189239695780345	
0.01	0.087	-0.07890747456887301	
0.015	-0.216	-0.09481797632485667	
0.02	-0.280	-0.11213813508038506	
0.025	0.075	-0.12764646457371326	
0.03	-0.110	-0.12788034400189685	
0.035	-0.306	-0.12664163959606442	
0.04	-0.083	-0.1337810455286314	
0.045	-0.045	-0.13858274072503657	
0.05	-0.339	-0.14489686332422866	
0.055	-0.268	-0.16005159013645603	
0.06	-0.087	-0.18088545095116104	
0.065	-0.312	-0.200582273338192	
0.07	-0.368	-0.2196509608803917	
0.075	-0.121	-0.23660216210089197	
0.08	-0.220	-0.24603198050050484	
0.085	-0.398	-0.2525571127965898	
0.09	-0.176	-0.25505884891729014	
0.095	-0.032	-0.24811874205373408	
0.1	-0.196	-0.22686551184254475	
0.105	0.218	-0.17586032521956108	
0.11	0.599	-0.07696554674516476	
0.115	-0.113	0.035714809015070736	
0.12	-0.459	0.0847733794360703	
0.125	-0.408	0.0342405246098175	
0.13	-0.596	-0.0921000950793104	
0.135	-0.775	-0.2493641486889945	
0.14	-0.558	-0.3945061258263846	
0.145	-0.398	-0.5026282817876223	
0.15	-0.462	-0.555619873240448	
0.155	-0.263	-0.5428288663925033	
0.16	0.125	-0.4732462622127661	
0.165	-0.115	-0.36873317714309267	
0.17	-0.136	-0.2565497479886333	
0.175	0.337	-0.14695602305055322	
0.18	0.183	-0.04315792812270053	
0.185	-0.058	0.04288803173438036	
0.19	0.403	0.11095142132548255	
0.195	0.560	0.17977320551935658	
0.2	0.111	0.246618432725777	
0.205	0.299	0.2941058734681985	
0.21	0.638	0.32840123310522895	
0.215	0.311	0.35990236435052897	
0.22	0.293	0.38504330775644446	
0.225	0.834	0.41562298566499073	
0.23	0.724	0.46692689782776214	
0.235	0.394	0.5263573408603153	
0.24	0.759	0.5761821694370577	
0.245	0.907	0.6201037386866908	
0.25	0.632	0.6642286489699128	
0.255	0.849	0.7140683129973315	
0.26	1.233	0.7748122769974334	
0.265	0.794	0.8377122664553532	
0.27	0.528	0.873748726512851	
0.275	0.878	0.8658850598507488	
0.28	0.544	0.8219547772004487	
0.285	0.030	0.7370434474418618	
0.29	0.342	0.6162954034426282	
0.295	0.368	0.4883132965635672	
0.3	-0.121	0.3690398811053166	
0.305	-0.045	0.2569933907222517	
0.31	0.258	0.16099873347200447	
0.315	-0.106	0.08671500149316956	
0.32	-0.184	0.032672820175398166	
0.325	0.186	-0.0020083472448107226	
0.33	-0.008	-0.02196437111450664	
0.335	-0.228	-0.03400821133698263	
0.34	0.062	-0.03869978725731862	
0.345	0.252	-0.03162376825053525	
0.35	-0.153	-0.013984346505179476	
0.355	-0.069	0.002933722273285408	
0.36	0.198	0.01000815310739014	
0.365	-0.182	0.004719847629803808	
0.37	-0.225	-0.011381172492385502	
0.375	0.127	-0.031022735155083164	
0.38	-0.104	-0.04892211500438882	
0.385	-0.317	-0.07102450588659681	
0.39	-0.089	-0.0937531535542896	
0.395	-0.009	-0.11459431645564942	
0.4	-0.323	-0.13495310034503094	
0.405	-0.237	-0.1501166209894117	
0.41	-0.013	-0.16297335422957554	
0.415	-0.242	-0.17620949085075555	
0.42	-0.266	-0.18042632638530656	
0.425	0.195	-0.1660348682572529	
0.43	0.308	-0.11881135792556295	
0.435	-0.019	-0.041029742573100075	
0.44	0.093	0.035148051065249056	
0.445	-0.103	0.06439969546726748	
0.45	-0.529	0.027021680713508914	
0.455	-0.593	-0.066184868408798	
0.46	-0.488	-0.19794990301084006	
0.465	-0.585	-0.3391887220636201	
0.47	-0.538	-0.44242798180149395	
0.475	-0.213	-0.48695516487782975	
0.48	-0.217	-0.48483357588484377	
0.485	-0.342	-0.44413603650831673	
0.49	-0.089	-0.3737040708417811	
0.495	0.110	-0.29445727502647523	
0.5	-0.187	-0.2141458433127593	
0.505	-0.026	-0.13715436266286798	
0.51	0.403	-0.0627071062829922	
0.515	0.055	0.010633800483710166	
0.52	-0.077	0.06934299208788716	
0.525	0.392	0.11024879115685289	
0.53	0.255	0.14217838057333862	
0.535	-0.060	0.16659297850801816	
0.54	0.391	0.18639943509165635	
0.545	0.550	0.21572887194667562	
0.55	0.090	0.2516734816111303	
0.555	0.227	0.27877482088726685	
0.56	0.667	0.30046893777502426	
0.565	0.386	0.33162138398623275	
0.57	0.325	0.37224906609606345	
0.575	0.843	0.42133166306788966	
0.58	0.637	0.4782312366919208	
0.585	0.211	0.5205108483602163	
0.59	0.608	0.5373485183015034	
0.595	0.702	0.539767420711461	
0.6	0.149	0.5297090553167612	
0.605	0.197	0.4937058477039342	
0.61	0.435	0.43440241928676593	
0.615	-0.026	0.35870761512025195	
0.62	-0.162	0.27025992227352014	
0.625	0.156	0.17918365797937244	
0.63	-0.038	0.09530379500422835	
0.635	-0.300	0.021686456597151405	
0.64	-0.068	-0.03678066393845669	
0.645	0.133	-0.07729615403389535	
0.65	-0.234	-0.09605644006273117	
0.655	-0.165	-0.09930798728121565	
0.66	0.087	-0.09978986162995004	
0.665	-0.196	-0.10514423711509588	
0.67	-0.263	-0.10962063427231318	
0.675	0.033	-0.11202241287755375	
0.68	-0.113	-0.11870542105287292	
0.685	-0.295	-0.12613598554651978	
0.69	-0.064	-0.12888633409316136	
0.695	-0.022	-0.13041909372785593	
0.7	-0.309	-0.13793382026389145	
0.705	-0.254	-0.14630113022197133	
0.71	-0.046	-0.15889940627355592	
0.715	-0.295	-0.17908646152132607	
0.72	-0.398	-0.19957565745388225	
0.725	-0.138	-0.2180921935308634	
0.73	-0.208	-0.23868736217360387	
0.735	-0.411	-0.2540953512785027	
0.74	-0.217	-0.25791758193193287	
0.745	-0.107	-0.260410188247986	
0.75	-0.277	-0.2579208129630599	
0.755	-0.061	-0.23129398321724667	
0.76	0.473	-0.16781822348130893	
0.765	-0.058	-0.0810925373965025	
0.77	-0.359	-0.019706606634589674	
0.775	-0.301	-0.02410927326394487	
0.78	-0.515	-0.10165676307771578	
0.785	-0.734	-0.22017743407396678	
0.79	-0.530	-0.33991094974293695	
0.795	-0.402	-0.4422986612473666	
0.8	-0.569	-0.5089542401300273	
0.805	-0.393	-0.5263430595064871	
0.81	-0.104	-0.5007363510980276	
0.815	-0.260	-0.44910735106528443	
0.82	-0.268	-0.3777331515344359	
0.825	0.172	-0.290921289228394	
0.83	0.099	-0.1976058290371387	
0.835	-0.194	-0.11136952146758826	
0.84	0.105	-0.04287136676059921	
0.845	0.269	0.007825136142977977	
0.85	-0.138	0.042848438631228454	
0.855	-0.064	0.06054710673080477	
0.86	0.272	0.062436441019226956	
0.865	-0.032	0.05884776257219875	
0.87	-0.052	0.05710585635238464	
0.875	0.476	0.07321679861867407	
0.88	0.336	0.11349419108461464	
0.885	-0.016	0.15947170409142256	
0.89	0.431	0.20113289228672698	
0.895	0.693	0.25100116597935607	
0.9	0.321	0.3168127981203781	
0.905	0.441	0.3834314168465576	
0.91	0.774	0.44151671682493093	
0.915	0.330	0.4819123482005621	
0.92	0.065	0.484957804807122	
0.925	0.537	0.45512283548852184	
0.93	0.325	0.41362857905047645	
0.935	-0.132	0.3605098461835434	
0.94	0.049	0.2869443024692946	
0.945	0.084	0.1959970301281262	
0.95	-0.240	0.1030013476301264	
0.955	-0.161	0.023354753259854217	
0.96	0.082	-0.03761005580856538	
0.965	-0.184	-0.08287815104116596	
0.97	-0.268	-0.11094627471390679	
0.975	0.104	-0.12207146189594958	
0.98	0.004	-0.11831341997817112	
0.985	-0.272	-0.10630584102611909	
0.99	-0.071	-0.09519265332960336	
0.995	0.044	-0.09308358382562529	
1.0	-0.248	-0.09682650675509512	
1.005	-0.193	-0.09969259366031227	
1.01	0.070	-0.10377301819169327	
1.015	-0.203	-0.11276808236543988	
1.02	-0.318	-0.12188524685897968	
1.025	-0.014	-0.13323380447014113	
1.03	-0.142	-0.1463025885029814	
1.035	-0.382	-0.16218069231196314	
1.04	-0.193	-0.17727008642477257	
1.045	-0.100	-0.19613945503204108	
1.05	-0.362	-0.21472048159854085	
1.055	-0.307	-0.2256960676213555	
1.06	-0.095	-0.23485242804286233	
1.065	-0.327	-0.24672202330436746	
1.07	-0.388	-0.2568455692863199	
1.075	0.013	-0.25326933190056933	
1.08	0.156	-0.2242705880646141	
1.085	-0.072	-0.1621258686471686	
1.09	0.229	-0.0772903826441625	
1.095	0.137	-0.00017410213694816655	
1.1	-0.391	0.03123935176643229	
1.105	-0.497	-0.0007584968403252712	
1.11	-0.417	-0.09486529451233924	
1.115	-0.624	-0.22770510199064195	
1.12	-0.671	-0.354848886370831	
1.125	-0.411	-0.45023714409493915	
1.13	-0.304	-0.5072581731759633	
1.135	-0.371	-0.5111675867391705	
1.14	-0.092	-0.4572179038405993	
1.145	0.087	-0.37208424859263706	
1.15	-0.242	-0.2798414712894657	
1.155	-0.165	-0.1987261202711989	
1.16	0.198	-0.13369545644489547	
1.165	-0.103	-0.08581824768911721	
1.17	-0.188	-0.05100322307441576	
1.175	0.178	-0.0270770276012973	
1.18	0.050	-0.011267110940990569	
1.185	-0.179	-0.0014262946342617094	
1.19	0.166	0.01086225814459879	
1.195	0.472	0.04010197551699307	
1.2	0.070	0.08999665849440992	
1.205	0.230	0.14722093295134986	
1.21	0.690	0.2095159390790544	
1.215	0.339	0.27814363909243306	
1.22	0.157	0.33383507452094663	
1.225	0.750	0.37602614419248737	
1.23	0.698	0.42583675319873104	
1.235	0.305	0.4794757375208326	
1.24	0.652	0.5217914198743003	
1.245	0.754	0.5521452580489379	
1.25	0.191	0.5610167982972732	
1.255	0.140	0.5321221478093978	
1.26	0.383	0.4644333993694033	
1.265	-0.032	0.3712501773419971	
1.27	-0.197	0.26689751604435574	
1.275	0.101	0.1618807358120014	
1.28	-0.074	0.06684804004614363	
1.285	-0.271	-0.01134537878172194	
1.29	-0.032	-0.06427511597812949	
1.295	0.101	-0.09294624819170713	
1.3	-0.245	-0.10479850320831174	
1.305	-0.208	-0.10782739092109714	
1.31	0.061	-0.11272295476502098	
1.315	-0.159	-0.11867045718577932	
1.32	-0.231	-0.11897387239199501	
1.325	0.088	-0.11025756563418693	
1.33	-0.052	-0.10120289860788236	
1.335	-0.271	-0.09622146588661724	
1.34	-0.051	-0.09234147967569656	
1.345	0.064	-0.09105736146906886	
1.35	-0.271	-0.09370488507623995	
1.355	-0.266	-0.10180192874869876	
1.36	-0.097	-0.12383432035374542	
1.365	-0.280	-0.15864757481581024	
1.37	-0.368	-0.1909001101371503	
1.375	-0.145	-0.2133079117039235	
1.38	-0.208	-0.2362355483514007	
1.385	-0.370	-0.251164201177571	
1.39	-0.167	-0.2503063468154406	
1.395	-0.113	-0.245094343306898	
1.4	-0.353	-0.24274953382894	
1.405	-0.162	-0.2317364323651469	
1.41	0.473	-0.187723056170141	
1.415	0.229	-0.0986852041021363	
1.42	-0.097	0.005017552085501122	
1.425	-0.090	0.06470827667346865	
1.43	-0.404	0.03969825297990508	
1.435	-0.714	-0.05928194984000294	
1.44	-0.579	-0.19423695573170333	
1.445	-0.480	-0.3370292383679357	
1.45	-0.622	-0.45583222815299046	
1.455	-0.462	-0.5206715764920249	
1.46	-0.152	-0.5296175110468772	
1.465	-0.281	-0.49884832910094856	
1.47	-0.284	-0.43399839353364994	
1.475	0.165	-0.3419753619122936	
1.48	0.081	-0.23830378369355792	
1.485	-0.194	-0.14252428598684475	
1.49	0.177	-0.061060594087403185	
1.495	0.368	0.011122774698608623	
1.5	-0.068	0.07084390695506405	
1.505	0.039	0.11124519324699877	
1.51	0.389	0.1346397944281793	
1.515	0.139	0.15101765931311714	
1.52	0.065	0.16878451484425963	
1.525	0.580	0.19725037606461185	
1.53	0.537	0.2447851373809834	
1.535	0.185	0.30324742621086376	
1.54	0.615	0.3610057868344576	
1.545	0.793	0.4203050066880278	
1.55	0.368	0.4787000291828574	
1.555	0.567	0.5261770165181541	
1.56	1.005	0.573820115709033	
1.565	0.652	0.6260064097993007	
1.57	0.460	0.6676250346114887	
1.575	0.846	0.6882761132587227	
1.58	0.588	0.6868517933691549	
1.585	0.030	0.6481519585958295	
1.59	0.348	0.5709194801228091	
1.595	0.408	0.4753890408505902	
1.6	-0.135	0.37677438629780957	
1.605	-0.086	0.2720679555537475	
1.61	0.267	0.17377378981026503	
1.615	-0.092	0.09517957962145024	
1.62	-0.213	0.03664813894772314	
1.625	0.169	-0.0028836641405447965	
1.63	0.068	-0.023023319719255537	
1.635	-0.237	-0.03165399452799067	
1.64	-0.049	-0.03626412012574148	
1.645	0.058	-0.04869824494697507	
1.65	-0.222	-0.06498317775759971	
1.655	-0.147	-0.0739688493123324	
1.66	0.145	-0.07744189496271428	
1.665	-0.106	-0.07668236050559599	
1.67	-0.211	-0.07225333140365967	
1.675	0.049	-0.06609561453647722	
1.68	-0.119	-0.07303338472803263	
1.685	-0.341	-0.09250151277071297	
1.69	-0.187	-0.11635303591785977	
1.695	-0.077	-0.14676624838387634	
1.7	-0.326	-0.17686743452396003	
1.705	-0.301	-0.1959793963050831	
1.71	-0.063	-0.2095201243187255	
1.715	-0.242	-0.2226356043446813	
1.72	-0.327	-0.2252281859102925	
1.725	-0.063	-0.21711217840203717	
1.73	-0.043	-0.20601198458692227	
1.735	-0.152	-0.18250108634680184	
1.74	0.377	-0.12130251448437131	
1.745	0.580	-0.017683493260758718	
1.75	-0.153	0.08802806573797894	
1.755	-0.367	0.13086872538506483	
1.76	-0.375	0.07451611196292096	
1.765	-0.645	-0.061631316377462414	
1.77	-0.734	-0.2253270864117841	
1.775	-0.448	-0.37003930945822744	
1.78	-0.391	-0.47689482864790994	
1.785	-0.494	-0.5265802524515384	
1.79	-0.219	-0.5133271035674114	
1.795	0.064	-0.4555860874355348	
1.8	-0.200	-0.36799663171233943	
1.805	-0.090	-0.2670910955050445	
1.81	0.383	-0.1612898373583208	
1.815	0.104	-0.058677260836925295	
1.82	-0.031	0.031511565832153844	
1.825	0.397	0.10305789807571872	
1.83	0.321	0.15811902975727193	
1.835	-0.006	0.19820070109259955	
1.84	0.343	0.2256810512659384	
1.845	0.609	0.25354723719206734	
1.85	0.229	0.2908942128532595	
1.855	0.380	0.33284282714301006	
1.86	0.794	0.3808427031198627	
1.865	0.484	0.43231816070651274	
1.87	0.385	0.48041558799109535	
1.875	0.906	0.5271311830407204	
1.88	0.866	0.5831987236051909	
1.885	0.498	0.6421365548358484	
1.89	0.825	0.6906388181464914	
1.895	1.002	0.7295925375649706	
1.9	0.499	0.7548980855867768	
1.905	0.522	0.7557623062761327	
1.91	0.793	0.7298065738409413	
1.915	0.339	0.6813852988425342	
1.92	0.030	0.6034047556950815	
1.925	0.405	0.5040127159139514	
1.93	0.211	0.3992441353044152	
1.935	-0.196	0.2972599004887979	
1.94	-0.042	0.19653228268615128	
1.945	0.104	0.09952887072765332	
1.95	-0.197	0.020101271712520963	
1.955	-0.148	-0.033204134324852544	
1.96	0.180	-0.06135161319732307	
1.965	-0.122	-0.07449698534899836	
1.97	-0.203	-0.07644302636394001	
1.975	0.181	-0.06714409782170656	
1.98	0.068	-0.049793909163774075	
1.985	-0.210	-0.03357050445113901	
1.99	-0.006	-0.021544964021928036	
1.995	0.122	-0.018603063107358438	
2.0	-0.257	-0.027783251790551956	
2.005	-0.283	-0.04721395320850188	
2.01	-0.066	-0.08351689506742017	
2.015	-0.242	-0.13042433067905568	
2.02	-0.332	-0.16733575287777824	
2.025	-0.100	-0.18825861892958054	
2.03	-0.217	-0.208831824286366	
2.035	-0.408	-0.22946557990523755	
2.04	-0.177	-0.23954098971986473	
2.045	-0.040	-0.24064848785376783	
2.05	-0.320	-0.23475923798259568	
2.055	-0.277	-0.2221729433643429	
2.06	0.171	-0.20249658979314467	
2.065	0.149	-0.15843274454119521	
2.07	0.088	-0.07933091000322141	
2.075	0.382	0.01877632927198134	
2.08	-0.121	0.08710447181303015	
2.085	-0.587	0.0783997946941564	
2.09	-0.590	-0.013545313567618794	
2.095	-0.579	-0.1676101747634083	
2.1	-0.798	-0.3418260480994148	
2.105	-0.674	-0.48514157831475097	
2.11	-0.320	-0.5743518252766786	
2.115	-0.338	-0.6024891252667979	
2.12	-0.310	-0.5624263571865928	
2.125	0.148	-0.4640411351188437	
2.13	0.172	-0.3327966033949427	
2.135	-0.142	-0.19673953086865564	
2.14	0.191	-0.07644874932814855	
2.145	0.414	0.02455392923538556	
2.15	-0.016	0.10396420310442521	
2.155	0.061	0.1547274051787947	
2.16	0.440	0.18181446606713464	
2.165	0.206	0.20043143746285794	
2.17	0.079	0.2183652160921574	
2.175	0.582	0.24307553214989533	
2.18	0.496	0.2802976120180155	
2.185	0.160	0.32010988890402126	
2.19	0.559	0.3595679142285881	
2.195	0.915	0.4097167398420651	
2.2	0.551	0.48293372133891294	
2.205	0.706	0.5656627645902004	
2.21	1.146	0.6508943985305466	
2.215	0.829	0.7354585751906872	
2.22	0.612	0.801275083172096	
2.225	1.014	0.8400267425909935	
2.23	0.802	0.8523359798339936	
2.235	0.305	0.8301159266498606	
2.24	0.522	0.7694701099287515	
2.245	0.550	0.6826763737234367	
2.25	-0.029	0.5750169983751694	
2.255	-0.014	0.44761878454162407	
2.26	0.339	0.3217960152591277	
2.265	-0.061	0.21461071856401914	
2.27	-0.217	0.12436491535985598	
2.275	0.079	0.05085170256964446	
2.28	-0.031	-0.009590533863831642	
2.285	-0.292	-0.05665253169011719	
2.29	-0.101	-0.08767715993949207	
2.295	0.035	-0.11042001336838025	
2.3	-0.266	-0.12772498413374833	
2.305	-0.200	-0.1344041110921505	
2.31	0.130	-0.13142992986270952	
2.315	-0.159	-0.12424630659051232	
2.32	-0.301	-0.11854204600881847	
2.325	0.030	-0.1143703509867988	
2.33	-0.005	-0.11355895298913923	
2.335	-0.297	-0.11048209199855298	
2.34	-0.167	-0.10983804806466166	
2.345	-0.100	-0.12551586737155485	
2.35	-0.355	-0.15555191773980936	
2.355	-0.329	-0.1844340380241512	
2.36	-0.109	-0.20956990004313042	
2.365	-0.294	-0.23614667945886117	
2.37	-0.404	-0.253474261307649	
2.375	-0.190	-0.26346413504568916	
2.38	-0.252	-0.2765592978686996	
2.385	-0.428	-0.29043543351489387	
2.39	-0.124	-0.2868328615689005	
2.395	0.347	-0.24945340781162914	
2.4	0.026	-0.16952398022507192	
2.405	-0.045	-0.07349377064350154	
2.41	-0.037	-0.010595698462780476	
2.415	-0.477	-0.01919677353477182	
2.42	-0.760	-0.09855881538081393	
2.425	-0.631	-0.2274320493417456	
2.43	-0.628	-0.38152298135067575	
2.435	-0.717	-0.5134793313971534	
2.44	-0.453	-0.5857551077280299	
2.445	-0.203	-0.5993913847730692	
2.45	-0.287	-0.5606674308221273	
2.455	-0.148	-0.47143849394019466	
2.46	0.313	-0.34633094800555786	
2.465	0.096	-0.20828671961466372	
2.47	-0.084	-0.08070865481582731	
2.475	0.368	0.02381349734046103	
2.48	0.343	0.10649198270936681	
2.485	-0.029	0.1681826498004284	
2.49	0.293	0.20831130963299105	
2.495	0.481	0.2347931740678583	
2.5	0.084	0.25406724080800985	
2.505	0.258	0.2684620307778872	
2.51	0.796	0.2969397169493882	
2.515	0.570	0.35367645503509026	
2.52	0.420	0.427116007425652	
2.525	0.941	0.5059797829802528	
2.53	0.916	0.5895882904958956	
2.535	0.571	0.6690183211231628	
2.54	0.958	0.7383255852171344	
2.545	1.197	0.8039306426644652	
2.55	0.739	0.8640027242873046	
2.555	0.756	0.9023575152686365	
2.56	1.072	0.9149674462532764	
2.565	0.588	0.8986816657121228	
2.57	0.244	0.8420286306756086	
2.575	0.644	0.7509370736874396	
2.58	0.460	0.6496651996592984	
2.585	-0.069	0.5420568007536686	
2.59	0.192	0.4272188497211922	
2.595	0.302	0.31793128353944367	
2.6	-0.130	0.2231726464607059	
2.605	-0.100	0.14332434452131965	
2.61	0.236	0.07984339346537406	
2.615	-0.078	0.032867531759706525	
2.62	-0.228	-0.0008503158455431795	
2.625	0.097	-0.024273836187185188	
2.63	0.042	-0.04131045690200168	
2.635	-0.234	-0.05071570825785456	
2.64	-0.045	-0.05392347208212007	
2.645	0.124	-0.05621811672331531	
2.65	-0.194	-0.059620558656121085	
2.655	-0.116	-0.058672868384470736	
2.66	0.240	-0.04836886516281883	
2.665	-0.087	-0.03602151345292427	
2.67	-0.243	-0.02974669092801022	
2.675	-0.032	-0.03648211564418645	
2.68	-0.129	-0.06231502074383683	
2.685	-0.364	-0.10054612919412413	
2.69	-0.200	-0.1360365351769514	
2.695	-0.078	-0.16929367947905938	
2.7	-0.332	-0.19845856366700862	
2.705	-0.320	-0.2157038919942751	
2.71	-0.118	-0.22749368617197066	
2.715	-0.257	-0.24292384563083425	
2.72	-0.269	-0.24569031825079574	
2.725	0.321	-0.21051741344456087	
2.73	0.560	-0.12121010575191805	
2.735	0.120	0.010489998249824502	
2.74	0.044	0.12581783539642866	
2.745	-0.182	0.1586385591513358	
2.75	-0.637	0.0895315438552017	
2.755	-0.743	-0.05376452357562028	
2.76	-0.584	-0.23248095014431416	
2.765	-0.605	-0.4068730913834494	
2.77	-0.562	-0.5246798134597745	
2.775	-0.207	-0.562470227309591	
2.78	-0.110	-0.5372336536352039	
2.785	-0.255	-0.463591971377198	
2.79	0.038	-0.35502226163338	
2.795	0.313	-0.23217907356675754	
2.8	-0.048	-0.11261063163360958	
2.805	0.021	-0.0127946539555014	
2.81	0.469	0.06672952498883414	
2.815	0.208	0.13399915882053914	
2.82	0.052	0.18706845358522195	
2.825	0.557	0.23167161916193954	
2.83	0.452	0.2758307003957339	
2.835	0.087	0.3111602369922216	
2.84	0.525	0.33798851068350616	
2.845	0.851	0.37903408650335096	
2.85	0.453	0.43932139734165154	
2.855	0.507	0.503083458090433	
2.86	1.007	0.5618510629881022	
2.865	0.817	0.6270817600790204	
2.87	0.660	0.6979671745800045	
2.875	1.144	0.7676365763629419	
2.88	1.074	0.8369256126192365	
2.885	0.583	0.8871661700889801	
2.89	0.805	0.9038548315906026	
2.895	0.906	0.8859951810906812	
2.9	0.336	0.8374152541093979	
2.905	0.258	0.7530337823942347	
2.91	0.551	0.6437240615746438	
2.915	0.090	0.5251863003201285	
2.92	-0.168	0.3970422623793653	
2.925	0.097	0.2664545565198225	
2.93	-0.008	0.14496138820962834	
2.935	-0.298	0.041412196945213114	
2.94	-0.161	-0.03924642054555057	
2.945	-0.031	-0.10312918450087133	
2.95	-0.251	-0.14932479656038483	
2.955	-0.200	-0.1699052109595195	
2.96	0.113	-0.1664981318367541	
2.965	-0.158	-0.15370566073914727	
2.97	-0.249	-0.1377997441889306	
2.975	0.096	-0.11873539991503845	
2.98	0.050	-0.09607329894796135	
2.985	-0.225	-0.07642180679045515	
2.99	-0.086	-0.06136613839599415	
2.995	-0.003	-0.06225106819666948	
3.0	-0.274	-0.0801855460537694	
3.005	-0.248	-0.10293600597691001	
3.01	-0.016	-0.12363746397585053	
3.015	-0.240	-0.14859718556813645	
3.02	-0.387	-0.1727540260680016	
3.025	-0.159	-0.19486641443883262	
3.03	-0.190	-0.21902506201870428	
3.035	-0.434	-0.24334377777364463	
3.04	-0.262	-0.25744657697032536	
3.045	-0.139	-0.2692159934720709	
3.05	-0.318	-0.27711059646748104	
3.055	-0.158	-0.26400592382588023	
3.06	0.518	-0.20758006753443378	
3.065	0.325	-0.09846604910210027	
3.07	-0.161	0.020120442347365694	
3.075	-0.225	0.07698575010724266	
3.08	-0.488	0.0320212583430802	
3.085	-0.836	-0.09736815566239461	
3.09	-0.764	-0.264530895079922	
3.095	-0.634	-0.43714882514952486	
3.1	-0.692	-0.5800462191575351	
3.105	-0.520	-0.6510232412968211	
3.11	-0.182	-0.6475538675663981	
3.115	-0.240	-0.5914922528551091	
3.12	-0.283	-0.496893292328355	
3.125	0.107	-0.3788084577655314	
3.13	0.137	-0.2558918620047039	
3.135	-0.193	-0.1475587463553433	
3.14	0.078	-0.06148428005073356	
3.145	0.348	0.006021024308323054	
3.15	-0.058	0.05772596591650464	
3.155	-0.008	0.09179543758831997	
3.16	0.441	0.11665187222466317	
3.165	0.136	0.13948945823741865	
3.17	-0.103	0.15485525802973382	
3.175	0.469	0.16429907124023801	
3.18	0.589	0.19630502048194895	
3.185	0.221	0.2543169252639067	
3.19	0.530	0.32144763984794283	
3.195	0.855	0.3931753758725535	
3.2	0.519	0.46975127693468793	
3.205	0.634	0.5466864075842948	
3.21	1.092	0.6236687234957795	
3.215	0.768	0.6985787068887732	
3.22	0.432	0.7478053128473897	
3.225	0.779	0.7591688502482008	
3.23	0.626	0.736320634434169	
3.235	0.053	0.677375274386882	
3.24	0.204	0.5803238540981774	
3.245	0.302	0.46011829842533863	
3.25	-0.202	0.33091381460880215	
3.255	-0.214	0.20065996545880066	
3.26	0.070	0.08150304091899027	
3.265	-0.126	-0.015252739323249906	
3.27	-0.255	-0.07902103694990364	
3.275	0.021	-0.1120081936917225	
3.28	-0.017	-0.12567041270071724	
3.285	-0.271	-0.13037924370831855	
3.29	-0.106	-0.1257670178853218	
3.295	0.041	-0.12202795329814398	
3.3	-0.260	-0.12290616282455691	
3.305	-0.228	-0.1253171637794333	
3.31	0.070	-0.12568795949197958	
3.315	-0.142	-0.12618801332363433	
3.32	-0.262	-0.12393768807170567	
3.325	0.004	-0.11816106833521978	
3.33	-0.068	-0.11667600946382876	
3.335	-0.352	-0.12426730571486891	
3.34	-0.214	-0.137860504704085	
3.345	-0.089	-0.15907397320110847	
3.35	-0.375	-0.188791661801925	
3.355	-0.335	-0.21435418251395716	
3.36	-0.040	-0.229749145975211	
3.365	-0.196	-0.23608897505037976	
3.37	-0.327	-0.22994732694991657	
3.375	-0.109	-0.21624012956778885	
3.38	-0.135	-0.2096017103385397	
3.385	-0.286	-0.20525274087022316	
3.39	0.058	-0.1829137644167292	
3.395	0.554	-0.11995387546805722	
3.4	0.116	-0.020742367257370505	
3.405	-0.148	0.06947314304507907	
3.41	-0.184	0.09119221970565514	
3.415	-0.520	0.024949594701023415	
3.42	-0.737	-0.10203282709643169	
3.425	-0.547	-0.2502500534597225	
3.43	-0.511	-0.3934921322252783	
3.435	-0.656	-0.5012647973288122	
3.44	-0.368	-0.5499350265691554	
3.445	-0.106	-0.5418900059543796	
3.45	-0.240	-0.4887842512153736	
3.455	-0.162	-0.39850999521689034	
3.46	0.235	-0.28759862706185246	
3.465	-0.009	-0.18005599929449725	
3.47	-0.173	-0.09120642198847823	
3.475	0.263	-0.022129502523418818	
3.48	0.318	0.03860137479616214	
3.485	-0.071	0.09148499424487765	
3.49	0.177	0.1300048311450956	
3.495	0.395	0.15628820061656593	
3.5	-0.013	0.171089905156812	
3.505	0.067	0.1753186914147804	
3.51	0.596	0.18658918136157282	
3.515	0.383	0.22004850113170416	
3.52	0.165	0.2656221342328774	
3.525	0.672	0.3168839041588435	
3.53	0.728	0.37877565568730676	
3.535	0.285	0.44241715796643993	
3.54	0.501	0.4878623345084677	
3.545	0.881	0.5203983337556608	
3.55	0.492	0.5542102503251713	
3.555	0.434	0.5831817711790397	
3.56	0.754	0.5954786305596607	
3.565	0.376	0.5851669749727214	
3.57	-0.032	0.5396292573243735	
3.575	0.223	0.4556851692383589	
3.58	0.133	0.3478004551854492	
3.585	-0.216	0.2346138083917726	
3.59	-0.064	0.13177883981921493	
3.595	0.125	0.047281489231850535	
3.6	-0.210	-0.017606293072557597	
3.605	-0.220	-0.06176779671835637	
3.61	0.044	-0.09169363820695377	
3.615	-0.147	-0.1157356930855805	
3.62	-0.287	-0.131196436799894	
3.625	-0.046	-0.13643692959478104	
3.63	-0.057	-0.14224946120034634	
3.635	-0.284	-0.14724621797717222	
3.64	-0.121	-0.14426584363865536	
3.645	0.072	-0.13682524632954385	
3.65	-0.286	-0.13254326885775233	
3.655	-0.278	-0.13476176735918538	
3.66	0.042	-0.13976767366821924	
3.665	-0.153	-0.14469595656513612	
3.67	-0.321	-0.14817500512184567	
3.675	-0.122	-0.15150235359618863	
3.68	-0.148	-0.16623235153540164	
3.685	-0.411	-0.18921805220009855	
3.69	-0.280	-0.21031660537800498	
3.695	-0.119	-0.23181110014149953	
3.7	-0.339	-0.2525034610945554	
3.705	-0.349	-0.2607883880077316	
3.71	-0.109	-0.26174506408882536	
3.715	-0.242	-0.26368624001532975	
3.72	-0.301	-0.25723302200900433	
3.725	0.252	-0.22141358979055017	
3.73	0.460	-0.14011775673060944	
3.735	-0.071	-0.03133263193687784	
3.74	-0.135	0.04859677743212828	
3.745	-0.234	0.053239093783916995	
3.75	-0.588	-0.022590707231326904	
3.755	-0.668	-0.1438700996163874	
3.76	-0.413	-0.27662478979978017	
3.765	-0.469	-0.39366040943216585	
3.77	-0.530	-0.46631322721942314	
3.775	-0.222	-0.4833294072661084	
3.78	-0.170	-0.4631036686775478	
3.785	-0.326	-0.4174696323209196	
3.79	-0.095	-0.34725075259561833	
3.795	0.282	-0.2585285054377551	
3.8	-0.074	-0.16276142704642083	
3.805	-0.061	-0.07396061173659992	
3.81	0.369	-0.00038725498814926995	
3.815	0.108	0.05924149774130849	
3.82	-0.145	0.09739748368457178	
3.825	0.281	0.11582492361266712	
3.83	0.420	0.13502844273538459	
3.835	0.003	0.16229153863114654	
3.84	0.264	0.1907349009048118	
3.845	0.585	0.2216612961025678	
3.85	0.180	0.2571440197861311	
3.855	0.240	0.2889432287732373	
3.86	0.761	0.3257605872528262	
3.865	0.536	0.3762854170061288	
3.87	0.299	0.4293027361721239	
3.875	0.774	0.4778405464520025	
3.88	0.783	0.5270864091170251	
3.885	0.321	0.5682548589531387	
3.89	0.531	0.5866620159273956	
3.895	0.748	0.5866676306770906	
3.9	0.188	0.5672085515806917	
3.905	0.020	0.5128762689244967	
3.91	0.333	0.42663289503816104	
3.915	0.010	0.32438355715226674	
3.92	-0.210	0.22040448974110224	
3.925	0.038	0.12468069363175806	
3.93	-0.011	0.04007927823705918	
3.935	-0.249	-0.027521562415460697	
3.94	-0.064	-0.07039480119631072	
3.945	0.159	-0.08746380273568981	
3.95	-0.173	-0.08959468559348525	
3.955	-0.188	-0.08305260433110273	
3.96	0.137	-0.07555197482178137	
3.965	-0.063	-0.0695468693568933	
3.97	-0.219	-0.06446391313444733	
3.975	0.084	-0.055478679334169174	
3.98	0.067	-0.04795854559690148	
3.985	-0.281	-0.04637924435734554	
3.99	-0.188	-0.05650895323785151	
3.995	-0.040	-0.0825914411959099	
4.0	-0.283	-0.11844596894164897	
4.005	-0.286	-0.14802603257034735	
4.01	-0.003	-0.1666864393576035	
4.015	-0.167	-0.17847456978506943	
4.02	-0.324	-0.18237948931441977	
4.025	-0.106	-0.1805881841188331	
4.03	-0.097	-0.18296962195008026	
4.035	-0.336	-0.18728098496717904	
4.04	-0.199	-0.187532271448138	
4.045	-0.025	-0.18762245004679373	
4.05	-0.260	-0.18940709596030758	
4.055	-0.196	-0.18203494083575233	
4.06	0.406	-0.1476768370211491	
4.065	0.290	-0.07441604588363857	
4.07	-0.101	0.015585318942769877	
4.075	-0.048	0.0713226160601016	
4.08	-0.283	0.05700727234899684	
4.085	-0.633	-0.027291781445240797	
4.09	-0.549	-0.14755745614515714	
4.095	-0.378	-0.27560195688820277	
4.1	-0.508	-0.38437049020216013	
4.105	-0.433	-0.44401402290068814	
4.11	-0.121	-0.45166568019626724	
4.115	-0.203	-0.4254615217759363	
4.12	-0.304	-0.37342379893364774	
4.125	-0.006	-0.3035280474913743	
4.13	0.113	-0.22892477785840615	
4.135	-0.165	-0.15740952917581782	
4.14	0.052	-0.08750934459517343	
4.145	0.345	-0.023478477342956338	
4.15	-0.075	0.030448556873684186	
4.155	-0.136	0.060845901474969544	
4.16	0.246	0.06849140337599124	
4.165	0.105	0.06851780731950013	
4.17	-0.087	0.07140325026819959	
4.175	0.331	0.08558806029503262	
4.18	0.347	0.11218409860369502	
4.185	-0.003	0.14242916987028387	
4.19	0.366	0.17648640341100472	
4.195	0.736	0.22970239684115001	
4.2	0.362	0.3004076618574508	
4.205	0.356	0.37173524425911375	
4.21	0.816	0.4345953371037142	
4.215	0.504	0.48657143780110945	
4.22	0.191	0.5142479039018775	
4.225	0.615	0.5165414244078876	
4.23	0.559	0.5053166627622516	
4.235	-0.023	0.4774072587752596	
4.24	0.131	0.4173093888603506	
4.245	0.360	0.3397287894895157	
4.25	-0.106	0.259563445930213	
4.255	-0.179	0.17864333313797548	
4.26	0.162	0.1004707953339372	
4.265	-0.075	0.03376822590788781	
4.27	-0.257	-0.01764653391739719	
4.275	-0.061	-0.055673385573418964	
4.28	-0.034	-0.09065592940511773	
4.285	-0.219	-0.11634555827609802	
4.29	-0.034	-0.11777805800536506	
4.295	0.201	-0.099396987187922	
4.3	-0.179	-0.07727006602717246	
4.305	-0.190	-0.060357019640134874	
4.31	0.232	-0.04769188645007143	
4.315	0.012	-0.03113556827638623	
4.32	-0.223	-0.01758394479697105	
4.325	-0.017	-0.014845988776420498	
4.33	0.009	-0.029634085221796187	
4.335	-0.278	-0.05321739116606606	
4.34	-0.202	-0.07691786903465442	
4.345	-0.037	-0.10647521966840118	
4.35	-0.301	-0.14110409290618725	
4.355	-0.342	-0.17036349418976984	
4.36	-0.121	-0.19582256926818636	
4.365	-0.226	-0.22106281243761655	
4.37	-0.344	-0.23750821590885335	
4.375	-0.121	-0.23589669665183635	
4.38	-0.083	-0.22861945527059654	
4.385	-0.274	-0.21819493595905104	
4.39	-0.014	-0.1899292944783946	
4.395	0.528	-0.12939704307053868	
4.4	0.195	-0.03208152129499951	
4.405	-0.078	0.06753134870382191	
4.41	-0.061	0.11214563880715418	
4.415	-0.417	0.07291869511471571	
4.42	-0.714	-0.036604439645789785	
4.425	-0.588	-0.1818816401797856	
4.43	-0.540	-0.33855546519361135	
4.435	-0.599	-0.4672347713086103	
4.44	-0.342	-0.5278730587936145	
4.445	-0.081	-0.5213076208086358	
4.45	-0.217	-0.4692135321966653	
4.455	-0.196	-0.38246441833922074	
4.46	0.189	-0.27956910173055827	
4.465	0.047	-0.17911736299266756	
4.47	-0.174	-0.09382707578444717	
4.475	0.287	-0.02066476485155656	
4.48	0.391	0.04857458411292756	
4.485	-0.061	0.1104022687464935	
4.49	0.151	0.1520707134090274	
4.495	0.489	0.18096063997518533	
4.5	0.088	0.20361118913357532	
4.505	0.096	0.21832240009522733	
4.51	0.615	0.23768994484321432	
4.515	0.437	0.27097001644780505	
4.52	0.180	0.3129311692579101	
4.525	0.722	0.3593985840998513	
4.53	0.857	0.42378305192950927	
4.535	0.412	0.4992830040132627	
4.54	0.686	0.5659543757186646	
4.545	1.074	0.628116341275962	
4.55	0.654	0.6896678784679113	
4.555	0.478	0.7311518261344405	
4.56	0.822	0.738633057250528	
4.565	0.518	0.715088141563099	
4.57	0.059	0.6579060768013569	
4.575	0.376	0.5692255926501761	
4.58	0.339	0.4668233695294289	
4.585	-0.138	0.36244713984688526	
4.59	-0.064	0.2568447860064774	
4.595	0.163	0.15499423985942953	
4.6	-0.181	0.06587364351555815	
4.605	-0.249	-0.003766780708710455	
4.61	0.110	-0.054553668197235845	
4.615	-0.052	-0.08481279130267305	
4.62	-0.236	-0.09687274997992562	
4.625	0.015	-0.09493612019409095	
4.63	0.015	-0.09128299405846549	
4.635	-0.266	-0.09333690682674245	
4.64	-0.107	-0.09317880874985121	
4.645	0.178	-0.08719264860847636	
4.65	-0.170	-0.07900261619408958	
4.655	-0.225	-0.07170021498762397	
4.66	0.078	-0.06975062451007741	
4.665	-0.129	-0.07779202909857799	
4.67	-0.286	-0.09074229971745809	
4.675	-0.058	-0.10205792765527903	
4.68	-0.078	-0.11732470374786948	
4.685	-0.362	-0.1392015126157258	
4.69	-0.249	-0.16123642387962528	
4.695	-0.075	-0.182280924343381	
4.7	-0.278	-0.20489753623875925	
4.705	-0.320	-0.215683684743234	
4.71	-0.121	-0.2188203909615182	
4.715	-0.219	-0.2287453718607351	
4.72	-0.281	-0.23172843118512043	
4.725	0.204	-0.2040612731924979	
4.73	0.527	-0.12822101332093297	
4.735	0.128	-0.013208683932439676	
4.74	0.036	0.09565170867282352	
4.745	-0.116	0.13771603949542754	
4.75	-0.561	0.08404504558392295	
4.755	-0.726	-0.04179593226310434	
4.76	-0.523	-0.2037313747756762	
4.765	-0.527	-0.3636747151747251	
4.77	-0.578	-0.4768181320190945	
4.775	-0.274	-0.520991235980323	
4.78	-0.144	-0.5111494481764816	
4.785	-0.315	-0.4623746018423185	
4.79	-0.103	-0.38126723622163944	
4.795	0.266	-0.2809867526270689	
4.8	-0.055	-0.17607493453712628	
4.805	-0.038	-0.07994408550215006	
4.81	0.453	0.006539567026522869	
4.815	0.266	0.08830258728376196	
4.82	-0.083	0.15081528568282238	
4.825	0.331	0.18809907471622112	
4.83	0.449	0.2130524026719903	
4.835	0.041	0.2343704782548685	
4.84	0.342	0.25363845061321616	
4.845	0.762	0.2882835201897874	
4.85	0.405	0.3429025860858302	
4.855	0.350	0.4008499326267808	
4.86	0.857	0.4566544397102016	
4.865	0.738	0.5164441318065658	
4.87	0.504	0.5786898358584915	
4.875	0.955	0.6410574859202023	
4.88	1.025	0.7061992234623093	
4.885	0.498	0.7583472098907844	
4.89	0.657	0.7804631432135356	
4.895	0.927	0.7763101016714573	
4.9	0.426	0.7530207251324939	
4.905	0.185	0.6977272725702073	
4.91	0.542	0.6145332500150287	
4.915	0.232	0.5176102267186118	
4.92	-0.171	0.40973300603487084	
4.925	0.125	0.29583089746512065	
4.93	0.159	0.19027247257486948	
4.935	-0.223	0.10261237866172189	
4.94	-0.145	0.033312119830526746	
4.945	0.101	-0.02383475829795004	
4.95	-0.194	-0.06668479738562352	
4.955	-0.277	-0.09722241206994316	
4.96	0.001	-0.11774229609108554	
4.965	-0.089	-0.13425197941157585	
4.97	-0.298	-0.14304672061734983	
4.975	-0.066	-0.14240965705395295	
4.98	0.078	-0.136804010875822	
4.985	-0.214	-0.12513324458797673	
4.99	-0.106	-0.1057803096105651	
4.995	0.131	-0.08703671467292712	
5.0	-0.219	-0.07851291272944183	
5.005	-0.315	-0.08318016548710608	
5.01	-0.095	-0.10296128598985342	
5.015	-0.214	-0.13918745743595437	
5.02	-0.376	-0.17490128919066983	
5.025	-0.171	-0.2005484710807045	
5.03	-0.130	-0.21984409723325107	
5.035	-0.394	-0.23699784591490922	
5.04	-0.317	-0.24783376595367185	
5.045	-0.133	-0.25710921712805224	
5.05	-0.330	-0.2704141871880593	
5.055	-0.284	-0.2711590193612243	
5.06	0.321	-0.23797409677641373	
5.065	0.405	-0.1540828973713082	
5.07	-0.029	-0.036911444691126644	
5.075	-0.051	0.05430518017383083	
5.08	-0.318	0.06411910182763844	
5.085	-0.697	-0.017997583015941093	
5.09	-0.700	-0.1538872069751952	
5.095	-0.556	-0.31208712386347875	
5.1	-0.668	-0.4603704482386399	
5.105	-0.614	-0.5581584784617761	
5.11	-0.272	-0.5939363817330247	
5.115	-0.255	-0.5781131478679382	
5.12	-0.336	-0.518968880124724	
5.125	-0.049	-0.425518698677351	
5.13	0.094	-0.32174257323676014	
5.135	-0.207	-0.22516244885481568	
5.14	-0.028	-0.13987325182869792	
5.145	0.461	-0.059874363514353074	
5.15	0.146	0.02446885593650964	
5.155	0.042	0.1036317978137209	
5.16	0.492	0.16723659968059126	
5.165	0.288	0.21688551577397727	
5.17	0.032	0.24777325465685424	
5.175	0.525	0.2725718649701031	
5.18	0.728	0.3124519750395452	
5.185	0.342	0.3706961741384367	
5.19	0.562	0.4340554009093555	
5.195	0.938	0.4992842632509663	
5.2	0.626	0.5664509009564016	
5.205	0.614	0.6295090912050219	
5.21	1.185	0.6953241437843051	
5.215	1.051	0.7739968711550155	
5.22	0.649	0.8476813665223468	
5.225	1.016	0.8964698084006376	
5.23	1.058	0.9225109057129118	
5.235	0.438	0.918727766201765	
5.24	0.432	0.8689109594133251	
5.245	0.637	0.7762239590500442	
5.25	0.073	0.6566041162587943	
5.255	-0.155	0.5094859852877567	
5.26	0.142	0.3501171976279368	
5.265	-0.014	0.20112343275823455	
5.27	-0.232	0.08090683335726041	
5.275	-0.006	-0.0017054757508098777	
5.28	0.105	-0.05254833774251719	
5.285	-0.220	-0.07996473831863213	
5.29	-0.138	-0.08911428665999467	
5.295	0.163	-0.0889976767557594	
5.3	-0.136	-0.0831839230492116	
5.305	-0.207	-0.07537930760444761	
5.31	0.131	-0.06615101149035571	
5.315	-0.019	-0.0588623007270419	
5.32	-0.260	-0.05589391042008745	
5.325	-0.011	-0.055906554087426306	
5.33	0.052	-0.06067276093549534	
5.335	-0.277	-0.07073313003732076	
5.34	-0.234	-0.08617105967515327	
5.345	-0.078	-0.11221900826505621	
5.35	-0.301	-0.1490158247952098	
5.355	-0.402	-0.1852748668130731	
5.36	-0.205	-0.2193685378449972	
5.365	-0.292	-0.2568300277605212	
5.37	-0.494	-0.29070713760123046	
5.375	-0.359	-0.31702524208933364	
5.38	-0.359	-0.34776435212838097	
5.385	-0.566	-0.3845900594692655	
5.39	-0.414	-0.40915361953610074	
5.395	-0.026	-0.40727880468504996	
5.4	-0.040	-0.3679304831211181	
5.405	-0.127	-0.2872304021518402	
5.41	-0.071	-0.2004381882205583	
5.415	-0.446	-0.1648947633703359	
5.42	-0.837	-0.20376925139627944	
5.425	-0.781	-0.3060240591115194	
5.43	-0.767	-0.4507229020242589	
5.435	-0.954	-0.5996459248677992	
5.44	-0.753	-0.7091296801369454	
5.445	-0.439	-0.7631435520950041	
5.45	-0.544	-0.7610244717382381	
5.455	-0.509	-0.7103374631373777	
5.46	-0.132	-0.621208465837828	
5.465	-0.136	-0.5158050650425323	
5.47	-0.315	-0.4059577853173282	
5.475	-0.110	-0.3039042143156713	
5.48	-0.077	-0.23056130882675352	
5.485	-0.246	-0.18592994849616087	
5.49	-0.078	-0.14820369442601117	
5.495	0.305	-0.1028580977518761	
5.5	-0.058	-0.054203989371870424	
5.505	-0.142	-0.01262655212936264	
5.51	0.330	0.0200888477837662	
5.515	0.261	0.05729244569138468	
5.52	-0.058	0.09767910163342611	
5.525	0.392	0.13722667787450243	
5.53	0.582	0.18777569075531875	
5.535	0.249	0.24981805342321556	
5.54	0.522	0.31963952807520024	
5.545	1.031	0.40646647534421937	
5.55	0.706	0.5117907846895322	
5.555	0.490	0.6090909065172954	
5.56	0.924	0.6761981817845332	
5.565	0.695	0.7124342016708751	
5.57	0.146	0.708464157212748	
5.575	0.365	0.6521305924618376	
5.58	0.411	0.5589299960807397	
5.585	-0.133	0.44780563419391717	
5.59	-0.147	0.3204919894640817	
5.595	0.113	0.18948694287046824	
5.6	-0.197	0.07090741414401923	
5.605	-0.280	-0.022907272281137453	
5.61	0.017	-0.08684153946849693	
5.615	-0.129	-0.13148508646203083	
5.62	-0.310	-0.15844429096713608	
5.625	-0.090	-0.16789465432055845	
5.63	0.020	-0.16707517527813281	
5.635	-0.251	-0.16113684332110645	
5.64	-0.162	-0.14751149173025813	
5.645	0.163	-0.12753429490950435	
5.65	-0.155	-0.10809335584793281	
5.655	-0.242	-0.09195235295255164	
5.66	0.107	-0.08085697869104708	
5.665	-0.049	-0.07445682482699237	
5.67	-0.307	-0.0764936242977576	
5.675	-0.130	-0.08593671914310838	
5.68	-0.098	-0.10902379213771221	
5.685	-0.398	-0.1461582119260555	
5.69	-0.300	-0.18057252363932602	
5.695	0.050	-0.2034530259809699	
5.7	-0.200	-0.21005146383186712	
5.705	-0.347	-0.20204488519674135	
5.71	-0.064	-0.19382463960843016	
5.715	-0.138	-0.1933844149776987	
5.72	-0.364	-0.1945818582448849	
5.725	-0.124	-0.1909250827311071	
5.73	0.243	-0.1748932188928277	
5.735	0.133	-0.12419906543017747	
5.74	0.368	-0.023590678048928518	
5.745	0.487	0.09664300811390447	
5.75	-0.258	0.17379696471036782	
5.755	-0.584	0.15575931341235055	
5.76	-0.492	0.0413069419963298	
5.765	-0.559	-0.13233942358827977	
5.77	-0.685	-0.3037504583797338	
5.775	-0.408	-0.42578985295983857	
5.78	-0.211	-0.4897090312258562	
5.785	-0.367	-0.4984308335579898	
5.79	-0.208	-0.4526512086703174	
5.795	0.243	-0.3660427241373223	
5.8	-0.002	-0.2582351217034603	
5.805	-0.055	-0.14539612560267975	
5.81	0.441	-0.034397574266097374	
5.815	0.347	0.06772646444529919	
5.82	0.015	0.15386328472436298	
5.825	0.450	0.2212672866173113	
5.83	0.651	0.28154651063161695	
5.835	0.165	0.3352716262543254	
5.84	0.322	0.3711656619685936	
5.845	0.817	0.4012694595963915	
5.85	0.522	0.44075225094506953	
5.855	0.374	0.4863314351031574	
5.86	0.953	0.5347615693902816	
5.865	0.915	0.5949127764908189	
5.87	0.551	0.6626719133282511	
5.875	0.981	0.7282190347702188	
5.88	1.213	0.7937354966055543	
5.885	0.802	0.8602409752404798	
5.89	0.912	0.9180353170049323	
5.895	1.304	0.9643380696941762	
5.9	0.887	0.996801637249989	
5.905	0.599	1.0022145014586634	
5.91	0.944	0.9727083036631488	
5.915	0.696	0.9139797169005277	
5.92	0.143	0.8246552943732616	
5.925	0.377	0.7071213283907247	
5.93	0.461	0.577765650709349	
5.935	-0.038	0.45234398089461914	
5.94	0.013	0.3369862741692018	
5.945	0.377	0.24128452295945313	
5.95	0.036	0.17094594932618692	
5.955	-0.104	0.12528056102819332	
5.96	0.354	0.10059422160127071	
5.965	0.253	0.09805076863160417	
5.97	-0.109	0.10681128696356992	
5.975	0.159	0.11599599093672451	
5.98	0.290	0.11867845673556622	
5.985	-0.061	0.1165165554349327	
5.99	0.053	0.11495815750562872	
5.995	0.443	0.12210315254224481	
6.0	0.047	0.1330587260005937	
6.005	-0.148	0.13534904575050918	
6.01	0.156	0.12036832994725138	
6.015	0.107	0.09106433648727516	
6.02	-0.207	0.06201443611022233	
6.025	-0.026	0.03586790749757743	
6.03	0.026	0.0015543428679625636	
6.035	-0.232	-0.037290145312721644	
6.04	-0.132	-0.06502061256210251	
6.045	0.201	-0.07407110160381898	
6.05	-0.145	-0.07385579627903188	
6.055	-0.275	-0.07353179048324746	
6.06	0.030	-0.077753123407207	
6.065	0.165	-0.07894985082950937	
6.07	0.055	-0.05183696003214432	
6.075	0.567	0.02486763623637718	
6.08	0.554	0.13450021219788202	
6.085	-0.213	0.2187145659356167	
6.09	-0.388	0.21885955762923498	
6.095	-0.306	0.12481286472743841	
6.1	-0.541	-0.03076550379187347	
6.105	-0.645	-0.19148009709269356	
6.11	-0.329	-0.32281561436518413	
6.115	-0.271	-0.41088974713253357	
6.12	-0.384	-0.44277607659693197	
6.125	-0.110	-0.4142197147528421	
6.13	0.130	-0.3494964749747136	
6.135	-0.158	-0.2661562178847461	
6.14	-0.051	-0.17608110782863542	
6.145	0.389	-0.08717028644480472	
6.15	0.097	-0.0037619319638951543	
6.155	-0.078	0.06446542135998701	
6.16	0.343	0.11114826143406237	
6.165	0.287	0.1450976074304509	
6.17	-0.075	0.16716124673433957	
6.175	0.270	0.18072916681093726	
6.18	0.484	0.19452887089014048	
6.185	0.082	0.21387235807405824	
6.19	0.243	0.23588373092352913	
6.195	0.686	0.26681391126181186	
6.2	0.351	0.30931344601334826	
6.205	0.299	0.3534850984057555	
6.21	0.788	0.4030758639259204	
6.215	0.715	0.46115371668642635	
6.22	0.417	0.5212469138372553	
6.225	0.808	0.5766115731121766	
6.23	0.968	0.6334956527377251	
6.235	0.418	0.6780201048248753	
6.24	0.382	0.6857668687585541	
6.245	0.681	0.655623262181894	
6.25	0.195	0.5945046235019329	
6.255	-0.090	0.5035382193722062	
6.26	0.215	0.3877732226077885	
6.265	0.107	0.27025468056034857	
6.27	-0.210	0.16654773762594283	
6.275	-0.063	0.08135634877167193	
6.28	0.073	0.009341493428541138	
6.285	-0.228	-0.04557914021951034	
6.29	-0.176	-0.08022059806019896	
6.295	0.110	-0.09870587290860132	
6.3	-0.184	-0.10925806797896538	
6.305	-0.272	-0.11622411961714367	
6.31	-0.002	-0.12055994885507909	
6.315	-0.031	-0.123773754117968	
6.32	-0.260	-0.12313164924161264	
6.325	-0.068	-0.11582658933767397	
6.33	0.076	-0.10787337054455748	
6.335	-0.228	-0.10230135250665365	
6.34	-0.214	-0.09821899359478109	
6.345	-0.017	-0.10400895082499408	
6.35	-0.251	-0.12310965714494922	
6.355	-0.381	-0.14904337245855537	
6.36	-0.171	-0.1778108107429969	
6.365	-0.249	-0.21280291154298675	
6.37	-0.439	-0.2478937039786708	
6.375	-0.251	-0.2699306738610179	
6.38	-0.150	-0.2840086520600171	
6.385	-0.407	-0.29312316279423745	
6.39	-0.390	-0.29719812603460677	
6.395	-0.173	-0.30115787063136257	
6.4	-0.239	-0.30602183233118574	
6.405	-0.193	-0.28793740958255465	
6.41	0.360	-0.22687145108853607	
6.415	0.127	-0.13378231195516532	
6.42	-0.404	-0.059891592909155744	
6.425	-0.504	-0.05409345131659103	
6.43	-0.576	-0.13504998399405385	
6.435	-0.841	-0.2770399529527327	
6.44	-0.782	-0.4262394307678392	
6.445	-0.482	-0.5491546806725272	
6.45	-0.538	-0.6259028295713214	
6.455	-0.547	-0.6429691585167765	
6.46	-0.236	-0.6079502704163608	
6.465	-0.216	-0.5447090401397221	
6.47	-0.405	-0.4678402731684284	
6.475	-0.211	-0.38807104379473234	
6.48	-0.084	-0.32196684247949586	
6.485	-0.295	-0.2720740536778122	
6.49	-0.205	-0.22931354344748545	
6.495	0.127	-0.18608810184597213	
6.5	-0.153	-0.1489521139771935	
6.505	-0.243	-0.12013699687173518	
6.51	0.099	-0.0968764553514968	
6.515	0.050	-0.0776189928708017	
6.52	-0.203	-0.05900533114238557	
6.525	0.056	-0.040067472072685885	
6.53	0.313	-0.015763602459221687	
6.535	-0.051	0.016839448790647568	
6.54	0.076	0.05254722488588819	
6.545	0.559	0.09708793350986457	
6.55	0.284	0.15611257356323602	
6.555	0.078	0.21367800997838923	
6.56	0.603	0.262150142140147	
6.565	0.530	0.31253841743127025	
6.57	0.033	0.35189866258400015	
6.575	0.318	0.36078328558728323	
6.58	0.438	0.34833092342011074	
6.585	-0.124	0.3149273079926048	
6.59	-0.181	0.25037597118746807	
6.595	0.104	0.16099294733749553	
6.6	-0.155	0.068316897780253	
6.605	-0.307	-0.01127847399319951	
6.61	-0.071	-0.0760669100179761	
6.615	-0.139	-0.12938351222233452	
6.62	-0.365	-0.17087388998333136	
6.625	-0.200	-0.19635855569173394	
6.63	-0.069	-0.21377154499978385	
6.635	-0.317	-0.223835440064175	
6.64	-0.287	-0.22460044481472913	
6.645	-0.049	-0.22119634878237607	
6.65	-0.254	-0.2205983774364485	
6.655	-0.321	-0.2181802237983822	
6.66	0.000	-0.2072077028097129	
6.665	-0.063	-0.18938697838263369	
6.67	-0.318	-0.17276858555607533	
6.675	-0.156	-0.15945405452578937	
6.68	-0.074	-0.15782978120072233	
6.685	-0.342	-0.16874042060973574	
6.69	-0.332	-0.18463934258632025	
6.695	-0.132	-0.20526376122468684	
6.7	-0.309	-0.23151607796942436	
6.705	-0.445	-0.255181917771532	
6.71	-0.222	-0.27428463434890826	
6.715	-0.249	-0.29333600551023165	
6.72	-0.492	-0.3107431045319794	
6.725	-0.385	-0.3245044062904308	
6.73	-0.277	-0.3437916859775081	
6.735	-0.414	-0.363719255237166	
6.74	-0.254	-0.3606622801157146	
6.745	0.339	-0.3131670061828923	
6.75	0.128	-0.21846838216521944	
6.755	-0.240	-0.11430445164886252	
6.76	-0.272	-0.05933076570119642	
6.765	-0.521	-0.09032715957281619	
6.77	-0.850	-0.19483761678726613	
6.775	-0.760	-0.33550181441891214	
6.78	-0.602	-0.48068641443525156	
6.785	-0.689	-0.5977564957886332	
6.79	-0.544	-0.6526792251838263	
6.795	-0.217	-0.645066443143014	
6.8	-0.286	-0.5935403877731213	
6.805	-0.356	-0.5093625261695707	
6.81	-0.064	-0.41209076282856316	
6.815	-0.081	-0.3222735802703444	
6.82	-0.214	-0.24605596342739522	
6.825	0.159	-0.16636310752169575	
6.83	0.431	-0.07348907144560743	
6.835	0.010	0.021934345854673562	
6.84	0.039	0.09616442411947912	
6.845	0.452	0.1462050703353053	
6.85	0.148	0.1813695528703792	
6.855	0.032	0.20235645417211426	
6.86	0.562	0.2231281528631212	
6.865	0.550	0.2619176295026038	
6.87	0.169	0.31068411109245553	
6.875	0.522	0.35557761635472585	
6.88	0.817	0.40374705515686554	
6.885	0.460	0.46189426095589037	
6.89	0.515	0.5180085342254896	
6.895	0.959	0.5693249830240057	
6.9	0.664	0.6194768455273332	
6.905	0.372	0.6542159955190306	
6.91	0.814	0.6650415687848494	
6.915	0.710	0.6640291721594251	
6.92	0.131	0.6427065124513407	
6.925	0.236	0.5834087288954125	
6.93	0.314	0.48671372153669823	
6.935	-0.135	0.3720569040151058	
6.94	-0.162	0.24897157853678126	
6.945	0.111	0.13416603210041553	
6.95	-0.182	0.03462938730524079	
6.955	-0.336	-0.047633247030195	
6.96	-0.092	-0.11015078605551334	
6.965	-0.110	-0.15797704659251058	
6.97	-0.327	-0.18903436763111736	
6.975	-0.170	-0.19965261125930522	
6.98	-0.025	-0.20142996510551056	
6.985	-0.274	-0.199763288892576	
6.99	-0.234	-0.1909884271891646	
6.995	0.084	-0.1750219970195715	
7.0	-0.141	-0.15631120268865395	
7.005	-0.272	-0.13953282751258173	
7.01	-0.032	-0.12629730723034155	
7.015	-0.150	-0.12801478231129532	
7.02	-0.350	-0.14293340276813382	
7.025	-0.147	-0.15771536026068866	
7.03	0.006	-0.16647221426158426	
7.035	-0.306	-0.17167416696282328	
7.04	-0.324	-0.17803207838782426	
7.045	-0.110	-0.19009430486266968	
7.05	-0.292	-0.21223205623349956	
7.055	-0.442	-0.23553088559562627	
7.06	-0.222	-0.25636040293677	
7.065	-0.245	-0.2789412646406396	
7.07	-0.440	-0.2989078973022543	
7.075	-0.190	-0.30178493485384583	
7.08	0.253	-0.2744017055229312	
7.085	0.046	-0.20559863191946912	
7.09	-0.028	-0.11110766302822037	
7.095	0.090	-0.03311862351813539	
7.1	-0.399	-0.013228076241084514	
7.105	-0.724	-0.06563576177385419	
7.11	-0.642	-0.18238853101608513	
7.115	-0.668	-0.3378760399312854	
7.12	-0.795	-0.48693113130819504	
7.125	-0.538	-0.5867691887158716	
7.13	-0.300	-0.6283234142897762	
7.135	-0.405	-0.6156697061189449	
7.14	-0.306	-0.553125688629004	
7.145	0.013	-0.45993256415329653	
7.15	-0.185	-0.36322767743147355	
7.155	-0.275	-0.2767565305437091	
7.16	0.058	-0.2022169568945958	
7.165	0.009	-0.14379984654850045	
7.17	-0.240	-0.10321264901304389	
7.175	-0.034	-0.07478021499940876	
7.18	0.206	-0.05211341422710415	
7.185	-0.122	-0.03187429173249616	
7.19	-0.049	-0.01230292835898482	
7.195	0.481	0.019351150516501384	
7.2	0.288	0.07381915125659594	
7.205	0.084	0.13997489282193576	
7.21	0.583	0.20790592665670501	
7.215	0.628	0.2804155718822845	
7.22	0.259	0.3535862130446409	
7.225	0.605	0.41813242480797397	
7.23	0.886	0.48111390112380675	
7.235	0.478	0.5420982312806601	
7.24	0.461	0.586487968445561	
7.245	0.863	0.6124202529049814	
7.25	0.505	0.6229246397065098	
7.255	0.062	0.6028183730081027	
7.26	0.351	0.5398063697282454	
7.265	0.235	0.44754852803014117	
7.27	-0.220	0.3386189359275801	
7.275	-0.136	0.21998615225795695	
7.28	0.009	0.09913207602302486	
7.285	-0.281	-0.010738764427280605	
7.29	-0.306	-0.09354061470748963	
7.295	-0.049	-0.15366919403945445	
7.3	-0.207	-0.19495816519314738	
7.305	-0.338	-0.2160826490476265	
7.31	-0.083	-0.2192617506107092	
7.315	-0.081	-0.214451332428291	
7.32	-0.327	-0.20730609848801518	
7.325	-0.193	-0.19503265543918807	
7.33	0.018	-0.18590814378468667	
7.335	-0.226	-0.17673503662625417	
7.34	-0.216	-0.1625454320370182	
7.345	0.140	-0.14067275904707027	
7.35	-0.084	-0.11797585228192951	
7.355	-0.263	-0.09812318059154183	
7.36	-0.029	-0.08725012777247547	
7.365	-0.078	-0.17780197741683834	
7.37	-0.342	-0.11036479621674734	
7.375	-0.220	-0.13101412138617435	
7.38	-0.038	-0.15484310027781073	
7.385	-0.281	-0.17780197741683834	
7.39	-0.280	-0.18857315704817462	
7.395	-0.016	-0.1905619088424878	
7.4	-0.196	-0.1930211556349593	
7.405	-0.353	-0.19322644981213138	
7.41	-0.104	-0.1911039036067292	
7.415	0.033	-0.18738819206960344	
7.42	-0.106	-0.1655318407603419	
7.425	0.319	-0.10489719364611721	
7.43	0.490	-0.008653411937023186	
7.435	-0.239	0.07594156095776994	
7.44	-0.431	0.09324962034150765	
7.445	-0.350	0.024653780944059175	
7.45	-0.572	-0.1050637249923937	
7.455	-0.669	-0.24944209397137387	
7.46	-0.349	-0.3648923781640669	
7.465	-0.263	-0.43822320572548973	
7.47	-0.379	-0.4597909764430609	
7.475	-0.150	-0.425892775075998	
7.48	0.168	-0.35438894153900424	
7.485	-0.104	-0.2631891635009336	
7.49	-0.029	-0.1648276700280716	
7.495	0.504	-0.062003367717545874	
7.5	0.252	0.04290815052570157	
7.505	-0.020	0.13221543704985494	
7.51	0.457	0.1962584726154498	
7.515	0.470	0.2459342339982764	
7.52	0.015	0.2818767558899762	
7.525	0.366	0.3010424171871672	
7.53	0.725	0.3228952924255192	
7.535	0.369	0.3607231453282544	
7.54	0.388	0.40697547261060535	
7.545	0.819	0.4541576441570408	
7.55	0.637	0.501995049220385	
7.555	0.457	0.5500648425293329	
7.56	0.958	0.6022943897033619	
7.565	1.031	0.6650784968564086	
7.57	0.637	0.7328088639041903	
7.575	0.898	0.7929594979930277	
7.58	1.118	0.8399662462640992	
7.585	0.635	0.8677156259555456	
7.59	0.522	0.863861384421116	
7.595	0.866	0.8291665542925832	
7.6	0.516	0.7730700611157406	
7.605	0.154	0.6970045440618569	
7.61	0.461	0.6042110067432618	
7.615	0.321	0.5031437587558216	
7.62	-0.127	0.3968584749213949	
7.625	0.068	0.2908752016253343	
7.63	0.279	0.19998840565314097	
7.635	-0.107	0.126862566745341	
7.64	-0.124	0.07383362751232164	
7.645	0.290	0.040095951935941405	
7.65	0.047	0.025209493821269746	
7.655	-0.170	0.023049045797676918	
7.66	0.143	0.02506388019628512	
7.665	0.178	0.026198750319410342	
7.67	-0.147	0.02998953715815077	
7.675	0.052	0.03674505309261028	
7.68	0.308	0.04591675819960144	
7.685	-0.104	0.05400311441247382	
7.69	-0.156	0.05378257236738766	
7.695	0.178	0.041937740374408235	
7.7	-0.071	0.020307187624277658	
7.705	-0.255	-0.0048754690708878315	
7.71	-0.037	-0.03008009272725274	
7.715	-0.078	-0.06479853080001963	
7.72	-0.303	-0.10088705863763305	
7.725	-0.153	-0.1253193793208305	
7.73	0.059	-0.13913564164109113	
7.735	-0.229	-0.1459010791599405	
7.74	-0.268	-0.14521506549426047	
7.745	0.035	-0.14311214366322725	
7.75	-0.045	-0.13965047352558252	
7.755	-0.075	-0.11985317314484321	
7.76	0.550	-0.05705642635027085	
7.765	0.507	0.047271688997427515	
7.77	-0.184	0.1440370722397163	
7.775	-0.277	0.17251481727743068	
7.78	-0.309	0.10687209599548271	
7.785	-0.610	-0.02785316690727759	
7.79	-0.622	-0.18129156513508687	
7.795	-0.347	-0.31508433915541917	
7.8	-0.350	-0.41352584600329495	
7.805	-0.371	-0.4518984671317029	
7.81	-0.017	-0.42411234050801533	
7.815	0.154	-0.3516411103684865	
7.82	-0.132	-0.25294369716298837	
7.825	0.114	-0.14445528783725398	
7.83	0.461	-0.036982990900275896	
7.835	0.082	0.05910352586889126	
7.84	0.061	0.1355656193729165	
7.845	0.504	0.1900003547562882	
7.85	0.298	0.2314873518685279	
7.855	-0.052	0.2558905636551072	
7.86	0.391	0.26187149575351354	
7.865	0.611	0.2714965878383917	
7.87	0.236	0.3010013084695684	
7.875	0.498	0.3464686720664959	
7.88	0.822	0.4011039342099621	
7.885	0.469	0.46014929503659774	
7.89	0.481	0.5155079764611454	
7.895	0.979	0.5679971807092011	
7.9	0.793	0.6245554670511694	
7.905	0.496	0.6769046581854774	
7.91	0.887	0.7158005358932672	
7.915	0.846	0.7384726135869384	
7.92	0.444	0.7440435705058699	
7.925	0.654	0.7324217442823358	
7.93	0.829	0.7120421516634542	
7.935	0.319	0.6782233984661019	
7.94	0.160	0.61850438926054	
7.945	0.496	0.5368680814513707	
7.95	0.175	0.445620700108547	
7.955	-0.127	0.3510168752731494	
7.96	0.157	0.2566713228942107	
7.965	0.096	0.169464497674849	
7.97	-0.226	0.09024190468351995	
7.975	-0.121	0.026348161413174954	
7.98	0.122	-0.024089124423297758	
7.985	-0.141	-0.05957206368582812	
7.99	-0.121	-0.0714161712597295	
7.995	0.293	-0.059310272960388606	
8.0	0.029	-0.032305881210807	
8.005	-0.181	-0.006856281361604505	
8.01	0.139	0.012502167569657724	
8.015	0.180	0.02443390534517584	
8.02	-0.177	0.03140460983138202	
8.025	-0.034	0.03224100883544759	
8.03	0.206	0.026788054335926965	
8.035	-0.182	0.014582825982531486	
8.04	-0.254	-0.0064397572601194554	
8.045	-0.023	-0.03951219263393433	
8.05	-0.150	-0.08119512606969409	
8.055	-0.301	-0.11771330518805095	
8.06	-0.098	-0.13965473654635374	
8.065	-0.064	-0.15658795529216296	
8.07	-0.317	-0.17143017387157639	
8.075	-0.223	-0.17681856528719056	
8.08	-0.080	-0.18430602923116174	
8.085	-0.266	-0.19731644892019995	
8.09	-0.171	-0.19640270880988925	
8.095	0.466	-0.15752651673568396	
8.1	0.353	-0.07011840864991004	
8.105	-0.087	0.034253381153562336	
8.11	-0.092	0.09620781217891669	
8.115	-0.344	0.07439219048406849	
8.12	-0.715	-0.02842747802705917	
8.125	-0.669	-0.17387463806362477	
8.13	-0.482	-0.32927384170580326	
8.135	-0.569	-0.4592425268885541	
8.14	-0.486	-0.5294054397309418	
8.145	-0.142	-0.5345350023326195	
8.15	-0.122	-0.49212717315912324	
8.155	-0.181	-0.4077366392084188	
8.16	0.252	-0.2886458288280581	
8.165	0.318	-0.15351756693575416	
8.17	-0.092	-0.031550911272224945	
8.175	0.116	0.05811486310363744	
8.18	0.435	0.11984488272397358	
8.185	0.058	0.16262890898686255	
8.19	0.004	0.18542286575136702	
8.195	0.426	0.1955690467625779	
8.2	0.263	0.20291141313907773	
8.205	0.082	0.21509578012760208	
8.21	0.585	0.24237003779445884	
8.215	0.695	0.29364269484444744	
8.22	0.208	0.35540146725253297	
8.225	0.504	0.4080173997038975	
8.23	1.049	0.464965791153244	
8.235	0.741	0.5467400515443889	
8.24	0.536	0.6353103608244732	
8.245	0.916	0.6964729460171164	
8.25	0.644	0.7250077405493908	
8.255	0.278	0.7171193028236498	
8.26	0.547	0.6761843030628029	
8.265	0.412	0.606605454765518	
8.27	-0.107	0.5085745334326319	
8.275	-0.026	0.38795606114261694	
8.28	0.104	0.2557804332619377	
8.285	-0.258	0.12687263681991806	
8.29	-0.323	0.012440054460500869	
8.295	-0.078	-0.08267269852373237	
8.3	-0.190	-0.15694700020829289	
8.305	-0.344	-0.20266668675179103	
8.31	-0.118	-0.22089676591632415	
8.315	-0.080	-0.2254888999903291	
8.32	-0.320	-0.2232473742483411	
8.325	-0.196	-0.21100949167470373	
8.33	0.017	-0.19637566860814581	
8.335	-0.223	-0.1840880459678691	
8.34	-0.214	-0.16746470891963516	
8.345	0.175	-0.14076026085695462	
8.35	-0.051	-0.11000295448160907	
8.355	-0.214	-0.08261980178880479	
8.36	0.108	-0.0579178823722699	
8.365	0.185	-0.032521661897246965	
8.37	-0.190	-0.010223750845707846	
8.375	-0.100	0.000965317541248476	
8.38	0.142	-0.0034084214059007753	
8.385	-0.225	-0.020050110933432477	
8.39	-0.287	-0.04547636063375865	
8.395	-0.048	-0.079825025372064	
8.4	-0.127	-0.11696653939476004	
8.405	-0.275	-0.14255162342224242	
8.41	-0.057	-0.1489528654356984	
8.415	-0.068	-0.15256105932894276	
8.42	-0.347	-0.16018758161724583	
8.425	-0.196	-0.16599746281937533	
8.43	0.272	-0.1584036706652609	
8.435	0.186	-0.11403153013314579	
8.44	0.204	-0.02541496229104538	
8.445	0.368	0.07618654988424685	
8.45	-0.252	0.131898267011933	
8.455	-0.634	0.0973293745230071	
8.46	-0.535	-0.018902761599612333	
8.465	-0.549	-0.18353432774402925	
8.47	-0.712	-0.3472535255161428	
8.475	-0.501	-0.4659206743678755	
8.48	-0.246	-0.5272910378267794	
8.485	-0.333	-0.5341519702048684	
8.49	-0.254	-0.48647481140661397	
8.495	0.162	-0.3956009175541493	
8.5	0.064	-0.28405005675962	
8.505	-0.133	-0.17079416104017367	
8.51	0.206	-0.0707609833485497	
8.515	0.293	0.01156461698906854	
8.52	-0.046	0.07549663219565035	
8.525	0.221	0.12403323224154314	
8.53	0.583	0.17290224949745886	
8.535	0.195	0.2237046433703935	
8.54	0.131	0.2653257992317065	
8.545	0.596	0.2945615821369587	
8.55	0.406	0.32201306955773223	
8.555	0.160	0.34702723659646895	
8.56	0.672	0.37329187410034126	
8.565	0.837	0.4187451139857439	
8.57	0.484	0.48443057853491306	
8.575	0.742	0.557933867471295	
8.58	1.103	0.6339926387059065	
8.585	0.722	0.710756853444255	
8.59	0.623	0.7692256040609038	
8.595	0.991	0.8035178447502072	
8.6	0.641	0.8080909889321829	
8.605	0.241	0.7760061227516086	
8.61	0.637	0.7121588425397779	
8.615	0.571	0.6387798973877258	
8.62	-0.055	0.5545325913397439	
8.625	-0.008	0.44378678363223034	
8.63	0.218	0.3169045323076156	
8.635	-0.156	0.19498862576664844	
8.64	-0.214	0.09025376983004765	
8.645	0.013	0.006305633676372864	
8.65	-0.127	-0.06274425981204773	
8.655	-0.289	-0.11177011356935804	
8.66	-0.054	-0.13706520521910448	
8.665	0.010	-0.1482786827686306	
8.67	-0.262	-0.14918029897179994	
8.675	-0.171	-0.14227635757632173	
8.68	0.044	-0.13530016581916074	
8.685	-0.207	-0.13384872648961382	
8.69	-0.236	-0.13068874788724233	
8.695	0.082	-0.1228935518447814	
8.7	-0.132	-0.11769578183992999	
8.705	-0.358	-0.12066763578947333	
8.71	-0.138	-0.13122251645903893	
8.715	-0.087	-0.15230306890939346	
8.72	-0.352	-0.174040957412945	
8.725	-0.262	-0.19034684979281835	
8.73	-0.101	-0.20537181323216044	
8.735	-0.329	-0.22473889361512753	
8.74	-0.393	-0.23969986165139914	
8.745	-0.144	-0.25197781108863254	
8.75	-0.239	-0.2656292556700065	
8.755	-0.426	-0.27363112200250095	
8.76	-0.228	-0.2752685697643187	
8.765	-0.124	-0.2772798668106161	
8.77	-0.220	-0.269026986144707	
8.775	0.168	-0.22133378920790125	
8.78	0.547	-0.12427841649945973	
8.785	-0.159	-0.016782762460629565	
8.79	-0.472	0.034118219369212235	
8.795	-0.436	-0.007977342918486698	
8.8	-0.662	-0.1315640396100461	
8.805	-0.863	-0.29173857379016077	
8.81	-0.619	-0.4422690684148061	
8.815	-0.453	-0.5581049857847251	
8.82	-0.552	-0.6170558114097233	
8.825	-0.346	-0.6084521653845703	
8.83	0.000	-0.5471742548863572	
8.835	-0.148	-0.45171103754353104	
8.84	-0.138	-0.3359172558004305	
8.845	0.295	-0.21284028175390493	
8.85	0.075	-0.10049784770167076	
8.855	-0.118	-0.014926249190011143	
8.86	0.328	0.05173236998786289	
8.865	0.518	0.11804007148943207	
8.87	0.099	0.18577505287614524	
8.875	0.272	0.2423754069493944	
8.88	0.599	0.2859859643882561	
8.885	0.327	0.3233182659711502	
8.89	0.279	0.3588805525192529	
8.895	0.776	0.3962251782417479	
8.9	0.695	0.44669728681561344	
8.905	0.427	0.5059740817475509	
8.91	0.858	0.5656249265526085	
8.915	0.971	0.6291810620308904	
8.92	0.628	0.6928108870093612	
8.925	0.846	0.7492331635578968	
8.93	1.217	0.8050282301873036	
8.935	0.816	0.8594527016405457	
8.94	0.547	0.8897535200118225	
8.945	0.863	0.8780694463819769	
8.95	0.565	0.8298263341467604	
8.955	0.039	0.7440209443351641	
8.96	0.264	0.6193997823685053	
8.965	0.230	0.475197554655198	
8.97	-0.205	0.33105470499150924	
8.975	-0.177	0.19311395388670546	
8.98	-0.034	0.0658371976604802	
8.985	-0.225	-0.04329025984139836	
8.99	-0.265	-0.11909919292657699	
8.995	0.007	-0.15916001968308433	
9.0	-0.110	-0.176098335136051	
9.005	-0.292	-0.17971978164241792	
9.01	-0.068	-0.16975258979722485	
9.015	-0.013	-0.15892138192565608	
9.02	-0.268	-0.15074168565297266	
9.025	-0.150	-0.13991402282246063	
9.03	0.108	-0.1273323229864729	
9.035	-0.171	-0.11518628357394431	
9.04	-0.225	-0.10407238450555822	
9.045	0.001	-0.09833012400465595	
9.05	-0.165	-0.10606222153357461	
9.055	-0.342	-0.1246331046286359	
9.06	-0.173	-0.14486121091940324	
9.065	-0.153	-0.17192969432625843	
9.07	-0.402	-0.20364817999579346	
9.075	-0.355	-0.23197303621075532	
9.08	-0.176	-0.25836353270248225	
9.085	-0.326	-0.28511323719964554	
9.09	-0.370	-0.2960919713822455	
9.095	-0.173	-0.2933301758312208	
9.1	-0.236	-0.2930093404016756	
9.105	-0.318	-0.28668988395720085	
9.11	0.116	-0.2528243421600726	
9.115	0.481	-0.1757816234239287	
9.12	-0.031	-0.06673788975372033	
9.125	-0.185	0.019892662941419923	
9.13	-0.262	0.03270667382624834	
9.135	-0.633	-0.04217867054495775	
9.14	-0.795	-0.17424197966449187	
9.145	-0.593	-0.3262049462230745	
9.15	-0.619	-0.4719260612089311	
9.155	-0.662	-0.5748199622225846	
9.16	-0.364	-0.6127484332668237	
9.165	-0.171	-0.5946708246188324	
9.17	-0.274	-0.531903323324942	
9.175	-0.098	-0.4290310425328737	
9.18	0.305	-0.30397560930565976	
9.185	-0.026	-0.1773198756440548	
9.19	-0.115	-0.07044497242374054	
9.195	0.334	0.00906798920574984	
9.2	0.241	0.07107565734652073	
9.205	-0.066	0.1198102276466022	
9.21	0.350	0.15635975166895733	
9.215	0.476	0.19253779343916383	
9.22	0.030	0.2248009543618939	
9.225	0.256	0.2478732863807069	
9.23	0.690	0.27331605662293057	
9.235	0.339	0.313629692363784	
9.24	0.311	0.35736616612949645	
9.245	0.910	0.41025171140888006	
9.25	0.843	0.4862042002358076	
9.255	0.467	0.5716362659652547	
9.26	0.846	0.6423128361543475	
9.265	1.025	0.7016741304319082	
9.27	0.588	0.7508002723356064	
9.275	0.681	0.7807481759766067	
9.28	0.922	0.7883002911970034	
9.285	0.406	0.7677104319275616	
9.29	0.116	0.7053051492542803	
9.295	0.434	0.6051012095485276	
9.3	0.180	0.48727394071800034	
9.305	-0.187	0.36276053000560143	
9.31	-0.003	0.23918354581706108	
9.315	0.026	0.12263539364450793	
9.32	-0.280	0.02100935627579847	
9.325	-0.210	-0.05627165667682126	
9.33	0.073	-0.10883871382098118	
9.335	-0.202	-0.14010534692768287	
9.34	-0.295	-0.15457395186746034	
9.345	0.035	-0.15708163851796134	
9.35	-0.048	-0.15269634257094988	
9.355	-0.246	-0.14106299463152056	
9.36	-0.003	-0.12094106591408069	
9.365	0.087	-0.1004627309442962	
9.37	-0.223	-0.08484564558925034	
9.375	-0.147	-0.07431433400223433	
9.38	0.101	-0.07099464257128386	
9.385	-0.170	-0.07401147615456027	
9.39	-0.277	-0.08251894319969676	
9.395	-0.048	-0.09522509303981246	
9.4	-0.144	-0.1196824982362489	
9.405	-0.376	-0.14596201225011302	
9.41	-0.213	-0.1700190701585799	
9.415	-0.115	-0.1965045921396417	
9.42	-0.344	-0.22075144153542625	
9.425	-0.274	-0.2303048207768917	
9.43	-0.081	-0.2340420982586888	
9.435	-0.300	-0.2389997397195379	
9.44	-0.338	-0.24049456106510345	
9.445	0.053	-0.22919452076000907	
9.45	0.162	-0.19466846398433285	
9.455	0.000	-0.12897560507838113	
9.46	0.275	-0.03897635456060088	
9.465	-0.002	0.033488348465940676	
9.47	-0.535	0.040083012278791824	
9.475	-0.605	-0.03136362019445277	
9.48	-0.463	-0.15791968964395103	
9.485	-0.628	-0.30402933437491886	
9.49	-0.647	-0.4245858932005956	
9.495	-0.324	-0.4990452236860414	
9.5	-0.278	-0.5266103118161586	
9.505	-0.378	-0.5051633544199019	
9.51	-0.058	-0.4378961387125114	
9.515	0.188	-0.34328032250462426	
9.52	-0.139	-0.23603264807193097	
9.525	-0.057	-0.13541316300765197	
9.53	0.386	-0.050691795189518184	
9.535	0.093	0.023875879641879684	
9.54	-0.031	0.08518429137575413	
9.545	0.447	0.1331063444452029	
9.55	0.288	0.1744303654809728	
9.555	-0.072	0.2015773772244508	
9.56	0.363	0.21513359278175528	
9.565	0.557	0.23389702458439118	
9.57	0.125	0.2628522966128203	
9.575	0.267	0.2885057351654091	
9.58	0.684	0.3154547066036555	
9.585	0.420	0.3509085181126336	
9.59	0.316	0.3920828683868374	
9.595	0.738	0.4341239752489552	
9.6	0.724	0.4795200409247458	
9.605	0.505	0.5335735509545279	
9.61	0.867	0.5950800643942271	
9.615	0.919	0.6579041037904675	
9.62	0.354	0.6968655707087964	
9.625	0.324	0.6884277985320452	
9.63	0.557	0.6333961705137282	
9.635	0.055	0.544963498396263	
9.64	-0.138	0.4290745657252294	
9.645	0.217	0.3040367582469655	
9.65	0.032	0.1905937894123127	
9.655	-0.263	0.09566153834780766	
9.66	-0.072	0.01894998286761334	
9.665	0.036	-0.043104456648499795	
9.67	-0.251	-0.0889199175047886	
9.675	-0.162	-0.11258308620874524	
9.68	0.168	-0.11771937397233635	
9.685	-0.106	-0.10888023730057919	
9.69	-0.197	-0.09185132478457803	
9.695	0.107	-0.0741464554341435	
9.7	-0.011	-0.061395614358118585	
9.705	-0.229	-0.055210769796136275	
9.71	-0.020	-0.0511667228167597	
9.715	0.038	-0.054180672651372136	
9.72	-0.262	-0.06680468254074648	
9.725	-0.177	-0.07962198857228267	
9.73	0.142	-0.08881924830714608	
9.735	-0.156	-0.09279049799746383	
9.74	-0.281	-0.09482968473551145	
9.745	-0.077	-0.10425356830190903	
9.75	-0.153	-0.1263555410876782	
9.755	-0.347	-0.15314301205402892	
9.76	-0.155	-0.17022738723622616	
9.765	-0.058	-0.18417418360885696	
9.77	-0.330	-0.19574835942248792	
9.775	-0.291	-0.20166031619360764	
9.78	-0.028	-0.20583184517312436	
9.785	-0.130	-0.20475765079413902	
9.79	-0.077	-0.18083038396791362	
9.795	0.481	-0.11418622280498743	
9.8	0.305	-0.016302126286314958	
9.805	-0.269	0.0677257375405231	
9.81	-0.298	0.08567548793795175	
9.815	-0.407	0.016877620222505663	
9.82	-0.671	-0.11378805469443821	
9.825	-0.570	-0.2537137396980045	
9.83	-0.318	-0.3687081812395509	
9.835	-0.396	-0.44472160568103075	
9.84	-0.394	-0.46594268943630196	
9.845	-0.052	-0.4361280772225179	
9.85	-0.035	-0.37622787354203213	
9.855	-0.203	-0.29736342313011555	
9.86	0.055	-0.2082116304081294	
9.865	0.313	-0.11893040540337305	
9.87	-0.051	-0.035956379580511136	
9.875	0.072	0.03517967522878508	
9.88	0.484	0.09548879932812833	
9.885	0.157	0.14918667791724988	
9.89	-0.017	0.18680618599424667	
9.895	0.427	0.20901326136190929	
9.9	0.318	0.22287278038354996	
9.905	-0.037	0.23141209915750438	
9.91	0.443	0.2378043010430725	
9.915	0.706	0.26629199638361256	
9.92	0.290	0.3179678216046143	
9.925	0.402	0.373043402190342	
9.93	0.915	0.4296183584311701	
9.935	0.660	0.4972792965733612	
9.94	0.510	0.5686940551977473	
9.945	0.941	0.6319712129463564	
9.95	0.786	0.6819768977316228	
9.955	0.340	0.7074079866051314	
9.96	0.599	0.6986509473348236	
9.965	0.631	0.6622732962183009	
9.97	0.030	0.5970759779217807	
9.975	0.039	0.4989602297445579	
9.98	0.314	0.38449928560856794	
9.985	-0.115	0.26842594800350206	
9.99	-0.240	0.15774997957161463	
9.995	0.107	0.06379838170776737	
10.0	-0.011	-0.00691809403657107	
10.005	-0.262	-0.05338102465172281	
10.01	-0.081	-0.08151790418307228	
10.015	0.065	-0.09978855328097795	
10.02	-0.234	-0.11064948915712614	
10.025	-0.174	-0.11208366104776052	
10.03	0.136	-0.10671280377769363	
10.035	-0.093	-0.09839278819838879	
10.04	-0.164	-0.08315579176098574	
10.045	0.189	-0.059444449050768206	
10.05	0.013	-0.03589225243518515	
10.055	-0.277	-0.026224310774902858	
10.06	-0.072	-0.03169872906926331	
10.065	0.072	-0.046850513999220564	
10.07	-0.234	-0.06544410709943843	
10.075	-0.225	-0.08117035468369715	
10.08	-0.037	-0.10187275366970344	
10.085	-0.262	-0.13222267261570092	
10.09	-0.384	-0.1631271892464487	
10.095	-0.141	-0.19163381045060734	
10.1	-0.150	-0.21679256139404193	
10.105	-0.353	-0.2320775638833792	
10.11	-0.203	-0.23183143351404045	
10.115	-0.147	-0.23387854870789307	
10.12	-0.347	-0.24233248654904158	
10.125	-0.176	-0.23821324106474373	
10.13	0.472	-0.19786132114732147	
10.135	0.250	-0.10709428539860055	
10.14	-0.130	-0.002197889295577577	
10.145	-0.156	0.05421459176504975	
10.15	-0.399	0.023217467264821295	
10.155	-0.723	-0.07907954168786797	
10.16	-0.640	-0.21689517760921903	
10.165	-0.492	-0.36184162399256314	
10.17	-0.590	-0.4802613226875049	
10.175	-0.462	-0.5382008011031401	
10.18	-0.177	-0.5398811742542733	
10.185	-0.254	-0.5041502378591498	
10.19	-0.249	-0.43415399993981363	
10.195	0.174	-0.3345902671764326	
10.2	0.140	-0.22276677947640675	
10.205	-0.139	-0.11722396396304272	
10.21	0.191	-0.02879424331377341	
10.215	0.414	0.048259386087369814	
10.22	-0.013	0.11150612062629596	
10.225	0.055	0.1527003421321722	
10.23	0.432	0.1742913953187209	
10.235	0.124	0.18778207097880228	
10.24	-0.017	0.19266620781368138	
10.245	0.507	0.19952187215252293	
10.25	0.574	0.22834670935102172	
10.255	0.269	0.2826818919767608	
10.26	0.654	0.35319824416926454	
10.265	0.858	0.431356443739661	
10.27	0.429	0.5084899952136042	
10.275	0.522	0.5646375996674742	
10.28	0.947	0.6063147017695489	
10.285	0.683	0.643840679314072	
10.29	0.463	0.6746466610049939	
10.295	0.835	0.6894302200333571	
10.3	0.600	0.6863377767476495	
10.305	0.065	0.6487210335241913	
10.31	0.279	0.5710905429415369	
10.315	0.357	0.4702983192627814	
10.32	-0.129	0.36165584910805504	
10.325	-0.147	0.24963851689502634	
10.33	0.076	0.1381409059481716	
10.335	-0.217	0.03496575667111809	
10.34	-0.303	-0.050197086568225316	
10.345	-0.032	-0.11074563835786734	
10.35	-0.080	-0.15065511636857642	
10.355	-0.278	-0.16901549067246974	
10.36	-0.121	-0.16998545077049781	
10.365	-0.023	-0.16587160383246702	
10.37	-0.265	-0.16416802416205348	
10.375	-0.214	-0.15929887895343153	
10.38	0.067	-0.15104885764376252	
10.385	-0.173	-0.1429928852946582	
10.39	-0.271	-0.1360826241336266	
10.395	0.013	-0.12888395538202674	
10.4	-0.086	-0.12570947782992187	
10.405	-0.336	-0.1289019812296544	
10.41	-0.217	-0.14004428656257195	
10.415	-0.144	-0.16295801205882782	
10.42	-0.396	-0.19807500750325205	
10.425	-0.368	-0.22928407337936496	
10.43	-0.168	-0.2571313027662813	
10.435	-0.323	-0.2829519218754074	
10.44	-0.410	-0.298032087194128	
10.445	-0.173	-0.29991847733137655	
10.45	-0.248	-0.3007130896480903	
10.455	-0.477	-0.3038919331354484	
10.46	-0.284	-0.30603417446924164	
10.465	-0.022	-0.3009149785333137	
10.47	-0.095	-0.27408112799738116	
10.475	0.058	-0.20828114349606958	
10.48	0.351	-0.11505714052360097	
10.485	-0.249	-0.0370208876349389	
10.49	-0.608	-0.024206252825568986	
10.495	-0.570	-0.09589705378147866	
10.5	-0.677	-0.23464893672359108	
10.505	-0.828	-0.3919851193679958	
10.51	-0.579	-0.518994495229792	
10.515	-0.387	-0.5977604497754321	
10.52	-0.509	-0.6231744980249458	
10.525	-0.349	-0.5923696702945916	
10.53	0.001	-0.5178746105206529	
10.535	-0.147	-0.42098847478555057	
10.54	-0.214	-0.3173168963559213	
10.545	0.166	-0.21471284267672475	
10.55	0.157	-0.12154284331953366	
10.555	-0.156	-0.044251790495911464	
10.56	0.093	0.011976867821824423	
10.565	0.322	0.05243274301779501	
10.57	-0.078	0.0806364551655463	
10.575	-0.038	0.09444334775552055	
10.58	0.429	0.10334438567725672	
10.585	0.215	0.1230495254142046	
10.59	0.117	0.15647062435448178	
10.595	0.706	0.2103991222456353	
10.6	0.728	0.2916446674841479	
10.605	0.372	0.3896004599710179	
10.61	0.741	0.4809018310258135	
10.615	0.971	0.5656033906049118	
10.62	0.522	0.6386322963392098	
10.625	0.600	0.6862818692455559	
10.63	1.008	0.716384389922979	
10.635	0.673	0.7371635130573769	
10.64	0.363	0.7383530626602597	
10.645	0.667	0.7102501055565758	
10.65	0.432	0.654742687287289	
10.655	-0.124	0.5646576577757196	
10.66	0.012	0.43871521774947	
10.665	0.107	0.29460591313120654	
10.67	-0.251	0.15587011093753808	
10.675	-0.234	0.03922450211849661	
10.68	0.010	-0.05177441512023165	
10.685	-0.194	-0.11863477818651014	
10.69	-0.329	-0.16053214590554177	
10.695	-0.101	-0.18395035861723436	
10.7	-0.142	-0.2012019600871661	
10.705	-0.324	-0.21212297035066535	
10.71	-0.106	-0.2063889733110969	
10.715	0.081	-0.18848170222929655	
10.72	-0.232	-0.16498792150169972	
10.725	-0.223	-0.14182462519003508	
10.73	0.119	-0.12391395462256646	
10.735	-0.122	-0.10954365633393276	
10.74	-0.277	-0.09950776610091663	
10.745	-0.071	-0.09908888812982516	
10.75	-0.156	-0.11516870838810629	
10.755	-0.396	-0.14504775352335958	
10.76	-0.268	-0.1754934523518992	
10.765	-0.173	-0.210504723249354	
10.77	-0.433	-0.2488957516176589	
10.775	-0.422	-0.28085735743124607	
10.78	-0.174	-0.3049426428815796	
10.785	-0.301	-0.32247856238816486	
10.79	-0.451	-0.32752208873552346	
10.795	-0.216	-0.32309599154123236	
10.8	-0.199	-0.3191074035159125	
10.805	-0.304	-0.3080828490322041	
10.81	0.111	-0.264483247734838	
10.815	0.550	-0.1743659245262445	
10.82	0.023	-0.05294165897923375	
10.825	-0.199	0.04397967040199252	
10.83	-0.283	0.059070946078738265	
10.835	-0.639	-0.021497901314524764	
10.84	-0.850	-0.16765079119247545	
10.845	-0.622	-0.33302816649850986	
10.85	-0.581	-0.4839934804199592	
10.855	-0.694	-0.5911695082241902	
10.86	-0.398	-0.6304805116960154	
10.865	-0.144	-0.6102526657049072	
10.87	-0.303	-0.545020878542632	
10.875	-0.208	-0.4480134145114614	
10.88	0.221	-0.33366900647373976	
10.885	0.023	-0.21750341565376002	
10.89	-0.118	-0.11184785016670575	
10.895	0.362	-0.019889288800682442	
10.9	0.356	0.0640942136408737	
10.905	-0.055	0.13354402576042465	
10.91	0.246	0.17946251775645658	
10.915	0.541	0.2129436198004593	
10.92	0.130	0.24385918554615277	
10.925	0.191	0.2688218687301879	
10.93	0.695	0.29449670508650627	
10.935	0.519	0.33658037492347415	
10.94	0.385	0.3930143440236487	
10.945	0.897	0.46213091254414085	
10.95	0.933	0.5462275382983888	
10.955	0.576	0.6325055574412777	
10.96	0.887	0.7093749623948908	
10.965	1.199	0.7790080147647359	
10.97	0.765	0.8429234756097768	
10.975	0.701	0.886720628598206	
10.98	0.988	0.8974121752305911	
10.985	0.565	0.8726501409755811	
10.99	0.185	0.8069999127440404	
10.995	0.466	0.7029775447731599	
11.0	0.266	0.5772581592650821	
11.005	-0.203	0.43864333913687825	
11.01	-0.043	0.29327233787998697	
11.015	0.122	0.1599315694870819	
11.02	-0.229	0.05013105743879205	
11.025	-0.234	-0.030239044025599474	
11.03	0.035	-0.0877529755252901	
11.035	-0.197	-0.1292115774902215	
11.04	-0.281	-0.15482201507494397	
11.045	0.042	-0.15918631912532316	
11.05	0.032	-0.14875940152802355	
11.055	-0.246	-0.12915027110868355	
11.06	-0.103	-0.10882945021473037	
11.065	0.047	-0.09823358750266663	
11.07	-0.217	-0.09772870298727654	
11.075	-0.184	-0.09721653741773809	
11.08	0.097	-0.09492105123670347	
11.085	-0.168	-0.09515465938837736	
11.09	-0.344	-0.10474248858406543	
11.095	-0.164	-0.12533493546425867	
11.1	-0.141	-0.15678132986540205	
11.105	-0.373	-0.1890167390936284	
11.11	-0.251	-0.20987258600536343	
11.115	-0.138	-0.2282993890716207	
11.12	-0.365	-0.24864513277894576	
11.125	-0.361	-0.261207487265652	
11.13	-0.158	-0.26998141765708494	
11.135	-0.324	-0.28312927812690836	
11.14	-0.474	-0.2957166994756017	
11.145	-0.161	-0.3013261815935204	
11.15	0.035	-0.2917535607670767	
11.155	-0.049	-0.24602349797004883	
11.16	0.334	-0.1538336496607119	
11.165	0.296	-0.03824800914614829	
11.17	-0.385	0.038218518689190135	
11.175	-0.636	0.02564890293793874	
11.18	-0.572	-0.08090611565671656	
11.185	-0.740	-0.2471064581428508	
11.19	-0.830	-0.4158191836935013	
11.195	-0.511	-0.5432300866308286	
11.2	-0.391	-0.6176296127408311	
11.205	-0.468	-0.6291667497666311	
11.21	-0.197	-0.5758598511704878	
11.215	0.148	-0.477039173564084	
11.22	-0.122	-0.3537994889819961	
11.225	-0.104	-0.22941422884644438	
11.23	0.314	-0.11869691828307985	
11.235	0.160	-0.024110555129955573	
11.24	-0.048	0.05493602910643011	
11.245	0.409	0.117847313258245	
11.25	0.440	0.1744687738709373	
11.255	0.032	0.22359059570979595	
11.26	0.340	0.2580788085112412	
11.265	0.634	0.29014180847930243	
11.27	0.238	0.32412906728794966	
11.275	0.293	0.353463959481891	
11.28	0.780	0.3854439025995699	
11.285	0.641	0.4319696515504417	
11.29	0.487	0.49282967703384295	
11.295	1.060	0.5678546989507413	
11.3	1.130	0.6645900167721541	
11.305	0.730	0.7685741875340995	
11.31	0.965	0.8549613745826566	
11.315	1.132	0.9141530473949815	
11.32	0.629	0.9402074569896754	
11.325	0.501	0.9203674095161651	
11.33	0.765	0.8593206674141067	
11.335	0.307	0.766070305256901	
11.34	-0.109	0.6368544314184585	
11.345	0.140	0.4796460656304075	
11.35	0.047	0.31562664310443345	
11.355	-0.301	0.16580351080395442	
11.36	-0.165	0.04085129981254212	
11.365	0.020	-0.05594836511626806	
11.37	-0.265	-0.12451320331873729	
11.375	-0.263	-0.16257824208868826	
11.38	0.010	-0.17990377512540323	
11.385	-0.164	-0.18578468227571815	
11.39	-0.297	-0.18294519148589805	
11.395	-0.077	-0.17455945583740057	
11.4	-0.043	-0.1674355534228283	
11.405	-0.252	-0.16099336662057595	
11.41	-0.098	-0.14523723317280918	
11.415	0.125	-0.12510927099840474	
11.42	-0.197	-0.10638391354646862	
11.425	-0.226	-0.0935664536318567	
11.43	-0.042	-0.09407371233934103	
11.435	-0.234	-0.1137350736758488	
11.44	-0.350	-0.14285762525607792	
11.445	-0.127	-0.16765493228970463	
11.45	-0.142	-0.19043462946363726	
11.455	-0.387	-0.21091671928487715	
11.46	-0.252	-0.22429678706230577	
11.465	-0.110	-0.235127121464007	
11.47	-0.332	-0.2463204158888288	
11.475	-0.364	-0.2515935209840482	
11.48	-0.136	-0.25507056295557873	
11.485	-0.258	-0.26367973331053485	
11.49	-0.304	-0.26290232783121537	
11.495	0.204	-0.2326323890297754	
11.5	0.435	-0.1573167481172081	
11.505	-0.037	-0.0509779958278483	
11.51	-0.101	0.034586706614329096	
11.515	-0.263	0.04789402223695804	
11.52	-0.677	-0.02737358648991437	
11.525	-0.822	-0.16468811916520948	
11.53	-0.605	-0.3289864036393832	
11.535	-0.598	-0.4826222241087103	
11.54	-0.610	-0.5799546672872959	
11.545	-0.277	-0.6055641301791614	
11.55	-0.147	-0.574290253567104	
11.555	-0.278	-0.5000893035940285	
11.56	-0.063	-0.3942839182153695	
11.565	0.244	-0.2759027732608534	
11.57	-0.106	-0.16552296993197008	
11.575	-0.124	-0.07675323751982607	
11.58	0.301	-0.013770006988232813	
11.585	0.169	0.03726682014754013	
11.59	-0.022	0.08379337097722732	
11.595	0.388	0.1275932655105207	
11.6	0.377	0.1697712161022047	
11.605	0.035	0.20564449228405063	
11.61	0.305	0.2327612346042316	
11.615	0.651	0.263304748355936	
11.62	0.331	0.3063428533020093	
11.625	0.406	0.3571891989888166	
11.63	0.918	0.42043514888071115	
11.635	0.750	0.4992403224523683	
11.64	0.522	0.5806418400112483	
11.645	0.964	0.6536832999603472	
11.65	0.967	0.7198391590162747	
11.655	0.522	0.7685328717740001	
11.66	0.719	0.788730878180644	
11.665	0.904	0.7863584471522618	
11.67	0.348	0.7593112598809224	
11.675	0.198	0.6971079602154027	
11.68	0.457	0.6014079004327327	
11.685	0.039	0.48328226255747975	
11.69	-0.181	0.3526516438397451	
11.695	0.160	0.22863364611209575	
11.7	0.107	0.12889803172567862	
11.705	-0.265	0.0526411009677682	
11.71	-0.148	-0.007335691487411561	
11.715	0.072	-0.05868049171595156	
11.72	-0.220	-0.0955301563535392	
11.725	-0.240	-0.11686302350768046	
11.73	0.056	-0.12770879238456828	
11.735	-0.119	-0.13263477735412482	
11.74	-0.262	-0.13225037011233137	
11.745	-0.005	-0.1245059338325107	
11.75	0.090	-0.11315003277183973	
11.755	-0.193	-0.09622887382060619	
11.76	-0.022	-0.07237240605914712	
11.765	0.218	-0.046788803600813764	
11.77	-0.170	-0.027464843436527317	
11.775	-0.210	-0.02084608989708191	
11.78	-0.002	-0.03281966264721464	
11.785	-0.200	-0.06362023956986296	
11.79	-0.342	-0.10218100274879642	
11.795	-0.106	-0.13555860289502325	
11.8	-0.126	-0.16517432023176942	
11.805	-0.346	-0.1901764701989647	
11.81	-0.214	-0.2023795335330437	
11.815	-0.061	-0.2088074870143735	
11.82	-0.301	-0.2164464862301303	
11.825	-0.324	-0.2178351804063397	
11.83	-0.061	-0.21678345280281042	
11.835	-0.127	-0.2156160177918865	
11.84	-0.150	-0.19722144793070814	
11.845	0.426	-0.1384715334657745	
11.85	0.402	-0.041098453263402494	
11.855	-0.226	0.05266360029532451	
11.86	-0.339	0.08351367006366668	
11.865	-0.394	0.024272273535715726	
11.87	-0.698	-0.10750344375223629	
11.875	-0.735	-0.2609259362732199	
11.88	-0.442	-0.40064181042379277	
11.885	-0.442	-0.5025523527538227	
11.89	-0.486	-0.5443404558697249	
11.895	-0.179	-0.5254183502533296	
11.9	0.023	-0.4640146753758556	
11.905	-0.165	-0.3704201164078439	
11.91	0.079	-0.25437029978672443	
11.915	0.374	-0.13252980401851205	
11.92	0.026	-0.021670278930127896	
11.925	0.065	0.06696483950216926	
11.93	0.539	0.13855920146489964	
11.935	0.281	0.20136032391244338	
11.94	-0.013	0.24438920829696134	
11.945	0.397	0.26369734860203464	
11.95	0.406	0.2720947641163769	
11.955	0.029	0.2743638040900951	
11.96	0.380	0.2766128156197973	
11.965	0.758	0.29868640889952164	
11.97	0.424	0.348303905982002	
11.975	0.444	0.4098423643477244	
11.98	0.935	0.47765022400795587	
11.985	0.742	0.5504486198122647	
11.99	0.441	0.6163033756617708	
11.995	0.897	0.6646481769903763	
12.0	0.878	0.7011838818046991	
12.005	0.382	0.7213828502246553	
12.01	0.570	0.713474820106239	
12.015	0.695	0.6806408736949505	
12.02	0.200	0.6254107788285104	
12.025	0.111	0.5457915523789516	
12.03	0.415	0.4535130077520857	
12.035	0.068	0.3575708984270831	
12.04	-0.202	0.2604048705426193	
12.045	0.024	0.1634721537647065	
12.05	0.017	0.07220372530486813	
12.055	-0.278	-0.005388451187125367	
12.06	-0.165	-0.06261464007122124	
12.065	0.142	-0.09947168456982293	
12.07	-0.129	-0.11235639677681517	
12.075	-0.147	-0.10416502041859502	
12.08	0.218	-0.08070347991670702	
12.085	-0.013	-0.05433361947363986	
12.09	-0.232	-0.03444862032135027	
12.095	0.036	-0.024726378653894713	
12.1	0.076	-0.026844407577191025	
12.105	-0.257	-0.035197142440627535	
12.11	-0.135	-0.046717427541374625	
12.115	0.137	-0.060630923791941085	
12.12	-0.184	-0.07119163445204177	
12.125	-0.252	-0.07813408189351362	
12.13	-0.068	-0.09391321762155118	
12.135	-0.260	-0.1262765910612475	
12.14	-0.370	-0.16428400754643588	
12.145	-0.130	-0.19183460558200308	
12.15	-0.061	-0.20889987946881783	
12.155	-0.317	-0.21304790680253233	
12.16	-0.222	-0.20672725211483994	
12.165	-0.078	-0.20275156333675773	
12.17	-0.323	-0.20814711127269325	
12.175	-0.321	-0.2140680254634304	
12.18	0.070	-0.20994408065475456	
12.185	0.104	-0.18526029375838426	
12.19	-0.020	-0.12822727294143652	
12.195	0.279	-0.04784700096469773	
12.2	-0.058	0.01602734778724977	
12.205	-0.486	0.020873508520490844	
12.21	-0.509	-0.03974194143109673	
12.215	-0.462	-0.15171330969661556	
12.22	-0.621	-0.2861742499393879	
12.225	-0.543	-0.39607840135439487	
12.23	-0.228	-0.45782497926179716	
12.235	-0.269	-0.47426301008340765	
12.24	-0.375	-0.4483712653386583	
12.245	-0.118	-0.39274892781043225	
12.25	0.049	-0.3258166995599376	
12.255	-0.207	-0.2512450775636235	
12.26	-0.049	-0.17571932035993446	
12.265	0.282	-0.10550714489040788	
12.27	-0.049	-0.04332151800920048	
12.275	-0.057	0.0077419820110613	
12.28	0.366	0.050358278511456196	
12.285	0.056	0.08271225398195131	
12.29	-0.138	0.09836811790052881	
12.295	0.368	0.10737782845900452	
12.3	0.486	0.13537214986185592	
12.305	0.064	0.17955411411135014	
12.31	0.322	0.2242069839368121	
12.315	0.643	0.26871467183848274	
12.32	0.259	0.31365729354655686	
12.325	0.261	0.34955558339191817	
12.33	0.857	0.3884624397621153	
12.335	0.715	0.4468859621528285	
12.34	0.368	0.5142523412223061	
12.345	0.744	0.567237234678958	
12.35	0.715	0.6004746251506029	
12.355	0.148	0.6036018688441878	
12.36	0.230	0.5630200902173618	
12.365	0.377	0.4866776989606101	
12.37	-0.100	0.38684905996435276	
12.375	-0.203	0.27150105523343215	
12.38	0.073	0.15426440293285842	
12.385	-0.106	0.04803609911788523	
12.39	-0.263	-0.03259107764660221	
12.395	-0.025	-0.08394700350741637	
12.4	0.017	-0.11351446052224999	
12.405	-0.257	-0.12814681305936088	
12.41	-0.145	-0.12905869019291247	
12.415	0.090	-0.12545510679944455	
12.42	-0.185	-0.11995935534618005	
12.425	-0.199	-0.11146516441540692	
12.43	0.142	-0.0979222706117608	
12.435	-0.081	-0.0848970212981095	
12.44	-0.271	-0.07750920131525425	
12.445	-0.043	-0.07812044704168522	
12.45	-0.002	-0.08652477697933744	
12.455	-0.260	-0.09800203245465108	
12.46	-0.148	-0.10415363943302343	
12.465	0.041	-0.11053546361436231	
12.47	-0.245	-0.1198249101079205	
12.475	-0.312	-0.1314868294480956	
12.48	-0.106	-0.14904762041441766	
12.485	-0.251	-0.17781378523910166	
12.49	-0.420	-0.2074483862089771	
12.495	-0.177	-0.23020371970516723	
12.5	-0.109	-0.24549507552383487	
12.505	-0.336	-0.2509412123383661	
12.51	-0.242	-0.24220812142458953	
12.515	-0.097	-0.23353601898000834	
12.52	-0.306	-0.23379620050783698	
12.525	-0.240	-0.22851839072196173	
12.53	0.369	-0.19297643550753768	
12.535	0.327	-0.11372805455588363	
12.54	-0.103	-0.013547904934549125	
12.545	-0.090	0.05271565778172269	
12.55	-0.275	0.043523532739421375	
12.555	-0.622	-0.03601816831754343	
12.56	-0.573	-0.15324967030483128	
12.565	-0.425	-0.2824371353368934	
12.57	-0.501	-0.394792220967497	
12.575	-0.414	-0.45654688655725884	
12.58	-0.087	-0.45888812807499535	
12.585	-0.127	-0.41977327714808266	
12.59	-0.237	-0.35263976648365836	
12.595	0.108	-0.2630763104462115	
12.6	0.175	-0.17035126769149048	
12.605	-0.185	-0.08924073619189131	
12.61	-0.057	-0.03323197227349111	
12.615	0.266	0.0017822957969216928	
12.62	-0.092	0.02200765004294581	
12.625	-0.167	0.030245302642414065	
12.63	0.279	0.032336908774822565	
12.635	0.212	0.042246974232809126	
12.64	-0.060	0.06711207786411047	
12.645	0.368	0.10204060095616405	
12.65	0.533	0.14981748964523883	
12.655	0.140	0.20858792331868228	
12.66	0.409	0.2677608981608239	
12.665	0.774	0.32896917774824463	
12.67	0.412	0.39492663805460976	
12.675	0.311	0.44814103613500395	
12.68	0.774	0.4854430465181573	
12.685	0.618	0.5162432148632357	
12.69	0.272	0.5390131691235684	
12.695	0.567	0.5440578984519879	
12.7	0.492	0.5278189167621627	
12.705	0.036	0.48553953673197003	
12.71	0.175	0.42176635134485935	
12.715	0.438	0.35297183652349423	
12.72	-0.035	0.28693121028836766	
12.725	-0.110	0.21917067374319507	
12.73	0.224	0.15442527750664814	
12.735	-0.042	0.09524646394289708	
12.74	-0.258	0.04106566952382324	
12.745	-0.013	-0.005960184274458787	
12.75	0.055	-0.04517929234137891	
12.755	-0.208	-0.07036613950564127	
12.76	-0.052	-0.0772374555407754	
12.765	0.223	-0.06809328028755171	
12.77	-0.107	-0.05101162668306338	
12.775	-0.135	-0.03380165556867332	
12.78	0.287	-0.01265110604995658	
12.785	0.097	0.012271308786202625	
12.79	-0.164	0.03511591761687788	
12.795	0.124	0.04795257162881019	
12.8	0.163	0.05079606365586436	
12.805	-0.211	0.04471039380144828	
12.81	-0.155	0.02569044093113795	
12.815	0.001	-0.010185615930486542	
12.82	-0.251	-0.05691004614504055	
12.825	-0.304	-0.10176253259777761	
12.83	-0.019	-0.13476248455499942	
12.835	-0.136	-0.1606968313934003	
12.84	-0.312	-0.17377903790522678	
12.845	-0.074	-0.1730983919060456	
12.85	-0.019	-0.16924445585243286	
12.855	-0.312	-0.1652213613295047	
12.86	-0.251	-0.1612957961399506	
12.865	-0.006	-0.16622189012021094	
12.87	-0.127	-0.16890040545131335	
12.875	0.015	-0.14471484690294192	
12.88	0.623	-0.07171451373861283	
12.885	0.279	0.036279918868093376	
12.89	-0.266	0.12212395239575831	
12.895	-0.278	0.13083859650957547	
12.9	-0.417	0.047737358646130316	
12.905	-0.654	-0.09324034814866916	
12.91	-0.537	-0.23726549213488926	
12.915	-0.303	-0.3561582220265812	
12.92	-0.410	-0.43390700502704904	
12.925	-0.367	-0.4547367410897997	
12.93	-0.040	-0.42568189697048225	
12.935	-0.126	-0.3717419450785914	
12.94	-0.228	-0.3028753452999201	
12.945	0.180	-0.21797335267910387	
12.95	0.285	-0.12218027615416191	
12.955	-0.126	-0.03442499135610659	
12.96	0.029	0.030713952794447753	
12.965	0.431	0.07598326329258695	
12.97	0.082	0.11495787103131447	
12.975	0.012	0.1471022129972943	
12.98	0.391	0.1694529883769222	
12.985	0.259	0.18428763365485332	
12.99	0.047	0.19996414008822336	
12.995	0.515	0.22508258509554283	
13.0	0.606	0.26694031657112693	
13.005	0.163	0.3154811123919611	
13.01	0.464	0.35768506937333666	
13.015	0.863	0.4051090971840516	
13.02	0.541	0.46595170507704525	
13.025	0.484	0.5280113651468175	
13.03	0.887	0.5814898754274945	
13.035	0.620	0.6213445332468142	
13.04	0.215	0.631883754339524	
13.045	0.568	0.6089837181346963	
13.05	0.557	0.5669969145188235	
13.055	-0.051	0.5075521577057354	
13.06	0.062	0.42056101741242613	
13.065	0.330	0.32103884776011404	
13.07	-0.107	0.22812687778631768	
13.075	-0.216	0.14101801286633264	
13.08	0.084	0.06129339000202205	
13.085	-0.109	-0.008515395567358834	
13.09	-0.317	-0.06490027783802699	
13.095	-0.092	-0.10522410128493638	
13.1	-0.006	-0.13506810253857032	
13.105	-0.257	-0.15114135075641427	
13.11	-0.132	-0.1494864500019734	
13.115	0.134	-0.13620021482714056	
13.12	-0.173	-0.11968929013583535	
13.125	-0.217	-0.10387684086689988	
13.13	0.073	-0.09195881921726792	
13.135	-0.066	-0.08648712734742509	
13.14	-0.234	-0.08470862833655743	
13.145	-0.009	-0.07938405496962767	
13.15	0.013	-0.0791666424664567	
13.155	-0.277	-0.0859673834875655	
13.16	-0.229	-0.09753937966368421	
13.165	-0.063	-0.119353994111404	
13.17	-0.281	-0.15056752099048043	
13.175	-0.333	-0.17681053997774923	
13.18	-0.081	-0.1950773564292501	
13.185	-0.208	-0.21145799429023265	
13.19	-0.393	-0.2246310113070955	
13.195	-0.199	-0.23144453122036848	
13.2	-0.168	-0.24218070178434997	
13.205	-0.413	-0.25592194422891834	
13.21	-0.306	-0.26354507012176276	
13.215	0.012	-0.26333401546440566	
13.22	-0.063	-0.2435456908837556	
13.225	0.006	-0.1878178449066105	
13.23	0.403	-0.10002575272273276	
13.235	0.053	-0.010473301782261819	
13.24	-0.410	0.038232223156512785	
13.245	-0.428	0.012537600696218268	
13.25	-0.518	-0.09014071000760453	
13.255	-0.752	-0.23600821357177998	
13.26	-0.627	-0.3745251538445325	
13.265	-0.338	-0.4791962696945748	
13.27	-0.404	-0.5346148474149662	
13.275	-0.346	-0.525886654677992	
13.28	0.050	-0.4628591673817305	
13.285	-0.046	-0.37146952455372384	
13.29	-0.207	-0.27289309373102566	
13.295	0.157	-0.17425891261987536	
13.3	0.288	-0.08099975627681227	
13.305	-0.046	0.0017312172518196777	
13.31	0.143	0.06944812048738953	
13.315	0.490	0.12702435665148226	
13.32	0.134	0.17519032399911227	
13.325	0.053	0.20988627755169437	
13.33	0.568	0.23636660878329502	
13.335	0.383	0.26558702301330794	
13.34	0.085	0.29385432961289415	
13.345	0.618	0.32182485514978204	
13.35	0.783	0.3672164315890596	
13.355	0.365	0.42959196512768333	
13.36	0.574	0.48834243150102674	
13.365	0.961	0.5451935048094367	
13.37	0.617	0.6022259291861962	
13.375	0.528	0.6497402405196944	
13.38	1.017	0.6883755439917303	
13.385	0.823	0.7247082875846598	
13.39	0.365	0.7448023498224807	
13.395	0.592	0.7306665649392763	
13.4	0.620	0.6832448765036432	
13.405	0.053	0.6107015792250752	
13.41	0.070	0.5102295744554919	
13.415	0.307	0.3930908638165348	
13.42	-0.109	0.27640478338463786	
13.425	-0.220	0.16679587797453715	
13.43	0.064	0.07017511947836513	
13.435	-0.103	-0.011218040484261983	
13.44	-0.284	-0.07196628642204925	
13.445	-0.052	-0.1084548685272909	
13.45	0.000	-0.12884603532105396	
13.455	-0.300	-0.1420692531774379	
13.46	-0.156	-0.14576886838707184	
13.465	0.189	-0.137088570902103	
13.47	-0.135	-0.11646377586354931	
13.475	-0.208	-0.09312319832689261	
13.48	0.142	-0.07303105940857305	
13.485	-0.017	-0.05819559051272698	
13.49	-0.234	-0.049817655973136726	
13.495	-0.005	-0.045619984857090276	
13.5	0.039	-0.04892379208150465	
13.505	-0.287	-0.06187731623676132	
13.51	-0.246	-0.0818382883124379	
13.515	-0.133	-0.11527351706077608	
13.52	-0.326	-0.16232193923512006	
13.525	-0.341	-0.2020355659008213	
13.53	-0.074	-0.22517574429254028	
13.535	-0.168	-0.2351539563642969	
13.54	-0.362	-0.2367039819454361	
13.545	-0.187	-0.22970829556770012	
13.55	-0.165	-0.23095307139624946	
13.555	-0.420	-0.24180176099351772	
13.56	-0.294	-0.2518593908538087	
13.565	0.130	-0.24725966890209883	
13.57	0.096	-0.20924318779301088	
13.575	0.082	-0.12906028729563557	
13.58	0.258	-0.031212459600265256	
13.585	-0.216	0.02882533699354487	
13.59	-0.595	0.014179188007009512	
13.595	-0.564	-0.07273878061940421	
13.6	-0.588	-0.2138619044980727	
13.605	-0.750	-0.3688515349948526	
13.61	-0.555	-0.4878795916151885	
13.615	-0.257	-0.551092435180024	
13.62	-0.346	-0.5582930792710108	
13.625	-0.342	-0.5142279540548673	
13.63	0.055	-0.4320123633353343	
13.635	0.027	-0.3330248277541289	
13.64	-0.177	-0.22901874390803148	
13.645	0.146	-0.13065355052955616	
13.65	0.304	-0.043628430653154866	
13.655	-0.075	0.027900546257627633	
13.66	0.099	0.08094865496672372	
13.665	0.512	0.1251635854392086	
13.67	0.159	0.16863502799651914	
13.675	0.053	0.20447717771831447	
13.68	0.586	0.2351635014530758	
13.685	0.507	0.27514190917080805	
13.69	0.203	0.3227376463490035	
13.695	0.644	0.37233318538259813	
13.7	0.829	0.43062371729682514	
13.705	0.418	0.49482310963183834	
13.71	0.547	0.5477729772944075	
13.715	1.005	0.5933035981862351	
13.72	0.779	0.6457414804842407	
13.725	0.657	0.7063387771909668	
13.73	1.075	0.7621227004489323	
13.735	0.831	0.8062459884676855	
13.74	0.267	0.8126850154989068	
13.745	0.473	0.7651737300373965	
13.75	0.499	0.6746520128328345	
13.755	-0.052	0.5609428052845677	
13.76	-0.037	0.4286916162072979	
13.765	0.256	0.29520650380964414	
13.77	-0.132	0.17689222403815594	
13.775	-0.237	0.07939953195211417	
13.78	0.038	0.0009466431598606439	
13.785	-0.104	-0.06068259148708428	
13.79	-0.321	-0.10607667086675279	
13.795	-0.115	-0.13593083455549082	
13.8	-0.005	-0.15445443834235167	
13.805	-0.249	-0.16383464140696197	
13.81	-0.153	-0.1572874057150525	
13.815	0.133	-0.1410025448222771	
13.82	-0.162	-0.12202459612347895	
13.825	-0.240	-0.106491597447957	
13.83	0.075	-0.09423093020820641	
13.835	-0.054	-0.08870749834288821	
13.84	-0.278	-0.08792995660893674	
13.845	-0.113	-0.09102611816505363	
13.85	-0.084	-0.10756129972456561	
13.855	-0.338	-0.1347196532313052	
13.86	-0.268	-0.16028159547174153	
13.865	-0.060	-0.1821100113777178	
13.87	-0.301	-0.20396957514758732	
13.875	-0.396	-0.22243034718927673	
13.88	-0.159	-0.23729305937767878	
13.885	-0.199	-0.2537116950087043	
13.89	-0.365	-0.2608766645279764	
13.895	-0.176	-0.2550169905611694	
13.9	-0.148	-0.24857114997422763	
13.905	-0.384	-0.24974353573508434	
13.91	-0.220	-0.24627038834250067	
13.915	0.319	-0.2180341694688446	
13.92	0.212	-0.14796475026810824	
13.925	0.017	-0.0474767888985902	
13.93	0.119	0.038724953071697855	
13.935	-0.329	0.05922286362450209	
13.94	-0.731	-0.004022312856466613	
13.945	-0.697	-0.13598467439242296	
13.95	-0.659	-0.30849521542726366	
13.955	-0.767	-0.47481724219590693	
13.96	-0.556	-0.585217164388562	
13.965	-0.258	-0.6258912441415108	
13.97	-0.303	-0.6080971401623942	
13.975	-0.232	-0.5325414034611992	
13.98	0.250	-0.4109797374321168	
13.985	0.198	-0.26473216729225485	
13.99	-0.086	-0.12225198739323895	
13.995	0.282	-0.0008139801488333586	
14.0	0.402	0.09467755174700926	
14.005	-0.055	0.16084239293642483	
14.01	0.117	0.19366682290025408	
14.015	0.548	0.21238446450534879	
14.02	0.221	0.23377750446559134	
14.025	0.116	0.25719253409057347	
14.03	0.638	0.28321488364455283	
14.035	0.518	0.32038611849386783	
14.04	0.195	0.360529505725099	
14.045	0.753	0.4052250740849125	
14.05	1.020	0.47391545673306834	
14.055	0.631	0.5657828794357865	
14.06	0.817	0.6615337288445172	
14.065	1.226	0.752492193476391	
14.07	0.842	0.8328390656718612	
14.075	0.591	0.8850370174746522	
14.08	1.083	0.9021504683858206	
14.085	0.936	0.9035215477879053	
14.09	0.418	0.8875357906688396	
14.095	0.620	0.8410285042794106	
14.1	0.596	0.7628961891487742	
14.105	-0.025	0.6539338816652436	
14.11	-0.052	0.5144340622672265	
14.115	0.215	0.35934410100134473	
14.12	-0.136	0.21405697808147373	
14.125	-0.251	0.0921731791477385	
14.13	-0.034	-0.004072218605950134	
14.135	-0.126	-0.08144374851842882	
14.14	-0.260	-0.13519407451366452	
14.145	-0.002	-0.15206727754199723	
14.15	0.122	-0.14321884542222002	
14.155	-0.216	-0.12184173006684479	
14.16	-0.161	-0.10054867519272145	
14.165	0.107	-0.08686289181548752	
14.17	-0.130	-0.08086203511875904	
14.175	-0.194	-0.07472924341568932	
14.18	0.177	-0.0632304025013524	
14.185	0.052	-0.04645021051339951	
14.19	-0.217	-0.031082490442075443	
14.195	-0.020	-0.023198544585869407	
14.2	0.017	-0.030308765942242844	
14.205	-0.294	-0.05170008362667078	
14.21	-0.225	-0.07855738308663227	
14.215	-0.009	-0.10797923820839982	
14.22	-0.254	-0.13877176401123545	
14.225	-0.368	-0.16567340972159492	
14.23	-0.110	-0.18734839640267348	
14.235	-0.155	-0.20843378740374488	
14.24	-0.352	-0.2209805955593361	
14.245	-0.187	-0.22123904903065028	
14.25	-0.150	-0.22434283563328672	
14.255	-0.387	-0.2356543411626441	
14.26	-0.255	-0.2415498579547658	
14.265	0.311	-0.22296067333696096	
14.27	0.331	-0.1537195537214695	
14.275	0.174	-0.033661395133311164	
14.28	0.318	0.08762203278753701	
14.285	-0.208	0.14846921683270703	
14.29	-0.627	0.11291454177741611	
14.295	-0.621	-0.008218058074029446	
14.3	-0.604	-0.18331697374140152	
14.305	-0.738	-0.3657064179372439	
14.31	-0.559	-0.49847319023435355	
14.315	-0.234	-0.563853759027303	
14.32	-0.283	-0.5658548496942145	
14.325	-0.269	-0.5077147978617065	
14.33	0.142	-0.40612582095254524	
14.335	0.088	-0.2864848034553307	
14.34	-0.155	-0.17225499525108168	
14.345	0.217	-0.07104738889311636	
14.35	0.415	0.02084419259938218	
14.355	-0.040	0.09700293412604732	
14.36	0.085	0.14641275223686284	
14.365	0.545	0.1803686534110711	
14.37	0.217	0.2130370902427603	
14.375	0.052	0.24204807029021624	
14.38	0.588	0.2650250743205149	
14.385	0.551	0.2986366034805893	
14.39	0.240	0.34358970543126255	
14.395	0.690	0.39595194247821275	
14.4	0.906	0.46199358640202715	
14.405	0.504	0.5359794023598641	
14.41	0.727	0.6063344234668395	
14.415	1.208	0.679424543410819	
14.42	0.870	0.762103776765233	
14.425	0.657	0.8319832828821506	
14.43	1.071	0.8739266088419969	
14.435	0.851	0.8916876397082054	
14.44	0.299	0.8716356103753724	
14.445	0.473	0.8037741205918895	
14.45	0.464	0.6979307878666376	
14.455	-0.116	0.5641808300335736	
14.46	-0.129	0.4102707652216785	
14.465	0.075	0.24920105280185567	
14.47	-0.228	0.10131315773354278	
14.475	-0.356	-0.020830530336746134	
14.48	-0.129	-0.11532778628496787	
14.485	-0.210	-0.18828370829294552	
14.49	-0.391	-0.2380278884672393	
14.495	-0.161	-0.25833982365977687	
14.5	-0.048	-0.25924140507618826	
14.505	-0.306	-0.2485508504403678	
14.51	-0.228	-0.22868272246211496	
14.515	0.020	-0.20606203397811995	
14.52	-0.217	-0.1886014698105607	
14.525	-0.326	-0.17569156413595005	
14.53	-0.069	-0.16953615985369314	
14.535	-0.106	-0.17132658731230246	
14.54	-0.307	-0.17285057182776137	
14.545	-0.132	-0.16743492279842317	
14.55	-0.075	-0.16737639281796374	
14.555	-0.332	-0.17542435962056738	
14.56	-0.303	-0.1856518913161711	
14.565	-0.126	-0.2001883484574886	
14.57	-0.327	-0.2245699301498831	
14.575	-0.433	-0.2466036876076207	
14.58	-0.205	-0.266576900580007	
14.585	-0.252	-0.2873669532584904	
14.59	-0.453	-0.3028159959184106	
14.595	-0.280	-0.3083990747548482	
14.6	-0.202	-0.313395764587185	
14.605	-0.446	-0.32046758940011644	
14.61	-0.370	-0.3226063924010406	
14.615	-0.051	-0.317121729451743	
14.62	-0.107	-0.29463073358435454	
14.625	-0.042	-0.2406065787771754	
14.63	0.408	-0.14843653522292696	
14.635	-0.089	-0.05442230123877947	
14.64	-0.549	-0.017037859066365815	
14.645	-0.562	-0.0633758165211829	
14.65	-0.576	-0.18228630749643618	
14.655	-0.779	-0.3325945933900207	
14.66	-0.636	-0.46263203894372495	
14.665	-0.298	-0.5449050842227308	
14.67	-0.336	-0.5706564434033615	
14.675	-0.333	-0.5347847241662493	
14.68	-0.019	-0.45429238268328187	
14.685	0.052	-0.35630304845594707	
14.69	-0.135	-0.24918045993039284	
14.695	0.258	-0.13524888008212801	
14.7	0.443	-0.020078431640229138	
14.705	0.024	0.0831575368962644	
14.71	0.146	0.15822839583657924	
14.715	0.573	0.21232962804743252	
14.72	0.269	0.25723588070556336	
14.725	0.101	0.2919410541224775	
14.73	0.585	0.3148900499115077	
14.735	0.446	0.3368224466146087	
14.74	0.146	0.35557209382098287	
14.745	0.623	0.3757588615837977	
14.75	0.904	0.41816179801125347	
14.755	0.486	0.48509466374419746	
14.76	0.625	0.5540943695070119	
14.765	1.104	0.622456180779375	
14.77	0.822	0.6953197289770032	
14.775	0.626	0.7628164146407885	
14.78	1.045	0.8098364508344128	
14.785	0.870	0.8389262362041835	
14.79	0.379	0.8385737338088386	
14.795	0.605	0.8005933492916597	
14.8	0.658	0.7351356101409963	
14.805	0.061	0.646231342966078	
14.81	0.020	0.5310188823911408	
14.815	0.255	0.39830171818908355	
14.82	-0.126	0.2644808308965342	
14.825	-0.245	0.14193053581010137	
14.83	0.046	0.04064661585947278	
14.835	-0.071	-0.03701569791110151	
14.84	-0.298	-0.09217341937560927	
14.845	-0.098	-0.12353266088359723	
14.85	0.061	-0.13997834407341797	
14.855	-0.229	-0.14251696417579107	
14.86	-0.171	-0.13396529930696324	
14.865	0.111	-0.12091800403114877	
14.87	-0.165	-0.11040343209638462	
14.875	-0.252	-0.1039566406617135	
14.88	0.035	-0.09956749301020047	
14.885	-0.006	-0.09803048734584781	
14.89	-0.219	-0.0929944297277216	
14.895	-0.049	-0.08264879243647945	
14.9	0.064	-0.07810450319213116	
14.905	-0.243	-0.07936950385785793	
14.91	-0.205	-0.08495713104920496	
14.915	0.012	-0.09606708302183786	
14.92	-0.223	-0.11533529415497326	
14.925	-0.339	-0.1368625387108378	
14.93	-0.116	-0.15766924757411047	
14.935	-0.191	-0.18405942720749408	
14.94	-0.384	-0.20890531829046063	
14.945	-0.194	-0.22265918062758686	
14.95	-0.116	-0.23214696313486133	
14.955	-0.388	-0.24334383850561656	
14.96	-0.367	-0.25193910802594155	
14.965	-0.092	-0.2600639783771082	
14.97	-0.148	-0.262338815988044	
14.975	-0.072	-0.23284633096276688	
14.98	0.461	-0.15657622240701952	
14.985	0.227	-0.0500517989242517	
14.99	-0.318	0.033939652828440345	
14.995	-0.359	0.04628920911813377	
15.0	-0.426	-0.026091440391869832	
15.005	-0.715	-0.1574195619190542	
15.01	-0.665	-0.2989725589792822	
15.015	-0.381	-0.42092224823704455	
15.02	-0.417	-0.5003348918826565	
15.025	-0.419	-0.5199526656513116	
15.03	-0.092	-0.48449608273428546	
15.035	-0.080	-0.4190002962727809	
15.04	-0.217	-0.3361402131333755	
15.045	0.087	-0.24056556733359027	
15.05	0.292	-0.13992980464236246	
15.055	-0.098	-0.0496093565779603	
15.06	-0.057	0.014946780193410236	
15.065	0.337	0.0562595421164109	
15.07	0.082	0.08455064869630977	
15.075	-0.075	0.10482626575284167	
15.08	0.397	0.12266015290310066	
15.085	0.356	0.1480901107954496	
15.09	0.072	0.18265434317872922	
15.095	0.513	0.22545813846413776	
15.1	0.741	0.2872590645274112	
15.105	0.327	0.36030866113555354	
15.11	0.426	0.4228457974962802	
15.115	0.834	0.47438599897201456	
15.12	0.571	0.5215951785479379	
15.125	0.383	0.560705990436045	
15.13	0.828	0.5876462371636593	
15.135	0.719	0.6101811533813217	
15.14	0.266	0.6196238289456268	
15.145	0.527	0.605329136186473	
15.15	0.596	0.5722701787334543	
15.155	-0.008	0.5174100691789598	
15.16	-0.042	0.4297593700870356	
15.165	0.226	0.3192782115090092	
15.17	-0.159	0.20375173551710205	
15.175	-0.283	0.09477601338385142	
15.18	-0.009	0.0014621480833449897	
15.185	-0.100	-0.07275116243501376	
15.19	-0.361	-0.12815903010135918	
15.195	-0.174	-0.16381379130434917	
15.2	-0.005	-0.18682152084658338	
15.205	-0.258	-0.19633236407141208	
15.21	-0.208	-0.18823052519282318	
15.215	0.070	-0.17192645297327036	
15.22	-0.188	-0.15713145718090182	
15.225	-0.309	-0.14712448664647454	
15.23	-0.025	-0.14173512954535367	
15.235	-0.058	-0.14175950197896448	
15.24	-0.278	-0.14000387310573376	
15.245	-0.112	-0.1349154191919727	
15.25	0.070	-0.12891873622273525	
15.255	-0.246	-0.12420757294835783	
15.26	-0.245	-0.12024167216453902	
15.265	-0.069	-0.1280587278898852	
15.27	-0.263	-0.15006857183039896	
15.275	-0.358	-0.17504114358837183	
15.28	-0.116	-0.19481251427479523	
15.285	-0.199	-0.213780488073542	
15.29	-0.417	-0.23193848876020312	
15.295	-0.245	-0.24492790370184153	
15.3	-0.135	-0.2559520108356698	
15.305	-0.378	-0.2671915812096648	
15.31	-0.362	-0.2712211183760179	
15.315	-0.144	-0.2750399960759209	
15.32	-0.252	-0.28108380997589927	
15.325	-0.197	-0.2690520625756815	
15.33	0.423	-0.21171344490519695	
15.335	0.272	-0.11173551958577344	
15.34	-0.286	-0.016084146956222057	
15.345	-0.324	0.01799875043206136	
15.35	-0.417	-0.03389279444760197	
15.355	-0.753	-0.1522600442668297	
15.36	-0.717	-0.2952904331794133	
15.365	-0.420	-0.424906446912903	
15.37	-0.465	-0.5170245390314039	
15.375	-0.468	-0.5481554126799096	
15.38	-0.150	-0.5226874968721602	
15.385	-0.107	-0.4636725243429144	
15.39	-0.280	-0.38413761241757105	
15.395	-0.032	-0.29390246756779675	
15.4	0.211	-0.2027382451608865	
15.405	-0.158	-0.12238527966173579	
15.41	-0.100	-0.060370377607316825	
15.415	0.288	-0.015762110084471228	
15.42	-0.043	0.01588325872314096	
15.425	-0.168	0.03263374996908634	
15.43	0.266	0.041430797408765374	
15.435	0.255	0.05642363549432934	
15.44	-0.026	0.08268765468347493	
15.445	0.391	0.12110523688600561	
15.45	0.625	0.17844278952887696	
15.455	0.194	0.24655070484184027	
15.46	0.270	0.3035102381374378	
15.465	0.748	0.35034917526924547	
15.47	0.519	0.3999652016216182	
15.475	0.310	0.44953191493943234	
15.48	0.808	0.4933904008550598	
15.485	0.761	0.5375168056151542	
15.49	0.275	0.5746851505803607	
15.495	0.505	0.5839567567011288	
15.5	0.537	0.5624112853971833	
15.505	-0.084	0.5056700536349678	
15.51	-0.028	0.40945590475269966	
15.515	0.354	0.3022172351542854	
15.52	-0.057	0.21012414595684634	
15.525	-0.248	0.12662961526671185	
15.53	-0.006	0.04914933087553636	
15.535	-0.090	-0.02344620542681353	
15.54	-0.344	-0.08602860094919627	
15.545	-0.197	-0.13220305651114872	
15.55	-0.083	-0.17073540450392982	
15.555	-0.335	-0.20199710818825842	
15.56	-0.323	-0.22052137730921006	
15.565	-0.112	-0.2331006966561941	
15.57	-0.243	-0.24573162976444557	
15.575	-0.350	-0.24816395042804967	
15.58	-0.118	-0.2410875031161481	
15.585	-0.126	-0.23550333655299105	
15.59	-0.304	-0.22580821746145946	
15.595	-0.116	-0.20627751954670287	
15.6	-0.002	-0.18488537712498587	
15.605	-0.258	-0.1688800509114048	
15.61	-0.249	-0.15748502360309297	
15.615	-0.063	-0.15422529140053745	
15.62	-0.283	-0.16671938566426442	
15.625	-0.387	-0.18710708663517223	
15.63	-0.174	-0.20813056443408517	
15.635	-0.237	-0.23351683797633022	
15.64	-0.446	-0.25979211656707657	
15.645	-0.287	-0.2772826472712765	
15.65	-0.196	-0.29286460778702017	
15.655	-0.442	-0.30989696661723387	
15.66	-0.414	-0.32050462906756916	
15.665	-0.216	-0.33014663728179905	
15.67	-0.317	-0.3397252724452293	
15.675	-0.292	-0.3321810750826165	
15.68	0.314	-0.2829959167984818	
15.685	0.424	-0.18041315417195222	
15.69	-0.138	-0.054964358181644274	
15.695	-0.219	0.02564184187663553	
15.7	-0.347	0.016202915050866195	
15.705	-0.705	-0.07700723923173669	
15.71	-0.747	-0.21556813370272263	
15.715	-0.500	-0.36200572917050006	
15.72	-0.530	-0.485725622860647	
15.725	-0.524	-0.5502499456593457	
15.73	-0.223	-0.5528951567943703	
15.735	-0.193	-0.5144447512824788	
15.74	-0.309	-0.4490801435003742	
15.745	-0.025	-0.36013202721725823	
15.75	0.240	-0.25662003768950736	
15.755	-0.132	-0.15523516547224175	
15.76	-0.080	-0.07258098152196432	
15.765	0.342	-0.009770514910999171	
15.77	0.067	0.0400863478563801	
15.775	-0.113	0.07651200157690718	
15.78	0.295	0.0983148416465382	
15.785	0.238	0.11459103294117504	
15.79	-0.097	0.12565832586636055	
15.795	0.369	0.14095587773989016	
15.8	0.699	0.18258169931629098	
15.805	0.316	0.252627865466195	
15.81	0.432	0.331359698267917	
15.815	0.922	0.41239799701562896	
15.82	0.643	0.49807512307931917	
15.825	0.446	0.5723934507659976	
15.83	0.900	0.627355937104654	
15.835	0.845	0.6716556082551706	
15.84	0.402	0.7016145418977546	
15.845	0.618	0.7048702754045533	
15.85	0.672	0.6805475286582869	
15.855	0.169	0.629672229517912	
15.86	0.142	0.5503373414278608	
15.865	0.420	0.4573043293615785	
15.87	-0.022	0.35714357116090345	
15.875	-0.216	0.25148196547485296	
15.88	0.072	0.14824308101801784	
15.885	-0.058	0.054662200075000764	
15.89	-0.324	-0.025213299496828982	
15.895	-0.173	-0.08718772478950147	
15.9	-0.068	-0.13753162183441686	
15.905	-0.324	-0.17815384929976646	
15.91	-0.295	-0.20263514889077597	
15.915	-0.019	-0.21383754981142386	
15.92	-0.179	-0.21676987103367373	
15.925	-0.292	-0.207420380289267	
15.93	0.001	-0.18787793570288713	
15.935	-0.048	-0.16836259110999613	
15.94	-0.265	-0.15012791990371	
15.945	-0.058	-0.1302374872574774	
15.95	0.134	-0.10957943979715	
15.955	-0.229	-0.09110621399285967	
15.96	-0.236	-0.08266409244047274	
15.965	0.050	-0.08689545592059933	
15.97	-0.188	-0.10073518148434876	
15.975	-0.327	-0.1174130649965148	
15.98	-0.133	-0.1369294800246827	
15.985	-0.220	-0.168353682315026	
15.99	-0.428	-0.20510021529133124	
15.995	-0.228	-0.23224842799537587	
16.0	-0.104	-0.2505717211022125	
16.005	-0.362	-0.26109923188675127	
16.01	-0.332	-0.26365984320294733	
16.015	-0.095	-0.2608527148324251	
16.02	-0.284	-0.26175524694196095	
16.025	-0.333	-0.25846589312252466	
16.03	0.172	-0.2328288801170488	
16.035	0.388	-0.16826323687247402	
16.04	0.017	-0.06719968359119678	
16.045	0.052	0.02970678919913183	
16.05	-0.168	0.06845614698384399	
16.055	-0.602	0.021767528657266017	
16.06	-0.711	-0.0927318562774952	
16.065	-0.535	-0.2427180985835318	
16.07	-0.611	-0.3957681819529526	
16.075	-0.630	-0.5065497713222511	
16.08	-0.265	-0.5536721247186027	
16.085	-0.156	-0.544239217320468	
16.09	-0.278	-0.4853977783776318	
16.095	0.020	-0.3861285059852686	
16.1	0.322	-0.26328049065410347	
16.105	-0.074	-0.13943864754741492	
16.11	-0.058	-0.03881433446629798	
16.115	0.351	0.032564322453787216	
16.12	0.127	0.08310949112966248	
16.125	-0.049	0.120152826164207	
16.13	0.479	0.1525250582398185	
16.135	0.447	0.19285619608676616	
16.14	0.044	0.23629533857731316	
16.145	0.427	0.27189009966699645	
16.15	0.742	0.31295341511924757	
16.155	0.360	0.3674406562286311	
16.16	0.441	0.42409331870083156	
16.165	0.950	0.4817505230501535	
16.17	0.745	0.5501305691393614	
16.175	0.571	0.6220271055874123	
16.18	1.020	0.6905585106393006	
16.185	0.962	0.7519064866663855	
16.19	0.537	0.7962393212111047	
16.195	0.875	0.8198565074579005	
16.2	1.055	0.8329716837556598	
16.205	0.463	0.8314450659756181	
16.21	0.351	0.7950340928915134	
16.215	0.623	0.7196838888988537	
16.22	0.226	0.6201803554070585	
16.225	-0.092	0.5030638793936986	
16.23	0.235	0.3784558019744242	
16.235	0.068	0.2589340419370231	
16.24	-0.246	0.1514034754419374	
16.245	-0.116	0.05878274275769726	
16.25	-0.014	-0.02213855788015528	
16.255	-0.280	-0.08936640290660733	
16.26	-0.223	-0.13387454351304692	
16.265	0.124	-0.15146127704154144	
16.27	-0.138	-0.1517527155267933	
16.275	-0.255	-0.14079911663668282	
16.28	0.085	-0.12267247672591869	
16.285	0.044	-0.10211645628526167	
16.29	-0.246	-0.08346931804618136	
16.295	-0.060	-0.06928186012568915	
16.3	0.136	-0.061240619437732464	
16.305	-0.210	-0.05826600995781442	
16.31	-0.184	-0.05888354752160696	
16.315	0.171	-0.05959570282052815	
16.32	-0.101	-0.05968295213752433	
16.325	-0.284	-0.06272805058332842	
16.33	-0.072	-0.07381086979227888	
16.335	-0.113	-0.10012799284100891	
16.34	-0.359	-0.1313358732642884	
16.345	-0.226	-0.1583341028550077	
16.35	-0.122	-0.1863219801843352	
16.355	-0.338	-0.21617250083246323	
16.36	-0.317	-0.23284621939312333	
16.365	-0.103	-0.24066664463067253	
16.37	-0.306	-0.25168794355733903	
16.375	-0.370	-0.25968536119008445	
16.38	0.000	-0.2507687071190027	
16.385	0.236	-0.21610901936696825	
16.39	0.096	-0.13935554706460362	
16.395	0.406	-0.024282822742434505	
16.4	0.307	0.091711545260882	
16.405	-0.390	0.1476492458337081	
16.41	-0.617	0.1070291120105767	
16.415	-0.530	-0.024553474382405804	
16.42	-0.680	-0.20769735991790658	
16.425	-0.718	-0.3777951409169554	
16.43	-0.385	-0.49461785464637537	
16.435	-0.306	-0.5530215325032137	
16.44	-0.398	-0.5505589079462887	
16.445	-0.142	-0.4922298489991047	
16.45	0.227	-0.39503785667490005	
16.455	-0.057	-0.274448118439727	
16.46	0.030	-0.14900710873547893	
16.465	0.469	-0.031274566425284846	
16.47	0.208	0.07321636081725165	
16.475	-0.013	0.15290983004102265	
16.48	0.457	0.2055275473786293	
16.485	0.424	0.24606351638107826	
16.49	0.049	0.2751505492436904	
16.495	0.440	0.2977679708259954	
16.5	0.693	0.32718015549260004	
16.505	0.296	0.36542238595555293	
16.51	0.420	0.4058638322485586	
16.515	0.930	0.45292063648895176	
16.52	0.675	0.5152784065967841	
16.525	0.542	0.5817562753721801	
16.53	1.126	0.6535746575200135	
16.535	1.161	0.7412193021086579	
16.54	0.727	0.8330761371628697	
16.545	0.991	0.9046290297258978	
16.55	1.159	0.9502452866659761	
16.555	0.625	0.965491996467892	
16.56	0.507	0.9387153730685611	
16.565	0.806	0.8728255415986566	
16.57	0.379	0.7804231064234318	
16.575	-0.003	0.6637620443403766	
16.58	0.285	0.5273667457190224	
16.585	0.127	0.3862809719946655	
16.59	-0.236	0.25228086588959686	
16.595	-0.095	0.13249980815075962	
16.6	0.055	0.031163900373132113	
16.605	-0.239	-0.047239931358547885	
16.61	-0.251	-0.09925044171024258	
16.615	0.020	-0.13238037744978265	
16.62	-0.170	-0.15543550721940355	
16.625	-0.315	-0.16606678262298025	
16.63	-0.081	-0.16882541364571402	
16.635	-0.075	-0.17376484217345012	
16.64	-0.286	-0.17452840722385699	
16.645	-0.122	-0.16556817493122777	
16.65	0.087	-0.1519829859140513	
16.655	-0.228	-0.13814050509221856	
16.66	-0.202	-0.12321358833988352	
16.665	0.215	-0.10550149664555764	
16.67	-0.048	-0.08141002739021723	
16.675	-0.219	-0.05899187292798004	
16.68	-0.008	-0.04691532425702527	
16.685	-0.112	-0.05681196132941792	
16.69	-0.359	-0.08645478259456674	
16.695	-0.225	-0.11959056930798558	
16.7	-0.100	-0.1570410838167306	
16.705	-0.346	-0.19509079211233077	
16.71	-0.327	-0.2201813865085344	
16.715	-0.074	-0.23453504512039844	
16.72	-0.249	-0.24442306958163554	
16.725	-0.394	-0.24797337224193364	
16.73	-0.171	-0.2468691160463578	
16.735	-0.155	-0.2508092247264522	
16.74	-0.265	-0.24850413965600732	
16.745	0.340	-0.2034980168511495	
16.75	0.768	-0.08989859153874855	
16.755	0.108	0.06079775318231931	
16.76	-0.258	0.16564030187018025	
16.765	-0.327	0.16048397957859617	
16.77	-0.616	0.04456305351718973	
16.775	-0.772	-0.12707780945127484	
16.78	-0.527	-0.29979421366566755	
16.785	-0.442	-0.44269309221207864	
16.79	-0.523	-0.5275687965984692	
16.795	-0.271	-0.5395163118775099	
16.8	0.035	-0.4948413978751808	
16.805	-0.155	-0.41025659042920426	
16.81	-0.084	-0.30127837771625915	
16.815	0.363	-0.18227942916051668	
16.82	0.139	-0.06750144748106365	
16.825	0.009	0.03176087778711603	
16.83	0.484	0.1173572572490806	
16.835	0.487	0.19632590093526422	
16.84	0.116	0.2641580979645237	
16.845	0.423	0.3154891879003402	
16.85	0.698	0.35731713254972686	
16.855	0.336	0.3985940451520259	
16.86	0.420	0.4366224151059885	
16.865	0.936	0.479898251773148	
16.87	0.768	0.5405259068567803	
16.875	0.612	0.6136413806493615	
16.88	1.126	0.6934160800814052	
16.885	1.185	0.7824097909015914	
16.89	0.823	0.8730986893414036	
16.895	1.162	0.9544576641155608	
16.9	1.390	1.0273629646672822	
16.905	0.898	1.0835952582971058	
16.91	0.788	1.1035466881515354	
16.915	1.058	1.0808353529635513	
16.92	0.617	1.018553227772833	
16.925	0.131	0.9126346432450312	
16.93	0.490	0.7683012138576872	
16.935	0.354	0.6144339693153174	
16.94	-0.129	0.46724678412592136	
16.945	-0.013	0.32537152277574044	
16.95	0.105	0.1932534937995987	
16.955	-0.257	0.07681090248599622	
16.96	-0.257	-0.016360029808330182	
16.965	-0.003	-0.0873585434338459	
16.97	-0.194	-0.14134361613775018	
16.975	-0.303	-0.17212014217194016	
16.98	-0.028	-0.18185457818938883	
16.985	-0.066	-0.18068752599383853	
16.99	-0.272	-0.1745408008509453	
16.995	-0.072	-0.15763207793316558	
17.0	0.130	-0.13393589954038085	
17.005	-0.190	-0.11010331172200016	
17.01	-0.155	-0.08828149785838058	
17.015	0.192	-0.06851145829156756	
17.02	-0.071	-0.05135050386030308	
17.025	-0.243	-0.04202358795284898	
17.03	0.061	-0.03995568404889013	
17.035	0.007	-0.044735200486362606	
17.04	-0.278	-0.05642825539227179	
17.045	-0.155	-0.07068339296822218	
17.05	-0.054	-0.09503525419279973	
17.055	-0.342	-0.13000684313671737	
17.06	-0.346	-0.1642484106609131	
17.065	-0.057	-0.19460736540340542	
17.07	-0.211	-0.21730608516188468	
17.075	-0.341	-0.22493865011728045	
17.08	-0.132	-0.2220080399171665	
17.085	-0.168	-0.22377185599952695	
17.09	-0.388	-0.23038375054365057	
17.095	-0.153	-0.22865433986863837	
17.1	0.330	-0.20302235574528127	
17.105	0.252	-0.13097609372779775	
17.11	0.304	-0.010203925129630519	
17.115	0.362	0.11437045736550541	
17.12	-0.287	0.17554151689818498	
17.125	-0.648	0.13496099697984743	
17.13	-0.576	0.003060392027134276	
17.135	-0.610	-0.1827720935773111	
17.14	-0.744	-0.3644590120518212	
17.145	-0.453	-0.4915301410856955	
17.15	-0.168	-0.547918256450417	
17.155	-0.281	-0.5361477611374007	
17.16	-0.170	-0.4652184958626192	
17.165	0.325	-0.3503738005202681	
17.17	0.124	-0.21445883442853422	
17.175	-0.074	-0.08415664210278796	
17.18	0.374	0.024246978580317446	
17.185	0.357	0.11228740043161571	
17.19	-0.028	0.17527479782342134	
17.195	0.305	0.21644417302259467	
17.2	0.600	0.25023051442007727	
17.205	0.165	0.2847027447458754	
17.21	0.230	0.31163361545508794	
17.215	0.750	0.3377643390674522	
17.22	0.537	0.3795991989881237	
17.225	0.322	0.4297338547650894	
17.23	0.881	0.48426939138048586	
17.235	0.945	0.5524098913040698	
17.24	0.563	0.6292737502634855	
17.245	0.884	0.7013525832361678	
17.25	1.159	0.7682415688647366	
17.255	0.776	0.8298012617745388	
17.26	0.765	0.8755819182514863	
17.265	1.107	0.9016305926976946	
17.27	0.706	0.9046710685288781	
17.275	0.351	0.8727911352814925	
17.28	0.667	0.804080091511348	
17.285	0.461	0.7123920936390888	
17.29	-0.092	0.5974594326595078	
17.295	0.004	0.4572226301437514	
17.3	0.156	0.3060934759859586	
17.305	-0.226	0.16706782830986755	
17.31	-0.263	0.05064683445017124	
