Vernier Format 2
ecg4.txt 10/18/2025 9:1:21
Run 1
Time	Potential	EKG	
T	P	E	
s	mV	mV	

0.000	-0.265	-0.012	
0.005	-0.174	-0.048	
0.010	0.087	-0.082	
0.015	-0.216	-0.093	
0.020	-0.280	-0.110	
0.025	0.075	-0.131	
0.030	-0.110	-0.128	
0.035	-0.306	-0.123	
0.040	-0.083	-0.136	
0.045	-0.045	-0.141	
0.050	-0.339	-0.141	
0.055	-0.268	-0.160	
0.060	-0.087	-0.185	
0.065	-0.312	-0.198	
0.070	-0.368	-0.217	
0.075	-0.121	-0.241	
0.080	-0.220	-0.246	
0.085	-0.398	-0.248	
0.090	-0.176	-0.258	
0.095	-0.032	-0.251	
0.100	-0.196	-0.222	
0.105	0.218	-0.176	
0.110	0.599	-0.082	
0.115	-0.113	0.039	
0.120	-0.459	0.088	
0.125	-0.408	0.029	
0.130	-0.596	-0.092	
0.135	-0.775	-0.244	
0.140	-0.558	-0.398	
0.145	-0.398	-0.506	
0.150	-0.462	-0.550	
0.155	-0.263	-0.543	
0.160	0.125	-0.479	
0.165	-0.115	-0.365	
0.170	-0.136	-0.253	
0.175	0.337	-0.153	
0.180	0.183	-0.043	
0.185	-0.058	0.049	
0.190	0.403	0.107	
0.195	0.560	0.176	
0.200	0.111	0.253	
0.205	0.299	0.294	
0.210	0.638	0.322	
0.215	0.311	0.364	
0.220	0.293	0.389	
0.225	0.834	0.409	
0.230	0.724	0.467	
0.235	0.394	0.533	
0.240	0.759	0.572	
0.245	0.907	0.616	
0.250	0.632	0.671	
0.255	0.849	0.714	
0.260	1.233	0.768	
0.265	0.794	0.842	
0.270	0.528	0.878	
0.275	0.878	0.859	
0.280	0.544	0.822	
0.285	0.030	0.744	
0.290	0.342	0.612	
0.295	0.368	0.484	
0.300	-0.121	0.376	
0.305	-0.045	0.257	
0.310	0.258	0.154	
0.315	-0.106	0.091	
0.320	-0.184	0.037	
0.325	0.186	-0.009	
0.330	-0.008	-0.022	
0.335	-0.228	-0.027	
0.340	0.062	-0.043	
0.345	0.252	-0.036	
0.350	-0.153	-0.007	
0.355	-0.069	0.003	
0.360	0.198	0.003	
0.365	-0.182	0.009	
0.370	-0.225	-0.007	
0.375	0.127	-0.038	
0.380	-0.104	-0.049	
0.385	-0.317	-0.064	
0.390	-0.089	-0.098	
0.395	-0.009	-0.119	
0.400	-0.323	-0.128	
0.405	-0.237	-0.150	
0.410	-0.013	-0.170	
0.415	-0.242	-0.172	
0.420	-0.266	-0.176	
0.425	0.195	-0.173	
0.430	0.308	-0.119	
0.435	-0.019	-0.034	
0.440	0.093	0.031	
0.445	-0.103	0.060	
0.450	-0.529	0.034	
0.455	-0.593	-0.066	
0.460	-0.488	-0.205	
0.465	-0.585	-0.335	
0.470	-0.538	-0.438	
0.475	-0.213	-0.494	
0.480	-0.217	-0.485	
0.485	-0.342	-0.437	
0.490	-0.089	-0.378	
0.495	0.110	-0.299	
0.500	-0.187	-0.207	
0.505	-0.026	-0.137	
0.510	0.403	-0.070	
0.515	0.055	0.015	
0.520	-0.077	0.074	
0.525	0.392	0.103	
0.530	0.255	0.142	
0.535	-0.060	0.174	
0.540	0.391	0.182	
0.545	0.550	0.211	
0.550	0.090	0.259	
0.555	0.227	0.279	
0.560	0.667	0.293	
0.565	0.386	0.336	
0.570	0.325	0.377	
0.575	0.843	0.414	
0.580	0.637	0.478	
0.585	0.211	0.528	
0.590	0.608	0.533	
0.595	0.702	0.535	
0.600	0.149	0.537	
0.605	0.197	0.494	
0.610	0.435	0.427	
0.615	-0.026	0.363	
0.620	-0.162	0.275	
0.625	0.156	0.172	
0.630	-0.038	0.095	
0.635	-0.300	0.029	
0.640	-0.068	-0.041	
0.645	0.133	-0.082	
0.650	-0.234	-0.089	
0.655	-0.165	-0.099	
0.660	0.087	-0.107	
0.665	-0.196	-0.101	
0.670	-0.263	-0.105	
0.675	0.033	-0.119	
0.680	-0.113	-0.119	
0.685	-0.295	-0.119	
0.690	-0.064	-0.133	
0.695	-0.022	-0.135	
0.700	-0.309	-0.131	
0.705	-0.254	-0.146	
0.710	-0.046	-0.166	
0.715	-0.295	-0.175	
0.720	-0.398	-0.195	
0.725	-0.138	-0.225	
0.730	-0.208	-0.239	
0.735	-0.411	-0.247	
0.740	-0.217	-0.262	
0.745	-0.107	-0.265	
0.750	-0.277	-0.251	
0.755	-0.061	-0.231	
0.760	0.473	-0.175	
0.765	-0.058	-0.077	
0.770	-0.359	-0.015	
0.775	-0.301	-0.031	
0.780	-0.515	-0.102	
0.785	-0.734	-0.213	
0.790	-0.530	-0.344	
0.795	-0.402	-0.447	
0.800	-0.569	-0.502	
0.805	-0.393	-0.526	
0.810	-0.104	-0.508	
0.815	-0.260	-0.445	
0.820	-0.268	-0.373	
0.825	0.172	-0.298	
0.830	0.099	-0.198	
0.835	-0.194	-0.104	
0.840	0.105	-0.047	
0.845	0.269	0.003	
0.850	-0.138	0.050	
0.855	-0.064	0.061	
0.860	0.272	0.055	
0.865	-0.032	0.063	
0.870	-0.052	0.062	
0.875	0.476	0.066	
0.880	0.336	0.113	
0.885	-0.016	0.167	
0.890	0.431	0.197	
0.895	0.693	0.246	
0.900	0.321	0.324	
0.905	0.441	0.384	
0.910	0.774	0.434	
0.915	0.330	0.486	
0.920	0.065	0.490	
0.925	0.537	0.448	
0.930	0.325	0.413	
0.935	-0.132	0.368	
0.940	0.049	0.283	
0.945	0.084	0.191	
0.950	-0.240	0.110	
0.955	-0.161	0.024	
0.960	0.082	-0.045	
0.965	-0.184	-0.079	
0.970	-0.268	-0.106	
0.975	0.104	-0.129	
0.980	0.004	-0.119	
0.985	-0.272	-0.099	
0.990	-0.071	-0.099	
0.995	0.044	-0.098	
1.000	-0.248	-0.090	
1.005	-0.193	-0.099	
1.010	0.070	-0.111	
1.015	-0.203	-0.109	
1.020	-0.318	-0.117	
1.025	-0.014	-0.140	
1.030	-0.142	-0.147	
1.035	-0.382	-0.155	
1.040	-0.193	-0.181	
1.045	-0.100	-0.201	
1.050	-0.362	-0.208	
1.055	-0.307	-0.225	
1.060	-0.095	-0.242	
1.065	-0.327	-0.243	
1.070	-0.388	-0.252	
1.075	0.013	-0.260	
1.080	0.156	-0.225	
1.085	-0.072	-0.155	
1.090	0.229	-0.081	
1.095	0.137	-0.005	
1.100	-0.391	0.038	
1.105	-0.497	-0.000	
1.110	-0.417	-0.102	
1.115	-0.624	-0.224	
1.120	-0.671	-0.350	
1.125	-0.411	-0.457	
1.130	-0.304	-0.508	
1.135	-0.371	-0.504	
1.140	-0.092	-0.461	
1.145	0.087	-0.377	
1.150	-0.242	-0.273	
1.155	-0.165	-0.198	
1.160	0.198	-0.141	
1.165	-0.103	-0.082	
1.170	-0.188	-0.046	
1.175	0.178	-0.034	
1.180	0.050	-0.012	
1.185	-0.179	0.006	
1.190	0.166	0.007	
1.195	0.472	0.035	
1.200	0.070	0.097	
1.205	0.230	0.148	
1.210	0.690	0.202	
1.215	0.339	0.282	
1.220	0.157	0.339	
1.225	0.750	0.369	
1.230	0.698	0.425	
1.235	0.305	0.487	
1.240	0.652	0.518	
1.245	0.754	0.547	
1.250	0.191	0.568	
1.255	0.140	0.533	
1.260	0.383	0.457	
1.265	-0.032	0.375	
1.270	-0.197	0.272	
1.275	0.101	0.155	
1.280	-0.074	0.066	
1.285	-0.271	-0.004	
1.290	-0.032	-0.068	
1.295	0.101	-0.098	
1.300	-0.245	-0.098	
1.305	-0.208	-0.107	
1.310	0.061	-0.120	
1.315	-0.159	-0.115	
1.320	-0.231	-0.114	
1.325	0.088	-0.117	
1.330	-0.052	-0.102	
1.335	-0.271	-0.089	
1.340	-0.051	-0.096	
1.345	0.064	-0.096	
1.350	-0.271	-0.087	
1.355	-0.266	-0.101	
1.360	-0.097	-0.131	
1.365	-0.280	-0.155	
1.370	-0.368	-0.186	
1.375	-0.145	-0.220	
1.380	-0.208	-0.237	
1.385	-0.370	-0.244	
1.390	-0.167	-0.254	
1.395	-0.113	-0.250	
1.400	-0.353	-0.236	
1.405	-0.162	-0.231	
1.410	0.473	-0.195	
1.415	0.229	-0.095	
1.420	-0.097	0.010	
1.425	-0.090	0.058	
1.430	-0.404	0.039	
1.435	-0.714	-0.052	
1.440	-0.579	-0.198	
1.445	-0.480	-0.342	
1.450	-0.622	-0.449	
1.455	-0.462	-0.520	
1.460	-0.152	-0.537	
1.465	-0.281	-0.495	
1.470	-0.284	-0.429	
1.475	0.165	-0.349	
1.480	0.081	-0.239	
1.485	-0.194	-0.135	
1.490	0.177	-0.065	
1.495	0.368	0.006	
1.500	-0.068	0.078	
1.505	0.039	0.112	
1.510	0.389	0.127	
1.515	0.139	0.155	
1.520	0.065	0.174	
1.525	0.580	0.190	
1.530	0.537	0.244	
1.535	0.185	0.311	
1.540	0.615	0.357	
1.545	0.793	0.415	
1.550	0.368	0.486	
1.555	0.567	0.527	
1.560	1.005	0.566	
1.565	0.652	0.630	
1.570	0.460	0.673	
1.575	0.846	0.681	
1.580	0.588	0.686	
1.585	0.030	0.656	
1.590	0.348	0.567	
1.595	0.408	0.470	
1.600	-0.135	0.384	
1.605	-0.086	0.273	
1.610	0.267	0.166	
1.615	-0.092	0.099	
1.620	-0.213	0.042	
1.625	0.169	-0.010	
1.630	0.068	-0.024	
1.635	-0.237	-0.024	
1.640	-0.049	-0.040	
1.645	0.058	-0.054	
1.650	-0.222	-0.058	
1.655	-0.147	-0.073	
1.660	0.145	-0.085	
1.665	-0.106	-0.073	
1.670	-0.211	-0.067	
1.675	0.049	-0.073	
1.680	-0.119	-0.074	
1.685	-0.341	-0.085	
1.690	-0.187	-0.120	
1.695	-0.077	-0.152	
1.700	-0.326	-0.170	
1.705	-0.301	-0.195	
1.710	-0.063	-0.217	
1.715	-0.242	-0.219	
1.720	-0.327	-0.220	
1.725	-0.063	-0.224	
1.730	-0.043	-0.207	
1.735	-0.152	-0.175	
1.740	0.377	-0.125	
1.745	0.580	-0.023	
1.750	-0.153	0.095	
1.755	-0.367	0.132	
1.760	-0.375	0.067	
1.765	-0.645	-0.058	
1.770	-0.734	-0.220	
1.775	-0.448	-0.377	
1.780	-0.391	-0.478	
1.785	-0.494	-0.519	
1.790	-0.219	-0.517	
1.795	0.064	-0.461	
1.800	-0.200	-0.361	
1.805	-0.090	-0.266	
1.810	0.383	-0.169	
1.815	0.104	-0.055	
1.820	-0.031	0.037	
1.825	0.397	0.096	
1.830	0.321	0.157	
1.835	-0.006	0.206	
1.840	0.343	0.222	
1.845	0.609	0.248	
1.850	0.229	0.298	
1.855	0.380	0.334	
1.860	0.794	0.373	
1.865	0.484	0.436	
1.870	0.385	0.486	
1.875	0.906	0.520	
1.880	0.866	0.582	
1.885	0.498	0.650	
1.890	0.825	0.687	
1.895	1.002	0.724	
1.900	0.499	0.762	
1.905	0.522	0.757	
1.910	0.793	0.722	
1.915	0.339	0.685	
1.920	0.030	0.609	
1.925	0.405	0.497	
1.930	0.211	0.398	
1.935	-0.196	0.305	
1.940	-0.042	0.193	
1.945	0.104	0.094	
1.950	-0.197	0.027	
1.955	-0.148	-0.032	
1.960	0.180	-0.069	
1.965	-0.122	-0.071	
1.970	-0.203	-0.071	
1.975	0.181	-0.074	
1.980	0.068	-0.051	
1.985	-0.210	-0.026	
1.990	-0.006	-0.025	
1.995	0.122	-0.024	
2.000	-0.257	-0.021	
2.005	-0.283	-0.046	
2.010	-0.066	-0.091	
2.015	-0.242	-0.127	
2.020	-0.332	-0.162	
2.025	-0.100	-0.195	
2.030	-0.217	-0.210	
2.035	-0.408	-0.222	
2.040	-0.177	-0.243	
2.045	-0.040	-0.246	
2.050	-0.320	-0.228	
2.055	-0.277	-0.221	
2.060	0.171	-0.210	
2.065	0.149	-0.155	
2.070	0.088	-0.074	
2.075	0.382	0.012	
2.080	-0.121	0.086	
2.085	-0.587	0.086	
2.090	-0.590	-0.017	
2.095	-0.579	-0.173	
2.100	-0.798	-0.335	
2.105	-0.674	-0.484	
2.110	-0.320	-0.582	
2.115	-0.338	-0.599	
2.120	-0.310	-0.557	
2.125	0.148	-0.471	
2.130	0.172	-0.334	
2.135	-0.142	-0.189	
2.140	0.191	-0.080	
2.145	0.414	0.019	
2.150	-0.016	0.111	
2.155	0.061	0.156	
2.160	0.440	0.174	
2.165	0.206	0.204	
2.170	0.079	0.224	
2.175	0.582	0.236	
2.180	0.496	0.279	
2.185	0.160	0.328	
2.190	0.559	0.356	
2.195	0.915	0.404	
2.200	0.551	0.490	
2.205	0.706	0.567	
2.210	1.146	0.643	
2.215	0.829	0.739	
2.220	0.612	0.807	
2.225	1.014	0.833	
2.230	0.802	0.851	
2.235	0.305	0.838	
2.240	0.522	0.766	
2.245	0.550	0.677	
2.250	-0.029	0.582	
2.255	-0.014	0.449	
2.260	0.339	0.314	
2.265	-0.061	0.218	
2.270	-0.217	0.130	
2.275	0.079	0.044	
2.280	-0.031	-0.011	
2.285	-0.292	-0.049	
2.290	-0.101	-0.091	
2.295	0.035	-0.116	
2.300	-0.266	-0.121	
2.305	-0.200	-0.133	
2.310	0.130	-0.139	
2.315	-0.159	-0.121	
2.320	-0.301	-0.113	
2.325	0.030	-0.121	
2.330	-0.005	-0.115	
2.335	-0.297	-0.103	
2.340	-0.167	-0.113	
2.345	-0.100	-0.131	
2.350	-0.355	-0.149	
2.355	-0.329	-0.183	
2.360	-0.109	-0.217	
2.365	-0.294	-0.233	
2.370	-0.404	-0.248	
2.375	-0.190	-0.270	
2.380	-0.252	-0.278	
2.385	-0.428	-0.283	
2.390	-0.124	-0.290	
2.395	0.347	-0.255	
2.400	0.026	-0.163	
2.405	-0.045	-0.072	
2.410	-0.037	-0.018	
2.415	-0.477	-0.016	
2.420	-0.760	-0.093	
2.425	-0.631	-0.234	
2.430	-0.628	-0.383	
2.435	-0.717	-0.506	
2.440	-0.453	-0.589	
2.445	-0.203	-0.605	
2.450	-0.287	-0.554	
2.455	-0.148	-0.470	
2.460	0.313	-0.354	
2.465	0.096	-0.205	
2.470	-0.084	-0.075	
2.475	0.368	0.017	
2.480	0.343	0.105	
2.485	-0.029	0.176	
2.490	0.293	0.205	
2.495	0.481	0.229	
2.500	0.084	0.261	
2.505	0.258	0.270	
2.510	0.796	0.289	
2.515	0.570	0.357	
2.520	0.420	0.433	
2.525	0.941	0.499	
2.530	0.916	0.588	
2.535	0.571	0.677	
2.540	0.958	0.735	
2.545	1.197	0.798	
2.550	0.739	0.871	
2.555	0.756	0.904	
2.560	1.072	0.907	
2.565	0.588	0.902	
2.570	0.244	0.848	
2.575	0.644	0.744	
2.580	0.460	0.648	
2.585	-0.069	0.550	
2.590	0.192	0.424	
2.595	0.302	0.312	
2.600	-0.130	0.230	
2.605	-0.100	0.145	
2.610	0.236	0.072	
2.615	-0.078	0.036	
2.620	-0.228	0.005	
2.625	0.097	-0.031	
2.630	0.042	-0.043	
2.635	-0.234	-0.043	
2.640	-0.045	-0.057	
2.645	0.124	-0.062	
2.650	-0.194	-0.053	
2.655	-0.116	-0.057	
2.660	0.240	-0.056	
2.665	-0.087	-0.033	
2.670	-0.243	-0.024	
2.675	-0.032	-0.043	
2.680	-0.129	-0.064	
2.685	-0.364	-0.093	
2.690	-0.200	-0.139	
2.695	-0.078	-0.175	
2.700	-0.332	-0.192	
2.705	-0.320	-0.214	
2.710	-0.118	-0.235	
2.715	-0.257	-0.240	
2.720	-0.269	-0.240	
2.725	0.321	-0.217	
2.730	0.560	-0.123	
2.735	0.120	0.018	
2.740	0.044	0.123	
2.745	-0.182	0.153	
2.750	-0.637	0.096	
2.755	-0.743	-0.052	
2.760	-0.584	-0.240	
2.765	-0.605	-0.404	
2.770	-0.562	-0.519	
2.775	-0.207	-0.569	
2.780	-0.110	-0.539	
2.785	-0.255	-0.456	
2.790	0.038	-0.358	
2.795	0.313	-0.238	
2.800	-0.048	-0.106	
2.805	0.021	-0.011	
2.810	0.469	0.059	
2.815	0.208	0.137	
2.820	0.052	0.193	
2.825	0.557	0.225	
2.830	0.452	0.274	
2.835	0.087	0.319	
2.840	0.525	0.335	
2.845	0.851	0.373	
2.850	0.453	0.446	
2.855	0.507	0.505	
2.860	1.007	0.554	
2.865	0.817	0.630	
2.870	0.660	0.704	
2.875	1.144	0.761	
2.880	1.074	0.835	
2.885	0.583	0.895	
2.890	0.805	0.901	
2.895	0.906	0.880	
2.900	0.336	0.844	
2.905	0.258	0.755	
2.910	0.551	0.636	
2.915	0.090	0.528	
2.920	-0.168	0.403	
2.925	0.097	0.260	
2.930	-0.008	0.143	
2.935	-0.298	0.049	
2.940	-0.161	-0.042	
2.945	-0.031	-0.109	
2.950	-0.251	-0.143	
2.955	-0.200	-0.168	
2.960	0.113	-0.174	
2.965	-0.158	-0.151	
2.970	-0.249	-0.132	
2.975	0.096	-0.125	
2.980	0.050	-0.098	
2.985	-0.225	-0.069	
2.990	-0.086	-0.064	
2.995	-0.003	-0.068	
3.000	-0.274	-0.074	
3.005	-0.248	-0.101	
3.010	-0.016	-0.131	
3.015	-0.240	-0.146	
3.020	-0.387	-0.167	
3.025	-0.159	-0.201	
3.030	-0.190	-0.221	
3.035	-0.434	-0.236	
3.040	-0.262	-0.260	
3.045	-0.139	-0.275	
3.050	-0.318	-0.271	
3.055	-0.158	-0.262	
3.060	0.518	-0.215	
3.065	0.325	-0.096	
3.070	-0.161	0.026	
3.075	-0.225	0.071	
3.080	-0.488	0.030	
3.085	-0.836	-0.090	
3.090	-0.764	-0.267	
3.095	-0.634	-0.443	
3.100	-0.692	-0.574	
3.105	-0.520	-0.649	
3.110	-0.182	-0.655	
3.115	-0.240	-0.589	
3.120	-0.283	-0.491	
3.125	0.107	-0.385	
3.130	0.137	-0.258	
3.135	-0.193	-0.140	
3.140	0.078	-0.064	
3.145	0.348	-0.000	
3.150	-0.058	0.064	
3.155	-0.008	0.094	
3.160	0.441	0.109	
3.165	0.136	0.142	
3.170	-0.103	0.161	
3.175	0.469	0.158	
3.180	0.589	0.194	
3.185	0.221	0.262	
3.190	0.530	0.319	
3.195	0.855	0.387	
3.200	0.519	0.476	
3.205	0.634	0.549	
3.210	1.092	0.616	
3.215	0.768	0.701	
3.220	0.432	0.754	
3.225	0.779	0.753	
3.230	0.626	0.734	
3.235	0.053	0.685	
3.240	0.204	0.578	
3.245	0.302	0.454	
3.250	-0.202	0.337	
3.255	-0.214	0.203	
3.260	0.070	0.074	
3.265	-0.126	-0.013	
3.270	-0.255	-0.073	
3.275	0.021	-0.118	
3.280	-0.017	-0.128	
3.285	-0.271	-0.123	
3.290	-0.106	-0.128	
3.295	0.041	-0.128	
3.300	-0.260	-0.117	
3.305	-0.228	-0.123	
3.310	0.070	-0.133	
3.315	-0.142	-0.124	
3.320	-0.262	-0.118	
3.325	0.004	-0.124	
3.330	-0.068	-0.119	
3.335	-0.352	-0.117	
3.340	-0.214	-0.140	
3.345	-0.089	-0.165	
3.350	-0.375	-0.183	
3.355	-0.335	-0.212	
3.360	-0.040	-0.237	
3.365	-0.196	-0.234	
3.370	-0.327	-0.224	
3.375	-0.109	-0.222	
3.380	-0.135	-0.212	
3.385	-0.286	-0.198	
3.390	0.058	-0.185	
3.395	0.554	-0.126	
3.400	0.116	-0.015	
3.405	-0.148	0.072	
3.410	-0.184	0.084	
3.415	-0.520	0.027	
3.420	-0.737	-0.096	
3.425	-0.547	-0.256	
3.430	-0.511	-0.396	
3.435	-0.656	-0.494	
3.440	-0.368	-0.552	
3.445	-0.106	-0.548	
3.450	-0.240	-0.483	
3.455	-0.162	-0.396	
3.460	0.235	-0.295	
3.465	-0.009	-0.178	
3.470	-0.173	-0.085	
3.475	0.263	-0.028	
3.480	0.318	0.036	
3.485	-0.071	0.099	
3.490	0.177	0.128	
3.495	0.395	0.150	
3.500	-0.013	0.177	
3.505	0.067	0.178	
3.510	0.596	0.179	
3.515	0.383	0.222	
3.520	0.165	0.272	
3.525	0.672	0.311	
3.530	0.728	0.376	
3.535	0.285	0.450	
3.540	0.501	0.486	
3.545	0.881	0.514	
3.550	0.492	0.560	
3.555	0.434	0.586	
3.560	0.754	0.588	
3.565	0.376	0.587	
3.570	-0.032	0.546	
3.575	0.223	0.450	
3.580	0.133	0.345	
3.585	-0.216	0.242	
3.590	-0.064	0.130	
3.595	0.125	0.041	
3.600	-0.210	-0.012	
3.605	-0.220	-0.059	
3.610	0.044	-0.099	
3.615	-0.147	-0.114	
3.620	-0.287	-0.125	
3.625	-0.046	-0.142	
3.630	-0.057	-0.145	
3.635	-0.284	-0.140	
3.640	-0.121	-0.146	
3.645	0.072	-0.143	
3.650	-0.286	-0.127	
3.655	-0.278	-0.132	
3.660	0.042	-0.147	
3.665	-0.153	-0.143	
3.670	-0.321	-0.142	
3.675	-0.122	-0.157	
3.680	-0.148	-0.169	
3.685	-0.411	-0.182	
3.690	-0.280	-0.212	
3.695	-0.119	-0.238	
3.700	-0.339	-0.247	
3.705	-0.349	-0.258	
3.710	-0.109	-0.269	
3.715	-0.242	-0.262	
3.720	-0.301	-0.251	
3.725	0.252	-0.227	
3.730	0.460	-0.143	
3.735	-0.071	-0.024	
3.740	-0.135	0.047	
3.745	-0.234	0.047	
3.750	-0.588	-0.017	
3.755	-0.668	-0.141	
3.760	-0.413	-0.284	
3.765	-0.469	-0.392	
3.770	-0.530	-0.460	
3.775	-0.222	-0.489	
3.780	-0.170	-0.466	
3.785	-0.326	-0.410	
3.790	-0.095	-0.349	
3.795	0.282	-0.265	
3.800	-0.074	-0.157	
3.805	-0.061	-0.071	
3.810	0.369	-0.008	
3.815	0.108	0.061	
3.820	-0.145	0.104	
3.825	0.281	0.110	
3.830	0.420	0.132	
3.835	0.003	0.170	
3.840	0.264	0.189	
3.845	0.585	0.215	
3.850	0.180	0.263	
3.855	0.240	0.292	
3.860	0.761	0.318	
3.865	0.536	0.378	
3.870	0.299	0.436	
3.875	0.774	0.472	
3.880	0.783	0.524	
3.885	0.321	0.576	
3.890	0.531	0.585	
3.895	0.748	0.580	
3.900	0.188	0.573	
3.905	0.020	0.516	
3.910	0.333	0.419	
3.915	0.010	0.326	
3.920	-0.210	0.227	
3.925	0.038	0.119	
3.930	-0.011	0.037	
3.935	-0.249	-0.020	
3.940	-0.064	-0.072	
3.945	0.159	-0.094	
3.950	-0.173	-0.084	
3.955	-0.188	-0.080	
3.960	0.137	-0.083	
3.965	-0.063	-0.068	
3.970	-0.219	-0.058	
3.975	0.084	-0.061	
3.980	0.067	-0.051	
3.985	-0.281	-0.039	
3.990	-0.188	-0.058	
3.995	-0.040	-0.089	
4.000	-0.283	-0.113	
4.005	-0.286	-0.145	
4.010	-0.003	-0.174	
4.015	-0.167	-0.177	
4.020	-0.324	-0.176	
4.025	-0.106	-0.186	
4.030	-0.097	-0.186	
4.035	-0.336	-0.180	
4.040	-0.199	-0.189	
4.045	-0.025	-0.194	
4.050	-0.260	-0.184	
4.055	-0.196	-0.179	
4.060	0.406	-0.155	
4.065	0.290	-0.073	
4.070	-0.101	0.022	
4.075	-0.048	0.066	
4.080	-0.283	0.054	
4.085	-0.633	-0.020	
4.090	-0.549	-0.149	
4.095	-0.378	-0.282	
4.100	-0.508	-0.379	
4.105	-0.433	-0.441	
4.110	-0.121	-0.459	
4.115	-0.203	-0.424	
4.120	-0.304	-0.367	
4.125	-0.006	-0.309	
4.130	0.113	-0.232	
4.135	-0.165	-0.150	
4.140	0.052	-0.089	
4.145	0.345	-0.030	
4.150	-0.075	0.036	
4.155	-0.136	0.064	
4.160	0.246	0.061	
4.165	0.105	0.070	
4.170	-0.087	0.078	
4.175	0.331	0.080	
4.180	0.347	0.109	
4.185	-0.003	0.150	
4.190	0.366	0.175	
4.195	0.736	0.223	
4.200	0.362	0.306	
4.205	0.356	0.375	
4.210	0.816	0.427	
4.215	0.504	0.488	
4.220	0.191	0.521	
4.225	0.615	0.511	
4.230	0.559	0.502	
4.235	-0.023	0.485	
4.240	0.131	0.416	
4.245	0.360	0.333	
4.250	-0.106	0.265	
4.255	-0.179	0.182	
4.260	0.162	0.093	
4.265	-0.075	0.035	
4.270	-0.257	-0.011	
4.275	-0.061	-0.061	
4.280	-0.034	-0.094	
4.285	-0.219	-0.109	
4.290	-0.034	-0.119	
4.295	0.201	-0.106	
4.300	-0.179	-0.072	
4.305	-0.190	-0.057	
4.310	0.232	-0.055	
4.315	0.012	-0.030	
4.320	-0.223	-0.011	
4.325	-0.017	-0.020	
4.330	0.009	-0.033	
4.335	-0.278	-0.046	
4.340	-0.202	-0.078	
4.345	-0.037	-0.113	
4.350	-0.301	-0.136	
4.355	-0.342	-0.167	
4.360	-0.121	-0.203	
4.365	-0.226	-0.220	
4.370	-0.344	-0.231	
4.375	-0.121	-0.241	
4.380	-0.083	-0.232	
4.385	-0.274	-0.211	
4.390	-0.014	-0.191	
4.395	0.528	-0.136	
4.400	0.195	-0.027	
4.405	-0.078	0.071	
4.410	-0.061	0.105	
4.415	-0.417	0.074	
4.420	-0.714	-0.030	
4.425	-0.588	-0.187	
4.430	-0.540	-0.342	
4.435	-0.599	-0.460	
4.440	-0.342	-0.529	
4.445	-0.081	-0.528	
4.450	-0.217	-0.464	
4.455	-0.196	-0.379	
4.460	0.189	-0.287	
4.465	0.047	-0.178	
4.470	-0.174	-0.087	
4.475	0.287	-0.026	
4.480	0.391	0.045	
4.485	-0.061	0.118	
4.490	0.151	0.151	
4.495	0.489	0.174	
4.500	0.088	0.209	
4.505	0.096	0.222	
4.510	0.615	0.230	
4.515	0.437	0.272	
4.520	0.180	0.320	
4.525	0.722	0.354	
4.530	0.857	0.420	
4.535	0.412	0.507	
4.540	0.686	0.565	
4.545	1.074	0.621	
4.550	0.654	0.695	
4.555	0.478	0.735	
4.560	0.822	0.731	
4.565	0.518	0.716	
4.570	0.059	0.665	
4.575	0.376	0.564	
4.580	0.339	0.463	
4.585	-0.138	0.370	
4.590	-0.064	0.256	
4.595	0.163	0.148	
4.600	-0.181	0.071	
4.605	-0.249	-0.000	
4.610	0.110	-0.062	
4.615	-0.052	-0.084	
4.620	-0.236	-0.090	
4.625	0.015	-0.100	
4.630	0.015	-0.095	
4.635	-0.266	-0.086	
4.640	-0.107	-0.094	
4.645	0.178	-0.094	
4.650	-0.170	-0.074	
4.655	-0.225	-0.068	
4.660	0.078	-0.077	
4.665	-0.129	-0.077	
4.670	-0.286	-0.084	
4.675	-0.058	-0.107	
4.680	-0.078	-0.121	
4.685	-0.362	-0.132	
4.690	-0.249	-0.162	
4.695	-0.075	-0.189	
4.700	-0.278	-0.200	
4.705	-0.320	-0.212	
4.710	-0.121	-0.226	
4.715	-0.219	-0.228	
4.720	-0.281	-0.225	
4.725	0.204	-0.209	
4.730	0.527	-0.132	
4.735	0.128	-0.006	
4.740	0.036	0.095	
4.745	-0.116	0.131	
4.750	-0.561	0.089	
4.755	-0.726	-0.038	
4.760	-0.523	-0.211	
4.765	-0.527	-0.363	
4.770	-0.578	-0.470	
4.775	-0.274	-0.526	
4.780	-0.144	-0.515	
4.785	-0.315	-0.455	
4.790	-0.103	-0.382	
4.795	0.266	-0.288	
4.800	-0.055	-0.171	
4.805	-0.038	-0.076	
4.810	0.453	-0.001	
4.815	0.266	0.089	
4.820	-0.083	0.158	
4.825	0.331	0.183	
4.830	0.449	0.209	
4.835	0.041	0.242	
4.840	0.342	0.253	
4.845	0.762	0.281	
4.850	0.405	0.348	
4.855	0.350	0.405	
4.860	0.857	0.449	
4.865	0.738	0.517	
4.870	0.504	0.586	
4.875	0.955	0.636	
4.880	1.025	0.702	
4.885	0.498	0.766	
4.890	0.657	0.780	
4.895	0.927	0.769	
4.900	0.426	0.758	
4.905	0.185	0.702	
4.910	0.542	0.607	
4.915	0.232	0.518	
4.920	-0.171	0.417	
4.925	0.125	0.291	
4.930	0.159	0.186	
4.935	-0.223	0.110	
4.940	-0.145	0.033	
4.945	0.101	-0.031	
4.950	-0.194	-0.062	
4.955	-0.277	-0.093	
4.960	0.001	-0.125	
4.965	-0.089	-0.134	
4.970	-0.298	-0.136	
4.975	-0.066	-0.147	
4.980	0.078	-0.141	
4.985	-0.214	-0.118	
4.990	-0.106	-0.106	
4.995	0.131	-0.094	
5.000	-0.219	-0.074	
5.005	-0.315	-0.079	
5.010	-0.095	-0.110	
5.015	-0.214	-0.139	
5.020	-0.376	-0.168	
5.025	-0.171	-0.205	
5.030	-0.130	-0.224	
5.035	-0.394	-0.230	
5.040	-0.317	-0.248	
5.045	-0.133	-0.264	
5.050	-0.330	-0.266	
5.055	-0.284	-0.267	
5.060	0.321	-0.245	
5.065	0.405	-0.154	
5.070	-0.029	-0.030	
5.075	-0.051	0.050	
5.080	-0.318	0.060	
5.085	-0.697	-0.011	
5.090	-0.700	-0.154	
5.095	-0.556	-0.319	
5.100	-0.668	-0.456	
5.105	-0.614	-0.554	
5.110	-0.272	-0.601	
5.115	-0.255	-0.578	
5.120	-0.336	-0.512	
5.125	-0.049	-0.430	
5.130	0.094	-0.326	
5.135	-0.207	-0.218	
5.140	-0.028	-0.140	
5.145	0.461	-0.067	
5.150	0.146	0.029	
5.155	0.042	0.108	
5.160	0.492	0.160	
5.165	0.288	0.217	
5.170	0.032	0.255	
5.175	0.525	0.268	
5.180	0.728	0.308	
5.185	0.342	0.378	
5.190	0.562	0.434	
5.195	0.938	0.492	
5.200	0.626	0.571	
5.205	0.614	0.634	
5.210	1.185	0.688	
5.215	1.051	0.774	
5.220	0.649	0.855	
5.225	1.016	0.892	
5.230	1.058	0.918	
5.235	0.438	0.926	
5.240	0.432	0.869	
5.245	0.637	0.769	
5.250	0.073	0.661	
5.255	-0.155	0.514	
5.260	0.142	0.343	
5.265	-0.014	0.201	
5.270	-0.232	0.088	
5.275	-0.006	-0.006	
5.280	0.105	-0.057	
5.285	-0.220	-0.073	
5.290	-0.138	-0.089	
5.295	0.163	-0.096	
5.300	-0.136	-0.079	
5.305	-0.207	-0.071	
5.310	0.131	-0.073	
5.315	-0.019	-0.059	
5.320	-0.260	-0.049	
5.325	-0.011	-0.060	
5.330	0.052	-0.065	
5.335	-0.277	-0.064	
5.340	-0.234	-0.086	
5.345	-0.078	-0.119	
5.350	-0.301	-0.145	
5.355	-0.402	-0.181	
5.360	-0.205	-0.226	
5.365	-0.292	-0.257	
5.370	-0.494	-0.284	
5.375	-0.359	-0.321	
5.380	-0.359	-0.352	
5.385	-0.566	-0.378	
5.390	-0.414	-0.409	
5.395	-0.026	-0.414	
5.400	-0.040	-0.364	
5.405	-0.127	-0.283	
5.410	-0.071	-0.207	
5.415	-0.446	-0.165	
5.420	-0.837	-0.197	
5.425	-0.781	-0.310	
5.430	-0.767	-0.455	
5.435	-0.954	-0.593	
5.440	-0.753	-0.709	
5.445	-0.439	-0.770	
5.450	-0.544	-0.757	
5.455	-0.509	-0.706	
5.460	-0.132	-0.628	
5.465	-0.136	-0.516	
5.470	-0.315	-0.399	
5.475	-0.110	-0.308	
5.480	-0.077	-0.235	
5.485	-0.246	-0.179	
5.490	-0.078	-0.148	
5.495	0.305	-0.110	
5.500	-0.058	-0.050	
5.505	-0.142	-0.008	
5.510	0.330	0.013	
5.515	0.261	0.057	
5.520	-0.058	0.105	
5.525	0.392	0.133	
5.530	0.582	0.183	
5.535	0.249	0.257	
5.540	0.522	0.320	
5.545	1.031	0.399	
5.550	0.706	0.516	
5.555	0.490	0.614	
5.560	0.924	0.669	
5.565	0.695	0.712	
5.570	0.146	0.716	
5.575	0.365	0.648	
5.580	0.411	0.554	
5.585	-0.133	0.455	
5.590	-0.147	0.321	
5.595	0.113	0.182	
5.600	-0.197	0.075	
5.605	-0.280	-0.018	
5.610	0.017	-0.094	
5.615	-0.129	-0.132	
5.620	-0.310	-0.151	
5.625	-0.090	-0.172	
5.630	0.020	-0.172	
5.635	-0.251	-0.154	
5.640	-0.162	-0.147	
5.645	0.163	-0.135	
5.650	-0.155	-0.104	
5.655	-0.242	-0.087	
5.660	0.107	-0.088	
5.665	-0.049	-0.075	
5.670	-0.307	-0.069	
5.675	-0.130	-0.090	
5.680	-0.098	-0.114	
5.685	-0.398	-0.139	
5.690	-0.300	-0.180	
5.695	0.050	-0.211	
5.700	-0.200	-0.206	
5.705	-0.347	-0.197	
5.710	-0.064	-0.201	
5.715	-0.138	-0.194	
5.720	-0.364	-0.187	
5.725	-0.124	-0.195	
5.730	0.243	-0.180	
5.735	0.133	-0.117	
5.740	0.368	-0.023	
5.745	0.487	0.089	
5.750	-0.258	0.178	
5.755	-0.584	0.161	
5.760	-0.492	0.034	
5.765	-0.559	-0.133	
5.770	-0.685	-0.296	
5.775	-0.408	-0.430	
5.780	-0.211	-0.495	
5.785	-0.367	-0.491	
5.790	-0.208	-0.452	
5.795	0.243	-0.374	
5.800	-0.002	-0.254	
5.805	-0.055	-0.140	
5.810	0.441	-0.042	
5.815	0.347	0.067	
5.820	0.015	0.162	
5.825	0.450	0.217	
5.830	0.651	0.276	
5.835	0.165	0.343	
5.840	0.322	0.372	
5.845	0.817	0.393	
5.850	0.522	0.445	
5.855	0.374	0.492	
5.860	0.953	0.527	
5.865	0.915	0.594	
5.870	0.551	0.671	
5.875	0.981	0.724	
5.880	1.213	0.788	
5.885	0.802	0.868	
5.890	0.912	0.919	
5.895	1.304	0.956	
5.900	0.887	1.001	
5.905	0.599	1.008	
5.910	0.944	0.965	
5.915	0.696	0.913	
5.920	0.143	0.833	
5.925	0.377	0.703	
5.930	0.461	0.572	
5.935	-0.038	0.460	
5.940	0.013	0.338	
5.945	0.377	0.233	
5.950	0.036	0.175	
5.955	-0.104	0.131	
5.960	0.354	0.093	
5.965	0.253	0.097	
5.970	-0.109	0.115	
5.975	0.159	0.112	
5.980	0.290	0.113	
5.985	-0.061	0.124	
5.990	0.053	0.116	
5.995	0.443	0.114	
6.000	0.047	0.137	
6.005	-0.148	0.141	
6.010	0.156	0.113	
6.015	0.107	0.090	
6.020	-0.207	0.070	
6.025	-0.026	0.032	
6.030	0.026	-0.004	
6.035	-0.232	-0.030	
6.040	-0.132	-0.064	
6.045	0.201	-0.082	
6.050	-0.145	-0.070	
6.055	-0.275	-0.068	
6.060	0.030	-0.085	
6.065	0.165	-0.080	
6.070	0.055	-0.044	
6.075	0.567	0.021	
6.080	0.554	0.129	
6.085	-0.213	0.226	
6.090	-0.388	0.220	
6.095	-0.306	0.117	
6.100	-0.541	-0.027	
6.105	-0.645	-0.186	
6.110	-0.329	-0.330	
6.115	-0.271	-0.412	
6.120	-0.384	-0.435	
6.125	-0.110	-0.418	
6.130	0.130	-0.355	
6.135	-0.158	-0.259	
6.140	-0.051	-0.175	
6.145	0.389	-0.095	
6.150	0.097	-0.000	
6.155	-0.078	0.070	
6.160	0.343	0.104	
6.165	0.287	0.144	
6.170	-0.075	0.175	
6.175	0.270	0.177	
6.180	0.484	0.189	
6.185	0.082	0.221	
6.190	0.243	0.237	
6.195	0.686	0.259	
6.200	0.351	0.313	
6.205	0.299	0.359	
6.210	0.788	0.396	
6.215	0.715	0.460	
6.220	0.417	0.529	
6.225	0.808	0.573	
6.230	0.968	0.628	
6.235	0.418	0.685	
6.240	0.382	0.687	
6.245	0.681	0.648	
6.250	0.195	0.598	
6.255	-0.090	0.509	
6.260	0.215	0.381	
6.265	0.107	0.269	
6.270	-0.210	0.174	
6.275	-0.063	0.078	
6.280	0.073	0.004	
6.285	-0.228	-0.039	
6.290	-0.176	-0.079	
6.295	0.110	-0.106	
6.300	-0.184	-0.106	
6.305	-0.272	-0.111	
6.310	-0.002	-0.127	
6.315	-0.031	-0.125	
6.320	-0.260	-0.116	
6.325	-0.068	-0.119	
6.330	0.076	-0.113	
6.335	-0.228	-0.096	
6.340	-0.214	-0.097	
6.345	-0.017	-0.111	
6.350	-0.251	-0.120	
6.355	-0.381	-0.144	
6.360	-0.171	-0.184	
6.365	-0.249	-0.214	
6.370	-0.439	-0.241	
6.375	-0.251	-0.273	
6.380	-0.150	-0.289	
6.385	-0.407	-0.287	
6.390	-0.390	-0.296	
6.395	-0.173	-0.308	
6.400	-0.239	-0.303	
6.405	-0.193	-0.283	
6.410	0.360	-0.233	
6.415	0.127	-0.135	
6.420	-0.404	-0.053	
6.425	-0.504	-0.057	
6.430	-0.576	-0.140	
6.435	-0.841	-0.271	
6.440	-0.782	-0.425	
6.445	-0.482	-0.556	
6.450	-0.538	-0.623	
6.455	-0.547	-0.638	
6.460	-0.236	-0.614	
6.465	-0.216	-0.546	
6.470	-0.405	-0.461	
6.475	-0.211	-0.391	
6.480	-0.084	-0.327	
6.485	-0.295	-0.266	
6.490	-0.205	-0.228	
6.495	0.127	-0.193	
6.500	-0.153	-0.146	
6.505	-0.243	-0.115	
6.510	0.099	-0.103	
6.515	0.050	-0.079	
6.520	-0.203	-0.052	
6.525	0.056	-0.043	
6.530	0.313	-0.021	
6.535	-0.051	0.023	
6.540	0.076	0.054	
6.545	0.559	0.090	
6.550	0.284	0.159	
6.555	0.078	0.219	
6.560	0.603	0.256	
6.565	0.530	0.311	
6.570	0.033	0.359	
6.575	0.318	0.358	
6.580	0.438	0.343	
6.585	-0.124	0.321	
6.590	-0.181	0.252	
6.595	0.104	0.154	
6.600	-0.155	0.071	
6.605	-0.307	-0.006	
6.610	-0.071	-0.082	
6.615	-0.139	-0.131	
6.620	-0.365	-0.164	
6.625	-0.200	-0.199	
6.630	-0.069	-0.219	
6.635	-0.317	-0.218	
6.640	-0.287	-0.223	
6.645	-0.049	-0.228	
6.650	-0.254	-0.218	
6.655	-0.321	-0.213	
6.660	0.000	-0.213	
6.665	-0.063	-0.191	
6.670	-0.318	-0.166	
6.675	-0.156	-0.162	
6.680	-0.074	-0.163	
6.685	-0.342	-0.163	
6.690	-0.332	-0.183	
6.695	-0.132	-0.212	
6.700	-0.309	-0.229	
6.705	-0.445	-0.250	
6.710	-0.222	-0.280	
6.715	-0.249	-0.295	
6.720	-0.492	-0.304	
6.725	-0.385	-0.327	
6.730	-0.277	-0.349	
6.735	-0.414	-0.358	
6.740	-0.254	-0.359	
6.745	0.339	-0.320	
6.750	0.128	-0.216	
6.755	-0.240	-0.109	
6.760	-0.272	-0.065	
6.765	-0.521	-0.092	
6.770	-0.850	-0.188	
6.775	-0.760	-0.338	
6.780	-0.602	-0.486	
6.785	-0.689	-0.592	
6.790	-0.544	-0.651	
6.795	-0.217	-0.652	
6.800	-0.286	-0.591	
6.805	-0.356	-0.504	
6.810	-0.064	-0.418	
6.815	-0.081	-0.324	
6.820	-0.214	-0.239	
6.825	0.159	-0.169	
6.830	0.431	-0.079	
6.835	0.010	0.028	
6.840	0.039	0.098	
6.845	0.452	0.139	
6.850	0.148	0.184	
6.855	0.032	0.208	
6.860	0.562	0.217	
6.865	0.550	0.260	
6.870	0.169	0.318	
6.875	0.522	0.353	
6.880	0.817	0.398	
6.885	0.460	0.468	
6.890	0.515	0.520	
6.895	0.959	0.562	
6.900	0.664	0.622	
6.905	0.372	0.660	
6.910	0.814	0.659	
6.915	0.710	0.662	
6.920	0.131	0.650	
6.925	0.236	0.581	
6.930	0.314	0.481	
6.935	-0.135	0.378	
6.940	-0.162	0.251	
6.945	0.111	0.127	
6.950	-0.182	0.037	
6.955	-0.336	-0.042	
6.960	-0.092	-0.116	
6.965	-0.110	-0.160	
6.970	-0.327	-0.182	
6.975	-0.170	-0.202	
6.980	-0.025	-0.207	
6.985	-0.274	-0.194	
6.990	-0.234	-0.189	
6.995	0.084	-0.182	
7.000	-0.141	-0.154	
7.005	-0.272	-0.134	
7.010	-0.032	-0.132	
7.015	-0.150	-0.130	
7.020	-0.350	-0.136	
7.025	-0.147	-0.160	
7.030	0.006	-0.172	
7.035	-0.306	-0.166	
7.040	-0.324	-0.176	
7.045	-0.110	-0.197	
7.050	-0.292	-0.210	
7.055	-0.442	-0.230	
7.060	-0.222	-0.262	
7.065	-0.245	-0.281	
7.070	-0.440	-0.292	
7.075	-0.190	-0.304	
7.080	0.253	-0.280	
7.085	0.046	-0.200	
7.090	-0.028	-0.109	
7.095	0.090	-0.040	
7.100	-0.399	-0.011	
7.105	-0.724	-0.060	
7.110	-0.642	-0.188	
7.115	-0.668	-0.340	
7.120	-0.795	-0.480	
7.125	-0.538	-0.589	
7.130	-0.300	-0.634	
7.135	-0.405	-0.610	
7.140	-0.306	-0.551	
7.145	0.013	-0.467	
7.150	-0.185	-0.361	
7.155	-0.275	-0.271	
7.160	0.058	-0.208	
7.165	0.009	-0.146	
7.170	-0.240	-0.096	
7.175	-0.034	-0.077	
7.180	0.206	-0.058	
7.185	-0.122	-0.026	
7.190	-0.049	-0.010	
7.195	0.481	0.012	
7.200	0.288	0.076	
7.205	0.084	0.146	
7.210	0.583	0.202	
7.215	0.628	0.278	
7.220	0.259	0.361	
7.225	0.605	0.416	
7.230	0.886	0.475	
7.235	0.478	0.548	
7.240	0.461	0.589	
7.245	0.863	0.605	
7.250	0.505	0.625	
7.255	0.062	0.609	
7.260	0.351	0.534	
7.265	0.235	0.445	
7.270	-0.220	0.346	
7.275	-0.136	0.218	
7.280	0.009	0.093	
7.285	-0.281	-0.005	
7.290	-0.306	-0.091	
7.295	-0.049	-0.161	
7.300	-0.207	-0.193	
7.305	-0.338	-0.210	
7.310	-0.083	-0.225	
7.315	-0.081	-0.217	
7.320	-0.327	-0.200	
7.325	-0.193	-0.197	
7.330	0.018	-0.192	
7.335	-0.226	-0.171	
7.340	-0.216	-0.160	
7.345	0.140	-0.148	
7.350	-0.084	-0.116	
7.355	-0.263	-0.092	
7.360	-0.029	-0.093	
7.365	-0.078	-0.095	
7.370	-0.342	-0.103	
7.375	-0.220	-0.133	
7.380	-0.038	-0.161	
7.385	-0.281	-0.172	
7.390	-0.280	-0.186	
7.395	-0.016	-0.198	
7.400	-0.196	-0.191	
7.405	-0.353	-0.187	
7.410	-0.104	-0.197	
7.415	0.033	-0.190	
7.420	-0.106	-0.158	
7.425	0.319	-0.107	
7.430	0.490	-0.015	
7.435	-0.239	0.082	
7.440	-0.431	0.096	
7.445	-0.350	0.017	
7.450	-0.572	-0.103	
7.455	-0.669	-0.243	
7.460	-0.349	-0.371	
7.465	-0.263	-0.441	
7.470	-0.379	-0.452	
7.475	-0.150	-0.428	
7.480	0.168	-0.361	
7.485	-0.104	-0.257	
7.490	-0.029	-0.162	
7.495	0.504	-0.070	
7.500	0.252	0.045	
7.505	-0.020	0.139	
7.510	0.457	0.190	
7.515	0.470	0.243	
7.520	0.015	0.290	
7.525	0.366	0.299	
7.530	0.725	0.316	
7.535	0.369	0.367	
7.540	0.388	0.410	
7.545	0.819	0.446	
7.550	0.637	0.504	
7.555	0.457	0.557	
7.560	0.958	0.596	
7.565	1.031	0.662	
7.570	0.637	0.741	
7.575	0.898	0.791	
7.580	1.118	0.833	
7.585	0.635	0.874	
7.590	0.522	0.867	
7.595	0.866	0.821	
7.600	0.516	0.775	
7.605	0.154	0.704	
7.610	0.461	0.598	
7.615	0.321	0.500	
7.620	-0.127	0.405	
7.625	0.068	0.289	
7.630	0.279	0.193	
7.635	-0.107	0.133	
7.640	-0.124	0.077	
7.645	0.290	0.032	
7.650	0.047	0.027	
7.655	-0.170	0.030	
7.660	0.143	0.019	
7.665	0.178	0.023	
7.670	-0.147	0.038	
7.675	0.052	0.035	
7.680	0.308	0.039	
7.685	-0.104	0.060	
7.690	-0.156	0.057	
7.695	0.178	0.034	
7.700	-0.071	0.022	
7.705	-0.255	0.002	
7.710	-0.037	-0.036	
7.715	-0.078	-0.068	
7.720	-0.303	-0.093	
7.725	-0.153	-0.127	
7.730	0.059	-0.146	
7.735	-0.229	-0.140	
7.740	-0.268	-0.142	
7.745	0.035	-0.151	
7.750	-0.045	-0.138	
7.755	-0.075	-0.113	
7.760	0.550	-0.063	
7.765	0.507	0.044	
7.770	-0.184	0.152	
7.775	-0.277	0.171	
7.780	-0.309	0.100	
7.785	-0.610	-0.022	
7.790	-0.622	-0.178	
7.795	-0.347	-0.323	
7.800	-0.350	-0.412	
7.805	-0.371	-0.445	
7.810	-0.017	-0.430	
7.815	0.154	-0.355	
7.820	-0.132	-0.245	
7.825	0.114	-0.146	
7.830	0.461	-0.044	
7.835	0.082	0.065	
7.840	0.061	0.139	
7.845	0.504	0.182	
7.850	0.298	0.233	
7.855	-0.052	0.263	
7.860	0.391	0.256	
7.865	0.611	0.268	
7.870	0.236	0.309	
7.875	0.498	0.345	
7.880	0.822	0.394	
7.885	0.469	0.466	
7.890	0.481	0.519	
7.895	0.979	0.560	
7.900	0.793	0.626	
7.905	0.496	0.684	
7.910	0.887	0.710	
7.915	0.846	0.735	
7.920	0.444	0.752	
7.925	0.654	0.731	
7.930	0.829	0.705	
7.935	0.319	0.684	
7.940	0.160	0.622	
7.945	0.496	0.529	
7.950	0.175	0.447	
7.955	-0.127	0.358	
7.960	0.157	0.251	
7.965	0.096	0.166	
7.970	-0.226	0.098	
7.975	-0.121	0.025	
7.980	0.122	-0.031	
7.985	-0.141	-0.054	
7.990	-0.121	-0.068	
7.995	0.293	-0.067	
8.000	0.029	-0.031	
8.005	-0.181	0.000	
8.010	0.139	0.007	
8.015	0.180	0.021	
8.020	-0.177	0.039	
8.025	-0.034	0.031	
8.030	0.206	0.020	
8.035	-0.182	0.020	
8.040	-0.254	-0.003	
8.045	-0.023	-0.047	
8.050	-0.150	-0.080	
8.055	-0.301	-0.111	
8.060	-0.098	-0.145	
8.065	-0.064	-0.160	
8.070	-0.317	-0.164	
8.075	-0.223	-0.178	
8.080	-0.080	-0.191	
8.085	-0.266	-0.192	
8.090	-0.171	-0.193	
8.095	0.466	-0.165	
8.100	0.353	-0.069	
8.105	-0.087	0.041	
8.110	-0.092	0.091	
8.115	-0.344	0.071	
8.120	-0.715	-0.021	
8.125	-0.669	-0.175	
8.130	-0.482	-0.336	
8.135	-0.569	-0.454	
8.140	-0.486	-0.526	
8.145	-0.142	-0.542	
8.150	-0.122	-0.491	
8.155	-0.181	-0.401	
8.160	0.252	-0.294	
8.165	0.318	-0.157	
8.170	-0.092	-0.024	
8.175	0.116	0.057	
8.180	0.435	0.113	
8.185	0.058	0.168	
8.190	0.004	0.189	
8.195	0.426	0.188	
8.200	0.263	0.204	
8.205	0.082	0.222	
8.210	0.585	0.237	
8.215	0.695	0.290	
8.220	0.208	0.363	
8.225	0.504	0.407	
8.230	1.049	0.458	
8.235	0.741	0.552	
8.240	0.536	0.639	
8.245	0.916	0.689	
8.250	0.644	0.726	
8.255	0.278	0.724	
8.260	0.547	0.671	
8.265	0.412	0.603	
8.270	-0.107	0.516	
8.275	-0.026	0.387	
8.280	0.104	0.249	
8.285	-0.258	0.132	
8.290	-0.323	0.016	
8.295	-0.078	-0.090	
8.300	-0.190	-0.156	
8.305	-0.344	-0.196	
8.310	-0.118	-0.226	
8.315	-0.080	-0.229	
8.320	-0.320	-0.216	
8.325	-0.196	-0.212	
8.330	0.017	-0.203	
8.335	-0.223	-0.179	
8.340	-0.214	-0.164	
8.345	0.175	-0.148	
8.350	-0.051	-0.109	
8.355	-0.214	-0.076	
8.360	0.108	-0.063	
8.365	0.185	-0.036	
8.370	-0.190	-0.003	
8.375	-0.100	0.000	
8.380	0.142	-0.010	
8.385	-0.225	-0.015	
8.390	-0.287	-0.042	
8.395	-0.048	-0.087	
8.400	-0.127	-0.116	
8.405	-0.275	-0.136	
8.410	-0.057	-0.154	
8.415	-0.068	-0.156	
8.420	-0.347	-0.153	
8.425	-0.196	-0.167	
8.430	0.272	-0.165	
8.435	0.186	-0.109	
8.440	0.204	-0.022	
8.445	0.368	0.069	
8.450	-0.252	0.133	
8.455	-0.634	0.104	
8.460	-0.535	-0.024	
8.465	-0.549	-0.187	
8.470	-0.712	-0.340	
8.475	-0.501	-0.467	
8.480	-0.246	-0.534	
8.485	-0.333	-0.529	
8.490	-0.254	-0.483	
8.495	0.162	-0.403	
8.500	0.064	-0.283	
8.505	-0.133	-0.164	
8.510	0.206	-0.076	
8.515	0.293	0.008	
8.520	-0.046	0.083	
8.525	0.221	0.123	
8.530	0.583	0.166	
8.535	0.195	0.229	
8.540	0.131	0.269	
8.545	0.596	0.287	
8.550	0.406	0.323	
8.555	0.160	0.354	
8.560	0.672	0.368	
8.565	0.837	0.415	
8.570	0.484	0.492	
8.575	0.742	0.557	
8.580	1.103	0.627	
8.585	0.722	0.716	
8.590	0.623	0.773	
8.595	0.991	0.796	
8.600	0.641	0.809	
8.605	0.241	0.783	
8.610	0.637	0.707	
8.615	0.571	0.635	
8.620	-0.055	0.562	
8.625	-0.008	0.443	
8.630	0.218	0.310	
8.635	-0.156	0.200	
8.640	-0.214	0.094	
8.645	0.013	-0.001	
8.650	-0.127	-0.062	
8.655	-0.289	-0.105	
8.660	-0.054	-0.142	
8.665	0.010	-0.152	
8.670	-0.262	-0.142	
8.675	-0.171	-0.143	
8.680	0.044	-0.142	
8.685	-0.207	-0.129	
8.690	-0.236	-0.127	
8.695	0.082	-0.130	
8.700	-0.132	-0.117	
8.705	-0.358	-0.114	
8.710	-0.138	-0.136	
8.715	-0.087	-0.156	
8.720	-0.352	-0.167	
8.725	-0.262	-0.191	
8.730	-0.101	-0.212	
8.735	-0.329	-0.220	
8.740	-0.393	-0.236	
8.745	-0.144	-0.259	
8.750	-0.239	-0.265	
8.755	-0.426	-0.267	
8.760	-0.228	-0.280	
8.765	-0.124	-0.281	
8.770	-0.220	-0.262	
8.775	0.168	-0.222	
8.780	0.547	-0.131	
8.785	-0.159	-0.012	
8.790	-0.472	0.038	
8.795	-0.436	-0.015	
8.800	-0.662	-0.131	
8.805	-0.863	-0.285	
8.810	-0.619	-0.447	
8.815	-0.453	-0.562	
8.820	-0.552	-0.610	
8.825	-0.346	-0.609	
8.830	0.000	-0.554	
8.835	-0.148	-0.447	
8.840	-0.138	-0.332	
8.845	0.295	-0.220	
8.850	0.075	-0.100	
8.855	-0.118	-0.008	
8.860	0.328	0.047	
8.865	0.518	0.114	
8.870	0.099	0.193	
8.875	0.272	0.242	
8.880	0.599	0.279	
8.885	0.327	0.328	
8.890	0.279	0.363	
8.895	0.776	0.389	
8.900	0.695	0.447	
8.905	0.427	0.513	
8.910	0.858	0.561	
8.915	0.971	0.625	
8.920	0.628	0.700	
8.925	0.846	0.749	
8.930	1.217	0.798	
8.935	0.816	0.864	
8.940	0.547	0.894	
8.945	0.863	0.871	
8.950	0.565	0.830	
8.955	0.039	0.751	
8.960	0.264	0.615	
8.965	0.230	0.471	
8.970	-0.205	0.338	
8.975	-0.177	0.193	
8.980	-0.034	0.059	
8.985	-0.225	-0.039	
8.990	-0.265	-0.115	
8.995	0.007	-0.166	
9.000	-0.110	-0.176	
9.005	-0.292	-0.173	
9.010	-0.068	-0.174	
9.015	-0.013	-0.163	
9.020	-0.268	-0.144	
9.025	-0.150	-0.140	
9.030	0.108	-0.134	
9.035	-0.171	-0.111	
9.040	-0.225	-0.100	
9.045	0.001	-0.105	
9.050	-0.165	-0.106	
9.055	-0.342	-0.118	
9.060	-0.173	-0.149	
9.065	-0.153	-0.176	
9.070	-0.402	-0.197	
9.075	-0.355	-0.232	
9.080	-0.176	-0.265	
9.085	-0.326	-0.281	
9.090	-0.370	-0.292	
9.095	-0.173	-0.300	
9.100	-0.236	-0.293	
9.105	-0.318	-0.280	
9.110	0.116	-0.257	
9.115	0.481	-0.180	
9.120	-0.031	-0.060	
9.125	-0.185	0.020	
9.130	-0.262	0.026	
9.135	-0.633	-0.038	
9.140	-0.795	-0.170	
9.145	-0.593	-0.333	
9.150	-0.619	-0.472	
9.155	-0.662	-0.568	
9.160	-0.364	-0.617	
9.165	-0.171	-0.599	
9.170	-0.274	-0.525	
9.175	-0.098	-0.429	
9.180	0.305	-0.311	
9.185	-0.026	-0.173	
9.190	-0.115	-0.066	
9.195	0.334	0.002	
9.200	0.241	0.071	
9.205	-0.066	0.127	
9.210	0.350	0.152	
9.215	0.476	0.188	
9.220	0.030	0.232	
9.225	0.256	0.248	
9.230	0.690	0.266	
9.235	0.339	0.318	
9.240	0.311	0.362	
9.245	0.910	0.403	
9.250	0.843	0.486	
9.255	0.467	0.579	
9.260	0.846	0.638	
9.265	1.025	0.697	
9.270	0.588	0.758	
9.275	0.681	0.781	
9.280	0.922	0.781	
9.285	0.406	0.772	
9.290	0.116	0.710	
9.295	0.434	0.598	
9.300	0.180	0.487	
9.305	-0.187	0.370	
9.310	-0.003	0.235	
9.315	0.026	0.118	
9.320	-0.280	0.028	
9.325	-0.210	-0.056	
9.330	0.073	-0.116	
9.335	-0.202	-0.136	
9.340	-0.295	-0.150	
9.345	0.035	-0.164	
9.350	-0.048	-0.153	
9.355	-0.246	-0.134	
9.360	-0.003	-0.125	
9.365	0.087	-0.105	
9.370	-0.223	-0.078	
9.375	-0.147	-0.074	
9.380	0.101	-0.078	
9.385	-0.170	-0.070	
9.390	-0.277	-0.078	
9.395	-0.048	-0.102	
9.400	-0.144	-0.120	
9.405	-0.376	-0.139	
9.410	-0.213	-0.174	
9.415	-0.115	-0.201	
9.420	-0.344	-0.214	
9.425	-0.274	-0.230	
9.430	-0.081	-0.241	
9.435	-0.300	-0.235	
9.440	-0.338	-0.236	
9.445	0.053	-0.236	
9.450	0.162	-0.195	
9.455	0.000	-0.122	
9.460	0.275	-0.043	
9.465	-0.002	0.029	
9.470	-0.535	0.047	
9.475	-0.605	-0.031	
9.480	-0.463	-0.165	
9.485	-0.628	-0.300	
9.490	-0.647	-0.420	
9.495	-0.324	-0.506	
9.500	-0.278	-0.527	
9.505	-0.378	-0.498	
9.510	-0.058	-0.442	
9.515	0.188	-0.348	
9.520	-0.139	-0.229	
9.525	-0.057	-0.135	
9.530	0.386	-0.058	
9.535	0.093	0.028	
9.540	-0.031	0.090	
9.545	0.447	0.126	
9.550	0.288	0.174	
9.555	-0.072	0.209	
9.560	0.363	0.211	
9.565	0.557	0.229	
9.570	0.125	0.270	
9.575	0.267	0.289	
9.580	0.684	0.308	
9.585	0.420	0.355	
9.590	0.316	0.397	
9.595	0.738	0.427	
9.600	0.724	0.479	
9.605	0.505	0.541	
9.610	0.867	0.591	
9.615	0.919	0.653	
9.620	0.354	0.704	
9.625	0.324	0.689	
9.630	0.557	0.626	
9.635	0.055	0.549	
9.640	-0.138	0.434	
9.645	0.217	0.297	
9.650	0.032	0.190	
9.655	-0.263	0.103	
9.660	-0.072	0.015	
9.665	0.036	-0.048	
9.670	-0.251	-0.082	
9.675	-0.162	-0.112	
9.680	0.168	-0.125	
9.685	-0.106	-0.105	
9.690	-0.197	-0.087	
9.695	0.107	-0.081	
9.700	-0.011	-0.062	
9.705	-0.229	-0.048	
9.710	-0.020	-0.055	
9.715	0.038	-0.059	
9.720	-0.262	-0.060	
9.725	-0.177	-0.079	
9.730	0.142	-0.096	
9.735	-0.156	-0.089	
9.740	-0.281	-0.090	
9.745	-0.077	-0.111	
9.750	-0.153	-0.127	
9.755	-0.347	-0.146	
9.760	-0.155	-0.174	
9.765	-0.058	-0.189	
9.770	-0.330	-0.189	
9.775	-0.291	-0.201	
9.780	-0.028	-0.213	
9.785	-0.130	-0.201	
9.790	-0.077	-0.176	
9.795	0.481	-0.121	
9.800	0.305	-0.017	
9.805	-0.269	0.075	
9.810	-0.298	0.082	
9.815	-0.407	0.012	
9.820	-0.671	-0.107	
9.825	-0.570	-0.253	
9.830	-0.318	-0.376	
9.835	-0.396	-0.441	
9.840	-0.394	-0.461	
9.845	-0.052	-0.443	
9.850	-0.035	-0.377	
9.855	-0.203	-0.290	
9.860	0.055	-0.212	
9.865	0.313	-0.124	
9.870	-0.051	-0.029	
9.875	0.072	0.036	
9.880	0.484	0.088	
9.885	0.157	0.153	
9.890	-0.017	0.192	
9.895	0.427	0.202	
9.900	0.318	0.222	
9.905	-0.037	0.239	
9.910	0.443	0.234	
9.915	0.706	0.261	
9.920	0.290	0.325	
9.925	0.402	0.374	
9.930	0.915	0.422	
9.935	0.660	0.501	
9.940	0.510	0.574	
9.945	0.941	0.625	
9.950	0.786	0.681	
9.955	0.340	0.715	
9.960	0.599	0.695	
9.965	0.631	0.657	
9.970	0.030	0.604	
9.975	0.039	0.500	
9.980	0.314	0.377	
9.985	-0.115	0.272	
9.990	-0.240	0.163	
9.995	0.107	0.057	
10.000	-0.011	-0.008	
10.005	-0.262	-0.046	
10.010	-0.081	-0.085	
10.015	0.065	-0.105	
10.020	-0.234	-0.104	
10.025	-0.174	-0.111	
10.030	0.136	-0.114	
10.035	-0.093	-0.095	
10.040	-0.164	-0.078	
10.045	0.189	-0.066	
10.050	0.013	-0.037	
10.055	-0.277	-0.019	
10.060	-0.072	-0.035	
10.065	0.072	-0.052	
10.070	-0.234	-0.059	
10.075	-0.225	-0.080	
10.080	-0.037	-0.109	
10.085	-0.262	-0.129	
10.090	-0.384	-0.158	
10.095	-0.141	-0.198	
10.100	-0.150	-0.218	
10.105	-0.353	-0.225	
10.110	-0.203	-0.235	
10.115	-0.147	-0.239	
10.120	-0.347	-0.236	
10.125	-0.176	-0.237	
10.130	0.472	-0.205	
10.135	0.250	-0.104	
10.140	-0.130	0.003	
10.145	-0.156	0.048	
10.150	-0.399	0.022	
10.155	-0.723	-0.072	
10.160	-0.640	-0.220	
10.165	-0.492	-0.367	
10.170	-0.590	-0.474	
10.175	-0.462	-0.537	
10.180	-0.177	-0.547	
10.185	-0.254	-0.501	
10.190	-0.249	-0.429	
10.195	0.174	-0.341	
10.200	0.140	-0.224	
10.205	-0.139	-0.110	
10.210	0.191	-0.032	
10.215	0.414	0.043	
10.220	-0.013	0.118	
10.225	0.055	0.154	
10.230	0.432	0.167	
10.235	0.124	0.191	
10.240	-0.017	0.198	
10.245	0.507	0.193	
10.250	0.574	0.227	
10.255	0.269	0.290	
10.260	0.654	0.350	
10.265	0.858	0.426	
10.270	0.429	0.515	
10.275	0.522	0.566	
10.280	0.947	0.599	
10.285	0.683	0.647	
10.290	0.463	0.680	
10.295	0.835	0.683	
10.300	0.600	0.685	
10.305	0.065	0.656	
10.310	0.279	0.568	
10.315	0.357	0.465	
10.320	-0.129	0.368	
10.325	-0.147	0.251	
10.330	0.076	0.131	
10.335	-0.217	0.038	
10.340	-0.303	-0.045	
10.345	-0.032	-0.117	
10.350	-0.080	-0.152	
10.355	-0.278	-0.162	
10.360	-0.121	-0.173	
10.365	-0.023	-0.171	
10.370	-0.265	-0.158	
10.375	-0.214	-0.158	
10.380	0.067	-0.158	
10.385	-0.173	-0.140	
10.390	-0.271	-0.131	
10.395	0.013	-0.135	
10.400	-0.086	-0.127	
10.405	-0.336	-0.122	
10.410	-0.217	-0.143	
10.415	-0.144	-0.168	
10.420	-0.396	-0.192	
10.425	-0.368	-0.228	
10.430	-0.168	-0.264	
10.435	-0.323	-0.280	
10.440	-0.410	-0.293	
10.445	-0.173	-0.306	
10.450	-0.248	-0.302	
10.455	-0.477	-0.297	
10.460	-0.284	-0.309	
10.465	-0.022	-0.306	
10.470	-0.095	-0.268	
10.475	0.058	-0.207	
10.480	0.351	-0.122	
10.485	-0.249	-0.034	
10.490	-0.608	-0.019	
10.495	-0.570	-0.102	
10.500	-0.677	-0.236	
10.505	-0.828	-0.385	
10.510	-0.579	-0.522	
10.515	-0.387	-0.603	
10.520	-0.509	-0.617	
10.525	-0.349	-0.591	
10.530	0.001	-0.525	
10.535	-0.147	-0.418	
10.540	-0.214	-0.312	
10.545	0.166	-0.221	
10.550	0.157	-0.123	
10.555	-0.156	-0.037	
10.560	0.093	0.009	
10.565	0.322	0.047	
10.570	-0.078	0.087	
10.575	-0.038	0.096	
10.580	0.429	0.096	
10.585	0.215	0.126	
10.590	0.117	0.162	
10.595	0.706	0.204	
10.600	0.728	0.290	
10.605	0.372	0.397	
10.610	0.741	0.478	
10.615	0.971	0.560	
10.620	0.522	0.645	
10.625	0.600	0.688	
10.630	1.008	0.709	
10.635	0.673	0.740	
10.640	0.363	0.744	
10.645	0.667	0.704	
10.650	0.432	0.653	
10.655	-0.124	0.572	
10.660	0.012	0.436	
10.665	0.107	0.289	
10.670	-0.251	0.162	
10.675	-0.234	0.041	
10.680	0.010	-0.059	
10.685	-0.194	-0.116	
10.690	-0.329	-0.155	
10.695	-0.101	-0.190	
10.700	-0.142	-0.203	
10.705	-0.324	-0.205	
10.710	-0.106	-0.209	
10.715	0.081	-0.194	
10.720	-0.232	-0.159	
10.725	-0.223	-0.140	
10.730	0.119	-0.131	
10.735	-0.122	-0.107	
10.740	-0.277	-0.094	
10.745	-0.071	-0.105	
10.750	-0.156	-0.117	
10.755	-0.396	-0.138	
10.760	-0.268	-0.178	
10.765	-0.173	-0.216	
10.770	-0.433	-0.243	
10.775	-0.422	-0.279	
10.780	-0.174	-0.312	
10.785	-0.301	-0.320	
10.790	-0.451	-0.322	
10.795	-0.216	-0.329	
10.800	-0.199	-0.321	
10.805	-0.304	-0.301	
10.810	0.111	-0.267	
10.815	0.550	-0.180	
10.820	0.023	-0.047	
10.825	-0.199	0.046	
10.830	-0.283	0.052	
10.835	-0.639	-0.019	
10.840	-0.850	-0.162	
10.845	-0.622	-0.339	
10.850	-0.581	-0.486	
10.855	-0.694	-0.584	
10.860	-0.398	-0.633	
10.865	-0.144	-0.616	
10.870	-0.303	-0.539	
10.875	-0.208	-0.446	
10.880	0.221	-0.341	
10.885	0.023	-0.215	
10.890	-0.118	-0.106	
10.895	0.362	-0.026	
10.900	0.356	0.062	
10.905	-0.055	0.141	
10.910	0.246	0.177	
10.915	0.541	0.207	
10.920	0.130	0.250	
10.925	0.191	0.271	
10.930	0.695	0.287	
10.935	0.519	0.339	
10.940	0.385	0.399	
10.945	0.897	0.456	
10.950	0.933	0.544	
10.955	0.576	0.640	
10.960	0.887	0.707	
10.965	1.199	0.773	
10.970	0.765	0.849	
10.975	0.701	0.889	
10.980	0.988	0.890	
10.985	0.565	0.875	
10.990	0.185	0.813	
10.995	0.466	0.697	
11.000	0.266	0.575	
11.005	-0.203	0.446	
11.010	-0.043	0.291	
11.015	0.122	0.154	
11.020	-0.229	0.056	
11.025	-0.234	-0.028	
11.030	0.035	-0.095	
11.035	-0.197	-0.127	
11.040	-0.281	-0.149	
11.045	0.042	-0.165	
11.050	0.032	-0.151	
11.055	-0.246	-0.122	
11.060	-0.103	-0.111	
11.065	0.047	-0.104	
11.070	-0.217	-0.092	
11.075	-0.184	-0.095	
11.080	0.097	-0.102	
11.085	-0.168	-0.093	
11.090	-0.344	-0.099	
11.095	-0.164	-0.131	
11.100	-0.141	-0.159	
11.105	-0.373	-0.182	
11.110	-0.251	-0.212	
11.115	-0.138	-0.234	
11.120	-0.365	-0.243	
11.125	-0.361	-0.259	
11.130	-0.158	-0.277	
11.135	-0.324	-0.281	
11.140	-0.474	-0.290	
11.145	-0.161	-0.307	
11.150	0.035	-0.294	
11.155	-0.049	-0.239	
11.160	0.334	-0.156	
11.165	0.296	-0.044	
11.170	-0.385	0.044	
11.175	-0.636	0.028	
11.180	-0.572	-0.088	
11.185	-0.740	-0.245	
11.190	-0.830	-0.410	
11.195	-0.511	-0.549	
11.200	-0.391	-0.620	
11.205	-0.468	-0.622	
11.210	-0.197	-0.578	
11.215	0.148	-0.483	
11.220	-0.122	-0.348	
11.225	-0.104	-0.227	
11.230	0.314	-0.126	
11.235	0.160	-0.022	
11.240	-0.048	0.061	
11.245	0.409	0.112	
11.250	0.440	0.172	
11.255	0.032	0.231	
11.260	0.340	0.256	
11.265	0.634	0.284	
11.270	0.238	0.330	
11.275	0.293	0.356	
11.280	0.780	0.378	
11.285	0.641	0.434	
11.290	0.487	0.499	
11.295	1.060	0.562	
11.300	1.130	0.662	
11.305	0.730	0.776	
11.310	0.965	0.853	
11.315	1.132	0.908	
11.320	0.629	0.946	
11.325	0.501	0.923	
11.330	0.765	0.852	
11.335	0.307	0.768	
11.340	-0.109	0.643	
11.345	0.140	0.474	
11.350	0.047	0.313	
11.355	-0.301	0.173	
11.360	-0.165	0.039	
11.365	0.020	-0.062	
11.370	-0.265	-0.119	
11.375	-0.263	-0.160	
11.380	0.010	-0.187	
11.385	-0.164	-0.184	
11.390	-0.297	-0.177	
11.395	-0.077	-0.180	
11.400	-0.043	-0.170	
11.405	-0.252	-0.154	
11.410	-0.098	-0.147	
11.415	0.125	-0.131	
11.420	-0.197	-0.101	
11.425	-0.226	-0.091	
11.430	-0.042	-0.101	
11.435	-0.234	-0.112	
11.440	-0.350	-0.137	
11.445	-0.127	-0.173	
11.450	-0.142	-0.193	
11.455	-0.387	-0.204	
11.460	-0.252	-0.226	
11.465	-0.110	-0.241	
11.470	-0.332	-0.241	
11.475	-0.364	-0.249	
11.480	-0.136	-0.262	
11.485	-0.258	-0.262	
11.490	-0.304	-0.257	
11.495	0.204	-0.238	
11.500	0.435	-0.160	
11.505	-0.037	-0.044	
11.510	-0.101	0.033	
11.515	-0.263	0.042	
11.520	-0.677	-0.022	
11.525	-0.822	-0.162	
11.530	-0.605	-0.336	
11.535	-0.598	-0.481	
11.540	-0.610	-0.574	
11.545	-0.277	-0.611	
11.550	-0.147	-0.577	
11.555	-0.278	-0.493	
11.560	-0.063	-0.396	
11.565	0.244	-0.282	
11.570	-0.106	-0.160	
11.575	-0.124	-0.074	
11.580	0.301	-0.021	
11.585	0.169	0.039	
11.590	-0.022	0.090	
11.595	0.388	0.122	
11.600	0.377	0.167	
11.605	0.035	0.213	
11.610	0.305	0.231	
11.615	0.651	0.257	
11.620	0.331	0.312	
11.625	0.406	0.360	
11.630	0.918	0.413	
11.635	0.750	0.501	
11.640	0.522	0.587	
11.645	0.964	0.648	
11.650	0.967	0.717	
11.655	0.522	0.776	
11.660	0.719	0.787	
11.665	0.904	0.780	
11.670	0.348	0.765	
11.675	0.198	0.700	
11.680	0.457	0.594	
11.685	0.039	0.485	
11.690	-0.181	0.359	
11.695	0.160	0.223	
11.700	0.107	0.126	
11.705	-0.265	0.060	
11.710	-0.148	-0.009	
11.715	0.072	-0.065	
11.720	-0.220	-0.090	
11.725	-0.240	-0.114	
11.730	0.056	-0.135	
11.735	-0.119	-0.131	
11.740	-0.262	-0.126	
11.745	-0.005	-0.130	
11.750	0.090	-0.116	
11.755	-0.193	-0.089	
11.760	-0.022	-0.074	
11.765	0.218	-0.053	
11.770	-0.170	-0.022	
11.775	-0.210	-0.018	
11.780	-0.002	-0.040	
11.785	-0.200	-0.062	
11.790	-0.342	-0.096	
11.795	-0.106	-0.141	
11.800	-0.126	-0.168	
11.805	-0.346	-0.183	
11.810	-0.214	-0.204	
11.815	-0.061	-0.215	
11.820	-0.301	-0.211	
11.825	-0.324	-0.215	
11.830	-0.061	-0.224	
11.835	-0.127	-0.214	
11.840	-0.150	-0.191	
11.845	0.426	-0.144	
11.850	0.402	-0.044	
11.855	-0.226	0.060	
11.860	-0.339	0.082	
11.865	-0.394	0.018	
11.870	-0.698	-0.102	
11.875	-0.735	-0.258	
11.880	-0.442	-0.408	
11.885	-0.442	-0.501	
11.890	-0.486	-0.538	
11.895	-0.179	-0.531	
11.900	0.023	-0.467	
11.905	-0.165	-0.363	
11.910	0.079	-0.256	
11.915	0.374	-0.139	
11.920	0.026	-0.016	
11.925	0.065	0.070	
11.930	0.539	0.131	
11.935	0.281	0.203	
11.940	-0.013	0.251	
11.945	0.397	0.258	
11.950	0.406	0.269	
11.955	0.029	0.282	
11.960	0.380	0.275	
11.965	0.758	0.292	
11.970	0.424	0.354	
11.975	0.444	0.413	
11.980	0.935	0.470	
11.985	0.742	0.552	
11.990	0.441	0.623	
11.995	0.897	0.659	
12.000	0.878	0.698	
12.005	0.382	0.729	
12.010	0.570	0.712	
12.015	0.695	0.674	
12.020	0.200	0.631	
12.025	0.111	0.549	
12.030	0.415	0.446	
12.035	0.068	0.359	
12.040	-0.202	0.267	
12.045	0.024	0.158	
12.050	0.017	0.069	
12.055	-0.278	0.002	
12.060	-0.165	-0.064	
12.065	0.142	-0.106	
12.070	-0.129	-0.107	
12.075	-0.147	-0.101	
12.080	0.218	-0.088	
12.085	-0.013	-0.053	
12.090	-0.232	-0.028	
12.095	0.036	-0.030	
12.100	0.076	-0.030	
12.105	-0.257	-0.028	
12.110	-0.135	-0.048	
12.115	0.137	-0.067	
12.120	-0.184	-0.066	
12.125	-0.252	-0.075	
12.130	-0.068	-0.101	
12.135	-0.260	-0.125	
12.140	-0.370	-0.158	
12.145	-0.130	-0.197	
12.150	-0.061	-0.212	
12.155	-0.317	-0.206	
12.160	-0.222	-0.208	
12.165	-0.078	-0.209	
12.170	-0.323	-0.203	
12.175	-0.321	-0.211	
12.180	0.070	-0.217	
12.185	0.104	-0.184	
12.190	-0.020	-0.122	
12.195	0.279	-0.053	
12.200	-0.058	0.013	
12.205	-0.486	0.028	
12.210	-0.509	-0.041	
12.215	-0.462	-0.158	
12.220	-0.621	-0.281	
12.225	-0.543	-0.393	
12.230	-0.228	-0.465	
12.235	-0.269	-0.473	
12.240	-0.375	-0.442	
12.245	-0.118	-0.398	
12.250	0.049	-0.329	
12.255	-0.207	-0.244	
12.260	-0.049	-0.177	
12.265	0.282	-0.112	
12.270	-0.049	-0.038	
12.275	-0.057	0.011	
12.280	0.366	0.043	
12.285	0.056	0.084	
12.290	-0.138	0.105	
12.295	0.368	0.102	
12.300	0.486	0.132	
12.305	0.064	0.187	
12.310	0.322	0.223	
12.315	0.643	0.262	
12.320	0.259	0.319	
12.325	0.261	0.353	
12.330	0.857	0.381	
12.335	0.715	0.448	
12.340	0.368	0.521	
12.345	0.744	0.562	
12.350	0.715	0.597	
12.355	0.148	0.611	
12.360	0.230	0.562	
12.365	0.377	0.480	
12.370	-0.100	0.392	
12.375	-0.203	0.275	
12.380	0.073	0.147	
12.385	-0.106	0.049	
12.390	-0.263	-0.026	
12.395	-0.025	-0.089	
12.400	0.017	-0.117	
12.405	-0.257	-0.121	
12.410	-0.145	-0.130	
12.415	0.090	-0.132	
12.420	-0.185	-0.115	
12.425	-0.199	-0.108	
12.430	0.142	-0.105	
12.435	-0.081	-0.084	
12.440	-0.271	-0.071	
12.445	-0.043	-0.083	
12.450	-0.002	-0.090	
12.455	-0.260	-0.091	
12.460	-0.148	-0.105	
12.465	0.041	-0.117	
12.470	-0.245	-0.115	
12.475	-0.312	-0.128	
12.480	-0.106	-0.156	
12.485	-0.251	-0.177	
12.490	-0.420	-0.201	
12.495	-0.177	-0.235	
12.500	-0.109	-0.249	
12.505	-0.336	-0.244	
12.510	-0.242	-0.243	
12.515	-0.097	-0.240	
12.520	-0.306	-0.229	
12.525	-0.240	-0.225	
12.530	0.369	-0.200	
12.535	0.327	-0.113	
12.540	-0.103	-0.007	
12.545	-0.090	0.048	
12.550	-0.275	0.040	
12.555	-0.622	-0.029	
12.560	-0.573	-0.154	
12.565	-0.425	-0.289	
12.570	-0.501	-0.390	
12.575	-0.414	-0.453	
12.580	-0.087	-0.466	
12.585	-0.127	-0.419	
12.590	-0.237	-0.346	
12.595	0.108	-0.268	
12.600	0.175	-0.174	
12.605	-0.185	-0.082	
12.610	-0.057	-0.034	
12.615	0.266	-0.005	
12.620	-0.092	0.027	
12.625	-0.167	0.034	
12.630	0.279	0.025	
12.635	0.212	0.043	
12.640	-0.060	0.074	
12.645	0.368	0.097	
12.650	0.533	0.146	
12.655	0.140	0.216	
12.660	0.409	0.267	
12.665	0.774	0.322	
12.670	0.412	0.400	
12.675	0.311	0.452	
12.680	0.774	0.478	
12.685	0.618	0.517	
12.690	0.272	0.546	
12.695	0.567	0.539	
12.700	0.492	0.524	
12.705	0.036	0.493	
12.710	0.175	0.421	
12.715	0.438	0.346	
12.720	-0.035	0.292	
12.725	-0.110	0.223	
12.730	0.224	0.147	
12.735	-0.042	0.096	
12.740	-0.258	0.048	
12.745	-0.013	-0.011	
12.750	0.055	-0.049	
12.755	-0.208	-0.063	
12.760	-0.052	-0.078	
12.765	0.223	-0.075	
12.770	-0.107	-0.046	
12.775	-0.135	-0.030	
12.780	0.287	-0.020	
12.785	0.097	0.013	
12.790	-0.164	0.042	
12.795	0.124	0.043	
12.800	0.163	0.047	
12.805	-0.211	0.052	
12.810	-0.155	0.025	
12.815	0.001	-0.017	
12.820	-0.251	-0.052	
12.825	-0.304	-0.098	
12.830	-0.019	-0.142	
12.835	-0.136	-0.160	
12.840	-0.312	-0.167	
12.845	-0.074	-0.178	
12.850	-0.019	-0.173	
12.855	-0.312	-0.158	
12.860	-0.251	-0.162	
12.865	-0.006	-0.173	
12.870	-0.127	-0.164	
12.875	0.015	-0.141	
12.880	0.623	-0.079	
12.885	0.279	0.037	
12.890	-0.266	0.129	
12.895	-0.278	0.126	
12.900	-0.417	0.044	
12.905	-0.654	-0.086	
12.910	-0.537	-0.238	
12.915	-0.303	-0.363	
12.920	-0.410	-0.429	
12.925	-0.367	-0.451	
12.930	-0.040	-0.433	
12.935	-0.126	-0.371	
12.940	-0.228	-0.296	
12.945	0.180	-0.223	
12.950	0.285	-0.126	
12.955	-0.126	-0.027	
12.960	0.029	0.030	
12.965	0.431	0.069	
12.970	0.082	0.120	
12.975	0.012	0.151	
12.980	0.391	0.162	
12.985	0.259	0.185	
12.990	0.047	0.207	
12.995	0.515	0.220	
13.000	0.606	0.263	
13.005	0.163	0.323	
13.010	0.464	0.357	
13.015	0.863	0.398	
13.020	0.541	0.471	
13.025	0.484	0.532	
13.030	0.887	0.574	
13.035	0.620	0.622	
13.040	0.215	0.639	
13.045	0.568	0.604	
13.050	0.557	0.563	
13.055	-0.051	0.515	
13.060	0.062	0.420	
13.065	0.330	0.314	
13.070	-0.107	0.233	
13.075	-0.216	0.145	
13.080	0.084	0.054	
13.085	-0.109	-0.008	
13.090	-0.317	-0.058	
13.095	-0.092	-0.110	
13.100	-0.006	-0.139	
13.105	-0.257	-0.144	
13.110	-0.132	-0.150	
13.115	0.134	-0.143	
13.120	-0.173	-0.115	
13.125	-0.217	-0.100	
13.130	0.073	-0.099	
13.135	-0.066	-0.086	
13.140	-0.234	-0.078	
13.145	-0.009	-0.084	
13.150	0.013	-0.083	
13.155	-0.277	-0.079	
13.160	-0.229	-0.098	
13.165	-0.063	-0.126	
13.170	-0.281	-0.146	
13.175	-0.333	-0.173	
13.180	-0.081	-0.202	
13.185	-0.208	-0.211	
13.190	-0.393	-0.218	
13.195	-0.199	-0.236	
13.200	-0.168	-0.246	
13.205	-0.413	-0.249	
13.210	-0.306	-0.264	
13.215	0.012	-0.270	
13.220	-0.063	-0.239	
13.225	0.006	-0.184	
13.230	0.403	-0.107	
13.235	0.053	-0.010	
13.240	-0.410	0.045	
13.245	-0.428	0.008	
13.250	-0.518	-0.094	
13.255	-0.752	-0.229	
13.260	-0.627	-0.375	
13.265	-0.338	-0.486	
13.270	-0.404	-0.530	
13.275	-0.346	-0.522	
13.280	0.050	-0.470	
13.285	-0.046	-0.371	
13.290	-0.207	-0.266	
13.295	0.157	-0.179	
13.300	0.288	-0.085	
13.305	-0.046	0.009	
13.310	0.143	0.069	
13.315	0.490	0.120	
13.320	0.134	0.180	
13.325	0.053	0.214	
13.330	0.568	0.229	
13.335	0.383	0.266	
13.340	0.085	0.301	
13.345	0.618	0.317	
13.350	0.783	0.363	
13.355	0.365	0.437	
13.360	0.574	0.488	
13.365	0.961	0.538	
13.370	0.617	0.607	
13.375	0.528	0.654	
13.380	1.017	0.681	
13.385	0.823	0.725	
13.390	0.365	0.752	
13.395	0.592	0.726	
13.400	0.620	0.679	
13.405	0.053	0.618	
13.410	0.070	0.510	
13.415	0.307	0.386	
13.420	-0.109	0.281	
13.425	-0.220	0.171	
13.430	0.064	0.063	
13.435	-0.103	-0.011	
13.440	-0.284	-0.065	
13.445	-0.052	-0.113	
13.450	0.000	-0.133	
13.455	-0.300	-0.135	
13.460	-0.156	-0.146	
13.465	0.189	-0.144	
13.470	-0.135	-0.112	
13.475	-0.208	-0.089	
13.480	0.142	-0.080	
13.485	-0.017	-0.058	
13.490	-0.234	-0.043	
13.495	-0.005	-0.050	
13.500	0.039	-0.053	
13.505	-0.287	-0.055	
13.510	-0.246	-0.082	
13.515	-0.133	-0.122	
13.520	-0.326	-0.158	
13.525	-0.341	-0.198	
13.530	-0.074	-0.232	
13.535	-0.168	-0.235	
13.540	-0.362	-0.230	
13.545	-0.187	-0.234	
13.550	-0.165	-0.235	
13.555	-0.420	-0.235	
13.560	-0.294	-0.252	
13.565	0.130	-0.254	
13.570	0.096	-0.205	
13.575	0.082	-0.125	
13.580	0.258	-0.038	
13.585	-0.216	0.029	
13.590	-0.595	0.021	
13.595	-0.564	-0.077	
13.600	-0.588	-0.218	
13.605	-0.750	-0.362	
13.610	-0.555	-0.488	
13.615	-0.257	-0.558	
13.620	-0.346	-0.554	
13.625	-0.342	-0.510	
13.630	0.055	-0.439	
13.635	0.027	-0.333	
13.640	-0.177	-0.222	
13.645	0.146	-0.135	
13.650	0.304	-0.048	
13.655	-0.075	0.035	
13.660	0.099	0.081	
13.665	0.512	0.118	
13.670	0.159	0.173	
13.675	0.053	0.209	
13.680	0.586	0.228	
13.685	0.507	0.275	
13.690	0.203	0.330	
13.695	0.644	0.368	
13.700	0.829	0.426	
13.705	0.418	0.502	
13.710	0.547	0.548	
13.715	1.005	0.586	
13.720	0.779	0.650	
13.725	0.657	0.711	
13.730	1.075	0.755	
13.735	0.831	0.806	
13.740	0.267	0.820	
13.745	0.473	0.761	
13.750	0.499	0.670	
13.755	-0.052	0.568	
13.760	-0.037	0.429	
13.765	0.256	0.288	
13.770	-0.132	0.181	
13.775	-0.237	0.084	
13.780	0.038	-0.006	
13.785	-0.104	-0.061	
13.790	-0.321	-0.099	
13.795	-0.115	-0.140	
13.800	-0.005	-0.159	
13.805	-0.249	-0.157	
13.810	-0.153	-0.157	
13.815	0.133	-0.148	
13.820	-0.162	-0.118	
13.825	-0.240	-0.102	
13.830	0.075	-0.101	
13.835	-0.054	-0.089	
13.840	-0.278	-0.081	
13.845	-0.113	-0.095	
13.850	-0.084	-0.112	
13.855	-0.338	-0.128	
13.860	-0.268	-0.160	
13.865	-0.060	-0.189	
13.870	-0.301	-0.200	
13.875	-0.396	-0.218	
13.880	-0.159	-0.244	
13.885	-0.199	-0.254	
13.890	-0.365	-0.254	
13.895	-0.176	-0.259	
13.900	-0.148	-0.253	
13.905	-0.384	-0.243	
13.910	-0.220	-0.246	
13.915	0.319	-0.225	
13.920	0.212	-0.144	
13.925	0.017	-0.043	
13.930	0.119	0.032	
13.935	-0.329	0.059	
13.940	-0.731	0.003	
13.945	-0.697	-0.140	
13.950	-0.659	-0.313	
13.955	-0.767	-0.468	
13.960	-0.556	-0.585	
13.965	-0.258	-0.633	
13.970	-0.303	-0.604	
13.975	-0.232	-0.528	
13.980	0.250	-0.418	
13.985	0.198	-0.265	
13.990	-0.086	-0.115	
13.995	0.282	-0.005	
14.000	0.402	0.090	
14.005	-0.055	0.168	
14.010	0.117	0.194	
14.015	0.548	0.205	
14.020	0.221	0.238	
14.025	0.116	0.262	
14.030	0.638	0.276	
14.035	0.518	0.320	
14.040	0.195	0.368	
14.045	0.753	0.401	
14.050	1.020	0.469	
14.055	0.631	0.573	
14.060	0.817	0.662	
14.065	1.226	0.745	
14.070	0.842	0.837	
14.075	0.591	0.890	
14.080	1.083	0.895	
14.085	0.936	0.903	
14.090	0.418	0.895	
14.095	0.620	0.837	
14.100	0.596	0.758	
14.105	-0.025	0.661	
14.110	-0.052	0.515	
14.115	0.215	0.352	
14.120	-0.136	0.218	
14.125	-0.251	0.097	
14.130	-0.034	-0.011	
14.135	-0.126	-0.082	
14.140	-0.260	-0.128	
14.145	-0.002	-0.156	
14.150	0.122	-0.148	
14.155	-0.216	-0.115	
14.160	-0.161	-0.100	
14.165	0.107	-0.094	
14.170	-0.130	-0.077	
14.175	-0.194	-0.070	
14.180	0.177	-0.070	
14.185	0.052	-0.047	
14.190	-0.217	-0.024	
14.195	-0.020	-0.027	
14.200	0.017	-0.035	
14.205	-0.294	-0.045	
14.210	-0.225	-0.078	
14.215	-0.009	-0.115	
14.220	-0.254	-0.135	
14.225	-0.368	-0.161	
14.230	-0.110	-0.194	
14.235	-0.155	-0.209	
14.240	-0.352	-0.214	
14.245	-0.187	-0.225	
14.250	-0.150	-0.229	
14.255	-0.387	-0.229	
14.260	-0.255	-0.241	
14.265	0.311	-0.230	
14.270	0.331	-0.150	
14.275	0.174	-0.029	
14.280	0.318	0.081	
14.285	-0.208	0.148	
14.290	-0.627	0.120	
14.295	-0.621	-0.012	
14.300	-0.604	-0.188	
14.305	-0.738	-0.359	
14.310	-0.559	-0.498	
14.315	-0.234	-0.571	
14.320	-0.283	-0.562	
14.325	-0.269	-0.503	
14.330	0.142	-0.413	
14.335	0.088	-0.287	
14.340	-0.155	-0.165	
14.345	0.217	-0.075	
14.350	0.415	0.016	
14.355	-0.040	0.104	
14.360	0.085	0.147	
14.365	0.545	0.173	
14.370	0.217	0.217	
14.375	0.052	0.247	
14.380	0.588	0.258	
14.385	0.551	0.298	
14.390	0.240	0.351	
14.395	0.690	0.392	
14.400	0.906	0.457	
14.405	0.504	0.543	
14.410	0.727	0.607	
14.415	1.208	0.672	
14.420	0.870	0.766	
14.425	0.657	0.837	
14.430	1.071	0.867	
14.435	0.851	0.891	
14.440	0.299	0.879	
14.445	0.473	0.800	
14.450	0.464	0.693	
14.455	-0.116	0.571	
14.460	-0.129	0.411	
14.465	0.075	0.242	
14.470	-0.228	0.105	
14.475	-0.356	-0.016	
14.480	-0.129	-0.122	
14.485	-0.210	-0.189	
14.490	-0.391	-0.231	
14.495	-0.161	-0.262	
14.500	-0.048	-0.264	
14.505	-0.306	-0.242	
14.510	-0.228	-0.228	
14.515	0.020	-0.213	
14.520	-0.217	-0.185	
14.525	-0.326	-0.171	
14.530	-0.069	-0.176	
14.535	-0.106	-0.172	
14.540	-0.307	-0.166	
14.545	-0.132	-0.171	
14.550	-0.075	-0.172	
14.555	-0.332	-0.169	
14.560	-0.303	-0.185	
14.565	-0.126	-0.207	
14.570	-0.327	-0.221	
14.575	-0.433	-0.242	
14.580	-0.205	-0.273	
14.585	-0.252	-0.288	
14.590	-0.453	-0.296	
14.595	-0.280	-0.312	
14.600	-0.202	-0.318	
14.605	-0.446	-0.314	
14.610	-0.370	-0.322	
14.615	-0.051	-0.324	
14.620	-0.107	-0.291	
14.625	-0.042	-0.236	
14.630	0.408	-0.155	
14.635	-0.089	-0.055	
14.640	-0.549	-0.010	
14.645	-0.562	-0.067	
14.650	-0.576	-0.187	
14.655	-0.779	-0.326	
14.660	-0.636	-0.462	
14.665	-0.298	-0.552	
14.670	-0.336	-0.567	
14.675	-0.333	-0.530	
14.680	-0.019	-0.461	
14.685	0.052	-0.357	
14.690	-0.135	-0.242	
14.695	0.258	-0.139	
14.700	0.443	-0.025	
14.705	0.024	0.090	
14.710	0.146	0.159	
14.715	0.573	0.205	
14.720	0.269	0.261	
14.725	0.101	0.297	
14.730	0.585	0.308	
14.735	0.446	0.336	
14.740	0.146	0.363	
14.745	0.623	0.372	
14.750	0.904	0.413	
14.755	0.486	0.492	
14.760	0.625	0.555	
14.765	1.104	0.615	
14.770	0.822	0.699	
14.775	0.626	0.768	
14.780	1.045	0.803	
14.785	0.870	0.838	
14.790	0.379	0.846	
14.795	0.605	0.797	
14.800	0.658	0.730	
14.805	0.061	0.653	
14.810	0.020	0.532	
14.815	0.255	0.391	
14.820	-0.126	0.268	
14.825	-0.245	0.147	
14.830	0.046	0.034	
14.835	-0.071	-0.038	
14.840	-0.298	-0.085	
14.845	-0.098	-0.127	
14.850	0.061	-0.145	
14.855	-0.229	-0.136	
14.860	-0.171	-0.133	
14.865	0.111	-0.128	
14.870	-0.165	-0.107	
14.875	-0.252	-0.099	
14.880	0.035	-0.106	
14.885	-0.006	-0.099	
14.890	-0.219	-0.086	
14.895	-0.049	-0.086	
14.900	0.064	-0.083	
14.905	-0.243	-0.073	
14.910	-0.205	-0.084	
14.915	0.012	-0.103	
14.920	-0.223	-0.112	
14.925	-0.339	-0.132	
14.930	-0.116	-0.164	
14.935	-0.191	-0.185	
14.940	-0.384	-0.202	
14.945	-0.194	-0.226	
14.950	-0.116	-0.237	
14.955	-0.388	-0.237	
14.960	-0.367	-0.251	
14.965	-0.092	-0.267	
14.970	-0.148	-0.259	
14.975	-0.072	-0.228	
14.980	0.461	-0.163	
14.985	0.227	-0.051	
14.990	-0.318	0.041	
14.995	-0.359	0.043	
15.000	-0.426	-0.031	
15.005	-0.715	-0.151	
15.010	-0.665	-0.298	
15.015	-0.381	-0.428	
15.020	-0.417	-0.497	
15.025	-0.419	-0.515	
15.030	-0.092	-0.491	
15.035	-0.080	-0.420	
15.040	-0.217	-0.329	
15.045	0.087	-0.244	
15.050	0.292	-0.145	
15.055	-0.098	-0.043	
15.060	-0.057	0.016	
15.065	0.337	0.049	
15.070	0.082	0.088	
15.075	-0.075	0.110	
15.080	0.397	0.116	
15.085	0.356	0.147	
15.090	0.072	0.190	
15.095	0.513	0.222	
15.100	0.741	0.282	
15.105	0.327	0.367	
15.110	0.426	0.424	
15.115	0.834	0.467	
15.120	0.571	0.525	
15.125	0.383	0.566	
15.130	0.828	0.581	
15.135	0.719	0.609	
15.140	0.266	0.627	
15.145	0.527	0.602	
15.150	0.596	0.567	
15.155	-0.008	0.524	
15.160	-0.042	0.431	
15.165	0.226	0.312	
15.170	-0.159	0.207	
15.175	-0.283	0.100	
15.180	-0.009	-0.005	
15.185	-0.100	-0.074	
15.190	-0.361	-0.121	
15.195	-0.174	-0.167	
15.200	-0.005	-0.192	
15.205	-0.258	-0.190	
15.210	-0.208	-0.187	
15.215	0.070	-0.179	
15.220	-0.188	-0.154	
15.225	-0.309	-0.142	
15.230	-0.025	-0.148	
15.235	-0.058	-0.143	
15.240	-0.278	-0.133	
15.245	-0.112	-0.138	
15.250	0.070	-0.134	
15.255	-0.246	-0.118	
15.260	-0.245	-0.119	
15.265	-0.069	-0.135	
15.270	-0.263	-0.147	
15.275	-0.358	-0.170	
15.280	-0.116	-0.201	
15.285	-0.199	-0.215	
15.290	-0.417	-0.225	
15.295	-0.245	-0.248	
15.300	-0.135	-0.261	
15.305	-0.378	-0.261	
15.310	-0.362	-0.270	
15.315	-0.144	-0.282	
15.320	-0.252	-0.278	
15.325	-0.197	-0.264	
15.330	0.423	-0.218	
15.335	0.272	-0.113	
15.340	-0.286	-0.009	
15.345	-0.324	0.015	
15.350	-0.417	-0.039	
15.355	-0.753	-0.146	
15.360	-0.717	-0.294	
15.365	-0.420	-0.432	
15.370	-0.465	-0.514	
15.375	-0.468	-0.543	
15.380	-0.150	-0.529	
15.385	-0.107	-0.465	
15.390	-0.280	-0.377	
15.395	-0.032	-0.297	
15.400	0.211	-0.208	
15.405	-0.158	-0.116	
15.410	-0.100	-0.059	
15.415	0.288	-0.023	
15.420	-0.043	0.019	
15.425	-0.168	0.038	
15.430	0.266	0.035	
15.435	0.255	0.055	
15.440	-0.026	0.090	
15.445	0.391	0.118	
15.450	0.625	0.173	
15.455	0.194	0.253	
15.460	0.270	0.305	
15.465	0.748	0.343	
15.470	0.519	0.403	
15.475	0.310	0.455	
15.480	0.808	0.487	
15.485	0.761	0.536	
15.490	0.275	0.582	
15.495	0.505	0.581	
15.500	0.537	0.557	
15.505	-0.084	0.512	
15.510	-0.028	0.411	
15.515	0.354	0.295	
15.520	-0.057	0.213	
15.525	-0.248	0.132	
15.530	-0.006	0.043	
15.535	-0.090	-0.025	
15.540	-0.344	-0.079	
15.545	-0.197	-0.135	
15.550	-0.083	-0.176	
15.555	-0.335	-0.196	
15.560	-0.323	-0.219	
15.565	-0.112	-0.240	
15.570	-0.243	-0.243	
15.575	-0.350	-0.243	
15.580	-0.118	-0.247	
15.585	-0.126	-0.237	
15.590	-0.304	-0.219	
15.595	-0.116	-0.209	
15.600	-0.002	-0.190	
15.605	-0.258	-0.163	
15.610	-0.249	-0.156	
15.615	-0.063	-0.161	
15.620	-0.283	-0.164	
15.625	-0.387	-0.182	
15.630	-0.174	-0.214	
15.635	-0.237	-0.235	
15.640	-0.446	-0.253	
15.645	-0.287	-0.280	
15.650	-0.196	-0.298	
15.655	-0.442	-0.304	
15.660	-0.414	-0.319	
15.665	-0.216	-0.337	
15.670	-0.317	-0.337	
15.675	-0.292	-0.327	
15.680	0.314	-0.289	
15.685	0.424	-0.182	
15.690	-0.138	-0.048	
15.695	-0.219	0.023	
15.700	-0.347	0.011	
15.705	-0.705	-0.071	
15.710	-0.747	-0.214	
15.715	-0.500	-0.369	
15.720	-0.530	-0.483	
15.725	-0.524	-0.545	
15.730	-0.223	-0.559	
15.735	-0.193	-0.516	
15.740	-0.309	-0.442	
15.745	-0.025	-0.363	
15.750	0.240	-0.262	
15.755	-0.132	-0.149	
15.760	-0.080	-0.071	
15.765	0.342	-0.017	
15.770	0.067	0.043	
15.775	-0.113	0.082	
15.780	0.295	0.092	
15.785	0.238	0.113	
15.790	-0.097	0.133	
15.795	0.369	0.138	
15.800	0.699	0.177	
15.805	0.316	0.259	
15.810	0.432	0.333	
15.815	0.922	0.405	
15.820	0.643	0.501	
15.825	0.446	0.578	
15.830	0.900	0.621	
15.835	0.845	0.670	
15.840	0.402	0.709	
15.845	0.618	0.702	
15.850	0.672	0.675	
15.855	0.169	0.636	
15.860	0.142	0.552	
15.865	0.420	0.450	
15.870	-0.022	0.360	
15.875	-0.216	0.257	
15.880	0.072	0.142	
15.885	-0.058	0.053	
15.890	-0.324	-0.018	
15.895	-0.173	-0.090	
15.900	-0.068	-0.143	
15.905	-0.324	-0.172	
15.910	-0.295	-0.201	
15.915	-0.019	-0.221	
15.920	-0.179	-0.214	
15.925	-0.292	-0.202	
15.930	0.001	-0.194	
15.935	-0.048	-0.170	
15.940	-0.265	-0.143	
15.945	-0.058	-0.133	
15.950	0.134	-0.115	
15.955	-0.229	-0.085	
15.960	-0.236	-0.081	
15.965	0.050	-0.094	
15.970	-0.188	-0.098	
15.975	-0.327	-0.112	
15.980	-0.133	-0.143	
15.985	-0.220	-0.170	
15.990	-0.428	-0.198	
15.995	-0.228	-0.235	
16.000	-0.104	-0.256	
16.005	-0.362	-0.255	
16.010	-0.332	-0.262	
16.015	-0.095	-0.268	
16.020	-0.284	-0.259	
16.025	-0.333	-0.253	
16.030	0.172	-0.239	
16.035	0.388	-0.170	
16.040	0.017	-0.060	
16.045	0.052	0.027	
16.050	-0.168	0.063	
16.055	-0.602	0.028	
16.060	-0.711	-0.091	
16.065	-0.535	-0.250	
16.070	-0.611	-0.393	
16.075	-0.630	-0.501	
16.080	-0.265	-0.560	
16.085	-0.156	-0.546	
16.090	-0.278	-0.478	
16.095	0.020	-0.389	
16.100	0.322	-0.269	
16.105	-0.074	-0.133	
16.110	-0.058	-0.037	
16.115	0.351	0.025	
16.120	0.127	0.086	
16.125	-0.049	0.126	
16.130	0.479	0.146	
16.135	0.447	0.191	
16.140	0.044	0.244	
16.145	0.427	0.269	
16.150	0.742	0.307	
16.155	0.360	0.374	
16.160	0.441	0.426	
16.165	0.950	0.474	
16.170	0.745	0.553	
16.175	0.571	0.628	
16.180	1.020	0.684	
16.185	0.962	0.750	
16.190	0.537	0.804	
16.195	0.875	0.817	
16.200	1.055	0.827	
16.205	0.463	0.838	
16.210	0.351	0.797	
16.215	0.623	0.712	
16.220	0.226	0.623	
16.225	-0.092	0.509	
16.230	0.235	0.372	
16.235	0.068	0.257	
16.240	-0.246	0.159	
16.245	-0.116	0.056	
16.250	-0.014	-0.028	
16.255	-0.280	-0.083	
16.260	-0.223	-0.132	
16.265	0.124	-0.159	
16.270	-0.138	-0.149	
16.275	-0.255	-0.135	
16.280	0.085	-0.129	
16.285	0.044	-0.104	
16.290	-0.246	-0.076	
16.295	-0.060	-0.072	
16.300	0.136	-0.067	
16.305	-0.210	-0.052	
16.310	-0.184	-0.057	
16.315	0.171	-0.067	
16.320	-0.101	-0.057	
16.325	-0.284	-0.057	
16.330	-0.072	-0.080	
16.335	-0.113	-0.102	
16.340	-0.359	-0.124	
16.345	-0.226	-0.161	
16.350	-0.122	-0.192	
16.355	-0.338	-0.210	
16.360	-0.317	-0.231	
16.365	-0.103	-0.248	
16.370	-0.306	-0.249	
16.375	-0.370	-0.254	
16.380	0.000	-0.257	
16.385	0.236	-0.218	
16.390	0.096	-0.132	
16.395	0.406	-0.027	
16.400	0.307	0.086	
16.405	-0.390	0.154	
16.410	-0.617	0.109	
16.415	-0.530	-0.032	
16.420	-0.680	-0.205	
16.425	-0.718	-0.372	
16.430	-0.385	-0.501	
16.435	-0.306	-0.555	
16.440	-0.398	-0.543	
16.445	-0.142	-0.495	
16.450	0.227	-0.401	
16.455	-0.057	-0.268	
16.460	0.030	-0.147	
16.465	0.469	-0.039	
16.470	0.208	0.076	
16.475	-0.013	0.159	
16.480	0.457	0.199	
16.485	0.424	0.244	
16.490	0.049	0.283	
16.495	0.440	0.295	
16.500	0.693	0.321	
16.505	0.296	0.372	
16.510	0.420	0.408	
16.515	0.930	0.445	
16.520	0.675	0.518	
16.525	0.542	0.588	
16.530	1.126	0.647	
16.535	1.161	0.739	
16.540	0.727	0.841	
16.545	0.991	0.902	
16.550	1.159	0.944	
16.555	0.625	0.972	
16.560	0.507	0.941	
16.565	0.806	0.865	
16.570	0.379	0.783	
16.575	-0.003	0.670	
16.580	0.285	0.521	
16.585	0.127	0.384	
16.590	-0.236	0.260	
16.595	-0.095	0.130	
16.600	0.055	0.025	
16.605	-0.239	-0.041	
16.610	-0.251	-0.097	
16.615	0.020	-0.140	
16.620	-0.170	-0.153	
16.625	-0.315	-0.160	
16.630	-0.081	-0.175	
16.635	-0.075	-0.176	
16.640	-0.286	-0.167	
16.645	-0.122	-0.168	
16.650	0.087	-0.158	
16.655	-0.228	-0.132	
16.660	-0.202	-0.121	
16.665	0.215	-0.113	
16.670	-0.048	-0.079	
16.675	-0.219	-0.053	
16.680	-0.008	-0.053	
16.685	-0.112	-0.059	
16.690	-0.359	-0.079	
16.695	-0.225	-0.122	
16.700	-0.100	-0.163	
16.705	-0.346	-0.189	
16.710	-0.327	-0.218	
16.715	-0.074	-0.242	
16.720	-0.249	-0.242	
16.725	-0.394	-0.242	
16.730	-0.171	-0.253	
16.735	-0.155	-0.253	
16.740	-0.265	-0.241	
16.745	0.340	-0.206	
16.750	0.768	-0.096	
16.755	0.108	0.067	
16.760	-0.258	0.168	
16.765	-0.327	0.153	
16.770	-0.616	0.047	
16.775	-0.772	-0.121	
16.780	-0.527	-0.306	
16.785	-0.442	-0.445	
16.790	-0.523	-0.520	
16.795	-0.271	-0.542	
16.800	0.035	-0.501	
16.805	-0.155	-0.404	
16.810	-0.084	-0.299	
16.815	0.363	-0.190	
16.820	0.139	-0.065	
16.825	0.009	0.038	
16.830	0.484	0.111	
16.835	0.487	0.194	
16.840	0.116	0.272	
16.845	0.423	0.313	
16.850	0.698	0.351	
16.855	0.336	0.405	
16.860	0.420	0.439	
16.865	0.936	0.472	
16.870	0.768	0.543	
16.875	0.612	0.620	
16.880	1.126	0.687	
16.885	1.185	0.780	
16.890	0.823	0.881	
16.895	1.162	0.952	
16.900	1.390	1.021	
16.905	0.898	1.090	
16.910	0.788	1.106	
16.915	1.058	1.073	
16.920	0.617	1.021	
16.925	0.131	0.919	
16.930	0.490	0.762	
16.935	0.354	0.612	
16.940	-0.129	0.475	
16.945	-0.013	0.323	
16.950	0.105	0.187	
16.955	-0.257	0.083	
16.960	-0.257	-0.014	
16.965	-0.003	-0.095	
16.970	-0.194	-0.139	
16.975	-0.303	-0.166	
16.980	-0.028	-0.188	
16.985	-0.066	-0.183	
16.990	-0.272	-0.167	
16.995	-0.072	-0.160	
17.000	0.130	-0.140	
17.005	-0.190	-0.104	
17.010	-0.155	-0.086	
17.015	0.192	-0.076	
17.020	-0.071	-0.049	
17.025	-0.243	-0.036	
17.030	0.061	-0.046	
17.035	0.007	-0.047	
17.040	-0.278	-0.049	
17.045	-0.155	-0.073	
17.050	-0.054	-0.101	
17.055	-0.342	-0.124	
17.060	-0.346	-0.162	
17.065	-0.057	-0.202	
17.070	-0.211	-0.215	
17.075	-0.341	-0.219	
17.080	-0.132	-0.228	
17.085	-0.168	-0.226	
17.090	-0.388	-0.223	
17.095	-0.153	-0.231	
17.100	0.330	-0.209	
17.105	0.252	-0.125	
17.110	0.304	-0.008	
17.115	0.362	0.107	
17.120	-0.287	0.178	
17.125	-0.648	0.141	
17.130	-0.576	-0.003	
17.135	-0.610	-0.185	
17.140	-0.744	-0.357	
17.145	-0.453	-0.494	
17.150	-0.168	-0.554	
17.155	-0.281	-0.530	
17.160	-0.170	-0.463	
17.165	0.325	-0.358	
17.170	0.124	-0.212	
17.175	-0.074	-0.078	
17.180	0.374	0.018	
17.185	0.357	0.110	
17.190	-0.028	0.183	
17.195	0.305	0.214	
17.200	0.600	0.244	
17.205	0.165	0.291	
17.210	0.230	0.314	
17.215	0.750	0.330	
17.220	0.537	0.382	
17.225	0.322	0.436	
17.230	0.881	0.478	
17.235	0.945	0.550	
17.240	0.563	0.637	
17.245	0.884	0.699	
17.250	1.159	0.762	
17.255	0.776	0.836	
17.260	0.765	0.878	
17.265	1.107	0.894	
17.270	0.706	0.907	
17.275	0.351	0.879	
17.280	0.667	0.798	
17.285	0.461	0.710	
17.290	-0.092	0.605	
17.295	0.004	0.455	
17.300	0.156	0.300	
17.305	-0.226	0.173	
17.310	-0.263	0.053	
17.315	-0.031	-0.052	
17.320	-0.208	-0.119	
17.325	-0.352	-0.167	
17.330	-0.115	-0.207	
17.335	-0.138	-0.221	
17.340	-0.358	-0.222	
17.345	-0.197	-0.230	
17.350	-0.066	-0.229	
17.355	-0.294	-0.215	
17.360	-0.251	-0.210	
17.365	0.088	-0.202	
17.370	-0.095	-0.168	
17.375	-0.245	-0.137	
17.380	0.035	-0.121	
17.385	-0.002	-0.099	
17.390	-0.291	-0.082	
17.395	-0.182	-0.094	
17.400	-0.058	-0.115	
17.405	-0.320	-0.133	
17.410	-0.341	-0.165	
17.415	-0.150	-0.204	
17.420	-0.294	-0.228	
17.425	-0.405	-0.251	
17.430	-0.176	-0.275	
17.435	-0.203	-0.280	
17.440	-0.411	-0.277	
17.445	-0.260	-0.284	
17.450	-0.103	-0.282	
17.455	-0.266	-0.263	
17.460	-0.113	-0.240	
17.465	0.574	-0.180	
17.470	0.302	-0.056	
17.475	-0.217	0.060	
17.480	-0.275	0.087	
17.485	-0.497	0.026	
17.490	-0.810	-0.105	
17.495	-0.705	-0.280	
17.500	-0.546	-0.442	
17.505	-0.614	-0.551	
17.510	-0.454	-0.606	
17.515	-0.119	-0.597	
17.520	-0.155	-0.521	
17.525	-0.205	-0.417	
17.530	0.206	-0.306	
17.535	0.200	-0.176	
17.540	-0.130	-0.057	
17.545	0.156	0.016	
17.550	0.402	0.076	
17.555	-0.023	0.134	
17.560	0.030	0.156	
17.565	0.457	0.161	
17.570	0.230	0.188	
17.575	0.082	0.212	
17.580	0.600	0.231	
17.585	0.651	0.287	
17.590	0.318	0.364	
17.595	0.672	0.425	
17.600	0.979	0.498	
17.605	0.611	0.592	
17.610	0.672	0.661	
17.615	1.112	0.715	
17.620	0.797	0.780	
17.625	0.461	0.814	
17.630	0.848	0.799	
17.635	0.702	0.776	
17.640	0.105	0.730	
17.645	0.240	0.626	
17.650	0.308	0.501	
17.655	-0.165	0.378	
17.660	-0.179	0.239	
17.665	0.119	0.108	
17.670	-0.145	0.019	
17.675	-0.313	-0.050	
17.680	-0.084	-0.115	
17.685	-0.116	-0.153	
17.690	-0.338	-0.174	
17.695	-0.187	-0.197	
17.700	-0.037	-0.207	
17.705	-0.303	-0.199	
17.710	-0.294	-0.202	
17.715	0.004	-0.207	
17.720	-0.106	-0.189	
17.725	-0.222	-0.165	
17.730	0.096	-0.144	
17.735	0.055	-0.106	
17.740	-0.263	-0.070	
17.745	-0.145	-0.068	
17.750	0.042	-0.078	
17.755	-0.251	-0.083	
17.760	-0.291	-0.105	
17.765	-0.109	-0.139	
17.770	-0.292	-0.168	
17.775	-0.417	-0.202	
17.780	-0.148	-0.240	
17.785	-0.132	-0.254	
17.790	-0.388	-0.251	
17.795	-0.274	-0.257	
17.800	-0.104	-0.261	
17.805	-0.341	-0.253	
17.810	-0.327	-0.253	
17.815	0.035	-0.251	
17.820	-0.005	-0.216	
17.825	-0.031	-0.159	
17.830	0.314	-0.090	
17.835	-0.029	-0.014	
17.840	-0.503	0.015	
17.845	-0.555	-0.047	
17.850	-0.518	-0.167	
17.855	-0.698	-0.301	
17.860	-0.627	-0.428	
17.865	-0.329	-0.517	
17.870	-0.375	-0.542	
17.875	-0.379	-0.521	
17.880	-0.054	-0.470	
17.885	0.156	-0.373	
17.890	-0.109	-0.250	
17.895	0.143	-0.139	
17.900	0.398	-0.033	
17.905	0.000	0.069	
17.910	0.027	0.126	
17.915	0.453	0.154	
17.920	0.233	0.194	
17.925	-0.016	0.219	
17.930	0.431	0.220	
17.935	0.563	0.245	
17.940	0.211	0.294	
17.945	0.516	0.333	
17.950	0.826	0.386	
17.955	0.431	0.461	
17.960	0.466	0.512	
17.965	0.996	0.551	
17.970	0.791	0.619	
17.975	0.574	0.683	
17.980	0.987	0.724	
17.985	0.910	0.770	
17.990	0.366	0.797	
17.995	0.502	0.762	
18.000	0.591	0.695	
18.005	0.041	0.613	
18.010	-0.037	0.489	
18.015	0.281	0.349	
18.020	-0.042	0.238	
18.025	-0.237	0.138	
18.030	0.001	0.040	
18.035	-0.025	-0.028	
18.040	-0.281	-0.072	
18.045	-0.135	-0.113	
18.050	0.056	-0.135	
18.055	-0.243	-0.134	
18.060	-0.252	-0.140	
18.065	0.027	-0.150	
18.070	-0.093	-0.141	
18.075	-0.208	-0.127	
18.080	0.113	-0.116	
18.085	0.087	-0.084	
18.090	-0.220	-0.049	
18.095	-0.077	-0.043	
18.100	0.188	-0.041	
18.105	-0.165	-0.026	
18.110	-0.197	-0.030	
18.115	0.042	-0.050	
18.120	-0.165	-0.063	
18.125	-0.313	-0.086	
18.130	-0.109	-0.123	
18.135	-0.126	-0.149	
18.140	-0.349	-0.167	
18.145	-0.222	-0.193	
18.150	-0.063	-0.210	
18.155	-0.286	-0.208	
18.160	-0.298	-0.212	
18.165	-0.072	-0.219	
18.170	-0.196	-0.212	
18.175	-0.260	-0.202	
18.180	0.270	-0.181	
18.185	0.478	-0.102	
18.190	-0.052	0.010	
18.195	-0.129	0.074	
18.200	-0.260	0.066	
18.205	-0.660	-0.011	
18.210	-0.717	-0.152	
18.215	-0.504	-0.314	
18.220	-0.526	-0.439	
18.225	-0.515	-0.515	
18.230	-0.187	-0.538	
18.235	-0.066	-0.494	
18.240	-0.239	-0.407	
18.245	-0.016	-0.315	
18.250	0.345	-0.208	
18.255	-0.055	-0.088	
18.260	-0.049	-0.005	
18.265	0.475	0.052	
18.270	0.250	0.123	
18.275	-0.020	0.180	
18.280	0.379	0.202	
18.285	0.363	0.226	
18.290	0.030	0.248	
18.295	0.391	0.251	
18.300	0.701	0.276	
18.305	0.385	0.338	
18.310	0.457	0.395	
18.315	0.956	0.454	
18.320	0.765	0.544	
18.325	0.557	0.628	
18.330	1.026	0.688	
18.335	1.010	0.757	
18.340	0.533	0.817	
18.345	0.722	0.824	
18.350	0.892	0.808	
18.355	0.336	0.782	
18.360	0.162	0.705	
18.365	0.444	0.588	
18.370	0.017	0.471	
18.375	-0.262	0.336	
18.380	0.012	0.185	
18.385	-0.020	0.065	
18.390	-0.281	-0.020	
18.395	-0.165	-0.093	
18.400	-0.017	-0.141	
18.405	-0.284	-0.161	
18.410	-0.275	-0.180	
18.415	0.030	-0.194	
18.420	-0.136	-0.181	
18.425	-0.291	-0.166	
18.430	-0.060	-0.164	
18.435	-0.129	-0.157	
18.440	-0.333	-0.155	
18.445	-0.132	-0.168	
18.450	0.125	-0.165	
18.455	-0.171	-0.136	
18.460	-0.200	-0.116	
18.465	0.070	-0.107	
18.470	-0.152	-0.093	
18.475	-0.338	-0.096	
18.480	-0.144	-0.124	
18.485	-0.165	-0.151	
18.490	-0.402	-0.177	
18.495	-0.283	-0.215	
18.500	-0.135	-0.245	
18.505	-0.353	-0.256	
18.510	-0.373	-0.270	
18.515	-0.144	-0.285	
18.520	-0.262	-0.282	
18.525	-0.411	-0.278	
18.530	-0.144	-0.282	
18.535	-0.019	-0.265	
18.540	-0.100	-0.220	
18.545	0.285	-0.155	
18.550	0.333	-0.057	
18.555	-0.349	0.030	
18.560	-0.619	0.021	
18.565	-0.564	-0.086	
18.570	-0.727	-0.237	
18.575	-0.801	-0.398	
18.580	-0.506	-0.534	
18.585	-0.371	-0.603	
18.590	-0.442	-0.604	
18.595	-0.210	-0.561	
18.600	0.084	-0.472	
18.605	-0.155	-0.350	
18.610	-0.127	-0.242	
18.615	0.293	-0.149	
18.620	0.090	-0.051	
18.625	-0.089	0.025	
18.630	0.325	0.068	
18.635	0.351	0.119	
18.640	-0.009	0.169	
18.645	0.292	0.191	
18.650	0.617	0.222	
18.655	0.253	0.278	
18.660	0.290	0.319	
18.665	0.793	0.356	
18.670	0.629	0.424	
18.675	0.453	0.494	
18.680	0.964	0.553	
18.685	1.002	0.636	
18.690	0.573	0.723	
18.695	0.840	0.770	
18.700	1.072	0.804	
18.705	0.605	0.838	
18.710	0.487	0.828	
18.715	0.777	0.779	
18.720	0.305	0.719	
18.725	-0.069	0.618	
18.730	0.206	0.471	
18.735	0.042	0.330	
18.740	-0.301	0.199	
18.745	-0.152	0.065	
18.750	0.007	-0.040	
18.755	-0.280	-0.104	
18.760	-0.301	-0.155	
18.765	-0.051	-0.195	
18.770	-0.202	-0.207	
18.775	-0.349	-0.211	
18.780	-0.127	-0.222	
18.785	-0.084	-0.218	
18.790	-0.297	-0.203	
18.795	-0.153	-0.197	
18.800	0.035	-0.183	
18.805	-0.249	-0.158	
18.810	-0.262	-0.150	
18.815	0.017	-0.153	
18.820	-0.136	-0.144	
18.825	-0.257	-0.136	
18.830	0.026	-0.136	
18.835	-0.035	-0.122	
18.840	-0.350	-0.111	
18.845	-0.269	-0.131	
18.850	-0.138	-0.164	
18.855	-0.353	-0.192	
18.860	-0.381	-0.226	
18.865	-0.153	-0.260	
18.870	-0.286	-0.274	
18.875	-0.463	-0.285	
18.880	-0.300	-0.307	
18.885	-0.249	-0.322	
18.890	-0.419	-0.326	
18.895	-0.196	-0.327	
18.900	0.325	-0.290	
18.905	0.214	-0.187	
18.910	0.130	-0.061	
18.915	0.107	0.039	
18.920	-0.419	0.077	
18.925	-0.779	0.012	
18.930	-0.689	-0.145	
18.935	-0.656	-0.325	
18.940	-0.766	-0.482	
18.945	-0.535	-0.595	
18.950	-0.271	-0.638	
18.955	-0.352	-0.608	
18.960	-0.251	-0.537	
18.965	0.201	-0.433	
18.970	0.027	-0.294	
18.975	-0.147	-0.166	
18.980	0.247	-0.074	
18.985	0.240	0.013	
18.990	-0.122	0.081	
18.995	0.122	0.104	
19.000	0.427	0.122	
19.005	0.061	0.156	
19.010	0.140	0.176	
19.015	0.661	0.200	
19.020	0.479	0.264	
19.025	0.275	0.334	
19.030	0.776	0.390	
19.035	0.848	0.469	
19.040	0.482	0.558	
19.045	0.867	0.622	
19.050	1.233	0.698	
19.055	0.805	0.797	
19.060	0.754	0.865	
19.065	1.150	0.899	
19.070	0.791	0.927	
19.075	0.339	0.911	
19.080	0.582	0.830	
19.085	0.437	0.726	
19.090	-0.104	0.604	
19.095	-0.008	0.442	
19.100	0.163	0.283	
19.105	-0.226	0.157	
19.110	-0.287	0.039	
19.115	-0.083	-0.067	
19.120	-0.223	-0.138	
19.125	-0.356	-0.188	
19.130	-0.130	-0.227	
19.135	-0.115	-0.238	
19.140	-0.342	-0.232	
19.145	-0.225	-0.234	
19.150	-0.052	-0.230	
19.155	-0.269	-0.214	
19.160	-0.254	-0.205	
19.165	0.085	-0.195	
19.170	-0.078	-0.161	
19.175	-0.225	-0.129	
19.180	0.059	-0.111	
19.185	-0.002	-0.086	
19.190	-0.300	-0.070	
19.195	-0.177	-0.084	
19.200	-0.023	-0.107	
19.205	-0.287	-0.123	
19.210	-0.326	-0.150	
19.215	-0.129	-0.185	
19.220	-0.295	-0.209	
19.225	-0.419	-0.234	
19.230	-0.193	-0.265	
19.235	-0.216	-0.278	
19.240	-0.449	-0.283	
19.245	-0.333	-0.300	
19.250	-0.164	-0.312	
19.255	-0.260	-0.303	
19.260	-0.087	-0.278	
19.265	0.638	-0.205	
19.270	0.386	-0.059	
19.275	-0.148	0.082	
19.280	-0.199	0.131	
19.285	-0.448	0.085	
19.290	-0.804	-0.040	
19.295	-0.737	-0.224	
19.300	-0.553	-0.403	
19.305	-0.633	-0.531	
19.310	-0.523	-0.604	
19.315	-0.199	-0.615	
19.320	-0.194	-0.559	
19.325	-0.223	-0.465	
19.330	0.232	-0.352	
19.335	0.296	-0.207	
19.340	-0.089	-0.063	
19.345	0.151	0.031	
19.350	0.443	0.102	
19.355	0.044	0.168	
19.360	0.036	0.196	
19.365	0.476	0.201	
19.370	0.275	0.224	
19.375	0.073	0.245	
19.380	0.596	0.257	
19.385	0.713	0.307	
19.390	0.314	0.382	
19.395	0.515	0.435	
19.400	0.935	0.485	
19.405	0.747	0.565	
19.410	0.819	0.650	
19.415	1.265	0.740	
19.420	0.977	0.847	
19.425	0.621	0.921	
19.430	0.929	0.932	
19.435	0.800	0.917	
19.440	0.211	0.867	
19.445	0.307	0.753	
19.450	0.402	0.614	
19.455	-0.100	0.479	
19.460	-0.153	0.327	
19.465	0.134	0.179	
19.470	-0.135	0.072	
19.475	-0.310	-0.014	
19.480	-0.101	-0.093	
19.485	-0.101	-0.144	
19.490	-0.326	-0.171	
19.495	-0.182	-0.196	
19.500	0.013	-0.203	
19.505	-0.237	-0.187	
19.510	-0.246	-0.178	
19.515	0.055	-0.171	
19.520	-0.126	-0.149	
19.525	-0.292	-0.133	
19.530	-0.072	-0.136	
19.535	-0.023	-0.134	
19.540	-0.246	-0.125	
19.545	-0.081	-0.125	
19.550	0.130	-0.115	
19.555	-0.217	-0.091	
19.560	-0.258	-0.088	
19.565	-0.002	-0.104	
19.570	-0.173	-0.113	
19.575	-0.346	-0.129	
19.580	-0.139	-0.159	
19.585	-0.152	-0.180	
19.590	-0.391	-0.196	
19.595	-0.292	-0.224	
19.600	-0.164	-0.249	
19.605	-0.341	-0.260	
19.610	-0.330	-0.271	
19.615	-0.060	-0.276	
19.620	-0.098	-0.253	
19.625	-0.074	-0.210	
19.630	0.519	-0.137	
19.635	0.351	-0.016	
19.640	-0.310	0.089	
19.645	-0.391	0.094	
19.650	-0.434	0.008	
19.655	-0.712	-0.126	
19.660	-0.700	-0.287	
19.665	-0.394	-0.429	
19.670	-0.402	-0.507	
19.675	-0.449	-0.528	
19.680	-0.129	-0.506	
19.685	0.017	-0.434	
19.690	-0.240	-0.334	
19.695	-0.055	-0.247	
19.700	0.321	-0.160	
19.705	0.000	-0.061	
19.710	0.012	0.015	
19.715	0.452	0.071	
19.720	0.215	0.138	
19.725	-0.089	0.182	
19.730	0.374	0.189	
19.735	0.424	0.207	
19.740	0.039	0.237	
19.745	0.382	0.248	
19.750	0.751	0.280	
19.755	0.411	0.349	
19.760	0.408	0.411	
19.765	0.907	0.463	
19.770	0.756	0.541	
19.775	0.499	0.614	
19.780	0.950	0.662	
19.785	0.955	0.718	
19.790	0.440	0.765	
19.795	0.551	0.757	
19.800	0.675	0.716	
19.805	0.139	0.657	
19.810	0.000	0.551	
19.815	0.368	0.421	
19.820	0.056	0.316	
19.825	-0.190	0.219	
19.830	0.026	0.117	
19.835	-0.028	0.038	
19.840	-0.306	-0.024	
19.845	-0.202	-0.088	
19.850	-0.060	-0.139	
19.855	-0.286	-0.167	
19.860	-0.286	-0.192	
19.865	0.041	-0.206	
19.870	-0.121	-0.191	
19.875	-0.275	-0.169	
19.880	0.018	-0.158	
19.885	0.082	-0.130	
19.890	-0.202	-0.094	
19.895	-0.038	-0.075	
19.900	0.204	-0.055	
19.905	-0.150	-0.025	
19.910	-0.185	-0.019	
19.915	0.114	-0.031	
19.920	-0.113	-0.034	
19.925	-0.320	-0.050	
19.930	-0.164	-0.090	
19.935	-0.164	-0.131	
19.940	-0.349	-0.166	
19.945	-0.214	-0.202	
19.950	-0.052	-0.220	
19.955	-0.277	-0.216	
19.960	-0.284	-0.216	
19.965	-0.078	-0.218	
19.970	-0.255	-0.211	
19.975	-0.390	-0.214	
19.980	-0.084	-0.227	
19.985	0.139	-0.212	
19.990	-0.025	-0.157	
19.995	0.128	-0.091	
20.000	0.110	-0.026	
20.005	-0.384	0.009	
20.010	-0.602	-0.034	
20.015	-0.518	-0.145	
20.020	-0.672	-0.280	
20.025	-0.755	-0.416	
20.030	-0.456	-0.527	
20.035	-0.344	-0.578	
20.040	-0.456	-0.569	
20.045	-0.226	-0.529	
20.050	0.056	-0.451	
20.055	-0.193	-0.343	
20.060	-0.156	-0.249	
20.065	0.330	-0.165	
20.070	0.174	-0.062	
20.075	-0.055	0.029	
20.080	0.336	0.086	
20.085	0.342	0.143	
20.090	-0.043	0.190	
20.095	0.215	0.199	
20.100	0.478	0.207	
20.105	0.130	0.233	
20.110	0.273	0.249	
20.115	0.843	0.281	
20.120	0.683	0.367	
20.125	0.479	0.465	
20.130	0.967	0.548	
20.135	0.994	0.645	
20.140	0.577	0.737	
20.145	0.834	0.783	
20.150	1.058	0.814	
20.155	0.545	0.840	
20.160	0.380	0.815	
20.165	0.654	0.742	
20.170	0.299	0.661	
20.175	-0.089	0.553	
20.180	0.113	0.409	
20.185	-0.011	0.268	
20.190	-0.284	0.140	
20.195	-0.173	0.017	
20.200	-0.014	-0.077	
20.205	-0.274	-0.130	
20.210	-0.309	-0.173	
20.215	-0.063	-0.206	
20.220	-0.194	-0.213	
20.225	-0.344	-0.214	
20.230	-0.148	-0.223	
20.235	-0.106	-0.220	
20.240	-0.315	-0.209	
20.245	-0.237	-0.210	
20.250	-0.052	-0.211	
20.255	-0.197	-0.197	
20.260	-0.170	-0.182	
20.265	0.172	-0.158	
20.270	-0.092	-0.113	
20.275	-0.245	-0.082	
20.280	-0.014	-0.079	
20.285	-0.069	-0.079	
20.290	-0.356	-0.088	
20.295	-0.281	-0.125	
20.300	-0.158	-0.170	
20.305	-0.379	-0.205	
20.310	-0.387	-0.245	
20.315	-0.171	-0.281	
20.320	-0.297	-0.294	
20.325	-0.413	-0.300	
20.330	-0.219	-0.310	
20.335	-0.234	-0.307	
20.340	-0.434	-0.301	
20.345	-0.152	-0.300	
20.350	0.432	-0.259	
20.355	0.122	-0.152	
20.360	-0.043	-0.042	
20.365	-0.054	0.019	
20.370	-0.483	0.016	
20.375	-0.790	-0.072	
20.380	-0.665	-0.228	
20.385	-0.647	-0.390	
20.390	-0.758	-0.523	
20.395	-0.532	-0.616	
20.400	-0.274	-0.645	
20.405	-0.344	-0.606	
20.410	-0.252	-0.531	
20.415	0.137	-0.429	
20.420	-0.034	-0.300	
20.425	-0.184	-0.187	
20.430	0.201	-0.106	
20.435	0.330	-0.021	
20.440	-0.009	0.064	
20.445	0.238	0.119	
20.450	0.521	0.170	
20.455	0.197	0.232	
20.460	0.247	0.273	
20.465	0.701	0.307	
20.470	0.545	0.368	
20.475	0.376	0.430	
20.480	0.864	0.481	
20.485	0.964	0.559	
20.490	0.620	0.651	
20.495	0.930	0.721	
20.500	1.304	0.797	
20.505	0.959	0.895	
20.510	0.892	0.968	
20.515	1.210	1.007	
20.520	0.817	1.031	
20.525	0.386	1.002	
20.530	0.666	0.906	
20.535	0.472	0.793	
20.540	-0.112	0.660	
20.545	-0.040	0.483	
20.550	0.064	0.300	
20.555	-0.281	0.146	
20.560	-0.286	0.007	
20.565	-0.071	-0.105	
20.570	-0.243	-0.172	
20.575	-0.379	-0.216	
20.580	-0.171	-0.252	
20.585	-0.161	-0.264	
20.590	-0.398	-0.262	
20.595	-0.274	-0.270	
20.600	-0.089	-0.271	
20.605	-0.281	-0.256	
20.610	-0.298	-0.245	
20.615	-0.071	-0.238	
20.620	-0.225	-0.221	
20.625	-0.346	-0.212	
20.630	-0.043	-0.213	
20.635	-0.051	-0.196	
20.640	-0.333	-0.174	
20.645	-0.214	-0.174	
20.650	-0.087	-0.181	
20.655	-0.329	-0.184	
20.660	-0.373	-0.203	
20.665	-0.184	-0.233	
20.670	-0.320	-0.254	
20.675	-0.466	-0.277	
20.680	-0.260	-0.307	
20.685	-0.265	-0.322	
20.690	-0.501	-0.330	
20.695	-0.413	-0.351	
20.700	-0.315	-0.372	
20.705	-0.422	-0.381	
20.710	-0.229	-0.379	
20.715	0.527	-0.325	
20.720	0.458	-0.179	
20.725	-0.064	-0.011	
20.730	-0.179	0.081	
20.735	-0.469	0.070	
20.740	-0.837	-0.038	
20.745	-0.810	-0.221	
20.750	-0.656	-0.414	
20.755	-0.753	-0.565	
20.760	-0.625	-0.663	
20.765	-0.260	-0.694	
20.770	-0.269	-0.646	
20.775	-0.312	-0.555	
20.780	0.044	-0.446	
20.785	0.096	-0.317	
20.790	-0.190	-0.192	
20.795	0.010	-0.108	
20.800	0.319	-0.040	
20.805	-0.048	0.029	
20.810	-0.054	0.065	
20.815	0.382	0.081	
20.820	0.163	0.115	
20.825	0.049	0.145	
20.830	0.571	0.171	
20.835	0.637	0.237	
20.840	0.276	0.323	
20.845	0.614	0.389	
20.850	0.962	0.464	
20.855	0.638	0.561	
20.860	0.660	0.639	
20.865	1.107	0.701	
20.870	0.895	0.776	
20.875	0.562	0.829	
20.880	0.913	0.838	
20.885	0.855	0.837	
20.890	0.273	0.816	
20.895	0.347	0.735	
20.900	0.431	0.625	
20.905	-0.068	0.508	
20.910	-0.152	0.363	
20.915	0.114	0.213	
20.920	-0.130	0.097	
20.925	-0.307	0.002	
20.930	-0.106	-0.085	
20.935	-0.127	-0.142	
20.940	-0.362	-0.177	
20.945	-0.216	-0.211	
20.950	-0.045	-0.227	
20.955	-0.257	-0.219	
20.960	-0.268	-0.213	
20.965	0.067	-0.204	
20.970	-0.068	-0.171	
20.975	-0.237	-0.138	
20.980	0.018	-0.120	
20.985	0.052	-0.096	
20.990	-0.225	-0.071	
20.995	-0.097	-0.069	
21.000	0.111	-0.069	
21.005	-0.210	-0.060	
21.010	-0.254	-0.071	
21.015	-0.043	-0.098	
21.020	-0.210	-0.119	
21.025	-0.376	-0.146	
21.030	-0.190	-0.185	
21.035	-0.203	-0.215	
21.040	-0.453	-0.238	
21.045	-0.323	-0.271	
21.050	-0.142	-0.295	
21.055	-0.336	-0.296	
21.060	-0.364	-0.296	
21.065	-0.156	-0.298	
21.070	-0.202	-0.284	
21.075	-0.200	-0.260	
21.080	0.431	-0.208	
21.085	0.484	-0.092	
21.090	-0.207	0.038	
21.095	-0.390	0.080	
21.100	-0.515	0.016	
21.105	-0.811	-0.121	
21.110	-0.822	-0.303	
21.115	-0.533	-0.474	
21.120	-0.523	-0.582	
21.125	-0.540	-0.626	
21.130	-0.237	-0.616	
21.135	-0.147	-0.552	
21.140	-0.246	-0.454	
21.145	0.015	-0.351	
21.150	0.305	-0.231	
21.155	-0.048	-0.103	
21.160	-0.008	-0.012	
21.165	0.470	0.054	
21.170	0.279	0.132	
21.175	0.015	0.195	
21.180	0.461	0.225	
21.185	0.501	0.265	
21.190	0.062	0.306	
21.195	0.484	0.321	
21.200	0.947	0.360	
21.205	0.629	0.452	
21.210	0.663	0.546	
21.215	1.150	0.635	
21.220	0.974	0.743	
21.225	0.712	0.835	
21.230	1.153	0.890	
21.235	1.184	0.946	
21.240	0.673	0.993	
21.245	0.793	0.986	
21.250	0.921	0.947	
21.255	0.328	0.890	
21.260	0.114	0.776	
21.265	0.489	0.625	
21.270	0.131	0.491	
21.275	-0.181	0.362	
21.280	0.050	0.223	
21.285	-0.002	0.109	
21.290	-0.307	0.022	
21.295	-0.229	-0.065	
21.300	-0.084	-0.134	
21.305	-0.283	-0.175	
21.310	-0.301	-0.207	
21.315	-0.057	-0.228	
21.320	-0.159	-0.222	
21.325	-0.284	-0.209	
21.330	-0.037	-0.199	
21.335	-0.017	-0.175	
21.340	-0.301	-0.148	
21.345	-0.156	-0.143	
21.350	0.166	-0.135	
21.355	-0.130	-0.104	
21.360	-0.144	-0.080	
21.365	0.188	-0.065	
21.370	-0.084	-0.038	
21.375	-0.265	-0.029	
21.380	-0.032	-0.050	
21.385	-0.074	-0.069	
21.390	-0.346	-0.090	
21.395	-0.226	-0.129	
21.400	-0.058	-0.164	
21.405	-0.298	-0.181	
21.410	-0.286	-0.199	
21.415	0.023	-0.210	
21.420	-0.185	-0.197	
21.425	-0.367	-0.187	
21.430	-0.090	-0.194	
21.435	0.099	-0.182	
21.440	-0.040	-0.140	
21.445	0.446	-0.072	
21.450	0.696	0.046	
21.455	-0.043	0.179	
21.460	-0.350	0.223	
21.465	-0.333	0.154	
21.470	-0.553	0.019	
21.475	-0.708	-0.150	
21.480	-0.431	-0.316	
21.485	-0.286	-0.425	
21.490	-0.404	-0.465	
21.495	-0.177	-0.458	
21.500	0.232	-0.394	
21.505	-0.016	-0.277	
21.510	0.023	-0.158	
21.515	0.516	-0.046	
21.520	0.290	0.080	
21.525	0.058	0.181	
21.530	0.524	0.240	
21.535	0.571	0.302	
21.540	0.120	0.359	
21.545	0.339	0.374	
21.550	0.660	0.380	
21.555	0.391	0.407	
21.560	0.495	0.434	
21.565	0.979	0.477	
21.570	0.779	0.559	
21.575	0.553	0.638	
21.580	0.999	0.693	
21.585	1.065	0.758	
21.590	0.684	0.827	
21.595	0.973	0.865	
21.600	1.219	0.902	
21.605	0.683	0.942	
21.610	0.515	0.931	
21.615	0.916	0.875	
21.620	0.600	0.822	
21.625	0.177	0.750	
21.630	0.434	0.640	
21.635	0.284	0.529	
21.640	-0.174	0.415	
21.645	-0.040	0.278	
21.650	0.165	0.155	
21.655	-0.173	0.071	
21.660	-0.193	-0.001	
21.665	0.154	-0.054	
21.670	-0.042	-0.067	
21.675	-0.228	-0.068	
21.680	0.042	-0.077	
21.685	0.104	-0.069	
21.690	-0.208	-0.051	
21.695	-0.048	-0.049	
21.700	0.214	-0.043	
21.705	-0.138	-0.021	
21.710	-0.133	-0.015	
21.715	0.243	-0.017	
21.720	0.006	0.002	
21.725	-0.188	0.014	
21.730	0.110	0.005	
21.735	0.131	0.007	
21.740	-0.213	0.014	
21.745	-0.109	-0.003	
21.750	0.049	-0.029	
21.755	-0.248	-0.048	
21.760	-0.280	-0.082	
21.765	-0.035	-0.123	
21.770	-0.181	-0.145	
21.775	-0.309	-0.161	
21.780	-0.069	-0.180	
21.785	-0.080	-0.180	
21.790	-0.341	-0.173	
21.795	-0.185	-0.181	
21.800	0.235	-0.174	
21.805	0.235	-0.114	
21.810	0.360	-0.015	
21.815	0.541	0.106	
21.820	-0.144	0.206	
21.825	-0.529	0.204	
21.830	-0.439	0.090	
21.835	-0.462	-0.069	
21.840	-0.637	-0.227	
21.845	-0.465	-0.364	
21.850	-0.199	-0.446	
21.855	-0.295	-0.457	
21.860	-0.249	-0.426	
21.865	0.253	-0.357	
21.870	0.168	-0.238	
21.875	-0.054	-0.111	
21.880	0.353	-0.009	
21.885	0.369	0.090	
21.890	-0.019	0.172	
21.895	0.240	0.207	
21.900	0.524	0.231	
21.905	0.088	0.264	
21.910	0.094	0.268	
21.915	0.660	0.264	
21.920	0.489	0.301	
21.925	0.214	0.349	
21.930	0.678	0.382	
21.935	0.764	0.435	
21.940	0.440	0.503	
21.945	0.793	0.556	
21.950	1.123	0.625	
21.955	0.748	0.718	
21.960	0.706	0.785	
21.965	1.057	0.821	
21.970	0.731	0.851	
21.975	0.372	0.842	
21.980	0.621	0.779	
21.985	0.501	0.702	
21.990	-0.008	0.609	
21.995	0.104	0.478	
22.000	0.227	0.345	
22.005	-0.182	0.233	
22.010	-0.200	0.120	
22.015	0.091	0.019	
22.020	-0.112	-0.040	
22.025	-0.298	-0.081	
22.030	-0.072	-0.123	
22.035	-0.014	-0.142	
22.040	-0.255	-0.141	
22.045	-0.121	-0.145	
22.050	0.088	-0.139	
22.055	-0.205	-0.117	
22.060	-0.262	-0.112	
22.065	0.024	-0.121	
22.070	-0.074	-0.116	
22.075	-0.234	-0.109	
22.080	0.053	-0.108	
22.085	0.087	-0.089	
22.090	-0.239	-0.064	
22.095	-0.129	-0.064	
22.100	0.042	-0.073	
22.105	-0.239	-0.077	
22.110	-0.278	-0.098	
22.115	-0.058	-0.129	
22.120	-0.228	-0.150	
22.125	-0.381	-0.173	
22.130	-0.162	-0.206	
22.135	-0.116	-0.222	
22.140	-0.341	-0.223	
22.145	-0.246	-0.230	
22.150	-0.129	-0.236	
22.155	-0.304	-0.232	
22.160	-0.223	-0.232	
22.165	0.427	-0.204	
22.170	0.478	-0.101	
22.175	0.090	0.036	
22.180	0.038	0.129	
22.185	-0.275	0.146	
22.190	-0.643	0.074	
22.195	-0.599	-0.075	
22.200	-0.471	-0.241	
22.205	-0.617	-0.378	
22.210	-0.540	-0.479	
22.215	-0.231	-0.529	
22.220	-0.225	-0.513	
22.225	-0.286	-0.455	
22.230	0.068	-0.376	
22.235	0.171	-0.267	
22.240	-0.124	-0.151	
22.245	0.061	-0.066	
22.250	0.304	0.001	
22.255	-0.035	0.063	
22.260	-0.005	0.093	
22.265	0.505	0.111	
22.270	0.269	0.159	
22.275	-0.005	0.201	
22.280	0.484	0.218	
22.285	0.617	0.260	
22.290	0.259	0.323	
22.295	0.605	0.375	
22.300	0.922	0.442	
22.305	0.461	0.527	
22.310	0.550	0.583	
22.315	1.058	0.623	
22.320	0.811	0.688	
22.325	0.504	0.740	
22.330	0.956	0.757	
22.335	0.912	0.779	
22.340	0.354	0.791	
22.345	0.429	0.745	
22.350	0.560	0.667	
22.355	-0.028	0.576	
22.360	-0.135	0.442	
22.365	0.136	0.287	
22.370	-0.148	0.157	
22.375	-0.320	0.042	
22.380	-0.066	-0.062	
22.385	-0.081	-0.126	
22.390	-0.338	-0.160	
22.395	-0.217	-0.193	
22.400	-0.051	-0.211	
22.405	-0.272	-0.208	
22.410	-0.266	-0.208	
22.415	0.000	-0.207	
22.420	-0.127	-0.186	
22.425	-0.283	-0.167	
22.430	-0.100	-0.163	
22.435	-0.081	-0.157	
22.440	-0.272	-0.150	
22.445	-0.109	-0.152	
22.450	0.073	-0.145	
22.455	-0.257	-0.124	
22.460	-0.257	-0.124	
22.465	-0.013	-0.137	
22.470	-0.217	-0.141	
22.475	-0.434	-0.158	
22.480	-0.263	-0.199	
22.485	-0.193	-0.236	
22.490	-0.385	-0.258	
22.495	-0.255	-0.278	
22.500	-0.109	-0.282	
22.505	-0.350	-0.271	
22.510	-0.393	-0.270	
22.515	-0.184	-0.281	
22.520	-0.236	-0.281	
22.525	-0.239	-0.270	
22.530	0.377	-0.230	
22.535	0.539	-0.119	
22.540	-0.148	0.017	
22.545	-0.294	0.079	
22.550	-0.385	0.043	
22.555	-0.732	-0.065	
22.560	-0.779	-0.228	
22.565	-0.533	-0.396	
22.570	-0.558	-0.517	
22.575	-0.575	-0.583	
22.580	-0.243	-0.598	
22.585	-0.110	-0.549	
22.590	-0.258	-0.457	
22.595	-0.058	-0.359	
22.600	0.230	-0.251	
22.605	-0.119	-0.139	
22.610	-0.058	-0.061	
22.615	0.449	-0.002	
22.620	0.250	0.078	
22.625	-0.002	0.147	
22.630	0.417	0.184	
22.635	0.482	0.229	
22.640	0.124	0.278	
22.645	0.443	0.305	
22.650	0.756	0.344	
22.655	0.385	0.407	
22.660	0.405	0.452	
22.665	0.913	0.488	
22.670	0.797	0.555	
22.675	0.582	0.629	
22.680	1.077	0.689	
22.685	1.116	0.769	
22.690	0.621	0.848	
22.695	0.779	0.875	
22.700	0.930	0.870	
22.705	0.377	0.847	
22.710	0.218	0.766	
22.715	0.524	0.647	
22.720	0.162	0.535	
22.725	-0.156	0.413	
22.730	0.029	0.271	
22.735	-0.078	0.143	
22.740	-0.326	0.033	
22.745	-0.196	-0.070	
22.750	-0.116	-0.146	
22.755	-0.327	-0.192	
22.760	-0.254	-0.226	
22.765	0.035	-0.238	
22.770	-0.145	-0.215	
22.775	-0.294	-0.190	
22.780	-0.031	-0.177	
22.785	-0.005	-0.155	
22.790	-0.248	-0.129	
22.795	-0.093	-0.120	
22.800	0.082	-0.109	
22.805	-0.248	-0.092	
22.810	-0.257	-0.098	
22.815	0.105	-0.113	
22.820	-0.054	-0.104	
22.825	-0.260	-0.092	
22.830	-0.078	-0.100	
22.835	-0.092	-0.109	
22.840	-0.349	-0.121	
22.845	-0.249	-0.153	
22.850	-0.132	-0.185	
22.855	-0.335	-0.206	
22.860	-0.344	-0.231	
22.865	-0.138	-0.254	
22.870	-0.278	-0.260	
22.875	-0.430	-0.267	
22.880	-0.226	-0.284	
22.885	-0.077	-0.284	
22.890	-0.122	-0.255	
22.895	0.457	-0.187	
22.900	0.791	-0.047	
22.905	0.056	0.128	
22.910	-0.317	0.217	
22.915	-0.367	0.177	
22.920	-0.614	0.048	
22.925	-0.773	-0.133	
22.930	-0.533	-0.322	
22.935	-0.434	-0.461	
22.940	-0.530	-0.533	
22.945	-0.303	-0.553	
22.950	0.020	-0.512	
22.955	-0.130	-0.416	
22.960	-0.081	-0.307	
22.965	0.321	-0.195	
22.970	0.134	-0.072	
22.975	-0.035	0.027	
22.980	0.376	0.091	
22.985	0.440	0.159	
22.990	0.119	0.227	
22.995	0.380	0.267	
23.000	0.675	0.309	
23.005	0.347	0.369	
23.010	0.362	0.410	
23.015	0.832	0.442	
23.020	0.675	0.501	
23.025	0.467	0.560	
23.030	1.007	0.606	
23.035	1.086	0.682	
23.040	0.690	0.771	
23.045	0.958	0.831	
23.050	1.213	0.883	
23.055	0.780	0.938	
23.060	0.676	0.951	
23.065	0.996	0.926	
23.070	0.565	0.892	
23.075	0.113	0.814	
23.080	0.420	0.681	
23.085	0.313	0.549	
23.090	-0.161	0.423	
23.095	-0.098	0.278	
23.100	0.003	0.139	
23.105	-0.283	0.028	
23.110	-0.291	-0.071	
23.115	-0.058	-0.150	
23.120	-0.216	-0.189	
23.125	-0.352	-0.213	
23.130	-0.110	-0.232	
23.135	-0.086	-0.230	
23.140	-0.327	-0.214	
23.145	-0.194	-0.210	
23.150	0.007	-0.202	
23.155	-0.239	-0.180	
23.160	-0.243	-0.169	
23.165	0.058	-0.163	
23.170	-0.104	-0.141	
23.175	-0.229	-0.121	
23.180	0.035	-0.114	
23.185	-0.031	-0.098	
23.190	-0.310	-0.088	
23.195	-0.236	-0.107	
23.200	-0.144	-0.140	
23.205	-0.362	-0.171	
23.210	-0.364	-0.212	
23.215	-0.153	-0.250	
23.220	-0.287	-0.267	
23.225	-0.440	-0.280	
23.230	-0.220	-0.299	
23.235	-0.240	-0.304	
23.240	-0.477	-0.305	
23.245	-0.347	-0.321	
23.250	-0.165	-0.331	
23.255	-0.239	-0.317	
23.260	-0.029	-0.283	
23.265	0.510	-0.204	
23.270	0.093	-0.077	
23.275	-0.329	0.016	
23.280	-0.375	0.016	
23.285	-0.552	-0.063	
23.290	-0.828	-0.196	
23.295	-0.709	-0.360	
23.300	-0.508	-0.501	
23.305	-0.588	-0.585	
23.310	-0.478	-0.618	
23.315	-0.170	-0.599	
23.320	-0.188	-0.526	
23.325	-0.243	-0.429	
23.330	0.111	-0.328	
23.335	0.241	-0.208	
23.340	-0.087	-0.087	
23.345	0.110	-0.003	
23.350	0.394	0.063	
23.355	0.020	0.126	
23.360	0.049	0.156	
23.365	0.470	0.169	
23.370	0.307	0.204	
23.375	0.091	0.238	
23.380	0.565	0.259	
23.385	0.706	0.311	
23.390	0.380	0.388	
23.395	0.666	0.452	
23.400	0.958	0.524	
23.405	0.644	0.611	
23.410	0.660	0.675	
23.415	1.069	0.722	
23.420	0.797	0.778	
23.425	0.446	0.805	
23.430	0.742	0.782	
23.435	0.641	0.745	
23.440	0.122	0.688	
23.445	0.238	0.585	
23.450	0.376	0.472	
23.455	-0.101	0.370	
23.460	-0.181	0.251	
23.465	0.023	0.126	
23.470	-0.188	0.026	
23.475	-0.342	-0.060	
23.480	-0.124	-0.137	
23.485	-0.107	-0.182	
23.490	-0.336	-0.202	
23.495	-0.219	-0.220	
23.500	-0.075	-0.228	
23.505	-0.284	-0.220	
23.510	-0.286	-0.218	
23.515	-0.103	-0.221	
23.520	-0.226	-0.215	
23.525	-0.303	-0.212	
23.530	-0.051	-0.212	
23.535	-0.008	-0.192	
23.540	-0.197	-0.159	
23.545	-0.061	-0.135	
23.550	0.124	-0.107	
23.555	-0.199	-0.074	
23.560	-0.242	-0.068	
23.565	-0.037	-0.086	
23.570	-0.222	-0.103	
23.575	-0.379	-0.133	
23.580	-0.173	-0.176	
23.585	-0.168	-0.206	
23.590	-0.399	-0.224	
23.595	-0.266	-0.249	
23.600	-0.075	-0.262	
23.605	-0.291	-0.252	
23.610	-0.335	-0.247	
23.615	-0.155	-0.250	
23.620	-0.194	-0.244	
23.625	-0.153	-0.228	
23.630	0.553	-0.176	
23.635	0.626	-0.045	
23.640	-0.074	0.108	
23.645	-0.234	0.174	
23.650	-0.382	0.132	
23.655	-0.698	0.009	
23.660	-0.721	-0.169	
23.665	-0.477	-0.346	
23.670	-0.520	-0.470	
23.675	-0.509	-0.538	
23.680	-0.129	-0.549	
23.685	0.006	-0.488	
23.690	-0.193	-0.383	
23.695	0.038	-0.276	
23.700	0.339	-0.162	
23.705	0.023	-0.042	
23.710	0.055	0.045	
23.715	0.469	0.107	
23.720	0.288	0.177	
23.725	0.067	0.230	
23.730	0.507	0.257	
23.735	0.528	0.296	
23.740	0.094	0.338	
23.745	0.385	0.347	
23.750	0.736	0.361	
23.755	0.421	0.406	
23.760	0.490	0.449	
23.765	0.968	0.497	
23.770	0.790	0.577	
23.775	0.612	0.655	
23.780	1.083	0.716	
23.785	1.055	0.791	
23.790	0.570	0.855	
23.795	0.753	0.865	
23.800	0.867	0.846	
23.805	0.282	0.808	
23.810	0.110	0.712	
23.815	0.423	0.576	
23.820	0.030	0.448	
23.825	-0.200	0.315	
23.830	0.039	0.177	
23.835	-0.023	0.069	
23.840	-0.300	-0.010	
23.845	-0.211	-0.086	
23.850	-0.080	-0.145	
23.855	-0.249	-0.175	
23.860	-0.237	-0.196	
23.865	0.006	-0.203	
23.870	-0.167	-0.187	
23.875	-0.284	-0.173	
23.880	-0.042	-0.170	
23.885	0.003	-0.154	
23.890	-0.237	-0.130	
23.895	-0.100	-0.121	
23.900	0.122	-0.109	
23.905	-0.155	-0.083	
23.910	-0.156	-0.071	
23.915	0.140	-0.067	
23.920	-0.103	-0.052	
23.925	-0.245	-0.049	
23.930	-0.031	-0.067	
23.935	-0.077	-0.082	
23.940	-0.321	-0.097	
23.945	-0.199	-0.129	
23.950	-0.068	-0.157	
23.955	-0.318	-0.172	
23.960	-0.300	-0.194	
23.965	-0.068	-0.214	
23.970	-0.226	-0.215	
23.975	-0.368	-0.217	
23.980	-0.148	-0.229	
23.985	-0.127	-0.229	
23.990	-0.263	-0.218	
23.995	0.052	-0.200	
24.000	0.568	-0.135	
24.005	0.151	-0.017	
24.010	-0.136	0.079	
24.015	-0.153	0.098	
24.020	-0.492	0.047	
24.025	-0.729	-0.073	
24.030	-0.508	-0.232	
24.035	-0.437	-0.368	
24.040	-0.541	-0.456	
24.045	-0.336	-0.500	
24.050	-0.127	-0.492	
24.055	-0.226	-0.435	
24.060	-0.155	-0.360	
24.065	0.255	-0.270	
24.070	0.053	-0.157	
24.075	-0.104	-0.061	
24.080	0.368	0.008	
24.085	0.382	0.087	
24.090	-0.058	0.159	
24.095	0.215	0.187	
24.100	0.548	0.209	
24.105	0.172	0.250	
24.110	0.249	0.276	
24.115	0.683	0.301	
24.120	0.438	0.352	
24.125	0.243	0.395	
24.130	0.750	0.421	
24.135	0.785	0.472	
24.140	0.402	0.536	
24.145	0.680	0.573	
24.150	0.903	0.608	
24.155	0.589	0.655	
24.160	0.585	0.680	
24.165	0.950	0.692	
24.170	0.632	0.714	
24.175	0.232	0.706	
24.180	0.519	0.646	
24.185	0.360	0.573	
24.190	-0.127	0.482	
24.195	-0.029	0.352	
24.200	0.044	0.217	
24.205	-0.260	0.101	
24.210	-0.223	-0.007	
24.215	0.076	-0.088	
24.220	-0.147	-0.121	
24.225	-0.318	-0.140	
24.230	-0.071	-0.163	
24.235	-0.040	-0.167	
24.240	-0.258	-0.157	
24.245	-0.103	-0.154	
24.250	0.055	-0.143	
24.255	-0.213	-0.120	
24.260	-0.199	-0.113	
24.265	0.111	-0.112	
24.270	-0.100	-0.094	
24.275	-0.232	-0.083	
24.280	0.044	-0.086	
24.285	0.029	-0.077	
24.290	-0.236	-0.065	
24.295	-0.109	-0.072	
24.300	0.009	-0.083	
24.305	-0.283	-0.090	
24.310	-0.309	-0.117	
24.315	-0.048	-0.152	
24.320	-0.205	-0.170	
24.325	-0.339	-0.184	
24.330	-0.109	-0.203	
24.335	-0.133	-0.206	
24.340	-0.390	-0.205	
24.345	-0.255	-0.221	
24.350	-0.129	-0.235	
24.355	-0.301	-0.236	
24.360	-0.162	-0.235	
24.365	0.452	-0.198	
24.370	0.350	-0.094	
24.375	-0.063	0.025	
24.380	-0.063	0.087	
24.385	-0.326	0.077	
24.390	-0.643	-0.005	
24.395	-0.578	-0.145	
24.400	-0.445	-0.291	
24.405	-0.578	-0.403	
24.410	-0.472	-0.480	
24.415	-0.181	-0.507	
24.420	-0.242	-0.477	
24.425	-0.297	-0.418	
24.430	0.050	-0.348	
24.435	0.165	-0.251	
24.440	-0.136	-0.146	
24.445	0.090	-0.068	
24.450	0.354	0.001	
24.455	-0.016	0.071	
24.460	-0.025	0.106	
24.465	0.443	0.121	
24.470	0.256	0.158	
24.475	0.018	0.192	
24.480	0.441	0.207	
24.485	0.496	0.240	
24.490	0.140	0.285	
24.495	0.542	0.316	
24.500	0.846	0.368	
24.505	0.484	0.451	
24.510	0.557	0.518	
24.515	0.974	0.574	
24.520	0.773	0.647	
24.525	0.504	0.703	
24.530	0.816	0.721	
24.535	0.683	0.726	
24.540	0.180	0.704	
24.545	0.301	0.625	
24.550	0.353	0.523	
24.555	-0.087	0.419	
24.560	-0.110	0.293	
24.565	0.152	0.170	
24.570	-0.138	0.081	
24.575	-0.287	0.003	
24.580	-0.089	-0.073	
24.585	-0.121	-0.124	
24.590	-0.370	-0.158	
24.595	-0.249	-0.197	
24.600	-0.106	-0.225	
24.605	-0.300	-0.232	
24.610	-0.272	-0.238	
24.615	-0.063	-0.239	
24.620	-0.232	-0.224	
24.625	-0.287	-0.213	
24.630	0.012	-0.205	
24.635	-0.023	-0.177	
24.640	-0.257	-0.143	
24.645	-0.113	-0.131	
24.650	0.039	-0.121	
24.655	-0.242	-0.106	
24.660	-0.258	-0.112	
24.665	-0.069	-0.132	
24.670	-0.257	-0.148	
24.675	-0.393	-0.173	
24.680	-0.177	-0.210	
24.685	-0.210	-0.234	
24.690	-0.434	-0.250	
24.695	-0.262	-0.273	
24.700	-0.161	-0.286	
24.705	-0.367	-0.283	
24.710	-0.349	-0.287	
24.715	-0.162	-0.292	
24.720	-0.310	-0.287	
24.725	-0.388	-0.285	
24.730	-0.045	-0.284	
24.735	0.186	-0.244	
24.740	-0.078	-0.168	
24.745	-0.045	-0.100	
24.750	-0.179	-0.065	
24.755	-0.604	-0.081	
24.760	-0.735	-0.173	
24.765	-0.592	-0.309	
24.770	-0.633	-0.436	
24.775	-0.628	-0.533	
24.780	-0.323	-0.584	
24.785	-0.252	-0.572	
24.790	-0.368	-0.516	
24.795	-0.174	-0.447	
24.800	0.105	-0.358	
24.805	-0.161	-0.255	
24.810	-0.144	-0.173	
24.815	0.168	-0.114	
24.820	0.036	-0.054	
24.825	-0.103	-0.007	
24.830	0.288	0.022	
24.835	0.266	0.067	
24.840	-0.072	0.111	
24.845	0.194	0.127	
24.850	0.434	0.146	
24.855	0.119	0.182	
24.860	0.244	0.209	
24.865	0.724	0.245	
24.870	0.502	0.319	
24.875	0.288	0.389	
24.880	0.840	0.441	
24.885	0.887	0.516	
24.890	0.486	0.601	
24.895	0.733	0.652	
24.900	0.883	0.687	
24.905	0.331	0.708	
24.910	0.185	0.668	
24.915	0.481	0.579	
24.920	0.099	0.486	
24.925	-0.179	0.374	
24.930	0.024	0.239	
24.935	-0.055	0.120	
24.940	-0.317	0.020	
24.945	-0.219	-0.074	
24.950	-0.132	-0.148	
24.955	-0.332	-0.194	
24.960	-0.326	-0.233	
24.965	-0.121	-0.260	
24.970	-0.269	-0.264	
24.975	-0.388	-0.265	
24.980	-0.174	-0.274	
24.985	-0.190	-0.270	
24.990	-0.356	-0.260	
24.995	-0.174	-0.257	
25.000	-0.028	-0.242	
25.005	-0.272	-0.213	
25.010	-0.251	-0.197	
25.015	-0.028	-0.190	
25.020	-0.174	-0.174	
25.025	-0.283	-0.164	
25.030	-0.042	-0.165	
25.035	-0.084	-0.156	
25.040	-0.349	-0.148	
25.045	-0.245	-0.165	
25.050	-0.138	-0.187	
25.055	-0.355	-0.204	
25.060	-0.338	-0.230	
25.065	-0.145	-0.254	
25.070	-0.336	-0.264	
25.075	-0.431	-0.277	
25.080	-0.199	-0.297	
25.085	-0.222	-0.301	
25.090	-0.431	-0.297	
25.095	-0.275	-0.302	
25.100	-0.009	-0.295	
25.105	-0.051	-0.253	
25.110	0.220	-0.181	
25.115	0.542	-0.069	
25.120	-0.095	0.055	
25.125	-0.503	0.098	
25.130	-0.491	0.028	
25.135	-0.588	-0.107	
25.140	-0.755	-0.266	
25.145	-0.555	-0.417	
25.150	-0.327	-0.516	
25.155	-0.420	-0.544	
25.160	-0.280	-0.525	
25.165	0.120	-0.458	
25.170	-0.055	-0.345	
25.175	-0.173	-0.233	
25.180	0.201	-0.144	
25.185	0.226	-0.053	
25.190	-0.101	0.027	
25.195	0.172	0.071	
25.200	0.463	0.111	
25.205	0.081	0.165	
25.210	0.145	0.197	
25.215	0.573	0.220	
25.220	0.324	0.265	
25.225	0.165	0.302	
25.230	0.672	0.326	
25.235	0.710	0.380	
25.240	0.412	0.452	
25.245	0.774	0.510	
25.250	1.055	0.584	
25.255	0.626	0.675	
25.260	0.770	0.737	
25.265	1.217	0.787	
25.270	0.880	0.855	
25.275	0.495	0.891	
25.280	0.774	0.866	
25.285	0.658	0.819	
25.290	0.108	0.746	
25.295	0.211	0.622	
25.300	0.266	0.483	
25.305	-0.158	0.353	
25.310	-0.196	0.212	
25.315	0.036	0.080	
25.320	-0.199	-0.014	
25.325	-0.320	-0.090	
25.330	-0.095	-0.153	
25.335	-0.145	-0.186	
25.340	-0.373	-0.203	
25.345	-0.220	-0.225	
25.350	-0.077	-0.236	
25.355	-0.295	-0.228	
25.360	-0.258	-0.225	
25.365	-0.031	-0.221	
25.370	-0.188	-0.202	
25.375	-0.298	-0.187	
25.380	-0.040	-0.184	
25.385	-0.052	-0.168	
25.390	-0.260	-0.148	
25.395	-0.081	-0.141	
25.400	0.073	-0.128	
25.405	-0.210	-0.104	
25.410	-0.200	-0.099	
25.415	0.006	-0.106	
25.420	-0.225	-0.109	
25.425	-0.371	-0.128	
25.430	-0.162	-0.166	
25.435	-0.203	-0.195	
25.440	-0.425	-0.220	
25.445	-0.297	-0.253	
25.450	-0.174	-0.278	
25.455	-0.402	-0.287	
25.460	-0.382	-0.302	
25.465	-0.167	-0.315	
25.470	-0.287	-0.309	
25.475	-0.280	-0.297	
25.480	0.319	-0.260	
25.485	0.524	-0.153	
25.490	0.007	-0.009	
25.495	-0.110	0.083	
25.500	-0.323	0.088	
25.505	-0.702	0.008	
25.510	-0.758	-0.148	
25.515	-0.558	-0.326	
25.520	-0.613	-0.467	
25.525	-0.631	-0.562	
25.530	-0.286	-0.605	
25.535	-0.139	-0.576	
25.540	-0.263	-0.494	
25.545	0.001	-0.393	
25.550	0.272	-0.270	
25.555	-0.092	-0.139	
25.560	0.046	-0.043	
25.565	0.496	0.035	
25.570	0.163	0.123	
25.575	-0.042	0.179	
25.580	0.457	0.198	
25.585	0.476	0.234	
25.590	0.114	0.278	
25.595	0.458	0.302	
25.600	0.725	0.339	
25.605	0.420	0.402	
25.610	0.542	0.456	
25.615	1.074	0.518	
25.620	0.875	0.617	
25.625	0.725	0.715	
25.630	1.225	0.796	
25.635	1.185	0.890	
25.640	0.692	0.969	
25.645	0.956	0.992	
25.650	1.121	0.992	
25.655	0.562	0.983	
25.660	0.408	0.919	
25.665	0.673	0.813	
25.670	0.246	0.703	
25.675	-0.063	0.570	
25.680	0.209	0.414	
25.685	0.067	0.281	
25.690	-0.231	0.169	
25.695	-0.098	0.060	
25.700	0.000	-0.025	
25.705	-0.268	-0.079	
25.710	-0.252	-0.127	
25.715	-0.011	-0.163	
25.720	-0.203	-0.173	
25.725	-0.303	-0.179	
25.730	-0.022	-0.188	
25.735	-0.095	-0.177	
25.740	-0.338	-0.165	
25.745	-0.098	-0.169	
25.750	0.209	-0.154	
25.755	-0.116	-0.109	
25.760	-0.101	-0.073	
25.765	0.327	-0.041	
25.770	0.053	0.010	
25.775	-0.124	0.048	
25.780	0.243	0.059	
25.785	0.140	0.077	
25.790	-0.231	0.086	
25.795	-0.093	0.055	
25.800	0.013	0.011	
25.805	-0.287	-0.029	
25.810	-0.309	-0.084	
25.815	-0.100	-0.141	
25.820	-0.228	-0.178	
25.825	-0.329	-0.203	
25.830	-0.097	-0.224	
25.835	-0.173	-0.225	
25.840	-0.428	-0.224	
25.845	-0.232	-0.240	
25.850	0.033	-0.244	
25.855	-0.052	-0.210	
25.860	0.304	-0.145	
25.865	0.762	-0.025	
25.870	0.163	0.131	
25.875	-0.382	0.216	
25.880	-0.428	0.170	
25.885	-0.611	0.031	
25.890	-0.873	-0.160	
25.895	-0.717	-0.366	
25.900	-0.474	-0.528	
25.905	-0.523	-0.611	
25.910	-0.405	-0.628	
25.915	-0.051	-0.584	
25.920	-0.100	-0.483	
25.925	-0.171	-0.363	
25.930	0.241	-0.247	
25.935	0.243	-0.118	
25.940	-0.081	-0.004	
25.945	0.249	0.069	
25.950	0.489	0.133	
25.955	-0.002	0.197	
25.960	0.047	0.216	
25.965	0.603	0.218	
25.970	0.467	0.258	
25.975	0.328	0.316	
25.980	0.848	0.377	
25.985	0.883	0.472	
25.990	0.539	0.577	
25.995	0.912	0.654	
26.000	1.190	0.736	
26.005	0.819	0.830	
26.010	0.907	0.895	
26.015	1.324	0.944	
26.020	1.003	1.005	
26.025	0.706	1.035	
26.030	1.039	1.019	
26.035	0.813	0.988	
26.040	0.195	0.923	
26.045	0.285	0.789	
26.050	0.380	0.631	
26.055	-0.086	0.481	
26.060	-0.084	0.324	
26.065	0.209	0.185	
26.070	-0.124	0.092	
26.075	-0.295	0.014	
26.080	-0.095	-0.064	
26.085	-0.118	-0.119	
26.090	-0.347	-0.155	
26.095	-0.207	-0.191	
26.100	-0.109	-0.214	
26.105	-0.339	-0.221	
26.110	-0.274	-0.232	
26.115	0.010	-0.236	
26.120	-0.161	-0.213	
26.125	-0.272	-0.189	
26.130	-0.002	-0.175	
26.135	0.010	-0.148	
26.140	-0.240	-0.118	
26.145	-0.051	-0.105	
26.150	0.172	-0.087	
26.155	-0.188	-0.058	
26.160	-0.226	-0.052	
26.165	-0.068	-0.073	
26.170	-0.199	-0.095	
26.175	-0.301	-0.124	
26.180	-0.087	-0.156	
26.185	-0.164	-0.173	
26.190	-0.398	-0.187	
26.195	-0.265	-0.215	
26.200	-0.167	-0.240	
26.205	-0.382	-0.253	
26.210	-0.349	-0.272	
26.215	-0.155	-0.288	
26.220	-0.353	-0.289	
26.225	-0.469	-0.298	
26.230	-0.129	-0.313	
26.235	0.139	-0.289	
26.240	0.128	-0.212	
26.245	0.473	-0.094	
26.250	0.244	0.042	
26.255	-0.417	0.126	
26.260	-0.604	0.089	
26.265	-0.538	-0.045	
26.270	-0.705	-0.213	
26.275	-0.757	-0.381	
26.280	-0.442	-0.516	
26.285	-0.365	-0.580	
26.290	-0.433	-0.578	
26.295	-0.162	-0.535	
26.300	0.091	-0.446	
26.305	-0.164	-0.326	
26.310	-0.101	-0.223	
26.315	0.366	-0.131	
26.320	0.146	-0.026	
26.325	-0.023	0.060	
26.330	0.435	0.116	
26.335	0.398	0.180	
26.340	0.046	0.237	
26.345	0.392	0.262	
26.350	0.583	0.291	
26.355	0.226	0.334	
26.360	0.369	0.358	
26.365	0.846	0.388	
26.370	0.640	0.455	
26.375	0.449	0.523	
26.380	0.938	0.574	
26.385	1.005	0.647	
26.390	0.676	0.731	
26.395	1.000	0.792	
26.400	1.156	0.853	
26.405	0.605	0.906	
26.410	0.501	0.897	
26.415	0.758	0.836	
26.420	0.304	0.759	
26.425	-0.022	0.643	
26.430	0.288	0.493	
26.435	0.075	0.357	
26.440	-0.295	0.231	
26.445	-0.152	0.095	
26.450	-0.016	-0.017	
26.455	-0.295	-0.091	
26.460	-0.287	-0.152	
26.465	-0.089	-0.198	
26.470	-0.294	-0.219	
26.475	-0.382	-0.238	
26.480	-0.121	-0.258	
26.485	-0.104	-0.253	
26.490	-0.298	-0.234	
26.495	-0.122	-0.219	
26.500	0.033	-0.194	
26.505	-0.262	-0.161	
26.510	-0.225	-0.148	
26.515	0.064	-0.144	
26.520	-0.167	-0.128	
26.525	-0.278	-0.122	
26.530	0.029	-0.128	
26.535	-0.009	-0.118	
26.540	-0.257	-0.103	
26.545	-0.097	-0.105	
26.550	0.003	-0.107	
26.555	-0.301	-0.107	
26.560	-0.295	-0.128	
26.565	-0.084	-0.160	
26.570	-0.274	-0.180	
26.575	-0.387	-0.204	
26.580	-0.148	-0.233	
26.585	-0.194	-0.245	
26.590	-0.405	-0.249	
26.595	-0.249	-0.263	
26.600	-0.152	-0.270	
26.605	-0.339	-0.265	
26.610	-0.229	-0.262	
26.615	0.313	-0.235	
26.620	0.264	-0.148	
26.625	-0.011	-0.039	
26.630	0.047	0.035	
26.635	-0.274	0.056	
26.640	-0.625	0.004	
26.645	-0.564	-0.119	
26.650	-0.491	-0.260	
26.655	-0.621	-0.382	
26.660	-0.468	-0.473	
26.665	-0.148	-0.509	
26.670	-0.222	-0.478	
26.675	-0.255	-0.414	
26.680	0.163	-0.332	
26.685	0.137	-0.221	
26.690	-0.138	-0.112	
26.695	0.188	-0.035	
26.700	0.447	0.041	
26.705	0.046	0.122	
26.710	0.152	0.172	
26.715	0.565	0.207	
26.720	0.276	0.258	
26.725	0.148	0.294	
26.730	0.646	0.313	
26.735	0.637	0.361	
26.740	0.272	0.419	
26.745	0.660	0.455	
26.750	0.909	0.504	
26.755	0.542	0.574	
26.760	0.647	0.625	
26.765	1.066	0.668	
26.770	0.796	0.731	
26.775	0.567	0.776	
26.780	0.977	0.789	
26.785	0.814	0.804	
26.790	0.250	0.794	
26.795	0.453	0.725	
26.800	0.553	0.636	
26.805	0.001	0.546	
26.810	-0.055	0.425	
26.815	0.215	0.292	
26.820	-0.119	0.184	
26.825	-0.262	0.084	
26.830	-0.049	-0.013	
26.835	-0.112	-0.080	
26.840	-0.349	-0.126	
26.845	-0.181	-0.172	
26.850	-0.064	-0.198	
26.855	-0.280	-0.202	
26.860	-0.234	-0.206	
26.865	-0.028	-0.206	
26.870	-0.197	-0.190	
26.875	-0.243	-0.178	
26.880	0.082	-0.167	
26.885	0.001	-0.134	
26.890	-0.246	-0.101	
26.895	-0.045	-0.091	
26.900	0.099	-0.080	
26.905	-0.205	-0.062	
26.910	-0.145	-0.063	
26.915	0.194	-0.066	
26.920	-0.095	-0.048	
26.925	-0.242	-0.042	
26.930	-0.054	-0.060	
26.935	-0.164	-0.081	
26.940	-0.381	-0.112	
26.945	-0.211	-0.159	
26.950	-0.092	-0.194	
26.955	-0.344	-0.209	
26.960	-0.320	-0.229	
26.965	-0.118	-0.247	
26.970	-0.294	-0.250	
26.975	-0.362	-0.254	
26.980	-0.064	-0.259	
26.985	-0.014	-0.237	
26.990	-0.124	-0.193	
26.995	0.343	-0.131	
27.000	0.452	-0.030	
27.005	-0.168	0.075	
27.010	-0.326	0.103	
27.015	-0.313	0.046	
27.020	-0.562	-0.061	
27.025	-0.674	-0.200	
27.030	-0.407	-0.338	
27.035	-0.368	-0.429	
27.040	-0.514	-0.471	
27.045	-0.274	-0.482	
27.050	-0.019	-0.448	
27.055	-0.199	-0.372	
27.060	-0.095	-0.290	
27.065	0.270	-0.201	
27.070	0.094	-0.096	
27.075	-0.038	-0.007	
27.080	0.379	0.057	
27.085	0.264	0.123	
27.090	-0.115	0.169	
27.095	0.185	0.171	
27.100	0.417	0.171	
27.105	0.006	0.187	
27.110	0.125	0.186	
27.115	0.568	0.189	
27.120	0.331	0.229	
27.125	0.241	0.274	
27.130	0.713	0.317	
27.135	0.675	0.387	
27.140	0.304	0.459	
27.145	0.632	0.498	
27.150	0.799	0.535	
27.155	0.324	0.572	
27.160	0.316	0.566	
27.165	0.647	0.532	
27.170	0.249	0.504	
27.175	-0.052	0.447	
27.180	0.288	0.356	
27.185	0.075	0.274	
27.190	-0.254	0.191	
27.195	-0.066	0.092	
27.200	0.026	0.010	
27.205	-0.297	-0.047	
27.210	-0.255	-0.104	
27.215	0.000	-0.150	
27.220	-0.174	-0.165	
27.225	-0.265	-0.170	
27.230	-0.013	-0.174	
27.235	-0.071	-0.161	
27.240	-0.277	-0.144	
27.245	-0.106	-0.143	
27.250	0.021	-0.138	
27.255	-0.243	-0.124	
27.260	-0.185	-0.124	
27.265	0.091	-0.125	
27.270	-0.150	-0.110	
27.275	-0.257	-0.104	
27.280	0.018	-0.111	
27.285	-0.072	-0.108	
27.290	-0.295	-0.106	
27.295	-0.115	-0.121	
27.300	-0.017	-0.131	
27.305	-0.291	-0.132	
27.310	-0.248	-0.147	
27.315	-0.029	-0.165	
27.320	-0.243	-0.169	
27.325	-0.338	-0.179	
27.330	-0.074	-0.197	
27.335	-0.126	-0.197	
27.340	-0.329	-0.191	
27.345	-0.176	-0.197	
27.350	-0.104	-0.200	
27.355	-0.297	-0.196	
27.360	-0.130	-0.196	
27.365	0.458	-0.164	
27.370	0.267	-0.070	
27.375	0.041	0.037	
27.380	0.189	0.108	
27.385	-0.188	0.133	
27.390	-0.555	0.087	
27.395	-0.456	-0.033	
27.400	-0.364	-0.170	
27.405	-0.523	-0.285	
27.410	-0.413	-0.373	
27.415	-0.129	-0.415	
27.420	-0.251	-0.402	
27.425	-0.255	-0.362	
27.430	0.191	-0.302	
27.435	0.097	-0.207	
27.440	-0.176	-0.112	
27.445	0.085	-0.052	
27.450	0.269	-0.001	
27.455	-0.144	0.046	
27.460	-0.077	0.057	
27.465	0.307	0.052	
27.470	0.072	0.068	
27.475	-0.034	0.082	
27.480	0.476	0.097	
27.485	0.440	0.148	
27.490	0.082	0.213	
27.495	0.473	0.255	
27.500	0.709	0.309	
27.505	0.288	0.379	
27.510	0.382	0.420	
27.515	0.835	0.450	
27.520	0.528	0.501	
27.525	0.296	0.534	
27.530	0.611	0.532	
27.535	0.449	0.523	
27.540	0.036	0.494	
27.545	0.321	0.427	
27.550	0.395	0.365	
27.555	-0.127	0.312	
27.560	-0.115	0.230	
27.565	0.218	0.141	
27.570	-0.080	0.082	
27.575	-0.177	0.033	
27.580	0.136	-0.012	
27.585	-0.057	-0.029	
27.590	-0.281	-0.045	
27.595	-0.080	-0.076	
27.600	0.110	-0.093	
27.605	-0.176	-0.086	
27.610	-0.129	-0.083	
27.615	0.180	-0.079	
27.620	-0.064	-0.054	
27.625	-0.158	-0.037	
27.630	0.224	-0.029	
27.635	0.111	-0.001	
27.640	-0.196	0.024	
27.645	0.059	0.022	
27.650	0.236	0.024	
27.655	-0.136	0.039	
27.660	-0.084	0.034	
27.665	0.230	0.021	
27.670	-0.109	0.024	
27.675	-0.231	0.010	
27.680	0.061	-0.022	
27.685	-0.071	-0.042	
27.690	-0.303	-0.061	
27.695	-0.132	-0.097	
27.700	-0.025	-0.124	
27.705	-0.298	-0.136	
27.710	-0.260	-0.158	
27.715	-0.046	-0.179	
27.720	-0.265	-0.185	
27.725	-0.324	-0.195	
27.730	0.035	-0.205	
27.735	0.146	-0.177	
27.740	0.082	-0.111	
27.745	0.490	-0.022	
27.750	0.434	0.095	
27.755	-0.239	0.187	
27.760	-0.370	0.178	
27.765	-0.309	0.082	
27.770	-0.530	-0.051	
27.775	-0.584	-0.197	
27.780	-0.294	-0.324	
27.785	-0.269	-0.393	
27.790	-0.422	-0.413	
27.795	-0.168	-0.405	
27.800	0.110	-0.357	
27.805	-0.155	-0.272	
27.810	-0.042	-0.191	
27.815	0.394	-0.109	
27.820	0.096	-0.009	
27.825	-0.045	0.066	
27.830	0.415	0.111	
27.835	0.334	0.164	
27.840	-0.037	0.208	
27.845	0.266	0.216	
27.850	0.420	0.222	
27.855	0.067	0.238	
27.860	0.256	0.239	
27.865	0.718	0.256	
27.870	0.418	0.314	
27.875	0.278	0.369	
27.880	0.823	0.411	
27.885	0.782	0.481	
27.890	0.432	0.556	
27.895	0.790	0.603	
27.900	0.898	0.649	
27.905	0.417	0.690	
27.910	0.414	0.682	
27.915	0.647	0.640	
27.920	0.180	0.588	
27.925	-0.049	0.498	
27.930	0.272	0.378	
27.935	0.041	0.274	
27.940	-0.271	0.176	
27.945	-0.121	0.067	
27.950	-0.049	-0.025	
27.955	-0.295	-0.089	
27.960	-0.251	-0.146	
27.965	-0.051	-0.186	
27.970	-0.226	-0.198	
27.975	-0.291	-0.204	
27.980	-0.026	-0.208	
27.985	-0.097	-0.191	
27.990	-0.275	-0.171	
27.995	-0.078	-0.163	
28.000	0.070	-0.145	
28.005	-0.219	-0.117	
28.010	-0.168	-0.107	
28.015	0.076	-0.104	
28.020	-0.129	-0.090	
28.025	-0.216	-0.085	
28.030	0.099	-0.088	
28.035	-0.025	-0.075	
28.040	-0.272	-0.065	
28.045	-0.112	-0.080	
28.050	-0.028	-0.096	
28.055	-0.320	-0.109	
28.060	-0.304	-0.140	
28.065	-0.127	-0.178	
28.070	-0.291	-0.203	
28.075	-0.365	-0.228	
28.080	-0.156	-0.252	
28.085	-0.222	-0.259	
28.090	-0.382	-0.260	
28.095	-0.193	-0.267	
28.100	-0.092	-0.261	
28.105	-0.317	-0.241	
28.110	-0.188	-0.230	
28.115	0.327	-0.198	
28.120	0.250	-0.113	
28.125	0.053	-0.010	
28.130	0.108	0.064	
28.135	-0.315	0.087	
28.140	-0.662	0.027	
28.145	-0.569	-0.109	
28.150	-0.494	-0.262	
28.155	-0.598	-0.388	
28.160	-0.420	-0.476	
28.165	-0.138	-0.504	
28.170	-0.236	-0.468	
28.175	-0.229	-0.402	
28.180	0.211	-0.318	
28.185	0.162	-0.202	
28.190	-0.119	-0.088	
28.195	0.162	-0.012	
28.200	0.347	0.053	
28.205	-0.014	0.114	
28.210	0.152	0.145	
28.215	0.537	0.171	
28.220	0.180	0.218	
28.225	0.018	0.243	
28.230	0.547	0.245	
28.235	0.519	0.277	
28.240	0.217	0.324	
28.245	0.637	0.361	
28.250	0.861	0.421	
28.255	0.533	0.506	
28.260	0.664	0.574	
28.265	1.023	0.635	
28.270	0.719	0.706	
28.275	0.547	0.749	
28.280	0.948	0.760	
28.285	0.756	0.772	
28.290	0.293	0.763	
28.295	0.525	0.704	
28.300	0.530	0.631	
28.305	-0.063	0.549	
28.310	-0.075	0.423	
28.315	0.188	0.281	
28.320	-0.165	0.166	
28.325	-0.262	0.060	
28.330	-0.011	-0.035	
28.335	-0.139	-0.095	
28.340	-0.347	-0.137	
28.345	-0.170	-0.178	
28.350	-0.074	-0.201	
28.355	-0.309	-0.204	
28.360	-0.245	-0.211	
28.365	-0.014	-0.213	
28.370	-0.239	-0.198	
28.375	-0.317	-0.192	
28.380	-0.046	-0.195	
28.385	-0.077	-0.184	
28.390	-0.291	-0.167	
28.395	-0.104	-0.163	
28.400	0.061	-0.151	
28.405	-0.207	-0.126	
28.410	-0.129	-0.113	
28.415	0.097	-0.102	
28.420	-0.171	-0.083	
28.425	-0.258	-0.082	
28.430	-0.005	-0.098	
28.435	-0.138	-0.106	
28.440	-0.361	-0.121	
28.445	-0.210	-0.155	
28.450	-0.138	-0.185	
28.455	-0.371	-0.206	
28.460	-0.324	-0.233	
28.465	-0.147	-0.258	
28.470	-0.295	-0.264	
28.475	-0.362	-0.269	
28.480	-0.116	-0.275	
28.485	-0.101	-0.259	
28.490	-0.167	-0.225	
28.495	0.371	-0.170	
28.500	0.537	-0.061	
28.505	-0.147	0.064	
28.510	-0.367	0.108	
28.515	-0.382	0.052	
28.520	-0.657	-0.068	
28.525	-0.752	-0.228	
28.530	-0.483	-0.386	
28.535	-0.454	-0.493	
28.540	-0.541	-0.544	
28.545	-0.248	-0.551	
28.550	-0.006	-0.500	
28.555	-0.190	-0.404	
28.560	-0.086	-0.304	
28.565	0.314	-0.201	
28.570	0.012	-0.087	
28.575	-0.080	-0.004	
28.580	0.414	0.051	
28.585	0.324	0.117	
28.590	0.010	0.178	
28.595	0.327	0.206	
28.600	0.443	0.233	
28.605	0.148	0.266	
28.610	0.376	0.284	
28.615	0.799	0.319	
28.620	0.495	0.391	
28.625	0.438	0.457	
28.630	0.964	0.513	
28.635	0.909	0.597	
28.640	0.570	0.683	
28.645	0.927	0.736	
28.650	1.058	0.787	
28.655	0.620	0.836	
28.660	0.725	0.845	
28.665	0.991	0.835	
28.670	0.524	0.825	
28.675	0.214	0.772	
28.680	0.486	0.669	
28.685	0.191	0.559	
28.690	-0.173	0.434	
28.695	0.020	0.286	
28.700	0.058	0.157	
28.705	-0.300	0.057	
28.710	-0.251	-0.039	
28.715	-0.031	-0.118	
28.720	-0.269	-0.162	
28.725	-0.339	-0.195	
28.730	-0.063	-0.222	
28.735	-0.135	-0.222	
28.740	-0.326	-0.212	
28.745	-0.136	-0.210	
28.750	-0.042	-0.200	
28.755	-0.262	-0.180	
28.760	-0.174	-0.171	
28.765	0.035	-0.162	
28.770	-0.210	-0.142	
28.775	-0.213	-0.133	
28.780	0.154	-0.127	
28.785	-0.017	-0.097	
28.790	-0.232	-0.069	
28.795	-0.025	-0.066	
