Time	Potential	EKG	Unnamed: 3
0.0	0.321	0.013763963440574017	
0.005	0.154	0.055339811363506776	
0.01	0.264	0.10881313680360719	
0.015	0.070	0.14651859640628012	
0.02	-0.075	0.15327833466858767	
0.025	0.215	0.13759494849321824	
0.03	0.252	0.13084532495479206	
0.035	0.000	0.13377054283375867	
0.04	0.114	0.13151524255941596	
0.045	0.492	0.1390427726947699	
0.05	0.504	0.18721248502538218	
0.055	0.631	0.27706736481637817	
0.06	1.100	0.40452996972591443	
0.065	1.084	0.5694134175188444	
0.07	0.935	0.738754528002296	
0.075	1.161	0.8799962069721995	
0.08	1.120	0.9869913541970937	
0.085	0.874	1.0512442517606155	
0.09	1.060	1.0746643701767673	
0.095	1.182	1.0803809531795994	
0.1	0.768	1.0728009837304073	
0.105	0.629	1.0279007198663135	
0.11	0.771	0.9488688204571295	
0.115	0.450	0.8502859871205852	
0.12	0.215	0.7325156609573198	
0.125	0.360	0.6012542572250477	
0.13	0.236	0.4771063717578311	
0.135	-0.058	0.3600554458938304	
0.14	-0.011	0.24672697276425024	
0.145	0.062	0.144518776311545	
0.15	-0.139	0.06073212876320518	
0.155	-0.162	-0.005085314512257229	
0.16	0.020	-0.054026483158153865	
0.165	-0.161	-0.08673871116921776	
0.17	-0.286	-0.11350573061530178	
0.175	-0.165	-0.14270795022952737	
0.18	-0.208	-0.17092294730345906	
0.185	-0.382	-0.20195817078538286	
0.19	-0.388	-0.23724519614507694	
0.195	-0.341	-0.2795281795364918	
0.2	-0.520	-0.32729724355646267	
0.205	-0.608	-0.3790447358564861	
0.21	-0.596	-0.4390682712541971	
0.215	-0.698	-0.5077964349124546	
0.22	-0.757	-0.5744335243392414	
0.225	-0.650	-0.6286662135000443	
0.23	-0.660	-0.6679941408642823	
0.235	-0.795	-0.6939429697315033	
0.24	-0.705	-0.7101586467261987	
0.245	-0.631	-0.7175658749664173	
0.25	-0.714	-0.7183474126134818	
0.255	-0.588	-0.7049576594192812	
0.26	-0.330	-0.667016125468499	
0.265	-0.248	-0.5998483680364942	
0.27	-0.364	-0.511424734055659	
0.275	-0.463	-0.4336523625280727	
0.28	-0.734	-0.4131180142892578	
0.285	-0.995	-0.4640308217478004	
0.29	-0.995	-0.5700837734268871	
0.295	-0.921	-0.697551661189566	
0.3	-0.929	-0.810426761962169	
0.305	-0.810	-0.8778813815677858	
0.31	-0.617	-0.8929167304793162	
0.315	-0.558	-0.8609656041781006	
0.32	-0.485	-0.7884498408046055	
0.325	-0.326	-0.6874468803848153	
0.33	-0.306	-0.5811085091387409	
0.335	-0.388	-0.4851612029684689	
0.34	-0.300	-0.4069548042041964	
0.345	-0.220	-0.3494829000711739	
0.35	-0.304	-0.31066185265447416	
0.355	-0.272	-0.28090241222167317	
0.36	-0.156	-0.257743454165276	
0.365	-0.179	-0.2401301295522163	
0.37	-0.141	-0.2165943925554001	
0.375	0.165	-0.17319828861490155	
0.38	0.258	-0.1030715025924082	
0.385	0.133	-0.01539454607766277	
0.39	0.295	0.07417846477991405	
0.395	0.400	0.15569275248112271	
0.4	0.316	0.22610689632569836	
0.405	0.550	0.29707057003484627	
0.41	0.779	0.3805356927291323	
0.415	0.545	0.4677557786305957	
0.42	0.313	0.5261492785843512	
0.425	0.559	0.5429521461182238	
0.43	0.432	0.5330064804807347	
0.435	0.010	0.4923676943983025	
0.44	0.088	0.41316891743484885	
0.445	0.127	0.3118826515172376	
0.45	-0.144	0.20705060958408944	
0.455	-0.200	0.10494058407480246	
0.46	-0.072	0.010612347270682483	
0.465	-0.168	-0.06814518170151494	
0.47	-0.208	-0.12186689889747342	
0.475	-0.055	-0.14904317946832707	
0.48	-0.080	-0.15792757632225157	
0.485	-0.228	-0.15660734571094773	
0.49	-0.118	-0.15084087171543764	
0.495	-0.034	-0.14410277548932415	
0.5	-0.181	-0.1369489488755321	
0.505	-0.179	-0.13007990519383966	
0.51	-0.013	-0.12538346011658563	
0.515	-0.127	-0.12115514986081197	
0.52	-0.229	-0.11890787306291545	
0.525	-0.103	-0.12205422958301966	
0.53	-0.193	-0.13392463987970182	
0.535	-0.307	-0.15562873516644393	
0.54	-0.190	-0.17683695726712195	
0.545	-0.103	-0.19107090920264752	
0.55	-0.254	-0.19996133761096285	
0.555	-0.257	-0.20210133555286086	
0.56	-0.155	-0.2053509518883351	
0.565	-0.234	-0.21215483905219507	
0.57	-0.309	-0.21894989339877083	
0.575	-0.197	-0.22401386297865808	
0.58	-0.205	-0.23188545591604615	
0.585	-0.246	-0.2356892399504004	
0.59	0.053	-0.21680816393098618	
0.595	0.441	-0.15395708527239282	
0.6	0.128	-0.0520066860475869	
0.605	-0.200	0.034790087559795055	
0.61	-0.310	0.04763992486166064	
0.615	-0.506	-0.02218634978179312	
0.62	-0.654	-0.14298822657343582	
0.625	-0.541	-0.27896711487875736	
0.63	-0.504	-0.4018719238052973	
0.635	-0.532	-0.48769114585587503	
0.64	-0.300	-0.5197458949220741	
0.645	-0.121	-0.49798927169032475	
0.65	-0.141	-0.4330722562193548	
0.655	-0.032	-0.3370638461172951	
0.66	0.163	-0.22522289954478722	
0.665	0.030	-0.12129375325345632	
0.67	0.058	-0.03402696268731332	
0.675	0.356	0.0451696052867387	
0.68	0.279	0.1190767208566061	
0.685	0.058	0.1751184305412566	
0.69	0.250	0.20627719964035135	
0.695	0.298	0.22308558955684535	
0.7	0.145	0.22880104297325918	
0.705	0.270	0.23387050120884967	
0.71	0.583	0.2559292934717061	
0.715	0.542	0.30376046543364055	
0.72	0.380	0.3658495660450233	
0.725	0.618	0.42416919754071003	
0.73	0.710	0.4771911422136993	
0.735	0.508	0.5290971425382099	
0.74	0.614	0.5722039007153618	
0.745	0.790	0.6031363343630587	
0.75	0.644	0.6318537570949985	
0.755	0.528	0.6538100065655817	
0.76	0.629	0.6558493207091818	
0.765	0.377	0.6287543465311367	
0.77	0.142	0.5698793138321891	
0.775	0.192	0.4821363996810758	
0.78	0.036	0.3711355803454254	
0.785	-0.126	0.251145253938228	
0.79	-0.048	0.1402719754273298	
0.795	0.026	0.05009914584986774	
0.8	-0.199	-0.018159875015405932	
0.805	-0.177	-0.07011391024452543	
0.81	0.001	-0.10412758037175535	
0.815	-0.150	-0.12326036742930488	
0.82	-0.236	-0.13407400112611034	
0.825	-0.066	-0.13983471793481736	
0.83	-0.090	-0.14288398284585652	
0.835	-0.251	-0.14484760736091437	
0.84	-0.171	-0.14673601683500231	
0.845	-0.060	-0.15194431228521404	
0.85	-0.187	-0.15415143481099067	
0.855	-0.236	-0.15409303169706018	
0.86	-0.124	-0.1571790153398982	
0.865	-0.213	-0.16929262166384101	
0.87	-0.303	-0.1820227368974035	
0.875	-0.190	-0.19482488058106923	
0.88	-0.216	-0.21195284667118716	
0.885	-0.344	-0.22883682391049895	
0.89	-0.248	-0.24165340830371576	
0.895	-0.202	-0.2519840367261448	
0.9	-0.338	-0.2622310395343529	
0.905	-0.346	-0.2710137259628227	
0.91	-0.226	-0.27912162540437635	
0.915	-0.237	-0.28639785223047576	
0.92	-0.153	-0.27600648449156784	
0.925	0.266	-0.22666016190083552	
0.93	0.198	-0.1379842216190489	
0.935	-0.219	-0.052984354082157945	
0.94	-0.370	-0.021637806807838646	
0.945	-0.492	-0.06997688260490512	
0.95	-0.726	-0.18334693286537226	
0.955	-0.750	-0.3249984155192682	
0.96	-0.523	-0.4580041306850538	
0.965	-0.478	-0.5504178197637042	
0.97	-0.439	-0.5820357015636786	
0.975	-0.228	-0.5565946924439974	
0.98	-0.190	-0.49701513936727787	
0.985	-0.229	-0.4180155657897647	
0.99	-0.113	-0.3294743845447936	
0.995	0.038	-0.24591037474634153	
1.0	-0.080	-0.17148373112504353	
1.005	-0.058	-0.10595520416427863	
1.01	0.139	-0.05390568778792349	
1.015	-0.057	-0.017620061595948516	
1.02	-0.109	-0.0001486080983084428	
1.025	0.281	0.016591728475896576	
1.03	0.345	0.05296781825246985	
1.035	0.163	0.10981857481018806	
1.04	0.310	0.16963496648134607	
1.045	0.461	0.2251729186852401	
1.05	0.252	0.27136958223348473	
1.055	0.307	0.30905907585728576	
1.06	0.603	0.34122218126032894	
1.065	0.467	0.3783224291066445	
1.07	0.391	0.4168156330991817	
1.075	0.661	0.4536600308855587	
1.08	0.632	0.49091093756611165	
1.085	0.359	0.5207614808160157	
1.09	0.481	0.5306957100097064	
1.095	0.363	0.5151421643812002	
1.1	-0.054	0.4582943116832679	
1.105	-0.003	0.3630938454709444	
1.11	0.203	0.2592421718696216	
1.115	-0.057	0.16831092964407057	
1.12	-0.161	0.09083912283875163	
1.125	0.038	0.026645368185063547	
1.13	-0.023	-0.020074409774176738	
1.135	-0.176	-0.051168045125342544	
1.14	-0.113	-0.07233986162593223	
1.145	-0.032	-0.08987474049054098	
1.15	-0.216	-0.1075742094075806	
1.155	-0.217	-0.12190369989120556	
1.16	-0.022	-0.13488466603664456	
1.165	-0.115	-0.1406284044016703	
1.17	-0.217	-0.1380747016121629	
1.175	-0.058	-0.13247724562045365	
1.18	-0.045	-0.12812006275977067	
1.185	-0.217	-0.12304853711695363	
1.19	-0.168	-0.11937256796905034	
1.195	-0.115	-0.12799275027955395	
1.2	-0.274	-0.14650475816014255	
1.205	-0.280	-0.16682759752869247	
1.21	-0.193	-0.1899895655036068	
1.215	-0.315	-0.218673841049966	
1.22	-0.384	-0.24696934014316424	
1.225	-0.252	-0.2704721860685858	
1.23	-0.271	-0.29121662897662587	
1.235	-0.378	-0.30400925037284954	
1.24	-0.213	-0.30527171671456665	
1.245	-0.063	-0.2900355691776182	
1.25	-0.132	-0.25754760130747406	
1.255	0.018	-0.20273069971150748	
1.26	0.224	-0.12895919865136563	
1.265	-0.069	-0.058777611363887136	
1.27	-0.358	-0.024000343947801813	
1.275	-0.385	-0.05045511667099981	
1.28	-0.512	-0.13429113507173177	
1.285	-0.647	-0.24903809836085958	
1.29	-0.552	-0.36119366785620116	
1.295	-0.472	-0.45304057719187274	
1.3	-0.504	-0.5136046017282727	
1.305	-0.391	-0.5296625604563631	
1.31	-0.237	-0.5069022294209713	
1.315	-0.197	-0.45884520394913153	
1.32	-0.155	-0.38494255194621724	
1.325	0.085	-0.2902736121323772	
1.33	0.009	-0.19534718536196147	
1.335	-0.197	-0.1191981815160233	
1.34	-0.069	-0.07409675947283453	
1.345	-0.005	-0.05499146475742035	
1.35	-0.129	-0.05181352623049351	
1.355	-0.075	-0.05066594346897056	
1.36	0.165	-0.042728187714247884	
1.365	-0.025	-0.027970611038709188	
1.37	-0.100	-0.013082519251215077	
1.375	0.362	0.009904816965902476	
1.38	0.394	0.059722458365006025	
1.385	0.183	0.1316695153310323	
1.39	0.418	0.20495933668179317	
1.395	0.614	0.277118760448146	
1.4	0.406	0.34910716620559235	
1.405	0.426	0.4112804894837583	
1.41	0.588	0.4543091617903408	
1.415	0.325	0.4730089436014272	
1.42	0.259	0.4648855486209675	
1.425	0.452	0.4428946911087126	
1.43	0.322	0.4126943437184811	
1.435	0.015	0.3696628687829555	
1.44	0.146	0.3109585035042944	
1.445	0.183	0.24610740839722742	
1.45	-0.097	0.18113284671085444	
1.455	-0.081	0.11728941357842154	
1.46	0.093	0.05929818128343756	
1.465	-0.069	0.014077693423854553	
1.47	-0.153	-0.018072620750619793	
1.475	0.059	-0.038175093217556515	
1.48	0.032	-0.04728348303138108	
1.485	-0.152	-0.04723352775662996	
1.49	-0.016	-0.0440970190842357	
1.495	0.136	-0.03796056073136346	
1.5	-0.116	-0.028761379638104143	
1.505	-0.122	-0.022703295970942665	
1.51	0.026	-0.027845375362259533	
1.515	-0.106	-0.04188430130809446	
1.52	-0.176	-0.05496403622438427	
1.525	-0.005	-0.06628516575644146	
1.53	-0.081	-0.07835337111807295	
1.535	-0.249	-0.09110024367209998	
1.54	-0.170	-0.10810610409825258	
1.545	-0.093	-0.1291014772917558	
1.55	-0.225	-0.14968409449223202	
1.555	-0.202	-0.16058469449122742	
1.56	-0.110	-0.16695455063480588	
1.565	-0.232	-0.17793850514416826	
1.57	-0.258	-0.18683576053277376	
1.575	-0.112	-0.19028816762345843	
1.58	0.015	-0.1834597480957056	
1.585	0.091	-0.14901258787240745	
1.59	0.368	-0.07097158663223008	
1.595	0.273	0.029806810342681043	
1.6	-0.196	0.10017649252228783	
1.605	-0.368	0.0994378838791214	
1.61	-0.430	0.02105729032190371	
1.615	-0.564	-0.11203446093826441	
1.62	-0.567	-0.2528236230649554	
1.625	-0.361	-0.36315592153522624	
1.63	-0.350	-0.4324752646389	
1.635	-0.342	-0.4541222509941191	
1.64	-0.139	-0.4279004946916881	
1.645	0.050	-0.3640900005203913	
1.65	-0.118	-0.2788846088491902	
1.655	-0.071	-0.1915212456422533	
1.66	0.169	-0.11478426362111241	
1.665	0.065	-0.048106499008014204	
1.67	0.079	0.01305512740939745	
1.675	0.376	0.07494787253554902	
1.68	0.270	0.13651846535273476	
1.685	0.029	0.18168589090190812	
1.69	0.321	0.20911235984844004	
1.695	0.534	0.23702554837400888	
1.7	0.371	0.2810420579657381	
1.705	0.467	0.3384341188738388	
1.71	0.730	0.4003217709888697	
1.715	0.559	0.46389639960434703	
1.72	0.455	0.5179616715605105	
1.725	0.800	0.5599611302133299	
1.73	0.786	0.6025867852199069	
1.735	0.629	0.6476903647095864	
1.74	0.869	0.6930771945813927	
1.745	0.939	0.7380139766778738	
1.75	0.544	0.7690525948381873	
1.755	0.478	0.7633779979404545	
1.76	0.534	0.7172425449042792	
1.765	0.325	0.6409568441564362	
1.77	0.159	0.5480201661243593	
1.775	0.302	0.45186208563532826	
1.78	0.078	0.3545830825483641	
1.785	-0.194	0.2497935336426195	
1.79	-0.060	0.14299870659527397	
1.795	0.097	0.05197050028781157	
1.8	-0.071	-0.005754142588340238	
1.805	-0.090	-0.033588452996733326	
1.81	0.148	-0.042890605444515985	
1.815	0.044	-0.035925750274785936	
1.82	-0.042	-0.014862211940133182	
1.825	0.113	0.007679295330824975	
1.83	0.004	0.02054808655668148	
1.835	-0.170	0.01798932763915783	
1.84	-0.022	0.0039148942439448005	
1.845	0.145	-0.00820647531706253	
1.85	-0.028	-0.007599767179047678	
1.855	-0.028	0.002475629993998199	
1.86	-0.011	0.004878495048870118	
1.865	-0.150	-0.010912792043913716	
1.87	-0.231	-0.03968251079908998	
1.875	-0.104	-0.07344627835818601	
1.88	-0.174	-0.11054311978617105	
1.885	-0.277	-0.1448097419997974	
1.89	-0.130	-0.16707515272755458	
1.895	-0.075	-0.1773847148545354	
1.9	-0.213	-0.17852084339410007	
1.905	-0.171	-0.17140894552213287	
1.91	-0.009	-0.16023614169397898	
1.915	0.114	-0.13491143017436352	
1.92	0.235	-0.0755107795940608	
1.925	0.414	0.019529498879299258	
1.93	-0.032	0.10531159682849386	
1.935	-0.401	0.12217146601731002	
1.94	-0.529	0.05290785776486411	
1.945	-0.564	-0.08646087549139704	
1.95	-0.593	-0.24850817850189866	
1.955	-0.474	-0.37932465690735356	
1.96	-0.297	-0.45619616151988496	
1.965	-0.301	-0.47994139347935766	
1.97	-0.254	-0.45454469737886793	
1.975	-0.032	-0.3904196110644841	
1.98	0.038	-0.305622919950178	
1.985	-0.063	-0.2108186858241599	
1.99	0.047	-0.12002271934538356	
1.995	0.220	-0.0434065967878945	
2.0	0.090	0.022384979881513833	
2.005	0.151	0.08162378822315515	
2.01	0.415	0.13586440520619064	
2.015	0.220	0.18597403962155348	
2.02	0.131	0.22335371824130998	
2.025	0.345	0.24465118993196405	
2.03	0.460	0.26338318196085836	
2.035	0.372	0.2971201639917029	
2.04	0.617	0.35006224906895	
2.045	0.767	0.4186359198877346	
2.05	0.602	0.49630099748210615	
2.055	0.651	0.569653439195024	
2.06	0.872	0.6309073574875936	
2.065	0.695	0.6798917613135643	
2.07	0.631	0.7143756043091012	
2.075	0.860	0.7347277698165307	
2.08	0.663	0.7432881334966608	
2.085	0.363	0.7250528849549045	
2.09	0.478	0.6761143012377981	
2.095	0.455	0.6065971183119503	
2.1	0.075	0.5222587528021034	
2.105	0.052	0.42070528275189795	
2.11	0.154	0.3108945020200137	
2.115	-0.028	0.2068878751982715	
2.12	-0.092	0.12046036693587109	
2.125	0.059	0.05471189430881739	
2.13	-0.055	0.00525168718749088	
2.135	-0.155	-0.031836610282038366	
2.14	0.021	-0.052849319721112425	
2.145	0.116	-0.055480583357177725	
2.15	-0.121	-0.046682922491576545	
2.155	-0.118	-0.03923119991075358	
2.16	0.013	-0.041207157585498345	
2.165	-0.084	-0.05013138800412866	
2.17	-0.045	-0.05244768914503291	
2.175	0.183	-0.037331200455178	
2.18	0.021	-0.012812629986423725	
2.185	-0.165	0.00121176411269045	
2.19	-0.119	-0.0038813117481668186	
2.195	-0.112	-0.03156623250332965	
2.2	-0.252	-0.07263652242182918	
2.205	-0.274	-0.11518297822339708	
2.21	-0.124	-0.15525243295720723	
2.215	-0.170	-0.18512166970193644	
2.22	-0.223	-0.19539941064791694	
2.225	-0.103	-0.19136678518269273	
2.23	-0.152	-0.18685253439937666	
2.235	-0.249	-0.18273427404865256	
2.24	-0.032	-0.17081953795225246	
2.245	0.372	-0.13357575387702458	
2.25	0.417	-0.04361217157718538	
2.255	0.351	0.08589769724582123	
2.26	0.148	0.194663219946419	
2.265	-0.295	0.22067268724190722	
2.27	-0.463	0.15361381208517064	
2.275	-0.437	0.021737808972133538	
2.28	-0.538	-0.139972278442426	
2.285	-0.575	-0.29177395372931525	
2.29	-0.349	-0.39960163049499475	
2.295	-0.214	-0.449593429643735	
2.3	-0.208	-0.4428366641650222	
2.305	-0.087	-0.38395990062521645	
2.31	0.107	-0.29509520564224967	
2.315	0.146	-0.19246199431109393	
2.32	0.739	-0.050375019319909856	
2.325	1.656	0.18511715719237906	
2.33	1.783	0.5300380608283809	
2.335	1.440	0.9068836282786435	
2.34	1.442	1.2143860359869492	
2.345	1.370	1.4014671837256079	
2.35	1.257	1.4799033495871585	
2.355	1.622	1.5059688107668183	
2.36	2.004	1.5431612377999206	
2.365	1.708	1.607524363994288	
2.37	1.553	1.6663425107575238	
2.375	1.772	1.6980584497032338	
2.38	1.718	1.7081319625324778	
2.385	1.689	1.7138564593359416	
2.39	2.001	1.7364350178845713	
2.395	2.160	1.7856937059543052	
2.4	1.909	1.854949095212304	
2.405	1.741	1.9087751800143957	
2.41	1.805	1.9171067305517229	
2.415	1.531	1.8776204779504686	
2.42	1.310	1.799310231449974	
2.425	1.385	1.6899867590022182	
2.43	1.048	1.5551887927845953	
2.435	0.683	1.3908644664151317	
2.44	0.573	1.199313596901201	
2.445	0.382	0.9836640786485651	
2.45	-0.026	0.750026862171787	
2.455	0.050	0.5207861064397556	
2.46	0.157	0.32414480173198945	
2.465	0.006	0.17775157889565726	
2.47	-0.074	0.07932276601342897	
2.475	0.105	0.020939457862502602	
2.48	-0.008	-0.011706070025051097	
2.485	-0.162	-0.032086807888452126	
2.49	-0.103	-0.0477864949637503	
2.495	-0.014	-0.0672865748687349	
2.5	-0.138	-0.08286784259107666	
2.505	-0.153	-0.08931860027694262	
2.51	0.090	-0.08993293261989013	
2.515	0.195	-0.07116109389103129	
2.52	0.197	-0.015674387066991147	
2.525	0.741	0.08287900396755025	
2.53	1.008	0.2333523809592816	
2.535	1.051	0.43799017551890773	
2.54	1.431	0.6741861612077689	
2.545	1.570	0.9166564752798305	
2.55	1.297	1.1321299870142254	
2.555	1.326	1.2876572143107703	
2.56	1.628	1.386971614772714	
2.565	1.425	1.4488272108847808	
2.57	1.407	1.4863656614319163	
2.575	1.818	1.51577227371226	
2.58	1.969	1.5683089839545707	
2.585	1.838	1.6521302105838171	
2.59	1.699	1.7351026844277169	
2.595	1.237	1.7514278459564085	
2.6	0.441	1.6432093513899781	
2.605	0.090	1.3947228284703639	
2.61	0.130	1.051774779911868	
2.615	0.033	0.6999180712453903	
2.62	0.091	0.4126681780937741	
2.625	0.415	0.2306754283215469	
2.63	0.466	0.15618775233948326	
2.635	0.461	0.1723832580262871	
2.64	0.823	0.25716509083289085	
2.645	1.078	0.396309976282088	
2.65	1.651	0.5995087019029263	
2.655	2.343	0.9050350090333755	
2.66	2.605	1.30260878808694	
2.665	2.220	1.7017458254728588	
2.67	2.015	2.0036362800205776	
2.675	2.168	2.1764773792530288	
2.68	2.090	2.244054646102841	
2.685	1.897	2.2414206365142952	
2.69	2.088	2.2010797321708035	
2.695	2.261	2.157263052764879	
2.7	2.139	2.1355963224642975	
2.705	2.155	2.1378893163758885	
2.71	2.300	2.149445587220121	
2.715	2.241	2.166996669064855	
2.72	2.290	2.1968426036909356	
2.725	2.478	2.2403339402053426	
2.73	2.382	2.2870908542671846	
2.735	2.076	2.3156183080972093	
2.74	2.074	2.305929484007007	
2.745	2.001	2.2530877520989865	
2.75	1.621	2.1617515811752512	
2.755	1.404	2.0288793557719007	
2.76	1.249	1.8532143372150167	
2.765	0.816	1.6360752386851447	
2.77	0.609	1.390968432882112	
2.775	0.716	1.1451464671086549	
2.78	0.489	0.9251111085244804	
2.785	0.211	0.7318805015551373	
2.79	0.334	0.5648378511885825	
2.795	0.369	0.4349899590229071	
2.8	0.097	0.3400411779753756	
2.805	0.061	0.2638893112254336	
2.81	0.137	0.19596677867324325	
2.815	-0.005	0.13630684191421766	
2.82	-0.043	0.08715656066750024	
2.825	0.180	0.055801704052221415	
2.83	0.127	0.04612092786134035	
2.835	-0.002	0.05122372196348875	
2.84	0.044	0.05657481656966751	
2.845	0.033	0.05372222929244706	
2.85	-0.145	0.03640053980647163	
2.855	-0.194	0.0038888320475188205	
2.86	-0.158	-0.04243230387205709	
2.865	-0.271	-0.09847004316145327	
2.87	-0.364	-0.15559612591116556	
2.875	-0.342	-0.21259979106862684	
2.88	-0.414	-0.2729196347289161	
2.885	-0.442	-0.3283752150306705	
2.89	-0.402	-0.3686048253696459	
2.895	-0.426	-0.3985213311108308	
2.9	-0.572	-0.4282598480832253	
2.905	-0.515	-0.45606568320852064	
2.91	-0.269	-0.47074187943665047	
2.915	-0.197	-0.4532604765473236	
2.92	-0.236	-0.4003682373267802	
2.925	-0.307	-0.3429256633342578	
2.93	-0.633	-0.32299810237850335	
2.935	-0.967	-0.3721294438683961	
2.94	-0.993	-0.4878073453178053	
2.945	-0.995	-0.6377120717585041	
2.95	-0.995	-0.7809293129740558	
2.955	-0.995	-0.887011716462608	
2.96	-0.995	-0.9590610157070782	
2.965	-0.995	-1.004141442073452	
2.97	-0.995	-1.0231512708720798	
2.975	-0.996	-1.025148142569757	
2.98	-0.996	-1.023011383535422	
2.985	-0.996	-1.0188054890000866	
2.99	-0.996	-1.0088650956010805	
2.995	-0.996	-1.002930578005135	
3.0	-0.996	-1.0007880853949493	
3.005	-0.996	-0.9969442277741096	
3.01	-0.995	-0.9932671114547672	
3.015	-0.996	-0.9961391595698792	
3.02	-0.996	-0.9960105930989526	
3.025	-0.996	-0.9932330641245599	
3.03	-0.996	-0.9950980535968944	
3.035	-0.996	-0.997706547097278	
3.04	-0.995	-0.994831128816533	
3.045	-0.996	-0.9950185292503938	
3.05	-0.995	-0.9977931030726687	
3.055	-0.995	-0.9958631787188085	
3.06	-0.995	-0.9942736444492585	
3.065	-0.995	-0.9962243924705451	
3.07	-0.995	-0.9959798661873328	
3.075	-0.995	-0.9931396683862298	
3.08	-0.995	-0.9951759325524773	
3.085	-0.995	-0.9967848549207506	
3.09	-0.995	-0.9936936928737168	
3.095	-0.995	-0.9939997370365745	
3.1	-0.995	-0.9969705377491656	
3.105	-0.995	-0.9947802246862066	
3.11	-0.995	-0.9931135579917256	
3.115	-0.995	-0.99642066153323	
3.12	-0.995	-0.9960452305385142	
3.125	-0.995	-0.9928704760767071	
3.13	-0.995	-0.9952692788048757	
3.135	-0.993	-0.9970345878853542	
3.14	-0.860	-0.986422733296417	
3.145	-0.773	-0.9628621050782499	
3.15	-0.822	-0.9253277423182291	
3.155	-0.724	-0.8766968516770385	
3.16	-0.621	-0.8237739334865051	
3.165	-0.723	-0.7747186887263713	
3.17	-0.691	-0.7322348589458965	
3.175	-0.561	-0.6964579136603213	
3.18	-0.556	-0.663324798543361	
3.185	-0.624	-0.6314216925584188	
3.19	-0.517	-0.6011469456578145	
3.195	-0.426	-0.5746709078116172	
3.2	-0.526	-0.5457452778165677	
3.205	-0.491	-0.5176410353648109	
3.21	-0.382	-0.4944044594118133	
3.215	-0.482	-0.4770152491984928	
3.22	-0.463	-0.46140804845885136	
3.225	-0.310	-0.4440340804368891	
3.23	-0.309	-0.42241078370746765	
3.235	-0.352	-0.3937842154552226	
3.24	-0.142	-0.35480982804429784	
3.245	0.122	-0.2964869933643126	
3.25	0.258	-0.2011498381554833	
3.255	0.476	-0.059495538818648226	
3.26	0.366	0.09395860404122885	
3.265	-0.226	0.19153562810428576	
3.27	-0.454	0.1823209422006855	
3.275	-0.434	0.07642237481482603	
3.28	-0.491	-0.07948913601226999	
3.285	-0.504	-0.2311976953468643	
3.29	-0.237	-0.33642874581586185	
3.295	-0.037	-0.37621862821579605	
3.3	-0.071	-0.3486431387392903	
3.305	0.168	-0.2654679468678962	
3.31	0.567	-0.1355304366534903	
3.315	0.481	0.02834664250599119	
3.32	0.457	0.1981198773410011	
3.325	0.803	0.35185282121475864	
3.33	0.858	0.4904854329804655	
3.335	0.744	0.6183797942961959	
3.34	1.019	0.7287648592129379	
3.345	1.113	0.8249296375801521	
3.35	0.854	0.9039561169513108	
3.355	1.019	0.9605347692590469	
3.36	1.245	1.0027459035130117	
3.365	1.095	1.0431125127936631	
3.37	1.149	1.0860140581920783	
3.375	1.456	1.1351770640871628	
3.38	1.362	1.1934143708521732	
3.385	1.326	1.2541430671822957	
3.39	1.631	1.3210051268101601	
3.395	1.711	1.3970429925959844	
3.4	1.437	1.47069149449916	
3.405	1.497	1.5235855038058679	
3.41	1.636	1.548938031915943	
3.415	1.286	1.5469183568629168	
3.42	1.092	1.5088968230360655	
3.425	1.181	1.4323506679744753	
3.43	0.971	1.326362335348425	
3.435	0.698	1.2049949758658507	
3.44	0.747	1.0751269835339305	
3.445	0.709	0.9420770744304654	
3.45	0.438	0.8175661259129291	
3.455	0.583	0.7127060402289499	
3.46	0.771	0.6400733109468354	
3.465	0.499	0.5998018661518338	
3.47	0.464	0.5759237219038318	
3.475	0.730	0.5635190095345494	
3.48	0.600	0.562289510271802	
3.485	0.415	0.5649158540578627	
3.49	0.614	0.5642465175657185	
3.495	0.579	0.5590674289824605	
3.5	0.360	0.5454496977940217	
3.505	0.476	0.5277460094295191	
3.51	0.591	0.5100981969302609	
3.515	0.403	0.49471274412981003	
3.52	0.424	0.48393876794285645	
3.525	0.568	0.4785829893519671	
3.53	0.333	0.46721929610489915	
3.535	0.078	0.43585729060308176	
3.54	0.246	0.3813082919836949	
3.545	0.293	0.3200883947230181	
3.55	0.050	0.26541012178775697	
3.555	0.113	0.22076859714334812	
3.56	0.221	0.18212541514483113	
3.565	0.003	0.1466798593815099	
3.57	-0.006	0.11693503087507161	
3.575	0.455	0.10662662743051084	
3.58	0.585	0.14326875475618478	
3.585	0.638	0.23792521117225043	
3.59	0.744	0.3693219053584172	
3.595	0.415	0.4789855508814457	
3.6	-0.181	0.5023091068298846	
3.605	-0.287	0.41873986320497336	
3.61	-0.291	0.25310539000928417	
3.615	-0.411	0.057678753440764285	
3.62	-0.356	-0.1130127068269999	
3.625	-0.118	-0.22734036560910437	
3.63	-0.100	-0.2817706141612312	
3.635	-0.126	-0.2771051306410571	
3.64	0.281	-0.2186080737625656	
3.645	0.368	-0.11691411818172553	
3.65	0.330	0.011351820727244994	
3.655	0.573	0.15379859755623446	
3.66	0.771	0.3001725978257701	
3.665	0.592	0.43260773305013234	
3.67	0.597	0.5408676152638463	
3.675	0.820	0.6196692140329015	
3.68	0.709	0.6722202891268313	
3.685	0.464	0.6977622876440278	
3.69	0.646	0.6953493814167901	
3.695	0.814	0.6801540697213582	
3.7	0.702	0.6783374784606215	
3.705	0.889	0.7037706359665665	
3.71	1.087	0.7522312307243748	
3.715	0.897	0.8106256134684238	
3.72	0.924	0.8698454652570913	
3.725	1.254	0.9287111921149889	
3.73	1.110	0.988249194942956	
3.735	0.877	1.0347317690129212	
3.74	1.129	1.0593486786486639	
3.745	1.181	1.0711757260889647	
3.75	0.816	1.0713024317039237	
3.755	0.730	1.0456918841659264	
3.76	0.803	0.9831973890731336	
3.765	0.473	0.8916675369507576	
3.77	0.313	0.7818516274988159	
3.775	0.443	0.6606371538348434	
3.78	0.146	0.5332606148117918	
3.785	-0.072	0.40182895137469715	
3.79	0.224	0.282331115651972	
3.795	0.255	0.19614705527124005	
3.8	-0.066	0.14241621344531155	
3.805	0.090	0.10772102542334946	
3.81	0.392	0.09513365006308813	
3.815	0.183	0.11178322830164798	
3.82	0.058	0.14091439492473362	
3.825	0.249	0.16045374823096056	
3.83	0.125	0.16428306886842692	
3.835	-0.034	0.15601977351015098	
3.84	0.154	0.1411620919489754	
3.845	0.119	0.12197538745452469	
3.85	-0.139	0.09564093026537479	
3.855	-0.126	0.059726611681844934	
3.86	-0.022	0.012844395853653061	
3.865	-0.150	-0.03510215621338375	
3.87	-0.113	-0.06785974953326948	
3.875	0.050	-0.08174294784651562	
3.88	-0.089	-0.08578005960888277	
3.885	-0.181	-0.08573289136448208	
3.89	-0.066	-0.08691349446882354	
3.895	-0.095	-0.09422079798020423	
3.9	-0.242	-0.10817687936689704	
3.905	-0.153	-0.12217655784236933	
3.91	0.052	-0.12835329246624616	
3.915	0.056	-0.11505063780116634	
3.92	0.191	-0.06667564891582467	
3.925	0.363	0.011124284967071865	
3.93	-0.055	0.08010157556354167	
3.935	-0.326	0.09536704820302976	
3.94	-0.355	0.04402775863619542	
3.945	-0.442	-0.0623416728370226	
3.95	-0.567	-0.1910693809105121	
3.955	-0.465	-0.30611460909942856	
3.96	-0.309	-0.38844158252927113	
3.965	-0.332	-0.43001732759978983	
3.97	-0.255	-0.42361123698501535	
3.975	-0.016	-0.37793125823634105	
3.98	-0.011	-0.30586910787864885	
3.985	-0.031	-0.2175014007006414	
3.99	0.236	-0.1189515313309454	
3.995	0.233	-0.02138712008728222	
4.0	0.036	0.059934166828394135	
4.005	0.104	0.11485797983800904	
4.01	0.145	0.13848296339116217	
4.015	0.111	0.1409551247018211	
4.02	0.149	0.14440095327856478	
4.025	0.397	0.16106024277626013	
4.03	0.276	0.18910915793631405	
4.035	0.197	0.2204900242411024	
4.04	0.460	0.2540608274516155	
4.045	0.542	0.2966346584911428	
4.05	0.376	0.34694566180840447	
4.055	0.507	0.3968681119674974	
4.06	0.702	0.44550848153617384	
4.065	0.515	0.4919671734625125	
4.07	0.498	0.5313604354009787	
4.075	0.718	0.5600191574146021	
4.08	0.571	0.579140133051047	
4.085	0.368	0.584505771877283	
4.09	0.427	0.5659787040793798	
4.095	0.321	0.5195966603522137	
4.1	-0.002	0.4460047286704783	
4.105	0.007	0.3488430505512697	
4.11	0.058	0.2404377153540437	
4.115	-0.104	0.13704386194365945	
4.12	-0.100	0.05243601768336276	
4.125	0.117	-0.0020458829944077672	
4.13	-0.017	-0.029841518194705624	
4.135	-0.153	-0.04239155144668298	
4.14	-0.045	-0.05006563462850902	
4.145	0.024	-0.05843846040855491	
4.15	-0.127	-0.06187771351801074	
4.155	-0.061	-0.05914679181420518	
4.16	0.050	-0.055664774279697536	
4.165	-0.122	-0.05491842516225382	
4.17	-0.104	-0.053517947950980374	
4.175	0.104	-0.04914637294019975	
4.18	0.039	-0.037862156820880094	
4.185	-0.130	-0.02329898561697016	
4.19	-0.055	-0.018109952672522633	
4.195	-0.106	-0.03153582789838408	
4.2	-0.242	-0.060815567431924386	
4.205	-0.177	-0.09209629214267726	
4.21	-0.121	-0.12374833252274044	
4.215	-0.271	-0.15492199199516982	
4.22	-0.258	-0.18042888283543534	
4.225	-0.107	-0.19617540295282632	
4.23	-0.174	-0.20493201958854712	
4.235	-0.301	-0.20623902894395058	
4.24	-0.148	-0.20505079792283332	
4.245	0.001	-0.19758422836322198	
4.25	0.003	-0.1688032938360721	
4.255	0.340	-0.10099072634322728	
4.26	0.406	0.0022457250904938555	
4.265	-0.089	0.09396651071618518	
4.27	-0.338	0.12152302482698496	
4.275	-0.370	0.06380777274702257	
4.28	-0.518	-0.055977788514139266	
4.285	-0.543	-0.19522828276490176	
4.29	-0.379	-0.3119877913063897	
4.295	-0.300	-0.389568900689057	
4.3	-0.303	-0.4198294166952419	
4.305	-0.165	-0.3989877919277142	
4.31	-0.013	-0.34573107653293045	
4.315	-0.103	-0.27601858897264786	
4.32	-0.100	-0.20040668113661925	
4.325	0.094	-0.13210320318475566	
4.33	-0.038	-0.07902742987132128	
4.335	-0.060	-0.03930520597764515	
4.34	0.236	-0.002921975184266023	
4.345	0.302	0.04443246867112498	
4.35	0.130	0.10003703083444965	
4.355	0.197	0.15100952206687565	
4.36	0.327	0.18732769227075904	
4.365	0.255	0.21490597771089537	
4.37	0.311	0.24558442905443276	
4.375	0.576	0.28700492278686507	
4.38	0.487	0.3369509141972387	
4.385	0.374	0.3886300759994958	
4.39	0.605	0.43413530182487947	
4.395	0.507	0.4684218539597012	
4.4	0.372	0.48594403695913385	
4.405	0.670	0.5010745610156193	
4.41	0.849	0.5344368508341562	
4.415	0.522	0.5778273967340477	
4.42	0.371	0.6014811456409934	
4.425	0.441	0.586044011036006	
4.43	0.249	0.531969024876586	
4.435	0.072	0.45355270442281564	
4.44	0.174	0.3651409109238488	
4.445	0.046	0.2705093800938855	
4.45	-0.193	0.17392073748376272	
4.455	-0.113	0.08000450074265039	
4.46	0.036	0.0014869797952719627	
4.465	-0.142	-0.05311328894118629	
4.47	-0.141	-0.08353366919693944	
4.475	0.020	-0.09691496748009233	
4.48	-0.063	-0.10096822430013046	
4.485	-0.181	-0.09748191017523976	
4.49	-0.040	-0.09187935884502803	
4.495	0.021	-0.08744129824764596	
4.5	-0.161	-0.08108613727925923	
4.505	-0.057	-0.07203214355132818	
4.51	0.111	-0.06250290523026072	
4.515	-0.107	-0.0501295933898785	
4.52	-0.162	-0.04257043727243402	
4.525	-0.008	-0.046913205645531066	
4.53	-0.132	-0.06197838502008503	
4.535	-0.249	-0.08149182097175924	
4.54	-0.199	-0.10786065672194656	
4.545	-0.156	-0.1414655672760756	
4.55	-0.258	-0.17209808677476449	
4.555	-0.208	-0.18896575447408628	
4.56	-0.112	-0.198515549413051	
4.565	-0.280	-0.20721058148028976	
4.57	-0.309	-0.21350036591183194	
4.575	-0.074	-0.21783168382685852	
4.58	-0.028	-0.20907528575343204	
4.585	0.013	-0.1714782567974452	
4.59	0.495	-0.09167972947375756	
4.595	0.340	0.02248760305304822	
4.6	-0.162	0.11671697121770486	
4.605	-0.341	0.1330424940137799	
4.61	-0.456	0.057490078704396895	
4.615	-0.614	-0.0843144972805304	
4.62	-0.585	-0.23845565552736525	
4.625	-0.420	-0.36772739697772683	
4.63	-0.433	-0.45612973865975626	
4.635	-0.371	-0.4925103103420537	
4.64	-0.101	-0.4705948997513862	
4.645	0.035	-0.4025115441188001	
4.65	-0.086	-0.3043034277490183	
4.655	0.021	-0.19781146693528978	
4.66	0.162	-0.10443025630192351	
4.665	-0.093	-0.03445344772164882	
4.67	-0.068	0.006512179168822616	
4.675	0.318	0.03437070122821302	
4.68	0.215	0.06979333650159301	
4.685	0.058	0.1123822252917404	
4.69	0.362	0.15144953128503857	
4.695	0.417	0.19347742358251285	
4.7	0.215	0.2386410834852736	
4.705	0.400	0.2822302266406792	
4.71	0.554	0.32358419938514016	
4.715	0.427	0.36654543879873214	
4.72	0.498	0.4125749015608498	
4.725	0.683	0.4603389860854242	
4.73	0.547	0.5027182657625626	
4.735	0.513	0.5364476072010529	
4.74	0.832	0.5724857396183636	
4.745	0.797	0.6174031792448402	
4.75	0.539	0.6576506016110049	
4.755	0.585	0.6772567679459752	
4.76	0.579	0.6675121336326215	
4.765	0.152	0.6185210383578121	
4.77	0.006	0.5265814740106529	
4.775	0.130	0.402286611755606	
4.78	-0.098	0.26675100995853057	
4.785	-0.245	0.13751769612577824	
4.79	-0.052	0.02541766654525334	
4.795	-0.025	-0.055601752121621544	
4.8	-0.179	-0.10320442584645859	
4.805	-0.115	-0.12275137798800675	
4.81	-0.028	-0.1305745807482901	
4.815	-0.138	-0.13135169407042013	
4.82	-0.122	-0.12232008308945143	
4.825	0.070	-0.10583364362147807	
4.83	-0.100	-0.08926350940893488	
4.835	-0.199	-0.0793780032864777	
4.84	0.009	-0.07566395440566698	
4.845	-0.051	-0.07470337412396533	
4.85	-0.159	-0.07612399924678505	
4.855	-0.064	-0.07574219386239137	
4.86	0.017	-0.07466837924069686	
4.865	-0.190	-0.07731376982560444	
4.87	-0.246	-0.0882853831637107	
4.875	-0.127	-0.10992446235822373	
4.88	-0.229	-0.14125033899432293	
4.885	-0.320	-0.1722890826377514	
4.89	-0.162	-0.19671092840866747	
4.895	-0.176	-0.21474140107595546	
4.9	-0.294	-0.22504751390458677	
4.905	-0.225	-0.22674129584076805	
4.91	-0.185	-0.22973623389832692	
4.915	-0.152	-0.22927867861460122	
4.92	0.110	-0.20019603544971873	
4.925	0.547	-0.11589036938685027	
4.93	0.343	0.010737182126994885	
4.935	-0.089	0.12365358062617603	
4.94	-0.251	0.16019993487070788	
4.945	-0.478	0.09420135493896639	
4.95	-0.689	-0.04706017590730347	
4.955	-0.645	-0.21572885377616663	
4.96	-0.492	-0.373702816775594	
4.965	-0.480	-0.48624714760803117	
4.97	-0.367	-0.5311840649151234	
4.975	-0.127	-0.5129076724433809	
4.98	-0.152	-0.4522880320980301	
4.985	-0.159	-0.36627381027974903	
4.99	0.061	-0.2676552026623556	
4.995	0.113	-0.17078827798531526	
5.0	0.020	-0.08212939829238347	
5.005	0.206	0.00033328763902201394	
5.01	0.377	0.07832071910218809	
5.015	0.229	0.1495904210608117	
5.02	0.259	0.21276030718216785	
5.025	0.606	0.2711886072980815	
5.03	0.518	0.3336558788375519	
5.035	0.392	0.3976310126417129	
5.04	0.606	0.45042416162791465	
5.045	0.586	0.4902317122567469	
5.05	0.402	0.5147779367575913	
5.055	0.695	0.5363754699123269	
5.06	0.926	0.5724033501234608	
5.065	0.715	0.6275484215228153	
5.07	0.722	0.6857366278937373	
5.075	1.025	0.7392211602046338	
5.08	0.860	0.7886444076356834	
5.085	0.661	0.8256091649969698	
5.09	0.771	0.8344095740229052	
5.095	0.608	0.8102163127554786	
5.1	0.146	0.7427862739950344	
5.105	0.163	0.6283231684882189	
5.11	0.238	0.4893285773564607	
5.115	-0.072	0.34963044853011205	
5.12	-0.103	0.2207997519489422	
5.125	0.046	0.11011091672631608	
5.13	0.003	0.027688477996007984	
5.135	-0.058	-0.01820797102536018	
5.14	0.130	-0.029657770455159754	
5.145	0.036	-0.023858582901587384	
5.15	-0.116	-0.01602505449167829	
5.155	-0.068	-0.014652154692401952	
5.16	-0.051	-0.025854755822472986	
5.165	-0.118	-0.04630478627804836	
5.17	-0.075	-0.06007198353859053	
5.175	0.058	-0.06102192213536145	
5.18	-0.028	-0.05738760559163461	
5.185	-0.061	-0.04710235872773448	
5.19	0.151	-0.02667755704945651	
5.195	0.003	-0.004952074373599926	
5.2	-0.199	0.0010100934264466207	
5.205	-0.119	-0.01361892160347634	
5.21	-0.078	-0.04189074910974995	
5.215	-0.249	-0.07930537027629507	
5.22	-0.272	-0.11706954583222952	
5.225	-0.193	-0.15603992407083642	
5.23	-0.275	-0.19637496525726597	
5.235	-0.303	-0.22810119873244666	
5.24	-0.193	-0.24368536565071727	
5.245	-0.220	-0.2539250242296339	
5.25	-0.248	-0.25598125109172	
5.255	0.055	-0.23358978624509258	
5.26	0.530	-0.16179813300706797	
5.265	0.328	-0.03629591912981634	
5.27	-0.043	0.08883988922971463	
5.275	-0.237	0.13789398639540235	
5.28	-0.543	0.08156751069396562	
5.285	-0.737	-0.0561384543235714	
5.29	-0.637	-0.22966182838503732	
5.295	-0.546	-0.394916800278195	
5.3	-0.553	-0.5119499049356746	
5.305	-0.359	-0.5615155002545045	
5.31	-0.168	-0.5488611467336759	
5.315	-0.229	-0.4913829144307966	
5.32	-0.139	-0.4019986704605082	
5.325	0.065	-0.3009531172319589	
5.33	-0.060	-0.20653276292835432	
5.335	-0.110	-0.12814500237822413	
5.34	0.198	-0.063516926034854	
5.345	0.181	-0.0030133968233143228	
5.35	-0.026	0.04787289308673362	
5.355	0.116	0.08255193959752288	
5.36	0.307	0.10815927271637128	
5.365	0.194	0.13548080619841069	
5.37	0.330	0.17704197642516947	
5.375	0.629	0.236156922521232	
5.38	0.476	0.31039810544046487	
5.385	0.386	0.38082522560778004	
5.39	0.758	0.44456047637055324	
5.395	0.834	0.5149739526759618	
5.4	0.649	0.5928552834467233	
5.405	0.825	0.6655932793346591	
5.41	0.855	0.7231210186112063	
5.415	0.617	0.7564372355819052	
5.42	0.670	0.7660587276956247	
5.425	0.758	0.7581107241431908	
5.43	0.400	0.7263621340759882	
5.435	0.162	0.6568574979279431	
5.44	0.394	0.5595202549886363	
5.445	0.224	0.45795140517194993	
5.45	-0.132	0.3519208303363457	
5.455	-0.097	0.23654492220667223	
5.46	-0.061	0.11708365789276635	
5.465	-0.194	0.011595663981976615	
5.47	-0.170	-0.06691743052312324	
5.475	-0.005	-0.11401540639715523	
5.48	-0.098	-0.1365026090689669	
5.485	-0.199	-0.13899611349558635	
5.49	-0.100	-0.1366566634671521	
5.495	-0.129	-0.13909864742640443	
5.5	-0.243	-0.14588079572163926	
5.505	-0.145	-0.1504976981615846	
5.51	-0.063	-0.15306848206020823	
5.515	-0.268	-0.15730187467881238	
5.52	-0.245	-0.16488215468234843	
5.525	-0.020	-0.17017649611016739	
5.53	-0.135	-0.16746590907227565	
5.535	-0.274	-0.16088132009640102	
5.54	-0.199	-0.16178253825072558	
5.545	-0.271	-0.1811545375745499	
5.55	-0.390	-0.21273745353210363	
5.555	-0.287	-0.24353137944228778	
5.56	-0.234	-0.2701817473163254	
5.565	-0.370	-0.29119293898082377	
5.57	-0.326	-0.3038206433321126	
5.575	-0.214	-0.30730116698843163	
5.58	-0.315	-0.30846018751504606	
5.585	-0.272	-0.3027779177043942	
5.59	0.154	-0.26979678712854793	
5.595	0.466	-0.1861256855577728	
5.6	0.369	-0.04663456071532543	
5.605	0.343	-0.2701817473163254	
5.61	-0.026	-0.2701817473163254	
5.615	-0.405	-0.26979678712854793	
5.62	-0.529	0.11416011493714975	
5.625	-0.472	-0.040353806887815175	
5.63	-0.512	-0.20742169529467544	
5.635	-0.501	-0.3427205874016328	
5.64	-0.286	-0.42281292174206664	
5.645	-0.190	-0.44715249724306455	
5.65	-0.211	-0.4206396879629416	
5.655	-0.055	-0.35354309137425455	
5.66	0.117	-0.2662155097704977	
5.665	0.038	-0.17017207757289182	
5.67	0.090	-0.07383532196867741	
5.675	0.340	0.01669301865940643	
5.68	0.110	0.0915346241229852	
5.685	-0.045	0.13615268128664582	
5.69	0.178	0.1481730705416854	
5.695	0.154	0.14386801120616613	
5.7	-0.063	0.1312811690012164	
5.705	0.052	0.11141467155960641	
5.71	0.247	0.09384321593943903	
5.715	0.062	0.08885437943185485	
5.72	0.058	0.09512419712282909	
5.725	0.400	0.11069007936770708	
5.73	0.457	0.15162446378876787	
5.735	0.475	0.2272323182327297	
5.74	0.783	0.32913164490581814	
5.745	0.736	0.44282960258252807	
5.75	0.479	0.5393439620302167	
5.755	0.612	0.6003824568157463	
5.76	0.563	0.623718378693793	
5.765	0.133	0.5998803461801414	
5.77	-0.029	0.5191416358108696	
5.775	0.021	0.39154408906068355	
5.78	-0.174	0.24263178192658352	
5.785	-0.286	0.0963441737358409	
5.79	-0.119	-0.026973721255241265	
5.795	-0.196	-0.12018978556791239	
5.8	-0.368	-0.1874511974003226	
5.805	-0.326	-0.23765100338193076	
5.81	-0.252	-0.2784059140886454	
5.815	-0.349	-0.3069164318078865	
5.82	-0.346	-0.3197413661340971	
5.825	-0.228	-0.3226393636498811	
5.83	-0.318	-0.32233898611017875	
5.835	-0.388	-0.31949840279040387	
5.84	-0.265	-0.3161262925987678	
5.845	-0.283	-0.3163064953478578	
5.85	-0.350	-0.3152804107724278	
5.855	-0.271	-0.3076453872678452	
5.86	-0.294	-0.30358077347167367	
5.865	-0.399	-0.30886542258966637	
5.87	-0.359	-0.3166390921163582	
5.875	-0.291	-0.32474411769986816	
5.88	-0.457	-0.33938913722159647	
5.885	-0.573	-0.3644064380009775	
5.89	-0.426	-0.3981375534921447	
5.895	-0.420	-0.43037091548196577	
5.9	-0.500	-0.45122659408704435	
5.905	-0.425	-0.4576036569199841	
5.91	-0.405	-0.45763427226555703	
5.915	-0.540	-0.460867364881435	
5.92	-0.518	-0.46559173660995373	
5.925	-0.338	-0.4677627376811638	
5.93	-0.272	-0.4553955208596695	
5.935	-0.210	-0.4153287042837176	
5.94	-0.104	-0.3501133117305397	
5.945	-0.271	-0.289461028334884	
5.95	-0.613	-0.26729042235833805	
5.955	-0.749	-0.30459532010610624	
5.96	-0.775	-0.4006650183419466	
5.965	-0.862	-0.5249065165783947	
5.97	-0.767	-0.6355152707479648	
5.975	-0.593	-0.7086946720495563	
5.98	-0.530	-0.7334653782367129	
5.985	-0.482	-0.7083365807598507	
5.99	-0.277	-0.6410036327914757	
5.995	-0.222	-0.5524785050696059	
6.0	-0.300	-0.4563372348859913	
6.005	-0.226	-0.3674554632007	
6.01	-0.092	-0.2956245997805165	
6.015	-0.087	-0.2340626265757266	
6.02	0.001	-0.16847757527963975	
6.025	0.117	-0.10059523139101544	
6.03	-0.074	-0.047667000889379904	
6.035	-0.034	-0.014443303837540215	
6.04	0.273	0.016203644468837035	
6.045	0.276	0.059503648407721835	
6.05	0.093	0.11046358739683533	
6.055	0.327	0.15767888258180035	
6.06	0.499	0.20752498022810043	
6.065	0.322	0.2647563014041114	
6.07	0.470	0.32247388037107183	
6.075	0.741	0.38759233301290846	
6.08	0.649	0.46031989643229804	
6.085	0.592	0.5344376371049581	
6.09	0.823	0.600257021342521	
6.095	0.754	0.6555365233221253	
6.1	0.472	0.6883748876272932	
6.105	0.473	0.683647532336952	
6.11	0.426	0.6395429788605901	
6.115	0.046	0.5567235871287783	
6.12	-0.034	0.44043281388875744	
6.125	0.049	0.3065928773564001	
6.13	-0.098	0.17535171399423427	
6.135	-0.190	0.06446467862607427	
6.14	-0.034	-0.01974474618670985	
6.145	-0.025	-0.07543919167468491	
6.15	-0.184	-0.10355507826999918	
6.155	-0.103	-0.11533112878090425	
6.16	-0.017	-0.1194761655813184	
6.165	-0.121	-0.11722378686929458	
6.17	-0.129	-0.10750708347467436	
6.175	0.018	-0.09646038637491164	
6.18	-0.064	-0.08769861990333896	
6.185	-0.132	-0.0764818282835589	
6.19	-0.025	-0.06775422198712736	
6.195	-0.095	-0.06855227532355213	
6.2	-0.138	-0.0755458150192161	
6.205	-0.040	-0.07723017222937256	
6.21	-0.029	-0.0765340937005467	
6.215	-0.240	-0.08332600361048476	
6.22	-0.226	-0.10042697166582353	
6.225	-0.177	-0.12740517475969	
6.23	-0.263	-0.1638201670282442	
6.235	-0.280	-0.1944818443115176	
6.24	-0.119	-0.2115977502859953	
6.245	-0.161	-0.217595299672039	
6.25	-0.278	-0.21567322434087186	
6.255	-0.177	-0.21011698230874237	
6.26	-0.116	-0.2044654352609348	
6.265	-0.119	-0.19447446074473085	
6.27	0.197	-0.15535946229160852	
6.275	0.547	-0.06718528139523097	
6.28	0.169	0.049054464095523526	
6.285	-0.243	0.12830442067577266	
6.29	-0.399	0.11647503442727837	
6.295	-0.533	0.011406978851644302	
6.3	-0.659	-0.14282568550975988	
6.305	-0.546	-0.29602857928001985	
6.31	-0.401	-0.4173172477522508	
6.315	-0.411	-0.4875756401332436	
6.32	-0.327	-0.49839059311200334	
6.325	-0.122	-0.46307426031801857	
6.33	-0.052	-0.3970049211857765	
6.335	0.061	-0.29667417924075523	
6.34	0.405	-0.164251025954593	
6.345	0.313	-0.020603391605211907	
6.35	0.096	0.10292421969843125	
6.355	0.243	0.1870658722302572	
6.36	0.350	0.23478196170993354	
6.365	0.166	0.2601488831431481	
6.37	0.229	0.27156202609487345	
6.375	0.484	0.2821595894340937	
6.38	0.354	0.2978696414737966	
6.385	0.376	0.32613944663549477	
6.39	0.719	0.3699519261492656	
6.395	0.644	0.43046216527110176	
6.4	0.525	0.4947336219553861	
6.405	0.864	0.5611744379081023	
6.41	0.961	0.6369686576814442	
6.415	0.725	0.7119823147465212	
6.42	0.797	0.7714658734166797	
6.425	1.026	0.8153394430358238	
6.43	0.828	0.8488494932247123	
6.435	0.570	0.8599416417927381	
6.44	0.718	0.8379858988473484	
6.445	0.537	0.7835573053617675	
6.45	0.188	0.7006227702990562	
6.455	0.270	0.5931019295926998	
6.46	0.270	0.4750664178245756	
6.465	-0.063	0.35701115238746384	
6.47	-0.037	0.24339945070166086	
6.475	0.191	0.14937949523959038	
6.48	0.044	0.0849535170091424	
6.485	-0.054	0.04993579818611237	
6.49	0.084	0.030952561065731334	
6.495	0.055	0.017629592933266974	
6.5	-0.122	0.008672286618481816	
6.505	-0.035	4.2783635696854165e-05	
6.51	0.052	-0.012946680871745322	
6.515	-0.089	-0.024927488177538815	
6.52	0.065	-0.022603752381814425	
6.525	0.290	0.0013351268202222704	
6.53	0.020	0.03494730488515631	
6.535	-0.118	0.05691386602505515	
6.54	0.052	0.05691421905406709	
6.545	-0.008	0.038642033706114486	
6.55	-0.156	0.013685844912008032	
6.555	-0.127	-0.012981759102798095	
6.56	-0.054	-0.04694351390563476	
6.565	-0.208	-0.08291293111083319	
6.57	-0.179	-0.10862536445385859	
6.575	-0.019	-0.12567597207280506	
6.58	-0.165	-0.13604119135660941	
6.585	-0.222	-0.14106367603392586	
6.59	-0.098	-0.14305031385852923	
6.595	-0.190	-0.151380476958145	
6.6	-0.208	-0.162357833564361	
6.605	0.272	-0.14589189928234572	
6.61	0.617	-0.06782857673092255	
6.615	0.272	0.05802150285463725	
6.62	0.003	0.16825534909424095	
6.625	-0.136	0.201309013903209	
6.63	-0.428	0.1409336265939403	
6.635	-0.578	0.013862553378766216	
6.64	-0.457	-0.13802997876480239	
6.645	-0.453	-0.2832971146939201	
6.65	-0.472	-0.3903544899181131	
6.655	-0.237	-0.43792080287310914	
6.66	-0.054	-0.4288254132760176	
6.665	-0.135	-0.37398116626986944	
6.67	-0.170	-0.2946858327124945	
6.675	0.117	-0.21457818294970282	
6.68	0.023	-0.1400654037376211	
6.685	-0.003	-0.06816356381830734	
6.69	0.486	0.01004581434470887	
6.695	0.690	0.1167037385677101	
6.7	0.579	0.2575651239276831	
6.705	0.780	0.4080733720001744	
6.71	0.919	0.5471267336850938	
6.715	0.615	0.6559315403474305	
6.72	0.599	0.7213392467234401	
6.725	0.765	0.742410061008546	
6.73	0.635	0.7358672095741643	
6.735	0.612	0.7199092250130076	
6.74	1.032	0.7200803211193318	
6.745	0.979	0.7495963209672394	
6.75	0.756	0.7955870814782926	
6.755	0.977	0.8391405872615255	
6.76	1.049	0.8780549710730784	
6.765	0.793	0.9059609459251683	
6.77	0.800	0.9174401663863513	
6.775	0.903	0.9093334810317141	
6.78	0.508	0.8728316487860802	
6.785	0.275	0.7969747740941464	
6.79	0.498	0.6909721297495572	
6.795	0.366	0.5805401249041044	
6.8	0.013	0.47374369622669543	
6.805	0.056	0.36208793260709216	
6.81	0.168	0.252914227019829	
6.815	-0.023	0.1621636870795059	
6.82	0.023	0.10054344147497944	
6.825	0.223	0.06611477739323963	
6.83	-0.009	0.049929575022238534	
6.835	-0.110	0.039226880534929384	
6.84	0.105	0.027757949896695625	
6.845	-0.017	0.014406845645734767	
6.85	-0.158	-0.0009624763168065891	
6.855	-0.029	-0.01795060850857138	
6.86	-0.122	-0.040366092887810366	
6.865	-0.274	-0.07567127363814218	
6.87	-0.187	-0.11233880989209671	
6.875	-0.040	-0.13914712252454736	
6.88	-0.187	-0.15502242193409616	
6.885	-0.254	-0.16254792798453646	
6.89	-0.161	-0.17042991790808065	
6.895	-0.255	-0.18669755231946827	
6.9	-0.411	-0.21173139913222672	
6.905	-0.286	-0.24200386394500883	
6.91	-0.266	-0.27154150123635024	
6.915	-0.390	-0.2974839561606889	
6.92	-0.338	-0.3132677547793064	
6.925	-0.226	-0.32137418090624315	
6.93	-0.361	-0.32496641264906057	
6.935	-0.390	-0.32737336949925744	
6.94	-0.182	-0.32358351048164147	
6.945	-0.077	-0.3057376346652587	
6.95	-0.138	-0.2645052240635042	
6.955	-0.109	-0.21006877801482074	
6.96	-0.283	-0.1757492780199973	
6.965	-0.608	-0.19138785467851424	
6.97	-0.709	-0.2602265090186048	
6.975	-0.694	-0.36955794417877896	
6.98	-0.819	-0.49592753165200043	
6.985	-0.836	-0.6112111611853823	
6.99	-0.721	-0.6976701078357554	
6.995	-0.688	-0.7538107315628366	
7.0	-0.650	-0.770377524985457	
7.005	-0.503	-0.7450312889370461	
7.01	-0.478	-0.6958066983074704	
7.015	-0.595	-0.6433231134202575	
7.02	-0.559	-0.596147934613623	
7.025	-0.422	-0.559599141976175	
7.03	-0.495	-0.5319720673562404	
7.035	-0.562	-0.50919005036945	
7.04	-0.394	-0.49267587996594703	
7.045	-0.387	-0.4778743182963852	
7.05	-0.457	-0.46040110800207223	
7.055	-0.324	-0.43500274414740103	
7.06	-0.240	-0.40582486634510717	
7.065	-0.312	-0.3743501288909725	
7.07	-0.222	-0.33409079814899656	
7.075	-0.080	-0.2895699144111671	
7.08	-0.182	-0.24604157444996305	
7.085	-0.243	-0.20918880551316638	
7.09	0.000	-0.1786009006684474	
7.095	0.030	-0.1449103214024711	
7.1	-0.049	-0.10345268902253887	
7.105	0.235	-0.04992824217349531	
7.11	0.308	0.01719834527005938	
7.115	-0.025	0.08056098604383484	
7.12	-0.049	0.11087969128801713	
7.125	0.062	0.10544696724014382	
7.13	-0.150	0.07294841322344502	
7.135	-0.272	0.021805883175759558	
7.14	-0.197	-0.04261816300897937	
7.145	-0.277	-0.11591834830014691	
7.15	-0.376	-0.18441859231862107	
7.155	-0.251	-0.23593745690622805	
7.16	-0.237	-0.2718355271099081	
7.165	-0.332	-0.29338258367783776	
7.17	-0.269	-0.2980449995288885	
7.175	-0.031	-0.2855606985273703	
7.18	-0.087	-0.2520560887321521	
7.185	-0.159	-0.20413994061777946	
7.19	0.003	-0.15561373700615103	
7.195	-0.126	-0.12198549686874682	
7.2	-0.324	-0.11043331621480841	
7.205	-0.229	-0.12492047955349539	
7.21	-0.152	-0.1538841090432787	
7.215	-0.232	-0.18039130791717892	
7.22	-0.225	-0.1929809055907005	
7.225	-0.214	-0.2036086734486746	
7.23	-0.398	-0.226155547443382	
7.235	-0.489	-0.26208073337595905	
7.24	-0.365	-0.30655127194188114	
7.245	-0.404	-0.3530656595565764	
7.25	-0.503	-0.38940854905652794	
7.255	-0.410	-0.4127816502496465	
7.26	-0.407	-0.4299487587044411	
7.265	-0.547	-0.44651498875863194	
7.27	-0.489	-0.4578622337419947	
7.275	-0.339	-0.4635350219060242	
7.28	-0.298	-0.4552874687617667	
7.285	-0.159	-0.4150165663851614	
7.29	0.006	-0.34136946502917553	
7.295	-0.260	-0.26722366217990556	
7.3	-0.584	-0.23359733707942773	
7.305	-0.665	-0.26363412947497467	
7.31	-0.741	-0.35493598759430545	
7.315	-0.871	-0.4787324458191857	
7.32	-0.784	-0.5957478833531037	
7.325	-0.576	-0.6813258544241556	
7.33	-0.535	-0.7184758617446529	
7.335	-0.413	-0.69608503696031	
7.34	-0.193	-0.6231035463207755	
7.345	-0.199	-0.5242793532392067	
7.35	-0.216	-0.4177742168033357	
7.355	-0.031	-0.31136004196890193	
7.36	0.055	-0.21482661774666992	
7.365	-0.121	-0.1350663685909282	
7.37	0.006	-0.07269963249618597	
7.375	0.252	-0.02107325778835081	
7.38	0.105	0.02924405482313875	
7.385	0.139	0.07973524177925106	
7.39	0.369	0.13020890833982393	
7.395	0.301	0.17867002315245314	
7.4	0.230	0.2229295954721592	
7.405	0.570	0.27287488040805935	
7.41	0.683	0.33836341482154975	
7.415	0.447	0.41263705761676195	
7.42	0.690	0.48431031153483756	
7.425	1.025	0.5632232824679579	
7.43	0.843	0.6550945924525042	
7.435	0.817	0.7455422817800885	
7.44	1.123	0.8254274672496105	
7.445	0.961	0.8897118727948143	
7.45	0.649	0.9266851632932014	
7.455	0.748	0.9198922314940905	
7.46	0.631	0.8724779384673	
7.465	0.261	0.7865079230481536	
7.47	0.250	0.6702437963459866	
7.475	0.356	0.543335065588611	
7.48	0.055	0.41908710723480047	
7.485	-0.058	0.3024675594643709	
7.49	0.279	0.2065045443120858	
7.495	0.191	0.14481191306553698	
7.5	-0.029	0.115666214050985	
7.505	0.226	0.10488565902462771	
7.51	0.279	0.10856670535494964	
7.515	0.012	0.12155467101558735	
7.52	0.068	0.12917520383582815	
7.525	0.183	0.1263020034047902	
7.53	0.012	0.11415794085708635	
7.535	-0.014	0.09946332287117529	
7.54	0.206	0.08840181535485794	
7.545	0.052	0.08082040480988843	
7.55	-0.152	0.06671860426325463	
7.555	-0.071	0.04179549046627041	
7.56	-0.051	0.00252091165194053	
7.565	-0.245	-0.04334863788924845	
7.57	-0.203	-0.08482639713866705	
7.575	-0.107	-0.1227621262851501	
7.58	-0.229	-0.15678231502345197	
7.585	-0.284	-0.18049988051728783	
7.59	-0.165	-0.19766381136390243	
7.595	-0.219	-0.21418017731386962	
7.6	-0.335	-0.22822341125296802	
7.605	-0.225	-0.23619882659494398	
7.61	-0.173	-0.2445017916394517	
7.615	-0.136	-0.24134298906332885	
7.62	0.340	-0.19375525269466667	
7.625	0.758	-0.07267514221844038	
7.63	0.380	-0.18049988051728783	
7.635	-0.115	-0.18049988051728783	
7.64	-0.229	-0.16869793712064007	
7.645	-0.388	0.16881982299388815	
7.65	-0.486	0.02475401255688374	
7.655	-0.297	-0.11918635200605392	
7.66	-0.138	-0.22643323317484967	
7.665	-0.132	-0.27731794058412784	
7.67	0.124	-0.2557894734305687	
7.675	0.486	-0.16869793712064007	
7.68	0.398	-0.03480136540434945	
7.685	0.441	0.12045131847627784	
7.69	0.765	0.2753830232190624	
7.695	0.680	0.41581991559262427	
7.7	0.492	0.5266759314289473	
7.705	0.730	0.6027977166532257	
7.71	0.822	0.6535583206543176	
7.715	0.567	0.687597691022906	
7.72	0.628	0.7031372752547329	
7.725	0.924	0.7102951608510057	
7.73	0.758	0.723218003973543	
7.735	0.770	0.7474547193787788	
7.74	1.075	0.7833659445942804	
7.745	1.026	0.8308554111899145	
7.75	0.901	0.8857490377308882	
7.755	1.155	0.9407737493803083	
7.76	1.187	0.9945161868160489	
7.765	0.938	1.0366680621776614	
7.77	1.026	1.0621428869044758	
7.775	1.170	1.0721983672900517	
7.78	0.932	1.069248792738172	
7.785	0.771	1.049498121817916	
7.79	0.985	1.0112491204897438	
7.795	0.742	0.9598433739805612	
7.8	0.272	0.8818455193407845	
7.805	0.250	0.7596488045178935	
7.81	0.122	0.5974131011581526	
7.815	-0.168	0.4168588985168381	
7.82	-0.130	0.24118022534634148	
7.825	-0.049	0.09102637790345935	
7.83	-0.177	-0.026613242002717218	
7.835	-0.181	-0.10331235524826163	
7.84	-0.037	-0.14292461497236023	
7.845	-0.141	-0.16119096505844155	
7.85	-0.236	-0.16690872920510846	
7.855	-0.110	-0.1653857517074983	
7.86	-0.057	-0.16073047906128785	
7.865	-0.203	-0.15399451976181927	
7.87	-0.129	-0.1427794562589147	
7.875	0.062	-0.1281630658907556	
7.88	-0.087	-0.10858401890564837	
7.885	-0.103	-0.08620758665540129	
7.89	0.073	-0.06406929131104694	
7.895	-0.093	-0.049248071911436	
7.9	-0.262	-0.05277624474438158	
7.905	-0.200	-0.07445383748354152	
7.91	-0.217	-0.1148488749544616	
7.915	-0.336	-0.16387145852580104	
7.92	-0.272	-0.20473697688570125	
7.925	-0.219	-0.2372927329723312	
7.93	-0.390	-0.2665469550696148	
7.935	-0.428	-0.2951206301976236	
7.94	-0.295	-0.3201493477887346	
7.945	-0.376	-0.3442588742735887	
7.95	-0.426	-0.36167200827284385	
7.955	-0.107	-0.35844904105564235	
7.96	0.281	-0.30984503272310465	
7.965	0.163	-0.2057774630716278	
7.97	0.038	-0.08076995602792125	
7.975	-0.217	-0.0014501906392290305	
7.98	-0.622	-0.016584375285182085	
7.985	-0.816	-0.12308987692004363	
7.99	-0.729	-0.2852074108049689	
7.995	-0.729	-0.4572751402727995	
8.0	-0.755	-0.5945663524499971	
8.005	-0.544	-0.6734178122307	
8.01	-0.411	-0.6949429332973887	
8.015	-0.430	-0.6657889644122739	
8.02	-0.326	-0.5956446516237272	
8.025	-0.190	-0.5083909988409214	
8.03	-0.251	-0.42360921168340876	
8.035	-0.252	-0.3430137449971351	
8.04	-0.054	-0.2731334324286703	
8.045	-0.064	-0.21440281716845236	
8.05	-0.153	-0.16265328583785182	
8.055	-0.045	-0.11832251649891226	
8.06	-0.019	-0.09101456727986065	
8.065	-0.142	-0.075966336185956	
8.07	-0.017	-0.06252545287674197	
8.075	0.215	-0.041278080747466764	
8.08	-0.006	-0.012792691451484322	
8.085	-0.005	0.016989522205201404	
8.09	0.316	0.04707209750652696	
8.095	0.261	0.08749762651014968	
8.1	0.186	0.13722906546649916	
8.105	0.464	0.19487126524334383	
8.11	0.516	0.25901326452020923	
8.115	0.354	0.322856072689765	
8.12	0.501	0.38054825758339217	
8.125	0.641	0.4328154111798527	
8.13	0.220	0.4630483215255425	
8.135	0.018	0.4469318837690677	
8.14	0.168	0.38116041364799313	
8.145	-0.019	0.2874452403405735	
8.15	-0.119	0.18717305691040548	
8.155	0.032	0.10095066930070301	
8.16	0.012	0.03403406980023689	
8.165	-0.173	-0.0161890254815642	
8.17	-0.129	-0.051420603901050084	
8.175	-0.025	-0.08015045509466642	
8.18	-0.155	-0.10196006792860554	
8.185	-0.148	-0.11300706799397259	
8.19	0.012	-0.11176581257479586	
8.195	-0.040	-0.10560391451485526	
8.2	-0.170	-0.09487190188263922	
8.205	-0.046	-0.08398820124683817	
8.21	0.110	-0.07398381265090342	
8.215	0.003	-0.05326730606710318	
8.22	0.136	-0.013339431749877093	
8.225	0.273	0.03389987430535407	
8.23	0.065	0.07789474295791486	
8.235	0.090	0.11199077572865442	
8.24	0.363	0.1413716631690286	
8.245	0.188	0.1693001415014188	
8.25	-0.031	0.18301915545550557	
8.255	0.154	0.17714433273005598	
8.26	0.163	0.1580232191830418	
8.265	-0.092	0.1315771732341257	
8.27	-0.054	0.09870801669699841	
8.275	0.061	0.057987021296489784	
8.28	-0.129	0.016806688005875342	
8.285	-0.147	-0.018004500134085163	
8.29	0.120	-0.04052792464796447	
8.295	0.255	-0.03573546983006555	
8.3	0.467	0.023047181308892637	
8.305	0.907	0.15231776231713418	
8.31	0.785	0.32498692671563933	
8.315	0.026	0.4603811721506234	
8.32	-0.252	0.47567885834541856	
8.325	-0.365	0.35798366169249984	
8.33	-0.566	0.1547153526064096	
8.335	-0.537	-0.06396477826047886	
8.34	-0.281	-0.24242565072901176	
8.345	-0.219	-0.3537672771686444	
8.35	-0.203	-0.3869848384880486	
8.355	0.149	-0.3456420325261572	
8.36	0.270	-0.24900583115537475	
8.365	0.107	-0.12456036628733964	
8.37	0.295	0.0038344809448828997	
8.375	0.490	0.12103247408260141	
8.38	0.272	0.21963405474661263	
8.385	0.270	0.2920105217190796	
8.39	0.553	0.34256608762536445	
8.395	0.409	0.37813913984640046	
8.4	0.221	0.3989471653874047	
8.405	0.537	0.40835037771884153	
8.41	0.655	0.42297846475821305	
8.415	0.418	0.45045618364967066	
8.42	0.618	0.486854721365652	
8.425	0.825	0.5300078096207219	
8.43	0.651	0.5796767458894734	
8.435	0.800	0.6360748111868839	
8.44	1.162	0.7095234620458262	
8.445	0.974	0.7961477228897668	
8.45	0.718	0.86800994287428	
8.455	0.927	0.905245615732634	
8.46	0.889	0.9119092216909208	
8.465	0.568	0.8925731231225049	
8.47	0.600	0.8467948119937975	
8.475	0.623	0.7788568932524834	
8.48	0.177	0.6878093936957588	
8.485	0.004	0.5651024541132688	
8.49	0.078	0.4182740369960901	
8.495	-0.090	0.2642377716058121	
8.5	-0.194	0.12527448378500167	
8.505	-0.061	0.017088188622041405	
8.51	-0.055	-0.06116979387546718	
8.515	-0.217	-0.11113354547326693	
8.52	-0.213	-0.140235792555057	
8.525	-0.119	-0.16337405550068035	
8.53	-0.213	-0.18298722834205955	
8.535	-0.177	-0.1877279850673187	
8.54	-0.066	-0.17994951611329232	
8.545	-0.182	-0.17278538928249687	
8.55	-0.269	-0.16954691141301018	
8.555	-0.155	-0.1700357360396526	
8.56	-0.167	-0.17731304230081973	
8.565	-0.268	-0.1879968116211103	
8.57	-0.202	-0.19320308865189711	
8.575	-0.104	-0.19550390105181664	
8.58	-0.291	-0.19995723583622785	
8.585	-0.295	-0.20666407715029508	
8.59	-0.174	-0.2160265793603049	
8.595	-0.295	-0.2308012134090563	
8.6	-0.349	-0.2474752391298323	
8.605	-0.203	-0.2580463154115607	
8.61	-0.210	-0.2633407297520367	
8.615	-0.336	-0.26697160907601547	
8.62	-0.310	-0.2672070118009411	
8.625	-0.257	-0.2735222596766105	
8.63	-0.344	-0.2879543577460828	
8.635	-0.236	-0.29165208619785	
8.64	0.212	-0.262967273275534	
8.645	0.232	-0.18775494944126983	
8.65	-0.126	-0.09153156641716909	
8.655	-0.226	-0.031117030766233757	
8.66	-0.430	-0.04637574797882115	
8.665	-0.753	-0.13501191989488454	
8.67	-0.721	-0.2692065532529503	
8.675	-0.578	-0.41348757017092497	
8.68	-0.625	-0.5299342388744437	
8.685	-0.518	-0.5946122591776389	
8.69	-0.313	-0.6029675607055822	
8.695	-0.294	-0.5688251854717973	
8.7	-0.292	-0.5024866827961302	
8.705	-0.089	-0.4149702881180112	
8.71	-0.032	-0.3223735782841789	
8.715	-0.135	-0.2350663498053372	
8.72	0.036	-0.15411775388035046	
8.725	0.195	-0.07946869396586323	
8.73	-0.074	-0.01909937715650726	
8.735	-0.025	0.01933933752116315	
8.74	0.304	0.04812116449389111	
8.745	0.215	0.0831267502188194	
8.75	0.067	0.12142099517552994	
8.755	0.435	0.16108456240191085	
8.76	0.493	0.2126883155093736	
8.765	0.292	0.27389737064758346	
8.77	0.525	0.33384541407112345	
8.775	0.767	0.3995685983804143	
8.78	0.551	0.47097380890632856	
8.785	0.577	0.5363088698465732	
8.79	0.785	0.5890233494323261	
8.795	0.631	0.6271817615827899	
8.8	0.447	0.6454836334506177	
8.805	0.588	0.6399363304933444	
8.81	0.487	0.6116452304786077	
8.815	0.111	0.5580433755031302	
8.82	0.079	0.47175389725867883	
8.825	0.174	0.3634113873887259	
8.83	-0.064	0.25215424125236224	
8.835	-0.101	0.15240032254237953	
8.84	-0.003	0.06782003524208711	
8.845	-0.142	-0.0047520906781653265	
8.85	-0.248	-0.06529590639745508	
8.855	-0.141	-0.11120665728023733	
8.86	-0.110	-0.14744208625321376	
8.865	-0.231	-0.16870492994233718	
8.87	-0.167	-0.17623551570096296	
8.875	-0.071	-0.17679016656021979	
8.88	-0.187	-0.17373601120997867	
8.885	-0.196	-0.1654846924679665	
8.89	-0.045	-0.15536411436585484	
8.895	-0.135	-0.14777933181017372	
8.9	-0.190	-0.14012915495225153	
8.905	0.007	-0.12728256239406416	
8.91	-0.008	-0.10956283399609551	
8.915	-0.251	-0.0965920313846233	
8.92	-0.223	-0.10023404265923719	
8.925	-0.182	-0.12394187241653551	
8.93	-0.298	-0.15966962135705717	
8.935	-0.309	-0.1943818226780789	
8.94	-0.225	-0.224484349322088	
8.945	-0.298	-0.2517995618137395	
8.95	-0.381	-0.274994071778892	
8.955	-0.237	-0.28933872294617186	
8.96	-0.220	-0.2956556016774997	
8.965	-0.313	-0.294468393198535	
8.97	-0.220	-0.28217687164143573	
8.975	-0.052	-0.2610408131285037	
8.98	0.013	-0.22363113983018285	
8.985	0.151	-0.15427303273756834	
8.99	0.238	-0.06253876773464283	
8.995	-0.133	0.011104967213627581	
9.0	-0.449	0.02299185302817268	
9.005	-0.509	-0.04036923925914535	
9.01	-0.587	-0.16270927740715568	
9.015	-0.682	-0.30545946596335055	
9.02	-0.624	-0.4321246514266	
9.025	-0.425	-0.5230209016860125	
9.03	-0.358	-0.5616438431776856	
9.035	-0.255	-0.5382508407666573	
9.04	0.001	-0.10573156454971479	
9.045	-0.051	-0.36088104866964754	
9.05	-0.155	-0.25597561124133195	
9.055	-0.011	-0.1682970416606185	
9.06	-0.009	-0.10573156454971479	
9.065	-0.196	-0.07054077373943071	
9.07	-0.118	-0.05711052602080992	
9.075	0.059	-0.05802045827848707	
9.08	-0.139	-0.059744030820967894	
9.085	-0.135	-0.06228060760388058	
9.09	0.110	-0.06245335877222627	
9.095	0.124	-0.04690186338605225	
9.1	0.064	-0.011953715812943366	
9.105	0.238	0.03676335984094624	
9.11	0.224	0.08523418308509072	
9.115	0.046	0.12344807559083298	
9.12	0.252	0.151958566985505	
9.125	0.412	0.18195899049828312	
9.13	0.192	0.21521202163082026	
9.135	0.203	0.24276725532989066	
9.14	0.444	0.26253281027707054	
9.145	0.267	0.2810344407366021	
9.15	0.044	0.28506571669676317	
9.155	0.165	0.2647389673531251	
9.16	0.021	0.22017816252952788	
9.165	-0.217	0.15351836775269018	
9.17	-0.216	0.06896066416265317	
9.175	-0.174	-0.023154213904908922	
9.18	-0.284	-0.10870660490908743	
9.185	-0.307	-0.17611541445743137	
9.19	-0.193	-0.22359047470845872	
9.195	-0.265	-0.25598557869170724	
9.2	-0.338	-0.27275289091951127	
9.205	-0.263	-0.28029374171871985	
9.21	-0.274	-0.2889465493474118	
9.215	-0.342	-0.2963518650350013	
9.22	-0.217	-0.29394732468967666	
9.225	-0.173	-0.2822958034768759	
9.23	-0.329	-0.27173344768691887	
9.235	-0.292	-0.2640077106614195	
9.24	-0.144	-0.25664570551791677	
9.245	-0.199	-0.24807359763532905	
9.25	-0.309	-0.2366789106219848	
9.255	-0.251	-0.2312689769011667	
9.26	-0.332	-0.24204693189666904	
9.265	-0.456	-0.2693525560364247	
9.27	-0.367	-0.30187679531611095	
9.275	-0.330	-0.3323363545847057	
9.28	-0.426	-0.35877406686825986	
9.285	-0.359	-0.37292946565618307	
9.29	-0.228	-0.370614537201878	
9.295	-0.306	-0.35915171953110825	
9.3	-0.417	-0.3446801972961626	
9.305	-0.318	-0.33518887476154846	
9.31	-0.283	-0.33506858268169326	
9.315	-0.225	-0.32739864655096307	
9.32	0.061	-0.2877749756979163	
9.325	0.313	-0.2062692381720151	
9.33	-0.046	-0.10388893256726059	
9.335	-0.228	-0.33506858268169326	
9.34	-0.324	-0.024591560199622588	
9.345	-0.549	-0.08823067320666081	
9.35	-0.654	-0.19872812838518994	
9.355	-0.543	-0.3210871767307286	
9.36	-0.445	-0.42704288947406005	
9.365	-0.456	-0.4904557730495537	
9.37	-0.263	-0.49972685095508473	
9.375	-0.126	-0.4642448854669783	
9.38	-0.182	-0.39895233736392444	
9.385	-0.181	-0.3199145692636662	
9.39	0.050	-0.24145980556573352	
9.395	0.018	-0.16729508646657534	
9.4	0.006	-0.0947596594324019	
9.405	0.233	-0.023974556853433835	
9.41	0.276	0.04588840495690498	
9.415	0.189	0.11339570491219642	
9.42	0.360	0.17835092524227675	
9.425	0.567	0.2457869836023828	
9.43	0.398	0.31390704485726806	
9.435	0.479	0.3791199923109856	
9.44	0.742	0.44165152206395275	
9.445	0.655	0.5046109932710559	
9.45	0.606	0.5661966500496747	
9.455	0.843	0.6231332937580438	
9.46	0.858	0.6768561913481137	
9.465	0.706	0.7253162910268516	
9.47	0.916	0.7694264166888072	
9.475	1.049	0.8138061936718264	
9.48	0.803	0.8548237170911835	
9.485	0.707	0.878138546382675	
9.49	0.802	0.8696658693523925	
9.495	0.519	0.8285280663362329	
9.5	0.366	0.7582037926625069	
9.505	0.467	0.669184214410302	
9.51	0.180	0.565798165410692	
9.515	-0.090	0.4412892570385328	
9.52	-0.043	0.30347678002350836	
9.525	0.009	0.17080059602255884	
9.53	-0.171	0.058826650565779105	
9.535	-0.182	-0.02579012409532294	
9.54	-0.035	-0.08630476380043386	
9.545	-0.112	-0.12346594543864683	
9.55	-0.127	-0.1357454171193238	
9.555	0.059	-0.12479693350516538	
9.56	-0.042	-0.10322199709056615	
9.565	-0.188	-0.08669284589762818	
9.57	-0.098	-0.07951106203179026	
9.575	0.042	-0.0782382082067262	
9.58	-0.121	-0.07519290888803282	
9.585	-0.066	-0.06777744312364548	
9.59	0.099	-0.05532096628554101	
9.595	-0.110	-0.04449817234113866	
9.6	-0.283	-0.04877076565714987	
9.605	-0.197	-0.07583057738934201	
9.61	-0.214	-0.12122296661195449	
9.615	-0.284	-0.16664564166000656	
9.62	-0.199	-0.19649424649670444	
9.625	-0.148	-0.21426464699487424	
9.63	-0.294	-0.22619350100065325	
9.635	-0.295	-0.23275493777585318	
9.64	-0.200	-0.24033150205731374	
9.645	-0.307	-0.252525509810714	
9.65	-0.338	-0.26373509897199865	
9.655	-0.017	-0.2607536949040497	
9.66	0.208	-0.22421846443969207	
9.665	0.278	-0.13566067203025992	
9.67	0.284	-0.012444183062194133	
9.675	-0.069	0.08467823048541234	
9.68	-0.477	0.09562450520617793	
9.685	-0.639	0.012241315187668267	
9.69	-0.617	-0.13822587476410064	
9.695	-0.663	-0.310611116290869	
9.7	-0.610	-0.453765785397087	
9.705	-0.396	-0.540558313370954	
9.71	-0.260	-0.5642463090595575	
9.715	-0.245	-0.5288611282993654	
9.72	-0.064	-0.4442834341385524	
9.725	0.117	-0.3341172367900158	
9.73	-0.046	-0.2185286855879937	
9.735	0.039	-0.11374029706010622	
9.74	0.276	-0.02298943165780734	
9.745	0.165	0.053232216628296136	
9.75	0.148	0.11702096515230612	
9.755	0.504	0.17763400816718286	
9.76	0.519	0.24676847497098833	
9.765	0.301	0.31685874099678524	
9.77	0.608	0.37977877246366115	
9.775	0.861	0.44907483723655334	
9.78	0.736	0.5353349858515506	
9.785	0.797	0.6281949470421084	
9.79	1.007	0.7161705251260395	
9.795	0.883	0.7892000350344578	
9.8	0.890	0.8499044262269525	
9.805	1.208	0.9087228270439254	
9.81	1.187	0.971814560874117	
9.815	0.947	1.0287523048898803	
9.82	1.057	1.0657764881312233	
9.825	1.071	1.076120564670981	
9.83	0.758	1.058246880545441	
9.835	0.681	1.011146916796434	
9.84	0.742	0.9362475021012546	
9.845	0.418	0.8381937182611232	
9.85	0.140	0.7158256666402907	
9.855	0.281	0.5757406844464446	
9.86	0.226	0.4378657736551859	
9.865	-0.011	0.3187550348979962	
9.87	0.151	0.22580049330101987	
9.875	0.243	0.1611731631260343	
9.88	0.001	0.12227753009828932	
9.885	0.009	0.09815568487661219	
9.89	0.235	0.08325138675921988	
9.895	0.111	0.08022872146259166	
9.9	-0.008	0.0858699914846896	
9.905	0.168	0.091706380963432	
9.91	0.009	0.08781160038920646	
9.915	-0.162	0.066772554746623	
9.92	0.107	0.042794497954346054	
9.925	0.288	0.03713729204924131	
9.93	0.015	0.0533163207513975	
9.935	-0.017	0.07015155203370557	
9.94	0.039	0.07015697447761338	
9.945	-0.139	0.04624243898862655	
9.95	-0.225	0.005923041491075762	
9.955	-0.132	-0.04136298171898673	
9.96	-0.210	-0.09518732037461576	
9.965	-0.341	-0.14812581034764175	
9.97	-0.211	-0.19024866244192376	
9.975	-0.130	-0.21894327779304656	
9.98	-0.281	-0.2336117828562247	
9.985	-0.301	-0.23780424843215495	
9.99	-0.231	-0.24490072747462965	
9.995	-0.184	-0.2537407118732209	
10.0	0.027	-0.23698783710453178	
10.005	0.597	-0.15631128347238746	
10.01	0.515	-0.013176989244116612	
10.015	0.003	0.13181852464538507	
10.02	-0.217	-0.23698783710453178	
10.025	-0.414	0.1559839920064739	
10.03	-0.666	0.02039770771693218	
10.035	-0.682	-0.15681583693106935	
10.04	-0.533	-0.3298940586999581	
10.045	-0.541	-0.4676613104463808	
10.05	-0.503	-0.5449824695763483	
10.055	-0.222	-0.5573972954872359	
10.06	-0.116	-0.5151596183168072	
10.065	-0.130	-0.4300580572978101	
10.07	0.036	-0.3162894912199692	
10.075	0.166	-0.19898717754637268	
10.08	-0.048	-0.0956012263239305	
10.085	0.018	-0.01783062387158093	
10.09	0.279	0.03908520784955873	
10.095	0.137	0.0852903926187958	
10.1	0.021	0.11995715084414373	
10.105	0.267	0.14256915006132878	
10.11	0.256	0.15882274836220664	
10.115	0.130	0.17692957436440343	
10.12	0.475	0.20571062409029048	
10.125	0.725	0.2640471483894241	
10.13	0.548	0.3514650850805836	
10.135	0.602	0.4471619770839185	
10.14	0.858	0.5350161221284848	
10.145	0.796	0.6163404251800649	
10.15	0.687	0.6880256860241725	
10.155	0.970	0.7474657463779264	
10.16	0.948	0.7987943242751029	
10.165	0.652	0.8360568930199156	
10.17	0.678	0.8416051949203874	
10.175	0.644	0.8108482417475307	
10.18	0.259	0.7425954203212914	
10.185	0.136	0.6362353006244089	
10.19	0.137	0.5007879697101724	
10.195	-0.017	0.3533924610818211	
10.2	-0.058	0.2182738100063573	
10.205	0.133	0.11832855749806925	
10.21	0.026	0.05269391170860341	
10.215	-0.170	0.008314562765960896	
10.22	-0.081	-0.026400142195752135	
10.225	-0.025	-0.05634042929901405	
10.23	-0.144	-0.07921072002146021	
10.235	-0.106	-0.09062844384069851	
10.24	0.020	-0.09142254697136268	
10.245	-0.141	-0.09158302532051928	
10.25	-0.208	-0.09556915999867362	
10.255	-0.103	-0.10385834285151714	
10.26	-0.081	-0.11640085448218218	
10.265	-0.176	-0.1244734598822015	
10.27	-0.115	-0.12443521474879227	
10.275	-0.112	-0.12652442515117063	
10.28	-0.271	-0.1380985162659022	
10.285	-0.306	-0.15755610111806762	
10.29	-0.278	-0.18859319988131543	
10.295	-0.417	-0.2345774405457889	
10.3	-0.480	-0.2864259148170307	
10.305	-0.405	-0.33592295282922624	
10.31	-0.456	-0.38348120141016084	
10.315	-0.511	-0.4223799518847174	
10.32	-0.382	-0.44339875737203055	
10.325	-0.329	-0.44758613979634276	
10.33	-0.463	-0.4410772812123387	
10.335	-0.413	-0.4295025436163972	
10.34	-0.155	-0.4086040023737	
10.345	-0.016	-0.36256252243989295	
10.35	0.029	-0.27936373962410715	
10.355	0.056	-0.17693430442748131	
10.36	-0.307	-0.10658067103703883	
10.365	-0.662	-0.11045410826271487	
10.37	-0.750	-0.19641434619893477	
10.375	-0.790	-0.3396083937103574	
10.38	-0.853	-0.4990931858126489	
10.385	-0.743	-0.6304401178543393	
10.39	-0.553	-0.7095388722896154	
10.395	-0.512	-0.7326117390755396	
10.4	-0.433	-0.7003980021861518	
10.405	-0.225	-0.6238265267452561	
10.41	-0.223	-0.5265168784619461	
10.415	-0.339	-0.43049694682545725	
10.42	-0.190	-0.3483487076430416	
10.425	-0.046	-0.27952397726002554	
10.43	-0.139	-0.22020391583666493	
10.435	-0.013	-0.160513273279289	
10.44	0.180	-0.09845207923507675	
10.445	-0.035	-0.04167881076801985	
10.45	-0.150	-0.006567042697431814	
10.455	0.073	0.0052286756839486056	
10.46	0.133	0.011578123049407205	
10.465	0.003	0.025420270026767593	
10.47	0.263	0.05264653944487001	
10.475	0.479	0.10160358336447423	
10.48	0.340	0.1727845494581242	
10.485	0.487	0.25739598640695194	
10.49	0.797	0.351598899645401	
10.495	0.725	0.4554028787867796	
10.5	0.582	0.5543874232950055	
10.505	0.690	0.6261622298870533	
10.51	0.487	0.6535872833341283	
10.515	0.137	0.6263997883219509	
10.52	0.143	0.5465513824901831	
10.525	0.151	0.4315771722058625	
10.53	-0.129	0.30384793598353876	
10.535	-0.158	0.17738138870979597	
10.54	-0.069	0.06253718787562448	
10.545	-0.220	-0.03653992493097875	
10.55	-0.300	-0.1145418638991081	
10.555	-0.199	-0.17286699509281614	
10.56	-0.208	-0.21637739834190128	
10.565	-0.283	-0.24148357610491972	
10.57	-0.216	-0.24943990131048402	
10.575	-0.200	-0.2504743239509613	
10.58	-0.284	-0.2521246727685873	
10.585	-0.203	-0.24658585883970113	
10.59	-0.049	-0.2294899745266582	
10.595	-0.118	-0.2045688462015195	
10.6	-0.197	-0.17554180119781204	
10.605	-0.084	-0.1508624492983191	
10.61	-0.142	-0.13941216458016725	
10.615	-0.284	-0.2324396484294125	
10.62	-0.217	-0.15141800834963628	
10.625	-0.152	-0.17044553731780268	
10.63	-0.312	-0.19217581152634916	
10.635	-0.307	-0.21259436033897622	
10.64	-0.194	-0.2324396484294125	
10.645	-0.268	-0.2506099521697982	
10.65	-0.286	-0.2585661826541036	
10.655	-0.162	-0.2547662088500447	
10.66	-0.210	-0.24942013150884035	
10.665	-0.306	-0.24362249870354905	
10.67	-0.207	-0.23733166946821882	
10.675	-0.159	-0.23138296693700083	
10.68	-0.216	-0.22631200678978228	
10.685	-0.034	-0.2055660803808966	
10.69	0.544	-0.14324320339711916	
10.695	0.534	-0.018659345303655598	
10.7	0.229	0.1313033277520334	
10.705	-0.043	-0.22631200678978228	
10.71	-0.330	0.2234950658624501	
10.715	-0.570	0.11723114172450319	
10.72	-0.521	-0.04221995245913896	
10.725	-0.411	-0.207313240411924	
10.73	-0.413	-0.33742665735757765	
10.735	-0.275	-0.40346879195949503	
10.74	-0.106	-0.4081377107490247	
10.745	-0.119	-0.36988168751777895	
10.75	-0.029	-0.29868990522401057	
10.755	0.333	-0.19535904931210016	
10.76	0.411	-0.06550739364500463	
10.765	0.281	0.07401875743127648	
10.77	0.518	0.20497399427700402	
10.775	0.735	0.32377396826302407	
10.78	0.617	0.43725995728897593	
10.785	0.730	0.5415250928039393	
10.79	0.907	0.6340578161645567	
10.795	0.689	0.7039097744829139	
10.8	0.536	0.7401555645779065	
10.805	0.831	0.7478369424047855	
10.81	0.867	0.7484618917165509	
10.815	0.770	0.7618662176374766	
10.82	1.008	0.7931470675405262	
10.825	1.188	0.8438518500797361	
10.83	0.988	0.9080777970472751	
10.835	1.055	0.9725811249400726	
10.84	1.277	1.0301952617630254	
10.845	1.112	1.077785143041112	
10.85	0.942	1.1091420680521833	
10.855	1.023	1.1119714206511373	
10.86	0.750	1.0753296406997133	
10.865	0.447	0.992728679737801	
10.87	0.673	0.8832871657022794	
10.875	0.680	0.7788747294445906	
10.88	0.340	0.6869444425537508	
10.885	0.299	0.5976418817736415	
10.89	0.385	0.5072788022097261	
10.895	0.128	0.41570165167722906	
10.9	0.044	0.32814769716100634	
10.905	0.334	0.2570924976297493	
10.91	0.295	0.21436213162251633	
10.915	0.088	0.19772619221609836	
10.92	0.261	0.19530738642228102	
10.925	0.318	0.1978466111751908	
10.93	0.033	0.19892825904180594	
10.935	0.111	0.19266890637910322	
10.94	0.350	0.18426395282196723	
10.945	0.185	0.1837007121205751	
10.95	0.049	0.1871838469394163	
10.955	0.264	0.18602949728897028	
10.96	0.073	0.17529074213652496	
10.965	-0.127	0.14778266897829145	
10.97	-0.022	0.10529841104713178	
10.975	-0.014	0.05476157690231914	
10.98	-0.229	-9.376512153434855e-07	
10.985	-0.197	-0.05126906104108246	
10.99	-0.093	-0.09784186657686678	
10.995	-0.228	-0.13829621927702954	
11.0	-0.255	-0.16770510292391125	
11.005	-0.063	-0.1820146950606477	
11.01	-0.103	-0.18374934271007576	
11.015	-0.249	-0.17711476394785575	
11.02	-0.168	-0.16870122695895975	
11.025	-0.083	-0.16733052246949012	
11.03	-0.057	-0.15994599920281877	
11.035	0.272	-0.11616689057940652	
11.04	0.461	-0.02787111289834813	
11.045	-0.072	0.06463001542545606	
11.05	-0.338	0.10024296887216028	
11.055	-0.399	0.051925301871491185	
11.06	-0.601	-0.06777667525628714	
11.065	-0.711	-0.22310719533564294	
11.07	-0.504	-0.3666793495500625	
11.075	-0.353	-0.46825711611564497	
11.08	-0.375	-0.510911899751392	
11.085	-0.277	-0.4952439084135581	
11.09	-0.116	-0.44188092052230876	
11.095	-0.173	-0.3732708763170885	
11.1	-0.187	-0.2977169605883413	
11.105	0.006	-0.22505413709037714	
11.11	0.085	-0.15772188622603187	
11.115	0.067	-0.08712361334070969	
11.12	0.398	0.0002920102197771198	
11.125	0.573	0.10675485070097014	
11.13	0.288	0.2180132470310712	
11.135	0.340	0.30766341284383025	
11.14	0.669	0.3721523673719786	
11.145	0.603	0.4337683009333268	
11.15	0.611	0.5002448074126883	
11.155	0.898	0.5729383187253518	
11.16	0.796	0.6443166912772514	
11.165	0.576	0.6998528074183588	
11.17	0.756	0.7302015609253373	
11.175	0.987	0.7497513604158805	
11.18	0.800	0.7781271198666184	
11.185	0.848	0.8126722707524615	
11.19	0.981	0.8430445163535987	
11.195	0.690	0.8557975751347544	
11.2	0.567	0.841300586718664	
11.205	0.698	0.8018152871363422	
11.21	0.476	0.7402937538720027	
11.215	0.133	0.6539954241980545	
11.22	0.189	0.5411367410820171	
11.225	0.181	0.4156297954095406	
11.23	-0.055	0.2942688037193003	
11.235	-0.086	0.18471870971530507	
11.24	0.020	0.08988989225535282	
11.245	-0.057	0.014904409283626081	
11.25	-0.103	-0.03151446184825081	
11.255	0.128	-0.04932293057793499	
11.26	0.099	-0.042746537515779545	
11.265	-0.075	-0.022778667796559654	
11.27	0.004	-0.0029132620154618707	
11.275	-0.019	0.0004276453837184144	
11.28	-0.141	-0.011601966698806023	
11.285	-0.049	-0.025179183659559567	
11.29	0.099	-0.03229808591523176	
11.295	-0.109	-0.034107906292133824	
11.3	-0.185	-0.0413773952968758	
11.305	-0.028	-0.054448320760214754	
11.31	-0.106	-0.07284575245156799	
11.315	-0.239	-0.0926217232396057	
11.32	-0.181	-0.11291192926998939	
11.325	-0.223	-0.1427082809538287	
11.33	-0.327	-0.18051117740495753	
11.335	-0.271	-0.21309806872328402	
11.34	-0.177	-0.23642452529563804	
11.345	-0.326	-0.2541085832435216	
11.35	-0.364	-0.2692551132121265	
11.355	-0.213	-0.28049697325876294	
11.36	-0.271	-0.2879135020271619	
11.365	-0.327	-0.29053880751264005	
11.37	-0.081	-0.2778783565263838	
11.375	0.250	-0.23373710509907913	
11.38	0.117	-0.14944613573464532	
11.385	-0.049	-0.05509383678512638	
11.39	-0.240	-0.006579913394687503	
11.395	-0.543	-0.03716590447825833	
11.4	-0.685	-0.13617628734014509	
11.405	-0.617	-0.2715336425830245	
11.41	-0.665	-0.41198809621872806	
11.415	-0.640	-0.5264357958614958	
11.42	-0.457	-0.5897930506534546	
11.425	-0.355	-0.602848784031778	
11.43	-0.401	-0.5754912274300678	
11.435	-0.260	-0.514938585189253	
11.44	-0.101	-0.43650278454543356	
11.445	-0.193	-0.353232023524884	
11.45	-0.182	-0.2761348864254954	
11.455	0.012	-0.20744446369435968	
11.46	-0.028	-0.14908084141831143	
11.465	-0.124	-0.10253872817891568	
11.47	0.117	-0.06073155326354794	
11.475	0.203	-0.01785040186106109	
11.48	-0.037	0.024391351143259424	
11.485	0.094	0.05606439935513006	
11.49	0.348	0.08656791874593575	
11.495	0.236	0.12574316642115738	
11.5	0.247	0.17384477471046977	
11.505	0.544	0.22959886987012323	
11.51	0.444	0.29093635187871153	
11.515	0.287	0.34443797355661265	
11.52	0.536	0.3862397737668118	
11.525	0.586	0.422159258887838	
11.53	0.418	0.45543671616578085	
11.535	0.510	0.4820370711793566	
11.54	0.669	0.5055141513303414	
11.545	0.377	0.5197913204812232	
11.55	0.116	0.5038258259419857	
11.555	0.198	0.4454569254790824	
11.56	-0.014	0.3519734369583193	
11.565	-0.193	0.23856374477148548	
11.57	-0.136	0.12013289937440846	
11.575	-0.142	0.010103242683964508	
11.58	-0.324	-0.08638122402874392	
11.585	-0.333	-0.16397687660676175	
11.59	-0.225	-0.22564085045094928	
11.595	-0.307	-0.2720658627472151	
11.6	-0.280	-0.29302420558349285	
11.605	-0.132	-0.29066400796597613	
11.61	-0.231	-0.27702517749614325	
11.615	-0.370	-0.2653037663421546	
11.62	-0.213	-0.25895360875993867	
11.625	-0.150	-0.25397875181584395	
11.63	-0.278	-0.2462692977684237	
11.635	-0.243	-0.23499161534385452	
11.64	-0.188	-0.22876303702825562	
11.645	-0.344	-0.23401904351111627	
11.65	-0.379	-0.24899299566070554	
11.655	-0.240	-0.2677710141078675	
11.66	-0.323	-0.28700284568121287	
11.665	-0.449	-0.30721091301984016	
11.67	-0.394	-0.32802554083864904	
11.675	-0.361	-0.3540250313548986	
11.68	-0.469	-0.379182546416456	
11.685	-0.436	-0.39699632198018187	
11.69	-0.300	-0.4058152631116356	
11.695	-0.405	-0.4079548209760172	
11.7	-0.511	-0.40696647748718384	
11.705	-0.408	-0.41084524421706486	
11.71	-0.384	-0.4209965746579026	
11.715	-0.391	-0.4221415358994163	
11.72	-0.168	-0.40002345269979855	
11.725	-0.121	-0.3570436571651472	
11.73	-0.413	-0.3121804732834173	
11.735	-0.643	-0.30103925269233334	
11.74	-0.782	-0.3528973888378146	
11.745	-0.981	-0.46698580240683396	
11.75	-0.993	-0.606917395598298	
11.755	-0.860	-0.7357972308777019	
11.76	-0.811	-0.8310101371312671	
11.765	-0.821	-0.8781356172356722	
11.77	-0.662	-0.8769655321362848	
11.775	-0.504	-0.8390568764321114	
11.78	-0.508	-0.771212063714404	
11.785	-0.437	-0.6799186765911818	
11.79	-0.303	-0.5858071307514682	
11.795	-0.326	-0.5010936646025713	
11.8	-0.295	-0.42192711002738836	
11.805	-0.113	-0.3476839503342156	
11.81	-0.119	-0.28213730143532484	
11.815	-0.155	-0.22328194840401014	
11.82	0.067	-0.16280820130236429	
11.825	0.146	-0.10003920328640867	
11.83	0.070	-0.03544251825676224	
11.835	0.339	0.03717116624143506	
11.84	0.637	0.13141191113372983	
11.845	0.527	0.24573979774890248	
11.85	0.531	0.3609595688898432	
11.855	0.855	0.4695323514611252	
11.86	0.779	0.5698554676300451	
11.865	0.765	0.6585126435761313	
11.87	1.042	0.742293078801632	
11.875	1.075	0.8250965446631123	
11.88	0.748	0.89037758310687	
11.885	0.727	0.9160619289231059	
11.89	0.846	0.9015321416253863	
11.895	0.508	0.85671908317384	
11.9	0.246	0.7758166211982735	
11.905	0.368	0.6615698511237413	
11.91	0.152	0.5299567262502287	
11.915	-0.110	0.3914559107897619	
11.92	-0.042	0.25322412172373915	
11.925	-0.008	0.12618115179630646	
11.93	-0.197	0.023476577616435734	
11.935	-0.159	-0.05095827294032103	
11.94	-0.072	-0.1044785475035435	
11.945	-0.200	-0.1411922806437643	
11.95	-0.220	-0.1621369015460794	
11.955	-0.071	-0.17047098809597355	
11.96	-0.121	-0.17103556077782198	
11.965	-0.167	-0.16349258676365958	
11.97	0.035	-0.14278673060004882	
11.975	0.091	-0.10885451565791217	
11.98	-0.126	-0.07252977388674314	
11.985	-0.153	-0.049986417360514755	
11.99	-0.090	-0.05252384996394567	
11.995	-0.222	-0.07619557817168289	
12.0	-0.303	-0.11012985287513023	
12.005	-0.200	-0.14849342252216052	
12.01	-0.159	-0.1850404873700102	
12.015	-0.223	-0.20545913995415577	
12.02	-0.124	-0.20377686532098227	
12.025	-0.045	-0.19189526838240306	
12.03	-0.171	-0.17353242914905628	
12.035	-0.176	-0.15291077659047703	
12.04	-0.148	-0.14352111629688197	
12.045	-0.281	-0.15429093747802514	
12.05	-0.286	-0.17409251743930537	
12.055	-0.022	-0.18737724445995685	
12.06	0.119	-0.17511160978153223	
12.065	0.327	-0.11250727328823182	
12.07	0.649	0.011400832287728688	
12.075	0.279	0.15509215717074598	
12.08	-0.341	0.23217592673559878	
12.085	-0.509	0.19105428124696391	
12.09	-0.517	0.05065752730188253	
12.095	-0.616	-0.13437250249561009	
12.1	-0.543	-0.3031927501237378	
12.105	-0.313	-0.4181725140802226	
12.11	-0.254	-0.4690472629201598	
12.115	-0.277	-0.4597363956088656	
12.12	-0.071	-0.4035788081015118	
12.125	0.204	-0.31467754565316014	
12.13	0.056	-0.19983564486061348	
12.135	0.229	-0.07495375963963477	
12.14	0.408	0.04482772933228681	
12.145	0.180	0.1435562358616758	
12.15	0.119	0.20960272748323566	
12.155	0.499	0.25189777740520775	
12.16	0.515	0.29500684559378854	
12.165	0.372	0.34710114561778727	
12.17	0.596	0.40240401832683936	
12.175	0.696	0.4564231131983479	
12.18	0.531	0.5090902787774911	
12.185	0.754	0.563986495438487	
12.19	1.040	0.6299443569455946	
12.195	0.889	0.7116058017390587	
12.2	0.869	0.792531697595635	
12.205	1.115	0.8648975018057394	
12.21	1.025	0.9250471708319893	
12.215	0.854	0.9670526616682446	
12.22	1.011	0.9893501770917845	
12.225	1.058	0.9964698021261997	
12.23	0.686	0.9861144204332655	
12.235	0.670	0.9488861686949913	
12.24	0.683	0.8818932670746145	
12.245	0.316	0.787679622743964	
12.25	0.113	0.6645090359655883	
12.255	0.212	0.5218041771067357	
12.26	0.000	0.3741339606080333	
12.265	-0.174	0.23214888792924615	
12.27	-0.095	0.10625210375724825	
12.275	-0.130	-0.0005240204224857005	
12.28	-0.294	-0.08872663811211456	
12.285	-0.179	-0.151142925058852	
12.29	-0.026	-0.1831598926696673	
12.295	-0.138	-0.1891645904305443	
12.3	-0.116	-0.17446627187053168	
12.305	0.143	-0.13931246307174072	
12.31	0.029	-0.09377689321286234	
12.315	-0.164	-0.05381108510654043	
12.32	0.589	-0.0039033766181765127	
12.325	2.224	0.16865826504926482	
12.33	2.699	0.5736894480977672	
12.335	2.873	1.1567358087405188	
12.34	2.928	1.7564274082871683	
12.345	2.487	2.238919527333878	
12.35	2.116	2.5266373289533997	
12.355	2.087	2.6132045908995503	
12.36	2.119	2.556079317326473	
12.365	2.663	2.46975830972259	
12.37	3.043	2.4610967142284483	
12.375	3.044	2.5450433034747904	
12.38	2.603	2.652690694153174	
12.385	2.459	2.715967911177069	
12.39	2.447	2.707164520530566	
12.395	2.233	2.638967241972142	
12.4	2.330	2.548112936699285	
12.405	2.809	2.4852192289205335	
12.41	3.041	2.496970413524842	
12.415	3.041	2.591991065629008	
12.42	3.044	2.726975262932545	
12.425	2.464	2.822665329418171	
12.43	1.780	2.794825218536463	
12.435	1.502	2.6170940221694106	
12.44	1.508	2.3388949897969065	
12.445	1.459	2.0400897234794737	
12.45	1.598	1.79643857386198	
12.455	1.835	1.6489914188954065	
12.46	1.691	1.587817608019001	
12.465	1.500	1.5742527361103031	
12.47	1.529	1.5688814200743295	
12.475	1.369	1.5485007358419391	
12.48	0.939	1.4881807074395277	
12.485	0.840	1.3771880790807356	
12.49	0.626	1.219560958177781	
12.495	-0.115	1.0031703914827297	
12.5	-0.521	0.7075078018802063	
12.505	-0.767	0.3465698444243658	
12.51	-0.995	-0.04015426463727556	
12.515	-0.995	-0.39634177536118687	
12.52	-0.995	-0.677313123528432	
12.525	-0.995	-0.8766268548690486	
12.53	-0.995	-0.9993553125369893	
12.535	-0.993	-1.054804412784736	
12.54	-0.940	-1.0677651720059627	
12.545	-0.972	-1.0585177975481277	
12.55	-0.995	-1.0362349280685694	
12.555	-0.995	-1.0127673383255156	
12.56	-0.995	-1.002174393021917	
12.565	-0.995	-0.996087019972713	
12.57	-0.996	-0.9885498795476731	
12.575	-0.995	-0.9888476608470359	
12.58	-0.996	-0.9921414183260335	
12.585	-0.995	-0.9918134002178185	
12.59	-0.995	-0.9909996796923685	
12.595	-0.995	-0.9954230426748458	
12.6	-0.995	-0.9961011150149922	
12.605	-0.995	-0.9929023850186651	
12.61	-0.995	-0.9952053961433646	
12.615	-0.995	-0.9969649699878408	
12.62	-0.995	-0.9935728689020457	
12.625	-0.995	-0.9939202514661281	
12.63	-0.995	-0.9971048882922321	
12.635	-0.995	-0.9947730495833493	
12.64	-0.995	-0.9930210059151044	
12.645	-0.995	-0.9964655522150725	
12.65	-0.995	-0.9960850717210672	
12.655	-0.996	-0.9928357472957232	
12.66	-0.993	-0.9952541847310136	
12.665	-0.995	-0.9970419510742907	
12.67	-0.943	-0.9904567245894078	
12.675	-0.902	-0.9818746649015653	
12.68	-0.980	-0.9702736501980679	
12.685	-0.908	-0.9557249196064537	
12.69	-0.815	-0.9388474228096036	
12.695	-0.893	-0.9186200934289078	
12.7	-0.905	-0.8991830518891583	
12.705	-0.798	-0.8826155587481769	
12.71	-0.784	-0.8662860571982276	
12.715	-0.824	-0.8462432827052666	
12.72	-0.691	-0.8202971214120092	
12.725	-0.630	-0.7887714675239617	
12.73	-0.700	-0.7534952864246531	
12.735	-0.657	-0.7166891404538243	
12.74	-0.564	-0.6846599760385708	
12.745	-0.587	-0.6567891057465683	
12.75	-0.442	-0.6202557344945904	
12.755	-0.121	-0.5573504772371867	
12.76	-0.106	-0.46532303416818643	
12.765	-0.326	-0.36447822603399305	
12.77	-0.465	-0.2991754675811807	
12.775	-0.662	-0.30273192781584146	
12.78	-0.883	-0.3757668390687918	
12.785	-0.827	-0.4876211034424846	
12.79	-0.700	-0.6014169930935342	
12.795	-0.688	-0.6859566416216292	
12.8	-0.596	-0.7213311695091025	
12.805	-0.359	-0.7060896041576019	
12.81	-0.246	-0.6443967017028855	
12.815	-0.251	-0.5466627209451551	
12.82	-0.058	-0.4298941799143785	
12.825	0.081	-0.3086028127789523	
12.83	-0.057	-0.1940339113275253	
12.835	0.088	-0.0945418492648842	
12.84	0.282	-0.008221898425040458	
12.845	0.116	0.06477364435902941	
12.85	0.152	0.12254782893946943	
12.855	0.426	0.17115373293552588	
12.86	0.339	0.22050221038662504	
12.865	0.197	0.2631103101194525	
12.87	0.499	0.29829159868253574	
12.875	0.635	0.3424997287409043	
12.88	0.498	0.4007817606307747	
12.885	0.678	0.46750783135058405	
12.89	0.950	0.5449338030670448	
12.895	0.819	0.6326818851503059	
12.9	0.799	0.7184967001031877	
12.905	1.066	0.7922400940053907	
12.91	0.933	0.8554712422492025	
12.915	0.776	0.8990599975541265	
12.92	0.817	0.9133136976645609	
12.925	0.637	0.8884406005737269	
12.93	0.240	0.816718446939617	
12.935	0.180	0.6955248381556346	
12.94	0.160	0.5428984053035426	
12.945	-0.138	0.37866043651096803	
12.95	-0.199	0.2165689151462667	
12.955	-0.121	0.07124354519320047	
12.96	-0.197	-0.049547525637924354	
12.965	-0.297	-0.1368426538438281	
12.97	-0.170	-0.19363974427973776	
12.975	-0.167	-0.22559524287194027	
12.98	-0.284	-0.24020086247091418	
12.985	-0.237	-0.24239331979321285	
12.99	-0.170	-0.2411771633557908	
12.995	-0.283	-0.24136497758795397	
13.0	-0.289	-0.24134886875641628	
13.005	-0.208	-0.24179675050546098	
13.01	-0.265	-0.2476520937242061	
13.015	-0.329	-0.2548041480021896	
13.02	-0.171	-0.2555927999240036	
13.025	-0.147	-0.2496753835628928	
13.03	-0.303	-0.24022995862865515	
13.035	-0.266	-0.2323219846551266	
13.04	-0.193	-0.23319716426051582	
13.045	-0.344	-0.24143781429797487	
13.05	-0.393	-0.2573018213697477	
13.055	-0.287	-0.2787544317271492	
13.06	-0.330	-0.3037224197572398	
13.065	-0.365	-0.32079558537949215	
13.07	-0.239	-0.323507303063725	
13.075	-0.266	-0.3207331799453551	
13.08	-0.313	-0.31329581703792053	
13.085	-0.297	-0.3012100062401173	
13.09	-0.254	-0.2931747476588942	
13.095	-0.275	-0.2905756871101325	
13.1	-0.145	-0.27622973635125914	
13.105	0.053	-0.23758512937740178	
13.11	-0.184	-0.19186676735410874	
13.115	-0.468	-0.16995253692800094	
13.12	-0.562	-0.19936785502554666	
13.125	-0.698	-0.28574530751684535	
13.13	-0.847	-0.40950438619302854	
13.135	-0.734	-0.5320868798103338	
13.14	-0.573	-0.6279726084615507	
13.145	-0.537	-0.676739687059841	
13.15	-0.413	-0.6672720478202567	
13.155	-0.236	-0.6093475851766548	
13.16	-0.174	-0.5229442583027921	
13.165	-0.152	-0.4180984133760419	
13.17	0.159	-0.29808400976740157	
13.175	0.178	-0.1716547835618823	
13.18	-0.115	-0.06382517859111812	
13.185	0.023	0.006950974784519111	
13.19	0.232	0.04723553500065875	
13.195	0.076	0.07801222145149474	
13.2	0.154	0.10758578993436628	
13.205	0.441	0.14491041926886	
13.21	0.377	0.1950193664238294	
13.215	0.327	0.2536748297956961	
13.22	0.611	0.3180618059622692	
13.225	0.728	0.39246720852490485	
13.23	0.606	0.4750175759272874	
13.235	0.780	0.5609976455420065	
13.24	0.985	0.645390716772301	
13.245	0.860	0.7268852140249373	
13.25	0.869	0.8025096915108817	
13.255	1.092	0.8660462395535303	
13.26	0.909	0.9129617187009035	
13.265	0.719	0.9355334792092016	
13.27	0.852	0.9281528067802318	
13.275	0.727	0.8944880347065806	
13.28	0.427	0.8348668129288738	
13.285	0.515	0.7550367027215448	
13.29	0.626	0.6725033356277605	
13.295	0.356	0.5988045409280155	
13.3	0.293	0.5314778038483914	
13.305	0.339	0.46414725668190515	
13.31	0.127	0.3889445082382087	
13.315	0.003	0.3074812961083257	
13.32	0.282	0.23725036032602703	
13.325	0.307	0.19456437664377074	
13.33	0.134	0.18082301173205093	
13.335	0.282	0.1870418756258952	
13.34	0.450	0.2095616896220279	
13.345	0.261	0.24077495861963844	
13.35	0.188	0.2694224424028538	
13.355	0.443	0.28818129290637357	
13.36	0.391	0.3049900148728222	
13.365	0.267	0.32545371414037744	
13.37	0.409	0.3442019952203599	
13.375	0.420	0.355549278057414	
13.38	0.206	0.35782610790018365	
13.385	0.295	0.35202408459217893	
13.39	0.386	0.3385267071327564	
13.395	0.159	0.3187820031630837	
13.4	0.180	0.2954617491424609	
13.405	0.405	0.27717494603591075	
13.41	0.311	0.26897086859360125	
13.415	0.244	0.27448531152646305	
13.42	0.429	0.2902206328065373	
13.425	0.490	0.31352929429082477	
13.43	0.305	0.34184177077690747	
13.435	0.530	0.37505309565600237	
13.44	0.866	0.42552378199652485	
13.445	0.984	0.5138227763683088	
13.45	1.254	0.6555347828495169	
13.455	1.416	0.8351507133545486	
13.46	0.945	0.37505309565600237	
13.465	0.331	1.056399393390476	
13.47	0.128	0.9801291600821934	
13.475	0.001	0.7844676438003606	
13.48	-0.112	0.538890735008763	
13.485	0.099	0.321127168043263	
13.49	0.453	0.17953247131295624	
13.495	0.470	0.13783701698343068	
13.5	0.657	0.19057725791430938	
13.505	0.962	0.3121523560860885	
13.51	0.947	0.4708994607310918	
13.515	0.820	0.6305334400322482	
13.52	1.046	0.7682132796906798	
13.525	1.045	0.872417832240105	
13.53	0.828	0.9408558564096662	
13.535	0.965	0.9771044448937879	
13.54	1.156	0.9954236115938432	
13.545	0.919	1.0067679505036606	
13.55	0.938	1.0125821353176045	
13.555	1.162	1.0160948629982194	
13.56	1.016	1.019877456748783	
13.565	0.938	1.0246175476467583	
13.57	1.246	1.0352190831807364	
13.575	1.253	1.061398465791009	
13.58	1.036	1.094950979067462	
13.585	1.199	1.1251038046819724	
13.59	1.382	1.1543322243506018	
13.595	1.149	1.184854412542093	
13.6	1.103	1.205627572379304	
13.605	1.268	1.2109331810960668	
13.61	1.040	1.198906034250994	
13.615	0.788	1.162752173923425	
13.62	0.863	1.0980380915102412	
13.625	0.741	1.0092959877908143	
13.63	0.400	0.9021761227660547	
13.635	0.374	0.7780552910021814	
13.64	0.368	0.6431014841926832	
13.645	0.058	0.50504201679205	
13.65	0.033	0.3727769937406987	
13.655	0.241	0.25869493384352726	
13.66	0.024	0.17397138684559285	
13.665	-0.086	0.11003640925005555	
13.67	0.142	0.06385673014010726	
13.675	0.181	0.043185355621498916	
13.68	-0.074	0.04050768916297402	
13.685	-0.084	0.035984646183070235	
13.69	-0.054	0.013776225317347388	
13.695	-0.193	-0.023697450135511333	
13.7	-0.170	-0.06205190976429246	
13.705	0.007	-0.09069801067136678	
13.71	-0.126	-0.10598636502623876	
13.715	-0.210	-0.11560675971462456	
13.72	-0.084	-0.12142981532436942	
13.725	-0.122	-0.12903915087157186	
13.73	-0.260	-0.13910347271959533	
13.735	-0.208	-0.15203221219265062	
13.74	-0.181	-0.170575371781427	
13.745	-0.330	-0.1944461691167618	
13.75	-0.303	-0.21986212362213453	
13.755	-0.194	-0.24107662226447468	
13.76	-0.251	-0.25594790393129263	
13.765	-0.320	-0.26225476322705904	
13.77	-0.237	-0.2636784504968073	
13.775	-0.243	-0.2672345299895724	
13.78	-0.303	-0.26973943154463065	
13.785	-0.150	-0.262041983430249	
13.79	0.137	-0.23188329024727583	
13.795	0.133	-0.16718915704526205	
13.8	0.039	-0.08066877193535359	
13.805	-0.083	-0.015477113721644509	
13.81	-0.385	-0.008013815976501686	
13.815	-0.663	-0.07294706955834646	
13.82	-0.654	-0.19588540014319766	
13.825	-0.643	-0.34445706459879744	
13.83	-0.656	-0.4753779695613693	
13.835	-0.492	-0.5609663219661718	
13.84	-0.333	-0.5912375529601428	
13.845	-0.341	-0.5700394276073264	
13.85	-0.234	-0.5083806901543457	
13.855	-0.084	-0.42473130775705553	
13.86	-0.124	-0.3330477123516594	
13.865	-0.156	-0.24856844515011522	
13.87	0.009	-0.17700830216634178	
13.875	-0.042	-0.12074728218591146	
13.88	-0.124	-0.08112953102621591	
13.885	-0.011	-0.056926356184586246	
13.89	0.195	-0.03260546843918479	
13.895	0.097	0.0030946555780167707	
13.9	0.142	0.0488683842821259	
13.905	0.365	0.09693717447107301	
13.91	0.217	0.14989894290348	
13.915	0.250	0.1978216828072172	
13.92	0.599	0.2478132194450833	
13.925	0.625	0.32001029611007936	
13.93	0.539	0.4052846026706585	
13.935	0.709	0.48707719968087754	
13.94	0.860	0.56593171635011	
13.945	0.683	0.6413799277959025	
13.95	0.655	0.6961370433741412	
13.955	0.797	0.7233892999186811	
13.96	0.556	0.7299318852444396	
13.965	0.345	0.7043618895810322	
13.97	0.402	0.6393558184063849	
13.975	0.212	0.5496410239007101	
13.98	2.294	0.5480703675152145	
13.985	3.017	0.8093757050405973	
13.99	2.991	1.3084428945929434	
13.995	2.991	1.864469239086368	
14.0	2.989	2.3483423959074217	
14.005	2.989	2.7040870369521386	
14.01	2.993	2.929837277896244	
14.015	2.991	3.0534712951401506	
14.02	2.991	3.104335077735511	
14.025	2.993	3.106666757701927	
14.03	2.999	3.085857453098532	
14.035	3.003	3.0629888223330726	
14.04	3.003	3.0385476136727547	
14.045	3.011	3.018712688235127	
14.05	3.016	3.01022585579691	
14.055	3.014	3.0061527729548394	
14.06	3.012	3.004102628105153	
14.065	3.016	3.005383129505483	
14.07	3.019	3.0092603828991376	
14.075	3.026	3.0118750569199935	
14.08	3.032	3.0148125041530207	
14.085	3.035	3.0218278052553194	
14.09	3.038	3.0267056688985816	
14.095	2.880	3.021738792613971	
14.1	2.507	2.985990374359651	
14.105	2.322	2.888184179100457	
14.11	1.876	2.7221921522726067	
14.115	1.576	2.4911908108692775	
14.12	1.556	2.224239124702122	
14.125	1.275	1.9550727933253278	
14.13	0.967	1.695736358843991	
14.135	1.078	1.4557023942302294	
14.14	1.281	1.2709150379202292	
14.145	1.069	1.1608870454419864	
14.15	0.632	1.0818243423744933	
14.155	0.020	0.9521196832625671	
14.16	-0.399	0.723327748444367	
14.165	-0.621	0.4131678869556716	
14.17	-0.666	0.08014031807080119	
14.175	-0.706	-0.22281200624212485	
14.18	-0.781	-0.46415010040991433	
14.185	-0.784	-0.6353829491035858	
14.19	-0.807	-0.7481388313014141	
14.195	-0.899	-0.8200755938533001	
14.2	-0.854	-0.861165540058322	
14.205	-0.749	-0.8767884730608918	
14.21	-0.798	-0.8705325050205781	
14.215	-0.816	-0.8518667678204258	
14.22	-0.714	-0.8289418705435523	
14.225	-0.694	-0.8017717615758038	
14.23	-0.735	-0.7721836780058005	
14.235	-0.700	-0.7445146284174193	
14.24	-0.650	-0.7231283265605791	
14.245	-0.686	-0.705016256917502	
14.25	-0.663	-0.6882504099167719	
14.255	-0.567	-0.6708378601536273	
14.26	-0.555	-0.649451654485262	
14.265	-0.578	-0.6228705032537384	
14.27	-0.533	-0.5960197953012422	
14.275	-0.540	-0.5757427839113018	
14.28	-0.559	-0.5601424321648363	
14.285	-0.474	-0.5455583859481692	
14.29	-0.468	-0.5291275739298045	
14.295	-0.544	-0.5149749858043122	
14.3	-0.556	-0.5092874095799875	
14.305	-0.556	-0.5138714657845929	
14.31	-0.669	-0.5314190742997019	
14.315	-0.795	-0.5648913598542956	
14.32	-0.822	-0.6180712544337542	
14.325	-0.873	-0.6837022847836798	
14.33	-0.977	-0.7551091423840228	
14.335	-0.981	-0.8236156459235061	
14.34	-0.989	-0.8871249302398843	
14.345	-0.995	-0.9388995796142876	
14.35	-0.995	-0.973293110688986	
14.355	-0.995	-0.992900403158375	
14.36	-0.993	-1.004369715949628	
14.365	-0.993	-1.0088627567250716	
14.37	-0.949	-1.0030870306036568	
14.375	-0.955	-0.994686272412049	
14.38	-0.995	-0.9861108096909043	
14.385	-0.993	-0.9786381392139281	
14.39	-0.918	-0.9751080310552493	
14.395	-0.926	-0.968911408724463	
14.4	-0.920	-0.9553258808129104	
14.405	-0.847	-0.9378695885943664	
14.41	-0.893	-0.9203714498266802	
14.415	-0.954	-0.9069193351813818	
14.42	-0.889	-0.9010656976814618	
14.425	-0.908	-0.9016616844683025	
14.43	-0.990	-0.9071609330313123	
14.435	-0.980	-0.9186283388998133	
14.44	-0.978	-0.936069108968818	
14.445	-0.993	-0.9549583755639547	
14.45	-0.995	-0.9693355030251982	
14.455	-0.912	-0.9768104845802353	
14.46	-0.900	-0.9733885874400762	
14.465	-0.946	-0.9609427321790623	
14.47	-0.928	-0.9470138849687431	
14.475	-0.911	-0.9376752360703131	
14.48	-0.807	-0.9262019481274579	
14.485	-0.562	-0.8895394999570123	
14.49	-0.399	-0.8150044894317903	
14.495	-0.509	-0.7160426806397899	
14.5	-0.694	-0.6313781779434227	
14.505	-0.870	-0.5997964765788206	
14.51	-0.995	-0.6334769401489578	
14.515	-0.995	-0.7109917106358331	
14.52	-0.995	-0.799909879943123	
14.525	-0.967	-0.8796559914588775	
14.53	-0.882	-0.9332864381369155	
14.535	-0.706	-0.9434815036876114	
14.54	-0.552	-0.9059332444270216	
14.545	-0.549	-0.8321345043930034	
14.55	-0.495	-0.7393556100405582	
14.555	-0.399	-0.6446199457703012	
14.56	-0.361	-0.558509128774445	
14.565	-0.358	-0.4811075667149953	
14.57	-0.295	-0.4148051579366147	
14.575	-0.320	-0.36563690268525395	
14.58	-0.410	-0.33748228827591287	
14.585	-0.393	-0.3294803471112576	
14.59	-0.294	-0.33382797684929155	
14.595	-0.272	-0.33425781090252515	
14.6	-0.200	-0.31938636390131614	
14.605	-0.037	-0.2844408002500644	
14.61	-0.055	-0.2325527595038916	
14.615	-0.072	-0.17423568963514724	
14.62	0.359	-0.10265433098184992	
14.625	0.519	0.0024697573121034953	
14.63	0.391	0.1354009829006162	
14.635	0.426	0.2575072606722534	
14.64	0.496	0.3502325386997793	
14.645	0.263	0.4066703946150586	
14.65	0.165	0.4155319463003747	
14.655	0.120	0.377538773016362	
14.66	-0.104	0.3004456531354933	
14.665	-0.220	0.19277435241909438	
14.67	-0.196	0.07329076467809273	
14.675	-0.353	-0.04558251305937774	
14.68	-0.599	-0.16653378192268264	
14.685	-0.735	-0.29748178090245253	
14.69	-0.865	-0.4428299642991365	
14.695	-0.995	-0.5952475503853736	
14.7	-0.993	-0.735367740662697	
14.705	-0.995	-0.8504962974425381	
14.71	-0.995	-0.9365204586230788	
14.715	-0.996	-0.9891211643694646	
14.72	-0.996	-1.013742993078223	
14.725	-0.996	-1.0246417240370271	
14.73	-0.996	-1.0264670078150369	
14.735	-0.996	-1.0184314476183136	
14.74	-0.996	-1.0108803070542713	
14.745	-0.996	-1.0072783620549886	
14.75	-0.996	-1.0013286499881313	
14.755	-0.996	-0.9965016920371753	
14.76	-0.996	-0.9966135045260401	
14.765	-0.996	-0.9961362718184903	
14.77	-0.996	-0.9936592434351634	
14.775	-0.996	-0.9946896122253348	
14.78	-0.996	-0.9965650707040824	
14.785	-0.996	-0.9953278528553684	
14.79	-0.996	-0.9948227006859867	
14.795	-0.996	-0.9974335569117256	
14.8	-0.996	-0.9963012430219909	
14.805	-0.996	-0.9943351888400629	
14.81	-0.996	-0.9967445722583662	
14.815	-0.996	-0.9972452018463878	
14.82	-0.996	-0.9944411640953348	
14.825	-0.996	-0.9957008687454897	
14.83	-0.996	-0.9978047110632644	
14.835	-0.996	-0.9951643955975185	
14.84	-0.996	-0.9946562545793624	
14.845	-0.996	-0.9977227841875057	
14.85	-0.996	-0.996304167277028	
14.855	-0.996	-0.9940107875801856	
14.86	-0.996	-0.9969475606377403	
14.865	-0.996	-0.9974753190059287	
14.87	-0.996	-0.99407050585254	
14.875	-0.995	-0.9956835981309672	
14.88	-0.996	-0.9982228708055383	
14.885	-0.996	-0.9949167181429177	
14.89	-0.995	-0.9943568766605343	
14.895	-0.995	-0.9981841194527067	
14.9	-0.944	-0.9933330900341102	
14.905	-0.786	-0.975474418523362	
14.91	-0.747	-0.941221329468815	
14.915	-0.605	-0.8838422931228815	
14.92	-0.405	-0.7965108841307611	
14.925	-0.375	-0.6936069905437672	
14.93	-0.405	-0.588854080333612	
14.935	-0.225	-0.4876271717118227	
14.94	-0.011	-0.389882066197355	
14.945	-0.155	-0.29276409162882844	
14.95	0.024	-0.20048052182825413	
14.955	0.580	-0.09380876694134455	
14.96	0.586	0.051560540443289754	
14.965	0.571	0.22265195998999246	
14.97	0.945	0.3939562568184007	
14.975	1.147	0.567554943777612	
14.98	1.123	0.7466242901731934	
14.985	1.330	0.9215536382419546	
14.99	1.390	1.0744536876504944	
14.995	1.156	1.1887983457007236	
15.0	1.291	1.2614290602446419	
15.005	1.433	1.3045958182622541	
15.01	1.141	1.3232954991299979	
15.015	0.890	1.3023325387049551	
15.02	1.052	1.240340463409866	
15.025	0.958	1.1585961026389224	
15.03	0.745	1.0732248528286723	
15.035	0.858	0.9927630408949486	
15.04	0.907	0.9237531723884896	
15.045	0.698	0.8685086877323354	
15.05	0.819	0.830408876996906	
15.055	1.025	0.8169525037033991	
15.06	0.832	0.8221688483898607	
15.065	0.858	0.8391435123484724	
15.07	1.179	0.8706541360561513	
15.075	1.130	0.9206568073918813	
15.08	0.883	0.9708971945558618	
15.085	1.100	1.008853180907553	
15.09	1.251	1.0399853219740915	
15.095	1.043	1.0702838301040605	
15.1	1.152	1.10128696098484	
15.105	1.369	1.1331913718694138	
15.11	1.185	1.1671302161288652	
15.115	0.997	1.1879169286119455	
15.12	1.191	1.1877522049263467	
15.125	1.138	1.1707546017937949	
15.13	0.835	1.1417445018081906	
15.135	0.884	1.0948497255110619	
15.14	1.100	1.0391091955446952	
15.145	0.897	0.9972348819182326	
15.15	0.890	0.9722523907158704	
15.155	1.120	0.9592584761646307	
15.16	0.965	0.9571128367164301	
15.165	0.922	0.9639204406861115	
15.17	1.110	0.9778209502379325	
15.175	1.127	0.9947124436134748	
15.18	1.314	1.0327454981019315	
15.185	1.899	1.1290206758490093	
15.19	1.940	1.2921367406244864	
15.195	1.324	1.4540443566329881	
15.2	0.832	1.5221456254148182	
15.205	0.599	1.4432487140414634	
15.21	0.229	1.234024384726942	
15.215	0.042	0.955862725283275	
15.22	0.434	0.6839276788177411	
15.225	0.647	0.49083336409747336	
15.23	0.658	0.41174227600248636	
15.235	0.953	0.4389682332464835	
15.24	1.201	0.5441506912474392	
15.245	1.161	0.6961519587416317	
15.25	1.318	0.8722697408397353	
15.255	1.619	1.0503016161893681	
15.26	1.407	1.2120396182805018	
15.265	1.295	1.3328568453448169	
15.27	1.485	1.4068246961130493	
15.275	1.404	1.438706335655894	
15.28	1.376	1.4477101666853283	
15.285	1.549	1.4559481184548693	
15.29	1.616	1.4700941830875638	
15.295	1.443	1.4861440109675885	
15.3	1.627	1.5092944600039904	
15.305	1.926	1.550317747990667	
15.31	1.835	1.6140803968073953	
15.315	1.772	1.6888895918342628	
15.32	2.027	1.7628290334710142	
15.325	1.996	1.828732207946475	
15.33	1.851	1.883711071406752	
15.335	1.943	1.9228896562200402	
15.34	1.948	1.9410835236106951	
15.345	1.686	1.932172834969213	
15.35	1.596	1.8952370326739592	
15.355	1.688	1.8342522799886583	
15.36	1.436	1.7531132832391743	
15.365	1.197	1.6568951158725191	
15.37	1.242	1.5447734075201138	
15.375	1.101	1.4197523255467663	
15.38	0.870	1.2917623929558786	
15.385	0.893	1.1708750633283826	
15.39	0.935	1.0590928866559999	
15.395	0.750	0.9642380064085275	
15.4	0.744	0.8922678589053209	
15.405	0.938	0.8412504486480514	
15.41	0.768	0.8101309237168951	
15.415	0.693	0.7929265895125843	
15.42	0.979	0.7887893602238545	
15.425	0.906	0.8007521629369008	
15.43	0.706	0.8157598822989082	
15.435	0.728	0.821852060678087	
15.44	0.762	0.8060552378386483	
15.445	0.644	0.7762349931770591	
15.45	0.748	0.7532846441148273	
15.455	0.878	0.7462392322140963	
15.46	0.690	0.7441055921968653	
15.465	0.547	0.7369135590886555	
15.47	0.725	0.7197878913855924	
15.475	0.629	0.6937386608703839	
15.48	0.325	0.6567355402595463	
15.485	0.426	0.6038699314028846	
15.49	0.570	0.5450975257005168	
15.495	0.392	0.49923505268361834	
15.5	0.412	0.4712659653300604	
15.505	0.568	0.4572384717825541	
15.51	0.383	0.44611368766115955	
15.515	0.319	0.4369293974208005	
15.52	0.646	0.43479726525523216	
15.525	0.764	0.4577541556812514	
15.53	0.834	0.5197997669489549	
15.535	1.068	0.6239158612188295	
15.54	0.952	0.7390397990760467	
15.545	0.345	0.8051315707776062	
15.55	-0.022	0.7701872796319771	
15.555	-0.037	0.6261900901177425	
15.56	-0.197	0.4181200116914603	
15.565	-0.217	0.21098280943228226	
15.57	-0.016	0.04682201257969359	
15.575	0.140	-0.0532546193838649	
15.58	0.163	-0.07617057526249797	
15.585	0.452	-0.02303662637771529	
15.59	0.600	0.08204167233295365	
15.595	0.406	0.20717084255491633	
15.6	0.499	0.32431467003835357	
15.605	0.767	0.42523295503654873	
15.61	0.629	0.5120377650297891	
15.615	0.544	0.5799564187560862	
15.62	0.849	0.6318220630597416	
15.625	0.813	0.6756595890501664	
15.63	0.562	0.7087626742163008	
15.635	0.776	0.7279428735784044	
15.64	0.933	0.7420111314009972	
15.645	0.790	0.763211407791649	
15.65	0.877	0.7953662043238066	
15.655	1.065	0.8331771430407439	
15.66	0.987	0.8750442699722639	
15.665	0.979	0.921057301727978	
15.67	1.327	0.9777892015528503	
15.675	1.417	1.0516081107541315	
15.68	1.274	1.141876271712198	
15.685	1.337	1.2279529235343847	
15.69	1.304	1.2838459232067962	
15.695	0.988	1.2962127999211406	
15.7	0.994	1.2654537514651834	
15.705	1.106	1.2080710402599057	
15.71	0.783	1.1339927085080892	
15.715	0.554	1.0381657190784994	
15.72	0.709	0.9267239615676457	
15.725	0.512	0.8095001674501022	
15.73	0.243	0.6899929673125365	
15.735	0.327	0.5729850418827176	
15.74	0.314	0.4637591335289041	
15.745	0.156	0.36934648768053757	
15.75	0.203	0.29855748929214665	
15.755	0.379	0.25494212559697493	
15.76	0.166	0.23103463487550105	
15.765	-0.002	0.2113096964281937	
15.77	0.229	0.18659940809175096	
15.775	0.241	0.16644508096558455	
15.78	0.139	0.163187708204788	
15.785	0.345	0.17794894465313138	
15.79	0.379	0.20658814733460767	
15.795	0.072	0.23046623015404985	
15.8	0.101	0.23359016923877346	
15.805	0.259	0.21971334138098292	
15.81	0.047	0.19610240221169584	
15.815	-0.048	0.16349595422650165	
15.82	0.056	0.12440128316490477	
15.825	-0.068	0.07636201970240242	
15.83	-0.226	0.022413635443751675	
15.835	-0.145	-0.032150613492771526	
15.84	-0.063	-0.08159412817599959	
15.845	-0.167	-0.11728493758381245	
15.85	-0.196	-0.13431925438445577	
15.855	-0.119	-0.14754978818027217	
15.86	-0.210	-0.16282579039515832	
15.865	-0.210	-0.17327744756369887	
15.87	-0.017	-0.17076107491489767	
15.875	0.212	-0.14471852568749113	
15.88	0.264	-0.07632095345588827	
15.885	0.440	0.03185455825645959	
15.89	0.221	0.14115270088606938	
15.895	-0.251	0.1917285783801898	
15.9	-0.431	0.15374228694969128	
15.905	-0.472	0.03628411131547695	
15.91	-0.549	-0.12384110027347221	
15.915	-0.478	-0.272107996620339	
15.92	-0.265	-0.3717813305033736	
15.925	-0.248	-0.4148020591381808	
15.93	-0.297	-0.4102578337978813	
15.935	-0.132	-0.37113102597717257	
15.94	-0.009	-0.3108773184234763	
15.945	-0.112	-0.24216240738450745	
15.95	-0.086	-0.17216070127546365	
15.955	0.047	-0.1157639064162044	
15.96	-0.045	-0.07387090369097891	
15.965	-0.071	-0.04308771239754178	
15.97	0.096	-0.0198460634558607	
15.975	0.078	0.0001217489188410067	
15.98	-0.023	0.01877318382145304	
15.985	0.145	0.0378824135060458	
15.99	0.288	0.0650625239845498	
15.995	0.134	0.09985746476329238	
16.0	0.189	0.13889875586014655	
16.005	0.486	0.18019686021960266	
16.01	0.400	0.2331316306762459	
16.015	0.357	0.2939953435176634	
16.02	0.544	0.3511014343361897	
16.025	0.501	0.39904537114547667	
16.03	0.386	0.43586987801081367	
16.035	0.513	0.46289135030669754	
16.04	0.495	0.47591632258238564	
16.045	0.195	0.46889270734778454	
16.05	0.218	0.43398753455147854	
16.055	0.243	0.37906217378858703	
16.06	-0.054	0.30608423036594645	
16.065	-0.139	0.21612452707546745	
16.07	-0.060	0.118049534289476	
16.075	-0.153	0.023974878717368767	
16.08	-0.254	-0.05698601566665694	
16.085	-0.164	-0.11809374183596467	
16.09	-0.158	-0.163194184899772	
16.095	-0.257	-0.19299037300388047	
16.1	-0.177	-0.20691362037654137	
16.105	-0.112	-0.20706210131865993	
16.11	-0.240	-0.2049015416879043	
16.115	-0.213	-0.20074380069723116	
16.12	-0.081	-0.19202222563961532	
16.125	-0.121	-0.17909938520560054	
16.13	-0.210	-0.1669010223439535	
16.135	-0.118	-0.15411103532702636	
16.14	-0.075	-0.14528313952705108	
16.145	-0.228	-0.14194902729895717	
16.15	-0.179	-0.14189617652486458	
16.155	-0.072	-0.14412913542615152	
16.16	-0.217	-0.14987877871887845	
16.165	-0.324	-0.16070953107136443	
16.17	-0.223	-0.18308903866978302	
16.175	-0.200	-0.2091060895063042	
16.18	-0.275	-0.2268211933049023	
16.185	-0.214	-0.23212366216681232	
16.19	-0.210	-0.2363453378562641	
16.195	-0.352	-0.24491126840574073	
16.2	-0.294	-0.2538487915890264	
16.205	-0.203	-0.26317938681497977	
16.21	-0.303	-0.27090233508802974	
16.215	-0.284	-0.27363510911974775	
16.22	-0.055	-0.26205969917069166	
16.225	0.099	-0.22715260227590173	
16.23	0.073	-0.15879837988653883	
16.235	0.122	-0.07407154356165063	
16.24	-0.145	-0.012427155734260347	
16.245	-0.483	-0.014017944946502358	
16.25	-0.608	-0.0868194281190605	
16.255	-0.576	-0.21016017731731804	
16.26	-0.593	-0.3469662422019363	
16.265	-0.500	-0.45158392674747	
16.27	-0.324	-0.5039475352139968	
16.275	-0.317	-0.5092281053803024	
16.28	-0.338	-0.47888504198184784	
16.285	-0.174	-0.42393851711083663	
16.29	-0.129	-0.35835228466722435	
16.295	-0.182	-0.2931078801417356	
16.3	-0.074	-0.22773638358578466	
16.305	0.107	-0.16202090082502765	
16.31	-0.064	-0.10312238618359429	
16.315	-0.101	-0.05771711840609376	
16.32	0.211	-0.02281181319250769	
16.325	0.159	0.01476218630532354	
16.33	-0.025	0.052940160419347154	
16.335	0.224	0.0831208670765026	
16.34	0.314	0.11475890448872333	
16.345	0.117	0.14879136973989598	
16.35	0.230	0.1792173451010555	
16.355	0.487	0.2120768468366903	
16.36	0.351	0.25489736268134244	
16.365	0.313	0.30023459912430434	
16.37	0.516	0.34017951233291643	
16.375	0.586	0.38179066743413614	
16.38	0.469	0.4299745087139591	
16.385	0.563	0.47608622509832366	
16.39	0.475	0.5046922478681979	
16.395	0.212	0.49981830557521195	
16.4	0.195	0.46123197512649894	
16.405	0.244	0.3979899877246108	
16.41	-0.019	0.31789351706386415	
16.415	-0.110	0.22630767585094752	
16.42	-0.026	0.132139705403599	
16.425	-0.164	0.04075023445337701	
16.43	-0.303	-0.04296111273328171	
16.435	-0.177	-0.11390297415345786	
16.44	-0.144	-0.16731966123734882	
16.445	-0.277	-0.20109553022467247	
16.45	-0.228	-0.21873513847852835	
16.455	-0.113	-0.224064550026268	
16.46	-0.222	-0.22306685943462673	
16.465	-0.210	-0.21363623637742724	
16.47	-0.037	-0.19691748548032162	
16.475	-0.092	-0.1752658133509875	
16.48	-0.205	-0.15190589410125174	
16.485	-0.133	-0.13694897301738762	
16.49	-0.133	-0.13439457849403658	
16.495	-0.237	-0.14205507562034655	
16.5	-0.182	-0.1507105011161537	
16.505	-0.121	-0.15912800967167257	
16.51	-0.239	-0.17107268827308017	
16.515	-0.252	-0.18158708383141486	
16.52	-0.184	-0.1919411576498508	
16.525	-0.298	-0.20931576838139634	
16.53	-0.361	-0.23288113838186925	
16.535	-0.210	-0.25189508743941547	
16.54	-0.173	-0.26139530061279015	
16.545	-0.304	-0.262088311590454	
16.55	-0.266	-0.25669284789916924	
16.555	-0.203	-0.25409387540325823	
16.56	-0.324	-0.2571161920320637	
16.565	-0.317	-0.2626141922329147	
16.57	-0.031	-0.2588646795563253	
16.575	0.181	-0.22327361765245285	
16.58	0.097	-0.14590528667982744	
16.585	0.099	-0.052888976731869944	
16.59	-0.155	0.006552824774648023	
16.595	-0.491	-0.002201247059559795	
16.6	-0.567	-0.07968163365398329	
16.605	-0.527	-0.20104512095894778	
16.61	-0.576	-0.3311698412594787	
16.615	-0.530	-0.43258091240304797	
16.62	-0.338	-0.49075743239354347	
16.625	-0.297	-0.5023554050080652	
16.63	-0.284	-0.4729852623133406	
16.635	-0.098	-0.40973018416771645	
16.64	-0.046	-0.33037482461087575	
16.645	-0.121	-0.24830210886190937	
16.65	0.001	-0.17059290714003267	
16.655	0.181	-0.09692625413771253	
16.66	-0.034	-0.0333348293276426	
16.665	-0.083	0.00831780377451472	
16.67	0.215	0.032363668324304484	
16.675	0.249	0.0596081882352055	
16.68	0.088	0.09888711529625505	
16.685	0.308	0.13933357562823845	
16.69	0.365	0.18066603156252858	
16.695	0.235	0.22162425627943258	
16.7	0.438	0.2654355983511847	
16.705	0.651	0.32012558353984566	
16.71	0.537	0.3866415879417457	
16.715	0.554	0.45634468887559027	
16.72	0.799	0.5233800423818546	
16.725	0.675	0.5845465888949721	
16.73	0.524	0.6288829414563402	
16.735	0.745	0.6553535712587597	
16.74	0.709	0.6696320064592192	
16.745	0.319	0.6636211451305359	
16.75	0.250	0.617405170919215	
16.755	0.292	0.533039527597946	
16.76	-0.038	0.4236825791048902	
16.765	-0.116	0.2994006940436169	
16.77	0.042	0.17628162173385398	
16.775	-0.071	0.0735858741267515	
16.78	-0.190	-0.004945197673765006	
16.785	-0.112	-0.06274172480471148	
16.79	-0.141	-0.10746802603710091	
16.795	-0.234	-0.1431629546116847	
16.8	-0.187	-0.16554176860907638	
16.805	-0.115	-0.1781393721616325	
16.81	-0.216	-0.18721381843516938	
16.815	-0.214	-0.18845658506106355	
16.82	-0.107	-0.1858977801691174	
16.825	-0.144	-0.18147212894207154	
16.83	-0.220	-0.1747818636847263	
16.835	-0.107	-0.16580622793615482	
16.84	-0.113	-0.15859897882780594	
16.845	-0.242	-0.15605238514770953	
16.85	-0.190	-0.15750892282213622	
16.855	-0.097	-0.16127664910049894	
16.86	-0.199	-0.16617367556965368	
16.865	-0.232	-0.16835657080704586	
16.87	-0.161	-0.17300107436653422	
16.875	-0.257	-0.18552207114287278	
16.88	-0.333	-0.2046720699936166	
16.885	-0.214	-0.22282377598576816	
16.89	-0.197	-0.23868110018994862	
16.895	-0.318	-0.24797701220838883	
16.9	-0.269	-0.2534606846859482	
16.905	-0.216	-0.25736639378538406	
16.91	-0.310	-0.26417504254600477	
16.915	-0.269	-0.267274790815456	
16.92	-0.013	-0.2550184012973278	
16.925	0.198	-0.2115292155254928	
16.93	0.177	-0.12557835663790465	
16.935	0.183	-0.0208297885935705	
16.94	-0.182	0.04817534132995556	
16.945	-0.523	0.03696280787117122	
16.95	-0.595	-0.05442254699830091	
16.955	-0.572	-0.1933868681770682	
16.96	-0.643	-0.34220954203869053	
16.965	-0.549	-0.4602058435131269	
16.97	-0.324	-0.524950158104892	
16.975	-0.275	-0.5325874930180412	
16.98	-0.257	-0.49062401449070314	
16.985	-0.089	-0.4147332407881089	
16.99	0.000	-0.32374430447926184	
16.995	-0.092	-0.23105550717715015	
17.0	-0.026	-0.1473826990413852	
17.005	0.192	-0.07633239181513199	
17.01	0.015	-0.016291325242412814	
17.015	0.001	0.030723486310643998	
17.02	0.252	0.06306998138810416	
17.025	0.295	0.09937260119787641	
17.03	0.256	0.14933892123246015	
17.035	0.501	0.21230926370997155	
17.04	0.544	0.2842377458044203	
17.045	0.398	0.35491544935458846	
17.05	0.589	0.418670657544851	
17.055	0.779	0.48166345311705117	
17.06	0.646	0.5476799194368693	
17.065	0.654	0.606777481091133	
17.07	0.967	0.6630611436785134	
17.075	0.857	0.7213221025320765	
17.08	0.672	0.7713706000425556	
17.085	0.790	0.7972654600465858	
17.09	0.796	0.8001611286804293	
17.095	0.508	0.7840084365390005	
17.1	0.432	0.739672971544401	
17.105	0.389	0.6634873347850814	
17.11	0.024	0.5547362302030923	
17.115	-0.090	0.4179096441604978	
17.12	-0.040	0.26789184520118126	
17.125	-0.130	0.12628803843001513	
17.13	-0.226	0.00863052096514341	
17.135	-0.162	-0.08077594602115522	
17.14	-0.159	-0.14501256603326523	
17.145	-0.248	-0.18677754752266468	
17.15	-0.211	-0.20720808491619	
17.155	-0.182	-0.21873429911856482	
17.16	-0.257	-0.22719939022585242	
17.165	-0.222	-0.2288579774505711	
17.17	-0.100	-0.221267482144526	
17.175	-0.187	-0.20985224123980384	
17.18	-0.280	-0.20018046052865665	
17.185	-0.129	-0.1937973075088732	
17.19	-0.054	-0.18521402929174877	
17.195	-0.174	-0.1686618451726949	
17.2	-0.122	-0.14910326870248036	
17.205	-0.046	-0.13293173844873002	
17.21	-0.197	-0.12520030101451296	
17.215	-0.251	-0.12568150977917975	
17.22	-0.150	-0.14040843504754474	
17.225	-0.225	-0.161971558066892	
17.23	-0.309	-0.18395740408667427	
17.235	-0.257	-0.20679656708055066	
17.24	-0.211	-0.23145567637741252	
17.245	-0.272	-0.24652524755798588	
17.25	-0.217	-0.24891170148238964	
17.255	-0.155	-0.24416484340400801	
17.26	-0.268	-0.238255850786737	
17.265	-0.219	-0.2293905990719147	
17.27	0.088	-0.2094826170020298	
17.275	0.288	-0.15416833539373487	
17.28	0.334	-0.0516860962658177	
17.285	0.295	0.07029339778173177	
17.29	-0.153	0.1491506944179111	
17.295	-0.530	0.1334440884536306	
17.3	-0.647	0.020326055152473498	
17.305	-0.605	-0.15237531262646858	
17.31	-0.650	-0.32937639752113473	
17.315	-0.582	-0.46604324748491915	
17.32	-0.399	-0.547490366103814	
17.325	-0.324	-0.5704797234285741	
17.33	1.081	-0.4734304156015184	
17.335	3.008	-0.1102083775735618	
17.34	2.991	0.5492128016149348	
17.345	2.989	1.3242973912010871	
17.35	2.989	2.017253381470309	
17.355	2.991	2.5356131732065585	
17.36	2.991	2.871542155230527	
17.365	2.997	3.06167211692345	
17.37	3.005	3.1454392144842553	
17.375	3.009	3.1557642466059255	
17.38	3.014	3.135299962586284	
17.385	3.016	3.1062158717258566	
17.39	3.019	3.0723465641793326	
17.395	3.025	3.0436177190876297	
17.4	3.026	3.030100677334022	
17.405	3.028	3.0217099377719476	
17.41	3.031	3.0158904099110746	
17.415	3.034	3.0185748921518716	
17.42	3.032	3.0243585548614234	
17.425	3.037	3.0240033747183626	
