Vernier Format 2
ecg1.txt 10/18/2025 8:46:43
Run 1
Time	Potential	EKG	
T	P	E	
s	mV	mV	

0.000	-0.176	-0.008	
0.005	-0.061	-0.030	
0.010	0.099	-0.044	
0.015	-0.181	-0.045	
0.020	-0.164	-0.057	
0.025	0.122	-0.070	
0.030	-0.005	-0.060	
0.035	-0.142	-0.045	
0.040	0.154	-0.036	
0.045	0.088	-0.013	
0.050	-0.182	0.007	
0.055	-0.060	0.001	
0.060	0.139	-0.010	
0.065	-0.110	-0.009	
0.070	-0.097	-0.015	
0.075	0.191	-0.020	
0.080	-0.052	-0.008	
0.085	-0.193	-0.006	
0.090	0.027	-0.023	
0.095	0.072	-0.030	
0.100	-0.167	-0.028	
0.105	-0.040	-0.035	
0.110	0.067	-0.041	
0.115	-0.181	-0.040	
0.120	-0.115	-0.051	
0.125	0.068	-0.063	
0.130	-0.109	-0.061	
0.135	-0.182	-0.064	
0.140	0.017	-0.075	
0.145	-0.058	-0.076	
0.150	-0.228	-0.078	
0.155	-0.077	-0.091	
0.160	0.056	-0.096	
0.165	-0.164	-0.087	
0.170	-0.136	-0.085	
0.175	0.105	-0.084	
0.180	-0.093	-0.068	
0.185	-0.199	-0.061	
0.190	0.036	-0.067	
0.195	0.055	-0.061	
0.200	-0.152	-0.047	
0.205	0.122	-0.037	
0.210	0.337	-0.006	
0.215	-0.078	0.044	
0.220	-0.057	0.066	
0.225	0.232	0.067	
0.230	-0.038	0.072	
0.235	-0.138	0.062	
0.240	0.090	0.035	
0.245	0.015	0.018	
0.250	-0.211	0.002	
0.255	-0.074	-0.028	
0.260	0.044	-0.052	
0.265	-0.162	-0.062	
0.270	-0.126	-0.073	
0.275	0.238	-0.074	
0.280	-0.029	-0.045	
0.285	-0.171	-0.023	
0.290	0.062	-0.022	
0.295	0.009	-0.019	
0.300	-0.199	-0.020	
0.305	-0.092	-0.038	
0.310	0.072	-0.055	
0.315	-0.191	-0.059	
0.320	-0.194	-0.074	
0.325	0.075	-0.091	
0.330	-0.016	-0.085	
0.335	-0.161	-0.072	
0.340	0.029	-0.067	
0.345	0.009	-0.056	
0.350	-0.208	-0.048	
0.355	-0.098	-0.058	
0.360	0.026	-0.070	
0.365	-0.194	-0.074	
0.370	-0.170	-0.087	
0.375	0.065	-0.099	
0.380	-0.115	-0.094	
0.385	-0.197	-0.090	
0.390	0.004	-0.095	
0.395	-0.032	-0.091	
0.400	-0.126	-0.080	
0.405	0.055	-0.071	
0.410	0.143	-0.047	
0.415	-0.142	-0.018	
0.420	-0.130	-0.012	
0.425	0.119	-0.021	
0.430	-0.048	-0.018	
0.435	-0.164	-0.020	
0.440	0.082	-0.031	
0.445	0.020	-0.029	
0.450	-0.207	-0.027	
0.455	-0.042	-0.041	
0.460	0.148	-0.047	
0.465	-0.133	-0.036	
0.470	-0.098	-0.033	
0.475	0.224	-0.031	
0.480	0.035	-0.006	
0.485	-0.129	0.015	
0.490	0.061	0.015	
0.495	-0.009	0.011	
0.500	-0.193	0.001	
0.505	-0.026	-0.024	
0.510	0.073	-0.040	
0.515	-0.196	-0.044	
0.520	-0.159	-0.060	
0.525	0.068	-0.077	
0.530	-0.124	-0.078	
0.535	-0.184	-0.081	
0.540	0.174	-0.082	
0.545	0.047	-0.058	
0.550	-0.202	-0.032	
0.555	-0.084	-0.034	
0.560	0.027	-0.044	
0.565	-0.184	-0.051	
0.570	-0.147	-0.068	
0.575	0.073	-0.082	
0.580	-0.077	-0.077	
0.585	-0.156	-0.072	
0.590	0.113	-0.068	
0.595	0.078	-0.047	
0.600	-0.129	-0.022	
0.605	0.099	-0.009	
0.610	0.186	0.011	
0.615	-0.129	0.034	
0.620	-0.124	0.031	
0.625	0.131	0.012	
0.630	-0.093	0.002	
0.635	-0.196	-0.014	
0.640	0.013	-0.042	
0.645	-0.045	-0.057	
0.650	-0.214	-0.068	
0.655	-0.077	-0.086	
0.660	0.081	-0.092	
0.665	-0.171	-0.082	
0.670	-0.132	-0.080	
0.675	0.119	-0.079	
0.680	-0.107	-0.064	
0.685	-0.199	-0.058	
0.690	0.020	-0.067	
0.695	-0.040	-0.068	
0.700	-0.242	-0.070	
0.705	-0.110	-0.087	
0.710	0.041	-0.099	
0.715	-0.200	-0.097	
0.720	-0.138	-0.101	
0.725	0.094	-0.102	
0.730	-0.167	-0.089	
0.735	-0.255	-0.089	
0.740	-0.003	-0.104	
0.745	-0.031	-0.106	
0.750	-0.245	-0.101	
0.755	-0.075	-0.108	
0.760	0.101	-0.105	
0.765	-0.190	-0.087	
0.770	-0.168	-0.083	
0.775	0.076	-0.086	
0.780	-0.095	-0.077	
0.785	-0.194	-0.073	
0.790	0.015	-0.079	
0.795	-0.045	-0.077	
0.800	-0.240	-0.076	
0.805	-0.092	-0.090	
0.810	0.039	-0.098	
0.815	-0.089	-0.089	
0.820	-0.064	-0.077	
0.825	0.236	-0.056	
0.830	-0.063	-0.020	
0.835	-0.211	-0.003	
0.840	0.038	-0.014	
0.845	0.067	-0.021	
0.850	-0.173	-0.020	
0.855	0.012	-0.028	
0.860	0.133	-0.028	
0.865	-0.142	-0.016	
0.870	-0.103	-0.019	
0.875	0.125	-0.028	
0.880	-0.112	-0.025	
0.885	-0.159	-0.031	
0.890	0.079	-0.044	
0.895	-0.038	-0.045	
0.900	-0.254	-0.048	
0.905	-0.113	-0.071	
0.910	-0.013	-0.092	
0.915	-0.208	-0.102	
0.920	-0.162	-0.115	
0.925	0.099	-0.120	
0.930	-0.126	-0.105	
0.935	-0.226	-0.095	
0.940	0.009	-0.099	
0.945	-0.042	-0.094	
0.950	-0.242	-0.089	
0.955	-0.116	-0.100	
0.960	-0.016	-0.109	
0.965	-0.246	-0.112	
0.970	-0.190	-0.125	
0.975	0.055	-0.134	
0.980	-0.089	-0.122	
0.985	-0.145	-0.106	
0.990	0.127	-0.090	
0.995	0.091	-0.057	
1.000	-0.142	-0.022	
1.005	0.030	-0.008	
1.010	0.159	0.003	
1.015	-0.152	0.018	
1.020	-0.148	0.008	
1.025	0.067	-0.016	
1.030	-0.116	-0.031	
1.035	-0.196	-0.049	
1.040	0.023	-0.071	
1.045	-0.017	-0.077	
1.050	-0.207	-0.076	
1.055	-0.090	-0.085	
1.060	0.067	-0.089	
1.065	-0.174	-0.080	
1.070	-0.129	-0.080	
1.075	0.090	-0.081	
1.080	-0.130	-0.070	
1.085	-0.213	-0.070	
1.090	0.094	-0.078	
1.095	-0.006	-0.069	
1.100	-0.236	-0.059	
1.105	-0.101	-0.070	
1.110	0.070	-0.079	
1.115	-0.199	-0.077	
1.120	-0.142	-0.083	
1.125	0.113	-0.088	
1.130	-0.071	-0.073	
1.135	-0.199	-0.063	
1.140	0.009	-0.068	
1.145	-0.038	-0.068	
1.150	-0.236	-0.069	
1.155	-0.093	-0.085	
1.160	0.073	-0.093	
1.165	-0.139	-0.084	
1.170	-0.124	-0.079	
1.175	0.111	-0.075	
1.180	-0.093	-0.059	
1.185	-0.174	-0.052	
1.190	0.088	-0.055	
1.195	-0.002	-0.046	
1.200	-0.203	-0.039	
1.205	-0.022	-0.048	
1.210	0.116	-0.050	
1.215	-0.165	-0.039	
1.220	-0.126	-0.043	
1.225	0.218	-0.046	
1.230	-0.022	-0.025	
1.235	-0.136	-0.009	
1.240	0.166	-0.005	
1.245	0.064	0.010	
1.250	-0.179	0.021	
1.255	0.017	0.009	
1.260	0.128	0.001	
1.265	-0.174	0.002	
1.270	-0.074	-0.012	
1.275	0.211	-0.022	
1.280	-0.081	-0.010	
1.285	-0.168	-0.008	
1.290	0.094	-0.021	
1.295	-0.023	-0.023	
1.300	-0.225	-0.028	
1.305	-0.013	-0.048	
1.310	0.166	-0.053	
1.315	-0.162	-0.038	
1.320	-0.150	-0.038	
1.325	0.068	-0.049	
1.330	-0.116	-0.052	
1.335	-0.173	-0.059	
1.340	0.079	-0.069	
1.345	-0.023	-0.063	
1.350	-0.181	-0.055	
1.355	-0.009	-0.060	
1.360	0.174	-0.052	
1.365	-0.092	-0.027	
1.370	-0.035	-0.012	
1.375	0.246	0.001	
1.380	0.018	0.030	
1.385	-0.097	0.047	
1.390	0.244	0.050	
1.395	0.156	0.067	
1.400	-0.136	0.083	
1.405	0.033	0.071	
1.410	0.128	0.055	
1.415	-0.164	0.043	
1.420	-0.104	0.015	
1.425	0.146	-0.012	
1.430	-0.038	-0.016	
1.435	-0.138	-0.018	
1.440	0.087	-0.026	
1.445	0.110	-0.019	
1.450	-0.145	-0.004	
1.455	-0.016	-0.005	
1.460	0.061	-0.010	
1.465	-0.147	-0.013	
1.470	-0.116	-0.028	
1.475	0.120	-0.042	
1.480	-0.087	-0.039	
1.485	-0.156	-0.041	
1.490	0.113	-0.047	
1.495	0.039	-0.036	
1.500	-0.148	-0.023	
1.505	-0.020	-0.024	
1.510	0.046	-0.027	
1.515	-0.213	-0.030	
1.520	-0.145	-0.050	
1.525	0.105	-0.069	
1.530	-0.113	-0.068	
1.535	-0.202	-0.070	
1.540	0.015	-0.081	
1.545	-0.025	-0.081	
1.550	-0.167	-0.075	
1.555	0.024	-0.074	
1.560	0.127	-0.059	
1.565	-0.121	-0.034	
1.570	-0.072	-0.024	
1.575	0.168	-0.019	
1.580	-0.080	-0.005	
1.585	-0.190	-0.005	
1.590	0.078	-0.022	
1.595	0.061	-0.025	
1.600	-0.156	-0.020	
1.605	0.017	-0.025	
1.610	0.131	-0.022	
1.615	-0.136	-0.010	
1.620	-0.069	-0.012	
1.625	0.201	-0.014	
1.630	-0.031	0.001	
1.635	-0.126	0.009	
1.640	0.116	0.004	
1.645	0.053	0.008	
1.650	-0.161	0.011	
1.655	0.035	0.000	
1.660	0.177	-0.002	
1.665	-0.155	0.009	
1.670	-0.098	0.002	
1.675	0.180	-0.010	
1.680	-0.083	-0.006	
1.685	-0.173	-0.010	
1.690	0.072	-0.027	
1.695	-0.028	-0.032	
1.700	-0.208	-0.038	
1.705	-0.042	-0.056	
1.710	0.073	-0.065	
1.715	-0.190	-0.061	
1.720	-0.113	-0.067	
1.725	0.145	-0.070	
1.730	-0.106	-0.056	
1.735	-0.182	-0.050	
1.740	0.073	-0.056	
1.745	0.018	-0.049	
1.750	-0.176	-0.040	
1.755	0.001	-0.044	
1.760	0.186	-0.037	
1.765	-0.122	-0.015	
1.770	-0.040	-0.006	
1.775	0.327	0.005	
1.780	0.017	0.039	
1.785	-0.104	0.060	
1.790	0.143	0.057	
1.795	0.029	0.055	
1.800	-0.158	0.046	
1.805	0.072	0.023	
1.810	0.097	0.011	
1.815	-0.167	0.008	
1.820	-0.126	-0.012	
1.825	0.076	-0.035	
1.830	-0.116	-0.044	
1.835	-0.211	-0.057	
1.840	0.046	-0.076	
1.845	-0.013	-0.077	
1.850	-0.242	-0.074	
1.855	-0.074	-0.085	
1.860	0.105	-0.088	
1.865	-0.162	-0.074	
1.870	-0.142	-0.070	
1.875	0.128	-0.070	
1.880	-0.055	-0.055	
1.885	-0.164	-0.044	
1.890	0.042	-0.046	
1.895	-0.066	-0.045	
1.900	-0.245	-0.052	
1.905	-0.090	-0.075	
1.910	0.027	-0.091	
1.915	-0.190	-0.093	
1.920	-0.142	-0.099	
1.925	0.096	-0.102	
1.930	-0.109	-0.087	
1.935	-0.156	-0.076	
1.940	0.114	-0.071	
1.945	-0.020	-0.053	
1.950	-0.188	-0.040	
1.955	0.018	-0.043	
1.960	0.152	-0.037	
1.965	-0.161	-0.020	
1.970	-0.107	-0.020	
1.975	0.156	-0.027	
1.980	-0.081	-0.020	
1.985	-0.139	-0.019	
1.990	0.101	-0.027	
1.995	-0.051	-0.026	
2.000	-0.144	-0.027	
2.005	0.053	-0.036	
2.010	0.180	-0.027	
2.015	-0.100	-0.003	
2.020	-0.043	0.006	
2.025	0.227	0.012	
2.030	-0.054	0.029	
2.035	-0.119	0.032	
2.040	0.131	0.020	
2.045	0.010	0.018	
2.050	-0.165	0.013	
2.055	-0.037	-0.009	
2.060	0.062	-0.026	
2.065	-0.165	-0.033	
2.070	-0.119	-0.048	
2.075	0.149	-0.059	
2.080	-0.074	-0.048	
2.085	-0.162	-0.041	
2.090	0.124	-0.043	
2.095	0.017	-0.031	
2.100	-0.208	-0.022	
2.105	-0.023	-0.033	
2.110	0.116	-0.039	
2.115	-0.200	-0.034	
2.120	-0.124	-0.044	
2.125	0.125	-0.056	
2.130	-0.098	-0.050	
2.135	-0.199	-0.051	
2.140	0.084	-0.060	
2.145	0.036	-0.054	
2.150	-0.110	-0.039	
2.155	0.096	-0.028	
2.160	0.233	-0.003	
2.165	-0.113	0.030	
2.170	-0.011	0.041	
2.175	0.244	0.044	
2.180	-0.025	0.058	
2.185	-0.126	0.057	
2.190	0.128	0.040	
2.195	0.039	0.032	
2.200	-0.187	0.023	
2.205	0.007	-0.001	
2.210	0.171	-0.012	
2.215	-0.139	-0.006	
2.220	-0.104	-0.012	
2.225	0.140	-0.022	
2.230	-0.152	-0.022	
2.235	-0.202	-0.034	
2.240	0.029	-0.059	
2.245	-0.038	-0.068	
2.250	-0.217	-0.072	
2.255	-0.031	-0.085	
2.260	0.104	-0.083	
2.265	-0.164	-0.066	
2.270	-0.122	-0.062	
2.275	0.120	-0.062	
2.280	-0.075	-0.048	
2.285	-0.207	-0.043	
2.290	0.044	-0.054	
2.295	-0.031	-0.056	
2.300	-0.213	-0.057	
2.305	-0.074	-0.072	
2.310	0.064	-0.079	
2.315	-0.207	-0.075	
2.320	-0.158	-0.083	
2.325	0.061	-0.093	
2.330	-0.142	-0.089	
2.335	-0.203	-0.090	
2.340	0.047	-0.097	
2.345	-0.023	-0.089	
2.350	-0.161	-0.076	
2.355	0.020	-0.070	
2.360	0.101	-0.056	
2.365	-0.167	-0.036	
2.370	-0.121	-0.036	
2.375	0.159	-0.041	
2.380	-0.098	-0.031	
2.385	-0.177	-0.030	
2.390	0.124	-0.040	
2.395	0.029	-0.032	
2.400	-0.164	-0.022	
2.405	0.059	-0.024	
2.410	0.151	-0.016	
2.415	-0.129	0.002	
2.420	-0.038	0.004	
2.425	0.223	0.005	
2.430	-0.063	0.020	
2.435	-0.164	0.021	
2.440	0.091	0.004	
2.445	0.009	-0.004	
2.450	-0.190	-0.011	
2.455	0.038	-0.028	
2.460	0.139	-0.030	
2.465	-0.142	-0.017	
2.470	-0.095	-0.019	
2.475	0.117	-0.026	
2.480	-0.129	-0.025	
2.485	-0.176	-0.034	
2.490	0.059	-0.051	
2.495	-0.023	-0.054	
2.500	-0.199	-0.054	
2.505	-0.020	-0.065	
2.510	0.064	-0.066	
2.515	-0.202	-0.059	
2.520	-0.145	-0.067	
2.525	0.174	-0.073	
2.530	-0.098	-0.058	
2.535	-0.179	-0.049	
2.540	0.070	-0.053	
2.545	0.013	-0.047	
2.550	-0.155	-0.038	
2.555	0.072	-0.037	
2.560	0.218	-0.020	
2.565	-0.075	0.012	
2.570	-0.016	0.028	
2.575	0.195	0.035	
2.580	-0.071	0.046	
2.585	-0.152	0.038	
2.590	0.090	0.014	
2.595	0.020	0.002	
2.600	-0.185	-0.007	
2.605	-0.009	-0.027	
2.610	0.134	-0.035	
2.615	-0.129	-0.026	
2.620	-0.072	-0.026	
2.625	0.197	-0.025	
2.630	-0.092	-0.009	
2.635	-0.193	-0.008	
2.640	0.090	-0.024	
2.645	0.003	-0.028	
2.650	-0.190	-0.029	
2.655	-0.022	-0.042	
2.660	0.073	-0.049	
2.665	-0.199	-0.046	
2.670	-0.150	-0.058	
2.675	0.070	-0.073	
2.680	-0.084	-0.072	
2.685	-0.187	-0.071	
2.690	0.024	-0.077	
2.695	0.006	-0.072	
2.700	-0.205	-0.064	
2.705	-0.057	-0.070	
2.710	0.009	-0.074	
2.715	-0.222	-0.074	
2.720	-0.142	-0.087	
2.725	0.111	-0.096	
2.730	-0.129	-0.085	
2.735	-0.188	-0.079	
2.740	0.093	-0.081	
2.745	-0.002	-0.067	
2.750	-0.202	-0.053	
2.755	-0.049	-0.057	
2.760	0.018	-0.062	
2.765	-0.145	-0.060	
2.770	-0.090	-0.065	
2.775	0.200	-0.061	
2.780	-0.071	-0.037	
2.785	-0.153	-0.023	
2.790	0.125	-0.023	
2.795	0.026	-0.013	
2.800	-0.177	-0.006	
2.805	0.067	-0.014	
2.810	0.108	-0.012	
2.815	-0.181	-0.004	
2.820	-0.089	-0.015	
2.825	0.186	-0.026	
2.830	-0.103	-0.018	
2.835	-0.158	-0.019	
2.840	0.133	-0.029	
2.845	-0.008	-0.024	
2.850	-0.177	-0.020	
2.855	0.000	-0.031	
2.860	0.122	-0.033	
2.865	-0.171	-0.025	
2.870	-0.110	-0.032	
2.875	0.113	-0.042	
2.880	-0.119	-0.039	
2.885	-0.202	-0.046	
2.890	0.020	-0.064	
2.895	-0.068	-0.072	
2.900	-0.216	-0.078	
2.905	-0.016	-0.090	
2.910	0.070	-0.087	
2.915	-0.213	-0.074	
2.920	-0.136	-0.077	
2.925	0.099	-0.082	
2.930	-0.130	-0.072	
2.935	-0.185	-0.070	
2.940	0.203	-0.070	
2.945	0.104	-0.042	
2.950	-0.139	-0.008	
2.955	0.101	0.007	
2.960	0.244	0.027	
2.965	-0.115	0.054	
2.970	-0.086	0.054	
2.975	0.172	0.038	
2.980	-0.100	0.031	
2.985	-0.193	0.012	
2.990	0.127	-0.016	
2.995	0.046	-0.022	
3.000	-0.190	-0.020	
3.005	0.017	-0.030	
3.010	0.073	-0.033	
3.015	-0.187	-0.029	
3.020	-0.127	-0.042	
3.025	0.125	-0.055	
3.030	-0.126	-0.051	
3.035	-0.194	-0.055	
3.040	0.078	-0.067	
3.045	-0.028	-0.063	
3.050	-0.196	-0.058	
3.055	0.021	-0.063	
3.060	0.162	-0.053	
3.065	-0.170	-0.031	
3.070	-0.124	-0.028	
3.075	0.124	-0.035	
3.080	-0.104	-0.031	
3.085	-0.176	-0.035	
3.090	0.032	-0.051	
3.095	-0.043	-0.056	
3.100	-0.167	-0.058	
3.105	-0.045	-0.068	
3.110	0.018	-0.072	
3.115	-0.193	-0.069	
3.120	-0.103	-0.077	
3.125	0.169	-0.077	
3.130	-0.078	-0.056	
3.135	-0.155	-0.041	
3.140	0.113	-0.039	
3.145	0.007	-0.028	
3.150	-0.205	-0.020	
3.155	0.003	-0.031	
3.160	0.104	-0.035	
3.165	-0.184	-0.030	
3.170	-0.074	-0.037	
3.175	0.162	-0.041	
3.180	-0.074	-0.028	
3.185	-0.119	-0.021	
3.190	0.172	-0.020	
3.195	0.053	-0.003	
3.200	-0.135	0.012	
3.205	0.035	0.009	
3.210	0.133	0.009	
3.215	-0.097	0.017	
3.220	-0.025	0.014	
3.225	0.177	0.011	
3.230	-0.098	0.018	
3.235	-0.171	0.010	
3.240	0.134	-0.010	
3.245	-0.009	-0.014	
3.250	-0.210	-0.018	
3.255	0.001	-0.036	
3.260	0.070	-0.045	
3.265	-0.184	-0.043	
3.270	-0.126	-0.053	
3.275	0.183	-0.060	
3.280	-0.113	-0.047	
3.285	-0.202	-0.043	
3.290	0.036	-0.055	
3.295	-0.066	-0.060	
3.300	-0.214	-0.066	
3.305	-0.006	-0.079	
3.310	0.105	-0.077	
3.315	-0.194	-0.061	
3.320	-0.162	-0.063	
3.325	0.055	-0.073	
3.330	-0.126	-0.073	
3.335	-0.152	-0.076	
3.340	0.209	-0.073	
3.345	0.139	-0.040	
3.350	-0.138	0.000	
3.355	0.087	0.018	
3.360	0.140	0.031	
3.365	-0.173	0.041	
3.370	-0.101	0.024	
3.375	0.134	0.000	
3.380	-0.132	-0.010	
3.385	-0.185	-0.028	
3.390	0.130	-0.048	
3.395	0.027	-0.045	
3.400	-0.156	-0.034	
3.405	-0.008	-0.035	
3.410	0.029	-0.036	
3.415	-0.193	-0.037	
3.420	-0.133	-0.053	
3.425	0.110	-0.067	
3.430	-0.126	-0.063	
3.435	-0.152	-0.064	
3.440	0.099	-0.067	
3.445	-0.032	-0.056	
3.450	-0.203	-0.048	
3.455	-0.038	-0.057	
3.460	0.058	-0.061	
3.465	-0.196	-0.058	
3.470	-0.135	-0.067	
3.475	0.072	-0.077	
3.480	-0.199	-0.077	
3.485	-0.181	-0.086	
3.490	0.127	-0.094	
3.495	0.003	-0.078	
3.500	-0.200	-0.058	
3.505	-0.008	-0.057	
3.510	0.055	-0.053	
3.515	-0.171	-0.045	
3.520	-0.089	-0.050	
3.525	0.171	-0.051	
3.530	-0.103	-0.036	
3.535	-0.173	-0.031	
3.540	0.081	-0.040	
3.545	-0.035	-0.039	
3.550	-0.188	-0.040	
3.555	0.013	-0.051	
3.560	0.131	-0.049	
3.565	-0.159	-0.033	
3.570	-0.083	-0.032	
3.575	0.142	-0.034	
3.580	-0.089	-0.023	
3.585	-0.112	-0.021	
3.590	0.139	-0.024	
3.595	0.030	-0.012	
3.600	-0.136	-0.001	
3.605	0.049	-0.004	
3.610	0.151	0.000	
3.615	-0.132	0.012	
3.620	-0.042	0.009	
3.625	0.181	0.004	
3.630	-0.115	0.010	
3.635	-0.141	0.003	
3.640	0.178	-0.011	
3.645	-0.022	-0.007	
3.650	-0.208	-0.007	
3.655	-0.003	-0.026	
3.660	0.079	-0.037	
3.665	-0.187	-0.037	
3.670	-0.098	-0.048	
3.675	0.159	-0.055	
3.680	-0.087	-0.042	
3.685	-0.185	-0.037	
3.690	0.067	-0.046	
3.695	-0.005	-0.045	
3.700	-0.176	-0.041	
3.705	-0.022	-0.049	
3.710	0.068	-0.051	
3.715	-0.210	-0.047	
3.720	-0.126	-0.058	
3.725	0.204	-0.065	
3.730	-0.005	-0.043	
3.735	-0.068	-0.019	
3.740	0.241	0.001	
3.745	0.114	0.035	
3.750	-0.083	0.063	
3.755	0.102	0.068	
3.760	0.159	0.070	
3.765	-0.167	0.070	
3.770	-0.084	0.045	
3.775	0.120	0.015	
3.780	-0.129	-0.002	
3.785	-0.153	-0.023	
3.790	0.125	-0.043	
3.795	0.001	-0.041	
3.800	-0.219	-0.036	
3.805	0.039	-0.046	
3.810	0.146	-0.042	
3.815	-0.158	-0.024	
3.820	-0.119	-0.024	
3.825	0.127	-0.032	
3.830	-0.118	-0.029	
3.835	-0.190	-0.036	
3.840	0.053	-0.054	
3.845	-0.035	-0.058	
3.850	-0.222	-0.060	
3.855	0.021	-0.071	
3.860	0.124	-0.066	
3.865	-0.193	-0.048	
3.870	-0.116	-0.048	
3.875	0.113	-0.053	
3.880	-0.152	-0.048	
3.885	-0.207	-0.055	
3.890	0.079	-0.071	
3.895	-0.022	-0.068	
3.900	-0.208	-0.063	
3.905	-0.025	-0.070	
3.910	0.090	-0.068	
3.915	-0.147	-0.054	
3.920	-0.052	-0.049	
3.925	0.178	-0.041	
3.930	-0.100	-0.020	
3.935	-0.148	-0.014	
3.940	0.113	-0.021	
3.945	0.012	-0.017	
3.950	-0.155	-0.012	
3.955	0.018	-0.021	
3.960	0.104	-0.022	
3.965	-0.110	-0.013	
3.970	0.001	-0.012	
3.975	0.217	-0.004	
3.980	-0.077	0.017	
3.985	-0.161	0.020	
3.990	0.091	0.003	
3.995	0.030	-0.003	
4.000	-0.152	-0.005	
4.005	0.061	-0.015	
4.010	0.110	-0.014	
4.015	-0.129	-0.004	
4.020	0.010	-0.004	
4.025	0.278	0.004	
4.030	-0.074	0.030	
4.035	-0.161	0.036	
4.040	0.055	0.017	
4.045	-0.034	-0.000	
4.050	-0.181	-0.017	
4.055	-0.052	-0.043	
4.060	0.010	-0.060	
4.065	-0.196	-0.068	
4.070	-0.104	-0.082	
4.075	0.108	-0.087	
4.080	-0.129	-0.075	
4.085	-0.107	-0.066	
4.090	0.166	-0.058	
4.095	-0.019	-0.034	
4.100	-0.176	-0.018	
4.105	-0.051	-0.026	
4.110	0.024	-0.037	
4.115	-0.200	-0.045	
4.120	-0.080	-0.062	
4.125	0.235	-0.064	
4.130	0.012	-0.035	
4.135	-0.066	-0.005	
4.140	0.293	0.018	
4.145	0.194	0.059	
4.150	-0.119	0.095	
4.155	0.064	0.095	
4.160	0.169	0.086	
4.165	-0.174	0.076	
4.170	-0.071	0.046	
4.175	0.189	0.017	
4.180	-0.115	0.008	
4.185	-0.197	-0.009	
4.190	0.046	-0.037	
4.195	0.021	-0.048	
4.200	-0.145	-0.047	
4.205	0.081	-0.047	
4.210	0.145	-0.030	
4.215	-0.181	-0.008	
4.220	-0.115	-0.011	
4.225	0.136	-0.023	
4.230	-0.112	-0.023	
4.235	-0.173	-0.030	
4.240	0.038	-0.048	
4.245	-0.080	-0.056	
4.250	-0.260	-0.067	
4.255	-0.043	-0.090	
4.260	0.065	-0.097	
4.265	-0.193	-0.088	
4.270	-0.118	-0.087	
4.275	0.125	-0.085	
4.280	-0.122	-0.068	
4.285	-0.161	-0.060	
4.290	0.137	-0.059	
4.295	-0.058	-0.045	
4.300	-0.254	-0.041	
4.305	-0.060	-0.060	
4.310	0.064	-0.073	
4.315	-0.191	-0.071	
4.320	-0.086	-0.076	
4.325	0.148	-0.074	
4.330	-0.127	-0.056	
4.335	-0.181	-0.050	
4.340	0.183	-0.052	
4.345	0.073	-0.031	
4.350	-0.194	-0.009	
4.355	-0.028	-0.012	
4.360	0.079	-0.020	
4.365	-0.187	-0.022	
4.370	-0.135	-0.039	
4.375	0.185	-0.053	
4.380	-0.081	-0.043	
4.385	-0.126	-0.035	
4.390	0.166	-0.032	
4.395	-0.002	-0.015	
4.400	-0.153	-0.004	
4.405	0.061	-0.009	
4.410	0.136	-0.005	
4.415	-0.162	0.006	
4.420	-0.080	-0.002	
4.425	0.090	-0.017	
4.430	-0.133	-0.022	
4.435	-0.158	-0.036	
4.440	0.053	-0.055	
4.445	-0.057	-0.059	
4.450	-0.232	-0.063	
4.455	0.000	-0.078	
4.460	0.059	-0.079	
4.465	-0.156	-0.066	
4.470	-0.080	-0.063	
4.475	0.124	-0.059	
4.480	-0.138	-0.045	
4.485	-0.203	-0.046	
4.490	0.020	-0.062	
4.495	-0.077	-0.070	
4.500	-0.236	-0.078	
4.505	-0.040	-0.094	
4.510	0.053	-0.097	
4.515	-0.170	-0.086	
4.520	-0.060	-0.080	
4.525	0.226	-0.065	
4.530	-0.009	-0.029	
4.535	-0.052	0.002	
4.540	0.269	0.024	
4.545	0.073	0.056	
4.550	-0.188	0.072	
4.555	-0.032	0.051	
4.560	0.111	0.025	
4.565	-0.170	0.008	
4.570	-0.107	-0.017	
4.575	0.140	-0.037	
4.580	-0.115	-0.038	
4.585	-0.187	-0.044	
4.590	0.065	-0.058	
4.595	-0.042	-0.059	
4.600	-0.228	-0.060	
4.605	-0.043	-0.074	
4.610	0.062	-0.079	
4.615	-0.194	-0.072	
4.620	-0.124	-0.076	
4.625	0.152	-0.077	
4.630	-0.130	-0.061	
4.635	-0.200	-0.056	
4.640	0.120	-0.063	
4.645	-0.046	-0.054	
4.650	-0.229	-0.049	
4.655	-0.055	-0.064	
4.660	0.026	-0.074	
4.665	-0.188	-0.074	
4.670	-0.141	-0.083	
4.675	0.024	-0.093	
4.680	-0.141	-0.091	
4.685	-0.199	-0.095	
4.690	0.056	-0.101	
4.695	-0.066	-0.093	
4.700	-0.232	-0.086	
4.705	-0.034	-0.092	
4.710	0.140	-0.086	
4.715	-0.167	-0.063	
4.720	-0.113	-0.055	
4.725	0.090	-0.054	
4.730	-0.162	-0.049	
4.735	-0.167	-0.055	
4.740	0.116	-0.066	
4.745	-0.025	-0.057	
4.750	-0.164	-0.047	
4.755	0.055	-0.047	
4.760	0.149	-0.034	
4.765	-0.173	-0.013	
4.770	-0.081	-0.013	
4.775	0.120	-0.021	
4.780	-0.115	-0.018	
4.785	-0.147	-0.026	
4.790	0.090	-0.039	
4.795	-0.008	-0.038	
4.800	-0.159	-0.034	
4.805	0.059	-0.038	
4.810	0.139	-0.028	
4.815	-0.153	-0.010	
4.820	-0.106	-0.012	
4.825	0.094	-0.023	
4.830	-0.141	-0.027	
4.835	-0.153	-0.039	
4.840	0.097	-0.055	
4.845	-0.055	-0.053	
4.850	-0.211	-0.052	
4.855	0.001	-0.064	
4.860	0.033	-0.067	
4.865	-0.184	-0.061	
4.870	-0.081	-0.066	
4.875	0.146	-0.065	
4.880	-0.121	-0.049	
4.885	-0.171	-0.044	
4.890	0.093	-0.051	
4.895	-0.054	-0.046	
4.900	-0.202	-0.046	
4.905	0.006	-0.058	
4.910	0.041	-0.060	
4.915	-0.240	-0.057	
4.920	-0.116	-0.071	
4.925	0.220	-0.076	
4.930	-0.020	-0.051	
4.935	-0.054	-0.023	
4.940	0.322	0.004	
4.945	0.120	0.049	
4.950	-0.138	0.082	
4.955	0.078	0.079	
4.960	0.082	0.068	
4.965	-0.155	0.054	
4.970	-0.026	0.025	
4.975	0.168	0.005	
4.980	-0.135	0.002	
4.985	-0.187	-0.013	
4.990	0.017	-0.041	
4.995	-0.124	-0.060	
5.000	-0.222	-0.079	
5.005	0.033	-0.098	
5.010	0.082	-0.093	
5.015	-0.194	-0.073	
5.020	-0.107	-0.069	
5.025	0.090	-0.069	
5.030	-0.168	-0.061	
5.035	-0.185	-0.065	
5.040	0.108	-0.075	
5.045	-0.060	-0.068	
5.050	-0.232	-0.063	
5.055	-0.037	-0.075	
5.060	0.078	-0.077	
5.065	-0.217	-0.069	
5.070	-0.119	-0.074	
5.075	0.090	-0.080	
5.080	-0.153	-0.072	
5.085	-0.185	-0.074	
5.090	0.099	-0.080	
5.095	-0.043	-0.070	
5.100	-0.216	-0.062	
5.105	-0.035	-0.070	
5.110	0.050	-0.072	
5.115	-0.208	-0.066	
5.120	-0.104	-0.073	
5.125	0.082	-0.078	
5.130	-0.155	-0.071	
5.135	-0.156	-0.072	
5.140	0.084	-0.077	
5.145	0.010	-0.064	
5.150	-0.179	-0.049	
5.155	0.050	-0.047	
5.160	0.097	-0.036	
5.165	-0.170	-0.021	
5.170	-0.087	-0.024	
5.175	0.134	-0.032	
5.180	-0.115	-0.026	
5.185	-0.121	-0.029	
5.190	0.189	-0.032	
5.195	0.029	-0.015	
5.200	-0.197	-0.001	
5.205	0.046	-0.009	
5.210	0.175	-0.008	
5.215	-0.129	0.006	
5.220	-0.057	0.006	
5.225	0.159	0.001	
5.230	-0.097	0.005	
5.235	-0.153	-0.002	
5.240	0.152	-0.017	
5.245	-0.035	-0.015	
5.250	-0.222	-0.018	
5.255	-0.022	-0.040	
5.260	0.055	-0.052	
5.265	-0.214	-0.055	
5.270	-0.112	-0.068	
5.275	0.136	-0.076	
5.280	-0.136	-0.065	
5.285	-0.141	-0.060	
5.290	0.139	-0.060	
5.295	-0.055	-0.045	
5.300	-0.205	-0.037	
5.305	-0.013	-0.049	
5.310	-0.020	-0.057	
5.315	-0.245	-0.064	
5.320	-0.043	-0.081	
5.325	0.244	-0.079	
5.330	-0.046	-0.045	
5.335	-0.103	-0.017	
5.340	0.209	-0.003	
5.345	0.120	0.025	
5.350	-0.078	0.051	
5.355	0.177	0.061	
5.360	0.160	0.075	
5.365	-0.132	0.085	
5.370	-0.043	0.067	
5.375	0.154	0.043	
5.380	-0.142	0.029	
5.385	-0.182	0.002	
5.390	0.200	-0.025	
5.395	0.047	-0.022	
5.400	-0.170	-0.011	
5.405	0.113	-0.011	
5.410	0.127	-0.001	
5.415	-0.185	0.012	
5.420	-0.080	0.002	
5.425	0.143	-0.013	
5.430	-0.139	-0.015	
5.435	-0.122	-0.025	
5.440	0.204	-0.033	
5.445	0.020	-0.017	
5.450	-0.207	-0.005	
5.455	0.024	-0.014	
5.460	0.107	-0.019	
5.465	-0.173	-0.015	
5.470	-0.093	-0.025	
5.475	0.101	-0.038	
5.480	-0.155	-0.039	
5.485	-0.167	-0.050	
5.490	0.096	-0.064	
5.495	-0.051	-0.060	
5.500	-0.226	-0.058	
5.505	-0.032	-0.071	
5.510	0.036	-0.076	
5.515	-0.182	-0.071	
5.520	-0.002	-0.071	
5.525	0.188	-0.057	
5.530	-0.135	-0.029	
5.535	-0.150	-0.021	
5.540	0.152	-0.026	
5.545	-0.022	-0.017	
5.550	-0.171	-0.013	
5.555	0.035	-0.023	
5.560	0.053	-0.027	
5.565	-0.171	-0.025	
5.570	-0.066	-0.036	
5.575	0.163	-0.041	
5.580	-0.101	-0.029	
5.585	-0.129	-0.025	
5.590	0.142	-0.029	
5.595	-0.003	-0.018	
5.600	-0.179	-0.012	
5.605	0.062	-0.020	
5.610	0.122	-0.017	
5.615	-0.177	-0.007	
5.620	-0.049	-0.014	
5.625	0.201	-0.018	
5.630	-0.095	-0.005	
5.635	-0.129	-0.003	
5.640	0.163	-0.010	
5.645	-0.034	-0.004	
5.650	-0.216	-0.006	
5.655	0.007	-0.027	
5.660	0.047	-0.039	
5.665	-0.225	-0.044	
5.670	-0.141	-0.063	
5.675	0.094	-0.080	
5.680	-0.133	-0.077	
5.685	-0.129	-0.076	
5.690	0.203	-0.070	
5.695	-0.028	-0.042	
5.700	-0.220	-0.024	
5.705	-0.037	-0.034	
5.710	-0.005	-0.047	
5.715	-0.257	-0.058	
5.720	-0.161	-0.084	
5.725	0.075	-0.105	
5.730	-0.069	-0.099	
5.735	-0.064	-0.084	
5.740	0.299	-0.057	
5.745	0.105	-0.003	
5.750	-0.127	0.041	
5.755	0.125	0.055	
5.760	0.140	0.063	
5.765	-0.174	0.066	
5.770	-0.069	0.043	
5.775	0.111	0.014	
5.780	-0.165	-0.003	
5.785	-0.126	-0.027	
5.790	0.189	-0.044	
5.795	0.052	-0.030	
5.800	-0.187	-0.013	
5.805	-0.016	-0.018	
5.810	0.013	-0.026	
5.815	-0.219	-0.035	
5.820	-0.092	-0.057	
5.825	0.091	-0.071	
5.830	-0.136	-0.067	
5.835	-0.132	-0.067	
5.840	0.127	-0.068	
5.845	-0.060	-0.052	
5.850	-0.222	-0.045	
5.855	0.032	-0.055	
5.860	0.032	-0.056	
5.865	-0.208	-0.051	
5.870	-0.112	-0.062	
5.875	0.082	-0.072	
5.880	-0.177	-0.070	
5.885	-0.194	-0.077	
5.890	0.079	-0.089	
5.895	-0.052	-0.082	
5.900	-0.176	-0.073	
5.905	0.056	-0.071	
5.910	0.068	-0.057	
5.915	-0.222	-0.041	
5.920	-0.138	-0.049	
5.925	0.174	-0.059	
5.930	-0.107	-0.048	
5.935	-0.133	-0.042	
5.940	0.200	-0.039	
5.945	0.015	-0.018	
5.950	-0.133	0.001	
5.955	0.076	0.001	
5.960	0.036	0.004	
5.965	-0.181	0.003	
5.970	-0.072	-0.016	
5.975	0.162	-0.030	
5.980	-0.110	-0.025	
5.985	-0.122	-0.026	
5.990	0.178	-0.030	
5.995	0.010	-0.015	
6.000	-0.167	-0.004	
6.005	0.125	-0.006	
6.010	0.197	0.006	
6.015	-0.124	0.030	
6.020	-0.051	0.031	
6.025	0.116	0.021	
6.030	-0.148	0.013	
6.035	-0.197	-0.010	
6.040	0.072	-0.042	
6.045	-0.132	-0.058	
6.050	-0.280	-0.077	
6.055	-0.101	-0.109	
6.060	-0.084	-0.130	
6.065	-0.284	-0.143	
6.070	-0.190	-0.161	
6.075	-0.020	-0.172	
6.080	-0.245	-0.168	
6.085	-0.269	-0.170	
6.090	-0.087	-0.180	
6.095	-0.210	-0.182	
6.100	-0.332	-0.188	
6.105	-0.121	-0.202	
6.110	-0.127	-0.204	
6.115	-0.342	-0.201	
6.120	-0.232	-0.210	
6.125	-0.072	-0.216	
6.130	-0.260	-0.209	
6.135	-0.217	-0.204	
6.140	0.067	-0.193	
6.145	-0.051	-0.158	
6.150	-0.194	-0.122	
6.155	0.007	-0.102	
6.160	0.026	-0.080	
6.165	-0.234	-0.063	
6.170	-0.115	-0.068	
6.175	0.061	-0.077	
6.180	-0.194	-0.076	
6.185	-0.181	-0.085	
6.190	0.146	-0.092	
6.195	-0.046	-0.076	
6.200	-0.217	-0.061	
6.205	-0.011	-0.066	
6.210	-0.017	-0.067	
6.215	-0.203	-0.067	
6.220	-0.060	-0.077	
6.225	0.168	-0.075	
6.230	-0.121	-0.053	
6.235	-0.119	-0.041	
6.240	0.180	-0.036	
6.245	-0.038	-0.018	
6.250	-0.193	-0.009	
6.255	0.020	-0.022	
6.260	0.020	-0.031	
6.265	-0.179	-0.035	
6.270	-0.023	-0.047	
6.275	0.185	-0.046	
6.280	-0.144	-0.028	
6.285	-0.158	-0.026	
6.290	0.127	-0.035	
6.295	-0.029	-0.031	
6.300	-0.150	-0.026	
6.305	0.172	-0.027	
6.310	0.259	-0.001	
6.315	-0.135	0.038	
6.320	-0.022	0.048	
6.325	0.211	0.046	
6.330	-0.104	0.050	
6.335	-0.089	0.039	
6.340	0.246	0.024	
6.345	0.013	0.032	
6.350	-0.145	0.036	
6.355	0.206	0.028	
6.360	0.195	0.040	
6.365	-0.130	0.060	
6.370	0.096	0.060	
6.375	0.365	0.069	
6.380	-0.022	0.098	
6.385	-0.064	0.106	
6.390	0.263	0.095	
6.395	0.099	0.098	
6.400	-0.097	0.098	
6.405	0.235	0.087	
6.410	0.244	0.094	
6.415	-0.103	0.108	
6.420	0.068	0.101	
6.425	0.321	0.094	
6.430	-0.008	0.106	
6.435	-0.058	0.104	
6.440	0.307	0.092	
6.445	0.117	0.100	
6.450	-0.095	0.106	
6.455	0.175	0.094	
6.460	0.180	0.091	
6.465	-0.119	0.092	
6.470	0.009	0.073	
6.475	0.249	0.057	
6.480	-0.081	0.058	
6.485	-0.081	0.048	
6.490	0.244	0.035	
6.495	0.018	0.041	
6.500	-0.129	0.044	
6.505	0.140	0.032	
6.510	0.146	0.035	
6.515	-0.080	0.046	
6.520	0.053	0.044	
6.525	0.223	0.047	
6.530	-0.089	0.059	
6.535	-0.055	0.053	
6.540	0.330	0.047	
6.545	0.157	0.070	
6.550	-0.037	0.096	
6.555	0.308	0.110	
6.560	0.279	0.136	
6.565	-0.092	0.159	
6.570	0.053	0.148	
6.575	0.247	0.128	
6.580	-0.058	0.116	
6.585	-0.029	0.094	
6.590	0.307	0.075	
6.595	0.039	0.080	
6.600	-0.132	0.080	
6.605	0.172	0.062	
6.610	0.139	0.059	
6.615	-0.159	0.059	
6.620	0.003	0.041	
6.625	0.209	0.026	
6.630	-0.113	0.029	
6.635	-0.118	0.018	
6.640	0.168	0.002	
6.645	0.020	0.004	
6.650	-0.141	0.007	
6.655	0.096	0.000	
6.660	0.088	0.003	
6.665	-0.159	0.009	
6.670	-0.061	-0.003	
6.675	0.217	-0.012	
6.680	-0.098	-0.001	
6.685	-0.138	-0.001	
6.690	0.125	-0.012	
6.695	-0.083	-0.014	
6.700	-0.210	-0.024	
6.705	0.070	-0.044	
6.710	0.131	-0.043	
6.715	-0.168	-0.027	
6.720	-0.017	-0.025	
6.725	0.183	-0.020	
6.730	-0.126	-0.003	
6.735	-0.107	-0.003	
6.740	0.233	-0.007	
6.745	0.058	0.012	
6.750	-0.136	0.028	
6.755	0.067	0.025	
6.760	0.073	0.021	
6.765	-0.161	0.018	
6.770	-0.005	0.002	
6.775	0.209	-0.005	
6.780	-0.109	0.007	
6.785	-0.113	0.006	
6.790	0.180	-0.003	
6.795	-0.011	0.004	
6.800	-0.118	0.009	
6.805	0.195	0.007	
6.810	0.220	0.028	
6.815	-0.072	0.059	
6.820	0.072	0.070	
6.825	0.236	0.077	
6.830	-0.103	0.086	
6.835	-0.075	0.073	
6.840	0.220	0.052	
6.845	0.000	0.048	
6.850	-0.139	0.041	
6.855	0.120	0.023	
6.860	0.087	0.019	
6.865	-0.213	0.017	
6.870	-0.064	-0.006	
6.875	0.165	-0.024	
6.880	-0.136	-0.023	
6.885	-0.119	-0.028	
6.890	0.165	-0.035	
6.895	-0.086	-0.027	
6.900	-0.194	-0.027	
6.905	-0.005	-0.044	
6.910	0.036	-0.052	
6.915	-0.194	-0.052	
6.920	-0.063	-0.062	
6.925	0.114	-0.065	
6.930	-0.177	-0.055	
6.935	-0.177	-0.059	
6.940	0.157	-0.067	
6.945	0.024	-0.052	
6.950	-0.107	-0.030	
6.955	0.172	-0.015	
6.960	0.178	0.015	
6.965	-0.155	0.044	
6.970	0.010	0.045	
6.975	0.224	0.041	
6.980	-0.132	0.047	
6.985	-0.139	0.033	
6.990	0.148	0.008	
6.995	-0.109	-0.004	
7.000	-0.214	-0.022	
7.005	0.026	-0.050	
7.010	0.013	-0.062	
7.015	-0.223	-0.064	
7.020	-0.051	-0.076	
7.025	0.223	-0.072	
7.030	-0.142	-0.045	
7.035	-0.162	-0.034	
7.040	0.113	-0.039	
7.045	-0.086	-0.035	
7.050	-0.184	-0.038	
7.055	0.033	-0.052	
7.060	0.003	-0.054	
7.065	-0.225	-0.054	
7.070	-0.100	-0.069	
7.075	0.055	-0.081	
7.080	-0.152	-0.078	
7.085	-0.145	-0.081	
7.090	0.049	-0.085	
7.095	-0.087	-0.078	
7.100	-0.187	-0.074	
7.105	0.049	-0.078	
7.110	0.021	-0.068	
7.115	-0.214	-0.057	
7.120	-0.098	-0.064	
7.125	0.072	-0.071	
7.130	-0.184	-0.068	
7.135	-0.181	-0.076	
7.140	0.139	-0.085	
7.145	-0.016	-0.069	
7.150	-0.153	-0.051	
7.155	0.099	-0.043	
7.160	0.030	-0.028	
7.165	-0.177	-0.016	
7.170	-0.054	-0.025	
7.175	0.082	-0.034	
7.180	-0.136	-0.033	
7.185	-0.097	-0.040	
7.190	0.111	-0.046	
7.195	-0.083	-0.039	
7.200	-0.106	-0.035	
7.205	0.128	-0.035	
7.210	0.088	-0.017	
7.215	-0.162	0.001	
7.220	-0.043	-0.003	
7.225	0.201	-0.006	
7.230	-0.103	0.005	
7.235	-0.095	0.005	
7.240	0.198	-0.000	
7.245	-0.071	0.008	
7.250	-0.197	0.004	
7.255	0.084	-0.016	
7.260	0.079	-0.021	
7.265	-0.174	-0.016	
7.270	-0.043	-0.025	
7.275	0.143	-0.031	
7.280	-0.156	-0.023	
7.285	-0.145	-0.030	
7.290	0.137	-0.042	
7.295	-0.104	-0.039	
7.300	-0.173	-0.042	
7.305	0.105	-0.051	
7.310	0.026	-0.043	
7.315	-0.205	-0.034	
7.320	-0.078	-0.044	
7.325	0.039	-0.056	
7.330	-0.164	-0.059	
7.335	-0.139	-0.069	
7.340	0.178	-0.074	
7.345	-0.061	-0.055	
7.350	-0.129	-0.039	
7.355	0.168	-0.031	
7.360	0.143	-0.005	
7.365	-0.113	0.024	
7.370	0.072	0.034	
7.375	0.194	0.042	
7.380	-0.142	0.054	
7.385	-0.141	0.038	
7.390	0.174	0.012	
7.395	-0.029	0.005	
7.400	-0.174	-0.002	
7.405	0.075	-0.019	
7.410	0.079	-0.021	
7.415	-0.164	-0.015	
7.420	-0.035	-0.023	
7.425	0.101	-0.028	
7.430	-0.207	-0.028	
7.435	-0.135	-0.043	
7.440	0.165	-0.057	
7.445	-0.107	-0.049	
7.450	-0.207	-0.048	
7.455	0.061	-0.060	
7.460	0.036	-0.057	
7.465	-0.213	-0.049	
7.470	-0.058	-0.056	
7.475	0.102	-0.060	
7.480	-0.177	-0.052	
7.485	-0.122	-0.056	
7.490	0.119	-0.062	
7.495	-0.116	-0.053	
7.500	-0.193	-0.053	
7.505	0.023	-0.066	
7.510	-0.013	-0.067	
7.515	-0.210	-0.065	
7.520	-0.083	-0.076	
7.525	0.096	-0.080	
7.530	-0.168	-0.070	
7.535	-0.152	-0.070	
7.540	0.162	-0.072	
7.545	-0.068	-0.054	
7.550	-0.193	-0.044	
7.555	0.128	-0.045	
7.560	0.116	-0.029	
7.565	-0.188	-0.008	
7.570	-0.003	-0.009	
7.575	0.142	-0.010	
7.580	-0.124	-0.001	
7.585	-0.092	-0.006	
7.590	0.183	-0.013	
7.595	-0.002	-0.001	
7.600	-0.179	0.005	
7.605	0.079	-0.006	
7.610	0.136	-0.005	
7.615	-0.152	0.005	
7.620	-0.017	0.001	
7.625	0.223	0.001	
7.630	-0.097	0.016	
7.635	-0.078	0.018	
7.640	0.209	0.014	
7.645	-0.048	0.022	
7.650	-0.171	0.020	
7.655	0.070	0.000	
7.660	0.006	-0.011	
7.665	-0.193	-0.019	
7.670	-0.008	-0.038	
7.675	0.154	-0.042	
7.680	-0.164	-0.031	
7.685	-0.121	-0.033	
7.690	0.128	-0.041	
7.695	-0.103	-0.035	
7.700	-0.187	-0.039	
7.705	0.125	-0.049	
7.710	0.059	-0.040	
7.715	-0.214	-0.026	
7.720	-0.052	-0.034	
7.725	0.093	-0.042	
7.730	-0.179	-0.041	
7.735	-0.148	-0.051	
7.740	0.171	-0.061	
7.745	0.050	-0.044	
7.750	-0.097	-0.019	
7.755	0.183	-0.001	
7.760	0.175	0.028	
7.765	-0.113	0.057	
7.770	0.104	0.063	
7.775	0.273	0.071	
7.780	-0.107	0.087	
7.785	-0.077	0.078	
7.790	0.154	0.054	
7.795	-0.028	0.042	
7.800	-0.132	0.027	
7.805	0.163	0.008	
7.810	0.035	0.008	
7.815	-0.229	0.007	
7.820	-0.080	-0.018	
7.825	0.079	-0.042	
7.830	-0.200	-0.051	
7.835	-0.129	-0.067	
7.840	0.156	-0.076	
7.845	-0.110	-0.064	
7.850	-0.223	-0.059	
7.855	0.084	-0.068	
7.860	0.013	-0.061	
7.865	-0.248	-0.053	
7.870	-0.077	-0.065	
7.875	0.065	-0.075	
7.880	-0.184	-0.071	
7.885	-0.144	-0.077	
7.890	0.131	-0.081	
7.895	-0.141	-0.070	
7.900	-0.229	-0.068	
7.905	0.021	-0.082	
7.910	-0.038	-0.084	
7.915	-0.236	-0.083	
7.920	-0.086	-0.094	
7.925	0.044	-0.099	
7.930	-0.211	-0.093	
7.935	-0.165	-0.098	
7.940	0.070	-0.104	
7.945	-0.093	-0.093	
7.950	-0.136	-0.082	
7.955	0.177	-0.071	
7.960	0.038	-0.040	
7.965	-0.216	-0.016	
7.970	-0.061	-0.022	
7.975	0.151	-0.030	
7.980	-0.173	-0.025	
7.985	-0.136	-0.033	
7.990	0.101	-0.047	
7.995	-0.080	-0.046	
8.000	-0.177	-0.048	
8.005	0.122	-0.054	
8.010	0.053	-0.042	
8.015	-0.185	-0.026	
8.020	0.000	-0.028	
8.025	0.174	-0.025	
8.030	-0.078	-0.006	
8.035	-0.016	0.005	
8.040	0.252	0.015	
8.045	-0.045	0.038	
8.050	-0.176	0.042	
8.055	0.142	0.024	
8.060	0.047	0.018	
8.065	-0.208	0.013	
8.070	-0.069	-0.012	
8.075	0.087	-0.034	
8.080	-0.177	-0.042	
8.085	-0.129	-0.056	
8.090	0.163	-0.066	
8.095	-0.080	-0.053	
8.100	-0.202	-0.046	
8.105	0.108	-0.051	
8.110	0.134	-0.038	
8.115	-0.199	-0.016	
8.120	-0.048	-0.016	
8.125	0.163	-0.020	
8.130	-0.156	-0.012	
8.135	-0.122	-0.019	
8.140	0.127	-0.031	
8.145	-0.101	-0.030	
8.150	-0.179	-0.036	
8.155	0.134	-0.047	
8.160	0.119	-0.034	
8.165	-0.101	-0.009	
8.170	0.105	0.006	
8.175	0.311	0.032	
8.180	-0.101	0.067	
8.185	-0.029	0.076	
8.190	0.261	0.071	
8.195	-0.074	0.075	
8.200	-0.174	0.060	
8.205	0.114	0.027	
8.210	0.013	0.010	
8.215	-0.232	-0.005	
8.220	-0.052	-0.035	
8.225	0.073	-0.055	
8.230	-0.213	-0.060	
8.235	-0.119	-0.074	
8.240	0.128	-0.081	
8.245	-0.101	-0.069	
8.250	-0.165	-0.061	
8.255	0.157	-0.058	
8.260	0.047	-0.037	
8.265	-0.187	-0.017	
8.270	-0.017	-0.020	
8.275	0.110	-0.023	
8.280	-0.182	-0.019	
8.285	-0.141	-0.032	
8.290	0.093	-0.049	
8.295	-0.133	-0.053	
8.300	-0.213	-0.063	
8.305	0.027	-0.081	
8.310	-0.031	-0.083	
8.315	-0.194	-0.080	
8.320	-0.048	-0.085	
8.325	0.096	-0.081	
8.330	-0.144	-0.064	
8.335	-0.084	-0.056	
8.340	0.221	-0.047	
8.345	-0.040	-0.018	
8.350	-0.162	-0.002	
8.355	0.128	-0.005	
8.360	0.018	0.000	
8.365	-0.203	0.001	
8.370	-0.006	-0.017	
8.375	0.204	-0.024	
8.380	-0.147	-0.011	
8.385	-0.086	-0.010	
8.390	0.233	-0.012	
8.395	-0.042	0.005	
8.400	-0.165	0.012	
8.405	0.180	0.004	
8.410	0.113	0.014	
8.415	-0.155	0.027	
8.420	0.042	0.022	
8.425	0.252	0.024	
8.430	-0.087	0.041	
8.435	-0.037	0.044	
8.440	0.278	0.043	
8.445	-0.028	0.057	
8.450	-0.147	0.057	
8.455	0.142	0.038	
8.460	0.047	0.030	
8.465	-0.197	0.023	
8.470	-0.022	-0.002	
8.475	0.139	-0.019	
8.480	-0.179	-0.020	
8.485	-0.129	-0.033	
8.490	0.175	-0.045	
8.495	-0.075	-0.036	
8.500	-0.148	-0.031	
8.505	0.124	-0.034	
8.510	0.012	-0.024	
8.515	-0.208	-0.018	
8.520	-0.022	-0.031	
8.525	0.082	-0.039	
8.530	-0.207	-0.039	
8.535	-0.159	-0.055	
8.540	0.039	-0.074	
8.545	-0.127	-0.080	
8.550	-0.223	-0.088	
8.555	0.075	-0.099	
8.560	0.072	-0.086	
8.565	-0.155	-0.061	
8.570	0.058	-0.046	
8.575	0.322	-0.017	
8.580	-0.083	0.029	
8.585	-0.080	0.050	
8.590	0.162	0.047	
8.595	-0.124	0.043	
8.600	-0.176	0.020	
8.605	0.134	-0.010	
8.610	0.023	-0.018	
8.615	-0.220	-0.020	
8.620	-0.098	-0.042	
8.625	0.104	-0.059	
8.630	-0.177	-0.060	
8.635	-0.135	-0.067	
8.640	0.137	-0.072	
8.645	-0.115	-0.060	
8.650	-0.194	-0.057	
8.655	0.070	-0.064	
8.660	-0.022	-0.060	
8.665	-0.216	-0.055	
8.670	-0.029	-0.065	
8.675	0.081	-0.067	
8.680	-0.216	-0.059	
8.685	-0.150	-0.068	
8.690	0.143	-0.076	
8.695	-0.110	-0.065	
8.700	-0.200	-0.061	
8.705	0.097	-0.066	
8.710	-0.020	-0.058	
8.715	-0.254	-0.052	
8.720	-0.092	-0.068	
8.725	0.058	-0.081	
8.730	-0.210	-0.081	
8.735	-0.155	-0.090	
8.740	0.065	-0.099	
8.745	-0.147	-0.093	
8.750	-0.168	-0.091	
8.755	0.209	-0.086	
8.760	0.029	-0.055	
8.765	-0.220	-0.027	
8.770	-0.042	-0.030	
8.775	0.117	-0.034	
8.780	-0.170	-0.029	
8.785	-0.101	-0.036	
8.790	0.163	-0.042	
8.795	-0.087	-0.031	
8.800	-0.173	-0.029	
8.805	0.088	-0.038	
8.810	0.007	-0.035	
8.815	-0.170	-0.030	
8.820	0.070	-0.034	
8.825	0.186	-0.023	
8.830	-0.126	0.002	
8.835	-0.060	0.008	
8.840	0.221	0.008	
8.845	-0.061	0.022	
8.850	-0.184	0.020	
8.855	0.061	-0.001	
8.860	0.024	-0.013	
8.865	-0.161	-0.019	
8.870	0.018	-0.031	
8.875	0.156	-0.030	
8.880	-0.168	-0.017	
8.885	-0.124	-0.021	
8.890	0.120	-0.033	
8.895	-0.115	-0.033	
8.900	-0.216	-0.041	
8.905	-0.011	-0.064	
8.910	-0.042	-0.076	
8.915	-0.220	-0.082	
8.920	-0.066	-0.096	
8.925	0.013	-0.100	
8.930	-0.165	-0.093	
8.935	-0.109	-0.092	
8.940	0.116	-0.087	
8.945	-0.100	-0.067	
8.950	-0.173	-0.057	
8.955	0.087	-0.058	
8.960	0.015	-0.047	
8.965	-0.164	-0.035	
8.970	0.044	-0.035	
8.975	0.214	-0.022	
8.980	-0.095	0.005	
8.985	-0.023	0.018	
8.990	0.218	0.025	
8.995	-0.063	0.039	
9.000	-0.148	0.037	
9.005	0.111	0.017	
9.010	0.042	0.010	
9.015	-0.182	0.005	
9.020	-0.011	-0.014	
9.025	0.102	-0.025	
9.030	-0.210	-0.027	
9.035	-0.127	-0.043	
9.040	0.120	-0.059	
9.045	-0.101	-0.055	
9.050	-0.184	-0.056	
9.055	0.097	-0.063	
9.060	0.012	-0.053	
9.065	-0.240	-0.044	
9.070	0.038	-0.052	
9.075	0.166	-0.046	
9.080	-0.148	-0.024	
9.085	-0.116	-0.020	
9.090	0.070	-0.029	
9.095	-0.161	-0.034	
9.100	-0.203	-0.052	
9.105	0.065	-0.074	
9.110	0.006	-0.074	
9.115	-0.173	-0.065	
9.120	0.017	-0.063	
9.125	0.088	-0.053	
9.130	-0.200	-0.039	
9.135	-0.153	-0.046	
9.140	0.198	-0.055	
9.145	-0.049	-0.041	
9.150	-0.153	-0.028	
9.155	0.122	-0.028	
9.160	-0.011	-0.019	
9.165	-0.196	-0.015	
9.170	0.085	-0.025	
9.175	0.233	-0.016	
9.180	-0.112	0.012	
9.185	-0.045	0.022	
9.190	0.195	0.022	
9.195	-0.132	0.028	
9.200	-0.156	0.016	
9.205	0.166	-0.006	
9.210	0.032	-0.006	
9.215	-0.173	-0.002	
9.220	0.049	-0.012	
9.225	0.241	-0.007	
9.230	-0.109	0.016	
9.235	-0.058	0.023	
9.240	0.230	0.022	
9.245	-0.057	0.034	
9.250	-0.145	0.032	
9.255	0.154	0.016	
9.260	0.006	0.013	
9.265	-0.177	0.009	
9.270	0.047	-0.009	
9.275	0.166	-0.012	
9.280	-0.144	-0.001	
9.285	-0.075	-0.004	
9.290	0.163	-0.011	
9.295	-0.080	-0.004	
9.300	-0.177	-0.008	
9.305	0.076	-0.025	
9.310	-0.020	-0.031	
9.315	-0.207	-0.036	
9.320	-0.038	-0.054	
9.325	0.041	-0.064	
9.330	-0.210	-0.064	
9.335	-0.145	-0.077	
9.340	0.178	-0.084	
9.345	-0.054	-0.065	
9.350	-0.155	-0.047	
9.355	0.183	-0.038	
9.360	0.061	-0.014	
9.365	-0.170	0.007	
9.370	0.064	0.006	
9.375	0.233	0.013	
9.380	-0.061	0.036	
9.385	-0.032	0.044	
9.390	0.259	0.046	
9.395	-0.061	0.058	
9.400	-0.130	0.054	
9.405	0.119	0.032	
9.410	-0.051	0.018	
9.415	-0.171	0.001	
9.420	0.035	-0.024	
9.425	0.142	-0.030	
9.430	-0.139	-0.019	
9.435	-0.107	-0.022	
9.440	0.130	-0.029	
9.445	-0.141	-0.027	
9.450	-0.216	-0.038	
9.455	0.047	-0.060	
9.460	-0.040	-0.068	
9.465	-0.177	-0.069	
9.470	-0.013	-0.075	
9.475	0.038	-0.072	
9.480	-0.187	-0.063	
9.485	-0.109	-0.067	
9.490	0.119	-0.070	
9.495	-0.148	-0.060	
9.500	-0.226	-0.062	
9.505	0.036	-0.078	
9.510	-0.054	-0.081	
9.515	-0.229	-0.081	
9.520	-0.005	-0.090	
9.525	0.024	-0.088	
9.530	-0.242	-0.080	
9.535	-0.153	-0.089	
9.540	0.110	-0.098	
9.545	-0.126	-0.087	
9.550	-0.199	-0.081	
9.555	0.076	-0.084	
9.560	-0.009	-0.072	
9.565	-0.196	-0.060	
9.570	-0.013	-0.062	
9.575	0.120	-0.056	
9.580	-0.179	-0.040	
9.585	-0.061	-0.039	
9.590	0.223	-0.035	
9.595	-0.106	-0.014	
9.600	-0.185	-0.009	
9.605	0.104	-0.022	
9.610	0.006	-0.023	
9.615	-0.199	-0.023	
9.620	0.003	-0.037	
9.625	0.094	-0.041	
9.630	-0.177	-0.035	
9.635	-0.055	-0.040	
9.640	0.285	-0.036	
9.645	-0.029	-0.004	
9.650	-0.110	0.017	
9.655	0.218	0.023	
9.660	0.032	0.038	
9.665	-0.177	0.044	
9.670	0.026	0.024	
9.675	0.067	0.008	
9.680	-0.199	-0.004	
9.685	-0.119	-0.029	
9.690	0.076	-0.053	
9.695	-0.141	-0.060	
9.700	-0.147	-0.069	
9.705	0.154	-0.073	
9.710	0.018	-0.054	
9.715	-0.196	-0.034	
9.720	0.021	-0.035	
9.725	0.102	-0.031	
9.730	-0.188	-0.022	
9.735	-0.113	-0.031	
9.740	0.107	-0.044	
9.745	-0.168	-0.046	
9.750	-0.200	-0.058	
9.755	0.078	-0.076	
9.760	-0.078	-0.076	
9.765	-0.177	-0.074	
9.770	0.151	-0.073	
9.775	0.267	-0.040	
9.780	-0.077	0.011	
9.785	0.049	0.042	
9.790	0.363	0.067	
9.795	0.015	0.103	
9.800	-0.121	0.115	
9.805	0.145	0.095	
9.810	-0.025	0.075	
9.815	-0.167	0.048	
9.820	0.059	0.012	
9.825	0.114	-0.005	
9.830	-0.179	-0.007	
9.835	-0.081	-0.022	
9.840	0.142	-0.035	
9.845	-0.141	-0.031	
9.850	-0.104	-0.035	
9.855	0.194	-0.038	
9.860	-0.048	-0.021	
9.865	-0.214	-0.015	
9.870	0.015	-0.030	
9.875	0.088	-0.036	
9.880	-0.181	-0.032	
9.885	-0.087	-0.041	
9.890	0.160	-0.047	
9.895	-0.144	-0.037	
9.900	-0.174	-0.039	
9.905	0.079	-0.052	
9.910	-0.051	-0.052	
9.915	-0.211	-0.053	
9.920	0.020	-0.065	
9.925	0.159	-0.059	
9.930	-0.187	-0.039	
9.935	-0.133	-0.037	
9.940	0.087	-0.047	
9.945	-0.158	-0.048	
9.950	-0.182	-0.059	
9.955	0.068	-0.074	
9.960	-0.052	-0.073	
9.965	-0.216	-0.070	
9.970	0.055	-0.076	
9.975	0.136	-0.063	
9.980	-0.190	-0.039	
9.985	-0.087	-0.035	
9.990	0.163	-0.036	
9.995	-0.110	-0.024	
10.000	-0.147	-0.023	
10.005	0.157	-0.030	
10.010	-0.011	-0.020	
10.015	-0.199	-0.015	
10.020	-0.003	-0.028	
10.025	0.067	-0.036	
10.030	-0.174	-0.035	
10.035	-0.083	-0.045	
10.040	0.194	-0.049	
10.045	-0.046	-0.029	
10.050	-0.077	-0.013	
10.055	0.194	-0.003	
10.060	0.035	0.018	
10.065	-0.171	0.030	
10.070	0.042	0.018	
10.075	0.093	0.009	
10.080	-0.187	0.005	
10.085	-0.068	-0.014	
10.090	0.201	-0.026	
10.095	-0.124	-0.018	
10.100	-0.190	-0.021	
10.105	0.064	-0.039	
10.110	-0.069	-0.047	
10.115	-0.222	-0.056	
10.120	-0.029	-0.075	
10.125	0.084	-0.079	
10.130	-0.150	-0.068	
10.135	-0.084	-0.063	
10.140	0.120	-0.058	
10.145	-0.135	-0.044	
10.150	-0.194	-0.045	
10.155	0.070	-0.058	
10.160	-0.046	-0.058	
10.165	-0.231	-0.059	
10.170	0.020	-0.071	
10.175	0.154	-0.066	
10.180	-0.145	-0.043	
10.185	0.012	-0.029	
10.190	0.313	-0.008	
10.195	-0.025	0.032	
10.200	-0.089	0.054	
10.205	0.232	0.056	
10.210	0.017	0.065	
10.215	-0.167	0.062	
10.220	0.064	0.037	
10.225	0.110	0.021	
10.230	-0.190	0.014	
10.235	-0.089	-0.009	
10.240	0.143	-0.029	
10.245	-0.135	-0.030	
10.250	-0.153	-0.038	
10.255	0.168	-0.048	
10.260	0.035	-0.034	
10.265	-0.177	-0.018	
10.270	0.026	-0.020	
10.275	0.064	-0.021	
10.280	-0.167	-0.018	
10.285	-0.084	-0.029	
10.290	0.148	-0.038	
10.295	-0.126	-0.032	
10.300	-0.199	-0.036	
10.305	0.072	-0.053	
10.310	-0.092	-0.058	
10.315	-0.239	-0.066	
10.320	0.000	-0.084	
10.325	0.101	-0.084	
10.330	-0.194	-0.068	
10.335	-0.100	-0.065	
10.340	0.087	-0.066	
10.345	-0.124	-0.057	
10.350	-0.159	-0.056	
10.355	0.110	-0.061	
10.360	-0.074	-0.053	
10.365	-0.226	-0.051	
10.370	-0.002	-0.065	
10.375	0.105	-0.066	
10.380	-0.191	-0.053	
10.385	-0.058	-0.053	
10.390	0.175	-0.049	
10.395	-0.122	-0.030	
10.400	-0.170	-0.026	
10.405	0.152	-0.034	
10.410	0.015	-0.024	
10.415	-0.171	-0.015	
10.420	0.088	-0.018	
10.425	0.169	-0.009	
10.430	-0.181	0.009	
10.435	-0.086	0.003	
10.440	0.201	-0.007	
10.445	-0.068	0.001	
10.450	-0.130	0.001	
10.455	0.163	-0.006	
10.460	0.020	0.001	
10.465	-0.174	0.006	
10.470	0.036	-0.006	
10.475	0.044	-0.014	
10.480	-0.193	-0.018	
10.485	-0.043	-0.035	
10.490	0.218	-0.039	
10.495	-0.100	-0.021	
10.500	-0.159	-0.014	
10.505	0.076	-0.024	
10.510	-0.072	-0.028	
10.515	-0.196	-0.037	
10.520	0.041	-0.054	
10.525	0.049	-0.056	
10.530	-0.219	-0.050	
10.535	-0.124	-0.061	
10.540	0.127	-0.071	
10.545	-0.148	-0.064	
10.550	-0.214	-0.066	
10.555	0.058	-0.079	
10.560	-0.075	-0.079	
10.565	-0.219	-0.079	
10.570	0.039	-0.086	
10.575	0.142	-0.073	
10.580	-0.171	-0.047	
10.585	-0.037	-0.036	
10.590	0.273	-0.023	
10.595	-0.029	0.010	
10.600	-0.087	0.030	
10.605	0.191	0.034	
10.610	-0.017	0.042	
10.615	-0.153	0.039	
10.620	0.076	0.018	
10.625	0.061	0.008	
10.630	-0.213	0.000	
10.635	-0.074	-0.023	
10.640	0.157	-0.040	
10.645	-0.130	-0.036	
10.650	-0.164	-0.040	
10.655	0.093	-0.051	
10.660	-0.046	-0.048	
10.665	-0.219	-0.048	
10.670	-0.042	-0.063	
10.675	0.020	-0.072	
10.680	-0.208	-0.073	
10.685	-0.060	-0.081	
10.690	0.093	-0.081	
10.695	-0.144	-0.067	
10.700	-0.168	-0.064	
10.705	0.097	-0.069	
10.710	-0.083	-0.061	
10.715	-0.246	-0.060	
10.720	-0.038	-0.077	
10.725	-0.029	-0.088	
10.730	-0.220	-0.091	
10.735	-0.077	-0.101	
10.740	0.131	-0.099	
10.745	-0.147	-0.078	
10.750	-0.187	-0.069	
10.755	0.053	-0.073	
10.760	-0.101	-0.071	
10.765	-0.223	-0.073	
10.770	0.026	-0.085	
10.775	0.049	-0.081	
10.780	-0.222	-0.069	
10.785	-0.118	-0.073	
10.790	0.130	-0.077	
10.795	-0.098	-0.063	
10.800	-0.141	-0.054	
10.805	0.195	-0.048	
10.810	-0.054	-0.027	
10.815	-0.217	-0.018	
10.820	0.053	-0.030	
10.825	0.082	-0.032	
10.830	-0.188	-0.025	
10.835	-0.087	-0.035	
10.840	0.130	-0.044	
10.845	-0.109	-0.038	
10.850	-0.145	-0.038	
10.855	0.159	-0.043	
10.860	-0.013	-0.029	
10.865	-0.164	-0.019	
10.870	0.104	-0.021	
10.875	0.146	-0.010	
10.880	-0.179	0.008	
10.885	-0.083	0.001	
10.890	0.183	-0.009	
10.895	-0.124	-0.006	
10.900	-0.182	-0.014	
10.905	0.122	-0.033	
10.910	-0.057	-0.035	
10.915	-0.208	-0.040	
10.920	0.067	-0.053	
10.925	0.085	-0.049	
10.930	-0.208	-0.037	
10.935	-0.124	-0.045	
10.940	0.108	-0.057	
10.945	-0.145	-0.055	
10.950	-0.164	-0.059	
10.955	0.166	-0.065	
10.960	-0.029	-0.049	
10.965	-0.205	-0.037	
10.970	0.003	-0.044	
10.975	0.067	-0.046	
10.980	-0.174	-0.040	
10.985	-0.014	-0.043	
10.990	0.267	-0.034	
10.995	-0.068	-0.002	
11.000	-0.051	0.018	
11.005	0.250	0.028	
11.010	0.012	0.049	
11.015	-0.181	0.055	
11.020	-0.002	0.031	
11.025	0.004	0.006	
11.030	-0.190	-0.016	
11.035	-0.034	-0.043	
11.040	0.146	-0.053	
11.045	-0.171	-0.045	
11.050	-0.176	-0.049	
11.055	0.125	-0.061	
11.060	-0.028	-0.053	
11.065	-0.199	-0.045	
11.070	-0.016	-0.054	
11.075	-0.026	-0.060	
11.080	-0.234	-0.066	
11.085	-0.106	-0.084	
11.090	0.079	-0.094	
11.095	-0.168	-0.088	
11.100	-0.161	-0.087	
11.105	0.082	-0.090	
11.110	-0.071	-0.078	
11.115	-0.220	-0.070	
11.120	-0.013	-0.078	
11.125	0.038	-0.077	
11.130	-0.211	-0.069	
11.135	-0.109	-0.075	
11.140	0.076	-0.080	
11.145	-0.197	-0.075	
11.150	-0.205	-0.083	
11.155	0.091	-0.095	
11.160	-0.087	-0.089	
11.165	-0.231	-0.084	
11.170	-0.019	-0.092	
11.175	0.012	-0.091	
11.180	-0.185	-0.082	
11.185	-0.060	-0.082	
11.190	0.134	-0.074	
11.195	-0.074	-0.051	
11.200	-0.086	-0.034	
11.205	0.208	-0.022	
11.210	-0.034	0.002	
11.215	-0.194	0.011	
11.220	0.027	-0.005	
11.225	0.111	-0.013	
11.230	-0.156	-0.011	
11.235	-0.043	-0.018	
11.240	0.165	-0.023	
11.245	-0.141	-0.014	
11.250	-0.155	-0.019	
11.255	0.143	-0.033	
11.260	-0.005	-0.027	
11.265	-0.135	-0.020	
11.270	0.172	-0.017	
11.275	0.166	0.005	
11.280	-0.130	0.032	
11.285	-0.034	0.033	
11.290	0.172	0.027	
11.295	-0.138	0.027	
11.300	-0.165	0.009	
11.305	0.053	-0.020	
11.310	-0.084	-0.038	
11.315	-0.228	-0.055	
11.320	0.017	-0.078	
11.325	0.044	-0.081	
11.330	-0.187	-0.072	
11.335	-0.035	-0.071	
11.340	0.166	-0.061	
11.345	-0.133	-0.038	
11.350	-0.129	-0.030	
11.355	0.159	-0.031	
11.360	-0.042	-0.019	
11.365	-0.199	-0.016	
11.370	0.030	-0.030	
11.375	0.055	-0.035	
11.380	-0.211	-0.035	
11.385	-0.040	-0.047	
11.390	0.264	-0.045	
11.395	-0.060	-0.017	
11.400	-0.022	0.006	
11.405	0.380	0.029	
11.410	0.056	0.072	
11.415	-0.132	0.096	
11.420	0.197	0.090	
11.425	0.197	0.091	
11.430	-0.145	0.096	
11.435	-0.032	0.074	
11.440	0.160	0.048	
11.445	-0.126	0.034	
11.450	-0.148	0.009	
11.455	0.107	-0.019	
11.460	-0.101	-0.031	
11.465	-0.219	-0.046	
11.470	0.039	-0.068	
11.475	0.046	-0.070	
11.480	-0.208	-0.062	
11.485	-0.040	-0.066	
11.490	0.094	-0.064	
11.495	-0.171	-0.053	
11.500	-0.135	-0.055	
11.505	0.189	-0.058	
11.510	-0.097	-0.041	
11.515	-0.223	-0.036	
11.520	0.009	-0.052	
11.525	0.052	-0.057	
11.530	-0.203	-0.053	
11.535	-0.100	-0.062	
11.540	0.084	-0.070	
11.545	-0.187	-0.067	
11.550	-0.177	-0.074	
11.555	0.062	-0.086	
11.560	-0.112	-0.084	
11.565	-0.252	-0.086	
11.570	-0.048	-0.102	
11.575	0.013	-0.107	
11.580	-0.208	-0.100	
11.585	-0.054	-0.099	
11.590	0.189	-0.086	
11.595	-0.116	-0.054	
11.600	-0.118	-0.036	
11.605	0.133	-0.031	
11.610	-0.090	-0.020	
11.615	-0.168	-0.021	
11.620	0.073	-0.034	
11.625	0.027	-0.034	
11.630	-0.222	-0.032	
11.635	-0.049	-0.046	
11.640	0.146	-0.053	
11.645	-0.147	-0.042	
11.650	-0.162	-0.043	
11.655	0.157	-0.050	
11.660	0.000	-0.038	
11.665	-0.116	-0.022	
11.670	0.192	-0.013	
11.675	0.120	0.012	
11.680	-0.184	0.034	
11.685	-0.078	0.023	
11.690	0.124	0.004	
11.695	-0.164	-0.006	
11.700	-0.165	-0.027	
11.705	0.134	-0.049	
11.710	-0.107	-0.051	
11.715	-0.245	-0.057	
11.720	0.062	-0.075	
11.725	0.093	-0.071	
11.730	-0.202	-0.053	
11.735	-0.071	-0.053	
11.740	0.131	-0.052	
11.745	-0.173	-0.042	
11.750	-0.197	-0.048	
11.755	0.081	-0.064	
11.760	-0.060	-0.065	
11.765	-0.213	-0.065	
11.770	0.007	-0.075	
11.775	0.010	-0.075	
11.780	-0.237	-0.070	
11.785	-0.057	-0.079	
11.790	0.214	-0.075	
11.795	-0.107	-0.047	
11.800	-0.087	-0.029	
11.805	0.217	-0.018	
11.810	0.021	0.008	
11.815	-0.164	0.024	
11.820	0.120	0.018	
11.825	0.085	0.020	
11.830	-0.190	0.022	
11.835	-0.025	0.004	
11.840	0.159	-0.009	
11.845	-0.164	-0.008	
11.850	-0.144	-0.021	
11.855	0.159	-0.036	
11.860	-0.075	-0.033	
11.865	-0.219	-0.035	
11.870	0.024	-0.052	
11.875	0.067	-0.055	
11.880	-0.216	-0.050	
11.885	-0.098	-0.059	
11.890	0.062	-0.069	
11.895	-0.200	-0.069	
11.900	-0.177	-0.080	
11.905	0.114	-0.091	
11.910	-0.077	-0.081	
11.915	-0.200	-0.072	
11.920	0.076	-0.073	
11.925	-0.017	-0.063	
11.930	-0.255	-0.056	
11.935	-0.071	-0.070	
11.940	0.134	-0.076	
11.945	-0.179	-0.064	
11.950	-0.176	-0.065	
11.955	0.067	-0.075	
11.960	-0.139	-0.074	
11.965	-0.260	-0.082	
11.970	0.000	-0.101	
11.975	0.015	-0.103	
11.980	-0.234	-0.095	
11.985	-0.121	-0.099	
11.990	0.065	-0.102	
11.995	-0.167	-0.092	
12.000	-0.165	-0.090	
12.005	0.172	-0.087	
12.010	0.026	-0.061	
12.015	-0.162	-0.033	
12.020	0.075	-0.024	
12.025	0.035	-0.014	
12.030	-0.219	-0.010	
12.035	-0.109	-0.030	
12.040	0.088	-0.050	
12.045	-0.179	-0.056	
12.050	-0.168	-0.069	
12.055	0.160	-0.079	
12.060	-0.040	-0.064	
12.065	-0.165	-0.049	
12.070	0.162	-0.042	
12.075	0.197	-0.015	
12.080	-0.122	0.022	
12.085	-0.025	0.032	
12.090	0.151	0.030	
12.095	-0.179	0.028	
12.100	-0.144	0.006	
12.105	0.134	-0.021	
12.110	-0.092	-0.029	
12.115	-0.211	-0.040	
12.120	0.036	-0.060	
12.125	-0.008	-0.065	
12.130	-0.255	-0.067	
12.135	-0.089	-0.083	
12.140	0.124	-0.090	
12.145	-0.174	-0.078	
12.150	-0.165	-0.075	
12.155	0.120	-0.078	
12.160	-0.069	-0.065	
12.165	-0.213	-0.057	
12.170	0.006	-0.065	
12.175	-0.048	-0.068	
12.180	-0.260	-0.074	
12.185	-0.089	-0.093	
12.190	0.120	-0.100	
12.195	-0.148	-0.085	
12.200	-0.124	-0.076	
12.205	0.209	-0.066	
12.210	-0.006	-0.035	
12.215	-0.115	-0.010	
12.220	0.168	0.001	
12.225	0.169	0.024	
12.230	-0.152	0.048	
12.235	-0.037	0.042	
12.240	0.105	0.026	
12.245	-0.188	0.013	
12.250	-0.121	-0.014	
12.255	0.177	-0.036	
12.260	-0.098	-0.035	
12.265	-0.225	-0.038	
12.270	0.059	-0.056	
12.275	-0.011	-0.059	
12.280	-0.207	-0.058	
12.285	-0.035	-0.068	
12.290	0.134	-0.067	
12.295	-0.199	-0.052	
12.300	-0.147	-0.055	
12.305	0.137	-0.062	
12.310	-0.101	-0.053	
12.315	-0.216	-0.052	
12.320	0.056	-0.064	
12.325	0.023	-0.061	
12.330	-0.208	-0.054	
12.335	-0.106	-0.063	
12.340	0.062	-0.073	
12.345	-0.182	-0.071	
12.350	-0.141	-0.078	
12.355	0.114	-0.083	
12.360	-0.093	-0.070	
12.365	-0.203	-0.064	
12.370	0.049	-0.070	
12.375	0.009	-0.064	
12.380	-0.223	-0.057	
12.385	-0.057	-0.066	
12.390	0.116	-0.068	
12.395	-0.182	-0.057	
12.400	-0.135	-0.059	
12.405	0.208	-0.060	
12.410	-0.081	-0.040	
12.415	-0.188	-0.030	
12.420	0.139	-0.034	
12.425	0.091	-0.021	
12.430	-0.200	-0.006	
12.435	-0.022	-0.012	
12.440	0.165	-0.017	
12.445	-0.156	-0.009	
12.450	-0.122	-0.016	
12.455	0.211	-0.025	
12.460	-0.020	-0.012	
12.465	-0.162	-0.003	
12.470	0.090	-0.010	
12.475	0.105	-0.006	
12.480	-0.156	0.004	
12.485	0.042	0.000	
12.490	0.204	0.005	
12.495	-0.142	0.020	
12.500	-0.086	0.017	
12.505	0.191	0.006	
12.510	-0.075	0.010	
12.515	-0.177	0.004	
12.520	0.128	-0.014	
12.525	0.042	-0.015	
12.530	-0.217	-0.012	
12.535	-0.069	-0.030	
12.540	0.081	-0.046	
12.545	-0.214	-0.051	
12.550	-0.174	-0.068	
12.555	0.143	-0.083	
12.560	-0.060	-0.073	
12.565	-0.164	-0.061	
12.570	0.097	-0.057	
12.575	0.084	-0.039	
12.580	-0.185	-0.020	
12.585	-0.058	-0.022	
12.590	0.088	-0.029	
12.595	-0.167	-0.030	
12.600	-0.084	-0.039	
12.605	0.290	-0.039	
12.610	0.061	-0.006	
12.615	-0.080	0.027	
12.620	0.275	0.046	
12.625	0.171	0.076	
12.630	-0.158	0.099	
12.635	-0.006	0.084	
12.640	0.189	0.063	
12.645	-0.153	0.050	
12.650	-0.113	0.025	
12.655	0.247	0.001	
12.660	-0.060	0.004	
12.665	-0.173	0.003	
12.670	0.068	-0.014	
12.675	-0.002	-0.021	
12.680	-0.205	-0.027	
12.685	-0.049	-0.047	
12.690	0.140	-0.055	
12.695	-0.177	-0.047	
12.700	-0.155	-0.051	
12.705	0.099	-0.061	
12.710	-0.058	-0.056	
12.715	-0.147	-0.051	
12.720	0.113	-0.050	
12.725	0.026	-0.035	
12.730	-0.216	-0.024	
12.735	-0.038	-0.035	
12.740	0.131	-0.041	
12.745	-0.170	-0.034	
12.750	-0.142	-0.040	
12.755	0.131	-0.051	
12.760	-0.115	-0.047	
12.765	-0.210	-0.050	
12.770	0.061	-0.064	
12.775	0.027	-0.062	
12.780	-0.203	-0.054	
12.785	0.000	-0.057	
12.790	0.111	-0.053	
12.795	-0.199	-0.040	
12.800	-0.133	-0.045	
12.805	0.194	-0.052	
12.810	-0.080	-0.038	
12.815	-0.153	-0.029	
12.820	0.163	-0.030	
12.825	0.119	-0.011	
12.830	-0.148	0.012	
12.835	0.064	0.015	
12.840	0.236	0.024	
12.845	-0.119	0.044	
12.850	-0.100	0.040	
12.855	0.244	0.028	
12.860	-0.022	0.033	
12.865	-0.152	0.032	
12.870	0.107	0.016	
12.875	0.113	0.013	
12.880	-0.139	0.018	
12.885	0.105	0.014	
12.890	0.252	0.025	
12.895	-0.103	0.049	
12.900	-0.045	0.052	
12.905	0.249	0.046	
12.910	-0.042	0.054	
12.915	-0.179	0.047	
12.920	0.137	0.023	
12.925	0.061	0.014	
12.930	-0.170	0.011	
12.935	0.013	-0.004	
12.940	0.136	-0.012	
12.945	-0.177	-0.008	
12.950	-0.122	-0.021	
12.955	0.152	-0.035	
12.960	-0.051	-0.030	
12.965	-0.152	-0.027	
12.970	0.128	-0.030	
12.975	0.038	-0.020	
12.980	-0.202	-0.011	
12.985	-0.006	-0.022	
12.990	0.117	-0.028	
12.995	-0.187	-0.023	
13.000	-0.113	-0.034	
13.005	0.230	-0.041	
13.010	0.030	-0.020	
13.015	-0.068	0.005	
13.020	0.269	0.023	
13.025	0.125	0.056	
13.030	-0.083	0.081	
13.035	0.243	0.088	
13.040	0.253	0.106	
13.045	-0.144	0.123	
13.050	-0.092	0.103	
13.055	0.188	0.067	
13.060	-0.104	0.046	
13.065	-0.181	0.017	
13.070	0.104	-0.016	
13.075	0.000	-0.029	
13.080	-0.219	-0.035	
13.085	-0.014	-0.052	
13.090	0.156	-0.055	
13.095	-0.194	-0.042	
13.100	-0.124	-0.044	
13.105	0.203	-0.048	
13.110	-0.048	-0.030	
13.115	-0.181	-0.019	
13.120	0.062	-0.026	
13.125	-0.023	-0.029	
13.130	-0.243	-0.035	
13.135	-0.064	-0.058	
13.140	0.111	-0.071	
13.145	-0.167	-0.064	
13.150	-0.122	-0.065	
13.155	0.136	-0.066	
13.160	-0.119	-0.053	
13.165	-0.205	-0.051	
13.170	0.078	-0.062	
13.175	0.001	-0.058	
13.180	-0.196	-0.050	
13.185	-0.014	-0.056	
13.190	0.076	-0.055	
13.195	-0.190	-0.047	
13.200	-0.106	-0.053	
13.205	0.229	-0.054	
13.210	-0.058	-0.031	
13.215	-0.165	-0.017	
13.220	0.137	-0.018	
13.225	0.068	-0.007	
13.230	-0.182	0.004	
13.235	0.009	-0.005	
13.240	0.162	-0.008	
13.245	-0.162	-0.001	
13.250	-0.095	-0.009	
13.255	0.215	-0.017	
13.260	-0.077	-0.006	
13.265	-0.135	-0.003	
13.270	0.233	-0.006	
13.275	0.116	0.014	
13.280	-0.165	0.035	
13.285	0.042	0.031	
13.290	0.204	0.029	
13.295	-0.138	0.037	
13.300	-0.014	0.030	
13.305	0.331	0.029	
13.310	-0.031	0.052	
13.315	-0.124	0.060	
13.320	0.233	0.051	
13.325	0.096	0.057	
13.330	-0.159	0.062	
13.335	0.059	0.045	
13.340	0.139	0.033	
13.345	-0.190	0.028	
13.350	-0.133	0.003	
13.355	0.140	-0.024	
13.360	-0.103	-0.031	
13.365	-0.165	-0.040	
13.370	0.157	-0.049	
13.375	0.059	-0.035	
13.380	-0.176	-0.017	
13.385	0.010	-0.018	
13.390	0.142	-0.016	
13.395	-0.121	-0.004	
13.400	-0.051	-0.004	
13.405	0.197	-0.005	
13.410	-0.109	0.007	
13.415	-0.170	0.002	
13.420	0.249	-0.010	
13.425	0.159	0.009	
13.430	-0.130	0.036	
13.435	0.151	0.045	
13.440	0.304	0.063	
13.445	-0.087	0.092	
13.450	-0.022	0.093	
13.455	0.295	0.085	
13.460	-0.019	0.090	
13.465	-0.106	0.083	
13.470	0.208	0.063	
13.475	0.085	0.060	
13.480	-0.188	0.056	
13.485	0.042	0.032	
13.490	0.148	0.017	
13.495	-0.161	0.014	
13.500	-0.095	-0.002	
13.505	0.171	-0.018	
13.510	-0.135	-0.017	
13.515	-0.205	-0.028	
13.520	0.114	-0.048	
13.525	0.055	-0.045	
13.530	-0.170	-0.033	
13.535	0.070	-0.031	
13.540	0.174	-0.017	
13.545	-0.162	0.004	
13.550	-0.074	0.004	
13.555	0.177	-0.003	
13.560	-0.090	0.003	
13.565	-0.187	-0.004	
13.570	0.073	-0.024	
13.575	-0.032	-0.033	
13.580	-0.161	-0.038	
13.585	0.042	-0.048	
13.590	0.137	-0.041	
13.595	-0.174	-0.024	
13.600	-0.116	-0.026	
13.605	0.181	-0.033	
13.610	-0.034	-0.020	
13.615	-0.119	-0.010	
13.620	0.206	-0.007	
13.625	0.091	0.014	
13.630	-0.170	0.032	
13.635	0.082	0.027	
13.640	0.212	0.029	
13.645	-0.119	0.043	
13.650	-0.022	0.039	
13.655	0.258	0.035	
13.660	-0.074	0.045	
13.665	-0.124	0.042	
13.670	0.178	0.026	
13.675	0.151	0.031	
13.680	-0.113	0.044	
13.685	0.119	0.045	
13.690	0.296	0.056	
13.695	-0.081	0.081	
13.700	-0.011	0.083	
13.705	0.310	0.079	
13.710	-0.017	0.089	
13.715	-0.109	0.086	
13.720	0.240	0.068	
13.725	0.079	0.068	
13.730	-0.181	0.065	
13.735	0.064	0.042	
13.740	0.194	0.029	
13.745	-0.156	0.031	
13.750	-0.084	0.017	
13.755	0.203	0.001	
13.760	-0.100	0.004	
13.765	-0.176	-0.004	
13.770	0.139	-0.021	
13.775	-0.023	-0.022	
13.780	-0.229	-0.025	
13.785	0.021	-0.043	
13.790	0.145	-0.046	
13.795	-0.174	-0.033	
13.800	-0.028	-0.031	
13.805	0.133	-0.029	
13.810	-0.161	-0.019	
13.815	-0.174	-0.027	
13.820	0.085	-0.046	
13.825	-0.026	-0.048	
13.830	-0.184	-0.047	
13.835	0.082	-0.052	
13.840	0.224	-0.036	
13.845	-0.126	-0.002	
13.850	-0.022	0.012	
13.855	0.311	0.024	
13.860	0.015	0.053	
13.865	-0.097	0.070	
13.870	0.145	0.063	
13.875	0.033	0.059	
13.880	-0.164	0.048	
13.885	0.000	0.020	
13.890	0.081	-0.001	
13.895	-0.190	-0.013	
13.900	-0.115	-0.035	
13.905	0.130	-0.053	
13.910	-0.119	-0.051	
13.915	-0.170	-0.053	
13.920	0.192	-0.057	
13.925	-0.022	-0.039	
13.930	-0.229	-0.027	
13.935	0.023	-0.037	
13.940	0.154	-0.037	
13.945	-0.177	-0.023	
13.950	-0.107	-0.026	
13.955	0.214	-0.031	
13.960	-0.101	-0.017	
13.965	-0.211	-0.017	
13.970	0.070	-0.034	
13.975	-0.055	-0.043	
13.980	-0.258	-0.052	
13.985	-0.019	-0.075	
13.990	0.091	-0.082	
13.995	-0.187	-0.071	
14.000	-0.112	-0.071	
14.005	0.165	-0.069	
14.010	-0.119	-0.051	
14.015	-0.168	-0.044	
14.020	0.119	-0.048	
14.025	-0.040	-0.039	
14.030	-0.199	-0.036	
14.035	0.125	-0.041	
14.040	0.148	-0.028	
14.045	-0.179	-0.004	
14.050	-0.119	-0.008	
14.055	0.130	-0.021	
14.060	-0.110	-0.022	
14.065	-0.129	-0.029	
14.070	0.198	-0.035	
14.075	-0.011	-0.019	
14.080	-0.210	-0.010	
14.085	0.075	-0.020	
14.090	0.124	-0.018	
14.095	-0.173	-0.007	
14.100	-0.049	-0.013	
14.105	0.281	-0.013	
14.110	-0.049	0.011	
14.115	-0.121	0.023	
14.120	0.195	0.021	
14.125	0.033	0.030	
14.130	-0.174	0.033	
14.135	0.058	0.016	
14.140	0.128	0.008	
14.145	-0.173	0.009	
14.150	-0.095	-0.006	
14.155	0.090	-0.025	
14.160	-0.167	-0.034	
14.165	-0.165	-0.051	
14.170	0.146	-0.066	
14.175	-0.023	-0.056	
14.180	-0.213	-0.046	
14.185	-0.009	-0.054	
14.190	0.056	-0.056	
14.195	-0.220	-0.052	
14.200	-0.097	-0.063	
14.205	0.188	-0.067	
14.210	-0.104	-0.048	
14.215	-0.168	-0.039	
14.220	0.073	-0.044	
14.225	-0.075	-0.043	
14.230	-0.234	-0.049	
14.235	0.013	-0.067	
14.240	0.120	-0.068	
14.245	-0.161	-0.051	
14.250	-0.034	-0.045	
14.255	0.279	-0.031	
14.260	-0.011	0.006	
14.265	-0.072	0.031	
14.270	0.259	0.042	
14.275	0.076	0.064	
14.280	-0.170	0.074	
14.285	0.018	0.054	
14.290	0.148	0.035	
14.295	-0.196	0.025	
14.300	-0.092	-0.001	
14.305	0.171	-0.023	
14.310	-0.098	-0.022	
14.315	-0.173	-0.027	
14.320	0.111	-0.040	
14.325	-0.054	-0.039	
14.330	-0.228	-0.042	
14.335	0.026	-0.058	
14.340	0.122	-0.057	
14.345	-0.188	-0.043	
14.350	-0.104	-0.044	
14.355	0.108	-0.050	
14.360	-0.164	-0.046	
14.365	-0.188	-0.055	
14.370	0.097	-0.069	
14.375	-0.066	-0.066	
14.380	-0.249	-0.066	
14.385	-0.029	-0.081	
14.390	0.085	-0.083	
14.395	-0.210	-0.073	
14.400	-0.122	-0.075	
14.405	0.165	-0.076	
14.410	-0.133	-0.059	
14.415	-0.174	-0.052	
14.420	0.130	-0.056	
14.425	-0.016	-0.044	
14.430	-0.208	-0.035	
14.435	0.018	-0.043	
14.440	0.079	-0.044	
14.445	-0.223	-0.038	
14.450	-0.100	-0.050	
14.455	0.134	-0.060	
14.460	-0.150	-0.053	
14.465	-0.167	-0.055	
14.470	0.145	-0.061	
14.475	0.007	-0.047	
14.480	-0.173	-0.032	
14.485	0.049	-0.032	
14.490	0.065	-0.027	
14.495	-0.188	-0.020	
14.500	-0.028	-0.028	
14.505	0.208	-0.029	
14.510	-0.110	-0.011	
14.515	-0.147	-0.008	
14.520	0.243	-0.012	
14.525	0.017	0.004	
14.530	-0.187	0.016	
14.535	0.041	0.004	
14.540	0.136	-0.001	
14.545	-0.171	0.003	
14.550	-0.092	-0.009	
14.555	0.146	-0.023	
14.560	-0.113	-0.022	
14.565	-0.135	-0.027	
14.570	0.148	-0.035	
14.575	-0.060	-0.028	
14.580	-0.245	-0.030	
14.585	-0.063	-0.053	
14.590	0.042	-0.070	
14.595	-0.216	-0.074	
14.600	-0.115	-0.086	
14.605	0.079	-0.093	
14.610	-0.179	-0.085	
14.615	-0.174	-0.087	
14.620	0.146	-0.089	
14.625	-0.063	-0.071	
14.630	-0.220	-0.058	
14.635	0.021	-0.064	
14.640	0.097	-0.058	
14.645	-0.208	-0.044	
14.650	-0.121	-0.050	
14.655	0.090	-0.060	
14.660	-0.135	-0.057	
14.665	-0.129	-0.060	
14.670	0.252	-0.056	
14.675	0.090	-0.023	
14.680	-0.121	0.012	
14.685	0.172	0.028	
14.690	0.203	0.050	
14.695	-0.144	0.072	
14.700	-0.058	0.063	
14.705	0.204	0.044	
14.710	-0.112	0.038	
14.715	-0.139	0.020	
14.720	0.143	-0.003	
14.725	-0.064	-0.011	
14.730	-0.242	-0.023	
14.735	-0.035	-0.051	
14.740	0.027	-0.069	
14.745	-0.249	-0.076	
14.750	-0.121	-0.092	
14.755	0.151	-0.099	
14.760	-0.152	-0.083	
14.765	-0.197	-0.076	
14.770	0.085	-0.079	
14.775	-0.031	-0.069	
14.780	-0.199	-0.060	
14.785	0.033	-0.062	
14.790	0.062	-0.055	
14.795	-0.217	-0.044	
14.800	-0.118	-0.053	
14.805	0.073	-0.065	
14.810	-0.190	-0.067	
14.815	-0.232	-0.080	
14.820	0.055	-0.099	
14.825	-0.063	-0.099	
14.830	-0.245	-0.095	
14.835	-0.014	-0.102	
14.840	0.042	-0.097	
14.845	-0.207	-0.083	
14.850	-0.066	-0.081	
14.855	0.146	-0.074	
14.860	-0.133	-0.052	
14.865	-0.152	-0.045	
14.870	0.186	-0.044	
14.875	-0.060	-0.028	
14.880	-0.219	-0.022	
14.885	0.029	-0.037	
14.890	0.105	-0.040	
14.895	-0.167	-0.031	
14.900	-0.057	-0.034	
14.905	0.180	-0.033	
14.910	-0.129	-0.019	
14.915	-0.142	-0.019	
14.920	0.145	-0.027	
14.925	-0.016	-0.021	
14.930	-0.179	-0.016	
14.935	0.084	-0.025	
14.940	0.116	-0.019	
14.945	-0.150	-0.006	
14.950	-0.090	-0.010	
14.955	0.130	-0.020	
14.960	-0.122	-0.019	
14.965	-0.097	-0.025	
14.970	0.212	-0.028	
14.975	-0.009	-0.009	
14.980	-0.185	0.002	
14.985	0.056	-0.008	
14.990	0.065	-0.012	
14.995	-0.220	-0.013	
15.000	-0.112	-0.034	
15.005	0.159	-0.051	
15.010	-0.130	-0.046	
15.015	-0.170	-0.048	
15.020	0.120	-0.056	
15.025	-0.068	-0.050	
15.030	-0.228	-0.049	
15.035	0.049	-0.061	
15.040	0.102	-0.057	
15.045	-0.193	-0.042	
15.050	-0.054	-0.042	
15.055	0.162	-0.041	
15.060	-0.153	-0.027	
15.065	-0.176	-0.031	
15.070	0.120	-0.044	
15.075	-0.057	-0.042	
15.080	-0.136	-0.040	
15.085	0.256	-0.034	
15.090	0.229	0.003	
15.095	-0.103	0.048	
15.100	0.058	0.066	
15.105	0.328	0.078	
15.110	-0.081	0.099	
15.115	-0.112	0.093	
15.120	0.212	0.069	
15.125	0.020	0.060	
15.130	-0.173	0.048	
15.135	0.108	0.023	
15.140	0.140	0.015	
15.145	-0.176	0.018	
15.150	-0.072	0.003	
15.155	0.160	-0.012	
15.160	-0.162	-0.013	
15.165	-0.161	-0.027	
15.170	0.117	-0.045	
15.175	-0.002	-0.042	
15.180	-0.159	-0.035	
15.185	0.081	-0.037	
15.190	0.088	-0.026	
15.195	-0.210	-0.014	
15.200	-0.109	-0.026	
15.205	0.099	-0.042	
15.210	-0.159	-0.045	
15.215	-0.165	-0.056	
15.220	0.127	-0.068	
15.225	-0.057	-0.060	
15.230	-0.207	-0.054	
15.235	-0.003	-0.063	
15.240	-0.016	-0.066	
15.245	-0.211	-0.067	
15.250	-0.022	-0.076	
15.255	0.160	-0.071	
15.260	-0.165	-0.049	
15.265	-0.148	-0.044	
15.270	0.156	-0.048	
15.275	-0.071	-0.036	
15.280	-0.231	-0.034	
15.285	0.029	-0.050	
15.290	0.090	-0.052	
15.295	-0.220	-0.044	
15.300	-0.049	-0.051	
15.305	0.185	-0.051	
15.310	-0.142	-0.033	
15.315	-0.150	-0.030	
15.320	0.168	-0.035	
15.325	0.013	-0.022	
15.330	-0.193	-0.012	
15.335	0.076	-0.018	
15.340	0.114	-0.014	
15.345	-0.197	-0.005	
15.350	-0.040	-0.014	
15.355	0.220	-0.019	
15.360	-0.126	-0.005	
15.365	-0.109	-0.004	
15.370	0.229	-0.008	
15.375	-0.034	0.006	
15.380	-0.184	0.011	
15.385	0.180	0.001	
15.390	0.208	0.014	
15.395	-0.188	0.036	
15.400	-0.049	0.030	
15.405	0.192	0.018	
15.410	-0.122	0.018	
15.415	-0.138	0.006	
15.420	0.186	-0.011	
15.425	-0.045	-0.008	
15.430	-0.210	-0.011	
15.435	0.003	-0.031	
15.440	0.009	-0.045	
15.445	-0.207	-0.051	
15.450	-0.055	-0.067	
15.455	0.178	-0.068	
15.460	-0.158	-0.050	
15.465	-0.152	-0.045	
15.470	0.181	-0.047	
15.475	-0.040	-0.031	
15.480	-0.211	-0.023	
15.485	0.082	-0.032	
15.490	0.090	-0.029	
15.495	-0.236	-0.021	
15.500	-0.003	-0.030	
15.505	0.353	-0.025	
15.510	-0.023	0.014	
15.515	-0.054	0.042	
15.520	0.322	0.057	
15.525	0.104	0.086	
15.530	-0.121	0.103	
15.535	0.114	0.091	
15.540	0.084	0.078	
15.545	-0.202	0.060	
15.550	-0.071	0.022	
15.555	0.120	-0.010	
15.560	-0.150	-0.024	
15.565	-0.112	-0.039	
15.570	0.201	-0.048	
15.575	-0.048	-0.032	
15.580	-0.210	-0.023	
15.585	0.064	-0.033	
15.590	0.117	-0.030	
15.595	-0.194	-0.018	
15.600	-0.042	-0.024	
15.605	0.151	-0.028	
15.610	-0.181	-0.021	
15.615	-0.179	-0.032	
15.620	0.091	-0.052	
15.625	-0.103	-0.057	
15.630	-0.255	-0.066	
15.635	-0.008	-0.087	
15.640	0.015	-0.093	
15.645	-0.226	-0.088	
15.650	-0.058	-0.092	
15.655	0.114	-0.088	
15.660	-0.190	-0.071	
15.665	-0.185	-0.070	
15.670	0.099	-0.078	
15.675	-0.109	-0.072	
15.680	-0.223	-0.071	
15.685	0.081	-0.080	
15.690	0.015	-0.071	
15.695	-0.248	-0.060	
15.700	-0.093	-0.070	
15.705	0.117	-0.077	
15.710	-0.152	-0.066	
15.715	-0.156	-0.065	
15.720	0.097	-0.069	
15.725	-0.087	-0.060	
15.730	-0.213	-0.059	
15.735	0.056	-0.068	
15.740	0.038	-0.063	
15.745	-0.199	-0.052	
15.750	-0.043	-0.055	
15.755	0.191	-0.051	
15.760	-0.159	-0.032	
15.765	-0.144	-0.029	
15.770	0.145	-0.036	
15.775	-0.046	-0.028	
15.780	-0.161	-0.024	
15.785	0.097	-0.030	
15.790	0.061	-0.023	
15.795	-0.211	-0.015	
15.800	-0.032	-0.027	
15.805	0.178	-0.032	
15.810	-0.148	-0.020	
15.815	-0.132	-0.022	
15.820	0.146	-0.032	
15.825	-0.029	-0.024	
15.830	-0.185	-0.021	
15.835	0.039	-0.032	
15.840	0.021	-0.035	
15.845	-0.232	-0.037	
15.850	-0.077	-0.056	
15.855	0.140	-0.066	
15.860	-0.148	-0.056	
15.865	-0.145	-0.055	
15.870	0.107	-0.059	
15.875	-0.107	-0.053	
15.880	-0.225	-0.055	
15.885	0.061	-0.069	
15.890	0.091	-0.063	
15.895	-0.202	-0.047	
15.900	-0.074	-0.048	
15.905	0.087	-0.052	
15.910	-0.171	-0.048	
15.915	-0.148	-0.055	
15.920	0.172	-0.062	
15.925	0.023	-0.044	
15.930	-0.127	-0.023	
15.935	0.148	-0.012	
15.940	0.117	0.009	
15.945	-0.141	0.028	
15.950	0.018	0.026	
15.955	0.133	0.021	
15.960	-0.162	0.021	
15.965	-0.090	0.004	
15.970	0.220	-0.011	
15.975	-0.071	-0.004	
15.980	-0.208	-0.005	
15.985	0.049	-0.025	
15.990	0.042	-0.034	
15.995	-0.228	-0.036	
16.000	-0.066	-0.052	
16.005	0.101	-0.063	
16.010	-0.187	-0.059	
16.015	-0.167	-0.066	
16.020	0.137	-0.075	
16.025	-0.100	-0.066	
16.030	-0.196	-0.061	
16.035	0.023	-0.068	
16.040	0.020	-0.066	
16.045	-0.222	-0.060	
16.050	-0.104	-0.070	
16.055	0.128	-0.076	
16.060	-0.145	-0.065	
16.065	-0.126	-0.061	
16.070	0.140	-0.059	
16.075	-0.078	-0.044	
16.080	-0.216	-0.039	
16.085	0.026	-0.052	
16.090	0.042	-0.054	
16.095	-0.217	-0.050	
16.100	-0.064	-0.060	
16.105	0.156	-0.063	
16.110	-0.177	-0.049	
16.115	-0.141	-0.049	
16.120	0.183	-0.053	
16.125	-0.032	-0.036	
16.130	-0.197	-0.025	
16.135	0.107	-0.029	
16.140	0.137	-0.019	
16.145	-0.171	-0.001	
16.150	-0.034	-0.003	
16.155	0.180	-0.006	
16.160	-0.133	0.002	
16.165	-0.109	-0.003	
16.170	0.191	-0.012	
16.175	-0.055	-0.005	
16.180	-0.188	-0.005	
16.185	0.113	-0.019	
16.190	0.099	-0.016	
16.195	-0.174	-0.005	
16.200	-0.020	-0.012	
16.205	0.166	-0.015	
16.210	-0.087	-0.003	
16.215	-0.054	0.000	
16.220	0.252	0.004	
16.225	0.004	0.027	
16.230	-0.171	0.037	
16.235	0.094	0.024	
16.240	0.075	0.017	
16.245	-0.202	0.013	
16.250	-0.011	-0.008	
16.255	0.168	-0.019	
16.260	-0.145	-0.012	
16.265	-0.115	-0.018	
16.270	0.217	-0.025	
16.275	-0.068	-0.012	
16.280	-0.219	-0.010	
16.285	0.032	-0.029	
16.290	0.044	-0.038	
16.295	-0.210	-0.040	
16.300	-0.077	-0.054	
16.305	0.191	-0.059	
16.310	-0.124	-0.042	
16.315	-0.116	-0.034	
16.320	0.119	-0.035	
16.325	-0.127	-0.029	
16.330	-0.228	-0.038	
16.335	-0.005	-0.062	
16.340	0.064	-0.071	
16.345	-0.130	-0.062	
16.350	0.050	-0.053	
16.355	0.238	-0.029	
16.360	-0.093	0.008	
16.365	-0.045	0.025	
16.370	0.270	0.033	
16.375	-0.068	0.050	
16.380	-0.220	0.046	
16.385	0.094	0.016	
16.390	0.111	0.002	
16.395	-0.144	0.003	
16.400	-0.022	-0.006	
16.405	0.131	-0.012	
16.410	-0.181	-0.010	
16.415	-0.156	-0.025	
16.420	0.159	-0.043	
16.425	-0.081	-0.040	
16.430	-0.203	-0.041	
16.435	0.099	-0.052	
16.440	0.075	-0.044	
16.445	-0.211	-0.031	
16.450	-0.016	-0.035	
16.455	0.154	-0.035	
16.460	-0.187	-0.023	
16.465	-0.161	-0.031	
16.470	0.152	-0.045	
16.475	-0.069	-0.041	
16.480	-0.220	-0.040	
16.485	0.024	-0.055	
16.490	0.023	-0.059	
16.495	-0.200	-0.056	
16.500	-0.110	-0.067	
16.505	0.061	-0.076	
16.510	-0.177	-0.075	
16.515	-0.133	-0.080	
16.520	0.166	-0.080	
16.525	-0.069	-0.060	
16.530	-0.202	-0.047	
16.535	0.023	-0.052	
16.540	0.024	-0.052	
16.545	-0.214	-0.048	
16.550	-0.019	-0.057	
16.555	0.168	-0.055	
16.560	-0.135	-0.035	
16.565	-0.104	-0.029	
16.570	0.246	-0.025	
16.575	-0.074	-0.004	
16.580	-0.203	0.003	
16.585	0.082	-0.013	
16.590	0.056	-0.018	
16.595	-0.200	-0.017	
16.600	-0.040	-0.031	
16.605	0.168	-0.038	
16.610	-0.115	-0.026	
16.615	-0.072	-0.021	
16.620	0.252	-0.015	
16.625	-0.008	0.010	
16.630	-0.153	0.024	
16.635	0.136	0.019	
16.640	0.090	0.022	
16.645	-0.205	0.025	
16.650	-0.032	0.005	
16.655	0.168	-0.010	
16.660	-0.200	-0.011	
16.665	-0.142	-0.027	
16.670	0.240	-0.041	
16.675	-0.040	-0.027	
16.680	-0.187	-0.016	
16.685	0.094	-0.022	
16.690	0.010	-0.021	
16.695	-0.185	-0.020	
16.700	-0.020	-0.033	
16.705	0.122	-0.038	
16.710	-0.177	-0.031	
16.715	-0.150	-0.040	
16.720	0.113	-0.054	
16.725	-0.113	-0.052	
16.730	-0.207	-0.057	
16.735	0.061	-0.070	
16.740	-0.006	-0.068	
16.745	-0.229	-0.062	
16.750	-0.051	-0.072	
16.755	0.189	-0.070	
16.760	-0.110	-0.046	
16.765	-0.046	-0.029	
16.770	0.292	-0.012	
16.775	0.015	0.025	
16.780	-0.103	0.048	
16.785	0.198	0.051	
16.790	0.064	0.060	
16.795	-0.207	0.058	
16.800	-0.034	0.029	
16.805	0.131	0.003	
16.810	-0.162	-0.007	
16.815	-0.110	-0.025	
16.820	0.220	-0.037	
16.825	-0.034	-0.022	
16.830	-0.152	-0.011	
16.835	0.082	-0.015	
16.840	0.027	-0.012	
16.845	-0.185	-0.011	
16.850	-0.028	-0.026	
16.855	0.151	-0.032	
16.860	-0.200	-0.026	
16.865	-0.152	-0.037	
16.870	0.143	-0.052	
16.875	-0.068	-0.047	
16.880	-0.197	-0.044	
16.885	0.055	-0.054	
16.890	0.017	-0.052	
16.895	-0.216	-0.047	
16.900	0.000	-0.055	
16.905	0.128	-0.053	
16.910	-0.158	-0.038	
16.915	-0.101	-0.037	
16.920	0.146	-0.039	
16.925	-0.113	-0.029	
16.930	-0.213	-0.033	
16.935	0.094	-0.049	
16.940	0.062	-0.046	
16.945	-0.174	-0.034	
16.950	-0.013	-0.036	
16.955	0.114	-0.034	
16.960	-0.177	-0.025	
16.965	-0.119	-0.033	
16.970	0.172	-0.042	
16.975	-0.081	-0.032	
16.980	-0.182	-0.029	
16.985	0.110	-0.038	
16.990	0.027	-0.032	
16.995	-0.177	-0.024	
17.000	0.050	-0.028	
17.005	0.189	-0.020	
17.010	-0.167	-0.000	
17.015	-0.100	-0.002	
17.020	0.212	-0.009	
17.025	-0.054	0.001	
17.030	-0.162	0.004	
17.035	0.174	-0.005	
17.040	0.122	0.005	
17.045	-0.156	0.022	
17.050	0.052	0.019	
17.055	0.211	0.022	
17.060	-0.132	0.035	
17.065	-0.098	0.028	
17.070	0.197	0.013	
17.075	-0.048	0.015	
17.080	-0.173	0.010	
17.085	0.113	-0.007	
17.090	0.029	-0.011	
17.095	-0.208	-0.012	
17.100	-0.058	-0.031	
17.105	0.111	-0.045	
17.110	-0.197	-0.045	
17.115	-0.136	-0.056	
17.120	0.156	-0.065	
17.125	-0.089	-0.054	
17.130	-0.199	-0.049	
17.135	-0.006	-0.060	
17.140	-0.005	-0.064	
17.145	-0.202	-0.065	
17.150	-0.019	-0.073	
17.155	0.165	-0.067	
17.160	-0.176	-0.045	
17.165	-0.135	-0.041	
17.170	0.140	-0.046	
17.175	-0.089	-0.037	
17.180	-0.142	-0.034	
17.185	0.203	-0.034	
17.190	0.134	-0.010	
17.195	-0.145	0.019	
17.200	0.032	0.024	
17.205	0.145	0.025	
17.210	-0.203	0.026	
17.215	-0.116	0.005	
17.220	0.241	-0.016	
17.225	-0.064	-0.009	
17.230	-0.177	-0.007	
17.235	0.094	-0.020	
17.240	-0.038	-0.024	
17.245	-0.226	-0.031	
17.250	-0.031	-0.053	
17.255	0.105	-0.062	
17.260	-0.153	-0.054	
17.265	-0.141	-0.056	
17.270	0.075	-0.063	
17.275	-0.150	-0.062	
17.280	-0.193	-0.069	
17.285	0.111	-0.079	
17.290	0.006	-0.068	
17.295	-0.226	-0.055	
17.300	-0.071	-0.062	
17.305	0.130	-0.065	
17.310	-0.179	-0.054	
17.315	-0.119	-0.055	
17.320	0.136	-0.058	
17.325	-0.104	-0.047	
17.330	-0.203	-0.045	
17.335	0.009	-0.059	
17.340	-0.005	-0.064	
17.345	-0.220	-0.065	
17.350	-0.051	-0.076	
17.355	0.075	-0.079	
17.360	-0.205	-0.071	
17.365	-0.116	-0.074	
17.370	0.163	-0.075	
17.375	-0.103	-0.057	
17.380	-0.174	-0.047	
17.385	0.113	-0.049	
17.390	0.049	-0.037	
17.395	-0.203	-0.023	
17.400	-0.035	-0.031	
17.405	0.149	-0.034	
17.410	-0.158	-0.025	
17.415	-0.115	-0.029	
17.420	0.162	-0.036	
17.425	-0.127	-0.029	
17.430	-0.190	-0.033	
17.435	0.125	-0.047	
17.440	0.081	-0.038	
17.445	-0.168	-0.022	
17.450	0.035	-0.020	
17.455	0.212	-0.010	
17.460	-0.141	0.012	
17.465	-0.109	0.012	
17.470	0.235	0.004	
17.475	-0.013	0.015	
17.480	-0.150	0.021	
17.485	0.130	0.011	
17.490	-0.020	0.009	
17.495	-0.225	-0.000	
17.500	-0.017	-0.027	
17.505	0.097	-0.043	
17.510	-0.176	-0.043	
17.515	-0.092	-0.051	
17.520	0.154	-0.055	
17.525	-0.124	-0.042	
17.530	-0.210	-0.042	
17.535	0.033	-0.058	
17.540	-0.014	-0.062	
17.545	-0.177	-0.061	
17.550	-0.029	-0.067	
17.555	0.067	-0.066	
17.560	-0.217	-0.058	
17.565	-0.173	-0.069	
17.570	0.075	-0.084	
17.575	-0.072	-0.080	
17.580	-0.171	-0.075	
17.585	0.133	-0.071	
17.590	0.067	-0.049	
17.595	-0.145	-0.023	
17.600	0.148	-0.010	
17.605	0.273	0.018	
17.610	-0.113	0.055	
17.615	-0.069	0.062	
17.620	0.214	0.053	
17.625	-0.074	0.051	
17.630	-0.194	0.035	
17.635	0.114	0.005	
17.640	0.006	-0.009	
17.645	-0.171	-0.017	
17.650	0.046	-0.030	
17.655	0.130	-0.029	
17.660	-0.210	-0.019	
17.665	-0.119	-0.029	
17.670	0.172	-0.042	
17.675	-0.072	-0.033	
17.680	-0.174	-0.029	
17.685	0.105	-0.037	
17.690	-0.005	-0.032	
17.695	-0.200	-0.029	
17.700	-0.008	-0.041	
17.705	0.094	-0.045	
17.710	-0.188	-0.039	
17.715	-0.095	-0.046	
17.720	0.120	-0.053	
17.725	-0.141	-0.047	
17.730	-0.219	-0.052	
17.735	0.096	-0.068	
17.740	-0.009	-0.064	
17.745	-0.193	-0.056	
17.750	-0.017	-0.061	
17.755	0.075	-0.059	
17.760	-0.184	-0.050	
17.765	-0.159	-0.057	
17.770	0.096	-0.068	
17.775	-0.077	-0.064	
17.780	-0.170	-0.060	
17.785	0.094	-0.062	
17.790	-0.006	-0.051	
17.795	-0.217	-0.042	
17.800	0.003	-0.051	
17.805	0.140	-0.049	
17.810	-0.144	-0.032	
17.815	-0.066	-0.028	
17.820	0.186	-0.025	
17.825	-0.084	-0.009	
17.830	-0.196	-0.007	
17.835	0.145	-0.020	
17.840	0.046	-0.017	
17.845	-0.203	-0.010	
17.850	-0.009	-0.022	
17.855	0.131	-0.028	
17.860	-0.150	-0.021	
17.865	-0.078	-0.025	
17.870	0.189	-0.028	
17.875	-0.069	-0.014	
17.880	-0.124	-0.007	
17.885	0.188	-0.009	
17.890	0.053	0.006	
17.895	-0.197	0.017	
17.900	-0.002	0.003	
17.905	0.085	-0.010	
17.910	-0.182	-0.015	
17.915	-0.092	-0.032	
17.920	0.148	-0.044	
17.925	-0.121	-0.038	
17.930	-0.187	-0.041	
17.935	0.085	-0.054	
17.940	-0.032	-0.053	
17.945	-0.203	-0.051	
17.950	-0.005	-0.061	
17.955	0.061	-0.062	
17.960	-0.194	-0.054	
17.965	-0.100	-0.060	
17.970	0.142	-0.064	
17.975	-0.150	-0.052	
17.980	-0.213	-0.054	
17.985	0.055	-0.069	
17.990	-0.011	-0.069	
17.995	-0.181	-0.063	
18.000	0.047	-0.063	
18.005	0.189	-0.047	
18.010	-0.122	-0.017	
18.015	-0.019	-0.002	
18.020	0.334	0.014	
18.025	0.024	0.050	
18.030	-0.118	0.071	
18.035	0.183	0.067	
18.040	0.035	0.065	
18.045	-0.202	0.055	
18.050	0.010	0.023	
18.055	0.185	0.003	
18.060	-0.159	0.003	
18.065	-0.133	-0.010	
18.070	0.058	-0.031	
18.075	-0.138	-0.043	
18.080	-0.171	-0.059	
18.085	0.090	-0.074	
18.090	-0.035	-0.069	
18.095	-0.207	-0.062	
18.100	-0.034	-0.070	
18.105	0.090	-0.069	
18.110	-0.202	-0.059	
18.115	-0.133	-0.063	
18.120	0.183	-0.067	
18.125	-0.115	-0.051	
18.130	-0.217	-0.046	
18.135	0.064	-0.057	
18.140	-0.077	-0.060	
18.145	-0.237	-0.065	
18.150	-0.075	-0.085	
18.155	0.049	-0.094	
18.160	-0.187	-0.089	
18.165	-0.133	-0.091	
18.170	0.097	-0.092	
18.175	-0.130	-0.078	
18.180	-0.170	-0.073	
18.185	0.137	-0.072	
18.190	-0.006	-0.054	
18.195	-0.187	-0.038	
18.200	0.018	-0.039	
18.205	0.137	-0.034	
18.210	-0.179	-0.019	
18.215	-0.090	-0.023	
18.220	0.139	-0.031	
18.225	-0.121	-0.026	
18.230	-0.144	-0.030	
18.235	0.152	-0.038	
18.240	-0.028	-0.029	
18.245	-0.214	-0.025	
18.250	-0.029	-0.040	
18.255	0.114	-0.048	
18.260	-0.165	-0.041	
18.265	-0.046	-0.042	
18.270	0.282	-0.034	
18.275	-0.026	-0.001	
18.280	-0.103	0.021	
18.285	0.241	0.029	
18.290	0.038	0.046	
18.295	-0.187	0.053	
18.300	0.044	0.032	
18.305	0.142	0.019	
18.310	-0.176	0.015	
18.315	-0.118	-0.004	
18.320	0.151	-0.025	
18.325	-0.127	-0.028	
18.330	-0.187	-0.038	
18.335	0.090	-0.054	
18.340	-0.035	-0.055	
18.345	-0.197	-0.053	
18.350	0.029	-0.061	
18.355	0.078	-0.056	
18.360	-0.185	-0.044	
18.365	-0.034	-0.045	
18.370	0.186	-0.040	
18.375	-0.109	-0.020	
18.380	-0.170	-0.015	
18.385	0.110	-0.026	
18.390	-0.051	-0.026	
18.395	-0.234	-0.032	
18.400	-0.051	-0.055	
18.405	0.041	-0.070	
18.410	-0.136	-0.069	
18.415	0.018	-0.066	
18.420	0.307	-0.043	
18.425	-0.003	0.006	
18.430	-0.069	0.039	
18.435	0.278	0.055	
18.440	0.133	0.081	
18.445	-0.135	0.097	
18.450	0.073	0.085	
18.455	0.133	0.070	
18.460	-0.205	0.055	
18.465	-0.133	0.019	
18.470	0.068	-0.021	
18.475	-0.124	-0.042	
18.480	-0.173	-0.061	
18.485	0.090	-0.077	
18.490	-0.077	-0.073	
18.495	-0.213	-0.071	
18.500	-0.019	-0.081	
18.505	0.044	-0.080	
18.510	-0.207	-0.071	
18.515	-0.090	-0.075	
18.520	0.208	-0.071	
18.525	-0.116	-0.047	
18.530	-0.184	-0.036	
18.535	0.068	-0.043	
18.540	-0.086	-0.044	
18.545	-0.269	-0.054	
18.550	-0.043	-0.080	
18.555	0.006	-0.094	
18.560	-0.239	-0.096	
18.565	-0.133	-0.107	
18.570	0.085	-0.112	
18.575	-0.158	-0.100	
18.580	-0.174	-0.094	
18.585	0.076	-0.093	
18.590	-0.101	-0.082	
18.595	-0.236	-0.077	
18.600	-0.026	-0.089	
18.605	0.079	-0.088	
18.610	-0.156	-0.072	
18.615	-0.068	-0.065	
18.620	0.134	-0.057	
18.625	-0.164	-0.040	
18.630	-0.208	-0.044	
18.635	0.110	-0.059	
18.640	-0.009	-0.055	
18.645	-0.177	-0.047	
18.650	0.021	-0.051	
18.655	0.136	-0.043	
18.660	-0.170	-0.025	
18.665	-0.087	-0.026	
18.670	0.218	-0.027	
18.675	-0.074	-0.010	
18.680	-0.132	-0.002	
18.685	0.194	-0.005	
18.690	0.023	0.008	
18.695	-0.181	0.015	
18.700	0.078	0.004	
18.705	0.136	0.003	
18.710	-0.184	0.009	
18.715	-0.090	-0.004	
18.720	0.211	-0.017	
18.725	-0.097	-0.009	
18.730	-0.159	-0.010	
18.735	0.099	-0.024	
18.740	0.046	-0.022	
18.745	-0.133	-0.014	
18.750	0.081	-0.014	
18.755	0.174	-0.003	
18.760	-0.165	0.016	
18.765	-0.084	0.011	
18.770	0.188	-0.000	
18.775	-0.133	0.002	
18.780	-0.184	-0.010	
18.785	0.061	-0.034	
18.790	-0.083	-0.046	
18.795	-0.231	-0.059	
18.800	-0.022	-0.081	
18.805	0.035	-0.088	
18.810	-0.229	-0.083	
18.815	-0.110	-0.090	
18.820	0.188	-0.089	
18.825	-0.051	-0.062	
18.830	-0.092	-0.038	
18.835	0.275	-0.017	
18.840	0.110	0.023	
18.845	-0.089	0.057	
18.850	0.217	0.070	
18.855	0.269	0.092	
18.860	-0.141	0.114	
18.865	-0.077	0.099	
18.870	0.157	0.068	
18.875	-0.142	0.044	
18.880	-0.184	0.010	
18.885	0.107	-0.027	
18.890	0.023	-0.038	
18.895	-0.188	-0.038	
18.900	0.000	-0.047	
18.905	0.107	-0.047	
18.910	-0.177	-0.036	
18.915	-0.074	-0.039	
18.920	0.136	-0.042	
18.925	-0.152	-0.034	
18.930	-0.181	-0.039	
18.935	0.137	-0.052	
18.940	0.003	-0.044	
18.945	-0.213	-0.036	
18.950	0.081	-0.040	
18.955	0.159	-0.030	
18.960	-0.188	-0.010	
18.965	-0.092	-0.013	
18.970	0.157	-0.021	
18.975	-0.138	-0.018	
18.980	-0.168	-0.026	
18.985	0.105	-0.042	
18.990	-0.051	-0.043	
18.995	-0.214	-0.045	
19.000	0.006	-0.060	
19.005	0.082	-0.061	
19.010	-0.197	-0.052	
19.015	-0.107	-0.057	
19.020	0.156	-0.061	
19.025	-0.097	-0.047	
19.030	-0.127	-0.039	
19.035	0.163	-0.036	
19.040	-0.054	-0.022	
19.045	-0.188	-0.017	
19.050	0.056	-0.028	
19.055	0.090	-0.028	
19.060	-0.187	-0.021	
19.065	-0.058	-0.029	
19.070	0.191	-0.033	
19.075	-0.090	-0.018	
19.080	-0.104	-0.012	
19.085	0.250	-0.009	
19.090	0.044	0.015	
19.095	-0.162	0.032	
19.100	0.137	0.028	
19.105	0.189	0.034	
19.110	-0.142	0.049	
19.115	-0.023	0.041	
19.120	0.172	0.029	
19.125	-0.083	0.029	
19.130	-0.069	0.021	
19.135	0.267	0.015	
19.140	0.096	0.035	
19.145	-0.152	0.053	
19.150	0.049	0.044	
19.155	0.075	0.033	
19.160	-0.208	0.021	
19.165	-0.090	-0.009	
19.170	0.124	-0.034	
19.175	-0.139	-0.039	
19.180	-0.159	-0.049	
19.185	0.128	-0.060	
19.190	-0.092	-0.054	
19.195	-0.232	-0.055	
19.200	0.108	-0.065	
19.205	0.146	-0.053	
19.210	-0.203	-0.028	
19.215	-0.104	-0.027	
19.220	0.139	-0.034	
19.225	-0.190	-0.032	
19.230	-0.210	-0.046	
19.235	0.081	-0.069	
19.240	-0.090	-0.074	
19.245	-0.174	-0.075	
19.250	0.125	-0.076	
19.255	0.172	-0.052	
19.260	-0.115	-0.013	
19.265	0.059	0.008	
19.270	0.304	0.031	
19.275	-0.063	0.065	
19.280	-0.107	0.072	
19.285	0.156	0.057	
19.290	-0.072	0.045	
19.295	-0.232	0.021	
19.300	0.027	-0.018	
19.305	0.082	-0.039	
19.310	-0.170	-0.041	
19.315	-0.058	-0.049	
19.320	0.125	-0.051	
19.325	-0.156	-0.041	
19.330	-0.193	-0.046	
19.335	0.125	-0.059	
19.340	-0.066	-0.055	
19.345	-0.194	-0.052	
19.350	0.052	-0.060	
19.355	0.056	-0.054	
19.360	-0.188	-0.042	
19.365	-0.078	-0.047	
19.370	0.111	-0.052	
19.375	-0.167	-0.045	
19.380	-0.161	-0.052	
19.385	0.131	-0.062	
19.390	-0.066	-0.053	
19.395	-0.199	-0.049	
19.400	0.007	-0.059	
19.405	0.033	-0.060	
19.410	-0.214	-0.056	
19.415	-0.097	-0.066	
19.420	0.130	-0.072	
19.425	-0.145	-0.061	
19.430	-0.156	-0.058	
19.435	0.139	-0.061	
19.440	-0.057	-0.049	
19.445	-0.197	-0.041	
19.450	0.097	-0.046	
19.455	0.110	-0.035	
19.460	-0.168	-0.017	
19.465	-0.008	-0.015	
19.470	0.211	-0.010	
19.475	-0.129	0.007	
19.480	-0.152	0.005	
19.485	0.149	-0.010	
19.490	-0.022	-0.010	
19.495	-0.199	-0.012	
19.500	0.067	-0.027	
19.505	0.128	-0.027	
19.510	-0.150	-0.014	
19.515	0.027	-0.011	
19.520	0.241	-0.001	
19.525	-0.112	0.022	
19.530	-0.101	0.026	
19.535	0.259	0.020	
19.540	0.007	0.033	
19.545	-0.165	0.039	
19.550	0.091	0.024	
19.555	0.094	0.017	
19.560	-0.147	0.017	
19.565	-0.028	0.003	
19.570	0.194	-0.005	
19.575	-0.168	0.001	
19.580	-0.165	-0.010	
19.585	0.163	-0.030	
19.590	-0.038	-0.028	
19.595	-0.187	-0.027	
19.600	0.064	-0.037	
19.605	0.079	-0.034	
19.610	-0.197	-0.026	
19.615	-0.057	-0.034	
19.620	0.162	-0.038	
19.625	-0.155	-0.028	
19.630	-0.171	-0.033	
19.635	0.082	-0.048	
19.640	-0.090	-0.051	
19.645	-0.219	-0.058	
19.650	-0.025	-0.076	
19.655	0.044	-0.081	
19.660	-0.080	-0.070	
19.665	0.130	-0.050	
19.670	0.322	-0.008	
19.675	-0.038	0.048	
19.680	-0.072	0.074	
19.685	0.235	0.076	
19.690	0.003	0.082	
19.695	-0.150	0.073	
19.700	0.079	0.046	
19.705	0.090	0.028	
19.710	-0.182	0.018	
19.715	-0.098	-0.008	
19.720	0.183	-0.028	
19.725	-0.115	-0.025	
19.730	-0.129	-0.028	
19.735	0.145	-0.034	
19.740	-0.048	-0.026	
19.745	-0.196	-0.024	
19.750	0.046	-0.036	
19.755	0.035	-0.039	
19.760	-0.210	-0.038	
19.765	-0.090	-0.052	
19.770	0.163	-0.060	
19.775	-0.139	-0.048	
19.780	-0.124	-0.045	
19.785	0.177	-0.044	
19.790	-0.074	-0.029	
19.795	-0.226	-0.025	
19.800	0.003	-0.043	
19.805	0.059	-0.051	
19.810	-0.199	-0.049	
19.815	-0.058	-0.058	
19.820	0.194	-0.057	
19.825	-0.156	-0.038	
19.830	-0.181	-0.035	
19.835	0.097	-0.047	
19.840	-0.087	-0.047	
19.845	-0.205	-0.052	
19.850	0.073	-0.064	
19.855	0.068	-0.058	
19.860	-0.199	-0.044	
19.865	-0.022	-0.045	
19.870	0.236	-0.037	
19.875	-0.104	-0.011	
19.880	-0.116	0.000	
19.885	0.185	-0.001	
19.890	-0.025	0.009	
19.895	-0.168	0.010	
19.900	0.117	-0.002	
19.905	0.052	-0.002	
19.910	-0.207	-0.001	
19.915	-0.046	-0.019	
19.920	0.183	-0.030	
19.925	-0.138	-0.021	
19.930	-0.112	-0.023	
19.935	0.266	-0.023	
19.940	0.081	0.004	
19.945	-0.132	0.030	
19.950	0.168	0.037	
19.955	0.090	0.047	
19.960	-0.173	0.051	
19.965	-0.031	0.031	
19.970	0.226	0.014	
19.975	-0.124	0.018	
19.980	-0.164	0.007	
19.985	0.119	-0.014	
19.990	-0.063	-0.022	
19.995	-0.190	-0.031	
20.000	0.044	-0.048	
20.005	0.007	-0.052	
20.010	-0.196	-0.050	
20.015	-0.045	-0.060	
20.020	0.171	-0.059	
20.025	-0.153	-0.041	
20.030	-0.150	-0.038	
20.035	0.162	-0.043	
20.040	-0.095	-0.034	
20.045	-0.239	-0.035	
20.050	-0.006	-0.056	
20.055	0.020	-0.067	
20.060	-0.216	-0.068	
20.065	-0.097	-0.080	
20.070	0.152	-0.083	
20.075	-0.104	-0.064	
20.080	-0.055	-0.048	
20.085	0.311	-0.027	
20.090	0.058	0.017	
20.095	-0.116	0.050	
20.100	0.211	0.059	
20.105	0.139	0.073	
20.110	-0.184	0.080	
20.115	-0.031	0.057	
20.120	0.177	0.032	
20.125	-0.153	0.022	
20.130	-0.164	-0.001	
20.135	0.125	-0.028	
20.140	-0.077	-0.036	
20.145	-0.207	-0.044	
20.150	0.114	-0.057	
20.155	0.085	-0.048	
20.160	-0.196	-0.031	
20.165	-0.045	-0.033	
20.170	0.104	-0.036	
20.175	-0.171	-0.031	
20.180	-0.148	-0.041	
20.185	0.163	-0.052	
20.190	-0.052	-0.043	
20.195	-0.211	-0.037	
20.200	0.038	-0.047	
20.205	-0.002	-0.050	
20.210	-0.236	-0.052	
20.215	-0.100	-0.069	
20.220	0.114	-0.080	
20.225	-0.171	-0.072	
20.230	-0.167	-0.073	
20.235	0.157	-0.077	
20.240	-0.083	-0.061	
20.245	-0.207	-0.052	
20.250	0.032	-0.059	
20.255	0.053	-0.056	
20.260	-0.184	-0.046	
20.265	-0.052	-0.050	
20.270	0.175	-0.048	
20.275	-0.150	-0.031	
20.280	-0.148	-0.029	
20.285	0.192	-0.035	
20.290	-0.029	-0.022	
20.295	-0.165	-0.013	
20.300	0.117	-0.017	
20.305	0.072	-0.010	
20.310	-0.197	-0.001	
20.315	-0.043	-0.014	
20.320	0.165	-0.023	
20.325	-0.116	-0.015	
20.330	-0.112	-0.017	
20.335	0.201	-0.021	
20.340	-0.026	-0.007	
20.345	-0.177	-0.000	
20.350	0.099	-0.010	
20.355	0.091	-0.007	
20.360	-0.116	0.003	
20.365	0.072	0.004	
20.370	0.244	0.016	
20.375	-0.103	0.040	
20.380	-0.090	0.043	
20.385	0.235	0.033	
20.390	-0.061	0.037	
20.395	-0.177	0.030	
20.400	0.064	0.004	
20.405	0.010	-0.011	
20.410	-0.216	-0.023	
20.415	-0.057	-0.046	
20.420	0.137	-0.058	
20.425	-0.182	-0.051	
20.430	-0.161	-0.057	
20.435	0.108	-0.067	
20.440	-0.110	-0.062	
20.445	-0.196	-0.063	
20.450	0.122	-0.069	
20.455	0.061	-0.054	
20.460	-0.216	-0.036	
20.465	-0.046	-0.039	
20.470	0.198	-0.039	
20.475	-0.158	-0.022	
20.480	-0.177	-0.024	
20.485	0.065	-0.041	
20.490	-0.118	-0.049	
20.495	-0.199	-0.061	
20.500	0.143	-0.073	
20.505	0.174	-0.053	
20.510	-0.115	-0.016	
20.515	0.157	0.009	
20.520	0.314	0.044	
20.525	-0.109	0.084	
20.530	-0.095	0.089	
20.535	0.250	0.072	
20.540	-0.025	0.068	
20.545	-0.187	0.054	
20.550	0.055	0.022	
20.555	0.023	-0.001	
20.560	-0.217	-0.017	
20.565	-0.071	-0.044	
20.570	0.101	-0.061	
20.575	-0.196	-0.061	
20.580	-0.181	-0.072	
20.585	0.151	-0.083	
20.590	-0.054	-0.069	
20.595	-0.185	-0.057	
20.600	0.065	-0.056	
20.605	0.041	-0.047	
20.610	-0.211	-0.036	
20.615	-0.090	-0.046	
20.620	0.082	-0.057	
20.625	-0.164	-0.056	
20.630	-0.159	-0.063	
20.635	0.111	-0.073	
20.640	-0.097	-0.065	
20.645	-0.197	-0.063	
20.650	0.041	-0.070	
20.655	-0.023	-0.068	
20.660	-0.234	-0.065	
20.665	-0.087	-0.078	
20.670	0.081	-0.086	
20.675	-0.185	-0.078	
20.680	-0.150	-0.081	
20.685	0.148	-0.083	
20.690	-0.118	-0.067	
20.695	-0.223	-0.061	
20.700	0.122	-0.068	
20.705	0.116	-0.052	
20.710	-0.182	-0.027	
20.715	-0.072	-0.024	
20.720	0.146	-0.027	
20.725	-0.127	-0.019	
20.730	-0.078	-0.020	
20.735	0.227	-0.019	
20.740	-0.046	-0.000	
20.745	-0.168	0.008	
20.750	0.120	-0.002	
20.755	0.042	-0.001	
20.760	-0.203	-0.000	
20.765	-0.019	-0.018	
20.770	0.198	-0.025	
20.775	-0.147	-0.013	
20.780	-0.130	-0.015	
20.785	0.136	-0.026	
20.790	-0.051	-0.022	
20.795	-0.150	-0.022	
20.800	0.128	-0.028	
20.805	0.079	-0.017	
20.810	-0.181	-0.004	
20.815	0.021	-0.008	
20.820	0.140	-0.009	
20.825	-0.135	-0.000	
20.830	-0.101	-0.006	
20.835	0.159	-0.016	
20.840	-0.124	-0.014	
20.845	-0.220	-0.025	
20.850	0.047	-0.049	
20.855	0.018	-0.057	
20.860	-0.223	-0.057	
20.865	-0.066	-0.069	
20.870	0.050	-0.077	
20.875	-0.168	-0.072	
20.880	-0.116	-0.075	
20.885	0.163	-0.074	
20.890	-0.116	-0.055	
20.895	-0.222	-0.049	
20.900	0.059	-0.060	
20.905	0.009	-0.059	
20.910	-0.216	-0.054	
20.915	-0.022	-0.062	
20.920	0.276	-0.054	
20.925	-0.057	-0.018	
20.930	0.026	0.012	
20.935	0.366	0.041	
20.940	0.076	0.086	
20.945	-0.100	0.112	
20.950	0.185	0.107	
20.955	0.065	0.100	
20.960	-0.210	0.083	
20.965	0.000	0.043	
20.970	0.186	0.014	
20.975	-0.144	0.008	
20.980	-0.127	-0.007	
20.985	0.145	-0.025	
20.990	-0.126	-0.027	
20.995	-0.225	-0.039	
21.000	0.160	-0.056	
21.005	0.085	-0.046	
21.010	-0.181	-0.026	
21.015	-0.038	-0.026	
21.020	0.125	-0.027	
21.025	-0.177	-0.021	
21.030	-0.110	-0.030	
21.035	0.183	-0.039	
21.040	-0.087	-0.028	
21.045	-0.181	-0.026	
21.050	0.094	-0.036	
21.055	-0.003	-0.034	
21.060	-0.249	-0.035	
21.065	-0.101	-0.056	
21.070	0.042	-0.075	
21.075	-0.220	-0.082	
21.080	-0.174	-0.096	
21.085	0.128	-0.106	
21.090	-0.051	-0.090	
21.095	-0.158	-0.071	
21.100	0.133	-0.060	
21.105	0.052	-0.036	
21.110	-0.216	-0.016	
21.115	-0.051	-0.024	
21.120	0.152	-0.031	
21.125	-0.155	-0.024	
21.130	-0.109	-0.028	
21.135	0.185	-0.034	
21.140	-0.075	-0.022	
21.145	-0.147	-0.017	
21.150	0.191	-0.020	
21.155	0.064	-0.004	
21.160	-0.194	0.011	
21.165	0.006	0.001	
21.170	0.149	-0.005	
21.175	-0.177	-0.002	
21.180	-0.113	-0.014	
21.185	0.203	-0.027	
21.190	-0.035	-0.017	
21.195	-0.171	-0.010	
21.200	0.133	-0.016	
21.205	0.061	-0.009	
21.210	-0.196	-0.001	
21.215	0.084	-0.009	
21.220	0.310	0.002	
21.225	-0.110	0.035	
21.230	-0.077	0.045	
21.235	0.287	0.043	
21.240	-0.029	0.055	
21.245	-0.194	0.053	
21.250	0.058	0.025	
21.255	-0.014	0.003	
21.260	-0.239	-0.018	
21.265	-0.064	-0.051	
21.270	0.107	-0.070	
21.275	-0.193	-0.068	
21.280	-0.110	-0.073	
21.285	0.146	-0.074	
21.290	-0.118	-0.058	
21.295	-0.174	-0.051	
21.300	0.117	-0.055	
21.305	0.018	-0.043	
21.310	-0.193	-0.031	
21.315	-0.016	-0.037	
21.320	0.084	-0.040	
21.325	-0.216	-0.037	
21.330	-0.190	-0.053	
21.335	0.055	-0.076	
21.340	-0.103	-0.082	
21.345	-0.122	-0.082	
21.350	0.313	-0.069	
21.355	0.197	-0.017	
21.360	-0.103	0.039	
21.365	0.140	0.066	
21.370	0.266	0.087	
21.375	-0.133	0.106	
21.380	-0.092	0.092	
21.385	0.235	0.064	
21.390	-0.029	0.055	
21.395	-0.171	0.040	
21.400	0.133	0.015	
21.405	0.047	0.006	
21.410	-0.203	0.001	
21.415	-0.016	-0.018	
21.420	0.137	-0.029	
21.425	-0.200	-0.026	
21.430	-0.138	-0.039	
21.435	0.217	-0.050	
21.440	-0.080	-0.036	
21.445	-0.200	-0.029	
21.450	0.075	-0.039	
21.455	-0.035	-0.041	
21.460	-0.225	-0.044	
21.465	-0.045	-0.062	
21.470	0.119	-0.069	
21.475	-0.219	-0.060	
21.480	-0.135	-0.066	
21.485	0.172	-0.071	
21.490	-0.093	-0.055	
21.495	-0.184	-0.046	
21.500	0.065	-0.052	
21.505	-0.037	-0.049	
21.510	-0.226	-0.049	
21.515	-0.043	-0.065	
21.520	0.087	-0.071	
21.525	-0.213	-0.065	
21.530	-0.130	-0.071	
21.535	0.105	-0.078	
21.540	-0.158	-0.071	
21.545	-0.177	-0.072	
21.550	0.137	-0.077	
21.555	0.047	-0.058	
21.560	-0.199	-0.037	
21.565	-0.051	-0.038	
21.570	0.114	-0.040	
21.575	-0.148	-0.032	
21.580	-0.104	-0.036	
21.585	0.203	-0.038	
21.590	-0.077	-0.022	
21.595	-0.156	-0.015	
21.600	0.226	-0.016	
21.605	0.027	0.001	
21.610	-0.203	0.013	
21.615	-0.003	-0.001	
21.620	0.203	-0.008	
21.625	-0.127	0.002	
21.630	-0.074	0.001	
21.635	0.198	-0.003	
21.640	-0.081	0.007	
21.645	-0.145	0.005	
21.650	0.166	-0.006	
21.655	0.081	0.002	
21.660	-0.174	0.013	
21.665	-0.040	0.001	
21.670	0.085	-0.012	
21.675	-0.194	-0.020	
21.680	-0.152	-0.041	
21.685	0.143	-0.060	
21.690	-0.110	-0.057	
21.695	-0.171	-0.057	
21.700	0.111	-0.062	
21.705	-0.023	-0.052	
21.710	-0.237	-0.045	
21.715	-0.019	-0.057	
21.720	0.097	-0.061	
21.725	-0.187	-0.052	
21.730	-0.107	-0.056	
21.735	0.122	-0.060	
21.740	-0.155	-0.052	
21.745	-0.231	-0.058	
21.750	0.044	-0.076	
21.755	-0.006	-0.078	
21.760	-0.219	-0.073	
21.765	0.007	-0.078	
21.770	0.241	-0.064	
21.775	-0.100	-0.027	
21.780	-0.017	-0.003	
21.785	0.316	0.018	
21.790	-0.034	0.052	
21.795	-0.155	0.063	
21.800	0.140	0.048	
21.805	0.032	0.039	
21.810	-0.216	0.026	
21.815	-0.035	-0.004	
21.820	0.117	-0.027	
21.825	-0.194	-0.032	
21.830	-0.116	-0.047	
21.835	0.244	-0.054	
21.840	-0.074	-0.034	
21.845	-0.167	-0.021	
21.850	0.091	-0.025	
21.855	-0.013	-0.022	
21.860	-0.200	-0.023	
21.865	-0.011	-0.039	
21.870	0.139	-0.043	
21.875	-0.164	-0.033	
21.880	-0.141	-0.037	
21.885	0.120	-0.047	
21.890	-0.129	-0.045	
21.895	-0.207	-0.051	
21.900	0.090	-0.066	
21.905	0.070	-0.059	
21.910	-0.196	-0.043	
21.915	-0.006	-0.042	
21.920	0.101	-0.039	
21.925	-0.190	-0.030	
21.930	-0.107	-0.038	
21.935	0.128	-0.048	
21.940	-0.129	-0.043	
21.945	-0.194	-0.047	
21.950	0.160	-0.057	
21.955	-0.032	-0.047	
21.960	-0.231	-0.040	
21.965	-0.028	-0.053	
21.970	0.105	-0.058	
21.975	-0.174	-0.049	
21.980	-0.112	-0.052	
21.985	0.211	-0.053	
21.990	-0.066	-0.032	
21.995	-0.156	-0.020	
22.000	0.159	-0.020	
22.005	0.007	-0.009	
22.010	-0.194	-0.002	
22.015	0.021	-0.016	
22.020	0.131	-0.020	
22.025	-0.144	-0.012	
22.030	-0.023	-0.014	
22.035	0.197	-0.012	
22.040	-0.112	0.003	
22.045	-0.168	0.001	
22.050	0.160	-0.014	
22.055	0.053	-0.009	
22.060	-0.199	-0.002	
22.065	0.036	-0.012	
22.070	0.223	-0.011	
22.075	-0.132	0.008	
22.080	-0.045	0.012	
22.085	0.233	0.012	
22.090	-0.090	0.026	
22.095	-0.158	0.022	
22.100	0.093	0.002	
22.105	-0.040	-0.009	
22.110	-0.234	-0.022	
22.115	-0.009	-0.049	
22.120	0.108	-0.060	
22.125	-0.190	-0.053	
22.130	-0.133	-0.059	
22.135	0.186	-0.063	
22.140	-0.104	-0.047	
22.145	-0.194	-0.041	
22.150	0.124	-0.047	
22.155	0.026	-0.038	
22.160	-0.219	-0.028	
22.165	-0.061	-0.040	
22.170	0.053	-0.052	
22.175	-0.193	-0.055	
22.180	-0.104	-0.066	
22.185	0.282	-0.065	
22.190	-0.028	-0.033	
22.195	-0.107	-0.005	
22.200	0.272	0.011	
22.205	0.113	0.042	
22.210	-0.173	0.064	
22.215	0.049	0.055	
22.220	0.198	0.046	
22.225	-0.162	0.046	
22.230	-0.097	0.027	
22.235	0.175	0.005	
22.240	-0.107	-0.000	
22.245	-0.162	-0.012	
22.250	0.166	-0.028	
22.255	0.021	-0.022	
22.260	-0.181	-0.013	
22.265	0.046	-0.020	
22.270	0.084	-0.020	
22.275	-0.179	-0.015	
22.280	-0.083	-0.026	
22.285	0.157	-0.035	
22.290	-0.122	-0.028	
22.295	-0.174	-0.032	
22.300	0.124	-0.044	
22.305	-0.025	-0.039	
22.310	-0.193	-0.035	
22.315	0.001	-0.046	
22.320	0.090	-0.047	
22.325	-0.176	-0.039	
22.330	-0.113	-0.045	
22.335	0.188	-0.050	
22.340	-0.081	-0.034	
22.345	-0.164	-0.027	
22.350	0.096	-0.033	
22.355	-0.037	-0.030	
22.360	-0.190	-0.031	
22.365	0.001	-0.045	
22.370	0.105	-0.047	
22.375	-0.181	-0.038	
22.380	-0.074	-0.042	
22.385	0.191	-0.042	
22.390	-0.115	-0.026	
22.395	-0.155	-0.022	
22.400	0.154	-0.028	
22.405	-0.005	-0.019	
22.410	-0.211	-0.015	
22.415	0.003	-0.029	
22.420	0.097	-0.036	
22.425	-0.152	-0.030	
22.430	-0.026	-0.033	
22.435	0.264	-0.025	
22.440	-0.090	0.002	
22.445	-0.176	0.011	
22.450	0.105	-0.002	
22.455	0.003	-0.007	
22.460	-0.179	-0.011	
22.465	0.059	-0.024	
22.470	0.154	-0.022	
22.475	-0.158	-0.008	
22.480	-0.061	-0.009	
22.485	0.195	-0.012	
22.490	-0.080	0.000	
22.495	-0.130	0.002	
22.500	0.127	-0.008	
22.505	0.003	-0.005	
22.510	-0.147	-0.003	
22.515	0.006	-0.015	
22.520	0.062	-0.022	
22.525	-0.211	-0.024	
22.530	-0.112	-0.043	
22.535	0.128	-0.058	
22.540	-0.148	-0.055	
22.545	-0.211	-0.061	
22.550	0.036	-0.077	
22.555	-0.057	-0.080	
22.560	-0.214	-0.080	
22.565	0.055	-0.085	
22.570	0.108	-0.072	
22.575	-0.197	-0.049	
22.580	-0.136	-0.048	
22.585	0.130	-0.054	
22.590	-0.130	-0.048	
22.595	-0.194	-0.051	
22.600	0.093	-0.062	
22.605	-0.005	-0.057	
22.610	-0.179	-0.049	
22.615	0.039	-0.050	
22.620	0.258	-0.035	
22.625	-0.061	0.002	
22.630	-0.003	0.026	
22.635	0.261	0.042	
22.640	-0.103	0.061	
22.645	-0.188	0.053	
22.650	0.081	0.021	
22.655	0.007	0.001	
22.660	-0.184	-0.014	
22.665	0.004	-0.035	
22.670	0.067	-0.043	
22.675	-0.203	-0.043	
22.680	-0.127	-0.056	
22.685	0.091	-0.069	
22.690	-0.153	-0.067	
22.695	-0.161	-0.071	
22.700	0.130	-0.076	
22.705	-0.037	-0.061	
22.710	-0.197	-0.050	
22.715	-0.034	-0.056	
22.720	0.078	-0.057	
22.725	-0.205	-0.051	
22.730	-0.097	-0.059	
22.735	0.160	-0.063	
22.740	-0.132	-0.049	
22.745	-0.216	-0.047	
22.750	0.030	-0.063	
22.755	-0.058	-0.069	
22.760	-0.225	-0.073	
22.765	-0.032	-0.087	
22.770	0.081	-0.087	
22.775	-0.202	-0.075	
22.780	-0.126	-0.075	
22.785	0.133	-0.077	
22.790	-0.116	-0.062	
22.795	-0.138	-0.054	
22.800	0.197	-0.050	
22.805	0.012	-0.026	
22.810	-0.226	-0.009	
22.815	-0.045	-0.022	
22.820	0.078	-0.035	
22.825	-0.174	-0.038	
22.830	-0.075	-0.049	
22.835	0.178	-0.051	
22.840	-0.115	-0.036	
22.845	-0.156	-0.031	
22.850	0.211	-0.033	
22.855	0.012	-0.015	
22.860	-0.184	-0.001	
22.865	0.036	-0.009	
22.870	0.124	-0.010	
22.875	-0.156	-0.003	
22.880	-0.034	-0.010	
22.885	0.252	-0.010	
22.890	-0.072	0.011	
22.895	-0.142	0.017	
22.900	0.172	0.008	
22.905	0.010	0.012	
22.910	-0.197	0.012	
22.915	0.084	-0.004	
22.920	0.206	-0.003	
22.925	-0.152	0.014	
22.930	-0.075	0.011	
22.935	0.151	0.001	
22.940	-0.086	0.003	
22.945	-0.118	-0.004	
22.950	0.131	-0.015	
22.955	-0.038	-0.013	
22.960	-0.177	-0.015	
22.965	0.015	-0.031	
22.970	0.088	-0.036	
22.975	-0.199	-0.032	
22.980	-0.086	-0.042	
22.985	0.169	-0.049	
22.990	-0.127	-0.037	
22.995	-0.152	-0.036	
23.000	0.188	-0.039	
23.005	-0.049	-0.026	
23.010	-0.196	-0.019	
23.015	0.017	-0.032	
23.020	0.041	-0.038	
23.025	-0.173	-0.038	
23.030	-0.013	-0.045	
23.035	0.372	-0.032	
23.040	0.012	0.014	
23.045	-0.051	0.051	
23.050	0.337	0.070	
23.055	0.120	0.102	
23.060	-0.153	0.118	
23.065	0.055	0.098	
23.070	0.186	0.077	
23.075	-0.153	0.065	
23.080	-0.043	0.039	
23.085	0.208	0.018	
23.090	-0.110	0.016	
23.095	-0.177	0.004	
23.100	0.097	-0.020	
23.105	-0.054	-0.030	
23.110	-0.185	-0.038	
23.115	0.041	-0.053	
23.120	0.097	-0.051	
23.125	-0.177	-0.037	
23.130	-0.084	-0.040	
23.135	0.096	-0.045	
23.140	-0.118	-0.040	
23.145	-0.109	-0.041	
23.150	0.130	-0.044	
23.155	-0.081	-0.034	
23.160	-0.240	-0.035	
23.165	-0.014	-0.056	
23.170	0.078	-0.065	
23.175	-0.205	-0.060	
23.180	-0.107	-0.067	
23.185	0.088	-0.073	
23.190	-0.173	-0.068	
23.195	-0.199	-0.073	
23.200	0.065	-0.086	
23.205	-0.046	-0.082	
23.210	-0.219	-0.076	
23.215	0.015	-0.080	
23.220	0.097	-0.072	
23.225	-0.168	-0.053	
23.230	-0.008	-0.045	
23.235	0.192	-0.032	
23.240	-0.155	-0.010	
23.245	-0.193	-0.011	
23.250	0.107	-0.030	
23.255	-0.025	-0.034	
23.260	-0.181	-0.035	
23.265	0.065	-0.044	
23.270	0.119	-0.037	
23.275	-0.202	-0.022	
23.280	-0.103	-0.029	
23.285	0.178	-0.037	
23.290	-0.106	-0.028	
23.295	-0.150	-0.026	
23.300	0.230	-0.029	
23.305	0.030	-0.009	
23.310	-0.188	0.007	
23.315	0.023	-0.001	
23.320	0.046	-0.010	
23.325	-0.197	-0.016	
23.330	-0.005	-0.032	
23.335	0.250	-0.032	
23.340	-0.130	-0.010	
23.345	-0.135	-0.003	
23.350	0.130	-0.012	
23.355	-0.019	-0.009	
23.360	-0.161	-0.009	
23.365	0.087	-0.019	
23.370	0.096	-0.016	
23.375	-0.196	-0.007	
23.380	-0.081	-0.019	
23.385	0.114	-0.033	
23.390	-0.164	-0.034	
23.395	-0.167	-0.046	
23.400	0.143	-0.060	
23.405	-0.080	-0.054	
23.410	-0.228	-0.052	
23.415	0.030	-0.065	
23.420	0.070	-0.064	
23.425	-0.210	-0.053	
23.430	-0.081	-0.058	
23.435	0.116	-0.062	
23.440	-0.155	-0.052	
23.445	-0.171	-0.055	
23.450	0.104	-0.064	
23.455	-0.061	-0.058	
23.460	-0.188	-0.054	
23.465	0.056	-0.060	
23.470	0.224	-0.044	
23.475	-0.092	-0.010	
23.480	0.041	0.013	
23.485	0.256	0.033	
23.490	-0.064	0.059	
23.495	-0.119	0.062	
23.500	0.163	0.045	
23.505	-0.019	0.037	
23.510	-0.182	0.024	
23.515	0.030	-0.003	
23.520	0.047	-0.020	
23.525	-0.202	-0.027	
23.530	-0.080	-0.046	
23.535	0.134	-0.058	
23.540	-0.136	-0.050	
23.545	-0.148	-0.050	
23.550	0.116	-0.056	
23.555	-0.063	-0.047	
23.560	-0.208	-0.044	
23.565	-0.057	-0.060	
23.570	-0.029	-0.072	
23.575	-0.208	-0.080	
23.580	-0.119	-0.095	
23.585	0.101	-0.101	
23.590	-0.185	-0.090	
23.595	-0.194	-0.089	
23.600	0.075	-0.096	
23.605	-0.110	-0.088	
23.610	-0.239	-0.086	
23.615	-0.020	-0.097	
23.620	-0.005	-0.098	
23.625	-0.254	-0.093	
23.630	-0.144	-0.104	
23.635	0.062	-0.112	
23.640	-0.196	-0.105	
23.645	-0.200	-0.107	
23.650	0.084	-0.112	
23.655	-0.069	-0.098	
23.660	-0.188	-0.085	
23.665	0.036	-0.081	
23.670	0.017	-0.069	
23.675	-0.232	-0.058	
23.680	-0.101	-0.067	
23.685	0.220	-0.069	
23.690	-0.069	-0.045	
23.695	-0.133	-0.027	
23.700	0.140	-0.022	
23.705	-0.011	-0.010	
23.710	-0.167	-0.004	
23.715	0.029	-0.015	
23.720	0.067	-0.019	
23.725	-0.176	-0.019	
23.730	-0.098	-0.033	
23.735	0.140	-0.044	
23.740	-0.136	-0.039	
23.745	-0.118	-0.041	
23.750	0.183	-0.044	
23.755	-0.060	-0.028	
23.760	-0.203	-0.021	
23.765	0.061	-0.033	
23.770	0.124	-0.031	
23.775	-0.139	-0.016	
23.780	-0.003	-0.013	
23.785	0.203	-0.007	
23.790	-0.115	0.011	
23.795	-0.075	0.013	
23.800	0.221	0.009	
23.805	-0.052	0.021	
23.810	-0.231	0.017	
23.815	-0.034	-0.013	
23.820	0.021	-0.038	
23.825	-0.217	-0.053	
23.830	-0.097	-0.074	
23.835	0.111	-0.085	
23.840	-0.174	-0.077	
23.845	-0.168	-0.077	
23.850	0.099	-0.082	
23.855	-0.101	-0.073	
23.860	-0.207	-0.069	
23.865	0.055	-0.076	
23.870	0.101	-0.065	
23.875	-0.176	-0.044	
23.880	-0.055	-0.040	
23.885	0.133	-0.037	
23.890	-0.177	-0.028	
23.895	-0.188	-0.037	
23.900	0.075	-0.057	
23.905	-0.058	-0.060	
23.910	-0.170	-0.061	
23.915	0.218	-0.058	
23.920	0.269	-0.021	
23.925	-0.078	0.032	
23.930	0.062	0.060	
23.935	0.253	0.077	
23.940	-0.100	0.093	
23.945	-0.147	0.079	
23.950	0.156	0.047	
23.955	-0.049	0.027	
23.960	-0.174	0.008	
23.965	0.148	-0.015	
23.970	0.091	-0.014	
23.975	-0.220	-0.005	
23.980	-0.118	-0.022	
23.985	0.072	-0.044	
23.990	-0.170	-0.053	
23.995	-0.167	-0.068	
24.000	0.116	-0.081	
24.005	-0.057	-0.072	
24.010	-0.211	-0.064	
24.015	0.017	-0.069	
24.020	0.046	-0.065	
24.025	-0.225	-0.057	
24.030	-0.087	-0.065	
24.035	0.134	-0.069	
24.040	-0.168	-0.058	
24.045	-0.162	-0.058	
24.050	0.114	-0.065	
24.055	-0.064	-0.057	
24.060	-0.200	-0.052	
24.065	0.035	-0.060	
24.070	0.049	-0.056	
24.075	-0.207	-0.048	
24.080	-0.098	-0.056	
24.085	0.097	-0.064	
24.090	-0.176	-0.060	
24.095	-0.164	-0.066	
24.100	0.130	-0.074	
24.105	-0.054	-0.062	
24.110	-0.194	-0.053	
24.115	0.061	-0.056	
24.120	0.010	-0.050	
24.125	-0.243	-0.046	
24.130	-0.069	-0.060	
24.135	0.188	-0.065	
24.140	-0.071	-0.045	
24.145	-0.058	-0.027	
24.150	0.212	-0.012	
24.155	-0.025	0.013	
24.160	-0.194	0.022	
24.165	0.024	0.004	
24.170	0.064	-0.009	
24.175	-0.182	-0.015	
24.180	-0.037	-0.031	
24.185	0.209	-0.035	
24.190	-0.132	-0.019	
24.195	-0.152	-0.017	
24.200	0.188	-0.025	
24.205	-0.031	-0.015	
24.210	-0.155	-0.008	
24.215	0.140	-0.013	
24.220	0.136	-0.001	
24.225	-0.153	0.017	
24.230	0.018	0.016	
24.235	0.276	0.020	
24.240	-0.101	0.040	
24.245	-0.142	0.039	
24.250	0.088	0.018	
24.255	-0.075	0.002	
24.260	-0.210	-0.019	
24.265	0.021	-0.047	
24.270	0.036	-0.058	
24.275	-0.216	-0.059	
24.280	-0.078	-0.070	
24.285	0.094	-0.075	
24.290	-0.197	-0.068	
24.295	-0.165	-0.073	
24.300	0.156	-0.080	
24.305	-0.075	-0.065	
24.310	-0.252	-0.057	
24.315	0.047	-0.067	
24.320	0.101	-0.062	
24.325	-0.202	-0.046	
24.330	-0.103	-0.049	
24.335	0.099	-0.055	
24.340	-0.173	-0.052	
24.345	-0.185	-0.060	
24.350	0.113	-0.073	
24.355	0.032	-0.063	
24.360	-0.133	-0.044	
24.365	0.145	-0.031	
24.370	0.162	-0.004	
24.375	-0.147	0.025	
24.380	-0.048	0.026	
24.385	0.136	0.017	
24.390	-0.185	0.011	
24.395	-0.168	-0.012	
24.400	0.122	-0.040	
24.405	-0.080	-0.047	
24.410	-0.225	-0.053	
24.415	0.026	-0.070	
24.420	0.059	-0.070	
24.425	-0.202	-0.060	
24.430	-0.051	-0.063	
24.435	0.131	-0.060	
24.440	-0.168	-0.046	
24.445	-0.170	-0.048	
24.450	0.058	-0.060	
24.455	-0.109	-0.063	
24.460	-0.203	-0.070	
24.465	0.067	-0.081	
24.470	-0.013	-0.075	
24.475	-0.254	-0.068	
24.480	-0.126	-0.082	
24.485	0.061	-0.094	
24.490	-0.138	-0.089	
24.495	-0.133	-0.086	
24.500	0.120	-0.082	
24.505	-0.100	-0.065	
24.510	-0.203	-0.057	
24.515	0.026	-0.065	
24.520	-0.026	-0.065	
24.525	-0.260	-0.066	
24.530	-0.113	-0.085	
24.535	0.101	-0.097	
24.540	-0.176	-0.088	
24.545	-0.162	-0.087	
24.550	0.087	-0.090	
24.555	-0.106	-0.079	
24.560	-0.112	-0.070	
24.565	0.221	-0.057	
24.570	0.146	-0.019	
24.575	-0.164	0.020	
24.580	-0.042	0.025	
24.585	0.124	0.017	
24.590	-0.156	0.012	
24.595	-0.165	-0.009	
24.600	0.119	-0.034	
24.605	-0.074	-0.041	
24.610	-0.205	-0.047	
24.615	0.070	-0.061	
24.620	0.059	-0.056	
24.625	-0.165	-0.043	
24.630	-0.013	-0.041	
24.635	0.160	-0.034	
24.640	-0.181	-0.019	
24.645	-0.139	-0.023	
24.650	0.181	-0.034	
24.655	-0.057	-0.025	
24.660	-0.181	-0.022	
24.665	0.097	-0.031	
24.670	0.055	-0.026	
24.675	-0.187	-0.018	
24.680	-0.016	-0.026	
24.685	0.073	-0.032	
24.690	-0.162	-0.031	
24.695	-0.133	-0.042	
24.700	0.175	-0.051	
24.705	-0.078	-0.040	
24.710	-0.210	-0.036	
24.715	0.015	-0.050	
24.720	0.027	-0.054	
24.725	-0.208	-0.053	
24.730	-0.058	-0.063	
24.735	0.201	-0.062	
24.740	-0.152	-0.041	
24.745	-0.135	-0.034	
24.750	0.134	-0.038	
24.755	-0.133	-0.033	
24.760	-0.237	-0.041	
24.765	-0.009	-0.066	
24.770	-0.042	-0.080	
24.775	-0.239	-0.087	
24.780	-0.057	-0.101	
24.785	0.152	-0.099	
24.790	-0.124	-0.074	
24.795	-0.090	-0.056	
24.800	0.246	-0.040	
24.805	0.000	-0.006	
24.810	-0.129	0.017	
24.815	0.208	0.023	
24.820	0.082	0.039	
24.825	-0.220	0.046	
24.830	-0.080	0.021	
24.835	0.143	-0.006	
24.840	-0.164	-0.016	
24.845	-0.109	-0.032	
24.850	0.217	-0.041	
24.855	-0.083	-0.027	
24.860	-0.210	-0.022	
24.865	0.093	-0.035	
24.870	0.030	-0.034	
24.875	-0.208	-0.030	
24.880	-0.058	-0.043	
24.885	0.157	-0.049	
24.890	-0.165	-0.039	
24.895	-0.159	-0.042	
24.900	0.127	-0.052	
24.905	-0.084	-0.047	
24.910	-0.188	-0.047	
24.915	0.108	-0.054	
24.920	0.079	-0.043	
24.925	-0.194	-0.026	
24.930	-0.029	-0.029	
24.935	0.220	-0.026	
24.940	-0.135	-0.007	
24.945	-0.126	-0.005	
24.950	0.178	-0.012	
24.955	-0.101	-0.008	
24.960	-0.222	-0.015	
24.965	0.055	-0.039	
24.970	-0.013	-0.049	
24.975	-0.243	-0.055	
24.980	0.017	-0.070	
24.985	0.218	-0.064	
24.990	-0.135	-0.035	
24.995	-0.139	-0.023	
25.000	0.178	-0.023	
25.005	-0.023	-0.010	
25.010	-0.139	-0.002	
25.015	0.111	-0.007	
25.020	0.052	-0.002	
25.025	-0.187	0.003	
25.030	-0.008	-0.011	
25.035	0.194	-0.016	
25.040	-0.126	-0.004	
25.045	-0.083	-0.004	
25.050	0.247	-0.005	
25.055	0.000	0.014	
25.060	-0.124	0.027	
25.065	0.206	0.026	
25.070	0.116	0.040	
25.075	-0.193	0.050	
25.080	0.006	0.034	
25.085	0.181	0.020	
25.090	-0.158	0.019	
25.095	-0.072	0.005	
25.100	0.287	-0.003	
25.105	-0.008	0.016	
25.110	-0.135	0.029	
25.115	0.223	0.027	
25.120	0.152	0.043	
25.125	-0.159	0.060	
25.130	0.044	0.051	
25.135	0.194	0.043	
25.140	-0.116	0.046	
25.145	-0.101	0.032	
25.150	0.212	0.015	
25.155	-0.071	0.015	
25.160	-0.188	0.007	
25.165	0.082	-0.015	
25.170	0.073	-0.021	
25.175	-0.184	-0.018	
25.180	-0.002	-0.027	
25.185	0.162	-0.027	
25.190	-0.148	-0.015	
25.195	-0.113	-0.017	
25.200	0.162	-0.025	
25.205	-0.092	-0.019	
25.210	-0.167	-0.021	
25.215	0.070	-0.035	
25.220	0.000	-0.036	
25.225	-0.213	-0.037	
25.230	0.038	-0.048	
25.235	0.240	-0.040	
25.240	-0.072	-0.008	
25.245	-0.009	0.013	
25.250	0.376	0.034	
25.255	0.068	0.076	
25.260	-0.145	0.099	
25.265	0.171	0.090	
25.270	0.096	0.082	
25.275	-0.193	0.071	
25.280	-0.025	0.038	
25.285	0.119	0.009	
25.290	-0.170	-0.005	
25.295	-0.083	-0.025	
25.300	0.208	-0.036	
25.305	-0.068	-0.023	
25.310	-0.153	-0.016	
25.315	0.127	-0.021	
25.320	0.024	-0.014	
25.325	-0.229	-0.010	
25.330	-0.043	-0.029	
25.335	0.209	-0.037	
25.340	-0.122	-0.023	
25.345	-0.104	-0.018	
25.350	0.224	-0.017	
25.355	-0.072	-0.001	
25.360	-0.177	0.002	
25.365	0.094	-0.012	
25.370	0.021	-0.015	
25.375	-0.197	-0.016	
25.380	-0.043	-0.033	
25.385	0.108	-0.044	
25.390	-0.208	-0.042	
25.395	-0.155	-0.055	
25.400	0.183	-0.067	
25.405	-0.077	-0.054	
25.410	-0.187	-0.045	
25.415	0.122	-0.047	
25.420	0.072	-0.034	
25.425	-0.197	-0.018	
25.430	0.009	-0.021	
25.435	0.174	-0.019	
25.440	-0.171	-0.006	
25.445	-0.141	-0.013	
25.450	0.236	-0.024	
25.455	-0.064	-0.012	
25.460	-0.164	-0.007	
25.465	0.131	-0.015	
25.470	0.041	-0.010	
25.475	-0.220	-0.006	
25.480	0.001	-0.021	
25.485	0.215	-0.025	
25.490	-0.080	-0.006	
25.495	-0.020	0.006	
25.500	0.253	0.017	
25.505	-0.068	0.039	
25.510	-0.185	0.039	
25.515	0.128	0.018	
25.520	0.056	0.010	
25.525	-0.177	0.007	
25.530	-0.025	-0.011	
25.535	0.157	-0.020	
25.540	-0.148	-0.015	
25.545	-0.064	-0.019	
25.550	0.264	-0.018	
25.555	-0.009	0.007	
25.560	-0.142	0.022	
25.565	0.159	0.020	
25.570	0.070	0.026	
25.575	-0.185	0.030	
25.580	0.020	0.013	
25.585	0.177	0.004	
25.590	-0.171	0.008	
25.595	-0.141	-0.006	
25.600	0.178	-0.024	
25.605	-0.103	-0.023	
25.610	-0.219	-0.030	
25.615	0.062	-0.050	
25.620	0.052	-0.052	
25.625	-0.182	-0.045	
25.630	0.003	-0.047	
25.635	0.215	-0.038	
25.640	-0.141	-0.013	
25.645	-0.122	-0.007	
25.650	0.166	-0.013	
25.655	-0.081	-0.007	
25.660	-0.181	-0.012	
25.665	0.166	-0.024	
25.670	0.137	-0.013	
25.675	-0.132	0.010	
25.680	0.079	0.017	
25.685	0.293	0.032	
25.690	-0.087	0.060	
25.695	0.024	0.069	
25.700	0.360	0.076	
25.705	0.042	0.102	
25.710	-0.139	0.109	
25.715	0.148	0.089	
25.720	0.024	0.071	
25.725	-0.214	0.048	
25.730	0.061	0.012	
25.735	0.221	-0.002	
25.740	-0.144	0.008	
25.745	-0.109	0.004	
25.750	0.177	-0.008	
25.755	-0.083	-0.005	
25.760	-0.187	-0.010	
25.765	0.125	-0.026	
25.770	0.036	-0.025	
25.775	-0.173	-0.018	
25.780	0.003	-0.026	
25.785	0.166	-0.025	
25.790	-0.129	-0.010	
25.795	-0.090	-0.010	
25.800	0.215	-0.012	
25.805	-0.078	0.001	
25.810	-0.193	0.001	
25.815	0.110	-0.015	
25.820	-0.014	-0.020	
25.825	-0.216	-0.025	
25.830	-0.013	-0.044	
25.835	0.099	-0.052	
25.840	-0.194	-0.046	
25.845	-0.104	-0.053	
25.850	0.165	-0.058	
25.855	-0.100	-0.044	
25.860	-0.141	-0.037	
25.865	0.189	-0.035	
25.870	0.007	-0.017	
25.875	-0.213	-0.005	
25.880	0.013	-0.017	
25.885	0.156	-0.021	
25.890	-0.174	-0.012	
25.895	-0.087	-0.019	
25.900	0.211	-0.025	
25.905	-0.087	-0.012	
25.910	-0.174	-0.010	
25.915	0.139	-0.021	
25.920	0.017	-0.017	
25.925	-0.203	-0.013	
25.930	0.013	-0.026	
25.935	0.232	-0.025	
25.940	-0.133	-0.004	
25.945	-0.072	0.002	
25.950	0.261	0.004	
25.955	-0.066	0.022	
25.960	-0.171	0.025	
25.965	0.200	0.012	
25.970	0.107	0.019	
25.975	-0.159	0.031	
25.980	0.059	0.024	
25.985	0.192	0.023	
25.990	-0.150	0.032	
25.995	-0.101	0.021	
26.000	0.186	0.004	
26.005	-0.084	0.003	
26.010	-0.165	-0.004	
26.015	0.124	-0.021	
26.020	0.036	-0.019	
26.025	-0.211	-0.016	
26.030	0.029	-0.028	
26.035	0.171	-0.028	
26.040	-0.173	-0.013	
26.045	-0.106	-0.017	
26.050	0.195	-0.024	
26.055	-0.135	-0.016	
26.060	-0.213	-0.023	
26.065	0.076	-0.044	
26.070	-0.022	-0.050	
26.075	-0.237	-0.053	
26.080	-0.066	-0.071	
26.085	0.044	-0.082	
26.090	-0.190	-0.079	
26.095	-0.132	-0.085	
26.100	0.201	-0.084	
26.105	-0.084	-0.059	
26.110	-0.174	-0.043	
26.115	0.214	-0.037	
26.120	0.131	-0.009	
26.125	-0.145	0.021	
26.130	0.146	0.032	
26.135	0.304	0.052	
26.140	-0.107	0.082	
26.145	-0.025	0.085	
26.150	0.253	0.075	
26.155	-0.074	0.075	
26.160	-0.155	0.059	
26.165	0.183	0.031	
26.170	0.065	0.024	
26.175	-0.228	0.021	
26.180	-0.055	-0.006	
26.185	0.094	-0.029	
26.190	-0.171	-0.037	
26.195	-0.110	-0.050	
26.200	0.142	-0.059	
26.205	-0.141	-0.051	
26.210	-0.200	-0.053	
26.215	0.140	-0.063	
26.220	0.035	-0.051	
26.225	-0.217	-0.036	
26.230	-0.017	-0.041	
26.235	0.111	-0.043	
26.240	-0.185	-0.034	
26.245	-0.110	-0.041	
26.250	0.208	-0.046	
26.255	-0.132	-0.032	
26.260	-0.210	-0.031	
26.265	0.067	-0.048	
26.270	-0.068	-0.053	
26.275	-0.243	-0.061	
26.280	-0.026	-0.080	
26.285	0.081	-0.085	
26.290	-0.173	-0.073	
26.295	-0.116	-0.071	
26.300	0.134	-0.070	
26.305	-0.133	-0.055	
26.310	-0.202	-0.054	
26.315	0.160	-0.060	
26.320	0.078	-0.043	
26.325	-0.171	-0.020	
26.330	-0.002	-0.018	
26.335	0.075	-0.018	
26.340	-0.216	-0.018	
26.345	-0.097	-0.035	
26.350	0.227	-0.046	
26.355	-0.090	-0.030	
26.360	-0.174	-0.023	
26.365	0.085	-0.031	
26.370	0.027	-0.029	
26.375	-0.174	-0.024	
26.380	0.039	-0.030	
26.385	0.131	-0.026	
26.390	-0.182	-0.013	
26.395	-0.092	-0.020	
26.400	0.208	-0.027	
26.405	-0.097	-0.015	
26.410	-0.173	-0.013	
26.415	0.156	-0.023	
26.420	0.032	-0.016	
26.425	-0.176	-0.008	
26.430	0.068	-0.014	
26.435	0.145	-0.009	
26.440	-0.174	0.003	
26.445	-0.045	-0.003	
26.450	0.217	-0.007	
26.455	-0.097	0.005	
26.460	-0.174	0.003	
26.465	0.111	-0.013	
26.470	-0.022	-0.018	
26.475	-0.214	-0.024	
26.480	-0.002	-0.043	
26.485	0.107	-0.050	
26.490	-0.203	-0.043	
26.495	-0.127	-0.052	
26.500	0.120	-0.062	
26.505	-0.155	-0.058	
26.510	-0.207	-0.063	
26.515	0.185	-0.072	
26.520	0.013	-0.055	
26.525	-0.205	-0.036	
26.530	0.030	-0.037	
26.535	0.090	-0.033	
26.540	-0.220	-0.026	
26.545	-0.145	-0.040	
26.550	0.091	-0.059	
26.555	-0.150	-0.063	
26.560	-0.187	-0.071	
26.565	0.165	-0.079	
26.570	0.093	-0.057	
26.575	-0.118	-0.025	
26.580	0.169	-0.004	
26.585	0.226	0.028	
26.590	-0.139	0.061	
26.595	-0.080	0.060	
26.600	0.194	0.043	
26.605	-0.075	0.038	
26.610	-0.152	0.023	
26.615	0.186	0.003	
26.620	-0.009	0.002	
26.625	-0.228	-0.001	
26.630	0.021	-0.023	
26.635	0.152	-0.031	
26.640	-0.173	-0.023	
26.645	-0.132	-0.029	
26.650	0.088	-0.043	
26.655	-0.147	-0.046	
26.660	-0.214	-0.059	
26.665	0.084	-0.077	
26.670	-0.038	-0.076	
26.675	-0.228	-0.071	
26.680	-0.051	-0.081	
26.685	0.094	-0.082	
26.690	-0.188	-0.069	
26.695	-0.121	-0.069	
26.700	0.122	-0.070	
26.705	-0.139	-0.059	
26.710	-0.193	-0.058	
26.715	0.082	-0.068	
26.720	-0.063	-0.064	
26.725	-0.255	-0.064	
26.730	-0.072	-0.082	
26.735	0.007	-0.094	
26.740	-0.239	-0.096	
26.745	-0.145	-0.108	
26.750	0.097	-0.114	
26.755	-0.148	-0.100	
26.760	-0.174	-0.092	
26.765	0.148	-0.087	
26.770	-0.028	-0.065	
26.775	-0.232	-0.048	
26.780	-0.023	-0.055	
26.785	0.139	-0.054	
26.790	-0.150	-0.039	
26.795	-0.049	-0.034	
26.800	0.229	-0.027	
26.805	-0.132	-0.005	
26.810	-0.173	-0.003	
26.815	0.171	-0.016	
26.820	0.010	-0.011	
26.825	-0.200	-0.007	
26.830	0.033	-0.020	
26.835	0.160	-0.022	
26.840	-0.187	-0.011	
26.845	-0.107	-0.018	
26.850	0.172	-0.029	
26.855	-0.136	-0.024	
26.860	-0.181	-0.030	
26.865	0.159	-0.044	
26.870	-0.028	-0.037	
26.875	-0.184	-0.031	
26.880	0.220	-0.030	
26.885	0.253	-0.001	
26.890	-0.141	0.041	
26.895	-0.016	0.052	
26.900	0.288	0.053	
26.905	-0.068	0.067	
26.910	-0.147	0.061	
26.915	0.154	0.038	
26.920	-0.023	0.026	
26.925	-0.202	0.011	
26.930	0.026	-0.017	
26.935	0.096	-0.030	
26.940	-0.217	-0.031	
26.945	-0.133	-0.048	
26.950	0.143	-0.063	
26.955	-0.121	-0.057	
26.960	-0.184	-0.057	
26.965	0.116	-0.063	
26.970	0.018	-0.052	
26.975	-0.182	-0.038	
26.980	0.024	-0.039	
26.985	0.079	-0.035	
26.990	-0.219	-0.028	
26.995	-0.119	-0.042	
27.000	0.148	-0.055	
27.005	-0.158	-0.050	
27.010	-0.203	-0.056	
27.015	0.137	-0.068	
27.020	0.053	-0.056	
27.025	-0.148	-0.035	
27.030	0.131	-0.024	
27.035	0.264	0.004	
27.040	-0.089	0.043	
27.045	-0.031	0.057	
27.050	0.209	0.056	
27.055	-0.113	0.058	
27.060	-0.161	0.040	
27.065	0.136	0.010	
27.070	-0.014	-0.002	
27.075	-0.220	-0.013	
27.080	0.030	-0.035	
27.085	0.094	-0.043	
27.090	-0.214	-0.038	
27.095	-0.090	-0.049	
27.100	0.133	-0.057	
27.105	-0.150	-0.049	
27.110	-0.213	-0.054	
27.115	0.055	-0.070	
27.120	-0.090	-0.074	
27.125	-0.229	-0.079	
27.130	0.041	-0.090	
27.135	0.042	-0.084	
27.140	-0.239	-0.070	
27.145	-0.155	-0.078	
27.150	0.078	-0.089	
27.155	-0.132	-0.084	
27.160	-0.179	-0.083	
27.165	0.094	-0.085	
27.170	-0.081	-0.074	
27.175	-0.239	-0.069	
27.180	-0.029	-0.081	
27.185	0.030	-0.084	
27.190	-0.228	-0.079	
27.195	-0.116	-0.087	
27.200	0.145	-0.090	
27.205	-0.164	-0.074	
27.210	-0.190	-0.070	
27.215	0.139	-0.073	
27.220	-0.031	-0.059	
27.225	-0.196	-0.047	
27.230	0.046	-0.049	
27.235	0.139	-0.040	
27.240	-0.177	-0.021	
27.245	-0.092	-0.022	
27.250	0.174	-0.027	
27.255	-0.100	-0.018	
27.260	-0.153	-0.018	
27.265	0.156	-0.026	
27.270	0.023	-0.017	
27.275	-0.176	-0.008	
27.280	0.055	-0.015	
27.285	0.119	-0.013	
27.290	-0.181	-0.005	
27.295	-0.043	-0.013	
27.300	0.238	-0.016	
27.305	-0.075	0.002	
27.310	-0.135	0.008	
27.315	0.238	0.005	
27.320	0.023	0.019	
27.325	-0.181	0.027	
27.330	0.067	0.014	
27.335	0.151	0.009	
27.340	-0.124	0.017	
27.345	-0.022	0.012	
27.350	0.236	0.010	
27.355	-0.078	0.025	
27.360	-0.107	0.026	
27.365	0.230	0.019	
27.370	0.035	0.030	
27.375	-0.188	0.035	
27.380	0.033	0.017	
27.385	0.148	0.006	
27.390	-0.181	0.006	
27.395	-0.089	-0.009	
27.400	0.172	-0.023	
27.405	-0.112	-0.019	
27.410	-0.136	-0.022	
27.415	0.211	-0.028	
27.420	0.030	-0.011	
27.425	-0.196	0.003	
27.430	0.059	-0.005	
27.435	0.137	-0.005	
27.440	-0.196	0.002	
27.445	-0.115	-0.012	
27.450	0.160	-0.029	
27.455	-0.142	-0.029	
27.460	-0.190	-0.038	
27.465	0.136	-0.053	
27.470	0.006	-0.047	
27.475	-0.145	-0.035	
27.480	0.200	-0.027	
27.485	0.284	0.007	
27.490	-0.121	0.052	
27.495	0.105	0.072	
27.500	0.336	0.088	
27.505	-0.019	0.114	
27.510	-0.116	0.115	
27.515	0.175	0.090	
27.520	-0.013	0.072	
27.525	-0.187	0.048	
27.530	0.075	0.013	
27.535	0.082	-0.005	
27.540	-0.211	-0.011	
27.545	-0.086	-0.032	
27.550	0.149	-0.047	
27.555	-0.136	-0.042	
27.560	-0.168	-0.046	
27.565	0.091	-0.056	
27.570	-0.095	-0.055	
27.575	-0.194	-0.058	
27.580	0.093	-0.066	
27.585	0.122	-0.053	
27.590	-0.182	-0.030	
27.595	-0.087	-0.028	
27.600	0.140	-0.032	
27.605	-0.174	-0.027	
27.610	-0.200	-0.039	
27.615	0.084	-0.060	
27.620	-0.068	-0.064	
27.625	-0.223	-0.067	
27.630	-0.008	-0.080	
27.635	0.052	-0.080	
27.640	-0.231	-0.072	
27.645	-0.103	-0.078	
27.650	0.137	-0.081	
27.655	-0.132	-0.065	
27.660	-0.177	-0.059	
27.665	0.134	-0.062	
27.670	-0.006	-0.048	
27.675	-0.193	-0.035	
27.680	0.081	-0.037	
27.685	0.110	-0.027	
27.690	-0.202	-0.013	
27.695	-0.086	-0.021	
27.700	0.152	-0.031	
27.705	-0.161	-0.028	
27.710	-0.188	-0.038	
27.715	0.185	-0.052	
27.720	-0.011	-0.041	
27.725	-0.225	-0.031	
27.730	0.046	-0.040	
27.735	0.145	-0.036	
27.740	-0.152	-0.019	
27.745	0.029	-0.013	
27.750	0.230	-0.002	
27.755	-0.139	0.021	
27.760	-0.162	0.018	
27.765	0.169	-0.000	
27.770	-0.013	-0.002	
27.775	-0.202	-0.005	
27.780	0.035	-0.023	
27.785	0.081	-0.030	
27.790	-0.181	-0.027	
27.795	-0.061	-0.037	
27.800	0.200	-0.039	
27.805	-0.097	-0.022	
27.810	-0.124	-0.015	
27.815	0.209	-0.015	
27.820	0.015	0.002	
27.825	-0.185	0.013	
27.830	0.004	-0.001	
27.835	0.032	-0.014	
27.840	-0.211	-0.024	
27.845	-0.061	-0.046	
27.850	0.131	-0.057	
27.855	-0.171	-0.051	
27.860	-0.205	-0.058	
27.865	0.062	-0.074	
27.870	-0.057	-0.075	
27.875	-0.181	-0.072	
27.880	0.023	-0.076	
27.885	0.088	-0.066	
27.890	-0.194	-0.048	
27.895	-0.090	-0.049	
27.900	0.131	-0.051	
27.905	-0.181	-0.044	
27.910	-0.223	-0.053	
27.915	0.039	-0.074	
27.920	-0.083	-0.082	
27.925	-0.182	-0.085	
27.930	0.128	-0.085	
27.935	0.212	-0.056	
27.940	-0.106	-0.011	
27.945	0.039	0.015	
27.950	0.345	0.040	
27.955	0.029	0.079	
27.960	-0.043	0.101	
27.965	0.220	0.100	
27.970	-0.017	0.099	
27.975	-0.210	0.079	
27.980	0.012	0.035	
27.985	0.055	0.001	
27.990	-0.228	-0.021	
27.995	-0.110	-0.051	
28.000	0.117	-0.072	
28.005	-0.153	-0.070	
28.010	-0.173	-0.073	
28.015	0.116	-0.079	
28.020	-0.052	-0.067	
28.025	-0.237	-0.059	
28.030	-0.069	-0.072	
28.035	0.015	-0.081	
28.040	-0.182	-0.081	
28.045	-0.077	-0.086	
28.050	0.192	-0.079	
28.055	-0.133	-0.053	
28.060	-0.165	-0.041	
28.065	0.139	-0.043	
28.070	-0.014	-0.031	
28.075	-0.219	-0.025	
28.080	-0.005	-0.038	
28.085	0.030	-0.047	
28.090	-0.236	-0.051	
28.095	-0.135	-0.070	
28.100	0.097	-0.085	
28.105	-0.164	-0.082	
28.110	-0.164	-0.083	
28.115	0.204	-0.082	
28.120	0.013	-0.054	
28.125	-0.208	-0.029	
28.130	0.035	-0.029	
28.135	0.110	-0.024	
28.140	-0.205	-0.016	
28.145	-0.069	-0.025	
28.150	0.224	-0.031	
28.155	-0.133	-0.017	
28.160	-0.159	-0.016	
28.165	0.151	-0.026	
28.170	-0.029	-0.021	
28.175	-0.161	-0.018	
28.180	0.154	-0.022	
28.185	0.168	-0.006	
28.190	-0.185	0.018	
28.195	-0.089	0.012	
28.200	0.215	0.001	
28.205	-0.118	0.005	
28.210	-0.168	-0.002	
28.215	0.152	-0.020	
28.220	-0.038	-0.020	
28.225	-0.194	-0.022	
28.230	0.110	-0.033	
28.235	0.125	-0.026	
28.240	-0.177	-0.009	
28.245	-0.014	-0.010	
28.250	0.264	-0.006	
28.255	-0.101	0.016	
28.260	-0.115	0.021	
28.265	0.192	0.014	
28.270	-0.028	0.019	
28.275	-0.196	0.015	
28.280	0.017	-0.008	
28.285	0.026	-0.025	
28.290	-0.223	-0.035	
28.295	-0.078	-0.057	
28.300	0.125	-0.069	
28.305	-0.167	-0.062	
28.310	-0.185	-0.065	
28.315	0.073	-0.076	
28.320	-0.115	-0.075	
28.325	-0.254	-0.079	
28.330	0.003	-0.095	
28.335	0.059	-0.094	
28.340	-0.211	-0.081	
28.345	-0.061	-0.079	
28.350	0.224	-0.068	
28.355	-0.148	-0.039	
28.360	-0.208	-0.031	
28.365	0.075	-0.044	
28.370	-0.101	-0.049	
28.375	-0.225	-0.059	
28.380	0.094	-0.074	
28.385	0.171	-0.062	
28.390	-0.155	-0.031	
28.395	-0.054	-0.019	
28.400	0.236	-0.011	
28.405	-0.098	0.010	
28.410	-0.162	0.013	
28.415	0.136	-0.001	
28.420	-0.090	-0.007	
28.425	-0.255	-0.023	
28.430	0.009	-0.053	
28.435	0.128	-0.064	
28.440	-0.174	-0.053	
28.445	-0.058	-0.051	
28.450	0.195	-0.045	
28.455	-0.135	-0.024	
28.460	-0.158	-0.021	
28.465	0.085	-0.032	
28.470	-0.130	-0.037	
28.475	-0.258	-0.052	
28.480	0.013	-0.080	
28.485	0.035	-0.088	
28.490	-0.220	-0.082	
28.495	-0.104	-0.087	
