Vernier Format 2
ecg3.txt 10/18/2025 8:55:56
Run 1
Time	Potential	EKG	
T	P	E	
s	mV	mV	

0.000	-0.220	-0.010	
0.005	-0.035	-0.035	
0.010	0.441	-0.034	
0.015	-0.051	0.009	
0.020	-0.074	0.041	
0.025	0.516	0.064	
0.030	0.342	0.124	
0.035	-0.037	0.184	
0.040	0.592	0.219	
0.045	0.756	0.284	
0.050	0.156	0.368	
0.055	0.435	0.410	
0.060	0.831	0.441	
0.065	0.316	0.486	
0.070	0.189	0.495	
0.075	0.739	0.474	
0.080	0.342	0.469	
0.085	-0.168	0.438	
0.090	0.175	0.350	
0.095	0.142	0.257	
0.100	-0.353	0.169	
0.105	-0.272	0.056	
0.110	-0.031	-0.053	
0.115	-0.388	-0.130	
0.120	-0.489	-0.204	
0.125	-0.196	-0.274	
0.130	-0.338	-0.315	
0.135	-0.552	-0.342	
0.140	-0.258	-0.371	
0.145	-0.202	-0.375	
0.150	-0.512	-0.362	
0.155	-0.361	-0.362	
0.160	-0.126	-0.358	
0.165	-0.420	-0.338	
0.170	-0.491	-0.332	
0.175	-0.130	-0.339	
0.180	-0.268	-0.327	
0.185	-0.465	-0.313	
0.190	-0.089	-0.307	
0.195	-0.016	-0.278	
0.200	-0.396	-0.237	
0.205	-0.277	-0.222	
0.210	-0.058	-0.221	
0.215	-0.365	-0.214	
0.220	-0.445	-0.229	
0.225	-0.174	-0.259	
0.230	-0.375	-0.280	
0.235	-0.584	-0.309	
0.240	-0.312	-0.351	
0.245	-0.286	-0.376	
0.250	-0.573	-0.386	
0.255	-0.422	-0.405	
0.260	-0.222	-0.416	
0.265	-0.489	-0.407	
0.270	-0.495	-0.405	
0.275	-0.009	-0.398	
0.280	0.068	-0.342	
0.285	-0.133	-0.252	
0.290	0.276	-0.157	
0.295	-0.080	-0.066	
0.300	-0.679	-0.035	
0.305	-0.711	-0.112	
0.310	-0.590	-0.254	
0.315	-0.868	-0.404	
0.320	-0.853	-0.550	
0.325	-0.405	-0.657	
0.330	-0.434	-0.686	
0.335	-0.553	-0.658	
0.340	-0.193	-0.602	
0.345	-0.063	-0.510	
0.350	-0.398	-0.404	
0.355	-0.240	-0.328	
0.360	0.232	-0.259	
0.365	-0.159	-0.175	
0.370	-0.187	-0.114	
0.375	0.383	-0.070	
0.380	0.125	-0.003	
0.385	-0.232	0.049	
0.390	0.175	0.058	
0.395	0.365	0.074	
0.400	-0.130	0.104	
0.405	0.178	0.113	
0.410	0.686	0.138	
0.415	0.148	0.203	
0.420	0.105	0.248	
0.425	0.838	0.280	
0.430	0.620	0.354	
0.435	0.235	0.432	
0.440	0.851	0.480	
0.445	0.939	0.548	
0.450	0.198	0.615	
0.455	0.385	0.614	
0.460	0.664	0.576	
0.465	-0.049	0.527	
0.470	-0.202	0.423	
0.475	0.186	0.281	
0.480	-0.142	0.161	
0.485	-0.408	0.049	
0.490	-0.080	-0.063	
0.495	-0.029	-0.134	
0.500	-0.413	-0.170	
0.505	-0.315	-0.210	
0.510	-0.075	-0.243	
0.515	-0.402	-0.254	
0.520	-0.460	-0.274	
0.525	-0.121	-0.300	
0.530	-0.260	-0.302	
0.535	-0.456	-0.298	
0.540	-0.159	-0.302	
0.545	-0.055	-0.287	
0.550	-0.379	-0.256	
0.555	-0.216	-0.241	
0.560	0.198	-0.218	
0.565	-0.214	-0.168	
0.570	-0.277	-0.135	
0.575	0.189	-0.121	
0.580	-0.078	-0.091	
0.585	-0.362	-0.074	
0.590	-0.074	-0.093	
0.595	0.006	-0.108	
0.600	-0.398	-0.117	
0.605	-0.284	-0.149	
0.610	-0.060	-0.185	
0.615	-0.364	-0.204	
0.620	-0.430	-0.232	
0.625	-0.075	-0.262	
0.630	-0.228	-0.266	
0.635	-0.442	-0.264	
0.640	-0.152	-0.273	
0.645	-0.106	-0.266	
0.650	-0.414	-0.249	
0.655	-0.170	-0.246	
0.660	0.553	-0.208	
0.665	0.214	-0.098	
0.670	0.090	0.023	
0.675	0.327	0.112	
0.680	-0.306	0.155	
0.685	-0.735	0.101	
0.690	-0.555	-0.052	
0.695	-0.465	-0.224	
0.700	-0.721	-0.369	
0.705	-0.491	-0.483	
0.710	-0.127	-0.534	
0.715	-0.342	-0.511	
0.720	-0.321	-0.458	
0.725	0.250	-0.381	
0.730	0.058	-0.262	
0.735	-0.246	-0.149	
0.740	0.270	-0.074	
0.745	0.437	0.010	
0.750	-0.139	0.096	
0.755	0.140	0.134	
0.760	0.589	0.162	
0.765	0.094	0.211	
0.770	-0.003	0.232	
0.775	0.698	0.236	
0.780	0.467	0.280	
0.785	0.073	0.329	
0.790	0.673	0.351	
0.795	0.875	0.403	
0.800	0.340	0.482	
0.805	0.709	0.536	
0.810	1.213	0.601	
0.815	0.669	0.697	
0.820	0.548	0.759	
0.825	1.222	0.787	
0.830	0.907	0.836	
0.835	0.359	0.862	
0.840	0.852	0.830	
0.845	0.852	0.796	
0.850	0.101	0.754	
0.855	0.246	0.655	
0.860	0.594	0.540	
0.865	-0.048	0.448	
0.870	-0.199	0.333	
0.875	0.282	0.208	
0.880	0.006	0.125	
0.885	-0.321	0.060	
0.890	0.064	-0.009	
0.895	0.178	-0.042	
0.900	-0.304	-0.046	
0.905	-0.129	-0.064	
0.910	0.292	-0.074	
0.915	-0.179	-0.053	
0.920	-0.266	-0.048	
0.925	0.160	-0.062	
0.930	-0.043	-0.057	
0.935	-0.295	-0.054	
0.940	0.091	-0.068	
0.945	0.249	-0.056	
0.950	-0.246	-0.024	
0.955	-0.083	-0.019	
0.960	0.356	-0.015	
0.965	-0.162	0.011	
0.970	-0.263	0.011	
0.975	0.162	-0.015	
0.980	-0.061	-0.026	
0.985	-0.335	-0.039	
0.990	-0.032	-0.074	
0.995	0.064	-0.093	
1.000	-0.365	-0.098	
1.005	-0.220	-0.123	
1.010	0.208	-0.140	
1.015	-0.237	-0.125	
1.020	-0.312	-0.121	
1.025	0.136	-0.130	
1.030	-0.058	-0.115	
1.035	-0.269	-0.098	
1.040	0.389	-0.081	
1.045	0.673	-0.003	
1.050	0.026	0.117	
1.055	0.000	0.188	
1.060	0.044	0.191	
1.065	-0.465	0.140	
1.070	-0.628	0.019	
1.075	-0.358	-0.139	
1.080	-0.449	-0.275	
1.085	-0.540	-0.373	
1.090	-0.124	-0.429	
1.095	0.152	-0.407	
1.100	-0.222	-0.323	
1.105	-0.029	-0.236	
1.110	0.486	-0.141	
1.115	0.070	-0.021	
1.120	-0.009	0.070	
1.125	0.758	0.139	
1.130	0.576	0.244	
1.135	0.056	0.341	
1.140	0.597	0.385	
1.145	0.706	0.426	
1.150	0.137	0.466	
1.155	0.429	0.465	
1.160	0.955	0.469	
1.165	0.437	0.512	
1.170	0.290	0.537	
1.175	1.075	0.546	
1.180	0.901	0.604	
1.185	0.458	0.675	
1.190	1.057	0.718	
1.195	1.240	0.782	
1.200	0.638	0.862	
1.205	0.903	0.900	
1.210	1.431	0.932	
1.215	0.751	0.983	
1.220	0.504	0.986	
1.225	0.967	0.931	
1.230	0.521	0.869	
1.235	-0.034	0.769	
1.240	0.452	0.620	
1.245	0.542	0.497	
1.250	-0.126	0.410	
1.255	0.000	0.305	
1.260	0.429	0.211	
1.265	-0.100	0.161	
1.270	-0.177	0.109	
1.275	0.314	0.057	
1.280	0.073	0.045	
1.285	-0.217	0.042	
1.290	0.194	0.025	
1.295	0.380	0.038	
1.300	-0.161	0.073	
1.305	0.107	0.085	
1.310	0.579	0.104	
1.315	0.079	0.156	
1.320	-0.054	0.185	
1.325	0.518	0.187	
1.330	0.350	0.215	
1.335	-0.148	0.239	
1.340	0.343	0.224	
1.345	0.518	0.225	
1.350	-0.141	0.240	
1.355	0.007	0.215	
1.360	0.482	0.179	
1.365	-0.057	0.171	
1.370	-0.219	0.142	
1.375	0.249	0.090	
1.380	0.035	0.063	
1.385	-0.271	0.040	
1.390	0.143	0.004	
1.395	0.197	-0.004	
1.400	-0.298	0.004	
1.405	-0.188	-0.020	
1.410	0.214	-0.050	
1.415	-0.009	-0.044	
1.420	0.127	-0.019	
1.425	1.002	0.055	
1.430	0.643	0.209	
1.435	-0.168	0.344	
1.440	-0.116	0.355	
1.445	-0.199	0.268	
1.450	-0.654	0.122	
1.455	-0.550	-0.068	
1.460	-0.242	-0.240	
1.465	-0.414	-0.348	
1.470	-0.404	-0.404	
1.475	0.162	-0.407	
1.480	0.160	-0.329	
1.485	-0.184	-0.216	
1.490	0.337	-0.115	
1.495	0.649	0.009	
1.500	0.073	0.147	
1.505	0.313	0.239	
1.510	0.693	0.304	
1.515	0.076	0.362	
1.520	-0.016	0.362	
1.525	0.686	0.329	
1.530	0.519	0.338	
1.535	0.084	0.364	
1.540	0.588	0.368	
1.545	0.790	0.397	
1.550	0.247	0.449	
1.555	0.521	0.475	
1.560	1.089	0.510	
1.565	0.680	0.589	
1.570	0.570	0.658	
1.575	1.233	0.712	
1.580	1.007	0.793	
1.585	0.482	0.859	
1.590	0.938	0.867	
1.595	0.938	0.863	
1.600	0.180	0.840	
1.605	0.342	0.749	
1.610	0.706	0.639	
1.615	0.010	0.548	
1.620	-0.200	0.426	
1.625	0.255	0.282	
1.630	0.018	0.174	
1.635	-0.306	0.088	
1.640	-0.069	-0.001	
1.645	0.042	-0.063	
1.650	-0.355	-0.098	
1.655	-0.292	-0.141	
1.660	-0.014	-0.180	
1.665	-0.277	-0.194	
1.670	-0.379	-0.208	
1.675	-0.046	-0.227	
1.680	-0.167	-0.224	
1.685	-0.385	-0.216	
1.690	-0.092	-0.220	
1.695	0.078	-0.204	
1.700	-0.286	-0.169	
1.705	-0.148	-0.150	
1.710	0.253	-0.128	
1.715	-0.177	-0.086	
1.720	-0.274	-0.066	
1.725	0.099	-0.073	
1.730	-0.124	-0.072	
1.735	-0.420	-0.085	
1.740	-0.170	-0.128	
1.745	-0.115	-0.166	
1.750	-0.446	-0.193	
1.755	-0.367	-0.234	
1.760	-0.135	-0.272	
1.765	-0.416	-0.289	
1.770	-0.498	-0.311	
1.775	-0.161	-0.338	
1.780	-0.245	-0.337	
1.785	-0.506	-0.328	
1.790	-0.237	-0.332	
1.795	-0.014	-0.319	
1.800	-0.208	-0.275	
1.805	0.140	-0.216	
1.810	0.589	-0.117	
1.815	-0.197	0.005	
1.820	-0.535	0.049	
1.825	-0.423	-0.017	
1.830	-0.633	-0.139	
1.835	-0.931	-0.294	
1.840	-0.616	-0.460	
1.845	-0.445	-0.577	
1.850	-0.627	-0.626	
1.855	-0.408	-0.632	
1.860	-0.020	-0.586	
1.865	-0.258	-0.488	
1.870	-0.341	-0.390	
1.875	0.094	-0.309	
1.880	-0.011	-0.220	
1.885	-0.275	-0.144	
1.890	0.055	-0.104	
1.895	0.209	-0.063	
1.900	-0.228	-0.020	
1.905	-0.084	-0.010	
1.910	0.440	-0.002	
1.915	0.007	0.040	
1.920	-0.083	0.070	
1.925	0.580	0.092	
1.930	0.434	0.155	
1.935	-0.026	0.223	
1.940	0.524	0.257	
1.945	0.826	0.312	
1.950	0.340	0.397	
1.955	0.666	0.466	
1.960	1.147	0.544	
1.965	0.515	0.642	
1.970	0.243	0.684	
1.975	0.753	0.659	
1.980	0.533	0.630	
1.985	0.021	0.585	
1.990	0.408	0.500	
1.995	0.353	0.421	
2.000	-0.240	0.344	
2.005	-0.177	0.229	
2.010	0.079	0.107	
2.015	-0.310	0.011	
2.020	-0.413	-0.082	
2.025	-0.100	-0.169	
2.030	-0.248	-0.221	
2.035	-0.469	-0.254	
2.040	-0.190	-0.288	
2.045	-0.110	-0.295	
2.050	-0.436	-0.283	
2.055	-0.358	-0.287	
2.060	-0.081	-0.293	
2.065	-0.318	-0.280	
2.070	-0.375	-0.273	
2.075	0.018	-0.267	
2.080	-0.116	-0.236	
2.085	-0.365	-0.204	
2.090	-0.045	-0.192	
2.095	0.085	-0.167	
2.100	-0.303	-0.133	
2.105	-0.257	-0.127	
2.110	0.013	-0.138	
2.115	-0.321	-0.143	
2.120	-0.401	-0.167	
2.125	-0.104	-0.204	
2.130	-0.246	-0.224	
2.135	-0.471	-0.242	
2.140	-0.214	-0.271	
2.145	-0.132	-0.283	
2.150	-0.454	-0.279	
2.155	-0.367	-0.291	
2.160	-0.138	-0.304	
2.165	-0.410	-0.303	
2.170	-0.501	-0.314	
2.175	-0.148	-0.333	
2.180	-0.119	-0.324	
2.185	-0.144	-0.284	
2.190	0.437	-0.210	
2.195	0.409	-0.083	
2.200	-0.390	0.035	
2.205	-0.576	0.043	
2.210	-0.471	-0.054	
2.215	-0.740	-0.196	
2.220	-0.810	-0.357	
2.225	-0.445	-0.500	
2.230	-0.433	-0.576	
2.235	-0.584	-0.595	
2.240	-0.275	-0.581	
2.245	-0.110	-0.524	
2.250	-0.321	-0.437	
2.255	-0.184	-0.357	
2.260	0.224	-0.273	
2.265	-0.138	-0.176	
2.270	-0.245	-0.109	
2.275	0.266	-0.073	
2.280	0.175	-0.020	
2.285	-0.216	0.028	
2.290	0.236	0.045	
2.295	0.446	0.078	
2.300	-0.110	0.127	
2.305	0.116	0.143	
2.310	0.628	0.159	
2.315	0.134	0.207	
2.320	0.061	0.237	
2.325	0.855	0.259	
2.330	0.693	0.336	
2.335	0.163	0.422	
2.340	0.692	0.466	
2.345	0.988	0.519	
2.350	0.334	0.587	
2.355	0.482	0.611	
2.360	0.922	0.613	
2.365	0.212	0.618	
2.370	-0.144	0.562	
2.375	0.347	0.443	
2.380	0.027	0.329	
2.385	-0.318	0.217	
2.390	-0.095	0.089	
2.395	0.017	-0.013	
2.400	-0.382	-0.081	
2.405	-0.323	-0.149	
2.410	-0.060	-0.205	
2.415	-0.368	-0.232	
2.420	-0.442	-0.260	
2.425	-0.139	-0.290	
2.430	-0.262	-0.296	
2.435	-0.472	-0.297	
2.440	-0.194	-0.307	
2.445	-0.064	-0.298	
2.450	-0.349	-0.270	
2.455	-0.223	-0.251	
2.460	0.168	-0.225	
2.465	-0.202	-0.175	
2.470	-0.346	-0.144	
2.475	-0.006	-0.144	
2.480	-0.118	-0.140	
2.485	-0.367	-0.140	
2.490	-0.115	-0.159	
2.495	0.039	-0.164	
2.500	-0.407	-0.157	
2.505	-0.356	-0.177	
2.510	-0.057	-0.208	
2.515	-0.350	-0.223	
2.520	-0.443	-0.244	
2.525	-0.109	-0.272	
2.530	-0.188	-0.275	
2.535	-0.413	-0.267	
2.540	-0.171	-0.268	
2.545	-0.118	-0.260	
2.550	-0.453	-0.247	
2.555	-0.297	-0.256	
2.560	0.171	-0.254	
2.565	-0.071	-0.207	
2.570	-0.051	-0.147	
2.575	0.481	-0.076	
2.580	-0.055	0.013	
2.585	-0.579	0.044	
2.590	-0.552	-0.030	
2.595	-0.460	-0.160	
2.600	-0.747	-0.296	
2.605	-0.581	-0.426	
2.610	-0.268	-0.511	
2.615	-0.416	-0.530	
2.620	-0.379	-0.509	
2.625	0.070	-0.456	
2.630	0.000	-0.357	
2.635	-0.263	-0.251	
2.640	0.120	-0.172	
2.645	0.372	-0.085	
2.650	-0.162	0.006	
2.655	-0.028	0.051	
2.660	0.516	0.077	
2.665	0.088	0.126	
2.670	-0.055	0.156	
2.675	0.586	0.168	
2.680	0.377	0.212	
2.685	-0.081	0.253	
2.690	0.495	0.259	
2.695	0.783	0.292	
2.700	0.250	0.361	
2.705	0.512	0.411	
2.710	1.098	0.469	
2.715	0.661	0.567	
2.720	0.429	0.642	
2.725	1.164	0.684	
2.730	0.973	0.750	
2.735	0.363	0.805	
2.740	0.802	0.799	
2.745	0.900	0.780	
2.750	0.113	0.753	
2.755	0.156	0.659	
2.760	0.534	0.536	
2.765	-0.043	0.431	
2.770	-0.202	0.311	
2.775	0.292	0.187	
2.780	0.053	0.112	
2.785	-0.297	0.059	
2.790	0.050	-0.000	
2.795	0.246	-0.027	
2.800	-0.260	-0.023	
2.805	-0.179	-0.037	
2.810	0.192	-0.057	
2.815	-0.141	-0.053	
2.820	-0.249	-0.057	
2.825	0.302	-0.064	
2.830	0.160	-0.032	
2.835	-0.243	0.007	
2.840	0.159	0.017	
2.845	0.330	0.038	
2.850	-0.193	0.070	
2.855	-0.005	0.070	
2.860	0.541	0.073	
2.865	0.032	0.112	
2.870	-0.145	0.131	
2.875	0.374	0.122	
2.880	0.229	0.133	
2.885	-0.203	0.143	
2.890	0.114	0.119	
2.895	0.266	0.098	
2.900	-0.193	0.091	
2.905	-0.063	0.062	
2.910	0.356	0.038	
2.915	-0.138	0.043	
2.920	-0.220	0.031	
2.925	0.331	0.008	
2.930	0.064	0.018	
2.935	-0.287	0.028	
2.940	0.322	0.019	
2.945	0.880	0.068	
2.950	0.418	0.195	
2.955	0.417	0.320	
2.960	0.522	0.404	
2.965	-0.214	0.428	
2.970	-0.529	0.341	
2.975	-0.332	0.161	
2.980	-0.431	-0.032	
2.985	-0.617	-0.204	
2.990	-0.263	-0.341	
2.995	0.000	-0.397	
3.000	-0.297	-0.378	
3.005	-0.133	-0.332	
3.010	0.460	-0.253	
3.015	0.058	-0.129	
3.020	-0.089	-0.021	
3.025	0.620	0.059	
3.030	0.490	0.163	
3.035	-0.017	0.257	
3.040	0.570	0.303	
3.045	0.805	0.359	
3.050	0.107	0.425	
3.055	0.305	0.441	
3.060	0.900	0.442	
3.065	0.492	0.480	
3.070	0.284	0.511	
3.075	0.968	0.525	
3.080	0.846	0.576	
3.085	0.318	0.633	
3.090	0.887	0.653	
3.095	1.272	0.698	
3.100	0.635	0.779	
3.105	0.822	0.830	
3.110	1.385	0.871	
3.115	0.813	0.934	
3.120	0.460	0.952	
3.125	1.048	0.914	
3.130	0.742	0.879	
3.135	0.046	0.818	
3.140	0.441	0.696	
3.145	0.489	0.573	
3.150	-0.185	0.464	
3.155	-0.141	0.323	
3.160	0.217	0.183	
3.165	-0.246	0.082	
3.170	-0.411	-0.014	
3.175	-0.060	-0.111	
3.180	-0.130	-0.169	
3.185	-0.420	-0.200	
3.190	-0.159	-0.231	
3.195	-0.016	-0.238	
3.200	-0.349	-0.223	
3.205	-0.234	-0.218	
3.210	0.175	-0.205	
3.215	-0.193	-0.164	
3.220	-0.315	-0.138	
3.225	0.113	-0.132	
3.230	-0.048	-0.112	
3.235	-0.346	-0.096	
3.240	-0.061	-0.107	
3.245	0.142	-0.108	
3.250	-0.338	-0.094	
3.255	-0.257	-0.106	
3.260	0.050	-0.130	
3.265	-0.284	-0.138	
3.270	-0.420	-0.159	
3.275	-0.080	-0.196	
3.280	-0.188	-0.214	
3.285	-0.471	-0.226	
3.290	-0.225	-0.252	
3.295	-0.068	-0.264	
3.300	-0.420	-0.258	
3.305	-0.356	-0.265	
3.310	-0.081	-0.276	
3.315	-0.321	-0.269	
3.320	-0.312	-0.264	
3.325	0.432	-0.236	
3.330	0.463	-0.132	
3.335	-0.152	-0.001	
3.340	0.032	0.072	
3.345	-0.141	0.085	
3.350	-0.674	0.032	
3.355	-0.726	-0.101	
3.360	-0.515	-0.270	
3.365	-0.695	-0.417	
3.370	-0.672	-0.531	
3.375	-0.229	-0.594	
3.380	-0.208	-0.577	
3.385	-0.396	-0.510	
3.390	-0.049	-0.432	
3.395	0.220	-0.326	
3.400	-0.248	-0.207	
3.405	-0.124	-0.129	
3.410	0.447	-0.069	
3.415	-0.019	0.008	
3.420	-0.171	0.055	
3.425	0.446	0.072	
3.430	0.327	0.116	
3.435	-0.141	0.160	
3.440	0.266	0.166	
3.445	0.588	0.184	
3.450	0.012	0.226	
3.455	0.220	0.243	
3.460	0.799	0.264	
3.465	0.478	0.332	
3.470	0.336	0.400	
3.475	0.999	0.459	
3.480	0.881	0.552	
3.485	0.354	0.639	
3.490	0.878	0.678	
3.495	1.109	0.721	
3.500	0.376	0.769	
3.505	0.389	0.754	
3.510	0.776	0.697	
3.515	0.105	0.635	
3.520	-0.176	0.524	
3.525	0.301	0.376	
3.530	0.101	0.258	
3.535	-0.310	0.161	
3.540	-0.054	0.057	
3.545	0.017	-0.023	
3.550	-0.385	-0.077	
3.555	-0.304	-0.138	
3.560	-0.003	-0.189	
3.565	-0.271	-0.206	
3.570	-0.425	-0.221	
3.575	-0.071	-0.242	
3.580	-0.177	-0.243	
3.585	-0.416	-0.237	
3.590	-0.100	-0.241	
3.595	0.081	-0.224	
3.600	-0.362	-0.188	
3.605	-0.252	-0.177	
3.610	0.163	-0.171	
3.615	-0.200	-0.143	
3.620	-0.338	-0.129	
3.625	0.125	-0.133	
3.630	-0.025	-0.116	
3.635	-0.341	-0.098	
3.640	-0.127	-0.110	
3.645	-0.014	-0.123	
3.650	-0.390	-0.132	
3.655	-0.342	-0.165	
3.660	-0.090	-0.204	
3.665	-0.365	-0.227	
3.670	-0.462	-0.255	
3.675	-0.138	-0.288	
3.680	-0.232	-0.296	
3.685	-0.486	-0.295	
3.690	-0.265	-0.308	
3.695	-0.127	-0.310	
3.700	-0.381	-0.296	
3.705	-0.147	-0.282	
3.710	0.635	-0.225	
3.715	0.255	-0.092	
3.720	-0.199	0.034	
3.725	0.044	0.086	
3.730	-0.313	0.075	
3.735	-0.769	-0.006	
3.740	-0.633	-0.159	
3.745	-0.497	-0.322	
3.750	-0.724	-0.451	
3.755	-0.595	-0.549	
3.760	-0.179	-0.592	
3.765	-0.338	-0.563	
3.770	-0.376	-0.502	
3.775	0.145	-0.423	
3.780	0.073	-0.307	
3.785	-0.278	-0.192	
3.790	0.113	-0.118	
3.795	0.392	-0.044	
3.800	-0.193	0.033	
3.805	-0.100	0.061	
3.810	0.408	0.064	
3.815	0.047	0.089	
3.820	-0.081	0.104	
3.825	0.559	0.113	
3.830	0.405	0.163	
3.835	-0.054	0.218	
3.840	0.490	0.241	
3.845	0.851	0.290	
3.850	0.133	0.368	
3.855	0.356	0.406	
3.860	0.990	0.435	
3.865	0.515	0.500	
3.870	0.336	0.548	
3.875	1.005	0.572	
3.880	0.851	0.626	
3.885	0.198	0.671	
3.890	0.551	0.652	
3.895	0.621	0.611	
3.900	-0.156	0.554	
3.905	-0.165	0.430	
3.910	0.105	0.272	
3.915	-0.222	0.136	
3.920	-0.375	0.011	
3.925	-0.071	-0.100	
3.930	-0.147	-0.167	
3.935	-0.462	-0.207	
3.940	-0.208	-0.248	
3.945	-0.049	-0.265	
3.950	-0.414	-0.257	
3.955	-0.339	-0.263	
3.960	-0.017	-0.268	
3.965	-0.287	-0.251	
3.970	-0.408	-0.243	
3.975	0.004	-0.245	
3.980	-0.150	-0.226	
3.985	-0.431	-0.208	
3.990	-0.126	-0.214	
3.995	0.039	-0.207	
4.000	-0.390	-0.185	
4.005	-0.283	-0.188	
4.010	0.221	-0.188	
4.015	-0.174	-0.154	
4.020	-0.326	-0.130	
4.025	0.082	-0.129	
4.030	-0.092	-0.116	
4.035	-0.465	-0.114	
4.040	-0.262	-0.152	
4.045	-0.136	-0.194	
4.050	-0.440	-0.224	
4.055	-0.353	-0.260	
4.060	-0.022	-0.284	
4.065	-0.283	-0.275	
4.070	-0.443	-0.267	
4.075	-0.130	-0.274	
4.080	-0.126	-0.265	
4.085	-0.315	-0.244	
4.090	0.273	-0.211	
4.095	0.721	-0.112	
4.100	-0.003	0.037	
4.105	-0.182	0.127	
4.110	-0.164	0.124	
4.115	-0.562	0.050	
4.120	-0.798	-0.092	
4.125	-0.485	-0.267	
4.130	-0.442	-0.405	
4.135	-0.608	-0.490	
4.140	-0.292	-0.531	
4.145	0.047	-0.506	
4.150	-0.272	-0.422	
4.155	-0.155	-0.333	
4.160	0.409	-0.236	
4.165	0.042	-0.112	
4.170	-0.171	-0.015	
4.175	0.450	0.042	
4.180	0.319	0.111	
4.185	-0.148	0.167	
4.190	0.328	0.181	
4.195	0.600	0.205	
4.200	-0.037	0.248	
4.205	0.189	0.256	
4.210	0.800	0.266	
4.215	0.357	0.320	
4.220	0.131	0.364	
4.225	0.809	0.384	
4.230	0.730	0.438	
4.235	0.324	0.503	
4.240	0.805	0.543	
4.245	1.149	0.604	
4.250	0.437	0.686	
4.255	0.576	0.720	
4.260	1.115	0.728	
4.265	0.498	0.750	
4.270	0.101	0.725	
4.275	0.669	0.642	
4.280	0.478	0.571	
4.285	-0.124	0.500	
4.290	0.073	0.387	
4.295	0.181	0.269	
4.300	-0.313	0.167	
4.305	-0.272	0.053	
4.310	0.079	-0.049	
4.315	-0.252	-0.107	
4.320	-0.385	-0.153	
4.325	-0.075	-0.198	
4.330	-0.124	-0.214	
4.335	-0.414	-0.217	
4.340	-0.145	-0.228	
4.345	0.133	-0.219	
4.350	-0.330	-0.183	
4.355	-0.254	-0.168	
4.360	0.136	-0.162	
4.365	-0.214	-0.138	
4.370	-0.349	-0.131	
4.375	0.068	-0.142	
4.380	0.042	-0.129	
4.385	-0.306	-0.106	
4.390	-0.051	-0.103	
4.395	0.166	-0.094	
4.400	-0.333	-0.075	
4.405	-0.336	-0.090	
4.410	-0.040	-0.129	
4.415	-0.283	-0.157	
4.420	-0.434	-0.189	
4.425	-0.080	-0.227	
4.430	-0.190	-0.240	
4.435	-0.453	-0.244	
4.440	-0.174	-0.260	
4.445	0.064	-0.253	
4.450	-0.373	-0.223	
4.455	-0.329	-0.213	
4.460	0.042	-0.215	
4.465	-0.174	-0.195	
4.470	-0.171	-0.172	
4.475	0.664	-0.122	
4.480	0.449	-0.000	
4.485	-0.317	0.117	
4.490	-0.327	0.129	
4.495	-0.324	0.052	
4.500	-0.747	-0.075	
4.505	-0.723	-0.241	
4.510	-0.378	-0.397	
4.515	-0.469	-0.490	
4.520	-0.457	-0.527	
4.525	0.079	-0.508	
4.530	0.082	-0.415	
4.535	-0.260	-0.294	
4.540	0.084	-0.196	
4.545	0.415	-0.097	
4.550	-0.098	0.007	
4.555	0.107	0.072	
4.560	0.620	0.125	
4.565	0.119	0.195	
4.570	-0.124	0.228	
4.575	0.585	0.223	
4.580	0.576	0.254	
4.585	0.131	0.309	
4.590	0.707	0.350	
4.595	1.028	0.424	
4.600	0.354	0.526	
4.605	0.429	0.579	
4.610	1.065	0.604	
4.615	0.663	0.653	
4.620	0.525	0.691	
4.625	1.194	0.716	
4.630	1.029	0.779	
4.635	0.472	0.837	
4.640	0.976	0.848	
4.645	1.161	0.862	
4.650	0.314	0.876	
4.655	0.301	0.818	
4.660	0.643	0.711	
4.665	0.056	0.602	
4.670	-0.176	0.465	
4.675	0.252	0.309	
4.680	0.046	0.193	
4.685	-0.321	0.101	
4.690	-0.107	0.005	
4.695	0.065	-0.065	
4.700	-0.364	-0.103	
4.705	-0.315	-0.148	
4.710	-0.034	-0.190	
4.715	-0.272	-0.206	
4.720	-0.341	-0.218	
4.725	0.023	-0.227	
4.730	-0.095	-0.207	
4.735	-0.430	-0.187	
4.740	-0.135	-0.193	
4.745	0.192	-0.183	
4.750	-0.326	-0.148	
4.755	-0.275	-0.138	
4.760	0.152	-0.140	
4.765	-0.155	-0.122	
4.770	-0.272	-0.110	
4.775	0.065	-0.113	
4.780	-0.055	-0.103	
4.785	-0.352	-0.097	
4.790	-0.130	-0.117	
4.795	0.001	-0.134	
4.800	-0.434	-0.143	
4.805	-0.393	-0.179	
4.810	-0.061	-0.223	
4.815	-0.294	-0.241	
4.820	-0.495	-0.258	
4.825	-0.210	-0.288	
4.830	-0.210	-0.301	
4.835	-0.457	-0.302	
4.840	-0.203	-0.308	
4.845	0.172	-0.286	
4.850	-0.147	-0.223	
4.855	0.140	-0.150	
4.860	0.751	-0.045	
4.865	-0.025	0.089	
4.870	-0.453	0.150	
4.875	-0.329	0.095	
4.880	-0.527	-0.026	
4.885	-0.862	-0.184	
4.890	-0.599	-0.359	
4.895	-0.355	-0.490	
4.900	-0.520	-0.549	
4.905	-0.394	-0.559	
4.910	0.186	-0.512	
4.915	-0.077	-0.400	
4.920	-0.200	-0.278	
4.925	0.457	-0.168	
4.930	0.148	-0.043	
4.935	-0.234	0.050	
4.940	0.189	0.081	
4.945	0.542	0.113	
4.950	-0.025	0.165	
4.955	0.101	0.188	
4.960	0.614	0.201	
4.965	0.174	0.239	
4.970	-0.060	0.256	
4.975	0.670	0.250	
4.980	0.614	0.289	
4.985	0.023	0.343	
4.990	0.641	0.366	
4.995	1.058	0.419	
5.000	0.580	0.522	
5.005	0.707	0.611	
5.010	1.332	0.696	
5.015	0.935	0.808	
5.020	0.562	0.887	
5.025	1.123	0.909	
5.030	0.881	0.923	
5.035	0.101	0.897	
5.040	0.424	0.788	
5.045	0.528	0.657	
5.050	-0.158	0.533	
5.055	-0.107	0.378	
5.060	0.301	0.229	
5.065	-0.173	0.128	
5.070	-0.359	0.036	
5.075	-0.031	-0.058	
5.080	-0.092	-0.117	
5.085	-0.365	-0.152	
5.090	-0.078	-0.182	
5.095	0.204	-0.178	
5.100	-0.194	-0.137	
5.105	-0.245	-0.111	
5.110	0.137	-0.103	
5.115	-0.156	-0.086	
5.120	-0.275	-0.083	
5.125	0.211	-0.088	
5.130	0.152	-0.061	
5.135	-0.251	-0.024	
5.140	0.003	-0.018	
5.145	0.328	-0.007	
5.150	-0.200	0.020	
5.155	-0.104	0.022	
5.160	0.389	0.018	
5.165	-0.081	0.040	
5.170	-0.286	0.041	
5.175	0.127	0.009	
5.180	-0.058	-0.012	
5.185	-0.414	-0.039	
5.190	-0.171	-0.094	
5.195	0.015	-0.138	
5.200	-0.310	-0.155	
5.205	-0.257	-0.174	
5.210	0.007	-0.190	
5.215	-0.300	-0.187	
5.220	-0.402	-0.197	
5.225	0.097	-0.212	
5.230	0.275	-0.177	
5.235	-0.003	-0.098	
5.240	0.739	0.006	
5.245	0.848	0.163	
5.250	-0.156	0.315	
5.255	-0.379	0.339	
5.260	-0.312	0.232	
5.265	-0.650	0.060	
5.270	-0.795	-0.147	
5.275	-0.454	-0.345	
5.280	-0.407	-0.477	
5.285	-0.543	-0.537	
5.290	-0.187	-0.545	
5.295	0.197	-0.481	
5.300	-0.174	-0.360	
5.305	-0.054	-0.243	
5.310	0.504	-0.131	
5.315	0.130	-0.001	
5.320	-0.161	0.090	
5.325	0.484	0.132	
5.330	0.438	0.186	
5.335	-0.035	0.239	
5.340	0.347	0.254	
5.345	0.623	0.274	
5.350	0.003	0.306	
5.355	0.156	0.302	
5.360	0.719	0.292	
5.365	0.388	0.324	
5.370	0.200	0.359	
5.375	0.938	0.389	
5.380	0.927	0.471	
5.385	0.432	0.573	
5.390	0.907	0.642	
5.395	1.193	0.716	
5.400	0.560	0.798	
5.405	0.667	0.829	
5.410	1.127	0.830	
5.415	0.493	0.835	
5.420	0.088	0.785	
5.425	0.582	0.674	
5.430	0.455	0.573	
5.435	-0.216	0.477	
5.440	-0.054	0.340	
5.445	0.156	0.202	
5.450	-0.268	0.097	
5.455	-0.252	-0.002	
5.460	0.136	-0.080	
5.465	-0.272	-0.115	
5.470	-0.433	-0.150	
5.475	-0.009	-0.192	
5.480	-0.116	-0.204	
5.485	-0.393	-0.201	
5.490	-0.135	-0.211	
5.495	0.090	-0.203	
5.500	-0.323	-0.174	
5.505	-0.223	-0.164	
5.510	0.125	-0.159	
5.515	-0.199	-0.134	
5.520	-0.327	-0.125	
5.525	0.142	-0.131	
5.530	0.055	-0.109	
5.535	-0.310	-0.081	
5.540	-0.084	-0.082	
5.545	0.183	-0.081	
5.550	-0.269	-0.065	
5.555	-0.274	-0.074	
5.560	0.059	-0.100	
5.565	-0.329	-0.117	
5.570	-0.439	-0.151	
5.575	-0.130	-0.202	
5.580	-0.184	-0.230	
5.585	-0.436	-0.245	
5.590	-0.200	-0.265	
5.595	-0.049	-0.266	
5.600	-0.448	-0.253	
5.605	-0.423	-0.262	
5.610	0.059	-0.276	
5.615	-0.037	-0.247	
5.620	-0.035	-0.190	
5.625	0.742	-0.097	
5.630	0.293	0.046	
5.635	-0.407	0.151	
5.640	-0.390	0.133	
5.645	-0.433	0.025	
5.650	-0.772	-0.127	
5.655	-0.724	-0.302	
5.660	-0.376	-0.453	
5.665	-0.541	-0.536	
5.670	-0.588	-0.573	
5.675	-0.087	-0.568	
5.680	-0.032	-0.498	
5.685	-0.274	-0.391	
5.690	0.070	-0.290	
5.695	0.447	-0.172	
5.700	-0.028	-0.039	
5.705	0.052	0.054	
5.710	0.411	0.112	
5.715	-0.009	0.160	
5.720	-0.196	0.163	
5.725	0.336	0.131	
5.730	0.429	0.133	
5.735	-0.060	0.162	
5.740	0.403	0.179	
5.745	0.765	0.224	
5.750	0.223	0.304	
5.755	0.397	0.362	
5.760	1.036	0.418	
5.765	0.586	0.509	
5.770	0.255	0.574	
5.775	0.996	0.596	
5.780	0.993	0.647	
5.785	0.282	0.703	
5.790	0.608	0.700	
5.795	0.900	0.681	
5.800	0.208	0.666	
5.805	0.163	0.604	
5.810	0.637	0.516	
5.815	0.091	0.448	
5.820	-0.271	0.357	
5.825	0.246	0.237	
5.830	-0.017	0.144	
5.835	-0.426	0.061	
5.840	-0.167	-0.038	
5.845	0.020	-0.114	
5.850	-0.303	-0.151	
5.855	-0.268	-0.180	
5.860	0.261	-0.188	
5.865	-0.150	-0.152	
5.870	-0.326	-0.123	
5.875	0.017	-0.123	
5.880	-0.132	-0.119	
5.885	-0.434	-0.127	
5.890	-0.072	-0.157	
5.895	0.310	-0.155	
5.900	-0.344	-0.116	
5.905	-0.211	-0.103	
5.910	0.339	-0.097	
5.915	-0.100	-0.059	
5.920	-0.275	-0.036	
5.925	0.227	-0.037	
5.930	0.082	-0.019	
5.935	-0.364	-0.005	
5.940	-0.156	-0.035	
5.945	-0.009	-0.074	
5.950	-0.378	-0.105	
5.955	-0.373	-0.154	
5.960	0.041	-0.199	
5.965	-0.300	-0.212	
5.970	-0.448	-0.226	
5.975	-0.089	-0.250	
5.980	-0.122	-0.250	
5.985	-0.483	-0.242	
5.990	-0.265	-0.256	
5.995	0.192	-0.253	
6.000	-0.072	-0.203	
6.005	0.154	-0.131	
6.010	0.453	-0.040	
6.015	-0.196	0.052	
6.020	-0.523	0.066	
6.025	-0.411	-0.015	
6.030	-0.547	-0.140	
6.035	-0.808	-0.282	
6.040	-0.517	-0.423	
6.045	-0.232	-0.511	
6.050	-0.469	-0.526	
6.055	-0.355	-0.507	
6.060	0.081	-0.455	
6.065	-0.148	-0.361	
6.070	-0.237	-0.269	
6.075	0.310	-0.189	
6.080	0.290	-0.083	
6.085	-0.177	0.017	
6.090	0.209	0.070	
6.095	0.528	0.118	
6.100	-0.019	0.178	
6.105	0.113	0.202	
6.110	0.647	0.216	
6.115	0.308	0.262	
6.120	-0.008	0.295	
6.125	0.731	0.303	
6.130	0.721	0.352	
6.135	0.195	0.420	
6.140	0.678	0.459	
6.145	1.016	0.512	
6.150	0.369	0.585	
6.155	0.534	0.619	
6.160	1.253	0.645	
6.165	0.696	0.712	
6.170	0.206	0.745	
6.175	0.915	0.717	
6.180	0.858	0.704	
6.185	0.191	0.698	
6.190	0.278	0.637	
6.195	0.339	0.539	
6.200	-0.210	0.426	
6.205	-0.185	0.279	
6.210	0.288	0.142	
6.215	-0.049	0.064	
6.220	-0.339	0.007	
6.225	-0.051	-0.058	
6.230	-0.101	-0.104	
6.235	-0.408	-0.138	
6.240	-0.245	-0.183	
6.245	-0.068	-0.216	
6.250	-0.349	-0.226	
6.255	-0.222	-0.235	
6.260	0.224	-0.222	
6.265	-0.152	-0.171	
6.270	-0.320	-0.133	
6.275	0.166	-0.118	
6.280	0.082	-0.085	
6.285	-0.278	-0.051	
6.290	-0.061	-0.049	
6.295	0.243	-0.046	
6.300	-0.258	-0.029	
6.305	-0.240	-0.039	
6.310	0.224	-0.060	
6.315	-0.176	-0.058	
6.320	-0.408	-0.071	
6.325	-0.113	-0.115	
6.330	-0.127	-0.151	
6.335	-0.379	-0.175	
6.340	-0.156	-0.203	
6.345	0.006	-0.210	
6.350	-0.388	-0.200	
6.355	-0.379	-0.211	
6.360	-0.005	-0.231	
6.365	-0.304	-0.230	
6.370	-0.463	-0.237	
6.375	0.036	-0.251	
6.380	0.293	-0.217	
6.385	0.036	-0.129	
6.390	0.460	-0.024	
6.395	0.421	0.095	
6.400	-0.416	0.177	
6.405	-0.607	0.138	
6.410	-0.431	-0.002	
6.415	-0.668	-0.169	
6.420	-0.729	-0.335	
6.425	-0.335	-0.468	
6.430	-0.303	-0.526	
6.435	-0.500	-0.524	
6.440	-0.155	-0.493	
6.445	0.296	-0.411	
6.450	-0.184	-0.283	
6.455	-0.112	-0.176	
6.460	0.478	-0.088	
6.465	-0.052	0.008	
6.470	-0.236	0.060	
6.475	0.301	0.065	
6.480	0.301	0.086	
6.485	-0.084	0.118	
6.490	0.354	0.134	
6.495	0.695	0.178	
6.500	0.107	0.253	
6.505	0.174	0.292	
6.510	0.840	0.318	
6.515	0.438	0.377	
6.520	0.180	0.424	
6.525	0.823	0.444	
6.530	0.777	0.492	
6.535	0.351	0.551	
6.540	1.011	0.593	
6.545	1.285	0.673	
6.550	0.522	0.777	
6.555	0.551	0.818	
6.560	1.039	0.810	
6.565	0.487	0.800	
6.570	0.038	0.743	
6.575	0.579	0.630	
6.580	0.288	0.526	
6.585	-0.309	0.418	
6.590	-0.118	0.266	
6.595	0.102	0.122	
6.600	-0.313	0.019	
6.605	-0.262	-0.072	
6.610	0.093	-0.138	
6.615	-0.229	-0.159	
6.620	-0.401	-0.175	
6.625	-0.008	-0.199	
6.630	-0.145	-0.200	
6.635	-0.477	-0.199	
6.640	-0.251	-0.224	
6.645	0.000	-0.240	
6.650	-0.303	-0.230	
6.655	-0.272	-0.222	
6.660	0.125	-0.211	
6.665	-0.138	-0.174	
6.670	-0.347	-0.147	
6.675	0.064	-0.142	
6.680	0.026	-0.122	
6.685	-0.339	-0.100	
6.690	-0.104	-0.106	
6.695	0.049	-0.112	
6.700	-0.382	-0.112	
6.705	-0.356	-0.141	
6.710	-0.080	-0.184	
6.715	-0.332	-0.210	
6.720	-0.504	-0.241	
6.725	-0.202	-0.284	
6.730	-0.213	-0.304	
6.735	-0.465	-0.308	
6.740	-0.234	-0.317	
6.745	-0.101	-0.310	
6.750	-0.443	-0.290	
6.755	-0.364	-0.289	
6.760	0.143	-0.283	
6.765	0.064	-0.228	
6.770	0.041	-0.145	
6.775	0.713	-0.037	
6.780	0.241	0.101	
6.785	-0.555	0.180	
6.790	-0.569	0.119	
6.795	-0.524	-0.035	
6.800	-0.816	-0.216	
6.805	-0.717	-0.398	
6.810	-0.315	-0.533	
6.815	-0.460	-0.584	
6.820	-0.530	-0.583	
6.825	-0.058	-0.547	
6.830	0.020	-0.458	
6.835	-0.239	-0.341	
6.840	0.093	-0.238	
6.845	0.447	-0.125	
6.850	-0.156	-0.008	
6.855	-0.104	0.053	
6.860	0.544	0.081	
6.865	0.099	0.130	
6.870	-0.127	0.158	
6.875	0.563	0.162	
6.880	0.525	0.204	
6.885	0.101	0.266	
6.890	0.710	0.314	
6.895	1.116	0.401	
6.900	0.469	0.527	
6.905	0.657	0.617	
6.910	1.355	0.692	
6.915	1.089	0.807	
6.920	0.820	0.915	
6.925	1.358	0.988	
6.930	1.234	1.062	
6.935	0.621	1.107	
6.940	1.068	1.089	
6.945	1.369	1.069	
6.950	0.808	1.075	
6.955	0.489	1.040	
6.960	0.877	0.953	
6.965	0.412	0.857	
6.970	0.046	0.732	
6.975	0.654	0.589	
6.980	0.606	0.501	
6.985	0.007	0.451	
6.990	0.356	0.388	
6.995	0.663	0.350	
7.000	0.125	0.349	
7.005	0.206	0.336	
7.010	0.814	0.330	
7.015	0.340	0.367	
7.020	0.085	0.390	
7.025	0.806	0.390	
7.030	0.823	0.434	
7.035	0.316	0.504	
7.040	0.689	0.544	
7.045	1.075	0.591	
7.050	0.470	0.658	
7.055	0.453	0.683	
7.060	1.026	0.680	
7.065	0.640	0.699	
7.070	0.369	0.702	
7.075	0.987	0.683	
7.080	0.916	0.698	
7.085	0.111	0.712	
7.090	0.473	0.662	
7.095	0.623	0.593	
7.100	0.015	0.529	
7.105	0.142	0.437	
7.110	0.782	0.361	
7.115	0.223	0.346	
7.120	-0.100	0.327	
7.125	0.486	0.280	
7.130	0.408	0.265	
7.135	-0.171	0.261	
7.140	0.224	0.224	
7.145	0.730	0.211	
7.150	0.403	0.262	
7.155	0.580	0.336	
7.160	1.037	0.431	
7.165	0.087	0.524	
7.170	-0.408	0.510	
7.175	-0.240	0.365	
7.180	-0.384	0.167	
7.185	-0.676	-0.039	
7.190	-0.426	-0.232	
7.195	-0.152	-0.362	
7.200	-0.315	-0.407	
7.205	-0.171	-0.399	
7.210	0.421	-0.331	
7.215	0.139	-0.200	
7.220	-0.074	-0.070	
7.225	0.551	0.032	
7.230	0.421	0.144	
7.235	-0.109	0.231	
7.240	0.253	0.252	
7.245	0.623	0.264	
7.250	0.091	0.294	
7.255	0.097	0.296	
7.260	0.638	0.285	
7.265	0.232	0.301	
7.270	0.000	0.305	
7.275	0.623	0.289	
7.280	0.626	0.315	
7.285	0.116	0.361	
7.290	0.498	0.380	
7.295	0.944	0.414	
7.300	0.324	0.479	
7.305	0.431	0.516	
7.310	1.011	0.540	
7.315	0.608	0.594	
7.320	0.255	0.625	
7.325	0.738	0.611	
7.330	0.391	0.589	
7.335	-0.185	0.531	
7.340	0.015	0.406	
7.345	0.191	0.271	
7.350	-0.315	0.159	
7.355	-0.349	0.038	
7.360	-0.121	-0.081	
7.365	-0.381	-0.169	
7.370	-0.532	-0.247	
7.375	-0.286	-0.319	
7.380	-0.378	-0.364	
7.385	-0.672	-0.398	
7.390	-0.454	-0.442	
7.395	-0.320	-0.469	
7.400	-0.585	-0.474	
7.405	-0.469	-0.479	
7.410	-0.037	-0.465	
7.415	-0.213	-0.407	
7.420	-0.378	-0.343	
7.425	-0.072	-0.295	
7.430	-0.122	-0.247	
7.435	-0.420	-0.212	
7.440	-0.207	-0.210	
7.445	-0.100	-0.213	
7.450	-0.488	-0.216	
7.455	-0.506	-0.251	
7.460	-0.300	-0.305	
7.465	-0.590	-0.353	
7.470	-0.782	-0.416	
7.475	-0.526	-0.494	
7.480	-0.602	-0.554	
7.485	-0.891	-0.602	
7.490	-0.682	-0.656	
7.495	-0.543	-0.690	
7.500	-0.851	-0.701	
7.505	-0.842	-0.719	
7.510	-0.631	-0.741	
7.515	-0.856	-0.752	
7.520	-0.990	-0.772	
7.525	-0.592	-0.798	
7.530	-0.494	-0.786	
7.535	-0.654	-0.739	
7.540	-0.413	-0.681	
7.545	-0.359	-0.612	
7.550	-0.854	-0.556	
7.555	-0.995	-0.568	
7.560	-0.871	-0.640	
7.565	-0.993	-0.730	
7.570	-0.995	-0.817	
7.575	-0.833	-0.885	
7.580	-0.755	-0.913	
7.585	-0.903	-0.908	
7.590	-0.614	-0.884	
7.595	-0.396	-0.826	
7.600	-0.599	-0.738	
7.605	-0.478	-0.654	
7.610	-0.087	-0.568	
7.615	-0.310	-0.465	
7.620	-0.416	-0.380	
7.625	0.000	-0.321	
7.630	-0.068	-0.255	
7.635	-0.385	-0.200	
7.640	-0.107	-0.179	
7.645	0.250	-0.152	
7.650	-0.220	-0.103	
7.655	-0.132	-0.074	
7.660	0.475	-0.047	
7.665	0.087	0.017	
7.670	-0.118	0.070	
7.675	0.615	0.104	
7.680	0.637	0.183	
7.685	0.188	0.283	
7.690	0.776	0.363	
7.695	1.135	0.468	
7.700	0.463	0.595	
7.705	0.464	0.664	
7.710	0.968	0.684	
7.715	0.470	0.701	
7.720	0.052	0.670	
7.725	0.541	0.582	
7.730	0.339	0.500	
7.735	-0.207	0.414	
7.740	0.076	0.295	
7.745	0.310	0.194	
7.750	-0.243	0.129	
7.755	-0.223	0.055	
7.760	0.246	-0.012	
7.765	-0.124	-0.036	
7.770	-0.271	-0.054	
7.775	0.235	-0.073	
7.780	0.192	-0.050	
7.785	-0.257	-0.013	
7.790	0.099	-0.003	
7.795	0.403	0.019	
7.800	-0.127	0.062	
7.805	-0.019	0.077	
7.810	0.577	0.090	
7.815	0.117	0.137	
7.820	-0.147	0.166	
7.825	0.443	0.162	
7.830	0.314	0.178	
7.835	-0.177	0.195	
7.840	0.236	0.176	
7.845	0.499	0.171	
7.850	-0.177	0.186	
7.855	-0.167	0.158	
7.860	0.343	0.107	
7.865	-0.086	0.082	
7.870	-0.280	0.050	
7.875	0.279	0.008	
7.880	0.230	0.009	
7.885	-0.268	0.030	
7.890	0.072	0.024	
7.895	0.327	0.026	
7.900	-0.252	0.044	
7.905	-0.141	0.030	
7.910	0.620	0.021	
7.915	0.502	0.087	
7.920	0.282	0.191	
7.925	0.835	0.295	
7.930	0.305	0.396	
7.935	-0.408	0.420	
7.940	-0.342	0.315	
7.945	-0.294	0.142	
7.950	-0.607	-0.041	
7.955	-0.492	-0.215	
7.960	-0.081	-0.339	
7.965	-0.208	-0.376	
7.970	-0.260	-0.361	
7.975	0.366	-0.303	
7.980	0.382	-0.179	
7.985	-0.092	-0.037	
7.990	0.371	0.065	
7.995	0.661	0.164	
8.000	0.073	0.264	
8.005	0.272	0.314	
8.010	0.880	0.350	
8.015	0.431	0.417	
8.020	0.137	0.459	
8.025	0.831	0.466	
8.030	0.794	0.503	
8.035	0.186	0.549	
8.040	0.666	0.554	
8.045	0.991	0.571	
8.050	0.482	0.618	
8.055	0.644	0.647	
8.060	1.295	0.683	
8.065	0.849	0.764	
8.070	0.579	0.827	
8.075	1.291	0.858	
8.080	1.162	0.914	
8.085	0.528	0.964	
8.090	0.942	0.957	
8.095	1.100	0.939	
8.100	0.327	0.916	
8.105	0.272	0.830	
8.110	0.707	0.707	
8.115	0.082	0.598	
8.120	-0.199	0.465	
8.125	0.240	0.310	
8.130	0.082	0.193	
8.135	-0.324	0.104	
8.140	-0.061	0.012	
8.145	0.139	-0.050	
8.150	-0.326	-0.076	
8.155	-0.292	-0.112	
8.160	0.090	-0.147	
8.165	-0.210	-0.152	
8.170	-0.352	-0.158	
8.175	0.078	-0.170	
8.180	0.023	-0.153	
8.185	-0.306	-0.124	
8.190	-0.051	-0.117	
8.195	0.227	-0.100	
8.200	-0.243	-0.066	
8.205	-0.197	-0.058	
8.210	0.269	-0.060	
8.215	-0.122	-0.040	
8.220	-0.327	-0.037	
8.225	0.082	-0.061	
8.230	-0.020	-0.070	
8.235	-0.394	-0.077	
8.240	-0.184	-0.113	
8.245	-0.017	-0.145	
8.250	-0.385	-0.162	
8.255	-0.338	-0.193	
8.260	0.020	-0.220	
8.265	-0.254	-0.218	
8.270	-0.420	-0.219	
8.275	-0.122	-0.235	
8.280	-0.210	-0.240	
8.285	-0.488	-0.246	
8.290	-0.126	-0.264	
8.295	0.409	-0.239	
8.300	0.044	-0.149	
8.305	0.107	-0.049	
8.310	0.427	0.041	
8.315	-0.251	0.110	
8.320	-0.627	0.091	
8.325	-0.477	-0.026	
8.330	-0.593	-0.179	
8.335	-0.833	-0.337	
8.340	-0.504	-0.479	
8.345	-0.243	-0.557	
8.350	-0.445	-0.559	
8.355	-0.312	-0.523	
8.360	0.215	-0.449	
8.365	-0.061	-0.326	
8.370	-0.220	-0.212	
8.375	0.279	-0.127	
8.380	0.183	-0.038	
8.385	-0.222	0.033	
8.390	0.139	0.056	
8.395	0.473	0.081	
8.400	-0.081	0.125	
8.405	0.009	0.138	
8.410	0.638	0.146	
8.415	0.243	0.193	
8.420	0.020	0.233	
8.425	0.706	0.256	
8.430	0.687	0.317	
8.435	0.143	0.392	
8.440	0.693	0.433	
8.445	1.124	0.496	
8.450	0.589	0.598	
8.455	0.631	0.673	
8.460	1.213	0.727	
8.465	0.735	0.795	
8.470	0.362	0.822	
8.475	0.916	0.793	
8.480	0.710	0.766	
8.485	-0.074	0.716	
8.490	0.278	0.598	
8.495	0.495	0.475	
8.500	-0.176	0.377	
8.505	-0.170	0.258	
8.510	0.212	0.138	
8.515	-0.205	0.056	
8.520	-0.401	-0.023	
8.525	-0.046	-0.106	
8.530	-0.075	-0.153	
8.535	-0.399	-0.176	
8.540	-0.168	-0.202	
8.545	-0.042	-0.214	
8.550	-0.381	-0.209	
8.555	-0.318	-0.220	
8.560	0.064	-0.229	
8.565	-0.214	-0.210	
8.570	-0.323	-0.193	
8.575	0.076	-0.185	
8.580	-0.040	-0.157	
8.585	-0.365	-0.131	
8.590	-0.081	-0.134	
8.595	0.192	-0.126	
8.600	-0.258	-0.096	
8.605	-0.243	-0.090	
8.610	0.139	-0.099	
8.615	-0.205	-0.093	
8.620	-0.388	-0.103	
8.625	-0.060	-0.137	
8.630	-0.135	-0.158	
8.635	-0.425	-0.174	
8.640	-0.187	-0.204	
8.645	-0.057	-0.220	
8.650	-0.414	-0.221	
8.655	-0.388	-0.239	
8.660	-0.071	-0.262	
8.665	-0.327	-0.265	
8.670	-0.492	-0.273	
8.675	-0.116	-0.293	
8.680	0.171	-0.274	
8.685	0.010	-0.203	
8.690	0.599	-0.095	
8.695	0.571	0.058	
8.700	-0.330	0.188	
8.705	-0.524	0.189	
8.710	-0.408	0.072	
8.715	-0.689	-0.093	
8.720	-0.818	-0.277	
8.725	-0.414	-0.442	
8.730	-0.349	-0.534	
8.735	-0.541	-0.557	
8.740	-0.211	-0.541	
8.745	0.117	-0.473	
8.750	-0.236	-0.361	
8.755	-0.110	-0.261	
8.760	0.466	-0.164	
8.765	0.001	-0.047	
8.770	-0.211	0.030	
8.775	0.455	0.065	
8.780	0.412	0.121	
8.785	-0.113	0.180	
8.790	0.327	0.199	
8.795	0.655	0.227	
8.800	0.035	0.276	
8.805	0.172	0.291	
8.810	0.803	0.299	
8.815	0.385	0.347	
8.820	0.174	0.388	
8.825	0.845	0.409	
8.830	0.845	0.469	
8.835	0.374	0.546	
8.840	0.907	0.598	
8.845	1.164	0.668	
8.850	0.458	0.750	
8.855	0.498	0.770	
8.860	0.976	0.751	
8.865	0.377	0.733	
8.870	-0.014	0.668	
8.875	0.559	0.555	
8.880	0.328	0.463	
8.885	-0.232	0.377	
8.890	-0.037	0.258	
8.895	0.081	0.141	
8.900	-0.375	0.046	
8.905	-0.278	-0.053	
8.910	0.099	-0.130	
8.915	-0.228	-0.158	
8.920	-0.378	-0.177	
8.925	-0.013	-0.199	
8.930	-0.103	-0.197	
8.935	-0.391	-0.187	
8.940	-0.148	-0.196	
8.945	0.085	-0.192	
8.950	-0.318	-0.168	
8.955	-0.262	-0.163	
8.960	0.113	-0.164	
8.965	-0.202	-0.145	
8.970	-0.326	-0.138	
8.975	0.146	-0.141	
8.980	0.058	-0.116	
8.985	-0.346	-0.086	
8.990	-0.092	-0.089	
8.995	0.122	-0.092	
9.000	-0.320	-0.085	
9.005	-0.295	-0.103	
9.010	0.033	-0.134	
9.015	-0.262	-0.146	
9.020	-0.422	-0.168	
9.025	-0.083	-0.202	
9.030	-0.141	-0.215	
9.035	-0.428	-0.219	
9.040	-0.193	-0.235	
9.045	-0.046	-0.239	
9.050	-0.410	-0.229	
9.055	-0.358	-0.238	
9.060	0.087	-0.247	
9.065	-0.074	-0.217	
9.070	-0.058	-0.168	
9.075	0.626	-0.093	
9.080	0.310	0.031	
9.085	-0.416	0.124	
9.090	-0.410	0.104	
9.095	-0.390	0.000	
9.100	-0.750	-0.141	
9.105	-0.715	-0.304	
9.110	-0.381	-0.446	
9.115	-0.498	-0.525	
9.120	-0.488	-0.553	
9.125	0.001	-0.533	
9.130	0.010	-0.446	
9.135	-0.287	-0.334	
9.140	0.091	-0.238	
9.145	0.403	-0.134	
9.150	-0.159	-0.024	
9.155	-0.072	0.035	
9.160	0.534	0.069	
9.165	0.093	0.123	
9.170	-0.133	0.154	
9.175	0.460	0.154	
9.180	0.417	0.181	
9.185	-0.040	0.219	
9.190	0.460	0.234	
9.195	0.765	0.274	
9.200	0.194	0.344	
9.205	0.359	0.384	
9.210	0.958	0.420	
9.215	0.553	0.490	
9.220	0.392	0.547	
9.225	1.087	0.587	
9.230	0.973	0.661	
9.235	0.386	0.733	
9.240	0.785	0.750	
9.245	0.952	0.754	
9.250	0.295	0.755	
9.255	0.360	0.703	
9.260	0.776	0.631	
9.265	0.181	0.575	
9.270	-0.148	0.488	
9.275	0.310	0.363	
9.280	0.062	0.260	
9.285	-0.317	0.166	
9.290	-0.077	0.060	
9.295	0.169	-0.017	
9.300	-0.239	-0.051	
9.305	-0.136	-0.079	
9.310	0.290	-0.088	
9.315	-0.078	-0.060	
9.320	-0.202	-0.038	
9.325	0.339	-0.027	
9.330	0.267	0.018	
9.335	-0.130	0.071	
9.340	0.314	0.099	
9.345	0.644	0.147	
9.350	0.012	0.218	
9.355	0.027	0.245	
9.360	0.431	0.236	
9.365	-0.072	0.225	
9.370	-0.266	0.180	
9.375	0.146	0.103	
9.380	0.149	0.054	
9.385	-0.199	0.032	
9.390	0.111	0.008	
9.395	0.377	0.014	
9.400	-0.135	0.048	
9.405	-0.113	0.055	
9.410	0.281	0.045	
9.415	-0.141	0.046	
9.420	-0.306	0.024	
9.425	0.049	-0.024	
9.430	-0.063	-0.056	
9.435	-0.365	-0.081	
9.440	-0.174	-0.124	
9.445	0.238	-0.144	
9.450	-0.043	-0.115	
9.455	0.420	-0.053	
9.460	1.025	0.071	
9.465	0.369	0.250	
9.470	-0.179	0.365	
9.475	-0.097	0.350	
9.480	-0.362	0.244	
9.485	-0.689	0.078	
9.490	-0.509	-0.122	
9.495	-0.294	-0.291	
9.500	-0.466	-0.392	
9.505	-0.306	-0.440	
9.510	0.113	-0.427	
9.515	-0.122	-0.351	
9.520	-0.216	-0.265	
9.525	0.285	-0.186	
9.530	0.278	-0.084	
9.535	-0.144	0.014	
9.540	0.192	0.068	
9.545	0.435	0.113	
9.550	-0.060	0.161	
9.555	0.032	0.171	
9.560	0.542	0.169	
9.565	0.163	0.196	
9.570	-0.017	0.213	
9.575	0.512	0.211	
9.580	0.432	0.238	
9.585	-0.011	0.270	
9.590	0.493	0.277	
9.595	0.842	0.314	
9.600	0.319	0.389	
9.605	0.467	0.444	
9.610	1.032	0.495	
9.615	0.554	0.571	
9.620	0.232	0.612	
9.625	0.779	0.602	
9.630	0.606	0.597	
9.635	0.050	0.578	
9.640	0.385	0.513	
9.645	0.447	0.444	
9.650	-0.185	0.379	
9.655	-0.150	0.274	
9.660	0.203	0.158	
9.665	-0.190	0.076	
9.670	-0.356	-0.004	
9.675	-0.032	-0.085	
9.680	-0.144	-0.136	
9.685	-0.430	-0.170	
9.690	-0.225	-0.212	
9.695	-0.089	-0.238	
9.700	-0.376	-0.243	
9.705	-0.269	-0.252	
9.710	0.082	-0.248	
9.715	-0.214	-0.215	
9.720	-0.353	-0.192	
9.725	-0.002	-0.187	
9.730	-0.066	-0.170	
9.735	-0.306	-0.150	
9.740	-0.071	-0.148	
9.745	0.192	-0.131	
9.750	-0.197	-0.093	
9.755	-0.139	-0.073	
9.760	0.357	-0.055	
9.765	-0.071	-0.013	
9.770	-0.265	0.008	
9.775	0.084	-0.007	
9.780	-0.098	-0.022	
9.785	-0.405	-0.049	
9.790	-0.200	-0.105	
9.795	-0.032	-0.151	
9.800	-0.349	-0.175	
9.805	-0.271	-0.200	
9.810	0.079	-0.213	
9.815	-0.199	-0.194	
9.820	-0.362	-0.181	
9.825	-0.101	-0.188	
9.830	-0.155	-0.190	
9.835	-0.291	-0.188	
9.840	0.247	-0.175	
9.845	0.744	-0.093	
9.850	0.128	0.051	
9.855	-0.051	0.156	
9.860	-0.052	0.178	
9.865	-0.514	0.125	
9.870	-0.737	-0.008	
9.875	-0.503	-0.187	
9.880	-0.504	-0.344	
9.885	-0.636	-0.457	
9.890	-0.320	-0.525	
9.895	-0.063	-0.523	
9.900	-0.294	-0.460	
9.905	-0.118	-0.379	
9.910	0.411	-0.275	
9.915	0.056	-0.138	
9.920	-0.118	-0.027	
9.925	0.438	0.045	
9.930	0.438	0.127	
9.935	-0.072	0.202	
9.940	0.333	0.230	
9.945	0.628	0.258	
9.950	0.094	0.301	
9.955	0.307	0.319	
9.960	0.838	0.340	
9.965	0.415	0.399	
9.970	0.230	0.441	
9.975	0.864	0.461	
9.980	0.825	0.514	
9.985	0.347	0.577	
9.990	0.837	0.611	
9.995	1.080	0.657	
10.000	0.655	0.727	
10.005	0.886	0.779	
10.010	1.382	0.836	
10.015	0.889	0.919	
10.020	0.487	0.959	
10.025	0.924	0.930	
10.030	0.774	0.888	
10.035	0.139	0.823	
10.040	0.435	0.709	
10.045	0.525	0.592	
10.050	-0.161	0.487	
10.055	-0.095	0.350	
10.060	0.230	0.213	
10.065	-0.150	0.116	
10.070	-0.263	0.032	
10.075	0.064	-0.044	
10.080	-0.077	-0.083	
10.085	-0.355	-0.107	
10.090	-0.133	-0.142	
10.095	0.020	-0.160	
10.100	-0.333	-0.160	
10.105	-0.229	-0.170	
10.110	0.136	-0.174	
10.115	-0.200	-0.151	
10.120	-0.289	-0.138	
10.125	0.125	-0.136	
10.130	0.010	-0.111	
10.135	-0.266	-0.084	
10.140	0.033	-0.078	
10.145	0.302	-0.056	
10.150	-0.153	-0.012	
10.155	-0.107	0.006	
10.160	0.221	0.008	
10.165	-0.173	0.014	
10.170	-0.359	-0.007	
10.175	-0.122	-0.063	
10.180	-0.240	-0.118	
10.185	-0.489	-0.174	
10.190	-0.237	-0.236	
10.195	-0.103	-0.272	
10.200	-0.417	-0.280	
10.205	-0.362	-0.292	
10.210	-0.081	-0.300	
10.215	-0.321	-0.288	
10.220	-0.443	-0.283	
10.225	-0.089	-0.288	
10.230	0.017	-0.265	
10.235	-0.092	-0.212	
10.240	0.476	-0.132	
10.245	0.557	-0.003	
10.250	-0.297	0.120	
10.255	-0.504	0.134	
10.260	-0.468	0.034	
10.265	-0.750	-0.122	
10.270	-0.827	-0.306	
10.275	-0.462	-0.472	
10.280	-0.430	-0.567	
10.285	-0.532	-0.594	
10.290	-0.208	-0.577	
10.295	0.036	-0.504	
10.300	-0.272	-0.394	
10.305	-0.159	-0.298	
10.310	0.293	-0.209	
10.315	-0.101	-0.112	
10.320	-0.225	-0.050	
10.325	0.232	-0.025	
10.330	0.168	0.011	
10.335	-0.152	0.046	
10.340	0.215	0.058	
10.345	0.466	0.088	
10.350	-0.022	0.138	
10.355	0.168	0.165	
10.360	0.689	0.193	
10.365	0.336	0.259	
10.370	0.188	0.315	
10.375	0.861	0.356	
10.380	0.800	0.436	
10.385	0.348	0.525	
10.390	0.858	0.580	
10.395	1.124	0.647	
10.400	0.563	0.730	
10.405	0.643	0.770	
10.410	1.016	0.779	
10.415	0.452	0.784	
10.420	0.096	0.735	
10.425	0.519	0.629	
10.430	0.250	0.525	
10.435	-0.220	0.413	
10.440	-0.052	0.271	
10.445	0.007	0.137	
10.450	-0.347	0.027	
10.455	-0.326	-0.078	
10.460	-0.113	-0.167	
10.465	-0.335	-0.221	
10.470	-0.436	-0.263	
10.475	-0.133	-0.297	
10.480	-0.220	-0.301	
10.485	-0.477	-0.296	
10.490	-0.283	-0.306	
10.495	-0.197	-0.312	
10.500	-0.396	-0.307	
10.505	-0.272	-0.306	
10.510	-0.009	-0.293	
10.515	-0.284	-0.259	
10.520	-0.398	-0.239	
10.525	-0.103	-0.240	
10.530	-0.152	-0.231	
10.535	-0.368	-0.220	
10.540	-0.092	-0.219	
10.545	0.065	-0.200	
10.550	-0.358	-0.169	
10.555	-0.324	-0.167	
10.560	-0.115	-0.187	
10.565	-0.375	-0.206	
10.570	-0.497	-0.239	
10.575	-0.228	-0.285	
10.580	-0.338	-0.315	
10.585	-0.584	-0.340	
10.590	-0.367	-0.376	
10.595	-0.266	-0.397	
10.600	-0.538	-0.401	
10.605	-0.472	-0.412	
10.610	-0.291	-0.424	
10.615	-0.520	-0.424	
10.620	-0.515	-0.431	
10.625	-0.093	-0.430	
10.630	-0.002	-0.383	
10.635	-0.194	-0.303	
10.640	0.067	-0.222	
10.645	-0.112	-0.150	
10.650	-0.683	-0.125	
10.655	-0.816	-0.196	
10.660	-0.679	-0.332	
10.665	-0.853	-0.478	
10.670	-0.857	-0.611	
10.675	-0.492	-0.705	
10.680	-0.448	-0.726	
10.685	-0.593	-0.694	
10.690	-0.303	-0.640	
10.695	-0.139	-0.557	
10.700	-0.376	-0.457	
10.705	-0.257	-0.377	
10.710	0.082	-0.305	
10.715	-0.228	-0.228	
10.720	-0.335	-0.181	
10.725	0.039	-0.164	
10.730	-0.057	-0.140	
10.735	-0.315	-0.120	
10.740	0.000	-0.120	
10.745	0.201	-0.103	
10.750	-0.262	-0.069	
10.755	-0.145	-0.061	
10.760	0.316	-0.057	
10.765	-0.043	-0.024	
10.770	-0.087	0.003	
10.775	0.542	0.031	
10.780	0.435	0.105	
10.785	-0.016	0.186	
10.790	0.427	0.230	
10.795	0.652	0.278	
10.800	0.046	0.333	
10.805	0.181	0.340	
10.810	0.547	0.326	
10.815	-0.016	0.316	
10.820	-0.188	0.268	
10.825	0.113	0.183	
10.830	-0.147	0.102	
10.835	-0.394	0.016	
10.840	-0.188	-0.080	
10.845	-0.118	-0.154	
10.850	-0.457	-0.203	
10.855	-0.408	-0.255	
10.860	-0.190	-0.302	
10.865	-0.402	-0.324	
10.870	-0.495	-0.344	
10.875	-0.205	-0.364	
10.880	-0.272	-0.361	
10.885	-0.495	-0.350	
10.890	-0.278	-0.351	
10.895	-0.179	-0.344	
10.900	-0.431	-0.326	
10.905	-0.329	-0.320	
10.910	-0.038	-0.310	
10.915	-0.320	-0.282	
10.920	-0.411	-0.266	
10.925	-0.016	-0.262	
10.930	-0.113	-0.238	
10.935	-0.364	-0.210	
10.940	-0.113	-0.201	
10.945	-0.034	-0.189	
10.950	-0.407	-0.175	
10.955	-0.313	-0.189	
10.960	-0.034	-0.211	
10.965	-0.304	-0.214	
10.970	-0.420	-0.225	
10.975	-0.135	-0.248	
10.980	-0.251	-0.257	
10.985	-0.500	-0.266	
10.990	-0.237	-0.290	
10.995	-0.130	-0.300	
11.000	-0.454	-0.293	
11.005	-0.390	-0.301	
11.010	-0.126	-0.313	
11.015	-0.318	-0.305	
11.020	-0.304	-0.294	
11.025	0.353	-0.261	
11.030	0.408	-0.159	
11.035	-0.107	-0.031	
11.040	-0.066	0.044	
11.045	-0.249	0.050	
11.050	-0.682	-0.014	
11.055	-0.669	-0.148	
11.060	-0.442	-0.300	
11.065	-0.607	-0.419	
11.070	-0.613	-0.505	
11.075	-0.185	-0.547	
11.080	-0.174	-0.520	
11.085	-0.349	-0.452	
11.090	-0.043	-0.377	
11.095	0.241	-0.279	
11.100	-0.185	-0.168	
11.105	-0.040	-0.090	
11.110	0.481	-0.025	
11.115	0.030	0.055	
11.120	-0.121	0.104	
11.125	0.472	0.121	
11.130	0.334	0.160	
11.135	-0.092	0.198	
11.140	0.368	0.204	
11.145	0.603	0.227	
11.150	0.107	0.274	
11.155	0.307	0.298	
11.160	0.829	0.327	
11.165	0.495	0.394	
11.170	0.427	0.458	
11.175	1.054	0.516	
11.180	0.984	0.611	
11.185	0.560	0.711	
11.190	1.046	0.774	
11.195	1.181	0.839	
11.200	0.539	0.898	
11.205	0.646	0.896	
11.210	0.968	0.858	
11.215	0.360	0.817	
11.220	0.072	0.727	
11.225	0.518	0.596	
11.230	0.218	0.483	
11.235	-0.251	0.370	
11.240	0.027	0.235	
11.245	0.192	0.125	
11.250	-0.286	0.053	
11.255	-0.196	-0.018	
11.260	0.183	-0.073	
11.265	-0.220	-0.089	
11.270	-0.294	-0.105	
11.275	0.105	-0.127	
11.280	-0.089	-0.122	
11.285	-0.313	-0.115	
11.290	0.052	-0.121	
11.295	0.243	-0.100	
11.300	-0.222	-0.057	
11.305	-0.124	-0.040	
11.310	0.272	-0.033	
11.315	-0.112	-0.010	
11.320	-0.185	-0.003	
11.325	0.356	-0.005	
11.330	0.162	0.027	
11.335	-0.193	0.060	
11.340	0.168	0.063	
11.345	0.328	0.074	
11.350	-0.197	0.095	
11.355	-0.089	0.081	
11.360	0.292	0.055	
11.365	-0.185	0.046	
11.370	-0.329	0.015	
11.375	0.070	-0.039	
11.380	-0.092	-0.071	
11.385	-0.349	-0.095	
11.390	-0.055	-0.129	
11.395	0.087	-0.138	
11.400	-0.347	-0.128	
11.405	-0.216	-0.137	
11.410	0.252	-0.141	
11.415	0.012	-0.103	
11.420	0.172	-0.044	
11.425	0.916	0.051	
11.430	0.646	0.211	
11.435	-0.113	0.347	
11.440	-0.138	0.363	
11.445	-0.300	0.272	
11.450	-0.698	0.111	
11.455	-0.601	-0.095	
11.460	-0.306	-0.280	
11.465	-0.439	-0.396	
11.470	-0.402	-0.453	
11.475	0.114	-0.449	
11.480	0.105	-0.368	
11.485	-0.164	-0.253	
11.490	0.345	-0.144	
11.495	0.515	-0.015	
11.500	-0.009	0.113	
11.505	0.226	0.189	
11.510	0.632	0.241	
11.515	0.236	0.302	
11.520	0.189	0.336	
11.525	0.790	0.355	
11.530	0.597	0.408	
11.535	0.116	0.456	
11.540	0.684	0.465	
11.545	0.881	0.493	
11.550	0.359	0.545	
11.555	0.576	0.570	
11.560	1.162	0.601	
11.565	0.768	0.674	
11.570	0.692	0.742	
11.575	1.338	0.800	
11.580	1.112	0.887	
11.585	0.675	0.962	
11.590	1.152	0.988	
11.595	1.242	1.013	
11.600	0.550	1.031	
11.605	0.652	0.988	
11.610	0.939	0.914	
11.615	0.337	0.841	
11.620	0.076	0.727	
11.625	0.521	0.584	
11.630	0.191	0.466	
11.635	-0.228	0.353	
11.640	0.078	0.224	
11.645	0.221	0.126	
11.650	-0.232	0.068	
11.655	-0.126	0.010	
11.660	0.211	-0.033	
11.665	-0.202	-0.044	
11.670	-0.236	-0.061	
11.675	0.243	-0.078	
11.680	0.027	-0.059	
11.685	-0.274	-0.038	
11.690	0.061	-0.042	
11.695	0.215	-0.033	
11.700	-0.226	-0.010	
11.705	-0.103	-0.013	
11.710	0.311	-0.017	
11.715	-0.092	0.003	
11.720	-0.158	0.012	
11.725	0.340	0.010	
11.730	0.172	0.040	
11.735	-0.161	0.071	
11.740	0.272	0.079	
11.745	0.382	0.104	
11.750	-0.177	0.136	
11.755	-0.097	0.124	
11.760	0.204	0.087	
11.765	-0.220	0.057	
11.770	-0.313	0.007	
11.775	0.038	-0.057	
11.780	-0.135	-0.095	
11.785	-0.353	-0.123	
11.790	-0.087	-0.157	
11.795	-0.014	-0.170	
11.800	-0.368	-0.167	
11.805	-0.281	-0.182	
11.810	0.084	-0.195	
11.815	-0.133	-0.177	
11.820	0.075	-0.141	
11.825	0.938	-0.053	
11.830	0.678	0.122	
11.835	-0.020	0.290	
11.840	-0.014	0.348	
11.845	-0.249	0.298	
11.850	-0.706	0.163	
11.855	-0.636	-0.040	
11.860	-0.375	-0.241	
11.865	-0.511	-0.383	
11.870	-0.442	-0.466	
11.875	0.044	-0.484	
11.880	-0.014	-0.420	
11.885	-0.226	-0.321	
11.890	0.208	-0.225	
11.895	0.388	-0.110	
11.900	-0.090	0.009	
11.905	0.206	0.084	
11.910	0.649	0.151	
11.915	0.143	0.231	
11.920	0.030	0.273	
11.925	0.698	0.285	
11.930	0.501	0.327	
11.935	0.110	0.371	
11.940	0.651	0.387	
11.945	0.811	0.426	
11.950	0.232	0.482	
11.955	0.521	0.504	
11.960	1.026	0.527	
11.965	0.589	0.588	
11.970	0.515	0.634	
11.975	1.173	0.669	
11.980	0.900	0.736	
11.985	0.505	0.794	
11.990	1.039	0.812	
11.995	1.112	0.841	
12.000	0.458	0.872	
12.005	0.626	0.849	
12.010	0.919	0.802	
12.015	0.269	0.757	
12.020	-0.023	0.661	
12.025	0.402	0.521	
12.030	0.055	0.394	
12.035	-0.275	0.270	
12.040	-0.038	0.135	
12.045	-0.019	0.026	
12.050	-0.358	-0.052	
12.055	-0.269	-0.127	
12.060	-0.035	-0.184	
12.065	-0.301	-0.207	
12.070	-0.367	-0.227	
12.075	-0.057	-0.245	
12.080	-0.219	-0.241	
12.085	-0.399	-0.236	
12.090	-0.089	-0.241	
12.095	-0.023	-0.226	
12.100	-0.373	-0.201	
12.105	-0.223	-0.197	
12.110	0.127	-0.191	
12.115	-0.208	-0.161	
12.120	-0.243	-0.141	
12.125	0.220	-0.127	
12.130	-0.008	-0.088	
12.135	-0.281	-0.056	
12.140	0.021	-0.056	
12.145	0.145	-0.049	
12.150	-0.266	-0.035	
12.155	-0.181	-0.048	
12.160	0.053	-0.072	
12.165	-0.278	-0.087	
12.170	-0.359	-0.118	
12.175	-0.049	-0.159	
12.180	-0.223	-0.182	
12.185	-0.468	-0.204	
12.190	-0.203	-0.240	
12.195	-0.122	-0.259	
12.200	-0.474	-0.264	
12.205	-0.332	-0.282	
12.210	-0.092	-0.295	
12.215	-0.338	-0.287	
12.220	-0.275	-0.278	
12.225	0.449	-0.243	
12.230	0.473	-0.130	
12.235	0.015	0.015	
12.240	0.163	0.114	
12.245	-0.145	0.151	
12.250	-0.650	0.105	
12.255	-0.662	-0.034	
12.260	-0.530	-0.212	
12.265	-0.715	-0.372	
12.270	-0.647	-0.503	
12.275	-0.260	-0.579	
12.280	-0.271	-0.576	
12.285	-0.385	-0.523	
12.290	-0.049	-0.451	
12.295	0.105	-0.349	
12.300	-0.245	-0.239	
12.305	-0.095	-0.163	
12.310	0.236	-0.104	
12.315	-0.106	-0.044	
12.320	-0.142	-0.011	
12.325	0.414	0.008	
12.330	0.181	0.056	
12.335	-0.129	0.099	
12.340	0.388	0.116	
12.345	0.531	0.158	
12.350	0.030	0.217	
12.355	0.347	0.250	
12.360	0.754	0.288	
12.365	0.316	0.354	
12.370	0.345	0.401	
12.375	1.036	0.444	
12.380	0.904	0.537	
12.385	0.495	0.637	
12.390	0.962	0.701	
12.395	1.042	0.762	
12.400	0.418	0.812	
12.405	0.623	0.802	
12.410	0.921	0.768	
12.415	0.235	0.734	
12.420	-0.005	0.646	
12.425	0.449	0.515	
12.430	0.061	0.399	
12.435	-0.292	0.281	
12.440	-0.035	0.146	
12.445	-0.026	0.034	
12.450	-0.352	-0.047	
12.455	-0.237	-0.123	
12.460	-0.017	-0.177	
12.465	-0.320	-0.198	
12.470	-0.347	-0.218	
12.475	-0.028	-0.236	
12.480	-0.223	-0.230	
12.485	-0.426	-0.226	
12.490	-0.142	-0.239	
12.495	-0.058	-0.236	
12.500	-0.368	-0.221	
12.505	-0.203	-0.218	
12.510	0.134	-0.206	
12.515	-0.251	-0.171	
12.520	-0.291	-0.152	
12.525	0.142	-0.147	
12.530	-0.037	-0.119	
12.535	-0.275	-0.093	
12.540	0.087	-0.086	
12.545	0.169	-0.064	
12.550	-0.266	-0.034	
12.555	-0.132	-0.035	
12.560	0.151	-0.047	
12.565	-0.265	-0.049	
12.570	-0.332	-0.073	
12.575	-0.061	-0.117	
12.580	-0.231	-0.149	
12.585	-0.433	-0.181	
12.590	-0.161	-0.222	
12.595	-0.127	-0.241	
12.600	-0.402	-0.244	
12.605	-0.229	-0.254	
12.610	-0.017	-0.252	
12.615	-0.315	-0.232	
12.620	-0.320	-0.224	
12.625	0.185	-0.214	
12.630	0.191	-0.158	
12.635	0.064	-0.073	
12.640	0.559	0.023	
12.645	0.233	0.131	
12.650	-0.472	0.186	
12.655	-0.524	0.121	
12.660	-0.434	-0.023	
12.665	-0.692	-0.186	
12.670	-0.686	-0.347	
12.675	-0.339	-0.473	
12.680	-0.329	-0.526	
12.685	-0.442	-0.522	
12.690	-0.078	-0.483	
12.695	0.134	-0.396	
12.700	-0.216	-0.281	
12.705	0.015	-0.186	
12.710	0.418	-0.094	
12.715	-0.049	0.005	
12.720	-0.092	0.064	
12.725	0.441	0.091	
12.730	0.151	0.130	
12.735	-0.113	0.155	
12.740	0.420	0.154	
12.745	0.545	0.184	
12.750	0.013	0.235	
12.755	0.316	0.258	
12.760	0.758	0.286	
12.765	0.347	0.348	
12.770	0.314	0.395	
12.775	0.900	0.432	
12.780	0.667	0.499	
12.785	0.403	0.561	
12.790	0.974	0.601	
12.795	0.997	0.665	
12.800	0.415	0.729	
12.805	0.673	0.742	
12.810	0.964	0.737	
12.815	0.350	0.735	
12.820	0.145	0.681	
12.825	0.568	0.585	
12.830	0.142	0.495	
12.835	-0.237	0.388	
12.840	0.067	0.252	
12.845	0.033	0.135	
12.850	-0.306	0.045	
12.855	-0.156	-0.042	
12.860	0.101	-0.101	
12.865	-0.275	-0.122	
12.870	-0.313	-0.145	
12.875	0.013	-0.170	
12.880	-0.187	-0.173	
12.885	-0.393	-0.178	
12.890	-0.101	-0.196	
12.895	-0.026	-0.198	
12.900	-0.344	-0.185	
12.905	-0.168	-0.186	
12.910	0.124	-0.177	
12.915	-0.211	-0.146	
12.920	-0.232	-0.129	
12.925	0.171	-0.120	
12.930	-0.057	-0.091	
12.935	-0.249	-0.069	
12.940	0.130	-0.065	
12.945	0.185	-0.042	
12.950	-0.257	-0.012	
12.955	-0.130	-0.016	
12.960	0.172	-0.031	
12.965	-0.214	-0.033	
12.970	-0.266	-0.052	
12.975	0.032	-0.084	
12.980	-0.179	-0.102	
12.985	-0.391	-0.126	
12.990	-0.116	-0.164	
12.995	-0.068	-0.184	
13.000	-0.356	-0.188	
13.005	-0.181	-0.200	
13.010	0.035	-0.200	
13.015	-0.352	-0.185	
13.020	-0.368	-0.191	
13.025	0.072	-0.206	
13.030	0.015	-0.185	
13.035	-0.090	-0.140	
13.040	0.614	-0.071	
13.045	0.560	0.054	
13.050	-0.272	0.173	
13.055	-0.362	0.184	
13.060	-0.370	0.092	
13.065	-0.668	-0.052	
13.070	-0.677	-0.223	
13.075	-0.362	-0.376	
13.080	-0.368	-0.463	
13.085	-0.448	-0.492	
13.090	-0.086	-0.478	
13.095	0.073	-0.408	
13.100	-0.248	-0.307	
13.105	0.007	-0.220	
13.110	0.414	-0.128	
13.115	-0.061	-0.024	
13.120	-0.072	0.042	
13.125	0.440	0.078	
13.130	0.114	0.123	
13.135	-0.153	0.147	
13.140	0.353	0.139	
13.145	0.486	0.157	
13.150	-0.013	0.197	
13.155	0.316	0.217	
13.160	0.675	0.246	
13.165	0.227	0.302	
13.170	0.282	0.339	
13.175	0.944	0.375	
13.180	0.672	0.454	
13.185	0.328	0.530	
13.190	0.956	0.575	
13.195	0.994	0.640	
13.200	0.380	0.708	
13.205	0.704	0.724	
13.210	0.988	0.726	
13.215	0.403	0.735	
13.220	0.267	0.699	
13.225	0.670	0.627	
13.230	0.261	0.562	
13.235	-0.133	0.475	
13.240	0.204	0.354	
13.245	0.131	0.248	
13.250	-0.292	0.158	
13.255	-0.161	0.056	
13.260	0.088	-0.028	
13.265	-0.294	-0.078	
13.270	-0.327	-0.126	
13.275	-0.011	-0.170	
13.280	-0.184	-0.185	
13.285	-0.364	-0.193	
13.290	-0.113	-0.208	
13.295	-0.071	-0.208	
13.300	-0.312	-0.195	
13.305	-0.133	-0.191	
13.310	0.162	-0.173	
13.315	-0.232	-0.134	
13.320	-0.239	-0.116	
13.325	0.152	-0.111	
13.330	-0.084	-0.089	
13.335	-0.294	-0.076	
13.340	0.073	-0.083	
13.345	0.131	-0.072	
13.350	-0.249	-0.049	
13.355	-0.124	-0.052	
13.360	0.211	-0.057	
13.365	-0.188	-0.044	
13.370	-0.225	-0.047	
13.375	0.142	-0.063	
13.380	-0.158	-0.064	
13.385	-0.356	-0.077	
13.390	-0.061	-0.112	
13.395	-0.068	-0.134	
13.400	-0.376	-0.146	
13.405	-0.232	-0.174	
13.410	-0.042	-0.196	
13.415	-0.355	-0.202	
13.420	-0.391	-0.220	
13.425	-0.068	-0.244	
13.430	-0.161	-0.242	
13.435	-0.220	-0.225	
13.440	0.495	-0.180	
13.445	0.582	-0.062	
13.450	-0.080	0.080	
13.455	-0.170	0.147	
13.460	-0.294	0.120	
13.465	-0.750	0.015	
13.470	-0.834	-0.161	
13.475	-0.553	-0.355	
13.480	-0.619	-0.503	
13.485	-0.718	-0.598	
13.490	-0.341	-0.646	
13.495	-0.174	-0.622	
13.500	-0.382	-0.546	
13.505	-0.141	-0.457	
13.510	0.195	-0.351	
13.515	-0.190	-0.231	
13.520	-0.182	-0.146	
13.525	0.305	-0.089	
13.530	0.018	-0.024	
13.535	-0.207	0.019	
13.540	0.220	0.028	
13.545	0.236	0.049	
13.550	-0.182	0.074	
13.555	0.088	0.071	
13.560	0.440	0.076	
13.565	-0.034	0.108	
13.570	-0.009	0.120	
13.575	0.660	0.132	
13.580	0.476	0.196	
13.585	0.203	0.275	
13.590	0.797	0.341	
13.595	0.831	0.431	
13.600	0.327	0.525	
13.605	0.666	0.573	
13.610	0.944	0.611	
13.615	0.308	0.649	
13.620	0.214	0.630	
13.625	0.672	0.569	
13.630	0.151	0.513	
13.635	-0.208	0.426	
13.640	0.211	0.302	
13.645	0.087	0.199	
13.650	-0.336	0.114	
13.655	-0.207	0.015	
13.660	-0.023	-0.073	
13.665	-0.362	-0.131	
13.670	-0.368	-0.186	
13.675	-0.100	-0.235	
13.680	-0.306	-0.256	
13.685	-0.478	-0.274	
13.690	-0.226	-0.301	
13.695	-0.216	-0.311	
13.700	-0.498	-0.312	
13.705	-0.310	-0.326	
13.710	-0.133	-0.330	
13.715	-0.375	-0.315	
13.720	-0.367	-0.307	
13.725	-0.074	-0.301	
13.730	-0.268	-0.279	
13.735	-0.401	-0.263	
13.740	-0.087	-0.260	
13.745	-0.086	-0.241	
13.750	-0.370	-0.216	
13.755	-0.187	-0.211	
13.760	0.033	-0.202	
13.765	-0.335	-0.181	
13.770	-0.333	-0.183	
13.775	-0.045	-0.198	
13.780	-0.278	-0.201	
13.785	-0.480	-0.215	
13.790	-0.236	-0.251	
13.795	-0.239	-0.277	
13.800	-0.498	-0.294	
13.805	-0.323	-0.321	
13.810	-0.152	-0.334	
13.815	-0.436	-0.328	
13.820	-0.457	-0.333	
13.825	-0.200	-0.345	
13.830	-0.365	-0.344	
13.835	-0.523	-0.347	
13.840	-0.147	-0.356	
13.845	0.128	-0.327	
13.850	-0.025	-0.248	
13.855	0.463	-0.139	
13.860	0.498	0.005	
13.865	-0.339	0.127	
13.870	-0.575	0.128	
13.875	-0.492	0.014	
13.880	-0.705	-0.149	
13.885	-0.837	-0.328	
13.890	-0.480	-0.488	
13.895	-0.396	-0.577	
13.900	-0.514	-0.597	
13.905	-0.225	-0.573	
13.910	0.104	-0.495	
13.915	-0.228	-0.376	
13.920	-0.208	-0.275	
13.925	0.264	-0.191	
13.930	0.010	-0.100	
13.935	-0.184	-0.032	
13.940	0.377	0.009	
13.945	0.405	0.072	
13.950	-0.101	0.140	
13.955	0.273	0.169	
13.960	0.586	0.200	
13.965	0.062	0.248	
13.970	0.168	0.266	
13.975	0.770	0.280	
13.980	0.432	0.334	
13.985	0.217	0.384	
13.990	0.897	0.419	
13.995	0.939	0.495	
14.000	0.398	0.588	
14.005	0.870	0.645	
14.010	1.268	0.711	
14.015	0.689	0.801	
14.020	0.670	0.851	
14.025	1.098	0.863	
14.030	0.638	0.871	
14.035	0.159	0.831	
14.040	0.605	0.730	
14.045	0.420	0.628	
14.050	-0.194	0.520	
14.055	0.000	0.372	
14.060	0.200	0.231	
14.065	-0.291	0.124	
14.070	-0.284	0.018	
14.075	0.026	-0.076	
14.080	-0.246	-0.130	
14.085	-0.417	-0.174	
14.090	-0.107	-0.218	
14.095	-0.133	-0.235	
14.100	-0.433	-0.237	
14.105	-0.246	-0.252	
14.110	-0.034	-0.257	
14.115	-0.358	-0.243	
14.120	-0.306	-0.240	
14.125	0.099	-0.234	
14.130	-0.213	-0.203	
14.135	-0.344	-0.181	
14.140	0.081	-0.175	
14.145	0.096	-0.143	
14.150	-0.266	-0.101	
14.155	-0.023	-0.083	
14.160	0.264	-0.061	
14.165	-0.217	-0.026	
14.170	-0.197	-0.020	
14.175	0.217	-0.032	
14.180	-0.098	-0.026	
14.185	-0.283	-0.030	
14.190	0.058	-0.055	
14.195	-0.052	-0.067	
14.200	-0.407	-0.081	
14.205	-0.217	-0.123	
14.210	-0.022	-0.161	
14.215	-0.358	-0.178	
14.220	-0.333	-0.203	
14.225	-0.006	-0.226	
14.230	-0.268	-0.223	
14.235	-0.433	-0.226	
14.240	-0.135	-0.244	
14.245	-0.164	-0.248	
14.250	-0.350	-0.241	
14.255	0.143	-0.227	
14.260	0.745	-0.147	
14.265	0.285	0.009	
14.270	0.163	0.152	
14.275	0.206	0.232	
14.280	-0.426	0.235	
14.285	-0.749	0.129	
14.290	-0.524	-0.060	
14.295	-0.482	-0.247	
14.300	-0.654	-0.392	
14.305	-0.361	-0.490	
14.310	-0.086	-0.516	
14.315	-0.336	-0.473	
14.320	-0.243	-0.411	
14.325	0.324	-0.328	
14.330	-0.009	-0.208	
14.335	-0.220	-0.107	
14.340	0.353	-0.042	
14.345	0.386	0.038	
14.350	-0.122	0.116	
14.355	0.263	0.152	
14.360	0.603	0.188	
14.365	0.035	0.240	
14.370	0.149	0.260	
14.375	0.741	0.271	
14.380	0.377	0.319	
14.385	0.134	0.359	
14.390	0.806	0.379	
14.395	0.857	0.439	
14.400	0.389	0.522	
14.405	0.866	0.582	
14.410	1.196	0.657	
14.415	0.640	0.752	
14.420	0.773	0.810	
14.425	1.314	0.851	
14.430	0.828	0.909	
14.435	0.421	0.926	
14.440	0.950	0.884	
14.445	0.719	0.841	
14.450	0.127	0.781	
14.455	0.437	0.672	
14.460	0.606	0.568	
14.465	-0.115	0.483	
14.470	-0.138	0.363	
14.475	0.258	0.231	
14.480	-0.167	0.133	
14.485	-0.362	0.040	
14.490	-0.029	-0.055	
14.495	-0.077	-0.115	
14.500	-0.398	-0.150	
14.505	-0.222	-0.190	
14.510	-0.009	-0.214	
14.515	-0.333	-0.213	
14.520	-0.300	-0.218	
14.525	0.085	-0.219	
14.530	-0.214	-0.195	
14.535	-0.373	-0.181	
14.540	0.036	-0.183	
14.545	0.041	-0.162	
14.550	-0.292	-0.130	
14.555	-0.077	-0.119	
14.560	0.168	-0.104	
14.565	-0.245	-0.077	
14.570	-0.199	-0.074	
14.575	0.295	-0.074	
14.580	-0.057	-0.046	
14.585	-0.249	-0.026	
14.590	0.188	-0.029	
14.595	0.078	-0.015	
14.600	-0.307	-0.004	
14.605	-0.126	-0.029	
14.610	0.029	-0.060	
14.615	-0.321	-0.082	
14.620	-0.262	-0.118	
14.625	0.139	-0.147	
14.630	-0.197	-0.142	
14.635	-0.370	-0.142	
14.640	0.047	-0.157	
14.645	-0.043	-0.150	
14.650	-0.375	-0.138	
14.655	-0.133	-0.150	
14.660	0.198	-0.148	
14.665	-0.124	-0.113	
14.670	0.230	-0.067	
14.675	0.968	0.028	
14.680	0.400	0.188	
14.685	-0.197	0.305	
14.690	-0.118	0.301	
14.695	-0.385	0.205	
14.700	-0.738	0.046	
14.705	-0.509	-0.151	
14.710	-0.301	-0.314	
14.715	-0.501	-0.411	
14.720	-0.352	-0.459	
14.725	0.114	-0.449	
14.730	-0.084	-0.370	
14.735	-0.187	-0.274	
14.740	0.403	-0.179	
14.745	0.333	-0.055	
14.750	-0.145	0.058	
14.755	0.267	0.118	
14.760	0.600	0.171	
14.765	0.023	0.234	
14.770	0.194	0.261	
14.775	0.799	0.282	
14.780	0.394	0.341	
14.785	0.094	0.384	
14.790	0.750	0.396	
14.795	0.710	0.435	
14.800	0.208	0.484	
14.805	0.716	0.504	
14.810	1.074	0.545	
14.815	0.498	0.620	
14.820	0.634	0.668	
14.825	1.239	0.706	
14.830	0.831	0.777	
14.835	0.596	0.829	
14.840	1.199	0.851	
14.845	1.051	0.891	
14.850	0.386	0.916	
14.855	0.727	0.877	
14.860	0.935	0.824	
14.865	0.249	0.777	
14.870	0.191	0.686	
14.875	0.570	0.569	
14.880	0.018	0.469	
14.885	-0.229	0.351	
14.890	0.162	0.215	
14.895	0.058	0.115	
14.900	-0.292	0.045	
14.905	0.018	-0.022	
14.910	0.243	-0.051	
14.915	-0.234	-0.044	
14.920	-0.171	-0.050	
14.925	0.282	-0.058	
14.930	-0.072	-0.036	
14.935	-0.225	-0.023	
14.940	0.258	-0.024	
14.945	0.160	0.000	
14.950	-0.258	0.027	
14.955	0.114	0.024	
14.960	0.429	0.037	
14.965	-0.145	0.074	
14.970	-0.142	0.079	
14.975	0.452	0.067	
14.980	0.078	0.088	
14.985	-0.147	0.103	
14.990	0.421	0.101	
14.995	0.304	0.128	
15.000	-0.181	0.156	
15.005	0.102	0.143	
15.010	0.314	0.126	
15.015	-0.222	0.118	
15.020	-0.165	0.079	
15.025	0.253	0.031	
15.030	-0.173	0.010	
15.035	-0.304	-0.021	
15.040	0.168	-0.060	
15.045	0.065	-0.064	
15.050	-0.327	-0.056	
15.055	-0.084	-0.072	
15.060	0.174	-0.082	
15.065	-0.255	-0.071	
15.070	-0.124	-0.074	
15.075	0.583	-0.058	
15.080	0.438	0.029	
15.085	0.229	0.144	
15.090	0.626	0.244	
15.095	0.110	0.322	
15.100	-0.454	0.319	
15.105	-0.352	0.205	
15.110	-0.309	0.044	
15.115	-0.607	-0.116	
15.120	-0.466	-0.265	
15.125	-0.071	-0.364	
15.130	-0.228	-0.384	
15.135	-0.286	-0.360	
15.140	0.319	-0.304	
15.145	0.377	-0.187	
15.150	-0.071	-0.049	
15.155	0.412	0.058	
15.160	0.664	0.166	
15.165	0.056	0.271	
15.170	0.209	0.318	
15.175	0.713	0.337	
15.180	0.310	0.374	
15.185	0.015	0.386	
15.190	0.676	0.367	
15.195	0.750	0.388	
15.200	0.319	0.441	
15.205	0.770	0.486	
15.210	1.017	0.551	
15.215	0.530	0.635	
15.220	0.754	0.690	
15.225	1.307	0.744	
15.230	0.887	0.829	
15.235	0.657	0.891	
15.240	1.280	0.917	
15.245	1.196	0.965	
15.250	0.577	1.006	
15.255	0.933	0.992	
15.260	1.005	0.961	
15.265	0.226	0.915	
15.270	0.241	0.802	
15.275	0.693	0.663	
15.280	0.105	0.552	
15.285	-0.136	0.431	
15.290	0.310	0.299	
15.295	0.122	0.206	
15.300	-0.298	0.135	
15.305	-0.092	0.048	
15.310	0.039	-0.023	
15.315	-0.338	-0.071	
15.320	-0.294	-0.124	
15.325	0.017	-0.169	
15.330	-0.248	-0.183	
15.335	-0.364	-0.196	
15.340	-0.013	-0.211	
15.345	-0.051	-0.200	
15.350	-0.339	-0.179	
15.355	-0.071	-0.172	
15.360	0.162	-0.152	
15.365	-0.272	-0.115	
15.370	-0.220	-0.103	
15.375	0.125	-0.106	
15.380	-0.220	-0.096	
15.385	-0.278	-0.101	
15.390	0.235	-0.110	
15.395	0.125	-0.079	
15.400	-0.251	-0.039	
15.405	0.013	-0.029	
15.410	0.236	-0.018	
15.415	-0.248	0.002	
15.420	-0.246	-0.012	
15.425	0.053	-0.048	
15.430	-0.251	-0.075	
15.435	-0.401	-0.114	
15.440	-0.101	-0.165	
15.445	-0.208	-0.197	
15.450	-0.472	-0.222	
15.455	-0.173	-0.255	
15.460	-0.026	-0.263	
15.465	-0.423	-0.248	
15.470	-0.367	-0.252	
15.475	-0.029	-0.263	
15.480	-0.179	-0.247	
15.485	-0.136	-0.218	
15.490	0.654	-0.154	
15.495	0.376	-0.023	
15.500	-0.306	0.096	
15.505	-0.275	0.114	
15.510	-0.349	0.046	
15.515	-0.772	-0.077	
15.520	-0.740	-0.244	
15.525	-0.440	-0.406	
15.530	-0.578	-0.512	
15.535	-0.592	-0.570	
15.540	-0.171	-0.583	
15.545	-0.179	-0.533	
15.550	-0.362	-0.451	
15.555	-0.008	-0.370	
15.560	0.290	-0.266	
15.565	-0.234	-0.150	
15.570	-0.124	-0.079	
15.575	0.441	-0.032	
15.580	-0.011	0.032	
15.585	-0.152	0.070	
15.590	0.376	0.078	
15.595	0.247	0.107	
15.600	-0.164	0.134	
15.605	0.333	0.134	
15.610	0.621	0.161	
15.615	0.020	0.219	
15.620	0.111	0.242	
15.625	0.767	0.255	
15.630	0.449	0.311	
15.635	0.292	0.372	
15.640	0.988	0.426	
15.645	0.881	0.519	
15.650	0.302	0.610	
15.655	0.733	0.645	
15.660	0.976	0.669	
15.665	0.273	0.694	
15.670	0.292	0.662	
15.675	0.631	0.593	
15.680	-0.019	0.520	
15.685	-0.251	0.404	
15.690	0.099	0.253	
15.695	-0.063	0.127	
15.700	-0.381	0.022	
15.705	-0.167	-0.079	
15.710	-0.106	-0.152	
15.715	-0.459	-0.198	
15.720	-0.384	-0.249	
15.725	-0.129	-0.291	
15.730	-0.370	-0.305	
15.735	-0.477	-0.317	
15.740	-0.155	-0.333	
15.745	-0.245	-0.327	
15.750	-0.521	-0.317	
15.755	-0.272	-0.326	
15.760	-0.127	-0.325	
15.765	-0.426	-0.309	
15.770	-0.335	-0.304	
15.775	-0.032	-0.298	
15.780	-0.284	-0.272	
15.785	-0.413	-0.255	
15.790	-0.028	-0.253	
15.795	-0.121	-0.232	
15.800	-0.390	-0.209	
15.805	-0.106	-0.206	
15.810	0.061	-0.191	
15.815	-0.344	-0.164	
15.820	-0.318	-0.164	
15.825	-0.025	-0.180	
15.830	-0.283	-0.185	
15.835	-0.431	-0.200	
15.840	-0.132	-0.230	
15.845	-0.239	-0.245	
15.850	-0.514	-0.259	
15.855	-0.274	-0.289	
15.860	-0.167	-0.307	
15.865	-0.463	-0.309	
15.870	-0.417	-0.322	
15.875	-0.199	-0.339	
15.880	-0.437	-0.342	
15.885	-0.532	-0.354	
15.890	-0.161	-0.372	
15.895	-0.014	-0.352	
15.900	-0.103	-0.291	
15.905	0.449	-0.196	
15.910	0.431	-0.057	
15.915	-0.364	0.066	
15.920	-0.512	0.076	
15.925	-0.439	-0.017	
15.930	-0.747	-0.158	
15.935	-0.839	-0.326	
15.940	-0.466	-0.482	
15.945	-0.428	-0.571	
15.950	-0.556	-0.596	
15.955	-0.223	-0.580	
15.960	0.055	-0.509	
15.965	-0.268	-0.397	
15.970	-0.121	-0.297	
15.975	0.322	-0.202	
15.980	-0.092	-0.097	
15.985	-0.159	-0.029	
15.990	0.443	0.011	
15.995	0.304	0.077	
16.000	-0.159	0.136	
16.005	0.318	0.154	
16.010	0.554	0.182	
16.015	-0.032	0.226	
16.020	0.177	0.237	
16.025	0.710	0.246	
16.030	0.240	0.290	
16.035	0.175	0.321	
16.040	0.903	0.346	
16.045	0.909	0.428	
16.050	0.449	0.535	
16.055	0.961	0.617	
16.060	1.176	0.707	
16.065	0.568	0.800	
16.070	0.695	0.837	
16.075	1.116	0.842	
16.080	0.519	0.848	
16.085	0.148	0.801	
16.090	0.704	0.700	
16.095	0.447	0.614	
16.100	-0.152	0.525	
16.105	0.157	0.398	
16.110	0.253	0.281	
16.115	-0.287	0.190	
16.120	-0.216	0.085	
16.125	0.101	-0.011	
16.130	-0.275	-0.070	
16.135	-0.407	-0.125	
16.140	-0.086	-0.183	
16.145	-0.194	-0.214	
16.150	-0.460	-0.233	
16.155	-0.208	-0.260	
16.160	-0.072	-0.269	
16.165	-0.388	-0.258	
16.170	-0.321	-0.259	
16.175	0.064	-0.256	
16.180	-0.207	-0.226	
16.185	-0.318	-0.200	
16.190	0.042	-0.188	
16.195	-0.046	-0.160	
16.200	-0.313	-0.133	
16.205	0.018	-0.126	
16.210	0.209	-0.102	
16.215	-0.271	-0.064	
16.220	-0.165	-0.056	
16.225	0.316	-0.055	
16.230	-0.098	-0.028	
16.235	-0.237	-0.014	
16.240	0.168	-0.024	
16.245	-0.086	-0.023	
16.250	-0.381	-0.037	
16.255	-0.145	-0.082	
16.260	-0.042	-0.122	
16.265	-0.408	-0.149	
16.270	-0.324	-0.189	
16.275	-0.026	-0.224	
16.280	-0.332	-0.232	
16.285	-0.466	-0.247	
16.290	-0.116	-0.272	
16.295	-0.219	-0.277	
16.300	-0.482	-0.276	
16.305	-0.008	-0.279	
16.310	0.551	-0.227	
16.315	0.143	-0.102	
16.320	0.299	0.030	
16.325	0.431	0.144	
16.330	-0.361	0.210	
16.335	-0.666	0.160	
16.340	-0.483	0.005	
16.345	-0.572	-0.174	
16.350	-0.753	-0.339	
16.355	-0.425	-0.474	
16.360	-0.210	-0.536	
16.365	-0.431	-0.527	
16.370	-0.239	-0.485	
16.375	0.288	-0.404	
16.380	-0.121	-0.279	
16.385	-0.207	-0.174	
16.390	0.394	-0.096	
16.395	0.208	-0.004	
16.400	-0.182	0.071	
16.405	0.276	0.100	
16.410	0.461	0.135	
16.415	-0.118	0.176	
16.420	0.124	0.181	
16.425	0.725	0.189	
16.430	0.240	0.242	
16.435	0.026	0.280	
16.440	0.748	0.295	
16.445	0.591	0.345	
16.450	0.159	0.403	
16.455	0.794	0.435	
16.460	1.060	0.500	
16.465	0.395	0.593	
16.470	0.612	0.642	
16.475	1.182	0.678	
16.480	0.658	0.738	
16.485	0.389	0.764	
16.490	0.932	0.745	
16.495	0.670	0.734	
16.500	0.036	0.699	
16.505	0.392	0.605	
16.510	0.440	0.506	
16.515	-0.202	0.413	
16.520	-0.167	0.285	
16.525	0.149	0.152	
16.530	-0.220	0.054	
16.535	-0.327	-0.033	
16.540	0.023	-0.108	
16.545	-0.139	-0.145	
16.550	-0.428	-0.168	
16.555	-0.158	-0.201	
16.560	-0.048	-0.217	
16.565	-0.390	-0.214	
16.570	-0.310	-0.226	
16.575	-0.025	-0.238	
16.580	-0.281	-0.229	
16.585	-0.350	-0.226	
16.590	0.018	-0.227	
16.595	-0.084	-0.204	
16.600	-0.339	-0.178	
16.605	-0.051	-0.170	
16.610	0.125	-0.149	
16.615	-0.303	-0.116	
16.620	-0.168	-0.108	
16.625	0.307	-0.100	
16.630	-0.130	-0.063	
16.635	-0.252	-0.042	
16.640	0.235	-0.043	
16.645	0.035	-0.024	
16.650	-0.310	-0.010	
16.655	-0.080	-0.032	
16.660	0.062	-0.056	
16.665	-0.341	-0.071	
16.670	-0.262	-0.106	
16.675	0.068	-0.140	
16.680	-0.280	-0.150	
16.685	-0.381	-0.167	
16.690	-0.043	-0.195	
16.695	-0.164	-0.202	
16.700	-0.413	-0.204	
16.705	-0.162	-0.220	
16.710	-0.008	-0.222	
16.715	-0.313	-0.205	
16.720	-0.037	-0.190	
16.725	0.783	-0.129	
16.730	0.307	0.010	
16.735	-0.130	0.134	
16.740	0.061	0.176	
16.745	-0.292	0.150	
16.750	-0.676	0.054	
16.755	-0.509	-0.102	
16.760	-0.375	-0.256	
16.765	-0.628	-0.371	
16.770	-0.437	-0.455	
16.775	-0.020	-0.482	
16.780	-0.239	-0.440	
16.785	-0.266	-0.373	
16.790	0.310	-0.293	
16.795	0.185	-0.174	
16.800	-0.184	-0.061	
16.805	0.308	0.012	
16.810	0.522	0.089	
16.815	-0.081	0.170	
16.820	0.133	0.201	
16.825	0.631	0.216	
16.830	0.134	0.255	
16.835	-0.020	0.267	
16.840	0.625	0.257	
16.845	0.504	0.285	
16.850	0.052	0.323	
16.855	0.652	0.341	
16.860	0.910	0.391	
16.865	0.290	0.471	
16.870	0.481	0.514	
16.875	1.159	0.552	
16.880	0.728	0.631	
16.885	0.528	0.699	
16.890	1.147	0.739	
16.895	0.900	0.793	
16.900	0.259	0.822	
16.905	0.735	0.784	
16.910	0.838	0.739	
16.915	0.041	0.693	
16.920	0.122	0.591	
16.925	0.512	0.469	
16.930	-0.101	0.370	
16.935	-0.263	0.255	
16.940	0.143	0.130	
16.945	-0.084	0.041	
16.950	-0.396	-0.030	
16.955	-0.084	-0.103	
16.960	0.131	-0.140	
16.965	-0.315	-0.139	
16.970	-0.234	-0.147	
16.975	0.065	-0.156	
16.980	-0.283	-0.150	
16.985	-0.381	-0.160	
16.990	0.055	-0.181	
16.995	-0.078	-0.174	
17.000	-0.349	-0.159	
17.005	-0.066	-0.161	
17.010	0.085	-0.151	
17.015	-0.278	-0.126	
17.020	-0.124	-0.118	
17.025	0.319	-0.102	
17.030	-0.119	-0.057	
17.035	-0.223	-0.031	
17.040	0.261	-0.026	
17.045	0.023	-0.005	
17.050	-0.294	0.008	
17.055	0.015	-0.013	
17.060	0.104	-0.028	
17.065	-0.335	-0.036	
17.070	-0.231	-0.070	
17.075	0.105	-0.105	
17.080	-0.271	-0.117	
17.085	-0.391	-0.139	
17.090	-0.051	-0.175	
17.095	-0.121	-0.189	
17.100	-0.364	-0.191	
17.105	-0.075	-0.200	
17.110	0.027	-0.189	
17.115	-0.408	-0.169	
17.120	-0.295	-0.178	
17.125	0.220	-0.185	
17.130	-0.023	-0.149	
17.135	0.061	-0.093	
17.140	0.800	-0.007	
17.145	0.299	0.127	
17.150	-0.398	0.216	
17.155	-0.378	0.179	
17.160	-0.420	0.056	
17.165	-0.727	-0.105	
17.170	-0.578	-0.278	
17.175	-0.248	-0.410	
17.180	-0.425	-0.468	
17.185	-0.416	-0.481	
17.190	0.124	-0.450	
17.195	0.046	-0.358	
17.200	-0.222	-0.247	
17.205	0.270	-0.152	
17.210	0.486	-0.041	
17.215	-0.136	0.073	
17.220	-0.017	0.124	
17.225	0.527	0.143	
17.230	0.021	0.175	
17.235	-0.130	0.178	
17.240	0.443	0.156	
17.245	0.321	0.167	
17.250	-0.106	0.186	
17.255	0.457	0.187	
17.260	0.736	0.225	
17.265	0.160	0.298	
17.270	0.431	0.347	
17.275	1.000	0.401	
17.280	0.502	0.489	
17.285	0.408	0.553	
17.290	1.113	0.595	
17.295	0.918	0.669	
17.300	0.351	0.735	
17.305	0.809	0.743	
17.310	0.976	0.746	
17.315	0.250	0.749	
17.320	0.307	0.694	
17.325	0.718	0.612	
17.330	0.096	0.544	
17.335	-0.138	0.445	
17.340	0.314	0.321	
17.345	-0.029	0.222	
17.350	-0.359	0.127	
17.355	-0.048	0.021	
17.360	0.125	-0.051	
17.365	-0.327	-0.082	
17.370	-0.219	-0.117	
17.375	0.137	-0.142	
17.380	-0.260	-0.137	
17.385	-0.367	-0.144	
17.390	-0.003	-0.167	
17.395	-0.119	-0.170	
17.400	-0.365	-0.168	
17.405	-0.051	-0.178	
17.410	0.127	-0.166	
17.415	-0.297	-0.133	
17.420	-0.228	-0.125	
17.425	0.160	-0.125	
17.430	-0.171	-0.106	
17.435	-0.243	-0.096	
17.440	0.305	-0.090	
17.445	0.087	-0.050	
17.450	-0.266	-0.011	
17.455	0.165	-0.002	
17.460	0.327	0.020	
17.465	-0.252	0.053	
17.470	-0.161	0.044	
17.475	0.233	0.016	
17.480	-0.231	0.003	
17.485	-0.364	-0.032	
17.490	-0.016	-0.088	
17.495	-0.173	-0.125	
17.500	-0.442	-0.158	
17.505	-0.179	-0.202	
17.510	-0.100	-0.227	
17.515	-0.413	-0.235	
17.520	-0.303	-0.252	
17.525	-0.019	-0.261	
17.530	-0.297	-0.247	
17.535	-0.292	-0.236	
17.540	0.415	-0.209	
17.545	0.490	-0.109	
17.550	0.013	0.025	
17.555	0.331	0.125	
17.560	0.049	0.185	
17.565	-0.570	0.174	
17.570	-0.640	0.056	
17.575	-0.469	-0.119	
17.580	-0.708	-0.289	
17.585	-0.724	-0.439	
17.590	-0.260	-0.544	
17.595	-0.232	-0.563	
17.600	-0.394	-0.520	
17.605	-0.013	-0.451	
17.610	0.263	-0.341	
17.615	-0.220	-0.210	
17.620	-0.083	-0.119	
17.625	0.421	-0.051	
17.630	-0.023	0.026	
17.635	-0.129	0.070	
17.640	0.432	0.086	
17.645	0.264	0.124	
17.650	-0.122	0.159	
17.655	0.369	0.164	
17.660	0.571	0.191	
17.665	-0.028	0.238	
17.670	0.198	0.250	
17.675	0.758	0.262	
17.680	0.322	0.313	
17.685	0.217	0.355	
17.690	0.959	0.389	
17.695	0.809	0.470	
17.700	0.360	0.559	
17.705	0.935	0.613	
17.710	1.095	0.680	
17.715	0.327	0.746	
17.720	0.478	0.744	
17.725	0.924	0.708	
17.730	0.224	0.677	
17.735	-0.078	0.596	
17.740	0.395	0.468	
17.745	0.134	0.358	
17.750	-0.266	0.256	
17.755	0.021	0.141	
17.760	0.055	0.051	
17.765	-0.361	-0.014	
17.770	-0.292	-0.087	
17.775	0.024	-0.150	
17.780	-0.297	-0.178	
17.785	-0.405	-0.204	
17.790	-0.066	-0.233	
17.795	-0.236	-0.240	
17.800	-0.491	-0.247	
17.805	-0.190	-0.269	
17.810	-0.063	-0.274	
17.815	-0.419	-0.259	
17.820	-0.315	-0.260	
17.825	0.030	-0.260	
17.830	-0.280	-0.236	
17.835	-0.370	-0.223	
17.840	0.017	-0.221	
17.845	-0.115	-0.200	
17.850	-0.365	-0.180	
17.855	-0.077	-0.179	
17.860	0.149	-0.163	
17.865	-0.255	-0.126	
17.870	-0.156	-0.109	
17.875	0.226	-0.096	
17.880	-0.217	-0.068	
17.885	-0.324	-0.067	
17.890	0.023	-0.092	
17.895	-0.190	-0.110	
17.900	-0.466	-0.136	
17.905	-0.197	-0.185	
17.910	-0.132	-0.220	
17.915	-0.501	-0.242	
17.920	-0.364	-0.277	
17.925	-0.084	-0.303	
17.930	-0.385	-0.303	
17.935	-0.466	-0.308	
17.940	-0.167	-0.322	
17.945	-0.245	-0.318	
17.950	-0.394	-0.305	
17.955	0.189	-0.282	
17.960	0.660	-0.189	
17.965	0.023	-0.037	
17.970	-0.009	0.076	
17.975	0.018	0.119	
17.980	-0.556	0.093	
17.985	-0.793	-0.023	
17.990	-0.553	-0.201	
17.995	-0.621	-0.367	
18.000	-0.784	-0.500	
18.005	-0.408	-0.593	
18.010	-0.170	-0.611	
18.015	-0.423	-0.561	
18.020	-0.182	-0.488	
18.025	0.369	-0.382	
18.030	-0.092	-0.237	
18.035	-0.181	-0.122	
18.040	0.443	-0.044	
18.045	0.235	0.046	
18.050	-0.162	0.117	
18.055	0.340	0.141	
18.060	0.539	0.176	
18.065	-0.100	0.222	
18.070	0.136	0.225	
18.075	0.730	0.227	
18.080	0.223	0.270	
18.085	0.072	0.299	
18.090	0.832	0.313	
18.095	0.716	0.375	
18.100	0.238	0.452	
18.105	0.857	0.501	
18.110	1.115	0.574	
18.115	0.489	0.669	
18.120	0.808	0.726	
18.125	1.306	0.777	
18.130	0.709	0.850	
18.135	0.472	0.876	
18.140	1.034	0.851	
18.145	0.651	0.829	
18.150	-0.016	0.772	
18.155	0.386	0.648	
18.160	0.461	0.524	
18.165	-0.211	0.416	
18.170	-0.136	0.282	
18.175	0.218	0.152	
18.180	-0.258	0.062	
18.185	-0.382	-0.025	
18.190	0.006	-0.110	
18.195	-0.161	-0.156	
18.200	-0.440	-0.185	
18.205	-0.162	-0.221	
18.210	-0.040	-0.234	
18.215	-0.404	-0.228	
18.220	-0.303	-0.236	
18.225	-0.013	-0.243	
18.230	-0.313	-0.231	
18.235	-0.416	-0.232	
18.240	-0.034	-0.243	
18.245	-0.150	-0.234	
18.250	-0.393	-0.219	
18.255	-0.026	-0.216	
18.260	0.174	-0.187	
18.265	-0.294	-0.137	
18.270	-0.174	-0.114	
18.275	0.175	-0.104	
18.280	-0.210	-0.081	
18.285	-0.269	-0.078	
18.290	0.223	-0.087	
18.295	-0.034	-0.068	
18.300	-0.359	-0.056	
18.305	-0.144	-0.081	
18.310	-0.095	-0.113	
18.315	-0.446	-0.143	
18.320	-0.315	-0.192	
18.325	0.001	-0.230	
18.330	-0.330	-0.236	
18.335	-0.434	-0.246	
18.340	-0.048	-0.263	
18.345	-0.177	-0.255	
18.350	-0.474	-0.245	
18.355	-0.214	-0.256	
18.360	-0.066	-0.259	
18.365	-0.324	-0.244	
18.370	-0.013	-0.225	
18.375	0.811	-0.153	
18.380	0.322	0.000	
18.385	-0.142	0.136	
18.390	-0.064	0.176	
18.395	-0.434	0.131	
18.400	-0.802	0.005	
18.405	-0.587	-0.180	
18.410	-0.451	-0.349	
18.415	-0.654	-0.467	
18.420	-0.451	-0.541	
18.425	-0.090	-0.553	
18.430	-0.281	-0.499	
18.435	-0.307	-0.425	
18.440	0.194	-0.342	
18.445	0.075	-0.232	
18.450	-0.231	-0.129	
18.455	0.278	-0.060	
18.460	0.482	0.022	
18.465	-0.170	0.108	
18.470	-0.026	0.136	
18.475	0.585	0.141	
18.480	0.152	0.177	
18.485	0.007	0.204	
18.490	0.690	0.219	
18.495	0.492	0.273	
18.500	0.021	0.327	
18.505	0.631	0.347	
18.510	0.869	0.392	
18.515	0.290	0.465	
18.520	0.609	0.509	
18.525	1.184	0.562	
18.530	0.670	0.652	
18.535	0.519	0.717	
18.540	1.184	0.749	
18.545	0.932	0.803	
18.550	0.359	0.839	
18.555	0.802	0.815	
18.560	0.831	0.781	
18.565	0.010	0.735	
18.570	0.154	0.623	
18.575	0.515	0.491	
18.580	-0.112	0.385	
18.585	-0.254	0.264	
18.590	0.178	0.135	
18.595	-0.078	0.048	
18.600	-0.375	-0.020	
18.605	-0.101	-0.093	
18.610	0.006	-0.138	
18.615	-0.384	-0.156	
18.620	-0.284	-0.185	
18.625	0.017	-0.208	
18.630	-0.309	-0.207	
18.635	-0.370	-0.213	
18.640	0.039	-0.223	
18.645	-0.121	-0.206	
18.650	-0.378	-0.186	
18.655	-0.052	-0.185	
18.660	0.097	-0.168	
18.665	-0.347	-0.138	
18.670	-0.234	-0.136	
18.675	0.168	-0.140	
18.680	-0.216	-0.121	
18.685	-0.287	-0.115	
18.690	0.163	-0.120	
18.695	-0.068	-0.101	
18.700	-0.324	-0.087	
18.705	0.000	-0.097	
18.710	0.140	-0.093	
18.715	-0.326	-0.075	
18.720	-0.211	-0.086	
18.725	0.124	-0.105	
18.730	-0.298	-0.106	
18.735	-0.398	-0.128	
18.740	-0.046	-0.167	
18.745	-0.200	-0.188	
18.750	-0.426	-0.203	
18.755	-0.138	-0.229	
18.760	-0.038	-0.233	
18.765	-0.433	-0.222	
18.770	-0.307	-0.231	
18.775	0.116	-0.236	
18.780	-0.147	-0.205	
18.785	-0.069	-0.164	
18.790	0.759	-0.091	
18.795	0.463	0.050	
18.800	-0.297	0.174	
18.805	-0.243	0.185	
18.810	-0.327	0.106	
18.815	-0.738	-0.028	
18.820	-0.621	-0.201	
18.825	-0.300	-0.354	
18.830	-0.477	-0.442	
18.835	-0.472	-0.483	
18.840	0.012	-0.480	
18.845	-0.026	-0.411	
18.850	-0.272	-0.316	
18.855	0.175	-0.229	
18.860	0.420	-0.121	
18.865	-0.148	-0.006	
18.870	0.065	0.061	
18.875	0.528	0.106	
18.880	0.105	0.165	
18.885	0.032	0.199	
18.890	0.709	0.220	
18.895	0.501	0.279	
18.900	0.044	0.338	
18.905	0.620	0.360	
18.910	0.813	0.401	
18.915	0.195	0.460	
18.920	0.472	0.481	
18.925	0.981	0.501	
18.930	0.438	0.550	
18.935	0.400	0.577	
18.940	1.193	0.596	
18.945	1.013	0.671	
18.950	0.518	0.756	
18.955	1.025	0.800	
18.960	1.104	0.844	
18.965	0.356	0.875	
18.970	0.505	0.836	
18.975	0.883	0.766	
18.980	0.195	0.704	
18.985	-0.109	0.598	
18.990	0.334	0.449	
18.995	0.120	0.325	
19.000	-0.246	0.219	
19.005	0.068	0.112	
19.010	0.204	0.044	
19.015	-0.283	0.011	
19.020	-0.179	-0.032	
19.025	0.175	-0.069	
19.030	-0.202	-0.076	
19.035	-0.266	-0.088	
19.040	0.197	-0.102	
19.045	-0.043	-0.087	
19.050	-0.321	-0.073	
19.055	0.035	-0.082	
19.060	0.229	-0.073	
19.065	-0.236	-0.043	
19.070	-0.084	-0.035	
19.075	0.383	-0.026	
19.080	-0.113	0.010	
19.085	-0.225	0.022	
19.090	0.350	0.014	
19.095	0.177	0.038	
19.100	-0.184	0.067	
19.105	0.266	0.072	
19.110	0.469	0.099	
19.115	-0.138	0.143	
19.120	-0.011	0.147	
19.125	0.412	0.133	
19.130	-0.139	0.133	
19.135	-0.260	0.103	
19.140	0.208	0.048	
19.145	-0.032	0.018	
19.150	-0.336	-0.009	
19.155	-0.051	-0.056	
19.160	0.127	-0.083	
19.165	-0.320	-0.086	
19.170	-0.170	-0.103	
19.175	0.221	-0.113	
19.180	-0.243	-0.095	
19.185	-0.318	-0.096	
19.190	0.345	-0.103	
19.195	0.411	-0.052	
19.200	0.175	0.045	
19.205	0.709	0.152	
19.210	0.504	0.273	
19.215	-0.376	0.345	
19.220	-0.459	0.283	
19.225	-0.339	0.126	
19.230	-0.662	-0.058	
19.235	-0.660	-0.245	
19.240	-0.214	-0.393	
19.245	-0.213	-0.453	
19.250	-0.382	-0.446	
19.255	0.047	-0.404	
19.260	0.371	-0.304	
19.265	-0.161	-0.170	
19.270	0.038	-0.069	
19.275	0.573	0.016	
19.280	0.055	0.112	
19.285	-0.071	0.167	
19.290	0.563	0.185	
19.295	0.318	0.223	
19.300	-0.107	0.251	
19.305	0.492	0.246	
19.310	0.736	0.272	
19.315	0.114	0.331	
19.320	0.327	0.358	
19.325	0.916	0.383	
19.330	0.446	0.445	
19.335	0.369	0.494	
19.340	1.075	0.531	
19.345	0.895	0.609	
19.350	0.402	0.685	
19.355	0.977	0.720	
19.360	1.162	0.767	
19.365	0.507	0.824	
19.370	0.666	0.831	
19.375	1.066	0.815	
19.380	0.463	0.807	
19.385	0.166	0.754	
19.390	0.683	0.657	
19.395	0.345	0.574	
19.400	-0.167	0.484	
19.405	0.165	0.358	
19.410	0.220	0.247	
19.415	-0.300	0.162	
19.420	-0.220	0.062	
19.425	0.087	-0.029	
19.430	-0.289	-0.083	
19.435	-0.408	-0.136	
19.440	-0.028	-0.190	
19.445	-0.144	-0.209	
19.450	-0.408	-0.213	
19.455	-0.135	-0.226	
19.460	-0.016	-0.223	
19.465	-0.362	-0.205	
19.470	-0.262	-0.204	
19.475	0.055	-0.204	
19.480	-0.243	-0.185	
19.485	-0.342	-0.177	
19.490	0.096	-0.179	
19.495	-0.064	-0.157	
19.500	-0.359	-0.135	
19.505	-0.037	-0.137	
19.510	0.178	-0.125	
19.515	-0.272	-0.093	
19.520	-0.161	-0.085	
19.525	0.220	-0.082	
19.530	-0.211	-0.063	
19.535	-0.330	-0.066	
19.540	-0.032	-0.097	
19.545	-0.210	-0.123	
19.550	-0.475	-0.155	
19.555	-0.197	-0.205	
19.560	-0.106	-0.237	
19.565	-0.472	-0.249	
19.570	-0.385	-0.276	
19.575	-0.083	-0.299	
19.580	-0.364	-0.298	
19.585	-0.454	-0.300	
19.590	-0.156	-0.312	
19.595	-0.263	-0.308	
19.600	-0.425	-0.300	
19.605	0.076	-0.289	
19.610	0.547	-0.217	
19.615	-0.042	-0.090	
19.620	-0.038	0.009	
19.625	-0.051	0.048	
19.630	-0.575	0.025	
19.635	-0.808	-0.083	
19.640	-0.578	-0.249	
19.645	-0.625	-0.404	
19.650	-0.752	-0.525	
19.655	-0.393	-0.604	
19.660	-0.205	-0.611	
19.665	-0.449	-0.560	
19.670	-0.266	-0.495	
19.675	0.156	-0.410	
19.680	-0.185	-0.298	
19.685	-0.255	-0.210	
19.690	0.232	-0.150	
19.695	0.078	-0.079	
19.700	-0.231	-0.022	
19.705	0.178	-0.000	
19.710	0.371	0.034	
19.715	-0.173	0.079	
19.720	-0.074	0.084	
19.725	0.435	0.077	
19.730	0.085	0.099	
19.735	-0.017	0.119	
19.740	0.683	0.141	
19.745	0.508	0.211	
19.750	0.064	0.288	
19.755	0.686	0.334	
19.760	0.948	0.405	
19.765	0.339	0.500	
19.770	0.592	0.556	
19.775	1.094	0.602	
19.780	0.534	0.667	
19.785	0.246	0.687	
19.790	0.750	0.651	
19.795	0.379	0.612	
19.800	-0.121	0.544	
19.805	0.281	0.429	
19.810	0.327	0.329	
19.815	-0.284	0.249	
19.820	-0.260	0.140	
19.825	0.049	0.026	
19.830	-0.291	-0.056	
19.835	-0.410	-0.129	
19.840	-0.086	-0.197	
19.845	-0.223	-0.231	
19.850	-0.497	-0.252	
19.855	-0.222	-0.283	
19.860	-0.116	-0.294	
19.865	-0.453	-0.288	
19.870	-0.352	-0.294	
19.875	-0.066	-0.300	
19.880	-0.353	-0.286	
19.885	-0.419	-0.281	
19.890	-0.040	-0.284	
19.895	-0.150	-0.263	
19.900	-0.417	-0.239	
19.905	-0.150	-0.235	
19.910	-0.006	-0.223	
19.915	-0.381	-0.202	
19.920	-0.268	-0.201	
19.925	0.122	-0.201	
19.930	-0.182	-0.173	
19.935	-0.278	-0.151	
19.940	0.139	-0.140	
19.945	-0.115	-0.115	
19.950	-0.430	-0.105	
19.955	-0.152	-0.132	
19.960	-0.071	-0.159	
19.965	-0.436	-0.176	
19.970	-0.356	-0.212	
19.975	-0.101	-0.248	
19.980	-0.394	-0.264	
19.985	-0.480	-0.286	
19.990	-0.152	-0.314	
19.995	-0.232	-0.316	
20.000	-0.497	-0.311	
20.005	-0.268	-0.319	
20.010	-0.139	-0.319	
20.015	-0.371	-0.302	
20.020	-0.057	-0.281	
20.025	0.751	-0.207	
20.030	0.259	-0.054	
20.035	-0.174	0.082	
20.040	-0.118	0.124	
20.045	-0.472	0.081	
20.050	-0.880	-0.044	
20.055	-0.666	-0.232	
20.060	-0.512	-0.407	
20.065	-0.706	-0.529	
20.070	-0.451	-0.600	
20.075	-0.034	-0.601	
20.080	-0.271	-0.526	
20.085	-0.309	-0.434	
20.090	0.281	-0.336	
20.095	0.145	-0.208	
20.100	-0.228	-0.090	
20.105	0.180	-0.022	
20.110	0.409	0.041	
20.115	-0.155	0.103	
20.120	0.029	0.120	
20.125	0.571	0.129	
20.130	0.076	0.167	
20.135	-0.029	0.186	
20.140	0.686	0.194	
20.145	0.530	0.249	
20.150	0.035	0.312	
20.155	0.599	0.340	
20.160	0.822	0.386	
20.165	0.247	0.453	
20.170	0.524	0.487	
20.175	1.092	0.524	
20.180	0.597	0.598	
20.185	0.438	0.649	
20.190	1.032	0.671	
20.195	0.817	0.711	
20.200	0.305	0.736	
20.205	0.654	0.709	
20.210	0.702	0.671	
20.215	-0.019	0.623	
20.220	0.108	0.520	
20.225	0.495	0.406	
20.230	-0.116	0.320	
20.235	-0.283	0.217	
20.240	0.125	0.101	
20.245	-0.090	0.020	
20.250	-0.407	-0.045	
20.255	-0.165	-0.118	
20.260	-0.058	-0.169	
20.265	-0.413	-0.195	
20.270	-0.292	-0.226	
20.275	0.039	-0.244	
20.280	-0.283	-0.230	
20.285	-0.388	-0.223	
20.290	-0.022	-0.229	
20.295	-0.153	-0.216	
20.300	-0.414	-0.204	
20.305	-0.107	-0.211	
20.310	0.082	-0.201	
20.315	-0.330	-0.171	
20.320	-0.226	-0.162	
20.325	0.185	-0.155	
20.330	-0.190	-0.126	
20.335	-0.269	-0.109	
20.340	0.264	-0.102	
20.345	0.076	-0.065	
20.350	-0.283	-0.028	
20.355	0.052	-0.025	
20.360	0.215	-0.017	
20.365	-0.292	-0.002	
20.370	-0.211	-0.020	
20.375	0.105	-0.054	
20.380	-0.262	-0.073	
20.385	-0.367	-0.105	
20.390	-0.006	-0.147	
20.395	-0.158	-0.166	
20.400	-0.423	-0.179	
20.405	-0.142	-0.205	
20.410	-0.011	-0.213	
20.415	-0.398	-0.204	
20.420	-0.317	-0.213	
20.425	0.053	-0.224	
20.430	-0.197	-0.206	
20.435	-0.159	-0.183	
20.440	0.762	-0.126	
20.445	0.623	0.017	
20.450	-0.126	0.171	
20.455	-0.075	0.229	
20.460	-0.228	0.192	
20.465	-0.703	0.081	
20.470	-0.666	-0.094	
20.475	-0.364	-0.274	
20.480	-0.501	-0.399	
20.485	-0.504	-0.473	
20.490	-0.069	-0.495	
20.495	-0.089	-0.449	
20.500	-0.298	-0.368	
20.505	0.195	-0.283	
20.510	0.479	-0.163	
20.515	-0.106	-0.025	
20.520	0.065	0.063	
20.525	0.614	0.124	
20.530	0.075	0.194	
20.535	-0.087	0.224	
20.540	0.588	0.220	
20.545	0.391	0.245	
20.550	-0.083	0.272	
20.555	0.487	0.268	
20.560	0.722	0.291	
20.565	0.142	0.344	
20.570	0.398	0.372	
20.575	0.970	0.405	
20.580	0.522	0.478	
20.585	0.324	0.534	
20.590	1.055	0.565	
20.595	0.915	0.631	
20.600	0.400	0.699	
20.605	0.918	0.724	
20.610	1.106	0.757	
20.615	0.363	0.795	
20.620	0.432	0.771	
20.625	0.877	0.714	
20.630	0.263	0.667	
20.635	-0.043	0.584	
20.640	0.492	0.466	
20.645	0.198	0.374	
20.650	-0.262	0.289	
20.655	0.046	0.181	
20.660	0.165	0.094	
20.665	-0.338	0.036	
20.670	-0.260	-0.035	
20.675	0.142	-0.097	
20.680	-0.237	-0.119	
20.685	-0.349	-0.139	
20.690	0.119	-0.161	
20.695	-0.063	-0.150	
20.700	-0.356	-0.134	
20.705	-0.058	-0.140	
20.710	0.168	-0.131	
20.715	-0.286	-0.103	
20.720	-0.187	-0.097	
20.725	0.241	-0.096	
20.730	-0.176	-0.072	
20.735	-0.283	-0.065	
20.740	0.181	-0.076	
20.745	0.053	-0.061	
20.750	-0.265	-0.041	
20.755	0.124	-0.040	
20.760	0.392	-0.015	
20.765	-0.171	0.034	
20.770	-0.086	0.050	
20.775	0.363	0.050	
20.780	-0.118	0.065	
20.785	-0.271	0.053	
20.790	0.162	0.015	
20.795	-0.048	-0.006	
20.800	-0.365	-0.030	
20.805	-0.075	-0.075	
20.810	0.159	-0.100	
20.815	-0.286	-0.096	
20.820	-0.197	-0.104	
20.825	0.185	-0.112	
20.830	-0.223	-0.098	
20.835	-0.368	-0.102	
20.840	0.046	-0.127	
20.845	0.091	-0.125	
20.850	-0.118	-0.095	
20.855	0.611	-0.042	
20.860	0.898	0.085	
20.865	0.017	0.243	
20.870	-0.184	0.310	
20.875	-0.144	0.264	
20.880	-0.555	0.145	
20.885	-0.727	-0.032	
20.890	-0.358	-0.222	
20.895	-0.349	-0.357	
20.900	-0.518	-0.430	
20.905	-0.153	-0.458	
20.910	0.154	-0.418	
20.915	-0.249	-0.325	
20.920	-0.037	-0.237	
20.925	0.585	-0.138	
20.930	0.056	-0.009	
20.935	-0.074	0.085	
20.940	0.614	0.139	
20.945	0.455	0.215	
20.950	-0.064	0.280	
20.955	0.502	0.298	
20.960	0.780	0.332	
20.965	0.160	0.389	
20.970	0.369	0.414	
20.975	0.929	0.434	
20.980	0.484	0.489	
20.985	0.278	0.526	
20.990	0.938	0.538	
20.995	0.945	0.588	
21.000	0.505	0.658	
21.005	1.051	0.709	
21.010	1.280	0.783	
21.015	0.710	0.874	
21.020	0.904	0.924	
21.025	1.362	0.957	
21.030	0.773	1.000	
21.035	0.432	0.990	
21.040	0.968	0.923	
21.045	0.654	0.859	
21.050	-0.005	0.774	
21.055	0.339	0.635	
21.060	0.495	0.503	
21.065	-0.135	0.400	
21.070	-0.083	0.283	
21.075	0.295	0.172	
21.080	-0.150	0.103	
21.085	-0.271	0.037	
21.090	0.143	-0.028	
21.095	-0.055	-0.056	
21.100	-0.358	-0.075	
21.105	-0.072	-0.109	
21.110	0.146	-0.122	
21.115	-0.284	-0.109	
21.120	-0.199	-0.111	
21.125	0.180	-0.115	
21.130	-0.208	-0.098	
21.135	-0.257	-0.094	
21.140	0.275	-0.095	
21.145	0.068	-0.062	
21.150	-0.297	-0.029	
21.155	0.058	-0.029	
21.160	0.337	-0.016	
21.165	-0.199	0.018	
21.170	-0.074	0.025	
21.175	0.427	0.027	
21.180	-0.060	0.057	
21.185	-0.213	0.065	
21.190	0.259	0.047	
21.195	0.003	0.044	
21.200	-0.342	0.030	
21.205	-0.077	-0.017	
21.210	0.084	-0.056	
21.215	-0.324	-0.076	
21.220	-0.246	-0.109	
21.225	0.107	-0.138	
21.230	-0.265	-0.140	
21.235	-0.399	-0.154	
21.240	0.035	-0.179	
21.245	-0.092	-0.178	
21.250	-0.407	-0.170	
21.255	-0.156	-0.184	
21.260	0.152	-0.183	
21.265	-0.135	-0.148	
21.270	0.240	-0.098	
21.275	0.809	-0.002	
21.280	0.108	0.136	
21.285	-0.350	0.210	
21.290	-0.265	0.168	
21.295	-0.492	0.053	
21.300	-0.825	-0.109	
21.305	-0.559	-0.293	
21.310	-0.310	-0.434	
21.315	-0.527	-0.501	
21.320	-0.341	-0.521	
21.325	0.146	-0.484	
21.330	-0.135	-0.384	
21.335	-0.196	-0.279	
21.340	0.368	-0.183	
21.345	0.214	-0.068	
21.350	-0.185	0.030	
21.355	0.301	0.079	
21.360	0.541	0.133	
21.365	-0.075	0.195	
21.370	0.094	0.212	
21.375	0.654	0.217	
21.380	0.178	0.252	
21.385	-0.038	0.267	
21.390	0.635	0.260	
21.395	0.519	0.289	
21.400	0.062	0.330	
21.405	0.655	0.349	
21.410	0.959	0.402	
21.415	0.357	0.489	
21.420	0.565	0.545	
21.425	1.184	0.595	
21.430	0.733	0.679	
21.435	0.502	0.740	
21.440	1.138	0.767	
21.445	0.867	0.806	
21.450	0.195	0.818	
21.455	0.588	0.759	
21.460	0.649	0.682	
21.465	-0.118	0.601	
21.470	-0.072	0.465	
21.475	0.299	0.315	
21.480	-0.207	0.197	
21.485	-0.376	0.080	
21.490	-0.052	-0.038	
21.495	-0.150	-0.119	
21.500	-0.457	-0.174	
21.505	-0.232	-0.229	
21.510	-0.119	-0.261	
21.515	-0.482	-0.273	
21.520	-0.416	-0.298	
21.525	-0.097	-0.320	
21.530	-0.342	-0.316	
21.535	-0.451	-0.312	
21.540	-0.142	-0.317	
21.545	-0.217	-0.305	
21.550	-0.457	-0.290	
21.555	-0.196	-0.291	
21.560	-0.081	-0.280	
21.565	-0.391	-0.258	
21.570	-0.318	-0.254	
21.575	-0.022	-0.254	
21.580	-0.260	-0.235	
21.585	-0.352	-0.224	
21.590	0.027	-0.220	
21.595	-0.103	-0.196	
21.600	-0.385	-0.174	
21.605	-0.138	-0.178	
21.610	-0.009	-0.178	
21.615	-0.394	-0.170	
21.620	-0.323	-0.187	
21.625	-0.069	-0.212	
21.630	-0.350	-0.222	
21.635	-0.491	-0.245	
21.640	-0.190	-0.281	
21.645	-0.265	-0.299	
21.650	-0.544	-0.311	
21.655	-0.298	-0.336	
21.660	-0.133	-0.345	
21.665	-0.483	-0.334	
21.670	-0.463	-0.339	
21.675	-0.168	-0.352	
21.680	-0.326	-0.345	
21.685	-0.301	-0.330	
21.690	0.461	-0.283	
21.695	0.437	-0.159	
21.700	-0.171	-0.015	
21.705	-0.148	0.056	
21.710	-0.306	0.045	
21.715	-0.811	-0.041	
21.720	-0.844	-0.204	
21.725	-0.555	-0.387	
21.730	-0.676	-0.527	
21.735	-0.702	-0.619	
21.740	-0.295	-0.659	
21.745	-0.258	-0.629	
21.750	-0.439	-0.556	
21.755	-0.116	-0.475	
21.760	0.162	-0.371	
21.765	-0.260	-0.254	
21.770	-0.164	-0.174	
21.775	0.281	-0.116	
21.780	-0.119	-0.054	
21.785	-0.248	-0.022	
21.790	0.230	-0.021	
21.795	0.152	0.001	
21.800	-0.194	0.027	
21.805	0.236	0.035	
21.810	0.516	0.069	
21.815	-0.113	0.126	
21.820	0.032	0.146	
21.825	0.678	0.158	
21.830	0.269	0.211	
21.835	0.090	0.258	
21.840	0.780	0.291	
21.845	0.702	0.361	
21.850	0.148	0.437	
21.855	0.634	0.469	
21.860	0.895	0.505	
21.865	0.189	0.550	
21.870	0.229	0.540	
21.875	0.663	0.496	
21.880	0.052	0.457	
21.885	-0.219	0.378	
21.890	0.134	0.258	
21.895	-0.029	0.153	
21.900	-0.359	0.059	
21.905	-0.155	-0.039	
21.910	-0.063	-0.114	
21.915	-0.446	-0.163	
21.920	-0.398	-0.220	
21.925	-0.132	-0.270	
21.930	-0.396	-0.294	
21.935	-0.511	-0.318	
21.940	-0.194	-0.345	
21.945	-0.278	-0.349	
21.950	-0.576	-0.348	
21.955	-0.307	-0.363	
21.960	-0.133	-0.365	
21.965	-0.434	-0.345	
21.970	-0.375	-0.335	
21.975	-0.060	-0.325	
21.980	-0.310	-0.298	
21.985	-0.439	-0.281	
21.990	-0.083	-0.279	
21.995	-0.130	-0.261	
22.000	-0.414	-0.239	
22.005	-0.184	-0.236	
22.010	0.015	-0.227	
22.015	-0.361	-0.204	
22.020	-0.263	-0.200	
22.025	0.165	-0.194	
22.030	-0.231	-0.163	
22.035	-0.387	-0.149	
22.040	-0.006	-0.162	
22.045	-0.155	-0.163	
22.050	-0.471	-0.170	
22.055	-0.255	-0.205	
22.060	-0.142	-0.236	
22.065	-0.474	-0.254	
22.070	-0.404	-0.285	
22.075	-0.144	-0.314	
22.080	-0.375	-0.319	
22.085	-0.494	-0.327	
22.090	-0.176	-0.341	
22.095	-0.275	-0.337	
22.100	-0.575	-0.333	
22.105	-0.234	-0.346	
22.110	0.308	-0.322	
22.115	0.015	-0.233	
22.120	0.240	-0.119	
22.125	0.502	0.005	
22.130	-0.298	0.108	
22.135	-0.639	0.105	
22.140	-0.475	-0.010	
22.145	-0.607	-0.166	
22.150	-0.845	-0.329	
22.155	-0.527	-0.479	
22.160	-0.281	-0.565	
22.165	-0.520	-0.577	
22.170	-0.376	-0.555	
22.175	0.096	-0.496	
22.180	-0.148	-0.391	
22.185	-0.258	-0.288	
22.190	0.273	-0.203	
22.195	0.151	-0.103	
22.200	-0.231	-0.019	
22.205	0.148	0.018	
22.210	0.417	0.055	
22.215	-0.148	0.102	
22.220	0.018	0.112	
22.225	0.556	0.117	
22.230	0.168	0.158	
22.235	-0.057	0.187	
22.240	0.643	0.199	
22.245	0.567	0.251	
22.250	0.058	0.315	
22.255	0.672	0.351	
22.260	1.025	0.416	
22.265	0.441	0.517	
22.270	0.611	0.587	
22.275	1.190	0.645	
22.280	0.686	0.724	
22.285	0.377	0.765	
22.290	1.019	0.757	
22.295	0.892	0.766	
22.300	0.223	0.769	
22.305	0.547	0.715	
22.310	0.683	0.649	
22.315	-0.095	0.581	
22.320	-0.104	0.458	
22.325	0.328	0.314	
22.330	-0.139	0.204	
22.335	-0.333	0.100	
22.340	0.064	-0.004	
22.345	-0.068	-0.067	
22.350	-0.402	-0.108	
22.355	-0.148	-0.155	
22.360	0.062	-0.179	
22.365	-0.353	-0.175	
22.370	-0.310	-0.185	
22.375	0.035	-0.199	
22.380	-0.242	-0.191	
22.385	-0.353	-0.189	
22.390	0.049	-0.195	
22.395	-0.040	-0.175	
22.400	-0.364	-0.152	
22.405	-0.103	-0.152	
22.410	0.238	-0.140	
22.415	-0.240	-0.101	
22.420	-0.188	-0.084	
22.425	0.288	-0.075	
22.430	-0.127	-0.045	
22.435	-0.284	-0.033	
22.440	0.197	-0.044	
22.445	0.151	-0.030	
22.450	-0.246	-0.005	
22.455	0.091	-0.004	
22.460	0.360	0.011	
22.465	-0.249	0.043	
22.470	-0.240	0.033	
22.475	0.221	-0.002	
22.480	-0.139	-0.015	
22.485	-0.300	-0.036	
22.490	0.145	-0.067	
22.495	0.050	-0.068	
22.500	-0.306	-0.058	
22.505	-0.046	-0.071	
22.510	0.183	-0.074	
22.515	-0.295	-0.061	
22.520	-0.257	-0.074	
22.525	0.152	-0.097	
22.530	-0.081	-0.092	
22.535	-0.087	-0.077	
22.540	0.816	-0.030	
22.545	0.809	0.108	
22.550	0.015	0.268	
22.555	-0.002	0.336	
22.560	-0.127	0.303	
22.565	-0.599	0.191	
22.570	-0.605	0.011	
22.575	-0.329	-0.178	
22.580	-0.463	-0.317	
22.585	-0.512	-0.409	
22.590	-0.071	-0.451	
22.595	-0.040	-0.420	
22.600	-0.260	-0.346	
22.605	0.233	-0.261	
22.610	0.618	-0.133	
22.615	0.035	0.024	
22.620	0.142	0.135	
22.625	0.716	0.212	
22.630	0.285	0.297	
22.635	0.021	0.344	
22.640	0.669	0.350	
22.645	0.611	0.379	
22.650	0.017	0.411	
22.655	0.559	0.407	
22.660	0.924	0.424	
22.665	0.284	0.479	
22.670	0.458	0.507	
22.675	1.161	0.537	
22.680	0.771	0.616	
22.685	0.547	0.691	
22.690	1.260	0.745	
22.695	1.210	0.831	
22.700	0.669	0.921	
22.705	1.115	0.964	
22.710	1.353	1.003	
22.715	0.683	1.045	
22.720	0.719	1.032	
22.725	1.181	0.987	
22.730	0.525	0.949	
22.735	0.169	0.866	
22.740	0.693	0.737	
22.745	0.472	0.631	
22.750	-0.144	0.532	
22.755	0.142	0.400	
22.760	0.350	0.283	
22.765	-0.213	0.203	
22.770	-0.158	0.115	
22.775	0.324	0.041	
22.780	-0.098	0.015	
22.785	-0.271	-0.007	
22.790	0.169	-0.038	
22.795	0.065	-0.040	
22.800	-0.298	-0.034	
22.805	-0.029	-0.050	
22.810	0.336	-0.050	
22.815	-0.200	-0.020	
22.820	-0.155	-0.012	
22.825	0.388	-0.011	
22.830	-0.005	0.019	
22.835	-0.214	0.039	
22.840	0.197	0.030	
22.845	0.072	0.032	
22.850	-0.307	0.028	
22.855	-0.040	-0.006	
22.860	0.188	-0.030	
22.865	-0.255	-0.033	
22.870	-0.159	-0.051	
22.875	0.369	-0.060	
22.880	-0.069	-0.029	
22.885	-0.266	-0.011	
22.890	0.122	-0.022	
22.895	0.009	-0.024	
22.900	-0.362	-0.031	
22.905	-0.142	-0.068	
22.910	0.101	-0.099	
22.915	-0.321	-0.108	
22.920	-0.301	-0.131	
22.925	0.075	-0.158	
22.930	-0.207	-0.158	
22.935	-0.362	-0.162	
22.940	-0.046	-0.179	
22.945	-0.142	-0.181	
22.950	-0.335	-0.180	
22.955	0.168	-0.176	
22.960	0.731	-0.108	
22.965	0.278	0.034	
22.970	0.301	0.170	
22.975	0.434	0.267	
22.980	-0.315	0.304	
22.985	-0.637	0.228	
22.990	-0.417	0.056	
22.995	-0.468	-0.129	
23.000	-0.683	-0.289	
23.005	-0.378	-0.417	
23.010	-0.069	-0.473	
23.015	-0.297	-0.450	
23.020	-0.158	-0.394	
23.025	0.400	-0.303	
23.030	0.026	-0.172	
23.035	-0.136	-0.061	
23.040	0.512	0.017	
23.045	0.443	0.113	
23.050	-0.107	0.200	
23.055	0.256	0.227	
23.060	0.608	0.246	
23.065	0.042	0.279	
23.070	0.174	0.284	
23.075	0.735	0.286	
23.080	0.356	0.327	
23.085	0.177	0.361	
23.090	0.875	0.384	
23.095	0.840	0.453	
23.100	0.296	0.534	
23.105	0.825	0.580	
23.110	1.196	0.640	
23.115	0.592	0.728	
23.120	0.724	0.779	
23.125	1.329	0.817	
23.130	0.901	0.882	
23.135	0.531	0.920	
23.140	1.068	0.909	
23.145	0.892	0.900	
23.150	0.162	0.868	
23.155	0.537	0.774	
23.160	0.745	0.676	
23.165	-0.014	0.596	
23.170	-0.068	0.476	
23.175	0.368	0.340	
23.180	-0.103	0.236	
23.185	-0.321	0.134	
23.190	0.058	0.028	
23.195	0.032	-0.038	
23.200	-0.341	-0.073	
23.205	-0.121	-0.113	
23.210	0.133	-0.132	
23.215	-0.278	-0.123	
23.220	-0.252	-0.128	
23.225	0.156	-0.135	
23.230	-0.168	-0.119	
23.235	-0.332	-0.113	
23.240	0.035	-0.126	
23.245	-0.016	-0.122	
23.250	-0.310	-0.111	
23.255	-0.028	-0.116	
23.260	0.252	-0.103	
23.265	-0.254	-0.067	
23.270	-0.225	-0.059	
23.275	0.272	-0.064	
23.280	-0.064	-0.043	
23.285	-0.214	-0.028	
23.290	0.298	-0.025	
23.295	0.247	0.011	
23.300	-0.248	0.051	
23.305	-0.023	0.049	
23.310	0.351	0.042	
23.315	-0.203	0.052	
23.320	-0.196	0.036	
23.325	0.131	0.000	
23.330	-0.190	-0.023	
23.335	-0.349	-0.058	
23.340	0.042	-0.103	
23.345	-0.020	-0.120	
23.350	-0.365	-0.122	
23.355	-0.164	-0.143	
23.360	-0.040	-0.161	
23.365	-0.370	-0.168	
23.370	-0.333	-0.192	
23.375	0.143	-0.210	
23.380	-0.037	-0.183	
23.385	-0.045	-0.136	
23.390	0.802	-0.056	
23.395	0.675	0.097	
23.400	-0.211	0.243	
23.405	-0.275	0.270	
23.410	-0.315	0.183	
23.415	-0.720	0.032	
23.420	-0.709	-0.162	
23.425	-0.367	-0.343	
23.430	-0.475	-0.457	
23.435	-0.537	-0.515	
23.440	-0.104	-0.524	
23.445	-0.032	-0.468	
23.450	-0.310	-0.376	
23.455	-0.035	-0.293	
23.460	0.233	-0.205	
23.465	-0.196	-0.113	
23.470	-0.057	-0.057	
23.475	0.594	-0.006	
23.480	0.238	0.084	
23.485	-0.064	0.159	
23.490	0.539	0.196	
23.495	0.495	0.248	
23.500	-0.057	0.296	
23.505	0.386	0.300	
23.510	0.736	0.314	
23.515	0.171	0.356	
23.520	0.270	0.373	
23.525	0.863	0.386	
23.530	0.585	0.440	
23.535	0.382	0.496	
23.540	1.087	0.545	
23.545	1.023	0.634	
23.550	0.408	0.724	
23.555	0.867	0.759	
23.560	1.179	0.790	
23.565	0.444	0.828	
23.570	0.363	0.807	
23.575	0.825	0.739	
23.580	0.279	0.675	
23.585	-0.139	0.577	
23.590	0.304	0.436	
23.595	0.116	0.313	
23.600	-0.323	0.205	
23.605	-0.109	0.084	
23.610	0.124	-0.010	
23.615	-0.329	-0.063	
23.620	-0.320	-0.117	
23.625	-0.017	-0.167	
23.630	-0.277	-0.190	
23.635	-0.407	-0.212	
23.640	-0.075	-0.237	
23.645	-0.090	-0.235	
23.650	-0.382	-0.221	
23.655	-0.177	-0.220	
23.660	0.064	-0.211	
23.665	-0.320	-0.184	
23.670	-0.297	-0.177	
23.675	0.050	-0.181	
23.680	-0.182	-0.167	
23.685	-0.326	-0.159	
23.690	0.143	-0.157	
23.695	0.061	-0.126	
23.700	-0.309	-0.090	
23.705	-0.054	-0.084	
23.710	0.273	-0.072	
23.715	-0.213	-0.040	
23.720	-0.182	-0.032	
23.725	0.296	-0.035	
23.730	-0.090	-0.016	
23.735	-0.286	-0.011	
23.740	0.136	-0.031	
23.745	0.033	-0.034	
23.750	-0.353	-0.036	
23.755	-0.190	-0.071	
23.760	0.006	-0.108	
23.765	-0.350	-0.131	
23.770	-0.329	-0.165	
23.775	0.012	-0.197	
23.780	-0.236	-0.202	
23.785	-0.413	-0.207	
23.790	-0.126	-0.226	
23.795	-0.182	-0.233	
23.800	-0.433	-0.236	
23.805	-0.126	-0.248	
23.810	0.394	-0.221	
23.815	0.130	-0.131	
23.820	0.279	-0.019	
23.825	0.753	0.106	
23.830	-0.061	0.227	
23.835	-0.509	0.251	
23.840	-0.401	0.148	
23.845	-0.503	-0.014	
23.850	-0.786	-0.192	
23.855	-0.538	-0.365	
23.860	-0.295	-0.482	
23.865	-0.446	-0.523	
23.870	-0.298	-0.515	
23.875	0.223	-0.454	
23.880	-0.081	-0.337	
23.885	-0.272	-0.227	
23.890	0.220	-0.150	
23.895	0.331	-0.061	
23.900	-0.133	0.028	
23.905	0.201	0.079	
23.910	0.496	0.125	
23.915	-0.064	0.177	
23.920	0.006	0.187	
23.925	0.563	0.181	
23.930	0.183	0.205	
23.935	-0.075	0.219	
23.940	0.615	0.215	
23.945	0.655	0.257	
23.950	0.099	0.324	
23.955	0.626	0.365	
23.960	1.086	0.430	
23.965	0.533	0.537	
23.970	0.599	0.617	
23.975	1.194	0.677	
23.980	0.802	0.757	
23.985	0.411	0.804	
23.990	0.991	0.800	
23.995	0.893	0.802	
24.000	0.192	0.792	
24.005	0.440	0.720	
24.010	0.644	0.631	
24.015	-0.110	0.545	
24.020	-0.115	0.417	
24.025	0.371	0.278	
24.030	-0.083	0.184	
24.035	-0.329	0.098	
24.040	0.010	0.004	
24.045	-0.043	-0.059	
24.050	-0.393	-0.101	
24.055	-0.207	-0.151	
24.060	-0.005	-0.185	
24.065	-0.353	-0.194	
24.070	-0.335	-0.211	
24.075	0.052	-0.225	
24.080	-0.213	-0.211	
24.085	-0.394	-0.201	
24.090	-0.074	-0.208	
24.095	-0.048	-0.201	
24.100	-0.344	-0.183	
24.105	-0.132	-0.181	
24.110	0.134	-0.169	
24.115	-0.263	-0.137	
24.120	-0.228	-0.125	
24.125	0.226	-0.119	
24.130	-0.127	-0.089	
24.135	-0.291	-0.073	
24.140	0.177	-0.076	
24.145	0.160	-0.053	
24.150	-0.265	-0.021	
24.155	-0.038	-0.021	
24.160	0.235	-0.021	
24.165	-0.196	-0.007	
24.170	-0.147	-0.013	
24.175	0.322	-0.021	
24.180	-0.074	-0.001	
24.185	-0.303	0.002	
24.190	0.023	-0.026	
24.195	-0.020	-0.048	
24.200	-0.344	-0.067	
24.205	-0.092	-0.101	
24.210	0.226	-0.113	
24.215	-0.242	-0.092	
24.220	-0.213	-0.087	
24.225	0.230	-0.088	
24.230	-0.103	-0.066	
24.235	-0.239	-0.053	
24.240	0.473	-0.041	
24.245	0.765	0.040	
24.250	0.376	0.182	
24.255	0.634	0.318	
24.260	0.570	0.428	
24.265	-0.317	0.470	
24.270	-0.520	0.377	
24.275	-0.346	0.184	
24.280	-0.537	-0.026	
24.285	-0.659	-0.220	
24.290	-0.266	-0.373	
24.295	-0.129	-0.440	
24.300	-0.346	-0.432	
24.305	-0.014	-0.387	
24.310	0.446	-0.290	
24.315	-0.061	-0.151	
24.320	-0.026	-0.041	
24.325	0.571	0.042	
24.330	0.166	0.134	
24.335	-0.122	0.190	
24.340	0.453	0.200	
24.345	0.438	0.225	
24.350	-0.112	0.251	
24.355	0.263	0.240	
24.360	0.620	0.238	
24.365	0.027	0.264	
24.370	0.166	0.266	
24.375	0.794	0.272	
24.380	0.457	0.326	
24.385	0.172	0.380	
24.390	0.805	0.410	
24.395	0.811	0.469	
24.400	0.227	0.534	
24.405	0.733	0.559	
24.410	1.135	0.599	
24.415	0.533	0.671	
24.420	0.516	0.708	
24.425	1.011	0.715	
24.430	0.482	0.725	
24.435	-0.023	0.687	
24.440	0.495	0.584	
24.445	0.369	0.487	
24.450	-0.213	0.397	
24.455	-0.048	0.274	
24.460	0.154	0.156	
24.465	-0.327	0.067	
24.470	-0.347	-0.029	
24.475	-0.014	-0.119	
24.480	-0.240	-0.169	
24.485	-0.402	-0.204	
24.490	-0.046	-0.234	
24.495	-0.066	-0.231	
24.500	-0.398	-0.214	
24.505	-0.211	-0.215	
24.510	0.017	-0.213	
24.515	-0.333	-0.197	
24.520	-0.329	-0.197	
24.525	0.006	-0.207	
24.530	-0.226	-0.198	
24.535	-0.401	-0.197	
24.540	-0.107	-0.212	
24.545	-0.046	-0.211	
24.550	-0.327	-0.196	
24.555	-0.115	-0.190	
24.560	0.175	-0.169	
24.565	-0.254	-0.129	
24.570	-0.217	-0.111	
24.575	0.235	-0.102	
24.580	-0.090	-0.072	
24.585	-0.280	-0.054	
24.590	0.152	-0.058	
24.595	0.137	-0.042	
24.600	-0.304	-0.021	
24.605	-0.148	-0.035	
24.610	0.081	-0.060	
24.615	-0.289	-0.073	
24.620	-0.292	-0.103	
24.625	0.020	-0.138	
24.630	-0.210	-0.151	
24.635	-0.385	-0.166	
24.640	-0.037	-0.189	
24.645	-0.060	-0.190	
24.650	-0.399	-0.181	
24.655	-0.208	-0.192	
24.660	-0.003	-0.200	
24.665	-0.313	-0.191	
24.670	-0.185	-0.189	
24.675	0.621	-0.156	
24.680	0.398	-0.044	
24.685	-0.077	0.081	
24.690	0.162	0.147	
24.695	-0.188	0.154	
24.700	-0.666	0.089	
24.705	-0.559	-0.055	
24.710	-0.388	-0.217	
24.715	-0.624	-0.346	
24.720	-0.538	-0.446	
24.725	-0.115	-0.497	
24.730	-0.216	-0.476	
24.735	-0.310	-0.417	
24.740	0.197	-0.340	
24.745	0.253	-0.225	
24.750	-0.226	-0.104	
24.755	0.058	-0.032	
24.760	0.551	0.029	
24.765	-0.025	0.107	
24.770	-0.017	0.147	
24.775	0.596	0.165	
24.780	0.266	0.210	
24.785	-0.075	0.241	
24.790	0.512	0.241	
24.795	0.586	0.268	
24.800	0.070	0.312	
24.805	0.489	0.332	
24.810	0.904	0.371	
24.815	0.366	0.444	
24.820	0.400	0.493	
24.825	1.029	0.527	
24.830	0.625	0.588	
24.835	0.385	0.633	
24.840	1.092	0.653	
24.845	1.138	0.713	
24.850	0.455	0.788	
24.855	0.693	0.805	
24.860	0.977	0.795	
24.865	0.288	0.779	
24.870	0.137	0.706	
24.875	0.602	0.593	
24.880	0.088	0.494	
24.885	-0.246	0.379	
24.890	0.085	0.237	
24.895	-0.011	0.120	
24.900	-0.375	0.026	
24.905	-0.167	-0.068	
24.910	0.087	-0.130	
24.915	-0.309	-0.151	
24.920	-0.321	-0.172	
24.925	0.033	-0.194	
24.930	-0.211	-0.190	
24.935	-0.390	-0.189	
24.940	-0.058	-0.202	
24.945	-0.045	-0.196	
24.950	-0.396	-0.183	
24.955	-0.242	-0.192	
24.960	0.049	-0.199	
24.965	-0.297	-0.187	
24.970	-0.315	-0.186	
24.975	0.090	-0.189	
24.980	-0.139	-0.169	
24.985	-0.306	-0.151	
24.990	0.088	-0.144	
24.995	0.108	-0.116	
25.000	-0.286	-0.079	
25.005	-0.057	-0.071	
25.010	0.342	-0.056	
25.015	-0.182	-0.018	
25.020	-0.232	-0.008	
25.025	0.276	-0.018	
25.030	-0.058	-0.008	
25.035	-0.317	-0.009	
25.040	0.049	-0.037	
25.045	0.006	-0.054	
25.050	-0.358	-0.066	
25.055	-0.187	-0.101	
25.060	0.042	-0.132	
25.065	-0.318	-0.142	
25.070	-0.344	-0.164	
25.075	0.038	-0.189	
25.080	-0.232	-0.190	
25.085	-0.449	-0.195	
25.090	-0.101	-0.219	
25.095	0.056	-0.218	
25.100	-0.126	-0.182	
25.105	0.460	-0.119	
25.110	0.829	0.009	
25.115	-0.040	0.166	
25.120	-0.350	0.231	
25.125	-0.280	0.173	
25.130	-0.575	0.045	
25.135	-0.815	-0.131	
25.140	-0.483	-0.317	
25.145	-0.388	-0.450	
25.150	-0.562	-0.516	
25.155	-0.272	-0.536	
25.160	0.085	-0.494	
25.165	-0.257	-0.399	
25.170	-0.216	-0.308	
25.175	0.334	-0.223	
25.180	0.078	-0.115	
25.185	-0.170	-0.027	
25.190	0.347	0.026	
25.195	0.431	0.091	
25.200	-0.078	0.158	
25.205	0.264	0.187	
25.210	0.629	0.216	
25.215	0.036	0.263	
25.220	0.032	0.271	
25.225	0.692	0.262	
25.230	0.432	0.294	
25.235	0.070	0.331	
25.240	0.744	0.348	
25.245	0.825	0.403	
25.250	0.276	0.478	
25.255	0.767	0.526	
25.260	1.228	0.593	
25.265	0.617	0.693	
25.270	0.621	0.757	
25.275	1.236	0.791	
25.280	0.820	0.843	
25.285	0.295	0.859	
25.290	0.730	0.807	
25.295	0.641	0.743	
25.300	-0.045	0.665	
25.305	0.133	0.536	
25.310	0.363	0.400	
25.315	-0.202	0.290	
25.320	-0.257	0.169	
25.325	0.177	0.053	
25.330	-0.119	-0.015	
25.335	-0.349	-0.064	
25.340	-0.011	-0.115	
25.345	-0.016	-0.136	
25.350	-0.370	-0.141	
25.355	-0.194	-0.161	
25.360	0.073	-0.173	
25.365	-0.321	-0.164	
25.370	-0.339	-0.171	
25.375	0.021	-0.188	
25.380	-0.159	-0.183	
25.385	-0.330	-0.176	
25.390	0.023	-0.176	
25.395	0.084	-0.153	
25.400	-0.286	-0.118	
25.405	-0.101	-0.106	
25.410	0.244	-0.092	
25.415	-0.205	-0.060	
25.420	-0.229	-0.051	
25.425	0.238	-0.057	
25.430	-0.037	-0.040	
25.435	-0.232	-0.027	
25.440	0.175	-0.031	
25.445	0.198	-0.012	
25.450	-0.216	0.015	
25.455	0.026	0.017	
25.460	0.357	0.023	
25.465	-0.196	0.047	
25.470	-0.258	0.037	
25.475	0.120	-0.003	
25.480	-0.185	-0.031	
25.485	-0.404	-0.069	
25.490	-0.069	-0.124	
25.495	-0.071	-0.157	
25.500	-0.387	-0.171	
25.505	-0.199	-0.195	
25.510	0.055	-0.204	
25.515	-0.346	-0.191	
25.520	-0.342	-0.195	
25.525	0.107	-0.203	
25.530	0.020	-0.175	
25.535	-0.029	-0.123	
25.540	0.753	-0.042	
25.545	0.713	0.106	
25.550	-0.150	0.254	
25.555	-0.271	0.286	
25.560	-0.333	0.201	
25.565	-0.714	0.047	
25.570	-0.753	-0.154	
25.575	-0.394	-0.345	
25.580	-0.445	-0.467	
25.585	-0.547	-0.525	
25.590	-0.122	-0.534	
25.595	0.006	-0.476	
25.600	-0.307	-0.379	
25.605	-0.048	-0.291	
25.610	0.394	-0.195	
25.615	-0.093	-0.082	
25.620	-0.109	-0.007	
25.625	0.429	0.037	
25.630	0.146	0.093	
25.635	-0.118	0.131	
25.640	0.450	0.142	
25.645	0.478	0.180	
25.650	-0.071	0.227	
25.655	0.264	0.236	
25.660	0.698	0.250	
25.665	0.148	0.294	
25.670	0.189	0.316	
25.675	0.814	0.331	
25.680	0.609	0.389	
25.685	0.340	0.455	
25.690	0.976	0.508	
25.695	0.970	0.591	
25.700	0.395	0.675	
25.705	0.793	0.710	
25.710	1.175	0.742	
25.715	0.513	0.789	
25.720	0.353	0.784	
25.725	0.750	0.728	
25.730	0.272	0.664	
25.735	-0.135	0.564	
25.740	0.183	0.419	
25.745	0.120	0.286	
25.750	-0.304	0.174	
25.755	-0.176	0.056	
25.760	0.012	-0.042	
25.765	-0.361	-0.106	
25.770	-0.407	-0.170	
25.775	-0.113	-0.229	
25.780	-0.303	-0.259	
25.785	-0.492	-0.282	
25.790	-0.181	-0.309	
25.795	-0.167	-0.312	
25.800	-0.492	-0.303	
25.805	-0.335	-0.311	
25.810	-0.144	-0.317	
25.815	-0.394	-0.309	
25.820	-0.401	-0.310	
25.825	-0.101	-0.312	
25.830	-0.287	-0.297	
25.835	-0.463	-0.288	
25.840	-0.171	-0.294	
25.845	-0.121	-0.285	
25.850	-0.408	-0.266	
25.855	-0.269	-0.264	
25.860	-0.049	-0.259	
25.865	-0.336	-0.242	
25.870	-0.333	-0.238	
25.875	-0.009	-0.238	
25.880	-0.216	-0.221	
25.885	-0.370	-0.209	
25.890	-0.052	-0.211	
25.895	-0.069	-0.198	
25.900	-0.431	-0.184	
25.905	-0.304	-0.200	
25.910	-0.136	-0.225	
25.915	-0.445	-0.243	
25.920	-0.480	-0.277	
25.925	-0.207	-0.316	
25.930	-0.342	-0.335	
25.935	-0.508	-0.346	
25.940	-0.220	-0.361	
25.945	-0.268	-0.358	
25.950	-0.585	-0.352	
25.955	-0.411	-0.369	
25.960	-0.126	-0.381	
25.965	-0.306	-0.361	
25.970	-0.156	-0.325	
25.975	0.556	-0.251	
25.980	0.082	-0.120	
25.985	-0.375	-0.018	
25.990	-0.339	-0.010	
25.995	-0.544	-0.079	
26.000	-0.915	-0.206	
26.005	-0.776	-0.376	
26.010	-0.546	-0.529	
26.015	-0.723	-0.626	
26.020	-0.633	-0.680	
26.025	-0.248	-0.684	
26.030	-0.326	-0.626	
26.035	-0.459	-0.545	
26.040	-0.113	-0.467	
26.045	-0.032	-0.376	
26.050	-0.349	-0.286	
26.055	-0.124	-0.228	
26.060	0.241	-0.174	
26.065	-0.213	-0.109	
26.070	-0.174	-0.073	
26.075	0.377	-0.050	
26.080	0.050	-0.001	
26.085	-0.207	0.036	
26.090	0.282	0.044	
26.095	0.363	0.073	
26.100	-0.150	0.113	
26.105	0.183	0.124	
26.110	0.676	0.147	
26.115	0.218	0.212	
26.120	0.238	0.268	
26.125	0.811	0.315	
26.130	0.597	0.393	
26.135	0.264	0.464	
26.140	0.803	0.502	
26.145	0.774	0.550	
26.150	0.163	0.588	
26.155	0.417	0.569	
26.160	0.667	0.531	
26.165	-0.057	0.492	
26.170	-0.190	0.399	
26.175	0.146	0.267	
26.180	-0.202	0.148	
26.185	-0.425	0.030	
26.190	-0.144	-0.088	
26.195	-0.185	-0.172	
26.200	-0.515	-0.228	
26.205	-0.373	-0.287	
26.210	-0.182	-0.330	
26.215	-0.471	-0.346	
26.220	-0.474	-0.363	
26.225	-0.171	-0.378	
26.230	-0.353	-0.370	
26.235	-0.561	-0.364	
26.240	-0.263	-0.374	
26.245	-0.226	-0.370	
26.250	-0.520	-0.357	
26.255	-0.367	-0.360	
26.260	-0.190	-0.362	
26.265	-0.451	-0.351	
26.270	-0.440	-0.352	
26.275	-0.133	-0.355	
26.280	-0.300	-0.337	
26.285	-0.491	-0.323	
26.290	-0.185	-0.324	
26.295	-0.159	-0.312	
26.300	-0.434	-0.291	
26.305	-0.239	-0.286	
26.310	0.013	-0.272	
26.315	-0.342	-0.241	
26.320	-0.381	-0.229	
26.325	-0.054	-0.235	
26.330	-0.271	-0.229	
26.335	-0.488	-0.234	
26.340	-0.220	-0.261	
26.345	-0.245	-0.280	
26.350	-0.579	-0.297	
26.355	-0.440	-0.336	
26.360	-0.193	-0.369	
26.365	-0.471	-0.377	
26.370	-0.521	-0.388	
26.375	-0.210	-0.401	
26.380	-0.358	-0.393	
26.385	-0.553	-0.385	
26.390	-0.284	-0.391	
26.395	-0.242	-0.384	
26.400	-0.422	-0.365	
26.405	-0.034	-0.340	
26.410	0.519	-0.263	
26.415	-0.135	-0.137	
26.420	-0.370	-0.055	
26.425	-0.317	-0.060	
26.430	-0.648	-0.127	
26.435	-0.908	-0.253	
26.440	-0.637	-0.411	
26.445	-0.566	-0.540	
26.450	-0.764	-0.621	
26.455	-0.509	-0.666	
26.460	-0.242	-0.658	
26.465	-0.449	-0.600	
26.470	-0.373	-0.530	
26.475	0.097	-0.449	
26.480	-0.142	-0.341	
26.485	-0.347	-0.249	
26.490	0.065	-0.194	
26.495	0.134	-0.135	
26.500	-0.265	-0.078	
26.505	-0.034	-0.055	
26.510	0.362	-0.032	
26.515	-0.132	0.011	
26.520	-0.121	0.029	
26.525	0.475	0.037	
26.530	0.165	0.080	
26.535	-0.153	0.116	
26.540	0.466	0.128	
26.545	0.594	0.173	
26.550	0.081	0.244	
26.555	0.496	0.291	
26.560	0.932	0.353	
26.565	0.403	0.446	
26.570	0.385	0.507	
26.575	0.997	0.544	
26.580	0.646	0.601	
26.585	0.192	0.633	
26.590	0.721	0.612	
26.595	0.644	0.594	
26.600	-0.061	0.566	
26.605	0.160	0.479	
26.610	0.423	0.379	
26.615	-0.205	0.297	
26.620	-0.307	0.188	
26.625	0.023	0.063	
26.630	-0.187	-0.031	
26.635	-0.410	-0.106	
26.640	-0.109	-0.175	
26.645	-0.080	-0.209	
26.650	-0.398	-0.218	
26.655	-0.229	-0.233	
26.660	0.007	-0.237	
26.665	-0.329	-0.220	
26.670	-0.350	-0.217	
26.675	-0.043	-0.225	
26.680	-0.223	-0.218	
26.685	-0.382	-0.214	
26.690	-0.008	-0.219	
26.695	0.052	-0.197	
26.700	-0.318	-0.160	
26.705	-0.121	-0.145	
26.710	0.232	-0.126	
26.715	-0.225	-0.088	
26.720	-0.219	-0.073	
26.725	0.287	-0.070	
26.730	-0.026	-0.040	
26.735	-0.272	-0.020	
26.740	0.165	-0.025	
26.745	0.304	-0.006	
26.750	-0.196	0.031	
26.755	0.049	0.041	
26.760	0.414	0.054	
26.765	-0.153	0.083	
26.770	-0.196	0.078	
26.775	0.282	0.049	
26.780	-0.055	0.040	
26.785	-0.292	0.023	
26.790	0.105	-0.014	
26.795	0.113	-0.029	
26.800	-0.317	-0.030	
26.805	-0.162	-0.056	
26.810	0.230	-0.078	
26.815	-0.231	-0.071	
26.820	-0.260	-0.077	
26.825	0.247	-0.089	
26.830	0.068	-0.065	
26.835	-0.014	-0.024	
26.840	0.877	0.043	
26.845	0.907	0.190	
26.850	0.004	0.352	
26.855	-0.101	0.404	
26.860	-0.112	0.341	
26.865	-0.552	0.206	
26.870	-0.627	0.017	
26.875	-0.292	-0.176	
26.880	-0.349	-0.310	
26.885	-0.456	-0.386	
26.890	0.041	-0.408	
26.895	0.290	-0.347	
26.900	-0.129	-0.231	
26.905	0.223	-0.119	
26.910	0.663	0.003	
26.915	0.076	0.137	
26.920	0.072	0.219	
26.925	0.753	0.264	
26.930	0.461	0.331	
26.935	0.088	0.384	
26.940	0.596	0.397	
26.945	0.690	0.420	
26.950	0.159	0.453	
26.955	0.571	0.458	
26.960	1.008	0.483	
26.965	0.435	0.545	
26.970	0.388	0.580	
26.975	1.043	0.594	
26.980	0.823	0.643	
26.985	0.482	0.695	
26.990	1.120	0.727	
26.995	1.165	0.787	
27.000	0.580	0.858	
27.005	0.866	0.881	
27.010	1.234	0.894	
27.015	0.635	0.918	
27.020	0.568	0.903	
27.025	1.103	0.861	
27.030	0.675	0.841	
27.035	0.145	0.795	
27.040	0.631	0.700	
27.045	0.498	0.612	
27.050	-0.174	0.522	
27.055	0.023	0.390	
27.060	0.339	0.263	
27.065	-0.190	0.175	
27.070	-0.220	0.088	
27.075	0.250	0.011	
27.080	-0.060	-0.019	
27.085	-0.338	-0.039	
27.090	0.026	-0.075	
27.095	0.169	-0.084	
27.100	-0.266	-0.069	
27.105	-0.055	-0.068	
27.110	0.316	-0.057	
27.115	-0.205	-0.025	
27.120	-0.214	-0.018	
27.125	0.295	-0.027	
27.130	-0.025	-0.011	
27.135	-0.242	-0.000	
27.140	0.180	-0.010	
27.145	0.171	0.000	
27.150	-0.228	0.019	
27.155	0.035	0.013	
27.160	0.418	0.020	
27.165	-0.113	0.054	
27.170	-0.090	0.066	
27.175	0.577	0.073	
27.180	0.258	0.123	
27.185	-0.136	0.170	
27.190	0.308	0.175	
27.195	0.307	0.181	
27.200	-0.225	0.183	
27.205	-0.058	0.141	
27.210	0.250	0.090	
27.215	-0.232	0.058	
27.220	-0.258	0.010	
27.225	0.175	-0.042	
27.230	-0.083	-0.060	
27.235	-0.291	-0.070	
27.240	0.061	-0.090	
27.245	0.047	-0.089	
27.250	-0.355	-0.081	
27.255	-0.159	-0.100	
27.260	0.282	-0.109	
27.265	-0.013	-0.075	
27.270	0.261	-0.021	
27.275	0.971	0.078	
27.280	0.434	0.234	
27.285	-0.242	0.341	
27.290	-0.185	0.320	
27.295	-0.339	0.207	
27.300	-0.726	0.040	
27.305	-0.559	-0.158	
27.310	-0.287	-0.325	
27.315	-0.477	-0.421	
27.320	-0.391	-0.466	
27.325	0.140	-0.454	
27.330	-0.052	-0.372	
27.335	-0.239	-0.272	
27.340	0.284	-0.184	
27.345	0.376	-0.074	
27.350	-0.136	0.035	
27.355	0.137	0.093	
27.360	0.499	0.134	
27.365	0.023	0.183	
27.370	0.065	0.201	
27.375	0.699	0.213	
27.380	0.372	0.264	
27.385	0.013	0.307	
27.390	0.623	0.319	
27.395	0.695	0.356	
27.400	0.113	0.407	
27.405	0.492	0.422	
27.410	0.962	0.446	
27.415	0.466	0.509	
27.420	0.443	0.554	
27.425	1.116	0.587	
27.430	0.904	0.661	
27.435	0.528	0.734	
27.440	1.121	0.777	
27.445	1.132	0.835	
27.450	0.406	0.884	
27.455	0.626	0.864	
27.460	0.898	0.812	
27.465	0.137	0.755	
27.470	0.000	0.642	
27.475	0.501	0.497	
27.480	0.049	0.383	
27.485	-0.278	0.270	
27.490	0.052	0.144	
27.495	0.003	0.048	
27.500	-0.382	-0.024	
27.505	-0.237	-0.100	
27.510	0.075	-0.156	
27.515	-0.289	-0.172	
27.520	-0.283	-0.184	
27.525	0.156	-0.188	
27.530	-0.141	-0.161	
27.535	-0.370	-0.141	
27.540	-0.043	-0.147	
27.545	0.015	-0.144	
27.550	-0.333	-0.131	
27.555	-0.182	-0.140	
27.560	0.065	-0.147	
27.565	-0.298	-0.140	
27.570	-0.278	-0.148	
27.575	0.194	-0.155	
27.580	-0.093	-0.129	
27.585	-0.269	-0.105	
27.590	0.148	-0.096	
27.595	0.154	-0.065	
27.600	-0.272	-0.030	
27.605	-0.043	-0.027	
27.610	0.380	-0.019	
27.615	-0.141	0.014	
27.620	-0.177	0.025	
27.625	0.296	0.016	
27.630	-0.072	0.025	
27.635	-0.327	0.016	
27.640	-0.023	-0.026	
27.645	-0.032	-0.060	
27.650	-0.398	-0.088	
27.655	-0.262	-0.136	
27.660	0.018	-0.176	
27.665	-0.318	-0.188	
27.670	-0.355	-0.205	
27.675	0.088	-0.218	
27.680	-0.153	-0.200	
27.685	-0.373	-0.181	
27.690	-0.058	-0.183	
27.695	0.127	-0.167	
27.700	-0.150	-0.126	
27.705	0.414	-0.071	
27.710	0.907	0.042	
27.715	0.114	0.198	
27.720	-0.262	0.278	
27.725	-0.194	0.239	
27.730	-0.529	0.121	
27.735	-0.784	-0.053	
27.740	-0.495	-0.249	
27.745	-0.396	-0.399	
27.750	-0.585	-0.486	
27.755	-0.310	-0.525	
27.760	0.137	-0.497	
27.765	-0.190	-0.402	
27.770	-0.155	-0.299	
27.775	0.467	-0.195	
27.780	0.172	-0.064	
27.785	-0.002	0.050	
27.790	0.695	0.136	
27.795	0.819	0.256	
27.800	0.339	0.390	
27.805	0.842	0.492	
27.810	1.337	0.607	
27.815	0.860	0.753	
27.820	0.932	0.870	
27.825	1.683	0.970	
27.830	1.468	1.106	
27.835	1.234	1.239	
27.840	2.041	1.352	
27.845	2.258	1.507	
27.850	1.793	1.690	
27.855	2.288	1.844	
27.860	2.854	2.005	
27.865	2.406	2.194	
27.870	2.478	2.350	
27.875	3.041	2.473	
27.880	2.890	2.605	
27.885	2.507	2.712	
27.890	3.038	2.769	
27.895	3.040	2.822	
27.900	2.759	2.876	
27.905	3.035	2.906	
27.910	3.040	2.932	
27.915	2.869	2.957	
27.920	2.791	2.957	
27.925	3.040	2.942	
27.930	3.031	2.940	
27.935	2.588	2.936	
27.940	3.040	2.911	
27.945	3.040	2.902	
27.950	2.566	2.901	
27.955	2.869	2.874	
27.960	3.040	2.854	
27.965	2.585	2.850	
27.970	2.499	2.816	
27.975	3.037	2.769	
27.980	2.656	2.753	
27.985	2.140	2.721	
27.990	2.736	2.650	
27.995	2.779	2.605	
28.000	2.165	2.585	
28.005	2.476	2.540	
28.010	2.820	2.508	
28.015	2.184	2.504	
28.020	2.038	2.466	
28.025	2.568	2.399	
28.030	2.285	2.360	
28.035	1.905	2.323	
28.040	2.516	2.273	
28.045	2.533	2.266	
28.050	1.859	2.280	
28.055	2.094	2.251	
28.060	2.400	2.211	
28.065	1.699	2.180	
28.070	1.506	2.099	
28.075	1.957	1.980	
28.080	1.477	1.874	
28.085	0.997	1.749	
28.090	1.524	1.595	
28.095	1.508	1.481	
28.100	0.849	1.400	
28.105	1.051	1.299	
28.110	1.318	1.206	
28.115	0.696	1.140	
28.120	0.481	1.045	
28.125	0.924	0.924	
28.130	0.618	0.830	
28.135	0.305	0.745	
28.140	1.094	0.672	
28.145	1.340	0.689	
28.150	0.692	0.777	
28.155	0.701	0.834	
28.160	0.504	0.828	
28.165	-0.313	0.737	
28.170	-0.576	0.524	
28.175	-0.402	0.236	
28.180	-0.550	-0.038	
28.185	-0.692	-0.267	
28.190	-0.359	-0.436	
28.195	-0.257	-0.516	
28.200	-0.477	-0.522	
28.205	-0.281	-0.498	
28.210	-0.075	-0.445	
28.215	-0.352	-0.373	
28.220	-0.393	-0.323	
28.225	-0.126	-0.297	
28.230	-0.292	-0.273	
28.235	-0.489	-0.266	
28.240	-0.226	-0.282	
28.245	-0.228	-0.292	
28.250	-0.506	-0.298	
28.255	-0.347	-0.319	
28.260	-0.177	-0.334	
28.265	-0.439	-0.333	
28.270	-0.448	-0.340	
28.275	-0.118	-0.348	
28.280	-0.274	-0.331	
28.285	-0.463	-0.314	
28.290	-0.150	-0.310	
28.295	-0.110	-0.291	
28.300	-0.410	-0.264	
28.305	-0.255	-0.257	
28.310	-0.078	-0.252	
28.315	-0.370	-0.239	
28.320	-0.430	-0.246	
28.325	-0.179	-0.269	
28.330	-0.401	-0.286	
28.335	-0.657	-0.317	
28.340	-0.446	-0.373	
28.345	-0.512	-0.427	
28.350	-0.873	-0.483	
28.355	-0.753	-0.560	
28.360	-0.611	-0.633	
28.365	-0.912	-0.685	
28.370	-0.969	-0.741	
28.375	-0.737	-0.798	
28.380	-0.896	-0.832	
28.385	-0.995	-0.858	
28.390	-0.801	-0.883	
28.395	-0.775	-0.887	
28.400	-0.995	-0.880	
28.405	-0.917	-0.884	
28.410	-0.743	-0.888	
28.415	-0.992	-0.882	
28.420	-0.993	-0.888	
28.425	-0.737	-0.899	
28.430	-0.902	-0.893	
28.435	-0.993	-0.889	
28.440	-0.801	-0.893	
28.445	-0.767	-0.885	
28.450	-0.993	-0.872	
28.455	-0.842	-0.870	
28.460	-0.650	-0.862	
28.465	-0.923	-0.841	
28.470	-0.920	-0.832	
28.475	-0.619	-0.831	
28.480	-0.761	-0.811	
28.485	-0.943	-0.794	
28.490	-0.653	-0.792	
28.495	-0.604	-0.776	
28.500	-0.871	-0.751	
28.505	-0.721	-0.742	
28.510	-0.570	-0.733	
28.515	-0.873	-0.720	
28.520	-0.914	-0.729	
28.525	-0.636	-0.754	
28.530	-0.792	-0.764	
28.535	-0.992	-0.776	
28.540	-0.734	-0.801	
28.545	-0.676	-0.810	
28.550	-0.940	-0.804	
28.555	-0.782	-0.807	
28.560	-0.619	-0.804	
28.565	-0.912	-0.789	
28.570	-0.903	-0.791	
28.575	-0.541	-0.796	
28.580	-0.552	-0.769	
28.585	-0.585	-0.716	
28.590	-0.268	-0.650	
28.595	-0.398	-0.568	
28.600	-0.889	-0.512	
28.605	-0.954	-0.535	
28.610	-0.877	-0.617	
28.615	-0.995	-0.714	
28.620	-0.995	-0.808	
28.625	-0.796	-0.880	
28.630	-0.848	-0.911	
28.635	-0.949	-0.917	
28.640	-0.590	-0.905	
28.645	-0.485	-0.852	
28.650	-0.711	-0.774	
28.655	-0.521	-0.705	
28.660	-0.306	-0.635	
28.665	-0.547	-0.562	
28.670	-0.550	-0.512	
28.675	-0.248	-0.480	
28.680	-0.358	-0.441	
28.685	-0.509	-0.408	
28.690	-0.205	-0.390	
28.695	-0.174	-0.359	
28.700	-0.471	-0.325	
28.705	-0.306	-0.314	
28.710	-0.029	-0.302	
28.715	-0.298	-0.271	
28.720	-0.262	-0.246	
28.725	0.240	-0.216	
28.730	-0.009	-0.151	
28.735	-0.242	-0.093	
28.740	0.288	-0.056	
28.745	0.421	0.007	
28.750	-0.156	0.082	
28.755	0.081	0.112	
28.760	0.515	0.131	
28.765	-0.083	0.163	
28.770	-0.164	0.157	
28.775	0.230	0.117	
28.780	-0.132	0.083	
28.785	-0.401	0.031	
28.790	-0.165	-0.051	
28.795	-0.226	-0.126	
28.800	-0.562	-0.194	
28.805	-0.413	-0.273	
28.810	-0.220	-0.336	
28.815	-0.537	-0.369	
28.820	-0.585	-0.404	
28.825	-0.306	-0.439	
28.830	-0.428	-0.451	
28.835	-0.593	-0.454	
28.840	-0.304	-0.460	
28.845	-0.287	-0.447	
28.850	-0.581	-0.426	
28.855	-0.422	-0.423	
