Time	Potential	EKG	Unnamed: 3
0.0	-0.060	-0.0028867654200821725	
0.005	0.036	-0.005714286503468938	
0.01	-0.011	-0.008933060977540187	
0.015	-0.057	-0.009748399780453375	
0.02	0.013	-0.011551485923336807	
0.025	-0.057	-0.016142516489848865	
0.03	-0.136	-0.02742911216994915	
0.035	-0.032	-0.0419552909246656	
0.04	0.001	-0.0511673520482175	
0.045	-0.092	-0.0545956655030191	
0.05	-0.058	-0.05485340360761056	
0.055	-0.034	-0.054441664802301955	
0.06	-0.119	-0.059136282213305386	
0.065	-0.141	-0.0689073555773973	
0.07	-0.040	-0.07825932213841724	
0.075	-0.072	-0.08514587001752519	
0.08	-0.147	-0.08869951959478867	
0.085	-0.022	-0.08878361676772482	
0.09	-0.026	-0.08400075566293996	
0.095	-0.148	-0.07887254472529232	
0.1	-0.109	-0.07886915877319252	
0.105	0.001	-0.08016397162160319	
0.11	-0.093	-0.0792712321142821	
0.115	-0.124	-0.07608590884714578	
0.12	0.090	-0.0700204750362986	
0.125	0.058	-0.052105272538461596	
0.13	-0.035	-0.026938135485687565	
0.135	0.120	-0.0006873984568852233	
0.14	0.117	0.026154593530161696	
0.145	-0.049	0.04494149413955342	
0.15	-0.028	0.04908012795195696	
0.155	0.091	0.043017526075144696	
0.16	-0.084	0.030664369129279154	
0.165	-0.147	0.010774771133088664	
0.17	-0.043	-0.01790781661683082	
0.175	-0.087	-0.04705949733181659	
0.18	-0.148	-0.07006340893205697	
0.185	-0.061	-0.08564961196596729	
0.19	0.004	-0.0907417548496319	
0.195	-0.129	-0.08812617779099072	
0.2	-0.090	-0.082946638692591	
0.205	-0.019	-0.07889557742684677	
0.21	-0.116	-0.07836162937707122	
0.215	-0.139	-0.07927887176511791	
0.22	-0.011	-0.0808374166436236	
0.225	-0.064	-0.08104959730236543	
0.23	-0.133	-0.07914337443478592	
0.235	-0.020	-0.07662060977941887	
0.24	-0.006	-0.07069418129029714	
0.245	-0.124	-0.06519387646305823	
0.25	-0.103	-0.0629609881150116	
0.255	-0.003	-0.0648268757906947	
0.26	-0.089	-0.06738509917509114	
0.265	-0.101	-0.067321402220863	
0.27	0.032	-0.06378461383011688	
0.275	-0.020	-0.05603827324544099	
0.28	-0.101	-0.04819938782758666	
0.285	-0.031	-0.04360607241287841	
0.29	-0.032	-0.042662123508746624	
0.295	-0.124	-0.048233977048261205	
0.3	-0.095	-0.05596763958546532	
0.305	-0.013	-0.06277616759895374	
0.31	-0.104	-0.0694025462126466	
0.315	-0.139	-0.07536754671621165	
0.32	-0.013	-0.07874592949123636	
0.325	-0.068	-0.08001107514033454	
0.33	-0.124	-0.08025476531727518	
0.335	-0.025	-0.07659725632709419	
0.34	-0.032	-0.07159344892203096	
0.345	-0.124	-0.06927790500802844	
0.35	-0.072	-0.068018856342355	
0.355	0.096	-0.06169187301561076	
0.36	0.055	-0.043378187256602106	
0.365	-0.078	-0.01945891650663195	
0.37	-0.002	-0.004734200513677812	
0.375	-0.032	-0.005958563117774448	
0.38	-0.098	-0.014314395629404309	
0.385	0.013	-0.020607517145202522	
0.39	0.053	-0.022524056476114412	
0.395	-0.138	-0.02431109014538545	
0.4	-0.107	-0.03206710749295139	
0.405	0.055	-0.04164242069526407	
0.41	-0.100	-0.04838024572492031	
0.415	-0.113	-0.052509172178371276	
0.42	0.038	-0.0546839976118728	
0.425	-0.013	-0.05190811559266244	
0.43	-0.116	-0.04737108125648478	
0.435	-0.029	-0.04363403417388664	
0.44	0.049	-0.04147156530347795	
0.445	-0.086	-0.03730592200762611	
0.45	-0.045	-0.032104323743654024	
0.455	0.039	-0.028631318505830082	
0.46	-0.057	-0.027362081773330604	
0.465	-0.077	-0.027531100441687502	
0.47	0.006	-0.027691559767618834	
0.475	-0.046	-0.03189681387841741	
0.48	-0.095	-0.03738078901929574	
0.485	-0.042	-0.041630558896769004	
0.49	-0.031	-0.04745813236928897	
0.495	-0.139	-0.056333091645249585	
0.5	-0.100	-0.06510822862240492	
0.505	-0.014	-0.07258570224526963	
0.51	-0.087	-0.07737913445889527	
0.515	-0.109	-0.07756807106613642	
0.52	0.059	-0.07063393318173858	
0.525	0.010	-0.05787475129565811	
0.53	-0.119	-0.04345314737224073	
0.535	0.023	-0.033618122836126973	
0.54	0.125	-0.02139071812189041	
0.545	-0.077	-0.006370804389869383	
0.55	-0.072	-0.06510822862240492	
0.555	-0.003	-0.06686247453739803	
0.56	-0.090	-0.018371602072047424	
0.565	-0.135	-0.03559984293616933	
0.57	-0.042	-0.05163451968801492	
0.575	-0.055	-0.06686247453739803	
0.58	-0.139	-0.07644702211315235	
0.585	-0.051	-0.08060964838749185	
0.59	-0.008	-0.08040472031846556	
0.595	-0.126	-0.0783807060271978	
0.6	-0.078	-0.07411861760608043	
0.605	0.023	-0.06953831396763863	
0.61	-0.086	-0.06440945271560192	
0.615	-0.116	-0.06059404702758588	
0.62	0.053	-0.05659844936441696	
0.625	-0.060	-0.05089027056239828	
0.63	-0.161	-0.050477911352040876	
0.635	-0.074	-0.057589137144400684	
0.64	-0.043	-0.06740156413440998	
0.645	-0.153	-0.07839719970620374	
0.65	-0.126	-0.0871130824793562	
0.655	-0.014	-0.09353120863601007	
0.66	-0.100	-0.09540629256126335	
0.665	-0.083	-0.09158846139963711	
0.67	0.127	-0.07459658177498635	
0.675	0.067	-0.04587441642237298	
0.68	-0.049	-0.01447152329245666	
0.685	0.032	0.008381944557523977	
0.69	0.082	0.020595511440808796	
0.695	-0.113	-0.07229010639754702	
0.7	-0.095	0.01285386016848012	
0.705	0.009	-0.00656582545518128	
0.71	-0.097	-0.027355034909134834	
0.715	-0.142	-0.04657921959091428	
0.72	-0.048	-0.06367915887202208	
0.725	-0.063	-0.07785770260724756	
0.73	-0.110	-0.08438156809513517	
0.735	-0.031	-0.08265851568580311	
0.74	-0.029	-0.0764538064767712	
0.745	-0.093	-0.07229010639754702	
0.75	-0.086	-0.06712746969694133	
0.755	-0.034	-0.06364186666067367	
0.76	-0.106	-0.06733606776087438	
0.765	-0.138	-0.07253517949744703	
0.77	-0.028	-0.07771733583146995	
0.775	-0.063	-0.08087089477332181	
0.78	-0.153	-0.08335847592485157	
0.785	-0.046	-0.08367317139963097	
0.79	-0.006	-0.0814570387319109	
0.795	-0.097	-0.07627145673725479	
0.8	-0.069	-0.06813790454778262	
0.805	0.029	-0.05964392996862909	
0.81	-0.081	-0.05331758251737653	
0.815	-0.103	-0.0495479917081033	
0.82	0.058	-0.04572964119044637	
0.825	-0.038	-0.039846892608634756	
0.83	-0.141	-0.03936737365201812	
0.835	-0.083	-0.044711172871274754	
0.84	-0.022	-0.05643682572568497	
0.845	-0.113	-0.06624546818491743	
0.85	-0.055	-0.0691692977177855	
0.855	0.020	-0.06564126019740629	
0.86	-0.092	-0.0612795575771412	
0.865	-0.113	-0.05957669351422421	
0.87	0.009	-0.05775381192345956	
0.875	-0.003	-0.05479920157607823	
0.88	-0.112	-0.04936528368085864	
0.885	-0.063	-0.04675116121693957	
0.89	-0.029	-0.0504133325320802	
0.895	-0.103	-0.057231366075043776	
0.9	-0.054	-0.05920728370836687	
0.905	0.073	-0.054625889174771375	
0.91	-0.077	-0.045246894515979866	
0.915	-0.110	-0.040614957937890106	
0.92	-0.005	-0.040770386887163945	
0.925	-0.032	-0.0437589853081001	
0.93	-0.072	-0.045374649148706744	
0.935	0.018	-0.04077380319711829	
0.94	0.070	-0.030367484251443578	
0.945	-0.077	-0.020227102533704123	
0.95	-0.078	-0.015276677749517862	
0.955	0.056	-0.01661394593811842	
0.96	0.006	-0.016185755295734107	
0.965	-0.074	-0.012648382445584517	
0.97	0.007	-0.01080449329771982	
0.975	-0.045	-0.016715717854695077	
0.98	-0.113	-0.026378441927000392	
0.985	-0.042	-0.0368184843441588	
0.99	0.003	-0.04534531548317628	
0.995	-0.080	-0.05019735833628419	
1.0	-0.075	-0.05029346470883864	
1.005	0.023	-0.049616255984270635	
1.01	-0.084	-0.04918006047268428	
1.015	-0.115	-0.050660867169051	
1.02	0.000	-0.053794853501895	
1.025	-0.017	-0.0536966573887736	
1.03	-0.066	-0.050386607265639545	
1.035	-0.031	-0.0438246388932185	
1.04	-0.017	-0.04034155284374599	
1.045	-0.115	-0.04221111359692001	
1.05	-0.092	-0.04830127871095198	
1.055	-0.031	-0.055600933584013496	
1.06	-0.092	-0.06518194437889989	
1.065	-0.089	-0.07067167659655829	
1.07	0.116	-0.06376440171713385	
1.075	0.052	-0.0426770456287437	
1.08	-0.101	-0.02043466948664374	
1.085	-0.057	-0.011848725618532428	
1.09	-0.006	-0.016297251999505775	
1.095	-0.104	-0.027206159628107386	
1.1	-0.077	-0.0373421788430052	
1.105	0.042	-0.04357903595986195	
1.11	-0.084	-0.04714209679637367	
1.115	-0.144	-0.05171769664700252	
1.12	-0.035	-0.0588085150855148	
1.125	-0.092	-0.06963624277269503	
1.13	-0.147	-0.0804142007457453	
1.135	-0.080	-0.08787378384033925	
1.14	-0.014	-0.09127203449659434	
1.145	-0.121	-0.09018240086503078	
1.15	-0.107	-0.08638068420458483	
1.155	0.013	-0.08158236925375828	
1.16	-0.084	-0.07610663278005254	
1.165	-0.136	-0.07273764684404065	
1.17	-0.046	-0.07182978335096765	
1.175	-0.075	-0.0756048437970062	
1.18	-0.150	-0.08141703214828697	
1.185	-0.095	-0.0859058627840927	
1.19	-0.029	-0.09025305420873286	
1.195	-0.069	-0.09016711664122465	
1.2	-0.008	-0.07839742255364576	
1.205	0.152	-0.05255889076786848	
1.21	0.001	-0.021094087628872105	
1.215	-0.075	0.0022130364417289935	
1.22	0.023	0.012171193351667685	
1.225	0.050	0.012440008282516998	
1.23	-0.092	0.009551867140838537	
1.235	-0.054	0.0020608440114109217	
1.24	-0.031	-0.013214877345342517	
1.245	-0.122	-0.03317192264955611	
1.25	-0.116	-0.0514458725567617	
1.255	0.012	-0.06553997301795315	
1.26	-0.077	-0.072061789087339	
1.265	-0.147	-0.07480138537793471	
1.27	-0.031	-0.07682344989695	
1.275	-0.064	-0.07954264448328072	
1.28	-0.153	-0.08246223326283814	
1.285	-0.074	-0.08493553967486707	
1.29	-0.032	-0.08619077541526357	
1.295	-0.126	-0.08718259385081265	
1.3	-0.092	-0.08546078586768803	
1.305	-0.011	-0.0815245507191856	
1.31	-0.084	-0.07906804493749035	
1.315	-0.089	-0.07382208430408196	
1.32	0.078	-0.0627930110647971	
1.325	0.055	-0.04352079977938205	
1.33	-0.126	-0.02450729370483962	
1.335	-0.061	-0.018953820483093867	
1.34	-0.008	-0.024157639640094732	
1.345	-0.113	-0.03619054722308091	
1.35	-0.089	-0.046489029807413595	
1.355	0.064	-0.051499274932893316	
1.36	-0.040	-0.04904137489387085	
1.365	-0.124	-0.04485272739265124	
1.37	-0.054	-0.045825723232899095	
1.375	-0.060	-0.05450403104087852	
1.38	-0.130	-0.06448223398216152	
1.385	-0.037	-0.06995372430735045	
1.39	0.020	-0.06915418772604164	
1.395	-0.090	-0.06317955308852233	
1.4	-0.081	-0.057497493880022885	
1.405	0.030	-0.05151643913659393	
1.41	-0.052	-0.04703775516147342	
1.415	-0.104	-0.04384247201939409	
1.42	-0.014	-0.04282921173237762	
1.425	-0.046	-0.04550458148092097	
1.43	-0.127	-0.0514806396527485	
1.435	0.013	-0.05396131111562834	
1.44	0.030	-0.04914740139573481	
1.445	-0.095	-0.04217324474234767	
1.45	-0.051	-0.03752062069308207	
1.455	0.062	-0.032510608112810875	
1.46	0.036	-0.024001408185558314	
1.465	-0.072	-0.010863234715656131	
1.47	0.050	-0.001859516027792446	
1.475	0.030	0.0025326455138661576	
1.48	-0.057	0.004531991579278225	
1.485	-0.002	0.005989517822663985	
1.49	0.035	0.0028487561460534172	
1.495	-0.090	-0.004137621136316544	
1.5	-0.069	-0.013531046621166104	
1.505	0.064	-0.02053274580499204	
1.51	-0.054	-0.02498640658228836	
1.515	-0.106	-0.028855646974918846	
1.52	0.006	-0.03287182881920887	
1.525	-0.029	-0.038459730138325904	
1.53	-0.080	-0.04145762100095966	
1.535	0.009	-0.04001608708310864	
1.54	0.056	-0.03214051392654327	
1.545	-0.086	-0.025128341193982422	
1.55	-0.043	-0.020554779959496356	
1.555	0.094	-0.01653319661722081	
1.56	-0.022	-0.009957357405809941	
1.565	-0.075	-0.005876359897213749	
1.57	0.030	-0.0049001270746112284	
1.575	-0.022	-0.008422644267317687	
1.58	-0.109	-0.0164552175774529	
1.585	-0.060	-0.02607457017466452	
1.59	0.047	-0.03611717964000869	
1.595	-0.055	-0.03806858844423512	
1.6	-0.066	-0.035596642321112655	
1.605	0.042	-0.032570650713004745	
1.61	-0.029	-0.029902454005016486	
1.615	-0.092	-0.026864848734075752	
1.62	-0.040	-0.028956193070464938	
1.625	0.026	-0.03341023218298629	
1.63	-0.098	-0.036398022107584985	
1.635	-0.038	-0.036098314612026415	
1.64	0.039	-0.03616776028649835	
1.645	-0.068	-0.03503450085351356	
1.65	-0.077	-0.032562740747932445	
1.655	-0.054	-0.035626395718574747	
1.66	-0.156	-0.05093266794857071	
1.665	-0.222	-0.07581001825996377	
1.67	-0.153	-0.10494750981369391	
1.675	-0.144	-0.13346363225671665	
1.68	-0.174	-0.15337645861048405	
1.685	-0.086	-0.15703348300707184	
1.69	-0.023	-0.1481965696104143	
1.695	-0.121	-0.13208235672397042	
1.7	-0.078	-0.11250986868305088	
1.705	0.006	-0.09259098416000008	
1.71	-0.089	-0.07699288099977054	
1.715	-0.165	-0.0698148445008081	
1.72	0.018	-0.06888662981068344	
1.725	0.084	-0.060484397833213334	
1.73	-0.002	-0.03841305291731996	
1.735	0.145	-0.005998277908929845	
1.74	0.177	0.03179816922013187	
1.745	0.024	0.06487455158902397	
1.75	0.038	0.08450158618507617	
1.755	0.033	0.08640570740749641	
1.76	-0.121	0.06597226619814485	
1.765	-0.168	0.02720182258191533	
1.77	-0.069	-0.016868021733475548	
1.775	-0.075	-0.05651163704353732	
1.78	-0.194	-0.08641842102370802	
1.785	-0.110	-0.10697818884061747	
1.79	0.021	-0.11719977074350428	
1.795	-0.092	-0.11111239706564036	
1.8	-0.063	-0.09546976481196295	
1.805	0.012	-0.07759751501637302	
1.81	-0.095	-0.06503123319843343	
1.815	-0.168	-0.061772375503074434	
1.82	-0.045	-0.06688462274155475	
1.825	-0.040	-0.07454906999463692	
1.83	-0.109	-0.0763816760286816	
1.835	-0.028	-0.07295837167716783	
1.84	0.020	-0.06426586437653967	
1.845	-0.048	-0.05411461000636887	
1.85	-0.064	-0.04241308145371642	
1.855	-0.060	-0.03763995166698404	
1.86	-0.110	-0.04607877039989022	
1.865	-0.135	-0.060701961420947026	
1.87	0.020	-0.06884963274229222	
1.875	-0.055	-0.07061761716331802	
1.88	-0.145	-0.07139226488144561	
1.885	-0.026	-0.07090034601595183	
1.89	0.053	-0.06527541968765882	
1.895	-0.089	-0.055160593770158875	
1.9	-0.068	-0.045390635753858086	
1.905	0.017	-0.03960221834150625	
1.91	-0.060	-0.03809971740737276	
1.915	-0.100	-0.039724148855056415	
1.92	0.020	-0.03983144155045265	
1.925	0.015	-0.037609869368883775	
1.93	-0.129	-0.035410701668634345	
1.935	-0.060	-0.036907217707162224	
1.94	-0.023	-0.0442724481092558	
1.945	-0.060	-0.051163454897237885	
1.95	-0.023	-0.05037812217191863	
1.955	0.075	-0.039581975531722845	
1.96	0.009	-0.025110558494422983	
1.965	-0.045	-0.01073903910916952	
1.97	0.081	0.002186166720181389	
1.975	0.024	0.011388150157429404	
1.98	-0.095	0.013557245916020259	
1.985	-0.026	0.008106544065332937	
1.99	0.041	-0.0022419868603808005	
1.995	-0.078	-0.012194322552043387	
2.0	-0.069	-0.019401548782824796	
2.005	0.032	-0.026550553499892195	
2.01	-0.074	-0.033113483217503584	
2.015	-0.080	-0.03876537834258929	
2.02	0.149	-0.03377884185161801	
2.025	0.056	-0.015578573792407185	
2.03	-0.090	0.0015194943115270506	
2.035	-0.046	0.007081606529745147	
2.04	-0.025	-0.0022090719102535465	
2.045	-0.080	-0.018192752050634028	
2.05	-0.046	-0.030436167750856637	
2.055	0.047	-0.03452428952480612	
2.06	-0.068	-0.03507845458168232	
2.065	-0.136	-0.038820243526747025	
2.07	-0.009	-0.04581120680190944	
2.075	0.006	-0.05051971806258422	
2.08	-0.121	-0.05147388555391381	
2.085	0.032	-0.04695630440831287	
2.09	0.130	-0.03315613840193718	
2.095	-0.061	-0.014158704946003459	
2.1	-0.061	-0.0015267560379582127	
2.105	0.061	0.001453261505767908	
2.11	-0.054	-0.0009839399603803864	
2.115	-0.106	-0.008843145003495607	
2.12	-0.009	-0.019902898537416832	
2.125	-0.054	-0.032452043593226176	
2.13	-0.145	-0.04741883375820533	
2.135	-0.092	-0.061069331881879664	
2.14	-0.003	-0.07316145074246753	
2.145	-0.084	-0.07803599887036694	
2.15	-0.063	-0.07356924320480043	
2.155	0.062	-0.06261795310283277	
2.16	-0.031	-0.048885589608171555	
2.165	-0.109	-0.03682944164549122	
2.17	-0.029	-0.033013072072238026	
2.175	-0.014	-0.03641076361347871	
2.18	-0.112	-0.04133812494370884	
2.185	-0.058	-0.04615002810220729	
2.19	-0.016	-0.051198068929100456	
2.195	-0.103	-0.05695211813901949	
2.2	-0.075	-0.060591224941925446	
2.205	-0.052	-0.0626916080413728	
2.21	-0.132	-0.07083487196746542	
2.215	-0.176	-0.08379881764124858	
2.22	-0.069	-0.09706579610159603	
2.225	-0.069	-0.10538298952602856	
2.23	-0.141	-0.10829672783685483	
2.235	-0.080	-0.10620226848493841	
2.24	-0.040	-0.10119408709986294	
2.245	-0.133	-0.09690050355664412	
2.25	-0.133	-0.0956433267563693	
2.255	-0.037	-0.09471486009639962	
2.26	-0.112	-0.09575455894535558	
2.265	-0.139	-0.09681897688354123	
2.27	-0.017	-0.09413383816928897	
2.275	0.059	-0.08331099685602243	
2.28	-0.069	-0.0632649649784193	
2.285	-0.020	-0.042302097198183966	
2.29	0.087	-0.02617926245880323	
2.295	-0.052	-0.011812677733092001	
2.3	-0.046	-0.0027074776093667513	
2.305	0.036	-0.0007754421798032129	
2.31	-0.046	-0.004669780672789747	
2.315	-0.142	-0.014808518220740497	
2.32	-0.092	-0.03223666816800133	
2.325	-0.093	-0.05729653484681141	
2.33	-0.152	-0.08118561224446927	
2.335	-0.113	-0.09734273300405319	
2.34	-0.035	-0.10621561259466582	
2.345	-0.115	-0.1087448224085175	
2.35	-0.098	-0.10469422306330142	
2.355	-0.017	-0.09582465564837678	
2.36	-0.043	-0.0856456159930343	
2.365	-0.148	-0.07677458779444435	
2.37	-0.083	-0.07326989414156163	
2.375	-0.028	-0.07630719217241819	
2.38	-0.139	-0.07915631966486525	
2.385	-0.080	-0.07935229664640424	
2.39	-0.052	-0.08124703997469788	
2.395	-0.150	-0.08674132537122678	
2.4	-0.098	-0.09167561492927395	
2.405	-0.011	-0.09082833617214928	
2.41	-0.066	-0.08666034331243654	
2.415	-0.115	-0.07976520641941645	
2.42	-0.035	-0.07324558331114739	
2.425	-0.057	-0.07032095001541076	
2.43	-0.112	-0.07018628157852025	
2.435	-0.028	-0.06732482143988813	
2.44	-0.011	-0.06221583652088754	
2.445	-0.122	-0.059785770423921185	
2.45	-0.139	-0.06370010572052712	
2.455	-0.037	-0.07077980665353703	
2.46	-0.080	-0.07966781570559439	
2.465	-0.095	-0.08181184832975923	
2.47	0.020	-0.07619472223014336	
2.475	-0.019	-0.06528319341569085	
2.48	-0.127	-0.0562624933375144	
2.485	-0.063	-0.05333493471471766	
2.49	-0.005	-0.05414177393463101	
2.495	-0.133	-0.05781749490395197	
2.5	-0.122	-0.06475182968681803	
2.505	-0.046	-0.07371470856056153	
2.51	-0.089	-0.08165183363960406	
2.515	-0.122	-0.08688827844324484	
2.52	-0.014	-0.08517304675964622	
2.525	0.017	-0.07821843129466535	
2.53	-0.100	-0.0653088427392049	
2.535	-0.026	-0.0533617571947346	
2.54	0.020	-0.04308001652759538	
2.545	-0.106	-0.03883138324628718	
2.55	-0.064	-0.03880742370161688	
2.555	0.105	-0.03466138167416968	
2.56	-0.013	-0.024613906691471073	
2.565	-0.107	-0.015967921619084335	
2.57	0.006	-0.015193191421462198	
2.575	0.001	-0.019147205484210717	
2.58	-0.097	-0.023328815848330114	
2.585	-0.043	-0.028424191614832145	
2.59	0.017	-0.03302704192111136	
2.595	-0.104	-0.03878555706897863	
2.6	-0.071	-0.04387650860529045	
2.605	0.026	-0.04567452884757118	
2.61	-0.075	-0.04654443470876433	
2.615	-0.136	-0.05099570527722982	
2.62	-0.043	-0.05724220982225985	
2.625	0.006	-0.06207724785046448	
2.63	-0.075	-0.06030878209327494	
2.635	-0.017	-0.05250079346866671	
2.64	0.052	-0.040993883125697475	
2.645	-0.072	-0.03172667142391936	
2.65	-0.092	-0.026957703385616535	
2.655	0.003	-0.028699771565110967	
2.66	-0.045	-0.03445512221697135	
2.665	-0.116	-0.04002021562410582	
2.67	-0.060	-0.04730961653366947	
2.675	0.009	-0.05501864277065506	
2.68	-0.074	-0.05628338150300947	
2.685	-0.034	-0.050565147139934936	
2.69	0.007	-0.044981954289822365	
2.695	-0.103	-0.042685805484642195	
2.7	-0.129	-0.04699041729047547	
2.705	0.012	-0.053708207631358945	
2.71	-0.011	-0.05641527087237267	
2.715	-0.116	-0.05302407842811836	
2.72	-0.029	-0.05033602222561806	
2.725	-0.020	-0.05101268214110855	
2.73	-0.089	-0.05227467965552819	
2.735	-0.006	-0.048572386529631015	
2.74	0.047	-0.03998066312094775	
2.745	-0.080	-0.03167598057999018	
2.75	-0.101	-0.029994524831360597	
2.755	-0.003	-0.03372092872287964	
2.76	-0.031	-0.03941503984035333	
2.765	-0.112	-0.044018522383275124	
2.77	-0.023	-0.04633645238077582	
2.775	-0.006	-0.049009018708886534	
2.78	-0.109	-0.05027441692348249	
2.785	-0.005	-0.04858153453171664	
2.79	0.047	-0.04197605109270219	
2.795	-0.092	-0.03466483423185445	
2.8	-0.092	-0.033005300010870924	
2.805	-0.025	-0.03772877645053935	
2.81	-0.109	-0.048402963362274294	
2.815	-0.141	-0.06302639200999863	
2.82	-0.061	-0.0743478999768534	
2.825	-0.026	-0.08298316981637269	
2.83	-0.103	-0.08426856996603714	
2.835	-0.077	-0.07961062389310228	
2.84	-0.006	-0.07396663798745824	
2.845	-0.109	-0.07164904564135777	
2.85	-0.087	-0.0690230840514228	
2.855	0.113	-0.059706245779235716	
2.86	0.124	-0.03636594398495468	
2.865	-0.014	-0.003053509886298277	
2.87	0.073	0.026627752549519716	
2.875	0.050	0.042026526055286735	
2.88	-0.049	0.044713763275749344	
2.885	-0.006	0.039375150886667876	
2.89	0.064	0.03005307666634647	
2.895	-0.101	0.016347955597054972	
2.9	-0.135	-0.00404499148355068	
2.905	-0.028	-0.028707854767706167	
2.91	-0.080	-0.05136821190325624	
2.915	-0.112	-0.06805531455586164	
2.92	-0.023	-0.0743466359240048	
2.925	-0.023	-0.0739519548943399	
2.93	-0.090	-0.07029829971387089	
2.935	-0.052	-0.06362788923990313	
2.94	0.023	-0.055924103538010264	
2.945	-0.086	-0.05065688060300771	
2.95	-0.107	-0.04806478640115745	
2.955	0.013	-0.048686142226038745	
2.96	-0.019	-0.04835973312229412	
2.965	-0.097	-0.04509224395390855	
2.97	-0.035	-0.04234604079850296	
2.975	-0.054	-0.04593433623015666	
2.98	-0.132	-0.05432879205900863	
2.985	-0.078	-0.06262764646444119	
2.99	0.030	-0.06688490907383327	
2.995	-0.071	-0.06467398260767818	
3.0	-0.069	-0.05807928354842695	
3.005	0.024	-0.04964845184127868	
3.01	-0.078	-0.044376955244015415	
3.015	-0.152	-0.04814066530332903	
3.02	-0.068	-0.05630880399177936	
3.025	0.041	-0.06389409444070908	
3.03	-0.046	-0.06036460431617831	
3.035	0.010	-0.04562758726929133	
3.04	0.110	-0.024847007705489442	
3.045	-0.051	-0.006711018971412335	
3.05	-0.077	0.002883167219717704	
3.055	0.023	0.0013919809142973417	
3.06	-0.034	-0.006370975912783066	
3.065	-0.107	-0.017173904046487394	
3.07	-0.020	-0.02627959550701114	
3.075	-0.020	-0.036882929797261974	
3.08	-0.104	-0.04541989183943347	
3.085	-0.045	-0.04961541519661453	
3.09	0.053	-0.04879688404697946	
3.095	-0.063	-0.04374681778228638	
3.1	-0.069	-0.03712918462552081	
3.105	0.027	-0.032545910098089895	
3.11	-0.034	-0.030392542935949174	
3.115	-0.106	-0.031227542340611817	
3.12	0.029	-0.031223293262516483	
3.125	0.041	-0.027857053613046828	
3.13	-0.074	-0.022489431689605967	
3.135	0.021	-0.015605169258819846	
3.14	0.085	-0.006740834305510995	
3.145	-0.058	-0.027857053613046828	
3.15	-0.090	-0.027857053613046828	
3.155	0.006	-0.027857053613046828	
3.16	-0.061	-0.02038359830858194	
3.165	-0.095	-0.03327979306274496	
3.17	0.015	-0.0401977911049239	
3.175	0.049	-0.03881082927507003	
3.18	-0.081	-0.03253398112159274	
3.185	-0.042	-0.026630759300513063	
3.19	0.039	-0.02369149037063873	
3.195	-0.086	-0.024800212724538615	
3.2	-0.095	-0.02921021493802081	
3.205	0.068	-0.03244812309517633	
3.21	0.020	-0.029349614127173726	
3.215	-0.074	-0.021331684707603424	
3.22	0.027	-0.01321311437411015	
3.225	0.059	-0.007772035516993266	
3.23	-0.092	-0.004549794062167674	
3.235	-0.069	-0.006662574198595945	
3.24	0.007	-0.015667827904049816	
3.245	-0.095	-0.028785650420615073	
3.25	-0.093	-0.04122952123213476	
3.255	0.024	-0.047443596416702684	
3.26	-0.057	-0.051340938763913546	
3.265	-0.100	-0.052348838404056144	
3.27	-0.013	-0.05120481831860488	
3.275	-0.008	-0.04975168399753776	
3.28	-0.115	-0.04957332564119167	
3.285	-0.052	-0.04966524866628072	
3.29	0.127	-0.04361811616187369	
3.295	-0.026	-0.029789503094684887	
3.3	-0.068	-0.014278974427078671	
3.305	0.017	-0.00843402539168972	
3.31	-0.038	-0.011321236340265182	
3.315	-0.090	-0.0183755011116258	
3.32	0.053	-0.021203971100568993	
3.325	0.038	-0.01872107854957386	
3.33	-0.107	-0.01658707646756821	
3.335	-0.046	-0.017691699825968316	
3.34	0.039	-0.02260611866804201	
3.345	-0.077	-0.02678447640949686	
3.35	-0.084	-0.03129304815901085	
3.355	0.036	-0.033416011905585706	
3.36	-0.072	-0.03729948807881338	
3.365	-0.110	-0.04240433995064498	
3.37	0.039	-0.04421653806199609	
3.375	-0.005	-0.040680645316446294	
3.38	-0.129	-0.039596147601325044	
3.385	-0.092	-0.04373850565060546	
3.39	-0.006	-0.05156995205446298	
3.395	-0.109	-0.06075069630927889	
3.4	-0.126	-0.06735515333037793	
3.405	0.010	-0.07141376760262644	
3.41	0.003	-0.0692211514280848	
3.415	-0.092	-0.05943884400914293	
3.42	-0.038	-0.0492787153195198	
3.425	0.009	-0.044628455201763034	
3.43	-0.072	-0.04157171964523579	
3.435	0.018	-0.033780847339155096	
3.44	0.142	-0.017545629181699104	
3.445	0.012	0.0032773780126400215	
3.45	-0.003	0.02159881310512638	
3.455	0.128	0.03757954553029093	
3.46	-0.035	0.043807266835112275	
3.465	-0.113	0.03551250715568888	
3.47	0.013	0.017698769051470883	
3.475	-0.013	-0.0005495586900772871	
3.48	-0.133	-0.01958284546803035	
3.485	-0.119	-0.039877856272836555	
3.49	0.021	-0.05749095967803176	
3.495	-0.077	-0.06763873123435268	
3.5	-0.112	-0.06949341335252521	
3.505	0.006	-0.0674465188452581	
3.51	-0.045	-0.06506624749973475	
3.515	-0.116	-0.06151005416923651	
3.52	-0.013	-0.057399266386329736	
3.525	0.059	-0.05046630257593701	
3.53	-0.113	-0.04153170327536282	
3.535	-0.089	-0.03699001678400121	
3.54	0.078	-0.0374900760827593	
3.545	-0.061	-0.034541447423311666	
3.55	-0.097	-0.03155198335227744	
3.555	0.017	-0.03152182352295383	
3.56	-0.064	-0.03598125202084286	
3.565	-0.132	-0.04348109487790824	
3.57	-0.046	-0.052501007042617676	
3.575	-0.014	-0.059448282035496125	
3.58	-0.135	-0.06543698583911302	
3.585	-0.069	-0.06804834576213004	
3.59	0.035	-0.06654076015052743	
3.595	-0.097	-0.06345103360890032	
3.6	-0.101	-0.059559520226682997	
3.605	0.003	-0.05760622407361043	
3.61	0.012	-0.0529101370104075	
3.615	-0.092	-0.0454280081008579	
3.62	-0.034	-0.03860465582510847	
3.625	0.030	-0.035448331470952554	
3.63	-0.075	-0.03333923816497202	
3.635	-0.100	-0.0321078534009671	
3.64	-0.006	-0.03761743739231742	
3.645	-0.090	-0.0473666862191219	
3.65	-0.121	-0.055526776032543315	
3.655	0.041	-0.05969165934839793	
3.66	-0.037	-0.057894433758676686	
3.665	-0.136	-0.05535853914029525	
3.67	-0.068	-0.056659072043089564	
3.675	-0.022	-0.06148867936399249	
3.68	-0.110	-0.0672640850699607	
3.685	-0.019	-0.0650978005169908	
3.69	0.108	-0.052670274613318	
3.695	-0.029	-0.034325543622623696	
3.7	-0.086	-0.05535853914029525	
3.705	0.017	-0.053813793922324986	
3.71	-0.035	-0.053813793922324986	
3.715	-0.104	-0.022290390023692746	
3.72	-0.068	-0.031705080993930684	
3.725	-0.028	-0.04352413979968711	
3.73	-0.103	-0.056197656239444845	
3.735	-0.031	-0.06010461860667668	
3.74	0.033	-0.055730473851445306	
3.745	-0.090	-0.05028942969765696	
3.75	-0.127	-0.04947942723669025	
3.755	-0.020	-0.053813793922324986	
3.76	-0.060	-0.059870493241088785	
3.765	-0.087	-0.0632552892171839	
3.77	0.017	-0.05873227556660103	
3.775	0.021	-0.04951836530761604	
3.78	-0.077	-0.03917470254397397	
3.785	-0.061	-0.0331502290502424	
3.79	0.032	-0.029743365542343473	
3.795	-0.040	-0.02923736857301472	
3.8	-0.116	-0.029494427677240843	
3.805	-0.038	-0.03485395183476496	
3.81	-0.029	-0.04483554516759601	
3.815	-0.109	-0.052242134121871134	
3.82	-0.034	-0.054773192847960145	
3.825	0.001	-0.05551111101032647	
3.83	-0.109	-0.05514615940719403	
3.835	-0.100	-0.05616538465583145	
3.84	0.000	-0.05975485296169743	
3.845	-0.068	-0.06122165125481241	
3.85	-0.077	-0.060483401785008384	
3.855	0.079	-0.05085101672734657	
3.86	-0.013	-0.03783489239607213	
3.865	-0.122	-0.028255579297226916	
3.87	-0.037	-0.02779056700388811	
3.875	0.029	-0.031500816183925695	
3.88	-0.084	-0.03412715762066615	
3.885	-0.064	-0.03518148561432423	
3.89	0.003	-0.03776871875570728	
3.895	0.027	-0.037193947589394885	
3.9	-0.040	-0.028474774289230856	
3.905	0.032	-0.015886634983252868	
3.91	0.000	-0.00984566194599484	
3.915	-0.068	-0.007220351512448957	
3.92	-0.026	-0.008777954951293335	
3.925	0.010	-0.013540667177230898	
3.93	-0.121	-0.023139775350244248	
3.935	-0.103	-0.03513643882887987	
3.94	0.009	-0.047770501472195824	
3.945	-0.119	-0.059247728467599695	
3.95	-0.132	-0.06945698172719468	
3.955	-0.045	-0.077840947946983	
3.96	-0.083	-0.08487928891448851	
3.965	-0.124	-0.08923623003337913	
3.97	-0.058	-0.08872371631343752	
3.975	-0.017	-0.0855443083463692	
3.98	-0.142	-0.08218572316679501	
3.985	-0.083	-0.08010532357211991	
3.99	0.033	-0.07473821388924265	
3.995	-0.064	-0.06729155003738022	
4.0	-0.092	-0.05846642879164411	
4.005	0.088	-0.04679377505164753	
4.01	0.090	-0.027885270855884024	
4.015	0.012	-0.0022690809229017226	
4.02	0.120	0.026294148010331385	
4.025	0.026	-0.05846642879164411	
4.03	-0.104	-0.05846642879164411	
4.035	-0.063	-0.05846642879164411	
4.04	-0.029	-0.05846642879164411	
4.045	-0.129	-0.022304743128106357	
4.05	-0.121	-0.04949880290590062	
4.055	0.035	-0.06575146197162465	
4.06	-0.037	-0.06985695383352573	
4.065	-0.144	-0.06833503367879179	
4.07	-0.063	-0.06871377876819916	
4.075	-0.019	-0.07045277877755265	
4.08	-0.100	-0.07123661226144565	
4.085	-0.097	-0.06917229063731556	
4.09	-0.022	-0.0686531514839657	
4.095	-0.097	-0.07127643298014122	
4.1	-0.130	-0.07357018783296274	
4.105	-0.009	-0.07474864590853839	
4.11	-0.042	-0.07380716115496022	
4.115	-0.159	-0.07237794844931444	
4.12	-0.087	-0.07473334918517077	
4.125	0.010	-0.07839947839010525	
4.13	-0.077	-0.07624958835355075	
4.135	-0.016	-0.06419949103353971	
4.14	0.114	-0.04560821766487807	
4.145	-0.084	-0.026277674255028603	
4.15	-0.132	-0.018625292282235535	
4.155	-0.019	-0.0247404999709351	
4.16	-0.048	-0.03677857173542903	
4.165	-0.133	-0.049394973798385644	
4.17	-0.038	-0.0577374583761224	
4.175	-0.019	-0.06337850276820338	
4.18	-0.121	-0.06726139661347856	
4.185	-0.066	-0.06822369971838835	
4.19	0.104	-0.06158873618215696	
4.195	-0.006	-0.04524642039677799	
4.2	-0.092	-0.02763705479787889	
4.205	-0.013	-0.019761868029799443	
4.21	-0.051	-0.02276639856655787	
4.215	-0.119	-0.033388596823345926	
4.22	-0.034	-0.04175695666864604	
4.225	-0.020	-0.0493761403950669	
4.23	-0.069	-0.05424279708684	
4.235	-0.028	-0.05223064763950526	
4.24	0.041	-0.04360003955752004	
4.245	-0.075	-0.03625012769327712	
4.25	-0.109	-0.03564614369196674	
4.255	-0.019	-0.03874160256204459	
4.26	-0.014	-0.044742030601993235	
4.265	-0.093	-0.046418541669234925	
4.27	-0.014	-0.04476141744593988	
4.275	0.076	-0.03933277352944163	
4.28	-0.058	-0.029264229958773792	
4.285	-0.046	-0.019272151105117714	
4.29	0.059	-0.013569476617975036	
4.295	-0.006	-0.009234420473735839	
4.3	-0.095	-0.006671657183958589	
4.305	0.032	-0.007733942967733767	
4.31	0.015	-0.011735679338523947	
4.315	-0.078	-0.01343079490362109	
4.32	0.007	-0.013751307815603638	
4.325	0.023	-0.014341446019112377	
4.33	-0.101	-0.018286609182356126	
4.335	-0.069	-0.024245770585808745	
4.34	0.042	-0.03055600141181595	
4.345	-0.049	-0.0342677970470591	
4.35	-0.069	-0.03365498311252063	
4.355	0.032	-0.030696231532097176	
4.36	-0.040	-0.02977552418475005	
4.365	-0.112	-0.032456762912806934	
4.37	-0.020	-0.03670127044650154	
4.375	0.078	-0.036336721259046426	
4.38	-0.083	-0.03132505555172188	
4.385	-0.075	-0.026222681198971007	
4.39	0.012	-0.027542776932858292	
4.395	-0.080	-0.03431420773035204	
4.4	-0.052	-0.038642965161780986	
4.405	0.162	-0.031642769163765426	
4.41	0.006	-0.012796494457962283	
4.415	-0.116	-0.0004932408094831242	
4.42	-0.029	-0.0006872275524560977	
4.425	0.003	-0.010333120195164172	
4.43	-0.113	-0.023343381200750607	
4.435	-0.086	-0.036219155100125584	
4.44	0.050	-0.04451894197506058	
4.445	-0.060	-0.04730041637335894	
4.45	-0.115	-0.04767032018219439	
4.455	-0.011	-0.04867583879820344	
4.46	0.018	-0.049766788482829054	
4.465	-0.075	-0.04445376446808846	
4.47	0.032	-0.033707052024930004	
4.475	0.047	-0.022348152552027094	
4.48	-0.060	-0.013317469498795193	
4.485	-0.017	-0.0062204055613764245	
4.49	0.082	-0.001550689842549549	
4.495	-0.023	0.002703072081747356	
4.5	-0.064	0.004353032863264054	
4.505	0.038	0.0023086908543812424	
4.51	-0.016	-0.0027897830768771237	
4.515	-0.097	-0.010438574130621022	
4.52	-0.031	-0.018701878500401455	
4.525	-0.016	-0.028369618536303765	
4.53	-0.118	-0.040308941546501824	
4.535	-0.034	-0.048197370017532964	
4.54	0.058	-0.047555418112211964	
4.545	-0.049	-0.04130152097222192	
4.55	-0.095	-0.03564231607251884	
4.555	-0.005	-0.03369340290325118	
4.56	-0.028	-0.03678788010757593	
4.565	-0.104	-0.04043907115987111	
4.57	-0.011	-0.04170292212916905	
4.575	0.012	-0.04035553893375225	
4.58	-0.118	-0.04131428523598199	
4.585	-0.087	-0.045225533910193474	
4.59	-0.008	-0.05054792257454118	
4.595	-0.063	-0.05628367895085107	
4.6	-0.097	-0.058659882379476135	
4.605	0.041	-0.0546834918899293	
4.61	0.093	-0.04275121805147086	
4.615	0.009	-0.019456738636716837	
4.62	0.120	0.010277286630182517	
4.625	0.122	-0.04035553893375225	
4.63	-0.008	-0.04131428523598199	
4.635	-0.016	-0.04275121805147086	
4.64	0.035	0.05747329862468438	
4.645	-0.087	0.03771921789614491	
4.65	-0.116	0.010298180488568443	
4.655	-0.023	-0.017666796805773283	
4.66	-0.008	-0.03872230890730011	
4.665	-0.097	-0.05049422998273796	
4.67	-0.054	-0.053726996823793435	
4.675	-0.051	-0.058284068295785016	
4.68	-0.122	-0.06634555524579075	
4.685	-0.075	-0.07227343646582043	
4.69	0.068	-0.06845861713959872	
4.695	-0.029	-0.05827903452319881	
4.7	-0.116	-0.04576447282391234	
4.705	0.035	-0.037633691853321945	
4.71	-0.026	-0.03369290363835191	
4.715	-0.110	-0.03357239324919971	
4.72	-0.032	-0.03472522661336898	
4.725	0.012	-0.038202837453769886	
4.73	-0.104	-0.0413908889369202	
4.735	-0.081	-0.04533125918979314	
4.74	0.050	-0.04639006756292087	
4.745	-0.045	-0.044270779629028104	
4.75	-0.087	-0.03983424069594872	
4.755	0.052	-0.03459208320884126	
4.76	0.023	-0.02663985596757206	
4.765	-0.122	-0.02163947929949138	
4.77	-0.071	-0.02374755759264712	
4.775	-0.016	-0.034139170217454884	
4.78	-0.122	-0.0474071784904328	
4.785	-0.087	-0.0573762260315593	
4.79	0.070	-0.060343105386449006	
4.795	-0.040	-0.05524828753904022	
4.8	-0.100	-0.04588639171973301	
4.805	0.017	-0.03958942615437027	
4.81	-0.009	-0.03560436149744585	
4.815	-0.115	-0.03466154313841397	
4.82	-0.037	-0.035756095131528574	
4.825	0.023	-0.03810572394670482	
4.83	-0.092	-0.04041463431349357	
4.835	-0.043	-0.04040232349619861	
4.84	0.056	-0.036327845809104614	
4.845	-0.054	-0.031242953201209022	
4.85	-0.078	-0.028913385863998043	
4.855	0.072	-0.023576367745695926	
4.86	0.023	-0.016569064884651884	
4.865	-0.130	-0.012694471079546455	
4.87	-0.043	-0.01679072202299923	
4.875	0.044	-0.024054875327453377	
4.88	-0.066	-0.028396394026138357	
4.885	-0.052	-0.028464529012052448	
4.89	0.041	-0.027318739558178234	
4.895	-0.064	-0.028186116627032926	
4.9	-0.095	-0.030954622134167973	
4.905	0.110	-0.028609048495028183	
4.91	0.041	-0.018498782415158933	
4.915	-0.086	-0.006690477074107735	
4.92	-0.023	-0.0028658894625417253	
4.925	0.033	-0.026043202117654204	
4.93	-0.080	-0.026043202117654204	
4.935	-0.066	-0.017535903298553705	
4.94	0.050	-0.023335472034232363	
4.945	-0.017	-0.025091504753483783	
4.95	-0.112	-0.024981344603783925	
4.955	-0.014	-0.028704737030036127	
4.96	0.026	-0.03343968751220015	
4.965	-0.090	-0.03362052775429015	
4.97	-0.002	-0.030940429475287266	
4.975	0.052	-0.026043202117654204	
4.98	-0.095	-0.02325863990277452	
4.985	-0.098	-0.024564389985447087	
4.99	-0.013	-0.03241730966699524	
4.995	-0.106	-0.04603565420926447	
5.0	-0.121	-0.03362052775429015	
5.005	0.030	-0.03399338124871917	
5.01	0.047	-0.06043140510367305	
5.015	-0.089	-0.04655469425189815	
5.02	-0.020	-0.03399338124871917	
5.025	-0.023	-0.029093074244783235	
5.03	-0.090	-0.0331909586337857	
5.035	-0.045	-0.03654822153323352	
5.04	0.024	-0.037472301311680126	
5.045	-0.083	-0.03801139656166364	
5.05	-0.129	-0.043904263718216915	
5.055	-0.016	-0.05082448352435245	
5.06	-0.054	-0.05743775212220815	
5.065	-0.129	-0.06451265117320579	
5.07	-0.035	-0.06701436235959768	
5.075	0.049	-0.06408982234079841	
5.08	-0.095	-0.05614511247873865	
5.085	-0.077	-0.04858924643130985	
5.09	-0.008	-0.04550904370905811	
5.095	-0.055	-0.046947786553372076	
5.1	-0.069	-0.046900261760179925	
5.105	-0.002	-0.04388189001842907	
5.11	0.033	-0.03840142916375679	
5.115	-0.100	-0.032480268516158484	
5.12	-0.083	-0.03107902291034791	
5.125	-0.028	-0.03810527488009156	
5.13	-0.104	-0.050094547128105855	
5.135	-0.075	-0.05759598388556259	
5.14	0.006	-0.06052869441701298	
5.145	-0.100	-0.06292682639402983	
5.15	-0.107	-0.0649037377186851	
5.155	0.026	-0.06389358959842734	
5.16	0.056	-0.054379998872059965	
5.165	-0.089	-0.0394787187362637	
5.17	-0.016	-0.027096333210105954	
5.175	0.062	-0.019089519536307286	
5.18	-0.075	-0.014084218303707634	
5.185	-0.069	-0.013627481087572358	
5.19	0.023	-0.01654028060395659	
5.195	-0.063	-0.023895521902833013	
5.2	-0.061	-0.029902985980725976	
5.205	0.015	-0.03192536605838238	
5.21	-0.025	-0.03137258835328882	
5.215	-0.124	-0.03546505452113946	
5.22	-0.086	-0.04311905039210257	
5.225	0.000	-0.053081297050048507	
5.23	-0.043	-0.05805362460083435	
5.235	-0.061	-0.05363887737579987	
5.24	0.026	-0.04554413297856346	
5.245	-0.060	-0.04088096721655117	
5.25	-0.092	-0.03892335169137279	
5.255	-0.011	-0.03893158842016234	
5.26	-0.017	-0.04035021855680805	
5.265	-0.144	-0.044479103471838845	
5.27	-0.075	-0.052126984190295676	
5.275	0.003	-0.05905446828856393	
5.28	-0.063	-0.06306891997598879	
5.285	-0.083	-0.0586620857946318	
5.29	0.033	-0.05351109937706704	
5.295	-0.071	-0.04887831545054014	
5.3	-0.106	-0.046958484032913875	
5.305	0.039	-0.044907168222546257	
5.31	0.053	-0.03732203733951698	
5.315	-0.029	-0.02350671388621866	
5.32	0.076	-0.004121541464884893	
5.325	0.131	0.01697307604646209	
5.33	-0.022	0.03489493553415201	
5.335	-0.037	0.04230812501731317	
5.34	0.035	0.0375161375216143	
5.345	-0.097	0.02112088652017544	
5.35	-0.132	-0.003990021690642772	
5.355	-0.025	-0.028892890903259	
5.36	-0.058	-0.05029860247194718	
5.365	-0.144	-0.06653490322682569	
5.37	-0.089	-0.07813365611260728	
5.375	-0.002	-0.08498793950084169	
5.38	-0.133	-0.08710009523282658	
5.385	-0.116	-0.08671623844332232	
5.39	0.058	-0.08245226698088101	
5.395	-0.019	-0.07084193109089065	
5.4	-0.083	-0.05401902404160282	
5.405	0.020	-0.03991696636818898	
5.41	-0.008	-0.03027720678359285	
5.415	-0.087	-0.026534880331784416	
5.42	-0.063	-0.026163516534855852	
5.425	-0.040	-0.03399298880165263	
5.43	-0.098	-0.04608652515611763	
5.435	-0.101	-0.0567156910906407	
5.44	0.004	-0.062459104455287684	
5.445	-0.100	-0.06685146105043008	
5.45	-0.155	-0.07302295833561842	
5.455	-0.019	-0.07789726198171555	
5.46	0.020	-0.07626170658902762	
5.465	-0.107	-0.06854911499358374	
5.47	-0.066	-0.05916379449744871	
5.475	0.007	-0.05497284469471714	
5.48	-0.100	-0.05409681070769077	
5.485	-0.046	-0.05173151320774333	
5.49	0.065	-0.04443864106991407	
5.495	-0.038	-0.03484545321635273	
5.5	-0.119	-0.02904936140526324	
5.505	-0.034	-0.03190127886021962	
5.51	-0.034	-0.04025523971457501	
5.515	-0.141	-0.050562391139453225	
5.52	-0.061	-0.05915910725508951	
5.525	0.035	-0.06294897067978054	
5.53	-0.083	-0.061098906366267025	
5.535	-0.045	-0.05474776793304046	
5.54	0.070	-0.0434329259188493	
5.545	-0.055	-0.03183402838850977	
5.55	-0.113	-0.028062836508800527	
5.555	-0.011	-0.029909605972979484	
5.56	-0.029	-0.035228677679065866	
5.565	-0.083	-0.04156222863203163	
5.57	-0.005	-0.0411900178199532	
5.575	0.055	-0.03592477651464465	
5.58	-0.080	-0.03008184284965078	
5.585	-0.100	-0.02780632667164027	
5.59	0.030	-0.03043086123058689	
5.595	0.006	-0.03176884292684169	
5.6	-0.080	-0.029089071818443085	
5.605	0.006	-0.02394406974653624	
5.61	-0.013	-0.024180445486990516	
5.615	-0.107	-0.02757041260925752	
5.62	-0.006	-0.031238962884107237	
5.625	0.107	-0.027883741514945763	
5.63	-0.081	-0.019051946601271463	
5.635	-0.109	-0.016863598243739803	
5.64	0.041	-0.021436133935020432	
5.645	-0.048	-0.02771356321916241	
5.65	-0.106	-0.03311479576105558	
5.655	0.056	-0.033987280294571647	
5.66	0.053	-0.02911685780203513	
5.665	-0.092	-0.02053878131894342	
5.67	-0.031	-0.015328902301782882	
5.675	0.049	-0.014894282368737386	
5.68	-0.045	-0.014959630377521705	
5.685	-0.084	-0.015890811271993273	
5.69	0.010	-0.019509890170391297	
5.695	-0.029	-0.02664918501989681	
5.7	-0.103	-0.03207610313610787	
5.705	0.017	-0.035072286152858456	
5.71	0.044	-0.03311386564999082	
5.715	-0.054	-0.026454852126396575	
5.72	-0.029	-0.01836747142616177	
5.725	0.013	-0.015955651676494882	
5.73	-0.087	-0.01990146398464461	
5.735	-0.071	-0.02586638272501208	
5.74	0.013	-0.03156935989197926	
5.745	-0.083	-0.03863757680281189	
5.75	-0.112	-0.047032990632871516	
5.755	-0.011	-0.05310813108910104	
5.76	-0.023	-0.056132230291034355	
5.765	-0.116	-0.057418464031730294	
5.77	-0.057	-0.05837632974714145	
5.775	0.035	-0.05696999111987143	
5.78	-0.066	-0.05186452666127461	
5.785	-0.078	-0.045872648319660536	
5.79	0.036	-0.04060832182630042	
5.795	-0.038	-0.036604792166390315	
5.8	-0.068	-0.033009764915245585	
5.805	0.003	-0.028159640556481493	
5.81	-0.028	-0.02813442107328322	
5.815	-0.113	-0.0323770955352225	
5.82	-0.083	-0.040405506361182564	
5.825	0.006	-0.04899519461877953	
5.83	-0.078	-0.0558245756116467	
5.835	-0.109	-0.0578701706183843	
5.84	-0.023	-0.06064043040069138	
5.845	-0.069	-0.06459125027054746	
5.85	-0.127	-0.0689929162255031	
5.855	-0.038	-0.07017357518143763	
5.86	-0.022	-0.07113313529431803	
5.865	-0.042	-0.06635807395577976	
5.87	-0.016	-0.053395139638435105	
5.875	0.023	-0.040006468144489396	
5.88	-0.055	-0.030852277376631505	
5.885	-0.038	-0.023858636290691314	
5.89	0.065	-0.016603798289905887	
5.895	-0.042	-0.01162448203373817	
5.9	-0.112	-0.013032703679031825	
5.905	-0.002	-0.02012365345025004	
5.91	0.003	-0.027119199092077325	
5.915	-0.119	-0.0334258250364772	
5.92	-0.087	-0.04138631977190502	
5.925	-0.022	-0.05195055188766696	
5.93	-0.086	-0.061883491751811126	
5.935	-0.101	-0.06588178076155082	
5.94	0.012	-0.0665549534806594	
5.945	-0.052	-0.06462819950136589	
5.95	-0.116	-0.06106405124925839	
5.955	-0.020	-0.05808758390181116	
5.96	-0.019	-0.05611646219126585	
5.965	-0.109	-0.05547179197893352	
5.97	-0.031	-0.053351234489556434	
5.975	0.044	-0.047913841756206534	
5.98	-0.107	-0.04294465901985404	
5.985	-0.133	-0.0438990528448819	
5.99	-0.046	-0.05350470363899734	
5.995	-0.090	-0.06665170590822975	
6.0	-0.097	-0.07609408916424876	
6.005	0.056	-0.07302835208924377	
6.01	0.003	-0.05909969184112108	
6.015	-0.109	-0.04653663679949743	
6.02	-0.011	-0.03834833918944203	
6.025	0.104	-0.027855518241641786	
6.03	-0.042	-0.01496521260515123	
6.035	-0.072	-0.0059446167840463285	
6.04	0.140	0.0005385123703435253	
6.045	0.024	0.010391420040473272	
6.05	-0.122	0.01583821768544554	
6.055	-0.026	0.008910973864350656	
6.06	-0.029	-0.008037758075318679	
6.065	-0.148	-0.02849606283726578	
6.07	-0.097	-0.04842334055718098	
6.075	-0.023	-0.06586758865402487	
6.08	-0.078	-0.0768745406364274	
6.085	-0.107	-0.07895501590545409	
6.09	0.001	-0.07553748897984625	
6.095	-0.042	-0.07156414270366905	
6.1	-0.071	-0.06310233300543097	
6.105	0.021	-0.05113354169095198	
6.11	-0.023	-0.04005409428454851	
6.115	-0.112	-0.036457958522757794	
6.12	-0.034	-0.03643883999936591	
6.125	0.036	-0.03688944021372574	
6.13	-0.078	-0.035856156307886564	
6.135	-0.093	-0.035967282818718596	
6.14	0.020	-0.03855626893581056	
6.145	-0.042	-0.04053823237791716	
6.15	-0.104	-0.042104646658705905	
6.155	0.023	-0.0411659029036314	
6.16	0.015	-0.038024777404607524	
6.165	-0.077	-0.033426215961725396	
6.17	-0.074	-0.030482982215224642	
6.175	-0.042	-0.034908551451638375	
6.18	-0.098	-0.0468165256342465	
6.185	-0.054	-0.05496760991655436	
6.19	0.099	-0.051567817660505104	
6.195	-0.042	-0.03951255405200678	
6.2	-0.132	-0.03212337079013708	
6.205	-0.022	-0.03320224726732447	
6.21	-0.005	-0.03798797369765455	
6.215	-0.110	-0.04341225014681719	
6.22	-0.072	-0.047531314047275446	
6.225	0.044	-0.04987841842547818	
6.23	-0.061	-0.048760923471965686	
6.235	-0.078	-0.044031831434267574	
6.24	0.018	-0.03961098039403762	
6.245	0.006	-0.0364384385234426	
6.25	-0.098	-0.031112930232733402	
6.255	-0.031	-0.02926550338643081	
6.26	-0.026	-0.032968332685013424	
6.265	-0.116	-0.041375603110689135	
6.27	-0.078	-0.04956657521442448	
6.275	-0.031	-0.05789119508635255	
6.28	-0.072	-0.06473287551409472	
6.285	-0.055	-0.06503203047891508	
6.29	0.067	-0.05561275509027193	
6.295	-0.017	-0.041429025515452134	
6.3	-0.089	-0.03013133760961948	
6.305	-0.006	-0.024268727026805093	
6.31	0.000	-0.023939187823888184	
6.315	-0.110	-0.027391597519958705	
6.32	-0.058	-0.032593937860852414	
6.325	0.064	-0.03685398630908819	
6.33	-0.086	-0.03672000751221053	
6.335	-0.089	-0.03708689322122481	
6.34	0.010	-0.03861600516101118	
6.345	-0.031	-0.041381816140623376	
6.35	-0.109	-0.043145763683918675	
6.355	0.010	-0.04229476353777538	
6.36	0.035	-0.03890002938982999	
6.365	-0.089	-0.03337761952547061	
6.37	-0.009	-0.027636286693124693	
6.375	0.096	-0.01984648355840483	
6.38	-0.072	-0.011684686923900088	
6.385	-0.103	-0.03413090445486522	
6.39	-0.014	-0.0176463621663819	
6.395	-0.014	-0.029334178870032767	
6.4	-0.042	-0.03413090445486522	
6.405	-0.005	-0.030338398776265957	
6.41	-0.048	-0.02989821956811459	
6.415	-0.109	-0.036356583362119346	
6.42	-0.055	-0.04365221775117154	
6.425	0.088	-0.044842494915815344	
6.43	-0.068	-0.03866560322332072	
6.435	-0.081	-0.03313365957289077	
6.44	0.015	-0.030642916176887657	
6.445	-0.061	-0.03332363492647642	
6.45	-0.124	-0.03916391397640284	
6.455	-0.026	-0.04634689838011927	
6.46	-0.011	-0.05185013910790898	
6.465	-0.122	-0.056357583146787425	
6.47	-0.045	-0.057697474372702715	
6.475	0.076	-0.0538202746369882	
6.48	-0.055	-0.04363095521707545	
6.485	-0.106	-0.035176512407540605	
6.49	-0.014	-0.03366173167415238	
6.495	-0.061	-0.040275048015709955	
6.5	-0.095	-0.047167677420266396	
6.505	0.012	-0.048382165829684395	
6.51	0.009	-0.045820039803359205	
6.515	-0.098	-0.04134273347146633	
6.52	-0.052	-0.03874126271791356	
6.525	0.055	-0.03681833442317302	
6.53	-0.058	-0.033599085347273586	
6.535	-0.083	-0.03019508561294051	
6.54	0.007	-0.029670448741630166	
6.545	-0.028	-0.032246484958607845	
6.55	-0.074	-0.03417627731465158	
6.555	0.036	-0.03040340638087565	
6.56	0.015	-0.02480084947483828	
6.565	-0.132	-0.02334359954745703	
6.57	-0.078	-0.02977087608874704	
6.575	-0.002	-0.039802891148482476	
6.58	-0.063	-0.048577508608969325	
6.585	-0.115	-0.05322013956080235	
6.59	-0.040	-0.05766955825637834	
6.595	-0.064	-0.06522005465280668	
6.6	-0.136	-0.07119772762378576	
6.605	-0.043	-0.07441697314125689	
6.61	-0.016	-0.07577141199906784	
6.615	-0.106	-0.073342595028816	
6.62	-0.069	-0.06877842598288023	
6.625	0.027	-0.0627861793977346	
6.63	-0.060	-0.056592066805414384	
6.635	-0.086	-0.04923366917821205	
6.64	0.039	-0.041638125495019634	
6.645	-0.035	-0.036227336607519325	
6.65	-0.100	-0.03423539317260197	
6.655	0.009	-0.032390217883365685	
6.66	0.065	-0.02874793211194631	
6.665	-0.057	-0.02038358448812867	
6.67	0.017	-0.010778190020168547	
6.675	0.093	0.0002545464387740124	
6.68	-0.058	0.008380262061826179	
6.685	-0.107	0.005726287002561892	
6.69	-0.022	-0.00660975144490724	
6.695	-0.089	-0.02620995337412804	
6.7	-0.153	-0.048266176407192884	
6.705	-0.054	-0.06638768619233754	
6.71	-0.034	-0.07871463710266474	
6.715	-0.132	-0.08539726525925351	
6.72	-0.083	-0.08580218950192349	
6.725	0.009	-0.08271398849368658	
6.73	-0.078	-0.0776039271525143	
6.735	-0.089	-0.06929928221170867	
6.74	0.013	-0.060588266867672394	
6.745	-0.060	-0.0541879929800597	
6.75	-0.147	-0.05431297325426989	
6.755	0.003	-0.05539111109722711	
6.76	0.020	-0.05366419020436042	
6.765	-0.142	-0.05043039777944658	
6.77	-0.126	-0.05385426792820476	
6.775	-0.016	-0.0636690243115971	
6.78	-0.095	-0.07257835054664283	
6.785	-0.097	-0.07635054305731481	
6.79	0.018	-0.07257954518013861	
6.795	-0.063	-0.06713329871325185	
6.8	-0.144	-0.06434482739867328	
6.805	-0.003	-0.0634308710611293	
6.81	0.036	-0.05761142212853311	
6.815	-0.098	-0.04941213517611738	
6.82	-0.066	-0.04291283838896093	
6.825	0.015	-0.040652813503384594	
6.83	-0.071	-0.04152906272376552	
6.835	-0.118	-0.043407867203258246	
6.84	-0.022	-0.04861441286813943	
6.845	-0.089	-0.05706318227217645	
6.85	-0.126	-0.06734651003742793	
6.855	-0.037	-0.07249168793810137	
6.86	0.001	-0.07256921662215425	
6.865	-0.098	-0.06837836568504307	
6.87	-0.090	-0.0639724736865166	
6.875	0.020	-0.05964112912360903	
6.88	-0.068	-0.057474325806152735	
6.885	-0.093	-0.0534545611109655	
6.89	-0.009	-0.05063318195017824	
6.895	0.010	-0.04799805785074544	
6.9	-0.074	-0.04236641059700208	
6.905	-0.014	-0.03354168029429986	
6.91	0.044	-0.02752860173312145	
6.915	-0.083	-0.023373549156927964	
6.92	-0.077	-0.02301732283328407	
6.925	0.000	-0.027616174578331744	
6.93	-0.061	-0.0354595815151493	
6.935	-0.100	-0.0424895868768376	
6.94	0.075	-0.042606113122430914	
6.945	-0.019	-0.03697040511608542	
6.95	-0.118	-0.03242080921464484	
6.955	-0.035	-0.03354970177069713	
6.96	0.047	-0.035469920539375185	
6.965	-0.101	-0.0353883476336498	
6.97	-0.084	-0.036061868505459616	
6.975	0.047	-0.03857747764070568	
6.98	-0.046	-0.03942769257578915	
6.985	-0.083	-0.036535653390854725	
6.99	-0.003	-0.034625579898999566	
6.995	-0.066	-0.038939258105525995	
7.0	-0.087	-0.0444194196423517	
7.005	0.026	-0.0445565831481424	
7.01	0.007	-0.03945611289702737	
7.015	-0.103	-0.03640309384380299	
7.02	-0.043	-0.0350724133896682	
7.025	0.064	-0.03254241014941881	
7.03	-0.078	-0.029437525952945798	
7.035	-0.126	-0.03158728353830705	
7.04	0.007	-0.037592825742872475	
7.045	-0.028	-0.04388837760907778	
7.05	-0.098	-0.04647297969412657	
7.055	-0.013	-0.045586785888937026	
7.06	0.018	-0.043389606949270756	
7.065	-0.103	-0.04140582812050708	
7.07	-0.063	-0.04113680370528103	
7.075	0.088	-0.03750434591391359	
7.08	-0.028	-0.030387170718437512	
7.085	-0.100	-0.022644176193161596	
7.09	-0.029	-0.022614427355141627	
7.095	-0.074	-0.03283811862404028	
7.1	-0.119	-0.04749521404148506	
7.105	-0.037	-0.056619314432841336	
7.11	-0.014	-0.06233886242864807	
7.115	-0.122	-0.06540484237913936	
7.12	-0.077	-0.06718575886008553	
7.125	0.036	-0.06446649774159388	
7.13	-0.034	-0.05836419953079788	
7.135	-0.080	-0.04769838631727981	
7.14	0.072	-0.03558323784920327	
7.145	-0.019	-0.024782971586134735	
7.15	-0.121	-0.020569057254251042	
7.155	0.021	-0.02064886950340554	
7.16	0.072	-0.019249230786849005	
7.165	-0.110	-0.015422837288208239	
7.17	-0.100	-0.019277844792196394	
7.175	0.044	-0.027417656623912514	
7.18	-0.032	-0.03329993282682889	
7.185	-0.054	-0.032771417695652776	
7.19	0.070	-0.025606672363489198	
7.195	0.029	-0.01569224194716598	
7.2	-0.084	-0.007581505546604716	
7.205	-0.011	-0.004735097017211805	
7.21	0.013	-0.007205615718170037	
7.215	-0.100	-0.015369102215608117	
7.22	-0.107	-0.02634706703651037	
7.225	0.090	-0.0354200648114095	
7.23	-0.022	-0.0362191317429998	
7.235	-0.101	-0.030815937939313805	
7.24	0.026	-0.027675167264938072	
7.245	-0.029	-0.028623536171889966	
7.25	-0.116	-0.03255250797833025	
7.255	-0.035	-0.03680961391843775	
7.26	0.061	-0.03918331022261761	
7.265	-0.087	-0.03729479621632895	
7.27	-0.097	-0.03539937362048052	
7.275	0.033	-0.03747585825479138	
7.28	-0.066	-0.04115830668703636	
7.285	-0.116	-0.043798290160538995	
7.29	-0.013	-0.04773959328535665	
7.295	-0.008	-0.05060342297690752	
7.3	-0.092	-0.05048950865471137	
7.305	0.009	-0.04485075504553314	
7.31	0.085	-0.03422244139381444	
7.315	0.059	-0.01623143745028198	
7.32	0.104	0.013624276346184272	
7.325	0.131	-0.03984990916499	
7.33	-0.052	-0.04115830668703636	
7.335	-0.087	-0.03984990916499	
7.34	-0.016	-0.0388432268187303	
7.345	-0.058	0.009392261328926827	
7.35	-0.110	-0.019489554772303817	
7.355	-0.032	-0.03984990916499	
7.36	-0.006	-0.052196778648050314	
7.365	-0.087	-0.05825292678312312	
7.37	-0.071	-0.05941730607759355	
7.375	0.061	-0.05447487505165563	
7.38	-0.043	-0.04612540961538848	
7.385	-0.112	-0.0388432268187303	
7.39	0.018	-0.035747757048739	
7.395	0.009	-0.033537662062896864	
7.4	-0.115	-0.032539564648498394	
7.405	-0.080	-0.034909491947003476	
7.41	0.013	-0.04313614321009169	
7.415	-0.072	-0.04823647724158243	
7.42	-0.064	-0.04747740524329688	
7.425	0.075	-0.042458175060998984	
7.43	-0.045	-0.03508760046536845	
7.435	-0.097	-0.028875902647998337	
7.44	-0.002	-0.027760092209454936	
7.445	-0.028	-0.03151383801855559	
7.45	-0.081	-0.03554489489748262	
7.455	0.017	-0.034905878633357576	
7.46	0.029	-0.0291173560310354	
7.465	-0.126	-0.02826382494930706	
7.47	-0.106	-0.0335043464455758	
7.475	0.041	-0.04242598316592372	
7.48	-0.025	-0.0450718176494017	
7.485	-0.086	-0.04190464812909065	
7.49	0.046	-0.0357493744721985	
7.495	0.033	-0.027480565902408757	
7.5	-0.084	-0.01856911669772772	
7.505	-0.006	-0.012938833307490415	
7.51	0.035	-0.0120953807668852	
7.515	-0.078	-0.013240392440555882	
7.52	-0.055	-0.01652078249401589	
7.525	0.021	-0.02144294743060989	
7.53	-0.095	-0.02906356328445715	
7.535	-0.097	-0.03890120180975461	
7.54	-0.013	-0.045760624843648214	
7.545	-0.003	-0.050476027346119536	
7.55	-0.116	-0.05155743817084719	
7.555	-0.009	-0.04894078810190212	
7.56	0.049	-0.0440914696260699	
7.565	-0.063	-0.03623385196396738	
7.57	-0.042	-0.02752769625596354	
7.575	0.101	-0.018440033424287842	
7.58	0.013	-0.007050811027358383	
7.585	-0.089	0.0020899431534292584	
7.59	0.020	0.004218266077721998	
7.595	-0.013	-0.0024781169675289843	
7.6	-0.072	-0.010542853862915478	
7.605	-0.008	-0.015940622476423697	
7.61	-0.032	-0.021111679789776273	
7.615	-0.132	-0.03424101414412827	
7.62	-0.057	-0.046509122401540495	
7.625	0.099	-0.01646377566247651	
7.63	-0.006	-0.04005938187975288	
7.635	-0.100	-0.027922161702204722	
7.64	0.039	-0.019763140844243854	
7.645	0.013	-0.01646377566247651	
7.65	-0.074	-0.013569555732710275	
7.655	0.027	-0.009948752975241046	
7.66	0.024	-0.007078193164489912	
7.665	-0.097	-0.00924533695264259	
7.67	-0.072	-0.016547909832166197	
7.675	0.049	-0.023415850454450847	
7.68	-0.049	-0.029038483063272943	
7.685	-0.113	-0.0329445456679813	
7.69	-0.025	-0.037765335590257416	
7.695	0.029	-0.04343181601332295	
7.7	-0.095	-0.04257927057029516	
7.705	-0.037	-0.03896812691650543	
7.71	0.038	-0.037058502225702325	
7.715	-0.080	-0.03523846500216257	
7.72	-0.081	-0.03355587464282021	
7.725	-0.009	-0.03641749778961627	
7.73	-0.080	-0.0440565064064626	
7.735	-0.112	-0.05193411484883703	
7.74	0.044	-0.037286172569179946	
7.745	0.013	-0.037286172569179946	
7.75	-0.112	-0.04161142479571375	
7.755	-0.049	-0.03692691808921553	
7.76	0.038	-0.037054133003253324	
7.765	-0.095	-0.037286172569179946	
7.77	-0.060	-0.0375290716183697	
7.775	0.062	-0.035376511148546466	
7.78	-0.069	-0.03209674816682472	
7.785	-0.107	-0.032952757209197645	
7.79	0.007	-0.035696501601077665	
7.795	0.001	-0.0374705684301959	
7.8	-0.107	-0.03863012160179671	
7.805	-0.023	-0.03790056514628681	
7.81	0.012	-0.038048556130704375	
7.815	-0.116	-0.040311312420195325	
7.82	-0.097	-0.04552814959791948	
7.825	0.058	-0.04935981120991964	
7.83	-0.090	-0.050097048395830276	
7.835	-0.100	-0.05096131761827263	
7.84	0.035	-0.04869194934564146	
7.845	-0.009	-0.04445727287356113	
7.85	-0.115	-0.040640611641885156	
7.855	-0.051	-0.03992231665494886	
7.86	0.053	-0.040028488012371466	
7.865	-0.028	-0.03628356466929768	
7.87	0.001	-0.02455022966761085	
7.875	0.082	-0.009372127139488035	
7.88	-0.035	-0.040640611641885156	
7.885	-0.081	-0.040640611641885156	
7.89	-0.003	-0.040640611641885156	
7.895	-0.045	-0.012433443786039588	
7.9	-0.121	-0.02763802240858712	
7.905	-0.048	-0.040942067051782285	
7.91	0.053	-0.048000107000821406	
7.915	-0.092	-0.04827683369360525	
7.92	-0.087	-0.04659751554646186	
7.925	0.027	-0.04535789967912233	
7.93	-0.066	-0.04602894934938272	
7.935	-0.129	-0.0480116419266607	
7.94	-0.017	-0.051737050408836555	
7.945	0.007	-0.05437941382141152	
7.95	-0.110	-0.0526371317475262	
7.955	-0.025	-0.048992449579280006	
7.96	0.044	-0.04398444450310173	
7.965	-0.061	-0.037245945790281274	
7.97	-0.089	-0.03162945564925167	
7.975	0.018	-0.03137690216004081	
7.98	-0.060	-0.03499792775643068	
7.985	-0.084	-0.038002967891229894	
7.99	0.081	-0.035757460509649806	
7.995	0.101	-0.02236853641610191	
8.0	-0.014	-0.0016139819632933453	
8.005	0.062	0.0189833700839175	
8.01	0.116	0.03599125137879726	
8.015	-0.037	0.04578154622131887	
8.02	-0.046	0.04436867057647527	
8.025	0.050	0.034582428919143475	
8.03	-0.043	0.019029356844944445	
8.035	-0.106	0.0020262504206032734	
8.04	-0.042	-0.015818391239235292	
8.045	-0.019	-0.03438166432736975	
8.05	-0.104	-0.048548399535109095	
8.055	-0.025	-0.05302818531214152	
8.06	0.003	-0.053049062035284617	
8.065	-0.104	-0.0531763929905358	
8.07	-0.092	-0.053605832692768515	
8.075	0.013	-0.05445147502290208	
8.08	-0.066	-0.055969630152126	
8.085	-0.126	-0.05694793395570032	
8.09	-0.009	-0.057826411836557956	
8.095	0.015	-0.0563937736238076	
8.1	-0.098	-0.051541300184564556	
8.105	-0.061	-0.04603187338932053	
8.11	-0.005	-0.046067105681824996	
8.115	-0.101	-0.04917357634486304	
8.12	-0.066	-0.0515836251109129	
8.125	0.049	-0.04945570595068122	
8.13	-0.063	-0.044988990324432473	
8.135	-0.098	-0.04193528013939196	
8.14	0.010	-0.03981481900695327	
8.145	-0.020	-0.03941803670943729	
8.15	-0.104	-0.040549080137322106	
8.155	-0.029	-0.041005186099448546	
8.16	0.012	-0.041062144082985724	
8.165	-0.115	-0.04319665833880919	
8.17	-0.077	-0.04658621428852082	
8.175	0.068	-0.04643420244445769	
8.18	-0.061	-0.04298878608664873	
8.185	-0.115	-0.0399585838834451	
8.19	-0.013	-0.04081048978540086	
8.195	-0.029	-0.045396459848045176	
8.2	-0.118	-0.049562421465819274	
8.205	-0.003	-0.05101826624041951	
8.21	0.067	-0.045032298201228116	
8.215	-0.104	-0.03718767127339874	
8.22	-0.074	-0.03262617818072357	
8.225	0.058	-0.04335382134582504	
8.23	-0.052	-0.04298878608664873	
8.235	-0.138	-0.03197564330865446	
8.24	0.000	-0.03784805466267005	
8.245	-0.002	-0.04335382134582504	
8.25	-0.106	-0.045532595299571425	
8.255	-0.037	-0.0450834940916067	
8.26	0.026	-0.0440419122157126	
8.265	-0.107	-0.044116470950244624	
8.27	-0.057	-0.043649349402070436	
8.275	0.058	-0.04149119593983988	
8.28	-0.023	-0.03488804491819633	
8.285	-0.077	-0.027948308816817244	
8.29	0.018	-0.02292500594252605	
8.295	0.018	-0.019340021962610247	
8.3	-0.081	-0.018469470466388263	
8.305	0.018	-0.015140490911667876	
8.31	0.042	-0.012069067948556153	
8.315	-0.081	-0.011041728903325207	
8.32	-0.097	-0.015678525834715545	
8.325	-0.003	-0.0255626284233421	
8.33	-0.081	-0.03882304083604953	
8.335	-0.103	-0.04991768118126814	
8.34	0.030	-0.05399551825829171	
8.345	-0.009	-0.051307180438429474	
8.35	-0.124	-0.048417060482686736	
8.355	-0.075	-0.04821819309736797	
8.36	0.030	-0.051078001690443874	
8.365	-0.057	-0.05094887409572019	
8.37	-0.087	-0.0457105708773127	
8.375	0.042	-0.04162515665566001	
8.38	-0.035	-0.037753411936924636	
8.385	-0.058	-0.032898929844089965	
8.39	0.085	-0.023076452390578484	
8.395	-0.005	-0.01228628508449646	
8.4	-0.132	-0.009364359782485817	
8.405	-0.066	-0.0172815316297321	
8.41	-0.019	-0.03109700445060525	
8.415	-0.110	-0.04687910210514618	
8.42	-0.116	-0.05873972559423848	
8.425	-0.029	-0.06867268446665556	
8.43	-0.089	-0.0776864283154772	
8.435	-0.145	-0.08389517153322743	
8.44	-0.060	-0.0871500192314262	
8.445	-0.028	-0.08924155754500943	
8.45	-0.115	-0.08630490760427667	
8.455	-0.051	-0.07933402719898588	
8.46	0.003	-0.07110626758971995	
8.465	-0.078	-0.06383100037159706	
8.47	-0.055	-0.05576570519452084	
8.475	-0.005	-0.04769828858514508	
8.48	-0.071	-0.045656846393339695	
8.485	-0.086	-0.0459073916447895	
8.49	0.020	-0.04416562593010502	
8.495	-0.022	-0.04121100410829233	
8.5	-0.126	-0.041328828210692836	
8.505	-0.068	-0.04536953603124729	
8.51	0.036	-0.049052162599001414	
8.515	-0.075	-0.04982009750837535	
8.52	-0.118	-0.04883254180710658	
8.525	0.018	-0.050670078765956666	
8.53	-0.042	-0.051597875866844126	
8.535	-0.124	-0.05096105011489933	
8.54	-0.032	-0.05219714875321936	
8.545	-0.029	-0.056153038289004475	
8.55	-0.139	-0.06032680260719201	
8.555	-0.083	-0.06541276173198227	
8.56	-0.037	-0.051597875866844126	
8.565	-0.069	-0.05219714875321936	
8.57	-0.049	-0.071841860298096	
8.575	0.026	-0.060666690341896055	
8.58	-0.063	-0.050599526126083705	
8.585	-0.121	-0.046980211368278554	
8.59	-0.013	-0.04718414841967382	
8.595	-0.020	-0.04813463145122762	
8.6	-0.130	-0.05135524158658786	
8.605	-0.075	-0.055420399770020286	
8.61	-0.035	-0.061998217506096576	
8.615	-0.115	-0.06981607895134406	
8.62	-0.145	-0.07688875946299999	
8.625	-0.052	-0.08563093561500443	
8.63	-0.113	-0.09457107242893842	
8.635	-0.141	-0.10102208197740624	
8.64	-0.058	-0.10216990071178497	
8.645	0.009	-0.09809068109191155	
8.65	-0.031	-0.08338665587182931	
8.655	0.099	-0.05541669279978022	
8.66	0.159	-0.01594209504393713	
8.665	-0.020	0.02114108562308382	
8.67	-0.028	0.04105121162990931	
8.675	0.081	-0.08338665587182931	
8.68	-0.028	-0.08338665587182931	
8.685	-0.177	0.023894131545891286	
8.69	-0.104	-0.0071790409014634874	
8.695	-0.077	-0.04502239103697386	
8.7	-0.162	-0.0774131550770163	
8.705	-0.098	-0.09747450796779346	
8.71	-0.034	-0.10789157760588719	
8.715	-0.144	-0.11181500338584377	
8.72	-0.129	-0.11098806903788908	
8.725	0.039	-0.10456572628443501	
8.73	-0.049	-0.09049704047780033	
8.735	-0.113	-0.0751257417823706	
8.74	-0.019	-0.06320264480569604	
8.745	-0.020	-0.055988281300787736	
8.75	-0.119	-0.05242350087692274	
8.755	-0.048	-0.051524671188824936	
8.76	0.023	-0.049870874878847435	
8.765	-0.098	-0.04878176671297238	
8.77	-0.116	-0.05103682924824864	
8.775	-0.028	-0.0555908066090167	
8.78	-0.083	-0.06344607911055417	
8.785	-0.155	-0.07213348756616539	
8.79	-0.060	-0.07924476405399991	
8.795	-0.019	-0.08494181728140504	
8.8	-0.095	-0.08339417842800338	
8.805	-0.032	-0.07357341417387528	
8.81	0.032	-0.06186229604719654	
8.815	-0.104	-0.05174694728102465	
8.82	-0.069	-0.04607137304658948	
8.825	0.091	-0.03959302697150844	
8.83	-0.008	-0.027398720435677665	
8.835	-0.112	-0.01916106971176969	
8.84	-0.052	-0.020294266513987715	
8.845	-0.043	-0.030906714332553008	
8.85	-0.113	-0.045376212705152186	
8.855	-0.072	-0.05562715573793204	
8.86	0.021	-0.06084842116859205	
8.865	-0.095	-0.06268628279503517	
8.87	-0.113	-0.06211124229493838	
8.875	-0.049	-0.06463705757669215	
8.88	-0.097	-0.07234989937989911	
8.885	-0.098	-0.07914850035276585	
8.89	0.029	-0.07531318902413567	
8.895	0.030	-0.06286739018108542	
8.9	-0.116	-0.04838279396662447	
8.905	-0.100	-0.04268520270841024	
8.91	0.041	-0.04382226302116507	
8.915	-0.026	-0.04264887815139726	
8.92	-0.068	-0.03615241607601109	
8.925	0.042	-0.028640793259928004	
8.93	-0.032	-0.024306611258342846	
8.935	-0.118	-0.02417664083570282	
8.94	-0.020	-0.029359599616588395	
8.945	-0.019	-0.03684009167260198	
8.95	-0.121	-0.044353834280813555	
8.955	-0.086	-0.05270753287524146	
8.96	0.021	-0.058828368656811625	
8.965	-0.042	-0.05862150971847495	
8.97	-0.083	-0.053156233720743656	
8.975	-0.016	-0.04766852859428462	
8.98	-0.025	-0.0462939073809982	
8.985	-0.083	-0.04414684216984679	
8.99	-0.008	-0.040372832763229505	
8.995	-0.019	-0.03786303824361678	
9.0	-0.126	-0.04134047219566547	
9.005	-0.069	-0.04669459675815171	
9.01	0.050	-0.04984254428512386	
9.015	-0.078	-0.0486313917481674	
9.02	-0.098	-0.04714844460333954	
9.025	0.017	-0.04566184431678408	
9.03	-0.071	-0.047298316707219686	
9.035	-0.152	-0.05215906977263647	
9.04	-0.049	-0.06037510425227477	
9.045	-0.011	-0.06784414075039949	
9.05	-0.145	-0.07132999772925161	
9.055	-0.078	-0.07371289900291603	
9.06	0.017	-0.07385018710430655	
9.065	-0.107	-0.07160912961406032	
9.07	-0.107	-0.06914953490328002	
9.075	0.001	-0.06668783792996608	
9.08	-0.090	-0.06628246659946152	
9.085	-0.139	-0.06913558838915779	
9.09	-0.019	-0.07140378574299355	
9.095	-0.003	-0.0698474301218863	
9.1	-0.112	-0.0652934913485459	
9.105	-0.112	-0.06274018979662863	
9.11	-0.026	-0.06588561298287363	
9.115	-0.112	-0.07256676783491836	
9.12	-0.126	-0.07713794631835622	
9.125	-0.002	-0.07973214131999906	
9.13	-0.064	-0.07826042916345677	
9.135	-0.124	-0.07609603965857059	
9.14	-0.052	-0.07344823911279658	
9.145	-0.011	-0.07187075536433003	
9.15	-0.045	-0.06623842023615722	
9.155	0.013	-0.050728317495907796	
9.16	0.042	-0.032925781731206326	
9.165	-0.103	-0.02156549732121541	
9.17	-0.136	-0.02412726451192531	
9.175	-0.046	-0.03775801370218224	
9.18	-0.093	-0.05626572865705631	
9.185	-0.153	-0.07307188803692463	
9.19	-0.081	-0.08544711142835038	
9.195	-0.037	-0.09488450258525458	
9.2	-0.142	-0.09823484478247754	
9.205	-0.086	-0.09672251753812486	
9.21	-0.043	-0.0939345057235913	
9.215	-0.122	-0.09356218605221174	
9.22	-0.101	-0.09109855765924477	
9.225	0.033	-0.08474602201310164	
9.23	-0.022	-0.07128710394576235	
9.235	-0.133	-0.05907729720421681	
9.24	-0.089	-0.05543987506683728	
9.245	-0.075	-0.06290860165812413	
9.25	-0.164	-0.07724761103280656	
9.255	-0.112	-0.08969526794755461	
9.26	-0.064	-0.09893198208289246	
9.265	-0.106	-0.1055845080247914	
9.27	-0.103	-0.10508110448862854	
9.275	0.062	-0.09372297292980004	
9.28	0.018	-0.07331141538149824	
9.285	-0.066	-0.04808468557866127	
9.29	0.038	-0.02639990760116844	
9.295	0.035	-0.01091263060958553	
9.3	-0.069	-0.002289718538524552	
9.305	-0.009	0.0013224053825064395	
9.31	0.062	0.002091877723537863	
9.315	-0.095	-0.0016257784600799048	
9.32	-0.100	-0.011099360485231071	
9.325	-0.040	-0.026698525568456047	
9.33	-0.115	-0.046330211112430145	
9.335	-0.179	-0.06910632801563228	
9.34	-0.112	-0.09036399597167037	
9.345	-0.068	-0.10789474695829596	
9.35	-0.142	-0.11731242448681808	
9.355	-0.071	-0.11565960631166339	
9.36	0.006	-0.10587689674030545	
9.365	-0.113	-0.09365264237518052	
9.37	-0.081	-0.08211052867218027	
9.375	0.020	-0.07065448783441304	
9.38	-0.077	-0.061337251876002835	
9.385	-0.100	-0.05615312422553475	
9.39	0.064	-0.04933261339051953	
9.395	0.044	-0.034854267118279936	
9.4	-0.127	-0.02437641107798514	
9.405	-0.098	-0.023709598496005995	
9.41	-0.025	-0.03481697412495412	
9.415	-0.107	-0.050636021535526564	
9.42	-0.121	-0.06317790286309224	
9.425	-0.003	-0.0706290066472198	
9.43	-0.034	-0.07326773169369111	
9.435	-0.145	-0.07120552556087362	
9.44	-0.060	-0.07037607813690094	
9.445	-0.031	-0.07279484992663364	
9.45	-0.132	-0.07537165239016798	
9.455	-0.045	-0.07474120780196657	
9.46	0.035	-0.06777181928906051	
9.465	-0.032	-0.056624428986297826	
9.47	-0.074	-0.044232035969961954	
9.475	0.088	-0.030612963307007694	
9.48	0.009	-0.017232731212841763	
9.485	-0.103	-0.008254467184845956	
9.49	-0.016	-0.007394419486820046	
9.495	-0.023	-0.014742396567279234	
9.5	-0.159	-0.0293909560567568	
9.505	-0.093	-0.04679557238587964	
9.51	0.017	-0.06172778639026878	
9.515	-0.074	-0.06758664675874584	
9.52	-0.098	-0.06728641628554258	
9.525	0.007	-0.06361914964999317	
9.53	-0.008	-0.0581752152934443	
9.535	-0.090	-0.050268514980816664	
9.54	0.001	-0.041427539132669486	
9.545	0.021	-0.0337012384920114	
9.55	-0.071	-0.028375301485485865	
9.555	-0.035	-0.023839347515904184	
9.56	0.062	-0.020723842227773473	
9.565	-0.075	-0.018563411031017912	
9.57	-0.115	-0.021320670136703027	
9.575	-0.002	-0.029633852064893773	
9.58	-0.040	-0.0401406010984315	
9.585	-0.086	-0.04627194101365982	
9.59	-0.017	-0.04644851198593175	
9.595	-0.006	-0.0456813986252992	
9.6	-0.103	-0.04637029100959171	
9.605	-0.045	-0.04585758370848725	
9.61	0.059	-0.04270791279397845	
9.615	-0.058	-0.03655180243655671	
9.62	-0.086	-0.03234066392952689	
9.625	0.065	-0.027622471262538063	
9.63	-0.006	-0.023120457963371047	
9.635	-0.106	-0.019305949440578153	
9.64	-0.020	-0.020467371927279526	
9.645	0.000	-0.026645836226088612	
9.65	-0.161	-0.03537107749614997	
9.655	-0.126	-0.05089994681940474	
9.66	0.082	-0.06269457899376338	
9.665	-0.075	-0.06349982132230372	
9.67	-0.113	-0.05835888145863034	
9.675	0.029	-0.054676359086326634	
9.68	-0.032	-0.05008301722577993	
9.685	-0.110	-0.04725411141961515	
9.69	-0.022	-0.044532008607502185	
9.695	-0.009	-0.04467112564811952	
9.7	-0.095	-0.04627723830429778	
9.705	-0.048	-0.04591471709289967	
9.71	0.020	-0.043787499156702235	
9.715	-0.089	-0.044449320010753406	
9.72	-0.115	-0.046311772810525266	
9.725	-0.034	-0.052756064046025786	
9.73	-0.074	-0.06108219633846546	
9.735	-0.109	-0.06817964719923147	
9.74	-0.019	-0.06956569454449323	
9.745	-0.026	-0.0667067020068534	
9.75	-0.119	-0.06522601833796517	
9.755	-0.090	-0.06492202585280422	
9.76	-0.020	-0.06683286386066813	
9.765	-0.068	-0.0684114561226343	
9.77	-0.060	-0.06528463593655269	
9.775	0.013	-0.056791842031217885	
9.78	-0.046	-0.049077477331847655	
9.785	-0.075	-0.04416364042236131	
9.79	-0.002	-0.03859149269566404	
9.795	0.012	-0.033701823091440326	
9.8	-0.064	-0.0302098457239097	
9.805	-0.043	-0.02694171994151532	
9.81	0.041	-0.023823373374499374	
9.815	-0.054	-0.023399114596861684	
9.82	-0.072	-0.023323255705108938	
9.825	-0.011	-0.025786317449586465	
9.83	-0.058	-0.03204064117471621	
9.835	-0.132	-0.04320277578613263	
9.84	0.046	-0.04860116586439914	
9.845	0.033	-0.04462977296876906	
9.85	-0.124	-0.038235654908640435	
9.855	-0.126	-0.04002072981450595	
9.86	-0.038	-0.05176524947553653	
9.865	-0.083	-0.06534929812770963	
9.87	-0.097	-0.07240101534384424	
9.875	0.007	-0.07177717474887121	
9.88	-0.072	-0.06795254505149556	
9.885	-0.156	-0.06926347261477632	
9.89	-0.043	-0.07166984242139751	
9.895	-0.005	-0.07354084007507851	
9.9	-0.087	-0.0702165534066759	
9.905	-0.068	-0.06310201737342275	
9.91	0.023	-0.05671602517428759	
9.915	-0.110	-0.0533001245043378	
9.92	-0.115	-0.05450180079248477	
9.925	0.038	-0.05578008020104258	
9.93	0.091	-0.04683828411523974	
9.935	0.000	-0.02529865997192532	
9.94	0.075	0.0022548435641562073	
9.945	0.096	0.025524536097813407	
9.95	-0.087	0.036791783287730695	
9.955	-0.081	0.0318017067140079	
9.96	-0.011	0.012307437296224641	
9.965	-0.115	-0.013225520363192024	
9.97	-0.161	-0.04055611763889266	
9.975	-0.031	-0.06481772467054217	
9.98	-0.049	-0.08077094012984425	
9.985	-0.122	-0.08630251729974667	
9.99	-0.051	-0.08480513558112052	
9.995	-0.019	-0.08143179562251905	
10.0	-0.130	-0.07815697561215626	
10.005	-0.122	-0.07724433218210522	
10.01	-0.020	-0.07870052045163986	
10.015	-0.054	-0.08016938236744717	
10.02	-0.092	-0.07456824134015974	
10.025	-0.020	-0.06585707510757167	
10.03	-0.020	-0.060757788455414886	
10.035	-0.098	-0.055299637270790764	
10.04	-0.045	-0.04981782609972085	
10.045	-0.014	-0.049430534558792455	
10.05	-0.132	-0.05216869373705014	
10.055	-0.101	-0.05823386112737483	
10.06	0.009	-0.06367636020065057	
10.065	-0.069	-0.06620311631289261	
10.07	-0.115	-0.06558045089972722	
10.075	-0.032	-0.0648097420795019	
10.08	-0.042	-0.06577754775964587	
10.085	-0.101	-0.06533732210728363	
10.09	0.001	-0.06076249387077011	
10.095	0.027	-0.05141317121590441	
10.1	-0.119	-0.04423111537515477	
10.105	-0.090	-0.04221895288069555	
10.11	-0.002	-0.04663255098009177	
10.115	-0.104	-0.05325378653477799	
10.12	-0.097	-0.059598094914077894	
10.125	0.068	-0.05874006437136875	
10.13	-0.002	-0.04878102197237754	
10.135	-0.115	-0.03940010245211137	
10.14	-0.048	-0.03574805914747273	
10.145	-0.032	-0.039380209586649395	
10.15	-0.116	-0.04826177001832042	
10.155	-0.089	-0.05722761168596394	
10.16	0.056	-0.05958413249968443	
10.165	0.000	-0.05324654405723106	
10.17	-0.087	-0.04064069673612432	
10.175	-0.020	-0.0327450107164933	
10.18	0.006	-0.03176423273533044	
10.185	-0.109	-0.03240809021877515	
10.19	-0.055	-0.03474335841273608	
10.195	0.042	-0.03836993975108557	
10.2	-0.063	-0.03826788552659595	
10.205	-0.054	-0.03421469989893547	
10.21	0.006	-0.0315940249190272	
10.215	-0.086	-0.0352945106525861	
10.22	-0.080	-0.040613076986740826	
10.225	0.084	-0.039685165492485686	
10.23	0.024	-0.029805288979341392	
10.235	-0.095	-0.019441820925914843	
10.24	0.046	-0.01168653381540466	
10.245	0.015	-0.00636979206875902	
10.25	-0.087	-0.007333729389778435	
10.255	-0.063	-0.013199819755015454	
10.26	0.064	-0.018538023467838984	
10.265	-0.064	-0.022315023115121218	
10.27	-0.124	-0.027656105903712872	
10.275	-0.008	-0.035668136161411804	
10.28	-0.014	-0.04478198139306005	
10.285	-0.100	-0.048461270594279855	
10.29	-0.029	-0.04768920897939291	
10.295	0.000	-0.04734517666706173	
10.3	-0.115	-0.04834122736298516	
10.305	-0.063	-0.05021070526474508	
10.31	0.075	-0.047517637791726575	
10.315	-0.071	-0.04231675664727758	
10.32	-0.109	-0.03767472070860744	
10.325	0.015	-0.037654316422030334	
10.33	-0.049	-0.039776855086881516	
10.335	-0.116	-0.04448768893276178	
10.34	-0.005	-0.047687010679310096	
10.345	0.017	-0.04631391431956017	
10.35	-0.084	-0.04334770704643747	
10.355	-0.060	-0.04024172785146206	
10.36	0.042	-0.03750467028998697	
10.365	-0.090	-0.036294868796509776	
10.37	-0.122	-0.039704689002384164	
10.375	0.003	-0.04566437572546954	
10.38	-0.025	-0.0507299788931818	
10.385	-0.136	-0.05349364063769413	
10.39	-0.058	-0.05673821823967074	
10.395	-0.014	-0.06128923625105143	
10.4	-0.106	-0.06531038548237053	
10.405	-0.092	-0.06628242730035311	
10.41	0.000	-0.06551577990348348	
10.415	-0.022	-0.06324497177033159	
10.42	-0.100	-0.0557090852305732	
10.425	0.003	-0.04869884556326783	
10.43	0.013	-0.04271560343583117	
10.435	-0.098	-0.03747857249262518	
10.44	-0.055	-0.033753017895719516	
10.445	-0.025	-0.03730107309226068	
10.45	-0.107	-0.046312225754553335	
10.455	-0.080	-0.05326744394375756	
10.46	0.052	-0.05550542489417593	
10.465	-0.055	-0.05227052760220398	
10.47	-0.097	-0.046710965186455844	
10.475	0.041	-0.04166530836169674	
10.48	-0.063	-0.037734313338267475	
10.485	-0.127	-0.04051350231127259	
10.49	-0.013	-0.04571761909161616	
10.495	0.084	-0.04326498624307007	
10.5	-0.081	-0.035339876067097306	
10.505	-0.074	-0.028294603288284433	
10.51	0.036	-0.026490830658122546	
10.515	-0.061	-0.028257284779921843	
10.52	-0.095	-0.030731568479352073	
10.525	-0.011	-0.034678132776020006	
10.53	-0.029	-0.040706191189604814	
10.535	-0.115	-0.04650149091820782	
10.54	-0.051	-0.04974532312415018	
10.545	0.009	-0.05327244464361884	
10.55	-0.142	-0.05732432748226465	
10.555	-0.135	-0.06429552580596001	
10.56	0.010	-0.07249579207534149	
10.565	-0.052	-0.0752458955752454	
10.57	-0.095	-0.07071857037481699	
10.575	-0.016	-0.06268467441055489	
10.58	-0.045	-0.058722427587960896	
10.585	-0.133	-0.0594972174714958	
10.59	-0.003	-0.057728632976804806	
10.595	0.093	-0.05027567355879457	
10.6	-0.064	-0.03532943940618315	
10.605	-0.002	-0.020281705054915528	
10.61	0.136	-0.003496582849885851	
10.615	0.012	0.013735610605409433	
10.62	-0.045	0.02527443878246156	
10.625	0.070	0.03031473267063104	
10.63	-0.064	0.0252801063745151	
10.635	-0.141	0.0074985480858220195	
10.64	-0.035	-0.015751373673842668	
10.645	0.007	-0.03526567765860848	
10.65	-0.121	-0.04829768750797948	
10.655	-0.103	-0.058313461863558506	
10.66	0.009	-0.06451576698406272	
10.665	-0.086	-0.06920624536265829	
10.67	-0.116	-0.0697303424897783	
10.675	-0.019	-0.06873393833999299	
10.68	-0.038	-0.06866642029629638	
10.685	-0.130	-0.06746415514324337	
10.69	-0.043	-0.06581761324481974	
10.695	-0.003	-0.06426846341023454	
10.7	-0.107	-0.062243702313032626	
10.705	-0.107	-0.061348720515617	
10.71	-0.013	-0.06355204053324912	
10.715	-0.097	-0.06816298530627839	
10.72	-0.133	-0.07172546280285443	
10.725	-0.019	-0.07477394221439942	
10.73	-0.011	-0.07364581997527163	
10.735	-0.083	-0.06743062856806506	
10.74	-0.034	-0.05684683116759676	
10.745	-0.026	-0.050289892769691535	
10.75	-0.107	-0.051221410766139265	
10.755	-0.055	-0.0513403348764115	
10.76	0.076	-0.04755691226001119	
10.765	-0.051	-0.03916038245842915	
10.77	-0.127	-0.03373291893145321	
10.775	-0.029	-0.03678317175809255	
10.78	-0.074	-0.04664757991560233	
10.785	-0.138	-0.05943835890012817	
10.79	-0.055	-0.06884187143634916	
10.795	-0.003	-0.073267164005976	
10.8	-0.106	-0.07322137462141862	
10.805	-0.061	-0.06935743437870831	
10.81	0.038	-0.06155112871420164	
10.815	-0.080	-0.054151484532235464	
10.82	-0.119	-0.05074748306406895	
10.825	-0.005	-0.05077841840032332	
10.83	0.017	-0.049618693726584465	
10.835	-0.069	-0.0434476512810294	
10.84	0.029	-0.032865907606732775	
10.845	0.041	-0.020248823747625946	
10.85	-0.095	-0.014219915578285072	
10.855	-0.084	-0.01539956198187705	
10.86	0.024	-0.02254365163411853	
10.865	-0.031	-0.03011099853486249	
10.87	-0.066	-0.03176475350584765	
10.875	0.050	-0.027792116212836684	
10.88	0.024	-0.021589434128659706	
10.885	-0.100	-0.016465341345875247	
10.89	-0.029	-0.015899395109795326	
10.895	0.018	-0.020218327207508918	
10.9	-0.089	-0.026202903896467504	
10.905	-0.058	-0.0314233859288845	
10.91	0.053	-0.03252836882244875	
10.915	-0.002	-0.030092966921440242	
10.92	-0.013	-0.020792284589798312	
10.925	0.085	-0.0057902348849633726	
10.93	0.030	0.008434365174279163	
10.935	-0.083	0.014503903301962105	
10.94	0.024	0.014088286141548383	
10.945	0.024	0.009829092259212628	
10.95	-0.107	0.0007791089045588468	
10.955	-0.069	-0.0124781761749082	
10.96	0.056	-0.02347883626447661	
10.965	-0.040	-0.029055591396654378	
10.97	-0.118	-0.03187292694677418	
10.975	0.020	-0.03579899356132643	
10.98	0.009	-0.037472966828076146	
10.985	-0.104	-0.03651756475009031	
10.99	-0.051	-0.03598415954604961	
10.995	0.050	-0.03711122609287157	
11.0	-0.048	-0.03517016883628442	
11.005	-0.068	-0.029546544888409677	
11.01	0.007	-0.02749888602414888	
11.015	-0.087	-0.032005893082294824	
11.02	-0.119	-0.04088928151007508	
11.025	-0.008	-0.048827903208539546	
11.03	-0.019	-0.03711122609287157	
11.035	-0.086	-0.055511686665742244	
11.04	-0.043	-0.052002928794292705	
11.045	0.042	-0.047095891822669295	
11.05	-0.087	-0.04217410621046607	
11.055	-0.083	-0.038568829127358734	
11.06	0.047	-0.03747398493994264	
11.065	-0.051	-0.03599003435979421	
11.07	-0.097	-0.03491803217141062	
11.075	0.039	-0.033824859352258624	
11.08	0.033	-0.02841830463956556	
11.085	-0.107	-0.02353124586488059	
11.09	-0.055	-0.02302847229432407	
11.095	0.020	-0.028080347141870292	
11.1	-0.090	-0.034156183698077686	
11.105	-0.069	-0.038582866316247445	
11.11	0.001	-0.04248516640701783	
11.115	-0.045	-0.04597152547404508	
11.12	-0.107	-0.046908873638000864	
11.125	0.027	-0.04584457823199278	
11.13	0.033	-0.040420560942986614	
11.135	-0.078	-0.0325062967551053	
11.14	-0.025	-0.024027843474584604	
11.145	0.024	-0.021105298977847374	
11.15	-0.075	-0.022153447399747367	
11.155	-0.037	-0.023560345229647707	
11.16	0.114	-0.01849030589468144	
11.165	-0.029	-0.009984490594221823	
11.17	-0.098	-0.0049052375692706564	
11.175	-0.023	-0.008854072244306756	
11.18	-0.029	-0.02043585320151382	
11.185	-0.101	-0.03349480888121496	
11.19	-0.048	-0.041012283440827774	
11.195	-0.006	-0.04811168673277718	
11.2	-0.121	-0.055160836026715225	
11.205	-0.104	-0.06155187161831845	
11.21	0.026	-0.06448784951247696	
11.215	-0.078	-0.06499815230315109	
11.22	-0.133	-0.06489828000773525	
11.225	-0.020	-0.0658267639272649	
11.23	-0.031	-0.0664441167865485	
11.235	-0.115	-0.06551800518744441	
11.24	-0.045	-0.06299472351046688	
11.245	-0.006	-0.06010008695870188	
11.25	-0.100	-0.059186058914413406	
11.255	-0.075	-0.05755082887548211	
11.26	0.072	-0.05246283974931393	
11.265	0.023	-0.04000703374281289	
11.27	0.024	-0.019906233155138137	
11.275	0.172	0.00920095212176077	
11.28	0.097	0.04055521716662807	
11.285	-0.074	-0.05246283974931393	
11.29	-0.020	-0.05246283974931393	
11.295	0.052	0.04493178825315519	
11.3	-0.104	0.02381180344269592	
11.305	-0.126	-0.0005885515422397415	
11.31	-0.038	-0.028456710496361087	
11.315	-0.089	-0.054977556287614006	
11.32	-0.126	-0.07292631457643352	
11.325	-0.017	-0.0808173700849101	
11.33	-0.014	-0.0804078968295121	
11.335	-0.107	-0.0755414878124249	
11.34	-0.045	-0.06701987125794945	
11.345	0.004	-0.0590612122751351	
11.35	-0.092	-0.055183290465116594	
11.355	-0.054	-0.05059736608096302	
11.36	0.047	-0.0434377833450966	
11.365	-0.052	-0.03697917006432301	
11.37	-0.118	-0.034974358093285064	
11.375	-0.025	-0.037811188428979486	
11.38	-0.017	-0.043371213298255815	
11.385	-0.156	-0.050583078933836935	
11.39	-0.060	-0.0580422456381639	
11.395	0.079	-0.06099474697014667	
11.4	-0.074	-0.05417758690475991	
11.405	-0.072	-0.0436581652285683	
11.41	0.052	-0.03642218982736535	
11.415	-0.035	-0.0309367870129527	
11.42	-0.112	-0.028000417901903975	
11.425	-0.017	-0.029835612274554207	
11.43	-0.013	-0.035345852505825136	
11.435	-0.127	-0.04156730311308255	
11.44	-0.055	-0.0480650155362575	
11.445	0.009	-0.05301315179408014	
11.45	-0.092	-0.056159199308051265	
11.455	-0.042	-0.05364140544914259	
11.46	0.044	-0.046437308470698935	
11.465	-0.075	-0.03994363751547915	
11.47	-0.145	-0.04099004562672864	
11.475	-0.005	-0.04683904935900725	
11.48	0.010	-0.05034176788723484	
11.485	-0.086	-0.04855234351446999	
11.49	-0.040	-0.04307764271550148	
11.495	0.023	-0.040024957279641865	
11.5	-0.084	-0.0391449629591471	
11.505	-0.061	-0.037646990622130214	
11.51	0.076	-0.03345295355959435	
11.515	-0.051	-0.02792368122892236	
11.52	-0.072	-0.023976820673784954	
11.525	-0.003	-0.022862274037566063	
11.53	-0.051	-0.02735166035501335	
11.535	-0.084	-0.035543739538551264	
11.54	0.009	-0.03807289732132352	
11.545	0.070	-0.03200996430971116	
11.55	-0.060	-0.02414791025649616	
11.555	-0.083	-0.018677779674210835	
11.56	0.061	-0.017440018769431014	
11.565	-0.048	-0.018898320088172806	
11.57	-0.121	-0.023013841124362177	
11.575	0.006	-0.02886714621142285	
11.58	0.015	-0.03429468400616399	
11.585	-0.084	-0.035561405135628915	
11.59	0.024	-0.031122204755016	
11.595	0.067	-0.021968471082931866	
11.6	-0.087	-0.014127580515081947	
11.605	-0.121	-0.015740081443742303	
11.61	0.018	-0.0254342382729632	
11.615	-0.037	-0.035836300288738784	
11.62	-0.121	-0.04204069586821429	
11.625	0.015	-0.04490600689151973	
11.63	0.003	-0.045246252483202895	
11.635	-0.124	-0.044551456985739216	
11.64	-0.060	-0.0451860233249857	
11.645	0.038	-0.04695704890454494	
11.65	-0.095	-0.047065980591178946	
11.655	-0.071	-0.04576366675431458	
11.66	0.038	-0.04346875421270364	
11.665	-0.051	-0.04079529403353926	
11.67	-0.122	-0.04003654230220833	
11.675	-0.026	-0.04296050222237027	
11.68	-0.035	-0.04923066154191869	
11.685	-0.112	-0.055506622554796436	
11.69	-0.048	-0.05721740536125913	
11.695	-0.019	-0.05897814068360179	
11.7	-0.097	-0.061030129668260824	
11.705	-0.095	-0.06276765357046038	
11.71	0.039	-0.06049288225383252	
11.715	-0.066	-0.05677326160769624	
11.72	-0.133	-0.054031212661792824	
11.725	-0.037	-0.05598385509403439	
11.73	-0.008	-0.05921662924999812	
11.735	-0.084	-0.05848996428884144	
11.74	-0.054	-0.054239039784212184	
11.745	-0.025	-0.05198513335783606	
11.75	-0.121	-0.05601536937200833	
11.755	-0.052	-0.05977296015582947	
11.76	0.072	-0.05449224113216024	
11.765	-0.016	-0.042757833060991166	
11.77	-0.064	-0.031044209281727707	
11.775	0.047	-0.018988215246150828	
11.78	-0.020	-0.01219303127148446	
11.785	-0.136	-0.014523922552293175	
11.79	-0.087	-0.02727844178991097	
11.795	-0.011	-0.042921705141472276	
11.8	-0.118	-0.05698931399303741	
11.805	-0.136	-0.06885704089788038	
11.81	-0.008	-0.07748353034281372	
11.815	-0.083	-0.0826764870289926	
11.82	-0.145	-0.08509656484916972	
11.825	-0.046	-0.08503930619717844	
11.83	-0.026	-0.084101388759134	
11.835	-0.145	-0.08250823361664636	
11.84	-0.106	-0.0813653808904087	
11.845	-0.023	-0.08388520314026007	
11.85	-0.092	-0.08493016053561947	
11.855	-0.080	-0.07992248982849554	
11.86	0.013	-0.07149402458054605	
11.865	-0.069	-0.0636170139432332	
11.87	-0.121	-0.06013811087377941	
11.875	0.006	-0.05607116060777721	
11.88	0.091	-0.048033834328621905	
11.885	-0.022	-0.029510032314673976	
11.89	0.038	-0.007416709376644161	
11.895	0.110	0.013150639032908477	
11.9	-0.077	0.024079682687217975	
11.905	-0.100	0.02100556460222076	
11.91	0.006	0.0065132387004556615	
11.915	-0.092	-0.014557699101972826	
11.92	-0.176	-0.039175361826518325	
11.925	-0.071	-0.06310760882506711	
11.93	-0.052	-0.08297950979416263	
11.935	-0.132	-0.09450547299316313	
11.94	-0.078	-0.09646765996693077	
11.945	-0.002	-0.09281116122550989	
11.95	-0.121	-0.08787531773328888	
11.955	-0.124	-0.08304027833804264	
11.96	0.020	-0.07948529552111276	
11.965	-0.026	-0.07149950865425635	
11.97	-0.126	-0.06220255893500893	
11.975	-0.064	-0.05815395971790674	
11.98	-0.017	-0.059947530101200734	
11.985	-0.092	-0.061492585785525564	
11.99	-0.045	-0.05750502924972922	
11.995	0.004	-0.053810643468525085	
12.0	-0.119	-0.052854480741351705	
12.005	-0.116	-0.057052728975165556	
12.01	-0.034	-0.06249672528872254	
12.015	-0.089	-0.07149480657019018	
12.02	-0.144	-0.07920235127361222	
12.025	-0.003	-0.08113587889571325	
12.03	0.033	-0.0749291958209442	
12.035	-0.109	-0.06351987804904384	
12.04	-0.038	-0.05151880759893235	
12.045	0.030	-0.0437781311043253	
12.05	-0.112	-0.0398602347645044	
12.055	-0.132	-0.04308676238464721	
12.06	-0.048	-0.05347820860365549	
12.065	-0.055	-0.0664747478167679	
12.07	-0.118	-0.07322250429047217	
12.075	-0.002	-0.07213483540685611	
12.08	-0.016	-0.06692078806226953	
12.085	-0.145	-0.06354074621299582	
12.09	-0.074	-0.06351593803224867	
12.095	0.007	-0.06375420470911547	
12.1	-0.110	-0.06487235397732684	
12.105	-0.093	-0.065093750677132	
12.11	0.015	-0.06344543503852629	
12.115	-0.028	-0.05947690730352583	
12.12	-0.083	-0.05226145672960751	
12.125	0.001	-0.04312196898263304	
12.13	0.017	-0.03689560599097446	
12.135	-0.103	-0.032572023641308165	
12.14	-0.046	-0.031521217874217355	
12.145	0.029	-0.031718047284460454	
12.15	-0.083	-0.033893940502459904	
12.155	-0.072	-0.03611946849811773	
12.16	0.075	-0.03440254871869474	
12.165	-0.035	-0.029474094019840354	
12.17	-0.127	-0.028316835948243777	
12.175	-0.019	-0.031106290300970275	
12.18	-0.016	-0.03784899264749915	
12.185	-0.107	-0.04460733652120334	
12.19	-0.043	-0.04754289292094173	
12.195	0.046	-0.04665955449911707	
12.2	-0.090	-0.0448977392591261	
12.205	-0.086	-0.04318134390028691	
12.21	0.081	-0.039366634842375584	
12.215	-0.017	-0.03242862371951072	
12.22	-0.122	-0.026377451947543963	
12.225	-0.017	-0.027119391136083297	
12.23	0.024	-0.03078228627478273	
12.235	-0.119	-0.034630068469658125	
12.24	-0.049	-0.03759909983355478	
12.245	0.039	-0.039614096616849	
12.25	-0.080	-0.040867335038771026	
12.255	-0.107	-0.04123713976530513	
12.26	0.015	-0.044373156136462505	
12.265	-0.048	-0.047382349185475	
12.27	-0.127	-0.050390399635435706	
12.275	-0.020	-0.05214301121616488	
12.28	0.013	-0.0537531263366524	
12.285	-0.127	-0.05262323173767156	
12.29	-0.084	-0.05362903905971776	
12.295	0.026	-0.05561076974382286	
12.3	-0.100	-0.057845535080966584	
12.305	-0.064	-0.0562428333593156	
12.31	0.107	-0.04737748098712752	
12.315	-0.022	-0.033366030797934126	
12.32	-0.135	-0.023399207776460033	
12.325	-0.051	-0.026176814809752612	
12.33	-0.025	-0.03674569182891891	
12.335	-0.103	-0.04758980845168832	
12.34	-0.023	-0.05164244425126566	
12.345	0.073	-0.046624621939128245	
12.35	-0.049	-0.037812572565295216	
12.355	-0.066	-0.027251581875623144	
12.36	0.041	-0.020425644998438176	
12.365	-0.005	-0.017345116734059314	
12.37	-0.092	-0.016358980756061514	
12.375	-0.016	-0.01720222160328098	
12.38	-0.020	-0.02376225941535909	
12.385	-0.129	-0.033567504877038974	
12.39	-0.071	-0.04465115953080959	
12.395	0.017	-0.052645870548084076	
12.4	-0.109	-0.0587982619272447	
12.405	-0.136	-0.06323998888412007	
12.41	-0.020	-0.06943913236701935	
12.415	-0.025	-0.07334266521479685	
12.42	-0.119	-0.07133673474199606	
12.425	-0.028	-0.06520282121113763	
12.43	-0.051	-0.0637833886989469	
12.435	-0.165	-0.06756397575346368	
12.44	-0.083	-0.07463155237147065	
12.445	0.003	-0.07865774069082579	
12.45	-0.129	-0.0798145894955154	
12.455	-0.135	-0.0822202387018042	
12.46	-0.003	-0.08243051556364843	
12.465	-0.060	-0.08136443009393673	
12.47	-0.112	-0.07733946525649213	
12.475	0.044	-0.06718285988535147	
12.48	0.124	-0.04776842936468546	
12.485	0.029	-0.01755950016041187	
12.49	0.072	0.016357640246736464	
12.495	0.131	0.04432724103303754	
12.5	-0.045	0.05918259332262647	
12.505	-0.060	0.05677163188989231	
12.51	0.012	0.04155337389877331	
12.515	-0.122	0.01463507984388467	
12.52	-0.182	-0.02133993383390427	
12.525	-0.069	-0.05519357991847453	
12.53	-0.066	-0.08276006801398385	
12.535	-0.141	-0.09955308041934632	
12.54	-0.077	-0.10465158020923598	
12.545	0.010	-0.10064564920396282	
12.55	-0.063	-0.0897879129716937	
12.555	-0.097	-0.07625041972111841	
12.56	0.041	-0.061440889411991106	
12.565	-0.035	-0.049326648985261554	
12.57	-0.132	-0.04236759617233271	
12.575	-0.060	-0.043228806233674276	
12.58	0.026	-0.048730253327075146	
12.585	-0.112	-0.05054850905996931	
12.59	-0.049	-0.04969074747130117	
12.595	0.055	-0.04664139443634244	
12.6	-0.100	-0.042763852388540774	
12.605	-0.132	-0.04327215613191989	
12.61	-0.034	-0.05146617701884264	
12.615	-0.084	-0.062302230679358764	
12.62	-0.119	-0.07233759703217471	
12.625	-0.019	-0.0752444768728199	
12.63	-0.008	-0.07174091244018468	
12.635	-0.112	-0.0675258498302384	
12.64	-0.072	-0.06270099194475232	
12.645	0.029	-0.05866381753900925	
12.65	-0.092	-0.054737936345754606	
12.655	-0.103	-0.053263663192066116	
12.66	-0.019	-0.05349164301642443	
12.665	-0.048	-0.05628679088667695	
12.67	-0.113	-0.059327412413253164	
12.675	-0.029	-0.05827584919514048	
12.68	0.021	-0.056732888444356845	
12.685	-0.098	-0.052501806874815996	
12.69	-0.068	-0.0477232328297384	
12.695	0.006	-0.04667321704489331	
12.7	-0.107	-0.049720891021148114	
12.705	-0.116	-0.054268733576513725	
12.71	0.024	-0.05849217390513354	
12.715	-0.043	-0.058273862039644714	
12.72	-0.113	-0.05633511951825525	
12.725	-0.017	-0.054284517999566455	
12.73	0.012	-0.0507241799472027	
12.735	-0.097	-0.047500231316608785	
12.74	-0.028	-0.042731484737733874	
12.745	0.081	-0.03466294140576734	
12.75	-0.069	-0.026705788230088498	
12.755	-0.092	-0.02229045477516141	
12.76	0.053	-0.02150975462720727	
12.765	-0.005	-0.021244067305588997	
12.77	-0.083	-0.01933209898364703	
12.775	-0.029	-0.020323789432972375	
12.78	0.007	-0.02471295614785732	
12.785	-0.098	-0.030467777291657984	
12.79	-0.043	-0.034759773596733184	
12.795	0.050	-0.0356809891059604	
12.8	-0.081	-0.03566634259693009	
12.805	-0.106	-0.03628870284161531	
12.81	-0.008	-0.04054851210844885	
12.815	-0.045	-0.0472300630977565	
12.82	-0.112	-0.05230250697956115	
12.825	-0.009	-0.05334267629381803	
12.83	0.013	-0.051719001017558386	
12.835	-0.116	-0.04844409755056349	
12.84	-0.077	-0.0477729622307794	
12.845	0.020	-0.04970568619431183	
12.85	-0.107	-0.052645361520774744	
12.855	-0.106	-0.056272975346630914	
12.86	0.001	-0.058571326826486796	
12.865	-0.043	-0.06022777612704969	
12.87	-0.052	-0.05627650565961523	
12.875	0.001	-0.04635495230785709	
12.88	-0.019	-0.03874290809395622	
12.885	-0.118	-0.03743549886500293	
12.89	-0.052	-0.04076010171178984	
12.895	0.004	-0.04370915869061084	
12.9	-0.127	-0.049656508883976457	
12.905	-0.133	-0.059279361637903955	
12.91	-0.026	-0.06855428551552559	
12.915	-0.077	-0.07722129949182308	
12.92	-0.121	-0.08130811289679739	
12.925	-0.029	-0.08034896468369876	
12.93	0.027	-0.07369500408922629	
12.935	-0.100	-0.06345171291868082	
12.94	-0.060	-0.05379851987607386	
12.945	0.018	-0.04767435127492785	
12.95	-0.045	-0.04363870684082352	
12.955	-0.052	-0.03731674598402584	
12.96	0.085	-0.026538353949362943	
12.965	-0.032	-0.016195783348880288	
12.97	-0.107	-0.013359133860829259	
12.975	-0.029	-0.01736563140044051	
12.98	0.006	-0.02564560871943497	
12.985	-0.113	-0.034471035093282726	
12.99	-0.081	-0.04183665967384067	
12.995	0.004	-0.04962253673867825	
13.0	-0.095	-0.05662641730908852	
13.005	-0.133	-0.06238117576544252	
13.01	-0.019	-0.06751689767985242	
13.015	-0.043	-0.07214351126152801	
13.02	-0.127	-0.07239769598692233	
13.025	-0.061	-0.0713721501347402	
13.03	-0.040	-0.072601996833247	
13.035	-0.150	-0.07650411369024608	
13.04	-0.109	-0.08185811805610546	
13.045	0.003	-0.08456943585596385	
13.05	-0.086	-0.08363766495484581	
13.055	-0.095	-0.07842248181897968	
13.06	0.065	-0.0674693524753783	
13.065	-0.029	-0.053127136812384845	
13.07	-0.116	-0.04246609198293922	
13.075	0.015	-0.03636290306546023	
13.08	0.134	-0.02553088168358553	
13.085	-0.013	-0.007528124225786715	
13.09	0.058	0.015091466046998648	
13.095	0.149	0.03647079694730404	
13.1	-0.025	-0.04246609198293922	
13.105	-0.138	-0.04246609198293922	
13.11	-0.042	0.025509646358660924	
13.115	-0.074	-0.007063682673132362	
13.12	-0.148	-0.03946490293909466	
13.125	0.023	-0.0584017363827951	
13.13	0.067	-0.061492763112431396	
13.135	-0.106	-0.05250305902136412	
13.14	-0.080	-0.044968821319975344	
13.145	0.032	-0.04253362800553151	
13.15	-0.078	-0.0425500862305043	
13.155	-0.103	-0.04350508759175595	
13.16	-0.031	-0.046533461621515185	
13.165	-0.060	-0.05402353035792435	
13.17	-0.118	-0.061446442845233526	
13.175	0.006	-0.06246164879105313	
13.18	-0.013	-0.05849397211573982	
13.185	-0.141	-0.056464096300520815	
13.19	-0.086	-0.05899999616876192	
13.195	0.018	-0.0615414528423816	
13.2	-0.101	-0.06350312547420228	
13.205	-0.112	-0.06453205803991968	
13.21	0.006	-0.06356042282195601	
13.215	0.017	-0.05995928527365707	
13.22	-0.040	-0.04844948242607669	
13.225	0.052	-0.029527140515005344	
13.23	0.053	-0.010453272182306081	
13.235	-0.112	-0.04958360356463491	
13.24	-0.106	-0.005077145233897512	
13.245	0.007	-0.019533794994747708	
13.25	-0.057	-0.03443527563022598	
13.255	-0.112	-0.0435753697424871	
13.26	0.018	-0.048590195093509175	
13.265	-0.019	-0.049900815625497474	
13.27	-0.121	-0.04946701870569446	
13.275	-0.038	-0.04958360356463491	
13.28	-0.014	-0.051407861943431395	
13.285	-0.113	-0.05439664728039966	
13.29	-0.066	-0.05711746541684581	
13.295	0.087	-0.05352484528816248	
13.3	-0.020	-0.042389195295765	
13.305	-0.095	-0.029613998460349008	
13.31	0.039	-0.022633000642201966	
13.315	0.000	-0.01885228374338443	
13.32	-0.075	-0.01745088575494335	
13.325	-0.011	-0.015641624852694595	
13.33	0.035	-0.016394779035381425	
13.335	-0.078	-0.018343860155606285	
13.34	-0.071	-0.02116031907996747	
13.345	0.003	-0.027567817791254782	
13.35	-0.074	-0.036342806310039714	
13.355	-0.081	-0.042597283617127196	
13.36	0.044	-0.0436653908233106	
13.365	-0.009	-0.039835872234127136	
13.37	-0.064	-0.03342933425089593	
13.375	0.024	-0.024664320130263984	
13.38	0.070	-0.015394179282769035	
13.385	-0.075	-0.0073256128048979074	
13.39	-0.052	-0.00417878698383964	
13.395	0.056	-0.006576443911123826	
13.4	-0.008	-0.00831618332602864	
13.405	-0.057	-0.007601082328010539	
13.41	0.018	-0.006697057346979682	
13.415	-0.011	-0.009830724081518716	
13.42	-0.106	-0.016410730134152753	
13.425	0.003	-0.0216783933645992	
13.43	0.017	-0.02640377350347459	
13.435	-0.107	-0.030307337294238578	
13.44	-0.049	-0.03417079858663939	
13.445	0.023	-0.03658521147722263	
13.45	-0.081	-0.040320609914324304	
13.455	-0.124	-0.0446028428038579	
13.46	0.000	-0.05069134221053566	
13.465	0.015	-0.052818361216612535	
13.47	-0.066	-0.04740834513022491	
13.475	0.026	-0.03568155606153553	
13.48	0.036	-0.023405802927942258	
13.485	-0.116	-0.01731457014984457	
13.49	-0.071	-0.020178215956853363	
13.495	-0.006	-0.028584735376816463	
13.5	-0.097	-0.040317235032587245	
13.505	-0.122	-0.05160163020072186	
13.51	-0.016	-0.06069011338349726	
13.515	-0.040	-0.06681951837967241	
13.52	-0.092	-0.06741472095487004	
13.525	0.039	-0.05967660476007669	
13.53	0.058	-0.04338662572151958	
13.535	-0.071	-0.027317341211382108	
13.54	-0.057	-0.017197562759445152	
13.545	0.073	-0.012571001221710213	
13.55	-0.013	-0.009298866596058483	
13.555	-0.038	-0.0036244908838509757	
13.56	0.090	0.0033016359503732075	
13.565	-0.006	0.008203838318640157	
13.57	-0.098	0.007564236538008535	
13.575	-0.057	-0.001716733777632692	
13.58	-0.013	-0.01836771292033064	
13.585	-0.124	-0.03529074379333212	
13.59	-0.104	-0.05121380659820246	
13.595	0.010	-0.06257391777219747	
13.6	-0.072	-0.06827470491483678	
13.605	-0.124	-0.06962822196029611	
13.61	-0.006	-0.06771870051469683	
13.615	-0.057	-0.06778314305298905	
13.62	-0.136	-0.06841596756681881	
13.625	-0.071	-0.069725605628226	
13.63	-0.031	-0.07337404287609663	
13.635	-0.106	-0.07628046966984971	
13.64	-0.081	-0.0752103464855993	
13.645	0.020	-0.07058008069426908	
13.65	-0.083	-0.0652856729130099	
13.655	-0.116	-0.06163130605522352	
13.66	0.035	-0.057704318205217084	
13.665	0.046	-0.04877878798717336	
13.67	-0.014	-0.03142112087325231	
13.675	0.108	-0.006711709614916864	
13.68	0.111	0.019629959272051974	
13.685	-0.066	0.03769035965838098	
13.69	-0.045	0.03977054374186069	
13.695	0.113	0.03343402194004056	
13.7	-0.031	0.026730083687171717	
13.705	-0.129	0.015351554404321358	
13.71	-0.045	-0.003733879640225804	
13.715	-0.069	-0.029765556170373735	
13.72	-0.124	-0.052398077795922225	
13.725	-0.052	-0.06673884035082985	
13.73	0.010	-0.07237431560254731	
13.735	-0.127	-0.07325367142394257	
13.74	-0.083	-0.07122657290318407	
13.745	0.038	-0.06761038034641312	
13.75	-0.068	-0.06124531262421835	
13.755	-0.098	-0.054611706552772726	
13.76	0.039	-0.047765232755835635	
13.765	-0.017	-0.04077279276609226	
13.77	-0.129	-0.03736953789159985	
13.775	-0.054	-0.038774601692800406	
13.78	0.001	-0.045404329854039416	
13.785	-0.106	-0.050202771223342636	
13.79	-0.084	-0.05422396992151673	
13.795	-0.022	-0.05767007505344555	
13.8	-0.061	-0.0622185372005479	
13.805	-0.049	-0.06055947276044426	
13.81	0.020	-0.05180766976376641	
13.815	-0.084	-0.0448005709730839	
13.82	-0.145	-0.04933024755198794	
13.825	-0.045	-0.056772472449866405	
13.83	-0.026	-0.06342193892531238	
13.835	-0.148	-0.07019503700115357	
13.84	-0.115	-0.07723245514981637	
13.845	0.047	-0.07965837424074984	
13.85	-0.080	-0.07518989782132812	
13.855	-0.135	-0.06960523633824647	
13.86	-0.013	-0.0668372441496965	
13.865	-0.046	-0.06672761262878237	
13.87	-0.144	-0.06632196144522731	
13.875	-0.090	-0.0698527205431277	
13.88	-0.058	-0.07739817519335956	
13.885	-0.158	-0.08712900605180912	
13.89	-0.129	-0.09528677797838783	
13.895	-0.023	-0.10069788520470993	
13.9	-0.107	-0.10212178694181123	
13.905	-0.155	-0.10059997369065145	
13.91	-0.057	-0.0999001133174052	
13.915	-0.040	-0.09869824814851896	
13.92	-0.133	-0.09327102851629454	
13.925	-0.104	-0.08889944679055571	
13.93	-0.034	-0.08842547976508744	
13.935	-0.124	-0.08907214856544748	
13.94	-0.132	-0.08828311217032003	
13.945	-0.040	-0.09076253278947871	
13.95	-0.107	-0.09310940885460797	
13.955	-0.156	-0.09553921969839607	
13.96	-0.060	-0.09793739670574442	
13.965	-0.092	-0.10074973978634612	
13.97	-0.164	-0.1042118290669651	
13.975	-0.089	-0.10587235160632993	
13.98	-0.049	-0.10649334689637507	
13.985	-0.158	-0.1060597608768652	
13.99	-0.136	-0.1062222920779319	
13.995	-0.092	-0.10981244663249567	
14.0	-0.132	-0.1161451887853439	
14.005	-0.141	-0.11946644578467545	
14.01	-0.083	-0.11893419965197755	
14.015	-0.119	-0.11882229726775678	
14.02	-0.144	-0.12018098028903587	
14.025	-0.049	-0.11581212914180392	
14.03	-0.060	-0.10754501046847369	
14.035	-0.164	-0.10209922668533722	
14.04	-0.158	-0.10216542404598793	
14.045	-0.097	-0.10880173731552567	
14.05	-0.152	-0.11920551220293034	
14.055	-0.177	-0.12745419180281045	
14.06	-0.080	-0.13187849605355334	
14.065	-0.104	-0.13385455500786586	
14.07	-0.168	-0.13221795735426606	
14.075	-0.078	-0.12675970224332525	
14.08	-0.031	-0.11853743086813179	
14.085	-0.124	-0.10815471337228412	
14.09	-0.051	-0.09512594234903254	
14.095	0.039	-0.07774835014638308	
14.1	-0.101	-0.0632740630014702	
14.105	-0.135	-0.05648717014239014	
14.11	-0.037	-0.05781029294159319	
14.115	-0.097	-0.0658713250643414	
14.12	-0.122	-0.07528520684181597	
14.125	-0.048	-0.07970568001965174	
14.13	0.023	-0.07749025980997623	
14.135	-0.135	-0.07123113914761833	
14.14	-0.130	-0.07014353737247424	
14.145	-0.014	-0.07367932931845655	
14.15	-0.100	-0.07829381110095032	
14.155	-0.124	-0.07952331283875474	
14.16	-0.003	-0.07875264090771344	
14.165	-0.037	-0.07486046475819705	
14.17	-0.109	-0.06933912867070152	
14.175	-0.045	-0.06268820555640409	
14.18	-0.022	-0.05946912541646764	
14.185	-0.092	-0.059273777348559015	
14.19	-0.019	-0.05412275387584187	
14.195	0.033	-0.0456261605960496	
14.2	-0.048	-0.03735087858194245	
14.205	-0.061	-0.03055771431040982	
14.21	0.088	-0.0216693621999853	
14.215	0.033	-0.009868915138612145	
14.22	-0.048	0.0005692654053768429	
14.225	0.064	0.011369744115885238	
14.23	0.124	0.021602972756706466	
14.235	-0.049	0.03162843328285726	
14.24	-0.022	0.03384214323343941	
14.245	0.116	0.0314728242294728	
14.25	-0.042	0.027629652478622486	
14.255	-0.136	0.017356560148873323	
14.26	-0.029	-0.0026269436887229845	
14.265	-0.048	-0.027828306256983706	
14.27	-0.119	-0.04747742679117892	
14.275	0.013	-0.055619341476026984	
14.28	0.079	-0.05235124146094981	
14.285	-0.060	-0.039392612737283034	
14.29	-0.058	-0.026168343886117156	
14.295	0.070	-0.018506828120497178	
14.3	-0.032	-0.013385300892688717	
14.305	-0.042	-0.009637494950391167	
14.31	0.079	-0.0025915559743688622	
14.315	-0.060	-0.000857477235961136	
14.32	-0.109	-0.00751917024421175	
14.325	0.097	-0.01358636671239891	
14.33	0.055	-0.008327312358081523	
14.335	-0.110	-0.004441836757187696	
14.34	-0.090	-0.009194243543852877	
14.345	0.003	-0.02145054774054798	
14.35	-0.090	-0.03636900808327995	
14.355	-0.106	-0.0487087090567252	
14.36	0.053	-0.05357419542673611	
14.365	0.009	-0.048758766662543696	
14.37	-0.116	-0.041566425201030655	
14.375	-0.028	-0.03768109403906908	
14.38	0.006	-0.037248699968022075	
14.385	-0.129	-0.04038888705575125	
14.39	-0.155	-0.05029969610914979	
14.395	0.049	-0.06144105640757108	
14.4	0.010	-0.06324753364514063	
14.405	-0.064	-0.05076261097427501	
14.41	0.015	-0.03567302211381028	
14.415	-0.045	-0.029684459765032183	
14.42	-0.116	-0.03152971167980101	
14.425	0.017	-0.03376324763993581	
14.43	0.088	-0.02922184251558526	
14.435	-0.087	-0.02131614911276928	
14.44	-0.097	-0.018363146365761453	
14.445	0.041	-0.02248225837086259	
14.45	-0.058	-0.028182759347011622	
14.455	-0.060	-0.031778210440817196	
14.46	0.047	-0.02872450897795839	
14.465	0.039	-0.022614564542571255	
14.47	-0.071	-0.014501236282952643	
14.475	0.006	-0.00785532096089139	
14.48	0.026	-0.005213831454459024	
14.485	-0.089	-0.009244097639895813	
14.49	-0.107	-0.0174156233063654	
14.495	0.001	-0.030513035666883702	
14.5	-0.052	-0.04310969280958127	
14.505	-0.078	-0.048791418963945225	
14.51	0.050	-0.04577812714391899	
14.515	0.029	-0.036564468010600815	
14.52	-0.089	-0.02648507495653794	
14.525	-0.013	-0.019916301305869168	
14.53	0.056	-0.01618926694263985	
14.535	-0.086	-0.015195112222518254	
14.54	-0.026	-0.014462710049132	
14.545	0.111	-0.0115222994497515	
14.55	-0.057	-0.005050281184451583	
14.555	-0.130	-0.006835524861129645	
14.56	-0.063	-0.019853244040295395	
14.565	-0.087	-0.04149972349849633	
14.57	-0.142	-0.06444217773521153	
14.575	-0.092	-0.07999473871864057	
14.58	-0.043	-0.09117288167349641	
14.585	-0.126	-0.09811439655603627	
14.59	-0.100	-0.09751885725571247	
14.595	-0.009	-0.09356355054561033	
14.6	-0.075	-0.08697261432616224	
14.605	-0.135	-0.08083750906432953	
14.61	-0.025	-0.07590422383564294	
14.615	-0.034	-0.07245215660828032	
14.62	-0.110	-0.0694298759482529	
14.625	-0.011	-0.06205247585890803	
14.63	0.113	-0.049142628405410144	
14.635	-0.072	-0.03107683836739724	
14.64	-0.061	-0.017587282419722884	
14.645	0.068	-0.011581820673899085	
14.65	-0.081	-0.01090497032217681	
14.655	-0.168	-0.0198660918768758	
14.66	-0.066	-0.03897384727710956	
14.665	-0.095	-0.06239288783060079	
14.67	-0.181	-0.08538318532301516	
14.675	-0.113	-0.10213596288056041	
14.68	-0.057	-0.11415050337216143	
14.685	-0.103	-0.11798194269936213	
14.69	-0.110	-0.11160952510049692	
14.695	-0.037	-0.1026450095083983	
14.7	-0.110	-0.09784765912239238	
14.705	-0.161	-0.09583480693933183	
14.71	-0.077	-0.09602615433469383	
14.715	-0.063	-0.0993868196767991	
14.72	-0.129	-0.10035002986342698	
14.725	-0.060	-0.09515308922899723	
14.73	-0.022	-0.08816462151386771	
14.735	-0.078	-0.08098453717611419	
14.74	-0.083	-0.07161128192516991	
14.745	0.020	-0.06162775327913387	
14.75	-0.098	-0.05686034113736051	
14.755	-0.121	-0.05686145745555117	
14.76	0.044	-0.05598448815987524	
14.765	0.058	-0.04736151284477469	
14.77	-0.054	-0.03140545563358889	
14.775	0.015	-0.01515497494761101	
14.78	0.064	-0.0031158556191184317	
14.785	-0.069	0.0029791699983302655	
14.79	-0.095	0.0003463428086501573	
14.795	-0.017	-0.05452244815419006	
14.8	-0.095	-0.029847942614177447	
14.805	-0.133	-0.048898636844809384	
14.81	-0.034	-0.06296804890041417	
14.815	-0.045	-0.07234259302892394	
14.82	-0.110	-0.07743943367438591	
14.825	-0.017	-0.07414223190526359	
14.83	0.030	-0.0640666632080024	
14.835	-0.110	-0.05505438257208587	
14.84	-0.121	-0.05168759340449518	
14.845	-0.005	-0.05452244815419006	
14.85	-0.060	-0.05883786603898332	
14.855	-0.109	-0.060968381560104035	
14.86	-0.011	-0.05994003408415378	
14.865	-0.032	-0.05829052164424354	
14.87	-0.124	-0.058510312299014995	
14.875	-0.003	-0.056165458974204774	
14.88	0.108	-0.04697902384589316	
14.885	-0.057	-0.03006879938167103	
14.89	-0.119	-0.018761477461464966	
14.895	-0.040	-0.02348282616906469	
14.9	-0.087	-0.038809051145989114	
14.905	-0.089	-0.05302141999939301	
14.91	0.046	-0.05592127666353556	
14.915	0.062	-0.047236735604706905	
14.92	-0.092	-0.032547246696549605	
14.925	0.010	-0.020196530957127236	
14.93	0.070	-0.010949611700997576	
14.935	-0.107	-0.006075708905944406	
14.94	-0.098	-0.011786289943623811	
14.945	0.012	-0.022451831570749592	
14.95	-0.058	-0.03478335028506579	
14.955	-0.124	-0.044058925821472694	
14.96	-0.019	-0.05194677206221473	
14.965	0.000	-0.056204187602452944	
14.97	-0.107	-0.056533654101930224	
14.975	-0.038	-0.05322789866607384	
14.98	0.018	-0.049945161023252305	
14.985	-0.132	-0.04904188875604976	
14.99	-0.122	-0.05380167452356533	
14.995	-0.025	-0.062474788784504416	
15.0	-0.034	-0.0687536549207099	
15.005	0.003	-0.06303787525084421	
15.01	0.142	-0.038961335524529205	
15.015	0.185	-0.0011977907862749447	
15.02	-0.043	0.036470066274344626	
15.025	-0.022	0.05673041895095116	
15.03	0.046	0.05403597051852088	
15.035	-0.080	0.0379928138329933	
15.04	-0.077	0.01720476908484119	
15.045	0.068	-0.001503509737050288	
15.05	-0.005	-0.011738780706576283	
15.055	-0.071	-0.015017565791666564	
15.06	0.026	-0.016012637714442828	
15.065	0.021	-0.0152209030271726	
15.07	-0.075	-0.015459449822795944	
15.075	-0.011	-0.014253528222569492	
15.08	0.035	-0.015014850323954367	
15.085	-0.074	-0.016974542842910965	
15.09	-0.072	-0.020757240248500383	
15.095	0.110	-0.021562801469740107	
15.1	0.041	-0.01273971358757174	
15.105	-0.040	4.5427399915719474e-05	
15.11	0.042	0.010938120694256268	
15.115	-0.022	0.012728399646625208	
15.12	0.003	0.00861312843414519	
15.125	0.056	0.011760754492528303	
15.13	-0.002	0.015916139217847215	
15.135	-0.104	0.008038645854386739	
15.14	-0.101	-0.008724832341613496	
15.145	0.023	-0.025590948800910795	
15.15	-0.064	-0.03974930161512932	
15.155	-0.106	-0.04794365698342793	
15.16	-0.006	-0.05304810952194429	
15.165	0.038	-0.05124699455792911	
15.17	-0.090	-0.04540762906393392	
15.175	-0.025	-0.03726958587253075	
15.18	0.041	-0.03104396742487874	
15.185	-0.022	-0.024936246809190897	
15.19	-0.052	-0.016761162737954586	
15.195	0.064	-0.010593295668206432	
15.2	0.006	-0.005727695361409024	
15.205	-0.110	-0.003963729105871769	
15.21	-0.006	-0.008066245477047882	
15.215	-0.006	-0.017239598266162018	
15.22	-0.129	-0.02840882872205753	
15.225	-0.045	-0.03826795440977555	
15.23	0.027	-0.045037104437474273	
15.235	-0.074	-0.0469407032260437	
15.24	-0.107	-0.04775900471392286	
15.245	-0.013	-0.04959150005303497	
15.25	-0.087	-0.056739381613626634	
15.255	-0.142	-0.06395572272713065	
15.26	-0.035	-0.07104473583736018	
15.265	-0.031	-0.0752499163747735	
15.27	-0.116	-0.0754179301761266	
15.275	-0.045	-0.07224494232637427	
15.28	0.062	-0.0630397497981628	
15.285	-0.046	-0.04996384448374845	
15.29	-0.022	-0.0337404650553565	
15.295	0.084	-0.01757500170898261	
15.3	-0.006	-0.0037658380864575816	
15.305	-0.063	0.004038832546918551	
15.31	0.047	0.006972340789370771	
15.315	-0.005	0.005735446118502378	
15.32	-0.118	-0.001436045088010275	
15.325	-0.031	-0.013237884016905017	
15.33	0.044	-0.023033878779118583	
15.335	-0.112	-0.030968695518771266	
15.34	-0.116	-0.03975095422115285	
15.345	0.023	-0.048574655882303044	
15.35	-0.057	-0.0547401159950338	
15.355	-0.100	-0.05595522889191288	
15.36	0.026	-0.053050737113791685	
15.365	-0.025	-0.0472467533968504	
15.37	-0.122	-0.04541135384523585	
15.375	0.000	-0.0442734672091771	
15.38	0.059	-0.03903585613467817	
15.385	-0.025	-0.02891881311635714	
15.39	-0.020	-0.015776756134779975	
15.395	0.055	-0.0046148386762832295	
15.4	-0.051	-0.0006984546787926575	
15.405	-0.126	-0.006965423555958094	
15.41	0.006	-0.018110460732625303	
15.415	0.000	-0.02819449532031336	
15.42	-0.092	-0.03436748438115829	
15.425	-0.009	-0.035348587969905684	
15.43	0.035	-0.03303374721537404	
15.435	-0.017	-0.027846722092561733	
15.44	-0.014	-0.01882586379182004	
15.445	0.088	-0.005647665994352573	
15.45	-0.031	0.0033838587004663225	
15.455	-0.110	0.004013576288037789	
15.46	0.020	-0.003187222786725404	
15.465	0.062	-0.009122378317632934	
15.47	-0.075	-0.010331844160126011	
15.475	-0.071	-0.011451766599890478	
15.48	0.029	-0.01902238425341918	
15.485	-0.083	-0.027759449715476305	
15.49	-0.086	-0.03488871050988163	
15.495	0.013	-0.039698930792078854	
15.5	0.009	-0.041521096495228574	
15.505	0.017	-0.03296055519213459	
15.51	0.107	-0.011254512021205714	
15.515	0.052	0.011893118575312556	
15.52	-0.113	0.02268645653594914	
15.525	-0.043	0.018497556961586472	
15.53	0.035	0.004995332038255987	
15.535	-0.048	-0.007717364127063288	
15.54	-0.066	-0.01593470383816882	
15.545	0.000	-0.022706776108877277	
15.55	-0.038	-0.030474389904399612	
15.555	-0.087	-0.037002596587251954	
15.56	0.067	-0.03528494204529608	
15.565	0.142	-0.022027748923388605	
15.57	-0.006	0.00170403888554357	
15.575	0.007	0.02343487339931074	
15.58	0.021	0.03100695103813616	
15.585	-0.089	0.023304102867829787	
15.59	-0.086	0.006020566347254049	
15.595	0.012	-0.011699826495588832	
15.6	-0.051	-0.027429258620230042	
15.605	-0.100	-0.04003521264525832	
15.61	0.001	-0.04531022056924024	
15.615	0.032	-0.04498736204354276	
15.62	-0.104	-0.04131015679878973	
15.625	0.021	-0.03459487342916002	
15.63	0.050	-0.025928276989626443	
15.635	-0.080	-0.01867745883459916	
15.64	-0.144	-0.02106231345482015	
15.645	-0.023	-0.03368771995727651	
15.65	-0.022	-0.04735678499793773	
15.655	-0.071	-0.05207955115437543	
15.66	0.018	-0.047349529679435905	
15.665	0.065	-0.03692481193957773	
15.67	-0.069	-0.024310371607979928	
15.675	-0.038	-0.014658804250304724	
15.68	0.027	-0.011908495837006972	
15.685	-0.097	-0.016641317786148368	
15.69	-0.136	-0.028092712921364615	
15.695	-0.048	-0.044691951580809096	
15.7	-0.116	-0.0643326307239166	
15.705	-0.159	-0.0831047872800878	
15.71	-0.090	-0.09736304684849821	
15.715	-0.101	-0.10789329231428516	
15.72	-0.161	-0.1173199302651503	
15.725	-0.095	-0.12067528892197059	
15.73	-0.040	-0.11686012527803469	
15.735	-0.124	-0.11163604666793464	
15.74	-0.159	-0.10714714012537653	
15.745	0.009	-0.10265484829191547	
15.75	-0.025	-0.0922788365209162	
15.755	-0.136	-0.07917310003186905	
15.76	-0.092	-0.07239639631411118	
15.765	-0.064	-0.07482530044621961	
15.77	-0.205	-0.08533922066070664	
15.775	-0.167	-0.09974462630392615	
15.78	-0.081	-0.11681763326487395	
15.785	-0.142	-0.12959397784708088	
15.79	-0.122	-0.13218858911229084	
15.795	0.013	-0.12365160106210368	
15.8	0.021	-0.10424092170615105	
15.805	-0.087	-0.07719284166504789	
15.81	-0.011	-0.05340722045551659	
15.815	-0.008	-0.03880408282263485	
15.82	-0.116	-0.03435214349041744	
15.825	-0.078	-0.036753054460042366	
15.83	-0.006	-0.04280069295946951	
15.835	-0.104	-0.051611917199563866	
15.84	-0.147	-0.06120916989572748	
15.845	-0.074	-0.07263738057334099	
15.85	-0.165	-0.09025753249020639	
15.855	-0.153	-0.10921818072971261	
15.86	-0.049	-0.11735400480707306	
15.865	-0.006	-0.11376358412193638	
15.87	-0.092	-0.10140713397484308	
15.875	-0.063	-0.08375197173166574	
15.88	0.055	-0.06672865823004899	
15.885	-0.087	-0.052658293727969784	
15.89	-0.138	-0.045272999936036507	
15.895	-0.054	-0.04955969556947405	
15.9	-0.100	-0.062243667809052494	
15.905	-0.185	-0.07831117951631084	
15.91	0.000	-0.08831518688978136	
15.915	0.029	-0.08669639299807694	
15.92	-0.098	-0.07448466397117647	
15.925	-0.068	-0.061772401507793305	
15.93	0.021	-0.05365218685840002	
15.935	-0.058	-0.04768728653141118	
15.94	-0.060	-0.041311860425090025	
15.945	0.059	-0.03248794688257833	
15.95	-0.006	-0.02423779867814316	
15.955	-0.103	-0.01838193440025332	
15.96	-0.029	-0.019294527277867155	
15.965	0.047	-0.0236716666574656	
15.97	-0.103	-0.026534288938271533	
15.975	-0.023	-0.026755458680201807	
15.98	0.107	-0.023603017595300542	
15.985	-0.049	-0.015727165005648382	
15.99	-0.083	-0.010332406781428858	
15.995	0.058	-0.00945107414203114	
16.0	-0.020	-0.011253002393072677	
16.005	-0.086	-0.013394709347074553	
16.01	0.078	-0.013256641833354706	
16.015	0.091	-0.004674483675068402	
16.02	-0.068	0.0054424239539224975	
16.025	-0.020	0.010249930481017917	
16.03	0.094	0.01138874696039474	
16.035	0.003	0.01327609115411999	
16.04	-0.051	0.015687972743259573	
16.045	0.088	0.017526672300076422	
16.05	0.058	0.018742958347466872	
16.055	-0.008	0.024647772092261325	
16.06	0.107	0.03472142997591064	
16.065	0.159	0.04728149153507528	
16.07	0.036	0.06349279129006857	
16.075	0.093	0.07827929501269298	
16.08	0.101	0.08731653136165529	
16.085	-0.042	0.08226224725925932	
16.09	-0.084	0.06374525483495078	
16.095	0.052	0.03850037976428092	
16.1	0.026	0.017707381891976137	
16.105	-0.103	0.002702444579171752	
16.11	0.010	-0.008279150214678836	
16.115	0.047	-0.015775967345876385	
16.12	-0.055	-0.01746284582336651	
16.125	-0.006	-0.013680572314344667	
16.13	0.053	-0.009745565067049992	
16.135	-0.051	-0.008724463246246407	
16.14	-0.048	-0.00817649413251614	
16.145	0.120	-0.00454498996392489	
16.15	0.010	0.003655063947121555	
16.155	-0.097	0.007765334026278279	
16.16	0.023	0.005716110390093669	
16.165	0.030	0.0011543367802241882	
16.17	-0.072	-0.00441946575547998	
16.175	0.001	-0.0076476938452599225	
16.18	0.078	-0.006807686913803929	
16.185	-0.069	-0.005702127489487303	
16.19	-0.106	-0.00913401745082209	
16.195	0.007	-0.01862070165033063	
16.2	-0.072	-0.03134779232056418	
16.205	-0.112	-0.04414611334419669	
16.21	-0.035	-0.05332555249019356	
16.215	-0.017	-0.05889652380301181	
16.22	-0.110	-0.062339110767610714	
16.225	-0.049	-0.06164891111244885	
16.23	0.026	-0.05788740805793506	
16.235	-0.118	-0.05465013497905173	
16.24	-0.054	-0.05308695773232687	
16.245	-0.013	-0.05069127931321367	
16.25	-0.049	-0.05033957990710404	
16.255	-0.122	-0.052091154068353636	
16.26	-0.083	-0.056381782279900095	
16.265	-0.058	-0.06592042142202331	
16.27	-0.161	-0.07828024343336284	
16.275	-0.124	-0.08867086727327207	
16.28	-0.061	-0.09892678188611508	
16.285	-0.145	-0.1086048826428303	
16.29	-0.152	-0.11407574857128815	
16.295	-0.031	-0.11472565487981891	
16.3	-0.054	-0.11031965187744057	
16.305	-0.086	-0.09806522136972573	
16.31	0.032	-0.07939451026667438	
16.315	0.042	-0.055919271253616745	
16.32	-0.045	-0.03427365045690052	
16.325	0.000	-0.01568503372415123	
16.33	0.027	-0.003929499174888603	
16.335	-0.106	-0.003607668970330545	
16.34	-0.126	-0.015101345352150665	
16.345	-0.051	-0.03372516755383638	
16.35	-0.078	-0.05530046066487661	
16.355	-0.159	-0.07208631858462719	
16.36	-0.016	-0.08240304924059932	
16.365	0.006	-0.08288061707324751	
16.37	-0.150	-0.07727639363244287	
16.375	-0.126	-0.07672343446697219	
16.38	-0.080	-0.08291077339633848	
16.385	-0.158	-0.09557149689056825	
16.39	-0.122	-0.1061168038846033	
16.395	-0.025	-0.10872967454831321	
16.4	-0.104	-0.10627007017046004	
16.405	-0.173	-0.10510549613554453	
16.41	-0.104	-0.1064436584583614	
16.415	-0.046	-0.10885230373323884	
16.42	-0.144	-0.10925578258186058	
16.425	-0.110	-0.10575696331599978	
16.43	-0.003	-0.10089114628600224	
16.435	-0.124	-0.09453696332235276	
16.44	-0.150	-0.09116671105338267	
16.445	-0.081	-0.09275591666921276	
16.45	-0.107	-0.09922139487784769	
16.455	-0.145	-0.10610751876524273	
16.46	-0.052	-0.10547295617665645	
16.465	-0.006	-0.09981851885646752	
16.47	-0.153	-0.091251106407343	
16.475	-0.115	-0.0868050974805844	
16.48	-0.006	-0.08587502481472456	
16.485	-0.118	-0.0845004016022296	
16.49	-0.132	-0.08420048232557599	
16.495	-0.074	-0.08576726022262479	
16.5	-0.124	-0.09318121010922283	
16.505	-0.193	-0.10412692391462708	
16.51	-0.115	-0.11551186147347789	
16.515	-0.071	-0.12378321222942633	
16.52	-0.155	-0.1272280121490344	
16.525	-0.078	-0.1228365414130649	
16.53	0.065	-0.10885745369770647	
16.535	-0.049	-0.08546452492974826	
16.54	-0.090	-0.062239356320108456	
16.545	-0.028	-0.04779111653850218	
16.55	-0.087	-0.04714164927576159	
16.555	-0.122	-0.05313242537792552	
16.56	-0.042	-0.059544907542013824	
16.565	-0.025	-0.06375824278211226	
16.57	-0.148	-0.06922071144944869	
16.575	-0.113	-0.07487953032235393	
16.58	0.015	-0.07985018015734557	
16.585	-0.071	-0.07843361160032436	
16.59	-0.087	-0.07125797013960895	
16.595	0.024	-0.06178809310029207	
16.6	-0.031	-0.053105962269700865	
16.605	-0.129	-0.04715114596577036	
16.61	-0.019	-0.04557522565601417	
16.615	0.026	-0.04473015630153786	
16.62	-0.087	-0.041201570245847606	
16.625	-0.104	-0.03991103760753764	
16.63	-0.052	-0.04787119199675805	
16.635	-0.106	-0.06141780973376147	
16.64	-0.112	-0.0722441163789932	
16.645	0.003	-0.07579828878320664	
16.65	-0.068	-0.07511308306722726	
16.655	-0.139	-0.07513414255133055	
16.66	-0.035	-0.07456666999820816	
16.665	0.039	-0.06974550519896064	
16.67	-0.068	-0.05919911835673961	
16.675	-0.017	-0.04388723894870484	
16.68	-0.026	-0.03387529308007127	
16.685	-0.086	-0.03344633654416705	
16.69	-0.101	-0.04024477197847455	
16.695	-0.006	-0.045777786172762305	
16.7	-0.028	-0.05012220392972606	
16.705	-0.110	-0.052151342039268064	
16.71	-0.045	-0.05254438187721569	
16.715	-0.017	-0.05474224500933688	
16.72	-0.135	-0.05924471978261742	
16.725	-0.048	-0.06187368859046938	
16.73	0.090	-0.05781153930612687	
16.735	-0.086	-0.046466825355313504	
16.74	-0.141	-0.04129625760840637	
16.745	-0.087	-0.04875268044113998	
