Vernier Format 2
reposo.txt 10/18/2025 8:37:45
Run 1
Time	Potential	EKG	
T	P	E	
s	mV	mV	

0.000	-0.060	-0.003	
0.005	0.036	-0.007	
0.010	-0.011	-0.008	
0.015	-0.057	-0.009	
0.020	0.013	-0.013	
0.025	-0.057	-0.016	
0.030	-0.136	-0.026	
0.035	-0.032	-0.043	
0.040	0.001	-0.052	
0.045	-0.092	-0.053	
0.050	-0.058	-0.055	
0.055	-0.034	-0.056	
0.060	-0.119	-0.058	
0.065	-0.141	-0.068	
0.070	-0.040	-0.080	
0.075	-0.072	-0.085	
0.080	-0.147	-0.087	
0.085	-0.022	-0.090	
0.090	-0.026	-0.085	
0.095	-0.148	-0.077	
0.100	-0.109	-0.079	
0.105	0.001	-0.082	
0.110	-0.093	-0.078	
0.115	-0.124	-0.075	
0.120	0.090	-0.072	
0.125	0.058	-0.052	
0.130	-0.035	-0.025	
0.135	0.120	-0.002	
0.140	0.117	0.025	
0.145	-0.049	0.047	
0.150	-0.028	0.049	
0.155	0.091	0.041	
0.160	-0.084	0.032	
0.165	-0.147	0.012	
0.170	-0.043	-0.020	
0.175	-0.087	-0.047	
0.180	-0.148	-0.068	
0.185	-0.061	-0.087	
0.190	0.004	-0.092	
0.195	-0.129	-0.086	
0.200	-0.090	-0.083	
0.205	-0.019	-0.081	
0.210	-0.116	-0.077	
0.215	-0.139	-0.078	
0.220	-0.011	-0.083	
0.225	-0.064	-0.081	
0.230	-0.133	-0.077	
0.235	-0.020	-0.078	
0.240	-0.006	-0.072	
0.245	-0.124	-0.063	
0.250	-0.103	-0.063	
0.255	-0.003	-0.067	
0.260	-0.089	-0.066	
0.265	-0.101	-0.066	
0.270	0.032	-0.066	
0.275	-0.020	-0.056	
0.280	-0.101	-0.046	
0.285	-0.031	-0.045	
0.290	-0.032	-0.044	
0.295	-0.124	-0.046	
0.300	-0.095	-0.056	
0.305	-0.013	-0.065	
0.310	-0.104	-0.068	
0.315	-0.139	-0.074	
0.320	-0.013	-0.081	
0.325	-0.068	-0.080	
0.330	-0.124	-0.078	
0.335	-0.025	-0.078	
0.340	-0.032	-0.073	
0.345	-0.124	-0.067	
0.350	-0.072	-0.068	
0.355	0.096	-0.064	
0.360	0.055	-0.042	
0.365	-0.078	-0.018	
0.370	-0.002	-0.007	
0.375	-0.032	-0.006	
0.380	-0.098	-0.012	
0.385	0.013	-0.022	
0.390	0.053	-0.024	
0.395	-0.138	-0.022	
0.400	-0.107	-0.032	
0.405	0.055	-0.044	
0.410	-0.100	-0.047	
0.415	-0.113	-0.051	
0.420	0.038	-0.057	
0.425	-0.013	-0.052	
0.430	-0.116	-0.045	
0.435	-0.029	-0.045	
0.440	0.049	-0.043	
0.445	-0.086	-0.035	
0.450	-0.045	-0.032	
0.455	0.039	-0.031	
0.460	-0.057	-0.026	
0.465	-0.077	-0.026	
0.470	0.006	-0.030	
0.475	-0.046	-0.032	
0.480	-0.095	-0.035	
0.485	-0.042	-0.043	
0.490	-0.031	-0.049	
0.495	-0.139	-0.054	
0.500	-0.100	-0.065	
0.505	-0.014	-0.075	
0.510	-0.087	-0.076	
0.515	-0.109	-0.076	
0.520	0.059	-0.073	
0.525	0.010	-0.058	
0.530	-0.119	-0.041	
0.535	0.023	-0.035	
0.540	0.125	-0.023	
0.545	-0.077	-0.004	
0.550	-0.072	0.002	
0.555	-0.003	-0.006	
0.560	-0.090	-0.017	
0.565	-0.135	-0.034	
0.570	-0.042	-0.054	
0.575	-0.055	-0.067	
0.580	-0.139	-0.074	
0.585	-0.051	-0.082	
0.590	-0.008	-0.082	
0.595	-0.126	-0.076	
0.600	-0.078	-0.074	
0.605	0.023	-0.072	
0.610	-0.086	-0.063	
0.615	-0.116	-0.059	
0.620	0.053	-0.059	
0.625	-0.060	-0.051	
0.630	-0.161	-0.048	
0.635	-0.074	-0.059	
0.640	-0.043	-0.069	
0.645	-0.153	-0.076	
0.650	-0.126	-0.087	
0.655	-0.014	-0.096	
0.660	-0.100	-0.094	
0.665	-0.083	-0.090	
0.670	0.127	-0.077	
0.675	0.067	-0.046	
0.680	-0.049	-0.012	
0.685	0.032	0.007	
0.690	0.082	0.019	
0.695	-0.113	0.026	
0.700	-0.095	0.013	
0.705	0.009	-0.009	
0.710	-0.097	-0.026	
0.715	-0.142	-0.045	
0.720	-0.048	-0.066	
0.725	-0.063	-0.078	
0.730	-0.110	-0.082	
0.735	-0.031	-0.084	
0.740	-0.029	-0.078	
0.745	-0.093	-0.070	
0.750	-0.086	-0.067	
0.755	-0.034	-0.066	
0.760	-0.106	-0.066	
0.765	-0.138	-0.071	
0.770	-0.028	-0.080	
0.775	-0.063	-0.081	
0.780	-0.153	-0.081	
0.785	-0.046	-0.085	
0.790	-0.006	-0.083	
0.795	-0.097	-0.074	
0.800	-0.069	-0.068	
0.805	0.029	-0.062	
0.810	-0.081	-0.052	
0.815	-0.103	-0.048	
0.820	0.058	-0.048	
0.825	-0.038	-0.040	
0.830	-0.141	-0.037	
0.835	-0.083	-0.046	
0.840	-0.022	-0.058	
0.845	-0.113	-0.064	
0.850	-0.055	-0.069	
0.855	0.020	-0.068	
0.860	-0.092	-0.060	
0.865	-0.113	-0.058	
0.870	0.009	-0.060	
0.875	-0.003	-0.055	
0.880	-0.112	-0.047	
0.885	-0.063	-0.048	
0.890	-0.029	-0.052	
0.895	-0.103	-0.055	
0.900	-0.054	-0.059	
0.905	0.073	-0.057	
0.910	-0.077	-0.044	
0.915	-0.110	-0.039	
0.920	-0.005	-0.043	
0.925	-0.032	-0.044	
0.930	-0.072	-0.043	
0.935	0.018	-0.042	
0.940	0.070	-0.032	
0.945	-0.077	-0.018	
0.950	-0.078	-0.015	
0.955	0.056	-0.019	
0.960	0.006	-0.015	
0.965	-0.074	-0.011	
0.970	0.007	-0.013	
0.975	-0.045	-0.017	
0.980	-0.113	-0.024	
0.985	-0.042	-0.038	
0.990	0.003	-0.047	
0.995	-0.080	-0.048	
1.000	-0.075	-0.050	
1.005	0.023	-0.052	
1.010	-0.084	-0.048	
1.015	-0.115	-0.049	
1.020	0.000	-0.056	
1.025	-0.017	-0.054	
1.030	-0.066	-0.048	
1.035	-0.031	-0.045	
1.040	-0.017	-0.042	
1.045	-0.115	-0.040	
1.050	-0.092	-0.048	
1.055	-0.031	-0.058	
1.060	-0.092	-0.064	
1.065	-0.089	-0.069	
1.070	0.116	-0.066	
1.075	0.052	-0.043	
1.080	-0.101	-0.018	
1.085	-0.057	-0.013	
1.090	-0.006	-0.018	
1.095	-0.104	-0.025	
1.100	-0.077	-0.037	
1.105	0.042	-0.046	
1.110	-0.084	-0.046	
1.115	-0.144	-0.050	
1.120	-0.035	-0.061	
1.125	-0.092	-0.070	
1.130	-0.147	-0.078	
1.135	-0.080	-0.089	
1.140	-0.014	-0.093	
1.145	-0.121	-0.088	
1.150	-0.107	-0.086	
1.155	0.013	-0.084	
1.160	-0.084	-0.075	
1.165	-0.136	-0.071	
1.170	-0.046	-0.074	
1.175	-0.075	-0.076	
1.180	-0.150	-0.079	
1.185	-0.095	-0.087	
1.190	-0.029	-0.092	
1.195	-0.069	-0.088	
1.200	-0.008	-0.078	
1.205	0.152	-0.055	
1.210	0.001	-0.020	
1.215	-0.075	0.004	
1.220	0.023	0.010	
1.225	0.050	0.012	
1.230	-0.092	0.012	
1.235	-0.054	0.001	
1.240	-0.031	-0.015	
1.245	-0.122	-0.031	
1.250	-0.116	-0.051	
1.255	0.012	-0.068	
1.260	-0.077	-0.071	
1.265	-0.147	-0.073	
1.270	-0.031	-0.079	
1.275	-0.064	-0.080	
1.280	-0.153	-0.080	
1.285	-0.074	-0.086	
1.290	-0.032	-0.088	
1.295	-0.126	-0.085	
1.300	-0.092	-0.085	
1.305	-0.011	-0.084	
1.310	-0.084	-0.078	
1.315	-0.089	-0.072	
1.320	0.078	-0.065	
1.325	0.055	-0.044	
1.330	-0.126	-0.022	
1.335	-0.061	-0.020	
1.340	-0.008	-0.026	
1.345	-0.113	-0.034	
1.350	-0.089	-0.046	
1.355	0.064	-0.054	
1.360	-0.040	-0.048	
1.365	-0.124	-0.043	
1.370	-0.054	-0.048	
1.375	-0.060	-0.055	
1.380	-0.130	-0.062	
1.385	-0.037	-0.071	
1.390	0.020	-0.071	
1.395	-0.090	-0.061	
1.400	-0.081	-0.057	
1.405	0.030	-0.054	
1.410	-0.052	-0.046	
1.415	-0.104	-0.042	
1.420	-0.014	-0.045	
1.425	-0.046	-0.046	
1.430	-0.127	-0.049	
1.435	0.013	-0.055	
1.440	0.030	-0.051	
1.445	-0.095	-0.040	
1.450	-0.051	-0.037	
1.455	0.062	-0.035	
1.460	0.036	-0.023	
1.465	-0.072	-0.009	
1.470	0.050	-0.004	
1.475	0.030	0.002	
1.480	-0.057	0.007	
1.485	-0.002	0.005	
1.490	0.035	0.001	
1.495	-0.090	-0.002	
1.500	-0.069	-0.013	
1.505	0.064	-0.023	
1.510	-0.054	-0.024	
1.515	-0.106	-0.027	
1.520	0.006	-0.035	
1.525	-0.029	-0.039	
1.530	-0.080	-0.039	
1.535	0.009	-0.041	
1.540	0.056	-0.034	
1.545	-0.086	-0.023	
1.550	-0.043	-0.020	
1.555	0.094	-0.019	
1.560	-0.022	-0.009	
1.565	-0.075	-0.004	
1.570	0.030	-0.007	
1.575	-0.022	-0.009	
1.580	-0.109	-0.014	
1.585	-0.060	-0.027	
1.590	0.047	-0.038	
1.595	-0.055	-0.036	
1.600	-0.066	-0.035	
1.605	0.042	-0.035	
1.610	-0.029	-0.029	
1.615	-0.092	-0.025	
1.620	-0.040	-0.031	
1.625	0.026	-0.034	
1.630	-0.098	-0.034	
1.635	-0.038	-0.037	
1.640	0.039	-0.038	
1.645	-0.068	-0.033	
1.650	-0.077	-0.032	
1.655	-0.054	-0.038	
1.660	-0.156	-0.050	
1.665	-0.222	-0.074	
1.670	-0.153	-0.107	
1.675	-0.144	-0.134	
1.680	-0.174	-0.151	
1.685	-0.086	-0.158	
1.690	-0.023	-0.150	
1.695	-0.121	-0.130	
1.700	-0.078	-0.112	
1.705	0.006	-0.095	
1.710	-0.089	-0.076	
1.715	-0.165	-0.068	
1.720	0.018	-0.071	
1.725	0.084	-0.061	
1.730	-0.002	-0.036	
1.735	0.145	-0.007	
1.740	0.177	0.030	
1.745	0.024	0.067	
1.750	0.038	0.085	
1.755	0.033	0.084	
1.760	-0.121	0.067	
1.765	-0.168	0.029	
1.770	-0.069	-0.019	
1.775	-0.075	-0.057	
1.780	-0.194	-0.084	
1.785	-0.110	-0.108	
1.790	0.021	-0.119	
1.795	-0.092	-0.109	
1.800	-0.063	-0.095	
1.805	0.012	-0.080	
1.810	-0.095	-0.064	
1.815	-0.168	-0.060	
1.820	-0.045	-0.069	
1.825	-0.040	-0.075	
1.830	-0.109	-0.074	
1.835	-0.028	-0.074	
1.840	0.020	-0.066	
1.845	-0.048	-0.052	
1.850	-0.064	-0.042	
1.855	-0.060	-0.040	
1.860	-0.110	-0.045	
1.865	-0.135	-0.059	
1.870	0.020	-0.071	
1.875	-0.055	-0.071	
1.880	-0.145	-0.069	
1.885	-0.026	-0.072	
1.890	0.053	-0.067	
1.895	-0.089	-0.053	
1.900	-0.068	-0.045	
1.905	0.017	-0.042	
1.910	-0.060	-0.037	
1.915	-0.100	-0.038	
1.920	0.020	-0.042	
1.925	0.015	-0.038	
1.930	-0.129	-0.033	
1.935	-0.060	-0.038	
1.940	-0.023	-0.046	
1.945	-0.060	-0.049	
1.950	-0.023	-0.050	
1.955	0.075	-0.042	
1.960	0.009	-0.024	
1.965	-0.045	-0.009	
1.970	0.081	0.000	
1.975	0.024	0.011	
1.980	-0.095	0.016	
1.985	-0.026	0.007	
1.990	0.041	-0.004	
1.995	-0.078	-0.010	
2.000	-0.069	-0.019	
2.005	0.032	-0.029	
2.010	-0.074	-0.032	
2.015	-0.080	-0.037	
2.020	0.149	-0.036	
2.025	0.056	-0.016	
2.030	-0.090	0.004	
2.035	-0.046	0.006	
2.040	-0.025	-0.004	
2.045	-0.080	-0.016	
2.050	-0.046	-0.030	
2.055	0.047	-0.037	
2.060	-0.068	-0.034	
2.065	-0.136	-0.037	
2.070	-0.009	-0.048	
2.075	0.006	-0.051	
2.080	-0.121	-0.049	
2.085	0.032	-0.048	
2.090	0.130	-0.035	
2.095	-0.061	-0.012	
2.100	-0.061	-0.001	
2.105	0.061	-0.001	
2.110	-0.054	-0.000	
2.115	-0.106	-0.007	
2.120	-0.009	-0.022	
2.125	-0.054	-0.033	
2.130	-0.145	-0.045	
2.135	-0.092	-0.062	
2.140	-0.003	-0.075	
2.145	-0.084	-0.076	
2.150	-0.063	-0.073	
2.155	0.062	-0.065	
2.160	-0.031	-0.048	
2.165	-0.109	-0.035	
2.170	-0.029	-0.035	
2.175	-0.014	-0.037	
2.180	-0.112	-0.039	
2.185	-0.058	-0.047	
2.190	-0.016	-0.053	
2.195	-0.103	-0.055	
2.200	-0.075	-0.060	
2.205	-0.052	-0.065	
2.210	-0.132	-0.070	
2.215	-0.176	-0.082	
2.220	-0.069	-0.099	
2.225	-0.069	-0.106	
2.230	-0.141	-0.106	
2.235	-0.080	-0.107	
2.240	-0.040	-0.103	
2.245	-0.133	-0.095	
2.250	-0.133	-0.095	
2.255	-0.037	-0.097	
2.260	-0.112	-0.095	
2.265	-0.139	-0.095	
2.270	-0.017	-0.096	
2.275	0.059	-0.084	
2.280	-0.069	-0.061	
2.285	-0.020	-0.043	
2.290	0.087	-0.028	
2.295	-0.052	-0.010	
2.300	-0.046	-0.002	
2.305	0.036	-0.003	
2.310	-0.046	-0.004	
2.315	-0.142	-0.013	
2.320	-0.092	-0.034	
2.325	-0.093	-0.058	
2.330	-0.152	-0.079	
2.335	-0.113	-0.098	
2.340	-0.035	-0.108	
2.345	-0.115	-0.107	
2.350	-0.098	-0.104	
2.355	-0.017	-0.098	
2.360	-0.043	-0.085	
2.365	-0.148	-0.075	
2.370	-0.083	-0.075	
2.375	-0.028	-0.077	
2.380	-0.139	-0.077	
2.385	-0.080	-0.080	
2.390	-0.052	-0.083	
2.395	-0.150	-0.085	
2.400	-0.098	-0.091	
2.405	-0.011	-0.093	
2.410	-0.066	-0.086	
2.415	-0.115	-0.078	
2.420	-0.035	-0.075	
2.425	-0.057	-0.071	
2.430	-0.112	-0.068	
2.435	-0.028	-0.068	
2.440	-0.011	-0.064	
2.445	-0.122	-0.058	
2.450	-0.139	-0.063	
2.455	-0.037	-0.073	
2.460	-0.080	-0.079	
2.465	-0.095	-0.080	
2.470	0.020	-0.078	
2.475	-0.019	-0.066	
2.480	-0.127	-0.054	
2.485	-0.063	-0.054	
2.490	-0.005	-0.056	
2.495	-0.133	-0.056	
2.500	-0.122	-0.064	
2.505	-0.046	-0.076	
2.510	-0.089	-0.081	
2.515	-0.122	-0.085	
2.520	-0.014	-0.087	
2.525	0.017	-0.079	
2.530	-0.100	-0.063	
2.535	-0.026	-0.054	
2.540	0.020	-0.045	
2.545	-0.106	-0.037	
2.550	-0.064	-0.038	
2.555	0.105	-0.037	
2.560	-0.013	-0.024	
2.565	-0.107	-0.014	
2.570	0.006	-0.017	
2.575	0.001	-0.020	
2.580	-0.097	-0.021	
2.585	-0.043	-0.029	
2.590	0.017	-0.035	
2.595	-0.104	-0.037	
2.600	-0.071	-0.043	
2.605	0.026	-0.048	
2.610	-0.075	-0.046	
2.615	-0.136	-0.049	
2.620	-0.043	-0.059	
2.625	0.006	-0.063	
2.630	-0.075	-0.058	
2.635	-0.017	-0.053	
2.640	0.052	-0.043	
2.645	-0.072	-0.030	
2.650	-0.092	-0.026	
2.655	0.003	-0.031	
2.660	-0.045	-0.034	
2.665	-0.116	-0.038	
2.670	-0.060	-0.049	
2.675	0.009	-0.056	
2.680	-0.074	-0.054	
2.685	-0.034	-0.051	
2.690	0.007	-0.047	
2.695	-0.103	-0.041	
2.700	-0.129	-0.046	
2.705	0.012	-0.056	
2.710	-0.011	-0.056	
2.715	-0.116	-0.051	
2.720	-0.029	-0.052	
2.725	-0.020	-0.052	
2.730	-0.089	-0.050	
2.735	-0.006	-0.049	
2.740	0.047	-0.042	
2.745	-0.080	-0.030	
2.750	-0.101	-0.029	
2.755	-0.003	-0.036	
2.760	-0.031	-0.039	
2.765	-0.112	-0.042	
2.770	-0.023	-0.048	
2.775	-0.006	-0.050	
2.780	-0.109	-0.048	
2.785	-0.005	-0.049	
2.790	0.047	-0.044	
2.795	-0.092	-0.033	
2.800	-0.092	-0.032	
2.805	-0.025	-0.040	
2.810	-0.109	-0.048	
2.815	-0.141	-0.061	
2.820	-0.061	-0.076	
2.825	-0.026	-0.084	
2.830	-0.103	-0.082	
2.835	-0.077	-0.080	
2.840	-0.006	-0.076	
2.845	-0.109	-0.070	
2.850	-0.087	-0.068	
2.855	0.113	-0.062	
2.860	0.124	-0.036	
2.865	-0.014	-0.001	
2.870	0.073	0.025	
2.875	0.050	0.041	
2.880	-0.049	0.047	
2.885	-0.006	0.039	
2.890	0.064	0.028	
2.895	-0.101	0.018	
2.900	-0.135	-0.003	
2.905	-0.028	-0.031	
2.910	-0.080	-0.051	
2.915	-0.112	-0.066	
2.920	-0.023	-0.076	
2.925	-0.023	-0.075	
2.930	-0.090	-0.068	
2.935	-0.052	-0.064	
2.940	0.023	-0.058	
2.945	-0.086	-0.049	
2.950	-0.107	-0.047	
2.955	0.013	-0.051	
2.960	-0.019	-0.048	
2.965	-0.097	-0.043	
2.970	-0.035	-0.044	
2.975	-0.054	-0.047	
2.980	-0.132	-0.052	
2.985	-0.078	-0.063	
2.990	0.030	-0.069	
2.995	-0.071	-0.063	
3.000	-0.069	-0.057	
3.005	0.024	-0.052	
3.010	-0.078	-0.044	
3.015	-0.152	-0.046	
3.020	-0.068	-0.058	
3.025	0.041	-0.065	
3.030	-0.046	-0.058	
3.035	0.010	-0.046	
3.040	0.110	-0.027	
3.045	-0.051	-0.005	
3.050	-0.077	0.004	
3.055	0.023	-0.001	
3.060	-0.034	-0.006	
3.065	-0.107	-0.015	
3.070	-0.020	-0.028	
3.075	-0.020	-0.038	
3.080	-0.104	-0.043	
3.085	-0.045	-0.050	
3.090	0.053	-0.051	
3.095	-0.063	-0.042	
3.100	-0.069	-0.036	
3.105	0.027	-0.035	
3.110	-0.034	-0.030	
3.115	-0.106	-0.029	
3.120	0.029	-0.033	
3.125	0.041	-0.029	
3.130	-0.074	-0.020	
3.135	0.021	-0.016	
3.140	0.085	-0.009	
3.145	-0.058	0.003	
3.150	-0.090	0.002	
3.155	0.006	-0.009	
3.160	-0.061	-0.020	
3.165	-0.095	-0.031	
3.170	0.015	-0.042	
3.175	0.049	-0.040	
3.180	-0.081	-0.030	
3.185	-0.042	-0.027	
3.190	0.039	-0.026	
3.195	-0.086	-0.023	
3.200	-0.095	-0.028	
3.205	0.068	-0.035	
3.210	0.020	-0.029	
3.215	-0.074	-0.019	
3.220	0.027	-0.015	
3.225	0.059	-0.009	
3.230	-0.092	-0.002	
3.235	-0.069	-0.007	
3.240	0.007	-0.018	
3.245	-0.095	-0.027	
3.250	-0.093	-0.040	
3.255	0.024	-0.050	
3.260	-0.057	-0.051	
3.265	-0.100	-0.050	
3.270	-0.013	-0.053	
3.275	-0.008	-0.051	
3.280	-0.115	-0.047	
3.285	-0.052	-0.050	
3.290	0.127	-0.046	
3.295	-0.026	-0.028	
3.300	-0.068	-0.013	
3.305	0.017	-0.011	
3.310	-0.038	-0.011	
3.315	-0.090	-0.016	
3.320	0.053	-0.023	
3.325	0.038	-0.020	
3.330	-0.107	-0.014	
3.335	-0.046	-0.018	
3.340	0.039	-0.025	
3.345	-0.077	-0.025	
3.350	-0.084	-0.030	
3.355	0.036	-0.036	
3.360	-0.072	-0.037	
3.365	-0.110	-0.040	
3.370	0.039	-0.046	
3.375	-0.005	-0.042	
3.380	-0.129	-0.037	
3.385	-0.092	-0.044	
3.390	-0.006	-0.054	
3.395	-0.109	-0.059	
3.400	-0.126	-0.066	
3.405	0.010	-0.074	
3.410	0.003	-0.069	
3.415	-0.092	-0.057	
3.420	-0.038	-0.051	
3.425	0.009	-0.046	
3.430	-0.072	-0.039	
3.435	0.018	-0.034	
3.440	0.142	-0.020	
3.445	0.012	0.005	
3.450	-0.003	0.023	
3.455	0.128	0.035	
3.460	-0.035	0.044	
3.465	-0.113	0.038	
3.470	0.013	0.016	
3.475	-0.013	-0.002	
3.480	-0.133	-0.017	
3.485	-0.119	-0.040	
3.490	0.021	-0.060	
3.495	-0.077	-0.066	
3.500	-0.112	-0.068	
3.505	0.006	-0.070	
3.510	-0.045	-0.065	
3.515	-0.116	-0.059	
3.520	-0.013	-0.059	
3.525	0.059	-0.052	
3.530	-0.113	-0.039	
3.535	-0.089	-0.037	
3.540	0.078	-0.040	
3.545	-0.061	-0.033	
3.550	-0.097	-0.030	
3.555	0.017	-0.034	
3.560	-0.064	-0.036	
3.565	-0.132	-0.041	
3.570	-0.046	-0.054	
3.575	-0.014	-0.061	
3.580	-0.135	-0.063	
3.585	-0.069	-0.068	
3.590	0.035	-0.069	
3.595	-0.097	-0.062	
3.600	-0.101	-0.058	
3.605	0.003	-0.060	
3.610	0.012	-0.053	
3.615	-0.092	-0.043	
3.620	-0.034	-0.040	
3.625	0.030	-0.037	
3.630	-0.075	-0.031	
3.635	-0.100	-0.032	
3.640	-0.006	-0.040	
3.645	-0.090	-0.046	
3.650	-0.121	-0.054	
3.655	0.041	-0.062	
3.660	-0.037	-0.058	
3.665	-0.136	-0.053	
3.670	-0.068	-0.058	
3.675	-0.022	-0.063	
3.680	-0.110	-0.065	
3.685	-0.019	-0.065	
3.690	0.108	-0.055	
3.695	-0.029	-0.033	
3.700	-0.086	-0.017	
3.705	0.017	-0.015	
3.710	-0.035	-0.015	
3.715	-0.104	-0.020	
3.720	-0.068	-0.033	
3.725	-0.028	-0.045	
3.730	-0.103	-0.054	
3.735	-0.031	-0.060	
3.740	0.033	-0.058	
3.745	-0.090	-0.049	
3.750	-0.127	-0.048	
3.755	-0.020	-0.056	
3.760	-0.060	-0.060	
3.765	-0.087	-0.061	
3.770	0.017	-0.060	
3.775	0.021	-0.051	
3.780	-0.077	-0.037	
3.785	-0.061	-0.033	
3.790	0.032	-0.032	
3.795	-0.040	-0.028	
3.800	-0.116	-0.028	
3.805	-0.038	-0.037	
3.810	-0.029	-0.045	
3.815	-0.109	-0.050	
3.820	-0.034	-0.056	
3.825	0.001	-0.057	
3.830	-0.109	-0.053	
3.835	-0.100	-0.056	
3.840	0.000	-0.062	
3.845	-0.068	-0.060	
3.850	-0.077	-0.059	
3.855	0.079	-0.053	
3.860	-0.013	-0.038	
3.865	-0.122	-0.026	
3.870	-0.037	-0.029	
3.875	0.029	-0.033	
3.880	-0.084	-0.032	
3.885	-0.064	-0.035	
3.890	0.003	-0.040	
3.895	0.027	-0.036	
3.900	-0.040	-0.027	
3.905	0.032	-0.018	
3.910	0.000	-0.010	
3.915	-0.068	-0.005	
3.920	-0.026	-0.010	
3.925	0.010	-0.015	
3.930	-0.121	-0.021	
3.935	-0.103	-0.035	
3.940	0.009	-0.050	
3.945	-0.119	-0.058	
3.950	-0.132	-0.068	
3.955	-0.045	-0.080	
3.960	-0.083	-0.085	
3.965	-0.124	-0.087	
3.970	-0.058	-0.090	
3.975	-0.017	-0.087	
3.980	-0.142	-0.080	
3.985	-0.083	-0.080	
3.990	0.033	-0.077	
3.995	-0.064	-0.066	
4.000	-0.092	-0.057	
4.005	0.088	-0.049	
4.010	0.090	-0.028	
4.015	0.012	0.000	
4.020	0.120	0.025	
4.025	0.026	0.045	
4.030	-0.104	0.050	
4.035	-0.063	0.032	
4.040	-0.029	0.005	
4.045	-0.129	-0.021	
4.050	-0.121	-0.048	
4.055	0.035	-0.068	
4.060	-0.037	-0.070	
4.065	-0.144	-0.066	
4.070	-0.063	-0.070	
4.075	-0.019	-0.072	
4.080	-0.100	-0.069	
4.085	-0.097	-0.069	
4.090	-0.022	-0.071	
4.095	-0.097	-0.070	
4.100	-0.130	-0.072	
4.105	-0.009	-0.077	
4.110	-0.042	-0.074	
4.115	-0.159	-0.070	
4.120	-0.087	-0.076	
4.125	0.010	-0.080	
4.130	-0.077	-0.074	
4.135	-0.016	-0.064	
4.140	0.114	-0.048	
4.145	-0.084	-0.025	
4.150	-0.132	-0.017	
4.155	-0.019	-0.027	
4.160	-0.048	-0.037	
4.165	-0.133	-0.047	
4.170	-0.038	-0.059	
4.175	-0.019	-0.065	
4.180	-0.121	-0.065	
4.185	-0.066	-0.068	
4.190	0.104	-0.064	
4.195	-0.006	-0.044	
4.200	-0.092	-0.026	
4.205	-0.013	-0.022	
4.210	-0.051	-0.023	
4.215	-0.119	-0.031	
4.220	-0.034	-0.043	
4.225	-0.020	-0.051	
4.230	-0.069	-0.052	
4.235	-0.028	-0.052	
4.240	0.041	-0.046	
4.245	-0.075	-0.035	
4.250	-0.109	-0.034	
4.255	-0.019	-0.041	
4.260	-0.014	-0.045	
4.265	-0.093	-0.044	
4.270	-0.014	-0.046	
4.275	0.076	-0.041	
4.280	-0.058	-0.027	
4.285	-0.046	-0.019	
4.290	0.059	-0.016	
4.295	-0.006	-0.008	
4.300	-0.095	-0.005	
4.305	0.032	-0.010	
4.310	0.015	-0.012	
4.315	-0.078	-0.011	
4.320	0.007	-0.015	
4.325	0.023	-0.016	
4.330	-0.101	-0.016	
4.335	-0.069	-0.024	
4.340	0.042	-0.033	
4.345	-0.049	-0.033	
4.350	-0.069	-0.032	
4.355	0.032	-0.033	
4.360	-0.040	-0.030	
4.365	-0.112	-0.030	
4.370	-0.020	-0.038	
4.375	0.078	-0.038	
4.380	-0.083	-0.029	
4.385	-0.075	-0.026	
4.390	0.012	-0.030	
4.395	-0.080	-0.033	
4.400	-0.052	-0.037	
4.405	0.162	-0.034	
4.410	0.006	-0.013	
4.415	-0.116	0.002	
4.420	-0.029	-0.002	
4.425	0.003	-0.012	
4.430	-0.113	-0.021	
4.435	-0.086	-0.036	
4.440	0.050	-0.047	
4.445	-0.060	-0.046	
4.450	-0.115	-0.046	
4.455	-0.011	-0.051	
4.460	0.018	-0.050	
4.465	-0.075	-0.042	
4.470	0.032	-0.035	
4.475	0.047	-0.024	
4.480	-0.060	-0.011	
4.485	-0.017	-0.006	
4.490	0.082	-0.004	
4.495	-0.023	0.004	
4.500	-0.064	0.006	
4.505	0.038	0.000	
4.510	-0.016	-0.003	
4.515	-0.097	-0.008	
4.520	-0.031	-0.020	
4.525	-0.016	-0.030	
4.530	-0.118	-0.038	
4.535	-0.034	-0.048	
4.540	0.058	-0.050	
4.545	-0.049	-0.040	
4.550	-0.095	-0.034	
4.555	-0.005	-0.036	
4.560	-0.028	-0.037	
4.565	-0.104	-0.038	
4.570	-0.011	-0.043	
4.575	0.012	-0.042	
4.580	-0.118	-0.039	
4.585	-0.087	-0.045	
4.590	-0.008	-0.053	
4.595	-0.063	-0.055	
4.600	-0.097	-0.057	
4.605	0.041	-0.057	
4.610	0.093	-0.043	
4.615	0.009	-0.017	
4.620	0.120	0.009	
4.625	0.122	0.038	
4.630	-0.008	0.061	
4.635	-0.016	0.066	
4.640	0.035	0.055	
4.645	-0.087	0.039	
4.650	-0.116	0.012	
4.655	-0.023	-0.020	
4.660	-0.008	-0.039	
4.665	-0.097	-0.048	
4.670	-0.054	-0.055	
4.675	-0.051	-0.060	
4.680	-0.122	-0.064	
4.685	-0.075	-0.072	
4.690	0.068	-0.071	
4.695	-0.029	-0.057	
4.700	-0.116	-0.044	
4.705	0.035	-0.040	
4.710	-0.026	-0.034	
4.715	-0.110	-0.031	
4.720	-0.032	-0.036	
4.725	0.012	-0.040	
4.730	-0.104	-0.039	
4.735	-0.081	-0.045	
4.740	0.050	-0.049	
4.745	-0.045	-0.043	
4.750	-0.087	-0.038	
4.755	0.052	-0.037	
4.760	0.023	-0.027	
4.765	-0.122	-0.019	
4.770	-0.071	-0.025	
4.775	-0.016	-0.036	
4.780	-0.122	-0.045	
4.785	-0.087	-0.057	
4.790	0.070	-0.063	
4.795	-0.040	-0.054	
4.800	-0.100	-0.044	
4.805	0.017	-0.042	
4.810	-0.009	-0.036	
4.815	-0.115	-0.032	
4.820	-0.037	-0.037	
4.825	0.023	-0.040	
4.830	-0.092	-0.038	
4.835	-0.043	-0.040	
4.840	0.056	-0.039	
4.845	-0.054	-0.030	
4.850	-0.078	-0.027	
4.855	0.072	-0.026	
4.860	0.023	-0.017	
4.865	-0.130	-0.010	
4.870	-0.043	-0.018	
4.875	0.044	-0.026	
4.880	-0.066	-0.026	
4.885	-0.052	-0.028	
4.890	0.041	-0.030	
4.895	-0.064	-0.027	
4.900	-0.095	-0.029	
4.905	0.110	-0.031	
4.910	0.041	-0.019	
4.915	-0.086	-0.004	
4.920	-0.023	-0.004	
4.925	0.033	-0.007	
4.930	-0.080	-0.009	
4.935	-0.066	-0.017	
4.940	0.050	-0.026	
4.945	-0.017	-0.024	
4.950	-0.112	-0.023	
4.955	-0.014	-0.031	
4.960	0.026	-0.034	
4.965	-0.090	-0.031	
4.970	-0.002	-0.032	
4.975	0.052	-0.028	
4.980	-0.095	-0.021	
4.985	-0.098	-0.024	
4.990	-0.013	-0.035	
4.995	-0.106	-0.045	
5.000	-0.121	-0.057	
5.005	0.030	-0.067	
5.010	0.047	-0.061	
5.015	-0.089	-0.044	
5.020	-0.020	-0.035	
5.025	-0.023	-0.031	
5.030	-0.090	-0.031	
5.035	-0.045	-0.036	
5.040	0.024	-0.040	
5.045	-0.083	-0.037	
5.050	-0.129	-0.042	
5.055	-0.016	-0.053	
5.060	-0.054	-0.058	
5.065	-0.129	-0.062	
5.070	-0.035	-0.068	
5.075	0.049	-0.066	
5.080	-0.095	-0.054	
5.085	-0.077	-0.048	
5.090	-0.008	-0.048	
5.095	-0.055	-0.046	
5.100	-0.069	-0.045	
5.105	-0.002	-0.046	
5.110	0.033	-0.039	
5.115	-0.100	-0.030	
5.120	-0.083	-0.032	
5.125	-0.028	-0.040	
5.130	-0.104	-0.048	
5.135	-0.075	-0.057	
5.140	0.006	-0.063	
5.145	-0.100	-0.062	
5.150	-0.107	-0.063	
5.155	0.026	-0.066	
5.160	0.056	-0.055	
5.165	-0.089	-0.037	
5.170	-0.016	-0.028	
5.175	0.062	-0.021	
5.180	-0.075	-0.012	
5.185	-0.069	-0.013	
5.190	0.023	-0.019	
5.195	-0.063	-0.023	
5.200	-0.061	-0.028	
5.205	0.015	-0.034	
5.210	-0.025	-0.032	
5.215	-0.124	-0.033	
5.220	-0.086	-0.044	
5.225	0.000	-0.055	
5.230	-0.043	-0.056	
5.235	-0.061	-0.053	
5.240	0.026	-0.048	
5.245	-0.060	-0.040	
5.250	-0.092	-0.037	
5.255	-0.011	-0.041	
5.260	-0.017	-0.041	
5.265	-0.144	-0.042	
5.270	-0.075	-0.053	
5.275	0.003	-0.061	
5.280	-0.063	-0.061	
5.285	-0.083	-0.058	
5.290	0.033	-0.056	
5.295	-0.071	-0.048	
5.300	-0.106	-0.045	
5.305	0.039	-0.047	
5.310	0.053	-0.038	
5.315	-0.029	-0.021	
5.320	0.076	-0.005	
5.325	0.131	0.015	
5.330	-0.022	0.037	
5.335	-0.037	0.043	
5.340	0.035	0.035	
5.345	-0.097	0.022	
5.350	-0.132	-0.002	
5.355	-0.025	-0.031	
5.360	-0.058	-0.051	
5.365	-0.144	-0.064	
5.370	-0.089	-0.079	
5.375	-0.002	-0.087	
5.380	-0.133	-0.085	
5.385	-0.116	-0.086	
5.390	0.058	-0.085	
5.395	-0.019	-0.070	
5.400	-0.083	-0.052	
5.405	0.020	-0.042	
5.410	-0.008	-0.031	
5.415	-0.087	-0.024	
5.420	-0.063	-0.027	
5.425	-0.040	-0.036	
5.430	-0.098	-0.044	
5.435	-0.101	-0.056	
5.440	0.004	-0.065	
5.445	-0.100	-0.066	
5.450	-0.155	-0.071	
5.455	-0.019	-0.080	
5.460	0.020	-0.077	
5.465	-0.107	-0.066	
5.470	-0.066	-0.060	
5.475	0.007	-0.057	
5.480	-0.100	-0.052	
5.485	-0.046	-0.051	
5.490	0.065	-0.047	
5.495	-0.038	-0.034	
5.500	-0.119	-0.027	
5.505	-0.034	-0.034	
5.510	-0.034	-0.041	
5.515	-0.141	-0.048	
5.520	-0.061	-0.060	
5.525	0.035	-0.065	
5.530	-0.083	-0.059	
5.535	-0.045	-0.054	
5.540	0.070	-0.046	
5.545	-0.055	-0.031	
5.550	-0.113	-0.026	
5.555	-0.011	-0.032	
5.560	-0.029	-0.036	
5.565	-0.083	-0.039	
5.570	-0.005	-0.042	
5.575	0.055	-0.038	
5.580	-0.080	-0.028	
5.585	-0.100	-0.027	
5.590	0.030	-0.033	
5.595	0.006	-0.031	
5.600	-0.080	-0.027	
5.605	0.006	-0.026	
5.610	-0.013	-0.025	
5.615	-0.107	-0.025	
5.620	-0.006	-0.032	
5.625	0.107	-0.030	
5.630	-0.081	-0.017	
5.635	-0.109	-0.016	
5.640	0.041	-0.024	
5.645	-0.048	-0.027	
5.650	-0.106	-0.031	
5.655	0.056	-0.036	
5.660	0.053	-0.030	
5.665	-0.092	-0.018	
5.670	-0.031	-0.016	
5.675	0.049	-0.017	
5.680	-0.045	-0.013	
5.685	-0.084	-0.015	
5.690	0.010	-0.022	
5.695	-0.029	-0.026	
5.700	-0.103	-0.030	
5.705	0.017	-0.037	
5.710	0.044	-0.034	
5.715	-0.054	-0.024	
5.720	-0.029	-0.019	
5.725	0.013	-0.018	
5.730	-0.087	-0.018	
5.735	-0.071	-0.025	
5.740	0.013	-0.034	
5.745	-0.083	-0.038	
5.750	-0.112	-0.045	
5.755	-0.011	-0.055	
5.760	-0.023	-0.057	
5.765	-0.116	-0.055	
5.770	-0.057	-0.059	
5.775	0.035	-0.059	
5.780	-0.066	-0.050	
5.785	-0.078	-0.045	
5.790	0.036	-0.043	
5.795	-0.038	-0.036	
5.800	-0.068	-0.031	
5.805	0.003	-0.030	
5.810	-0.028	-0.029	
5.815	-0.113	-0.030	
5.820	-0.083	-0.041	
5.825	0.006	-0.051	
5.830	-0.078	-0.054	
5.835	-0.109	-0.057	
5.840	-0.023	-0.063	
5.845	-0.069	-0.064	
5.850	-0.127	-0.067	
5.855	-0.038	-0.072	
5.860	-0.022	-0.072	
5.865	-0.042	-0.064	
5.870	-0.016	-0.054	
5.875	0.023	-0.042	
5.880	-0.055	-0.029	
5.885	-0.038	-0.023	
5.890	0.065	-0.019	
5.895	-0.042	-0.011	
5.900	-0.112	-0.011	
5.905	-0.002	-0.022	
5.910	0.003	-0.028	
5.915	-0.119	-0.031	
5.920	-0.087	-0.042	
5.925	-0.022	-0.054	
5.930	-0.086	-0.060	
5.935	-0.101	-0.065	
5.940	0.012	-0.069	
5.945	-0.052	-0.064	
5.950	-0.116	-0.059	
5.955	-0.020	-0.060	
5.960	-0.019	-0.057	
5.965	-0.109	-0.053	
5.970	-0.031	-0.054	
5.975	0.044	-0.050	
5.980	-0.107	-0.041	
5.985	-0.133	-0.043	
5.990	-0.046	-0.056	
5.995	-0.090	-0.066	
6.000	-0.097	-0.074	
6.005	0.056	-0.075	
6.010	0.003	-0.060	
6.015	-0.109	-0.044	
6.020	-0.011	-0.039	
6.025	0.104	-0.030	
6.030	-0.042	-0.013	
6.035	-0.072	-0.005	
6.040	0.140	-0.002	
6.045	0.024	0.011	
6.050	-0.122	0.018	
6.055	-0.026	0.007	
6.060	-0.029	-0.009	
6.065	-0.148	-0.026	
6.070	-0.097	-0.049	
6.075	-0.023	-0.068	
6.080	-0.078	-0.075	
6.085	-0.107	-0.078	
6.090	0.001	-0.078	
6.095	-0.042	-0.071	
6.100	-0.071	-0.061	
6.105	0.021	-0.053	
6.110	-0.023	-0.041	
6.115	-0.112	-0.034	
6.120	-0.034	-0.037	
6.125	0.036	-0.039	
6.130	-0.078	-0.034	
6.135	-0.093	-0.035	
6.140	0.020	-0.041	
6.145	-0.042	-0.040	
6.150	-0.104	-0.040	
6.155	0.023	-0.043	
6.160	0.015	-0.039	
6.165	-0.077	-0.031	
6.170	-0.074	-0.031	
6.175	-0.042	-0.037	
6.180	-0.098	-0.045	
6.185	-0.054	-0.054	
6.190	0.099	-0.054	
6.195	-0.042	-0.039	
6.200	-0.132	-0.030	
6.205	-0.022	-0.035	
6.210	-0.005	-0.039	
6.215	-0.110	-0.041	
6.220	-0.072	-0.048	
6.225	0.044	-0.052	
6.230	-0.061	-0.047	
6.235	-0.078	-0.043	
6.240	0.018	-0.042	
6.245	0.006	-0.036	
6.250	-0.098	-0.029	
6.255	-0.031	-0.031	
6.260	-0.026	-0.034	
6.265	-0.116	-0.039	
6.270	-0.078	-0.050	
6.275	-0.031	-0.060	
6.280	-0.072	-0.063	
6.285	-0.055	-0.064	
6.290	0.067	-0.058	
6.295	-0.017	-0.041	
6.300	-0.089	-0.028	
6.305	-0.006	-0.026	
6.310	0.000	-0.025	
6.315	-0.110	-0.025	
6.320	-0.058	-0.033	
6.325	0.064	-0.039	
6.330	-0.086	-0.035	
6.335	-0.089	-0.036	
6.340	0.010	-0.041	
6.345	-0.031	-0.041	
6.350	-0.109	-0.041	
6.355	0.010	-0.044	
6.360	0.035	-0.040	
6.365	-0.089	-0.031	
6.370	-0.009	-0.028	
6.375	0.096	-0.022	
6.380	-0.072	-0.010	
6.385	-0.103	-0.009	
6.390	-0.014	-0.020	
6.395	-0.014	-0.029	
6.400	-0.042	-0.032	
6.405	-0.005	-0.032	
6.410	-0.048	-0.031	
6.415	-0.109	-0.034	
6.420	-0.055	-0.044	
6.425	0.088	-0.047	
6.430	-0.068	-0.037	
6.435	-0.081	-0.032	
6.440	0.015	-0.033	
6.445	-0.061	-0.033	
6.450	-0.124	-0.037	
6.455	-0.026	-0.048	
6.460	-0.011	-0.053	
6.465	-0.122	-0.054	
6.470	-0.045	-0.058	
6.475	0.076	-0.056	
6.480	-0.055	-0.042	
6.485	-0.106	-0.034	
6.490	-0.014	-0.036	
6.495	-0.061	-0.040	
6.500	-0.095	-0.045	
6.505	0.012	-0.050	
6.510	0.009	-0.047	
6.515	-0.098	-0.039	
6.520	-0.052	-0.039	
6.525	0.055	-0.039	
6.530	-0.058	-0.032	
6.535	-0.083	-0.029	
6.540	0.007	-0.032	
6.545	-0.028	-0.032	
6.550	-0.074	-0.032	
6.555	0.036	-0.032	
6.560	0.015	-0.026	
6.565	-0.132	-0.021	
6.570	-0.078	-0.030	
6.575	-0.002	-0.042	
6.580	-0.063	-0.047	
6.585	-0.115	-0.052	
6.590	-0.040	-0.060	
6.595	-0.064	-0.065	
6.600	-0.136	-0.069	
6.605	-0.043	-0.076	
6.610	-0.016	-0.077	
6.615	-0.106	-0.071	
6.620	-0.069	-0.069	
6.625	0.027	-0.065	
6.630	-0.060	-0.055	
6.635	-0.086	-0.048	
6.640	0.039	-0.044	
6.645	-0.035	-0.036	
6.650	-0.100	-0.032	
6.655	0.009	-0.034	
6.660	0.065	-0.030	
6.665	-0.057	-0.018	
6.670	0.017	-0.011	
6.675	0.093	-0.002	
6.680	-0.058	0.010	
6.685	-0.107	0.007	
6.690	-0.022	-0.009	
6.695	-0.089	-0.026	
6.700	-0.153	-0.046	
6.705	-0.054	-0.068	
6.710	-0.034	-0.080	
6.715	-0.132	-0.083	
6.720	-0.083	-0.086	
6.725	0.009	-0.085	
6.730	-0.078	-0.076	
6.735	-0.089	-0.068	
6.740	0.013	-0.063	
6.745	-0.060	-0.054	
6.750	-0.147	-0.052	
6.755	0.003	-0.057	
6.760	0.020	-0.055	
6.765	-0.142	-0.048	
6.770	-0.126	-0.054	
6.775	-0.016	-0.066	
6.780	-0.095	-0.071	
6.785	-0.097	-0.075	
6.790	0.018	-0.075	
6.795	-0.063	-0.067	
6.800	-0.144	-0.062	
6.805	-0.003	-0.065	
6.810	0.036	-0.059	
6.815	-0.098	-0.047	
6.820	-0.066	-0.043	
6.825	0.015	-0.043	
6.830	-0.071	-0.040	
6.835	-0.118	-0.042	
6.840	-0.022	-0.051	
6.845	-0.089	-0.057	
6.850	-0.126	-0.065	
6.855	-0.037	-0.074	
6.860	0.001	-0.074	
6.865	-0.098	-0.066	
6.870	-0.090	-0.064	
6.875	0.020	-0.062	
6.880	-0.068	-0.056	
6.885	-0.093	-0.052	
6.890	-0.009	-0.053	
6.895	0.010	-0.048	
6.900	-0.074	-0.040	
6.905	-0.014	-0.035	
6.910	0.044	-0.029	
6.915	-0.083	-0.021	
6.920	-0.077	-0.023	
6.925	0.000	-0.030	
6.930	-0.061	-0.034	
6.935	-0.100	-0.041	
6.940	0.075	-0.045	
6.945	-0.019	-0.037	
6.950	-0.118	-0.030	
6.955	-0.035	-0.035	
6.960	0.047	-0.037	
6.965	-0.101	-0.033	
6.970	-0.084	-0.036	
6.975	0.047	-0.041	
6.980	-0.046	-0.038	
6.985	-0.083	-0.035	
6.990	-0.003	-0.037	
6.995	-0.066	-0.039	
7.000	-0.087	-0.042	
7.005	0.026	-0.046	
7.010	0.007	-0.041	
7.015	-0.103	-0.034	
7.020	-0.043	-0.035	
7.025	0.064	-0.035	
7.030	-0.078	-0.028	
7.035	-0.126	-0.030	
7.040	0.007	-0.040	
7.045	-0.028	-0.044	
7.050	-0.098	-0.044	
7.055	-0.013	-0.047	
7.060	0.018	-0.045	
7.065	-0.103	-0.039	
7.070	-0.063	-0.041	
7.075	0.088	-0.040	
7.080	-0.028	-0.029	
7.085	-0.100	-0.021	
7.090	-0.029	-0.025	
7.095	-0.074	-0.033	
7.100	-0.119	-0.045	
7.105	-0.037	-0.058	
7.110	-0.014	-0.064	
7.115	-0.122	-0.063	
7.120	-0.077	-0.067	
7.125	0.036	-0.067	
7.130	-0.034	-0.057	
7.135	-0.080	-0.046	
7.140	0.072	-0.038	
7.145	-0.019	-0.025	
7.150	-0.121	-0.018	
7.155	0.021	-0.022	
7.160	0.072	-0.021	
7.165	-0.110	-0.013	
7.170	-0.100	-0.019	
7.175	0.044	-0.030	
7.180	-0.032	-0.032	
7.185	-0.054	-0.031	
7.190	0.070	-0.028	
7.195	0.029	-0.016	
7.200	-0.084	-0.005	
7.205	-0.011	-0.006	
7.210	0.013	-0.009	
7.215	-0.100	-0.013	
7.220	-0.107	-0.026	
7.225	0.090	-0.038	
7.230	-0.022	-0.035	
7.235	-0.101	-0.029	
7.240	0.026	-0.030	
7.245	-0.029	-0.029	
7.250	-0.116	-0.030	
7.255	-0.035	-0.038	
7.260	0.061	-0.041	
7.265	-0.087	-0.035	
7.270	-0.097	-0.035	
7.275	0.033	-0.040	
7.280	-0.066	-0.040	
7.285	-0.116	-0.042	
7.290	-0.013	-0.050	
7.295	-0.008	-0.051	
7.300	-0.092	-0.048	
7.305	0.009	-0.046	
7.310	0.085	-0.036	
7.315	0.059	-0.014	
7.320	0.104	0.014	
7.325	0.131	0.044	
7.330	-0.052	0.065	
7.335	-0.087	0.060	
7.340	-0.016	0.036	
7.345	-0.058	0.009	
7.350	-0.110	-0.017	
7.355	-0.032	-0.041	
7.360	-0.006	-0.054	
7.365	-0.087	-0.056	
7.370	-0.071	-0.059	
7.375	0.061	-0.057	
7.380	-0.043	-0.045	
7.385	-0.112	-0.037	
7.390	0.018	-0.038	
7.395	0.009	-0.034	
7.400	-0.115	-0.030	
7.405	-0.080	-0.036	
7.410	0.013	-0.045	
7.415	-0.072	-0.046	
7.420	-0.064	-0.047	
7.425	0.075	-0.045	
7.430	-0.045	-0.034	
7.435	-0.097	-0.027	
7.440	-0.002	-0.030	
7.445	-0.028	-0.032	
7.450	-0.081	-0.033	
7.455	0.017	-0.036	
7.460	0.029	-0.031	
7.465	-0.126	-0.026	
7.470	-0.106	-0.033	
7.475	0.041	-0.045	
7.480	-0.025	-0.044	
7.485	-0.086	-0.040	
7.490	0.046	-0.038	
7.495	0.033	-0.028	
7.500	-0.084	-0.016	
7.505	-0.006	-0.014	
7.510	0.035	-0.014	
7.515	-0.078	-0.011	
7.520	-0.055	-0.016	
7.525	0.021	-0.024	
7.530	-0.095	-0.028	
7.535	-0.097	-0.037	
7.540	-0.013	-0.048	
7.545	-0.003	-0.051	
7.550	-0.116	-0.049	
7.555	-0.009	-0.050	
7.560	0.049	-0.046	
7.565	-0.063	-0.034	
7.570	-0.042	-0.027	
7.575	0.101	-0.021	
7.580	0.013	-0.006	
7.585	-0.089	0.004	
7.590	0.020	0.002	
7.595	-0.013	-0.003	
7.600	-0.072	-0.008	
7.605	-0.008	-0.017	
7.610	-0.032	-0.023	
7.615	-0.132	-0.032	
7.620	-0.057	-0.046	
7.625	0.099	-0.052	
7.630	-0.006	-0.039	
7.635	-0.100	-0.026	
7.640	0.039	-0.022	
7.645	0.013	-0.017	
7.650	-0.074	-0.011	
7.655	0.027	-0.011	
7.660	0.024	-0.009	
7.665	-0.097	-0.007	
7.670	-0.072	-0.016	
7.675	0.049	-0.026	
7.680	-0.049	-0.028	
7.685	-0.113	-0.031	
7.690	-0.025	-0.040	
7.695	0.029	-0.044	
7.700	-0.095	-0.040	
7.705	-0.037	-0.040	
7.710	0.038	-0.039	
7.715	-0.080	-0.033	
7.720	-0.081	-0.033	
7.725	-0.009	-0.039	
7.730	-0.080	-0.043	
7.735	-0.112	-0.050	
7.740	0.044	-0.056	
7.745	0.013	-0.049	
7.750	-0.112	-0.039	
7.755	-0.049	-0.038	
7.760	0.038	-0.039	
7.765	-0.095	-0.035	
7.770	-0.060	-0.037	
7.775	0.062	-0.038	
7.780	-0.069	-0.031	
7.785	-0.107	-0.031	
7.790	0.007	-0.038	
7.795	0.001	-0.038	
7.800	-0.107	-0.036	
7.805	-0.023	-0.039	
7.810	0.012	-0.040	
7.815	-0.116	-0.038	
7.820	-0.097	-0.045	
7.825	0.058	-0.052	
7.830	-0.090	-0.049	
7.835	-0.100	-0.049	
7.840	0.035	-0.051	
7.845	-0.009	-0.045	
7.850	-0.115	-0.038	
7.855	-0.051	-0.041	
7.860	0.053	-0.042	
7.865	-0.028	-0.034	
7.870	0.001	-0.024	
7.875	0.082	-0.012	
7.880	-0.035	0.003	
7.885	-0.081	0.006	
7.890	-0.003	-0.003	
7.895	-0.045	-0.013	
7.900	-0.121	-0.025	
7.905	-0.048	-0.042	
7.910	0.053	-0.050	
7.915	-0.092	-0.046	
7.920	-0.087	-0.046	
7.925	0.027	-0.048	
7.930	-0.066	-0.045	
7.935	-0.129	-0.046	
7.940	-0.017	-0.054	
7.945	0.007	-0.055	
7.950	-0.110	-0.050	
7.955	-0.025	-0.050	
7.960	0.044	-0.046	
7.965	-0.061	-0.035	
7.970	-0.089	-0.031	
7.975	0.018	-0.034	
7.980	-0.060	-0.034	
7.985	-0.084	-0.036	
7.990	0.081	-0.038	
7.995	0.101	-0.023	
8.000	-0.014	0.001	
8.005	0.062	0.018	
8.010	0.116	0.034	
8.015	-0.037	0.048	
8.020	-0.046	0.045	
8.025	0.050	0.032	
8.030	-0.043	0.020	
8.035	-0.106	0.004	
8.040	-0.042	-0.018	
8.045	-0.019	-0.035	
8.050	-0.104	-0.046	
8.055	-0.025	-0.054	
8.060	0.003	-0.055	
8.065	-0.104	-0.051	
8.070	-0.092	-0.053	
8.075	0.013	-0.057	
8.080	-0.066	-0.055	
8.085	-0.126	-0.055	
8.090	-0.009	-0.060	
8.095	0.015	-0.057	
8.100	-0.098	-0.049	
8.105	-0.061	-0.047	
8.110	-0.005	-0.048	
8.115	-0.101	-0.047	
8.120	-0.066	-0.051	
8.125	0.049	-0.052	
8.130	-0.063	-0.044	
8.135	-0.098	-0.040	
8.140	0.010	-0.042	
8.145	-0.020	-0.040	
8.150	-0.104	-0.038	
8.155	-0.029	-0.042	
8.160	0.012	-0.043	
8.165	-0.115	-0.041	
8.170	-0.077	-0.046	
8.175	0.068	-0.049	
8.180	-0.061	-0.042	
8.185	-0.115	-0.038	
8.190	-0.013	-0.043	
8.195	-0.029	-0.046	
8.200	-0.118	-0.047	
8.205	-0.003	-0.052	
8.210	0.067	-0.047	
8.215	-0.104	-0.035	
8.220	-0.074	-0.032	
8.225	0.058	-0.034	
8.230	-0.052	-0.029	
8.235	-0.138	-0.030	
8.240	0.000	-0.040	
8.245	-0.002	-0.044	
8.250	-0.106	-0.043	
8.255	-0.037	-0.046	
8.260	0.026	-0.046	
8.265	-0.107	-0.042	
8.270	-0.057	-0.043	
8.275	0.058	-0.044	
8.280	-0.023	-0.034	
8.285	-0.077	-0.026	
8.290	0.018	-0.025	
8.295	0.018	-0.020	
8.300	-0.081	-0.016	
8.305	0.018	-0.016	
8.310	0.042	-0.014	
8.315	-0.081	-0.009	
8.320	-0.097	-0.015	
8.325	-0.003	-0.028	
8.330	-0.081	-0.038	
8.335	-0.103	-0.048	
8.340	0.030	-0.056	
8.345	-0.009	-0.052	
8.350	-0.124	-0.046	
8.355	-0.075	-0.049	
8.360	0.030	-0.053	
8.365	-0.057	-0.049	
8.370	-0.087	-0.045	
8.375	0.042	-0.044	
8.380	-0.035	-0.037	
8.385	-0.058	-0.031	
8.390	0.085	-0.025	
8.395	-0.005	-0.013	
8.400	-0.132	-0.007	
8.405	-0.066	-0.018	
8.410	-0.019	-0.033	
8.415	-0.110	-0.045	
8.420	-0.116	-0.058	
8.425	-0.029	-0.071	
8.430	-0.089	-0.077	
8.435	-0.145	-0.082	
8.440	-0.060	-0.089	
8.445	-0.028	-0.090	
8.450	-0.115	-0.084	
8.455	-0.051	-0.080	
8.460	0.003	-0.073	
8.465	-0.078	-0.062	
8.470	-0.055	-0.055	
8.475	-0.005	-0.050	
8.480	-0.071	-0.045	
8.485	-0.086	-0.044	
8.490	0.020	-0.046	
8.495	-0.022	-0.042	
8.500	-0.126	-0.039	
8.505	-0.068	-0.046	
8.510	0.036	-0.051	
8.515	-0.075	-0.048	
8.520	-0.118	-0.048	
8.525	0.018	-0.053	
8.530	-0.042	-0.051	
8.535	-0.124	-0.049	
8.540	-0.032	-0.054	
8.545	-0.029	-0.057	
8.550	-0.139	-0.058	
8.555	-0.083	-0.066	
8.560	-0.037	-0.074	
8.565	-0.069	-0.074	
8.570	-0.049	-0.071	
8.575	0.026	-0.063	
8.580	-0.063	-0.050	
8.585	-0.121	-0.045	
8.590	-0.013	-0.049	
8.595	-0.020	-0.049	
8.600	-0.130	-0.049	
8.605	-0.075	-0.056	
8.610	-0.035	-0.064	
8.615	-0.115	-0.068	
8.620	-0.145	-0.076	
8.625	-0.052	-0.088	
8.630	-0.113	-0.094	
8.635	-0.141	-0.099	
8.640	-0.058	-0.104	
8.645	0.009	-0.099	
8.650	-0.031	-0.081	
8.655	0.099	-0.056	
8.660	0.159	-0.018	
8.665	-0.020	0.023	
8.670	-0.028	0.042	
8.675	0.081	0.044	
8.680	-0.028	0.042	
8.685	-0.177	0.026	
8.690	-0.104	-0.009	
8.695	-0.077	-0.046	
8.700	-0.162	-0.075	
8.705	-0.098	-0.098	
8.710	-0.034	-0.110	
8.715	-0.144	-0.110	
8.720	-0.129	-0.110	
8.725	0.039	-0.107	
8.730	-0.049	-0.090	
8.735	-0.113	-0.073	
8.740	-0.019	-0.065	
8.745	-0.020	-0.057	
8.750	-0.119	-0.050	
8.755	-0.048	-0.052	
8.760	0.023	-0.052	
8.765	-0.098	-0.047	
8.770	-0.116	-0.050	
8.775	-0.028	-0.058	
8.780	-0.083	-0.063	
8.785	-0.155	-0.070	
8.790	-0.060	-0.081	
8.795	-0.019	-0.086	
8.800	-0.095	-0.081	
8.805	-0.032	-0.074	
8.810	0.032	-0.064	
8.815	-0.104	-0.050	
8.820	-0.069	-0.045	
8.825	0.091	-0.042	
8.830	-0.008	-0.027	
8.835	-0.112	-0.017	
8.840	-0.052	-0.022	
8.845	-0.043	-0.032	
8.850	-0.113	-0.043	
8.855	-0.072	-0.056	
8.860	0.021	-0.063	
8.865	-0.095	-0.061	
8.870	-0.113	-0.061	
8.875	-0.049	-0.067	
8.880	-0.097	-0.072	
8.885	-0.098	-0.077	
8.890	0.029	-0.077	
8.895	0.030	-0.064	
8.900	-0.116	-0.046	
8.905	-0.100	-0.043	
8.910	0.041	-0.046	
8.915	-0.026	-0.041	
8.920	-0.068	-0.035	
8.925	0.042	-0.031	
8.930	-0.032	-0.024	
8.935	-0.118	-0.022	
8.940	-0.020	-0.031	
8.945	-0.019	-0.038	
8.950	-0.121	-0.042	
8.955	-0.086	-0.053	
8.960	0.021	-0.061	
8.965	-0.042	-0.057	
8.970	-0.083	-0.052	
8.975	-0.016	-0.050	
8.980	-0.025	-0.046	
8.985	-0.083	-0.042	
8.990	-0.008	-0.042	
8.995	-0.019	-0.039	
9.000	-0.126	-0.039	
9.005	-0.069	-0.047	
9.010	0.050	-0.052	
9.015	-0.078	-0.047	
9.020	-0.098	-0.046	
9.025	0.017	-0.048	
9.030	-0.071	-0.047	
9.035	-0.152	-0.050	
9.040	-0.049	-0.062	
9.045	-0.011	-0.069	
9.050	-0.145	-0.069	
9.055	-0.078	-0.074	
9.060	0.017	-0.076	
9.065	-0.107	-0.070	
9.070	-0.107	-0.068	
9.075	0.001	-0.069	
9.080	-0.090	-0.066	
9.085	-0.139	-0.067	
9.090	-0.019	-0.073	
9.095	-0.003	-0.071	
9.100	-0.112	-0.063	
9.105	-0.112	-0.063	
9.110	-0.026	-0.068	
9.115	-0.112	-0.071	
9.120	-0.126	-0.076	
9.125	-0.002	-0.082	
9.130	-0.064	-0.078	
9.135	-0.124	-0.074	
9.140	-0.052	-0.075	
9.145	-0.011	-0.073	
9.150	-0.045	-0.064	
9.155	0.013	-0.051	
9.160	0.042	-0.035	
9.165	-0.103	-0.020	
9.170	-0.136	-0.023	
9.175	-0.046	-0.040	
9.180	-0.093	-0.056	
9.185	-0.153	-0.071	
9.190	-0.081	-0.087	
9.195	-0.037	-0.096	
9.200	-0.142	-0.096	
9.205	-0.086	-0.097	
9.210	-0.043	-0.096	
9.215	-0.122	-0.092	
9.220	-0.101	-0.090	
9.225	0.033	-0.087	
9.230	-0.022	-0.071	
9.235	-0.133	-0.057	
9.240	-0.089	-0.057	
9.245	-0.075	-0.064	
9.250	-0.164	-0.075	
9.255	-0.112	-0.090	
9.260	-0.064	-0.101	
9.265	-0.106	-0.104	
9.270	-0.103	-0.104	
9.275	0.062	-0.096	
9.280	0.018	-0.073	
9.285	-0.066	-0.046	
9.290	0.038	-0.028	
9.295	0.035	-0.012	
9.300	-0.069	-0.000	
9.305	-0.009	0.001	
9.310	0.062	-0.000	
9.315	-0.095	0.000	
9.320	-0.100	-0.010	
9.325	-0.040	-0.029	
9.330	-0.115	-0.046	
9.335	-0.179	-0.067	
9.340	-0.112	-0.092	
9.345	-0.068	-0.109	
9.350	-0.142	-0.115	
9.355	-0.071	-0.116	
9.360	0.006	-0.108	
9.365	-0.113	-0.092	
9.370	-0.081	-0.081	
9.375	0.020	-0.073	
9.380	-0.077	-0.061	
9.385	-0.100	-0.054	
9.390	0.064	-0.051	
9.395	0.044	-0.036	
9.400	-0.127	-0.022	
9.405	-0.098	-0.024	
9.410	-0.025	-0.037	
9.415	-0.107	-0.049	
9.420	-0.121	-0.062	
9.425	-0.003	-0.073	
9.430	-0.034	-0.073	
9.435	-0.145	-0.069	
9.440	-0.060	-0.072	
9.445	-0.031	-0.074	
9.450	-0.132	-0.073	
9.455	-0.045	-0.075	
9.460	0.035	-0.070	
9.465	-0.032	-0.055	
9.470	-0.074	-0.043	
9.475	0.088	-0.033	
9.480	0.009	-0.017	
9.485	-0.103	-0.006	
9.490	-0.016	-0.009	
9.495	-0.023	-0.016	
9.500	-0.159	-0.027	
9.505	-0.093	-0.047	
9.510	0.017	-0.064	
9.515	-0.074	-0.066	
9.520	-0.098	-0.066	
9.525	0.007	-0.066	
9.530	-0.008	-0.058	
9.535	-0.090	-0.048	
9.540	0.001	-0.043	
9.545	0.021	-0.035	
9.550	-0.071	-0.026	
9.555	-0.035	-0.024	
9.560	0.062	-0.023	
9.565	-0.075	-0.017	
9.570	-0.115	-0.020	
9.575	-0.002	-0.032	
9.580	-0.040	-0.040	
9.585	-0.086	-0.044	
9.590	-0.017	-0.048	
9.595	-0.006	-0.047	
9.600	-0.103	-0.044	
9.605	-0.045	-0.046	
9.610	0.059	-0.045	
9.615	-0.058	-0.035	
9.620	-0.086	-0.031	
9.625	0.065	-0.030	
9.630	-0.006	-0.023	
9.635	-0.106	-0.017	
9.640	-0.020	-0.022	
9.645	0.000	-0.028	
9.650	-0.161	-0.033	
9.655	-0.126	-0.051	
9.660	0.082	-0.065	
9.665	-0.075	-0.062	
9.670	-0.113	-0.057	
9.675	0.029	-0.057	
9.680	-0.032	-0.050	
9.685	-0.110	-0.045	
9.690	-0.022	-0.046	
9.695	-0.009	-0.046	
9.700	-0.095	-0.044	
9.705	-0.048	-0.046	
9.710	0.020	-0.046	
9.715	-0.089	-0.043	
9.720	-0.115	-0.045	
9.725	-0.034	-0.055	
9.730	-0.074	-0.061	
9.735	-0.109	-0.066	
9.740	-0.019	-0.071	
9.745	-0.026	-0.068	
9.750	-0.119	-0.063	
9.755	-0.090	-0.065	
9.760	-0.020	-0.069	
9.765	-0.068	-0.067	
9.770	-0.060	-0.064	
9.775	0.013	-0.059	
9.780	-0.046	-0.049	
9.785	-0.075	-0.042	
9.790	-0.002	-0.040	
9.795	0.012	-0.035	
9.800	-0.064	-0.028	
9.805	-0.043	-0.027	
9.810	0.041	-0.026	
9.815	-0.054	-0.022	
9.820	-0.072	-0.022	
9.825	-0.011	-0.028	
9.830	-0.058	-0.032	
9.835	-0.132	-0.041	
9.840	0.046	-0.050	
9.845	0.033	-0.046	
9.850	-0.124	-0.036	
9.855	-0.126	-0.040	
9.860	-0.038	-0.054	
9.865	-0.083	-0.064	
9.870	-0.097	-0.071	
9.875	0.007	-0.074	
9.880	-0.072	-0.068	
9.885	-0.156	-0.067	
9.890	-0.043	-0.073	
9.895	-0.005	-0.075	
9.900	-0.087	-0.068	
9.905	-0.068	-0.063	
9.910	0.023	-0.059	
9.915	-0.110	-0.052	
9.920	-0.115	-0.053	
9.925	0.038	-0.058	
9.930	0.091	-0.047	
9.935	0.000	-0.023	
9.940	0.075	0.001	
9.945	0.096	0.024	
9.950	-0.087	0.039	
9.955	-0.081	0.032	
9.960	-0.011	0.010	
9.965	-0.115	-0.012	
9.970	-0.161	-0.039	
9.975	-0.031	-0.067	
9.980	-0.049	-0.081	
9.985	-0.122	-0.084	
9.990	-0.051	-0.086	
9.995	-0.019	-0.083	
10.000	-0.130	-0.076	
10.005	-0.122	-0.077	
10.010	-0.020	-0.081	
10.015	-0.054	-0.079	
10.020	-0.092	-0.073	
10.025	-0.020	-0.068	
10.030	-0.020	-0.061	
10.035	-0.098	-0.053	
10.040	-0.045	-0.051	
10.045	-0.014	-0.051	
10.050	-0.132	-0.050	
10.055	-0.101	-0.058	
10.060	0.009	-0.066	
10.065	-0.069	-0.065	
10.070	-0.115	-0.064	
10.075	-0.032	-0.067	
10.080	-0.042	-0.066	
10.085	-0.101	-0.063	
10.090	0.001	-0.062	
10.095	0.027	-0.053	
10.100	-0.119	-0.042	
10.105	-0.090	-0.042	
10.110	-0.002	-0.049	
10.115	-0.104	-0.052	
10.120	-0.097	-0.058	
10.125	0.068	-0.061	
10.130	-0.002	-0.049	
10.135	-0.115	-0.037	
10.140	-0.048	-0.037	
10.145	-0.032	-0.041	
10.150	-0.116	-0.046	
10.155	-0.089	-0.057	
10.160	0.056	-0.062	
10.165	0.000	-0.052	
10.170	-0.087	-0.039	
10.175	-0.020	-0.035	
10.180	0.006	-0.032	
10.185	-0.109	-0.030	
10.190	-0.055	-0.036	
10.195	0.042	-0.040	
10.200	-0.063	-0.036	
10.205	-0.054	-0.034	
10.210	0.006	-0.034	
10.215	-0.086	-0.034	
10.220	-0.080	-0.039	
10.225	0.084	-0.042	
10.230	0.024	-0.030	
10.235	-0.095	-0.017	
10.240	0.046	-0.013	
10.245	0.015	-0.008	
10.250	-0.087	-0.005	
10.255	-0.063	-0.013	
10.260	0.064	-0.021	
10.265	-0.064	-0.021	
10.270	-0.124	-0.026	
10.275	-0.008	-0.038	
10.280	-0.014	-0.045	
10.285	-0.100	-0.046	
10.290	-0.029	-0.049	
10.295	0.000	-0.049	
10.300	-0.115	-0.046	
10.305	-0.063	-0.050	
10.310	0.075	-0.050	
10.315	-0.071	-0.041	
10.320	-0.109	-0.036	
10.325	0.015	-0.040	
10.330	-0.049	-0.040	
10.335	-0.116	-0.042	
10.340	-0.005	-0.049	
10.345	0.017	-0.048	
10.350	-0.084	-0.041	
10.355	-0.060	-0.040	
10.360	0.042	-0.040	
10.365	-0.090	-0.035	
10.370	-0.122	-0.038	
10.375	0.003	-0.048	
10.380	-0.025	-0.051	
10.385	-0.136	-0.051	
10.390	-0.058	-0.058	
10.395	-0.014	-0.063	
10.400	-0.106	-0.063	
10.405	-0.092	-0.066	
10.410	0.000	-0.068	
10.415	-0.022	-0.062	
10.420	-0.100	-0.054	
10.425	0.003	-0.051	
10.430	0.013	-0.043	
10.435	-0.098	-0.035	
10.440	-0.055	-0.035	
10.445	-0.025	-0.039	
10.450	-0.107	-0.044	
10.455	-0.080	-0.053	
10.460	0.052	-0.058	
10.465	-0.055	-0.051	
10.470	-0.097	-0.045	
10.475	0.041	-0.044	
10.480	-0.063	-0.038	
10.485	-0.127	-0.038	
10.490	-0.013	-0.047	
10.495	0.084	-0.045	
10.500	-0.081	-0.033	
10.505	-0.074	-0.028	
10.510	0.036	-0.029	
10.515	-0.061	-0.027	
10.520	-0.095	-0.029	
10.525	-0.011	-0.037	
10.530	-0.029	-0.041	
10.535	-0.115	-0.044	
10.540	-0.051	-0.051	
10.545	0.009	-0.055	
10.550	-0.142	-0.055	
10.555	-0.135	-0.064	
10.560	0.010	-0.075	
10.565	-0.052	-0.074	
10.570	-0.095	-0.069	
10.575	-0.016	-0.065	
10.580	-0.045	-0.059	
10.585	-0.133	-0.057	
10.590	-0.003	-0.059	
10.595	0.093	-0.052	
10.600	-0.064	-0.033	
10.605	-0.002	-0.020	
10.610	0.136	-0.006	
10.615	0.012	0.015	
10.620	-0.045	0.027	
10.625	0.070	0.028	
10.630	-0.064	0.025	
10.635	-0.141	0.010	
10.640	-0.035	-0.017	
10.645	0.007	-0.037	
10.650	-0.121	-0.046	
10.655	-0.103	-0.058	
10.660	0.009	-0.067	
10.665	-0.086	-0.068	
10.670	-0.116	-0.068	
10.675	-0.019	-0.071	
10.680	-0.038	-0.069	
10.685	-0.130	-0.065	
10.690	-0.043	-0.067	
10.695	-0.003	-0.066	
10.700	-0.107	-0.060	
10.705	-0.107	-0.061	
10.710	-0.013	-0.066	
10.715	-0.097	-0.067	
10.720	-0.133	-0.070	
10.725	-0.019	-0.077	
10.730	-0.011	-0.074	
10.735	-0.083	-0.065	
10.740	-0.034	-0.058	
10.745	-0.026	-0.052	
10.750	-0.107	-0.049	
10.755	-0.055	-0.051	
10.760	0.076	-0.050	
10.765	-0.051	-0.038	
10.770	-0.127	-0.032	
10.775	-0.029	-0.039	
10.780	-0.074	-0.047	
10.785	-0.138	-0.057	
10.790	-0.055	-0.070	
10.795	-0.003	-0.075	
10.800	-0.106	-0.071	
10.805	-0.061	-0.069	
10.810	0.038	-0.064	
10.815	-0.080	-0.053	
10.820	-0.119	-0.049	
10.825	-0.005	-0.053	
10.830	0.017	-0.050	
10.835	-0.069	-0.041	
10.840	0.029	-0.034	
10.845	0.041	-0.022	
10.850	-0.095	-0.012	
10.855	-0.084	-0.015	
10.860	0.024	-0.025	
10.865	-0.031	-0.029	
10.870	-0.066	-0.030	
10.875	0.050	-0.030	
10.880	0.024	-0.022	
10.885	-0.100	-0.014	
10.890	-0.029	-0.017	
10.895	0.018	-0.022	
10.900	-0.089	-0.024	
10.905	-0.058	-0.031	
10.910	0.053	-0.035	
10.915	-0.002	-0.029	
10.920	-0.013	-0.019	
10.925	0.085	-0.008	
10.930	0.030	0.008	
10.935	-0.083	0.017	
10.940	0.024	0.013	
10.945	0.024	0.008	
10.950	-0.107	0.003	
10.955	-0.069	-0.012	
10.960	0.056	-0.026	
10.965	-0.040	-0.028	
10.970	-0.118	-0.030	
10.975	0.020	-0.038	
10.980	0.009	-0.038	
10.985	-0.104	-0.034	
10.990	-0.051	-0.037	
10.995	0.050	-0.039	
11.000	-0.048	-0.033	
11.005	-0.068	-0.029	
11.010	0.007	-0.030	
11.015	-0.087	-0.031	
11.020	-0.119	-0.039	
11.025	-0.008	-0.051	
11.030	-0.019	-0.055	
11.035	-0.086	-0.053	
11.040	-0.043	-0.053	
11.045	0.042	-0.049	
11.050	-0.087	-0.040	
11.055	-0.083	-0.038	
11.060	0.047	-0.040	
11.065	-0.051	-0.035	
11.070	-0.097	-0.033	
11.075	0.039	-0.036	
11.080	0.033	-0.029	
11.085	-0.107	-0.021	
11.090	-0.055	-0.024	
11.095	0.020	-0.030	
11.100	-0.090	-0.032	
11.105	-0.069	-0.038	
11.110	0.001	-0.045	
11.115	-0.045	-0.045	
11.120	-0.107	-0.045	
11.125	0.027	-0.048	
11.130	0.033	-0.041	
11.135	-0.078	-0.030	
11.140	-0.025	-0.025	
11.145	0.024	-0.023	
11.150	-0.075	-0.020	
11.155	-0.037	-0.023	
11.160	0.114	-0.021	
11.165	-0.029	-0.009	
11.170	-0.098	-0.003	
11.175	-0.023	-0.011	
11.180	-0.029	-0.021	
11.185	-0.101	-0.031	
11.190	-0.048	-0.042	
11.195	-0.006	-0.050	
11.200	-0.121	-0.053	
11.205	-0.104	-0.061	
11.210	0.026	-0.067	
11.215	-0.078	-0.064	
11.220	-0.133	-0.063	
11.225	-0.020	-0.068	
11.230	-0.031	-0.067	
11.235	-0.115	-0.063	
11.240	-0.045	-0.064	
11.245	-0.006	-0.062	
11.250	-0.100	-0.057	
11.255	-0.075	-0.057	
11.260	0.072	-0.055	
11.265	0.023	-0.039	
11.270	0.024	-0.018	
11.275	0.172	0.007	
11.280	0.097	0.040	
11.285	-0.074	0.062	
11.290	-0.020	0.058	
11.295	0.052	0.043	
11.300	-0.104	0.026	
11.305	-0.126	0.000	
11.310	-0.038	-0.031	
11.315	-0.089	-0.054	
11.320	-0.126	-0.071	
11.325	-0.017	-0.083	
11.330	-0.014	-0.081	
11.335	-0.107	-0.073	
11.340	-0.045	-0.068	
11.345	0.004	-0.061	
11.350	-0.092	-0.053	
11.355	-0.054	-0.050	
11.360	0.047	-0.046	
11.365	-0.052	-0.036	
11.370	-0.118	-0.033	
11.375	-0.025	-0.040	
11.380	-0.017	-0.044	
11.385	-0.156	-0.048	
11.390	-0.060	-0.059	
11.395	0.079	-0.063	
11.400	-0.074	-0.052	
11.405	-0.072	-0.043	
11.410	0.052	-0.039	
11.415	-0.035	-0.030	
11.420	-0.112	-0.026	
11.425	-0.017	-0.032	
11.430	-0.013	-0.036	
11.435	-0.127	-0.039	
11.440	-0.055	-0.049	
11.445	0.009	-0.055	
11.450	-0.092	-0.054	
11.455	-0.042	-0.053	
11.460	0.044	-0.049	
11.465	-0.075	-0.039	
11.470	-0.145	-0.039	
11.475	-0.005	-0.049	
11.480	0.010	-0.051	
11.485	-0.086	-0.046	
11.490	-0.040	-0.044	
11.495	0.023	-0.042	
11.500	-0.084	-0.037	
11.505	-0.061	-0.037	
11.510	0.076	-0.036	
11.515	-0.051	-0.027	
11.520	-0.072	-0.022	
11.525	-0.003	-0.025	
11.530	-0.051	-0.028	
11.535	-0.084	-0.033	
11.540	0.009	-0.039	
11.545	0.070	-0.034	
11.550	-0.060	-0.022	
11.555	-0.083	-0.018	
11.560	0.061	-0.020	
11.565	-0.048	-0.018	
11.570	-0.121	-0.021	
11.575	0.006	-0.031	
11.580	0.015	-0.035	
11.585	-0.084	-0.033	
11.590	0.024	-0.032	
11.595	0.067	-0.024	
11.600	-0.087	-0.012	
11.605	-0.121	-0.015	
11.610	0.018	-0.028	
11.615	-0.037	-0.035	
11.620	-0.121	-0.040	
11.625	0.015	-0.047	
11.630	0.003	-0.046	
11.635	-0.124	-0.042	
11.640	-0.060	-0.046	
11.645	0.038	-0.049	
11.650	-0.095	-0.045	
11.655	-0.071	-0.045	
11.660	0.038	-0.046	
11.665	-0.051	-0.040	
11.670	-0.122	-0.038	
11.675	-0.026	-0.045	
11.680	-0.035	-0.050	
11.685	-0.112	-0.053	
11.690	-0.048	-0.058	
11.695	-0.019	-0.061	
11.700	-0.097	-0.059	
11.705	-0.095	-0.062	
11.710	0.039	-0.063	
11.715	-0.066	-0.056	
11.720	-0.133	-0.052	
11.725	-0.037	-0.058	
11.730	-0.008	-0.060	
11.735	-0.084	-0.056	
11.740	-0.054	-0.055	
11.745	-0.025	-0.054	
11.750	-0.121	-0.054	
11.755	-0.052	-0.059	
11.760	0.072	-0.057	
11.765	-0.016	-0.042	
11.770	-0.064	-0.029	
11.775	0.047	-0.021	
11.780	-0.020	-0.013	
11.785	-0.136	-0.012	
11.790	-0.087	-0.028	
11.795	-0.011	-0.045	
11.800	-0.118	-0.055	
11.805	-0.136	-0.068	
11.810	-0.008	-0.080	
11.815	-0.083	-0.082	
11.820	-0.145	-0.083	
11.825	-0.046	-0.087	
11.830	-0.026	-0.085	
11.835	-0.145	-0.080	
11.840	-0.106	-0.082	
11.845	-0.023	-0.086	
11.850	-0.092	-0.083	
11.855	-0.080	-0.079	
11.860	0.013	-0.074	
11.865	-0.069	-0.063	
11.870	-0.121	-0.058	
11.875	0.006	-0.058	
11.880	0.091	-0.049	
11.885	-0.022	-0.027	
11.890	0.038	-0.008	
11.895	0.110	0.011	
11.900	-0.077	0.026	
11.905	-0.100	0.022	
11.910	0.006	0.004	
11.915	-0.092	-0.014	
11.920	-0.176	-0.037	
11.925	-0.071	-0.065	
11.930	-0.052	-0.084	
11.935	-0.132	-0.092	
11.940	-0.078	-0.097	
11.945	-0.002	-0.095	
11.950	-0.121	-0.086	
11.955	-0.124	-0.082	
11.960	0.020	-0.082	
11.965	-0.026	-0.071	
11.970	-0.126	-0.060	
11.975	-0.064	-0.060	
11.980	-0.017	-0.061	
11.985	-0.092	-0.059	
11.990	-0.045	-0.058	
11.995	0.004	-0.056	
12.000	-0.119	-0.051	
12.005	-0.116	-0.056	
12.010	-0.034	-0.065	
12.015	-0.089	-0.071	
12.020	-0.144	-0.077	
12.025	-0.003	-0.083	
12.030	0.033	-0.076	
12.035	-0.109	-0.061	
12.040	-0.038	-0.052	
12.045	0.030	-0.046	
12.050	-0.112	-0.038	
12.055	-0.132	-0.042	
12.060	-0.048	-0.056	
12.065	-0.055	-0.066	
12.070	-0.118	-0.071	
12.075	-0.002	-0.074	
12.080	-0.016	-0.068	
12.085	-0.145	-0.061	
12.090	-0.074	-0.064	
12.095	0.007	-0.066	
12.100	-0.110	-0.063	
12.105	-0.093	-0.064	
12.110	0.015	-0.066	
12.115	-0.028	-0.059	
12.120	-0.083	-0.050	
12.125	0.001	-0.045	
12.130	0.017	-0.038	
12.135	-0.103	-0.030	
12.140	-0.046	-0.032	
12.145	0.029	-0.034	
12.150	-0.083	-0.032	
12.155	-0.072	-0.035	
12.160	0.075	-0.037	
12.165	-0.035	-0.029	
12.170	-0.127	-0.026	
12.175	-0.019	-0.033	
12.180	-0.016	-0.039	
12.185	-0.107	-0.042	
12.190	-0.043	-0.048	
12.195	0.046	-0.049	
12.200	-0.090	-0.043	
12.205	-0.086	-0.042	
12.210	0.081	-0.042	
12.215	-0.017	-0.032	
12.220	-0.122	-0.024	
12.225	-0.017	-0.029	
12.230	0.024	-0.032	
12.235	-0.119	-0.032	
12.240	-0.049	-0.038	
12.245	0.039	-0.042	
12.250	-0.080	-0.039	
12.255	-0.107	-0.040	
12.260	0.015	-0.047	
12.265	-0.048	-0.047	
12.270	-0.127	-0.048	
12.275	-0.020	-0.054	
12.280	0.013	-0.055	
12.285	-0.127	-0.050	
12.290	-0.084	-0.054	
12.295	0.026	-0.058	
12.300	-0.100	-0.056	
12.305	-0.064	-0.055	
12.310	0.107	-0.050	
12.315	-0.022	-0.033	
12.320	-0.135	-0.021	
12.325	-0.051	-0.028	
12.330	-0.025	-0.038	
12.335	-0.103	-0.045	
12.340	-0.023	-0.052	
12.345	0.073	-0.049	
12.350	-0.049	-0.036	
12.355	-0.066	-0.026	
12.360	0.041	-0.023	
12.365	-0.005	-0.017	
12.370	-0.092	-0.014	
12.375	-0.016	-0.019	
12.380	-0.020	-0.025	
12.385	-0.129	-0.031	
12.390	-0.071	-0.045	
12.395	0.017	-0.055	
12.400	-0.109	-0.057	
12.405	-0.136	-0.062	
12.410	-0.020	-0.072	
12.415	-0.025	-0.073	
12.420	-0.119	-0.069	
12.425	-0.028	-0.067	
12.430	-0.051	-0.065	
12.435	-0.165	-0.065	
12.440	-0.083	-0.075	
12.445	0.003	-0.081	
12.450	-0.129	-0.078	
12.455	-0.135	-0.081	
12.460	-0.003	-0.085	
12.465	-0.060	-0.081	
12.470	-0.112	-0.075	
12.475	0.044	-0.069	
12.480	0.124	-0.049	
12.485	0.029	-0.015	
12.490	0.072	0.016	
12.495	0.131	0.042	
12.500	-0.045	0.061	
12.505	-0.060	0.058	
12.510	0.012	0.039	
12.515	-0.122	0.015	
12.520	-0.182	-0.019	
12.525	-0.069	-0.057	
12.530	-0.066	-0.084	
12.535	-0.141	-0.097	
12.540	-0.077	-0.105	
12.545	0.010	-0.103	
12.550	-0.063	-0.088	
12.555	-0.097	-0.075	
12.560	0.041	-0.064	
12.565	-0.035	-0.049	
12.570	-0.132	-0.040	
12.575	-0.060	-0.045	
12.580	0.026	-0.050	
12.585	-0.112	-0.048	
12.590	-0.049	-0.050	
12.595	0.055	-0.049	
12.600	-0.100	-0.041	
12.605	-0.132	-0.042	
12.610	-0.034	-0.054	
12.615	-0.084	-0.062	
12.620	-0.119	-0.070	
12.625	-0.019	-0.077	
12.630	-0.008	-0.073	
12.635	-0.112	-0.065	
12.640	-0.072	-0.063	
12.645	0.029	-0.061	
12.650	-0.092	-0.053	
12.655	-0.103	-0.052	
12.660	-0.019	-0.056	
12.665	-0.048	-0.056	
12.670	-0.113	-0.057	
12.675	-0.029	-0.060	
12.680	0.021	-0.058	
12.685	-0.098	-0.050	
12.690	-0.068	-0.048	
12.695	0.006	-0.049	
12.700	-0.107	-0.048	
12.705	-0.116	-0.053	
12.710	0.024	-0.061	
12.715	-0.043	-0.058	
12.720	-0.113	-0.054	
12.725	-0.017	-0.056	
12.730	0.012	-0.052	
12.735	-0.097	-0.045	
12.740	-0.028	-0.043	
12.745	0.081	-0.037	
12.750	-0.069	-0.025	
12.755	-0.092	-0.021	
12.760	0.053	-0.024	
12.765	-0.005	-0.021	
12.770	-0.083	-0.017	
12.775	-0.029	-0.022	
12.780	0.007	-0.026	
12.785	-0.098	-0.028	
12.790	-0.043	-0.035	
12.795	0.050	-0.038	
12.800	-0.081	-0.034	
12.805	-0.106	-0.035	
12.810	-0.008	-0.043	
12.815	-0.045	-0.047	
12.820	-0.112	-0.050	
12.825	-0.009	-0.055	
12.830	0.013	-0.053	
12.835	-0.116	-0.046	
12.840	-0.077	-0.048	
12.845	0.020	-0.052	
12.850	-0.107	-0.051	
12.855	-0.106	-0.055	
12.860	0.001	-0.061	
12.865	-0.043	-0.060	
12.870	-0.052	-0.054	
12.875	0.001	-0.048	
12.880	-0.019	-0.040	
12.885	-0.118	-0.035	
12.890	-0.052	-0.041	
12.895	0.004	-0.046	
12.900	-0.127	-0.048	
12.905	-0.133	-0.058	
12.910	-0.026	-0.071	
12.915	-0.077	-0.077	
12.920	-0.121	-0.079	
12.925	-0.029	-0.082	
12.930	0.027	-0.075	
12.935	-0.100	-0.061	
12.940	-0.060	-0.054	
12.945	0.018	-0.050	
12.950	-0.045	-0.042	
12.955	-0.052	-0.036	
12.960	0.085	-0.029	
12.965	-0.032	-0.016	
12.970	-0.107	-0.011	
12.975	-0.029	-0.019	
12.980	0.006	-0.027	
12.985	-0.113	-0.032	
12.990	-0.081	-0.042	
12.995	0.004	-0.052	
13.000	-0.095	-0.055	
13.005	-0.133	-0.061	
13.010	-0.019	-0.070	
13.015	-0.043	-0.072	
13.020	-0.127	-0.070	
13.025	-0.061	-0.073	
13.030	-0.040	-0.074	
13.035	-0.150	-0.074	
13.040	-0.109	-0.082	
13.045	0.003	-0.087	
13.050	-0.086	-0.082	
13.055	-0.095	-0.077	
13.060	0.065	-0.070	
13.065	-0.029	-0.053	
13.070	-0.116	-0.040	
13.075	0.015	-0.038	
13.080	0.134	-0.027	
13.085	-0.013	-0.005	
13.090	0.058	0.015	
13.095	0.149	0.034	
13.100	-0.025	0.052	
13.105	-0.138	0.049	
13.110	-0.042	0.023	
13.115	-0.074	-0.007	
13.120	-0.148	-0.037	
13.125	0.023	-0.060	
13.130	0.067	-0.063	
13.135	-0.106	-0.050	
13.140	-0.080	-0.045	
13.145	0.032	-0.045	
13.150	-0.078	-0.041	
13.155	-0.103	-0.042	
13.160	-0.031	-0.049	
13.165	-0.060	-0.054	
13.170	-0.118	-0.059	
13.175	0.006	-0.064	
13.180	-0.013	-0.060	
13.185	-0.141	-0.054	
13.190	-0.086	-0.059	
13.195	0.018	-0.064	
13.200	-0.101	-0.062	
13.205	-0.112	-0.063	
13.210	0.006	-0.066	
13.215	0.017	-0.060	
13.220	-0.040	-0.046	
13.225	0.052	-0.031	
13.230	0.053	-0.012	
13.235	-0.112	0.001	
13.240	-0.106	-0.005	
13.245	0.007	-0.022	
13.250	-0.057	-0.033	
13.255	-0.112	-0.042	
13.260	0.018	-0.051	
13.265	-0.019	-0.050	
13.270	-0.121	-0.047	
13.275	-0.038	-0.051	
13.280	-0.014	-0.053	
13.285	-0.113	-0.052	
13.290	-0.066	-0.057	
13.295	0.087	-0.056	
13.300	-0.020	-0.041	
13.305	-0.095	-0.028	
13.310	0.039	-0.025	
13.315	0.000	-0.019	
13.320	-0.075	-0.015	
13.325	-0.011	-0.017	
13.330	0.035	-0.018	
13.335	-0.078	-0.016	
13.340	-0.071	-0.021	
13.345	0.003	-0.030	
13.350	-0.074	-0.035	
13.355	-0.081	-0.041	
13.360	0.044	-0.046	
13.365	-0.009	-0.040	
13.370	-0.064	-0.031	
13.375	0.024	-0.026	
13.380	0.070	-0.017	
13.385	-0.075	-0.005	
13.390	-0.052	-0.004	
13.395	0.056	-0.009	
13.400	-0.008	-0.007	
13.405	-0.057	-0.006	
13.410	0.018	-0.009	
13.415	-0.011	-0.010	
13.420	-0.106	-0.014	
13.425	0.003	-0.023	
13.430	0.017	-0.028	
13.435	-0.107	-0.028	
13.440	-0.049	-0.034	
13.445	0.023	-0.039	
13.450	-0.081	-0.039	
13.455	-0.124	-0.043	
13.460	0.000	-0.053	
13.465	0.015	-0.053	
13.470	-0.066	-0.045	
13.475	0.026	-0.037	
13.480	0.036	-0.025	
13.485	-0.116	-0.015	
13.490	-0.071	-0.020	
13.495	-0.006	-0.031	
13.500	-0.097	-0.039	
13.505	-0.122	-0.050	
13.510	-0.016	-0.063	
13.515	-0.040	-0.067	
13.520	-0.092	-0.065	
13.525	0.039	-0.061	
13.530	0.058	-0.045	
13.535	-0.071	-0.025	
13.540	-0.057	-0.017	
13.545	0.073	-0.015	
13.550	-0.013	-0.008	
13.555	-0.038	-0.002	
13.560	0.090	0.001	
13.565	-0.006	0.008	
13.570	-0.098	0.010	
13.575	-0.057	-0.003	
13.580	-0.013	-0.020	
13.585	-0.124	-0.033	
13.590	-0.104	-0.051	
13.595	0.010	-0.065	
13.600	-0.072	-0.067	
13.605	-0.124	-0.068	
13.610	-0.006	-0.070	
13.615	-0.057	-0.068	
13.620	-0.136	-0.066	
13.625	-0.071	-0.071	
13.630	-0.031	-0.075	
13.635	-0.106	-0.074	
13.640	-0.081	-0.075	
13.645	0.020	-0.073	
13.650	-0.083	-0.064	
13.655	-0.116	-0.060	
13.660	0.035	-0.060	
13.665	0.046	-0.049	
13.670	-0.014	-0.029	
13.675	0.108	-0.008	
13.680	0.111	0.018	
13.685	-0.066	0.040	
13.690	-0.045	0.040	
13.695	0.113	0.031	
13.700	-0.031	0.028	
13.705	-0.129	0.017	
13.710	-0.045	-0.006	
13.715	-0.069	-0.030	
13.720	-0.124	-0.050	
13.725	-0.052	-0.068	
13.730	0.010	-0.074	
13.735	-0.127	-0.071	
13.740	-0.083	-0.071	
13.745	0.038	-0.070	
13.750	-0.068	-0.060	
13.755	-0.098	-0.053	
13.760	0.039	-0.050	
13.765	-0.017	-0.041	
13.770	-0.129	-0.035	
13.775	-0.054	-0.040	
13.780	0.001	-0.047	
13.785	-0.106	-0.048	
13.790	-0.084	-0.054	
13.795	-0.022	-0.060	
13.800	-0.061	-0.061	
13.805	-0.049	-0.059	
13.810	0.020	-0.054	
13.815	-0.084	-0.045	
13.820	-0.145	-0.047	
13.825	-0.045	-0.058	
13.830	-0.026	-0.065	
13.835	-0.148	-0.068	
13.840	-0.115	-0.077	
13.845	0.047	-0.082	
13.850	-0.080	-0.074	
13.855	-0.135	-0.068	
13.860	-0.013	-0.069	
13.865	-0.046	-0.067	
13.870	-0.144	-0.064	
13.875	-0.090	-0.071	
13.880	-0.058	-0.079	
13.885	-0.158	-0.085	
13.890	-0.129	-0.095	
13.895	-0.023	-0.103	
13.900	-0.107	-0.101	
13.905	-0.155	-0.099	
13.910	-0.057	-0.102	
13.915	-0.040	-0.099	
13.920	-0.133	-0.091	
13.925	-0.104	-0.090	
13.930	-0.034	-0.090	
13.935	-0.124	-0.087	
13.940	-0.132	-0.088	
13.945	-0.040	-0.093	
13.950	-0.107	-0.092	
13.955	-0.156	-0.094	
13.960	-0.060	-0.100	
13.965	-0.092	-0.101	
13.970	-0.164	-0.102	
13.975	-0.089	-0.107	
13.980	-0.049	-0.108	
13.985	-0.158	-0.104	
13.990	-0.136	-0.106	
13.995	-0.092	-0.112	
14.000	-0.132	-0.115	
14.005	-0.141	-0.118	
14.010	-0.083	-0.121	
14.015	-0.119	-0.119	
14.020	-0.144	-0.118	
14.025	-0.049	-0.117	
14.030	-0.060	-0.109	
14.035	-0.164	-0.100	
14.040	-0.158	-0.102	
14.045	-0.097	-0.111	
14.050	-0.152	-0.118	
14.055	-0.177	-0.126	
14.060	-0.080	-0.134	
14.065	-0.104	-0.134	
14.070	-0.168	-0.130	
14.075	-0.078	-0.128	
14.080	-0.031	-0.120	
14.085	-0.124	-0.106	
14.090	-0.051	-0.095	
14.095	0.039	-0.080	
14.100	-0.101	-0.062	
14.105	-0.135	-0.055	
14.110	-0.037	-0.060	
14.115	-0.097	-0.066	
14.120	-0.122	-0.073	
14.125	-0.048	-0.081	
14.130	0.023	-0.079	
14.135	-0.135	-0.069	
14.140	-0.130	-0.070	
14.145	-0.014	-0.076	
14.150	-0.100	-0.077	
14.155	-0.124	-0.078	
14.160	-0.003	-0.081	
14.165	-0.037	-0.075	
14.170	-0.109	-0.067	
14.175	-0.045	-0.064	
14.180	-0.022	-0.061	
14.185	-0.092	-0.057	
14.190	-0.019	-0.054	
14.195	0.033	-0.048	
14.200	-0.048	-0.036	
14.205	-0.061	-0.029	
14.210	0.088	-0.024	
14.215	0.033	-0.010	
14.220	-0.048	0.003	
14.225	0.064	0.010	
14.230	0.124	0.020	
14.235	-0.049	0.034	
14.240	-0.022	0.034	
14.245	0.116	0.029	
14.250	-0.042	0.029	
14.255	-0.136	0.019	
14.260	-0.029	-0.005	
14.265	-0.048	-0.028	
14.270	-0.119	-0.045	
14.275	0.013	-0.057	
14.280	0.079	-0.054	
14.285	-0.060	-0.037	
14.290	-0.058	-0.026	
14.295	0.070	-0.021	
14.300	-0.032	-0.012	
14.305	-0.042	-0.008	
14.310	0.079	-0.005	
14.315	-0.060	-0.001	
14.320	-0.109	-0.005	
14.325	0.097	-0.015	
14.330	0.055	-0.010	
14.335	-0.110	-0.002	
14.340	-0.090	-0.009	
14.345	0.003	-0.024	
14.350	-0.090	-0.035	
14.355	-0.106	-0.047	
14.360	0.053	-0.056	
14.365	0.009	-0.049	
14.370	-0.116	-0.039	
14.375	-0.028	-0.039	
14.380	0.006	-0.039	
14.385	-0.129	-0.038	
14.390	-0.155	-0.050	
14.395	0.049	-0.064	
14.400	0.010	-0.062	
14.405	-0.064	-0.049	
14.410	0.015	-0.038	
14.415	-0.045	-0.030	
14.420	-0.116	-0.029	
14.425	0.017	-0.035	
14.430	0.088	-0.031	
14.435	-0.087	-0.019	
14.440	-0.097	-0.018	
14.445	0.041	-0.025	
14.450	-0.058	-0.027	
14.455	-0.060	-0.030	
14.460	0.047	-0.031	
14.465	0.039	-0.023	
14.470	-0.071	-0.012	
14.475	0.006	-0.009	
14.480	0.026	-0.007	
14.485	-0.089	-0.007	
14.490	-0.107	-0.017	
14.495	0.001	-0.033	
14.500	-0.052	-0.042	
14.505	-0.078	-0.047	
14.510	0.050	-0.048	
14.515	0.029	-0.037	
14.520	-0.089	-0.024	
14.525	-0.013	-0.021	
14.530	0.056	-0.018	
14.535	-0.086	-0.013	
14.540	-0.026	-0.014	
14.545	0.111	-0.014	
14.550	-0.057	-0.004	
14.555	-0.130	-0.005	
14.560	-0.063	-0.022	
14.565	-0.087	-0.042	
14.570	-0.142	-0.062	
14.575	-0.092	-0.081	
14.580	-0.043	-0.093	
14.585	-0.126	-0.096	
14.590	-0.100	-0.097	
14.595	-0.009	-0.096	
14.600	-0.075	-0.086	
14.605	-0.135	-0.079	
14.610	-0.025	-0.078	
14.615	-0.034	-0.073	
14.620	-0.110	-0.067	
14.625	-0.011	-0.063	
14.630	0.113	-0.051	
14.635	-0.072	-0.029	
14.640	-0.061	-0.017	
14.645	0.068	-0.014	
14.650	-0.081	-0.010	
14.655	-0.168	-0.018	
14.660	-0.066	-0.041	
14.665	-0.095	-0.063	
14.670	-0.181	-0.083	
14.675	-0.113	-0.103	
14.680	-0.057	-0.116	
14.685	-0.103	-0.116	
14.690	-0.110	-0.111	
14.695	-0.037	-0.105	
14.700	-0.110	-0.097	
14.705	-0.161	-0.094	
14.710	-0.077	-0.098	
14.715	-0.063	-0.100	
14.720	-0.129	-0.098	
14.725	-0.060	-0.096	
14.730	-0.022	-0.090	
14.735	-0.078	-0.079	
14.740	-0.083	-0.071	
14.745	0.020	-0.064	
14.750	-0.098	-0.056	
14.755	-0.121	-0.055	
14.760	0.044	-0.058	
14.765	0.058	-0.048	
14.770	-0.054	-0.029	
14.775	0.015	-0.016	
14.780	0.064	-0.005	
14.785	-0.069	0.005	
14.790	-0.095	0.001	
14.795	-0.017	-0.014	
14.800	-0.095	-0.029	
14.805	-0.133	-0.047	
14.810	-0.034	-0.065	
14.815	-0.045	-0.073	
14.820	-0.110	-0.075	
14.825	-0.017	-0.075	
14.830	0.030	-0.066	
14.835	-0.110	-0.053	
14.840	-0.121	-0.051	
14.845	-0.005	-0.057	
14.850	-0.060	-0.058	
14.855	-0.109	-0.059	
14.860	-0.011	-0.062	
14.865	-0.032	-0.059	
14.870	-0.124	-0.056	
14.875	-0.003	-0.057	
14.880	0.108	-0.049	
14.885	-0.057	-0.028	
14.890	-0.119	-0.018	
14.895	-0.040	-0.026	
14.900	-0.087	-0.038	
14.905	-0.089	-0.051	
14.910	0.046	-0.058	
14.915	0.062	-0.048	
14.920	-0.092	-0.030	
14.925	0.010	-0.021	
14.930	0.070	-0.013	
14.935	-0.107	-0.004	
14.940	-0.098	-0.011	
14.945	0.012	-0.025	
14.950	-0.058	-0.034	
14.955	-0.124	-0.042	
14.960	-0.019	-0.054	
14.965	0.000	-0.057	
14.970	-0.107	-0.054	
14.975	-0.038	-0.054	
14.980	0.018	-0.052	
14.985	-0.132	-0.047	
14.990	-0.122	-0.053	
14.995	-0.025	-0.065	
15.000	-0.034	-0.068	
15.005	0.003	-0.061	
15.010	0.142	-0.041	
15.015	0.185	-0.002	
15.020	-0.043	0.039	
15.025	-0.022	0.056	
15.030	0.046	0.052	
15.035	-0.080	0.040	
15.040	-0.077	0.018	
15.045	0.068	-0.004	
15.050	-0.005	-0.011	
15.055	-0.071	-0.013	
15.060	0.026	-0.018	
15.065	0.021	-0.016	
15.070	-0.075	-0.013	
15.075	-0.011	-0.015	
15.080	0.035	-0.017	
15.085	-0.074	-0.015	
15.090	-0.072	-0.020	
15.095	0.110	-0.024	
15.100	0.041	-0.012	
15.105	-0.040	0.002	
15.110	0.042	0.009	
15.115	-0.022	0.012	
15.120	0.003	0.011	
15.125	0.056	0.011	
15.130	-0.002	0.014	
15.135	-0.104	0.010	
15.140	-0.101	-0.008	
15.145	0.023	-0.028	
15.150	-0.064	-0.039	
15.155	-0.106	-0.046	
15.160	-0.006	-0.055	
15.165	0.038	-0.052	
15.170	-0.090	-0.043	
15.175	-0.025	-0.038	
15.180	0.041	-0.033	
15.185	-0.022	-0.023	
15.190	-0.052	-0.016	
15.195	0.064	-0.013	
15.200	0.006	-0.005	
15.205	-0.110	-0.002	
15.210	-0.006	-0.010	
15.215	-0.006	-0.018	
15.220	-0.129	-0.026	
15.225	-0.045	-0.039	
15.230	0.027	-0.047	
15.235	-0.074	-0.045	
15.240	-0.107	-0.047	
15.245	-0.013	-0.052	
15.250	-0.087	-0.056	
15.255	-0.142	-0.062	
15.260	-0.035	-0.073	
15.265	-0.031	-0.076	
15.270	-0.116	-0.073	
15.275	-0.045	-0.073	
15.280	0.062	-0.065	
15.285	-0.046	-0.048	
15.290	-0.022	-0.033	
15.295	0.084	-0.020	
15.300	-0.006	-0.003	
15.305	-0.063	0.006	
15.310	0.047	0.005	
15.315	-0.005	0.005	
15.320	-0.118	0.001	
15.325	-0.031	-0.014	
15.330	0.044	-0.025	
15.335	-0.112	-0.029	
15.340	-0.116	-0.039	
15.345	0.023	-0.051	
15.350	-0.057	-0.054	
15.355	-0.100	-0.054	
15.360	0.026	-0.055	
15.365	-0.025	-0.048	
15.370	-0.122	-0.043	
15.375	0.000	-0.045	
15.380	0.059	-0.041	
15.385	-0.025	-0.027	
15.390	-0.020	-0.015	
15.395	0.055	-0.007	
15.400	-0.051	-0.000	
15.405	-0.126	-0.005	
15.410	0.006	-0.020	
15.415	0.000	-0.029	
15.420	-0.092	-0.032	
15.425	-0.009	-0.036	
15.430	0.035	-0.035	
15.435	-0.017	-0.026	
15.440	-0.014	-0.018	
15.445	0.088	-0.008	
15.450	-0.031	0.004	
15.455	-0.110	0.006	
15.460	0.020	-0.005	
15.465	0.062	-0.010	
15.470	-0.075	-0.008	
15.475	-0.071	-0.012	
15.480	0.029	-0.021	
15.485	-0.083	-0.026	
15.490	-0.086	-0.034	
15.495	0.013	-0.042	
15.500	0.009	-0.041	
15.505	0.017	-0.031	
15.510	0.107	-0.013	
15.515	0.052	0.011	
15.520	-0.113	0.025	
15.525	-0.043	0.018	
15.530	0.035	0.003	
15.535	-0.048	-0.006	
15.540	-0.066	-0.015	
15.545	0.000	-0.025	
15.550	-0.038	-0.030	
15.555	-0.087	-0.035	
15.560	0.067	-0.037	
15.565	0.142	-0.023	
15.570	-0.006	0.004	
15.575	0.007	0.023	
15.580	0.021	0.029	
15.585	-0.089	0.025	
15.590	-0.086	0.007	
15.595	0.012	-0.014	
15.600	-0.051	-0.027	
15.605	-0.100	-0.038	
15.610	0.001	-0.047	
15.615	0.032	-0.046	
15.620	-0.104	-0.039	
15.625	0.021	-0.035	
15.630	0.050	-0.028	
15.635	-0.080	-0.017	
15.640	-0.144	-0.020	
15.645	-0.023	-0.036	
15.650	-0.022	-0.047	
15.655	-0.071	-0.050	
15.660	0.018	-0.049	
15.665	0.065	-0.038	
15.670	-0.069	-0.022	
15.675	-0.038	-0.015	
15.680	0.027	-0.014	
15.685	-0.097	-0.015	
15.690	-0.136	-0.027	
15.695	-0.048	-0.047	
15.700	-0.116	-0.064	
15.705	-0.159	-0.081	
15.710	-0.090	-0.099	
15.715	-0.101	-0.109	
15.720	-0.161	-0.115	
15.725	-0.095	-0.121	
15.730	-0.040	-0.119	
15.735	-0.124	-0.110	
15.740	-0.159	-0.106	
15.745	0.009	-0.105	
15.750	-0.025	-0.092	
15.755	-0.136	-0.077	
15.760	-0.092	-0.074	
15.765	-0.064	-0.076	
15.770	-0.205	-0.083	
15.775	-0.167	-0.100	
15.780	-0.081	-0.119	
15.785	-0.142	-0.128	
15.790	-0.122	-0.131	
15.795	0.013	-0.126	
15.800	0.021	-0.104	
15.805	-0.087	-0.075	
15.810	-0.011	-0.055	
15.815	-0.008	-0.040	
15.820	-0.116	-0.032	
15.825	-0.078	-0.037	
15.830	-0.006	-0.045	
15.835	-0.104	-0.050	
15.840	-0.147	-0.060	
15.845	-0.074	-0.075	
15.850	-0.165	-0.090	
15.855	-0.153	-0.107	
15.860	-0.049	-0.119	
15.865	-0.006	-0.115	
15.870	-0.092	-0.099	
15.875	-0.063	-0.084	
15.880	0.055	-0.069	
15.885	-0.087	-0.051	
15.890	-0.138	-0.044	
15.895	-0.054	-0.052	
15.900	-0.100	-0.062	
15.905	-0.185	-0.076	
15.910	0.000	-0.090	
15.915	0.029	-0.088	
15.920	-0.098	-0.072	
15.925	-0.068	-0.062	
15.930	0.021	-0.056	
15.935	-0.058	-0.046	
15.940	-0.060	-0.040	
15.945	0.059	-0.035	
15.950	-0.006	-0.024	
15.955	-0.103	-0.016	
15.960	-0.029	-0.021	
15.965	0.047	-0.025	
15.970	-0.103	-0.024	
15.975	-0.023	-0.027	
15.980	0.107	-0.026	
15.985	-0.049	-0.014	
15.990	-0.083	-0.009	
15.995	0.058	-0.012	
16.000	-0.020	-0.011	
16.005	-0.086	-0.011	
16.010	0.078	-0.015	
16.015	0.091	-0.006	
16.020	-0.068	0.008	
16.025	-0.020	0.010	
16.030	0.094	0.009	
16.035	0.003	0.015	
16.040	-0.051	0.017	
16.045	0.088	0.015	
16.050	0.058	0.019	
16.055	-0.008	0.027	
16.060	0.107	0.033	
16.065	0.159	0.046	
16.070	0.036	0.066	
16.075	0.093	0.078	
16.080	0.101	0.085	
16.085	-0.042	0.084	
16.090	-0.084	0.065	
16.095	0.052	0.036	
16.100	0.026	0.018	
16.105	-0.103	0.005	
16.110	0.010	-0.010	
16.115	0.047	-0.017	
16.120	-0.055	-0.015	
16.125	-0.006	-0.014	
16.130	0.053	-0.012	
16.135	-0.051	-0.007	
16.140	-0.048	-0.007	
16.145	0.120	-0.007	
16.150	0.010	0.004	
16.155	-0.097	0.010	
16.160	0.023	0.004	
16.165	0.030	-0.000	
16.170	-0.072	-0.002	
16.175	0.001	-0.008	
16.180	0.078	-0.009	
16.185	-0.069	-0.004	
16.190	-0.106	-0.008	
16.195	0.007	-0.021	
16.200	-0.072	-0.031	
16.205	-0.112	-0.042	
16.210	-0.035	-0.055	
16.215	-0.017	-0.060	
16.220	-0.110	-0.060	
16.225	-0.049	-0.062	
16.230	0.026	-0.060	
16.235	-0.118	-0.053	
16.240	-0.054	-0.052	
16.245	-0.013	-0.053	
16.250	-0.049	-0.050	
16.255	-0.122	-0.050	
16.260	-0.083	-0.058	
16.265	-0.058	-0.067	
16.270	-0.161	-0.076	
16.275	-0.124	-0.089	
16.280	-0.061	-0.101	
16.285	-0.145	-0.107	
16.290	-0.152	-0.113	
16.295	-0.031	-0.117	
16.300	-0.054	-0.110	
16.305	-0.086	-0.096	
16.310	0.032	-0.081	
16.315	0.042	-0.057	
16.320	-0.045	-0.032	
16.325	0.000	-0.016	
16.330	0.027	-0.006	
16.335	-0.106	-0.002	
16.340	-0.126	-0.014	
16.345	-0.051	-0.036	
16.350	-0.078	-0.055	
16.355	-0.159	-0.070	
16.360	-0.016	-0.084	
16.365	0.006	-0.084	
16.370	-0.150	-0.075	
16.375	-0.126	-0.077	
16.380	-0.080	-0.085	
16.385	-0.158	-0.094	
16.390	-0.122	-0.105	
16.395	-0.025	-0.111	
16.400	-0.104	-0.106	
16.405	-0.173	-0.103	
16.410	-0.104	-0.108	
16.415	-0.046	-0.110	
16.420	-0.144	-0.107	
16.425	-0.110	-0.106	
16.430	-0.003	-0.103	
16.435	-0.124	-0.093	
16.440	-0.150	-0.090	
16.445	-0.081	-0.095	
16.450	-0.107	-0.099	
16.455	-0.145	-0.104	
16.460	-0.052	-0.107	
16.465	-0.006	-0.101	
16.470	-0.153	-0.089	
16.475	-0.115	-0.087	
16.480	-0.006	-0.088	
16.485	-0.118	-0.083	
16.490	-0.132	-0.083	
16.495	-0.074	-0.088	
16.500	-0.124	-0.093	
16.505	-0.193	-0.102	
16.510	-0.115	-0.117	
16.515	-0.071	-0.125	
16.520	-0.155	-0.125	
16.525	-0.078	-0.123	
16.530	0.065	-0.111	
16.535	-0.049	-0.084	
16.540	-0.090	-0.061	
16.545	-0.028	-0.050	
16.550	-0.087	-0.047	
16.555	-0.122	-0.051	
16.560	-0.042	-0.061	
16.565	-0.025	-0.065	
16.570	-0.148	-0.067	
16.575	-0.113	-0.075	
16.580	0.015	-0.082	
16.585	-0.071	-0.077	
16.590	-0.087	-0.070	
16.595	0.024	-0.064	
16.600	-0.031	-0.053	
16.605	-0.129	-0.045	
16.610	-0.019	-0.047	
16.615	0.026	-0.046	
16.620	-0.087	-0.039	
16.625	-0.104	-0.040	
16.630	-0.052	-0.050	
16.635	-0.106	-0.060	
16.640	-0.112	-0.071	
16.645	0.003	-0.078	
16.650	-0.068	-0.075	
16.655	-0.139	-0.073	
16.660	-0.035	-0.076	
16.665	0.039	-0.071	
16.670	-0.068	-0.057	
16.675	-0.017	-0.044	
16.680	-0.026	-0.036	
16.685	-0.086	-0.032	
16.690	-0.101	-0.039	
16.695	-0.006	-0.048	
16.700	-0.028	-0.050	
16.705	-0.110	-0.050	
16.710	-0.045	-0.054	
16.715	-0.017	-0.056	
16.720	-0.135	-0.057	
16.725	-0.048	-0.062	
16.730	0.090	-0.060	
16.735	-0.086	-0.045	
16.740	-0.141	-0.040	
16.745	-0.087	-0.051	
16.750	-0.081	-0.065	
16.755	-0.100	-0.077	
16.760	0.012	-0.080	
16.765	-0.043	-0.073	
16.770	-0.182	-0.067	
16.775	-0.121	-0.077	
16.780	-0.003	-0.087	
16.785	-0.116	-0.087	
16.790	-0.153	-0.089	
16.795	0.023	-0.092	
16.800	-0.032	-0.083	
16.805	-0.161	-0.073	
16.810	-0.090	-0.075	
16.815	0.001	-0.077	
16.820	-0.026	-0.070	
16.825	0.013	-0.055	
16.830	0.174	-0.029	
16.835	-0.022	0.004	
16.840	-0.064	0.023	
16.845	0.044	0.023	
16.850	0.006	0.020	
16.855	-0.126	0.012	
16.860	-0.101	-0.010	
16.865	-0.081	-0.038	
16.870	-0.132	-0.063	
16.875	-0.112	-0.085	
16.880	-0.043	-0.098	
16.885	-0.133	-0.102	
16.890	-0.158	-0.106	
16.895	-0.068	-0.113	
16.900	-0.103	-0.113	
16.905	-0.170	-0.113	
16.910	-0.078	-0.116	
16.915	-0.069	-0.114	
16.920	-0.104	-0.107	
16.925	-0.046	-0.099	
16.930	0.026	-0.084	
16.935	-0.119	-0.067	
16.940	-0.132	-0.062	
16.945	-0.028	-0.067	
16.950	-0.057	-0.068	
16.955	-0.144	-0.070	
16.960	-0.080	-0.077	
16.965	-0.025	-0.081	
16.970	-0.126	-0.080	
16.975	-0.130	-0.084	
16.980	-0.020	-0.089	
16.985	-0.097	-0.087	
16.990	-0.150	-0.087	
16.995	-0.008	-0.090	
17.000	-0.002	-0.082	
17.005	-0.112	-0.069	
17.010	-0.066	-0.063	
17.015	-0.037	-0.062	
17.020	-0.148	-0.063	
17.025	-0.104	-0.072	
17.030	-0.003	-0.080	
17.035	-0.089	-0.078	
17.040	-0.135	-0.078	
17.045	-0.034	-0.081	
17.050	-0.078	-0.081	
17.055	-0.150	-0.081	
17.060	-0.017	-0.085	
17.065	0.001	-0.079	
17.070	-0.083	-0.067	
17.075	-0.060	-0.058	
17.080	0.102	-0.048	
17.085	-0.017	-0.028	
17.090	-0.063	-0.013	
17.095	-0.002	-0.010	
17.100	-0.045	-0.012	
17.105	-0.092	-0.019	
17.110	0.029	-0.028	
17.115	0.035	-0.027	
17.120	-0.113	-0.023	
17.125	-0.057	-0.028	
17.130	0.087	-0.031	
17.135	-0.023	-0.023	
17.140	-0.078	-0.017	
17.145	0.015	-0.018	
17.150	0.027	-0.016	
17.155	-0.081	-0.013	
17.160	0.021	-0.014	
17.165	0.020	-0.013	
17.170	-0.103	-0.012	
17.175	0.009	-0.018	
17.180	0.137	-0.015	
17.185	-0.066	-0.000	
17.190	-0.136	0.001	
17.195	0.000	-0.015	
17.200	-0.057	-0.028	
17.205	-0.138	-0.041	
17.210	-0.069	-0.059	
17.215	-0.023	-0.070	
17.220	-0.130	-0.074	
17.225	-0.086	-0.080	
17.230	0.030	-0.080	
17.235	-0.055	-0.069	
17.240	-0.101	-0.059	
17.245	-0.005	-0.056	
17.250	-0.009	-0.049	
17.255	-0.097	-0.043	
17.260	-0.025	-0.042	
17.265	0.021	-0.040	
17.270	-0.116	-0.036	
17.275	-0.122	-0.043	
17.280	0.026	-0.054	
17.285	-0.118	-0.058	
17.290	-0.176	-0.067	
17.295	-0.100	-0.086	
17.300	-0.104	-0.101	
17.305	-0.121	-0.110	
17.310	-0.011	-0.110	
17.315	-0.022	-0.098	
17.320	-0.148	-0.083	
17.325	-0.086	-0.079	
17.330	0.001	-0.077	
17.335	-0.086	-0.070	
17.340	-0.097	-0.066	
17.345	0.046	-0.062	
17.350	-0.008	-0.050	
17.355	-0.106	-0.038	
17.360	0.070	-0.032	
17.365	0.131	-0.016	
17.370	-0.035	0.009	
17.375	-0.064	0.019	
17.380	-0.014	0.013	
17.385	-0.116	-0.003	
17.390	-0.171	-0.029	
17.395	-0.013	-0.058	
17.400	-0.077	-0.075	
17.405	-0.165	-0.084	
17.410	-0.119	-0.098	
17.415	-0.031	-0.106	
17.420	-0.148	-0.106	
17.425	-0.139	-0.108	
17.430	-0.031	-0.110	
17.435	-0.087	-0.104	
17.440	-0.141	-0.098	
17.445	-0.019	-0.095	
17.450	-0.037	-0.086	
17.455	-0.144	-0.076	
17.460	-0.061	-0.075	
17.465	0.046	-0.071	
17.470	-0.103	-0.059	
17.475	-0.116	-0.055	
17.480	-0.029	-0.060	
17.485	-0.122	-0.065	
17.490	-0.165	-0.076	
17.495	-0.046	-0.090	
17.500	-0.064	-0.095	
17.505	-0.129	-0.094	
17.510	-0.051	-0.094	
17.515	0.030	-0.085	
17.520	-0.072	-0.068	
17.525	-0.043	-0.055	
17.530	0.032	-0.044	
17.535	-0.081	-0.033	
17.540	-0.147	-0.034	
17.545	-0.086	-0.050	
17.550	-0.071	-0.067	
17.555	-0.098	-0.077	
17.560	-0.023	-0.082	
17.565	-0.014	-0.076	
17.570	-0.129	-0.068	
17.575	-0.087	-0.068	
17.580	0.023	-0.068	
17.585	-0.071	-0.061	
17.590	-0.090	-0.056	
17.595	0.096	-0.050	
17.600	0.010	-0.033	
17.605	-0.135	-0.019	
17.610	-0.043	-0.023	
17.615	0.001	-0.031	
17.620	-0.122	-0.036	
17.625	-0.049	-0.046	
17.630	0.039	-0.050	
17.635	-0.048	-0.044	
17.640	-0.095	-0.040	
17.645	0.061	-0.039	
17.650	0.020	-0.029	
17.655	-0.109	-0.019	
17.660	0.026	-0.019	
17.665	0.134	-0.011	
17.670	-0.063	0.005	
17.675	-0.074	0.009	
17.680	0.042	0.002	
17.685	-0.063	-0.005	
17.690	-0.104	-0.016	
17.695	-0.017	-0.031	
17.700	-0.034	-0.041	
17.705	-0.116	-0.048	
17.710	-0.028	-0.056	
17.715	0.020	-0.056	
17.720	-0.092	-0.050	
17.725	-0.031	-0.047	
17.730	0.038	-0.042	
17.735	-0.084	-0.033	
17.740	-0.119	-0.035	
17.745	0.000	-0.044	
17.750	-0.013	-0.046	
17.755	-0.104	-0.045	
17.760	-0.006	-0.047	
17.765	0.096	-0.040	
17.770	-0.019	-0.021	
17.775	-0.014	-0.006	
17.780	0.082	0.004	
17.785	-0.034	0.014	
17.790	-0.112	0.011	
17.795	-0.019	-0.005	
17.800	-0.029	-0.020	
17.805	-0.113	-0.032	
17.810	-0.054	-0.047	
17.815	-0.002	-0.056	
17.820	-0.126	-0.058	
17.825	-0.104	-0.065	
17.830	0.026	-0.071	
17.835	-0.069	-0.066	
17.840	-0.107	-0.062	
17.845	0.003	-0.061	
17.850	-0.031	-0.056	
17.855	-0.126	-0.051	
17.860	-0.077	-0.056	
17.865	0.059	-0.058	
17.870	-0.035	-0.048	
17.875	-0.025	-0.036	
17.880	0.038	-0.026	
17.885	-0.078	-0.017	
17.890	-0.093	-0.019	
17.895	0.038	-0.028	
17.900	-0.011	-0.028	
17.905	-0.071	-0.025	
17.910	0.038	-0.025	
17.915	0.119	-0.014	
17.920	0.001	0.007	
17.925	-0.014	0.020	
17.930	0.163	0.030	
17.935	0.061	0.046	
17.940	-0.064	0.056	
17.945	0.007	0.047	
17.950	0.030	0.034	
17.955	-0.090	0.020	
17.960	-0.042	0.000	
17.965	-0.002	-0.017	
17.970	-0.078	-0.029	
17.975	-0.075	-0.040	
17.980	0.007	-0.048	
17.985	-0.061	-0.049	
17.990	-0.087	-0.050	
17.995	-0.008	-0.052	
18.000	-0.025	-0.050	
18.005	-0.086	-0.046	
18.010	0.015	-0.044	
18.015	0.062	-0.035	
18.020	-0.083	-0.021	
18.025	-0.081	-0.019	
18.030	0.090	-0.022	
18.035	-0.002	-0.014	
18.040	-0.109	-0.009	
18.045	0.017	-0.014	
18.050	0.039	-0.016	
18.055	-0.106	-0.014	
18.060	-0.048	-0.021	
18.065	0.035	-0.028	
18.070	-0.077	-0.029	
18.075	-0.038	-0.031	
18.080	0.052	-0.031	
18.085	-0.017	-0.023	
18.090	-0.072	-0.018	
18.095	0.070	-0.016	
18.100	0.061	-0.006	
18.105	-0.115	0.003	
18.110	-0.048	-0.003	
18.115	0.084	-0.011	
18.120	-0.069	-0.011	
18.125	-0.074	-0.014	
18.130	-0.011	-0.024	
18.135	-0.054	-0.031	
18.140	-0.028	-0.036	
18.145	0.094	-0.032	
18.150	0.009	-0.017	
18.155	-0.104	-0.005	
18.160	-0.051	-0.011	
18.165	0.064	-0.018	
18.170	-0.049	-0.017	
18.175	-0.038	-0.016	
18.180	0.148	-0.012	
18.185	0.012	0.004	
18.190	-0.043	0.018	
18.195	0.120	0.023	
18.200	0.070	0.034	
18.205	-0.075	0.042	
18.210	-0.055	0.031	
18.215	0.032	0.013	
18.220	-0.101	-0.002	
18.225	-0.075	-0.021	
18.230	0.050	-0.035	
18.235	-0.020	-0.036	
18.240	-0.043	-0.031	
18.245	0.032	-0.026	
18.250	0.058	-0.016	
18.255	-0.057	-0.003	
18.260	0.012	0.001	
18.265	0.070	0.005	
18.270	-0.057	0.010	
18.275	0.003	0.009	
18.280	0.029	0.006	
18.285	-0.072	0.003	
18.290	-0.110	-0.010	
18.295	-0.002	-0.028	
18.300	-0.014	-0.037	
18.305	-0.089	-0.041	
18.310	-0.020	-0.045	
18.315	0.087	-0.040	
18.320	-0.061	-0.026	
18.325	-0.083	-0.020	
18.330	0.021	-0.023	
18.335	-0.061	-0.025	
18.340	-0.092	-0.030	
18.345	0.055	-0.036	
18.350	0.026	-0.030	
18.355	-0.104	-0.022	
18.360	-0.008	-0.022	
18.365	0.059	-0.021	
18.370	-0.064	-0.015	
18.375	-0.038	-0.014	
18.380	0.091	-0.013	
18.385	-0.045	-0.006	
18.390	-0.072	-0.004	
18.395	0.108	-0.006	
18.400	-0.013	-0.000	
18.405	-0.148	-0.000	
18.410	-0.060	-0.017	
18.415	0.073	-0.031	
18.420	-0.080	-0.032	
18.425	-0.080	-0.034	
18.430	0.041	-0.038	
18.435	-0.043	-0.035	
18.440	-0.130	-0.035	
18.445	-0.006	-0.043	
18.450	-0.055	-0.048	
18.455	-0.132	-0.053	
18.460	-0.035	-0.062	
18.465	0.075	-0.061	
18.470	-0.069	-0.047	
18.475	-0.092	-0.039	
18.480	0.006	-0.039	
18.485	-0.083	-0.039	
18.490	-0.150	-0.047	
18.495	-0.034	-0.061	
18.500	-0.028	-0.068	
18.505	-0.100	-0.068	
18.510	0.064	-0.062	
18.515	0.160	-0.040	
18.520	0.006	-0.003	
18.525	0.027	0.024	
18.530	0.108	0.041	
18.535	-0.029	0.052	
18.540	-0.095	0.045	
18.545	0.009	0.024	
18.550	-0.058	0.003	
18.555	-0.106	-0.018	
18.560	-0.045	-0.039	
18.565	0.035	-0.050	
18.570	-0.077	-0.048	
18.575	-0.084	-0.048	
18.580	0.020	-0.049	
18.585	-0.035	-0.045	
18.590	-0.106	-0.041	
18.595	0.006	-0.043	
18.600	-0.025	-0.042	
18.605	-0.118	-0.041	
18.610	-0.052	-0.047	
18.615	0.015	-0.051	
18.620	-0.101	-0.049	
18.625	-0.077	-0.052	
18.630	0.042	-0.053	
18.635	-0.042	-0.045	
18.640	-0.103	-0.040	
18.645	0.020	-0.040	
18.650	0.029	-0.035	
18.655	-0.087	-0.026	
18.660	0.039	-0.022	
18.665	0.047	-0.014	
18.670	-0.086	-0.005	
18.675	-0.081	-0.010	
18.680	0.030	-0.020	
18.685	-0.060	-0.025	
18.690	-0.112	-0.032	
18.695	-0.008	-0.043	
18.700	-0.019	-0.047	
18.705	-0.081	-0.047	
18.710	-0.013	-0.047	
18.715	0.053	-0.040	
18.720	-0.084	-0.029	
18.725	-0.063	-0.027	
18.730	0.059	-0.028	
18.735	-0.052	-0.023	
18.740	-0.104	-0.023	
18.745	0.046	-0.029	
18.750	0.094	-0.023	
18.755	-0.008	-0.005	
18.760	0.056	0.011	
18.765	0.062	0.024	
18.770	-0.090	0.031	
18.775	-0.058	0.020	
18.780	0.072	0.005	
18.785	-0.032	-0.001	
18.790	-0.098	-0.008	
18.795	0.024	-0.019	
18.800	0.035	-0.022	
18.805	-0.100	-0.020	
18.810	-0.014	-0.023	
18.815	0.088	-0.022	
18.820	-0.052	-0.013	
18.825	-0.080	-0.010	
18.830	0.183	-0.008	
18.835	0.065	0.010	
18.840	-0.060	0.029	
18.845	0.102	0.035	
18.850	0.046	0.041	
18.855	-0.097	0.040	
18.860	-0.055	0.023	
18.865	0.047	0.003	
18.870	-0.101	-0.010	
18.875	-0.051	-0.024	
18.880	0.055	-0.034	
18.885	-0.045	-0.031	
18.890	-0.116	-0.031	
18.895	0.052	-0.036	
18.900	0.026	-0.031	
18.905	-0.086	-0.022	
18.910	-0.016	-0.021	
18.915	0.056	-0.019	
18.920	-0.086	-0.015	
18.925	-0.086	-0.019	
18.930	0.026	-0.028	
18.935	-0.031	-0.030	
18.940	-0.089	-0.032	
18.945	0.036	-0.035	
18.950	-0.011	-0.031	
18.955	-0.129	-0.028	
18.960	-0.060	-0.037	
18.965	0.055	-0.044	
18.970	-0.037	-0.038	
18.975	0.003	-0.029	
18.980	0.096	-0.016	
18.985	0.007	0.002	
18.990	-0.081	0.012	
18.995	-0.003	0.008	
19.000	0.020	0.001	
19.005	-0.058	-0.004	
19.010	-0.005	-0.010	
19.015	0.021	-0.013	
19.020	-0.093	-0.015	
19.025	-0.097	-0.025	
19.030	0.030	-0.038	
19.035	-0.068	-0.041	
19.040	-0.132	-0.047	
19.045	-0.011	-0.056	
19.050	0.079	-0.054	
19.055	-0.061	-0.039	
19.060	-0.045	-0.029	
19.065	0.006	-0.025	
19.070	-0.072	-0.023	
19.075	-0.054	-0.027	
19.080	0.068	-0.029	
19.085	-0.061	-0.024	
19.090	-0.116	-0.024	
19.095	0.001	-0.034	
19.100	0.003	-0.037	
19.105	-0.066	-0.035	
19.110	0.017	-0.032	
19.115	0.070	-0.024	
19.120	-0.046	-0.010	
19.125	-0.022	-0.003	
19.130	0.152	0.004	
19.135	0.075	0.023	
19.140	0.013	0.042	
19.145	0.061	0.052	
19.150	-0.008	0.053	
19.155	-0.109	0.041	
19.160	-0.048	0.014	
19.165	0.027	-0.009	
19.170	-0.055	-0.021	
19.175	-0.026	-0.028	
19.180	0.096	-0.027	
19.185	-0.038	-0.016	
19.190	-0.107	-0.011	
19.195	0.009	-0.018	
19.200	0.030	-0.021	
19.205	-0.083	-0.019	
19.210	-0.028	-0.022	
19.215	0.154	-0.019	
19.220	-0.035	-0.002	
19.225	-0.077	0.006	
19.230	0.024	0.002	
19.235	-0.031	-0.003	
19.240	-0.078	-0.011	
19.245	0.010	-0.020	
19.250	0.073	-0.021	
19.255	-0.054	-0.012	
19.260	-0.014	-0.008	
19.265	0.068	-0.005	
19.270	-0.066	-0.000	
19.275	-0.040	-0.002	
19.280	0.061	-0.007	
19.285	-0.005	-0.004	
19.290	-0.063	-0.003	
19.295	0.030	-0.006	
19.300	0.032	-0.005	
19.305	-0.081	-0.003	
19.310	0.018	-0.007	
19.315	0.117	-0.004	
19.320	-0.066	0.007	
19.325	-0.092	0.006	
19.330	0.064	-0.004	
19.335	-0.028	-0.008	
19.340	-0.083	-0.012	
19.345	0.036	-0.019	
19.350	0.079	-0.016	
19.355	-0.069	-0.005	
19.360	-0.008	-0.002	
19.365	0.114	0.001	
19.370	0.012	0.013	
19.375	0.023	0.024	
19.380	0.143	0.034	
19.385	-0.017	0.046	
19.390	-0.113	0.044	
19.395	0.023	0.024	
19.400	0.027	0.008	
19.405	-0.080	-0.001	
19.410	-0.013	-0.012	
19.415	0.090	-0.016	
19.420	-0.035	-0.009	
19.425	-0.051	-0.005	
19.430	0.084	-0.005	
19.435	0.041	0.003	
19.440	-0.048	0.012	
19.445	0.027	0.013	
19.450	0.047	0.014	
19.455	-0.063	0.014	
19.460	-0.037	0.006	
19.465	0.062	-0.002	
19.470	-0.052	-0.004	
19.475	-0.084	-0.010	
19.480	0.059	-0.019	
19.485	-0.035	-0.020	
19.490	-0.101	-0.022	
19.495	-0.032	-0.031	
19.500	0.021	-0.037	
19.505	-0.035	-0.034	
19.510	0.006	-0.028	
19.515	0.062	-0.018	
19.520	-0.081	-0.008	
19.525	-0.100	-0.011	
19.530	0.049	-0.021	
19.535	-0.022	-0.023	
19.540	-0.119	-0.025	
19.545	-0.035	-0.035	
19.550	0.084	-0.038	
19.555	-0.054	-0.029	
19.560	-0.031	-0.022	
19.565	0.076	-0.016	
19.570	-0.058	-0.007	
19.575	-0.043	-0.006	
19.580	0.131	-0.004	
19.585	0.020	0.008	
19.590	-0.078	0.017	
19.595	-0.023	0.011	
19.600	-0.052	-0.002	
19.605	-0.132	-0.020	
19.610	-0.077	-0.044	
19.615	0.018	-0.059	
19.620	-0.098	-0.062	
19.625	-0.109	-0.066	
19.630	-0.014	-0.070	
19.635	-0.038	-0.068	
19.640	-0.104	-0.063	
19.645	-0.014	-0.061	
19.650	-0.061	-0.058	
19.655	-0.168	-0.060	
19.660	-0.109	-0.073	
19.665	0.039	-0.082	
19.670	-0.077	-0.076	
19.675	-0.058	-0.067	
19.680	0.105	-0.054	
19.685	0.044	-0.029	
19.690	-0.046	-0.005	
19.695	0.094	0.011	
19.700	0.151	0.030	
19.705	-0.029	0.050	
19.710	-0.052	0.053	
19.715	0.006	0.039	
19.720	-0.095	0.018	
19.725	-0.110	-0.009	
19.730	-0.022	-0.036	
19.735	-0.049	-0.052	
19.740	-0.121	-0.061	
19.745	-0.058	-0.071	
19.750	-0.045	-0.075	
19.755	-0.121	-0.076	
19.760	-0.074	-0.079	
19.765	-0.008	-0.079	
19.770	-0.103	-0.073	
19.775	-0.116	-0.072	
19.780	-0.025	-0.075	
19.785	-0.081	-0.074	
19.790	-0.145	-0.075	
19.795	-0.040	-0.081	
19.800	-0.013	-0.080	
19.805	-0.115	-0.073	
19.810	-0.026	-0.068	
19.815	0.036	-0.060	
19.820	-0.066	-0.045	
19.825	-0.078	-0.038	
19.830	0.001	-0.037	
19.835	-0.075	-0.037	
19.840	-0.124	-0.043	
19.845	-0.051	-0.055	
19.850	-0.029	-0.063	
19.855	-0.119	-0.065	
19.860	-0.055	-0.069	
19.865	0.017	-0.069	
19.870	-0.101	-0.061	
19.875	-0.058	-0.057	
19.880	0.084	-0.051	
19.885	0.029	-0.032	
19.890	-0.090	-0.015	
19.895	-0.016	-0.011	
19.900	-0.038	-0.015	
19.905	-0.100	-0.023	
19.910	-0.025	-0.034	
19.915	0.032	-0.039	
19.920	-0.078	-0.036	
19.925	-0.081	-0.038	
19.930	0.024	-0.041	
19.935	-0.031	-0.038	
19.940	-0.077	-0.035	
19.945	0.081	-0.032	
19.950	0.116	-0.015	
19.955	-0.014	0.010	
19.960	0.003	0.024	
19.965	0.079	0.030	
19.970	-0.072	0.032	
19.975	-0.095	0.019	
19.980	0.044	-0.001	
19.985	0.015	-0.010	
19.990	-0.060	-0.012	
19.995	-0.002	-0.016	
20.000	-0.008	-0.018	
20.005	-0.115	-0.022	
20.010	-0.013	-0.031	
20.015	0.157	-0.029	
20.020	-0.026	-0.010	
20.025	-0.095	0.001	
20.030	0.064	-0.000	
20.035	0.068	0.004	
20.040	-0.068	0.011	
20.045	0.012	0.010	
20.050	0.039	0.008	
20.055	-0.100	0.005	
20.060	-0.087	-0.009	
20.065	0.030	-0.025	
20.070	-0.055	-0.033	
20.075	-0.031	-0.035	
20.080	0.073	-0.032	
20.085	0.006	-0.019	
20.090	-0.116	-0.010	
20.095	-0.032	-0.016	
20.100	0.007	-0.024	
20.105	-0.074	-0.028	
20.110	-0.046	-0.033	
20.115	0.062	-0.034	
20.120	-0.052	-0.027	
20.125	-0.074	-0.024	
20.130	0.046	-0.025	
20.135	-0.003	-0.021	
20.140	-0.072	-0.016	
20.145	0.026	-0.016	
20.150	0.032	-0.013	
20.155	-0.078	-0.008	
20.160	-0.045	-0.012	
20.165	0.068	-0.017	
20.170	-0.061	-0.014	
20.175	-0.086	-0.017	
20.180	-0.008	-0.026	
20.185	-0.057	-0.033	
20.190	-0.098	-0.041	
20.195	-0.016	-0.049	
20.200	-0.042	-0.052	
20.205	-0.129	-0.055	
20.210	-0.069	-0.063	
20.215	0.009	-0.067	
20.220	-0.110	-0.064	
20.225	-0.118	-0.066	
20.230	0.018	-0.070	
20.235	0.007	-0.062	
20.240	-0.078	-0.049	
20.245	-0.049	-0.043	
20.250	-0.055	-0.043	
20.255	-0.124	-0.048	
20.260	-0.029	-0.057	
20.265	0.127	-0.053	
20.270	0.041	-0.029	
20.275	-0.009	-0.003	
20.280	0.088	0.015	
20.285	0.009	0.030	
20.290	-0.104	0.032	
20.295	-0.080	0.014	
20.300	-0.023	-0.011	
20.305	-0.110	-0.032	
20.310	-0.098	-0.052	
20.315	0.009	-0.066	
20.320	-0.101	-0.069	
20.325	-0.152	-0.074	
20.330	-0.061	-0.084	
20.335	-0.060	-0.089	
20.340	-0.098	-0.088	
20.345	-0.013	-0.083	
20.350	0.006	-0.071	
20.355	-0.135	-0.058	
20.360	-0.097	-0.058	
20.365	0.018	-0.061	
20.370	-0.072	-0.058	
20.375	-0.115	-0.056	
20.380	-0.005	-0.060	
20.385	-0.046	-0.058	
20.390	-0.129	-0.057	
20.395	-0.081	-0.064	
20.400	-0.042	-0.071	
20.405	-0.109	-0.074	
20.410	-0.054	-0.076	
20.415	-0.002	-0.073	
20.420	-0.087	-0.065	
20.425	-0.121	-0.063	
20.430	0.010	-0.065	
20.435	0.009	-0.058	
20.440	-0.103	-0.047	
20.445	-0.048	-0.045	
20.450	-0.035	-0.046	
20.455	-0.121	-0.049	
20.460	-0.089	-0.058	
20.465	-0.020	-0.067	
20.470	-0.101	-0.069	
20.475	-0.104	-0.073	
20.480	-0.014	-0.076	
20.485	-0.104	-0.075	
20.490	-0.132	-0.076	
20.495	-0.005	-0.080	
20.500	0.050	-0.072	
20.505	-0.106	-0.055	
20.510	-0.072	-0.047	
20.515	0.065	-0.043	
20.520	-0.057	-0.033	
20.525	-0.069	-0.027	
20.530	0.017	-0.028	
20.535	-0.042	-0.027	
20.540	-0.110	-0.029	
20.545	-0.051	-0.039	
20.550	0.007	-0.047	
20.555	-0.112	-0.048	
20.560	-0.077	-0.054	
20.565	0.013	-0.058	
20.570	-0.084	-0.056	
20.575	-0.110	-0.057	
20.580	0.029	-0.059	
20.585	0.003	-0.052	
20.590	-0.089	-0.041	
20.595	0.013	-0.036	
20.600	-0.003	-0.030	
20.605	-0.097	-0.025	
20.610	-0.078	-0.031	
20.615	0.024	-0.039	
20.620	-0.083	-0.041	
20.625	-0.089	-0.045	
20.630	0.021	-0.049	
20.635	-0.052	-0.047	
20.640	-0.161	-0.049	
20.645	-0.074	-0.061	
20.650	-0.017	-0.071	
20.655	-0.107	-0.073	
20.660	-0.089	-0.075	
20.665	-0.016	-0.076	
20.670	-0.080	-0.072	
20.675	-0.089	-0.069	
20.680	-0.003	-0.066	
20.685	-0.043	-0.059	
20.690	-0.124	-0.055	
20.695	-0.017	-0.057	
20.700	0.050	-0.052	
20.705	-0.087	-0.041	
20.710	-0.075	-0.037	
20.715	0.039	-0.037	
20.720	-0.084	-0.034	
20.725	-0.100	-0.037	
20.730	0.023	-0.044	
20.735	-0.025	-0.042	
20.740	-0.129	-0.041	
20.745	-0.034	-0.048	
20.750	0.012	-0.050	
20.755	-0.104	-0.048	
20.760	-0.075	-0.050	
20.765	0.003	-0.054	
20.770	-0.049	-0.051	
20.775	-0.080	-0.048	
20.780	0.001	-0.048	
20.785	-0.063	-0.045	
20.790	-0.113	-0.046	
20.795	-0.052	-0.054	
20.800	-0.019	-0.059	
20.805	-0.103	-0.059	
20.810	-0.075	-0.062	
20.815	-0.008	-0.064	
20.820	-0.098	-0.062	
20.825	-0.129	-0.065	
20.830	-0.016	-0.071	
20.835	-0.032	-0.070	
20.840	-0.089	-0.065	
20.845	0.006	-0.059	
20.850	0.020	-0.048	
20.855	0.029	-0.031	
20.860	0.097	-0.008	
20.865	0.152	0.022	
20.870	-0.020	0.050	
20.875	-0.081	0.056	
20.880	0.036	0.042	
20.885	-0.034	0.025	
20.890	-0.156	0.004	
20.895	-0.092	-0.028	
20.900	-0.051	-0.056	
20.905	-0.148	-0.075	
20.910	-0.101	-0.092	
20.915	0.004	-0.099	
20.920	-0.063	-0.091	
20.925	-0.142	-0.083	
20.930	0.049	-0.077	
20.935	0.009	-0.062	
20.940	-0.119	-0.045	
20.945	-0.045	-0.042	
20.950	-0.026	-0.043	
20.955	-0.129	-0.046	
20.960	-0.098	-0.057	
20.965	-0.005	-0.067	
20.970	-0.121	-0.070	
20.975	-0.126	-0.076	
20.980	-0.023	-0.083	
20.985	-0.064	-0.082	
20.990	-0.148	-0.080	
20.995	-0.058	-0.084	
21.000	0.015	-0.082	
21.005	-0.086	-0.071	
21.010	-0.052	-0.062	
21.015	0.046	-0.053	
21.020	-0.104	-0.042	
21.025	-0.141	-0.043	
21.030	-0.028	-0.054	
21.035	-0.054	-0.061	
21.040	-0.132	-0.066	
21.045	-0.060	-0.073	
21.050	-0.031	-0.077	
21.055	-0.133	-0.076	
21.060	-0.122	-0.081	
21.065	-0.017	-0.086	
21.070	-0.100	-0.085	
21.075	-0.119	-0.084	
21.080	-0.014	-0.085	
21.085	-0.066	-0.079	
21.090	-0.141	-0.075	
21.095	-0.019	-0.076	
21.100	-0.003	-0.071	
21.105	-0.101	-0.061	
21.110	-0.052	-0.057	
21.115	0.073	-0.050	
21.120	-0.046	-0.036	
21.125	-0.089	-0.027	
21.130	0.009	-0.028	
21.135	-0.048	-0.028	
21.140	-0.130	-0.033	
21.145	-0.071	-0.047	
21.150	-0.017	-0.059	
21.155	-0.101	-0.063	
21.160	-0.087	-0.068	
21.165	0.009	-0.070	
21.170	-0.043	-0.063	
21.175	-0.116	-0.057	
21.180	-0.061	-0.059	
21.185	-0.060	-0.063	
21.190	-0.098	-0.066	
21.195	-0.011	-0.068	
21.200	0.035	-0.060	
21.205	-0.113	-0.048	
21.210	-0.083	-0.045	
21.215	0.006	-0.049	
21.220	-0.106	-0.049	
21.225	-0.135	-0.056	
21.230	-0.013	-0.067	
21.235	-0.063	-0.070	
21.240	-0.144	-0.072	
21.245	-0.046	-0.078	
21.250	-0.008	-0.078	
21.255	-0.139	-0.072	
21.260	-0.121	-0.075	
21.265	0.041	-0.079	
21.270	-0.031	-0.069	
21.275	-0.080	-0.056	
21.280	0.003	-0.048	
21.285	-0.048	-0.041	
21.290	-0.147	-0.041	
21.295	-0.098	-0.054	
21.300	-0.055	-0.068	
21.305	-0.119	-0.078	
21.310	-0.078	-0.086	
21.315	0.033	-0.085	
21.320	-0.092	-0.073	
21.325	-0.124	-0.067	
21.330	0.024	-0.066	
21.335	0.001	-0.057	
21.340	-0.101	-0.045	
21.345	-0.066	-0.043	
21.350	0.030	-0.044	
21.355	-0.081	-0.040	
21.360	-0.098	-0.041	
21.365	0.041	-0.045	
21.370	-0.077	-0.043	
21.375	-0.138	-0.046	
21.380	-0.051	-0.057	
21.385	-0.078	-0.067	
21.390	-0.167	-0.076	
21.395	-0.092	-0.090	
21.400	-0.026	-0.098	
21.405	-0.133	-0.096	
21.410	-0.113	-0.097	
21.415	-0.009	-0.096	
21.420	-0.092	-0.088	
21.425	-0.116	-0.082	
21.430	-0.028	-0.081	
21.435	0.020	-0.072	
21.440	-0.116	-0.059	
21.445	-0.011	-0.052	
21.450	0.088	-0.042	
21.455	-0.016	-0.022	
21.460	-0.013	-0.006	
21.465	0.078	0.005	
21.470	-0.052	0.013	
21.475	-0.074	0.010	
21.480	0.021	-0.001	
21.485	-0.069	-0.011	
21.490	-0.156	-0.027	
21.495	-0.061	-0.050	
21.500	-0.017	-0.066	
21.505	-0.141	-0.072	
21.510	-0.112	-0.081	
21.515	0.010	-0.087	
21.520	-0.057	-0.080	
21.525	-0.135	-0.073	
21.530	-0.028	-0.073	
21.535	0.007	-0.067	
21.540	-0.116	-0.058	
21.545	-0.061	-0.056	
21.550	-0.009	-0.056	
21.555	-0.100	-0.054	
21.560	-0.086	-0.057	
21.565	0.023	-0.059	
21.570	-0.052	-0.054	
21.575	-0.095	-0.049	
21.580	-0.014	-0.050	
21.585	-0.075	-0.050	
21.590	-0.118	-0.054	
21.595	-0.014	-0.061	
21.600	-0.003	-0.060	
21.605	-0.115	-0.055	
21.610	-0.080	-0.056	
21.615	0.007	-0.059	
21.620	-0.090	-0.057	
21.625	-0.132	-0.059	
21.630	0.021	-0.065	
21.635	-0.009	-0.060	
21.640	-0.083	-0.051	
21.645	-0.016	-0.045	
21.650	0.009	-0.039	
21.655	-0.101	-0.033	
21.660	-0.084	-0.037	
21.665	0.003	-0.045	
21.670	-0.071	-0.047	
21.675	-0.115	-0.051	
21.680	0.010	-0.057	
21.685	-0.031	-0.055	
21.690	-0.129	-0.052	
21.695	-0.029	-0.056	
21.700	0.038	-0.054	
21.705	-0.057	-0.044	
21.710	-0.046	-0.036	
21.715	0.026	-0.032	
21.720	-0.061	-0.026	
21.725	-0.097	-0.027	
21.730	0.015	-0.034	
21.735	0.020	-0.033	
21.740	-0.086	-0.028	
21.745	-0.019	-0.028	
21.750	0.061	-0.026	
21.755	-0.097	-0.020	
21.760	-0.078	-0.023	
21.765	0.049	-0.030	
21.770	-0.019	-0.027	
21.775	-0.112	-0.026	
21.780	0.067	-0.028	
21.785	0.023	-0.022	
21.790	-0.132	-0.016	
21.795	0.006	-0.021	
21.800	0.046	-0.023	
21.805	-0.124	-0.021	
21.810	-0.109	-0.030	
21.815	0.032	-0.044	
21.820	-0.084	-0.048	
21.825	-0.087	-0.052	
21.830	0.030	-0.055	
21.835	-0.005	-0.047	
21.840	-0.101	-0.039	
21.845	-0.013	-0.038	
21.850	0.007	-0.035	
21.855	-0.072	-0.031	
21.860	-0.052	-0.032	
21.865	0.038	-0.033	
21.870	-0.075	-0.030	
21.875	-0.139	-0.034	
21.880	-0.057	-0.049	
21.885	-0.032	-0.060	
21.890	-0.089	-0.065	
21.895	-0.031	-0.066	
21.900	0.061	-0.058	
21.905	-0.063	-0.043	
21.910	-0.048	-0.032	
21.915	0.064	-0.026	
21.920	-0.020	-0.015	
21.925	-0.089	-0.010	
21.930	0.065	-0.012	
21.935	0.030	-0.007	
21.940	-0.090	-0.002	
21.945	-0.011	-0.006	
21.950	0.029	-0.011	
21.955	-0.112	-0.015	
21.960	-0.084	-0.026	
21.965	0.035	-0.039	
21.970	-0.046	-0.040	
21.975	-0.126	-0.042	
21.980	-0.042	-0.051	
21.985	-0.042	-0.057	
21.990	-0.113	-0.061	
21.995	-0.066	-0.067	
22.000	-0.025	-0.070	
22.005	-0.116	-0.069	
22.010	-0.097	-0.072	
22.015	0.067	-0.072	
22.020	-0.045	-0.059	
22.025	-0.152	-0.049	
22.030	-0.043	-0.054	
22.035	-0.049	-0.059	
22.040	-0.144	-0.064	
22.045	-0.014	-0.071	
22.050	0.122	-0.063	
22.055	-0.008	-0.038	
22.060	0.067	-0.010	
22.065	0.156	0.018	
22.070	-0.028	0.045	
22.075	-0.101	0.050	
22.080	-0.022	0.031	
22.085	-0.064	0.007	
22.090	-0.170	-0.021	
22.095	-0.071	-0.053	
22.100	0.013	-0.073	
22.105	-0.129	-0.077	
22.110	-0.097	-0.080	
22.115	-0.025	-0.083	
22.120	-0.129	-0.082	
22.125	-0.155	-0.086	
22.130	0.001	-0.093	
22.135	-0.032	-0.087	
22.140	-0.155	-0.079	
22.145	-0.054	-0.078	
22.150	0.026	-0.074	
22.155	-0.115	-0.064	
22.160	-0.126	-0.062	
22.165	-0.035	-0.069	
22.170	-0.080	-0.072	
22.175	-0.087	-0.073	
22.180	0.004	-0.072	
22.185	-0.017	-0.062	
22.190	-0.124	-0.053	
22.195	-0.031	-0.053	
22.200	-0.011	-0.052	
22.205	-0.127	-0.050	
22.210	-0.052	-0.055	
22.215	0.050	-0.055	
22.220	-0.023	-0.044	
22.225	-0.077	-0.034	
22.230	-0.026	-0.032	
22.235	-0.071	-0.034	
22.240	-0.152	-0.044	
22.245	-0.075	-0.061	
22.250	0.010	-0.072	
22.255	-0.063	-0.069	
22.260	-0.052	-0.063	
22.265	0.007	-0.056	
22.270	-0.071	-0.047	
22.275	-0.089	-0.044	
22.280	0.027	-0.045	
22.285	-0.023	-0.040	
22.290	-0.100	-0.035	
22.295	-0.008	-0.037	
22.300	0.058	-0.034	
22.305	-0.098	-0.026	
22.310	-0.081	-0.027	
22.315	0.035	-0.033	
22.320	-0.043	-0.032	
22.325	-0.100	-0.033	
22.330	0.021	-0.038	
22.335	-0.013	-0.036	
22.340	-0.115	-0.034	
22.345	0.006	-0.038	
22.350	0.052	-0.035	
22.355	-0.074	-0.026	
22.360	-0.068	-0.024	
22.365	0.052	-0.026	
22.370	-0.057	-0.023	
22.375	-0.138	-0.026	
22.380	-0.016	-0.039	
22.385	-0.002	-0.046	
22.390	-0.095	-0.047	
22.395	-0.026	-0.048	
22.400	0.044	-0.045	
22.405	-0.103	-0.037	
22.410	-0.121	-0.039	
22.415	0.009	-0.048	
22.420	-0.077	-0.052	
22.425	-0.121	-0.057	
22.430	-0.013	-0.064	
22.435	-0.055	-0.065	
22.440	-0.156	-0.066	
22.445	-0.055	-0.074	
22.450	0.024	-0.076	
22.455	-0.110	-0.068	
22.460	-0.126	-0.066	
22.465	-0.043	-0.072	
22.470	-0.098	-0.076	
22.475	-0.092	-0.079	
22.480	0.079	-0.075	
22.485	0.021	-0.056	
22.490	-0.136	-0.036	
22.495	-0.068	-0.035	
22.500	0.053	-0.038	
22.505	-0.061	-0.033	
22.510	-0.052	-0.031	
22.515	0.049	-0.029	
22.520	-0.068	-0.024	
22.525	-0.133	-0.027	
22.530	-0.066	-0.042	
22.535	-0.049	-0.056	
22.540	-0.141	-0.067	
22.545	-0.058	-0.078	
22.550	0.018	-0.080	
22.555	-0.129	-0.073	
22.560	-0.127	-0.073	
22.565	-0.011	-0.078	
22.570	-0.058	-0.075	
22.575	-0.129	-0.072	
22.580	0.012	-0.071	
22.585	0.018	-0.062	
22.590	-0.124	-0.049	
22.595	-0.115	-0.050	
22.600	-0.064	-0.060	
22.605	-0.161	-0.073	
22.610	-0.104	-0.088	
22.615	0.047	-0.094	
22.620	-0.026	-0.082	
22.625	-0.029	-0.062	
22.630	0.162	-0.037	
22.635	0.130	0.001	
22.640	-0.075	0.036	
22.645	-0.048	0.043	
22.650	-0.022	0.030	
22.655	-0.098	0.009	
22.660	-0.136	-0.019	
22.665	-0.038	-0.048	
22.670	-0.145	-0.070	
22.675	-0.152	-0.090	
22.680	-0.032	-0.106	
22.685	-0.052	-0.106	
22.690	-0.156	-0.100	
22.695	-0.090	-0.100	
22.700	-0.022	-0.098	
22.705	-0.150	-0.092	
22.710	-0.118	-0.092	
22.715	-0.008	-0.094	
22.720	-0.081	-0.087	
22.725	-0.138	-0.082	
22.730	-0.074	-0.084	
22.735	-0.072	-0.086	
22.740	-0.136	-0.088	
22.745	-0.068	-0.091	
22.750	0.006	-0.088	
22.755	-0.104	-0.078	
22.760	-0.098	-0.072	
22.765	-0.008	-0.071	
22.770	-0.083	-0.066	
22.775	-0.142	-0.066	
22.780	-0.019	-0.071	
22.785	-0.043	-0.071	
22.790	-0.122	-0.069	
22.795	-0.013	-0.068	
22.800	0.018	-0.062	
22.805	-0.104	-0.051	
22.810	-0.104	-0.050	
22.815	0.001	-0.054	
22.820	-0.080	-0.055	
22.825	-0.136	-0.059	
22.830	0.012	-0.065	
22.835	-0.009	-0.062	
22.840	-0.153	-0.057	
22.845	-0.078	-0.062	
22.850	0.029	-0.066	
22.855	-0.097	-0.061	
22.860	-0.051	-0.057	
22.865	0.036	-0.052	
22.870	-0.034	-0.041	
22.875	-0.118	-0.035	
22.880	-0.009	-0.038	
22.885	0.007	-0.039	
22.890	-0.116	-0.037	
22.895	-0.045	-0.042	
22.900	0.055	-0.043	
22.905	-0.077	-0.037	
22.910	-0.089	-0.035	
22.915	0.027	-0.039	
22.920	-0.026	-0.036	
22.925	-0.089	-0.033	
22.930	-0.032	-0.037	
22.935	-0.063	-0.042	
22.940	-0.124	-0.049	
22.945	-0.089	-0.063	
22.950	0.036	-0.070	
22.955	-0.064	-0.064	
22.960	-0.101	-0.058	
22.965	0.017	-0.056	
22.970	-0.071	-0.051	
22.975	-0.129	-0.051	
22.980	-0.035	-0.058	
22.985	-0.055	-0.063	
22.990	-0.159	-0.068	
22.995	-0.089	-0.079	
23.000	0.053	-0.083	
23.005	-0.060	-0.071	
23.010	-0.098	-0.060	
23.015	-0.002	-0.056	
23.020	-0.116	-0.053	
23.025	-0.124	-0.059	
23.030	0.030	-0.066	
23.035	-0.002	-0.060	
23.040	-0.089	-0.049	
23.045	-0.040	-0.045	
23.050	0.027	-0.041	
23.055	-0.086	-0.035	
23.060	-0.110	-0.037	
23.065	-0.009	-0.046	
23.070	-0.072	-0.051	
23.075	-0.148	-0.058	
23.080	-0.051	-0.070	
23.085	-0.072	-0.078	
23.090	-0.161	-0.084	
23.095	-0.086	-0.093	
23.100	0.006	-0.096	
23.105	-0.074	-0.086	
23.110	-0.112	-0.077	
23.115	0.007	-0.072	
23.120	-0.063	-0.063	
23.125	-0.103	-0.058	
23.130	-0.016	-0.057	
23.135	-0.072	-0.056	
23.140	-0.173	-0.060	
23.145	-0.113	-0.076	
23.150	-0.054	-0.090	
23.155	-0.104	-0.096	
23.160	-0.092	-0.097	
23.165	0.107	-0.088	
23.170	0.105	-0.057	
23.175	0.010	-0.016	
23.180	0.093	0.017	
23.185	0.039	0.041	
23.190	-0.064	0.050	
23.195	-0.040	0.040	
23.200	-0.008	0.020	
23.205	-0.133	-0.002	
23.210	-0.161	-0.033	
23.215	-0.081	-0.066	
23.220	-0.103	-0.090	
23.225	-0.153	-0.106	
23.230	-0.072	-0.116	
23.235	-0.083	-0.117	
23.240	-0.170	-0.115	
23.245	-0.086	-0.116	
23.250	0.075	-0.108	
23.255	-0.058	-0.083	
23.260	-0.132	-0.064	
23.265	-0.057	-0.060	
23.270	-0.080	-0.062	
23.275	-0.122	-0.067	
23.280	0.003	-0.072	
23.285	0.000	-0.067	
23.290	-0.097	-0.056	
23.295	-0.058	-0.052	
23.300	0.023	-0.049	
23.305	-0.109	-0.044	
23.310	-0.107	-0.048	
23.315	0.026	-0.054	
23.320	-0.086	-0.054	
23.325	-0.177	-0.059	
23.330	-0.032	-0.072	
23.335	-0.023	-0.078	
23.340	-0.118	-0.075	
23.345	-0.057	-0.075	
23.350	0.079	-0.068	
23.355	-0.061	-0.050	
23.360	-0.103	-0.039	
23.365	0.018	-0.037	
23.370	-0.032	-0.035	
23.375	-0.118	-0.034	
23.380	-0.038	-0.042	
23.385	-0.014	-0.048	
23.390	-0.115	-0.050	
23.395	-0.068	-0.056	
23.400	0.009	-0.060	
23.405	-0.092	-0.057	
23.410	-0.081	-0.057	
23.415	0.036	-0.057	
23.420	-0.002	-0.046	
23.425	0.003	-0.031	
23.430	0.130	-0.012	
23.435	0.032	0.014	
23.440	-0.095	0.028	
23.445	-0.023	0.022	
23.450	0.084	0.012	
23.455	-0.071	0.008	
23.460	-0.066	-0.001	
23.465	0.032	-0.013	
23.470	-0.074	-0.020	
23.475	-0.130	-0.031	
23.480	-0.005	-0.047	
23.485	0.009	-0.052	
23.490	-0.097	-0.048	
23.495	0.030	-0.045	
23.500	0.084	-0.033	
23.505	-0.097	-0.016	
23.510	-0.106	-0.015	
23.515	0.009	-0.025	
23.520	-0.072	-0.033	
23.525	-0.124	-0.043	
23.530	0.035	-0.053	
23.535	-0.003	-0.051	
23.540	-0.116	-0.044	
23.545	-0.081	-0.048	
23.550	-0.008	-0.054	
23.555	-0.110	-0.056	
23.560	-0.107	-0.063	
23.565	0.076	-0.066	
23.570	0.010	-0.053	
23.575	-0.097	-0.036	
23.580	-0.045	-0.032	
23.585	-0.031	-0.034	
23.590	-0.127	-0.040	
23.595	-0.071	-0.051	
23.600	-0.003	-0.060	
23.605	-0.043	-0.059	
23.610	-0.049	-0.054	
23.615	0.072	-0.045	
23.620	-0.043	-0.030	
23.625	-0.080	-0.021	
23.630	0.055	-0.020	
23.635	0.020	-0.013	
23.640	-0.113	-0.008	
23.645	-0.040	-0.016	
23.650	0.053	-0.023	
23.655	-0.092	-0.024	
23.660	-0.126	-0.031	
23.665	-0.031	-0.047	
23.670	-0.084	-0.058	
23.675	-0.135	-0.068	
23.680	-0.046	-0.079	
23.685	0.059	-0.078	
23.690	-0.089	-0.063	
23.695	-0.087	-0.054	
23.700	-0.020	-0.053	
23.705	-0.110	-0.053	
23.710	-0.113	-0.060	
23.715	0.003	-0.068	
23.720	-0.068	-0.067	
23.725	-0.077	-0.064	
23.730	0.113	-0.056	
23.735	0.149	-0.028	
23.740	0.021	0.011	
23.745	0.026	0.038	
23.750	0.078	0.052	
23.755	0.032	0.058	
23.760	-0.072	0.054	
23.765	0.027	0.038	
23.770	-0.087	0.018	
23.775	-0.150	-0.008	
23.780	-0.064	-0.041	
23.785	-0.064	-0.065	
23.790	-0.145	-0.081	
23.795	-0.083	-0.094	
23.800	0.039	-0.095	
23.805	-0.089	-0.083	
23.810	-0.083	-0.072	
23.815	0.130	-0.059	
23.820	-0.037	-0.035	
23.825	-0.148	-0.021	
23.830	0.006	-0.026	
23.835	-0.020	-0.030	
23.840	-0.127	-0.034	
23.845	-0.074	-0.046	
23.850	-0.025	-0.057	
23.855	-0.090	-0.062	
23.860	-0.106	-0.067	
23.865	0.021	-0.070	
23.870	-0.048	-0.064	
23.875	-0.110	-0.058	
23.880	-0.037	-0.058	
23.885	-0.058	-0.059	
23.890	-0.200	-0.064	
23.895	-0.173	-0.085	
23.900	-0.071	-0.107	
23.905	-0.064	-0.116	
23.910	-0.034	-0.110	
23.915	0.067	-0.089	
23.920	-0.022	-0.059	
23.925	-0.127	-0.038	
23.930	-0.003	-0.034	
23.935	-0.011	-0.032	
23.940	-0.095	-0.031	
23.945	-0.006	-0.034	
23.950	0.094	-0.030	
23.955	-0.029	-0.015	
23.960	-0.049	-0.006	
23.965	0.081	-0.002	
23.970	0.007	0.005	
23.975	-0.106	0.008	
23.980	0.013	-0.001	
23.985	0.009	-0.009	
23.990	-0.077	-0.013	
23.995	0.006	-0.019	
24.000	0.113	-0.016	
24.005	-0.063	-0.004	
24.010	-0.090	-0.002	
24.015	0.070	-0.009	
24.020	0.046	-0.006	
24.025	-0.034	0.002	
24.030	0.020	0.006	
24.035	-0.009	0.006	
24.040	-0.121	-0.000	
24.045	-0.052	-0.017	
24.050	0.094	-0.029	
24.055	-0.043	-0.025	
24.060	-0.058	-0.020	
24.065	0.042	-0.020	
24.070	0.024	-0.014	
24.075	-0.072	-0.007	
24.080	-0.042	-0.010	
24.085	-0.016	-0.018	
24.090	-0.119	-0.027	
24.095	-0.066	-0.041	
24.100	0.073	-0.049	
24.105	-0.008	-0.040	
24.110	-0.031	-0.027	
24.115	0.067	-0.016	
24.120	-0.049	-0.005	
24.125	-0.139	-0.007	
24.130	-0.035	-0.023	
24.135	-0.040	-0.038	
24.140	-0.078	-0.048	
24.145	0.038	-0.051	
24.150	0.091	-0.039	
24.155	-0.069	-0.019	
24.160	-0.072	-0.011	
24.165	0.082	-0.011	
24.170	0.020	-0.004	
24.175	-0.023	0.005	
24.180	0.101	0.012	
24.185	0.021	0.022	
24.190	-0.097	0.025	
24.195	-0.029	0.013	
24.200	0.013	-0.002	
24.205	-0.121	-0.015	
24.210	-0.126	-0.035	
24.215	-0.003	-0.055	
24.220	-0.064	-0.064	
24.225	-0.106	-0.068	
24.230	0.003	-0.070	
24.235	0.038	-0.061	
24.240	-0.084	-0.045	
24.245	0.006	-0.035	
24.250	0.041	-0.025	
24.255	-0.122	-0.017	
24.260	-0.144	-0.026	
24.265	-0.020	-0.046	
24.270	-0.022	-0.056	
24.275	-0.048	-0.056	
24.280	0.065	-0.048	
24.285	0.084	-0.028	
24.290	-0.019	-0.003	
24.295	0.084	0.016	
24.300	0.139	0.036	
24.305	-0.009	0.055	
24.310	-0.048	0.058	
24.315	0.104	0.048	
24.320	-0.042	0.040	
24.325	-0.138	0.023	
24.330	-0.035	-0.005	
24.335	-0.022	-0.029	
24.340	-0.145	-0.046	
24.345	-0.066	-0.063	
24.350	0.027	-0.071	
24.355	-0.092	-0.067	
24.360	-0.138	-0.066	
24.365	0.023	-0.069	
24.370	-0.038	-0.064	
24.375	-0.109	-0.057	
24.380	0.021	-0.054	
24.385	-0.005	-0.046	
24.390	-0.150	-0.040	
24.395	-0.083	-0.047	
24.400	0.006	-0.057	
24.405	-0.112	-0.059	
24.410	-0.116	-0.065	
24.415	0.020	-0.071	
24.420	-0.020	-0.065	
24.425	-0.103	-0.056	
24.430	0.013	-0.051	
24.435	0.070	-0.039	
24.440	-0.115	-0.025	
24.445	-0.072	-0.023	
24.450	-0.016	-0.031	
24.455	-0.136	-0.040	
24.460	-0.118	-0.056	
24.465	0.062	-0.068	
24.470	0.009	-0.060	
24.475	-0.112	-0.047	
24.480	-0.045	-0.044	
24.485	0.012	-0.043	
24.490	-0.118	-0.041	
24.495	-0.071	-0.046	
24.500	0.012	-0.051	
24.505	-0.086	-0.051	
24.510	-0.098	-0.053	
24.515	0.021	-0.056	
24.520	-0.037	-0.052	
24.525	-0.074	-0.046	
24.530	0.039	-0.041	
24.535	0.065	-0.028	
24.540	-0.066	-0.012	
24.545	-0.031	-0.006	
24.550	0.042	-0.006	
24.555	-0.069	-0.005	
24.560	-0.074	-0.012	
24.565	0.044	-0.021	
24.570	-0.031	-0.022	
24.575	-0.126	-0.025	
24.580	-0.022	-0.036	
24.585	0.015	-0.042	
24.590	-0.110	-0.042	
24.595	-0.043	-0.045	
24.600	0.055	-0.045	
24.605	-0.060	-0.037	
24.610	-0.089	-0.033	
24.615	0.062	-0.033	
24.620	0.012	-0.025	
24.625	-0.121	-0.018	
24.630	-0.032	-0.023	
24.635	-0.014	-0.031	
24.640	-0.122	-0.037	
24.645	-0.098	-0.050	
24.650	0.003	-0.062	
24.655	-0.061	-0.063	
24.660	-0.081	-0.061	
24.665	0.064	-0.057	
24.670	-0.009	-0.042	
24.675	-0.118	-0.031	
24.680	-0.016	-0.031	
24.685	-0.009	-0.033	
24.690	-0.138	-0.036	
24.695	-0.074	-0.047	
24.700	0.145	-0.051	
24.705	0.006	-0.033	
24.710	-0.087	-0.015	
24.715	0.007	-0.010	
24.720	-0.064	-0.013	
24.725	-0.138	-0.024	
24.730	-0.035	-0.042	
24.735	0.012	-0.052	
24.740	-0.127	-0.054	
24.745	-0.095	-0.061	
24.750	-0.019	-0.068	
24.755	-0.113	-0.070	
24.760	-0.127	-0.076	
24.765	-0.029	-0.083	
24.770	-0.066	-0.083	
24.775	-0.133	-0.081	
24.780	-0.025	-0.081	
24.785	-0.035	-0.077	
24.790	-0.150	-0.072	
24.795	-0.066	-0.074	
24.800	0.085	-0.071	
24.805	0.030	-0.050	
24.810	0.018	-0.023	
24.815	0.188	0.006	
24.820	0.079	0.041	
24.825	-0.060	0.064	
24.830	0.003	0.062	
24.835	-0.008	0.046	
24.840	-0.158	0.022	
24.845	-0.115	-0.014	
24.850	0.023	-0.046	
24.855	-0.090	-0.061	
24.860	-0.121	-0.069	
24.865	-0.022	-0.077	
24.870	-0.051	-0.077	
24.875	-0.127	-0.074	
24.880	-0.054	-0.075	
24.885	-0.031	-0.075	
24.890	-0.118	-0.071	
24.895	-0.083	-0.072	
24.900	0.009	-0.072	
24.905	-0.083	-0.066	
24.910	-0.124	-0.063	
24.915	0.009	-0.065	
24.920	-0.020	-0.060	
24.925	-0.141	-0.054	
24.930	-0.013	-0.056	
24.935	0.000	-0.054	
24.940	-0.106	-0.049	
24.945	-0.084	-0.051	
24.950	0.038	-0.053	
24.955	-0.089	-0.049	
24.960	-0.124	-0.050	
24.965	0.021	-0.056	
24.970	-0.045	-0.054	
24.975	-0.129	-0.053	
24.980	-0.020	-0.057	
24.985	0.032	-0.055	
24.990	-0.090	-0.046	
24.995	-0.026	-0.041	
25.000	0.068	-0.035	
25.005	-0.068	-0.023	
25.010	-0.087	-0.020	
25.015	0.050	-0.024	
25.020	-0.054	-0.023	
25.025	-0.155	-0.028	
25.030	-0.058	-0.045	
25.035	-0.020	-0.058	
25.040	-0.132	-0.065	
25.045	-0.083	-0.073	
25.050	0.096	-0.073	
25.055	-0.008	-0.055	
25.060	-0.016	-0.033	
25.065	0.096	-0.013	
25.070	-0.006	0.007	
25.075	-0.113	0.014	
25.080	0.024	0.005	
25.085	0.056	-0.000	
25.090	-0.095	-0.001	
25.095	-0.054	-0.010	
25.100	0.036	-0.020	
25.105	-0.066	-0.024	
25.110	-0.081	-0.029	
25.115	0.003	-0.037	
25.120	-0.054	-0.040	
25.125	-0.113	-0.044	
25.130	-0.049	-0.053	
25.135	0.009	-0.057	
25.140	-0.046	-0.052	
25.145	0.042	-0.042	
25.150	0.075	-0.024	
25.155	-0.097	-0.006	
25.160	-0.104	-0.007	
25.165	0.056	-0.017	
25.170	-0.022	-0.020	
25.175	-0.126	-0.023	
25.180	-0.061	-0.035	
25.185	-0.045	-0.048	
25.190	-0.119	-0.058	
25.195	-0.075	-0.069	
25.200	0.062	-0.071	
25.205	-0.037	-0.058	
25.210	-0.055	-0.045	
25.215	0.091	-0.032	
25.220	-0.005	-0.014	
25.225	-0.141	-0.006	
25.230	-0.003	-0.014	
25.235	0.035	-0.020	
25.240	-0.072	-0.020	
25.245	-0.058	-0.024	
25.250	0.024	-0.029	
25.255	-0.097	-0.031	
25.260	-0.138	-0.041	
25.265	-0.069	-0.058	
25.270	-0.083	-0.072	
25.275	-0.116	-0.082	
25.280	-0.034	-0.088	
25.285	-0.016	-0.084	
25.290	-0.153	-0.076	
25.295	-0.130	-0.080	
25.300	0.000	-0.085	
25.305	-0.078	-0.082	
25.310	-0.135	-0.079	
25.315	-0.019	-0.080	
25.320	-0.060	-0.076	
25.325	-0.115	-0.072	
25.330	0.007	-0.070	
25.335	0.124	-0.055	
25.340	-0.016	-0.026	
25.345	0.032	-0.002	
25.350	0.171	0.021	
25.355	0.000	0.045	
25.360	-0.072	0.053	
25.365	-0.009	0.041	
25.370	-0.066	0.019	
25.375	-0.139	-0.007	
25.380	-0.054	-0.038	
25.385	-0.038	-0.059	
25.390	-0.148	-0.071	
25.395	-0.107	-0.085	
25.400	0.001	-0.092	
25.405	-0.086	-0.088	
25.410	-0.113	-0.082	
25.415	0.000	-0.079	
25.420	-0.074	-0.071	
25.425	-0.124	-0.067	
25.430	-0.046	-0.069	
25.435	-0.014	-0.068	
25.440	-0.135	-0.065	
25.445	-0.103	-0.069	
25.450	-0.005	-0.074	
25.455	-0.095	-0.073	
25.460	-0.095	-0.072	
25.465	-0.006	-0.072	
25.470	-0.055	-0.066	
25.475	-0.147	-0.063	
25.480	-0.029	-0.067	
25.485	0.010	-0.066	
25.490	-0.087	-0.058	
25.495	-0.034	-0.052	
25.500	0.052	-0.044	
25.505	-0.068	-0.032	
25.510	-0.084	-0.028	
25.515	0.044	-0.030	
25.520	-0.013	-0.026	
25.525	-0.112	-0.023	
25.530	-0.028	-0.030	
25.535	-0.031	-0.037	
25.540	-0.158	-0.045	
25.545	-0.089	-0.060	
25.550	0.064	-0.070	
25.555	-0.034	-0.061	
25.560	-0.090	-0.050	
25.565	0.015	-0.044	
25.570	0.001	-0.036	
25.575	-0.095	-0.029	
25.580	0.001	-0.029	
25.585	0.044	-0.026	
25.590	-0.035	-0.017	
25.595	0.001	-0.011	
25.600	0.094	-0.003	
25.605	0.006	0.011	
25.610	-0.038	0.018	
25.615	0.087	0.020	
25.620	-0.019	0.022	
25.625	-0.116	0.016	
25.630	0.010	-0.001	
25.635	0.024	-0.013	
25.640	-0.112	-0.018	
25.645	-0.064	-0.030	
25.650	0.047	-0.039	
25.655	-0.051	-0.037	
25.660	-0.095	-0.036	
25.665	0.021	-0.039	
25.670	0.006	-0.036	
25.675	-0.103	-0.031	
25.680	-0.013	-0.032	
25.685	0.026	-0.032	
25.690	-0.080	-0.028	
25.695	-0.052	-0.029	
25.700	0.055	-0.030	
25.705	-0.090	-0.027	
25.710	-0.133	-0.032	
25.715	-0.020	-0.046	
25.720	-0.042	-0.055	
25.725	-0.100	-0.058	
25.730	-0.040	-0.062	
25.735	-0.052	-0.063	
25.740	-0.132	-0.065	
25.745	-0.083	-0.072	
25.750	0.046	-0.074	
25.755	-0.086	-0.065	
25.760	-0.090	-0.058	
25.765	0.078	-0.053	
25.770	0.024	-0.037	
25.775	-0.077	-0.020	
25.780	0.038	-0.012	
25.785	0.076	-0.002	
25.790	-0.098	0.007	
25.795	-0.087	0.001	
25.800	-0.006	-0.015	
25.805	-0.087	-0.029	
25.810	-0.089	-0.043	
25.815	-0.026	-0.055	
25.820	-0.072	-0.061	
25.825	-0.129	-0.066	
25.830	-0.042	-0.074	
25.835	-0.009	-0.074	
25.840	-0.135	-0.070	
25.845	-0.051	-0.070	
25.850	0.026	-0.067	
25.855	-0.118	-0.058	
25.860	-0.129	-0.059	
25.865	-0.006	-0.066	
25.870	-0.011	-0.064	
25.875	-0.113	-0.058	
25.880	-0.031	-0.057	
25.885	0.001	-0.054	
25.890	-0.089	-0.048	
25.895	-0.023	-0.045	
25.900	0.165	-0.034	
25.905	0.093	-0.004	
25.910	-0.003	0.028	
25.915	0.067	0.045	
25.920	-0.020	0.050	
25.925	-0.129	0.039	
25.930	-0.060	0.011	
25.935	0.000	-0.017	
25.940	-0.129	-0.036	
25.945	-0.122	-0.056	
25.950	-0.009	-0.073	
25.955	-0.086	-0.079	
25.960	-0.118	-0.081	
25.965	0.007	-0.081	
25.970	-0.068	-0.074	
25.975	-0.132	-0.069	
25.980	-0.028	-0.071	
25.985	-0.022	-0.068	
25.990	-0.130	-0.063	
25.995	-0.100	-0.067	
26.000	0.013	-0.071	
26.005	-0.064	-0.066	
26.010	-0.087	-0.061	
26.015	0.030	-0.057	
26.020	-0.020	-0.046	
26.025	-0.090	-0.037	
26.030	-0.014	-0.036	
26.035	0.012	-0.034	
26.040	-0.124	-0.031	
26.045	-0.066	-0.039	
26.050	0.030	-0.045	
26.055	-0.075	-0.044	
26.060	-0.068	-0.044	
26.065	0.036	-0.044	
26.070	-0.045	-0.037	
26.075	-0.145	-0.037	
26.080	-0.054	-0.047	
26.085	0.049	-0.053	
26.090	-0.106	-0.049	
26.095	-0.095	-0.050	
26.100	0.020	-0.054	
26.105	-0.075	-0.052	
26.110	-0.109	-0.052	
26.115	0.029	-0.055	
26.120	-0.013	-0.049	
26.125	-0.109	-0.042	
26.130	0.007	-0.041	
26.135	0.108	-0.032	
26.140	-0.078	-0.015	
26.145	-0.078	-0.010	
26.150	0.076	-0.013	
26.155	-0.034	-0.010	
26.160	-0.106	-0.011	
26.165	0.009	-0.021	
26.170	-0.026	-0.027	
26.175	-0.109	-0.032	
26.180	-0.017	-0.041	
26.185	0.021	-0.043	
26.190	-0.086	-0.039	
26.195	-0.045	-0.039	
26.200	0.072	-0.036	
26.205	-0.040	-0.026	
26.210	-0.071	-0.019	
26.215	0.003	-0.021	
26.220	-0.031	-0.022	
26.225	-0.089	-0.026	
26.230	-0.002	-0.032	
26.235	0.026	-0.033	
26.240	-0.121	-0.030	
26.245	-0.103	-0.038	
26.250	0.035	-0.048	
26.255	-0.057	-0.049	
26.260	-0.084	-0.047	
26.265	-0.003	-0.048	
26.270	-0.064	-0.047	
26.275	-0.129	-0.050	
26.280	0.044	-0.055	
26.285	0.087	-0.045	
26.290	-0.104	-0.027	
26.295	-0.084	-0.022	
26.300	0.042	-0.027	
26.305	-0.045	-0.026	
26.310	-0.078	-0.026	
26.315	0.012	-0.031	
26.320	-0.005	-0.030	
26.325	-0.077	-0.027	
26.330	-0.005	-0.029	
26.335	0.020	-0.027	
26.340	-0.141	-0.026	
26.345	-0.100	-0.038	
26.350	-0.037	-0.054	
26.355	-0.103	-0.064	
26.360	-0.119	-0.075	
26.365	-0.023	-0.083	
26.370	-0.071	-0.082	
26.375	-0.153	-0.081	
26.380	-0.051	-0.086	
26.385	-0.043	-0.086	
26.390	-0.122	-0.082	
26.395	-0.025	-0.079	
26.400	0.058	-0.069	
26.405	-0.098	-0.051	
26.410	-0.119	-0.045	
26.415	0.009	-0.049	
26.420	0.003	-0.046	
26.425	-0.060	-0.038	
26.430	0.073	-0.030	
26.435	0.076	-0.012	
26.440	-0.077	0.005	
26.445	-0.049	0.007	
26.450	0.035	0.000	
26.455	-0.113	-0.007	
26.460	-0.148	-0.026	
26.465	0.007	-0.048	
26.470	-0.014	-0.057	
26.475	-0.132	-0.058	
26.480	-0.060	-0.064	
26.485	-0.026	-0.067	
26.490	-0.115	-0.067	
26.495	-0.103	-0.071	
26.500	-0.040	-0.077	
26.505	-0.145	-0.080	
26.510	-0.150	-0.090	
26.515	-0.034	-0.100	
26.520	-0.089	-0.100	
26.525	-0.161	-0.099	
26.530	-0.055	-0.102	
26.535	0.030	-0.096	
26.540	-0.098	-0.079	
26.545	-0.054	-0.067	
26.550	0.047	-0.055	
26.555	-0.089	-0.042	
26.560	-0.144	-0.040	
26.565	-0.029	-0.051	
26.570	-0.057	-0.058	
26.575	-0.126	-0.064	
26.580	-0.066	-0.072	
26.585	-0.014	-0.075	
26.590	-0.103	-0.072	
26.595	-0.083	-0.071	
26.600	-0.002	-0.070	
26.605	-0.110	-0.066	
26.610	-0.083	-0.065	
26.615	0.029	-0.065	
26.620	-0.014	-0.054	
26.625	-0.144	-0.046	
26.630	-0.068	-0.050	
26.635	-0.003	-0.056	
26.640	-0.132	-0.058	
26.645	-0.098	-0.065	
26.650	0.009	-0.071	
26.655	-0.072	-0.068	
26.660	-0.095	-0.065	
26.665	0.012	-0.063	
26.670	-0.026	-0.055	
26.675	-0.124	-0.048	
26.680	-0.005	-0.049	
26.685	0.047	-0.044	
26.690	-0.112	-0.035	
26.695	-0.046	-0.034	
26.700	0.082	-0.033	
26.705	-0.064	-0.024	
26.710	-0.109	-0.022	
26.715	-0.034	-0.032	
26.720	-0.086	-0.043	
26.725	-0.145	-0.056	
26.730	-0.026	-0.071	
26.735	0.041	-0.073	
26.740	-0.103	-0.062	
26.745	-0.095	-0.057	
26.750	-0.002	-0.058	
26.755	-0.092	-0.057	
26.760	-0.127	-0.060	
26.765	-0.035	-0.068	
26.770	-0.029	-0.070	
26.775	-0.083	-0.066	
26.780	-0.048	-0.063	
26.785	0.000	-0.058	
26.790	-0.135	-0.054	
26.795	-0.110	-0.059	
26.800	-0.032	-0.069	
26.805	-0.097	-0.073	
26.810	-0.098	-0.077	
26.815	-0.017	-0.079	
26.820	-0.060	-0.074	
26.825	-0.113	-0.070	
26.830	-0.032	-0.069	
26.835	0.001	-0.064	
26.840	-0.107	-0.057	
26.845	-0.057	-0.055	
26.850	0.076	-0.050	
26.855	-0.038	-0.036	
26.860	-0.072	-0.026	
26.865	0.026	-0.023	
26.870	-0.048	-0.021	
26.875	-0.124	-0.025	
26.880	-0.071	-0.039	
26.885	-0.042	-0.053	
26.890	-0.103	-0.062	
26.895	-0.069	-0.069	
26.900	0.020	-0.070	
26.905	-0.104	-0.064	
26.910	-0.141	-0.064	
26.915	-0.017	-0.071	
26.920	-0.035	-0.071	
26.925	-0.153	-0.069	
26.930	-0.045	-0.073	
26.935	0.044	-0.071	
26.940	-0.135	-0.061	
26.945	-0.098	-0.060	
26.950	-0.006	-0.064	
26.955	-0.116	-0.064	
26.960	-0.148	-0.071	
26.965	0.017	-0.079	
26.970	0.018	-0.073	
26.975	-0.038	-0.056	
26.980	0.140	-0.034	
26.985	0.146	0.002	
26.990	-0.020	0.038	
26.995	-0.029	0.052	
27.000	0.056	0.048	
27.005	-0.042	0.040	
27.010	-0.097	0.022	
27.015	-0.028	-0.002	
27.020	-0.066	-0.024	
27.025	-0.144	-0.044	
27.030	-0.075	-0.066	
27.035	-0.064	-0.081	
27.040	-0.132	-0.089	
27.045	-0.092	-0.096	
27.050	0.018	-0.095	
27.055	-0.081	-0.084	
27.060	-0.135	-0.075	
27.065	-0.019	-0.075	
27.070	-0.048	-0.070	
27.075	-0.109	-0.066	
27.080	-0.035	-0.065	
27.085	-0.034	-0.063	
27.090	-0.141	-0.061	
27.095	-0.049	-0.066	
27.100	0.096	-0.063	
27.105	-0.058	-0.046	
27.110	-0.138	-0.036	
27.115	-0.037	-0.042	
27.120	-0.052	-0.049	
27.125	-0.144	-0.057	
27.130	-0.037	-0.068	
27.135	-0.029	-0.072	
27.140	-0.100	-0.070	
27.145	-0.068	-0.069	
27.150	0.036	-0.066	
27.155	-0.071	-0.055	
27.160	-0.113	-0.049	
27.165	-0.006	-0.051	
27.170	-0.032	-0.050	
27.175	-0.133	-0.050	
27.180	-0.045	-0.056	
27.185	-0.002	-0.060	
27.190	-0.097	-0.057	
27.195	-0.038	-0.056	
27.200	0.047	-0.051	
27.205	-0.042	-0.038	
27.210	-0.055	-0.029	
27.215	0.093	-0.022	
27.220	0.020	-0.008	
27.225	-0.072	0.004	
27.230	-0.029	0.001	
27.235	0.001	-0.006	
27.240	-0.141	-0.016	
27.245	-0.107	-0.036	
27.250	0.026	-0.054	
27.255	-0.106	-0.061	
27.260	-0.097	-0.066	
27.265	0.090	-0.066	
27.270	0.030	-0.048	
27.275	-0.106	-0.029	
27.280	0.001	-0.022	
27.285	0.058	-0.017	
27.290	-0.097	-0.010	
27.295	-0.020	-0.012	
27.300	0.088	-0.013	
27.305	-0.058	-0.007	
27.310	-0.084	-0.007	
27.315	0.001	-0.017	
27.320	-0.043	-0.024	
27.325	-0.132	-0.033	
27.330	-0.043	-0.048	
27.335	0.003	-0.056	
27.340	-0.084	-0.055	
27.345	-0.060	-0.055	
27.350	0.009	-0.054	
27.355	-0.084	-0.049	
27.360	-0.136	-0.051	
27.365	-0.017	-0.060	
27.370	-0.043	-0.063	
27.375	-0.113	-0.063	
27.380	-0.009	-0.064	
27.385	0.053	-0.057	
27.390	-0.051	-0.040	
27.395	-0.019	-0.028	
27.400	0.017	-0.020	
27.405	-0.092	-0.016	
27.410	-0.115	-0.024	
27.415	-0.017	-0.039	
27.420	-0.016	-0.047	
27.425	-0.086	-0.048	
27.430	-0.031	-0.050	
27.435	-0.031	-0.050	
27.440	-0.133	-0.051	
27.445	-0.095	-0.060	
27.450	0.044	-0.067	
27.455	-0.064	-0.061	
27.460	-0.127	-0.056	
27.465	0.006	-0.058	
27.470	-0.040	-0.056	
27.475	-0.138	-0.054	
27.480	-0.011	-0.058	
27.485	0.015	-0.056	
27.490	-0.119	-0.049	
27.495	-0.078	-0.051	
27.500	0.020	-0.054	
27.505	-0.109	-0.053	
27.510	-0.145	-0.058	
27.515	-0.006	-0.069	
27.520	-0.052	-0.071	
27.525	-0.152	-0.071	
27.530	0.029	-0.073	
27.535	0.166	-0.057	
27.540	0.000	-0.022	
27.545	0.052	0.009	
27.550	0.140	0.034	
27.555	-0.052	0.053	
27.560	-0.124	0.048	
27.565	-0.051	0.021	
27.570	0.003	-0.007	
27.575	-0.075	-0.024	
27.580	-0.045	-0.038	
27.585	-0.025	-0.046	
27.590	-0.139	-0.052	
27.595	-0.122	-0.065	
27.600	-0.043	-0.079	
27.605	-0.135	-0.088	
27.610	-0.147	-0.097	
27.615	-0.054	-0.105	
27.620	-0.090	-0.106	
27.625	-0.148	-0.105	
27.630	-0.048	-0.105	
27.635	0.012	-0.096	
27.640	-0.126	-0.081	
27.645	-0.061	-0.072	
27.650	0.124	-0.061	
27.655	-0.052	-0.038	
27.660	-0.126	-0.024	
27.665	-0.029	-0.028	
27.670	-0.043	-0.036	
27.675	-0.122	-0.044	
27.680	-0.043	-0.055	
27.685	0.006	-0.060	
27.690	-0.115	-0.058	
27.695	-0.090	-0.061	
27.700	0.020	-0.064	
27.705	-0.100	-0.060	
27.710	-0.113	-0.061	
27.715	-0.002	-0.065	
27.720	-0.038	-0.062	
27.725	-0.121	-0.059	
27.730	-0.040	-0.061	
27.735	0.058	-0.057	
27.740	-0.112	-0.047	
27.745	-0.095	-0.045	
27.750	-0.020	-0.051	
27.755	-0.095	-0.055	
27.760	-0.121	-0.062	
27.765	0.003	-0.069	
27.770	-0.023	-0.067	
27.775	-0.089	-0.059	
27.780	-0.006	-0.054	
27.785	0.024	-0.045	
27.790	-0.113	-0.036	
27.795	-0.048	-0.036	
27.800	0.124	-0.034	
27.805	-0.026	-0.018	
27.810	-0.060	-0.007	
27.815	0.047	-0.004	
27.820	0.003	-0.001	
27.825	-0.106	-0.001	
27.830	-0.034	-0.012	
27.835	0.075	-0.020	
27.840	-0.080	-0.019	
27.845	-0.031	-0.020	
27.850	0.039	-0.021	
27.855	-0.071	-0.019	
27.860	-0.133	-0.026	
27.865	-0.026	-0.041	
27.870	0.026	-0.048	
27.875	-0.080	-0.045	
27.880	-0.005	-0.042	
27.885	0.017	-0.036	
27.890	-0.122	-0.031	
27.895	-0.095	-0.037	
27.900	-0.005	-0.048	
27.905	-0.048	-0.052	
27.910	-0.072	-0.052	
27.915	0.049	-0.049	
27.920	-0.006	-0.038	
27.925	-0.129	-0.029	
27.930	-0.034	-0.034	
27.935	0.018	-0.038	
27.940	-0.127	-0.039	
27.945	-0.118	-0.048	
27.950	0.017	-0.060	
27.955	-0.083	-0.062	
27.960	-0.093	-0.063	
27.965	0.041	-0.063	
27.970	0.044	-0.049	
27.975	-0.051	-0.030	
27.980	0.013	-0.017	
27.985	0.044	-0.007	
27.990	-0.110	-0.001	
27.995	-0.074	-0.009	
28.000	0.036	-0.022	
28.005	-0.075	-0.028	
28.010	-0.122	-0.036	
28.015	0.029	-0.047	
28.020	-0.032	-0.048	
28.025	-0.130	-0.048	
28.030	-0.084	-0.056	
28.035	-0.049	-0.066	
28.040	-0.150	-0.074	
28.045	-0.124	-0.086	
28.050	-0.028	-0.096	
28.055	-0.077	-0.095	
28.060	-0.121	-0.091	
28.065	0.023	-0.086	
28.070	-0.019	-0.072	
28.075	-0.159	-0.060	
28.080	-0.078	-0.062	
28.085	0.004	-0.066	
28.090	-0.057	-0.062	
28.095	-0.003	-0.053	
28.100	0.162	-0.035	
28.105	0.055	-0.002	
28.110	-0.045	0.025	
28.115	0.030	0.033	
28.120	0.041	0.034	
28.125	-0.098	0.029	
28.130	-0.022	0.013	
