Time	Potential	EKG	Unnamed: 3
0.0	0.105	0.0039258399773865835	
0.005	-0.141	0.005012930381052433	
0.01	0.287	0.019343430242637127	
0.015	0.229	0.04841786231369744	
0.02	-0.199	0.07093970212488862	
0.025	0.021	0.07333170688350396	
0.03	0.288	0.06740282083556055	
0.035	-0.202	0.05918416604482338	
0.04	-0.193	0.03647052419119953	
0.045	0.195	0.007550774729474502	
0.05	-0.116	-0.01554302022195773	
0.055	-0.298	-0.039749727660385405	
0.06	0.046	-0.06278053424207634	
0.065	0.052	-0.07738991484071012	
0.07	-0.287	-0.08398304581999672	
0.075	-0.087	-0.08826106426035804	
0.08	0.166	-0.08694375763887488	
0.085	-0.262	-0.08359123047642793	
0.09	-0.231	-0.08667783281681428	
0.095	0.169	-0.08860632356887163	
0.1	-0.026	-0.08290221512497462	
0.105	-0.095	-0.06433007645816081	
0.11	0.589	-0.01203958145577095	
0.115	0.626	0.08579242228952927	
0.12	0.052	0.19721415824065602	
0.125	0.314	-0.0586354390597109	
0.13	0.481	0.3196046815069078	
0.135	-0.150	0.3188101192789332	
0.14	-0.173	0.2690909666313235	
0.145	0.140	0.18702902802181082	
0.15	-0.139	0.09693108702575194	
0.155	-0.338	0.012175550209750776	
0.16	-0.080	-0.0586354390597109	
0.165	-0.080	-0.11803904765635334	
0.17	-0.349	-0.1612634267467938	
0.175	-0.142	-0.1808147074533179	
0.18	0.177	-0.1779575986935495	
0.185	-0.213	-0.15857301045943567	
0.19	-0.176	-0.13002398914045135	
0.195	0.275	-0.09645625462476777	
0.2	-0.020	-0.06025375820711035	
0.205	-0.217	-0.03125119610426198	
0.21	0.191	-0.008222833695740494	
0.215	0.145	0.010113572474523594	
0.22	-0.262	0.01719888296442146	
0.225	-0.051	0.013298806485731663	
0.23	0.336	0.007462004033124367	
0.235	-0.132	0.011060627092226123	
0.24	-0.087	0.018783730297847433	
0.245	0.449	0.03600937776185688	
0.25	0.116	0.06467451512176393	
0.255	-0.135	0.09135935123014963	
0.26	0.374	0.11406711199017677	
0.265	0.321	0.13732014162456266	
0.27	-0.202	0.1508198215672028	
0.275	-0.013	0.1413026198224619	
0.28	0.376	0.11778071853834349	
0.285	-0.136	0.09587612697918718	
0.29	-0.126	0.07659812542741172	
0.295	0.351	0.061264335486373486	
0.3	-0.011	0.052693738089592754	
0.305	-0.226	0.043128457273248946	
0.31	0.156	0.0321770712740901	
0.315	0.157	0.022462261298271648	
0.32	-0.236	0.013662871309414956	
0.325	0.003	0.00930194467728231	
0.33	0.388	0.012956288471722994	
0.335	-0.106	0.026791667388639164	
0.34	-0.100	0.041479016150875854	
0.345	0.431	0.05839966393752571	
0.35	0.108	0.07873056157210029	
0.355	-0.155	0.0969828969625051	
0.36	0.269	0.10720910548778581	
0.365	0.243	0.11256832586837485	
0.37	-0.193	0.10856980332093535	
0.375	-0.035	0.09523037633432707	
0.38	0.244	0.07104731094217064	
0.385	-0.223	0.03979070463752986	
0.39	-0.229	0.0063892585503233	
0.395	0.145	-0.02455077280961901	
0.4	-0.098	-0.054211348363362236	
0.405	-0.313	-0.07508831094634488	
0.41	-0.011	-0.08977936445711142	
0.415	-0.019	-0.10635593373557731	
0.42	-0.321	-0.12249175129535225	
0.425	-0.145	-0.12877573938900916	
0.43	0.128	-0.12984020782610195	
0.435	-0.249	-0.12927413761708179	
0.44	-0.232	-0.12368927292756139	
0.445	0.263	-0.10740128365234462	
0.45	0.070	-0.08020853949456022	
0.455	-0.026	-0.03524992583926708	
0.46	0.660	0.042360850946494895	
0.465	0.690	0.15379916879791455	
0.47	0.021	0.26427479467446385	
0.475	0.171	0.3281083803682012	
0.48	0.408	0.33535315848475794	
0.485	-0.145	0.2986734642115497	
0.49	-0.203	0.23110510638861656	
0.495	0.154	0.14871342857786266	
0.5	-0.124	0.06291083002910527	
0.505	-0.323	-0.011423862728831866	
0.51	-0.017	-0.06468266783421893	
0.515	0.044	-0.10304276828814724	
0.52	-0.280	-0.12375173154368442	
0.525	-0.116	-0.12392318353759008	
0.53	0.208	-0.11347905018625096	
0.535	-0.171	-0.09933790567109854	
0.54	-0.162	-0.07801694006188642	
0.545	0.347	-0.04813915304565704	
0.55	0.042	-0.015044092161270787	
0.555	-0.205	0.013351715824309673	
0.56	0.249	0.03637567815526179	
0.565	0.296	0.05913335469558442	
0.57	-0.182	0.07804660918345174	
0.575	0.049	0.08897325763320638	
0.58	0.489	0.09776309007698944	
0.585	-0.040	0.111630611759992	
0.59	-0.068	0.12375619119925359	
0.595	0.495	0.13299295684718726	
0.6	0.163	0.14609900404059475	
0.605	-0.150	0.15516269846317587	
0.61	0.227	0.15332852199726116	
0.615	0.281	0.141312830578606	
0.62	-0.202	0.12400115536380427	
0.625	0.015	0.10484264593438342	
0.63	0.437	0.08987505939994786	
0.635	-0.115	0.08370226424876401	
0.64	-0.142	0.07762321987340948	
0.645	0.347	0.0699874672036102	
0.65	0.041	0.0632234698856773	
0.655	-0.219	0.05711466964545529	
0.66	0.159	0.0502475045551635	
0.665	0.156	0.03940981920289788	
0.67	-0.249	0.02503316987666886	
0.675	-0.055	0.011732713451658189	
0.68	0.336	0.0039045932597973404	
0.685	-0.104	0.004796397034599544	
0.69	-0.103	0.014550163442256892	
0.695	0.438	0.034956278446766284	
0.7	0.094	0.06232894529991343	
0.705	-0.203	0.08106967964304648	
0.71	0.178	0.08814038294205698	
0.715	0.189	0.0815098722882227	
0.72	-0.240	0.06507861184942827	
0.725	-0.066	0.04558955932871464	
0.73	0.288	0.025936833535271688	
0.735	-0.170	0.008920087973514393	
0.74	-0.205	-0.0035698807362499127	
0.745	0.194	-0.015110818057113565	
0.75	-0.080	-0.029520469464024028	
0.755	-0.317	-0.045954424678795854	
0.76	-0.035	-0.06297124345963198	
0.765	0.032	-0.08437614819916675	
0.77	-0.320	-0.10587824632586763	
0.775	-0.181	-0.11653108092928811	
0.78	0.097	-0.12500670457681345	
0.785	-0.258	-0.135015406396945	
0.79	-0.254	-0.1376812683977765	
0.795	0.299	-0.12205736520035654	
0.8	0.244	-0.08139281792538568	
0.805	0.009	-0.012063794883375991	
0.81	0.614	0.08301939160508819	
0.815	0.713	0.1947878470161754	
0.82	0.000	0.29600620070438655	
0.825	0.117	0.3452802151285565	
0.83	0.369	0.3371152130729739	
0.835	-0.162	0.28403960670903755	
0.84	-0.229	0.206132798655547	
0.845	0.192	0.12294976172554517	
0.85	-0.101	0.044753211947160074	
0.855	-0.310	-0.019163553035797205	
0.86	-0.028	-0.06308191822418747	
0.865	0.062	-0.09606819366241436	
0.87	-0.271	-0.1149458432847148	
0.875	-0.103	-0.11378286637384073	
0.88	0.285	-0.09775973438548424	
0.885	-0.135	-0.07490294190117637	
0.89	-0.190	-0.050005920832204544	
0.895	0.287	-0.024997609826052185	
0.9	0.093	-0.0031483462298127407	
0.905	-0.205	0.01767754031450408	
0.91	0.218	0.038896048671709885	
0.915	0.356	0.06009859005337853	
0.92	-0.147	0.08294516255617801	
0.925	0.053	0.10007985957011718	
0.93	0.521	0.11540580374411258	
0.935	0.023	0.13512659753252565	
0.94	-0.003	0.15381762291261175	
0.945	0.531	0.17307477453413583	
0.95	0.256	0.19498404931806212	
0.955	-0.133	0.20853472903194825	
0.96	0.316	0.2098229479057162	
0.965	0.426	0.2052550762541035	
0.97	-0.124	0.19994359554224023	
0.975	-0.009	0.18492779363179132	
0.98	0.402	0.15845740299537567	
0.985	-0.103	0.13024142399092997	
0.99	-0.170	0.10072038586833225	
0.995	0.253	0.07300435457797375	
1.0	-0.002	0.04510855432264722	
1.005	-0.239	0.019560138717854537	
1.01	0.107	0.004720290300038274	
1.015	0.227	-0.0016919807942809581	
1.02	-0.213	-0.0019755447378738294	
1.025	-0.034	0.003846514400562499	
1.03	0.444	0.016458514842296212	
1.035	-0.077	0.037342307273720496	
1.04	-0.110	0.05765117192955638	
1.045	0.409	0.0749360783756284	
1.05	0.134	0.09222336586554605	
1.055	-0.207	0.1025519251294393	
1.06	0.166	0.10157062627478727	
1.065	0.299	0.0943717942186735	
1.07	-0.202	0.08513872589430643	
1.075	-0.078	0.07270679023310331	
1.08	0.236	0.05138794558079624	
1.085	-0.196	0.022501535058342077	
1.09	-0.257	-0.00736628320056664	
1.095	0.105	-0.03520612515301049	
1.1	-0.087	-0.06467756697982163	
1.105	-0.324	-0.08835510018955862	
1.11	-0.034	-0.10154193700601313	
1.115	0.046	-0.112626910798735	
1.12	-0.336	-0.12376882717731578	
1.125	-0.216	-0.12934362458453816	
1.13	0.081	-0.13663262974124799	
1.135	-0.255	-0.14744168932642332	
1.14	-0.257	-0.1493927867673129	
1.145	0.343	-0.12918944582745776	
1.15	0.318	-0.07660159004053559	
1.155	0.007	0.004596842554024805	
1.16	0.635	0.10743204791807484	
1.165	0.728	0.22246364375748431	
1.17	-0.054	-0.07660159004053559	
1.175	0.013	-0.07660159004053559	
1.18	0.371	0.3233997961187237	
1.185	-0.177	0.25766078973186496	
1.19	-0.278	0.17350509380112897	
1.195	0.058	0.08269974874099427	
1.2	-0.130	-0.0064947024091857415	
1.205	-0.381	-0.08034993437389971	
1.21	-0.122	-0.1307040245729122	
1.215	-0.009	-0.1675243554786147	
1.22	-0.306	-0.1886477668811541	
1.225	-0.159	-0.18548146295732354	
1.23	0.229	-0.16364261734291774	
1.235	-0.162	-0.13428354928797928	
1.24	-0.211	-0.102479543601303	
1.245	0.255	-0.0693310246934304	
1.25	0.046	-0.039488107023608124	
1.255	-0.211	-0.016383055238598395	
1.26	0.194	0.008273740403698689	
1.265	0.334	0.03552868381105516	
1.27	-0.170	0.06031275989231158	
1.275	0.017	0.07742334301882271	
1.28	0.492	0.09242414577584333	
1.285	0.003	0.11077969746881698	
1.29	-0.110	0.12440455184765703	
1.295	0.405	0.13064735408668082	
1.3	0.171	0.13364549513042367	
1.305	-0.144	0.13457944126535704	
1.31	0.264	0.1351518935149827	
1.315	0.374	0.13862624346223806	
1.32	-0.135	0.1413956138442768	
1.325	0.023	0.13728122861885517	
1.33	0.438	0.13140735993617642	
1.335	-0.069	0.1239355653642211	
1.34	-0.179	0.10933287381077232	
1.345	0.203	0.08651709084416431	
1.35	0.007	0.05379077129229485	
1.355	-0.265	0.02163149502243119	
1.36	0.007	-0.00402040132882066	
1.365	0.175	-0.026317473155373892	
1.37	-0.234	-0.04045674255060712	
1.375	-0.100	-0.04283805562761532	
1.38	0.339	-0.03563737850002775	
1.385	-0.074	-0.020913964466944598	
1.39	-0.136	0.00029591263796813867	
1.395	0.382	0.025426835277505243	
1.4	0.149	0.05389962509184558	
1.405	-0.199	0.07563809568747867	
1.41	0.111	0.08383954729451139	
1.415	0.212	0.07673038499462118	
1.42	-0.237	0.059626094044246625	
1.425	-0.150	0.03603976435817788	
1.43	0.134	0.0033247909566491768	
1.435	-0.214	-0.03579515128999768	
1.44	-0.284	-0.06773795823515538	
1.445	0.110	-0.08865073584210727	
1.45	-0.084	-0.10501692936724204	
1.455	-0.327	-0.1153351990185189	
1.46	-0.055	-0.11821531982883103	
1.465	0.064	-0.12122192940547188	
1.47	-0.333	-0.12636013869084045	
1.475	-0.240	-0.13001132566962614	
1.48	0.044	-0.1376203134423258	
1.485	-0.216	-0.1517880821760586	
1.49	-0.168	-0.14981441591574884	
1.495	0.576	-0.10554139554217429	
1.5	0.579	-0.007914775972910482	
1.505	0.223	0.12752418271662322	
1.51	0.736	0.2697667910181249	
1.515	0.777	0.39791584546042497	
1.52	-0.045	0.4765087822965319	
1.525	-0.003	0.4737960174973957	
1.53	0.327	0.4035044357269303	
1.535	-0.171	0.29730445064927524	
1.54	-0.307	0.18199753461473872	
1.545	0.021	0.07039211801148126	
1.55	-0.098	-0.02876536645972458	
1.555	-0.359	-0.1024933668172519	
1.56	-0.121	-0.1443372617181536	
1.565	0.020	-0.17196666244860243	
1.57	-0.300	-0.18537263925652264	
1.575	-0.171	-0.17722873270911788	
1.58	0.238	-0.154441241183213	
1.585	-0.167	-0.12666342475302428	
1.59	-0.242	-0.09908877370027983	
1.595	0.235	-0.07156584338738434	
1.6	0.099	-0.044717356611279284	
1.605	-0.193	-0.01763279399537995	
1.61	0.175	0.01166304015182442	
1.615	0.379	0.04316834524450869	
1.62	-0.106	0.0745168748432404	
1.625	0.070	0.10165960876641766	
1.63	0.576	0.12971413261131334	
1.635	0.055	0.16035711787752138	
1.64	-0.063	0.18073600038615412	
1.645	0.515	0.19249071094416326	
1.65	0.322	0.2074262934626747	
1.655	-0.112	0.2182458334238028	
1.66	0.299	0.22056084435597187	
1.665	0.427	0.21731651915205494	
1.67	-0.153	0.20755131002129168	
1.675	-0.071	0.18147959901479865	
1.68	0.314	0.14172905958732487	
1.685	-0.107	0.0985299734235058	
1.69	-0.239	0.057660956610785706	
1.695	0.192	0.02436820688456886	
1.7	0.049	-0.0024244039387249085	
1.705	-0.246	-0.018689992927159546	
1.71	0.036	-0.024596814225805938	
1.715	0.236	-0.02464050592420061	
1.72	-0.203	-0.021303928162252905	
1.725	-0.090	-0.012618773482919851	
1.73	0.357	-0.002321971326944647	
1.735	-0.069	0.011664098894242081	
1.74	-0.173	0.022617459044242363	
1.745	0.334	0.03625556649041666	
1.75	0.178	0.051684070130240616	
1.755	-0.210	0.06633857712276052	
1.76	0.093	0.07324736488770792	
1.765	0.272	0.0683982814340866	
1.77	-0.213	0.05881479982432136	
1.775	-0.150	0.043261506550775104	
1.78	0.162	0.01760914567396253	
1.785	-0.187	-0.01719812580738041	
1.79	-0.291	-0.049390868031685596	
1.795	0.081	-0.07285301227567813	
1.8	-0.068	-0.09424550600430255	
1.805	-0.335	-0.11160605416812158	
1.81	-0.071	-0.11881884367203427	
1.815	0.062	-0.12457709792007156	
1.82	-0.349	-0.13315112573320864	
1.825	-0.278	-0.13978814047203808	
1.83	0.061	-0.15035126657772435	
1.835	-0.177	-0.162167734928218	
1.84	-0.158	-0.15345604174314853	
1.845	0.649	-0.09776316559526238	
1.85	0.756	0.019873903746227915	
1.855	0.369	0.18528174277696996	
1.86	0.793	-0.09776316559526238	
1.865	0.788	-0.09776316559526238	
1.87	-0.090	-0.09776316559526238	
1.875	-0.095	-0.09776316559526238	
1.88	0.203	0.41872976689146024	
1.885	-0.220	0.27292959383072446	
1.89	-0.361	0.12840975895404286	
1.895	-0.049	0.0021545439491531017	
1.9	-0.136	-0.1010201729794651	
1.905	-0.390	-0.17270582693370015	
1.91	-0.164	-0.2079412593850038	
1.915	-0.017	-0.2253790008445255	
1.92	-0.341	-0.23213481584023285	
1.925	-0.220	-0.22097048749893977	
1.93	0.224	-0.19422300038104667	
1.935	-0.112	-0.15804532208089697	
1.94	-0.216	-0.11567758520630925	
1.945	0.211	-0.07382177919825189	
1.95	0.125	-0.038981588888314295	
1.955	-0.210	-0.00884076815582488	
1.96	0.107	0.017050310047450647	
1.965	0.376	0.03874362150015323	
1.97	-0.118	0.061769032803547896	
1.975	0.009	0.08194093465502131	
1.98	0.527	0.10390849493165434	
1.985	0.082	0.12994631431343628	
1.99	-0.072	0.15119012330694853	
1.995	0.515	0.1712600613780938	
2.0	0.330	0.1941087246283546	
2.005	-0.119	0.21104203292676338	
2.01	0.229	0.21400885791980015	
2.015	0.391	0.20485232774728837	
2.02	-0.153	0.1867525551948851	
2.025	-0.078	0.1578348148407881	
2.03	0.353	0.12295245543369254	
2.035	-0.083	0.09003113400557378	
2.04	-0.202	0.06112508672624099	
2.045	0.230	0.039213579430601636	
2.05	0.064	0.022199217717212612	
2.055	-0.277	0.006055419074075405	
2.06	0.021	-0.00606748793042545	
2.065	0.263	-0.014092311271700842	
2.07	-0.228	-0.016176555952335976	
2.075	-0.136	-0.015244612022621794	
2.08	0.337	-0.013061154840215871	
2.085	-0.038	-0.004873926253148792	
2.09	-0.152	0.010085276672327795	
2.095	0.318	0.030140456909077653	
2.1	0.119	0.047271935136426003	
2.105	-0.226	0.05606756366860087	
2.11	0.075	0.05583568919468987	
2.115	0.267	0.04993716967227935	
2.12	-0.232	0.03988776277666963	
2.125	-0.174	0.023674555244001624	
2.13	0.194	0.0009101323196258483	
2.135	-0.168	-0.02679016013333292	
2.14	-0.287	-0.05094677746987023	
2.145	0.079	-0.06891923228745957	
2.15	-0.034	-0.08564968566445141	
2.155	-0.323	-0.0999113120391373	
2.16	-0.106	-0.10622906759735005	
2.165	0.032	-0.11702492987336933	
2.17	-0.336	-0.1340923121754154	
2.175	-0.266	-0.14537264368059405	
2.18	0.087	-0.1530295183167961	
2.185	-0.119	-0.1567742205636592	
2.19	-0.109	-0.13802557362873658	
2.195	0.777	-0.06679530734352057	
2.2	0.855	0.07248091153343528	
2.205	0.353	0.25192844551021165	
2.21	0.704	-0.06679530734352057	
2.215	0.704	-0.06679530734352057	
2.22	-0.095	-0.06679530734352057	
2.225	-0.104	-0.06679530734352057	
2.23	0.258	0.395076330978489	
2.235	-0.158	0.25935304578500246	
2.24	-0.335	0.12980480364877287	
2.245	-0.008	0.020100669188803114	
2.25	-0.084	-0.07137941901000877	
2.255	-0.370	-0.136057862608994	
2.26	-0.130	-0.16837892245933117	
2.265	0.072	-0.18275018660149114	
2.27	-0.336	-0.1870795621626088	
2.275	-0.240	-0.17965078160550788	
2.28	0.220	-0.16287227667216214	
2.285	-0.084	-0.1375748125216368	
2.29	-0.190	-0.10231317160646392	
2.295	0.305	-0.05789400879575411	
2.3	0.229	-0.00827577849804088	
2.305	-0.190	0.035806819545681635	
2.31	0.180	0.07053493638774165	
2.315	0.450	0.100408334772535	
2.32	-0.103	0.1248918218775123	
2.325	0.003	0.13917410083853352	
2.33	0.524	0.14822952957283403	
2.335	0.117	0.1605376417357176	
2.34	-0.103	0.17051345928528103	
2.345	0.411	0.17505780559790884	
2.35	0.325	0.17991014308460362	
2.355	-0.135	0.18377404772164993	
2.36	0.180	0.18137271770815522	
2.365	0.418	0.17251429363120346	
2.37	-0.138	0.16100442599121084	
2.375	-0.071	0.1420223309627563	
2.38	0.424	0.12119158583411012	
2.385	-0.034	0.10471136035724748	
2.39	-0.208	0.08747116338152511	
2.395	0.189	0.0669012308888375	
2.4	0.072	0.04302978263503354	
2.405	-0.265	0.01787233497458211	
2.41	-0.042	-0.0027914434149536285	
2.415	0.215	-0.021478930641317853	
2.42	-0.232	-0.03581985763167474	
2.425	-0.165	-0.04206885610601831	
2.43	0.321	-0.04091167121878679	
2.435	-0.057	-0.031129902758077338	
2.44	-0.187	-0.01651899211769488	
2.445	0.272	0.002752928940563123	
2.45	0.201	0.024123328570415558	
2.455	-0.240	0.04195538416536439	
2.46	0.007	0.04904237997788946	
2.465	0.334	0.04551656999734534	
2.47	-0.190	0.04134047943802696	
2.475	-0.153	0.034833433365256135	
2.48	0.195	0.020958813172492187	
2.485	-0.174	-0.005991664409736957	
2.49	-0.306	-0.03648664631530701	
2.495	0.038	-0.062396577484613094	
2.5	-0.052	-0.08982226370358175	
2.505	-0.347	-0.11393441515926543	
2.51	-0.129	-0.1270395314924108	
2.515	0.078	-0.1374995955803851	
2.52	-0.320	-0.14658538246650038	
2.525	-0.281	-0.15020385884304632	
2.53	0.117	-0.1510423677397335	
2.535	-0.115	-0.14893327989241317	
2.54	-0.161	-0.13052277133884865	
2.545	0.547	-0.07636644284358599	
2.55	0.663	0.026286091837543126	
2.555	0.134	0.15499816232476682	
2.56	0.424	-0.07636644284358599	
2.565	0.557	-0.07636644284358599	
2.57	-0.130	-0.07636644284358599	
2.575	-0.162	-0.07636644284358599	
2.58	0.191	0.24596818492668893	
2.585	-0.174	0.1441772983352745	
2.59	-0.315	0.04740741511196352	
2.595	-0.005	-0.02946888334576895	
2.6	-0.074	-0.09264504337426041	
2.605	-0.353	-0.13896070416959752	
2.61	-0.126	-0.16017815355576898	
2.615	0.072	-0.16735991846710424	
2.62	-0.284	-0.16953255974569165	
2.625	-0.213	-0.1593790191306135	
2.63	0.215	-0.13896117878959624	
2.635	-0.092	-0.11479903475633338	
2.64	-0.240	-0.08972464270003723	
2.645	0.211	-0.060422616096726174	
2.65	0.194	-0.03053551993962343	
2.655	-0.187	-0.00012423498087275962	
2.66	0.131	0.03076843667527827	
2.665	0.429	0.061835531729063545	
2.67	-0.086	0.0903865597166949	
2.675	-0.011	0.11143681316684498	
2.68	0.570	0.13221393830667988	
2.685	0.171	0.1592898412404	
2.69	-0.069	0.18404835104375178	
2.695	0.470	0.20259982871973856	
2.7	0.427	0.22166861674566624	
2.705	-0.121	0.2367467964945112	
2.71	0.156	0.23361342085079323	
2.715	0.444	0.21700470664749597	
2.72	-0.109	0.19445316068446106	
2.725	-0.078	0.16725466876952483	
2.73	0.400	0.1382270599696544	
2.735	0.001	0.11345371135799327	
2.74	-0.202	0.09197304846077137	
2.745	0.183	0.07048368340031722	
2.75	0.114	0.04779195745514454	
2.755	-0.246	0.025807566731372633	
2.76	0.007	0.011496522724543767	
2.765	0.357	0.006045963067340706	
2.77	-0.158	0.011568544208508552	
2.775	-0.113	0.021161580548868308	
2.78	0.394	0.03217031588135448	
2.785	0.055	0.046575877397256826	
2.79	-0.142	0.06395808413325828	
2.795	0.337	0.08237397115155856	
2.8	0.285	0.10187295628418408	
2.805	-0.191	0.11586451439711844	
2.81	0.026	0.1163528386162696	
2.815	0.230	0.09802220850581722	
2.82	-0.214	0.06568851315399875	
2.825	-0.177	0.03310959678128378	
2.83	0.241	0.005091771015713672	
2.835	-0.104	-0.018324607120047343	
2.84	-0.275	-0.03602535517982489	
2.845	0.093	-0.04672197464899365	
2.85	0.056	-0.05707859410394361	
2.855	-0.280	-0.06507461936718906	
2.86	-0.071	-0.06570034457290841	
2.865	0.180	-0.06595302138940683	
2.87	-0.258	-0.06926978144669671	
2.875	-0.240	-0.07295564490312444	
2.88	0.152	-0.07890053788016771	
2.885	-0.112	-0.08727556924004998	
2.89	-0.190	-0.0860821710121828	
2.895	0.440	-0.05468924434898019	
2.9	0.565	0.017037096138861056	
2.905	0.044	0.11384995569238587	
2.91	0.366	0.20520539233467763	
2.915	0.643	-0.04987400710363784	
2.92	-0.068	-0.04987400710363784	
2.925	-0.116	0.3078804947801892	
2.93	0.275	0.25510783074082993	
2.935	-0.129	0.17885401868107226	
2.94	-0.310	0.09583993709372232	
2.945	-0.013	0.01917527985839027	
2.95	-0.017	-0.04987400710363784	
2.955	-0.336	-0.10206684430787759	
2.96	-0.130	-0.1288819641677557	
2.965	0.142	-0.14083298871985023	
2.97	-0.258	-0.1421397900023727	
2.975	-0.242	-0.1341345681864019	
2.98	0.197	-0.11991473120595511	
2.985	-0.058	-0.10408225589383469	
2.99	-0.232	-0.08418522318026411	
2.995	0.174	-0.05685522664989286	
3.0	0.166	-0.03182954091817127	
3.005	-0.234	-0.011121202585805047	
3.01	0.036	0.007063001961586046	
3.015	0.424	0.025249358165648918	
3.02	-0.104	0.048850160051396634	
3.025	-0.063	0.06976723573625468	
3.03	0.487	0.08914731717470302	
3.035	0.091	0.11097869334393713	
3.04	-0.161	0.12470505142371328	
3.045	0.275	0.12911697321540283	
3.05	0.311	0.12727980381183535	
3.055	-0.152	0.12786686401785363	
3.06	0.059	0.12496985742800694	
3.065	0.347	0.11428262484010973	
3.07	-0.145	0.09890999864539848	
3.075	-0.118	0.08171430220250893	
3.08	0.418	0.07012101401381901	
3.085	0.001	0.06705100911656835	
3.09	-0.231	0.0627097018097543	
3.095	0.146	0.05104587943238288	
3.1	0.113	0.0333043722624199	
3.105	-0.258	0.012925081262731576	
3.11	-0.060	-0.003079465763635091	
3.115	0.224	-0.01773480454705218	
3.12	-0.208	-0.03101570161019266	
3.125	-0.179	-0.03730356897262206	
3.13	0.339	-0.03393560666982152	
3.135	0.023	-0.01989200652726314	
3.14	-0.138	0.0027399160997412368	
3.145	0.296	0.032997019021391336	
3.15	0.235	0.06232332736586464	
3.155	-0.196	0.08094066158119582	
3.16	0.047	0.08785957270877123	
3.165	0.362	0.08627942138084996	
3.17	-0.196	0.07903142746579438	
3.175	-0.188	0.06162348611135459	
3.18	0.269	0.038029193820330605	
3.185	-0.072	0.015194748911670978	
3.19	-0.287	-0.006282813299628246	
3.195	0.007	-0.02809702030253062	
3.2	-0.016	-0.05760787932331721	
3.205	-0.332	-0.08899153404962876	
3.21	-0.124	-0.10721380986858761	
3.215	0.183	-0.1147055527202448	
3.22	-0.243	-0.11488960563061688	
3.225	-0.269	-0.10942678018176638	
3.23	0.099	-0.10699480742468608	
3.235	-0.110	-0.1117544948790795	
3.24	-0.226	-0.1103130209416846	
3.245	0.316	-0.0820721323281557	
3.25	0.522	-0.021507517363788264	
3.255	0.073	0.06694695474282757	
3.26	0.450	0.1677200878587028	
3.265	0.762	0.26638878300696023	
3.27	-0.013	0.339067843488607	
3.275	-0.095	0.35240169686441036	
3.28	0.310	0.31005480221530657	
3.285	-0.063	0.23535797757645407	
3.29	-0.313	0.14956557875926874	
3.295	-0.023	0.06383480525204502	
3.3	-0.006	-0.01738931562628054	
3.305	-0.329	-0.08203241263616477	
3.31	-0.119	-0.11738358310223079	
3.315	0.188	-0.13053890537120957	
3.32	-0.228	-0.12881317724957073	
3.325	-0.208	-0.11563545382238935	
3.33	0.243	-0.09592674736388328	
3.335	-0.037	-0.0745693354839213	
3.34	-0.232	-0.053502006650691575	
3.345	0.171	-0.031184353096989657	
3.35	0.168	-0.012307774574752638	
3.355	-0.242	0.0008867730768014904	
3.36	-0.048	0.007526120584016922	
3.365	0.345	0.010565302360006766	
3.37	-0.136	0.015191963895364391	
3.375	-0.107	0.02424372479574403	
3.38	0.424	0.038143167539424254	
3.385	0.104	0.059516963576470995	
3.39	-0.145	0.08137960298584396	
3.395	0.351	0.10279644273106979	
3.4	0.408	0.1278257637210069	
3.405	-0.156	0.151844364479708	
3.41	0.042	0.15940900174912082	
3.415	0.391	0.14963672143760148	
3.42	-0.124	0.13125455950752743	
3.425	-0.084	0.11114362376682692	
3.43	0.379	0.09612465357845099	
3.435	0.010	0.08461998773155213	
3.44	-0.234	0.07134768458110925	
3.445	0.169	0.055703211021756745	
3.45	0.209	0.04190041971930934	
3.455	-0.245	0.031909951581709936	
3.46	-0.061	0.022321687754963192	
3.465	0.351	0.013645453822382718	
3.47	-0.110	0.013365507020019943	
3.475	-0.110	0.022090238030115672	
3.48	0.379	0.036041017767366706	
3.485	0.056	0.05171375440707079	
3.49	-0.165	0.06338042258583884	
3.495	0.310	0.07759482828871703	
3.5	0.295	0.09393192588955059	
3.505	-0.181	0.1069933525570445	
3.51	0.020	0.10821897306784706	
3.515	0.380	0.10060239051124517	
3.52	-0.129	0.09148767867798756	
3.525	-0.153	0.07804301581118378	
3.53	0.299	0.06292139463267635	
3.535	-0.022	0.04583570455828438	
3.54	-0.258	0.028440372800046423	
3.545	0.067	0.010425862400716603	
3.55	0.093	-0.012042235230637051	
3.555	-0.321	-0.03484538083396371	
3.56	-0.124	-0.05387828137416671	
3.565	0.139	-0.07248161421735902	
3.57	-0.246	-0.09036608835675979	
3.575	-0.246	-0.09995268786902628	
3.58	0.117	-0.10319609482508647	
3.585	-0.148	-0.11009941522840802	
3.59	-0.294	-0.11650614380701904	
3.595	0.181	-0.1056362688223818	
3.6	0.449	-0.06698756191150375	
3.605	0.046	0.005218857390494198	
3.61	0.467	0.10305576898853307	
3.615	0.872	0.2185350932573953	
3.62	0.212	0.32868588983695946	
3.625	-0.003	-0.06466176721684279	
3.63	0.365	-0.06466176721684279	
3.635	-0.040	0.33001462752704036	
3.64	-0.315	0.23749228173774373	
3.645	-0.051	0.13320253169355945	
3.65	-0.034	0.02604996572275459	
3.655	-0.371	-0.06466176721684279	
3.66	-0.211	-0.12704175251121813	
3.665	0.073	-0.16551928564157353	
3.67	-0.234	-0.18616177566029046	
3.675	-0.263	-0.18202378369012262	
3.68	0.146	-0.16332727143583933	
3.685	-0.112	-0.14494698941872936	
3.69	-0.304	-0.12748520717588468	
3.695	0.064	-0.10880733638108331	
3.7	0.099	-0.0919455620442512	
3.705	-0.295	-0.07971591981339532	
3.71	-0.107	-0.07006690177636667	
3.715	0.240	-0.06346335437112802	
3.72	-0.170	-0.057210259401542445	
3.725	-0.147	-0.04509305848836757	
3.73	0.334	-0.02523219665672338	
3.735	0.061	-0.0009229374245072158	
3.74	-0.193	0.022395319293526346	
3.745	0.217	0.04223473152201181	
3.75	0.238	0.05714980151081884	
3.755	-0.199	0.0641756324594921	
3.76	-0.009	0.06489428536029135	
3.765	0.359	0.061671533675899934	
3.77	-0.083	0.05975032741222955	
3.775	-0.087	0.06179128305730612	
3.78	0.388	0.069872920884966	
3.785	0.033	0.07712600027276154	
3.79	-0.236	0.07524667189468524	
3.795	0.105	0.06225880009370033	
3.8	0.189	0.04328435636895918	
3.805	-0.220	0.02608669653741543	
3.81	-0.045	0.015833739264182446	
3.815	0.336	0.010812608811516522	
3.82	-0.132	0.010730342784427402	
3.825	-0.121	0.01666199466905475	
3.83	0.409	0.029975469912614815	
3.835	0.120	0.05220512986513721	
3.84	-0.161	0.07411366255610363	
3.845	0.311	0.09427352763481672	
3.85	0.366	0.11541669071050252	
3.855	-0.152	0.13399204095488043	
3.86	0.062	0.1407300818636646	
3.865	0.417	0.13793192657116904	
3.87	-0.113	0.12875553643095505	
3.875	-0.116	0.11352056419772011	
3.88	0.385	0.09900484696688647	
3.885	0.070	0.09032711856273505	
3.89	-0.237	0.08102956999083602	
3.895	0.053	0.06318166981129462	
3.9	0.101	0.03152203393666542	
3.905	-0.272	-0.001972629949657989	
3.91	-0.122	-0.028361331951534063	
3.915	0.223	-0.047022395227905044	
3.92	-0.173	-0.05916664899548123	
3.925	-0.210	-0.06054762529863428	
3.93	0.232	-0.054008191304129496	
3.935	-0.061	-0.04861226017237196	
3.94	-0.307	-0.04801864173840839	
3.945	0.026	-0.050828902949682946	
3.95	0.183	-0.055394010193638266	
3.955	-0.135	-0.04800973810083983	
3.96	0.253	-0.011393176465160417	
3.965	0.793	0.06510122457037817	
3.97	0.267	0.16982511298824154	
3.975	0.168	-0.011393176465160417	
3.98	0.603	-0.011393176465160417	
3.985	0.142	-0.011393176465160417	
3.99	-0.216	-0.011393176465160417	
3.995	0.096	-0.011393176465160417	
4.0	0.142	0.18374193199034058	
4.005	-0.268	0.0999605374839416	
4.01	-0.132	0.033469199096345145	
4.015	0.215	-0.01783273666246696	
4.02	-0.171	-0.05209951447772234	
4.025	-0.200	-0.06576820233996579	
4.03	0.211	-0.06392310390757824	
4.035	0.015	-0.05743424124000906	
4.04	-0.199	-0.04420551723471129	
4.045	0.156	-0.021865670098085276	
4.05	0.255	0.0018306284900476174	
4.055	-0.193	0.02185622208601004	
4.06	-0.014	0.03740867815380251	
4.065	0.420	0.05030050885171053	
4.07	-0.066	0.06384725967917158	
4.075	-0.086	0.07708869766809082	
4.08	0.554	0.09721038730428987	
4.085	0.293	0.13264700050910688	
4.09	-0.064	0.17261656983462526	
4.095	0.394	0.20512863955368657	
4.1	0.470	0.2289827365736332	
4.105	-0.090	0.24277797805988727	
4.11	0.111	0.2402938550889196	
4.115	0.548	0.22941119126641193	
4.12	-0.017	0.2169033146998118	
4.125	-0.075	0.19996169337167724	
4.13	0.470	0.18219384672992142	
4.135	0.186	0.17176281693857692	
4.14	-0.187	0.16158614776511843	
4.145	0.159	0.1450225489489548	
4.15	0.220	0.11705489667275984	
4.155	-0.232	0.08486467196694135	
4.16	-0.068	0.056204750009201415	
4.165	0.281	0.030387719663769804	
4.17	-0.153	0.00901301370360808	
4.175	-0.179	-0.0030578932510062938	
4.18	0.343	-0.0038800722101904345	
4.185	0.068	0.006830278380775869	
4.19	-0.203	0.020616343835465362	
4.195	0.226	0.03695403348046235	
4.2	0.356	0.05709365204309414	
4.205	-0.170	0.0789198823180567	
4.21	0.055	0.09511632892302788	
4.215	0.518	0.1093691317031622	
4.22	-0.016	0.12712017314519125	
4.225	-0.081	0.1398873077145848	
4.23	0.429	0.14499598335550767	
4.235	0.113	0.14493218859725446	
4.24	-0.213	0.1356824044287489	
4.245	0.127	0.11578387979391727	
4.25	0.168	0.08609298667712743	
4.255	-0.280	0.05109564448688443	
4.26	-0.165	0.01502217928218394	
4.265	0.128	-0.024761833275486388	
4.27	-0.234	-0.06471288526484989	
4.275	-0.266	-0.09205808904625638	
4.28	0.117	-0.10516037409503515	
4.285	-0.092	-0.11401005202769388	
4.29	-0.338	-0.11919805174089362	
4.295	-0.069	-0.12031357607571773	
4.3	0.035	-0.12694034343082228	
4.305	-0.258	-0.13180656992004836	
4.31	-0.013	-0.11697968206803598	
4.315	0.643	-0.06776817390180186	
4.32	0.252	0.020346190410965744	
4.325	0.238	0.1329150043515461	
4.33	0.828	0.2477920694648813	
4.335	0.376	0.34701460836506054	
4.34	-0.147	-0.06776817390180186	
4.345	0.124	-0.06776817390180186	
4.35	0.082	0.2940821848286875	
4.355	-0.362	0.18426365403955886	
4.36	-0.246	0.07093049199349687	
4.365	0.036	-0.031839657508244995	
4.37	-0.266	-0.11555038922086096	
4.375	-0.280	-0.16305286517449064	
4.38	0.087	-0.17728160464706616	
4.385	-0.089	-0.17692457265690423	
4.39	-0.275	-0.16413602962103419	
4.395	0.122	-0.13340800056410537	
4.4	0.258	-0.09090266476020936	
4.405	-0.203	-0.04674263095758192	
4.41	-0.046	-0.009102794567213088	
4.415	0.383	0.01818348669310936	
4.42	-0.061	0.040424819825396766	
4.425	-0.057	0.061865259413548805	
4.43	0.522	0.08975993473504405	
4.435	0.288	0.13013500106089276	
4.44	-0.122	0.16677076608436853	
4.445	0.281	0.18752841479830884	
4.45	0.409	0.19517541581441805	
4.455	-0.110	0.19427531250801908	
4.46	0.105	0.18781705976640933	
4.465	0.567	0.18421175092518774	
4.47	-0.019	0.18651838466022796	
4.475	-0.072	0.18179193467592156	
4.48	0.463	0.17366168528478632	
4.485	0.177	0.1692529071996981	
4.49	-0.213	0.15982782458402067	
4.495	0.078	0.1363624482268666	
4.5	0.159	0.09619598278630136	
4.505	-0.272	0.05145542967280527	
4.51	-0.155	0.010707254168371164	
4.515	0.211	-0.02491597842283653	
4.52	-0.187	-0.05228915497060402	
4.525	-0.222	-0.06615895828590872	
4.53	0.223	-0.06653019453271422	
4.535	-0.028	-0.06068091635568164	
4.54	-0.262	-0.0550236892106519	
4.545	0.068	-0.04576122745058764	
4.55	0.180	-0.03783996565742996	
4.555	-0.231	-0.03140444368124385	
4.56	-0.068	-0.022356031225950902	
4.565	0.324	-0.013007859992139251	
4.57	-0.132	-0.0021796764247792736	
4.575	-0.203	0.003826439846523481	
4.58	0.218	0.0043423009503830885	
4.585	-0.022	-0.0016000994978566097	
4.59	-0.263	-0.011959271868820773	
4.595	0.033	-0.02088415904969906	
4.6	0.078	-0.03482593500498147	
4.605	-0.323	-0.05330182365333086	
4.61	-0.184	-0.07244165020745187	
4.615	0.096	-0.09205112070285187	
4.62	-0.268	-0.11407173664070375	
4.625	-0.313	-0.13220056453992737	
4.63	0.050	-0.1417150378343886	
4.635	-0.127	-0.15151249716098594	
4.64	-0.375	-0.1589727381061694	
4.645	-0.139	-0.16195585610962765	
4.65	-0.066	-0.17474823251227556	
4.655	-0.381	-0.19130374583367998	
4.66	-0.173	-0.19551263105966382	
4.665	0.481	-0.16892581534695464	
4.67	0.333	-0.09000420218226196	
4.675	0.423	0.044697403114483225	
4.68	1.042	0.21835283307090417	
4.685	0.698	-0.09000420218226196	
4.69	-0.011	-0.09000420218226196	
4.695	0.272	-0.09000420218226196	
4.7	0.185	-0.09000420218226196	
4.705	-0.295	0.3656563122022626	
4.71	-0.199	0.22836011805782908	
4.715	0.056	0.09312921407821056	
4.72	-0.289	-0.02596503355712662	
4.725	-0.342	-0.11240757296636124	
4.73	0.007	-0.16563858117763447	
4.735	-0.138	-0.19732759979222447	
4.74	-0.381	-0.21115149049592458	
4.745	-0.110	-0.20699726311879924	
4.75	0.053	-0.19952129962393927	
4.755	-0.303	-0.186401006246609	
4.76	-0.159	-0.16367417875716228	
4.765	0.279	-0.13375298818185438	
4.77	-0.132	-0.10003700217809788	
4.775	-0.176	-0.06555029178311911	
4.78	0.365	-0.02750650136414048	
4.785	0.230	0.016715018356717445	
4.79	-0.116	0.06365500589391437	
4.795	0.343	0.10905549701665244	
4.8	0.527	0.1546330292228768	
4.805	-0.066	0.19644434421240023	
4.81	0.116	0.21922768764952746	
4.815	0.579	0.2294077547171684	
4.82	0.020	0.23295720738209758	
4.825	-0.064	0.22429696637929913	
4.83	0.525	0.21155205250350842	
4.835	0.256	0.20882876467197292	
4.84	-0.170	0.20356437519328313	
4.845	0.125	0.18395771145224998	
4.85	0.253	0.14872453556800658	
4.855	-0.228	0.1085173849836088	
4.86	-0.133	0.06913255060179574	
4.865	0.256	0.030387141969603702	
4.87	-0.150	-0.001913815680250647	
4.875	-0.229	-0.023707463624450666	
4.88	0.181	-0.03555743589115221	
4.885	0.006	-0.0431196778555763	
4.89	-0.262	-0.04735373146165146	
4.895	0.023	-0.045100055121876814	
4.9	0.168	-0.04429242313568399	
4.905	-0.262	-0.045425260709153564	
4.91	-0.144	-0.04588859239879829	
4.915	0.281	-0.04464085872138726	
4.92	-0.121	-0.040884699584379944	
4.925	-0.185	-0.03171972800877491	
4.93	0.275	-0.01657374755596334	
4.935	0.055	-0.00209604804059231	
4.94	-0.226	0.007620265698228543	
4.945	0.101	0.015879507784701746	
4.95	0.209	0.018754308308300646	
4.955	-0.268	0.014553470860050545	
4.96	-0.181	0.0010537710402986917	
4.965	0.117	-0.024594730898318498	
4.97	-0.260	-0.05987408062313259	
4.975	-0.313	-0.09279089195325628	
4.98	0.079	-0.11552431427105919	
4.985	-0.078	-0.1310338079027804	
4.99	-0.327	-0.13746366253172473	
4.995	-0.037	-0.13310771938283023	
5.0	0.064	-0.1281441621981128	
5.005	-0.335	-0.12753433509179551	
5.01	-0.188	-0.12498900513964839	
5.015	0.336	-0.11342519246981653	
5.02	0.117	-0.0768876645614263	
5.025	0.351	0.004093560608277062	
5.03	1.191	0.15065608878167364	
5.035	1.058	0.354065675154339	
5.04	0.486	0.5592856130738207	
5.045	0.704	0.004093560608277062	
5.05	0.571	0.7489933250960994	
5.055	-0.170	0.6973275191595444	
5.06	-0.138	0.5628305833586355	
5.065	0.186	0.3857175879717233	
5.07	-0.226	0.20918906035262058	
5.075	-0.329	0.06290658118655164	
5.08	0.024	-0.045370988192184006	
5.085	-0.139	-0.1257902156376991	
5.09	-0.407	-0.17773178183412613	
5.095	-0.119	-0.2011673339986558	
5.1	0.064	-0.20881709695482303	
5.105	-0.283	-0.2016423670421604	
5.11	-0.139	-0.17422176673482753	
5.115	0.292	-0.1361681129531689	
5.12	-0.127	-0.09684667209767894	
5.125	-0.194	-0.0602655517130796	
5.13	0.343	-0.02426462561588807	
5.135	0.168	0.0132834193755302	
5.14	-0.162	0.04705041211677933	
5.145	0.243	0.07784636414901025	
5.15	0.486	0.11037948964023646	
5.155	-0.098	0.14220342070951858	
5.16	0.047	0.1626256492288929	
5.165	0.562	0.17403387128310266	
5.17	0.104	0.18719155483833244	
5.175	-0.006	0.2005333300549253	
5.18	0.570	0.21580456334126624	
5.185	0.371	0.2374403216014295	
5.19	-0.113	0.2539126621845069	
5.195	0.276	0.25374702227155704	
5.2	0.458	0.241525285005014	
5.205	-0.115	0.22623012546326288	
5.21	-0.035	0.20048855519021902	
5.215	0.400	0.16705971018437393	
5.22	-0.081	0.1323078949632595	
5.225	-0.196	0.09846669024619296	
5.23	0.220	0.06771451772896178	
5.235	0.018	0.03653701685802151	
5.24	-0.240	0.00897005607152451	
5.245	0.119	-0.0023331841549201235	
5.25	0.324	0.0005578174780988123	
5.255	-0.176	0.014311431725397401	
5.26	-0.052	0.030418403611211536	
5.265	0.463	0.04603890495146516	
5.27	0.058	0.07040448544745802	
5.275	-0.064	0.09843197647369757	
5.28	0.452	0.1266357203638971	
5.285	0.255	0.15261370131561186	
5.29	-0.155	0.16898979794208047	
5.295	0.211	0.17153426840262465	
5.3	0.340	0.16356174208622826	
5.305	-0.185	0.14642290401035685	
5.31	-0.110	0.12034023995986817	
5.315	0.269	0.08394589502859655	
5.32	-0.129	0.04652370725857739	
5.325	-0.225	0.01446397230735149	
5.33	0.174	-0.00649017969856136	
5.335	-0.031	-0.027335674171111653	
5.34	-0.309	-0.04690551088032407	
5.345	-0.032	-0.060548793256586644	
5.35	0.110	-0.07446174426230087	
5.355	-0.303	-0.08748055522578445	
5.36	-0.213	-0.09568158554503789	
5.365	0.148	-0.10309691369986156	
5.37	-0.156	-0.10942964005335568	
5.375	-0.139	-0.1005364178354688	
5.38	0.658	-0.05247680255266791	
5.385	0.681	0.051754398802185214	
5.39	0.152	0.18707301062291892	
5.395	0.528	0.30834158396077727	
5.4	0.522	0.3855469377943411	
5.405	-0.171	0.4015387376194596	
5.41	-0.116	0.3531966442913065	
5.415	0.227	0.2618653782676493	
5.42	-0.208	0.15670500582535138	
5.425	-0.320	0.05743628824531094	
5.43	0.029	-0.0246502835738896	
5.435	-0.081	-0.09018664995821206	
5.44	-0.339	-0.13479754882402695	
5.445	-0.122	-0.1537370782456306	
5.45	0.058	-0.16444346917440045	
5.455	-0.271	-0.16729395807995023	
5.46	-0.141	-0.15179547993968068	
5.465	0.261	-0.12318913272673154	
5.47	-0.118	-0.09325533598780422	
5.475	-0.181	-0.06358066294281442	
5.48	0.308	-0.029674262019436737	
5.485	0.212	0.007844424841644246	
5.49	-0.155	0.04514322251010169	
5.495	0.111	0.07422068633090466	
5.5	0.392	0.09162789951082856	
5.505	-0.084	0.1046757142593564	
5.51	0.068	0.12012390815968643	
5.515	0.628	0.14288748074232643	
5.52	0.127	0.17679059581872275	
5.525	-0.057	0.2033166715898859	
5.53	0.492	0.2183092050493739	
5.535	0.284	0.2259269975087487	
5.54	-0.153	0.22411514025593743	
5.545	0.168	0.20614493302891218	
5.55	0.360	0.17968125863233356	
5.555	-0.165	0.15174362531547075	
5.56	-0.075	0.12203930571544211	
5.565	0.360	0.09382896062634358	
5.57	-0.104	0.06890377794507097	
5.575	-0.239	0.04433920540279896	
5.58	0.175	0.02118900702389832	
5.585	0.021	-0.0020190420177882357	
5.59	-0.269	-0.022767304302894177	
5.595	-0.002	-0.03394674747645384	
5.6	0.244	-0.03935528528639408	
5.605	-0.200	-0.03712951194452235	
5.61	-0.121	-0.02699305503728711	
5.615	0.321	-0.01727014427334539	
5.62	-0.071	-0.006012845888229314	
5.625	-0.144	0.0063807726920781255	
5.63	0.420	0.030103483971551243	
5.635	0.209	0.06301318486020707	
5.64	-0.203	0.09128285855270435	
5.645	0.081	0.09994492117434685	
5.65	0.217	0.08961572475400767	
5.655	-0.254	0.06497072780423269	
5.66	-0.187	0.03295293117549704	
5.665	0.157	-0.004354664564303309	
5.67	-0.194	-0.042902092888131974	
5.675	-0.306	-0.07459292224830702	
5.68	0.010	-0.09702784267414695	
5.685	-0.087	-0.12194949685970563	
5.69	-0.350	-0.14160904784274725	
5.695	-0.080	-0.1471001697785248	
5.7	0.064	-0.1484014278588156	
5.705	-0.315	-0.1489775946799321	
5.71	-0.208	-0.14305614537419195	
5.715	0.151	-0.13435002057008222	
5.72	-0.135	-0.12490133219179528	
5.725	-0.210	-0.10763254097145787	
5.73	0.307	-0.07596841021358004	
5.735	0.339	-0.025902440393756138	
5.74	0.000	0.04229848044908929	
5.745	0.460	0.12291252371844462	
5.75	0.669	0.2086957625669822	
5.755	-0.078	0.27592043682212275	
5.76	-0.072	0.29282193294483294	
5.765	0.269	0.25572338144338963	
5.77	-0.144	0.18712708079853896	
5.775	-0.255	0.11027452945783744	
5.78	0.134	0.044042646972066044	
5.785	-0.026	-0.01183455558259045	
5.79	-0.323	-0.054750045315258615	
5.795	-0.064	-0.0811240208136034	
5.8	0.151	-0.09823135459225302	
5.805	-0.263	-0.10504984656422993	
5.81	-0.165	-0.09917144003365691	
5.815	0.250	-0.08719681736659106	
5.82	-0.115	-0.07388358667494979	
5.825	-0.225	-0.05780518100711562	
5.83	0.250	-0.038892172965218214	
5.835	0.143	-0.01680345476894804	
5.84	-0.200	0.006131615397518423	
5.845	0.181	0.03090177223602104	
5.85	0.423	0.0598690003734681	
5.855	-0.142	0.08784416542507667	
5.86	-0.025	0.10575721749480672	
5.865	0.505	0.1159242220467477	
5.87	0.046	0.12911923906460845	
5.875	-0.109	0.1380799399899152	
5.88	0.405	0.1441470096783615	
5.885	0.269	0.15027591589505096	
5.89	-0.158	0.15506538209438053	
5.895	0.194	0.15384588989594494	
5.9	0.418	0.15093508218260926	
5.905	-0.135	0.14687856238670263	
5.91	-0.066	0.13568937779430007	
5.915	0.391	0.11790711811438025	
5.92	-0.068	0.09919463509009677	
5.925	-0.210	0.07807206580972822	
5.93	0.177	0.05406583716408848	
5.935	-0.037	0.024315002812871616	
5.94	-0.309	-0.011871737302883302	
5.945	-0.045	-0.041219842317798225	
5.95	0.215	-0.06106919443172339	
5.955	-0.205	-0.06702674868168323	
5.96	-0.098	-0.056334867263199154	
5.965	0.423	-0.033136752003106715	
5.97	0.007	0.0012670454320421554	
5.975	-0.121	0.03606794460899351	
5.98	0.409	0.0709974290624196	
5.985	0.261	0.1053775956231562	
5.99	-0.162	0.131157622586651	
5.995	0.097	0.13865950167030688	
6.0	0.333	0.1299238834906572	
6.005	-0.177	0.11307294755761609	
6.01	-0.110	0.09158826292798652	
6.015	0.343	0.06877256418411229	
6.02	-0.077	0.04938990136074398	
6.025	-0.242	0.033101056967618205	
6.03	0.093	0.012846429080436626	
6.035	-0.034	-0.017590742962130975	
6.04	-0.330	-0.0507028408881188	
6.045	-0.089	-0.07540631162855704	
6.05	0.111	-0.09613674954794117	
6.055	-0.277	-0.1108192146966982	
6.06	-0.171	-0.11239333481453506	
6.065	0.230	-0.10330541142423497	
6.07	-0.177	-0.09259078353083161	
6.075	-0.303	-0.08586638647340965	
6.08	0.127	-0.08117570845967455	
6.085	0.134	-0.07357707897248739	
6.09	-0.161	-0.05268301964180149	
6.095	0.305	-0.0094102820055912	
6.1	0.647	0.05989134149444855	
6.105	0.041	0.14418354972146635	
6.11	0.029	0.20652624539534303	
6.115	0.461	0.2326499407145395	
6.12	-0.061	0.22546272477901982	
6.125	-0.232	0.18913031022445354	
6.13	0.134	0.13373551822489896	
6.135	0.000	0.07044988353096077	
6.14	-0.327	0.009396609011699206	
6.145	-0.100	-0.03850152530684286	
6.15	0.075	-0.08017880963977363	
6.155	-0.312	-0.11269177777668384	
6.16	-0.205	-0.13042240043024783	
6.165	0.186	-0.13141344546148148	
6.17	-0.148	-0.12548458806684018	
6.175	-0.280	-0.11280476213902428	
6.18	0.081	-0.10031396559556298	
6.185	-0.002	-0.09357049785567202	
6.19	-0.289	-0.09057630565807295	
6.195	0.003	-0.0805059208399266	
6.2	0.253	-0.06618307498494455	
6.205	-0.193	-0.04770397107432539	
6.21	-0.116	-0.0284444854325701	
6.215	0.376	-0.008395790807498946	
6.22	-0.016	0.013515203479843156	
6.225	-0.161	0.03415927341989457	
6.23	0.266	0.05070655669043288	
6.235	0.097	0.05745276353138764	
6.24	-0.242	0.052370876136165215	
6.245	0.026	0.04248285964799347	
6.25	0.263	0.02886799995375739	
6.255	-0.214	0.017272039968171435	
6.26	-0.156	0.006518152797672353	
6.265	0.318	-0.0023452822474582056	
6.27	-0.060	-0.004472607475382043	
6.275	-0.214	-0.001889314166155039	
6.28	0.151	-0.00026777330361525	
6.285	-0.011	-0.009517768741616812	
6.29	-0.295	-0.02667396944964961	
6.295	-0.026	-0.04150130557937443	
6.3	0.208	-0.051080015612556685	
6.305	-0.225	-0.054775378059619934	
6.31	-0.144	-0.05049824824410856	
6.315	0.324	-0.04127123013242695	
6.32	-0.054	-0.025505556599639413	
6.325	-0.177	-0.007957546085820416	
6.33	0.261	0.010816098550987918	
6.335	0.166	0.028518869104355162	
6.34	-0.188	0.043224619304674985	
6.345	0.137	0.057518004806239295	
6.35	0.402	0.07200295427872241	
6.355	-0.139	0.08714692650512802	
6.36	-0.066	0.09444676517077139	
6.365	0.408	0.0948117997375256	
6.37	-0.016	0.09348863548910702	
6.375	-0.162	0.08896461240277961	
6.38	0.259	0.08185677613529393	
6.385	0.082	0.0705626309943928	
6.39	-0.274	0.05116069595388212	
6.395	-0.061	0.026502384603875336	
6.4	0.084	-0.00894570582065648	
6.405	-0.272	-0.04787463773413777	
6.41	-0.173	-0.07456482725675054	
6.415	0.220	-0.08411098531623731	
6.42	-0.144	-0.08652777632184275	
6.425	-0.275	-0.08311301395115185	
6.43	0.131	-0.07706032416639287	
6.435	0.119	-0.06738491729906723	
6.44	-0.171	-0.049952989576738764	
6.445	0.319	-0.008438850971218666	
6.45	0.742	0.06522074005558826	
6.455	0.212	0.16601173492126792	
6.46	0.334	0.2683124772911213	
6.465	0.808	0.35402255233698254	
6.47	0.191	0.4114612320199263	
6.475	-0.113	0.4176882000476819	
6.48	0.275	0.3699656829554264	
6.485	0.064	0.28773071460959576	
6.49	-0.312	0.19094559614856518	
6.495	-0.100	0.09647449035353166	
6.5	0.117	0.01031191653261611	
6.505	-0.281	-0.05696154619283291	
6.51	-0.229	-0.09774434857546983	
6.515	0.217	-0.11491598577951427	
6.52	-0.119	-0.1174571353787734	
6.525	-0.222	-0.10432508112755172	
6.53	0.241	-0.07698970069256525	
6.535	0.181	-0.04321404587737918	
6.54	-0.200	-0.007129325040396737	
6.545	0.064	0.022458696172482535	
6.55	0.350	0.04237849600475944	
6.555	-0.139	0.0569630125675483	
6.56	-0.063	0.06718868592868249	
6.565	0.478	0.0781725553688952	
6.57	0.065	0.0945348579480826	
6.575	-0.112	0.1115764760142067	
6.58	0.423	0.12805523872412317	
6.585	0.322	0.1478391783007235	
6.59	-0.153	0.16380069957567678	
6.595	0.180	0.16944232388905753	
6.6	0.440	0.167443079187359	
6.605	-0.118	0.161957506425561	
6.61	-0.068	0.15013557089722956	
6.615	0.461	0.1341809574139669	
6.62	0.052	0.12458256553325084	
6.625	-0.136	0.11956961153855929	
6.63	0.362	0.11900644703454992	
6.635	0.235	0.12086134991634623	
6.64	-0.220	0.11885344988933084	
6.645	-0.003	0.10538940514467587	
6.65	0.244	0.07639415015853689	
6.655	-0.214	0.04404008069352945	
6.66	-0.138	0.01916881886371027	
6.665	0.310	0.0030967634194344028	
6.67	-0.057	-0.004404320286768627	
6.675	-0.171	-0.003348653871745834	
6.68	0.302	0.009962742281582615	
6.685	0.136	0.027810099137840216	
6.69	-0.197	0.040917785411412465	
6.695	0.172	0.053415318392235525	
6.7	0.458	0.07536115603887902	
6.705	-0.093	0.10105794022471494	
6.71	-0.020	0.12015377218689166	
6.715	0.473	0.1310501061146973	
6.72	-0.013	0.13663891851738114	
6.725	-0.182	0.1286437076950101	
6.73	0.204	0.10986171234897998	
6.735	0.093	0.08186542430607849	
6.74	-0.266	0.051008191072108945	
6.745	-0.090	0.019294193928531832	
6.75	0.065	-0.01968696486440779	
6.755	-0.312	-0.06480416219483946	
6.76	-0.214	-0.09685936183994563	
6.765	0.241	-0.11002569459583378	
6.77	-0.113	-0.1072645349892592	
6.775	-0.295	-0.09532556224846782	
6.78	0.006	-0.08822761004091773	
6.785	-0.077	-0.09811435252875965	
6.79	-0.326	-0.11495208970409061	
6.795	-0.029	-0.11872539830062158	
6.8	0.336	-0.10364377570138673	
6.805	-0.058	-0.06678728704188347	
6.81	0.185	-0.004905854330140912	
6.815	0.816	0.08701999661539554	
6.82	0.388	0.1997643629244518	
6.825	-0.025	-0.06678728704188347	
6.83	0.382	-0.06678728704188347	
6.835	0.183	-0.06678728704188347	
6.84	-0.269	0.2710074979514504	
6.845	-0.101	0.19316798184257128	
6.85	0.056	0.09638490723598635	
6.855	-0.320	0.0012739732903672835	
6.86	-0.280	-0.07295882923333863	
6.865	0.085	-0.1240241132577761	
6.87	-0.174	-0.15818087510351286	
6.875	-0.286	-0.16736616390352854	
6.88	0.124	-0.15422018542481059	
6.885	0.068	-0.13003486267715117	
6.89	-0.255	-0.10300964436260995	
6.895	0.023	-0.07177390284466245	
6.9	0.266	-0.04358185315839505	
6.905	-0.179	-0.020835521861161978	
6.91	-0.090	-0.0009791836687676892	
6.915	0.423	0.02008699563194362	
6.92	0.030	0.04475238486728184	
6.925	-0.077	0.07051477520485397	
6.93	0.495	0.1038941369616472	
6.935	0.368	0.14702489776507488	
6.94	-0.130	0.18283096840143917	
6.945	0.238	0.20121580088914276	
6.95	0.573	0.21256563034541892	
6.955	-0.019	0.22512127853334327	
6.96	0.013	0.22889840823222077	
6.965	0.502	0.22015057033854896	
6.97	0.059	0.20683027301882073	
6.975	-0.121	0.18742477299864105	
6.98	0.359	0.16883471019304394	
6.985	0.232	0.15312557263355975	
6.99	-0.210	0.13686784483768122	
6.995	0.027	0.11511224730517684	
7.0	0.246	0.08456928976453351	
7.005	-0.197	0.051221513111620556	
7.01	-0.122	0.026864814596222888	
7.015	0.365	0.01410733250379795	
7.02	-0.032	0.013918309210094118	
7.025	-0.196	0.018428568022522858	
7.03	0.220	0.024746568899485524	
7.035	0.137	0.028166804558297526	
7.04	-0.226	0.027920588433808666	
7.045	0.056	0.029048914905417493	
7.05	0.374	0.03358165130772675	
7.055	-0.109	0.04529138927766116	
7.06	-0.077	0.05879919080195848	
7.065	0.366	0.06805004866740916	
7.07	-0.022	0.07199061579823661	
7.075	-0.188	0.06842385006672091	
7.08	0.263	0.06467286401572203	
7.085	0.127	0.059222248142078195	
7.09	-0.258	0.04896041276410156	
7.095	-0.071	0.03195435073920652	
7.1	0.160	0.003577092207058802	
7.105	-0.249	-0.02662849290977331	
7.11	-0.214	-0.050239560250688126	
7.115	0.169	-0.06698112188405153	
7.12	-0.130	-0.08093831496796387	
7.125	-0.278	-0.08758035184821192	
7.13	0.096	-0.08536774773562864	
7.135	-0.006	-0.08574260425283475	
7.14	-0.353	-0.09104511341543427	
7.145	-0.182	-0.10006625683361255	
7.15	0.056	-0.11938017906048572	
7.155	-0.232	-0.13665159777136493	
7.16	-0.052	-0.12925522076670123	
7.165	0.683	-0.07686176070912139	
7.17	0.356	0.022073654931034387	
7.175	0.116	0.13829693581681524	
7.18	0.638	-0.06688899736508618	
7.185	0.470	-0.06688899736508618	
7.19	-0.152	-0.06688899736508618	
7.195	0.017	-0.06688899736508618	
7.2	0.185	-0.058227009355106135	
7.205	-0.263	0.17034361856495955	
7.21	-0.234	0.07765050616502636	
7.215	0.113	-0.0018673999838461758	
7.22	-0.170	-0.06688899736508618	
7.225	-0.277	-0.10770237455082073	
7.23	0.085	-0.12030097202257167	
7.235	0.055	-0.11963859507387141	
7.24	-0.258	-0.10916624310351833	
7.245	0.001	-0.08706487561794286	
7.25	0.327	-0.058227009355106135	
7.255	-0.129	-0.026749116406692097	
7.26	-0.068	0.006615395881144734	
7.265	0.431	0.03824918601935528	
7.27	0.079	0.06905048981908632	
7.275	-0.084	0.0971592867472949	
7.28	0.447	0.12681054995828833	
7.285	0.333	0.15741988461112397	
7.29	-0.100	0.1806597299100679	
7.295	0.313	0.1989489689933946	
7.3	0.647	0.2219348676968815	
7.305	0.075	0.2531595707340428	
7.31	0.195	0.28050294101779794	
7.315	0.776	0.30838813717531055	
7.32	0.379	0.34510592988567046	
7.325	0.076	0.3760083477245375	
7.33	0.632	0.39279367773217116	
7.335	0.548	0.4025508901158834	
7.34	-0.051	0.4016346150148089	
7.345	0.241	0.3768066167340078	
7.35	0.458	0.3339624412334664	
7.355	-0.115	0.2822841539879174	
7.36	-0.057	0.22542690463150755	
7.365	0.440	0.17528030764097519	
7.37	0.017	0.13825390141229804	
7.375	-0.202	0.10907975366658278	
7.38	0.226	0.0846120944233108	
7.385	0.183	0.06359120368125826	
7.39	-0.205	0.05083906396507549	
7.395	0.056	0.044688817521273176	
7.4	0.368	0.04485582222662096	
7.405	-0.159	0.04849386181417442	
7.41	-0.126	0.050414569297338	
7.415	0.385	0.05005573695597979	
7.42	0.018	0.05338461979066381	
7.425	-0.176	0.05822486373055182	
7.43	0.247	0.062384120747724196	
7.435	0.124	0.06156511685331659	
7.44	-0.286	0.050063571817794694	
7.445	-0.055	0.029548954264258704	
7.45	0.172	0.0016911006889247793	
7.455	-0.274	-0.02826870969868382	
7.46	-0.263	-0.054557352093588196	
7.465	0.046	-0.08319597646258144	
7.47	-0.203	-0.1175039423435373	
7.475	-0.341	-0.14259638690732857	
7.48	-0.006	-0.15379884380350808	
7.485	-0.055	-0.16147574473819032	
7.49	-0.390	-0.16773935604201812	
7.495	-0.219	-0.17150624453554184	
7.5	-0.068	-0.1844437411089211	
7.505	-0.356	-0.20617213571346643	
7.51	-0.237	-0.21348878755939704	
7.515	0.324	-0.19224375279501402	
7.52	0.192	-0.13548039393374092	
7.525	0.133	-0.042554520631486	
7.53	0.806	0.08619937521816344	
7.535	0.676	0.2325292234170449	
7.54	-0.055	-0.12252397653205671	
7.545	0.090	-0.12252397653205671	
7.55	0.256	-0.12252397653205671	
7.555	-0.237	0.271881912914239	
7.56	-0.254	0.17143987428065827	
7.565	0.015	0.06567693730872573	
7.57	-0.255	-0.03841874541404002	
7.575	-0.413	-0.12252397653205671	
7.58	-0.077	-0.1778882277463042	
7.585	-0.092	-0.21546189843169025	
7.59	-0.365	-0.23165569982349157	
7.595	-0.168	-0.2245304654780493	
7.6	0.068	-0.21146502823408028	
7.605	-0.239	-0.1941420827475463	
7.61	-0.150	-0.16449030738349754	
7.615	0.313	-0.12026797130773954	
7.62	-0.043	-0.07452596850393137	
7.625	-0.193	-0.03459109632003622	
7.63	0.267	0.00022768434066336657	
7.635	0.172	0.029516762564851903	
7.64	-0.199	0.0481736499698427	
7.645	0.140	0.06254161500355046	
7.65	0.466	0.0806745272111205	
7.655	-0.057	0.10571705497537977	
7.66	-0.026	0.12541858476037804	
7.665	0.510	0.139883748774772	
7.67	0.165	0.15648210285648767	
7.675	-0.043	0.1742795824017691	
7.68	0.482	0.19329257802790456	
7.685	0.389	0.21561104308890372	
7.69	-0.124	0.2300807703446628	
7.695	0.146	0.22548058157857725	
7.7	0.426	0.20774663787561765	
7.705	-0.141	0.18373282324993123	
7.71	-0.156	0.14934794081513275	
7.715	0.296	0.10687963639139314	
7.72	-0.066	0.06555228493939838	
7.725	-0.246	0.03127518754345593	
7.73	0.162	0.006225055680320024	
7.735	0.120	-0.009349967527033192	
7.74	-0.277	-0.018837474814091742	
7.745	-0.051	-0.0245693241395779	
7.75	0.249	-0.03129624628710725	
7.755	-0.171	-0.03217684391431864	
7.76	-0.093	-0.023626138855737847	
7.765	0.424	-0.002192862954762396	
7.77	-0.016	0.024576496987618424	
7.775	-0.190	0.04431066026180516	
7.78	0.287	0.05814861598894543	
7.785	0.212	0.06964714323490417	
7.79	-0.222	0.07522998789196594	
7.795	-0.045	0.06936278694526782	
7.8	0.226	0.047650430950420125	
7.805	-0.231	0.01991420386130014	
7.81	-0.219	-0.006641475354472514	
7.815	0.070	-0.036300787555726306	
7.82	-0.207	-0.07536707352748308	
7.825	-0.356	-0.11160928031185374	
7.83	-0.034	-0.1359134902867441	
7.835	-0.060	-0.1573785360607584	
7.84	-0.338	-0.16970301228118007	
7.845	-0.130	-0.167601744993066	
7.85	0.084	-0.16137344883737406	
7.855	-0.309	-0.15712890513932323	
7.86	-0.304	-0.15261534499898982	
7.865	0.024	-0.15423715788827203	
7.87	-0.135	-0.1624348929144981	
7.875	-0.150	-0.15264863468025083	
7.88	0.699	-0.09173664072977947	
7.885	0.910	0.04367996036715108	
7.89	0.408	0.22813956188795437	
7.895	0.733	-0.07130659161075759	
7.9	0.829	-0.07130659161075759	
7.905	0.007	-0.07130659161075759	
7.91	-0.113	-0.07130659161075759	
7.915	0.215	-0.07130659161075759	
7.92	-0.156	0.3045965112161303	
7.925	-0.333	0.15626364105777082	
7.93	-0.046	0.031221781963273423	
7.935	-0.083	-0.07130659161075759	
7.94	-0.375	-0.14485099030895127	
7.945	-0.127	-0.1815495624303561	
7.95	0.192	-0.1872192211501085	
7.955	-0.207	-0.17023325813318052	
7.96	-0.138	-0.1346769345169281	
7.965	0.301	-0.09108079939880284	
7.97	-0.005	-0.050457066210158254	
7.975	-0.126	-0.010810794985422227	
7.98	0.431	0.03530694107032279	
7.985	0.391	0.09071206209941342	
7.99	-0.124	0.14299424704276179	
7.995	0.232	0.17643499805420543	
8.0	0.557	0.2008790527219837	
8.005	-0.003	0.22069368482998056	
8.01	0.062	0.23023121714026093	
8.015	0.643	0.23700612142475067	
8.02	0.235	0.25160714044595966	
8.025	-0.032	0.26409892971331606	
8.03	0.501	0.26924478072921076	
8.035	0.467	0.2768024440431999	
8.04	-0.089	0.28105056111135274	
8.045	0.166	0.2703138628815972	
8.05	0.426	0.24484685874952394	
8.055	-0.121	0.2118516494978097	
8.06	-0.098	0.17219825002646838	
8.065	0.347	0.1318378490942541	
8.07	-0.051	0.09473372310184233	
8.075	-0.219	0.06222569481035055	
8.08	0.110	0.03304681212202608	
8.085	0.058	0.004783234036452706	
8.09	-0.300	-0.023726800425900002	
8.095	-0.098	-0.04477089334304155	
8.1	0.177	-0.06329257127032153	
8.105	-0.225	-0.07596063880080495	
8.11	-0.188	-0.07775874886055799	
8.115	0.218	-0.07234967078321392	
8.12	-0.101	-0.06720004009237995	
8.125	-0.248	-0.061653651913075994	
8.13	0.151	-0.0510814022386101	
8.135	0.163	-0.038239487962775445	
8.14	-0.229	-0.022601328842248	
8.145	-0.023	-0.008835908721829709	
8.15	0.290	-0.00037795040961687216	
8.155	-0.197	0.004133022757720534	
8.16	-0.145	0.005242555357610237	
8.165	0.282	0.004549401695922272	
8.17	-0.112	0.0008566163670997998	
8.175	-0.284	-0.010600921987619817	
8.18	0.038	-0.027186940260388006	
8.185	-0.025	-0.05324345255191584	
8.19	-0.364	-0.0825060204566035	
8.195	-0.164	-0.10688332690154358	
8.2	0.049	-0.13042243100006962	
8.205	-0.284	-0.14978605563052222	
8.21	-0.271	-0.15675049625659876	
8.215	0.015	-0.15950437000192905	
8.22	-0.219	-0.17012633878627856	
8.225	-0.359	-0.1785772833721045	
8.23	0.085	-0.17316366742719197	
8.235	0.343	-0.14221392161123278	
8.24	0.116	-0.06951191677880136	
8.245	0.683	0.05417011337469156	
8.25	1.020	0.2196416754999127	
8.255	0.347	0.3851074508695961	
8.26	0.133	-0.06951191677880136	
8.265	0.429	0.5115289566564558	
8.27	-0.077	0.4518617853858843	
8.275	-0.300	0.33932591875975765	
8.28	-0.032	0.2048476858042871	
8.285	-0.086	0.06883214456276189	
8.29	-0.390	-0.04757508502142613	
8.295	-0.196	-0.12786392462452528	
8.3	-0.006	-0.18130005712031536	
8.305	-0.318	-0.21487604137126967	
8.31	-0.257	-0.22181494179186362	
8.315	0.185	-0.20431744410849184	
8.32	-0.075	-0.17414072550176157	
8.325	-0.240	-0.13476760768868895	
8.33	0.127	-0.09403893716351697	
8.335	0.127	-0.062135599023782545	
8.34	-0.222	-0.036784122688186746	
8.345	0.064	-0.011823915956666476	
8.35	0.418	0.015873394417681957	
8.355	-0.152	0.04493843555850232	
8.36	-0.086	0.06406433943483328	
8.365	0.518	0.0799013844449717	
8.37	0.206	0.10884173542262385	
8.375	-0.052	0.14403812128571392	
8.38	0.427	0.17708435300927	
8.385	0.423	0.20497139610139428	
8.39	-0.084	0.22605114923867634	
8.395	0.233	0.23515839482443573	
8.4	0.547	0.23800007385552382	
8.405	-0.069	0.23588514025867513	
8.41	-0.054	0.21998988639074551	
8.415	0.441	0.19295988403407505	
8.42	0.020	0.16585366056186301	
8.425	-0.207	0.13598667506164033	
8.43	0.191	0.10308998729115648	
8.435	0.105	0.07000800491776205	
8.44	-0.272	0.03605896599733262	
8.445	-0.055	0.008140439196182365	
8.45	0.278	-0.012992920684130847	
8.455	-0.188	-0.02406863385537787	
8.46	-0.145	-0.024002402104629224	
8.465	0.311	-0.018069614131938156	
8.47	-0.045	-0.009131151520616453	
8.475	-0.225	-0.0019937665585575627	
8.48	0.243	0.00706821715269408	
8.485	0.217	0.02101479246218532	
8.49	-0.190	0.03607993654105995	
8.495	0.090	0.051108638803070115	
8.5	0.408	0.06699393824996017	
8.505	-0.112	0.08196210746987886	
8.51	-0.089	0.08996382124382951	
8.515	0.363	0.08988657534033725	
8.52	-0.026	0.08492537741987691	
8.525	-0.214	0.0720162967958303	
8.53	0.084	0.05198018493709996	
8.535	0.050	0.02103402405168734	
8.54	-0.298	-0.012847254036008072	
8.545	-0.113	-0.03994528781710876	
8.55	0.139	-0.06503797224790273	
8.555	-0.243	-0.08596520275264417	
8.56	-0.202	-0.09402540950614781	
8.565	0.197	-0.09214451870250649	
8.57	-0.133	-0.08805759575383174	
8.575	-0.317	-0.0869800074342345	
8.58	0.020	-0.08801556688267106	
8.585	0.017	-0.09595124132105559	
8.59	-0.262	-0.10187942747348269	
8.595	0.107	-0.0859209241487374	
8.6	0.673	-0.03494659706313787	
8.605	0.197	0.056004338546320094	
8.61	0.214	0.16090104700933203	
8.615	0.683	0.2528965669801347	
8.62	0.140	0.31293527873505	
8.625	-0.200	0.32091381740757596	
8.63	0.111	0.27597460341165614	
8.635	0.036	0.1941030829162904	
8.64	-0.315	0.10209371312301077	
8.645	-0.156	0.02103675413328302	
8.65	0.035	-0.05094683860614013	
8.655	-0.301	-0.11200641169444082	
8.66	-0.269	-0.14807801861016212	
8.665	0.108	-0.1630343692274115	
8.67	-0.126	-0.16506400143185126	
8.675	-0.297	-0.15608216599742045	
8.68	0.116	-0.132903186737683	
8.685	0.131	-0.1058923817339317	
8.69	-0.260	-0.07705005463088088	
8.695	-0.042	-0.05090099386760237	
8.7	0.337	-0.029838268669237097	
8.705	-0.119	-0.00816735545801353	
8.71	-0.054	0.01787440699200014	
8.715	0.518	0.05114672267070618	
8.72	0.117	0.09086165397634566	
8.725	-0.126	0.1237539898699317	
8.73	0.366	0.14523323163711577	
8.735	0.385	0.16216359427120908	
8.74	-0.129	0.1777877328255664	
8.745	0.154	0.18313944079962063	
8.75	0.492	0.18227334073284449	
8.755	-0.043	0.18073191567864738	
8.76	-0.028	0.17583401319688158	
8.765	0.437	0.16723086230807432	
8.77	0.041	0.15482741842625214	
8.775	-0.193	0.13571562844322255	
8.78	0.226	0.11329670356323013	
8.785	0.211	0.09215657145820558	
8.79	-0.210	0.07375038498759015	
8.795	0.010	0.06019090668884827	
8.8	0.305	0.04728453495339467	
8.805	-0.199	0.03367715416218565	
8.81	-0.152	0.021860588973994045	
8.815	0.357	0.015282124420198998	
8.82	0.030	0.01879371396248099	
8.825	-0.138	0.03070829003801983	
8.83	0.354	0.053353548337851255	
8.835	0.295	0.08314263043394811	
8.84	-0.162	0.107692564263018	
8.845	0.171	0.12521097116112206	
8.85	0.536	0.14232546781980004	
8.855	-0.029	0.1626542246887332	
8.86	0.010	0.17782427651993837	
8.865	0.563	0.1872902993967819	
8.87	0.104	0.19681913414687568	
8.875	-0.171	0.19367378197729815	
8.88	0.244	0.1742836839813676	
8.885	0.206	0.14518084233804252	
8.89	-0.248	0.11277095191651143	
8.895	-0.075	0.07713485116446249	
8.9	0.195	0.03525913352599047	
8.905	-0.236	-0.006228130174867537	
8.91	-0.184	-0.034140276275114886	
8.915	0.263	-0.04782172841229487	
8.92	-0.087	-0.05113785694392157	
8.925	-0.277	-0.05221923212753551	
8.93	0.064	-0.05179081896762597	
8.935	-0.043	-0.0628750220779043	
8.94	-0.350	-0.08415060274329489	
8.945	-0.127	-0.10085161216192517	
8.95	0.226	-0.10877745971406544	
8.955	-0.138	-0.10220494497811973	
8.96	0.023	-0.0691214739957692	
8.965	0.758	0.0011937016547111086	
8.97	0.411	0.10688913144692133	
8.975	0.023	-0.05179081896762597	
8.98	0.412	-0.05179081896762597	
8.985	0.246	-0.0628750220779043	
8.99	-0.258	-0.0691214739957692	
8.995	-0.129	0.21406886371626865	
9.0	0.119	0.12321192533584652	
9.005	-0.294	0.029855789713943735	
9.01	-0.284	-0.04414282260699592	
9.015	0.151	-0.09587763208333844	
9.02	-0.130	-0.12608661327585602	
9.025	-0.306	-0.13618254977030836	
9.03	-0.011	-0.13382943493927313	
9.035	-0.023	-0.1348748254092279	
9.04	-0.307	-0.13812072671576298	
9.045	-0.057	-0.12784532662863107	
9.05	0.261	-0.10779146537289716	
9.055	-0.165	-0.08123681128999062	
9.06	-0.110	-0.050122855210034185	
9.065	0.455	-0.011798567436112352	
9.07	0.047	0.029823596720381262	
9.075	-0.181	0.06272868331290832	
9.08	0.356	0.08728097499346328	
9.085	0.389	0.11316717471434104	
9.09	-0.162	0.13975554768069842	
9.095	0.090	0.15214288485319039	
9.1	0.412	0.14927888058504185	
9.105	-0.133	0.13872441564047033	
9.11	-0.103	0.12183229378274807	
9.115	0.415	0.10423070272540562	
9.12	0.041	0.09485028757833289	
9.125	-0.176	0.08773293005053129	
9.13	0.287	0.08425921841353634	
9.135	0.266	0.08616022031381809	
9.14	-0.228	0.08780290781336333	
9.145	-0.013	0.08113146306148865	
9.15	0.304	0.06422617583912421	
9.155	-0.197	0.04578698757925556	
9.16	-0.155	0.027871141392509135	
9.165	0.287	0.014134669185510814	
9.17	-0.077	0.0028625665064194827	
9.175	-0.281	-0.009173621463723797	
9.18	0.064	-0.022822537886932753	
9.185	0.026	-0.04290549308719028	
9.19	-0.303	-0.06307726157217833	
9.195	-0.095	-0.07484733970213675	
9.2	0.236	-0.07987252209581663	
9.205	-0.197	-0.07616372541478891	
9.21	-0.130	-0.06205391241739064	
9.215	0.398	-0.03693817603611035	
9.22	0.009	-0.004159762146750161	
9.225	-0.194	0.02389867041032512	
9.23	0.249	0.045148574701659804	
9.235	0.215	0.05904338250589935	
9.24	-0.243	0.06497298195988391	
9.245	-0.083	0.05713738790384659	
9.25	0.172	0.031042500207774982	
9.255	-0.262	-0.004122153081296426	
9.26	-0.232	-0.03700212696696993	
9.265	0.174	-0.06101662830017094	
9.27	-0.200	-0.08317052335588446	
9.275	-0.371	-0.10601633619147979	
9.28	-0.013	-0.12387178436526267	
9.285	-0.025	-0.1410068908833907	
9.29	-0.358	-0.15297010070073405	
9.295	-0.171	-0.1548155333714392	
9.3	0.042	-0.1589928885668047	
9.305	-0.263	-0.16414759109525817	
9.31	-0.176	-0.15595886275825763	
9.315	0.420	-0.12196628497219911	
9.32	0.204	-0.060199001324855804	
9.325	0.093	0.02496261132361019	
9.33	0.702	0.1292036626951402	
9.335	0.583	0.24099321551190162	
9.34	-0.104	0.3228973343817879	
9.345	0.076	0.3421414888035836	
9.35	0.282	0.3030667531450799	
9.355	-0.252	0.228828587102896	
9.36	-0.281	0.1379617874432194	
9.365	0.055	0.04303533865689545	
9.37	-0.199	-0.04615254689029769	
9.375	-0.376	-0.1140518728112204	
9.38	-0.037	-0.15482972401223444	
9.385	-0.022	-0.17996826431930818	
9.39	-0.341	-0.1880289993198764	
9.395	-0.124	-0.17780487385851662	
9.4	0.192	-0.15891682555715786	
9.405	-0.232	-0.13719927981877122	
9.41	-0.207	-0.11102082224939029	
9.415	0.244	-0.08591158197895013	
9.42	-0.023	-0.06422386718692906	
9.425	-0.177	-0.03911656539080502	
9.43	0.253	-0.008728789224279901	
9.435	0.194	0.02101928062557861	
9.44	-0.229	0.03981585039398656	
9.445	0.042	0.05025875041706906	
9.45	0.461	0.05919821334390582	
9.455	-0.090	0.07566945753570342	
9.46	-0.049	0.09193855628322332	
9.465	0.498	0.10824199524119303	
9.47	0.070	0.12473140782481772	
9.475	-0.153	0.13275084879817034	
9.48	0.336	0.13436095216309038	
9.485	0.240	0.1340898166168454	
9.49	-0.217	0.12571232485801387	
9.495	-0.011	0.10724303708372741	
9.5	0.316	0.08128076310347793	
9.505	-0.176	0.05664259962615864	
9.51	-0.136	0.0378859034280431	
9.515	0.337	0.026297660035385792	
9.52	-0.022	0.021765552834303124	
9.525	-0.225	0.019699408263059135	
9.53	0.192	0.019363475920220467	
9.535	0.203	0.02114218055349073	
9.54	-0.229	0.02469671814652595	
9.545	-0.048	0.026217343840362888	
9.55	0.281	0.018306208306620796	
9.555	-0.194	0.008640362943647912	
9.56	-0.150	0.002865461853970807	
9.565	0.423	0.005316568210557219	
9.57	0.041	0.021775179953380987	
9.575	-0.177	0.04168572240657322	
9.58	0.318	0.06236239148956327	
9.585	0.255	0.08114041819468386	
9.59	-0.213	0.09369198675234915	
9.595	0.023	0.09421277347556037	
9.6	0.382	0.08629972683230772	
9.605	-0.168	0.07665899643174734	
9.61	-0.158	0.06486331688347846	
9.615	0.255	0.04626065509754381	
9.62	-0.097	0.022778533411741835	
9.625	-0.289	-0.002258319002732499	
9.63	0.030	-0.02667219116941124	
9.635	-0.046	-0.05790844885301161	
9.64	-0.355	-0.0922445365778603	
9.645	-0.116	-0.11373662079763543	
9.65	0.177	-0.12374714918966022	
9.655	-0.245	-0.12335731551465974	
9.66	-0.225	-0.11307537013395443	
9.665	0.183	-0.10072440177674188	
9.67	-0.083	-0.09228856180107525	
9.675	-0.207	-0.07825271695384521	
9.68	0.389	-0.043564214791305955	
9.685	0.512	0.019093722104886923	
9.69	0.012	0.10166698763917854	
9.695	0.400	0.18529668118186862	
9.7	0.676	0.2592903648006746	
9.705	-0.089	0.30753512680657935	
9.71	-0.133	0.3028612424202103	
9.715	0.250	0.25032139353417965	
9.72	-0.126	0.1707177264021577	
9.725	-0.320	0.08671141761325919	
9.73	0.001	0.011417508730338116	
9.735	-0.028	-0.054904049710749026	
9.74	-0.350	-0.10630844067128517	
9.745	-0.150	-0.1346874796042447	
9.75	0.101	-0.14971105633852816	
9.755	-0.271	-0.15743369516451766	
9.76	-0.229	-0.15106389246959115	
9.765	0.204	-0.13363629667585078	
9.77	-0.072	-0.11433887113888895	
9.775	-0.228	-0.09031876455731422	
9.78	0.233	-0.05749083959717674	
9.785	0.211	-0.021914742213030275	
9.79	-0.217	0.009549376309152416	
9.795	0.085	0.03535857317292931	
9.8	0.460	0.05940188216547207	
9.805	-0.083	0.0844390275093884	
9.81	-0.032	0.10586479755080427	
9.815	0.534	0.12551549335726642	
9.82	0.172	0.1486465072560046	
9.825	-0.103	0.16953680142234062	
9.83	0.418	0.184579568531877	
9.835	0.385	0.19716758562328157	
9.84	-0.133	0.20544811183244116	
9.845	0.154	0.20233385224169378	
9.85	0.512	0.19448701600898044	
9.855	-0.086	0.18642279782613597	
9.86	-0.081	0.1728066549875949	
9.865	0.394	0.15153467265719134	
9.87	0.006	0.12667570904441977	
9.875	-0.211	0.10152527715303482	
9.88	0.240	0.08056547554024197	
9.885	0.145	0.062183904537970194	
9.89	-0.310	0.04046736807202935	
9.895	-0.075	0.016315863667936942	
9.9	0.232	-0.010522015955093866	
9.905	-0.182	-0.02954248506759045	
9.91	-0.124	-0.03417418005111633	
9.915	0.409	-0.019468577594387124	
9.92	0.042	0.005687069692839696	
9.925	-0.158	0.034518873691350135	
9.93	0.311	0.061546962513611414	
9.935	0.310	0.08719942188429188	
9.94	-0.168	0.10847407970557466	
9.945	0.090	0.1202869882376422	
9.95	0.484	0.12547822579278387	
9.955	-0.078	0.13248153930049106	
9.96	-0.072	0.13579092166112394	
9.965	0.452	0.13247862483892325	
9.97	0.044	0.12872563093771566	
9.975	-0.194	0.12056094706318231	
9.98	0.188	0.10447048776395304	
9.985	0.136	0.08017203801095446	
9.99	-0.275	0.05158006310070605	
9.995	-0.038	0.02527869312955749	
10.0	0.214	0.0003775725962762524	
10.005	-0.222	-0.022450196804766058	
10.01	-0.190	-0.03612831167518535	
10.015	0.267	-0.041610840591113654	
10.02	-0.090	-0.04329375317743465	
10.025	-0.287	-0.04434209324468971	
10.03	0.090	-0.04555154629651646	
10.035	0.120	-0.04889193314651799	
10.04	-0.217	-0.04736012032296583	
10.045	0.181	-0.024669851025410725	
10.05	0.718	0.029348472715838098	
10.055	0.211	0.11756271302118457	
10.06	0.290	0.21689657804430193	
10.065	0.721	0.3053289120333601	
10.07	0.186	0.36266433304580803	
10.075	-0.145	0.3686704381121479	
10.08	0.220	0.3273987441983018	
10.085	0.093	0.25207580683916925	
10.09	-0.309	0.16269630896454387	
10.095	-0.122	0.07730027827656752	
10.1	0.075	-0.0027376995039850335	
10.105	-0.271	-0.0693859187359682	
10.11	-0.243	-0.11103420101932138	
10.115	0.156	-0.12870130291499832	
10.12	-0.132	-0.13431529878230203	
10.125	-0.291	-0.12923876462712647	
10.13	0.134	-0.11257061859363618	
10.135	0.110	-0.09195824410949138	
10.14	-0.254	-0.06931810378860853	
10.145	-0.042	-0.047665079504693605	
10.15	0.308	-0.030738629507206496	
10.155	-0.144	-0.014454105880157175	
10.16	-0.058	0.005965609191745057	
10.165	0.524	0.03836093133274849	
10.17	0.149	0.08064698600556121	
10.175	-0.098	0.121700132111798	
10.18	0.409	0.15347170800362564	
10.185	0.374	0.17905635707156034	
10.19	-0.179	0.19362276043343854	
10.195	0.114	0.1893285951449769	
10.2	0.504	0.17729851338012317	
10.205	-0.077	0.16855382696095972	
10.21	-0.064	0.15893412204111557	
10.215	0.489	0.14732155704365252	
10.22	0.085	0.1426882939135954	
10.225	-0.177	0.13775522378808586	
10.23	0.195	0.12338418662586795	
10.235	0.062	0.09501452556102984	
10.24	-0.304	0.05375610338363722	
10.245	-0.078	0.013324540038868352	
10.25	0.240	-0.02082397970378124	
10.255	-0.216	-0.042351739834923005	
10.26	-0.181	-0.05097326484299121	
10.265	0.282	-0.048813334102407194	
10.27	-0.064	-0.04232357958610186	
10.275	-0.254	-0.03510930857125312	
10.28	0.146	-0.026670920207487597	
10.285	0.146	-0.021057363413670427	
10.29	-0.229	-0.015133712055441877	
10.295	0.012	-0.004666994157989664	
10.3	0.337	0.006061495586218293	
10.305	-0.182	0.015683568329978713	
10.31	-0.142	0.022086250261401867	
10.315	0.351	0.02610368051833259	
10.32	-0.042	0.028660462735341206	
10.325	-0.226	0.027970848931174012	
10.33	0.191	0.025294337396413295	
10.335	0.072	0.017885209934544403	
10.34	-0.326	0.0019212092948426985	
10.345	-0.135	-0.02166671654429568	
10.35	0.110	-0.05300464284221974	
10.355	-0.278	-0.08427248054576002	
10.36	-0.269	-0.10585864875844733	
10.365	0.117	-0.11895025476163998	
10.37	-0.153	-0.13035496660921136	
10.375	-0.323	-0.13396580143684933	
10.38	0.018	-0.12970099232450744	
10.385	-0.042	-0.13116905620376357	
10.39	-0.390	-0.13807487050148598	
10.395	-0.177	-0.14459834829382667	
10.4	0.175	-0.14800645870074727	
10.405	-0.126	-0.1373404673018448	
10.41	0.142	-0.09179543826349816	
10.415	0.851	0.003171452265868922	
10.42	0.446	0.1375728876703015	
10.425	0.090	-0.09179543826349816	
10.43	0.524	-0.09179543826349816	
10.435	0.321	-0.09179543826349816	
10.44	-0.266	-0.09179543826349816	
10.445	-0.113	-0.09179543826349816	
10.45	0.085	0.17404493135335397	
10.455	-0.323	0.059644839380997725	
10.46	-0.274	-0.034844822150807184	
10.465	0.107	-0.09983738023496579	
10.47	-0.165	-0.14240272768675147	
10.475	-0.323	-0.16003139991578735	
10.48	0.056	-0.15759310565033546	
10.485	0.065	-0.14514343657689727	
10.49	-0.275	-0.12718072148400486	
10.495	-0.049	-0.10055092963847648	
10.5	0.287	-0.07492938543219532	
10.505	-0.176	-0.0494574758049995	
10.51	-0.130	-0.02485462813075893	
10.515	0.397	0.0002476646285789573	
10.52	0.017	0.025516510244888147	
10.525	-0.174	0.04587820740718357	
10.53	0.362	0.06651520365808525	
10.535	0.362	0.09488196026720123	
10.54	-0.119	0.12569530915581975	
10.545	0.220	0.1514764857218689	
10.55	0.577	0.17616214289940335	
10.555	-0.008	0.20147899346559456	
10.56	0.009	0.21508671526200154	
10.565	0.574	0.21930053448207096	
10.57	0.152	0.22254650988106806	
10.575	-0.135	0.21883719168329036	
10.58	0.282	0.2024698106416799	
10.585	0.214	0.1738985600728734	
10.59	-0.242	0.13974353657352467	
10.595	-0.003	0.10244077044486963	
10.6	0.342	0.06811610230746439	
10.605	-0.171	0.04556567553243532	
10.61	-0.155	0.03012978011296987	
10.615	0.288	0.01819437473903146	
10.62	-0.068	0.007560348006769418	
10.625	-0.237	-0.0020418524219595075	
10.63	0.136	-0.007589982701355751	
10.635	0.088	-0.015175650561604389	
10.64	-0.291	-0.025145910798184484	
10.645	-0.046	-0.031543163226501136	
10.65	0.230	-0.03800213428523183	
10.655	-0.193	-0.04039586569429021	
10.66	-0.092	-0.033782894105957625	
10.665	0.403	-0.013869288526554403	
10.67	0.026	0.015531042126688705	
10.675	-0.159	0.04202156978990693	
10.68	0.331	0.06538600222712962	
10.685	0.285	0.08978781308778362	
10.69	-0.199	0.10790249365987994	
10.695	-0.019	0.10842472118821561	
10.7	0.230	0.08792508037816321	
10.705	-0.242	0.052666410131863635	
10.71	-0.231	0.016236859503015375	
10.715	0.140	-0.021973549668364154	
10.72	-0.159	-0.059439803265229754	
10.725	-0.323	-0.08787318184791526	
10.73	0.058	-0.10367389825897011	
10.735	0.029	-0.11227160883049493	
10.74	-0.312	-0.1150008776766807	
10.745	-0.122	-0.10952881132962503	
10.75	0.055	-0.11215345436185442	
10.755	-0.326	-0.12435109120477478	
10.76	-0.254	-0.1356834867272251	
10.765	0.259	-0.13295492364738898	
10.77	0.165	-0.10449441110881633	
10.775	0.197	-0.03383324675261614	
10.78	0.947	0.0934377606596289	
10.785	0.916	0.26570106465004173	
10.79	0.201	0.4288754798390326	
10.795	0.418	0.5284480203997963	
10.8	0.534	0.5508670134935578	
10.805	-0.153	0.5045932488636558	
10.81	-0.182	0.4032486201685448	
10.815	0.128	0.27004522130949643	
10.82	-0.193	0.13153886534185397	
10.825	-0.384	0.011134404683062656	
10.83	-0.048	-0.07963869873595335	
10.835	-0.069	-0.14726731582400945	
10.84	-0.388	-0.18901002879508078	
10.845	-0.173	-0.2035047276919944	
10.85	0.058	-0.206124816976121	
10.855	-0.258	-0.2013618325324909	
10.86	-0.187	-0.17868899160586743	
10.865	0.292	-0.1409305903949685	
10.87	-0.035	-0.09852870653859558	
10.875	-0.217	-0.056914368563466974	
10.88	0.200	-0.021572691146604202	
10.885	0.224	0.0067071998901733	
10.89	-0.174	0.030867345503392558	
10.895	0.149	0.05656023563625124	
10.9	0.499	0.08596397708625189	
10.905	-0.074	0.11750402587493658	
10.91	-0.028	0.1382608750086015	
10.915	0.533	0.15119169517751035	
10.92	0.145	0.16543969217943313	
10.925	-0.121	0.1769984465155471	
10.93	0.406	0.18050052535203226	
10.935	0.296	0.18274147342828806	
10.94	-0.196	0.17779661723111068	
10.945	0.056	0.1585467376410198	
10.95	0.385	0.13198835896895295	
10.955	-0.136	0.10952371738155328	
10.96	-0.119	0.09027267778027229	
10.965	0.308	0.07015001016366146	
10.97	-0.080	0.048439072375307854	
10.975	-0.249	0.026067357058990537	
10.98	0.172	0.008470355955366885	
10.985	0.146	-0.002307598363762365	
10.99	-0.268	-0.008114784034446798	
10.995	-0.058	-0.011428926276424146	
11.0	0.220	-0.02111582580235129	
11.005	-0.254	-0.03245314789910844	
11.01	-0.193	-0.04263889181702181	
11.015	0.325	-0.04391003953080483	
11.02	-0.034	-0.03559342060650088	
11.025	-0.184	-0.019842148543305006	
11.03	0.314	0.004452440746621591	
11.035	0.266	0.036615680251774925	
11.04	-0.200	0.06594144158974632	
11.045	0.046	0.08158561213525452	
11.05	0.347	0.08379839311321342	
11.055	-0.200	0.07758887147491228	
11.06	-0.153	0.062408957224164785	
11.065	0.232	0.039979575025245594	
11.07	-0.148	0.011405429039715913	
11.075	-0.309	-0.019735873192279617	
11.08	-0.043	-0.05263305281169276	
11.085	-0.119	-0.09446679888460871	
11.09	-0.413	-0.13892633557683853	
11.095	-0.171	-0.16937078663054367	
11.1	0.108	-0.18429950331393452	
11.105	-0.272	-0.18536839929632984	
11.11	-0.255	-0.17049958989712666	
11.115	0.050	-0.1570809085931165	
11.12	-0.213	-0.1566632834277127	
11.125	-0.323	-0.1566683384869622	
11.13	0.186	-0.14255640988326235	
11.135	0.424	-0.09950610724507201	
11.14	0.209	-0.011938026617487213	
11.145	0.771	0.12574119834546632	
11.15	1.077	0.29869924354745553	
11.155	0.351	0.4634730789195679	
11.16	0.169	0.5604659036841768	
11.165	0.464	0.5679548045250439	
11.17	-0.086	0.49524899443706794	
11.175	-0.295	0.3692843320185641	
11.18	0.010	0.22650012886036058	
11.185	-0.068	0.08546932552165337	
11.19	-0.381	-0.03200105584603081	
11.195	-0.171	-0.11222588090555338	
11.2	0.039	-0.16427060807027843	
11.205	-0.295	-0.19453726366356977	
11.21	-0.226	-0.19642364645410199	
11.215	0.211	-0.1768981972150468	
11.22	-0.113	-0.1498124367856824	
11.225	-0.266	-0.11877668354712907	
11.23	0.107	-0.09035657863027792	
11.235	0.055	-0.07156020216065487	
11.24	-0.291	-0.06221006704488774	
11.245	-0.023	-0.0531267778700527	
11.25	0.325	-0.04113369306156678	
11.255	-0.150	-0.02275684587564147	
11.26	-0.057	0.0015306026613403434	
11.265	0.541	0.03534172506442854	
11.27	0.215	0.08409610201265304	
11.275	-0.009	0.13904607527077023	
11.28	0.573	0.19284272286748233	
11.285	0.473	0.24550224774355578	
11.29	-0.077	0.28356167170304203	
11.295	0.281	0.295910579008932	
11.3	0.635	0.2970180252291301	
11.305	-0.025	0.29612497304659147	
11.31	0.027	0.2814473925063362	
11.315	0.515	0.25743538372586117	
11.32	0.042	0.23009815670768824	
11.325	-0.181	0.19497295923851524	
11.33	0.243	0.15684816056582568	
11.335	0.180	0.11755600090044141	
11.34	-0.217	0.08559037026109229	
11.345	0.035	0.06189029729558987	
11.35	0.331	0.046010446272228195	
11.355	-0.182	0.035171585367279434	
11.36	-0.129	0.029455607502037417	
11.365	0.377	0.027400985607912046	
11.37	0.024	0.03312638057292206	
11.375	-0.165	0.04300980920784654	
11.38	0.293	0.05781207058797078	
11.385	0.266	0.0725408656831334	
11.39	-0.147	0.08862535473849395	
11.395	0.145	0.1038711605583785	
11.4	0.412	0.11597085667861896	
11.405	-0.155	0.1201945865980099	
11.41	-0.081	0.11445890759246002	
11.415	0.486	0.10736268303849342	
11.42	0.035	0.10815231269647764	
11.425	-0.184	0.10803215473096352	
11.43	0.201	0.09874290613987935	
11.435	0.087	0.07753484970226603	
11.44	-0.284	0.0476968130645702	
11.445	-0.064	0.0178296865834043	
11.45	0.214	-0.012076683819480561	
11.455	-0.249	-0.03570926112972843	
11.46	-0.194	-0.050517328520064575	
11.465	0.214	-0.05873655720483869	
11.47	-0.129	-0.06582535338318929	
11.475	-0.326	-0.07188817145059485	
11.48	0.029	-0.07930500086290079	
11.485	-0.020	-0.09450264530375188	
11.49	-0.310	-0.10823768464284399	
11.495	-0.020	-0.1071437285786618	
11.5	0.466	-0.08411029339773143	
11.505	0.140	-0.025687670387742445	
11.51	0.444	0.07555046336027477	
11.515	1.051	0.21627155884479243	
11.52	0.553	-0.025687670387742445	
11.525	0.056	-0.025687670387742445	
11.53	0.408	-0.025687670387742445	
11.535	0.154	-0.025687670387742445	
11.54	-0.286	-0.025687670387742445	
11.545	-0.122	0.2488444614095091	
11.55	0.088	0.11983906163750134	
11.555	-0.263	0.007333217543154896	
11.56	-0.213	-0.06641191582565226	
11.565	0.221	-0.10277903032927879	
11.57	-0.087	-0.11387797576511777	
11.575	-0.258	-0.10579872062160023	
11.58	0.174	-0.08526981051197174	
11.585	0.111	-0.06259669918786567	
11.59	-0.243	-0.04223368401383608	
11.595	0.035	-0.021069092459053564	
11.6	0.343	-0.002186365882873575	
11.605	-0.145	0.01722156036455362	
11.61	-0.092	0.03461054217627783	
11.615	0.453	0.052271185810218494	
11.62	0.023	0.0710324671219776	
11.625	-0.174	0.08416738242148822	
11.63	0.334	0.0928112885071295	
11.635	0.279	0.1023851228341162	
11.64	-0.135	0.114712938256412	
11.645	0.233	0.1289837691627744	
11.65	0.541	0.14983281392692893	
11.655	-0.054	0.17417765640806276	
11.66	0.027	0.1876129994549779	
11.665	0.547	0.19427457185470243	
11.67	0.104	0.1990318526679128	
11.675	-0.124	0.19718708594704548	
11.68	0.331	0.184770854554345	
11.685	0.206	0.16636573535675445	
11.69	-0.258	0.1397790029438219	
11.695	-0.049	0.10293808523696439	
11.7	0.198	0.055744703543189014	
11.705	-0.248	0.010285884109096019	
11.71	-0.145	-0.02131623804072419	
11.715	0.279	-0.036846353761396264	
11.72	-0.087	-0.03994915651020692	
11.725	-0.232	-0.03768134713812514	
11.73	0.183	-0.03030500840845989	
11.735	0.145	-0.02070552306056507	
11.74	-0.239	-0.010093043293551434	
11.745	0.023	0.0009486884176436486	
11.75	0.356	0.010629822278155357	
11.755	-0.153	0.024346311890821096	
11.76	-0.064	0.03874206323043812	
11.765	0.391	0.05202831817456552	
11.77	-0.031	0.062044620064678674	
11.775	-0.203	0.06443156742408176	
11.78	0.235	0.0606145052815782	
11.785	0.111	0.052216121661803054	
11.79	-0.287	0.03803084982494706	
11.795	-0.083	0.016941365664482226	
11.8	0.120	-0.014508986338978602	
11.805	-0.297	-0.05057301570642075	
11.81	-0.245	-0.07916111768171732	
11.815	0.146	-0.09909008544260318	
11.82	-0.159	-0.11396632552970162	
11.825	-0.324	-0.12043128844299547	
11.83	-0.005	-0.12242896389493847	
11.835	-0.064	-0.1318908141089397	
11.84	-0.362	-0.1438839419835347	
11.845	-0.138	-0.14797444656208353	
11.85	0.033	-0.15259819420718382	
11.855	-0.323	-0.1616274277595413	
11.86	-0.228	-0.1620594160662176	
11.865	0.305	-0.14605000236692245	
11.87	0.081	-0.10806846697767082	
11.875	0.004	-0.04441365574586921	
11.88	0.686	0.04671481867756912	
11.885	0.596	0.1610684309360895	
11.89	-0.061	0.2629778443315577	
11.895	0.136	0.31104786596494827	
11.9	0.339	0.2994198636843294	
11.905	-0.211	0.250298181479647	
11.91	-0.188	0.1799469110705541	
11.915	0.209	0.10296035623884708	
11.92	-0.161	0.031886653077068394	
11.925	-0.326	-0.02738449517385604	
11.93	0.013	-0.07128866906421626	
11.935	-0.035	-0.10800505230373049	
11.94	-0.324	-0.13193289608534897	
11.945	-0.097	-0.13780727616491992	
11.95	0.152	-0.1346426760516979	
11.955	-0.187	-0.12375497995241602	
11.96	-0.113	-0.09791379077350305	
11.965	0.342	-0.062020144439023144	
11.97	-0.054	-0.02727928335115671	
11.975	-0.161	0.0016402655337302164	
11.98	0.347	0.02985491744563587	
11.985	0.244	0.060890631604232796	
11.99	-0.181	0.08694731258895315	
11.995	0.159	0.10432121556571561	
12.0	0.487	0.11938763027822226	
12.005	-0.060	0.13710005179636026	
12.01	0.042	0.15311650056359433	
12.015	0.580	0.16907388364916975	
12.02	0.128	0.188649519144888	
12.025	-0.119	0.19960850177858952	
12.03	0.339	0.19490166814992846	
12.035	0.227	0.17985717409885066	
12.04	-0.187	0.158946125957319	
12.045	0.127	0.13736952282345702	
12.05	0.398	0.11934609809865822	
12.055	-0.153	0.10709382683651734	
12.06	-0.107	0.09417757897197533	
12.065	0.350	0.07801822382126325	
12.07	-0.057	0.0616129721892537	
12.075	-0.211	0.04671620656625865	
12.08	0.256	0.03689998466415832	
12.085	0.093	0.02976737847651977	
12.09	-0.277	0.021014949294867948	
12.095	-0.035	0.0074098316546014585	
12.1	0.235	-0.008765107762403631	
12.105	-0.190	-0.019876932924066414	
12.11	-0.092	-0.019707972064789796	
12.115	0.342	-0.009059295889531983	
12.12	-0.083	0.002551336474474777	
12.125	-0.203	0.010817480605872776	
12.13	0.307	0.0198903742646148	
12.135	0.175	0.034681494387785894	
12.14	-0.222	0.04708146504167969	
12.145	0.091	0.05544507140055709	
12.15	0.371	0.06114942656821365	
12.155	-0.153	0.0671443508330212	
12.16	-0.090	0.07033579670281498	
12.165	0.359	0.06785782539506957	
12.17	-0.109	0.05955617255858535	
12.175	-0.295	0.04089725416282183	
12.18	0.065	0.010806283784974394	
12.185	-0.011	-0.027372416101328494	
12.19	-0.342	-0.06278930674441979	
12.195	-0.153	-0.08955300685157691	
12.2	0.023	-0.11897988864682757	
12.205	-0.336	-0.1477933652702857	
12.21	-0.231	-0.16154649331705173	
12.215	0.076	-0.1642259701618947	
12.22	-0.208	-0.16651144913243116	
12.225	-0.274	-0.16198156732239044	
12.23	0.241	-0.13712513601856804	
12.235	0.321	-0.08946825284461778	
12.24	0.018	-0.014800039744250336	
12.245	0.536	0.08357586303904371	
12.25	0.829	0.20101140428825762	
12.255	0.151	0.31507337477136754	
12.26	0.137	0.3844449741400431	
12.265	0.513	0.3987966568662765	
12.27	-0.098	0.36241427760538103	
12.275	-0.320	0.28198365214283483	
12.28	-0.026	0.17087400041683562	
12.285	-0.069	0.05050219437717254	
12.29	-0.346	-0.048763725769616885	
12.295	-0.092	-0.10939136613687021	
12.3	0.087	-0.14404772358405218	
12.305	-0.298	-0.1598966280818651	
12.31	-0.211	-0.15741520642697993	
12.315	0.194	-0.14419597742551707	
12.32	-0.141	-0.12766031598767263	
12.325	-0.252	-0.10792614742947909	
12.33	0.162	-0.08502861132564345	
12.335	0.004	-0.0676309782392041	
12.34	-0.283	-0.05985748606863084	
12.345	0.024	-0.05126317016522609	
12.35	0.276	-0.03904274194158418	
12.355	-0.187	-0.02405640579365913	
12.36	-0.103	-0.0073644476859683556	
12.365	0.444	0.011930798796497466	
12.37	0.050	0.039226728877771844	
12.375	-0.107	0.07001003658681897	
12.38	0.434	0.10011326305813974	
12.385	0.275	0.13035677082160504	
12.39	-0.167	0.15201992862988475	
12.395	0.172	0.1577971167434671	
12.4	0.423	0.15500398791415093	
12.405	-0.130	0.15086135140371199	
12.41	-0.072	0.13864413446649626	
12.415	0.368	0.11896471878687205	
12.42	-0.077	0.09517778814395272	
12.425	-0.210	0.07102370516373974	
12.43	0.255	0.0501467698391057	
12.435	0.075	0.03431822708733945	
12.44	-0.245	0.020043416059243906	
12.445	0.044	0.01085038161883966	
12.45	0.267	0.004959488346843276	
12.455	-0.203	0.0028482167079624384	
12.46	-0.115	0.003709806952225339	
12.465	0.366	0.006953177872124849	
12.47	-0.075	0.014134659351744664	
12.475	-0.245	0.01805922432601833	
12.48	0.183	0.01514643876572802	
12.485	0.107	0.007266157796171062	
12.49	-0.216	0.003080131776125319	
12.495	0.146	0.010895085533298274	
12.5	0.382	0.02990504396312939	
12.505	-0.142	0.05283828213048025	
12.51	-0.048	0.0707599920065633	
12.515	0.434	0.08291372476820795	
12.52	-0.025	0.09109881935457739	
12.525	-0.171	0.09311886493369204	
12.53	0.259	0.08714197203035635	
12.535	0.076	0.07420624164827491	
12.54	-0.280	0.05311016568685502	
12.545	-0.084	0.024902302304445182	
12.55	0.061	-0.01617011015657914	
12.555	-0.300	-0.06013635171099471	
12.56	-0.231	-0.09315276521613626	
12.565	0.154	-0.11312548258221104	
12.57	-0.153	-0.12395085292220769	
12.575	-0.254	-0.12079516828178861	
12.58	0.146	-0.1048114374676629	
12.585	-0.023	-0.09088964501732442	
12.59	-0.318	-0.0849084209047255	
12.595	0.013	-0.07697565907024961	
12.6	0.333	-0.06216713878115886	
12.605	-0.119	-0.03324711830729488	
12.61	0.124	0.011903110625862783	
12.615	0.808	0.08198254470061232	
12.62	0.363	0.17896269218655417	
12.625	0.042	0.27212530577546395	
12.63	0.525	0.3272355169290242	
12.635	0.197	0.3400828000138528	
12.64	-0.266	0.30603041722865876	
12.645	-0.049	0.23403100332545573	
12.65	0.091	0.13780941945007877	
12.655	-0.315	0.041754541388838474	
12.66	-0.228	-0.035045446148939084	
12.665	0.131	-0.0880716214237045	
12.67	-0.182	-0.12408055651179378	
12.675	-0.242	-0.1357503163083692	
12.68	0.177	-0.12369282701308656	
12.685	0.082	-0.09999133594371537	
12.69	-0.262	-0.07294200161002873	
12.695	-0.008	-0.04885240646365513	
12.7	0.255	-0.033246133928498386	
12.705	-0.179	-0.02035166235521072	
12.71	-0.069	-0.003959242986190396	
12.715	0.431	0.01697391580111624	
12.72	-0.022	0.040777128624414224	
12.725	-0.142	0.06124250450172894	
12.73	0.348	0.07741623400273742	
12.735	0.264	0.09392748744830882	
12.74	-0.133	0.11299896500010109	
12.745	0.273	0.13227669975701822	
12.75	0.446	0.15174021369771534	
12.755	-0.118	0.16653014484941123	
12.76	0.029	0.1681070029257175	
12.765	0.525	0.16601828154432607	
12.77	0.041	0.16769240921313788	
12.775	-0.100	0.1652707643835537	
12.78	0.423	0.16246526065399183	
12.785	0.177	0.15786479043214227	
12.79	-0.220	0.14599941506776193	
12.795	0.108	0.12530619040814614	
12.8	0.305	0.10069956418310855	
12.805	-0.194	0.07856232089068865	
12.81	-0.115	0.0581519697973817	
12.815	0.345	0.04095016525653387	
12.82	-0.113	0.02669790330181753	
12.825	-0.213	0.016351550887624022	
12.83	0.206	0.008409301076229595	
12.835	0.046	-0.0011835932968960222	
12.84	-0.249	-0.008900771383518387	
12.845	0.039	-0.011681763409690526	
12.85	0.214	-0.01439716897813744	
12.855	-0.232	-0.017403069348490993	
12.86	-0.084	-0.016774736534405803	
12.865	0.427	-0.005106571399709985	
12.87	0.015	0.018673805153364642	
12.875	-0.113	0.04841914299549346	
12.88	0.365	0.07638897870835779	
12.885	0.134	0.09575395788287855	
12.89	-0.236	0.10013085772321416	
12.895	0.068	0.08932537248209874	
12.9	0.284	0.07155284550824018	
12.905	-0.203	0.05363145136301445	
12.91	-0.153	0.037252476113326924	
12.915	0.240	0.015812320912030237	
12.92	-0.161	-0.008331945961567364	
12.925	-0.271	-0.02949682548348932	
12.93	0.093	-0.04764394507894215	
12.935	-0.052	-0.06830475498403014	
12.94	-0.327	-0.08778352835554754	
12.945	-0.055	-0.09762146466495747	
12.95	0.120	-0.1045365314772519	
12.955	-0.304	-0.1093855786091012	
12.96	-0.231	-0.10964775856817936	
12.965	0.117	-0.11420415945420145	
12.97	-0.158	-0.12043324522880137	
12.975	-0.171	-0.1124247302961523	
12.98	0.479	-0.07452136249405587	
12.985	0.463	0.001618141321455297	
12.99	0.033	0.09815798839105565	
12.995	0.544	0.19648131272309372	
13.0	0.608	0.2824368155652597	
13.005	-0.106	0.33347746180046817	
13.01	-0.051	0.3283683318981182	
13.015	0.295	0.2748322753468677	
13.02	-0.167	0.19650935250796803	
13.025	-0.291	0.11256765515441303	
13.03	0.052	0.03247588273450015	
13.035	-0.098	-0.04042751561528374	
13.04	-0.364	-0.09780406191422734	
13.045	-0.101	-0.13246543972742955	
13.05	0.072	-0.1535980997795483	
13.055	-0.278	-0.16148808118149477	
13.06	-0.148	-0.1494990752252051	
13.065	0.308	-0.12316405408305262	
13.07	-0.110	-0.08958798389065892	
13.075	-0.205	-0.05538770141382879	
13.08	0.267	-0.02544862580536633	
13.085	0.137	0.0004685494896724656	
13.09	-0.187	0.023138049357464465	
13.095	0.240	0.0496489329018464	
13.1	0.479	0.08338935305953135	
13.105	-0.089	0.12038954411022201	
13.11	0.041	0.14754329481350342	
13.115	0.580	0.16588475771046676	
13.12	0.058	0.1833314331183973	
13.125	-0.083	0.19261802215854895	
13.13	0.450	0.19260317694106127	
13.135	0.249	0.19042488308288075	
13.14	-0.148	0.186141961847313	
13.145	0.243	0.17667353155318777	
13.15	0.409	0.16832906879817905	
13.155	-0.150	0.1604205329542005	
13.16	-0.026	0.14560556340633302	
13.165	0.403	0.12679166394275232	
13.17	-0.081	0.10733281938564876	
13.175	-0.185	0.08674228630347984	
13.18	0.263	0.06652275958428298	
13.185	0.027	0.04634789895593264	
13.19	-0.271	0.024287816475795188	
13.195	0.012	0.004661895461170297	
13.2	0.201	-0.013813100158239212	
13.205	-0.231	-0.027467412942694454	
13.21	-0.122	-0.03130056526221513	
13.215	0.319	-0.029356884124219523	
13.22	-0.087	-0.021661353789733082	
13.225	-0.165	-0.008109974365653853	
13.23	0.292	0.008438721844472828	
13.235	0.130	0.025253518161822495	
13.24	-0.177	0.040419474517562504	
13.245	0.139	0.05467749094706877	
13.25	0.278	0.06304139090870065	
13.255	-0.217	0.06357723234752802	
13.26	-0.109	0.05478906256071977	
13.265	0.357	0.04152982078132207	
13.27	-0.097	0.03331567270253396	
13.275	-0.188	0.027017448099273696	
13.28	0.221	0.022376550137580782	
13.285	-0.023	0.01115524298000873	
13.29	-0.298	-0.006465027127957308	
13.295	-0.051	-0.027300181320245556	
13.3	0.084	-0.05308599055021868	
13.305	-0.318	-0.07935615014240369	
13.31	-0.193	-0.09709989337589753	
13.315	0.203	-0.10657590123889923	
13.32	-0.190	-0.10772708287679303	
13.325	-0.275	-0.10385962891960421	
13.33	0.055	-0.09964584025746684	
13.335	-0.092	-0.10595472716036575	
13.34	-0.313	-0.11539079933325297	
13.345	0.078	-0.11020504894158617	
13.35	0.408	-0.08215613587938422	
13.355	-0.023	-0.02737839815695944	
13.36	0.266	0.048997003116120444	
13.365	0.782	0.1414092616083273	
13.37	0.185	0.236180461145457	
13.375	-0.057	0.2951480443646817	
13.38	0.397	0.3063523067755223	
13.385	0.078	0.2769933928066838	
13.39	-0.284	0.2196292929319706	
13.395	-0.045	0.14377680141245408	
13.4	0.067	0.05976381041574821	
13.405	-0.306	-0.016321716839946564	
13.41	-0.203	-0.07094794447600875	
13.415	0.110	-0.10769371937499121	
13.42	-0.243	-0.1338017074488187	
13.425	-0.315	-0.14768782533935496	
13.43	0.056	-0.15065981650345317	
13.435	-0.063	-0.15209672660945134	
13.44	-0.301	-0.14627521323137674	
13.445	-0.025	-0.1301360399548786	
13.45	0.099	-0.11635040963862711	
13.455	-0.269	-0.10638774512118715	
13.46	-0.115	-0.09283260871595508	
13.465	0.336	-0.07168203332505	
13.47	-0.077	-0.04393699642233561	
13.475	-0.122	-0.012651687381512844	
13.48	0.426	0.023460834951922853	
13.485	0.223	0.06580764487473008	
13.49	-0.155	0.10263687520979102	
13.495	0.296	0.129974979427351	
13.5	0.388	0.1506633296831673	
13.505	-0.144	0.16150111868920047	
13.51	-0.023	0.1561870721365733	
13.515	0.427	0.14036753137202132	
13.52	-0.022	0.1260181778870526	
13.525	-0.106	0.11534460370454817	
13.53	0.356	0.1084854531353629	
13.535	0.114	0.10278501319097919	
13.54	-0.223	0.09264565967050409	
13.545	0.082	0.07799334269971248	
13.55	0.221	0.05663390487336736	
13.555	-0.232	0.035520297027774095	
13.56	-0.112	0.01724060905700619	
13.565	0.331	0.004336838735786227	
13.57	-0.155	-0.003011533563275042	
13.575	-0.249	-0.009610051555846781	
13.58	0.169	-0.019524209590535496	
13.585	-0.028	-0.0332655318643109	
13.59	-0.278	-0.04630699947618881	
13.595	0.020	-0.051961199274179186	
13.6	0.224	-0.05242257560461025	
13.605	-0.187	-0.04448282813887478	
13.61	-0.051	-0.02568874145246675	
13.615	0.368	-0.003696943984382651	
13.62	-0.103	0.015918067590148535	
13.625	-0.165	0.030449653051062585	
13.63	0.336	0.04052030033630387	
13.635	0.159	0.05365682138730977	
13.64	-0.211	0.06569025950559193	
13.645	0.065	0.06909985252116338	
13.65	0.169	0.054503638690626646	
13.655	-0.268	0.030464729656051768	
13.66	-0.147	0.004408243452821377	
13.665	0.188	-0.0217080207570819	
13.67	-0.200	-0.04817779616615754	
13.675	-0.246	-0.06545803065204626	
13.68	0.146	-0.07440593270729753	
13.685	-0.049	-0.08048551242168947	
13.69	-0.310	-0.084312203126948	
13.695	-0.045	-0.08572423104844334	
13.7	0.041	-0.09457021401500672	
13.705	-0.323	-0.1076807350662413	
13.71	-0.199	-0.11642404510911765	
13.715	0.224	-0.11762823081866038	
13.72	-0.081	-0.10738928223223154	
13.725	0.010	-0.0714013544368714	
13.73	0.808	0.00784027476113031	
13.735	0.615	0.13238401852435341	
13.74	0.105	0.264527623598911	
13.745	0.490	-0.045081538229649255	
13.75	0.438	-0.045081538229649255	
13.755	-0.194	-0.045081538229649255	
13.76	-0.092	-0.045081538229649255	
13.765	0.168	0.228449713889905	
13.77	-0.240	0.11947914638856304	
13.775	-0.286	0.02460700987435727	
13.78	0.119	-0.045081538229649255	
13.785	-0.078	-0.09271802362328078	
13.79	-0.301	-0.11846090520519799	
13.795	-0.040	-0.12437766901564855	
13.8	0.104	-0.12461463967405353	
13.805	-0.266	-0.11998288545889418	
13.81	-0.104	-0.10418671395825246	
13.815	0.316	-0.0804707031048552	
13.82	-0.119	-0.053732259229956385	
13.825	-0.115	-0.024382952438533695	
13.83	0.518	0.01611671724388277	
13.835	0.365	0.07515220178021151	
13.84	-0.023	0.14339292969800177	
13.845	0.507	0.20780512816728358	
13.85	0.651	0.26840109295515296	
13.855	0.026	0.31981670252589134	
13.86	0.308	0.3488735134082173	
13.865	0.735	0.3666309107176421	
13.87	0.198	0.37915144278572444	
13.875	0.110	0.38159690217651265	
13.88	0.664	0.3751798277696631	
13.885	0.377	0.37009526809858	
13.89	-0.046	0.3593857838456896	
13.895	0.408	0.33883949466705704	
13.9	0.458	0.3143562648727689	
13.905	-0.118	0.28585494573897335	
13.91	0.032	0.2479205306454714	
13.915	0.437	0.20453915359888347	
13.92	-0.057	0.16518389788981128	
13.925	-0.115	0.13372080909532355	
13.93	0.376	0.11107786531124858	
13.935	0.065	0.09503567374497504	
13.94	-0.205	0.08055166878745687	
13.945	0.183	0.06981133034314185	
13.95	0.267	0.06321346858207871	
13.955	-0.210	0.057987781734483546	
13.96	-0.057	0.05199258283186124	
13.965	0.365	0.04436455446204694	
13.97	-0.106	0.04022224669392594	
13.975	-0.148	0.03886505487027041	
13.98	0.402	0.0449399943224973	
13.985	0.152	0.05998425434770907	
13.99	-0.152	0.07873241103269703	
13.995	0.253	0.09673871956999566	
14.0	0.327	0.11105965578935116	
14.005	-0.165	0.11815048352170957	
14.01	-0.019	0.11603380309331668	
14.015	0.301	0.10015164219580365	
14.02	-0.197	0.07429434560048993	
14.025	-0.258	0.03901881002427495	
14.03	0.130	0.0007524669331190909	
14.035	-0.100	-0.0390694297177041	
14.04	-0.356	-0.07404665477999543	
14.045	-0.084	-0.10032727471641416	
14.05	0.000	-0.12810921731180266	
14.055	-0.329	-0.1496760732031731	
14.06	-0.179	-0.15486371143617744	
14.065	0.140	-0.15202810307606188	
14.07	-0.248	-0.14669248067486806	
14.075	-0.318	-0.13981246200040515	
14.08	0.012	-0.138336188610382	
14.085	-0.113	-0.14720090394790922	
14.09	-0.234	-0.14691018103023673	
14.095	0.429	-0.10921375056634054	
14.1	0.800	-0.013203411788602912	
14.105	0.368	0.1343239726477615	
14.11	0.664	0.30023433703619745	
14.115	0.893	-0.05831475056631943	
14.12	0.067	-0.05831475056631943	
14.125	-0.110	0.5322168066651576	
14.13	0.255	0.44864306135597254	
14.135	-0.109	0.32174228920747233	
14.14	-0.368	0.18314643700169972	
14.145	-0.116	0.05374633529920913	
14.15	-0.055	-0.05831475056631943	
14.155	-0.382	-0.14358972724401964	
14.16	-0.251	-0.19168516462633023	
14.165	0.004	-0.21819923764505325	
14.17	-0.263	-0.23174977860976195	
14.175	-0.263	-0.2235870662260418	
14.18	0.177	-0.19436902115503224	
14.185	-0.038	-0.15736516335965223	
14.19	-0.274	-0.12079778318080606	
14.195	0.059	-0.08718714042640432	
14.2	0.203	-0.06142270144380646	
14.205	-0.210	-0.03766643206458102	
14.21	-0.002	-0.012588386995072453	
14.215	0.463	0.01581346138508071	
14.22	-0.055	0.049127338800910796	
14.225	-0.080	0.07743133054804065	
14.23	0.461	0.10070196554562344	
14.235	0.221	0.1265594064175508	
14.24	-0.095	0.15118969319967468	
14.245	0.372	0.17189421731228705	
14.25	0.424	0.190531828647132	
14.255	-0.129	0.20329352926714483	
14.26	0.068	0.1984607573885491	
14.265	0.476	0.184769717775647	
14.27	-0.072	0.1701107577963208	
14.275	-0.121	0.1495107494978366	
14.28	0.322	0.12464132753409175	
14.285	-0.008	0.09650423212776087	
14.29	-0.239	0.06630911385542029	
14.295	0.101	0.038872740897143127	
14.3	0.084	0.011417161334979274	
14.305	-0.323	-0.018592088370036265	
14.31	-0.156	-0.04647230406489753	
14.315	0.212	-0.06936635245476344	
14.32	-0.187	-0.08184914942293076	
14.325	-0.214	-0.08135698527604197	
14.33	0.253	-0.07045330690173052	
14.335	-0.003	-0.05555247719461198	
14.34	-0.254	-0.03956700275411615	
14.345	0.085	-0.027153468319984463	
14.35	0.142	-0.021697050021616114	
14.355	-0.231	-0.020506552060162136	
14.36	-0.011	-0.015405947221375189	
14.365	0.418	-0.0004781283464776998	
14.37	-0.086	0.02314906656901476	
14.375	-0.104	0.04673245063889159	
14.38	0.374	0.06446873665044822	
14.385	0.047	0.07739115634616002	
14.39	-0.232	0.07853342849468284	
14.395	0.094	0.0668202972793013	
14.4	0.137	0.04420884822579294	
14.405	-0.284	0.017587780102999637	
14.41	-0.159	-0.010374977604645464	
14.415	0.053	-0.045625577674658184	
14.42	-0.297	-0.08781938533739937	
14.425	-0.313	-0.1231288966610553	
14.43	0.053	-0.14560982616719675	
14.435	-0.119	-0.16167872929048616	
14.44	-0.315	-0.16433048339137077	
14.445	-0.051	-0.15513774449653633	
14.45	-0.052	-0.1529246831030151	
14.455	-0.365	-0.1584169535602324	
14.46	-0.132	-0.15823551199561348	
14.465	0.458	-0.13562403893167388	
14.47	0.252	-0.06889805425357967	
14.475	0.553	0.055977853302627584	
14.48	1.222	0.23749920271865654	
14.485	0.858	0.44418362733318845	
14.49	0.252	-0.04397079605737543	
14.495	0.453	-0.04397079605737543	
14.5	0.293	-0.04397079605737543	
14.505	-0.263	-0.04397079605737543	
14.51	-0.153	0.37981919832487754	
14.515	0.110	0.21335931542008002	
14.52	-0.275	0.06602462692161476	
14.525	-0.292	-0.04397079605737543	
14.53	0.053	-0.11549797184023737	
14.535	-0.142	-0.16088545587815106	
14.54	-0.307	-0.17930315062605212	
14.545	0.018	-0.17291642204812716	
14.55	0.032	-0.1580654486043747	
14.555	-0.310	-0.1435466125978059	
14.56	-0.130	-0.1260136587110758	
14.565	0.244	-0.10865704569816728	
14.57	-0.162	-0.08817242764594235	
14.575	-0.145	-0.06290493775180607	
14.58	0.321	-0.0333708023008977	
14.585	-0.006	-0.007068300507804119	
14.59	-0.188	0.011609635040330274	
14.595	0.235	0.029281031922801785	
14.6	0.308	0.04990647529078672	
14.605	-0.165	0.07127309519373093	
14.61	0.059	0.08710745645991272	
14.615	0.533	0.10244380898939594	
14.62	0.053	0.1276629416451862	
14.625	0.094	0.16010434384280398	
14.63	0.673	0.20077949873780992	
14.635	0.305	0.24684520925519293	
14.64	-0.092	0.278525960960936	
14.645	0.302	0.2793611044095643	
14.65	0.299	0.25587085902081563	
14.655	-0.203	0.2182182353005203	
14.66	-0.042	0.1691826453317738	
14.665	0.311	0.11541503958937065	
14.67	-0.150	0.07060777974831192	
14.675	-0.147	0.0392030769220831	
14.68	0.331	0.022767171789439808	
14.685	0.020	0.017747578628219997	
14.69	-0.202	0.019648718037884073	
14.695	0.189	0.02443977710565287	
14.7	0.198	0.02972640632859389	
14.705	-0.229	0.03224888892035535	
14.71	-0.029	0.03132369932898964	
14.715	0.319	0.027296092403348668	
14.72	-0.161	0.023527846074794766	
14.725	-0.142	0.020351974159027383	
14.73	0.293	0.019733342890770514	
14.735	-0.017	0.017602540599969227	
14.74	-0.188	0.01676110477576608	
14.745	0.215	0.022519024678974816	
14.75	0.211	0.03157839178404716	
14.755	-0.220	0.03825878641779092	
14.76	-0.026	0.03945520968487477	
14.765	0.266	0.03320573822632468	
14.77	-0.210	0.02044477999383535	
14.775	-0.231	0.0024740229594928075	
14.78	0.163	-0.019263877147307616	
14.785	-0.078	-0.04251680737746894	
14.79	-0.303	-0.06016778183497442	
14.795	0.013	-0.0714017430935326	
14.8	0.082	-0.08354445110011768	
14.805	-0.258	-0.08774495575130992	
14.81	-0.072	-0.0803835437139965	
14.815	0.209	-0.0708586969303095	
14.82	-0.239	-0.06469326097741938	
14.825	-0.223	-0.062380379509565376	
14.83	0.263	-0.058185263796959624	
14.835	0.042	-0.046704533211313	
14.84	-0.066	-0.02013258746064093	
14.845	0.709	0.04281616543054063	
14.85	0.817	0.1553742369310799	
14.855	0.175	-0.02013258746064093	
14.86	0.408	0.3897029142800274	
14.865	0.553	0.43911184793058566	
14.87	-0.130	0.4281781540419088	
14.875	-0.171	0.36065640643797675	
14.88	0.128	0.25582635547087534	
14.885	-0.158	0.13623060645567558	
14.89	-0.335	0.027916999610907347	
14.895	-0.034	-0.05217914071259344	
14.9	-0.042	-0.11373168640241882	
14.905	-0.355	-0.15482364466358295	
14.91	-0.162	-0.1721442277799189	
14.915	0.137	-0.1739085336349795	
14.92	-0.202	-0.16386370908929265	
14.925	-0.147	-0.13620371670904327	
14.93	0.301	-0.09710852510307955	
14.935	-0.034	-0.05792670892566032	
14.94	-0.203	-0.02511465131733744	
14.945	0.287	0.004963567073183862	
14.95	0.249	0.036200903654208166	
14.955	-0.225	0.06102474447752323	
14.96	0.021	0.07095055452280855	
14.965	0.415	0.07315014064176646	
14.97	-0.092	0.0779995844016614	
14.975	-0.046	0.08580439139535168	
14.98	0.499	0.09899579949607494	
14.985	0.079	0.11701358535207372	
14.99	-0.164	0.12783991258617264	
14.995	0.316	0.13002210670086484	
15.0	0.290	0.13019062853212	
15.005	-0.176	0.13000775661639763	
15.01	0.084	0.12398689309720506	
15.015	0.426	0.11713053724782056	
15.02	-0.152	0.11098917916661127	
15.025	-0.145	0.0978291516299627	
15.03	0.299	0.07694330987708181	
15.035	-0.054	0.053008424811056096	
15.04	-0.236	0.029930562871237902	
15.045	0.140	0.012985182736949246	
15.05	0.110	-0.001879609070581125	
15.055	-0.262	-0.014899513005776273	
15.06	-0.045	-0.02198542632322581	
15.065	0.191	-0.028974473887098767	
15.07	-0.187	-0.037980568032281926	
15.075	-0.136	-0.03807379682749766	
15.08	0.423	-0.023095308076760187	
15.085	0.107	0.0089732562628478	
15.09	-0.188	0.04398015493336596	
15.095	0.208	0.06796539578138241	
15.1	0.240	0.07706022259797865	
15.105	-0.200	0.08013763242021113	
15.11	-0.008	0.07604160874002927	
15.115	0.310	0.06395614783890127	
15.12	-0.161	0.050026298951736645	
15.125	-0.130	0.03899882810704057	
15.13	0.353	0.032835504225805875	
15.135	-0.054	0.02990689513362833	
15.14	-0.272	0.023086153873464292	
15.145	0.056	0.0069798788443130345	
15.15	-0.029	-0.022060335136645275	
15.155	-0.384	-0.05980958814457334	
15.16	-0.208	-0.09685597238940562	
15.165	0.023	-0.1331400907450541	
15.17	-0.320	-0.16601312750589084	
15.175	-0.281	-0.18186961391424136	
15.18	0.163	-0.17917006813377329	
15.185	-0.147	-0.1672076740817154	
15.19	-0.336	-0.15084853044235758	
15.195	-0.026	-0.13692353365394766	
15.2	-0.031	-0.13616662796414053	
15.205	-0.307	-0.13786195325590056	
15.21	-0.023	-0.12669863155758257	
15.215	0.460	-0.09412446275703484	
15.22	0.072	-0.03315874397568748	
15.225	0.232	0.05320905006224581	
15.23	0.750	0.1549409751092479	
15.235	0.208	0.2476159419643783	
15.24	-0.161	-0.06328806873341625	
15.245	0.198	-0.06328806873341625	
15.25	0.096	-0.06328806873341625	
15.255	-0.326	0.1550174735436934	
15.26	-0.130	0.07540423749735096	
15.265	0.117	-0.0011089853790777482	
15.27	-0.278	-0.06328806873341625	
15.275	-0.242	-0.10172202915169805	
15.28	0.177	-0.1189695745771597	
15.285	-0.148	-0.12548500710044455	
15.29	-0.300	-0.122880615917045	
15.295	0.143	-0.11059593991999496	
15.3	0.125	-0.09030331376826556	
15.305	-0.275	-0.06809822230029733	
15.31	-0.019	-0.04743853934823848	
15.315	0.319	-0.029089378395086365	
15.32	-0.147	-0.010481776099594334	
15.325	-0.071	0.011338636461499447	
15.33	0.452	0.03616296988151909	
15.335	0.090	0.06636500357111677	
15.34	-0.119	0.09506876533644357	
15.345	0.411	0.12056040437513664	
15.35	0.385	0.14863554961395115	
15.355	-0.112	0.17479026490627042	
15.36	0.238	0.191681739701616	
15.365	0.528	0.20392545482181945	
15.37	-0.048	0.2133971307356074	
15.375	-0.003	0.21039203399900636	
15.38	0.498	0.2002027475842842	
15.385	0.128	0.1912838152607106	
15.39	-0.110	0.18311350490922582	
15.395	0.353	0.17459913972245386	
15.4	0.240	0.16454549092994847	
15.405	-0.229	0.14682421756465008	
15.41	-0.002	0.11974615346048985	
15.415	0.304	0.08582951983047306	
15.42	-0.174	0.055412146287929134	
15.425	-0.127	0.03552135708331476	
15.43	0.343	0.0241284153764382	
15.435	-0.002	0.021205831105514484	
15.44	-0.173	0.026248924714550585	
15.445	0.256	0.03660701883568648	
15.45	0.180	0.046403183125795236	
15.455	-0.205	0.051902796711514536	
15.46	0.101	0.05786015451431466	
15.465	0.397	0.0657007858855643	
15.47	-0.145	0.07537017288633407	
15.475	-0.075	0.08065097053237139	
15.48	0.444	0.08407196652924918	
15.485	0.039	0.09110750213749158	
15.49	-0.127	0.09835921348867044	
15.495	0.343	0.10662071733958506	
15.5	0.232	0.11428534513297803	
15.505	-0.188	0.11697283460723006	
15.51	0.050	0.11091658164596882	
15.515	0.270	0.09256331577863375	
15.52	-0.226	0.06739131714555338	
15.525	-0.217	0.0367803756158624	
15.53	0.169	0.0009612214557236801	
15.535	-0.115	-0.034963839108768185	
15.54	-0.260	-0.058468513242101255	
15.545	0.081	-0.06838195113496942	
15.55	-0.013	-0.07788487878734167	
15.555	-0.310	-0.08893419745225731	
15.56	-0.074	-0.09293847575909026	
15.565	0.101	-0.096577132470751	
15.57	-0.300	-0.10468209043733981	
15.575	-0.237	-0.11104222442686068	
15.58	0.221	-0.110025599740451	
15.585	0.018	-0.09712771315982124	
15.59	-0.005	-0.05839386035283238	
15.595	0.765	0.023790251836454886	
15.6	0.713	0.14902816911993463	
15.605	0.088	0.2809565514098039	
15.61	0.366	0.37012537256215094	
15.615	0.493	0.40339364558254864	
15.62	-0.147	0.3842162287182015	
15.625	-0.129	0.31998684006270334	
15.63	0.235	0.2299803849068074	
15.635	-0.145	0.13482203994685618	
15.64	-0.292	0.04963769543263281	
15.645	0.059	-0.01623752381064473	
15.65	-0.026	-0.0680485190775601	
15.655	-0.321	-0.10294225707804976	
15.66	-0.098	-0.1187616239584829	
15.665	0.169	-0.12366627850893804	
15.67	-0.258	-0.12077472466825201	
15.675	-0.174	-0.10788312812218578	
15.68	0.314	-0.08703927841578038	
15.685	-0.051	-0.060282724074257346	
15.69	-0.196	-0.032309228654347905	
15.695	0.275	-0.0031836131808091585	
15.7	0.139	0.020844140152907916	
15.705	-0.226	0.035018948795336687	
15.71	0.058	0.04232487362391918	
15.715	0.421	0.04930920148407678	
15.72	-0.115	0.06415709288322206	
15.725	-0.035	0.07917075659907122	
15.73	0.460	0.09297192596488281	
15.735	0.027	0.10665009737993415	
15.74	-0.139	0.11371999610923425	
15.745	0.363	0.11784708430172315	
15.75	0.238	0.12279844856556568	
15.755	-0.177	0.1250480770344602	
15.76	0.125	0.12235240974254138	
15.765	0.337	0.11323640185527223	
15.77	-0.167	0.10117034894053281	
15.775	-0.122	0.08423225486144198	
15.78	0.301	0.06290301393380791	
15.785	-0.072	0.04163413195488084	
15.79	-0.225	0.0238217674756652	
15.795	0.208	0.011811696785186407	
15.8	0.099	0.0037186884526496794	
15.805	-0.271	-0.0018589749536070893	
15.81	-0.075	-0.01061542045256834	
15.815	0.151	-0.028885197751346042	
15.82	-0.229	-0.04879417311626261	
15.825	-0.144	-0.05663840275026674	
15.83	0.343	-0.05017001320764561	
15.835	-0.043	-0.033442200546346876	
15.84	-0.176	-0.011064502500484973	
15.845	0.295	0.01282403108768329	
15.85	0.223	0.038591597504795364	
15.855	-0.203	0.061190615352017405	
15.86	0.079	0.0744777359684366	
15.865	0.316	0.07600634581871729	
15.87	-0.181	0.07116862451907514	
15.875	-0.113	0.06247390448815286	
15.88	0.328	0.04976646947234915	
15.885	-0.081	0.03746158443638159	
15.89	-0.200	0.027062839737779825	
15.895	0.255	0.021848511408437896	
15.9	0.059	0.019444937851776777	
15.905	-0.333	0.008252314272614341	
15.91	-0.087	-0.012417135798501925	
15.915	0.122	-0.0421169458622265	
15.92	-0.280	-0.06984553480229602	
15.925	-0.226	-0.08837450389518448	
15.93	0.148	-0.10029539923255554	
15.935	-0.196	-0.11164819740821694	
15.94	-0.321	-0.1188142429616174	
15.945	0.033	-0.12211367706955056	
15.95	-0.023	-0.12770240552419956	
15.955	-0.271	-0.12669395695735483	
15.96	0.146	-0.10424634893726833	
15.965	0.583	-0.050195323415977794	
15.97	0.116	0.036066125801126114	
15.975	0.318	0.13776256687261482	
15.98	0.838	0.24271055238012904	
15.985	0.130	0.32918624288325316	
15.99	-0.141	-0.050195323415977794	
15.995	0.206	0.32592075785280705	
16.0	-0.023	0.24719819501486112	
16.005	-0.332	0.14732290332064146	
16.01	-0.106	0.05280514297872054	
16.015	0.055	-0.030289803384928315	
16.02	-0.312	-0.09493051278712152	
16.025	-0.226	-0.13213229463359227	
16.03	0.183	-0.14633249095535086	
16.035	-0.155	-0.1448360524344623	
16.04	-0.252	-0.1306536327632173	
16.045	0.137	-0.10802484731621517	
16.05	-0.005	-0.08991023723250507	
16.055	-0.275	-0.07867250111653819	
16.06	-0.009	-0.06609689533600754	
16.065	0.217	-0.056350118169270755	
16.07	-0.203	-0.046036334804509915	
16.075	-0.064	-0.030054413870073085	
16.08	0.460	-0.004273807975446905	
16.085	0.075	0.034046322385907726	
16.09	-0.089	0.07533266053531427	
16.095	0.472	0.11408870000796295	
16.1	0.347	0.1530421417144536	
16.105	-0.126	0.18524905794162372	
16.11	0.209	0.1999731724022548	
16.115	0.440	0.19864532699526982	
16.12	-0.124	0.19089536708765337	
16.125	-0.019	0.17399118608593456	
16.13	0.499	0.1557208670536045	
16.135	0.023	0.1459926231857967	
16.14	-0.118	0.13840391499300353	
16.145	0.357	0.13108670269369455	
16.15	0.195	0.12595326516065658	
16.155	-0.210	0.11834020142279253	
16.16	0.079	0.1040244645458854	
16.165	0.263	0.08351192073379937	
16.17	-0.226	0.05994774855855734	
16.175	-0.139	0.03611483003820209	
16.18	0.241	0.011578404823339973	
16.185	-0.144	-0.011053611500995195	
16.19	-0.236	-0.028414172718505278	
16.195	0.208	-0.03596652540088613	
16.2	0.035	-0.037188613397680044	
16.205	-0.280	-0.03651433022440284	
16.21	-0.028	-0.03791620519997624	
16.215	0.177	-0.04366402843499748	
16.22	-0.266	-0.05000336448894088	
16.225	-0.161	-0.05373576995339916	
16.23	0.195	-0.05755583797817811	
16.235	-0.193	-0.0651295539214665	
16.24	-0.295	-0.07425139923911082	
16.245	0.104	-0.08199768530959153	
16.25	-0.032	-0.09033993758048633	
16.255	-0.329	-0.0963999459804785	
16.26	-0.066	-0.09882183530912939	
16.265	0.079	-0.10482250281735467	
16.27	-0.318	-0.11301675118066457	
16.275	-0.211	-0.11757416397184814	
16.28	0.134	-0.12062016075692221	
16.285	-0.223	-0.12525365031221058	
16.29	-0.295	-0.12712104360535645	
16.295	0.101	-0.12293003331561461	
16.3	-0.037	-0.11850201530295561	
16.305	-0.321	-0.11339309505136551	
16.31	-0.110	-0.10866452702658458	
16.315	-0.049	-0.11892136230674458	
16.32	-0.387	-0.14415477150160655	
16.325	-0.239	-0.1644045606188126	
16.33	0.236	-0.16753069916659552	
16.335	-0.006	-0.14544011853792108	
16.34	0.018	-0.09107776849097148	
16.345	0.727	0.0022977515007847346	
16.35	0.550	0.12637869709093974	
16.355	0.012	0.24242887866397592	
16.36	0.366	-0.06958089116872002	
16.365	0.389	-0.06958089116872002	
16.37	-0.217	-0.06450441866547055	
16.375	-0.158	0.2546178645802325	
16.38	0.124	0.16257170321072556	
16.385	-0.213	0.06343567396206716	
16.39	-0.277	-0.018113554363706128	
16.395	0.127	-0.06958089116872002	
16.4	-0.038	-0.0996763036795707	
16.405	-0.286	-0.11262615635958124	
16.41	0.024	-0.10732855969308726	
16.415	0.246	-0.08983530755202818	
16.42	-0.190	-0.06450441866547055	
16.425	-0.052	-0.033286770276462256	
16.43	0.402	-0.002278588153127376	
16.435	-0.035	0.028255097745095024	
16.44	-0.129	0.05379783010939788	
16.445	0.379	0.07460590705388587	
16.45	0.236	0.09626604203219731	
16.455	-0.162	0.11519572608869796	
16.46	0.267	0.13080583154176884	
16.465	0.499	0.14823483452082595	
16.47	-0.031	0.1713226372586159	
16.475	0.162	0.19375090811468829	
16.48	0.654	0.21885345990807945	
16.485	0.149	0.24614762120471545	
16.49	-0.003	0.26474697164610955	
16.495	0.576	0.2727133701877661	
16.5	0.351	0.2802385680350019	
16.505	-0.104	0.2811318204982322	
16.51	0.287	0.2678485861077361	
16.515	0.434	0.24722636214462448	
16.52	-0.142	0.22330007236361232	
16.525	-0.054	0.19077545031375942	
16.53	0.379	0.1498090797596965	
16.535	-0.074	0.11315267858680741	
16.54	-0.138	0.0848487034002584	
16.545	0.388	0.07166709136858913	
16.55	0.140	0.07217324145737426	
16.555	-0.219	0.07525443536126405	
16.56	0.090	0.07184783667524564	
16.565	0.275	0.061086515211640185	
16.57	-0.217	0.049398394242578914	
16.575	-0.066	0.03988065529397435	
16.58	0.376	0.03365365514747026	
16.585	-0.063	0.03514969401534486	
16.59	-0.168	0.039006657712233314	
16.595	0.267	0.04254215241628024	
16.6	0.127	0.04305762341892082	
16.605	-0.197	0.046454738514757545	
16.61	0.171	0.05286561397948183	
16.615	0.321	0.06088319752208696	
16.62	-0.156	0.0695039892007958	
16.625	-0.032	0.07601980157590557	
16.63	0.394	0.07744846664835109	
16.635	-0.087	0.07611354711906015	
16.64	-0.190	0.06922569725987233	
16.645	0.160	0.05343752510764799	
16.65	-0.066	0.02387969626998751	
16.655	-0.327	-0.01435183124713132	
16.66	-0.023	-0.04606935952862594	
16.665	0.127	-0.07133307791918445	
16.67	-0.278	-0.0864222526051574	
16.675	-0.158	-0.0897926702106667	
16.68	0.151	-0.09171350240850044	
16.685	-0.205	-0.09598085279759858	
16.69	-0.275	-0.0985629409966089	
16.695	0.094	-0.09755915801461648	
16.7	-0.084	-0.10331046718238118	
16.705	-0.274	-0.10725499711957864	
16.71	0.233	-0.08890834122301895	
16.715	0.641	-0.03245825347787782	
16.72	0.140	0.06352649569234556	
16.725	0.368	0.17436532727690326	
16.73	0.817	0.27923485129986747	
16.735	0.154	0.3598619849752809	
16.74	-0.086	0.3885067191008658	
16.745	0.327	0.359446772071383	
16.75	-0.026	0.28755248702140424	
16.755	-0.309	0.19381618171630424	
16.76	-0.058	0.0971458687584411	
16.765	-0.011	0.0043616870992182945	
16.77	-0.332	-0.07444874462282364	
16.775	-0.184	-0.12344407414223992	
16.78	0.151	-0.14585490495936038	
16.785	-0.185	-0.1512117534424027	
16.79	-0.171	-0.13726456821371832	
16.795	0.324	-0.10047880721600286	
16.8	0.105	-0.05262065319582531	
16.805	-0.182	-0.007150803117290515	
16.81	0.201	0.03228537509047182	
16.815	0.292	0.06124910864342045	
16.82	-0.145	0.08043556251625317	
16.825	0.036	0.09266422219599474	
16.83	0.443	0.10216141407801696	
16.835	-0.003	0.11265561880846517	
16.84	-0.058	0.12176122347549506	
16.845	0.493	0.13460116143194906	
16.85	0.282	0.15530534332215437	
16.855	-0.078	0.1788308758454674	
16.86	0.371	0.1983687990701294	
16.865	0.481	0.21621899812004092	
16.87	-0.080	0.23039611865802773	
16.875	0.142	0.23171480855019644	
16.88	0.576	0.2291398602517386	
16.885	0.009	0.22763257834678724	
16.89	-0.075	0.216809121651018	
16.895	0.418	0.19654429187676953	
16.9	0.070	0.17326698329538553	
16.905	-0.229	0.14193234757476164	
16.91	0.088	0.10432265299840315	
16.915	0.175	0.06412246705498706	
16.92	-0.260	0.028542438273788658	
16.925	-0.156	-0.002247631657491724	
16.93	0.157	-0.033042739161614404	
16.935	-0.202	-0.06128893897911382	
16.94	-0.242	-0.0790193362825651	
16.945	0.148	-0.08460458886509978	
16.95	-0.052	-0.08780445248322903	
16.955	-0.266	-0.08687122398318754	
16.96	0.059	-0.07669276591185256	
16.965	0.197	-0.06304049523509504	
16.97	-0.226	-0.047366024503142534	
16.975	-0.071	-0.03015232970065753	
16.98	0.343	-0.014171925756233494	
16.985	-0.098	0.002686267528253484	
16.99	-0.139	0.019094347404216627	
16.995	0.302	0.03233990055603647	
17.0	0.044	0.041105358227008254	
17.005	-0.234	0.04221643286177833	
17.01	0.073	0.03532154251459847	
17.015	0.108	0.018841400016147043	
17.02	-0.329	-0.0063256901702219296	
17.025	-0.200	-0.03706728299497204	
17.03	0.101	-0.07126827337161433	
17.035	-0.243	-0.10333915569819026	
17.04	-0.280	-0.12377798130278625	
17.045	0.076	-0.13168270317931854	
17.05	-0.113	-0.13799410330078327	
17.055	-0.332	-0.14070055344787025	
17.06	-0.055	-0.1366010193455705	
17.065	-0.023	-0.13926334452487324	
17.07	-0.346	-0.14836139426464587	
17.075	-0.142	-0.14893122179755555	
17.08	0.438	-0.12724389784146864	
17.085	0.307	-0.06344028682416358	
17.09	0.527	0.061309567800778474	
17.095	1.256	0.2444659813227357	
17.1	0.973	0.4578818253188182	
17.105	0.302	0.6381571960971053	
17.11	0.542	0.0073729557453656655	
17.115	0.424	0.0073729557453656655	
17.12	-0.187	0.6125163605094148	
17.125	-0.121	0.46512819777562286	
17.13	0.116	0.2947501488910668	
17.135	-0.246	0.13344988277970246	
17.14	-0.268	0.0073729557453656655	
17.145	0.110	-0.07450028361487758	
17.15	-0.084	-0.12321974985938398	
17.155	-0.317	-0.1437138316511602	
17.16	-0.016	-0.14433083482677023	
17.165	0.101	-0.1374049265850265	
17.17	-0.248	-0.12353352058142794	
17.175	-0.089	-0.10066088099110809	
17.18	0.267	-0.075268581101396	
17.185	-0.112	-0.051781372067000155	
17.19	-0.097	-0.023534001082077705	
17.195	0.481	0.014642912412398082	
17.2	0.241	0.06556826389332311	
