Vernier Format 2
ecg6.txt 10/20/2025 8:29:50
Run 1
Time	Potential	EKG	
T	P	E	
s	mV	mV	

0.000	0.105	0.005	
0.005	-0.141	0.010	
0.010	0.287	0.015	
0.015	0.229	0.046	
0.020	-0.199	0.077	
0.025	0.021	0.072	
0.030	0.288	0.062	
0.035	-0.202	0.064	
0.040	-0.193	0.039	
0.045	0.195	0.001	
0.050	-0.116	-0.014	
0.055	-0.298	-0.034	
0.060	0.046	-0.068	
0.065	0.052	-0.080	
0.070	-0.287	-0.077	
0.075	-0.087	-0.090	
0.080	0.166	-0.093	
0.085	-0.262	-0.078	
0.090	-0.231	-0.084	
0.095	0.169	-0.096	
0.100	-0.026	-0.081	
0.105	-0.095	-0.058	
0.110	0.589	-0.018	
0.115	0.626	0.083	
0.120	0.052	0.205	
0.125	0.314	0.276	
0.130	0.481	0.313	
0.135	-0.150	0.325	
0.140	-0.173	0.272	
0.145	0.140	0.179	
0.150	-0.139	0.099	
0.155	-0.338	0.019	
0.160	-0.080	-0.065	
0.165	-0.080	-0.121	
0.170	-0.349	-0.153	
0.175	-0.142	-0.183	
0.180	0.177	-0.185	
0.185	-0.213	-0.152	
0.190	-0.176	-0.127	
0.195	0.275	-0.105	
0.200	-0.020	-0.058	
0.205	-0.217	-0.024	
0.210	0.191	-0.015	
0.215	0.145	0.007	
0.220	-0.262	0.026	
0.225	-0.051	0.011	
0.230	0.336	0.000	
0.235	-0.132	0.018	
0.240	-0.087	0.022	
0.245	0.449	0.027	
0.250	0.116	0.067	
0.255	-0.135	0.099	
0.260	0.374	0.107	
0.265	0.321	0.134	
0.270	-0.202	0.160	
0.275	-0.013	0.139	
0.280	0.376	0.110	
0.285	-0.136	0.103	
0.290	-0.126	0.080	
0.295	0.351	0.052	
0.300	-0.011	0.055	
0.305	-0.226	0.051	
0.310	0.156	0.025	
0.315	0.157	0.019	
0.320	-0.236	0.023	
0.325	0.003	0.007	
0.330	0.388	0.005	
0.335	-0.106	0.034	
0.340	-0.100	0.045	
0.345	0.431	0.049	
0.350	0.108	0.081	
0.355	-0.155	0.105	
0.360	0.269	0.100	
0.365	0.243	0.109	
0.370	-0.193	0.118	
0.375	-0.035	0.093	
0.380	0.244	0.063	
0.385	-0.223	0.047	
0.390	-0.229	0.010	
0.395	0.145	-0.034	
0.400	-0.098	-0.052	
0.405	-0.313	-0.067	
0.410	-0.011	-0.097	
0.415	-0.019	-0.110	
0.420	-0.321	-0.113	
0.425	-0.145	-0.131	
0.430	0.128	-0.138	
0.435	-0.249	-0.122	
0.440	-0.232	-0.120	
0.445	0.263	-0.117	
0.450	0.070	-0.078	
0.455	-0.026	-0.027	
0.460	0.660	0.035	
0.465	0.690	0.150	
0.470	0.021	0.274	
0.475	0.171	0.326	
0.480	0.408	0.327	
0.485	-0.145	0.306	
0.490	-0.203	0.235	
0.495	0.154	0.139	
0.500	-0.124	0.065	
0.505	-0.323	-0.003	
0.510	-0.017	-0.072	
0.515	0.044	-0.107	
0.520	-0.280	-0.114	
0.525	-0.116	-0.126	
0.530	0.208	-0.122	
0.535	-0.171	-0.092	
0.540	-0.162	-0.074	
0.545	0.347	-0.058	
0.550	0.042	-0.013	
0.555	-0.205	0.022	
0.560	0.249	0.029	
0.565	0.296	0.055	
0.570	-0.182	0.088	
0.575	0.049	0.087	
0.580	0.489	0.089	
0.585	-0.040	0.119	
0.590	-0.068	0.128	
0.595	0.495	0.123	
0.600	0.163	0.148	
0.605	-0.150	0.164	
0.610	0.227	0.146	
0.615	0.281	0.137	
0.620	-0.202	0.134	
0.625	0.015	0.103	
0.630	0.437	0.081	
0.635	-0.115	0.091	
0.640	-0.142	0.082	
0.645	0.347	0.060	
0.650	0.041	0.065	
0.655	-0.219	0.066	
0.660	0.159	0.043	
0.665	0.156	0.035	
0.670	-0.249	0.035	
0.675	-0.055	0.010	
0.680	0.336	-0.005	
0.685	-0.104	0.012	
0.690	-0.103	0.019	
0.695	0.438	0.025	
0.700	0.094	0.064	
0.705	-0.203	0.090	
0.710	0.178	0.081	
0.715	0.189	0.077	
0.720	-0.240	0.075	
0.725	-0.066	0.044	
0.730	0.288	0.017	
0.735	-0.170	0.016	
0.740	-0.205	0.001	
0.745	0.194	-0.025	
0.750	-0.080	-0.028	
0.755	-0.317	-0.037	
0.760	-0.035	-0.070	
0.765	0.032	-0.089	
0.770	-0.320	-0.096	
0.775	-0.181	-0.118	
0.780	0.097	-0.134	
0.785	-0.258	-0.128	
0.790	-0.254	-0.133	
0.795	0.299	-0.132	
0.800	0.244	-0.080	
0.805	0.009	-0.003	
0.810	0.614	0.076	
0.815	0.713	0.190	
0.820	0.000	0.306	
0.825	0.117	0.344	
0.830	0.369	0.328	
0.835	-0.162	0.291	
0.840	-0.229	0.211	
0.845	0.192	0.113	
0.850	-0.101	0.046	
0.855	-0.310	-0.010	
0.860	-0.028	-0.070	
0.865	0.062	-0.101	
0.870	-0.271	-0.105	
0.875	-0.103	-0.115	
0.880	0.285	-0.107	
0.885	-0.135	-0.068	
0.890	-0.190	-0.045	
0.895	0.287	-0.035	
0.900	0.093	-0.002	
0.905	-0.205	0.027	
0.910	0.218	0.032	
0.915	0.356	0.055	
0.920	-0.147	0.093	
0.925	0.053	0.099	
0.930	0.521	0.106	
0.935	0.023	0.142	
0.940	-0.003	0.159	
0.945	0.531	0.163	
0.950	0.256	0.196	
0.955	-0.133	0.218	
0.960	0.316	0.203	
0.965	0.426	0.200	
0.970	-0.124	0.210	
0.975	-0.009	0.184	
0.980	0.402	0.149	
0.985	-0.103	0.137	
0.990	-0.170	0.106	
0.995	0.253	0.063	
1.000	-0.002	0.046	
1.005	-0.239	0.029	
1.010	0.107	-0.002	
1.015	0.227	-0.007	
1.020	-0.213	0.008	
1.025	-0.034	0.003	
1.030	0.444	0.007	
1.035	-0.077	0.044	
1.040	-0.110	0.063	
1.045	0.409	0.065	
1.050	0.134	0.093	
1.055	-0.207	0.112	
1.060	0.166	0.095	
1.065	0.299	0.089	
1.070	-0.202	0.095	
1.075	-0.078	0.072	
1.080	0.236	0.042	
1.085	-0.196	0.029	
1.090	-0.257	-0.002	
1.095	0.105	-0.045	
1.100	-0.087	-0.064	
1.105	-0.324	-0.079	
1.110	-0.034	-0.108	
1.115	0.046	-0.118	
1.120	-0.336	-0.114	
1.125	-0.216	-0.130	
1.130	0.081	-0.146	
1.135	-0.255	-0.141	
1.140	-0.257	-0.144	
1.145	0.343	-0.139	
1.150	0.318	-0.076	
1.155	0.007	0.014	
1.160	0.635	0.101	
1.165	0.728	0.217	
1.170	-0.054	0.328	
1.175	0.013	0.352	
1.180	0.371	0.314	
1.185	-0.177	0.264	
1.190	-0.278	0.179	
1.195	0.058	0.073	
1.200	-0.130	-0.006	
1.205	-0.381	-0.071	
1.210	-0.122	-0.137	
1.215	-0.009	-0.173	
1.220	-0.306	-0.179	
1.225	-0.159	-0.186	
1.230	0.229	-0.173	
1.235	-0.162	-0.128	
1.240	-0.211	-0.097	
1.245	0.255	-0.079	
1.250	0.046	-0.039	
1.255	-0.211	-0.007	
1.260	0.194	0.002	
1.265	0.334	0.030	
1.270	-0.170	0.070	
1.275	0.017	0.077	
1.280	0.492	0.083	
1.285	0.003	0.117	
1.290	-0.110	0.130	
1.295	0.405	0.121	
1.300	0.171	0.134	
1.305	-0.144	0.144	
1.310	0.264	0.129	
1.315	0.374	0.133	
1.320	-0.135	0.151	
1.325	0.023	0.137	
1.330	0.438	0.122	
1.335	-0.069	0.130	
1.340	-0.179	0.115	
1.345	0.203	0.077	
1.350	0.007	0.054	
1.355	-0.265	0.031	
1.360	0.007	-0.010	
1.365	0.175	-0.032	
1.370	-0.234	-0.031	
1.375	-0.100	-0.043	
1.380	0.339	-0.045	
1.385	-0.074	-0.015	
1.390	-0.136	0.006	
1.395	0.382	0.016	
1.400	0.149	0.054	
1.405	-0.199	0.085	
1.410	0.111	0.078	
1.415	0.212	0.071	
1.420	-0.237	0.069	
1.425	-0.150	0.036	
1.430	0.134	-0.006	
1.435	-0.214	-0.030	
1.440	-0.284	-0.062	
1.445	0.110	-0.098	
1.450	-0.084	-0.105	
1.455	-0.327	-0.106	
1.460	-0.055	-0.124	
1.465	0.064	-0.127	
1.470	-0.333	-0.117	
1.475	-0.240	-0.130	
1.480	0.044	-0.147	
1.485	-0.216	-0.146	
1.490	-0.168	-0.144	
1.495	0.576	-0.115	
1.500	0.579	-0.008	
1.505	0.223	0.137	
1.510	0.736	0.264	
1.515	0.777	0.392	
1.520	-0.045	0.486	
1.525	-0.003	0.474	
1.530	0.327	0.394	
1.535	-0.171	0.303	
1.540	-0.307	0.188	
1.545	0.021	0.061	
1.550	-0.098	-0.029	
1.555	-0.359	-0.093	
1.560	-0.121	-0.150	
1.565	0.020	-0.178	
1.570	-0.300	-0.176	
1.575	-0.171	-0.177	
1.580	0.238	-0.164	
1.585	-0.167	-0.121	
1.590	-0.242	-0.093	
1.595	0.235	-0.081	
1.600	0.099	-0.045	
1.605	-0.193	-0.008	
1.610	0.175	0.006	
1.615	0.379	0.037	
1.620	-0.106	0.084	
1.625	0.070	0.102	
1.630	0.576	0.120	
1.635	0.055	0.166	
1.640	-0.063	0.187	
1.645	0.515	0.183	
1.650	0.322	0.207	
1.655	-0.112	0.228	
1.660	0.299	0.215	
1.665	0.427	0.211	
1.670	-0.153	0.217	
1.675	-0.071	0.182	
1.680	0.314	0.132	
1.685	-0.107	0.104	
1.690	-0.239	0.064	
1.695	0.192	0.015	
1.700	0.049	-0.003	
1.705	-0.246	-0.009	
1.710	0.036	-0.030	
1.715	0.236	-0.031	
1.720	-0.203	-0.012	
1.725	-0.090	-0.012	
1.730	0.357	-0.012	
1.735	-0.069	0.017	
1.740	-0.173	0.029	
1.745	0.334	0.027	
1.750	0.178	0.051	
1.755	-0.210	0.076	
1.760	0.093	0.068	
1.765	0.272	0.062	
1.770	-0.213	0.068	
1.775	-0.150	0.044	
1.780	0.162	0.008	
1.785	-0.187	-0.012	
1.790	-0.291	-0.043	
1.795	0.081	-0.082	
1.800	-0.068	-0.095	
1.805	-0.335	-0.102	
1.810	-0.071	-0.124	
1.815	0.062	-0.131	
1.820	-0.349	-0.124	
1.825	-0.278	-0.139	
1.830	0.061	-0.160	
1.835	-0.177	-0.157	
1.840	-0.158	-0.147	
1.845	0.649	-0.107	
1.850	0.756	0.019	
1.855	0.369	0.195	
1.860	0.793	0.350	
1.865	0.788	0.489	
1.870	-0.090	0.572	
1.875	-0.095	0.531	
1.880	0.203	0.409	
1.885	-0.220	0.278	
1.890	-0.361	0.135	
1.895	-0.049	-0.007	
1.900	-0.136	-0.102	
1.905	-0.390	-0.163	
1.910	-0.164	-0.213	
1.915	-0.017	-0.232	
1.920	-0.341	-0.223	
1.925	-0.220	-0.220	
1.930	0.224	-0.204	
1.935	-0.112	-0.153	
1.940	-0.216	-0.109	
1.945	0.211	-0.083	
1.950	0.125	-0.040	
1.955	-0.210	0.001	
1.960	0.107	0.012	
1.965	0.376	0.032	
1.970	-0.118	0.071	
1.975	0.009	0.083	
1.980	0.527	0.094	
1.985	0.082	0.135	
1.990	-0.072	0.158	
1.995	0.515	0.162	
2.000	0.330	0.193	
2.005	-0.119	0.221	
2.010	0.229	0.209	
2.015	0.391	0.198	
2.020	-0.153	0.196	
2.025	-0.078	0.159	
2.030	0.353	0.113	
2.035	-0.083	0.095	
2.040	-0.202	0.068	
2.045	0.230	0.030	
2.050	0.064	0.021	
2.055	-0.277	0.016	
2.060	0.021	-0.011	
2.065	0.263	-0.021	
2.070	-0.228	-0.007	
2.075	-0.136	-0.014	
2.080	0.337	-0.023	
2.085	-0.038	0.000	
2.090	-0.152	0.017	
2.095	0.318	0.021	
2.100	0.119	0.046	
2.105	-0.226	0.066	
2.110	0.075	0.051	
2.115	0.267	0.043	
2.120	-0.232	0.049	
2.125	-0.174	0.025	
2.130	0.194	-0.009	
2.135	-0.168	-0.022	
2.140	-0.287	-0.044	
2.145	0.079	-0.078	
2.150	-0.034	-0.087	
2.155	-0.323	-0.090	
2.160	-0.106	-0.111	
2.165	0.032	-0.124	
2.170	-0.336	-0.125	
2.175	-0.266	-0.144	
2.180	0.087	-0.163	
2.185	-0.119	-0.152	
2.190	-0.109	-0.131	
2.195	0.777	-0.076	
2.200	0.855	0.071	
2.205	0.353	0.262	
2.210	0.704	0.411	
2.215	0.704	0.523	
2.220	-0.095	0.574	
2.225	-0.104	0.512	
2.230	0.258	0.385	
2.235	-0.158	0.264	
2.240	-0.335	0.137	
2.245	-0.008	0.011	
2.250	-0.084	-0.073	
2.255	-0.370	-0.126	
2.260	-0.130	-0.173	
2.265	0.072	-0.190	
2.270	-0.336	-0.178	
2.275	-0.240	-0.178	
2.280	0.220	-0.173	
2.285	-0.084	-0.133	
2.290	-0.190	-0.095	
2.295	0.305	-0.067	
2.300	0.229	-0.010	
2.305	-0.190	0.046	
2.310	0.180	0.066	
2.315	0.450	0.093	
2.320	-0.103	0.134	
2.325	0.003	0.141	
2.330	0.524	0.138	
2.335	0.117	0.165	
2.340	-0.103	0.178	
2.345	0.411	0.166	
2.350	0.325	0.178	
2.355	-0.135	0.194	
2.360	0.180	0.177	
2.365	0.418	0.165	
2.370	-0.138	0.170	
2.375	-0.071	0.144	
2.380	0.424	0.111	
2.385	-0.034	0.109	
2.390	-0.208	0.095	
2.395	0.189	0.058	
2.400	0.072	0.041	
2.405	-0.265	0.028	
2.410	-0.042	-0.007	
2.415	0.215	-0.029	
2.420	-0.232	-0.027	
2.425	-0.165	-0.040	
2.430	0.321	-0.051	
2.435	-0.057	-0.027	
2.440	-0.187	-0.009	
2.445	0.272	-0.006	
2.450	0.201	0.022	
2.455	-0.240	0.052	
2.460	0.007	0.045	
2.465	0.334	0.038	
2.470	-0.190	0.050	
2.475	-0.153	0.037	
2.480	0.195	0.011	
2.485	-0.174	-0.002	
2.490	-0.306	-0.029	
2.495	0.038	-0.071	
2.500	-0.052	-0.092	
2.505	-0.347	-0.104	
2.510	-0.129	-0.131	
2.515	0.078	-0.145	
2.520	-0.320	-0.138	
2.525	-0.281	-0.148	
2.530	0.117	-0.161	
2.535	-0.115	-0.145	
2.540	-0.161	-0.123	
2.545	0.547	-0.085	
2.550	0.663	0.024	
2.555	0.134	0.165	
2.560	0.424	0.267	
2.565	0.557	0.339	
2.570	-0.130	0.376	
2.575	-0.162	0.332	
2.580	0.191	0.236	
2.585	-0.174	0.148	
2.590	-0.315	0.055	
2.595	-0.005	-0.038	
2.600	-0.074	-0.095	
2.605	-0.353	-0.129	
2.610	-0.126	-0.164	
2.615	0.072	-0.175	
2.620	-0.284	-0.161	
2.625	-0.213	-0.157	
2.630	0.215	-0.149	
2.635	-0.092	-0.111	
2.640	-0.240	-0.082	
2.645	0.211	-0.069	
2.650	0.194	-0.033	
2.655	-0.187	0.010	
2.660	0.131	0.027	
2.665	0.429	0.054	
2.670	-0.086	0.099	
2.675	-0.011	0.114	
2.680	0.570	0.122	
2.685	0.171	0.163	
2.690	-0.069	0.192	
2.695	0.470	0.194	
2.700	0.427	0.219	
2.705	-0.121	0.247	
2.710	0.156	0.230	
2.715	0.444	0.209	
2.720	-0.109	0.203	
2.725	-0.078	0.170	
2.730	0.400	0.128	
2.735	0.001	0.117	
2.740	-0.202	0.100	
2.745	0.183	0.062	
2.750	0.114	0.045	
2.755	-0.246	0.036	
2.760	0.007	0.008	
2.765	0.357	-0.002	
2.770	-0.158	0.020	
2.775	-0.113	0.024	
2.780	0.394	0.022	
2.785	0.055	0.050	
2.790	-0.142	0.072	
2.795	0.337	0.074	
2.800	0.285	0.099	
2.805	-0.191	0.126	
2.810	0.026	0.113	
2.815	0.230	0.090	
2.820	-0.214	0.074	
2.825	-0.177	0.036	
2.830	0.241	-0.005	
2.835	-0.104	-0.015	
2.840	-0.275	-0.028	
2.845	0.093	-0.055	
2.850	0.056	-0.060	
2.855	-0.280	-0.055	
2.860	-0.071	-0.069	
2.865	0.180	-0.074	
2.870	-0.258	-0.061	
2.875	-0.240	-0.070	
2.880	0.152	-0.089	
2.885	-0.112	-0.084	
2.890	-0.190	-0.078	
2.895	0.440	-0.063	
2.900	0.565	0.014	
2.905	0.044	0.124	
2.910	0.366	0.202	
2.915	0.643	0.268	
2.920	-0.068	0.325	
2.925	-0.116	0.311	
2.930	0.275	0.245	
2.935	-0.129	0.182	
2.940	-0.310	0.104	
2.945	-0.013	0.011	
2.950	-0.017	-0.053	
2.955	-0.336	-0.092	
2.960	-0.130	-0.132	
2.965	0.142	-0.149	
2.970	-0.258	-0.134	
2.975	-0.242	-0.131	
2.980	0.197	-0.130	
2.985	-0.058	-0.101	
2.990	-0.232	-0.076	
2.995	0.174	-0.065	
3.000	0.166	-0.035	
3.005	-0.234	-0.001	
3.010	0.036	0.004	
3.015	0.424	0.017	
3.020	-0.104	0.057	
3.025	-0.063	0.073	
3.030	0.487	0.079	
3.035	0.091	0.114	
3.040	-0.161	0.133	
3.045	0.275	0.121	
3.050	0.311	0.124	
3.055	-0.152	0.138	
3.060	0.059	0.122	
3.065	0.347	0.106	
3.070	-0.145	0.107	
3.075	-0.118	0.085	
3.080	0.418	0.060	
3.085	0.001	0.070	
3.090	-0.231	0.071	
3.095	0.146	0.043	
3.100	0.113	0.030	
3.105	-0.258	0.023	
3.110	-0.060	-0.006	
3.115	0.224	-0.026	
3.120	-0.208	-0.023	
3.125	-0.179	-0.034	
3.130	0.339	-0.044	
3.135	0.023	-0.017	
3.140	-0.138	0.011	
3.145	0.296	0.025	
3.150	0.235	0.059	
3.155	-0.196	0.091	
3.160	0.047	0.085	
3.165	0.362	0.078	
3.170	-0.196	0.087	
3.175	-0.188	0.065	
3.180	0.269	0.028	
3.185	-0.072	0.018	
3.190	-0.287	0.002	
3.195	0.007	-0.036	
3.200	-0.016	-0.061	
3.205	-0.332	-0.079	
3.210	-0.124	-0.110	
3.215	0.183	-0.123	
3.220	-0.243	-0.107	
3.225	-0.269	-0.106	
3.230	0.099	-0.117	
3.235	-0.110	-0.109	
3.240	-0.226	-0.102	
3.245	0.316	-0.090	
3.250	0.522	-0.025	
3.255	0.073	0.077	
3.260	0.450	0.165	
3.265	0.762	0.258	
3.270	-0.013	0.347	
3.275	-0.095	0.356	
3.280	0.310	0.300	
3.285	-0.063	0.238	
3.290	-0.313	0.158	
3.295	-0.023	0.056	
3.300	-0.006	-0.021	
3.305	-0.329	-0.072	
3.310	-0.119	-0.120	
3.315	0.188	-0.139	
3.320	-0.228	-0.121	
3.325	-0.208	-0.112	
3.330	0.243	-0.106	
3.335	-0.037	-0.072	
3.340	-0.232	-0.045	
3.345	0.171	-0.039	
3.350	0.168	-0.016	
3.355	-0.242	0.011	
3.360	-0.048	0.005	
3.365	0.345	0.002	
3.370	-0.136	0.023	
3.375	-0.107	0.028	
3.380	0.424	0.028	
3.385	0.104	0.062	
3.390	-0.145	0.090	
3.395	0.351	0.095	
3.400	0.408	0.124	
3.405	-0.156	0.162	
3.410	0.042	0.157	
3.415	0.391	0.141	
3.420	-0.124	0.139	
3.425	-0.084	0.115	
3.430	0.379	0.086	
3.435	0.010	0.087	
3.440	-0.234	0.080	
3.445	0.169	0.048	
3.450	0.209	0.038	
3.455	-0.245	0.042	
3.460	-0.061	0.020	
3.465	0.351	0.005	
3.470	-0.110	0.021	
3.475	-0.110	0.026	
3.480	0.379	0.026	
3.485	0.056	0.054	
3.490	-0.165	0.072	
3.495	0.310	0.070	
3.500	0.295	0.090	
3.505	-0.181	0.117	
3.510	0.020	0.106	
3.515	0.380	0.092	
3.520	-0.129	0.099	
3.525	-0.153	0.082	
3.530	0.299	0.053	
3.535	-0.022	0.048	
3.540	-0.258	0.037	
3.545	0.067	0.003	
3.550	0.093	-0.016	
3.555	-0.321	-0.025	
3.560	-0.124	-0.056	
3.565	0.139	-0.081	
3.570	-0.246	-0.083	
3.575	-0.246	-0.096	
3.580	0.117	-0.113	
3.585	-0.148	-0.108	
3.590	-0.294	-0.108	
3.595	0.181	-0.113	
3.600	0.449	-0.071	
3.605	0.046	0.015	
3.610	0.467	0.101	
3.615	0.872	0.210	
3.620	0.212	0.336	
3.625	-0.003	0.396	
3.630	0.365	0.379	
3.635	-0.040	0.332	
3.640	-0.315	0.246	
3.645	-0.051	0.126	
3.650	-0.034	0.022	
3.655	-0.371	-0.055	
3.660	-0.211	-0.129	
3.665	0.073	-0.174	
3.670	-0.234	-0.179	
3.675	-0.263	-0.178	
3.680	0.146	-0.173	
3.685	-0.112	-0.143	
3.690	-0.304	-0.119	
3.695	0.064	-0.116	
3.700	0.099	-0.096	
3.705	-0.295	-0.070	
3.710	-0.107	-0.072	
3.715	0.240	-0.072	
3.720	-0.170	-0.050	
3.725	-0.147	-0.041	
3.730	0.334	-0.035	
3.735	0.061	0.001	
3.740	-0.193	0.031	
3.745	0.217	0.035	
3.750	0.238	0.053	
3.755	-0.199	0.074	
3.760	-0.009	0.063	
3.765	0.359	0.053	
3.770	-0.083	0.067	
3.775	-0.087	0.066	
3.780	0.388	0.060	
3.785	0.033	0.079	
3.790	-0.236	0.084	
3.795	0.105	0.055	
3.800	0.189	0.039	
3.805	-0.220	0.036	
3.810	-0.045	0.014	
3.815	0.336	0.002	
3.820	-0.132	0.018	
3.825	-0.121	0.021	
3.830	0.409	0.020	
3.835	0.120	0.054	
3.840	-0.161	0.083	
3.845	0.311	0.087	
3.850	0.366	0.111	
3.855	-0.152	0.144	
3.860	0.062	0.139	
3.865	0.417	0.129	
3.870	-0.113	0.136	
3.875	-0.116	0.118	
3.880	0.385	0.089	
3.885	0.070	0.092	
3.890	-0.237	0.090	
3.895	0.053	0.056	
3.900	0.101	0.027	
3.905	-0.272	0.008	
3.910	-0.122	-0.030	
3.915	0.223	-0.056	
3.920	-0.173	-0.052	
3.925	-0.210	-0.056	
3.930	0.232	-0.064	
3.935	-0.061	-0.047	
3.940	-0.307	-0.039	
3.945	0.026	-0.058	
3.950	0.183	-0.060	
3.955	-0.135	-0.038	
3.960	0.253	-0.013	
3.965	0.793	0.056	
3.970	0.267	0.177	
3.975	0.168	0.272	
3.980	0.603	0.325	
3.985	0.142	0.360	
3.990	-0.216	0.343	
3.995	0.096	0.262	
4.000	0.142	0.179	
4.005	-0.268	0.110	
4.010	-0.132	0.032	
4.015	0.215	-0.027	
4.020	-0.171	-0.045	
4.025	-0.200	-0.061	
4.030	0.211	-0.074	
4.035	0.015	-0.056	
4.040	-0.199	-0.035	
4.045	0.156	-0.029	
4.050	0.255	-0.003	
4.055	-0.193	0.032	
4.060	-0.014	0.036	
4.065	0.420	0.041	
4.070	-0.066	0.071	
4.075	-0.086	0.082	
4.080	0.554	0.087	
4.085	0.293	0.134	
4.090	-0.064	0.182	
4.095	0.394	0.198	
4.100	0.470	0.224	
4.105	-0.090	0.253	
4.110	0.111	0.239	
4.115	0.548	0.220	
4.120	-0.017	0.224	
4.125	-0.075	0.205	
4.130	0.470	0.172	
4.135	0.186	0.173	
4.140	-0.187	0.171	
4.145	0.159	0.138	
4.150	0.220	0.112	
4.155	-0.232	0.095	
4.160	-0.068	0.055	
4.165	0.281	0.021	
4.170	-0.153	0.016	
4.175	-0.179	0.002	
4.180	0.343	-0.014	
4.185	0.068	0.008	
4.190	-0.203	0.030	
4.195	0.226	0.030	
4.200	0.356	0.052	
4.205	-0.170	0.089	
4.210	0.055	0.094	
4.215	0.518	0.100	
4.220	-0.016	0.134	
4.225	-0.081	0.145	
4.230	0.429	0.135	
4.235	0.113	0.146	
4.240	-0.213	0.145	
4.245	0.127	0.109	
4.250	0.168	0.081	
4.255	-0.280	0.061	
4.260	-0.165	0.014	
4.265	0.128	-0.034	
4.270	-0.234	-0.058	
4.275	-0.266	-0.087	
4.280	0.117	-0.115	
4.285	-0.092	-0.113	
4.290	-0.338	-0.110	
4.295	-0.069	-0.127	
4.300	0.035	-0.132	
4.305	-0.258	-0.122	
4.310	-0.013	-0.118	
4.315	0.643	-0.077	
4.320	0.252	0.027	
4.325	0.238	0.138	
4.330	0.828	0.238	
4.335	0.376	0.348	
4.340	-0.147	0.404	
4.345	0.124	0.367	
4.350	0.082	0.289	
4.355	-0.362	0.194	
4.360	-0.246	0.070	
4.365	0.036	-0.041	
4.370	-0.266	-0.109	
4.375	-0.280	-0.158	
4.380	0.087	-0.187	
4.385	-0.089	-0.176	
4.390	-0.275	-0.155	
4.395	0.122	-0.140	
4.400	0.258	-0.096	
4.405	-0.203	-0.037	
4.410	-0.046	-0.010	
4.415	0.383	0.009	
4.420	-0.061	0.047	
4.425	-0.057	0.067	
4.430	0.522	0.080	
4.435	0.288	0.131	
4.440	-0.122	0.176	
4.445	0.281	0.181	
4.450	0.409	0.190	
4.455	-0.110	0.204	
4.460	0.105	0.187	
4.465	0.567	0.175	
4.470	-0.019	0.193	
4.475	-0.072	0.187	
4.480	0.463	0.164	
4.485	0.177	0.170	
4.490	-0.213	0.169	
4.495	0.078	0.130	
4.500	0.159	0.091	
4.505	-0.272	0.061	
4.510	-0.155	0.010	
4.515	0.211	-0.034	
4.520	-0.187	-0.046	
4.525	-0.222	-0.061	
4.530	0.223	-0.076	
4.535	-0.028	-0.060	
4.540	-0.262	-0.046	
4.545	0.068	-0.052	
4.550	0.180	-0.043	
4.555	-0.231	-0.022	
4.560	-0.068	-0.023	
4.565	0.324	-0.022	
4.570	-0.132	0.004	
4.575	-0.203	0.009	
4.580	0.218	-0.005	
4.585	-0.022	-0.001	
4.590	-0.263	-0.003	
4.595	0.033	-0.027	
4.600	0.078	-0.040	
4.605	-0.323	-0.044	
4.610	-0.184	-0.073	
4.615	0.096	-0.101	
4.620	-0.268	-0.108	
4.625	-0.313	-0.127	
4.630	0.050	-0.151	
4.635	-0.127	-0.151	
4.640	-0.375	-0.150	
4.645	-0.139	-0.168	
4.650	-0.066	-0.180	
4.655	-0.381	-0.182	
4.660	-0.173	-0.196	
4.665	0.481	-0.178	
4.670	0.333	-0.084	
4.675	0.423	0.050	
4.680	1.042	0.209	
4.685	0.698	0.396	
4.690	-0.011	0.527	
4.695	0.272	0.538	
4.700	0.185	0.477	
4.705	-0.295	0.375	
4.710	-0.199	0.228	
4.715	0.056	0.084	
4.720	-0.289	-0.020	
4.725	-0.342	-0.107	
4.730	0.007	-0.175	
4.735	-0.138	-0.197	
4.740	-0.381	-0.202	
4.745	-0.110	-0.213	
4.750	0.053	-0.205	
4.755	-0.303	-0.177	
4.760	-0.159	-0.164	
4.765	0.279	-0.143	
4.770	-0.132	-0.094	
4.775	-0.176	-0.060	
4.780	0.365	-0.037	
4.785	0.230	0.017	
4.790	-0.116	0.073	
4.795	0.343	0.103	
4.800	0.527	0.149	
4.805	-0.066	0.206	
4.810	0.116	0.219	
4.815	0.579	0.220	
4.820	0.020	0.239	
4.825	-0.064	0.230	
4.830	0.525	0.202	
4.835	0.256	0.209	
4.840	-0.170	0.213	
4.845	0.125	0.178	
4.850	0.253	0.143	
4.855	-0.228	0.118	
4.860	-0.133	0.069	
4.865	0.256	0.021	
4.870	-0.150	0.004	
4.875	-0.229	-0.018	
4.880	0.181	-0.045	
4.885	0.006	-0.043	
4.890	-0.262	-0.038	
4.895	0.023	-0.051	
4.900	0.168	-0.050	
4.905	-0.262	-0.036	
4.910	-0.144	-0.046	
4.915	0.281	-0.054	
4.920	-0.121	-0.035	
4.925	-0.185	-0.026	
4.930	0.275	-0.026	
4.935	0.055	-0.002	
4.940	-0.226	0.017	
4.945	0.101	0.010	
4.950	0.209	0.013	
4.955	-0.268	0.024	
4.960	-0.181	0.001	
4.965	0.117	-0.034	
4.970	-0.260	-0.054	
4.975	-0.313	-0.087	
4.980	0.079	-0.125	
4.985	-0.078	-0.131	
4.990	-0.327	-0.128	
4.995	-0.037	-0.139	
5.000	0.064	-0.134	
5.005	-0.335	-0.118	
5.010	-0.188	-0.125	
5.015	0.336	-0.123	
5.020	0.117	-0.071	
5.025	0.351	0.010	
5.030	1.191	0.141	
5.035	1.058	0.354	
5.040	0.486	0.569	
5.045	0.704	0.695	
5.050	0.571	0.743	
5.055	-0.170	0.707	
5.060	-0.138	0.563	
5.065	0.186	0.376	
5.070	-0.226	0.215	
5.075	-0.329	0.069	
5.080	0.024	-0.055	
5.085	-0.139	-0.126	
5.090	-0.407	-0.168	
5.095	-0.119	-0.207	
5.100	0.064	-0.215	
5.105	-0.283	-0.192	
5.110	-0.139	-0.174	
5.115	0.292	-0.146	
5.120	-0.127	-0.091	
5.125	-0.194	-0.054	
5.130	0.343	-0.034	
5.135	0.168	0.013	
5.140	-0.162	0.057	
5.145	0.243	0.072	
5.150	0.486	0.104	
5.155	-0.098	0.152	
5.160	0.047	0.163	
5.165	0.562	0.164	
5.170	0.104	0.193	
5.175	-0.006	0.207	
5.180	0.570	0.206	
5.185	0.371	0.237	
5.190	-0.113	0.264	
5.195	0.276	0.248	
5.200	0.458	0.235	
5.205	-0.115	0.236	
5.210	-0.035	0.201	
5.215	0.400	0.157	
5.220	-0.081	0.138	
5.225	-0.196	0.105	
5.230	0.220	0.058	
5.235	0.018	0.036	
5.240	-0.240	0.019	
5.245	0.119	-0.008	
5.250	0.324	-0.006	
5.255	-0.176	0.024	
5.260	-0.052	0.031	
5.265	0.463	0.036	
5.270	0.058	0.076	
5.275	-0.064	0.105	
5.280	0.452	0.117	
5.285	0.255	0.152	
5.290	-0.155	0.179	
5.295	0.211	0.166	
5.300	0.340	0.157	
5.305	-0.185	0.156	
5.310	-0.110	0.121	
5.315	0.269	0.074	
5.320	-0.129	0.052	
5.325	-0.225	0.021	
5.330	0.174	-0.016	
5.335	-0.031	-0.028	
5.340	-0.309	-0.037	
5.345	-0.032	-0.066	
5.350	0.110	-0.081	
5.355	-0.303	-0.078	
5.360	-0.213	-0.095	
5.365	0.148	-0.113	
5.370	-0.156	-0.104	
5.375	-0.139	-0.094	
5.380	0.658	-0.062	
5.385	0.681	0.051	
5.390	0.152	0.197	
5.395	0.528	0.303	
5.400	0.522	0.379	
5.405	-0.171	0.411	
5.410	-0.116	0.354	
5.415	0.227	0.252	
5.420	-0.208	0.162	
5.425	-0.320	0.064	
5.430	0.029	-0.034	
5.435	-0.081	-0.091	
5.440	-0.339	-0.125	
5.445	-0.122	-0.159	
5.450	0.058	-0.171	
5.455	-0.271	-0.158	
5.460	-0.141	-0.151	
5.465	0.261	-0.133	
5.470	-0.118	-0.088	
5.475	-0.181	-0.057	
5.480	0.308	-0.039	
5.485	0.212	0.007	
5.490	-0.155	0.055	
5.495	0.111	0.069	
5.500	0.392	0.085	
5.505	-0.084	0.114	
5.510	0.068	0.121	
5.515	0.628	0.133	
5.520	0.127	0.182	
5.525	-0.057	0.210	
5.530	0.492	0.209	
5.535	0.284	0.225	
5.540	-0.153	0.234	
5.545	0.168	0.201	
5.550	0.360	0.173	
5.555	-0.165	0.161	
5.560	-0.075	0.123	
5.565	0.360	0.084	
5.570	-0.104	0.074	
5.575	-0.239	0.051	
5.580	0.175	0.012	
5.585	0.021	-0.003	
5.590	-0.269	-0.013	
5.595	-0.002	-0.039	
5.600	0.244	-0.046	
5.605	-0.200	-0.028	
5.610	-0.121	-0.026	
5.615	0.321	-0.027	
5.620	-0.071	-0.001	
5.625	-0.144	0.013	
5.630	0.420	0.021	
5.635	0.209	0.062	
5.640	-0.203	0.101	
5.645	0.081	0.095	
5.650	0.217	0.083	
5.655	-0.254	0.074	
5.660	-0.187	0.034	
5.665	0.157	-0.014	
5.670	-0.194	-0.038	
5.675	-0.306	-0.068	
5.680	0.010	-0.106	
5.685	-0.087	-0.123	
5.690	-0.350	-0.132	
5.695	-0.080	-0.152	
5.700	0.064	-0.155	
5.705	-0.315	-0.140	
5.710	-0.208	-0.142	
5.715	0.151	-0.144	
5.720	-0.135	-0.120	
5.725	-0.210	-0.101	
5.730	0.307	-0.085	
5.735	0.339	-0.027	
5.740	0.000	0.052	
5.745	0.460	0.118	
5.750	0.669	0.202	
5.755	-0.078	0.285	
5.760	-0.072	0.294	
5.765	0.269	0.246	
5.770	-0.144	0.192	
5.775	-0.255	0.117	
5.780	0.134	0.035	
5.785	-0.026	-0.013	
5.790	-0.323	-0.045	
5.795	-0.064	-0.086	
5.800	0.151	-0.105	
5.805	-0.263	-0.096	
5.810	-0.165	-0.098	
5.815	0.250	-0.097	
5.820	-0.115	-0.069	
5.825	-0.225	-0.051	
5.830	0.250	-0.048	
5.835	0.143	-0.018	
5.840	-0.200	0.016	
5.845	0.181	0.026	
5.850	0.423	0.053	
5.855	-0.142	0.097	
5.860	-0.025	0.107	
5.865	0.505	0.106	
5.870	0.046	0.134	
5.875	-0.109	0.145	
5.880	0.405	0.135	
5.885	0.269	0.149	
5.890	-0.158	0.165	
5.895	0.194	0.149	
5.900	0.418	0.144	
5.905	-0.135	0.156	
5.910	-0.066	0.137	
5.915	0.391	0.108	
5.920	-0.068	0.104	
5.925	-0.210	0.085	
5.930	0.177	0.045	
5.935	-0.037	0.023	
5.940	-0.309	-0.002	
5.945	-0.045	-0.046	
5.950	0.215	-0.068	
5.955	-0.205	-0.058	
5.960	-0.098	-0.055	
5.965	0.423	-0.043	
5.970	0.007	0.006	
5.975	-0.121	0.043	
5.980	0.409	0.062	
5.985	0.261	0.104	
5.990	-0.162	0.141	
5.995	0.097	0.134	
6.000	0.333	0.123	
6.005	-0.177	0.122	
6.010	-0.110	0.093	
6.015	0.343	0.059	
6.020	-0.077	0.054	
6.025	-0.242	0.040	
6.030	0.093	0.004	
6.035	-0.034	-0.019	
6.040	-0.330	-0.041	
6.045	-0.089	-0.080	
6.050	0.111	-0.103	
6.055	-0.277	-0.102	
6.060	-0.171	-0.111	
6.065	0.230	-0.113	
6.070	-0.177	-0.088	
6.075	-0.303	-0.079	
6.080	0.127	-0.090	
6.085	0.134	-0.075	
6.090	-0.161	-0.043	
6.095	0.305	-0.014	
6.100	0.647	0.053	
6.105	0.041	0.153	
6.110	0.029	0.208	
6.115	0.461	0.223	
6.120	-0.061	0.230	
6.125	-0.232	0.196	
6.130	0.134	0.125	
6.135	0.000	0.069	
6.140	-0.327	0.019	
6.145	-0.100	-0.043	
6.150	0.075	-0.087	
6.155	-0.312	-0.104	
6.160	-0.205	-0.129	
6.165	0.186	-0.141	
6.170	-0.148	-0.121	
6.175	-0.280	-0.106	
6.180	0.081	-0.109	
6.185	-0.002	-0.095	
6.190	-0.289	-0.081	
6.195	0.003	-0.085	
6.200	0.253	-0.073	
6.205	-0.193	-0.039	
6.210	-0.116	-0.027	
6.215	0.376	-0.018	
6.220	-0.016	0.018	
6.225	-0.161	0.041	
6.230	0.266	0.042	
6.235	0.097	0.056	
6.240	-0.242	0.062	
6.245	0.026	0.038	
6.250	0.263	0.022	
6.255	-0.214	0.026	
6.260	-0.156	0.008	
6.265	0.318	-0.012	
6.270	-0.060	-0.000	
6.275	-0.214	0.005	
6.280	0.151	-0.009	
6.285	-0.011	-0.011	
6.290	-0.295	-0.017	
6.295	-0.026	-0.046	
6.300	0.208	-0.058	
6.305	-0.225	-0.046	
6.310	-0.144	-0.049	
6.315	0.324	-0.051	
6.320	-0.054	-0.021	
6.325	-0.177	-0.001	
6.330	0.261	0.002	
6.335	0.166	0.027	
6.340	-0.188	0.053	
6.345	0.137	0.053	
6.350	0.402	0.065	
6.355	-0.139	0.096	
6.360	-0.066	0.096	
6.365	0.408	0.085	
6.370	-0.016	0.098	
6.375	-0.162	0.096	
6.380	0.259	0.073	
6.385	0.082	0.069	
6.390	-0.274	0.061	
6.395	-0.061	0.022	
6.400	0.084	-0.016	
6.405	-0.272	-0.039	
6.410	-0.173	-0.073	
6.415	0.220	-0.094	
6.420	-0.144	-0.082	
6.425	-0.275	-0.076	
6.430	0.131	-0.086	
6.435	0.119	-0.069	
6.440	-0.171	-0.040	
6.445	0.319	-0.013	
6.450	0.742	0.058	
6.455	0.212	0.175	
6.460	0.334	0.270	
6.465	0.808	0.344	
6.470	0.191	0.416	
6.475	-0.113	0.425	
6.480	0.275	0.361	
6.485	0.064	0.286	
6.490	-0.312	0.201	
6.495	-0.100	0.092	
6.500	0.117	0.003	
6.505	-0.281	-0.048	
6.510	-0.229	-0.096	
6.515	0.217	-0.125	
6.520	-0.119	-0.113	
6.525	-0.222	-0.097	
6.530	0.241	-0.086	
6.535	0.181	-0.045	
6.540	-0.200	0.003	
6.545	0.064	0.018	
6.550	0.350	0.035	
6.555	-0.139	0.066	
6.560	-0.063	0.069	
6.565	0.478	0.068	
6.570	0.065	0.099	
6.575	-0.112	0.119	
6.580	0.423	0.119	
6.585	0.322	0.146	
6.590	-0.153	0.174	
6.595	0.180	0.165	
6.600	0.440	0.160	
6.605	-0.118	0.171	
6.610	-0.068	0.152	
6.615	0.461	0.124	
6.620	0.052	0.129	
6.625	-0.136	0.127	
6.630	0.362	0.110	
6.635	0.235	0.119	
6.640	-0.220	0.129	
6.645	-0.003	0.101	
6.650	0.244	0.069	
6.655	-0.214	0.053	
6.660	-0.138	0.021	
6.665	0.310	-0.007	
6.670	-0.057	-0.000	
6.675	-0.171	0.004	
6.680	0.302	0.001	
6.685	0.136	0.026	
6.690	-0.197	0.051	
6.695	0.172	0.049	
6.700	0.458	0.068	
6.705	-0.093	0.110	
6.710	-0.020	0.122	
6.715	0.473	0.121	
6.720	-0.013	0.141	
6.725	-0.182	0.136	
6.730	0.204	0.101	
6.735	0.093	0.080	
6.740	-0.266	0.061	
6.745	-0.090	0.015	
6.750	0.065	-0.027	
6.755	-0.312	-0.056	
6.760	-0.214	-0.095	
6.765	0.241	-0.120	
6.770	-0.113	-0.103	
6.775	-0.295	-0.088	
6.780	0.006	-0.097	
6.785	-0.077	-0.100	
6.790	-0.326	-0.105	
6.795	-0.029	-0.123	
6.800	0.336	-0.111	
6.805	-0.058	-0.058	
6.810	0.185	-0.003	
6.815	0.816	0.077	
6.820	0.388	0.204	
6.825	-0.025	0.301	
6.830	0.382	0.326	
6.835	0.183	0.321	
6.840	-0.269	0.281	
6.845	-0.101	0.189	
6.850	0.056	0.089	
6.855	-0.320	0.010	
6.860	-0.280	-0.071	
6.865	0.085	-0.134	
6.870	-0.174	-0.154	
6.875	-0.286	-0.160	
6.880	0.124	-0.163	
6.885	0.068	-0.132	
6.890	-0.255	-0.093	
6.895	0.023	-0.076	
6.900	0.266	-0.051	
6.905	-0.179	-0.012	
6.910	-0.090	0.001	
6.915	0.423	0.010	
6.920	0.030	0.049	
6.925	-0.077	0.078	
6.930	0.495	0.095	
6.935	0.368	0.145	
6.940	-0.130	0.193	
6.945	0.238	0.197	
6.950	0.573	0.205	
6.955	-0.019	0.234	
6.960	0.013	0.231	
6.965	0.502	0.210	
6.970	0.059	0.211	
6.975	-0.121	0.195	
6.980	0.359	0.160	
6.985	0.232	0.151	
6.990	-0.210	0.147	
6.995	0.027	0.111	
7.000	0.246	0.077	
7.005	-0.197	0.060	
7.010	-0.122	0.029	
7.015	0.365	0.004	
7.020	-0.032	0.018	
7.025	-0.196	0.026	
7.030	0.220	0.016	
7.035	0.137	0.026	
7.040	-0.226	0.038	
7.045	0.056	0.025	
7.050	0.374	0.026	
7.055	-0.109	0.054	
7.060	-0.077	0.061	
7.065	0.366	0.058	
7.070	-0.022	0.076	
7.075	-0.188	0.076	
7.080	0.263	0.056	
7.085	0.127	0.057	
7.090	-0.258	0.059	
7.095	-0.071	0.028	
7.100	0.160	-0.004	
7.105	-0.249	-0.018	
7.110	-0.214	-0.048	
7.115	0.169	-0.077	
7.120	-0.130	-0.077	
7.125	-0.278	-0.080	
7.130	0.096	-0.094	
7.135	-0.006	-0.088	
7.140	-0.353	-0.081	
7.145	-0.182	-0.104	
7.150	0.056	-0.127	
7.155	-0.232	-0.128	
7.160	-0.052	-0.127	
7.165	0.683	-0.087	
7.170	0.356	0.026	
7.175	0.116	0.146	
7.180	0.638	0.235	
7.185	0.470	0.321	
7.190	-0.152	0.370	
7.195	0.017	0.334	
7.200	0.185	0.258	
7.205	-0.263	0.179	
7.210	-0.234	0.080	
7.215	0.113	-0.012	
7.220	-0.170	-0.063	
7.225	-0.277	-0.100	
7.230	0.085	-0.129	
7.235	0.055	-0.122	
7.240	-0.258	-0.099	
7.245	0.001	-0.091	
7.250	0.327	-0.066	
7.255	-0.129	-0.018	
7.260	-0.068	0.009	
7.265	0.431	0.028	
7.270	0.079	0.073	
7.275	-0.084	0.105	
7.280	0.447	0.118	
7.285	0.333	0.155	
7.290	-0.100	0.191	
7.295	0.313	0.195	
7.300	0.647	0.214	
7.305	0.075	0.262	
7.310	0.195	0.283	
7.315	0.776	0.298	
7.320	0.379	0.349	
7.325	0.076	0.384	
7.330	0.632	0.384	
7.335	0.548	0.400	
7.340	-0.051	0.412	
7.345	0.241	0.373	
7.350	0.458	0.326	
7.355	-0.115	0.291	
7.360	-0.057	0.228	
7.365	0.440	0.165	
7.370	0.017	0.142	
7.375	-0.202	0.117	
7.380	0.226	0.076	
7.385	0.183	0.061	
7.390	-0.205	0.061	
7.395	0.056	0.041	
7.400	0.368	0.037	
7.405	-0.159	0.057	
7.410	-0.126	0.053	
7.415	0.385	0.040	
7.420	0.018	0.057	
7.425	-0.176	0.066	
7.430	0.247	0.054	
7.435	0.124	0.059	
7.440	-0.286	0.060	
7.445	-0.055	0.026	
7.450	0.172	-0.006	
7.455	-0.274	-0.020	
7.460	-0.263	-0.052	
7.465	0.046	-0.093	
7.470	-0.203	-0.114	
7.475	-0.341	-0.135	
7.480	-0.006	-0.162	
7.485	-0.055	-0.164	
7.490	-0.390	-0.158	
7.495	-0.219	-0.175	
7.500	-0.068	-0.192	
7.505	-0.356	-0.198	
7.510	-0.237	-0.211	
7.515	0.324	-0.202	
7.520	0.192	-0.132	
7.525	0.133	-0.035	
7.530	0.806	0.078	
7.535	0.676	0.230	
7.540	-0.055	0.360	
7.545	0.090	0.388	
7.550	0.256	0.347	
7.555	-0.237	0.280	
7.560	-0.254	0.174	
7.565	0.015	0.056	
7.570	-0.255	-0.035	
7.575	-0.413	-0.115	
7.580	-0.077	-0.186	
7.585	-0.092	-0.218	
7.590	-0.365	-0.222	
7.595	-0.168	-0.228	
7.600	0.068	-0.219	
7.605	-0.239	-0.186	
7.610	-0.150	-0.162	
7.615	0.313	-0.130	
7.620	-0.043	-0.071	
7.625	-0.193	-0.027	
7.630	0.267	-0.008	
7.635	0.172	0.027	
7.640	-0.199	0.058	
7.645	0.140	0.059	
7.650	0.466	0.073	
7.655	-0.057	0.114	
7.660	-0.026	0.128	
7.665	0.510	0.130	
7.670	0.165	0.160	
7.675	-0.043	0.182	
7.680	0.482	0.185	
7.685	0.389	0.213	
7.690	-0.124	0.240	
7.695	0.146	0.222	
7.700	0.426	0.200	
7.705	-0.141	0.192	
7.710	-0.156	0.152	
7.715	0.296	0.097	
7.720	-0.066	0.069	
7.725	-0.246	0.039	
7.730	0.162	-0.002	
7.735	0.120	-0.012	
7.740	-0.277	-0.009	
7.745	-0.051	-0.028	
7.750	0.249	-0.039	
7.755	-0.171	-0.024	
7.760	-0.093	-0.021	
7.765	0.424	-0.012	
7.770	-0.016	0.028	
7.775	-0.190	0.052	
7.780	0.287	0.050	
7.785	0.212	0.067	
7.790	-0.222	0.085	
7.795	-0.045	0.066	
7.800	0.226	0.040	
7.805	-0.231	0.028	
7.810	-0.219	-0.004	
7.815	0.070	-0.046	
7.820	-0.207	-0.072	
7.825	-0.356	-0.104	
7.830	-0.034	-0.144	
7.835	-0.060	-0.160	
7.840	-0.338	-0.160	
7.845	-0.130	-0.171	
7.850	0.084	-0.169	
7.855	-0.309	-0.149	
7.860	-0.304	-0.150	
7.865	0.024	-0.164	
7.870	-0.135	-0.159	
7.875	-0.150	-0.145	
7.880	0.699	-0.100	
7.885	0.910	0.041	
7.890	0.408	0.238	
7.895	0.733	0.404	
7.900	0.829	0.536	
7.905	0.007	0.612	
7.910	-0.113	0.571	
7.915	0.215	0.445	
7.920	-0.156	0.308	
7.925	-0.333	0.164	
7.930	-0.046	0.023	
7.935	-0.083	-0.074	
7.940	-0.375	-0.135	
7.945	-0.127	-0.185	
7.950	0.192	-0.195	
7.955	-0.207	-0.162	
7.960	-0.138	-0.132	
7.965	0.301	-0.101	
7.970	-0.005	-0.047	
7.975	-0.126	-0.003	
7.980	0.431	0.027	
7.985	0.391	0.088	
7.990	-0.124	0.153	
7.995	0.232	0.173	
8.000	0.557	0.193	
8.005	-0.003	0.229	
8.010	0.062	0.233	
8.015	0.643	0.227	
8.020	0.235	0.255	
8.025	-0.032	0.272	
8.030	0.501	0.261	
8.035	0.467	0.274	
8.040	-0.089	0.291	
8.045	0.166	0.267	
8.050	0.426	0.237	
8.055	-0.121	0.220	
8.060	-0.098	0.175	
8.065	0.347	0.122	
8.070	-0.051	0.098	
8.075	-0.219	0.070	
8.080	0.110	0.025	
8.085	0.058	0.002	
8.090	-0.300	-0.014	
8.095	-0.098	-0.048	
8.100	0.177	-0.071	
8.105	-0.225	-0.068	
8.110	-0.188	-0.075	
8.115	0.218	-0.082	
8.120	-0.101	-0.064	
8.125	-0.248	-0.054	
8.130	0.151	-0.059	
8.135	0.163	-0.041	
8.140	-0.229	-0.013	
8.145	-0.023	-0.012	
8.150	0.290	-0.008	
8.155	-0.197	0.012	
8.160	-0.145	0.008	
8.165	0.282	-0.005	
8.170	-0.112	0.004	
8.175	-0.284	-0.003	
8.180	0.038	-0.035	
8.185	-0.025	-0.056	
8.190	-0.364	-0.073	
8.195	-0.164	-0.110	
8.200	0.049	-0.138	
8.205	-0.284	-0.142	
8.210	-0.271	-0.154	
8.215	0.015	-0.169	
8.220	-0.219	-0.167	
8.225	-0.359	-0.171	
8.230	0.085	-0.181	
8.235	0.343	-0.145	
8.240	0.116	-0.060	
8.245	0.683	0.051	
8.250	1.020	0.212	
8.255	0.347	0.393	
8.260	0.133	0.495	
8.265	0.429	0.502	
8.270	-0.077	0.455	
8.275	-0.300	0.347	
8.280	-0.032	0.197	
8.285	-0.086	0.066	
8.290	-0.390	-0.038	
8.295	-0.196	-0.131	
8.300	-0.006	-0.189	
8.305	-0.318	-0.207	
8.310	-0.257	-0.219	
8.315	0.185	-0.214	
8.320	-0.075	-0.171	
8.325	-0.240	-0.127	
8.330	0.127	-0.102	
8.335	0.127	-0.065	
8.340	-0.222	-0.027	
8.345	0.064	-0.015	
8.350	0.418	0.008	
8.355	-0.152	0.053	
8.360	-0.086	0.067	
8.365	0.518	0.070	
8.370	0.206	0.112	
8.375	-0.052	0.152	
8.380	0.427	0.169	
8.385	0.423	0.202	
8.390	-0.084	0.236	
8.395	0.233	0.232	
8.400	0.547	0.230	
8.405	-0.069	0.244	
8.410	-0.054	0.223	
8.415	0.441	0.183	
8.420	0.020	0.169	
8.425	-0.207	0.144	
8.430	0.191	0.095	
8.435	0.105	0.067	
8.440	-0.272	0.046	
8.445	-0.055	0.005	
8.450	0.278	-0.021	
8.455	-0.188	-0.016	
8.460	-0.145	-0.021	
8.465	0.311	-0.028	
8.470	-0.045	-0.006	
8.475	-0.225	0.006	
8.480	0.243	-0.001	
8.485	0.217	0.018	
8.490	-0.190	0.046	
8.495	0.090	0.048	
8.500	0.408	0.059	
8.505	-0.112	0.090	
8.510	-0.089	0.093	
8.515	0.363	0.080	
8.520	-0.026	0.088	
8.525	-0.214	0.080	
8.530	0.084	0.044	
8.535	0.050	0.018	
8.540	-0.298	-0.003	
8.545	-0.113	-0.043	
8.550	0.139	-0.073	
8.555	-0.243	-0.078	
8.560	-0.202	-0.091	
8.565	0.197	-0.102	
8.570	-0.133	-0.085	
8.575	-0.317	-0.079	
8.580	0.020	-0.096	
8.585	0.017	-0.099	
8.590	-0.262	-0.092	
8.595	0.107	-0.089	
8.600	0.673	-0.043	
8.605	0.197	0.064	
8.610	0.214	0.164	
8.615	0.683	0.243	
8.620	0.140	0.316	
8.625	-0.200	0.329	
8.630	0.111	0.268	
8.635	0.036	0.191	
8.640	-0.315	0.112	
8.645	-0.156	0.018	
8.650	0.035	-0.059	
8.655	-0.301	-0.104	
8.660	-0.269	-0.145	
8.665	0.108	-0.173	
8.670	-0.126	-0.162	
8.675	-0.297	-0.148	
8.680	0.116	-0.141	
8.685	0.131	-0.109	
8.690	-0.260	-0.067	
8.695	-0.042	-0.054	
8.700	0.337	-0.038	
8.705	-0.119	0.000	
8.710	-0.054	0.021	
8.715	0.518	0.041	
8.720	0.117	0.094	
8.725	-0.126	0.132	
8.730	0.366	0.137	
8.735	0.385	0.159	
8.740	-0.129	0.188	
8.745	0.154	0.180	
8.750	0.492	0.174	
8.755	-0.043	0.189	
8.760	-0.028	0.179	
8.765	0.437	0.157	
8.770	0.041	0.158	
8.775	-0.193	0.144	
8.780	0.226	0.105	
8.785	0.211	0.089	
8.790	-0.210	0.084	
8.795	0.010	0.057	
8.800	0.305	0.039	
8.805	-0.199	0.042	
8.810	-0.152	0.025	
8.815	0.357	0.005	
8.820	0.030	0.022	
8.825	-0.138	0.039	
8.830	0.354	0.045	
8.835	0.295	0.080	
8.840	-0.162	0.118	
8.845	0.171	0.122	
8.850	0.536	0.134	
8.855	-0.029	0.171	
8.860	0.010	0.181	
8.865	0.563	0.177	
8.870	0.104	0.200	
8.875	-0.171	0.202	
8.880	0.244	0.166	
8.885	0.206	0.142	
8.890	-0.248	0.123	
8.895	-0.075	0.074	
8.900	0.195	0.027	
8.905	-0.236	0.002	
8.910	-0.184	-0.031	
8.915	0.263	-0.058	
8.920	-0.087	-0.048	
8.925	-0.277	-0.044	
8.930	0.064	-0.060	
8.935	-0.043	-0.066	
8.940	-0.350	-0.074	
8.945	-0.127	-0.104	
8.950	0.226	-0.117	
8.955	-0.138	-0.094	
8.960	0.023	-0.066	
8.965	0.758	-0.009	
8.970	0.411	0.110	
8.975	0.023	0.222	
8.980	0.412	0.277	
8.985	0.246	0.303	
8.990	-0.258	0.289	
8.995	-0.129	0.211	
9.000	0.119	0.115	
9.005	-0.294	0.038	
9.010	-0.284	-0.041	
9.015	0.151	-0.106	
9.020	-0.130	-0.123	
9.025	-0.306	-0.128	
9.030	-0.011	-0.142	
9.035	-0.023	-0.138	
9.040	-0.307	-0.128	
9.045	-0.057	-0.131	
9.050	0.261	-0.116	
9.055	-0.165	-0.073	
9.060	-0.110	-0.047	
9.065	0.455	-0.022	
9.070	0.047	0.033	
9.075	-0.181	0.071	
9.080	0.356	0.079	
9.085	0.389	0.110	
9.090	-0.162	0.150	
9.095	0.090	0.149	
9.100	0.412	0.141	
9.105	-0.133	0.147	
9.110	-0.103	0.125	
9.115	0.415	0.094	
9.120	0.041	0.098	
9.125	-0.176	0.096	
9.130	0.287	0.076	
9.135	0.266	0.083	
9.140	-0.228	0.098	
9.145	-0.013	0.078	
9.150	0.304	0.056	
9.155	-0.197	0.054	
9.160	-0.155	0.031	
9.165	0.287	0.004	
9.170	-0.077	0.006	
9.175	-0.281	-0.001	
9.180	0.064	-0.031	
9.185	0.026	-0.046	
9.190	-0.303	-0.053	
9.195	-0.095	-0.078	
9.200	0.236	-0.088	
9.205	-0.197	-0.068	
9.210	-0.130	-0.059	
9.215	0.398	-0.047	
9.220	0.009	-0.001	
9.225	-0.194	0.032	
9.230	0.249	0.037	
9.235	0.215	0.056	
9.240	-0.243	0.075	
9.245	-0.083	0.054	
9.250	0.172	0.023	
9.255	-0.262	0.004	
9.260	-0.232	-0.034	
9.265	0.174	-0.071	
9.270	-0.200	-0.080	
9.275	-0.371	-0.098	
9.280	-0.013	-0.132	
9.285	-0.025	-0.144	
9.290	-0.358	-0.143	
9.295	-0.171	-0.158	
9.300	0.042	-0.167	
9.305	-0.263	-0.156	
9.310	-0.176	-0.153	
9.315	0.420	-0.132	
9.320	0.204	-0.057	
9.325	0.093	0.033	
9.330	0.702	0.121	
9.335	0.583	0.238	
9.340	-0.104	0.333	
9.345	0.076	0.339	
9.350	0.282	0.295	
9.355	-0.252	0.237	
9.360	-0.281	0.141	
9.365	0.055	0.033	
9.370	-0.199	-0.043	
9.375	-0.376	-0.106	
9.380	-0.037	-0.163	
9.385	-0.022	-0.183	
9.390	-0.341	-0.178	
9.395	-0.124	-0.181	
9.400	0.192	-0.167	
9.405	-0.232	-0.129	
9.410	-0.207	-0.108	
9.415	0.244	-0.096	
9.420	-0.023	-0.061	
9.425	-0.177	-0.031	
9.430	0.253	-0.017	
9.435	0.194	0.018	
9.440	-0.229	0.050	
9.445	0.042	0.047	
9.450	0.461	0.051	
9.455	-0.090	0.084	
9.460	-0.049	0.095	
9.465	0.498	0.098	
9.470	0.070	0.128	
9.475	-0.153	0.141	
9.480	0.336	0.126	
9.485	0.240	0.131	
9.490	-0.217	0.136	
9.495	-0.011	0.104	
9.500	0.316	0.073	
9.505	-0.176	0.065	
9.510	-0.136	0.041	
9.515	0.337	0.016	
9.520	-0.022	0.025	
9.525	-0.225	0.028	
9.530	0.192	0.011	
9.535	0.203	0.018	
9.540	-0.229	0.035	
9.545	-0.048	0.023	
9.550	0.281	0.010	
9.555	-0.194	0.017	
9.560	-0.150	0.006	
9.565	0.423	-0.005	
9.570	0.041	0.025	
9.575	-0.177	0.050	
9.580	0.318	0.054	
9.585	0.255	0.078	
9.590	-0.213	0.104	
9.595	0.023	0.091	
9.600	0.382	0.078	
9.605	-0.168	0.085	
9.610	-0.158	0.068	
9.615	0.255	0.036	
9.620	-0.097	0.026	
9.625	-0.289	0.006	
9.630	0.030	-0.035	
9.635	-0.046	-0.061	
9.640	-0.355	-0.082	
9.645	-0.116	-0.117	
9.650	0.177	-0.132	
9.655	-0.245	-0.115	
9.660	-0.225	-0.110	
9.665	0.183	-0.111	
9.670	-0.083	-0.089	
9.675	-0.207	-0.070	
9.680	0.389	-0.052	
9.685	0.512	0.016	
9.690	0.012	0.112	
9.695	0.400	0.182	
9.700	0.676	0.251	
9.705	-0.089	0.316	
9.710	-0.133	0.306	
9.715	0.250	0.240	
9.720	-0.126	0.174	
9.725	-0.320	0.095	
9.730	0.001	0.003	
9.735	-0.028	-0.058	
9.740	-0.350	-0.096	
9.745	-0.150	-0.138	
9.750	0.101	-0.158	
9.755	-0.271	-0.149	
9.760	-0.229	-0.148	
9.765	0.204	-0.144	
9.770	-0.072	-0.111	
9.775	-0.228	-0.082	
9.780	0.233	-0.066	
9.785	0.211	-0.025	
9.790	-0.217	0.020	
9.795	0.085	0.032	
9.800	0.460	0.051	
9.805	-0.083	0.093	
9.810	-0.032	0.109	
9.815	0.534	0.115	
9.820	0.172	0.152	
9.825	-0.103	0.178	
9.830	0.418	0.176	
9.835	0.385	0.194	
9.840	-0.133	0.216	
9.845	0.154	0.199	
9.850	0.512	0.186	
9.855	-0.086	0.195	
9.860	-0.081	0.176	
9.865	0.394	0.141	
9.870	0.006	0.130	
9.875	-0.211	0.110	
9.880	0.240	0.072	
9.885	0.145	0.059	
9.890	-0.310	0.051	
9.895	-0.075	0.013	
9.900	0.232	-0.019	
9.905	-0.182	-0.021	
9.910	-0.124	-0.031	
9.915	0.409	-0.030	
9.920	0.042	0.009	
9.925	-0.158	0.043	
9.930	0.311	0.053	
9.935	0.310	0.084	
9.940	-0.168	0.119	
9.945	0.090	0.117	
9.950	0.484	0.117	
9.955	-0.078	0.141	
9.960	-0.072	0.139	
9.965	0.452	0.122	
9.970	0.044	0.132	
9.975	-0.194	0.129	
9.980	0.188	0.096	
9.985	0.136	0.077	
9.990	-0.275	0.062	
9.995	-0.038	0.022	
10.000	0.214	-0.008	
10.005	-0.222	-0.014	
10.010	-0.190	-0.033	
10.015	0.267	-0.052	
10.020	-0.090	-0.040	
10.025	-0.287	-0.036	
10.030	0.090	-0.054	
10.035	0.120	-0.052	
10.040	-0.217	-0.037	
10.045	0.181	-0.028	
10.050	0.718	0.021	
10.055	0.211	0.126	
10.060	0.290	0.220	
10.065	0.721	0.295	
10.070	0.186	0.366	
10.075	-0.145	0.377	
10.080	0.220	0.319	
10.085	0.093	0.249	
10.090	-0.309	0.173	
10.095	-0.122	0.074	
10.100	0.075	-0.011	
10.105	-0.271	-0.061	
10.110	-0.243	-0.108	
10.115	0.156	-0.139	
10.120	-0.132	-0.131	
10.125	-0.291	-0.121	
10.130	0.134	-0.121	
10.135	0.110	-0.095	
10.140	-0.254	-0.059	
10.145	-0.042	-0.051	
10.150	0.308	-0.039	
10.155	-0.144	-0.006	
10.160	-0.058	0.009	
10.165	0.524	0.028	
10.170	0.149	0.084	
10.175	-0.098	0.130	
10.180	0.409	0.145	
10.185	0.374	0.176	
10.190	-0.179	0.204	
10.195	0.114	0.186	
10.200	0.504	0.169	
10.205	-0.077	0.177	
10.210	-0.064	0.162	
10.215	0.489	0.137	
10.220	0.085	0.146	
10.225	-0.177	0.146	
10.230	0.195	0.115	
10.235	0.062	0.092	
10.240	-0.304	0.064	
10.245	-0.078	0.010	
10.250	0.240	-0.029	
10.255	-0.216	-0.034	
10.260	-0.181	-0.048	
10.265	0.282	-0.059	
10.270	-0.064	-0.039	
10.275	-0.254	-0.027	
10.280	0.146	-0.035	
10.285	0.146	-0.024	
10.290	-0.229	-0.005	
10.295	0.012	-0.008	
10.300	0.337	-0.002	
10.305	-0.182	0.024	
10.310	-0.142	0.025	
10.315	0.351	0.016	
10.320	-0.042	0.032	
10.325	-0.226	0.036	
10.330	0.191	0.017	
10.335	0.072	0.015	
10.340	-0.326	0.012	
10.345	-0.135	-0.025	
10.350	0.110	-0.061	
10.355	-0.278	-0.076	
10.360	-0.269	-0.103	
10.365	0.117	-0.129	
10.370	-0.153	-0.127	
10.375	-0.323	-0.126	
10.380	0.018	-0.138	
10.385	-0.042	-0.134	
10.390	-0.390	-0.128	
10.395	-0.177	-0.148	
10.400	0.175	-0.156	
10.405	-0.126	-0.129	
10.410	0.142	-0.089	
10.415	0.851	-0.007	
10.420	0.446	0.141	
10.425	0.090	0.272	
10.430	0.524	0.339	
10.435	0.321	0.377	
10.440	-0.266	0.367	
10.445	-0.113	0.280	
10.450	0.085	0.166	
10.455	-0.323	0.068	
10.460	-0.274	-0.032	
10.465	0.107	-0.110	
10.470	-0.165	-0.139	
10.475	-0.323	-0.152	
10.480	0.056	-0.166	
10.485	0.065	-0.148	
10.490	-0.275	-0.117	
10.495	-0.049	-0.104	
10.500	0.287	-0.083	
10.505	-0.176	-0.041	
10.510	-0.130	-0.022	
10.515	0.397	-0.010	
10.520	0.017	0.029	
10.525	-0.174	0.054	
10.530	0.362	0.058	
10.535	0.362	0.092	
10.540	-0.119	0.136	
10.545	0.220	0.148	
10.550	0.577	0.168	
10.555	-0.008	0.210	
10.560	0.009	0.218	
10.565	0.574	0.209	
10.570	0.152	0.226	
10.575	-0.135	0.227	
10.580	0.282	0.194	
10.585	0.214	0.171	
10.590	-0.242	0.150	
10.595	-0.003	0.099	
10.600	0.342	0.060	
10.605	-0.171	0.054	
10.610	-0.155	0.033	
10.615	0.288	0.008	
10.620	-0.068	0.011	
10.625	-0.237	0.006	
10.630	0.136	-0.016	
10.635	0.088	-0.018	
10.640	-0.291	-0.015	
10.645	-0.046	-0.035	
10.650	0.230	-0.046	
10.655	-0.193	-0.032	
10.660	-0.092	-0.031	
10.665	0.403	-0.024	
10.670	0.026	0.019	
10.675	-0.159	0.050	
10.680	0.331	0.057	
10.685	0.285	0.087	
10.690	-0.199	0.118	
10.695	-0.019	0.105	
10.700	0.230	0.080	
10.705	-0.242	0.061	
10.710	-0.231	0.019	
10.715	0.140	-0.032	
10.720	-0.159	-0.056	
10.725	-0.323	-0.080	
10.730	0.058	-0.112	
10.735	0.029	-0.115	
10.740	-0.312	-0.105	
10.745	-0.122	-0.113	
10.750	0.055	-0.120	
10.755	-0.326	-0.116	
10.760	-0.254	-0.133	
10.765	0.259	-0.143	
10.770	0.165	-0.101	
10.775	0.197	-0.026	
10.780	0.947	0.085	
10.785	0.916	0.263	
10.790	0.201	0.439	
10.795	0.418	0.525	
10.800	0.534	0.543	
10.805	-0.153	0.513	
10.810	-0.182	0.406	
10.815	0.128	0.260	
10.820	-0.193	0.135	
10.825	-0.384	0.019	
10.830	-0.048	-0.088	
10.835	-0.069	-0.150	
10.840	-0.388	-0.179	
10.845	-0.173	-0.207	
10.850	0.058	-0.214	
10.855	-0.258	-0.193	
10.860	-0.187	-0.176	
10.865	0.292	-0.151	
10.870	-0.035	-0.095	
10.875	-0.217	-0.049	
10.880	0.200	-0.030	
10.885	0.224	0.004	
10.890	-0.174	0.041	
10.895	0.149	0.053	
10.900	0.499	0.078	
10.905	-0.074	0.126	
10.910	-0.028	0.141	
10.915	0.533	0.141	
10.920	0.145	0.169	
10.925	-0.121	0.185	
10.930	0.406	0.172	
10.935	0.296	0.180	
10.940	-0.196	0.188	
10.945	0.056	0.155	
10.950	0.385	0.124	
10.955	-0.136	0.118	
10.960	-0.119	0.093	
10.965	0.308	0.060	
10.970	-0.080	0.052	
10.975	-0.249	0.034	
10.980	0.172	0.000	
10.985	0.146	-0.005	
10.990	-0.268	0.002	
10.995	-0.058	-0.015	
11.000	0.220	-0.029	
11.005	-0.254	-0.024	
11.010	-0.193	-0.040	
11.015	0.325	-0.054	
11.020	-0.034	-0.032	
11.025	-0.184	-0.012	
11.030	0.314	-0.004	
11.035	0.266	0.034	
11.040	-0.200	0.076	
11.045	0.046	0.078	
11.050	0.347	0.076	
11.055	-0.200	0.086	
11.060	-0.153	0.065	
11.065	0.232	0.030	
11.070	-0.148	0.015	
11.075	-0.309	-0.012	
11.080	-0.043	-0.061	
11.085	-0.119	-0.097	
11.090	-0.413	-0.129	
11.095	-0.171	-0.173	
11.100	0.108	-0.192	
11.105	-0.272	-0.177	
11.110	-0.255	-0.168	
11.115	0.050	-0.167	
11.120	-0.213	-0.153	
11.125	-0.323	-0.149	
11.130	0.186	-0.151	
11.135	0.424	-0.102	
11.140	0.209	-0.002	
11.145	0.771	0.122	
11.150	1.077	0.291	
11.155	0.351	0.472	
11.160	0.169	0.563	
11.165	0.464	0.558	
11.170	-0.086	0.499	
11.175	-0.295	0.377	
11.180	0.010	0.218	
11.185	-0.068	0.083	
11.190	-0.381	-0.022	
11.195	-0.171	-0.116	
11.200	0.039	-0.172	
11.205	-0.295	-0.186	
11.210	-0.226	-0.194	
11.215	0.211	-0.187	
11.220	-0.113	-0.146	
11.225	-0.266	-0.111	
11.230	0.107	-0.099	
11.235	0.055	-0.074	
11.240	-0.291	-0.052	
11.245	-0.023	-0.057	
11.250	0.325	-0.049	
11.255	-0.150	-0.014	
11.260	-0.057	0.004	
11.265	0.541	0.025	
11.270	0.215	0.088	
11.275	-0.009	0.147	
11.280	0.573	0.184	
11.285	0.473	0.243	
11.290	-0.077	0.294	
11.295	0.281	0.292	
11.300	0.635	0.289	
11.305	-0.025	0.305	
11.310	0.027	0.284	
11.315	0.515	0.247	
11.320	0.042	0.234	
11.325	-0.181	0.203	
11.330	0.243	0.148	
11.335	0.180	0.115	
11.340	-0.217	0.096	
11.345	0.035	0.058	
11.350	0.331	0.038	
11.355	-0.182	0.044	
11.360	-0.129	0.032	
11.365	0.377	0.017	
11.370	0.024	0.037	
11.375	-0.165	0.051	
11.380	0.293	0.049	
11.385	0.266	0.070	
11.390	-0.147	0.099	
11.395	0.145	0.100	
11.400	0.412	0.108	
11.405	-0.155	0.129	
11.410	-0.081	0.117	
11.415	0.486	0.097	
11.420	0.035	0.112	
11.425	-0.184	0.116	
11.430	0.201	0.090	
11.435	0.087	0.075	
11.440	-0.284	0.058	
11.445	-0.064	0.014	
11.450	0.214	-0.020	
11.455	-0.249	-0.027	
11.460	-0.194	-0.048	
11.465	0.214	-0.069	
11.470	-0.129	-0.062	
11.475	-0.326	-0.064	
11.480	0.029	-0.088	
11.485	-0.020	-0.097	
11.490	-0.310	-0.098	
11.495	-0.020	-0.111	
11.500	0.466	-0.092	
11.505	0.140	-0.017	
11.510	0.444	0.078	
11.515	1.051	0.206	
11.520	0.553	0.374	
11.525	0.056	0.490	
11.530	0.408	0.506	
11.535	0.154	0.468	
11.540	-0.286	0.382	
11.545	-0.122	0.245	
11.550	0.088	0.112	
11.555	-0.263	0.016	
11.560	-0.213	-0.064	
11.565	0.221	-0.113	
11.570	-0.087	-0.110	
11.575	-0.258	-0.098	
11.580	0.174	-0.094	
11.585	0.111	-0.065	
11.590	-0.243	-0.032	
11.595	0.035	-0.025	
11.600	0.343	-0.010	
11.605	-0.145	0.026	
11.610	-0.092	0.037	
11.615	0.453	0.042	
11.620	0.023	0.075	
11.625	-0.174	0.092	
11.630	0.334	0.084	
11.635	0.279	0.100	
11.640	-0.135	0.125	
11.645	0.233	0.125	
11.650	0.541	0.142	
11.655	-0.054	0.183	
11.660	0.027	0.190	
11.665	0.547	0.184	
11.670	0.104	0.203	
11.675	-0.124	0.205	
11.680	0.331	0.176	
11.685	0.206	0.164	
11.690	-0.258	0.150	
11.695	-0.049	0.099	
11.700	0.198	0.048	
11.705	-0.248	0.019	
11.710	-0.145	-0.019	
11.715	0.279	-0.047	
11.720	-0.087	-0.036	
11.725	-0.232	-0.030	
11.730	0.183	-0.039	
11.735	0.145	-0.023	
11.740	-0.239	-0.000	
11.745	0.023	-0.003	
11.750	0.356	0.003	
11.755	-0.153	0.033	
11.760	-0.064	0.041	
11.765	0.391	0.042	
11.770	-0.031	0.066	
11.775	-0.203	0.072	
11.780	0.235	0.052	
11.785	0.111	0.050	
11.790	-0.287	0.048	
11.795	-0.083	0.013	
11.800	0.120	-0.022	
11.805	-0.297	-0.042	
11.810	-0.245	-0.077	
11.815	0.146	-0.109	
11.820	-0.159	-0.110	
11.825	-0.324	-0.113	
11.830	-0.005	-0.131	
11.835	-0.064	-0.134	
11.840	-0.362	-0.134	
11.845	-0.138	-0.152	
11.850	0.033	-0.160	
11.855	-0.323	-0.153	
11.860	-0.228	-0.160	
11.865	0.305	-0.156	
11.870	0.081	-0.104	
11.875	0.004	-0.037	
11.880	0.686	0.038	
11.885	0.596	0.159	
11.890	-0.061	0.273	
11.895	0.136	0.307	
11.900	0.339	0.292	
11.905	-0.211	0.259	
11.910	-0.188	0.182	
11.915	0.209	0.093	
11.920	-0.161	0.036	
11.925	-0.326	-0.020	
11.930	0.013	-0.080	
11.935	-0.035	-0.110	
11.940	-0.324	-0.122	
11.945	-0.097	-0.142	
11.950	0.152	-0.142	
11.955	-0.187	-0.115	
11.960	-0.113	-0.096	
11.965	0.342	-0.072	
11.970	-0.054	-0.023	
11.975	-0.161	0.009	
11.980	0.347	0.021	
11.985	0.244	0.059	
11.990	-0.181	0.097	
11.995	0.159	0.100	
12.000	0.487	0.112	
12.005	-0.060	0.146	
12.010	0.042	0.155	
12.015	0.580	0.159	
12.020	0.128	0.193	
12.025	-0.119	0.207	
12.030	0.339	0.186	
12.035	0.227	0.178	
12.040	-0.187	0.169	
12.045	0.127	0.133	
12.050	0.398	0.112	
12.055	-0.153	0.116	
12.060	-0.107	0.096	
12.065	0.350	0.068	
12.070	-0.057	0.066	
12.075	-0.211	0.054	
12.080	0.256	0.028	
12.085	0.093	0.028	
12.090	-0.277	0.031	
12.095	-0.035	0.003	
12.100	0.235	-0.016	
12.105	-0.190	-0.011	
12.110	-0.092	-0.018	
12.115	0.342	-0.019	
12.120	-0.083	0.007	
12.125	-0.203	0.018	
12.130	0.307	0.011	
12.135	0.175	0.033	
12.140	-0.222	0.057	
12.145	0.091	0.051	
12.150	0.371	0.054	
12.155	-0.153	0.076	
12.160	-0.090	0.072	
12.165	0.359	0.058	
12.170	-0.109	0.064	
12.175	-0.295	0.048	
12.180	0.065	0.002	
12.185	-0.011	-0.029	
12.190	-0.342	-0.053	
12.195	-0.153	-0.094	
12.200	0.023	-0.126	
12.205	-0.336	-0.139	
12.210	-0.231	-0.160	
12.215	0.076	-0.174	
12.220	-0.208	-0.162	
12.225	-0.274	-0.155	
12.230	0.241	-0.146	
12.235	0.321	-0.091	
12.240	0.018	-0.005	
12.245	0.536	0.079	
12.250	0.829	0.194	
12.255	0.151	0.324	
12.260	0.137	0.386	
12.265	0.513	0.389	
12.270	-0.098	0.367	
12.275	-0.320	0.289	
12.280	-0.026	0.162	
12.285	-0.069	0.049	
12.290	-0.346	-0.039	
12.295	-0.092	-0.114	
12.300	0.087	-0.151	
12.305	-0.298	-0.151	
12.310	-0.211	-0.156	
12.315	0.194	-0.154	
12.320	-0.141	-0.123	
12.325	-0.252	-0.101	
12.330	0.162	-0.094	
12.335	0.004	-0.069	
12.340	-0.283	-0.050	
12.345	0.024	-0.056	
12.350	0.276	-0.046	
12.355	-0.187	-0.015	
12.360	-0.103	-0.006	
12.365	0.444	0.002	
12.370	0.050	0.044	
12.375	-0.107	0.077	
12.380	0.434	0.091	
12.385	0.275	0.129	
12.390	-0.167	0.162	
12.395	0.172	0.153	
12.400	0.423	0.148	
12.405	-0.130	0.160	
12.410	-0.072	0.140	
12.415	0.368	0.109	
12.420	-0.077	0.100	
12.425	-0.210	0.078	
12.430	0.255	0.041	
12.435	0.075	0.033	
12.440	-0.245	0.030	
12.445	0.044	0.006	
12.450	0.267	-0.002	
12.455	-0.203	0.012	
12.460	-0.115	0.005	
12.465	0.366	-0.003	
12.470	-0.075	0.019	
12.475	-0.245	0.025	
12.480	0.183	0.006	
12.485	0.107	0.006	
12.490	-0.216	0.013	
12.495	0.146	0.006	
12.500	0.382	0.023	
12.505	-0.142	0.062	
12.510	-0.048	0.072	
12.515	0.434	0.073	
12.520	-0.025	0.096	
12.525	-0.171	0.100	
12.530	0.259	0.078	
12.535	0.076	0.073	
12.540	-0.280	0.063	
12.545	-0.084	0.020	
12.550	0.061	-0.023	
12.555	-0.300	-0.051	
12.560	-0.231	-0.092	
12.565	0.154	-0.123	
12.570	-0.153	-0.119	
12.575	-0.254	-0.114	
12.580	0.146	-0.114	
12.585	-0.023	-0.092	
12.590	-0.318	-0.075	
12.595	0.013	-0.082	
12.600	0.333	-0.069	
12.605	-0.119	-0.024	
12.610	0.124	0.013	
12.615	0.808	0.072	
12.620	0.363	0.184	
12.625	0.042	0.279	
12.630	0.525	0.318	
12.635	0.197	0.339	
12.640	-0.266	0.316	
12.645	-0.049	0.229	
12.650	0.091	0.131	
12.655	-0.315	0.051	
12.660	-0.228	-0.034	
12.665	0.131	-0.098	
12.670	-0.182	-0.119	
12.675	-0.242	-0.129	
12.680	0.177	-0.133	
12.685	0.082	-0.101	
12.690	-0.262	-0.063	
12.695	-0.008	-0.054	
12.700	0.255	-0.040	
12.705	-0.179	-0.011	
12.710	-0.069	-0.003	
12.715	0.431	0.007	
12.720	-0.022	0.046	
12.725	-0.142	0.068	
12.730	0.348	0.068	
12.735	0.264	0.093	
12.740	-0.133	0.123	
12.745	0.273	0.127	
12.750	0.446	0.145	
12.755	-0.118	0.176	
12.760	0.029	0.169	
12.765	0.525	0.156	
12.770	0.041	0.173	
12.775	-0.100	0.172	
12.780	0.423	0.153	
12.785	0.177	0.157	
12.790	-0.220	0.156	
12.795	0.108	0.120	
12.800	0.305	0.094	
12.805	-0.194	0.088	
12.810	-0.115	0.059	
12.815	0.345	0.031	
12.820	-0.113	0.032	
12.825	-0.213	0.023	
12.830	0.206	-0.001	
12.835	0.046	-0.002	
12.840	-0.249	0.001	
12.845	0.039	-0.017	
12.850	0.214	-0.021	
12.855	-0.232	-0.008	
12.860	-0.084	-0.016	
12.865	0.427	-0.015	
12.870	0.015	0.024	
12.875	-0.113	0.055	
12.880	0.365	0.067	
12.885	0.134	0.095	
12.890	-0.236	0.110	
12.895	0.068	0.084	
12.900	0.284	0.065	
12.905	-0.203	0.063	
12.910	-0.153	0.038	
12.915	0.240	0.006	
12.920	-0.161	-0.003	
12.925	-0.271	-0.023	
12.930	0.093	-0.057	
12.935	-0.052	-0.069	
12.940	-0.327	-0.078	
12.945	-0.055	-0.103	
12.950	0.120	-0.111	
12.955	-0.304	-0.100	
12.960	-0.231	-0.109	
12.965	0.117	-0.124	
12.970	-0.158	-0.115	
12.975	-0.171	-0.106	
12.980	0.479	-0.084	
12.985	0.463	0.001	
12.990	0.033	0.108	
12.995	0.544	0.191	
13.000	0.608	0.276	
13.005	-0.106	0.343	
13.010	-0.051	0.329	
13.015	0.295	0.265	
13.020	-0.167	0.202	
13.025	-0.291	0.119	
13.030	0.052	0.023	
13.035	-0.098	-0.041	
13.040	-0.364	-0.088	
13.045	-0.101	-0.138	
13.050	0.072	-0.160	
13.055	-0.278	-0.152	
13.060	-0.148	-0.149	
13.065	0.308	-0.133	
13.070	-0.110	-0.084	
13.075	-0.205	-0.049	
13.080	0.267	-0.035	
13.085	0.137	-0.000	
13.090	-0.187	0.033	
13.095	0.240	0.044	
13.100	0.479	0.077	
13.105	-0.089	0.130	
13.110	0.041	0.148	
13.115	0.580	0.156	
13.120	0.058	0.189	
13.125	-0.083	0.199	
13.130	0.450	0.183	
13.135	0.249	0.190	
13.140	-0.148	0.196	
13.145	0.243	0.171	
13.150	0.409	0.162	
13.155	-0.150	0.170	
13.160	-0.026	0.146	
13.165	0.403	0.117	
13.170	-0.081	0.113	
13.175	-0.185	0.093	
13.180	0.263	0.057	
13.185	0.027	0.046	
13.190	-0.271	0.034	
13.195	0.012	-0.001	
13.200	0.201	-0.020	
13.205	-0.231	-0.018	
13.210	-0.122	-0.031	
13.215	0.319	-0.039	
13.220	-0.087	-0.016	
13.225	-0.165	-0.002	
13.230	0.292	-0.001	
13.235	0.130	0.025	
13.240	-0.177	0.050	
13.245	0.139	0.049	
13.250	0.278	0.057	
13.255	-0.217	0.073	
13.260	-0.109	0.055	
13.265	0.357	0.032	
13.270	-0.097	0.039	
13.275	-0.188	0.033	
13.280	0.221	0.013	
13.285	-0.023	0.011	
13.290	-0.298	0.003	
13.295	-0.051	-0.033	
13.300	0.084	-0.059	
13.305	-0.318	-0.070	
13.310	-0.193	-0.097	
13.315	0.203	-0.116	
13.320	-0.190	-0.102	
13.325	-0.275	-0.098	
13.330	0.055	-0.109	
13.335	-0.092	-0.106	
13.340	-0.313	-0.106	
13.345	0.078	-0.116	
13.350	0.408	-0.088	
13.355	-0.023	-0.018	
13.360	0.266	0.049	
13.365	0.782	0.132	
13.370	0.185	0.242	
13.375	-0.057	0.301	
13.380	0.397	0.297	
13.385	0.078	0.277	
13.390	-0.284	0.229	
13.395	-0.045	0.138	
13.400	0.067	0.054	
13.405	-0.306	-0.007	
13.410	-0.203	-0.071	
13.415	0.110	-0.117	
13.420	-0.243	-0.128	
13.425	-0.315	-0.142	
13.430	0.056	-0.160	
13.435	-0.063	-0.152	
13.440	-0.301	-0.137	
13.445	-0.025	-0.136	
13.450	0.099	-0.122	
13.455	-0.269	-0.097	
13.460	-0.115	-0.093	
13.465	0.336	-0.081	
13.470	-0.077	-0.038	
13.475	-0.122	-0.007	
13.480	0.426	0.014	
13.485	0.223	0.066	
13.490	-0.155	0.112	
13.495	0.296	0.124	
13.500	0.388	0.145	
13.505	-0.144	0.171	
13.510	-0.023	0.156	
13.515	0.427	0.131	
13.520	-0.022	0.132	
13.525	-0.106	0.121	
13.530	0.356	0.099	
13.535	0.114	0.103	
13.540	-0.223	0.102	
13.545	0.082	0.072	
13.550	0.221	0.051	
13.555	-0.232	0.045	
13.560	-0.112	0.017	
13.565	0.331	-0.005	
13.570	-0.155	0.003	
13.575	-0.249	-0.004	
13.580	0.169	-0.029	
13.585	-0.028	-0.033	
13.590	-0.278	-0.037	
13.595	0.020	-0.058	
13.600	0.224	-0.058	
13.605	-0.187	-0.035	
13.610	-0.051	-0.026	
13.615	0.368	-0.013	
13.620	-0.103	0.022	
13.625	-0.165	0.036	
13.630	0.336	0.031	
13.635	0.159	0.054	
13.640	-0.211	0.075	
13.645	0.065	0.063	
13.650	0.169	0.049	
13.655	-0.268	0.040	
13.660	-0.147	0.004	
13.665	0.188	-0.031	
13.670	-0.200	-0.042	
13.675	-0.246	-0.060	
13.680	0.146	-0.084	
13.685	-0.049	-0.080	
13.690	-0.310	-0.075	
13.695	-0.045	-0.092	
13.700	0.041	-0.100	
13.705	-0.323	-0.098	
13.710	-0.199	-0.117	
13.715	0.224	-0.127	
13.720	-0.081	-0.101	
13.725	0.010	-0.066	
13.730	0.808	-0.002	
13.735	0.615	0.133	
13.740	0.105	0.274	
13.745	0.490	0.353	
13.750	0.438	0.397	
13.755	-0.194	0.400	
13.760	-0.092	0.325	
13.765	0.168	0.219	
13.770	-0.240	0.126	
13.775	-0.286	0.030	
13.780	0.119	-0.055	
13.785	-0.078	-0.092	
13.790	-0.301	-0.109	
13.795	-0.040	-0.131	
13.800	0.104	-0.130	
13.805	-0.266	-0.110	
13.810	-0.104	-0.105	
13.815	0.316	-0.090	
13.820	-0.119	-0.047	
13.825	-0.115	-0.019	
13.830	0.518	0.006	
13.835	0.365	0.076	
13.840	-0.023	0.153	
13.845	0.507	0.201	
13.850	0.651	0.263	
13.855	0.026	0.330	
13.860	0.308	0.348	
13.865	0.735	0.357	
13.870	0.198	0.386	
13.875	0.110	0.387	
13.880	0.664	0.365	
13.885	0.377	0.371	
13.890	-0.046	0.369	
13.895	0.408	0.332	
13.900	0.458	0.309	
13.905	-0.118	0.296	
13.910	0.032	0.247	
13.915	0.437	0.195	
13.920	-0.057	0.172	
13.925	-0.115	0.139	
13.930	0.376	0.101	
13.935	0.065	0.096	
13.940	-0.205	0.090	
13.945	0.183	0.063	
13.950	0.267	0.058	
13.955	-0.210	0.068	
13.960	-0.057	0.051	
13.965	0.365	0.035	
13.970	-0.106	0.047	
13.975	-0.148	0.044	
13.980	0.402	0.035	
13.985	0.152	0.061	
13.990	-0.152	0.088	
13.995	0.253	0.090	
14.000	0.327	0.106	
14.005	-0.165	0.128	
14.010	-0.019	0.115	
14.015	0.301	0.091	
14.020	-0.197	0.081	
14.025	-0.258	0.044	
14.030	0.130	-0.009	
14.035	-0.100	-0.038	
14.040	-0.356	-0.065	
14.045	-0.084	-0.107	
14.050	0.000	-0.133	
14.055	-0.329	-0.140	
14.060	-0.179	-0.156	
14.065	0.140	-0.161	
14.070	-0.248	-0.140	
14.075	-0.318	-0.135	
14.080	0.012	-0.148	
14.085	-0.113	-0.146	
14.090	-0.234	-0.138	
14.095	0.429	-0.116	
14.100	0.800	-0.018	
14.105	0.368	0.144	
14.110	0.664	0.299	
14.115	0.893	0.439	
14.120	0.067	0.543	
14.125	-0.110	0.537	
14.130	0.255	0.439	
14.135	-0.109	0.323	
14.140	-0.368	0.192	
14.145	-0.116	0.047	
14.150	-0.055	-0.063	
14.155	-0.382	-0.134	
14.160	-0.251	-0.193	
14.165	0.004	-0.227	
14.170	-0.263	-0.225	
14.175	-0.263	-0.219	
14.180	0.177	-0.204	
14.185	-0.038	-0.156	
14.190	-0.274	-0.112	
14.195	0.059	-0.094	
14.200	0.203	-0.066	
14.205	-0.210	-0.028	
14.210	-0.002	-0.014	
14.215	0.463	0.007	
14.220	-0.055	0.056	
14.225	-0.080	0.082	
14.230	0.461	0.091	
14.235	0.221	0.128	
14.240	-0.095	0.160	
14.245	0.372	0.165	
14.250	0.424	0.186	
14.255	-0.129	0.213	
14.260	0.068	0.197	
14.265	0.476	0.176	
14.270	-0.072	0.177	
14.275	-0.121	0.154	
14.280	0.322	0.115	
14.285	-0.008	0.098	
14.290	-0.239	0.075	
14.295	0.101	0.032	
14.300	0.084	0.007	
14.305	-0.323	-0.009	
14.310	-0.156	-0.048	
14.315	0.212	-0.078	
14.320	-0.187	-0.075	
14.325	-0.214	-0.077	
14.330	0.253	-0.080	
14.335	-0.003	-0.054	
14.340	-0.254	-0.031	
14.345	0.085	-0.034	
14.350	0.142	-0.026	
14.355	-0.231	-0.011	
14.360	-0.011	-0.017	
14.365	0.418	-0.009	
14.370	-0.086	0.030	
14.375	-0.104	0.051	
14.380	0.374	0.055	
14.385	0.047	0.079	
14.390	-0.232	0.087	
14.395	0.094	0.060	
14.400	0.137	0.040	
14.405	-0.284	0.027	
14.410	-0.159	-0.012	
14.415	0.053	-0.054	
14.420	-0.297	-0.081	
14.425	-0.313	-0.119	
14.430	0.053	-0.155	
14.435	-0.119	-0.160	
14.440	-0.315	-0.156	
14.445	-0.051	-0.162	
14.450	-0.052	-0.157	
14.455	-0.365	-0.149	
14.460	-0.132	-0.160	
14.465	0.458	-0.144	
14.470	0.252	-0.062	
14.475	0.553	0.060	
14.480	1.222	0.228	
14.485	0.858	0.446	
14.490	0.252	0.618	
14.495	0.453	0.673	
14.500	0.293	0.642	
14.505	-0.263	0.545	
14.510	-0.153	0.378	
14.515	0.110	0.205	
14.520	-0.275	0.073	
14.525	-0.292	-0.040	
14.530	0.053	-0.125	
14.535	-0.142	-0.159	
14.540	-0.307	-0.171	
14.545	0.018	-0.180	
14.550	0.032	-0.162	
14.555	-0.310	-0.134	
14.560	-0.130	-0.128	
14.565	0.244	-0.117	
14.570	-0.162	-0.081	
14.575	-0.145	-0.059	
14.580	0.321	-0.043	
14.585	-0.006	-0.005	
14.590	-0.188	0.020	
14.595	0.235	0.022	
14.600	0.308	0.046	
14.605	-0.165	0.081	
14.610	0.059	0.085	
14.615	0.533	0.094	
14.620	0.053	0.135	
14.625	0.094	0.164	
14.630	0.673	0.191	
14.635	0.305	0.249	
14.640	-0.092	0.287	
14.645	0.302	0.272	
14.650	0.299	0.252	
14.655	-0.203	0.228	
14.660	-0.042	0.167	
14.665	0.311	0.107	
14.670	-0.150	0.078	
14.675	-0.147	0.043	
14.680	0.331	0.013	
14.685	0.020	0.020	
14.690	-0.202	0.028	
14.695	0.189	0.017	
14.700	0.198	0.026	
14.705	-0.229	0.042	
14.710	-0.029	0.029	
14.715	0.319	0.019	
14.720	-0.161	0.031	
14.725	-0.142	0.024	
14.730	0.293	0.010	
14.735	-0.017	0.020	
14.740	-0.188	0.025	
14.745	0.215	0.015	
14.750	0.211	0.028	
14.755	-0.220	0.048	
14.760	-0.026	0.037	
14.765	0.266	0.025	
14.770	-0.210	0.028	
14.775	-0.231	0.006	
14.780	0.163	-0.029	
14.785	-0.078	-0.040	
14.790	-0.303	-0.052	
14.795	0.013	-0.079	
14.800	0.082	-0.087	
14.805	-0.258	-0.078	
14.810	-0.072	-0.083	
14.815	0.209	-0.079	
14.820	-0.239	-0.057	
14.825	-0.223	-0.059	
14.830	0.263	-0.068	
14.835	0.042	-0.044	
14.840	-0.066	-0.012	
14.845	0.709	0.035	
14.850	0.817	0.152	
14.855	0.175	0.297	
14.860	0.408	0.387	
14.865	0.553	0.431	
14.870	-0.130	0.436	
14.875	-0.171	0.364	
14.880	0.128	0.246	
14.885	-0.158	0.139	
14.890	-0.335	0.036	
14.895	-0.034	-0.060	
14.900	-0.042	-0.117	
14.905	-0.355	-0.145	
14.910	-0.162	-0.175	
14.915	0.137	-0.182	
14.920	-0.202	-0.156	
14.925	-0.147	-0.133	
14.930	0.301	-0.107	
14.935	-0.034	-0.055	
14.940	-0.203	-0.017	
14.945	0.287	-0.003	
14.950	0.249	0.033	
14.955	-0.225	0.071	
14.960	0.021	0.068	
14.965	0.415	0.065	
14.970	-0.092	0.086	
14.975	-0.046	0.089	
14.980	0.499	0.089	
14.985	0.079	0.120	
14.990	-0.164	0.136	
14.995	0.316	0.122	
15.000	0.290	0.127	
15.005	-0.176	0.140	
15.010	0.084	0.121	
15.015	0.426	0.109	
15.020	-0.152	0.119	
15.025	-0.145	0.101	
15.030	0.299	0.067	
15.035	-0.054	0.056	
15.040	-0.236	0.038	
15.045	0.140	0.005	
15.050	0.110	-0.005	
15.055	-0.262	-0.005	
15.060	-0.045	-0.025	
15.065	0.191	-0.037	
15.070	-0.187	-0.030	
15.075	-0.136	-0.035	
15.080	0.423	-0.033	
15.085	0.107	0.012	
15.090	-0.188	0.052	
15.095	0.208	0.060	
15.100	0.240	0.074	
15.105	-0.200	0.090	
15.110	-0.008	0.073	
15.115	0.310	0.056	
15.120	-0.161	0.058	
15.125	-0.130	0.042	
15.130	0.353	0.023	
15.135	-0.054	0.033	
15.140	-0.272	0.031	
15.145	0.056	-0.001	
15.150	-0.029	-0.025	
15.155	-0.384	-0.050	
15.160	-0.208	-0.100	
15.165	0.023	-0.141	
15.170	-0.320	-0.158	
15.175	-0.281	-0.179	
15.180	0.163	-0.189	
15.185	-0.147	-0.164	
15.190	-0.336	-0.143	
15.195	-0.026	-0.145	
15.200	-0.031	-0.139	
15.205	-0.307	-0.128	
15.210	-0.023	-0.130	
15.215	0.460	-0.102	
15.220	0.072	-0.025	
15.225	0.232	0.056	
15.230	0.750	0.145	
15.235	0.208	0.251	
15.240	-0.161	0.304	
15.245	0.198	0.277	
15.250	0.096	0.228	
15.255	-0.326	0.165	
15.260	-0.130	0.072	
15.265	0.117	-0.009	
15.270	-0.278	-0.055	
15.275	-0.242	-0.099	
15.280	0.177	-0.129	
15.285	-0.148	-0.122	
15.290	-0.300	-0.115	
15.295	0.143	-0.119	
15.300	0.125	-0.093	
15.305	-0.275	-0.058	
15.310	-0.019	-0.051	
15.315	0.319	-0.037	
15.320	-0.147	-0.002	
15.325	-0.071	0.014	
15.330	0.452	0.026	
15.335	0.090	0.070	
15.340	-0.119	0.103	
15.345	0.411	0.112	
15.350	0.385	0.146	
15.355	-0.112	0.185	
15.360	0.238	0.188	
15.365	0.528	0.196	
15.370	-0.048	0.222	
15.375	-0.003	0.213	
15.380	0.498	0.190	
15.385	0.128	0.195	
15.390	-0.110	0.191	
15.395	0.353	0.166	
15.400	0.240	0.162	
15.405	-0.229	0.157	
15.410	-0.002	0.116	
15.415	0.304	0.078	
15.420	-0.174	0.064	
15.425	-0.127	0.038	
15.430	0.343	0.014	
15.435	-0.002	0.025	
15.440	-0.173	0.034	
15.445	0.256	0.028	
15.450	0.180	0.044	
15.455	-0.205	0.062	
15.460	0.101	0.054	
15.465	0.397	0.058	
15.470	-0.145	0.084	
15.475	-0.075	0.083	
15.480	0.444	0.074	
15.485	0.039	0.095	
15.490	-0.127	0.106	
15.495	0.343	0.098	
15.500	0.232	0.112	
15.505	-0.188	0.127	
15.510	0.050	0.107	
15.515	0.270	0.085	
15.520	-0.226	0.076	
15.525	-0.217	0.039	
15.530	0.169	-0.009	
15.535	-0.115	-0.031	
15.540	-0.260	-0.051	
15.545	0.081	-0.077	
15.550	-0.013	-0.080	
15.555	-0.310	-0.079	
15.560	-0.074	-0.097	
15.565	0.101	-0.104	
15.570	-0.300	-0.096	
15.575	-0.237	-0.109	
15.580	0.221	-0.120	
15.585	0.018	-0.093	
15.590	-0.005	-0.051	
15.595	0.765	0.015	
15.600	0.713	0.147	
15.605	0.088	0.291	
15.610	0.366	0.366	
15.615	0.493	0.396	
15.620	-0.147	0.393	
15.625	-0.129	0.322	
15.630	0.235	0.220	
15.635	-0.145	0.139	
15.640	-0.292	0.057	
15.645	0.059	-0.025	
15.650	-0.026	-0.070	
15.655	-0.321	-0.093	
15.660	-0.098	-0.123	
15.665	0.169	-0.131	
15.670	-0.258	-0.112	
15.675	-0.174	-0.106	
15.680	0.314	-0.097	
15.685	-0.051	-0.056	
15.690	-0.196	-0.025	
15.695	0.275	-0.012	
15.700	0.139	0.019	
15.705	-0.226	0.045	
15.710	0.058	0.038	
15.715	0.421	0.042	
15.720	-0.115	0.073	
15.725	-0.035	0.081	
15.730	0.460	0.083	
15.735	0.027	0.111	
15.740	-0.139	0.121	
15.745	0.363	0.109	
15.750	0.238	0.121	
15.755	-0.177	0.135	
15.760	0.125	0.118	
15.765	0.337	0.106	
15.770	-0.167	0.110	
15.775	-0.122	0.086	
15.780	0.301	0.053	
15.785	-0.072	0.046	
15.790	-0.225	0.031	
15.795	0.208	0.003	
15.800	0.099	0.002	
15.805	-0.271	0.008	
15.810	-0.075	-0.015	
15.815	0.151	-0.036	
15.820	-0.229	-0.040	
15.825	-0.144	-0.055	
15.830	0.343	-0.060	
15.835	-0.043	-0.029	
15.840	-0.176	-0.004	
15.845	0.295	0.004	
15.850	0.223	0.037	
15.855	-0.203	0.071	
15.860	0.079	0.070	
15.865	0.316	0.069	
15.870	-0.181	0.080	
15.875	-0.113	0.064	
15.880	0.328	0.040	
15.885	-0.081	0.042	
15.890	-0.200	0.034	
15.895	0.255	0.013	
15.900	0.059	0.018	
15.905	-0.333	0.018	
15.910	-0.087	-0.017	
15.915	0.122	-0.049	
15.920	-0.280	-0.061	
15.925	-0.226	-0.087	
15.930	0.148	-0.110	
15.935	-0.196	-0.107	
15.940	-0.321	-0.112	
15.945	0.033	-0.131	
15.950	-0.023	-0.129	
15.955	-0.271	-0.117	
15.960	0.146	-0.109	
15.965	0.583	-0.057	
15.970	0.116	0.045	
15.975	0.318	0.139	
15.980	0.838	0.233	
15.985	0.130	0.334	
15.990	-0.141	0.366	
15.995	0.206	0.317	
16.000	-0.023	0.246	
16.005	-0.332	0.157	
16.010	-0.106	0.048	
16.015	0.055	-0.037	
16.020	-0.312	-0.086	
16.025	-0.226	-0.131	
16.030	0.183	-0.156	
16.035	-0.155	-0.140	
16.040	-0.252	-0.124	
16.045	0.137	-0.117	
16.050	-0.005	-0.091	
16.055	-0.275	-0.069	
16.060	-0.009	-0.071	
16.065	0.217	-0.063	
16.070	-0.203	-0.037	
16.075	-0.064	-0.029	
16.080	0.460	-0.014	
16.085	0.075	0.039	
16.090	-0.089	0.082	
16.095	0.472	0.105	
16.100	0.347	0.152	
16.105	-0.126	0.195	
16.110	0.209	0.195	
16.115	0.440	0.192	
16.120	-0.124	0.200	
16.125	-0.019	0.175	
16.130	0.499	0.146	
16.135	0.023	0.151	
16.140	-0.118	0.145	
16.145	0.357	0.122	
16.150	0.195	0.125	
16.155	-0.210	0.128	
16.160	0.079	0.099	
16.165	0.263	0.077	
16.170	-0.226	0.069	
16.175	-0.139	0.037	
16.180	0.241	0.002	
16.185	-0.144	-0.006	
16.190	-0.236	-0.022	
16.195	0.208	-0.045	
16.200	0.035	-0.038	
16.205	-0.280	-0.027	
16.210	-0.028	-0.043	
16.215	0.177	-0.050	
16.220	-0.266	-0.041	
16.225	-0.161	-0.053	
16.230	0.195	-0.067	
16.235	-0.193	-0.060	
16.240	-0.295	-0.068	
16.245	0.104	-0.091	
16.250	-0.032	-0.091	
16.255	-0.329	-0.087	
16.260	-0.066	-0.104	
16.265	0.079	-0.111	
16.270	-0.318	-0.104	
16.275	-0.211	-0.117	
16.280	0.134	-0.130	
16.285	-0.223	-0.120	
16.290	-0.295	-0.121	
16.295	0.101	-0.132	
16.300	-0.037	-0.119	
16.305	-0.321	-0.104	
16.310	-0.110	-0.114	
16.315	-0.049	-0.125	
16.320	-0.387	-0.135	
16.325	-0.239	-0.164	
16.330	0.236	-0.177	
16.335	-0.006	-0.140	
16.340	0.018	-0.085	
16.345	0.727	-0.007	
16.350	0.550	0.126	
16.355	0.012	0.252	
16.360	0.366	0.312	
16.365	0.389	0.336	
16.370	-0.217	0.328	
16.375	-0.158	0.255	
16.380	0.124	0.153	
16.385	-0.213	0.069	
16.390	-0.277	-0.012	
16.395	0.127	-0.079	
16.400	-0.038	-0.100	
16.405	-0.286	-0.103	
16.410	0.024	-0.113	
16.415	0.246	-0.096	
16.420	-0.190	-0.055	
16.425	-0.052	-0.033	
16.430	0.402	-0.012	
16.435	-0.035	0.034	
16.440	-0.129	0.060	
16.445	0.379	0.065	
16.450	0.236	0.096	
16.455	-0.162	0.125	
16.460	0.267	0.125	
16.465	0.499	0.142	
16.470	-0.031	0.181	
16.475	0.162	0.194	
16.480	0.654	0.209	
16.485	0.149	0.252	
16.490	-0.003	0.271	
16.495	0.576	0.263	
16.500	0.351	0.280	
16.505	-0.104	0.291	
16.510	0.287	0.262	
16.515	0.434	0.241	
16.520	-0.142	0.233	
16.525	-0.054	0.191	
16.530	0.379	0.140	
16.535	-0.074	0.119	
16.540	-0.138	0.091	
16.545	0.388	0.062	
16.550	0.140	0.072	
16.555	-0.219	0.085	
16.560	0.090	0.066	
16.565	0.275	0.055	
16.570	-0.217	0.059	
16.575	-0.066	0.040	
16.580	0.376	0.024	
16.585	-0.063	0.041	
16.590	-0.168	0.045	
16.595	0.267	0.033	
16.600	0.127	0.043	
16.605	-0.197	0.056	
16.610	0.171	0.047	
16.615	0.321	0.055	
16.620	-0.156	0.079	
16.625	-0.032	0.076	
16.630	0.394	0.068	
16.635	-0.087	0.082	
16.640	-0.190	0.075	
16.645	0.160	0.044	
16.650	-0.066	0.024	
16.655	-0.327	-0.005	
16.660	-0.023	-0.052	
16.665	0.127	-0.077	
16.670	-0.278	-0.077	
16.675	-0.158	-0.090	
16.680	0.151	-0.101	
16.685	-0.205	-0.090	
16.690	-0.275	-0.093	
16.695	0.094	-0.107	
16.700	-0.084	-0.103	
16.705	-0.274	-0.098	
16.710	0.233	-0.095	
16.715	0.641	-0.038	
16.720	0.140	0.073	
16.725	0.368	0.174	
16.730	0.817	0.270	
16.735	0.154	0.366	
16.740	-0.086	0.394	
16.745	0.327	0.350	
16.750	-0.026	0.288	
16.755	-0.309	0.203	
16.760	-0.058	0.091	
16.765	-0.011	-0.001	
16.770	-0.332	-0.065	
16.775	-0.184	-0.124	
16.780	0.151	-0.155	
16.785	-0.185	-0.145	
16.790	-0.171	-0.132	
16.795	0.324	-0.110	
16.800	0.105	-0.052	
16.805	-0.182	0.002	
16.810	0.201	0.026	
16.815	0.292	0.056	
16.820	-0.145	0.090	
16.825	0.036	0.092	
16.830	0.443	0.093	
16.835	-0.003	0.119	
16.840	-0.058	0.127	
16.845	0.493	0.125	
16.850	0.282	0.156	
16.855	-0.078	0.188	
16.860	0.371	0.192	
16.865	0.481	0.211	
16.870	-0.080	0.240	
16.875	0.142	0.231	
16.880	0.576	0.220	
16.885	0.009	0.234	
16.890	-0.075	0.222	
16.895	0.418	0.187	
16.900	0.070	0.174	
16.905	-0.229	0.151	
16.910	0.088	0.098	
16.915	0.175	0.059	
16.920	-0.260	0.038	
16.925	-0.156	-0.003	
16.930	0.157	-0.042	
16.935	-0.202	-0.055	
16.940	-0.242	-0.074	
16.945	0.148	-0.094	
16.950	-0.052	-0.087	
16.955	-0.266	-0.078	
16.960	0.059	-0.083	
16.965	0.197	-0.068	
16.970	-0.226	-0.038	
16.975	-0.071	-0.031	
16.980	0.343	-0.023	
16.985	-0.098	0.009	
16.990	-0.139	0.024	
16.995	0.302	0.023	
17.000	0.044	0.042	
17.005	-0.234	0.051	
17.010	0.073	0.029	
17.015	0.108	0.014	
17.020	-0.329	0.003	
17.025	-0.200	-0.038	
17.030	0.101	-0.080	
17.035	-0.243	-0.097	
17.040	-0.280	-0.119	
17.045	0.076	-0.141	
17.050	-0.113	-0.137	
17.055	-0.332	-0.132	
17.060	-0.055	-0.143	
17.065	-0.023	-0.144	
17.070	-0.346	-0.139	
17.075	-0.142	-0.150	
17.080	0.438	-0.136	
17.085	0.307	-0.057	
17.090	0.527	0.066	
17.095	1.256	0.235	
17.100	0.973	0.459	
17.105	0.302	0.647	
17.110	0.542	0.717	
17.115	0.424	0.703	
17.120	-0.187	0.622	
17.125	-0.121	0.464	
17.130	0.116	0.286	
17.135	-0.246	0.140	
17.140	-0.268	0.012	
17.145	0.110	-0.084	
17.150	-0.084	-0.122	
17.155	-0.317	-0.135	
17.160	-0.016	-0.151	
17.165	0.101	-0.142	
17.170	-0.248	-0.114	
17.175	-0.089	-0.102	
17.180	0.267	-0.084	
17.185	-0.112	-0.045	
17.190	-0.097	-0.019	
17.195	0.481	0.005	
17.200	0.241	0.067	
17.205	-0.089	0.125	
17.210	0.380	0.151	
17.215	0.461	0.189	
17.220	-0.078	0.229	
17.225	0.175	0.228	
17.230	0.573	0.225	
17.235	-0.019	0.242	
17.240	-0.020	0.229	
17.245	0.528	0.202	
17.250	0.217	0.210	
17.255	-0.119	0.213	
17.260	0.295	0.188	
17.265	0.319	0.178	
17.270	-0.167	0.175	
17.275	-0.013	0.140	
17.280	0.362	0.105	
17.285	-0.152	0.094	
17.290	-0.188	0.065	
17.295	0.273	0.028	
17.300	-0.023	0.019	
17.305	-0.278	0.009	
17.310	0.010	-0.024	
17.315	0.075	-0.044	
17.320	-0.263	-0.051	
17.325	-0.084	-0.069	
17.330	0.275	-0.073	
17.335	-0.167	-0.047	
17.340	-0.142	-0.035	
17.345	0.371	-0.027	
17.350	0.090	0.014	
17.355	-0.182	0.049	
17.360	0.204	0.054	
17.365	0.244	0.068	
17.370	-0.193	0.085	
17.375	-0.026	0.070	
17.380	0.275	0.051	
17.385	-0.196	0.048	
17.390	-0.254	0.020	
17.395	0.068	-0.027	
17.400	-0.150	-0.057	
17.405	-0.379	-0.090	
17.410	-0.103	-0.136	
17.415	-0.040	-0.162	
17.420	-0.338	-0.169	
17.425	-0.162	-0.182	
17.430	0.038	-0.184	
17.435	-0.329	-0.170	
17.440	-0.347	-0.176	
17.445	0.055	-0.191	
17.450	-0.019	-0.175	
17.455	-0.104	-0.139	
17.460	0.744	-0.072	
17.465	1.003	0.085	
17.470	0.455	0.294	
17.475	0.640	0.460	
17.480	0.796	0.574	
17.485	-0.009	0.626	
17.490	-0.155	0.565	
17.495	0.137	0.423	
17.500	-0.158	0.273	
17.505	-0.375	0.123	
17.510	-0.109	-0.020	
17.515	-0.084	-0.118	
17.520	-0.391	-0.175	
17.525	-0.214	-0.221	
17.530	0.047	-0.238	
17.535	-0.252	-0.220	
17.540	-0.243	-0.203	
17.545	0.166	-0.183	
17.550	-0.042	-0.138	
17.555	-0.245	-0.097	
17.560	0.142	-0.077	
17.565	0.174	-0.044	
17.570	-0.207	-0.006	
17.575	-0.002	0.003	
17.580	0.429	0.017	
17.585	-0.042	0.058	
17.590	-0.061	0.081	
17.595	0.484	0.092	
17.600	0.227	0.133	
17.605	-0.095	0.167	
17.610	0.368	0.172	
17.615	0.434	0.192	
17.620	-0.118	0.218	
17.625	0.122	0.205	
17.630	0.463	0.188	
17.635	-0.089	0.190	
17.640	-0.110	0.163	
17.645	0.389	0.124	
17.650	-0.002	0.112	
17.655	-0.225	0.093	
17.660	0.165	0.054	
17.665	0.134	0.035	
17.670	-0.254	0.028	
17.675	-0.066	-0.001	
17.680	0.276	-0.020	
17.685	-0.177	-0.012	
17.690	-0.164	-0.016	
17.695	0.258	-0.027	
17.700	0.006	-0.011	
17.705	-0.196	0.002	
17.710	0.188	-0.001	
17.715	0.194	0.015	
17.720	-0.190	0.038	
17.725	0.067	0.037	
17.730	0.409	0.046	
17.735	-0.142	0.076	
17.740	-0.173	0.074	
17.745	0.295	0.051	
17.750	-0.011	0.049	
17.755	-0.239	0.040	
17.760	0.059	0.009	
17.765	0.009	-0.013	
17.770	-0.352	-0.034	
17.775	-0.196	-0.080	
17.780	0.003	-0.121	
17.785	-0.307	-0.142	
17.790	-0.272	-0.167	
17.795	0.088	-0.184	
17.800	-0.130	-0.168	
17.805	-0.323	-0.153	
17.810	-0.051	-0.155	
17.815	-0.043	-0.149	
17.820	-0.275	-0.137	
17.825	0.039	-0.132	
17.830	0.646	-0.084	
17.835	0.220	0.026	
17.840	0.304	0.140	
17.845	0.831	0.246	
17.850	0.273	0.357	
17.855	-0.173	0.401	
17.860	0.117	0.350	
17.865	0.035	0.265	
17.870	-0.326	0.168	
17.875	-0.133	0.055	
17.880	0.110	-0.033	
17.885	-0.254	-0.078	
17.890	-0.237	-0.115	
17.895	0.111	-0.141	
17.900	-0.100	-0.132	
17.905	-0.266	-0.120	
17.910	0.091	-0.117	
17.915	0.131	-0.092	
17.920	-0.239	-0.057	
17.925	-0.020	-0.046	
17.930	0.324	-0.030	
17.935	-0.127	0.006	
17.940	-0.089	0.022	
17.945	0.426	0.031	
17.950	0.154	0.072	
17.955	-0.089	0.109	
17.960	0.405	0.125	
17.965	0.382	0.160	
17.970	-0.118	0.196	
17.975	0.209	0.194	
17.980	0.550	0.197	
17.985	-0.020	0.221	
17.990	-0.013	0.215	
17.995	0.521	0.194	
18.000	0.149	0.203	
18.005	-0.121	0.202	
18.010	0.305	0.174	
18.015	0.204	0.160	
18.020	-0.216	0.147	
18.025	-0.043	0.101	
18.030	0.230	0.056	
18.035	-0.199	0.034	
18.040	-0.158	0.002	
18.045	0.255	-0.026	
18.050	-0.086	-0.023	
18.055	-0.255	-0.025	
18.060	0.142	-0.042	
18.065	0.185	-0.033	
18.070	-0.217	-0.009	
18.075	-0.040	-0.009	
18.080	0.223	-0.011	
18.085	-0.188	0.001	
18.090	-0.119	-0.007	
18.095	0.376	-0.011	
18.100	0.033	0.019	
18.105	-0.171	0.043	
18.110	0.282	0.046	
18.115	0.250	0.068	
18.120	-0.197	0.094	
18.125	0.003	0.082	
18.130	0.266	0.065	
18.135	-0.211	0.059	
18.140	-0.207	0.029	
18.145	0.181	-0.012	
18.150	-0.084	-0.026	
18.155	-0.303	-0.042	
18.160	0.023	-0.073	
18.165	0.018	-0.085	
18.170	-0.315	-0.088	
18.175	-0.150	-0.108	
18.180	0.093	-0.122	
18.185	-0.275	-0.117	
18.190	-0.220	-0.125	
18.195	0.305	-0.124	
18.200	0.166	-0.075	
18.205	0.065	-0.005	
18.210	0.710	0.077	
18.215	0.640	0.201	
18.220	-0.008	0.317	
18.225	0.189	0.352	
18.230	0.365	0.339	
18.235	-0.188	0.303	
18.240	-0.193	0.221	
18.245	0.143	0.119	
18.250	-0.164	0.044	
18.255	-0.327	-0.024	
18.260	-0.011	-0.092	
18.265	-0.087	-0.128	
18.270	-0.413	-0.150	
18.275	-0.211	-0.185	
18.280	0.036	-0.205	
18.285	-0.283	-0.196	
18.290	-0.231	-0.191	
18.295	0.174	-0.179	
18.300	-0.084	-0.139	
18.305	-0.213	-0.103	
18.310	0.232	-0.079	
18.315	0.192	-0.032	
18.320	-0.231	0.014	
18.325	0.023	0.023	
18.330	0.398	0.033	
18.335	-0.127	0.064	
18.340	-0.068	0.071	
18.345	0.469	0.071	
18.350	0.104	0.102	
18.355	-0.148	0.123	
18.360	0.327	0.117	
18.365	0.267	0.128	
18.370	-0.165	0.142	
18.375	0.120	0.125	
18.380	0.447	0.118	
18.385	-0.107	0.134	
18.390	-0.106	0.124	
18.395	0.347	0.097	
18.400	-0.066	0.090	
18.405	-0.216	0.070	
18.410	0.204	0.033	
18.415	0.079	0.022	
18.420	-0.306	0.015	
18.425	-0.090	-0.020	
18.430	0.188	-0.047	
18.435	-0.222	-0.049	
18.440	-0.161	-0.060	
18.445	0.319	-0.065	
18.450	-0.029	-0.034	
18.455	-0.181	-0.010	
18.460	0.281	-0.001	
18.465	0.253	0.033	
18.470	-0.184	0.072	
18.475	0.067	0.075	
18.480	0.388	0.079	
18.485	-0.158	0.097	
18.490	-0.118	0.087	
18.495	0.347	0.063	
18.500	-0.058	0.064	
18.505	-0.254	0.051	
18.510	0.041	0.011	
18.515	-0.009	-0.019	
18.520	-0.335	-0.044	
18.525	-0.135	-0.086	
18.530	0.119	-0.114	
18.535	-0.275	-0.114	
18.540	-0.199	-0.122	
18.545	0.163	-0.127	
18.550	-0.152	-0.107	
18.555	-0.304	-0.098	
18.560	0.070	-0.107	
18.565	0.078	-0.096	
18.570	-0.196	-0.072	
18.575	0.284	-0.048	
18.580	0.706	0.023	
18.585	0.122	0.137	
18.590	0.146	0.218	
18.595	0.521	0.261	
18.600	-0.009	0.288	
18.605	-0.228	0.261	
18.610	0.096	0.183	
18.615	-0.068	0.106	
18.620	-0.390	0.028	
18.625	-0.188	-0.063	
18.630	0.015	-0.130	
18.635	-0.318	-0.162	
18.640	-0.248	-0.187	
18.645	0.091	-0.199	
18.650	-0.182	-0.179	
18.655	-0.297	-0.163	
18.660	0.104	-0.155	
18.665	0.061	-0.125	
18.670	-0.248	-0.087	
18.675	0.041	-0.071	
18.680	0.342	-0.042	
18.685	-0.119	0.008	
18.690	-0.061	0.033	
18.695	0.427	0.048	
18.700	0.085	0.087	
18.705	-0.090	0.113	
18.710	0.453	0.122	
18.715	0.347	0.157	
18.720	-0.135	0.192	
18.725	0.177	0.186	
18.730	0.412	0.177	
18.735	-0.116	0.181	
18.740	-0.037	0.156	
18.745	0.431	0.126	
18.750	-0.029	0.125	
18.755	-0.197	0.109	
18.760	0.270	0.074	
18.765	0.194	0.068	
18.770	-0.182	0.074	
18.775	0.076	0.059	
18.780	0.301	0.054	
18.785	-0.196	0.063	
18.790	-0.133	0.046	
18.795	0.339	0.023	
18.800	-0.031	0.031	
18.805	-0.164	0.035	
18.810	0.208	0.023	
18.815	0.082	0.029	
18.820	-0.245	0.032	
18.825	0.036	0.010	
18.830	0.431	0.010	
18.835	-0.100	0.045	
18.840	-0.008	0.064	
18.845	0.508	0.080	
18.850	0.079	0.123	
18.855	-0.081	0.148	
18.860	0.389	0.148	
18.865	0.201	0.162	
18.870	-0.205	0.166	
18.875	0.018	0.128	
18.880	0.209	0.088	
18.885	-0.251	0.061	
18.890	-0.187	0.014	
18.895	0.194	-0.032	
18.900	-0.142	-0.045	
18.905	-0.265	-0.060	
18.910	0.122	-0.082	
18.915	0.027	-0.077	
18.920	-0.281	-0.065	
18.925	-0.049	-0.074	
18.930	0.149	-0.076	
18.935	-0.252	-0.063	
18.940	-0.113	-0.066	
18.945	0.530	-0.053	
18.950	0.336	0.022	
18.955	0.217	0.120	
18.960	0.829	0.220	
18.965	0.658	0.346	
18.970	-0.028	0.441	
18.975	0.197	0.444	
18.980	0.310	0.394	
18.985	-0.208	0.325	
18.990	-0.174	0.218	
18.995	0.177	0.108	
19.000	-0.161	0.035	
19.005	-0.295	-0.028	
19.010	0.073	-0.085	
19.015	-0.011	-0.105	
19.020	-0.300	-0.107	
19.025	-0.054	-0.118	
19.030	0.263	-0.109	
19.035	-0.200	-0.072	
19.040	-0.138	-0.053	
19.045	0.313	-0.042	
19.050	-0.023	-0.007	
19.055	-0.124	0.018	
19.060	0.369	0.032	
19.065	0.255	0.073	
19.070	-0.145	0.113	
19.075	0.275	0.123	
19.080	0.544	0.149	
19.085	-0.028	0.196	
19.090	0.114	0.211	
19.095	0.618	0.217	
19.100	0.097	0.247	
19.105	-0.074	0.250	
19.110	0.429	0.223	
19.115	0.250	0.216	
19.120	-0.152	0.209	
19.125	0.162	0.172	
19.130	0.368	0.147	
19.135	-0.171	0.141	
19.140	-0.104	0.108	
19.145	0.314	0.069	
19.150	-0.090	0.057	
19.155	-0.187	0.038	
19.160	0.252	0.012	
19.165	0.090	0.016	
19.170	-0.234	0.024	
19.175	-0.017	0.005	
19.180	0.104	-0.013	
19.185	-0.248	-0.022	
19.190	-0.127	-0.046	
19.195	0.319	-0.058	
19.200	-0.098	-0.034	
19.205	-0.205	-0.020	
19.210	0.290	-0.019	
19.215	0.198	0.011	
19.220	-0.193	0.047	
19.225	0.065	0.050	
19.230	0.296	0.053	
19.235	-0.193	0.066	
19.240	-0.104	0.052	
19.245	0.324	0.031	
19.250	-0.097	0.036	
19.255	-0.232	0.027	
19.260	0.110	-0.003	
19.265	-0.029	-0.019	
19.270	-0.297	-0.035	
19.275	-0.080	-0.069	
19.280	0.027	-0.092	
19.285	-0.318	-0.103	
19.290	-0.226	-0.128	
19.295	0.124	-0.146	
19.300	-0.203	-0.137	
19.305	-0.313	-0.134	
19.310	0.006	-0.146	
19.315	-0.066	-0.142	
19.320	-0.251	-0.131	
19.325	0.278	-0.115	
19.330	0.681	-0.040	
19.335	0.139	0.086	
19.340	0.307	0.190	
19.345	0.657	0.272	
19.350	0.017	0.337	
19.355	-0.176	0.331	
19.360	0.252	0.263	
19.365	0.004	0.196	
19.370	-0.318	0.125	
19.375	-0.098	0.033	
19.380	0.065	-0.039	
19.385	-0.284	-0.079	
19.390	-0.168	-0.115	
19.395	0.253	-0.128	
19.400	-0.113	-0.101	
19.405	-0.223	-0.078	
19.410	0.236	-0.067	
19.415	0.059	-0.035	
19.420	-0.262	-0.009	
19.425	0.062	-0.013	
19.430	0.334	-0.003	
19.435	-0.145	0.029	
19.440	-0.013	0.041	
19.445	0.522	0.056	
19.450	0.105	0.105	
19.455	-0.011	0.143	
19.460	0.567	0.165	
19.465	0.415	0.217	
19.470	-0.064	0.264	
19.475	0.325	0.266	
19.480	0.450	0.266	
19.485	-0.078	0.270	
19.490	0.081	0.239	
19.495	0.563	0.210	
19.500	0.075	0.216	
19.505	-0.066	0.209	
19.510	0.423	0.184	
19.515	0.165	0.181	
19.520	-0.222	0.171	
19.525	0.081	0.125	
19.530	0.233	0.087	
19.535	-0.217	0.068	
19.540	-0.133	0.031	
19.545	0.288	-0.003	
19.550	-0.158	-0.005	
19.555	-0.239	-0.018	
19.560	0.201	-0.041	
19.565	0.027	-0.036	
19.570	-0.252	-0.026	
19.575	0.072	-0.036	
19.580	0.241	-0.028	
19.585	-0.208	-0.003	
19.590	-0.063	-0.001	
19.595	0.447	0.005	
19.600	-0.048	0.044	
19.605	-0.147	0.064	
19.610	0.282	0.059	
19.615	0.104	0.070	
19.620	-0.240	0.074	
19.625	0.039	0.047	
19.630	0.183	0.026	
19.635	-0.268	0.017	
19.640	-0.197	-0.016	
19.645	0.149	-0.053	
19.650	-0.173	-0.064	
19.655	-0.243	-0.079	
19.660	0.101	-0.097	
19.665	-0.071	-0.093	
19.670	-0.327	-0.091	
19.675	-0.090	-0.111	
19.680	-0.031	-0.125	
19.685	-0.349	-0.132	
19.690	-0.187	-0.153	
19.695	0.302	-0.155	
19.700	0.062	-0.105	
19.705	0.154	-0.034	
19.710	0.903	0.066	
19.715	0.713	0.226	
19.720	0.044	0.373	
19.725	0.259	0.425	
19.730	0.368	0.415	
19.735	-0.196	0.371	
19.740	-0.145	0.272	
19.745	0.188	0.160	
19.750	-0.190	0.077	
19.755	-0.271	0.001	
19.760	0.117	-0.065	
19.765	-0.038	-0.089	
19.770	-0.272	-0.095	
19.775	-0.008	-0.108	
19.780	0.209	-0.098	
19.785	-0.226	-0.066	
19.790	-0.112	-0.055	
19.795	0.331	-0.045	
19.800	-0.057	-0.009	
19.805	-0.115	0.015	
19.810	0.386	0.029	
19.815	0.178	0.069	
19.820	-0.147	0.103	
19.825	0.293	0.109	
19.830	0.479	0.135	
19.835	-0.052	0.177	
19.840	0.186	0.192	
19.845	0.651	0.208	
19.850	0.116	0.252	
19.855	0.015	0.268	
19.860	0.579	0.260	
19.865	0.276	0.275	
19.870	-0.138	0.277	
19.875	0.203	0.237	
19.880	0.284	0.199	
19.885	-0.174	0.171	
19.890	-0.083	0.119	
19.895	0.290	0.069	
19.900	-0.126	0.049	
19.905	-0.226	0.021	
19.910	0.114	-0.018	
19.915	-0.054	-0.036	
19.920	-0.291	-0.051	
19.925	-0.022	-0.080	
19.930	0.085	-0.090	
19.935	-0.280	-0.085	
19.940	-0.153	-0.096	
19.945	0.261	-0.098	
19.950	-0.141	-0.071	
19.955	-0.177	-0.053	
19.960	0.273	-0.045	
19.965	0.061	-0.013	
19.970	-0.222	0.013	
19.975	0.124	0.012	
19.980	0.307	0.024	
19.985	-0.167	0.052	
19.990	-0.060	0.052	
19.995	0.318	0.044	
20.000	-0.118	0.053	
20.005	-0.200	0.042	
20.010	0.203	0.015	
20.015	-0.029	0.006	
20.020	-0.289	-0.006	
20.025	-0.038	-0.040	
20.030	0.036	-0.065	
20.035	-0.320	-0.078	
20.040	-0.182	-0.107	
20.045	0.154	-0.125	
20.050	-0.236	-0.116	
20.055	-0.309	-0.119	
20.060	-0.005	-0.139	
20.065	-0.113	-0.142	
20.070	-0.265	-0.141	
20.075	0.304	-0.130	
20.080	0.783	-0.048	
20.085	0.380	0.104	
20.090	0.670	0.262	
20.095	1.043	0.419	
20.100	0.243	0.557	
20.105	-0.057	0.590	
20.110	0.310	0.518	
20.115	-0.034	0.411	
20.120	-0.312	0.279	
20.125	-0.068	0.130	
20.130	-0.023	0.010	
20.135	-0.341	-0.071	
20.140	-0.217	-0.141	
20.145	0.042	-0.183	
20.150	-0.242	-0.187	
20.155	-0.272	-0.187	
20.160	0.172	-0.181	
20.165	-0.016	-0.142	
20.170	-0.231	-0.101	
20.175	0.139	-0.078	
20.180	0.233	-0.039	
20.185	-0.194	0.006	
20.190	-0.022	0.019	
20.195	0.421	0.030	
20.200	-0.042	0.066	
20.205	-0.069	0.084	
20.210	0.492	0.092	
20.215	0.279	0.134	
20.220	-0.126	0.172	
20.225	0.278	0.174	
20.230	0.432	0.182	
20.235	-0.064	0.202	
20.240	0.140	0.195	
20.245	0.528	0.190	
20.250	-0.035	0.206	
20.255	-0.101	0.192	
20.260	0.334	0.155	
20.265	0.084	0.138	
20.270	-0.234	0.116	
20.275	0.009	0.067	
20.280	0.068	0.023	
20.285	-0.287	-0.009	
20.290	-0.109	-0.051	
20.295	0.226	-0.076	
20.300	-0.177	-0.066	
20.305	-0.203	-0.064	
20.310	0.188	-0.070	
20.315	-0.008	-0.052	
20.320	-0.228	-0.037	
20.325	0.087	-0.039	
20.330	0.165	-0.028	
20.335	-0.242	-0.010	
20.340	-0.046	-0.016	
20.345	0.372	-0.014	
20.350	-0.115	0.017	
20.355	-0.171	0.027	
20.360	0.304	0.020	
20.365	0.076	0.037	
20.370	-0.174	0.051	
20.375	0.217	0.046	
20.380	0.327	0.062	
20.385	-0.177	0.091	
20.390	-0.055	0.084	
20.395	0.266	0.064	
20.400	-0.152	0.058	
20.405	-0.193	0.033	
20.410	0.206	-0.000	
20.415	-0.023	-0.008	
20.420	-0.268	-0.015	
20.425	-0.005	-0.042	
20.430	0.027	-0.059	
20.435	-0.341	-0.070	
20.440	-0.213	-0.102	
20.445	0.133	-0.129	
20.450	-0.132	-0.121	
20.455	0.133	-0.095	
20.460	1.101	-0.008	
20.465	0.950	0.188	
20.470	0.470	0.410	
20.475	0.826	0.569	
20.480	0.652	0.670	
20.485	-0.083	0.690	
20.490	-0.023	0.595	
20.495	0.230	0.442	
20.500	-0.214	0.296	
20.505	-0.286	0.147	
20.510	0.003	0.011	
20.515	-0.168	-0.079	
20.520	-0.352	-0.140	
20.525	-0.095	-0.189	
20.530	-0.031	-0.205	
20.535	-0.353	-0.198	
20.540	-0.179	-0.200	
20.545	0.160	-0.190	
20.550	-0.181	-0.152	
20.555	-0.193	-0.123	
20.560	0.311	-0.098	
20.565	0.064	-0.045	
20.570	-0.185	0.001	
20.575	0.255	0.021	
20.580	0.411	0.061	
20.585	-0.071	0.116	
20.590	0.171	0.142	
20.595	0.545	0.166	
20.600	0.030	0.207	
20.605	0.024	0.218	
20.610	0.554	0.212	
20.615	0.226	0.233	
20.620	-0.113	0.241	
20.625	0.295	0.215	
20.630	0.310	0.198	
20.635	-0.179	0.187	
20.640	-0.025	0.144	
20.645	0.293	0.099	
20.650	-0.156	0.078	
20.655	-0.184	0.043	
20.660	0.266	0.006	
20.665	-0.013	0.003	
20.670	-0.255	-0.000	
20.675	0.026	-0.025	
20.680	0.081	-0.038	
20.685	-0.294	-0.042	
20.690	-0.098	-0.065	
20.695	0.302	-0.072	
20.700	-0.155	-0.046	
20.705	-0.193	-0.034	
20.710	0.204	-0.038	
20.715	0.017	-0.022	
20.720	-0.194	-0.008	
20.725	0.209	-0.007	
20.730	0.269	0.017	
20.735	-0.179	0.052	
20.740	0.023	0.057	
20.745	0.423	0.062	
20.750	-0.103	0.088	
20.755	-0.132	0.089	
20.760	0.308	0.070	
20.765	-0.037	0.069	
20.770	-0.284	0.053	
20.775	-0.002	0.007	
20.780	0.009	-0.029	
20.785	-0.330	-0.056	
20.790	-0.173	-0.097	
20.795	0.120	-0.125	
20.800	-0.225	-0.123	
20.805	-0.251	-0.126	
20.810	0.058	-0.135	
20.815	-0.142	-0.127	
20.820	-0.330	-0.126	
20.825	0.041	-0.137	
20.830	0.278	-0.116	
20.835	-0.016	-0.057	
20.840	0.501	0.017	
20.845	1.022	0.142	
20.850	0.374	0.313	
20.855	0.065	0.423	
20.860	0.479	0.445	
20.865	0.021	0.422	
20.870	-0.272	0.344	
20.875	-0.022	0.217	
20.880	0.017	0.101	
20.885	-0.323	0.011	
20.890	-0.181	-0.073	
20.895	0.102	-0.127	
20.900	-0.232	-0.140	
20.905	-0.226	-0.148	
20.910	0.181	-0.148	
20.915	-0.071	-0.117	
20.920	-0.268	-0.091	
20.925	0.096	-0.085	
20.930	0.178	-0.062	
20.935	-0.219	-0.028	
20.940	-0.017	-0.019	
20.945	0.383	-0.005	
20.950	-0.098	0.033	
20.955	-0.071	0.051	
20.960	0.481	0.061	
20.965	0.211	0.106	
20.970	-0.086	0.146	
20.975	0.359	0.157	
20.980	0.412	0.182	
20.985	-0.112	0.210	
20.990	0.097	0.198	
20.995	0.496	0.182	
21.000	-0.035	0.190	
21.005	-0.089	0.174	
21.010	0.388	0.142	
21.015	0.059	0.135	
21.020	-0.194	0.120	
21.025	0.162	0.084	
21.030	0.172	0.064	
21.035	-0.249	0.054	
21.040	-0.087	0.020	
21.045	0.195	-0.010	
21.050	-0.222	-0.020	
21.055	-0.216	-0.042	
21.060	0.250	-0.064	
21.065	-0.066	-0.053	
21.070	-0.283	-0.045	
21.075	0.062	-0.059	
21.080	0.117	-0.057	
21.085	-0.239	-0.043	
21.090	-0.072	-0.048	
21.095	0.318	-0.045	
21.100	-0.081	-0.012	
21.105	-0.087	0.009	
21.110	0.394	0.024	
21.115	0.072	0.063	
21.120	-0.213	0.085	
21.125	0.142	0.071	
21.130	0.171	0.062	
21.135	-0.242	0.057	
21.140	-0.087	0.026	
21.145	0.171	-0.006	
21.150	-0.236	-0.019	
21.155	-0.260	-0.048	
21.160	0.093	-0.084	
21.165	-0.135	-0.096	
21.170	-0.335	-0.108	
21.175	-0.051	-0.133	
21.180	-0.017	-0.142	
21.185	-0.344	-0.140	
21.190	-0.177	-0.154	
21.195	0.053	-0.162	
21.200	-0.263	-0.152	
21.205	-0.223	-0.151	
21.210	0.359	-0.139	
21.215	0.287	-0.071	
21.220	0.088	0.022	
21.225	0.615	0.114	
21.230	0.559	0.225	
21.235	-0.104	0.313	
21.240	-0.013	0.314	
21.245	0.214	0.261	
21.250	-0.252	0.194	
21.255	-0.249	0.100	
21.260	0.104	0.006	
21.265	-0.158	-0.051	
21.270	-0.339	-0.095	
21.275	-0.029	-0.139	
21.280	0.038	-0.152	
21.285	-0.320	-0.142	
21.290	-0.142	-0.146	
21.295	0.047	-0.146	
21.300	-0.294	-0.135	
21.305	-0.254	-0.142	
21.310	0.154	-0.148	
21.315	-0.055	-0.124	
21.320	-0.234	-0.098	
21.325	0.197	-0.083	
21.330	0.267	-0.040	
21.335	-0.158	0.015	
21.340	0.111	0.042	
21.345	0.534	0.075	
21.350	-0.002	0.132	
21.355	-0.008	0.160	
21.360	0.524	0.167	
21.365	0.198	0.197	
21.370	-0.089	0.214	
21.375	0.351	0.200	
21.380	0.203	0.194	
21.385	-0.251	0.178	
21.390	-0.031	0.123	
21.395	0.339	0.074	
21.400	-0.158	0.059	
21.405	-0.158	0.034	
21.410	0.275	0.007	
21.415	-0.045	0.008	
21.420	-0.226	0.005	
21.425	0.145	-0.013	
21.430	0.143	-0.010	
21.435	-0.257	0.001	
21.440	-0.077	-0.014	
21.445	0.235	-0.027	
21.450	-0.196	-0.019	
21.455	-0.188	-0.028	
21.460	0.301	-0.040	
21.465	-0.054	-0.021	
21.470	-0.229	-0.010	
21.475	0.189	-0.018	
21.480	0.181	-0.003	
21.485	-0.220	0.020	
21.490	-0.009	0.015	
21.495	0.334	0.015	
21.500	-0.118	0.037	
21.505	-0.086	0.041	
21.510	0.368	0.039	
21.515	0.024	0.062	
21.520	-0.208	0.072	
21.525	0.075	0.049	
21.530	0.030	0.027	
21.535	-0.300	0.004	
21.540	-0.107	-0.040	
21.545	0.156	-0.070	
21.550	-0.243	-0.074	
21.555	-0.220	-0.088	
21.560	0.151	-0.103	
21.565	-0.122	-0.093	
21.570	-0.323	-0.090	
21.575	-0.002	-0.108	
21.580	-0.023	-0.113	
21.585	-0.298	-0.110	
21.590	0.084	-0.113	
21.595	0.683	-0.069	
21.600	0.290	0.046	
21.605	0.324	0.167	
21.610	0.770	0.275	
21.615	0.281	0.376	
21.620	-0.129	0.412	
21.625	0.229	0.365	
21.630	0.122	0.295	
21.635	-0.301	0.215	
21.640	-0.167	0.105	
21.645	0.072	0.006	
21.650	-0.269	-0.057	
21.655	-0.236	-0.110	
21.660	0.201	-0.141	
21.665	-0.058	-0.125	
21.670	-0.225	-0.100	
21.675	0.136	-0.087	
21.680	0.140	-0.056	
21.685	-0.239	-0.022	
21.690	-0.008	-0.017	
21.695	0.284	-0.010	
21.700	-0.168	0.013	
21.705	-0.155	0.013	
21.710	0.400	0.006	
21.715	0.110	0.037	
21.720	-0.106	0.069	
21.725	0.369	0.084	
21.730	0.354	0.122	
21.735	-0.132	0.161	
21.740	0.172	0.163	
21.745	0.524	0.168	
21.750	-0.006	0.195	
21.755	0.030	0.198	
21.760	0.577	0.191	
21.765	0.139	0.214	
21.770	-0.138	0.219	
21.775	0.334	0.190	
21.780	0.296	0.179	
21.785	-0.177	0.175	
21.790	0.020	0.139	
21.795	0.240	0.100	
21.800	-0.229	0.075	
21.805	-0.213	0.029	
21.810	0.217	-0.019	
21.815	-0.064	-0.032	
21.820	-0.243	-0.040	
21.825	0.091	-0.057	
21.830	0.081	-0.055	
21.835	-0.252	-0.043	
21.840	-0.003	-0.049	
21.845	0.325	-0.040	
21.850	-0.141	-0.005	
21.855	-0.089	0.011	
21.860	0.417	0.022	
21.865	0.082	0.061	
21.870	-0.121	0.090	
21.875	0.264	0.093	
21.880	0.180	0.104	
21.885	-0.222	0.109	
21.890	0.032	0.081	
21.895	0.356	0.061	
21.900	-0.173	0.066	
21.905	-0.214	0.047	
21.910	0.082	0.005	
21.915	-0.124	-0.024	
21.920	-0.287	-0.055	
21.925	0.041	-0.091	
21.930	0.029	-0.100	
21.935	-0.281	-0.094	
21.940	-0.092	-0.103	
21.945	0.162	-0.102	
21.950	-0.266	-0.085	
21.955	-0.265	-0.090	
21.960	0.081	-0.109	
21.965	-0.122	-0.108	
21.970	-0.251	-0.107	
21.975	0.319	-0.101	
21.980	0.504	-0.038	
21.985	0.125	0.067	
21.990	0.475	0.163	
21.995	0.719	0.263	
22.000	-0.014	0.351	
22.005	-0.060	0.359	
22.010	0.339	0.306	
22.015	-0.064	0.249	
22.020	-0.280	0.172	
22.025	-0.032	0.072	
22.030	-0.078	-0.010	
22.035	-0.401	-0.076	
22.040	-0.181	-0.143	
22.045	0.050	-0.182	
22.050	-0.248	-0.183	
22.055	-0.190	-0.179	
22.060	0.253	-0.161	
22.065	-0.022	-0.109	
22.070	-0.176	-0.062	
22.075	0.250	-0.033	
22.080	0.232	0.013	
22.085	-0.184	0.058	
22.090	0.073	0.066	
22.095	0.376	0.074	
22.100	-0.106	0.097	
22.105	-0.054	0.096	
22.110	0.469	0.089	
22.115	0.143	0.117	
22.120	-0.100	0.139	
22.125	0.385	0.140	
22.130	0.377	0.162	
22.135	-0.097	0.192	
22.140	0.223	0.190	
22.145	0.501	0.193	
22.150	-0.083	0.211	
22.155	-0.064	0.194	
22.160	0.424	0.160	
22.165	0.041	0.151	
22.170	-0.187	0.134	
22.175	0.235	0.096	
22.180	0.149	0.080	
22.185	-0.252	0.070	
22.190	-0.081	0.032	
22.195	0.177	-0.003	
22.200	-0.236	-0.019	
22.205	-0.177	-0.044	
22.210	0.208	-0.066	
22.215	-0.098	-0.059	
22.220	-0.240	-0.055	
22.225	0.178	-0.061	
22.230	0.165	-0.040	
22.235	-0.207	-0.008	
22.240	0.010	-0.002	
22.245	0.347	0.009	
22.250	-0.135	0.039	
22.255	-0.078	0.046	
22.260	0.369	0.045	
22.265	-0.031	0.065	
22.270	-0.234	0.066	
22.275	0.146	0.039	
22.280	0.124	0.026	
22.285	-0.301	0.019	
22.290	-0.113	-0.015	
22.295	0.160	-0.046	
22.300	-0.249	-0.055	
22.305	-0.228	-0.075	
22.310	0.139	-0.097	
22.315	-0.142	-0.095	
22.320	-0.298	-0.096	
22.325	0.056	-0.111	
22.330	0.012	-0.106	
22.335	-0.317	-0.094	
22.340	-0.119	-0.106	
22.345	0.131	-0.111	
22.350	-0.243	-0.098	
22.355	-0.132	-0.096	
22.360	0.596	-0.073	
22.365	0.498	0.023	
22.370	0.342	0.156	
22.375	0.851	0.286	
22.380	0.626	0.420	
22.385	-0.058	0.503	
22.390	0.116	0.480	
22.395	0.293	0.401	
22.400	-0.237	0.310	
22.405	-0.225	0.189	
22.410	0.125	0.069	
22.415	-0.164	-0.009	
22.420	-0.284	-0.068	
22.425	0.102	-0.114	
22.430	0.039	-0.117	
22.435	-0.295	-0.103	
22.440	-0.046	-0.104	
22.445	0.241	-0.092	
22.450	-0.162	-0.057	
22.455	-0.072	-0.036	
22.460	0.415	-0.014	
22.465	0.053	0.037	
22.470	-0.138	0.073	
22.475	0.359	0.083	
22.480	0.313	0.114	
22.485	-0.156	0.147	
22.490	0.183	0.144	
22.495	0.536	0.151	
22.500	-0.017	0.183	
22.505	0.097	0.193	
22.510	0.658	0.201	
22.515	0.272	0.245	
22.520	-0.020	0.276	
22.525	0.473	0.273	
22.530	0.366	0.281	
22.535	-0.118	0.283	
22.540	0.096	0.242	
22.545	0.359	0.198	
22.550	-0.174	0.169	
22.555	-0.145	0.117	
22.560	0.272	0.061	
22.565	-0.084	0.037	
22.570	-0.237	0.012	
22.575	0.148	-0.022	
22.580	0.114	-0.026	
22.585	-0.248	-0.017	
22.590	-0.042	-0.030	
22.595	0.249	-0.034	
22.600	-0.196	-0.018	
22.605	-0.121	-0.019	
22.610	0.354	-0.020	
22.615	-0.025	0.010	
22.620	-0.168	0.028	
22.625	0.302	0.030	
22.630	0.185	0.053	
22.635	-0.207	0.077	
22.640	0.062	0.066	
22.645	0.307	0.059	
22.650	-0.162	0.069	
22.655	-0.115	0.054	
22.660	0.304	0.033	
22.665	-0.066	0.037	
22.670	-0.245	0.028	
22.675	0.065	-0.004	
22.680	-0.028	-0.026	
22.685	-0.352	-0.047	
22.690	-0.148	-0.090	
22.695	-0.038	-0.126	
22.700	-0.384	-0.148	
22.705	-0.292	-0.183	
22.710	0.064	-0.208	
22.715	-0.196	-0.198	
22.720	-0.344	-0.188	
22.725	-0.054	-0.192	
22.730	-0.023	-0.180	
22.735	-0.207	-0.155	
22.740	0.402	-0.116	
22.745	1.032	-0.000	
22.750	0.574	0.197	
22.755	0.695	0.390	
22.760	1.095	0.555	
22.765	0.369	0.683	
22.770	-0.063	0.702	
22.775	0.229	0.603	
22.780	0.001	0.462	
22.785	-0.344	0.302	
22.790	-0.161	0.128	
22.795	0.001	-0.011	
22.800	-0.307	-0.099	
22.805	-0.229	-0.163	
22.810	0.110	-0.195	
22.815	-0.150	-0.182	
22.820	-0.254	-0.162	
22.825	0.139	-0.147	
22.830	0.111	-0.106	
22.835	-0.242	-0.061	
22.840	0.013	-0.044	
22.845	0.301	-0.023	
22.850	-0.159	0.012	
22.855	-0.069	0.023	
22.860	0.435	0.031	
22.865	0.082	0.070	
22.870	-0.063	0.101	
22.875	0.495	0.118	
22.880	0.444	0.168	
22.885	-0.037	0.224	
22.890	0.321	0.242	
22.895	0.594	0.261	
22.900	0.013	0.293	
22.905	0.101	0.288	
22.910	0.554	0.267	
22.915	0.122	0.270	
22.920	-0.078	0.254	
22.925	0.379	0.215	
22.930	0.180	0.196	
22.935	-0.220	0.175	
22.940	0.000	0.120	
22.945	0.208	0.070	
22.950	-0.207	0.042	
22.955	-0.150	0.004	
22.960	0.229	-0.028	
22.965	-0.083	-0.028	
22.970	-0.236	-0.031	
22.975	0.131	-0.046	
22.980	0.047	-0.042	
22.985	-0.260	-0.034	
22.990	-0.025	-0.046	
22.995	0.168	-0.050	
23.000	-0.234	-0.040	
23.005	-0.116	-0.046	
23.010	0.325	-0.048	
23.015	-0.046	-0.017	
23.020	-0.176	0.004	
23.025	0.259	0.007	
23.030	0.151	0.030	
23.035	-0.197	0.053	
23.040	0.023	0.044	
23.045	0.259	0.036	
23.050	-0.194	0.042	
23.055	-0.213	0.021	
23.060	0.029	-0.020	
23.065	-0.213	-0.054	
23.070	-0.362	-0.095	
23.075	-0.078	-0.145	
23.080	-0.133	-0.173	
23.085	-0.384	-0.188	
23.090	-0.184	-0.211	
23.095	-0.029	-0.219	
23.100	-0.332	-0.209	
23.105	-0.269	-0.210	
23.110	0.079	-0.208	
23.115	-0.103	-0.179	
23.120	-0.087	-0.141	
23.125	0.747	-0.075	
23.130	0.900	0.078	
23.135	0.438	0.276	
23.140	0.754	0.440	
23.145	0.794	0.565	
23.150	-0.051	0.629	
23.155	-0.098	0.571	
23.160	0.137	0.432	
23.165	-0.200	0.283	
23.170	-0.342	0.130	
23.175	-0.049	-0.013	
23.180	-0.122	-0.107	
23.185	-0.371	-0.164	
23.190	-0.129	-0.207	
23.195	0.062	-0.217	
23.200	-0.280	-0.195	
23.205	-0.162	-0.178	
23.210	0.250	-0.153	
23.215	-0.098	-0.102	
23.220	-0.194	-0.064	
23.225	0.302	-0.042	
23.230	0.217	0.005	
23.235	-0.174	0.053	
23.240	0.165	0.069	
23.245	0.438	0.091	
23.250	-0.113	0.128	
23.255	-0.017	0.132	
23.260	0.534	0.127	
23.265	0.192	0.159	
23.270	0.007	0.188	
23.275	0.583	0.204	
23.280	0.441	0.249	
23.285	-0.066	0.289	
23.290	0.279	0.283	
23.295	0.504	0.274	
23.300	-0.061	0.275	
23.305	0.018	0.244	
23.310	0.457	0.203	
23.315	0.017	0.189	
23.320	-0.207	0.161	
23.325	0.072	0.102	
23.330	-0.016	0.051	
23.335	-0.309	0.004	
23.340	-0.074	-0.053	
23.345	0.107	-0.087	
23.350	-0.268	-0.094	
23.355	-0.187	-0.108	
23.360	0.201	-0.115	
23.365	-0.097	-0.092	
23.370	-0.203	-0.073	
23.375	0.218	-0.063	
23.380	0.091	-0.032	
23.385	-0.242	-0.003	
23.390	0.085	-0.002	
23.395	0.354	0.011	
23.400	-0.162	0.045	
23.405	-0.121	0.049	
23.410	0.311	0.038	
23.415	-0.052	0.046	
23.420	-0.197	0.042	
23.425	0.226	0.022	
23.430	0.088	0.024	
23.435	-0.268	0.027	
23.440	-0.081	-0.001	
23.445	0.107	-0.030	
23.450	-0.277	-0.045	
23.455	-0.200	-0.074	
23.460	0.181	-0.097	
23.465	-0.150	-0.090	
23.470	-0.266	-0.088	
23.475	0.081	-0.098	
23.480	-0.074	-0.094	
23.485	-0.379	-0.094	
23.490	-0.162	-0.123	
23.495	0.072	-0.144	
23.500	-0.203	-0.138	
23.505	0.006	-0.125	
23.510	0.770	-0.068	
23.515	0.435	0.063	
23.520	0.145	0.199	
23.525	0.568	0.288	
23.530	0.212	0.348	
23.535	-0.266	0.347	
23.540	-0.057	0.265	
23.545	0.110	0.163	
23.550	-0.287	0.077	
23.555	-0.239	-0.012	
23.560	0.102	-0.084	
23.565	-0.162	-0.113	
23.570	-0.277	-0.129	
23.575	0.064	-0.144	
23.580	-0.032	-0.133	
23.585	-0.269	-0.115	
23.590	0.006	-0.111	
23.595	0.203	-0.091	
23.600	-0.207	-0.055	
23.605	-0.109	-0.042	
23.610	0.348	-0.031	
23.615	-0.078	0.003	
23.620	-0.177	0.020	
23.625	0.319	0.020	
23.630	0.244	0.048	
23.635	-0.158	0.083	
23.640	0.168	0.090	
23.645	0.426	0.104	
23.650	-0.092	0.135	
23.655	0.044	0.138	
23.660	0.553	0.140	
23.665	0.108	0.173	
23.670	-0.081	0.189	
23.675	0.394	0.177	
23.680	0.252	0.183	
23.685	-0.194	0.185	
23.690	0.038	0.147	
23.695	0.227	0.106	
23.700	-0.210	0.080	
23.705	-0.138	0.037	
23.710	0.259	-0.002	
23.715	-0.112	-0.008	
23.720	-0.252	-0.019	
23.725	0.114	-0.045	
23.730	0.020	-0.049	
23.735	-0.263	-0.047	
23.740	-0.055	-0.064	
23.745	0.113	-0.072	
23.750	-0.252	-0.066	
23.755	-0.129	-0.076	
23.760	0.296	-0.076	
23.765	-0.092	-0.045	
23.770	-0.184	-0.025	
23.775	0.230	-0.021	
23.780	0.076	0.001	
23.785	-0.226	0.019	
23.790	0.041	0.009	
23.795	0.198	0.005	
23.800	-0.237	0.011	
23.805	-0.132	-0.007	
23.810	0.236	-0.026	
23.815	-0.177	-0.024	
23.820	-0.329	-0.039	
23.825	-0.045	-0.079	
23.830	-0.115	-0.109	
23.835	-0.365	-0.133	
23.840	-0.144	-0.166	
23.845	0.050	-0.180	
23.850	-0.269	-0.167	
23.855	-0.171	-0.161	
23.860	0.217	-0.146	
23.865	-0.185	-0.109	
23.870	-0.289	-0.090	
23.875	0.096	-0.096	
23.880	0.111	-0.080	
23.885	-0.142	-0.049	
23.890	0.365	-0.016	
23.895	0.709	0.063	
23.900	0.059	0.175	
23.905	0.157	0.243	
23.910	0.458	0.270	
23.915	-0.071	0.280	
23.920	-0.223	0.237	
23.925	0.065	0.152	
23.930	-0.090	0.073	
23.935	-0.364	-0.001	
23.940	-0.136	-0.081	
23.945	-0.009	-0.136	
23.950	-0.310	-0.159	
23.955	-0.222	-0.180	
23.960	0.166	-0.185	
23.965	-0.147	-0.154	
23.970	-0.236	-0.128	
23.975	0.181	-0.111	
23.980	0.050	-0.074	
23.985	-0.240	-0.041	
23.990	0.030	-0.035	
23.995	0.246	-0.023	
24.000	-0.177	0.003	
24.005	-0.055	0.008	
24.010	0.414	0.015	
24.015	0.009	0.051	
24.020	-0.103	0.075	
24.025	0.424	0.083	
24.030	0.339	0.122	
24.035	-0.107	0.165	
24.040	0.249	0.172	
24.045	0.470	0.184	
24.050	-0.083	0.207	
24.055	0.010	0.194	
24.060	0.455	0.171	
24.065	0.047	0.172	
24.070	-0.126	0.161	
24.075	0.304	0.130	
24.080	0.159	0.120	
24.085	-0.211	0.112	
24.090	0.036	0.077	
24.095	0.217	0.049	
24.100	-0.223	0.038	
24.105	-0.122	0.009	
24.110	0.295	-0.015	
24.115	-0.106	-0.007	
24.120	-0.182	-0.007	
24.125	0.255	-0.015	
24.130	0.079	0.002	
24.135	-0.211	0.020	
24.140	0.111	0.014	
24.145	0.340	0.025	
24.150	-0.144	0.055	
24.155	0.015	0.063	
24.160	0.414	0.069	
24.165	-0.043	0.096	
24.170	-0.112	0.102	
24.175	0.357	0.090	
24.180	0.192	0.104	
24.185	-0.181	0.118	
24.190	0.085	0.099	
24.195	0.288	0.084	
24.200	-0.182	0.084	
24.205	-0.112	0.059	
24.210	0.244	0.029	
24.215	-0.155	0.019	
24.220	-0.248	-0.004	
24.225	0.186	-0.036	
24.230	-0.003	-0.039	
24.235	-0.315	-0.040	
24.240	-0.066	-0.065	
24.245	-0.002	-0.086	
24.250	-0.359	-0.101	
24.255	-0.229	-0.133	
24.260	0.304	-0.148	
24.265	0.041	-0.109	
24.270	0.012	-0.051	
24.275	0.790	0.026	
24.280	0.762	0.168	
24.285	0.163	0.321	
24.290	0.446	0.408	
24.295	0.455	0.445	
24.300	-0.197	0.434	
24.305	-0.164	0.344	
24.310	0.186	0.221	
24.315	-0.182	0.121	
24.320	-0.286	0.028	
24.325	0.082	-0.054	
24.330	-0.040	-0.092	
24.335	-0.310	-0.108	
24.340	-0.052	-0.128	
24.345	0.111	-0.129	
24.350	-0.222	-0.108	
24.355	-0.080	-0.097	
24.360	0.318	-0.076	
24.365	-0.100	-0.031	
24.370	-0.199	-0.007	
24.375	0.284	-0.004	
24.380	0.191	0.025	
24.385	-0.165	0.057	
24.390	0.177	0.064	
24.395	0.366	0.081	
24.400	-0.109	0.112	
24.405	0.032	0.114	
24.410	0.567	0.119	
24.415	0.110	0.158	
24.420	-0.029	0.183	
24.425	0.533	0.188	
24.430	0.308	0.218	
24.435	-0.113	0.241	
24.440	0.270	0.223	
24.445	0.440	0.214	
24.450	-0.116	0.217	
24.455	-0.022	0.187	
24.460	0.412	0.150	
24.465	-0.040	0.139	
24.470	-0.171	0.115	
24.475	0.240	0.076	
24.480	0.027	0.058	
24.485	-0.243	0.041	
24.490	0.021	0.005	
24.495	0.146	-0.017	
24.500	-0.225	-0.020	
24.505	-0.109	-0.037	
24.510	0.336	-0.043	
24.515	-0.087	-0.016	
24.520	-0.155	0.000	
24.525	0.261	0.002	
24.530	0.108	0.024	
24.535	-0.196	0.044	
24.540	0.105	0.037	
24.545	0.293	0.041	
24.550	-0.196	0.058	
24.555	-0.066	0.049	
24.560	0.417	0.039	
24.565	-0.029	0.061	
24.570	-0.168	0.069	
24.575	0.273	0.056	
24.580	0.076	0.061	
24.585	-0.258	0.059	
24.590	-0.026	0.026	
24.595	0.108	-0.004	
24.600	-0.278	-0.023	
24.605	-0.177	-0.056	
24.610	0.177	-0.084	
24.615	-0.156	-0.081	
24.620	-0.237	-0.081	
24.625	0.149	-0.089	
24.630	-0.037	-0.075	
24.635	-0.344	-0.067	
24.640	-0.101	-0.089	
24.645	0.131	-0.102	
24.650	-0.144	-0.089	
24.655	0.174	-0.065	
24.660	0.828	0.006	
24.665	0.415	0.143	
24.670	0.229	0.272	
24.675	0.681	0.356	
24.680	0.356	0.422	
24.685	-0.150	0.434	
24.690	0.041	0.364	
24.695	0.117	0.265	
24.700	-0.297	0.166	
24.705	-0.193	0.056	
24.710	0.081	-0.036	
24.715	-0.214	-0.086	
24.720	-0.260	-0.123	
24.725	0.140	-0.146	
24.730	-0.025	-0.130	
24.735	-0.315	-0.109	
24.740	-0.009	-0.109	
24.745	0.227	-0.094	
24.750	-0.211	-0.058	
24.755	-0.095	-0.043	
24.760	0.371	-0.029	
24.765	-0.040	0.011	
24.770	-0.107	0.037	
24.775	0.455	0.052	
24.780	0.318	0.102	
24.785	-0.106	0.153	
24.790	0.321	0.169	
24.795	0.515	0.195	
24.800	-0.064	0.231	
24.805	0.075	0.227	
24.810	0.548	0.212	
24.815	0.075	0.224	
24.820	-0.052	0.218	
24.825	0.470	0.195	
24.830	0.230	0.199	
24.835	-0.144	0.201	
24.840	0.143	0.169	
24.845	0.318	0.143	
24.850	-0.185	0.131	
24.855	-0.113	0.094	
24.860	0.272	0.051	
24.865	-0.116	0.036	
24.870	-0.223	0.013	
24.875	0.149	-0.020	
24.880	0.013	-0.028	
24.885	-0.258	-0.031	
24.890	-0.005	-0.050	
24.895	0.157	-0.055	
24.900	-0.245	-0.045	
24.905	-0.107	-0.051	
24.910	0.339	-0.051	
24.915	-0.063	-0.018	
24.920	-0.127	0.006	
24.925	0.354	0.018	
24.930	0.166	0.055	
24.935	-0.208	0.085	
24.940	0.050	0.075	
24.945	0.305	0.065	
24.950	-0.138	0.073	
24.955	-0.025	0.063	
24.960	0.369	0.055	
24.965	-0.103	0.069	
24.970	-0.231	0.060	
24.975	0.091	0.023	
24.980	-0.080	-0.006	
24.985	-0.339	-0.037	
24.990	-0.089	-0.085	
24.995	0.044	-0.115	
25.000	-0.320	-0.123	
25.005	-0.214	-0.142	
25.010	0.073	-0.156	
25.015	-0.272	-0.150	
25.020	-0.352	-0.157	
25.025	0.010	-0.176	
25.030	-0.028	-0.170	
25.035	-0.181	-0.146	
25.040	0.455	-0.104	
25.045	0.921	0.012	
25.050	0.397	0.191	
25.055	0.544	0.348	
25.060	0.819	0.467	
25.065	0.131	0.546	
25.070	-0.119	0.529	
25.075	0.224	0.428	
25.080	-0.013	0.314	
25.085	-0.326	0.194	
25.090	-0.176	0.061	
25.095	-0.057	-0.050	
25.100	-0.338	-0.124	
25.105	-0.248	-0.183	
25.110	0.015	-0.216	
25.115	-0.229	-0.213	
25.120	-0.286	-0.206	
25.125	0.021	-0.200	
25.130	-0.084	-0.176	
25.135	-0.301	-0.152	
25.140	-0.042	-0.146	
25.145	0.162	-0.126	
25.150	-0.199	-0.089	
25.155	-0.028	-0.067	
25.160	0.412	-0.036	
25.165	0.000	0.022	
25.170	-0.074	0.062	
25.175	0.469	0.086	
25.180	0.354	0.137	
25.185	-0.071	0.188	
25.190	0.372	0.206	
25.195	0.516	0.231	
25.200	-0.069	0.263	
25.205	0.079	0.251	
25.210	0.576	0.229	
25.215	0.090	0.237	
25.220	-0.089	0.228	
25.225	0.365	0.194	
25.230	0.127	0.177	
25.235	-0.203	0.155	
25.240	0.094	0.107	
25.245	0.200	0.072	
25.250	-0.269	0.052	
25.255	-0.156	0.010	
25.260	0.243	-0.028	
25.265	-0.142	-0.033	
25.270	-0.226	-0.042	
25.275	0.188	-0.057	
25.280	-0.005	-0.048	
25.285	-0.255	-0.038	
25.290	0.041	-0.048	
25.295	0.229	-0.041	
25.300	-0.211	-0.017	
25.305	-0.069	-0.014	
25.310	0.421	-0.007	
25.315	0.006	0.034	
25.320	-0.116	0.062	
25.325	0.347	0.070	
25.330	0.130	0.094	
25.335	-0.211	0.106	
25.340	0.104	0.084	
25.345	0.185	0.066	
25.350	-0.258	0.055	
25.355	-0.152	0.017	
25.360	0.162	-0.023	
25.365	-0.190	-0.040	
25.370	-0.312	-0.065	
25.375	0.055	-0.100	
25.380	-0.051	-0.111	
25.385	-0.307	-0.112	
25.390	-0.060	-0.125	
25.395	0.050	-0.126	
25.400	-0.332	-0.117	
25.405	-0.251	-0.130	
25.410	0.018	-0.151	
25.415	-0.205	-0.152	
25.420	-0.153	-0.150	
25.425	0.675	-0.114	
25.430	0.822	0.018	
25.435	0.486	0.209	
25.440	0.922	0.390	
25.445	0.929	0.557	
25.450	0.042	0.667	
25.455	0.010	0.645	
25.460	0.263	0.530	
25.465	-0.217	0.391	
25.470	-0.347	0.226	
25.475	-0.083	0.057	
25.480	-0.181	-0.068	
25.485	-0.399	-0.156	
25.490	-0.136	-0.222	
25.495	-0.031	-0.246	
25.500	-0.336	-0.237	
25.505	-0.199	-0.230	
25.510	0.201	-0.209	
25.515	-0.150	-0.158	
25.520	-0.208	-0.117	
25.525	0.209	-0.092	
25.530	0.081	-0.050	
25.535	-0.207	-0.012	
25.540	0.217	0.004	
25.545	0.449	0.042	
25.550	-0.045	0.102	
25.555	0.172	0.137	
25.560	0.626	0.172	
25.565	0.136	0.230	
25.570	0.047	0.259	
25.575	0.626	0.265	
25.580	0.403	0.298	
25.585	-0.020	0.324	
25.590	0.382	0.311	
25.595	0.490	0.305	
25.600	-0.052	0.306	
25.605	0.082	0.271	
25.610	0.484	0.232	
25.615	-0.019	0.217	
25.620	-0.136	0.184	
25.625	0.284	0.134	
25.630	0.059	0.107	
25.635	-0.249	0.081	
25.640	0.017	0.034	
25.645	0.149	0.001	
25.650	-0.262	-0.012	
25.655	-0.147	-0.041	
25.660	0.186	-0.064	
25.665	-0.167	-0.061	
25.670	-0.240	-0.066	
25.675	0.229	-0.076	
25.680	0.093	-0.052	
25.685	-0.213	-0.022	
25.690	0.104	-0.013	
25.695	0.322	0.008	
25.700	-0.135	0.045	
25.705	-0.023	0.057	
25.710	0.391	0.061	
25.715	-0.069	0.084	
25.720	-0.164	0.084	
25.725	0.270	0.063	
25.730	0.082	0.062	
25.735	-0.232	0.059	
25.740	-0.019	0.028	
25.745	0.082	-0.001	
25.750	-0.303	-0.022	
25.755	-0.213	-0.062	
25.760	0.052	-0.102	
25.765	-0.217	-0.118	
25.770	-0.272	-0.134	
25.775	0.041	-0.150	
25.780	-0.084	-0.143	
25.785	-0.320	-0.134	
25.790	-0.090	-0.142	
25.795	0.007	-0.143	
25.800	-0.291	-0.134	
25.805	-0.109	-0.136	
25.810	0.600	-0.108	
25.815	0.475	-0.002	
25.820	0.499	0.145	
25.825	1.026	0.306	
25.830	0.654	0.477	
25.835	-0.060	0.577	
25.840	0.094	0.549	
25.845	0.082	0.444	
25.850	-0.298	0.308	
25.855	-0.220	0.151	
25.860	0.046	0.014	
25.865	-0.248	-0.074	
25.870	-0.294	-0.137	
25.875	0.105	-0.177	
25.880	-0.071	-0.171	
25.885	-0.301	-0.152	
25.890	-0.032	-0.147	
25.895	0.149	-0.128	
25.900	-0.237	-0.093	
25.905	-0.100	-0.079	
25.910	0.328	-0.062	
25.915	-0.075	-0.020	
25.920	-0.147	0.006	
25.925	0.353	0.017	
25.930	0.203	0.054	
25.935	-0.141	0.091	
25.940	0.304	0.103	
25.945	0.505	0.134	
25.950	-0.055	0.183	
25.955	0.139	0.198	
25.960	0.603	0.207	
25.965	0.122	0.241	
25.970	-0.006	0.252	
25.975	0.527	0.240	
25.980	0.330	0.253	
25.985	-0.118	0.263	
25.990	0.214	0.233	
25.995	0.307	0.204	
26.000	-0.182	0.181	
26.005	-0.083	0.131	
26.010	0.258	0.077	
26.015	-0.152	0.050	
26.020	-0.213	0.015	
26.025	0.194	-0.022	
26.030	0.010	-0.028	
26.035	-0.245	-0.027	
26.040	-0.022	-0.045	
26.045	0.105	-0.054	
26.050	-0.257	-0.051	
26.055	-0.110	-0.065	
26.060	0.226	-0.071	
26.065	-0.136	-0.051	
26.070	-0.162	-0.042	
26.075	0.281	-0.038	
26.080	0.108	-0.005	
26.085	-0.170	0.027	
26.090	0.133	0.033	
26.095	0.233	0.045	
26.100	-0.200	0.061	
26.105	-0.068	0.047	
26.110	0.331	0.031	
26.115	-0.148	0.038	
26.120	-0.272	0.024	
26.125	0.067	-0.017	
26.130	-0.069	-0.043	
26.135	-0.324	-0.066	
26.140	-0.061	-0.101	
26.145	0.003	-0.120	
26.150	-0.335	-0.126	
26.155	-0.219	-0.146	
26.160	0.113	-0.159	
26.165	-0.196	-0.145	
26.170	-0.275	-0.137	
26.175	-0.005	-0.142	
26.180	-0.156	-0.139	
26.185	-0.352	-0.143	
26.190	0.021	-0.157	
26.195	0.353	-0.133	
26.200	0.020	-0.062	
26.205	0.363	0.019	
26.210	0.809	0.127	
26.215	0.256	0.260	
26.220	0.003	0.339	
26.225	0.392	0.345	
26.230	0.064	0.324	
26.235	-0.262	0.265	
26.240	-0.042	0.165	
26.245	0.024	0.070	
26.250	-0.321	-0.004	
26.255	-0.182	-0.077	
26.260	0.169	-0.122	
26.265	-0.177	-0.123	
26.270	-0.213	-0.119	
26.275	0.226	-0.112	
26.280	0.070	-0.074	
26.285	-0.214	-0.035	
26.290	0.087	-0.021	
26.295	0.229	-0.002	
26.300	-0.182	0.024	
26.305	-0.049	0.024	
26.310	0.400	0.025	
26.315	-0.005	0.056	
26.320	-0.071	0.075	
26.325	0.476	0.086	
26.330	0.337	0.132	
26.335	-0.097	0.179	
26.340	0.295	0.189	
26.345	0.449	0.203	
26.350	-0.110	0.222	
26.355	0.018	0.202	
26.360	0.350	0.167	
26.365	-0.122	0.147	
26.370	-0.207	0.105	
26.375	0.189	0.049	
26.380	-0.002	0.020	
26.385	-0.269	-0.001	
26.390	-0.025	-0.038	
26.395	0.076	-0.060	
26.400	-0.294	-0.067	
26.405	-0.136	-0.089	
26.410	0.261	-0.097	
26.415	-0.141	-0.072	
26.420	-0.226	-0.057	
26.425	0.130	-0.061	
26.430	-0.032	-0.052	
26.435	-0.280	-0.048	
26.440	-0.026	-0.065	
26.445	0.107	-0.072	
26.450	-0.269	-0.066	
26.455	-0.188	-0.080	
26.460	0.189	-0.093	
26.465	-0.141	-0.080	
26.470	-0.152	-0.070	
26.475	0.311	-0.058	
26.480	0.076	-0.016	
26.485	-0.217	0.018	
26.490	0.096	0.020	
26.495	0.162	0.023	
26.500	-0.240	0.029	
26.505	-0.126	0.006	
26.510	0.145	-0.022	
26.515	-0.220	-0.035	
26.520	-0.307	-0.062	
26.525	-0.011	-0.103	
26.530	-0.127	-0.126	
26.535	-0.347	-0.142	
26.540	-0.077	-0.165	
26.545	0.053	-0.166	
26.550	-0.318	-0.150	
26.555	-0.197	-0.150	
26.560	0.119	-0.150	
26.565	-0.219	-0.130	
26.570	-0.243	-0.123	
26.575	0.177	-0.121	
26.580	0.113	-0.087	
26.585	-0.063	-0.039	
26.590	0.557	0.017	
26.595	0.770	0.126	
26.600	0.088	0.257	
26.605	0.130	0.323	
26.610	0.472	0.334	
26.615	-0.078	0.324	
26.620	-0.207	0.264	
26.625	0.122	0.169	
26.630	-0.066	0.090	
26.635	-0.303	0.020	
26.640	-0.057	-0.052	
26.645	0.035	-0.095	
26.650	-0.303	-0.112	
26.655	-0.159	-0.134	
26.660	0.217	-0.138	
26.665	-0.126	-0.108	
26.670	-0.179	-0.083	
26.675	0.279	-0.065	
26.680	0.010	-0.026	
26.685	-0.222	0.002	
26.690	0.156	0.002	
26.695	0.330	0.021	
26.700	-0.130	0.058	
26.705	0.038	0.071	
26.710	0.504	0.085	
26.715	0.020	0.125	
26.720	-0.074	0.143	
26.725	0.443	0.140	
26.730	0.217	0.161	
26.735	-0.132	0.175	
26.740	0.246	0.159	
26.745	0.354	0.155	
26.750	-0.139	0.162	
26.755	0.003	0.139	
26.760	0.440	0.116	
26.765	-0.034	0.123	
26.770	-0.127	0.115	
26.775	0.314	0.091	
26.780	0.081	0.089	
26.785	-0.217	0.084	
26.790	0.084	0.053	
26.795	0.204	0.036	
26.800	-0.237	0.032	
26.805	-0.074	0.009	
26.810	0.302	-0.008	
26.815	-0.136	0.003	
26.820	-0.208	-0.000	
26.825	0.154	-0.020	
26.830	-0.025	-0.023	
26.835	-0.243	-0.026	
26.840	0.070	-0.043	
26.845	0.223	-0.038	
26.850	-0.170	-0.013	
26.855	0.004	-0.003	
26.860	0.457	0.016	
26.865	-0.037	0.063	
26.870	-0.086	0.088	
26.875	0.427	0.094	
26.880	0.183	0.124	
26.885	-0.187	0.144	
26.890	0.111	0.123	
26.895	0.177	0.100	
26.900	-0.252	0.080	
26.905	-0.126	0.035	
26.910	0.192	-0.008	
26.915	-0.177	-0.024	
26.920	-0.246	-0.047	
26.925	0.113	-0.075	
26.930	-0.061	-0.078	
26.935	-0.320	-0.081	
26.940	-0.045	-0.102	
26.945	0.050	-0.110	
26.950	-0.318	-0.105	
26.955	-0.185	-0.120	
26.960	0.221	-0.126	
26.965	-0.064	-0.097	
26.970	0.018	-0.060	
26.975	0.770	0.004	
26.980	0.704	0.139	
26.985	0.233	0.291	
26.990	0.568	0.392	
26.995	0.466	0.454	
27.000	-0.142	0.464	
27.005	-0.080	0.387	
27.010	0.139	0.271	
27.015	-0.257	0.161	
27.020	-0.336	0.044	
27.025	-0.051	-0.067	
27.030	-0.148	-0.136	
27.035	-0.356	-0.177	
27.040	-0.074	-0.208	
27.045	0.024	-0.207	
27.050	-0.283	-0.182	
27.055	-0.133	-0.168	
27.060	0.272	-0.142	
27.065	-0.106	-0.090	
27.070	-0.170	-0.052	
27.075	0.238	-0.034	
27.080	0.076	-0.001	
27.085	-0.194	0.025	
27.090	0.137	0.024	
27.095	0.246	0.035	
27.100	-0.202	0.053	
27.105	0.030	0.047	
27.110	0.446	0.049	
27.115	-0.057	0.081	
27.120	-0.118	0.091	
27.125	0.403	0.085	
27.130	0.198	0.107	
27.135	-0.148	0.128	
27.140	0.214	0.120	
27.145	0.343	0.123	
27.150	-0.165	0.135	
27.155	-0.035	0.116	
27.160	0.305	0.088	
27.165	-0.144	0.078	
27.170	-0.199	0.050	
27.175	0.236	0.013	
27.180	0.009	0.006	
27.185	-0.265	0.000	
27.190	0.020	-0.025	
27.195	0.088	-0.040	
27.200	-0.240	-0.041	
27.205	-0.086	-0.057	
27.210	0.308	-0.058	
27.215	-0.089	-0.028	
27.220	-0.136	-0.008	
27.225	0.343	0.002	
27.230	0.145	0.039	
27.235	-0.164	0.072	
27.240	0.221	0.076	
27.245	0.369	0.094	
27.250	-0.127	0.124	
27.255	0.036	0.123	
27.260	0.478	0.119	
27.265	0.003	0.141	
27.270	-0.069	0.145	
27.275	0.391	0.132	
27.280	0.160	0.142	
27.285	-0.173	0.145	
27.290	0.114	0.117	
27.295	0.211	0.093	
27.300	-0.231	0.079	
27.305	-0.106	0.041	
27.310	0.253	0.006	
27.315	-0.159	-0.001	
27.320	-0.216	-0.018	
27.325	0.172	-0.042	
27.330	-0.005	-0.040	
27.335	-0.251	-0.036	
27.340	0.017	-0.050	
27.345	0.047	-0.055	
27.350	-0.272	-0.055	
27.355	-0.052	-0.070	
27.360	0.537	-0.057	
27.365	0.275	0.019	
27.370	0.275	0.116	
27.375	0.897	0.222	
27.380	0.591	0.356	
27.385	-0.008	0.451	
27.390	0.301	0.455	
27.395	0.290	0.414	
27.400	-0.203	0.349	
27.405	-0.116	0.241	
27.410	0.195	0.133	
27.415	-0.188	0.059	
27.420	-0.245	-0.008	
27.425	0.154	-0.063	
27.430	-0.014	-0.077	
27.435	-0.251	-0.075	
27.440	0.039	-0.082	
27.445	0.195	-0.070	
27.450	-0.220	-0.041	
27.455	-0.087	-0.034	
27.460	0.339	-0.028	
27.465	-0.075	0.005	
27.470	-0.092	0.024	
27.475	0.479	0.039	
27.480	0.292	0.093	
27.485	-0.107	0.146	
27.490	0.270	0.162	
27.495	0.498	0.182	
27.500	-0.057	0.214	
27.505	0.128	0.214	
27.510	0.588	0.211	
27.515	0.104	0.235	
27.520	-0.017	0.240	
27.525	0.495	0.224	
27.530	0.236	0.230	
27.535	-0.127	0.230	
27.540	0.188	0.195	
27.545	0.201	0.163	
27.550	-0.211	0.134	
27.555	-0.049	0.083	
27.560	0.372	0.045	
27.565	-0.095	0.046	
27.570	-0.159	0.039	
27.575	0.313	0.024	
27.580	0.058	0.036	
27.585	-0.229	0.045	
27.590	0.090	0.026	
27.595	0.185	0.019	
27.600	-0.258	0.021	
27.605	-0.124	-0.003	
27.610	0.238	-0.027	
27.615	-0.162	-0.025	
27.620	-0.197	-0.032	
27.625	0.233	-0.045	
27.630	0.050	-0.028	
27.635	-0.217	-0.009	
27.640	0.149	-0.009	
27.645	0.273	0.009	
27.650	-0.185	0.040	
27.655	-0.029	0.042	
27.660	0.383	0.041	
27.665	-0.057	0.065	
27.670	-0.115	0.072	
27.675	0.299	0.062	
27.680	-0.002	0.069	
27.685	-0.352	0.056	
27.690	-0.148	0.001	
27.695	-0.013	-0.058	
27.700	-0.310	-0.098	
27.705	-0.194	-0.138	
27.710	0.091	-0.160	
27.715	-0.213	-0.152	
27.720	-0.226	-0.146	
27.725	0.152	-0.139	
27.730	-0.077	-0.110	
27.735	-0.307	-0.090	
27.740	-0.037	-0.097	
27.745	0.128	-0.094	
27.750	-0.170	-0.073	
27.755	0.154	-0.052	
27.760	0.785	0.011	
27.765	0.342	0.135	
27.770	0.224	0.249	
27.775	0.683	0.327	
27.780	0.235	0.389	
27.785	-0.220	0.391	
27.790	0.027	0.312	
27.795	0.061	0.210	
27.800	-0.307	0.114	
27.805	-0.168	0.013	
27.810	0.139	-0.063	
27.815	-0.197	-0.093	
27.820	-0.232	-0.113	
27.825	0.094	-0.128	
27.830	-0.043	-0.116	
27.835	-0.275	-0.101	
27.840	0.017	-0.101	
27.845	0.120	-0.089	
27.850	-0.229	-0.065	
27.855	-0.045	-0.059	
27.860	0.421	-0.040	
27.865	-0.057	0.011	
27.870	-0.087	0.044	
27.875	0.496	0.064	
27.880	0.290	0.118	
27.885	-0.089	0.168	
27.890	0.366	0.183	
27.895	0.460	0.208	
27.900	-0.103	0.237	
27.905	0.102	0.223	
27.910	0.574	0.207	
27.915	0.078	0.222	
27.920	-0.011	0.221	
27.925	0.472	0.205	
27.930	0.185	0.210	
27.935	-0.182	0.205	
27.940	0.146	0.162	
27.945	0.217	0.127	
27.950	-0.237	0.102	
27.955	-0.110	0.054	
27.960	0.252	0.011	
27.965	-0.142	-0.001	
27.970	-0.190	-0.017	
27.975	0.212	-0.036	
27.980	-0.023	-0.029	
27.985	-0.286	-0.025	
27.990	-0.019	-0.048	
27.995	0.081	-0.061	
28.000	-0.275	-0.062	
28.005	-0.152	-0.080	
28.010	0.172	-0.093	
28.015	-0.220	-0.083	
28.020	-0.249	-0.087	
28.025	0.194	-0.097	
28.030	-0.017	-0.078	
28.035	-0.254	-0.059	
28.040	0.104	-0.058	
28.045	0.256	-0.037	
28.050	-0.199	-0.001	
28.055	-0.045	0.009	
28.060	0.313	0.013	
28.065	-0.136	0.033	
28.070	-0.207	0.029	
28.075	0.122	0.002	
28.080	-0.083	-0.014	
28.085	-0.332	-0.036	
28.090	-0.090	-0.079	
28.095	0.012	-0.109	
28.100	-0.329	-0.122	
28.105	-0.219	-0.145	
28.110	0.065	-0.162	
28.115	-0.260	-0.157	
28.120	-0.303	-0.160	
28.125	0.001	-0.172	
28.130	-0.135	-0.166	
28.135	-0.294	-0.159	
28.140	0.227	-0.148	
28.145	0.748	-0.074	
28.150	0.450	0.076	
28.155	0.738	0.247	
28.160	1.051	0.422	
28.165	0.293	0.575	
28.170	-0.020	0.619	
28.175	0.307	0.552	
28.180	-0.045	0.442	
28.185	-0.327	0.302	
28.190	-0.116	0.139	
28.195	-0.051	0.006	
28.200	-0.339	-0.087	
28.205	-0.200	-0.159	
28.210	0.136	-0.193	
28.215	-0.170	-0.179	
28.220	-0.194	-0.157	
28.225	0.255	-0.132	
28.230	0.017	-0.079	
28.235	-0.220	-0.036	
28.240	0.090	-0.023	
28.245	0.212	-0.005	
28.250	-0.185	0.020	
28.255	-0.045	0.019	
28.260	0.411	0.022	
28.265	-0.032	0.053	
28.270	-0.071	0.072	
28.275	0.528	0.084	
28.280	0.319	0.135	
28.285	-0.028	0.187	
28.290	0.423	0.210	
28.295	0.528	0.245	
28.300	-0.034	0.283	
28.305	0.195	0.280	
28.310	0.583	0.270	
28.315	0.093	0.283	
28.320	-0.011	0.272	
28.325	0.458	0.240	
28.330	0.148	0.229	
28.335	-0.187	0.208	
28.340	0.122	0.154	
28.345	0.226	0.112	
28.350	-0.226	0.087	
28.355	-0.118	0.043	
28.360	0.246	0.003	
28.365	-0.147	-0.007	
28.370	-0.207	-0.022	
28.375	0.194	-0.042	
28.380	-0.011	-0.037	
28.385	-0.245	-0.030	
28.390	0.052	-0.043	
28.395	0.163	-0.040	
28.400	-0.242	-0.025	
28.405	-0.124	-0.033	
28.410	0.244	-0.043	
28.415	-0.107	-0.027	
28.420	-0.103	-0.018	
28.425	0.368	-0.008	
28.430	0.124	0.034	
28.435	-0.168	0.068	
28.440	0.223	0.073	
28.445	0.369	0.092	
28.450	-0.127	0.123	
28.455	-0.006	0.120	
28.460	0.304	0.104	
28.465	-0.147	0.098	
28.470	-0.226	0.067	
28.475	0.163	0.019	
28.480	-0.017	-0.004	
28.485	-0.254	-0.020	
28.490	-0.016	-0.050	
28.495	0.026	-0.067	
28.500	-0.304	-0.075	
28.505	-0.199	-0.102	
28.510	0.084	-0.124	
28.515	-0.239	-0.125	
28.520	-0.266	-0.133	
28.525	0.197	-0.139	
28.530	0.154	-0.103	
28.535	0.070	-0.040	
28.540	0.926	0.055	
28.545	1.178	0.234	
28.550	0.536	0.455	
28.555	0.640	0.613	
28.560	0.718	0.695	
28.565	-0.040	0.700	
28.570	-0.174	0.595	
28.575	0.146	0.423	
28.580	-0.130	0.259	
28.585	-0.384	0.108	
28.590	-0.147	-0.034	
28.595	-0.084	-0.133	
28.600	-0.388	-0.190	
28.605	-0.216	-0.232	
28.610	0.128	-0.242	
28.615	-0.184	-0.209	
28.620	-0.220	-0.175	
28.625	0.201	-0.146	
28.630	0.017	-0.095	
28.635	-0.234	-0.053	
28.640	0.120	-0.037	
28.645	0.221	-0.012	
28.650	-0.168	0.020	
28.655	0.041	0.029	
28.660	0.473	0.046	
28.665	0.018	0.092	
28.670	-0.032	0.120	
28.675	0.536	0.134	
28.680	0.336	0.180	
28.685	-0.045	0.223	
28.690	0.403	0.233	
28.695	0.493	0.252	
28.700	-0.061	0.277	
28.705	0.130	0.261	
28.710	0.476	0.236	
28.715	-0.052	0.228	
28.720	-0.100	0.194	
28.725	0.360	0.147	
28.730	0.091	0.129	
28.735	-0.185	0.113	
28.740	0.081	0.075	
28.745	0.111	0.047	
28.750	-0.263	0.026	
28.755	-0.133	-0.014	
28.760	0.191	-0.047	
28.765	-0.168	-0.051	
28.770	-0.214	-0.060	
28.775	0.175	-0.073	
28.780	-0.037	-0.061	
28.785	-0.268	-0.052	
28.790	0.018	-0.063	
28.795	0.139	-0.061	
28.800	-0.248	-0.047	
28.805	-0.103	-0.052	
28.810	0.308	-0.052	
28.815	-0.071	-0.022	
28.820	-0.098	0.000	
28.825	0.400	0.017	
28.830	0.096	0.059	
28.835	-0.231	0.086	
28.840	0.082	0.070	
28.845	0.204	0.055	
28.850	-0.220	0.051	
28.855	-0.116	0.023	
28.860	0.143	-0.010	
28.865	-0.225	-0.026	
28.870	-0.265	-0.056	
28.875	0.027	-0.094	
28.880	-0.126	-0.110	
28.885	-0.326	-0.124	
28.890	-0.071	-0.146	
28.895	0.032	-0.151	
28.900	-0.297	-0.139	
28.905	-0.187	-0.142	
28.910	0.044	-0.146	
28.915	-0.232	-0.137	
28.920	-0.220	-0.136	
28.925	0.411	-0.123	
28.930	0.440	-0.046	
28.935	0.171	0.068	
28.940	0.658	0.178	
28.945	0.706	0.300	
28.950	-0.060	0.398	
28.955	-0.014	0.399	
28.960	0.236	0.332	
28.965	-0.203	0.250	
28.970	-0.268	0.143	
28.975	0.029	0.032	
28.980	-0.147	-0.046	
28.985	-0.367	-0.104	
28.990	-0.107	-0.160	
28.995	0.032	-0.183	
29.000	-0.283	-0.175	
29.005	-0.135	-0.170	
29.010	0.232	-0.151	
29.015	-0.177	-0.107	
29.020	-0.202	-0.080	
29.025	0.282	-0.066	
29.030	0.070	-0.027	
29.035	-0.193	0.008	
29.040	0.163	0.016	
29.045	0.259	0.036	
29.050	-0.144	0.064	
29.055	0.044	0.066	
29.060	0.501	0.076	
29.065	0.006	0.115	
29.070	-0.054	0.134	
29.075	0.473	0.136	
29.080	0.284	0.166	
29.085	-0.098	0.194	
29.090	0.282	0.189	
