Time	Potential	EKG	Unnamed: 3
0.0	-0.097	-0.0017130068878267153	
0.005	0.134	-0.003204173959267923	
0.01	-0.327	-0.022228228112868197	
0.015	-0.139	-0.048997983155648385	
0.02	0.638	-0.04414734391143315	
0.025	0.175	0.012060927360167319	
0.03	-0.028	0.08377398873866466	
0.035	0.796	0.16007398751150706	
0.04	0.505	0.2529071564876283	
0.045	-0.214	0.317436706727301	
0.05	0.085	0.3134168348239609	
0.055	0.255	0.2615320457962745	
0.06	-0.353	0.1842775197758284	
0.065	-0.263	0.09121325604335949	
0.07	0.215	0.005062880043727153	
0.075	-0.239	-0.05791197674176821	
0.08	-0.401	-0.10575343495300951	
0.085	0.070	-0.13968317199579322	
0.09	-0.043	-0.15736264958153612	
0.095	-0.396	-0.1635173774604073	
0.1	-0.051	-0.159613970995401	
0.105	0.214	-0.1440492990213027	
0.11	-0.349	-0.12487560443108538	
0.115	-0.220	-0.11147659334446924	
0.12	0.385	-0.09501582821808924	
0.125	-0.112	-0.06779279699653912	
0.13	-0.255	-0.0421342241730111	
0.135	0.360	-0.017623450892791177	
0.14	0.137	0.011344067809136023	
0.145	-0.309	0.030613293929719863	
0.15	0.073	0.03515202027927139	
0.155	0.363	0.03529160650407314	
0.16	-0.220	0.03919022365152054	
0.165	-0.048	0.0427784240424631	
0.17	0.606	0.05772588101314949	
0.175	-0.040	0.08652158540178224	
0.18	-0.205	0.10457069452125471	
0.185	0.466	0.1121783195325758	
0.19	0.208	0.1221321495943574	
0.195	-0.286	0.1250050451107157	
0.2	0.099	0.11071335925316171	
0.205	0.337	0.09050303268853721	
0.21	-0.292	0.06854470718980787	
0.215	-0.167	0.04197048156206737	
0.22	0.380	0.017180007080496433	
0.225	-0.161	0.001060977735462148	
0.23	-0.286	-0.01254013766526241	
0.235	0.324	-0.017300790040279505	
0.24	0.078	-0.013074747086294369	
0.245	-0.338	-0.0093436922104372	
0.25	0.029	-0.010864448555732632	
0.255	0.284	-0.015420414778792031	
0.26	-0.300	-0.018897352091772887	
0.265	-0.152	-0.021825036706985972	
0.27	0.470	-0.017518214842479517	
0.275	-0.097	-0.002311177468394163	
0.28	-0.255	0.013398147185245495	
0.285	0.340	0.024068968018226597	
0.29	0.072	0.029730213728508953	
0.295	-0.350	0.026415348905807434	
0.3	-0.002	0.012466748579550865	
0.305	0.206	-0.009408354668585596	
0.31	-0.364	-0.03422722836452117	
0.315	-0.228	-0.05762635416801071	
0.32	0.227	-0.07833088735133473	
0.325	-0.243	-0.09763778511481053	
0.33	-0.349	-0.10957653268905604	
0.335	0.160	-0.11359762073114629	
0.34	-0.068	-0.1174883868697125	
0.345	-0.419	-0.12178189469679913	
0.35	-0.071	-0.12517278088877248	
0.355	0.081	-0.13241201762430616	
0.36	-0.396	-0.14360046646832764	
0.365	-0.229	-0.14739666378081745	
0.37	0.391	-0.13705960170521667	
0.375	-0.038	-0.10600764637210429	
0.38	-0.048	-0.050610007078655234	
0.385	0.840	0.035835190562261754	
0.39	0.563	0.15433623562653073	
0.395	-0.129	0.26289165853472507	
0.4	0.318	0.3191070606765652	
0.405	0.457	0.3246427898171298	
0.41	-0.262	0.29406725388055116	
0.415	-0.171	0.23271657782384625	
0.42	0.327	0.15310517030252097	
0.425	-0.207	0.07575495452666339	
0.43	-0.341	0.011403609364246113	
0.435	0.172	-0.03698861371800968	
0.44	-0.048	-0.07484758389483286	
0.445	-0.390	-0.10111639641021021	
0.45	-0.017	-0.1105869737173512	
0.455	0.215	-0.11244980266069496	
0.46	-0.323	-0.10712714675427651	
0.465	-0.168	-0.09301055228370292	
0.47	0.382	-0.07481759643448449	
0.475	-0.148	-0.05557559058508371	
0.48	-0.223	-0.03350504474530813	
0.485	0.437	-0.005713909129263128	
0.49	0.178	0.027891694718273248	
0.495	-0.243	0.05773457635598319	
0.5	0.276	0.08473297913422878	
0.505	0.508	0.11149554868815921	
0.51	-0.184	0.13657956869633062	
0.515	0.026	0.15119140009900875	
0.52	0.658	0.16132370817960617	
0.525	-0.022	0.17315058222233348	
0.53	-0.132	0.17852415748565345	
0.535	0.602	0.1804989249334506	
0.54	0.267	0.19073145640236328	
0.545	-0.251	0.19465671616823815	
0.55	0.229	0.18490531124140996	
0.555	0.392	0.16441894817793323	
0.56	-0.268	0.14048706056745797	
0.565	-0.122	0.11034340065783495	
0.57	0.391	0.07528476782977456	
0.575	-0.150	0.04403303550776363	
0.58	-0.239	0.022686731227940127	
0.585	0.369	0.014524873421130274	
0.59	0.041	0.012543233080147015	
0.595	-0.321	0.009761872584285416	
0.6	0.104	0.007051428555300093	
0.605	0.255	0.0022356831236653345	
0.61	-0.309	-0.004544129171156185	
0.615	-0.104	-0.008446857734105428	
0.62	0.521	-0.0027860687057485924	
0.625	-0.100	0.014888494239323431	
0.63	-0.185	0.03683100098628547	
0.635	0.479	0.0595533747753846	
0.64	0.152	0.08137679630145872	
0.645	-0.272	0.095833204804646	
0.65	0.174	0.0991491686965982	
0.655	0.302	0.09008340462051445	
0.66	-0.310	0.07245165824020186	
0.665	-0.164	0.049697836458607154	
0.67	0.287	0.017094107001147555	
0.675	-0.232	-0.017210356321427884	
0.68	-0.309	-0.04297808104398027	
0.685	0.183	-0.061442407429672295	
0.69	-0.038	-0.07882210666825751	
0.695	-0.384	-0.09104539229963932	
0.7	-0.025	-0.09467706175737531	
0.705	0.101	-0.10412109271944896	
0.71	-0.420	-0.11862471508238326	
0.715	-0.234	-0.1280333447280524	
0.72	0.263	-0.13293943106413492	
0.725	-0.194	-0.13046290777389719	
0.73	-0.167	-0.1087992941253888	
0.735	0.710	-0.051230940151811045	
0.74	0.495	0.04494041574583761	
0.745	-0.052	0.15588785145540568	
0.75	0.576	0.25056244028145713	
0.755	0.597	0.3187639316801937	
0.76	-0.225	-0.041257345223013	
0.765	-0.083	0.32112057343479705	
0.77	0.372	0.25307064541155044	
0.775	-0.239	0.16835573179552155	
0.78	-0.318	0.0863089306491814	
0.785	0.209	0.016821473255623158	
0.79	-0.095	-0.041257345223013	
0.795	-0.398	-0.08402120105245114	
0.8	0.032	-0.1052403724424258	
0.805	0.143	-0.11539210085325723	
0.81	-0.364	-0.11886684810833226	
0.815	-0.162	-0.11160706596193558	
0.82	0.305	-0.10096967330600429	
0.825	-0.243	-0.09187607495970848	
0.83	-0.258	-0.07953581745436854	
0.835	0.412	-0.05802806998695602	
0.84	0.059	-0.02949673612147838	
0.845	-0.278	-0.0020720050335393658	
0.85	0.240	0.023992030518609844	
0.855	0.376	0.04751218935391154	
0.86	-0.239	0.0679409134900218	
0.865	0.007	0.08357399415747975	
0.87	0.589	0.09610360658541531	
0.875	-0.098	0.10991004294314057	
0.88	-0.156	0.11951425490209358	
0.885	0.559	0.12612391914808255	
0.89	0.203	0.13735346402185558	
0.895	-0.213	0.14888774873461874	
0.9	0.325	0.15615820112575785	
0.905	0.411	0.1584290642493776	
0.91	-0.265	0.15383595242640125	
0.915	-0.042	0.13772006173361567	
0.92	0.524	0.11609025453319244	
0.925	-0.136	0.09978407481013435	
0.93	-0.193	0.0876400493135079	
0.935	0.472	0.08016700569465088	
0.94	0.032	0.07619191916949199	
0.945	-0.341	0.06495315601706192	
0.95	0.097	0.046263890812963414	
0.955	0.252	0.022285165260212552	
0.96	-0.301	0.0028503158845877234	
0.965	-0.068	-0.004105025252124802	
0.97	0.486	-0.0020149285825808117	
0.975	-0.133	0.011682264670129375	
0.98	-0.171	0.02981292649605355	
0.985	0.513	0.05215721634174096	
0.99	0.116	0.07602066957312104	
0.995	-0.248	0.09307235832784427	
1.0	0.264	0.10336330205518686	
1.005	0.343	0.10609938725434127	
1.01	-0.280	0.10285287386218547	
1.015	-0.083	0.09004745364395926	
1.02	0.374	0.06684760132830317	
1.025	-0.228	0.039595975418091976	
1.03	-0.272	0.014003133658726366	
1.035	0.292	-0.006875362055604696	
1.04	-0.064	-0.026149666142799094	
1.045	-0.359	-0.04277831153262504	
1.05	0.064	-0.05253325432208658	
1.055	0.124	-0.06510009500790492	
1.06	-0.368	-0.07813291600186015	
1.065	-0.173	-0.08373978942195497	
1.07	0.198	-0.09225971296363833	
1.075	-0.278	-0.10656640074030539	
1.08	-0.219	-0.10780249942965334	
1.085	0.617	-0.07676089827019733	
1.09	0.421	-0.00334012037346495	
1.095	0.017	0.09924052657578387	
1.1	0.797	0.21265781911119794	
1.105	0.800	0.3277782766086666	
1.11	-0.092	0.41471492124548637	
1.115	0.096	0.4363608855093345	
1.12	0.487	0.3957079041026104	
1.125	-0.205	0.31832385756950665	
1.13	-0.263	0.2262908574676264	
1.135	0.278	0.13420721890109197	
1.14	-0.106	0.049519165288538156	
1.145	-0.376	-0.016626765198441085	
1.15	0.061	-0.05926799950464895	
1.155	0.119	-0.08839750954080153	
1.16	-0.371	-0.10619295084425266	
1.165	-0.152	-0.1073880805182915	
1.17	0.290	-0.10541329552225559	
1.175	-0.242	-0.098811338431636	
1.18	-0.213	-0.08348632888321848	
1.185	0.432	-0.05574806448525578	
1.19	0.017	-0.02373391062754863	
1.195	-0.280	0.003422360865853667	
1.2	0.255	0.02691988103853142	
1.205	0.336	0.04542630568981204	
1.21	-0.249	0.06269386199479468	
1.215	0.068	0.07782852445188054	
1.22	0.626	0.09556849280525476	
1.225	-0.092	0.1199937348218031	
1.23	-0.086	0.13963360864141836	
1.235	0.660	0.1573350760083056	
1.24	0.226	0.18109686291869326	
1.245	-0.184	0.20147097703913536	
1.25	0.391	0.2090358041251445	
1.255	0.441	0.2092743210965745	
1.26	-0.220	0.20369656357124782	
1.265	0.032	0.1879760439712963	
1.27	0.490	0.16141803560095352	
1.275	-0.182	0.13393498980330593	
1.28	-0.193	0.10585538832513898	
1.285	0.415	0.08024443595347922	
1.29	-0.031	0.058914783401795734	
1.295	-0.321	0.037700849965116516	
1.3	0.157	0.02009700930863069	
1.305	0.180	0.0020094702602045334	
1.31	-0.332	-0.01418656661166853	
1.315	-0.083	-0.021802602888062548	
1.32	0.359	-0.0278108985087749	
1.325	-0.251	-0.031142265733759743	
1.33	-0.222	-0.029869740930135412	
1.335	0.438	-0.020830616248442263	
1.34	0.009	-0.005304974009883721	
1.345	-0.272	0.011899885698292095	
1.35	0.270	0.02919413023881567	
1.355	0.305	0.04475536926264575	
1.36	-0.269	0.057859677154243644	
1.365	-0.013	0.06540262371256234	
1.37	0.400	0.061997614562038034	
1.375	-0.254	0.05075337060879129	
1.38	-0.263	0.0323706884878645	
1.385	0.272	0.008105191731563516	
1.39	-0.115	-0.02052711180792621	
1.395	-0.364	-0.044897824750642086	
1.4	0.078	-0.06168609030309666	
1.405	0.062	-0.0795177317729387	
1.41	-0.384	-0.09610354856243128	
1.415	-0.129	-0.10131794168546274	
1.42	0.244	-0.10416733783812059	
1.425	-0.323	-0.10743034258330979	
1.43	-0.310	-0.10735332906773398	
1.435	0.310	-0.10283565852233648	
1.44	0.026	-0.08982212826046274	
1.445	-0.087	-0.052776349044490814	
1.45	0.869	0.030607411146137204	
1.455	0.938	0.17028834666207093	
1.46	0.160	0.32875075939569703	
1.465	0.505	-0.0083553322207868	
1.47	0.761	0.5147407712012643	
1.475	-0.133	0.5163527209787389	
1.48	-0.188	0.45077938808470597	
1.485	0.305	0.3401794965833181	
1.49	-0.164	0.2110089590806037	
1.495	-0.407	0.08933057674739978	
1.5	0.012	-0.0083553322207868	
1.505	-0.014	-0.08791693863405063	
1.51	-0.425	-0.14514144986903962	
1.515	-0.142	-0.168875001309513	
1.52	0.221	-0.17338069905157422	
1.525	-0.286	-0.16570803779415927	
1.53	-0.229	-0.1429583454255372	
1.535	0.371	-0.10879913435110891	
1.54	-0.035	-0.07423413406338175	
1.545	-0.268	-0.040598361983103556	
1.55	0.314	-0.005172629476788981	
1.555	0.318	0.028895661141342687	
1.56	-0.232	0.05972458666541062	
1.565	0.099	0.08633306964422414	
1.57	0.562	0.1056041601877891	
1.575	-0.104	0.1240655038827677	
1.58	-0.025	0.14216727502893145	
1.585	0.713	0.16334410123052034	
1.59	0.198	0.19356147203279336	
1.595	-0.147	0.21838870209209804	
1.6	0.525	0.23301542474602294	
1.605	0.443	0.24377286527101957	
1.61	-0.205	0.24662740642732375	
1.615	0.139	0.23450385814713012	
1.62	0.557	0.21255995715834214	
1.625	-0.162	0.1899408507925971	
1.63	-0.145	0.16330692246502299	
1.635	0.467	0.13433982811396633	
1.64	-0.049	0.10540921627780142	
1.645	-0.286	0.07752234628660243	
1.65	0.220	0.05309584134618546	
1.655	0.152	0.029585664256635318	
1.66	-0.330	0.008687641469628025	
1.665	-0.038	-0.004309643356150873	
1.67	0.365	-0.013594127925095283	
1.675	-0.245	-0.018145508618465075	
1.68	-0.173	-0.01447393162418436	
1.685	0.479	-0.002681546741575551	
1.69	-0.009	0.01521319590596177	
1.695	-0.239	0.03465383696559031	
1.7	0.372	0.054211179008866385	
1.705	0.310	0.07538814814415071	
1.71	-0.254	0.09368320431060327	
1.715	0.055	0.10286530176165931	
1.72	0.473	0.10027467740090705	
1.725	-0.210	0.09574896854490798	
1.73	-0.139	0.08771714758035293	
1.735	0.482	0.0792826676688512	
1.74	-0.090	0.07102964621487294	
1.745	-0.313	0.05580676968099421	
1.75	0.185	0.035284490088891785	
1.755	0.078	0.00916968458063537	
1.76	-0.358	-0.01924589056450129	
1.765	-0.074	-0.03793288601772201	
1.77	0.292	-0.05289384822234733	
1.775	-0.291	-0.062336029103326716	
1.78	-0.248	-0.06405560663993856	
1.785	0.233	-0.06676029968604003	
1.79	-0.138	-0.07618182014640162	
1.795	-0.257	-0.07702423488839714	
1.8	0.615	-0.04253079767515609	
1.805	0.819	0.04699867776623804	
1.81	0.238	0.18673983213429318	
1.815	0.854	0.3432653512190005	
1.82	1.187	0.49898310987416084	
1.825	0.156	0.6164873418728396	
1.83	0.070	0.6510446383446499	
1.835	0.605	0.6001846971295101	
1.84	-0.066	0.49668708466167866	
1.845	-0.326	0.364110261254988	
1.85	0.108	0.22542229408630035	
1.855	-0.023	0.09278590380645217	
1.86	-0.404	-0.01708537723652871	
1.865	-0.107	-0.08659970596190497	
1.87	0.152	-0.13024432115541737	
1.875	-0.333	-0.1554242959083199	
1.88	-0.242	-0.15662053487044508	
1.885	0.302	-0.14192622976866542	
1.89	-0.130	-0.12149177330149029	
1.895	-0.295	-0.09665823976589459	
1.9	0.266	-0.0654994705724154	
1.905	0.117	-0.03948364332660692	
1.91	-0.326	-0.022086667558907196	
1.915	0.038	-0.00840083026162041	
1.92	0.449	0.004623630015421438	
1.925	-0.174	0.024428886390745697	
1.93	-0.072	0.048562251407828695	
1.935	0.617	0.07509821025178498	
1.94	0.081	0.108311023282563	
1.945	-0.138	0.1384293117991993	
1.95	0.571	0.16562603712049814	
1.955	0.429	0.19735588354354042	
1.96	-0.188	0.22391510243480503	
1.965	0.221	0.23173806406189038	
1.97	0.530	0.2244800657821115	
1.975	-0.184	0.2093760188460237	
1.98	-0.101	0.18373830177838213	
1.985	0.505	0.15299387237202344	
1.99	-0.057	0.12519636420927172	
1.995	-0.251	0.0996453159142305	
2.0	0.290	0.07659729699222789	
2.005	0.085	0.053134060671007566	
2.01	-0.349	0.027103566334703726	
2.015	-0.020	0.0038745311177253864	
2.02	0.279	-0.01877402285187905	
2.025	-0.278	-0.034579388631342634	
2.03	-0.170	-0.039002607414796456	
2.035	0.423	-0.033182039464252945	
2.04	-0.083	-0.02094898552358947	
2.045	-0.237	-0.005097491747671497	
2.05	0.372	0.015592395102231723	
2.055	0.211	0.038892025640997425	
2.06	-0.268	0.057247790972116075	
2.065	0.111	0.07001164939356412	
2.07	0.394	0.07398884810075548	
2.075	-0.236	0.07241183615293906	
2.08	-0.152	0.06620981302051915	
2.085	0.437	0.0546730390642378	
2.09	-0.115	0.0439200059362112	
2.095	-0.291	0.03212474439265581	
2.1	0.223	0.018575190514095903	
2.105	0.003	-0.002336683760792155	
2.11	-0.390	-0.02859882774923656	
2.115	-0.063	-0.05183627377548018	
2.12	0.186	-0.07423845219878722	
2.125	-0.335	-0.0925933295282223	
2.13	-0.211	-0.09853844730941724	
2.135	0.293	-0.09644060006698138	
2.14	-0.211	-0.09326193723333408	
2.145	-0.387	-0.09267340856808934	
2.15	0.133	-0.09435547164412253	
2.155	0.120	-0.09656044343670883	
2.16	-0.223	-0.08051865534368685	
2.165	0.385	-0.03260808698438685	
2.17	0.823	0.054614047470518734	
2.175	0.017	0.16229080878091112	
2.18	0.130	0.24863095900939414	
2.185	0.657	0.2964837081197701	
2.19	-0.042	0.30655519958851307	
2.195	-0.286	0.2744775981874341	
2.2	0.157	0.20666803649311594	
2.205	-0.025	0.11722651916192782	
2.21	-0.401	0.029593910347091575	
2.215	-0.077	-0.03748433251234522	
2.22	0.110	-0.08962988802710989	
2.225	-0.364	-0.12869516162013078	
2.23	-0.242	-0.14606701698509378	
2.235	0.241	-0.14661292688623007	
2.24	-0.190	-0.1416236372102725	
2.245	-0.300	-0.1262664639968996	
2.25	0.250	-0.10121353618566845	
2.255	0.053	-0.07704972890336238	
2.26	-0.326	-0.057404650552731265	
2.265	0.055	-0.03824320986084301	
2.27	0.357	-0.0227745244469953	
2.275	-0.236	-0.004884351328802007	
2.28	-0.092	0.013151141036196684	
2.285	0.490	0.03143625629720628	
2.29	-0.046	0.049114322640355854	
2.295	-0.142	0.06782208860844818	
2.3	0.550	0.09399551213941894	
2.305	0.333	0.12975237550272484	
2.31	-0.210	0.16251458730089047	
2.315	0.259	0.179979771015489	
2.32	0.530	0.18714351147711	
2.325	-0.136	0.1909501616156804	
2.33	0.013	0.18933263128716615	
2.335	0.614	0.18446427379229846	
2.34	-0.029	0.17992241215186133	
2.345	-0.194	0.16892471314869278	
2.35	0.400	0.1500806778245603	
2.355	0.136	0.1285621102205138	
2.36	-0.286	0.10457314922161925	
2.365	0.091	0.0811572977564109	
2.37	0.330	0.0579768700897617	
2.375	-0.246	0.039895995814653126	
2.38	-0.106	0.030559624168086087	
2.385	0.463	0.02738680547699546	
2.39	-0.119	0.02974880533213781	
2.395	-0.208	0.03412536781945678	
2.4	0.438	0.044150145834733	
2.405	0.226	0.062336070171885	
2.41	-0.237	0.0836529257906693	
2.415	0.185	0.09932621197534904	
2.42	0.385	0.10477090665845407	
2.425	-0.239	0.10183554248007816	
2.43	-0.069	0.09378573365509071	
2.435	0.510	0.08528977226155657	
2.44	-0.095	0.08158336884218796	
2.445	-0.202	0.07833241536436	
2.45	0.372	0.07417182303210604	
2.455	0.059	0.06709218351526261	
2.46	-0.333	0.05177267122948552	
2.465	0.044	0.03249354650216547	
2.47	0.186	0.006554243998026806	
2.475	-0.350	-0.02318612598933975	
2.48	-0.176	-0.04597349518852999	
2.485	0.345	-0.05881712916537447	
2.49	-0.179	-0.06257787569021588	
2.495	-0.274	-0.05746252316396454	
2.5	0.246	-0.04777991981063394	
2.505	-0.023	-0.046135625889747664	
2.51	-0.339	-0.048153094405203614	
2.515	0.171	-0.04230462258048052	
2.52	0.541	-0.014582666120121855	
2.525	-0.078	0.037734484267354394	
2.53	0.235	0.10521942209753062	
2.535	0.900	0.18414666537541471	
2.54	0.111	0.2642456554280731	
2.545	-0.127	0.30962557412868086	
2.55	0.481	0.30823874277233076	
2.555	0.055	0.27171457985428715	
2.56	-0.368	0.2089286379481251	
2.565	-0.035	0.1287436347299261	
2.57	0.131	0.04323040553606773	
2.575	-0.352	-0.030191669819011904	
2.58	-0.210	-0.07760884125453264	
2.585	0.240	-0.10504121919825377	
2.59	-0.237	-0.1207975772799536	
2.595	-0.291	-0.12208181009139504	
2.6	0.261	-0.10779036232254656	
2.605	0.012	-0.0894947436576093	
2.61	-0.326	-0.07189762723541535	
2.615	0.078	-0.05212066574659679	
2.62	0.295	-0.035997742889896975	
2.625	-0.271	-0.021228954526815898	
2.63	-0.061	-0.0034083543480493807	
2.635	0.489	0.014868180683989138	
2.64	-0.115	0.035040190613112435	
2.645	-0.184	0.05106700319532451	
2.65	0.498	0.06826296598401556	
2.655	0.232	0.09133100279932765	
2.66	-0.228	0.11515992733651907	
2.665	0.255	0.1300022274661169	
2.67	0.429	0.1368504194022705	
2.675	-0.197	0.13974694586453285	
2.68	0.010	0.13775639020320046	
2.685	0.585	0.13476705508013082	
2.69	-0.060	0.1369469185233727	
2.695	-0.155	0.13725090657485853	
2.7	0.463	0.1332203534947612	
2.705	0.101	0.12614460279422685	
2.71	-0.301	0.11232732838969013	
2.715	0.097	0.0890840157413578	
2.72	0.220	0.056614100861093364	
2.725	-0.332	0.022823445589398327	
2.73	-0.165	-0.006030080921161423	
2.735	0.325	-0.03044140648594142	
2.74	-0.199	-0.046138316734938734	
2.745	-0.229	-0.04946117489120749	
2.75	0.414	-0.03683668346448274	
2.755	0.059	-0.013088762010301916	
2.76	-0.278	0.008533567133639916	
2.765	0.175	0.025195061134867705	
2.77	0.285	0.03534714127312211	
2.775	-0.275	0.038871895219491484	
2.78	-0.035	0.04018756648371438	
2.785	0.463	0.04237020884453803	
2.79	-0.159	0.046762639779438606	
2.795	-0.222	0.04675955805392812	
2.8	0.342	0.04208168842412624	
2.805	0.007	0.03372525300013207	
2.81	-0.338	0.020732011233101966	
2.815	0.030	0.0032538368143303505	
2.82	0.091	-0.024892325499281217	
2.825	-0.375	-0.05703656206739971	
2.83	-0.196	-0.08161554011357039	
2.835	0.223	-0.1008276475864335	
2.84	-0.245	-0.1133124728039521	
2.845	-0.317	-0.11498283802017319	
2.85	0.110	-0.11396836831356412	
2.855	-0.150	-0.12451400206095237	
2.86	-0.426	-0.13810304886383107	
2.865	-0.054	-0.14557003409831126	
2.87	0.084	-0.1541251360286668	
2.875	-0.321	-0.15509210721135241	
2.88	0.010	-0.13132568128397834	
2.885	0.750	-0.07186668212097859	
2.89	0.159	0.025454415193999706	
2.895	0.064	0.13118461566357148	
2.9	0.684	0.22014508735078597	
2.905	0.181	-0.07186668212097859	
2.91	-0.278	-0.07186668212097859	
2.915	0.082	0.2466255611704195	
2.92	0.079	0.16969383305479052	
2.925	-0.390	0.07780282661234397	
2.93	-0.181	-0.002089769911740677	
2.935	0.255	-0.06094174217447324	
2.94	-0.266	-0.09776098977756657	
2.945	-0.284	-0.1125891982261864	
2.95	0.290	-0.10871831534509574	
2.955	-0.054	-0.09703042225696147	
2.96	-0.304	-0.0810370368720219	
2.965	0.209	-0.05708879348286018	
2.97	0.316	-0.026470402793567632	
2.975	-0.255	0.0056343002296368435	
2.98	-0.037	0.030137728963119934	
2.985	0.473	0.04604409685021252	
2.99	-0.113	0.05898457878558754	
2.995	-0.156	0.07054461943785514	
3.0	0.482	0.08142233502151944	
3.005	0.119	0.0927369776014617	
3.01	-0.202	0.10396641715847543	
3.015	0.368	0.11613041709996041	
3.02	0.402	0.13137552235641056	
3.025	-0.231	0.14351236567053433	
3.03	0.062	0.14436477881708326	
3.035	0.602	0.1430196357002101	
3.04	-0.100	0.146795773526837	
3.045	-0.127	0.14669737766728663	
3.05	0.550	0.1434870900866677	
3.055	0.101	0.14354644380977716	
3.06	-0.252	0.13804545968710774	
3.065	0.221	0.12423661539618533	
3.07	0.212	0.10119090661076877	
3.075	-0.301	0.07154352566144931	
3.08	-0.060	0.04455040092062456	
3.085	0.403	0.02387045858028233	
3.09	-0.193	0.012719050146232475	
3.095	-0.205	0.007914151276254753	
3.1	0.388	0.009434528316541175	
3.105	0.006	0.013366966733628187	
3.11	-0.278	0.017214316112937222	
3.115	0.206	0.022323020505459965	
3.12	0.250	0.025988306999521364	
3.125	-0.277	0.02858921068765492	
3.13	-0.037	0.02971541395059537	
3.135	0.455	0.030712643605979265	
3.14	-0.165	0.03664585643929638	
3.145	-0.176	0.043109703773637195	
3.15	0.398	0.04637178177289533	
3.155	-0.038	0.04519568650316735	
3.16	-0.291	0.037377552341520494	
3.165	0.178	0.027388132720408326	
3.17	0.168	0.015780032255605127	
3.175	-0.358	0.0006549079547780143	
3.18	-0.133	-0.017119586042326034	
3.185	0.218	-0.04046558433264696	
3.19	-0.297	-0.06641915807436094	
3.195	-0.283	-0.08466823978286134	
3.2	0.261	-0.09167154248344003	
3.205	-0.089	-0.09297546836005116	
3.21	-0.338	-0.08847056500606709	
3.215	0.065	-0.08052027197118383	
3.22	0.030	-0.08242482513107408	
3.225	-0.402	-0.09534476033193694	
3.23	-0.135	-0.10391316428007094	
3.235	0.405	-0.10153716930363212	
3.24	-0.072	-0.07555248828198395	
3.245	0.111	-0.018497233909443987	
3.25	0.959	0.07841703611519545	
3.255	0.496	-0.06734079218485159	
3.26	-0.095	-0.06734079218485159	
3.265	0.391	-0.06734079218485159	
3.27	0.241	-0.06734079218485159	
3.275	-0.341	-0.06734079218485159	
3.28	-0.142	0.20319374258949904	
3.285	0.171	0.10035730377433698	
3.29	-0.327	0.004388186892771669	
3.295	-0.326	-0.06734079218485159	
3.3	0.160	-0.11565776398474734	
3.305	-0.127	-0.14530404960815863	
3.31	-0.352	-0.15325600324979544	
3.315	0.024	-0.14529078905971407	
3.32	0.001	-0.14178153496994506	
3.325	-0.384	-0.14335825769988286	
3.33	-0.118	-0.1365239750831307	
3.335	0.290	-0.12376573257755584	
3.34	-0.237	-0.10584773812515269	
3.345	-0.176	-0.08011979339484286	
3.35	0.466	-0.04554769618795186	
3.355	0.039	-0.005609998364655079	
3.36	-0.219	0.03075712823614272	
3.365	0.362	0.06298183395656987	
3.37	0.327	0.09205502565985639	
3.375	-0.239	0.11146234542345634	
3.38	0.067	0.11870889169323451	
3.385	0.524	0.11924551037101014	
3.39	-0.135	0.12091962615372442	
3.395	-0.077	0.12200381956468942	
3.4	0.614	0.12758201607526817	
3.405	0.114	0.14319926445352726	
3.41	-0.202	0.1547682269051423	
3.415	0.342	0.15613618703648463	
3.42	0.244	0.14692407461786502	
3.425	-0.309	0.1264112933962844	
3.43	-0.045	0.09587357059717427	
3.435	0.386	0.06217718301459199	
3.44	-0.225	0.03482013997066915	
3.445	-0.194	0.01816197338918735	
3.45	0.389	0.008573257058360729	
3.455	-0.058	0.004035983395711841	
3.46	-0.278	0.0028949585866008595	
3.465	0.247	0.005244441567336868	
3.47	0.194	0.010746938589711753	
3.475	-0.301	0.013428041005308094	
3.48	-0.028	0.01505342924405488	
3.485	0.414	0.014052286866132198	
3.49	-0.185	0.017710788054427686	
3.495	-0.135	0.02734811924428409	
3.5	0.489	0.040563732222809956	
3.505	-0.026	0.05484893627995611	
3.51	-0.262	0.06100541722894955	
3.515	0.269	0.06134318377837483	
3.52	0.214	0.0585665458467091	
3.525	-0.312	0.05144325105263832	
3.53	-0.051	0.039218609242875874	
3.535	0.293	0.01892124272738668	
3.54	-0.292	-0.00438141644546112	
3.545	-0.245	-0.02446839836896162	
3.55	0.273	-0.04146014189377646	
3.555	-0.133	-0.05731720608267662	
3.56	-0.333	-0.06685302194122916	
3.565	0.125	-0.06954891396484332	
3.57	0.032	-0.07563578299830731	
3.575	-0.385	-0.0855600542416872	
3.58	-0.121	-0.09156065416639184	
3.585	0.214	-0.09917683316743625	
3.59	-0.272	-0.1035517239427231	
3.595	-0.136	-0.09326379258036652	
3.6	0.690	-0.05235092157019665	
3.605	0.351	0.02847299215351785	
3.61	0.010	0.1301817126323762	
3.615	0.741	0.22862536525510604	
3.62	0.515	0.3111982667642763	
3.625	-0.208	0.3553280047239544	
3.63	0.078	0.3425821196892993	
3.635	0.351	0.2837459822852252	
3.64	-0.274	0.2053374916286363	
3.645	-0.236	0.12388598624010387	
3.65	0.284	0.051601762144080084	
3.655	-0.141	-0.0076976307990351085	
3.66	-0.347	-0.048645911697594454	
3.665	0.140	-0.07028187694426902	
3.67	0.064	-0.08400317959355033	
3.675	-0.353	-0.09057207516663632	
3.68	-0.063	-0.0871690092235799	
3.685	0.250	-0.08241948366580795	
3.69	-0.291	-0.07879490920875927	
3.695	-0.200	-0.07187421748708944	
3.7	0.369	-0.058395448830549465	
3.705	-0.084	-0.042952920093538724	
3.71	-0.262	-0.027543506166941522	
3.715	0.281	-0.008105902597350289	
3.72	0.185	0.00878947025274945	
3.725	-0.274	0.02134667026106169	
3.73	0.120	0.036064668036821	
3.735	0.553	0.05654312785318438	
3.74	-0.144	0.08601347626870878	
3.745	-0.052	0.11026003072356605	
3.75	0.623	0.12968949654097786	
3.755	0.075	0.1508654466403255	
3.76	-0.144	0.1664872264697129	
3.765	0.460	0.17502741555929124	
3.77	0.354	0.1826652642018393	
3.775	-0.228	0.18531791170407255	
3.78	0.085	0.175186128707982	
3.785	0.415	0.15043141509995384	
3.79	-0.211	0.1219544208215857	
3.795	-0.142	0.09543960096547835	
3.8	0.444	0.07263488624045579	
3.805	-0.064	0.05671894637279799	
3.81	-0.263	0.04466336164222797	
3.815	0.293	0.037081677634935695	
3.82	0.181	0.033451255173863076	
3.825	-0.281	0.03241045644076947	
3.83	0.024	0.03237166360715564	
3.835	0.328	0.027236030854716348	
3.84	-0.252	0.017885553942225938	
3.845	-0.118	0.013679823540288566	
3.85	0.533	0.02157205043277112	
3.855	0.009	0.04253073422279871	
3.86	-0.194	0.06483561606389074	
3.865	0.400	0.08615025984769464	
3.87	0.244	0.10222930861967779	
3.875	-0.255	0.11146387121598299	
3.88	0.097	0.1095375621022269	
3.885	0.350	0.09807176648384142	
3.89	-0.269	0.07782405568133344	
3.895	-0.194	0.05286549306273432	
3.9	0.331	0.025487865858907898	
3.905	-0.136	0.0003837469556026399	
3.91	-0.310	-0.019982480718879782	
3.915	0.174	-0.03280160620634602	
3.92	0.038	-0.046973557200291435	
3.925	-0.350	-0.059453351973229374	
3.93	-0.072	-0.0652846510955784	
3.935	0.188	-0.07509343825403694	
3.94	-0.330	-0.0872597544227216	
3.945	-0.232	-0.09291066343188717	
3.95	0.350	-0.08952293475819215	
3.955	-0.029	-0.07382365832024373	
3.96	-0.081	-0.03784677241305176	
3.965	0.808	0.034383146520274036	
3.97	0.750	0.15286104970495804	
3.975	0.047	0.2814813889471344	
3.98	0.461	-0.015657149790115232	
3.985	0.592	0.42079891275881615	
3.99	-0.188	0.4116192394292717	
3.995	-0.165	0.3511909391995029	
4.0	0.314	0.2564308531998408	
4.005	-0.179	0.1530853171199742	
4.01	-0.361	0.0602775055741664	
4.015	0.055	-0.015657149790115232	
4.02	-0.043	-0.08130986183864498	
4.025	-0.378	-0.12635380376895994	
4.03	-0.058	-0.14197382913255058	
4.035	0.220	-0.14135988703413194	
4.04	-0.287	-0.1303825380355631	
4.045	-0.168	-0.10755761408654715	
4.05	0.351	-0.07962912529969982	
4.055	-0.116	-0.05613417761455156	
4.06	-0.246	-0.03358153513701958	
4.065	0.330	-0.00951961391044767	
4.07	0.194	0.01346275757704607	
4.075	-0.237	0.03658707955621127	
4.08	0.218	0.0612507066015429	
4.085	0.518	0.08955918278985385	
4.09	-0.141	0.11842101957781091	
4.095	0.006	0.13960845998653182	
4.1	0.664	0.15845341191380685	
4.105	0.085	0.1796646922271138	
4.11	-0.097	0.1974652777527566	
4.115	0.580	0.21062928198987088	
4.12	0.376	0.22732325391647343	
4.125	-0.184	0.23754461932920418	
4.13	0.223	0.23338038456195512	
4.135	0.431	0.21346642886366274	
4.14	-0.228	0.18435510255840057	
4.145	-0.113	0.14775481307314303	
4.15	0.450	0.11040680520845705	
4.155	-0.100	0.08055632583193546	
4.16	-0.245	0.05761716061095253	
4.165	0.288	0.0406468554021118	
4.17	0.067	0.02514941770683246	
4.175	-0.315	0.0096510646123373	
4.18	0.055	0.0005205257956031797	
4.185	0.347	-0.00469624037181553	
4.19	-0.251	-0.0016588048921973276	
4.195	-0.127	0.004944615390663961	
4.2	0.455	0.012306811854422485	
4.205	-0.077	0.02341787295493424	
4.21	-0.174	0.03679527340073071	
4.215	0.476	0.05867991205939533	
4.22	0.252	0.0869607180746215	
4.225	-0.237	0.11173263072780501	
4.23	0.169	0.12362913604681462	
4.235	0.402	0.12411880626833788	
4.24	-0.240	0.11533240301796382	
4.245	-0.132	0.0991196067293377	
4.25	0.372	0.07418306731760443	
4.255	-0.156	0.04631364195886598	
4.26	-0.295	0.019988079690071027	
4.265	0.180	-0.004346631275097365	
4.27	-0.035	-0.03223656237124128	
4.275	-0.365	-0.059116011046010886	
4.28	-0.023	-0.07522558362203356	
4.285	0.211	-0.08508229594794528	
4.29	-0.315	-0.08968229555254736	
4.295	-0.217	-0.08565213682088174	
4.3	0.189	-0.08691130617775777	
4.305	-0.225	-0.09687719539897235	
4.31	-0.280	-0.10182325965820807	
4.315	0.504	-0.08021143881286599	
4.32	0.614	-0.01142072753582291	
4.325	0.166	0.10491768006412862	
4.33	0.842	0.24897444458445933	
4.335	1.051	0.39976256288954143	
4.34	0.065	-0.01142072753582291	
4.345	0.119	0.5624782892437973	
4.35	0.556	0.526020564243157	
4.355	-0.138	0.43797575016417206	
4.36	-0.301	0.32132879351450816	
4.365	0.124	0.19375890220050182	
4.37	-0.118	0.06835194986760121	
4.375	-0.425	-0.03692459113186414	
4.38	-0.109	-0.10888752435614645	
4.385	0.081	-0.1574726979406605	
4.39	-0.364	-0.18475816400201672	
4.395	-0.205	-0.18517110060228265	
4.4	0.304	-0.16610434036961058	
4.405	-0.170	-0.1382159715943248	
4.41	-0.272	-0.10540444439946292	
4.415	0.296	-0.0711723080072954	
4.42	0.072	-0.0419562103575918	
4.425	-0.275	-0.018873481236404744	
4.43	0.188	0.005340786450860668	
4.435	0.431	0.03332660119040608	
4.44	-0.174	0.0631012932273334	
4.445	0.032	0.09006014286723768	
4.45	0.641	0.11786805421795565	
4.455	0.006	0.14756879469200762	
4.46	-0.103	0.16873668942021164	
4.465	0.559	0.1819260949323781	
4.47	0.281	0.19585345799946946	
4.475	-0.207	0.2021687943008984	
4.48	0.279	0.19847088330035817	
4.485	0.434	0.1871672435972224	
4.49	-0.216	0.173088473184483	
4.495	-0.087	0.14922535619429123	
4.5	0.394	0.11573263556048216	
4.505	-0.156	0.08048667212892258	
4.51	-0.255	0.04896391984427398	
4.515	0.258	0.022876864677650627	
4.52	-0.029	-0.0033522864466714857	
4.525	-0.364	-0.02763742914643664	
4.53	-0.038	-0.049414567654701855	
4.535	0.087	-0.07609553330049762	
4.54	-0.361	-0.10187200818566289	
4.545	-0.181	-0.11450034799700111	
4.55	0.302	-0.11341830212597384	
4.555	-0.199	-0.10468815790272583	
4.56	-0.252	-0.08779300951618281	
4.565	0.362	-0.06207346944104955	
4.57	0.090	-0.03160971741754197	
4.575	-0.268	-0.003554451533933872	
4.58	0.168	0.02078167579530543	
4.585	0.325	0.038714703656676314	
4.59	-0.237	0.0500334345938952	
4.595	-0.060	0.055708101089285256	
4.6	0.475	0.05852668370787305	
4.605	-0.095	0.0631328972489973	
4.61	-0.202	0.0673597448983095	
4.615	0.336	0.06598659788562218	
4.62	0.021	0.05617843583485668	
4.625	-0.332	0.0385087941435248	
4.63	0.015	0.015956173654144104	
4.635	0.119	-0.015459961162444153	
4.64	-0.349	-0.049034253347440854	
4.645	-0.181	-0.07204874821833601	
4.65	0.269	-0.08552258669598962	
4.655	-0.237	-0.0940834701562735	
4.66	-0.309	-0.09446144015111463	
4.665	0.211	-0.09087185086271105	
4.67	0.032	-0.08506787536482953	
4.675	-0.181	-0.06647770298513331	
4.68	0.666	-0.006730823394388394	
4.685	1.091	0.11746762577371217	
4.69	0.405	0.28977924364956736	
4.695	0.751	0.4641171477221341	
4.7	1.118	0.6074858879739558	
4.705	0.201	0.6906610961012343	
4.71	-0.069	0.6805467284480489	
4.715	0.457	0.5912032192065069	
4.72	0.039	0.457816903239566	
4.725	-0.338	0.31353431783129426	
4.73	-0.019	0.17730265342168236	
4.735	0.090	0.0543256214989291	
4.74	-0.365	-0.042179801473853064	
4.745	-0.202	-0.10070642877247886	
4.75	0.247	-0.1305791614294819	
4.755	-0.213	-0.1403547803376337	
4.76	-0.242	-0.12820646595006624	
4.765	0.343	-0.09875784878060481	
4.77	0.046	-0.06338062292571288	
4.775	-0.268	-0.030401021824175693	
4.78	0.165	-0.0015475860027222184	
4.785	0.311	0.020155901405748147	
4.79	-0.229	0.036707299435688484	
4.795	-0.003	0.051465720520714985	
4.8	0.568	0.0684010582979627	
4.805	-0.037	0.09146351291574246	
4.81	-0.087	0.1158913161153063	
4.815	0.612	0.14033493071521858	
4.82	0.273	0.17146246532302148	
4.825	-0.142	0.19861563999474574	
4.83	0.437	0.2175867393812073	
4.835	0.563	0.23604834197078503	
4.84	-0.115	0.25166800054090244	
4.845	0.136	0.25558914083014594	
4.85	0.614	0.24931122969019404	
4.855	-0.057	0.2373908478965627	
4.86	-0.127	0.21603571025682336	
4.865	0.472	0.189278842532362	
4.87	0.087	0.16133836251668573	
4.875	-0.252	0.13378023589452587	
4.88	0.212	0.10861511045934043	
4.885	0.249	0.08385679503361883	
4.89	-0.289	0.06077455371972891	
4.895	-0.106	0.038736441474807155	
4.9	0.339	0.016122879932303644	
4.905	-0.188	-0.002626381675994935	
4.91	-0.222	-0.01273684492631605	
4.915	0.331	-0.01281541136279311	
4.92	-0.008	-0.011826694956120062	
4.925	-0.280	-0.01003503615714798	
4.93	0.232	-0.0003224919895689638	
4.935	0.345	0.01765702482066795	
4.94	-0.223	0.03983304976293158	
4.945	-0.002	0.059887741629956796	
4.95	0.504	0.07397196762840044	
4.955	-0.119	0.08530691526352191	
4.96	-0.171	0.09142748626434521	
4.965	0.403	0.08912346371952502	
4.97	0.023	0.08203487358725434	
4.975	-0.304	0.06710692881474214	
4.98	0.072	0.04570592664886455	
4.985	0.122	0.014461124508496875	
4.99	-0.352	-0.021087927071256903	
4.995	-0.159	-0.047944398152547925	
5.0	0.246	-0.07018660402585887	
5.005	-0.228	-0.0847568151541851	
5.01	-0.252	-0.08635353569902882	
5.015	0.252	-0.07890378740275691	
5.02	-0.101	-0.07416117021148128	
5.025	-0.370	-0.07476896169485275	
5.03	0.075	-0.07515222272930802	
5.035	0.263	-0.0707100877383881	
5.04	-0.144	-0.049114763336866964	
5.045	0.362	0.006278813783457205	
5.05	0.930	0.10477999050509934	
5.055	0.215	0.2240709594345424	
5.06	0.047	0.31771563410525405	
5.065	0.638	0.3641201119865555	
5.07	0.091	0.3636979234144684	
5.075	-0.295	0.31925408025229224	
5.08	0.110	0.241903541103626	
5.085	0.146	0.15119477778625895	
5.09	-0.330	0.06690318635308298	
5.095	-0.121	0.005341168127690824	
5.1	0.253	-0.03933637471562348	
5.105	-0.236	-0.06892914605980613	
5.11	-0.258	-0.08109671043833812	
5.115	0.244	-0.08089179519301551	
5.12	-0.061	-0.07941005827876918	
5.125	-0.310	-0.07361430806720323	
5.13	0.110	-0.0619936356965641	
5.135	0.188	-0.05296556081199181	
5.14	-0.278	-0.04314428296029836	
5.145	-0.003	-0.026493122660074767	
5.15	0.519	-0.0013780419768435748	
5.155	-0.098	0.03290848248117881	
5.16	-0.095	0.06600750473229186	
5.165	0.597	0.09919721153185825	
5.17	0.240	0.13743513910541927	
5.175	-0.150	0.17238639512394494	
5.18	0.415	0.19613188811378163	
5.185	0.473	0.21293450583028256	
5.19	-0.144	0.22380212415995093	
5.195	0.171	0.22462104497146143	
5.2	0.664	0.22555827012863783	
5.205	-0.042	0.22884154471269363	
5.21	-0.081	0.22412596986121244	
5.215	0.553	0.2101453444439572	
5.22	0.068	0.19433149518822118	
5.225	-0.239	0.17053108465955497	
5.23	0.214	0.14013403693447002	
5.235	0.220	0.10577458812788514	
5.24	-0.283	0.0719362879793555	
5.245	-0.092	0.043719954648105734	
5.25	0.290	0.013347040190543686	
5.255	-0.210	-0.012125372200202936	
5.26	-0.197	-0.02464471221512507	
5.265	0.394	-0.022987667534197183	
5.27	0.012	-0.010800779247234327	
5.275	-0.257	0.0037526748726780155	
5.28	0.209	0.018149323142869038	
5.285	0.246	0.028547294264670592	
5.29	-0.269	0.034040130622235126	
5.295	-0.013	0.03787457524481884	
5.3	0.376	0.03615113490594131	
5.305	-0.179	0.03382807588396816	
5.31	-0.159	0.03255852939585448	
5.315	0.408	0.034920177986816764	
5.32	0.012	0.040042207560089055	
5.325	-0.245	0.04293129069466802	
5.33	0.226	0.04619697807307098	
5.335	0.168	0.043343583116412815	
5.34	-0.330	0.03210755504092791	
5.345	-0.112	0.013023871016140574	
5.35	0.233	-0.013006893150068677	
5.355	-0.287	-0.04122226005947804	
5.36	-0.268	-0.06325423499381369	
5.365	0.255	-0.07513031064018341	
5.37	-0.112	-0.08210105479586655	
5.375	-0.362	-0.08593648273467447	
5.38	0.023	-0.08873667277919767	
5.385	0.046	-0.09882036479509124	
5.39	-0.342	-0.10886134283766341	
5.395	-0.049	-0.10480112476002063	
5.4	0.539	-0.07908106558140707	
5.405	-0.013	-0.02531388939098461	
5.41	0.049	0.04388538297180399	
5.415	0.777	0.1228798170758596	
5.42	0.282	0.20474770880286683	
5.425	-0.167	0.26211371945304174	
5.43	0.299	0.2743071457890264	
5.435	0.194	0.24503037478800874	
5.44	-0.321	0.19016949103870315	
5.445	-0.118	0.12230077588416172	
5.45	0.204	0.04975534463144076	
5.455	-0.280	-0.015342395374788993	
5.46	-0.245	-0.05890717976854398	
5.465	0.244	-0.08120534607412201	
5.47	-0.101	-0.09140451196997174	
5.475	-0.300	-0.09065861059047292	
5.48	0.175	-0.07757793323270745	
5.485	0.136	-0.06118783679412699	
5.49	-0.309	-0.04779616692526073	
5.495	-0.077	-0.03749298777682453	
5.5	0.295	-0.033386177781718596	
5.505	-0.182	-0.03048470053291976	
5.51	-0.118	-0.018714543334166556	
5.515	0.522	0.006823236597336352	
5.52	0.073	0.044391338364054726	
5.525	-0.199	0.0764060069257055	
5.53	0.325	0.0985459157648051	
5.535	0.282	0.11165657227910657	
5.54	-0.234	0.11617359611578937	
5.545	0.061	0.11166819818930858	
5.55	0.510	0.10654334189000791	
5.555	-0.126	0.10742372076205464	
5.56	-0.077	0.11041060794983978	
5.565	0.507	0.11379316915441577	
5.57	0.044	0.11927117277191016	
5.575	-0.219	0.11752856623343273	
5.58	0.287	0.11058417885619717	
5.585	0.212	0.09950836546055963	
5.59	-0.281	0.08325198253555806	
5.595	-0.028	0.06377178121562094	
5.6	0.275	0.038383123879196256	
5.605	-0.242	0.011414133981576407	
5.61	-0.214	-0.00941855713721026	
5.615	0.287	-0.024294741624132934	
5.62	-0.115	-0.036839822088905294	
5.625	-0.310	-0.04631028778404382	
5.63	0.180	-0.04837977907167778	
5.635	0.136	-0.04565104136552282	
5.64	-0.298	-0.03968662669282859	
5.645	-0.020	-0.03109887907695084	
5.65	0.391	-0.02073453269986755	
5.655	-0.190	-0.004636816145897528	
5.66	-0.141	0.011719642492304044	
5.665	0.496	0.02966318586545634	
5.67	0.010	0.052051281931046335	
5.675	-0.228	0.0687959054999162	
5.68	0.314	0.07763189738375842	
5.685	0.180	0.0812094703269035	
5.69	-0.315	0.07238518346976462	
5.695	-0.109	0.05096814171848833	
5.7	0.194	0.013108824185211173	
5.705	-0.294	-0.02861260024638818	
5.71	-0.237	-0.05811696001863164	
5.715	0.256	-0.07544526373744782	
5.72	-0.156	-0.08504119083404615	
5.725	-0.335	-0.09003057994384402	
5.73	0.125	-0.08835377045795903	
5.735	0.023	-0.08895694569488731	
5.74	-0.384	-0.09253566991444878	
5.745	-0.136	-0.09789228020120257	
5.75	0.204	-0.1050156940855893	
5.755	-0.226	-0.10667369189445462	
5.76	-0.077	-0.08795554736324339	
5.765	0.686	-0.038441210185609316	
5.77	0.324	0.046841876812020296	
5.775	0.003	0.14404686778822667	
5.78	0.663	0.23068772626965436	
5.785	0.449	0.29790402532175103	
5.79	-0.196	0.32847440288992175	
5.795	0.032	0.30816575958785847	
5.8	0.263	0.24484795411875118	
5.805	-0.309	0.16032688391108793	
5.81	-0.271	0.07517255532121626	
5.815	0.137	-0.003582356023789964	
5.82	-0.193	-0.0712464638148338	
5.825	-0.361	-0.11672935872311223	
5.83	0.061	-0.13730115753472744	
5.835	0.000	-0.14828353694326543	
5.84	-0.388	-0.1513721618789306	
5.845	-0.135	-0.14664004104400344	
5.85	0.177	-0.14133386745111726	
5.855	-0.289	-0.13574776671142197	
5.86	-0.217	-0.12160100020711694	
5.865	0.266	-0.10361705052900078	
5.87	-0.130	-0.08747762329265212	
5.875	-0.294	-0.0736184779301791	
5.88	0.181	-0.059156258170933326	
5.885	0.113	-0.047490738132880884	
5.89	-0.307	-0.03842592580588937	
5.895	-0.017	-0.029410759653504873	
5.9	0.376	-0.021405470098851326	
5.905	-0.196	-0.007937527368393154	
5.91	-0.109	0.00957868471255565	
5.915	0.486	0.029466832923127073	
5.92	-0.016	0.05229422122424201	
5.925	-0.220	0.06743404971579425	
5.93	0.305	0.0750248949970712	
5.935	0.181	0.07533248404195608	
5.94	-0.262	0.07150588318008619	
5.945	0.039	0.06280593870334354	
5.95	0.308	0.049511878740869576	
5.955	-0.262	0.03388999596931788	
5.96	-0.187	0.015763687714434316	
5.965	0.313	-0.0014876611197200576	
5.97	-0.129	-0.015916397605145485	
5.975	-0.277	-0.026460484323836415	
5.98	0.208	-0.030808715640230817	
5.985	0.081	-0.03186054112081987	
5.99	-0.315	-0.03353366159296407	
5.995	-0.009	-0.03297212916168604	
6.0	0.308	-0.03157317382592405	
6.005	-0.245	-0.027268685957996884	
6.01	-0.145	-0.019050316687260406	
6.015	0.414	-0.008437043547630103	
6.02	-0.098	0.0038674182622869804	
6.025	-0.252	0.01160586368512039	
6.03	0.263	0.016348767757348465	
6.035	0.125	0.018971510248007077	
6.04	-0.298	0.0174096921658301	
6.045	-0.008	0.012218750362857583	
6.05	0.253	0.0003534079325986976	
6.055	-0.297	-0.014421008521836792	
6.06	-0.228	-0.029889904862267235	
6.065	0.206	-0.048392832651006586	
6.07	-0.203	-0.07032796016031514	
6.075	-0.361	-0.0903129475830767	
6.08	0.042	-0.1054857398360141	
6.085	-0.054	-0.12420870316992833	
6.09	-0.398	-0.1406554583184006	
6.095	-0.109	-0.14553084425766238	
6.1	0.116	-0.14869897741979837	
6.105	-0.361	-0.1526583105143723	
6.11	-0.243	-0.1496961882763802	
6.115	0.330	-0.13522118629935345	
6.12	-0.019	-0.10660223297911313	
6.125	-0.078	-0.05831834962917776	
6.13	0.744	0.02184744617699277	
6.135	0.660	0.13566740460001733	
6.14	-0.031	0.2520855323160243	
6.145	0.369	0.32866458333377935	
6.15	0.547	0.35934812353918155	
6.155	-0.188	0.3480765597091787	
6.16	-0.141	0.29536069757549643	
6.165	0.290	0.21591242310338238	
6.17	-0.167	0.12723133749712992	
6.175	-0.317	0.048670558450179896	
6.18	0.156	-0.01001825114845647	
6.185	0.039	-0.051449415274601534	
6.19	-0.336	-0.07593991797792107	
6.195	-0.040	-0.08311202720089722	
6.2	0.235	-0.08467935905658447	
6.205	-0.272	-0.08206956349777447	
6.21	-0.148	-0.06945109685780616	
6.215	0.441	-0.04797923384285674	
6.22	-0.055	-0.019005147349330936	
6.225	-0.207	0.009676204921193837	
6.23	0.400	0.0371911252505093	
6.235	0.256	0.06639508463424651	
6.24	-0.205	0.09291215512630296	
6.245	0.209	0.11309926669070193	
6.25	0.504	0.13032009651005785	
6.255	-0.127	0.14571995351101258	
6.26	0.036	0.15666252537054942	
6.265	0.649	0.16912932815994708	
6.27	0.120	0.1888216973957173	
6.275	-0.061	0.20769337754864609	
6.28	0.603	0.22533315568857246	
6.285	0.394	0.24528405404826725	
6.29	-0.145	0.25986152435721926	
6.295	0.304	0.2602211066088007	
6.3	0.536	0.25226178581844916	
6.305	-0.144	0.23965426960437888	
6.31	-0.054	0.21576502699872444	
6.315	0.455	0.1820818721903606	
6.32	-0.089	0.1447358520296933	
6.325	-0.208	0.1088210507307153	
6.33	0.357	0.08234020907885664	
6.335	0.172	0.0681579442244046	
6.34	-0.272	0.060971113126021576	
6.345	0.053	0.05329750102659908	
6.35	0.343	0.04209921973808209	
6.355	-0.214	0.03469526264826155	
6.36	-0.083	0.033936681886234735	
6.365	0.489	0.04095770303099485	
6.37	-0.022	0.05365399232399168	
6.375	-0.153	0.07000282591244933	
6.38	0.453	0.08929954059430745	
6.385	0.249	0.1109801748038858	
6.39	-0.202	0.12810749737719979	
6.395	0.203	0.1373809764481997	
6.4	0.429	0.13990243476825542	
6.405	-0.203	0.13572484196474088	
6.41	-0.092	0.12409144884315151	
6.415	0.366	0.10079829299221824	
6.42	-0.156	0.07157882592767771	
6.425	-0.294	0.03920572814747508	
6.43	0.178	0.008243638762618294	
6.435	-0.006	-0.023194293986411554	
6.44	-0.333	-0.04971714104133538	
6.445	-0.017	-0.0635178084988567	
6.45	0.174	-0.07330819990751308	
6.455	-0.307	-0.0822491461482813	
6.46	-0.207	-0.08369914879155224	
6.465	0.183	-0.0863160172946015	
6.47	-0.228	-0.0975673731706399	
6.475	-0.286	-0.1036128544761153	
6.48	0.383	-0.08866729656306754	
6.485	0.365	-0.0443650980178368	
6.49	-0.040	0.028305215834225256	
6.495	0.623	0.12365552111670142	
6.5	0.906	0.23760359839077322	
6.505	0.061	0.3466231228575186	
6.51	0.142	0.4083811446588673	
6.515	0.579	0.41365619380338847	
6.52	-0.084	0.3733219531563285	
6.525	-0.269	0.29745071855106364	
6.53	0.154	0.20231504974996461	
6.535	-0.045	0.099513568177494	
6.54	-0.396	0.008399978457142965	
6.545	-0.097	-0.05828213188095823	
6.55	0.125	-0.10954771338396933	
6.555	-0.309	-0.13931260526223044	
6.56	-0.167	-0.14038563393647754	
6.565	0.328	-0.12341075862331624	
6.57	-0.141	-0.0978031499888688	
6.575	-0.226	-0.06836809231327497	
6.58	0.334	-0.035607751291525214	
6.585	0.128	-0.004702617918404864	
6.59	-0.242	0.02040096924269141	
6.595	0.181	0.043900459194292224	
6.6	0.408	0.0643272945138571	
6.605	-0.159	0.08353725984837465	
6.61	0.032	0.10077757024383482	
6.615	0.585	0.12061877880896366	
6.62	0.033	0.1420143784459108	
6.625	-0.077	0.16069980768780429	
6.63	0.614	0.18052118020654323	
6.635	0.383	0.20917205960134322	
6.64	-0.136	0.2363705461691246	
6.645	0.333	0.2480146754229298	
6.65	0.542	0.2502550455915955	
6.655	-0.124	0.24748740580604098	
6.66	0.018	0.23287704001115145	
6.665	0.530	0.20955524857361038	
6.67	-0.060	0.18395396297555075	
6.675	-0.188	0.1558341591685818	
6.68	0.327	0.12547133323304702	
6.685	0.059	0.0930346078128576	
6.69	-0.301	0.06053002127351997	
6.695	0.030	0.03208355753378818	
6.7	0.208	0.0030586073471239004	
6.705	-0.281	-0.02144731795790777	
6.71	-0.115	-0.03292826118327406	
6.715	0.397	-0.03258816297333453	
6.72	-0.133	-0.022139433773029155	
6.725	-0.207	-0.008964805074007605	
6.73	0.368	0.00745588946565991	
6.735	0.157	0.027855692906766684	
6.74	-0.223	0.0486506961036598	
6.745	0.198	0.06717926471741129	
6.75	0.368	0.08087321970623645	
6.755	-0.210	0.08955955352349966	
6.76	-0.066	0.0902220481923969	
6.765	0.414	0.08227195619497293	
6.77	-0.139	0.07077769805130188	
6.775	-0.234	0.055224304210831646	
6.78	0.311	0.04041276078306348	
6.785	0.006	0.02568536848397743	
6.79	-0.332	0.00779939963449931	
6.795	-0.014	-0.011744900893424722	
6.8	0.091	-0.03932653390889069	
6.805	-0.349	-0.07139286467923489	
6.81	-0.176	-0.09058489074136655	
6.815	0.261	-0.09884784955151676	
6.82	-0.239	-0.10132468653970639	
6.825	-0.335	-0.10060509207380976	
6.83	0.075	-0.10458103740021536	
6.835	-0.095	-0.11849578271427885	
6.84	-0.312	-0.1281177594202897	
6.845	0.313	-0.10555582929824404	
6.85	0.805	-0.03240774813614244	
6.855	0.259	0.09354170722059219	
6.86	0.654	0.24855992966154158	
6.865	1.152	0.409123551783399	
6.87	0.276	0.5394976238294185	
6.875	-0.048	0.589410087295418	
6.88	0.432	0.5504300532387205	
6.885	-0.022	0.4463992286428552	
6.89	-0.391	0.3089152326758038	
6.895	-0.100	0.164456922681703	
6.9	-0.022	0.025457393315876795	
6.905	-0.430	-0.09041488108357501	
6.91	-0.280	-0.16531267905481029	
6.915	0.111	-0.20696180536311792	
6.92	-0.269	-0.22650098211505204	
6.925	-0.304	-0.21935270943776297	
6.93	0.214	-0.18951485664307618	
6.935	-0.008	-0.1537539273957535	
6.94	-0.294	-0.11603591209759537	
6.945	0.127	-0.07639512719089012	
6.95	0.307	-0.03966335231444051	
6.955	-0.226	-0.006559440801825286	
6.96	-0.022	0.021815638505382873	
6.965	0.516	0.04807359607166831	
6.97	-0.068	0.07331120649994827	
6.975	-0.130	0.09366927274100616	
6.98	0.536	0.11162327786272044	
6.985	0.292	0.13714059292094924	
6.99	-0.129	0.1669067966754812	
6.995	0.368	0.190732592835272	
7.0	0.496	0.2082909033943751	
7.005	-0.142	0.21935193968177033	
7.01	0.085	0.2169159160162965	
7.015	0.625	0.21006713772270208	
7.02	-0.020	0.2062264003783169	
7.025	-0.107	0.19876108131386705	
7.03	0.472	0.18462174722704688	
7.035	0.116	0.1680179862893925	
7.04	-0.268	0.14499876094928257	
7.045	0.108	0.11478884423149399	
7.05	0.165	0.07413827456461573	
7.055	-0.307	0.03040944184650485	
7.06	-0.127	-0.003927861864780796	
7.065	0.336	-0.026065530201320148	
7.07	-0.165	-0.03683650335378183	
7.075	-0.226	-0.03604784540121389	
7.08	0.296	-0.028405225709543503	
7.085	0.007	-0.02114961368543332	
7.09	-0.272	-0.015881264241553433	
7.095	0.188	-0.004093629779022377	
7.1	0.336	0.01198737146375918	
7.105	-0.222	0.032385274969340946	
7.11	-0.019	0.04921256818267471	
7.115	0.493	0.06285395944034529	
7.12	-0.101	0.077055424228032	
7.125	-0.184	0.08407304656501904	
7.13	0.386	0.08359999252560671	
7.135	0.075	0.07972024353897203	
7.14	-0.281	0.07120306435573927	
7.145	0.064	0.05596349339664232	
7.15	0.120	0.02582381433113309	
7.155	-0.344	-0.009583170281967935	
7.16	-0.147	-0.039620842261624614	
7.165	0.259	-0.06126244302371626	
7.17	-0.222	-0.07503402627102476	
7.175	-0.263	-0.0787336713782516	
7.18	0.191	-0.07639389157329246	
7.185	-0.107	-0.08047995288138432	
7.19	-0.425	-0.09070759291579354	
7.195	-0.106	-0.1068761018708617	
7.2	0.049	-0.13234033456678812	
7.205	-0.262	-0.1486464985909577	
7.21	0.249	-0.11936543308757049	
7.215	1.081	-0.019229434876698707	
7.22	0.571	0.14978256420979397	
7.225	0.536	0.34235754534227364	
7.23	1.113	0.5166969477879493	
7.235	0.516	-0.019229434876698707	
7.24	-0.136	-0.019229434876698707	
7.245	0.201	0.6042282869038296	
7.25	0.110	0.46756429496127583	
7.255	-0.393	0.3002820639324162	
7.26	-0.226	0.14072083696158275	
7.265	0.116	0.004686767709865035	
7.27	-0.284	-0.09629996615836234	
7.275	-0.294	-0.15246860578805263	
7.28	0.194	-0.16823756467450784	
7.285	-0.081	-0.16479754979574596	
7.29	-0.353	-0.1496468861102226	
7.295	0.027	-0.12858064197896596	
7.3	0.163	-0.11156767250977978	
7.305	-0.281	-0.09381295718736066	
7.31	-0.077	-0.07009466232738293	
7.315	0.400	-0.044336622032698315	
7.32	-0.124	-0.01753887353966794	
7.325	-0.127	0.010618065043215247	
7.33	0.536	0.044915522258168306	
7.335	0.212	0.08700360615229714	
7.34	-0.144	0.12629531138855393	
7.345	0.431	0.16063788737797252	
7.35	0.534	0.19436019476307173	
7.355	-0.109	0.22501825814995607	
7.36	0.236	0.2440519728403254	
7.365	0.738	0.2617129287661878	
7.37	0.020	0.28030714476840035	
7.375	-0.046	0.28265693619866084	
7.38	0.571	0.26896959167496043	
7.385	0.197	0.25191275082990083	
7.39	-0.197	0.23033911184733752	
7.395	0.304	0.20367990188308255	
7.4	0.362	0.1772610460659085	
7.405	-0.245	0.1530842562685194	
7.41	-0.064	0.12412892234092959	
7.415	0.327	0.08755374155262127	
7.42	-0.202	0.04933006226621518	
7.425	-0.193	0.019860093396416305	
7.43	0.366	0.0068626374998340175	
7.435	0.026	0.00479492375758941	
7.44	-0.240	0.008536030418286402	
7.445	0.232	0.020694055300078753	
7.45	0.279	0.034064923101544825	
7.455	-0.245	0.045178199126540426	
7.46	0.001	0.05325934506137935	
7.465	0.486	0.060402634254721345	
7.47	-0.087	0.07230743564836672	
7.475	-0.103	0.08600522558105586	
7.48	0.487	0.09976987550214454	
7.485	0.087	0.11169106509187096	
7.49	-0.222	0.1166745752332344	
7.495	0.269	0.11368574195940297	
7.5	0.285	0.10791742444397778	
7.505	-0.262	0.09828727114963733	
7.51	-0.104	0.07933426807726443	
7.515	0.230	0.04521278593694445	
7.52	-0.252	0.00433061438165452	
7.525	-0.266	-0.02980481545068228	
7.53	0.224	-0.05335159850570131	
7.535	-0.092	-0.07041616500665496	
7.54	-0.330	-0.0811215464591257	
7.545	0.039	-0.0832998741407241	
7.55	0.018	-0.0912892404636618	
7.555	-0.390	-0.1066294550849268	
7.56	-0.170	-0.11749431126909139	
7.565	0.285	-0.11990925446529384	
7.57	-0.121	-0.10774176321537356	
7.575	0.006	-0.06763340240150117	
7.58	0.849	0.012680545621621036	
7.585	0.537	0.1324593121176246	
7.59	0.007	0.2559080474803336	
7.595	0.499	-0.04443271997529901	
7.6	0.363	-0.04443271997529901	
7.605	-0.252	-0.04443271997529901	
7.61	-0.080	0.28157205910575284	
7.615	0.233	0.1899727680941812	
7.62	-0.272	0.09524147586763165	
7.625	-0.278	0.01550366694721534	
7.63	0.152	-0.04443271997529901	
7.635	-0.132	-0.09066701658861305	
7.64	-0.358	-0.11887553344729355	
7.645	0.024	-0.128174225103956	
7.65	0.039	-0.1335977582729168	
7.655	-0.341	-0.13556057093870272	
7.66	-0.113	-0.12620822510892837	
7.665	0.288	-0.11114977824244868	
7.67	-0.202	-0.09091048434509555	
7.675	-0.167	-0.06531802611334206	
7.68	0.452	-0.03138154293749708	
7.685	0.058	0.007114202221746968	
7.69	-0.216	0.041152974986984954	
7.695	0.285	0.06598889834873237	
7.7	0.339	0.08626589279989835	
7.705	-0.211	0.1023509725448266	
7.71	0.076	0.1109537417542196	
7.715	0.550	0.11781409000922999	
7.72	-0.060	0.12996089183705223	
7.725	-0.025	0.14380452205425148	
7.73	0.621	0.15964266257648602	
7.735	0.137	0.18097226444591763	
7.74	-0.190	0.19023596476484383	
7.745	0.305	0.18305067544685039	
7.75	0.250	0.1641141619383871	
7.755	-0.254	0.13740582974492213	
7.76	-0.008	0.10707764212678117	
7.765	0.362	0.07666177318937259	
7.77	-0.179	0.05194545399094379	
7.775	-0.174	0.03498684727093246	
7.78	0.321	0.022533301215257713	
7.785	-0.072	0.010850831881665735	
7.79	-0.291	-0.002560004701946086	
7.795	0.152	-0.010922431001094855	
7.8	0.180	-0.017079158293420126	
7.805	-0.278	-0.018488873102284566	
7.81	-0.052	-0.014782163392685534	
7.815	0.296	-0.01552495553658515	
7.82	-0.200	-0.017100948633817635	
7.825	-0.135	-0.012808678953408282	
7.83	0.504	0.005480892865735271	
7.835	0.038	0.034699563500315146	
7.84	-0.216	0.060573309784558056	
7.845	0.272	0.07612506502565491	
7.85	0.233	0.08274100923753132	
7.855	-0.258	0.0805561939255505	
7.86	-0.026	0.07134871072618376	
7.865	0.288	0.05133708294638169	
7.87	-0.258	0.02585284759906999	
7.875	-0.231	0.00034896062791283717	
7.88	0.272	-0.021590764605148142	
7.885	-0.097	-0.03842445623990616	
7.89	-0.307	-0.04926393948752693	
7.895	0.127	-0.052819677676345836	
7.9	0.088	-0.056437242271452644	
7.905	-0.335	-0.06038896994392399	
7.91	-0.144	-0.06449326151096782	
7.915	0.096	-0.07980225815685807	
7.92	-0.321	-0.10523946789517005	
7.925	-0.280	-0.1234576370000079	
7.93	0.279	-0.1255736406522296	
7.935	0.024	-0.10960812210525206	
7.94	-0.107	-0.07016917288308663	
7.945	0.625	0.0013579386019001783	
7.95	0.608	0.10442484758067935	
7.955	-0.068	0.20551023865904997	
7.96	0.174	-0.06449326151096782	
7.965	0.438	-0.07016917288308663	
7.97	-0.211	-0.07016917288308663	
7.975	-0.216	0.1986159657442351	
7.98	0.183	0.12444196931654686	
7.985	-0.184	0.043275727583604595	
7.99	-0.367	-0.028116235053514387	
7.995	0.044	-0.07958756651731877	
8.0	0.010	-0.11569418585234738	
8.005	-0.362	-0.1374495530507729	
8.01	-0.097	-0.1391767823957772	
8.015	0.252	-0.1298873415256465	
8.02	-0.272	-0.114476442021978	
8.025	-0.243	-0.09724394960533847	
8.03	0.307	-0.08049561239672562	
8.035	-0.049	-0.0628906706635228	
8.04	-0.248	-0.04310437442925211	
8.045	0.273	-0.018445217408903314	
8.05	0.243	0.008194430721421562	
8.055	-0.225	0.03344394693770315	
8.06	0.094	0.05496458282536966	
8.065	0.516	0.07611320996325732	
8.07	-0.116	0.09937926157904059	
8.075	-0.086	0.11583718068318137	
8.08	0.505	0.12257564636130833	
8.085	0.072	0.1289778651204907	
8.09	-0.165	0.13291633761793475	
8.095	0.412	0.136657753157077	
8.1	0.336	0.14509713871537144	
8.105	-0.219	0.15142444431428237	
8.11	0.050	0.14506485575638828	
8.115	0.392	0.12602244401676455	
8.12	-0.184	0.10333515181107879	
8.125	-0.135	0.08298895898535377	
8.13	0.408	0.06552985716939683	
8.135	-0.066	0.052857217353433336	
8.14	-0.306	0.038053934033787616	
8.145	0.114	0.016679295634853767	
8.15	0.075	-0.011085533652821947	
8.155	-0.318	-0.035473280157571965	
8.16	-0.040	-0.04876729124170408	
8.165	0.292	-0.05315067850262199	
8.17	-0.243	-0.050717955078255515	
8.175	-0.179	-0.042797682443655394	
8.18	0.406	-0.03054325607476698	
8.185	-0.019	-0.01031274048424222	
8.19	-0.200	0.011238686070073568	
8.195	0.351	0.03575216069587881	
8.2	0.261	0.06269847286804325	
8.205	-0.228	0.08357924921385898	
8.21	0.058	0.09237462030974807	
8.215	0.366	0.08866664536471024	
8.22	-0.205	0.0792433146829252	
8.225	-0.159	0.06440070464940416	
8.23	0.321	0.04634629461611699	
8.235	-0.103	0.025545514170488184	
8.24	-0.286	0.005441241409685806	
8.245	0.146	-0.011233804671536507	
8.25	0.026	-0.029519385797194327	
8.255	-0.349	-0.05029751595136494	
8.26	-0.098	-0.06645911832713852	
8.265	0.172	-0.08152720556713303	
8.27	-0.303	-0.0957977853044492	
8.275	-0.240	-0.10137526155078688	
8.28	0.230	-0.10171672566860478	
8.285	-0.138	-0.09962984163119873	
8.29	-0.281	-0.09240476473277079	
8.295	0.301	-0.07112822188822246	
8.3	0.343	-0.03169203630698439	
8.305	-0.075	0.025719161201602975	
8.31	0.493	0.10172076778997913	
8.315	0.808	0.19638370916059122	
8.32	-0.008	0.28507770238879243	
8.325	-0.002	0.3267007253418686	
8.33	0.498	0.31924569270101905	
8.335	-0.078	0.27828075616411196	
8.34	-0.318	0.2116708190865375	
8.345	0.053	0.1268335955425366	
8.35	-0.058	0.03520440878199037	
8.355	-0.416	-0.048156663217419356	
8.36	-0.153	-0.10725265631902127	
8.365	0.088	-0.1497791828393259	
8.37	-0.347	-0.17581053118233245	
8.375	-0.262	-0.18209815501933596	
8.38	0.204	-0.17287641224019523	
8.385	-0.150	-0.15678919647430034	
8.39	-0.304	-0.13513786894920854	
8.395	0.128	-0.11016364068046117	
8.4	-0.005	-0.0949757032948477	
8.405	-0.346	-0.08910914045551374	
8.41	-0.043	-0.08413965576791904	
8.415	0.275	-0.07689337776672289	
8.42	-0.245	-0.064881837415831	
8.425	-0.177	-0.04997913487759732	
8.43	0.321	-0.037888494598918625	
8.435	-0.103	-0.028918124154460337	
8.44	-0.268	-0.022070947090730368	
8.445	0.212	-0.016072510918850334	
8.45	0.113	-0.013085446725282453	
8.455	-0.300	-0.011126898282194729	
8.46	0.003	-0.01001274196828221	
8.465	0.311	-0.010959422441579818	
8.47	-0.231	-0.008981146000506021	
8.475	-0.141	-0.004846827711301543	
8.48	0.372	0.00013958556094560048	
8.485	-0.110	0.004930212277511867	
8.49	-0.277	0.004992223452477413	
8.495	0.224	0.0010382612824997924	
8.5	0.050	-0.005221584839535739	
8.505	-0.350	-0.0171552196704831	
8.51	-0.077	-0.032864925006425245	
8.515	0.195	-0.053029913117309965	
8.52	-0.306	-0.0710833927211093	
8.525	-0.202	-0.0797037124084012	
8.53	0.299	-0.07983333766290253	
8.535	-0.107	-0.07221715960417774	
8.54	-0.245	-0.05793027593186829	
8.545	0.272	-0.03784302989236177	
8.55	0.139	-0.016363536136822125	
8.555	-0.265	0.0028093820805935046	
8.56	0.091	0.01830311899730479	
8.565	0.374	0.030908507516430105	
8.57	-0.210	0.04277853352621926	
8.575	-0.112	0.04942276752260351	
8.58	0.412	0.051202327651884705	
8.585	-0.078	0.05061889197666941	
8.59	-0.236	0.04612555132854624	
8.595	0.211	0.038267985064808	
8.6	0.027	0.021494517235526114	
8.605	-0.365	-0.004220618755264874	
8.61	-0.090	-0.03153596817545867	
8.615	0.137	-0.062157348954725675	
8.62	-0.318	-0.09033995958402297	
8.625	-0.222	-0.1054188378906546	
8.63	0.282	-0.10673298376785229	
8.635	-0.141	-0.09956042113057453	
8.64	-0.297	-0.0868350101868709	
8.645	0.122	-0.07455971561965993	
8.65	-0.031	-0.07464374218785746	
8.655	-0.338	-0.08133118158717499	
8.66	0.030	-0.08031197854415471	
8.665	0.470	-0.061130364898712736	
8.67	-0.035	-0.01555667382008468	
8.675	0.263	0.05670038385246218	
8.68	0.936	0.15544155332874507	
8.685	0.296	0.2662227907818547	
8.69	-0.051	-0.01555667382008468	
8.695	0.505	-0.01555667382008468	
8.7	0.204	-0.01555667382008468	
8.705	-0.283	0.29852536238988503	
8.71	-0.032	0.22078902793745064	
8.715	0.163	0.12787156251883458	
8.72	-0.327	0.03932854835464739	
8.725	-0.229	-0.02822577305467716	
8.73	0.229	-0.0745178640271149	
8.735	-0.165	-0.10187244458561812	
8.74	-0.281	-0.10882617381491294	
8.745	0.215	-0.09722796014584616	
8.75	0.050	-0.08183614990232566	
8.755	-0.303	-0.06552437937672391	
8.76	0.047	-0.04800938273052118	
8.765	0.331	-0.030161153583906742	
8.77	-0.213	-0.010874460379535647	
8.775	-0.068	0.00989390942793647	
8.78	0.536	0.03459806815101636	
8.785	-0.008	0.06491617710127964	
8.79	-0.144	0.09114641664262106	
8.795	0.484	0.11396321098781054	
8.8	0.307	0.13906912633722626	
8.805	-0.179	0.16035325294660402	
8.81	0.253	0.1731381757863799	
8.815	0.525	0.17984366292499926	
8.82	-0.109	0.1879918407657374	
8.825	0.053	0.19097478343370344	
8.83	0.647	0.19364573636972102	
8.835	0.056	0.20281097574586648	
8.84	-0.129	0.20519152197636203	
8.845	0.438	0.19700672794091117	
8.85	0.224	0.18496740735243036	
8.855	-0.239	0.166402908482442	
8.86	0.111	0.1422116235970915	
8.865	0.319	0.11272058705319729	
8.87	-0.223	0.08301209939189774	
8.875	-0.095	0.060111778847529926	
8.88	0.417	0.04553736911397162	
8.885	-0.080	0.03874680184401198	
8.89	-0.217	0.03536051890518329	
8.895	0.334	0.037985420382348686	
8.9	0.152	0.04182670367211048	
8.905	-0.237	0.047517522144979375	
8.91	0.156	0.056292598466620346	
8.915	0.374	0.06357195171486493	
8.92	-0.187	0.07101847355416618	
8.925	-0.049	0.0772398229659616	
8.93	0.481	0.08144095765326277	
8.935	-0.038	0.08766767606441309	
8.94	-0.156	0.09249699321043084	
8.945	0.431	0.09897685286552867	
8.95	0.226	0.10969606294399317	
8.955	-0.243	0.11660592040009506	
8.96	0.058	0.11134537201881195	
8.965	0.229	0.08641253525582064	
8.97	-0.295	0.051049758606049725	
8.975	-0.177	0.01639026872911959	
8.98	0.281	-0.013675372002783535	
8.985	-0.181	-0.03840790791767749	
8.99	-0.283	-0.053325594271670586	
8.995	0.208	-0.058035192263190954	
9.0	-0.003	-0.06147684066320678	
9.005	-0.344	-0.06528939966230025	
9.01	-0.080	-0.06851823970562478	
9.015	0.061	-0.08474444796973665	
9.02	-0.330	-0.10800842892306234	
9.025	-0.130	-0.11540887903068495	
9.03	0.589	-0.09166787099435787	
9.035	0.258	-0.024561725302606637	
9.04	0.188	0.07978501411279247	
9.045	0.938	0.20608768704540953	
9.05	0.620	0.3363433768091917	
9.055	-0.066	-0.024561725302606637	
9.06	0.325	-0.024561725302606637	
9.065	0.347	-0.024561725302606637	
9.07	-0.292	0.34089767825268796	
9.075	-0.199	0.2366954758182216	
9.08	0.215	0.1262683856864679	
9.085	-0.225	0.02733038300384715	
9.09	-0.323	-0.045075328099903576	
9.095	0.122	-0.08990058643611856	
9.1	-0.035	-0.11779332055014233	
9.105	-0.327	-0.1292017279200291	
9.11	0.023	-0.1202210884830959	
9.115	0.212	-0.10398822837166	
9.12	-0.277	-0.0861386876621433	
9.125	-0.112	-0.06409659782327218	
9.13	0.391	-0.040783427804498756	
9.135	-0.101	-0.016870706083027525	
9.14	-0.167	0.006034699921036468	
9.145	0.437	0.033210344643573274	
9.15	0.212	0.06502246645151645	
9.155	-0.197	0.09376019958543019	
9.16	0.255	0.11493923648169478	
9.165	0.479	0.1339372194328683	
9.17	-0.127	0.15075286226806967	
9.175	0.096	0.16503146806106422	
9.18	0.696	0.18223301207809406	
9.185	0.107	0.2090180175514048	
9.19	-0.043	0.23109896341440475	
9.195	0.615	0.24523708939691236	
9.2	0.324	0.2589246414830998	
9.205	-0.153	0.2638214998529356	
9.21	0.240	0.24997179486992469	
9.215	0.351	0.2208044156109698	
9.22	-0.245	0.1818169774552038	
9.225	-0.106	0.13513385209910156	
9.23	0.385	0.0900663106976556	
9.235	-0.135	0.054025522724237926	
9.24	-0.240	0.028308545615541164	
9.245	0.233	0.009107237579821953	
9.25	-0.022	-0.010212918050345693	
9.255	-0.327	-0.02994251562487196	
9.26	0.017	-0.04299932559022808	
9.265	0.172	-0.05541926071753986	
9.27	-0.281	-0.0630584287721183	
9.275	-0.118	-0.06169796126242401	
9.28	0.365	-0.0511358690271247	
9.285	-0.118	-0.03502747905281887	
9.29	-0.185	-0.014482035680778351	
9.295	0.343	0.00703581194101936	
9.3	0.078	0.02562469589368606	
9.305	-0.258	0.03620395284269433	
9.31	0.149	0.04205624988781586	
9.315	0.293	0.04440119122643327	
9.32	-0.263	0.042984586252702045	
9.325	-0.127	0.036426451278096225	
9.33	0.279	0.019718766601239782	
9.335	-0.211	-0.0030814501102487063	
9.34	-0.294	-0.02531178810694215	
9.345	0.168	-0.045008391868389244	
9.35	-0.063	-0.06551275322553243	
9.355	-0.358	-0.0826603678662543	
9.36	-0.032	-0.09186260712385955	
9.365	0.084	-0.10377114288259512	
9.37	-0.375	-0.11700943736734462	
9.375	-0.229	-0.1253909505991911	
9.38	0.105	-0.13535869118864752	
9.385	-0.239	-0.14822576011780836	
9.39	-0.232	-0.14615163161068245	
9.395	0.547	-0.10988666463941044	
9.4	0.547	-0.025663984621846717	
9.405	0.175	0.10034850430426921	
9.41	0.843	0.24531097799894452	
9.415	0.897	0.38911959257032136	
9.42	-0.013	0.49382904519088533	
9.425	0.075	0.5166868213439705	
9.43	0.386	0.4606064164041336	
9.435	-0.217	0.3556572089937666	
9.44	-0.320	0.23094005255606884	
9.445	0.052	0.10509528954870132	
9.45	-0.147	-0.01182310537407607	
9.455	-0.408	-0.1005335140045163	
9.46	-0.083	-0.15357407562543599	
9.465	0.024	-0.1850467353545957	
9.47	-0.359	-0.20010965883929666	
9.475	-0.193	-0.19301802023035247	
9.48	0.232	-0.17346325288158104	
9.485	-0.205	-0.15053431938992437	
9.49	-0.229	-0.11986275734986183	
9.495	0.337	-0.08378889501945479	
9.5	0.064	-0.045095711006114106	
9.505	-0.245	-0.011563599738631986	
9.51	0.189	0.01766048118774787	
9.515	0.322	0.03981594087227862	
9.52	-0.194	0.05769469382115054	
9.525	0.091	0.07620066868248514	
9.53	0.621	0.10260017841364603	
9.535	0.009	0.13722002239363285	
9.54	-0.037	0.16720797276127375	
9.545	0.632	0.19138099844215464	
9.55	0.270	0.21873220560504836	
9.555	-0.130	0.2363882052354525	
9.56	0.394	0.24083202250945407	
9.565	0.464	0.24074195406637466	
9.57	-0.158	0.2356046485082175	
9.575	0.039	0.21631074386956847	
9.58	0.478	0.18955338526731008	
9.585	-0.133	0.15914429642094044	
9.59	-0.194	0.1263306028248818	
9.595	0.327	0.09235482997526706	
9.6	0.003	0.06062331429697697	
9.605	-0.292	0.032525195527983504	
9.61	0.079	0.01087660721693666	
9.615	0.151	-0.011422861780510277	
9.62	-0.307	-0.031323823773238696	
9.625	-0.130	-0.04353706797806792	
9.63	0.308	-0.05058299223164864	
9.635	-0.176	-0.05191746659698736	
9.64	-0.210	-0.04348486043350147	
9.645	0.311	-0.03067100528463315	
9.65	0.041	-0.01654954589680851	
9.655	-0.226	-0.0013648495145959908	
9.66	0.238	0.018992577256195225	
9.665	0.299	0.04040801204452373	
9.67	-0.222	0.0576415549579225	
9.675	0.000	0.06762921865992463	
9.68	0.469	0.07434268132885283	
9.685	-0.116	0.08095307231376259	
9.69	-0.184	0.08164597287038433	
9.695	0.314	0.07435229610955565	
9.7	-0.031	0.05629251711865838	
9.705	-0.312	0.031699044808919795	
9.71	0.055	0.007098118917120377	
9.715	0.101	-0.02172566952740986	
9.72	-0.324	-0.04937590071322266	
9.725	-0.139	-0.06620192201916744	
9.73	0.255	-0.07571332447454676	
9.735	-0.236	-0.08118180381713822	
9.74	-0.287	-0.08121531438683259	
9.745	0.096	-0.08556738344261862	
9.75	-0.129	-0.10089620267171828	
9.755	-0.320	-0.11528499991259045	
9.76	0.322	-0.0996658753539949	
9.765	0.759	-0.03478295146891304	
9.77	0.307	0.0884935465255998	
9.775	0.773	0.2509821015478486	
9.78	1.234	0.4293259990041512	
9.785	0.363	-0.03478295146891304	
9.79	0.062	-0.03478295146891304	
9.795	0.524	-0.03478295146891304	
9.8	-0.014	0.5329653053914006	
9.805	-0.355	0.3916826386635055	
9.81	-0.057	0.2344121971355618	
9.815	-0.040	0.07909713424056836	
9.82	-0.422	-0.05153787060836515	
9.825	-0.203	-0.13686486793533528	
9.83	0.127	-0.1837170886296306	
9.835	-0.280	-0.20448522760213078	
9.84	-0.280	-0.1989910682190179	
9.845	0.212	-0.1743681596998676	
9.85	-0.051	-0.1452155897575343	
9.855	-0.277	-0.1142839055927801	
9.86	0.169	-0.07638274039813506	
9.865	0.267	-0.04003483649660065	
9.87	-0.208	-0.005734309860476893	
9.875	0.018	0.026302126819959915	
9.88	0.516	0.0543401598478272	
9.885	-0.054	0.08326525514931368	
9.89	-0.031	0.11105223297417598	
9.895	0.647	0.1428409546438632	
9.9	0.307	0.18462241582359937	
9.905	-0.092	0.22260456317809194	
9.91	0.519	0.25181803785100054	
9.915	0.599	0.2789366427733544	
9.92	-0.060	0.3031050467400217	
9.925	0.281	0.31441920693855746	
9.93	0.748	0.32139041348516806	
9.935	0.059	0.32914009752079293	
9.94	0.018	0.3240910874045374	
9.945	0.589	0.3078737305289452	
9.95	0.166	0.28553640892071763	
9.955	-0.187	0.2546584425587136	
9.96	0.252	0.215852489166173	
9.965	0.240	0.1698311751496197	
9.97	-0.272	0.12416674063454732	
9.975	-0.074	0.08151485120429688	
9.98	0.345	0.043264394304673895	
9.985	-0.182	0.015139427678035278	
9.99	-0.190	0.0012659855988613102	
9.995	0.351	-0.0021967629488362714	
10.0	0.027	0.0014161598256373503	
10.005	-0.210	0.01082100642857486	
10.01	0.319	0.03090993856505133	
10.015	0.382	0.06065965669890916	
10.02	-0.162	0.09321535001829712	
10.025	0.108	0.1196422190380092	
10.03	0.512	0.13811789512348682	
10.035	-0.089	0.1480767200880173	
10.04	-0.068	0.1504157852134329	
10.045	0.571	0.1537502463882514	
10.05	0.197	0.16430880131431957	
10.055	-0.155	0.17694480195464196	
10.06	0.310	0.17990104177972444	
10.065	0.235	0.16849385197435335	
10.07	-0.281	0.14130990944030986	
10.075	-0.098	0.10274185817225803	
10.08	0.229	0.0539523647891055	
10.085	-0.232	0.0050915791586001215	
10.09	-0.207	-0.028388859283592728	
10.095	0.304	-0.04234958647976633	
10.1	-0.043	-0.04482244944093032	
10.105	-0.294	-0.04188148470951358	
10.11	0.049	-0.0390527501419638	
10.115	0.058	-0.048690909825411445	
10.12	-0.295	-0.0636317098175401	
10.125	0.038	-0.062070935825381326	
10.13	0.686	-0.028128425390227068	
10.135	0.217	0.04901254671333075	
10.14	0.330	0.15675406382210985	
10.145	1.000	-0.0019799100682792513	
10.15	0.409	-0.0019799100682792513	
10.155	-0.127	-0.0019799100682792513	
10.16	0.314	0.44496924547863825	
10.165	0.221	0.3781896177010787	
10.17	-0.294	0.28341998504384097	
10.175	-0.119	0.18298995508410107	
10.18	0.186	0.08370182054593346	
10.185	-0.277	-0.0019799100682792513	
10.19	-0.268	-0.06007014725452886	
10.195	0.198	-0.09346892288959698	
10.2	-0.100	-0.11206964858715814	
10.205	-0.310	-0.11459195651740586	
10.21	0.099	-0.10295458164305127	
10.215	0.130	-0.09002469615763717	
10.22	-0.278	-0.07551556906871078	
10.225	-0.017	-0.05481329566374768	
10.23	0.415	-0.030451046065419936	
10.235	-0.122	-0.00011581061203654345	
10.24	-0.080	0.031115361185397636	
10.245	0.531	0.06453519837407738	
10.25	0.139	0.10072153610650823	
10.255	-0.132	0.13149572293010187	
10.26	0.452	0.15717047737096307	
10.265	0.426	0.18380626891719742	
10.27	-0.126	0.20446878664453844	
10.275	0.203	0.21533538007627273	
10.28	0.621	0.22143896491139634	
10.285	-0.020	0.22981829541238066	
10.29	-0.014	0.23026633234666768	
10.295	0.583	0.22446340091067485	
10.3	0.145	0.220615923936987	
10.305	-0.153	0.2116669389569827	
10.31	0.330	0.19514555296696426	
10.315	0.249	0.17362111964783336	
10.32	-0.251	0.1456362865312622	
10.325	-0.019	0.11242661240414428	
10.33	0.325	0.07619126161533732	
10.335	-0.226	0.0438948579002001	
10.34	-0.216	0.01649912146502701	
10.345	0.256	-0.006754512875639287	
10.35	-0.098	-0.027482383898053263	
10.355	-0.294	-0.04303524832766807	
10.36	0.099	-0.04991492480391697	
10.365	0.055	-0.05962969762901045	
10.37	-0.303	-0.06815155421236832	
10.375	-0.031	-0.06742970334729584	
10.38	0.365	-0.05507057469753118	
10.385	-0.159	-0.03308630400381426	
10.39	-0.122	-0.0072655795157801975	
10.395	0.418	0.019089683892145208	
10.4	-0.023	0.04037259563125377	
10.405	-0.245	0.05017041665721722	
10.41	0.201	0.051075818180370075	
10.415	0.139	0.04216887563101272	
10.42	-0.304	0.027972746029941487	
10.425	-0.104	0.008668353531880989	
10.43	0.172	-0.01928440886777926	
10.435	-0.307	-0.05207630323779567	
10.44	-0.266	-0.07705878133074956	
10.445	0.168	-0.09602452082744323	
10.45	-0.164	-0.11175439570629422	
10.455	-0.350	-0.12062625836690939	
10.46	0.030	-0.12287889323865217	
10.465	-0.023	-0.12904566278074964	
10.47	-0.391	-0.1369638142270886	
10.475	-0.167	-0.14113678701274868	
10.48	0.111	-0.1474290545805097	
10.485	-0.254	-0.1511966246222904	
10.49	-0.135	-0.13583764373988017	
10.495	0.570	-0.09097450515273514	
10.5	0.247	-0.013963466013976515	
10.505	0.020	0.07844875277500803	
10.51	0.699	0.17328471084581185	
10.515	0.518	0.26378157750981013	
10.52	-0.147	0.3229421793637671	
10.525	0.111	0.3269967036871155	
10.53	0.360	0.28749341293294345	
10.535	-0.211	0.22470473589998685	
10.54	-0.185	0.15427962683330387	
10.545	0.217	0.0849714524516659	
10.55	-0.144	0.019913402582637546	
10.555	-0.329	-0.03140141338451388	
10.56	0.023	-0.06867702503176076	
10.565	-0.005	-0.10138627666767003	
10.57	-0.361	-0.12493450139114795	
10.575	-0.103	-0.13179334311390736	
10.58	0.177	-0.13065790992622225	
10.585	-0.271	-0.1253930891571145	
10.59	-0.188	-0.11150071844540212	
10.595	0.362	-0.08802238345375112	
10.6	-0.058	-0.05730944728395401	
10.605	-0.234	-0.029316321545710025	
10.61	0.264	-0.0035242671854665824	
10.615	0.197	0.01843487947496587	
10.62	-0.231	0.03599434618643357	
10.625	0.101	0.05039200936415167	
10.63	0.446	0.06428977769212436	
10.635	-0.129	0.08145963251718022	
10.64	-0.032	0.09562640923746513	
10.645	0.542	0.11101852246189065	
10.65	0.053	0.12853849072386686	
10.655	-0.165	0.13874145655648595	
10.66	0.345	0.13956762070792095	
10.665	0.201	0.13330880169485884	
10.67	-0.266	0.11899483681883977	
10.675	0.027	0.09550398542038646	
10.68	0.301	0.0671943951939643	
10.685	-0.237	0.04142108201492382	
10.69	-0.177	0.018762680967100504	
10.695	0.301	-3.8212232469418965e-05	
10.7	-0.103	-0.014559576102452598	
10.705	-0.260	-0.023112105867357298	
10.71	0.191	-0.025402125019208244	
10.715	0.064	-0.026847608424180547	
10.72	-0.323	-0.03293235260888358	
10.725	-0.066	-0.039373994612690574	
10.73	0.232	-0.04894431871979057	
10.735	-0.211	-0.05361731352535115	
10.74	-0.145	-0.04706874432536155	
10.745	0.330	-0.03408479514224464	
10.75	-0.049	-0.020708102823531065	
10.755	-0.207	-0.004996252075072359	
10.76	0.325	0.014684180907940367	
10.765	0.189	0.03699356645999022	
10.77	-0.274	0.05206240185366585	
10.775	0.003	0.05277106588337935	
10.78	0.278	0.04095938013249949	
10.785	-0.254	0.02327848749479384	
10.79	-0.167	0.007075214853976851	
10.795	0.311	-0.006073784570043493	
10.8	-0.133	-0.01685387030475501	
10.805	-0.303	-0.026917078794050125	
10.81	0.108	-0.03823043730763972	
10.815	-0.019	-0.05715340944025387	
10.82	-0.355	-0.07693046868908687	
10.825	-0.104	-0.0910500934308083	
10.83	0.131	-0.10512411403418352	
10.835	-0.303	-0.11685343480987133	
10.84	-0.248	-0.11975513516892565	
10.845	0.165	-0.11902168155582579	
10.85	-0.161	-0.12107249758194256	
10.855	-0.232	-0.11384987927208343	
10.86	0.463	-0.07898644582447825	
10.865	0.473	-0.008288508894827702	
10.87	-0.019	0.08392734764046311	
10.875	0.556	0.17916315867387206	
10.88	0.832	0.27789426132907546	
10.885	-0.013	0.3589111395561698	
10.89	-0.016	0.38527177584069594	
10.895	0.455	0.35406421509103486	
10.9	-0.083	0.289816385386775	
10.905	-0.272	0.21014042499746838	
10.91	0.152	0.12804877436536788	
10.915	-0.011	0.04962697313368565	
10.92	-0.326	-0.015029847356805277	
10.925	-0.054	-0.056749680741068925	
10.93	0.204	-0.08220188763671313	
10.935	-0.291	-0.09407021048703329	
10.94	-0.203	-0.0935321281114337	
10.945	0.285	-0.08696472705026675	
10.95	-0.115	-0.07731431134114701	
10.955	-0.243	-0.061734870220888256	
10.96	0.258	-0.04086890805601996	
10.965	0.139	-0.019548196514687404	
10.97	-0.239	-4.6985438802357065e-05	
10.975	0.055	0.017403660325090504	
10.98	0.334	0.026694726851773532	
10.985	-0.202	0.033800180115224364	
10.99	-0.066	0.03963315459415277	
10.995	0.525	0.05207212452907635	
11.0	0.053	0.07650646294230395	
11.005	-0.112	0.10233789208676572	
11.01	0.449	0.12725095093570557	
11.015	0.266	0.14829401289337887	
11.02	-0.203	0.1599296767466164	
11.025	0.165	0.15755637393529243	
11.03	0.405	0.1466052057687361	
11.035	-0.182	0.13372132667005343	
11.04	-0.071	0.11677576418831437	
11.045	0.427	0.0990290412289466	
11.05	-0.092	0.08337985431269937	
11.055	-0.229	0.06647009969480575	
11.06	0.256	0.049285365849163126	
11.065	0.117	0.03414062273761944	
11.07	-0.268	0.024027061927918793	
11.075	0.015	0.015676555339365	
11.08	0.256	0.004430896149581706	
11.085	-0.258	-0.006287236385036433	
11.09	-0.136	-0.013025976006134993	
11.095	0.383	-0.013074636248909047	
11.1	-0.100	-0.006752388533437641	
11.105	-0.226	0.000662180542242379	
11.11	0.308	0.01030417073033629	
11.115	0.125	0.020933213838690144	
11.12	-0.239	0.030127464449064237	
11.125	0.142	0.039816102421174865	
11.13	0.376	0.05025152274742922	
11.135	-0.196	0.06169180157889612	
11.14	-0.078	0.06814999284051271	
11.145	0.402	0.0678094045729325	
11.15	-0.101	0.06313100702823626	
11.155	-0.226	0.05384587269600902	
11.16	0.273	0.04329694623834923	
11.165	0.015	0.029748223709238856	
11.17	-0.335	0.009246108679058134	
11.175	-0.031	-0.014082789828218503	
11.18	0.143	-0.04093640380631818	
11.185	-0.310	-0.06528864505437229	
11.19	-0.197	-0.07965664379830764	
11.195	0.220	-0.08830159243645588	
11.2	-0.190	-0.09398189456045258	
11.205	-0.323	-0.09597376274595	
11.21	0.078	-0.0976881133981857	
11.215	-0.069	-0.10744305631497722	
11.22	-0.326	-0.11666412488124114	
11.225	0.076	-0.10890758691837785	
11.23	0.479	-0.07707151760005188	
11.235	-0.006	-0.01635850772569656	
11.24	0.295	0.06853860225006284	
11.245	0.842	0.16867878630871924	
11.25	0.156	-0.07137766762173034	
11.255	-0.103	-0.07137766762173034	
11.26	0.347	-0.07137766762173034	
11.265	-0.009	-0.07137766762173034	
11.27	-0.365	0.18535266071425655	
11.275	-0.083	0.09318699214831962	
11.28	0.065	0.002803628482065058	
11.285	-0.333	-0.07137766762173034	
11.29	-0.205	-0.11531508071087479	
11.295	0.218	-0.13438773036213103	
11.3	-0.177	-0.13624711842976484	
11.305	-0.266	-0.12371630514930948	
11.31	0.208	-0.10256623619029381	
11.315	0.007	-0.08175833843088952	
11.32	-0.295	-0.06660039609147556	
11.325	0.065	-0.0496630961942969	
11.33	0.292	-0.033318184991083875	
11.335	-0.222	-0.0154902666110189	
11.34	-0.089	0.0018202117972798415	
11.345	0.380	0.01460958507220369	
11.35	-0.087	0.024586730056795538	
11.355	-0.155	0.03435784028129728	
11.36	0.437	0.05055513401078462	
11.365	0.206	0.07511293464651422	
11.37	-0.194	0.09836343481979125	
11.375	0.238	0.11447242938168266	
11.38	0.423	0.12662153715411045	
11.385	-0.179	0.13441362842107962	
11.39	-0.031	0.13292772100963582	
11.395	0.510	0.1246192524520793	
11.4	-0.034	0.12149246432228333	
11.405	-0.156	0.11842833018990812	
11.41	0.368	0.11157141594921026	
11.415	0.085	0.10099991113830883	
11.42	-0.283	0.08443291851769438	
11.425	0.026	0.0595427927914247	
11.43	0.185	0.026481354867534945	
11.435	-0.274	-0.004556747239347474	
11.44	-0.133	-0.024903279396365205	
11.445	0.331	-0.03449418928509487	
11.45	-0.145	-0.03560860374994055	
11.455	-0.223	-0.03038498175550574	
11.46	0.305	-0.020423305964481532	
11.465	0.090	-0.006181985694210424	
11.47	-0.252	0.0075451209685225935	
11.475	0.127	0.01966952195482919	
11.48	0.292	0.028300312780010085	
11.485	-0.219	0.0344197736768032	
11.49	-0.032	0.039271982262037125	
11.495	0.470	0.048407661179526974	
11.5	-0.083	0.062277021242703755	
11.505	-0.170	0.07077167367416648	
11.51	0.350	0.07456539876816422	
11.515	0.084	0.07365927299978939	
11.52	-0.268	0.06565541874094925	
11.525	0.044	0.051742483940654234	
11.53	0.151	0.02613180109699945	
11.535	-0.320	-0.005547292646465581	
11.54	-0.177	-0.03357809451395055	
11.545	0.244	-0.05671397095299961	
11.55	-0.188	-0.07179259698628253	
11.555	-0.265	-0.07604763256434943	
11.56	0.198	-0.0734450074098105	
11.565	-0.032	-0.07150777282172846	
11.57	-0.365	-0.07224329117068828	
11.575	-0.069	-0.07713819825339235	
11.58	0.017	-0.0960345161440274	
11.585	-0.349	-0.12058649439375001	
11.59	-0.132	-0.1303727316231137	
11.595	0.455	-0.11374455469128308	
11.6	0.026	-0.06795485933771842	
11.605	0.036	8.53672217870226e-05	
11.61	0.802	0.09066844427832868	
11.615	0.508	0.19932711910545828	
11.62	-0.107	-0.06795485933771842	
11.625	0.238	0.3269572585066721	
11.63	0.224	0.3038457542963181	
11.635	-0.318	0.23835912166853734	
11.64	-0.184	0.15173911392453934	
11.645	0.146	0.061162106108755665	
11.65	-0.260	-0.022035903440087833	
11.655	-0.326	-0.0827487794196326	
11.66	0.035	-0.12336345300850933	
11.665	-0.158	-0.15685040478008017	
11.67	-0.410	-0.18009891009856377	
11.675	-0.092	-0.18784757064152552	
11.68	-0.005	-0.19332804987818297	
11.685	-0.382	-0.19669253764725836	
11.69	-0.216	-0.19001933486242356	
11.695	0.171	-0.17787893691391038	
11.7	-0.220	-0.16327833778220985	
11.705	-0.245	-0.14061291533372194	
11.71	0.281	-0.10918927977264078	
11.715	0.024	-0.07508964721704028	
11.72	-0.251	-0.04517780794323574	
11.725	0.189	-0.014578855010329161	
11.73	0.327	0.01460213161167476	
11.735	-0.203	0.04106377122557603	
11.74	0.036	0.06316752776081175	
11.745	0.570	0.08524950613064139	
11.75	-0.017	0.114468394392828	
11.755	-0.068	0.13739654904030854	
11.76	0.527	0.15602003234944728	
11.765	0.203	0.172769224476698	
11.77	-0.194	0.1797121934130208	
11.775	0.218	0.17159394046894588	
11.78	0.240	0.14956669822787566	
11.785	-0.265	0.11592405887553031	
11.79	-0.072	0.08029346717026956	
11.795	0.420	0.05130010092603095	
11.8	-0.110	0.037337289150768296	
11.805	-0.174	0.03446146222725565	
11.81	0.385	0.038116427334287134	
11.815	0.093	0.045651160521562116	
11.82	-0.249	0.052710669178829175	
11.825	0.159	0.05572798096133329	
11.83	0.259	0.05249272778609108	
11.835	-0.236	0.04685126019482179	
11.84	-0.045	0.04242440205125393	
11.845	0.421	0.039279184115118576	
11.85	-0.090	0.04319993438941494	
11.855	-0.106	0.05256542606817567	
11.86	0.510	0.07219469120149502	
11.865	0.178	0.09950303271852014	
11.87	-0.184	0.1237248039379823	
11.875	0.290	0.13785526161226708	
11.88	0.334	0.14338972217232426	
11.885	-0.219	0.13878782289622763	
11.89	-0.045	0.1235474190449941	
11.895	0.374	0.09923700324707832	
11.9	-0.177	0.07209854446181768	
11.905	-0.239	0.045668160006222924	
11.91	0.240	0.019209041485253736	
11.915	-0.037	-0.006623881694259278	
11.92	-0.306	-0.027193949313829742	
11.925	0.067	-0.03903521754368346	
11.93	0.154	-0.04773964815457204	
11.935	-0.295	-0.05423269697899073	
11.94	-0.135	-0.055283825058865824	
11.945	0.195	-0.059822853102254894	
11.95	-0.251	-0.07105161229191403	
11.955	-0.268	-0.08019248615230802	
11.96	0.259	-0.07969184841000254	
11.965	0.091	-0.06780177085879573	
11.97	-0.122	-0.03718813303966827	
11.975	0.583	0.02517941600529129	
11.98	0.777	0.12419383746817264	
11.985	0.058	0.23760993815001058	
11.99	0.281	0.3228219499078346	
11.995	0.634	0.3651955403668695	
12.0	-0.104	0.3647881286075749	
12.005	-0.207	0.3178302252456055	
12.01	0.279	0.23936094130643482	
12.015	-0.048	0.15110834514359656	
12.02	-0.315	0.07183732750187607	
12.025	-0.017	0.008218026918503934	
12.03	0.042	-0.04992843583241237	
12.035	-0.338	-0.09535161646621097	
12.04	-0.142	-0.11699026511528644	
12.045	0.255	-0.12085473001995262	
12.05	-0.187	-0.11229669172588311	
12.055	-0.207	-0.09198927081705097	
12.06	0.313	-0.06457797057055614	
12.065	0.009	-0.03809941197488585	
12.07	-0.243	-0.016147397320395742	
12.075	0.211	0.005404209297616441	
12.08	0.305	0.026950301213684306	
12.085	-0.202	0.04750344816764443	
12.09	0.050	0.06517347954073711	
12.095	0.551	0.08517033170503488	
12.1	-0.037	0.10951788801394231	
12.105	-0.049	0.13207819241859348	
12.11	0.609	0.15454376333892927	
12.115	0.258	0.18377356566843622	
12.12	-0.115	0.20883011873941318	
12.125	0.434	0.22451606967821924	
12.13	0.476	0.23688022012808194	
12.135	-0.127	0.24245730778360106	
12.14	0.145	0.23826013423857692	
12.145	0.553	0.22611841206920685	
12.15	-0.081	0.21146890190419593	
12.155	-0.112	0.19017295254935168	
12.16	0.444	0.16450023766448574	
12.165	0.097	0.14169701732577034	
12.17	-0.219	0.12295648246916362	
12.175	0.197	0.1045232309131966	
12.18	0.221	0.08373672527119559	
12.185	-0.255	0.061554769428152516	
12.19	-0.051	0.04337145782093629	
12.195	0.353	0.027961981312102008	
12.2	-0.153	0.017462216633794304	
12.205	-0.126	0.01736083400597768	
12.21	0.455	0.02942329151428673	
12.215	0.088	0.050564932693192614	
12.22	-0.181	0.07110147340901651	
12.225	0.347	0.09256338585319089	
12.23	0.380	0.11458142352045282	
12.235	-0.187	0.13460972139096	
12.24	0.033	0.14046258234771963	
12.245	0.475	0.13481968253526852	
12.25	-0.101	0.12745574635951307	
12.255	-0.118	0.1195021525948978	
12.26	0.417	0.11030729913199447	
12.265	0.018	0.09947407286804213	
12.27	-0.257	0.08428374907341749	
12.275	0.096	0.06253117099210999	
12.28	0.094	0.030386061917249102	
12.285	-0.332	-0.0062379881952192694	
12.29	-0.133	-0.03639811624776379	
12.295	0.209	-0.06138678934233376	
12.3	-0.251	-0.08055297615009233	
12.305	-0.251	-0.08827648912952338	
12.31	0.139	-0.09179302885421932	
12.315	-0.174	-0.10269496041783609	
12.32	-0.385	-0.11753878865021627	
12.325	0.030	-0.12537435228632465	
12.33	0.195	-0.12379738772477158	
12.335	-0.121	-0.09920692090098496	
12.34	0.402	-0.03218440284547684	
12.345	0.941	0.0815465437705896	
12.35	0.288	0.2213029387681925	
12.355	0.178	0.33981382095295276	
12.36	0.675	-0.03218440284547684	
12.365	0.105	-0.03218440284547684	
12.37	-0.274	-0.03218440284547684	
12.375	0.039	0.28967589868138344	
12.38	0.015	0.17107755173074674	
12.385	-0.368	0.05580701041243197	
12.39	-0.133	-0.031081793835413703	
12.395	0.168	-0.08957441911568556	
12.4	-0.257	-0.12373583377085234	
12.405	-0.228	-0.1329667150176375	
12.41	0.252	-0.12176382268081617	
12.415	-0.057	-0.1029951402220037	
12.42	-0.271	-0.08138510151559339	
12.425	0.191	-0.05416839674249806	
12.43	0.197	-0.029083674571140614	
12.435	-0.248	-0.008284566015928061	
12.44	0.015	0.010075596843928922	
12.445	0.452	0.028396269249421156	
12.45	-0.110	0.04909162912526026	
12.455	-0.092	0.06911666674358027	
12.46	0.556	0.09033167260849866	
12.465	0.189	0.11986823979608231	
12.47	-0.113	0.1506066433444355	
12.475	0.466	0.17695344449704123	
12.48	0.453	0.20384003180830462	
12.485	-0.138	0.22465998427558745	
12.49	0.185	0.2291689369239311	
12.495	0.606	0.2283510555948424	
12.5	-0.038	0.2280440320192447	
12.505	-0.046	0.22120858358445836	
12.51	0.508	0.20627139053288357	
12.515	0.036	0.18679101260452877	
12.52	-0.223	0.1607374068684213	
12.525	0.211	0.12792796257665762	
12.53	0.139	0.09169953671902328	
12.535	-0.313	0.05280313958393612	
12.54	-0.100	0.017249589350351	
12.545	0.226	-0.017842590240756316	
12.55	-0.248	-0.04590789590275393	
12.555	-0.232	-0.06159516689292793	
12.56	0.258	-0.06786590534592807	
12.565	-0.095	-0.069309986146873	
12.57	-0.306	-0.06705541417366573	
12.575	0.097	-0.06307617317336786	
12.58	0.094	-0.0624997958438722	
12.585	-0.303	-0.0630858149330436	
12.59	-0.035	-0.05660826953625469	
12.595	0.354	-0.04501883948427067	
12.6	-0.171	-0.02695422680761107	
12.605	-0.133	-0.006411094277717204	
12.61	0.444	0.01706614126906256	
12.615	0.029	0.04154271054172332	
12.62	-0.214	0.06008385338900697	
12.625	0.226	0.06896842696031179	
12.63	0.114	0.0643213766137708	
12.635	-0.329	0.04495951994086962	
12.64	-0.107	0.01651453934842025	
12.645	0.154	-0.01915964883285271	
12.65	-0.309	-0.0569987689901283	
12.655	-0.271	-0.08624098076970556	
12.66	0.149	-0.1059767485724043	
12.665	-0.148	-0.12159150537366308	
12.67	-0.333	-0.1277859917942591	
12.675	0.027	-0.1249379729580556	
12.68	-0.058	-0.12883675296437208	
12.685	-0.422	-0.1410564540622729	
12.69	-0.174	-0.1513046595477158	
12.695	0.206	-0.15620264938599943	
12.7	-0.142	-0.14414375524693085	
12.705	0.180	-0.09308663247465125	
12.71	1.098	0.020181154715177698	
12.715	0.776	0.19726095500603624	
12.72	0.423	0.3921527000270786	
12.725	0.895	-0.029859844699971983	
12.73	0.588	-0.029859844699971983	
12.735	-0.174	-0.029859844699971983	
12.74	-0.016	0.5587441401390101	
12.745	0.168	0.4097784773475652	
12.75	-0.326	0.24078753682183895	
12.755	-0.307	0.09097056067499242	
12.76	0.056	-0.029859844699971983	
12.765	-0.184	-0.12083954221257455	
12.77	-0.349	-0.1727062624548536	
12.775	0.046	-0.1856882180284613	
12.78	0.026	-0.18203433029488103	
12.785	-0.324	-0.1671627018757973	
12.79	-0.048	-0.14001929218575998	
12.795	0.299	-0.10826893222216596	
12.8	-0.200	-0.07541961055361884	
12.805	-0.135	-0.04290516146497508	
12.81	0.432	-0.009743668944217344	
12.815	0.000	0.020917094276639275	
12.82	-0.194	0.046235562073222304	
12.825	0.342	0.06653237342930052	
12.83	0.337	0.08787018278436513	
12.835	-0.153	0.11266332552482987	
12.84	0.221	0.13516358750570714	
12.845	0.583	0.1597779531224705	
12.85	-0.060	0.1843769429825365	
12.855	-0.005	0.1981675469944367	
12.86	0.623	0.20337932826724656	
12.865	0.175	0.2137754836165699	
12.87	-0.095	0.22224063840670366	
12.875	0.489	0.22665395488926396	
12.88	0.356	0.22976281961600803	
12.885	-0.205	0.22462653626806	
12.89	0.055	0.2012682785079712	
12.895	0.368	0.16268716425657728	
12.9	-0.211	0.12133993826640893	
12.905	-0.174	0.0823273521109178	
12.91	0.337	0.048314126133159295	
12.915	-0.077	0.020652910000216445	
12.92	-0.252	0.003414849105166246	
12.925	0.217	-0.003308684794488863	
12.93	0.107	-0.0074367883455140685	
12.935	-0.275	-0.011277973001545594	
12.94	0.024	-0.009550485573995342	
12.945	0.377	-0.002479212687394728	
12.95	-0.161	0.010267925528162206	
12.955	-0.097	0.027532300476733017	
12.96	0.467	0.046265907312467436	
12.965	0.033	0.0664700830953932	
12.97	-0.155	0.08454885240603258	
12.975	0.411	0.10277597398832661	
12.98	0.345	0.12438148633159243	
12.985	-0.161	0.14675397010759764	
12.99	0.154	0.15859006274747262	
12.995	0.420	0.15836240990276618	
13.0	-0.156	0.1492064384409283	
13.005	-0.100	0.1317211561964974	
13.01	0.366	0.10918791142870943	
13.015	-0.086	0.08231972917957789	
13.02	-0.263	0.05473201704615412	
13.025	0.127	0.02681182892158183	
13.03	0.021	-0.00684384344571136	
13.035	-0.339	-0.038145872001957015	
13.04	-0.097	-0.061211822163605045	
13.045	0.107	-0.08482836122711711	
13.05	-0.353	-0.10987944923891704	
13.055	-0.284	-0.12702110214463308	
13.06	0.139	-0.13983967128606978	
13.065	-0.133	-0.14691867732817057	
13.07	-0.150	-0.13308977997249663	
13.075	0.664	-0.07196450605995697	
13.08	0.736	0.043952701757215364	
13.085	0.214	0.19278776425227057	
13.09	0.651	0.3350056415139285	
13.095	0.756	0.4430563810233265	
13.1	-0.081	0.4928933659339712	
13.105	-0.077	0.465101988151991	
13.11	0.328	0.3791876259132264	
13.115	-0.147	0.26590994271959745	
13.12	-0.307	0.1529847145146926	
13.125	0.070	0.05508964268574289	
13.13	-0.071	-0.02923187439643835	
13.135	-0.391	-0.09516139556195714	
13.14	-0.116	-0.13479586731044974	
13.145	0.076	-0.15803546864419854	
13.15	-0.320	-0.17214528190129658	
13.155	-0.210	-0.166648662512777	
13.16	0.264	-0.14778431344948217	
13.165	-0.121	-0.1223082686930224	
13.17	-0.223	-0.09193976886887796	
13.175	0.314	-0.05373254376492041	
13.18	0.165	-0.014411905215791613	
13.185	-0.236	0.01770546467902836	
13.19	0.111	0.04240606733904468	
13.195	0.429	0.06096265151555223	
13.2	-0.136	0.07963392403809899	
13.205	0.017	0.09745199388612344	
13.21	0.663	0.1223620676436503	
13.215	0.171	0.16152077073997761	
13.22	-0.031	0.20002265727314603	
13.225	0.625	0.23442431920733683	
13.23	0.478	0.2695191613279113	
13.235	-0.069	0.29962399801760925	
13.24	0.369	0.31250891834747324	
13.245	0.596	0.31493647752181597	
13.25	-0.080	0.30756292661891393	
13.255	0.003	0.2845179524951645	
13.26	0.518	0.24832009733573693	
13.265	0.018	0.21246110920032563	
13.27	-0.167	0.17914153065795424	
13.275	0.334	0.1484045908191347	
13.28	0.217	0.12239645299583349	
13.285	-0.228	0.1047631627345221	
13.29	0.116	0.09158649273779457	
13.295	0.356	0.0797481736723461	
13.3	-0.197	0.0706186567146426	
13.305	-0.086	0.06371658424451279	
13.31	0.426	0.05815903667659758	
13.315	-0.066	0.056356160870320283	
13.32	-0.197	0.05537300887728319	
13.325	0.340	0.056368281530794755	
13.33	0.226	0.06317892569477376	
13.335	-0.174	0.07593650592803065	
13.34	0.198	0.09169861728286911	
13.345	0.389	0.10649432811460272	
13.35	-0.162	0.11365240882274995	
13.355	-0.022	0.1149368657043195	
13.36	0.515	0.11497922905578296	
13.365	-0.017	0.11925319920683894	
13.37	-0.182	0.11861526403284393	
13.375	0.250	0.10729270549568126	
13.38	0.001	0.0809511253157922	
13.385	-0.335	0.04212976296350982	
13.39	-0.043	0.002793063825024385	
13.395	0.139	-0.03574900485041175	
13.4	-0.307	-0.06826936973427516	
13.405	-0.190	-0.08584092599252302	
13.41	0.253	-0.09220851594050165	
13.415	-0.156	-0.09084878133229607	
13.42	-0.286	-0.08413502950089502	
13.425	0.108	-0.07672821062916563	
13.43	-0.066	-0.0812683672123888	
13.435	-0.321	-0.09173200171593127	
13.44	0.130	-0.086046391159369	
13.445	0.525	-0.05191780034096933	
13.45	0.026	0.01370170782137627	
13.455	0.313	0.10034382100834394	
13.46	0.854	0.20071976343217685	
13.465	0.169	-0.05191780034096933	
13.47	-0.144	-0.05191780034096933	
13.475	0.310	-0.05191780034096933	
13.48	0.035	0.26461273707561533	
13.485	-0.333	0.18235852028602728	
13.49	-0.089	0.09497808517589754	
13.495	0.056	0.0069110529389715784	
13.5	-0.341	-0.06823492962369036	
13.505	-0.214	-0.11550629129113214	
13.51	0.203	-0.13642170257567146	
13.515	-0.177	-0.14203480945213107	
13.52	-0.265	-0.13080408015812506	
13.525	0.244	-0.10672311278562693	
13.53	0.030	-0.07956965460987875	
13.535	-0.291	-0.05655134118861389	
13.54	0.064	-0.03789118172167848	
13.545	0.281	-0.02224246830070954	
13.55	-0.211	-0.007302889250770405	
13.555	-0.054	0.008635899183245033	
13.56	0.478	0.028534782895324677	
13.565	-0.025	0.05283626470378005	
13.57	-0.115	0.07629001354212678	
13.575	0.505	0.10132243310052919	
13.58	0.273	0.13231591179493973	
13.585	-0.156	0.15848813342819512	
13.59	0.279	0.17317667070122023	
13.595	0.490	0.18365960464660008	
13.6	-0.121	0.19071008781812665	
13.605	0.006	0.18771230361837143	
13.61	0.496	0.17542502674913257	
13.615	-0.071	0.15882613680637614	
13.62	-0.184	0.1364213549329003	
13.625	0.314	0.11021976356357956	
13.63	0.050	0.08323006247449688	
13.635	-0.277	0.05567214575367419	
13.64	0.058	0.031165364139837767	
13.645	0.240	0.01048489657539695	
13.65	-0.252	-0.004149050635795648	
13.655	-0.147	-0.013173579636970809	
13.66	0.236	-0.02477738311772331	
13.665	-0.188	-0.03816368379072152	
13.67	-0.278	-0.050372492175062136	
13.675	0.177	-0.05789856081350166	
13.68	0.009	-0.06389897136033754	
13.685	-0.315	-0.06513330050496464	
13.69	-0.002	-0.06381533036181786	
13.695	0.233	-0.061723299304704715	
13.7	-0.223	-0.053055137710573186	
13.705	-0.058	-0.03601139998980072	
13.71	0.405	-0.01194804003176071	
13.715	-0.084	0.012777172356086405	
13.72	-0.177	0.0328212566873763	
13.725	0.318	0.045030074056594545	
13.73	0.032	0.04993226561443655	
13.735	-0.280	0.04301876352026776	
13.74	0.012	0.026239419448586473	
13.745	0.125	0.0010768338280928644	
13.75	-0.326	-0.030000387292104684	
13.755	-0.203	-0.056860560523030304	
13.76	0.145	-0.08209848279497697	
13.765	-0.208	-0.10427637255229277	
13.77	-0.268	-0.11297806807853532	
13.775	0.148	-0.10999780541602691	
13.78	-0.057	-0.10522918165967154	
13.785	-0.347	-0.10286323563558998	
13.79	-0.064	-0.10065092304836355	
13.795	-0.013	-0.11108807824740154	
13.8	-0.385	-0.13204553845933692	
13.805	-0.202	-0.14767769668239128	
13.81	0.313	-0.145108767486474	
13.815	-0.034	-0.11842387701119356	
13.82	-0.017	-0.06588193473612602	
13.825	0.710	0.017128370199608625	
13.83	0.467	0.12364926842629134	
13.835	-0.113	-0.08977413840037098	
13.84	0.186	-0.08977413840037098	
13.845	0.230	-0.08977413840037098	
13.85	-0.280	-0.08977413840037098	
13.855	-0.185	0.13440184657338738	
13.86	0.096	0.05384712971282797	
13.865	-0.268	-0.02651973265694225	
13.87	-0.338	-0.08977413840037098	
13.875	0.064	-0.12984968103415953	
13.88	-0.093	-0.15650504206685703	
13.885	-0.324	-0.16582997301510422	
13.89	0.020	-0.15334981768082756	
13.895	0.171	-0.1322627826327012	
13.9	-0.268	-0.10723411378239167	
13.905	-0.095	-0.08038781989504591	
13.91	0.345	-0.05311325205061092	
13.915	-0.107	-0.02676431490925606	
13.92	-0.185	-0.0037159920472257454	
13.925	0.389	0.01933742171051286	
13.93	0.143	0.04330960565258245	
13.935	-0.223	0.06505928165468583	
13.94	0.252	0.07985978996576215	
13.945	0.385	0.09570034520276649	
13.95	-0.184	0.10958525709852898	
13.955	0.001	0.1147454009697463	
13.96	0.493	0.11395535198232251	
13.965	-0.066	0.11507348835802284	
13.97	-0.098	0.11533875613064724	
13.975	0.504	0.1194495025814283	
13.98	0.229	0.13519312432304254	
13.985	-0.165	0.15105808226372858	
13.99	0.240	0.1559566828598628	
13.995	0.334	0.15159954562554456	
14.0	-0.231	0.13856607922654215	
14.005	-0.090	0.11386429033525816	
14.01	0.322	0.07986602350750033	
14.015	-0.161	0.04701495043012391	
14.02	-0.211	0.021499391893340918	
14.025	0.276	0.004401846095015784	
14.03	-0.026	-0.006957615676882306	
14.035	-0.292	-0.017788821265330497	
14.04	0.073	-0.02596679348753914	
14.045	0.157	-0.032587749670277055	
14.05	-0.283	-0.03937997734044414	
14.055	-0.106	-0.04196078014381888	
14.06	0.318	-0.04027054152768698	
14.065	-0.148	-0.03406649778947533	
14.07	-0.167	-0.022326535590119358	
14.075	0.391	-0.0026261199211183184	
14.08	0.075	0.021895971839827156	
14.085	-0.251	0.040316241441991814	
14.09	0.131	0.04708445783691374	
14.095	0.215	0.043260783798411445	
14.1	-0.268	0.033658051388585575	
14.105	-0.133	0.019152512756637007	
14.11	0.250	-0.0023999094101946226	
14.115	-0.217	-0.024107957975608163	
14.12	-0.268	-0.04216746938947853	
14.125	0.157	-0.057691062105514244	
14.13	-0.104	-0.07424038360361339	
14.135	-0.381	-0.0915272897992709	
14.14	-0.075	-0.10784566258504162	
14.145	0.006	-0.12892882747640566	
14.15	-0.373	-0.14930069357851944	
14.155	-0.217	-0.15865538079671349	
14.16	0.110	-0.16352189371345743	
14.165	-0.312	-0.16923832953448487	
14.17	-0.359	-0.17198512020449966	
14.175	0.073	-0.17164872920047897	
14.18	-0.063	-0.17044164368904524	
14.185	-0.203	-0.1524527899948585	
14.19	0.443	-0.09762112294317844	
14.195	0.629	-0.002044283491640735	
14.2	-0.008	0.11055777918538898	
14.205	0.236	0.20248839641921787	
14.21	0.560	0.2594702442347552	
14.215	-0.119	0.2785735468450833	
14.22	-0.216	0.25006790939798995	
14.225	0.169	0.1854245588366537	
14.23	-0.135	0.10143445944819865	
14.235	-0.404	0.016552236985875986	
14.24	-0.121	-0.05855744878037318	
14.245	-0.075	-0.12816083322130276	
14.25	-0.433	-0.1834311421553958	
14.255	-0.263	-0.21532803333382794	
14.26	0.030	-0.23156834295280215	
14.265	-0.303	-0.23952411209163746	
14.27	-0.307	-0.22975175993441074	
14.275	0.134	-0.2054769367264624	
14.28	-0.095	-0.17977246792931234	
14.285	-0.333	-0.15446031862521264	
14.29	0.035	-0.12733748106070114	
14.295	0.151	-0.10627220274961086	
14.3	-0.260	-0.0856402783655526	
14.305	-0.049	-0.060122433753970125	
14.31	0.398	-0.03347207455250101	
14.315	-0.122	-0.004816109303077295	
14.32	-0.129	0.022289075127682287	
14.325	0.449	0.046782338358608525	
14.33	0.110	0.07302191071617012	
14.335	-0.184	0.09239511049634441	
14.34	0.337	0.10895264077850643	
14.345	0.337	0.12469808530685274	
14.35	-0.187	0.13408965280327356	
14.355	0.078	0.13404746697252878	
14.36	0.530	0.13467322502440765	
14.365	-0.068	0.13995068158716314	
14.37	-0.104	0.14029272387298	
14.375	0.420	0.13397575451676236	
14.38	0.050	0.12390033359329373	
14.385	-0.240	0.10729884240517076	
14.39	0.200	0.0891149566020992	
14.395	0.244	0.07068695367378716	
14.4	-0.252	0.05596963222988115	
14.405	-0.055	0.0431496017386757	
14.41	0.328	0.027713385799395595	
14.415	-0.159	0.01682184189340144	
14.42	-0.159	0.011356870714764824	
14.425	0.412	0.017089577173199345	
14.43	0.105	0.03278499496167699	
14.435	-0.177	0.05427674443115002	
14.44	0.314	0.07725308412346422	
14.445	0.372	0.10161743863449646	
14.45	-0.174	0.12286870929804203	
14.455	0.076	0.1342678243683038	
14.46	0.496	0.13772023593809118	
14.465	-0.078	0.13969795740969781	
14.47	-0.087	0.13842274927973386	
14.475	0.464	0.1341394270532106	
14.48	0.104	0.13266904340015656	
14.485	-0.205	0.1273060607741145	
14.49	0.169	0.11433035984728548	
14.495	0.154	0.08950495240181892	
14.5	-0.301	0.05586263117685271	
14.505	-0.098	0.02240401281798315	
14.51	0.269	-0.007346158842183672	
14.515	-0.217	-0.030383351951565486	
14.52	-0.210	-0.04143812699295231	
14.525	0.345	-0.040840324741206926	
14.53	-0.023	-0.03046959563342507	
14.535	-0.304	-0.021630901640450215	
14.54	0.033	-0.020570104055767615	
14.545	0.091	-0.034618329182038166	
14.55	-0.246	-0.04915973610891665	
14.555	0.130	-0.04042472925320457	
14.56	0.777	0.008638280795235858	
14.565	0.290	0.10251164386543839	
14.57	0.347	0.2196619815917398	
14.575	0.933	0.33818380726037284	
14.58	0.434	0.008638280795235858	
14.585	-0.097	0.48237325368465417	
14.59	0.327	0.461492121038945	
14.595	0.204	0.39026918043939063	
14.6	-0.306	0.2898314425610188	
14.605	-0.121	0.18265187889852072	
14.61	0.177	0.07951792942376569	
14.615	-0.277	-0.007528356384797212	
14.62	-0.271	-0.06717627022186348	
14.625	0.175	-0.1018456024786149	
14.63	-0.107	-0.11972318023472289	
14.635	-0.323	-0.12444201739113918	
14.64	0.041	-0.11639864605279066	
14.645	0.094	-0.10989297007295756	
14.65	-0.284	-0.10115877764794459	
14.655	-0.052	-0.08316761331351383	
14.66	0.360	-0.05957309612752819	
14.665	-0.145	-0.03268950657193694	
14.67	-0.119	-0.004042216216686781	
14.675	0.473	0.027219196395247978	
14.68	0.145	0.06308610293145303	
14.685	-0.138	0.09757430794429682	
14.69	0.408	0.12876469494732945	
14.695	0.417	0.15899167080141025	
14.7	-0.147	0.18274195491165984	
14.705	0.183	0.1949744987385887	
14.71	0.606	0.20240703965784948	
14.715	-0.019	0.21319359920317668	
14.72	0.017	0.21805545683711106	
14.725	0.608	0.2212399849694932	
14.73	0.214	0.2289759833065961	
14.735	-0.130	0.2326500743481712	
14.74	0.331	0.22379550482921554	
14.745	0.258	0.2028565753896693	
14.75	-0.242	0.17081637104726966	
14.755	-0.009	0.13207509776348014	
14.76	0.350	0.09325121860077049	
14.765	-0.187	0.06020616282796855	
14.77	-0.199	0.03523559865527961	
14.775	0.307	0.015115891261186211	
14.78	-0.040	-0.0001323922171488196	
14.785	-0.246	-0.007136377282938852	
14.79	0.192	-0.006192215654624857	
14.795	0.177	-0.002341809845699874	
14.8	-0.257	0.0019379751592826307	
14.805	-0.009	0.007213789205954635	
14.81	0.336	0.010047328632397332	
14.815	-0.159	0.014174411832108205	
14.82	-0.087	0.022452403036550904	
14.825	0.508	0.04203105676314029	
14.83	0.058	0.06971123958109293	
14.835	-0.199	0.09102105985301934	
14.84	0.266	0.0998278270050619	
14.845	0.236	0.0994697716589427	
14.85	-0.242	0.09303443061396578	
14.855	-0.045	0.07832723226840801	
14.86	0.244	0.051856268924092494	
14.865	-0.246	0.01917457374084131	
14.87	-0.228	-0.009353403976337394	
14.875	0.232	-0.03209950106109527	
14.88	-0.130	-0.05241558287074652	
14.885	-0.324	-0.06775684059017653	
14.89	0.087	-0.0761414043727575	
14.895	0.032	-0.08375051602141463	
14.9	-0.359	-0.09287091404358547	
14.905	-0.158	-0.09949571204514421	
14.91	0.042	-0.11531821602846003	
14.915	-0.332	-0.1389140450315171	
14.92	-0.243	-0.1521361654030304	
14.925	0.408	-0.1380863498071251	
14.93	0.290	-0.08558110024016466	
14.935	0.189	0.011367883255706519	
14.94	1.013	0.15301600449526417	
14.945	1.007	0.33009702501266414	
14.95	0.212	-0.06148934692096115	
14.955	0.377	0.587586180615206	
14.96	0.446	0.5885621195435307	
14.965	-0.248	0.5089814709993219	
14.97	-0.257	0.37496758353496135	
14.975	0.055	0.21684967851100487	
14.98	-0.239	0.062299722310140616	
14.985	-0.414	-0.06148934692096115	
14.99	-0.098	-0.14696906015567646	
14.995	-0.106	-0.20808729464380224	
15.0	-0.410	-0.24280597954407687	
15.005	-0.148	-0.24514636679610394	
15.01	0.156	-0.22854638583208345	
15.015	-0.260	-0.2011041486935718	
15.02	-0.187	-0.1627893886531629	
15.025	0.328	-0.11712979084214413	
15.03	-0.051	-0.07396957892128717	
15.035	-0.223	-0.036437017602309524	
15.04	0.302	-0.0017792228603130448	
15.045	0.293	0.03272425341671141	
15.05	-0.164	0.0670640604468832	
15.055	0.133	0.09606224476273534	
15.06	0.487	0.11742142922024577	
15.065	-0.097	0.13468331264496658	
15.07	0.007	0.14534907779189685	
15.075	0.660	0.16098488206043743	
15.08	0.226	0.1908483292165021	
15.085	-0.058	0.22059243233669645	
15.09	0.527	0.24236026329675348	
15.095	0.408	0.2595831225160862	
15.1	-0.144	0.2650267638431515	
15.105	0.172	0.2532035936370296	
15.11	0.441	0.22732915354160146	
15.115	-0.161	0.1956217582459298	
15.12	-0.136	0.15649696830648202	
15.125	0.330	0.11390974560790941	
15.13	-0.080	0.07272716268046345	
15.135	-0.266	0.036771550380130164	
15.14	0.151	0.009386697075772426	
15.145	0.062	-0.01560648318605673	
15.15	-0.321	-0.03585570865209733	
15.155	-0.072	-0.04963890960152694	
15.16	0.195	-0.06285990947715507	
15.165	-0.248	-0.07241367912966744	
15.17	-0.171	-0.07127000343816173	
15.175	0.318	-0.06116024674209067	
15.18	-0.077	-0.04646293844627209	
15.185	-0.232	-0.03106526273477945	
15.19	0.307	-0.010517887773797332	
15.195	0.218	0.015183341945760886	
15.2	-0.220	0.04016187549451022	
15.205	0.088	0.05853788157640836	
15.21	0.372	0.06800348761523534	
15.215	-0.179	0.07348332515107489	
15.22	-0.095	0.07290556064255443	
15.225	0.431	0.07080912778782983	
15.23	-0.045	0.07038050094460176	
15.235	-0.251	0.06506555277340936	
15.24	0.160	0.04952652668618959	
15.245	0.018	0.022989153437037196	
15.25	-0.346	-0.009761534342300008	
15.255	-0.110	-0.041299031822188616	
15.26	0.087	-0.07416741716061197	
15.265	-0.310	-0.10556629603431342	
15.27	-0.234	-0.1228660231311746	
15.275	0.162	-0.12824837961322802	
15.28	-0.202	-0.13281465076599386	
15.285	-0.370	-0.13476997095350216	
15.29	-0.002	-0.1363448248425982	
15.295	0.021	-0.14322894423982155	
15.3	-0.197	-0.13576452177225265	
15.305	0.489	-0.0820085798202384	
15.31	1.029	0.03879849697767436	
15.315	0.463	0.21323688486828976	
15.32	0.586	0.3912626032893062	
15.325	0.968	-0.023305750510658755	
15.33	0.255	0.6149334806108031	
15.335	-0.119	0.6082075624576162	
15.34	0.263	0.5227786246960608	
15.345	0.006	0.38764846656542246	
15.35	-0.367	0.23817847256873273	
15.355	-0.162	0.09908778582886739	
15.36	0.012	-0.023305750510658755	
15.365	-0.339	-0.11783111721133359	
15.37	-0.262	-0.17153097756646252	
15.375	0.163	-0.19014580924596886	
15.38	-0.167	-0.18818215753617792	
15.385	-0.287	-0.16963362814889008	
15.39	0.165	-0.13904115659438707	
15.395	0.072	-0.10753438459567456	
15.4	-0.266	-0.07890452653354221	
15.405	0.082	-0.04668972834169275	
15.41	0.356	-0.015356719938485393	
15.415	-0.177	0.013916384738218213	
15.42	-0.037	0.03959017603937443	
15.425	0.498	0.06399318283146742	
15.43	0.018	0.08858470673162591	
15.435	-0.103	0.10932985485437263	
15.44	0.533	0.13319704009258074	
15.445	0.420	0.16837982147043934	
15.45	-0.081	0.20592932957091362	
15.455	0.350	0.23547126562979884	
15.46	0.632	0.2586847818874951	
15.465	-0.040	0.2777484913873686	
15.47	0.091	0.28164506042749415	
15.475	0.658	0.2760799627862071	
15.48	0.122	0.27248689194091946	
15.485	-0.113	0.26133587403877967	
15.49	0.398	0.239240979768557	
15.495	0.191	0.20829393058570148	
15.5	-0.231	0.17296081187475915	
15.505	0.068	0.13454821982251153	
15.51	0.285	0.09458468202535822	
15.515	-0.246	0.05775739535692975	
15.52	-0.152	0.02878773541509395	
15.525	0.299	0.004996307179149554	
15.53	-0.100	-0.011603645761383983	
15.535	-0.203	-0.017495402443439997	
15.54	0.350	-0.00772367506992086	
15.545	0.183	0.01413518932897704	
15.55	-0.222	0.038028798529098545	
15.555	0.145	0.057662083595564094	
15.56	0.408	0.07344460408106296	
15.565	-0.133	0.08872472427269794	
15.57	-0.013	0.10193378584640556	
15.575	0.531	0.11392335905372081	
15.58	0.000	0.12628992491185825	
15.585	-0.138	0.13362673269470499	
15.59	0.400	0.13426308420993616	
15.595	0.197	0.13399258635070893	
15.6	-0.219	0.12813678796601136	
15.605	0.085	0.1157323638376308	
15.61	0.263	0.09227085087737387	
15.615	-0.262	0.06275923759553578	
15.62	-0.162	0.033093957331175525	
15.625	0.269	0.004788512850330844	
15.63	-0.152	-0.019783523457010975	
15.635	-0.268	-0.037172538728970195	
15.64	0.192	-0.04375884678475392	
15.645	0.026	-0.049184124385300336	
15.65	-0.318	-0.05273847779976049	
15.655	-0.083	-0.056151140192686105	
15.66	0.084	-0.0719105963219115	
15.665	-0.263	-0.09126495527695709	
15.67	-0.048	-0.09068925802390213	
15.675	0.669	-0.05223587604658199	
15.68	0.339	0.031074179902244096	
15.685	0.235	0.1449580693485723	
15.69	0.921	0.2713204910326821	
15.695	0.621	0.3906252761848536	
15.7	-0.081	0.46723039525973387	
15.705	0.255	0.47194536821716504	
15.71	0.356	0.41696745546527103	
15.715	-0.214	0.3316939474765143	
15.72	-0.095	0.236434809177572	
15.725	0.325	0.14964838797780888	
15.73	-0.142	0.07697647317471222	
15.735	-0.245	0.02414189574225209	
15.74	0.185	-0.009700141373594595	
15.745	-0.025	-0.03753541518441512	
15.75	-0.324	-0.05857022358064145	
15.755	-0.020	-0.06988536752174235	
15.76	0.172	-0.07822545225266714	
15.765	-0.255	-0.08031607052539613	
15.77	-0.124	-0.07134705098207321	
15.775	0.342	-0.05545206863365614	
15.78	-0.089	-0.03620656794444155	
15.785	-0.164	-0.012690349017897493	
15.79	0.403	0.01637988067427626	
15.795	0.208	0.05024968267902579	
15.8	-0.187	0.08045449221957979	
15.805	0.236	0.10429155180888108	
15.81	0.496	0.12663607861213563	
15.815	-0.072	0.15058872621994035	
15.82	0.159	0.17583382927769867	
15.825	0.669	0.20351705150126315	
15.83	0.073	0.231635508053283	
15.835	-0.075	0.24341949306692268	
15.84	0.530	0.2414148854413616	
15.845	0.270	0.23710528662225308	
15.85	-0.176	0.22653604858395696	
15.855	0.204	0.20536525585413984	
15.86	0.369	0.17847909377528365	
15.865	-0.194	0.15063574055555717	
15.87	-0.074	0.12196565883348158	
15.875	0.368	0.09135140716690478	
15.88	-0.115	0.0646177678875937	
15.885	-0.214	0.04365031989160548	
15.89	0.229	0.02630899769226354	
15.895	-0.019	0.0059294223823771934	
15.9	-0.294	-0.014239787279631303	
15.905	0.020	-0.029565556840438885	
15.91	0.186	-0.041771487033152435	
15.915	-0.251	-0.04828126818671281	
15.92	-0.124	-0.046819176238827066	
15.925	0.302	-0.04184234469890891	
15.93	-0.113	-0.03348828421622925	
15.935	-0.173	-0.02110334870921241	
15.94	0.337	-0.001719140030112436	
15.945	0.088	0.018711271718938622	
15.95	-0.262	0.03290348500571129	
15.955	0.088	0.036541514744729886	
15.96	0.215	0.031003756612019352	
15.965	-0.252	0.01973177927699148	
15.97	-0.110	0.008381767209661856	
15.975	0.321	-0.0009797569602801664	
15.98	-0.159	-0.007600037942517681	
15.985	-0.240	-0.012904774638433456	
15.99	0.220	-0.01774193230541845	
15.995	-0.029	-0.025477483650713728	
16.0	-0.320	-0.03695438372637776	
16.005	-0.002	-0.04634143808154033	
16.01	0.131	-0.059190282896417576	
16.015	-0.286	-0.07026291447287904	
16.02	-0.150	-0.07342103421154321	
16.025	0.203	-0.07509063762353776	
16.03	-0.219	-0.07974396966902401	
16.035	-0.257	-0.08172226757983996	
16.04	0.223	-0.07668132375693139	
16.045	0.097	-0.06367332103010381	
16.05	-0.118	-0.03589212501675864	
16.055	0.516	0.02086451418105979	
16.06	0.684	0.11069578161226033	
16.065	-0.022	0.20660920018986512	
16.07	0.113	-0.03589212501675864	
16.075	0.531	0.2848829245052683	
16.08	-0.083	0.2721326200748525	
16.085	-0.202	0.23135180553866477	
16.09	0.189	0.16932355557592538	
16.095	-0.083	0.09521723466857976	
16.1	-0.373	0.021181353423427526	
16.105	-0.074	-0.042112567392601025	
16.11	0.027	-0.09545053698197518	
16.115	-0.339	-0.135302270745791	
16.12	-0.170	-0.15111880534704156	
16.125	0.224	-0.14821722371151577	
16.13	-0.167	-0.13293336959619895	
16.135	-0.203	-0.1074660690323093	
16.14	0.314	-0.07266032138372394	
16.145	0.039	-0.037944801482710754	
16.15	-0.252	-0.010769523977906042	
16.155	0.094	0.006987519866781642	
16.16	0.269	0.015426532263220959	
16.165	-0.211	0.021639094067501297	
16.17	-0.040	0.029000977828126672	
16.175	0.398	0.03574642901498195	
16.18	-0.095	0.04395006542330851	
16.185	-0.136	0.05162391323940895	
16.19	0.446	0.0633941258847624	
16.195	0.206	0.0849428044471322	
16.2	-0.165	0.10826856956620731	
16.205	0.325	0.12808485546178472	
16.21	0.424	0.14732947174383276	
16.215	-0.170	0.1626139245544368	
16.22	-0.002	0.16109235761181398	
16.225	0.434	0.14566576618156268	
16.23	-0.109	0.12691157110808698	
16.235	-0.167	0.10575141898624965	
16.24	0.305	0.08232181794364743	
16.245	-0.023	0.058832569016467974	
16.25	-0.306	0.030425620429982363	
16.255	-0.006	0.001094792415939848	
16.26	0.075	-0.03385482369496537	
16.265	-0.307	-0.06626683169636982	
16.27	-0.141	-0.08374618853111611	
16.275	0.261	-0.08950555592184672	
16.28	-0.182	-0.08512908154590446	
16.285	-0.210	-0.07304717292423638	
16.29	0.279	-0.05473833102135548	
16.295	0.020	-0.03632432734215487	
16.3	-0.243	-0.01943340444162473	
16.305	0.174	-0.0028252995053702837	
16.31	0.288	0.015977025057241502	
16.315	-0.229	0.032744867954285745	
16.32	-0.083	0.0403750467490625	
16.325	0.321	0.03536854463833233	
16.33	-0.153	0.026806046007609968	
16.335	-0.181	0.019113497229417346	
16.34	0.340	0.016223548221542216	
16.345	0.017	0.01954263193199089	
16.35	-0.269	0.018696158569199414	
16.355	0.024	0.011212433054570484	
16.36	0.055	-0.01120774106905264	
16.365	-0.333	-0.0421902937586908	
16.37	-0.161	-0.06845732507874858	
16.375	0.197	-0.08776217472778705	
16.38	-0.231	-0.09926342651101432	
16.385	-0.271	-0.10171142337610128	
16.39	0.142	-0.10080748078771193	
16.395	-0.086	-0.10262305653489576	
16.4	-0.332	-0.10318578396228917	
16.405	-0.003	-0.10066406927378396	
16.41	0.047	-0.10337162958136575	
16.415	-0.300	-0.10822701212958313	
16.42	-0.006	-0.09926102069704547	
16.425	0.614	-0.06079169568758127	
16.43	0.156	0.014597019781269996	
16.435	0.171	0.10941548513789576	
16.44	0.725	0.2042542098989222	
16.445	0.215	-0.06079169568758127	
16.45	-0.200	-0.06079169568758127	
16.455	0.169	0.28342886619335933	
16.46	0.166	0.2225298139397126	
16.465	-0.315	0.1477533944998953	
16.47	-0.161	0.07283148545377145	
16.475	0.120	0.00010337517765623624	
16.48	-0.274	-0.0634660048437609	
16.485	-0.298	-0.10643207060206927	
16.49	0.097	-0.1307536108096464	
16.495	-0.138	-0.14791883495892888	
16.5	-0.346	-0.15404694576294625	
16.505	0.018	-0.14843946478379147	
16.51	0.090	-0.1376311797910638	
16.515	-0.284	-0.12328226207164267	
16.52	-0.072	-0.10197619522602588	
16.525	0.348	-0.07394637636244192	
16.53	-0.126	-0.04264739326617965	
16.535	-0.113	-0.010317908557994793	
16.54	0.437	0.024345929859579542	
16.545	0.096	0.05790044613715677	
16.55	-0.182	0.08392884118282645	
16.555	0.295	0.10071818492662474	
16.56	0.371	0.11528837849827775	
16.565	-0.152	0.13061417964847383	
16.57	0.101	0.139146357099382	
16.575	0.528	0.1460524369247821	
16.58	-0.057	0.15423856723619264	
16.585	-0.077	0.15575817700530487	
16.59	0.479	0.1523781234976745	
16.595	0.102	0.14980156535288008	
16.6	-0.200	0.1429942613649609	
16.605	0.221	0.12776617905878201	
16.61	0.229	0.10816600011499597	
16.615	-0.278	0.08466109724976911	
16.62	-0.095	0.0562456490059695	
16.625	0.244	0.021916105148817217	
16.63	-0.203	-0.007768328956045852	
16.635	-0.202	-0.02805993808660424	
16.64	0.275	-0.035708679385039147	
16.645	-0.035	-0.03632286351531765	
16.65	-0.266	-0.033826216978726314	
16.655	0.143	-0.02720087814441715	
16.66	0.130	-0.02302779384089585	
16.665	-0.272	-0.02225862026720134	
16.67	-0.060	-0.021604594921666356	
16.675	0.311	-0.020237121972500393	
16.68	-0.155	-0.015824837972645753	
16.685	-0.153	-0.006891925818911869	
16.69	0.330	0.0042363694772292425	
16.695	0.000	0.014534721445434653	
16.7	-0.236	0.02129712727709327	
16.705	0.197	0.025858651766257238	
16.71	0.191	0.028817579528246217	
16.715	-0.252	0.0277755011025992	
16.72	-0.051	0.02352121790376423	
16.725	0.298	0.014645712354640572	
16.73	-0.211	0.005115505678510696	
16.735	-0.246	-0.0067480814556395525	
16.74	0.165	-0.024805798049548505	
16.745	-0.112	-0.04859306315917036	
16.75	-0.332	-0.06957432570700009	
16.755	-0.003	-0.08507230812992078	
16.76	-0.003	-0.10335356013033417	
16.765	-0.353	-0.12119887923841577	
16.77	-0.170	-0.1302972773211849	
16.775	0.096	-0.13846367660135406	
16.78	-0.298	-0.14701910615291308	
16.785	-0.274	-0.14955684642746617	
16.79	0.208	-0.14073373426469718	
16.795	-0.005	-0.12280430128727925	
16.8	-0.139	-0.0885266261256921	
16.805	0.536	-0.02484338992613781	
16.81	0.626	0.0705335795987491	
16.815	-0.019	0.1756485389248657	
16.82	0.217	0.2498427427383112	
16.825	0.461	0.28052421893643575	
16.83	-0.164	0.27079730669768926	
16.835	-0.197	0.2245134314332861	
16.84	0.201	0.15533418811025623	
16.845	-0.138	0.07705568245738714	
16.85	-0.355	0.004501089103157251	
16.855	-0.046	-0.05475323957272082	
16.86	-0.051	-0.10860699346265575	
16.865	-0.401	-0.15035217927534061	
16.87	-0.199	-0.17393348494714622	
16.875	0.046	-0.18851590543607705	
16.88	-0.326	-0.1993488448346324	
16.885	-0.269	-0.1962973210425809	
16.89	0.189	-0.17854540892579193	
16.895	-0.095	-0.1551845450055335	
16.9	-0.269	-0.12651076444907308	
16.905	0.162	-0.09249859695340998	
16.91	0.165	-0.06074067212386111	
16.915	-0.231	-0.032577105721452795	
16.92	0.058	-0.005697728405554711	
16.925	0.478	0.025580578338591606	
16.93	-0.063	0.06135447745989204	
16.935	-0.017	0.09475396036738352	
16.94	0.553	0.1256945382342507	
16.945	0.152	0.1566114297826467	
16.95	-0.129	0.1773598069850077	
16.955	0.406	0.186746859366811	
16.96	0.386	0.19422853280563931	
16.965	-0.162	0.1982246018682926	
16.97	0.120	0.1904369450778164	
16.975	0.457	0.17564715572254785	
16.98	-0.130	0.15918831627302904	
16.985	-0.097	0.1388076240571663	
16.99	0.412	0.11779969308984617	
16.995	-0.009	0.099497220297518	
17.0	-0.226	0.08136774461506383	
17.005	0.223	0.06486139445960193	
17.01	0.148	0.049142588403406254	
17.015	-0.275	0.03318376239277156	
17.02	-0.043	0.017563673871362536	
17.025	0.318	0.00361520278533279	
17.03	-0.187	-0.00390052037856999	
17.035	-0.150	-0.003085593102428852	
17.04	0.377	0.002829935019224765	
17.045	-0.006	0.013372559470229077	
17.05	-0.193	0.025417409717332386	
17.055	0.351	0.0439621186101431	
17.06	0.319	0.07004124190853117	
17.065	-0.177	0.0961507933959259	
17.07	0.130	0.11567201893356553	
17.075	0.460	0.12756175573758355	
17.08	-0.136	0.13301163792905496	
17.085	-0.112	0.12799616418953744	
17.09	0.443	0.11583389747663386	
17.095	0.035	0.10629020579793064	
17.1	-0.205	0.09848071631647506	
17.105	0.198	0.08598079876694815	
17.11	0.093	0.06392643876761778	
17.115	-0.312	0.03520088030118347	
17.12	-0.107	0.003770890205434937	
17.125	0.191	-0.02954981425224789	
17.13	-0.258	-0.05800673100643674	
17.135	-0.225	-0.07383687029360286	
17.14	0.214	-0.08021652496642472	
17.145	-0.130	-0.08485617795868308	
17.15	-0.329	-0.08639023999511278	
17.155	0.018	-0.08892918583264814	
17.16	-0.005	-0.1012524342014678	
17.165	-0.295	-0.11079303461636068	
17.17	0.096	-0.09900869280701317	
17.175	0.687	-0.05061084816112933	
17.18	0.198	0.041853539685594326	
17.185	0.382	0.1603313719120139	
17.19	0.929	0.2858261270140764	
17.195	0.347	-0.04622248527712057	
17.2	-0.075	-0.04622248527712057	
17.205	0.365	-0.04622248527712057	
