Time	Potential	EKG	Unnamed: 3
0.0	0.489	0.026352376554547224	
0.005	-0.148	0.0632972468226432	
0.01	-0.220	0.07527200779360343	
0.015	0.119	0.04937783205116472	
0.02	-0.176	0.010434885429458984	
0.025	-0.381	-0.03710822370389738	
0.03	-0.016	-0.08776426297075599	
0.035	0.007	-0.12289256069846007	
0.04	-0.330	-0.138149838397583	
0.045	-0.129	-0.14533721272352304	
0.05	0.169	-0.14220152751391918	
0.055	-0.232	-0.126739193799846	
0.06	-0.232	-0.11144293339016914	
0.065	0.175	-0.10113297576806668	
0.07	-0.112	-0.08976449693165736	
0.075	-0.280	-0.0814229777977376	
0.08	0.166	-0.07376267471786485	
0.085	0.183	-0.054234941966889584	
0.09	-0.257	-0.028542305871572034	
0.095	0.023	-0.011152588336813943	
0.1	0.417	0.007017323817114543	
0.105	-0.112	0.03634184306191617	
0.11	-0.098	0.057934752784406796	
0.115	0.478	0.07311646954047837	
0.12	0.151	0.0990898099282892	
0.125	-0.152	0.12348840991207086	
0.13	0.348	0.13600929786229873	
0.135	0.328	0.14730091047830657	
0.14	-0.173	0.1564026456454159	
0.145	0.128	0.15197494396499744	
0.15	0.542	0.1489204631076721	
0.155	-0.080	0.1576866505002379	
0.16	-0.083	0.15749146489346844	
0.165	0.450	0.14597455512614074	
0.17	0.050	0.13797367840156816	
0.175	-0.219	0.12476834687356539	
0.18	0.263	0.10454905040486706	
0.185	0.263	0.09164883087341005	
0.19	-0.223	0.08472284989601774	
0.195	0.006	0.07407362843901483	
0.2	0.376	0.061472074970834775	
0.205	-0.116	0.058262828764868095	
0.21	-0.135	0.05626119378493878	
0.215	0.363	0.05351633575046402	
0.22	-0.031	0.05185329309245926	
0.225	-0.245	0.04434010237112905	
0.23	0.209	0.034927108216764494	
0.235	0.159	0.02781311939797472	
0.24	-0.231	0.023260746588035584	
0.245	0.018	0.021208877283732247	
0.25	0.345	0.021837981807323832	
0.255	-0.147	0.026905693575649453	
0.26	-0.129	0.03312071774926209	
0.265	0.398	0.03894846309990052	
0.27	0.010	0.048732782648240776	
0.275	-0.202	0.05499885475705944	
0.28	0.290	0.06125161077681572	
0.285	0.288	0.07094884466209227	
0.29	-0.168	0.08586909666178463	
0.295	0.142	0.09931229049654132	
0.3	0.481	0.11414428034533343	
0.305	-0.087	0.1296189121208512	
0.31	-0.064	0.1359905332209903	
0.315	0.516	0.13828282278708498	
0.32	0.052	0.1426585033860762	
0.325	-0.196	0.1397308494963034	
0.33	0.215	0.1234542106026898	
0.335	0.111	0.09705076924657731	
0.34	-0.301	0.0626130072351945	
0.345	-0.078	0.02536272342565167	
0.35	0.252	-0.007649564433301908	
0.355	-0.220	-0.030527737158512296	
0.36	-0.213	-0.04308475698089821	
0.365	0.243	-0.049522241218006836	
0.37	-0.095	-0.05338818818566743	
0.375	-0.300	-0.0564169780402589	
0.38	0.084	-0.05738573124519274	
0.385	0.091	-0.06188718713389428	
0.39	-0.294	-0.06357656459677524	
0.395	-0.055	-0.05956440891981582	
0.4	0.377	-0.04949550306112784	
0.405	-0.104	-0.02570391059452603	
0.41	0.047	0.012878837927771643	
0.415	0.926	0.08271629620852988	
0.42	0.643	0.19956533156654852	
0.425	0.330	0.3384269749854118	
0.43	0.831	0.4617277374312689	
0.435	0.548	0.541109393648477	
0.44	-0.147	0.552229380369603	
0.445	0.081	0.4904414849296219	
0.45	0.284	0.38157225815394885	
0.455	-0.274	0.2572301486944525	
0.46	-0.292	0.13486290515904276	
0.465	0.072	0.024730474324754545	
0.47	-0.185	-0.06848043948664399	
0.475	-0.365	-0.13153476163949185	
0.48	-0.019	-0.1631793684028193	
0.485	-0.019	-0.17989523480280195	
0.49	-0.356	-0.18474593418775165	
0.495	-0.112	-0.17342672899519773	
0.5	0.177	-0.1554284346829359	
0.505	-0.231	-0.13589783198820865	
0.51	-0.193	-0.1100738853809555	
0.515	0.290	-0.08215843409866527	
0.52	-0.058	-0.056644287063192314	
0.525	-0.239	-0.03562941271332905	
0.53	0.249	-0.013990560777404789	
0.535	0.236	0.010080900535708693	
0.54	-0.211	0.03204578799253049	
0.545	0.120	0.05469359970126321	
0.55	0.502	0.07770901014909094	
0.555	-0.069	0.10490181882945858	
0.56	-0.002	0.12889553079257537	
0.565	0.612	0.15204734027311703	
0.57	0.177	0.18027662900301045	
0.575	-0.130	0.2012254741862264	
0.58	0.397	0.20713984508712796	
0.585	0.379	0.20711539993053502	
0.59	-0.127	0.2059198997196453	
0.595	0.217	0.20274190011657156	
0.6	0.563	0.2017735980822901	
0.605	-0.034	0.20582988371846878	
0.61	-0.026	0.20489851315619578	
0.615	0.507	0.19707819713953323	
0.62	0.059	0.18523301246992593	
0.625	-0.142	0.16825230296493704	
0.63	0.394	0.15618439969736794	
0.635	0.293	0.1510737331901403	
0.64	-0.200	0.14592201810489303	
0.645	0.078	0.13576861560637454	
0.65	0.431	0.12073062436713251	
0.655	-0.133	0.10984055467090034	
0.66	-0.129	0.09894873064500355	
0.665	0.371	0.08502990655438482	
0.67	-0.046	0.06921752748484453	
0.675	-0.271	0.050323779425503506	
0.68	0.206	0.03314541210618631	
0.685	0.194	0.021012926494251145	
0.69	-0.234	0.017018326093489654	
0.695	0.020	0.019797023339377353	
0.7	0.376	0.024618434186880794	
0.705	-0.152	0.031876949004143826	
0.71	-0.112	0.0410449058432771	
0.715	0.441	0.05194138637986984	
0.72	-0.008	0.06317854997567865	
0.725	-0.196	0.06943477058502336	
0.73	0.311	0.07410950280235755	
0.735	0.288	0.08191935952562474	
0.74	-0.168	0.09411056067330976	
0.745	0.160	0.10782479135132057	
0.75	0.501	0.12250082788966747	
0.755	-0.107	0.13792674811422156	
0.76	-0.084	0.14211954735382282	
0.765	0.434	0.13580839928974126	
0.77	-0.003	0.12417845781787971	
0.775	-0.234	0.10558437588340008	
0.78	0.171	0.08200166804096996	
0.785	0.044	0.0488081203707211	
0.79	-0.341	0.010281953784486545	
0.795	-0.110	-0.026169639053996087	
0.8	0.139	-0.06067650860333523	
0.805	-0.283	-0.08996102965104916	
0.81	-0.214	-0.10373882157517579	
0.815	0.201	-0.10534071252643164	
0.82	-0.159	-0.10485744959469552	
0.825	-0.341	-0.10425933413918828	
0.83	0.035	-0.10403745546126288	
0.835	-0.016	-0.11130410412789206	
0.84	-0.292	-0.1166274828581677	
0.845	0.088	-0.10308915059832527	
0.85	0.614	-0.05574206275264541	
0.855	0.162	0.028038903460216143	
0.86	0.432	0.1403333207642644	
0.865	1.097	0.2766390196039481	
0.87	0.576	0.4221046092363637	
0.875	0.064	0.5237289866037973	
0.88	0.464	0.5488652609057236	
0.885	0.232	0.503655302303028	
0.89	-0.306	0.4074551931213177	
0.895	-0.150	0.279820970461363	
0.9	0.003	0.13511769202861773	
0.905	-0.339	-0.0008127407744035141	
0.91	-0.318	-0.10058491118957501	
0.915	0.006	-0.16655474647245205	
0.92	-0.254	-0.21285651645771764	
0.925	-0.391	-0.2350093736558035	
0.93	-0.006	-0.23314907134470833	
0.935	-0.048	-0.22346161952427251	
0.94	-0.379	-0.20841911059661994	
0.945	-0.119	-0.18707405082626286	
0.95	0.130	-0.1670068365997116	
0.955	-0.257	-0.14888944755530464	
0.96	-0.181	-0.12548500333756013	
0.965	0.281	-0.09654606415105005	
0.97	-0.089	-0.07099497627288374	
0.975	-0.251	-0.04900652135132978	
0.98	0.221	-0.029036646084483274	
0.985	0.124	-0.012534857375909432	
0.99	-0.263	-0.001520170227351033	
0.995	0.062	0.007042280991999202	
1.0	0.455	0.022047816482578066	
1.005	-0.115	0.04798337800142231	
1.01	-0.068	0.07152475647493385	
1.015	0.519	0.09255050826726133	
1.02	0.046	0.11294418408445475	
1.025	-0.203	0.12394549439436202	
1.03	0.267	0.11901592048169857	
1.035	0.194	0.1064557448400617	
1.04	-0.217	0.09046645641338968	
1.045	0.136	0.08107309507747042	
1.05	0.495	0.08402636781201481	
1.055	-0.109	0.09898407804692423	
1.06	-0.112	0.10955625215515173	
1.065	0.405	0.10649175238918704	
1.07	-0.040	0.09693264897884116	
1.075	-0.220	0.08204152321878927	
1.08	0.292	0.06798461670322559	
1.085	0.171	0.059388769363469505	
1.09	-0.277	0.05256419640060986	
1.095	-0.008	0.03906457470923945	
1.1	0.307	0.023883244578387537	
1.105	-0.211	0.013079097154752075	
1.11	-0.145	0.0066722625115452835	
1.115	0.247	-0.0006701871656178266	
1.12	-0.150	-0.014083662540365494	
1.125	-0.294	-0.030775587429155413	
1.13	0.156	-0.04311048178914731	
1.135	0.065	-0.050738975805042726	
1.14	-0.304	-0.055257822325280585	
1.145	-0.023	-0.05390218642765369	
1.15	0.292	-0.04929780681138858	
1.155	-0.196	-0.03784396222147728	
1.16	-0.153	-0.02420308006449066	
1.165	0.339	-0.011819230769192954	
1.17	-0.052	-0.00010790285657928824	
1.175	-0.211	0.009389763769712891	
1.18	0.241	0.018805493940155692	
1.185	0.166	0.026135605041844694	
1.19	-0.232	0.032895768514824994	
1.195	0.030	0.03612194974999769	
1.2	0.217	0.029510419827948102	
1.205	-0.240	0.01522167434175275	
1.21	-0.184	-0.0020575695872011353	
1.215	0.195	-0.020967469407337926	
1.22	-0.181	-0.04316906682775307	
1.225	-0.352	-0.06743242383565534	
1.23	0.003	-0.09123262956165203	
1.235	-0.042	-0.11701564511094031	
1.24	-0.359	-0.1359770499815368	
1.245	-0.121	-0.14377645627301283	
1.25	0.117	-0.1456411154603754	
1.255	-0.301	-0.14478302688062888	
1.26	-0.222	-0.13689755219053396	
1.265	0.198	-0.1250327505789538	
1.27	-0.161	-0.11328807755198111	
1.275	-0.284	-0.10230982780459258	
1.28	0.224	-0.08516869255639846	
1.285	0.230	-0.05614808060384835	
1.29	-0.133	-0.013958894274203909	
1.295	0.389	0.043345063351820805	
1.3	0.783	0.12729972922940452	
1.305	0.139	0.22516650440759897	
1.31	0.124	0.2991494067570965	
1.315	0.450	0.32688140637696816	
1.32	-0.112	0.30464874271808384	
1.325	-0.300	0.2367727834247637	
1.33	0.029	0.14477105313766012	
1.335	-0.060	0.04577076639196967	
1.34	-0.358	-0.03982095794844154	
1.345	-0.119	-0.09864692791610633	
1.35	0.059	-0.13686087840844313	
1.355	-0.321	-0.1617443914094764	
1.36	-0.263	-0.16969280536636083	
1.365	0.122	-0.1682003062677256	
1.37	-0.203	-0.16437366376866708	
1.375	-0.326	-0.1570822214859089	
1.38	0.059	-0.14523460792728032	
1.385	-0.035	-0.13735005023157126	
1.39	-0.312	-0.13079518651566427	
1.395	-0.034	-0.1165739758790824	
1.4	0.214	-0.09992768293382236	
1.405	-0.194	-0.07981114837556891	
1.41	-0.115	-0.05561724430849048	
1.415	0.385	-0.027165322709988837	
1.42	-0.017	0.002528416399759927	
1.425	-0.147	0.029915866948346418	
1.43	0.366	0.05686478270900189	
1.435	0.273	0.08560782209891357	
1.44	-0.171	0.11012400129171437	
1.445	0.114	0.12248570620653758	
1.45	0.427	0.12408868765220187	
1.455	-0.064	0.1281218294387904	
1.46	-0.008	0.13341579006229098	
1.465	0.452	0.13585996164209402	
1.47	-0.014	0.13446310885970114	
1.475	-0.164	0.1249397469133797	
1.48	0.327	0.11190698934251551	
1.485	0.233	0.10554721544836518	
1.49	-0.174	0.10314886158462365	
1.495	0.174	0.1045600482369069	
1.5	0.402	0.10802255739148107	
1.505	-0.153	0.11209564023096372	
1.51	-0.083	0.10748816868655106	
1.515	0.334	0.09381270340470631	
1.52	-0.074	0.07542466045131645	
1.525	-0.213	0.05503474966910332	
1.53	0.188	0.0358831036493508	
1.535	0.070	0.01745478002518548	
1.54	-0.251	0.0012322345604291157	
1.545	0.035	-0.007393910592139063	
1.55	0.264	-0.010085220670958992	
1.555	-0.200	-0.008876767332203122	
1.56	-0.112	-0.004407370936512315	
1.565	0.295	-0.000259487487910024	
1.57	-0.087	0.002370969505219304	
1.575	-0.214	0.0021304499179084944	
1.58	0.259	0.005881632324051817	
1.585	0.152	0.013374762024559684	
1.59	-0.219	0.024279918904574854	
1.595	0.105	0.03464119128820563	
1.6	0.327	0.043836286960877525	
1.605	-0.147	0.053131902331020366	
1.61	-0.101	0.0586563439034728	
1.615	0.357	0.0576792802421127	
1.62	-0.051	0.054342682734181594	
1.625	-0.194	0.05021813238342084	
1.63	0.259	0.04585170300087758	
1.635	0.146	0.04329087930091336	
1.64	-0.223	0.04236503871083033	
1.645	0.064	0.04067945984674813	
1.65	0.220	0.034714590078521	
1.655	-0.252	0.021155881108048155	
1.66	-0.199	0.0017638508005971463	
1.665	0.186	-0.022408537562639188	
1.67	-0.162	-0.047710210726929644	
1.675	-0.289	-0.06665298514788666	
1.68	0.084	-0.07915864432940065	
1.685	-0.038	-0.09083083594140416	
1.69	-0.318	-0.10156228960581662	
1.695	-0.054	-0.10423015556274998	
1.7	0.116	-0.10438598770413011	
1.705	-0.286	-0.10587489126851991	
1.71	-0.205	-0.10311390090773759	
1.715	0.247	-0.0974186908541317	
1.72	-0.069	-0.08381611634773492	
1.725	-0.104	-0.05758656984557489	
1.73	0.585	-0.0040562620391433315	
1.735	0.551	0.08310526554022875	
1.74	0.038	-0.05758656984557489	
1.745	0.406	0.26481167925080096	
1.75	0.507	0.3145636293499543	
1.755	-0.202	0.3210688670691435	
1.76	-0.179	0.27589579215975824	
1.765	0.114	0.1885273001531892	
1.77	-0.228	0.08517948836597604	
1.775	-0.364	-0.009503894419308226	
1.78	-0.037	-0.08513047879516644	
1.785	-0.152	-0.14798127982747933	
1.79	-0.393	-0.19146315354810486	
1.795	-0.100	-0.20811151603319322	
1.8	0.061	-0.2065401919701706	
1.805	-0.309	-0.19587911753153786	
1.81	-0.202	-0.17594608997484493	
1.815	0.214	-0.1505213431625171	
1.82	-0.129	-0.12292517625554102	
1.825	-0.225	-0.0944308369574863	
1.83	0.218	-0.06508486044924473	
1.835	0.072	-0.039093231213646454	
1.84	-0.240	-0.020495345994585485	
1.845	0.067	-0.005032894513994225	
1.85	0.241	0.005423504643505976	
1.855	-0.156	0.012041984486484155	
1.86	-0.040	0.022118702973658186	
1.865	0.394	0.036527356313491535	
1.87	-0.075	0.049983001705374626	
1.875	-0.229	0.05254650924167614	
1.88	0.264	0.047001646180066234	
1.885	0.117	0.040892012895723674	
1.89	-0.213	0.03644226360515174	
1.895	0.143	0.039025778653675236	
1.9	0.374	0.04847207374229367	
1.905	-0.147	0.06297633889484192	
1.91	-0.038	0.07509754601925428	
1.915	0.466	0.08458153045172212	
1.92	0.026	0.09798428411964519	
1.925	-0.132	0.10951933280451498	
1.93	0.270	0.11100709924528136	
1.935	0.130	0.10188941316048467	
1.94	-0.236	0.0864351527148872	
1.945	0.035	0.06602364375564414	
1.95	0.246	0.04344891544618311	
1.955	-0.202	0.02398985012349031	
1.96	-0.122	0.011141889338831049	
1.965	0.288	0.0015469604197592146	
1.97	-0.141	-0.007054523554380075	
1.975	-0.242	-0.015416556052718355	
1.98	0.195	-0.02196833669496958	
1.985	0.056	-0.025171838154953847	
1.99	-0.257	-0.0265407430587197	
1.995	0.055	-0.02291497681711257	
2.0	0.275	-0.015599715049165425	
2.005	-0.217	-0.0060442617402901196	
2.01	-0.112	0.0011951511498941682	
2.015	0.372	0.007538514292948314	
2.02	-0.045	0.017905824751705338	
2.025	-0.184	0.029623836884881797	
2.03	0.267	0.03803349478288896	
2.035	0.122	0.04277119557530508	
2.04	-0.217	0.044491318123547965	
2.045	0.172	0.0491198505472679	
2.05	0.406	0.061344395251167756	
2.055	-0.138	0.08096995329744222	
2.06	-0.038	0.09324467705230884	
2.065	0.417	0.09746577643684967	
2.07	-0.051	0.09889023733564553	
2.075	-0.179	0.09171055811478335	
2.08	0.258	0.07997618318898259	
2.085	0.032	0.06171235915053015	
2.09	-0.275	0.03759928062529895	
2.095	-0.017	0.012098009074434996	
2.1	0.146	-0.015776862219371524	
2.105	-0.252	-0.03993032070752696	
2.11	-0.153	-0.053670294730007784	
2.115	0.191	-0.061660056958558404	
2.12	-0.179	-0.07011165327905006	
2.125	-0.277	-0.07616308821508745	
2.13	0.093	-0.08007433100677688	
2.135	-0.049	-0.08837179317869445	
2.14	-0.292	-0.09531270757433594	
2.145	0.009	-0.09184624704968135	
2.15	0.302	-0.07785772310258955	
2.155	-0.104	-0.04693761972033752	
2.16	0.160	0.002421174856165457	
2.165	0.758	0.07733693148379074	
2.17	0.351	0.17483388072603773	
2.175	0.099	0.2678639397060876	
2.18	0.589	0.3319127073910977	
2.185	0.269	0.3585493133663964	
2.19	-0.188	0.34369845925335696	
2.195	0.017	0.2861471720921817	
2.2	0.094	0.19704552760051586	
2.205	-0.284	0.09910172834562946	
2.21	-0.187	0.015503456661636713	
2.215	0.114	-0.04777103826109657	
2.22	-0.194	-0.09420058569980345	
2.225	-0.258	-0.11896802458675913	
2.23	0.108	-0.12306674195586031	
2.235	-0.064	-0.12155941118437927	
2.24	-0.321	-0.119213530995957	
2.245	-0.042	-0.11372470966534237	
2.25	0.146	-0.10704394220954146	
2.255	-0.231	-0.09697088415756774	
2.26	-0.103	-0.07939029882939713	
2.265	0.301	-0.05676344257231507	
2.27	-0.087	-0.03433758596782778	
2.275	-0.170	-0.012946662099588651	
2.28	0.269	0.007034077480564725	
2.285	0.076	0.021349672296300973	
2.29	-0.197	0.02971852464699777	
2.295	0.134	0.037401536737972085	
2.3	0.340	0.04796080889997778	
2.305	-0.109	0.06189695919587147	
2.31	-0.011	0.07766966630303182	
2.315	0.423	0.08932484308875485	
2.32	-0.026	0.0985431461282141	
2.325	-0.113	0.10203039881857211	
2.33	0.374	0.10516699398766961	
2.335	0.146	0.1083022045997867	
2.34	-0.181	0.10762255655712305	
2.345	0.178	0.10349895208824955	
2.35	0.363	0.10099015818824658	
2.355	-0.129	0.1027904372671147	
2.36	-0.042	0.10270389996438253	
2.365	0.345	0.09439207580451262	
2.37	-0.075	0.08246786564650879	
2.375	-0.162	0.06802430451280307	
2.38	0.246	0.055243676152795206	
2.385	0.070	0.04325568911696951	
2.39	-0.228	0.030586864212114817	
2.395	0.062	0.022580158702008565	
2.4	0.218	0.012971542990667908	
2.405	-0.170	0.007712340921920718	
2.41	-0.054	0.009786096932683909	
2.415	0.305	0.015448218851207375	
2.42	-0.122	0.017350120337000806	
2.425	-0.210	0.014021307703680673	
2.43	0.235	0.010368788579568142	
2.435	0.061	0.0061896733974355364	
2.44	-0.216	0.00449045391310585	
2.445	0.188	0.012715061699720798	
2.45	0.359	0.032016963977916195	
2.455	-0.205	0.0535481954645982	
2.46	-0.092	0.06279942617144324	
2.465	0.389	0.060575975328076785	
2.47	-0.029	0.06027441772623266	
2.475	-0.127	0.06496468219169468	
2.48	0.372	0.07347775629570369	
2.485	0.145	0.08417664400162087	
2.49	-0.199	0.09039527616087162	
2.495	0.175	0.0917600137989089	
2.5	0.348	0.09204718035823106	
2.505	-0.170	0.0924937997615036	
2.51	-0.084	0.08782528583412585	
2.515	0.313	0.07360528547217886	
2.52	-0.124	0.05321649635484117	
2.525	-0.234	0.031969033056456625	
2.53	0.168	0.010524739779223264	
2.535	-0.016	-0.01286730982124072	
2.54	-0.291	-0.034615850236449336	
2.545	-0.002	-0.04816305544255548	
2.55	0.168	-0.057977476554884784	
2.555	-0.263	-0.06357485996168569	
2.56	-0.138	-0.06209026803240882	
2.565	0.279	-0.056340258694936696	
2.57	-0.182	-0.05089731105720002	
2.575	-0.283	-0.050034177745164554	
2.58	0.189	-0.05035449867976109	
2.585	0.122	-0.04792369658509504	
2.59	-0.130	-0.02769176171238382	
2.595	0.444	0.018973590704067372	
2.6	0.704	0.10006565786030487	
2.605	0.148	0.19928893024250413	
2.61	0.295	0.2859207268588042	
2.615	0.649	0.3447238206516308	
2.62	0.009	0.3660029447493386	
2.625	-0.184	0.33690866310164624	
2.63	0.201	0.2686988695577145	
2.635	-0.064	0.17605870394909864	
2.64	-0.353	0.08126240635970795	
2.645	-0.069	-0.001016652682701054	
2.65	0.059	-0.06793487315623412	
2.655	-0.312	-0.11470881740011186	
2.66	-0.231	-0.13802627231085907	
2.665	0.171	-0.14624056650542105	
2.67	-0.188	-0.14600376770101964	
2.675	-0.252	-0.13304010412308664	
2.68	0.166	-0.11222906612425754	
2.685	-0.052	-0.09500405636609516	
2.69	-0.310	-0.08580653253370049	
2.695	0.006	-0.07792693063472123	
2.7	0.203	-0.06992422895421249	
2.705	-0.214	-0.058848336968922596	
2.71	-0.057	-0.03998537780842927	
2.715	0.388	-0.015118459629911738	
2.72	-0.084	0.009868025544793333	
2.725	-0.161	0.029873553406828415	
2.73	0.337	0.045936367104830865	
2.735	0.157	0.05999427221472004	
2.74	-0.187	0.07303481135579225	
2.745	0.186	0.08316885529043239	
2.75	0.368	0.09117348022546723	
2.755	-0.127	0.100993249610598	
2.76	0.047	0.11000475183038402	
2.765	0.525	0.12203334507763104	
2.77	0.006	0.13679018384350644	
2.775	-0.129	0.1447792294016414	
2.78	0.400	0.14405493914545314	
2.785	0.189	0.1400043058247175	
2.79	-0.156	0.13592806497656884	
2.795	0.246	0.13423053585987088	
2.8	0.400	0.13523672300419948	
2.805	-0.150	0.13690369456197815	
2.81	-0.022	0.13299309373502805	
2.815	0.398	0.12009880683836949	
2.82	-0.089	0.10475095919443587	
2.825	-0.174	0.0867577353339404	
2.83	0.302	0.07011864978180397	
2.835	0.041	0.05498850805782481	
2.84	-0.243	0.03888018101971538	
2.845	0.137	0.02927706602100156	
2.85	0.330	0.02826210449940057	
2.855	-0.136	0.037862002819407034	
2.86	0.009	0.055012978229852995	
2.865	0.452	0.07414222201083996	
2.87	-0.029	0.09071059551599411	
2.875	-0.139	0.10072808433241467	
2.88	0.391	0.10616421456894987	
2.885	0.177	0.11099161917281665	
2.89	-0.200	0.11283278803549589	
2.895	0.178	0.11028474901389548	
2.9	0.389	0.10728365469725144	
2.905	-0.124	0.10883793228490611	
2.91	0.088	0.11600648467083559	
2.915	0.516	0.1301684061250128	
2.92	0.023	0.1457137888123709	
2.925	-0.118	0.15470660677529902	
2.93	0.405	0.15415627600910187	
2.935	0.233	0.15201168372431045	
2.94	-0.184	0.14884534387328013	
2.945	0.169	0.1412555994207127	
2.95	0.336	0.1272689177714832	
2.955	-0.202	0.11087134284231129	
2.96	-0.133	0.08999416588478124	
2.965	0.229	0.057105828952446605	
2.97	-0.177	0.017738648745680034	
2.975	-0.255	-0.01621573052825124	
2.98	0.221	-0.035869850118563286	
2.985	0.059	-0.04403733197089575	
2.99	-0.248	-0.0400903350294201	
2.995	0.078	-0.028701937560353784	
3.0	0.217	-0.01880881720945961	
3.005	-0.243	-0.013144602284134468	
3.01	-0.090	-0.00791252377464008	
3.015	0.357	-0.0018990723352930962	
3.02	-0.080	0.006658065384289221	
3.025	-0.095	0.021827798337000343	
3.03	0.654	0.05819913649673364	
3.035	0.602	0.13191857705953544	
3.04	0.186	0.2339004651885383	
3.045	0.649	0.33433421485835235	
3.05	0.669	0.4151342001547876	
3.055	-0.086	0.4508100866398155	
3.06	-0.014	0.423082845864349	
3.065	0.292	0.345033622250689	
3.07	-0.202	0.24067365090316895	
3.075	-0.313	0.13190153509461217	
3.08	0.029	0.03209633677732095	
3.085	-0.126	-0.056142469926925856	
3.09	-0.367	-0.12195471155286847	
3.095	-0.069	-0.15464880666154734	
3.1	0.067	-0.16995421881331763	
3.105	-0.300	-0.17207407659583696	
3.11	-0.159	-0.15678398510688854	
3.115	0.230	-0.13303933042064914	
3.12	-0.165	-0.11038732778370754	
3.125	-0.231	-0.08701683637722052	
3.13	0.240	-0.06187437306246931	
3.135	0.017	-0.04325179118742174	
3.14	-0.251	-0.028998565034094793	
3.145	0.128	-0.01355435603753471	
3.15	0.243	3.079326940515415e-05	
3.155	-0.208	0.01079764276112049	
3.16	-0.058	0.020268290495465302	
3.165	0.397	0.029063918163346948	
3.17	-0.038	0.040501263529217055	
3.175	-0.112	0.0559402043238419	
3.18	0.469	0.07727845054404632	
3.185	0.226	0.10572094631646219	
3.19	-0.173	0.12986668048148697	
3.195	0.249	0.14353328013049177	
3.2	0.431	0.1510971538549259	
3.205	-0.133	0.15668161918664286	
3.21	0.058	0.15727388078292048	
3.215	0.568	0.15915918179103805	
3.22	0.007	0.16645021468499674	
3.225	-0.153	0.16588119156625517	
3.23	0.310	0.15130929312484093	
3.235	0.097	0.12472131607443007	
3.24	-0.217	0.09786330445837899	
3.245	0.130	0.07656236937262267	
3.25	0.322	0.06108537030051145	
3.255	-0.196	0.053680019948914366	
3.26	-0.063	0.05131288340659522	
3.265	0.383	0.04812791134913014	
3.27	-0.100	0.045410584268355175	
3.275	-0.182	0.04395522239815123	
3.28	0.302	0.0423386453199021	
3.285	0.061	0.03963609618676836	
3.29	-0.213	0.03588133642656736	
3.295	0.180	0.038642956502095746	
3.3	0.331	0.04701970910810414	
3.305	-0.208	0.056625934574253245	
3.31	-0.066	0.0613950221767394	
3.315	0.388	0.059123377142280206	
3.32	-0.081	0.05633002980884976	
3.325	-0.156	0.05501025879749	
3.33	0.376	0.05839020198400069	
3.335	0.159	0.06756198179751455	
3.34	-0.161	0.07888421523224673	
3.345	0.308	0.09671027828487962	
3.35	0.406	0.11997265293911699	
3.355	-0.156	0.13858812781820687	
3.36	0.023	0.14444814303499703	
3.365	0.490	0.1431170208616775	
3.37	-0.075	0.1382940918109099	
3.375	-0.161	0.12702813314132685	
3.38	0.380	0.11238189687685032	
3.385	0.070	0.09755076852048603	
3.39	-0.280	0.07990701535614368	
3.395	0.050	0.05567255861328563	
3.4	0.163	0.02494458518095763	
3.405	-0.274	-0.005335765707512954	
3.41	-0.122	-0.025534414342209984	
3.415	0.285	-0.03694749052038058	
3.42	-0.159	-0.04166955209230628	
3.425	-0.252	-0.04191413100052259	
3.43	0.185	-0.04167832982283762	
3.435	-0.016	-0.04647911998992446	
3.44	-0.309	-0.05102304289256145	
3.445	0.026	-0.052315000237035704	
3.45	0.232	-0.05311084493811796	
3.455	-0.184	-0.0433199086415631	
3.46	0.102	-0.015472495881924776	
3.465	0.780	0.042040664253633085	
3.47	0.295	0.13330927948508672	
3.475	0.183	0.23312595689691168	
3.48	0.840	0.32330003617083625	
3.485	0.360	0.3934593764000632	
3.49	-0.193	0.4139872753727706	
3.495	0.127	0.3726277330809381	
3.5	0.174	0.28580969934284883	
3.505	-0.304	0.18378288207493498	
3.51	-0.174	0.0885427085111372	
3.515	0.145	0.005867881052470715	
3.52	-0.226	-0.0606232269628395	
3.525	-0.294	-0.10170243206912757	
3.53	0.087	-0.1218283140702566	
3.535	-0.087	-0.1365992450910269	
3.54	-0.339	-0.14177533496979844	
3.545	0.001	-0.1343233911160855	
3.55	0.137	-0.12336131930420839	
3.555	-0.265	-0.10816744023155703	
3.56	-0.127	-0.0883244890910388	
3.565	0.264	-0.07025126736220552	
3.57	-0.148	-0.055732588309818976	
3.575	-0.177	-0.04057488785594611	
3.58	0.316	-0.019794565600992412	
3.585	-0.002	-0.0017531810715525806	
3.59	-0.292	0.004233751655479733	
3.595	0.107	0.0037932127121429486	
3.6	0.264	0.003567158575775456	
3.605	-0.207	0.007760780417093054	
3.61	-0.013	0.01777965932577391	
3.615	0.486	0.03577491057923608	
3.62	-0.043	0.06017747300344435	
3.625	-0.110	0.08244353340746444	
3.63	0.469	0.1022567699936923	
3.635	0.178	0.12220862819642701	
3.64	-0.187	0.1352286146413379	
3.645	0.281	0.13981963932784203	
3.65	0.412	0.14454362563676304	
3.655	-0.148	0.14976545089521687	
3.66	-0.006	0.1467807279193043	
3.665	0.405	0.13371570439294242	
3.67	-0.100	0.11520464007764726	
3.675	-0.177	0.09450369018907691	
3.68	0.302	0.07418079922546492	
3.685	0.033	0.05419059821599768	
3.69	-0.266	0.03634247642788518	
3.695	0.119	0.021785282872188547	
3.7	0.220	0.011449283167643811	
3.705	-0.248	0.00486405205109155	
3.71	-0.084	0.0008332663708360631	
3.715	0.331	-0.002397918083305666	
3.72	-0.148	-0.0017662834901050974	
3.725	-0.219	-0.0013941089749403787	
3.73	0.236	-0.0039171065112077515	
3.735	-0.028	-0.009862407841066755	
3.74	-0.269	-0.01953064192033712	
3.745	0.157	-0.020236167191299347	
3.75	0.253	-0.011652590262322533	
3.755	-0.237	0.0009531193143447411	
3.76	-0.081	0.009864834410139387	
3.765	0.310	0.011478207372954758	
3.77	-0.152	0.009273668293785002	
3.775	-0.197	0.005699219912335123	
3.78	0.392	0.009994771008857649	
3.785	0.130	0.026133946401785544	
3.79	-0.243	0.04457519232289689	
3.795	0.142	0.05466717506313054	
3.8	0.221	0.05325864395285912	
3.805	-0.214	0.046098088150133096	
3.81	-0.072	0.03787348066432071	
3.815	0.319	0.028330034543000007	
3.82	-0.152	0.0193645489537738	
3.825	-0.252	0.00779754357449885	
3.83	0.139	-0.00917994015739087	
3.835	-0.097	-0.03589722842145805	
3.84	-0.375	-0.06524315038473834	
3.845	-0.077	-0.09138512228446445	
3.85	0.030	-0.11886818502119587	
3.855	-0.358	-0.14077126927805664	
3.86	-0.203	-0.15005698568244863	
3.865	0.097	-0.1548140428944761	
3.87	-0.251	-0.15863222401326738	
3.875	-0.306	-0.15606448456847155	
3.88	0.046	-0.1502229282630899	
3.885	-0.118	-0.15100353937420086	
3.89	-0.313	-0.15016418556271324	
3.895	0.166	-0.13028722632406897	
3.9	0.513	-0.07993599483973528	
3.905	0.082	0.0051953867025352945	
3.91	0.420	0.11304485311395274	
3.915	0.843	0.22917792128523617	
3.92	0.178	-0.07993599483973528	
3.925	-0.077	0.3809277669652177	
3.93	0.348	0.36478391352014106	
3.935	-0.057	0.29992801477018344	
3.94	-0.347	0.20385092855117343	
3.945	-0.095	0.0987222407687178	
3.95	-0.061	-0.008025548543179713	
3.955	-0.404	-0.09977737708295024	
3.96	-0.257	-0.16286721852389974	
3.965	-0.014	-0.20388859699314396	
3.97	-0.307	-0.23176462977542844	
3.975	-0.355	-0.2398970688888347	
3.98	0.010	-0.23316220319394165	
3.985	-0.136	-0.2241943241901412	
3.99	-0.367	-0.21111613874307678	
3.995	-0.051	-0.189130989189781	
4.0	0.053	-0.17212102352425873	
4.005	-0.303	-0.15593184659201292	
4.01	-0.100	-0.1327191424354906	
4.015	0.266	-0.10480796074374055	
4.02	-0.177	-0.07900134495739934	
4.025	-0.216	-0.056895538883014046	
4.03	0.334	-0.03492417955618017	
4.035	0.094	-0.009331636928352361	
4.04	-0.202	0.016705754927217237	
4.045	0.244	0.04210519744508417	
4.05	0.388	0.06892682596137376	
4.055	-0.152	0.09680895146202817	
4.06	0.062	0.1163683144442299	
4.065	0.472	0.12736446327187945	
4.07	-0.081	0.13380597903542074	
4.075	-0.132	0.12905767988981792	
4.08	0.397	0.11826896329297037	
4.085	0.119	0.11058722365358087	
4.09	-0.177	0.10459086654122743	
4.095	0.250	0.10225470955974046	
4.1	0.316	0.10193313004963533	
4.105	-0.188	0.10267359220350035	
4.11	-0.006	0.097453613970367	
4.115	0.360	0.0874325271421719	
4.12	-0.138	0.07369026322022679	
4.125	-0.158	0.05908406962621536	
4.13	0.311	0.04837357586648532	
4.135	0.000	0.037496615774721985	
4.14	-0.277	0.024536402046732467	
4.145	0.097	0.011367660708574642	
4.15	0.166	-0.002082999326177097	
4.155	-0.278	-0.015426887207546442	
4.16	-0.113	-0.024462931674934726	
4.165	0.302	-0.03149824746167639	
4.17	-0.164	-0.032420472140300985	
4.175	-0.190	-0.02791426551494536	
4.18	0.310	-0.01851060523171988	
4.185	-0.031	-0.009574963592860806	
4.19	-0.283	-0.00654570224370979	
4.195	0.108	-0.007516772238953748	
4.2	0.203	-0.01007017007172264	
4.205	-0.222	-0.009548337716612608	
4.21	-0.023	-0.001396253574347156	
4.215	0.461	0.013591469149479498	
4.22	-0.084	0.03746266620671541	
4.225	-0.119	0.059058151791618475	
4.23	0.466	0.07960592257690144	
4.235	0.162	0.1013837588257974	
4.24	-0.193	0.11837730087538073	
4.245	0.298	0.12856138843024226	
4.25	0.362	0.13494448444057217	
4.255	-0.177	0.13837070917938804	
4.26	-0.005	0.1326185821425931	
4.265	0.388	0.11761463789764048	
4.27	-0.155	0.09642083571705026	
4.275	-0.220	0.07207075415254639	
4.28	0.233	0.043626875908229834	
4.285	-0.089	0.010343496562388971	
4.29	-0.324	-0.02260653207317884	
4.295	0.009	-0.04838327029193583	
4.3	0.079	-0.07309613911714188	
4.305	-0.278	-0.08965622901791902	
4.31	-0.089	-0.08928339275512434	
4.315	0.273	-0.07936637907238167	
4.32	-0.193	-0.06669044816163305	
4.325	-0.223	-0.053891658403881104	
4.33	0.305	-0.03925482646138708	
4.335	0.068	-0.022752110448272973	
4.34	-0.142	0.0013209372740007773	
4.345	0.617	0.0517902055199713	
4.35	0.974	0.1519552238517223	
4.355	0.467	0.29920582307792376	
4.36	0.718	0.45674124261118176	
4.365	0.979	0.5846814577316357	
4.37	0.142	0.6501626071221867	
4.375	-0.064	0.6270284134339561	
4.38	0.382	0.5317975164320694	
4.385	-0.026	0.4002359737443914	
4.39	-0.323	0.259291519917959	
4.395	-0.006	0.13078518437009914	
4.4	0.042	0.01991791429857908	
4.405	-0.355	-0.06478558868874032	
4.41	-0.194	-0.11519415116533377	
4.415	0.122	-0.14629265652105627	
4.42	-0.225	-0.1617991900264707	
4.425	-0.248	-0.15585774578055248	
4.43	0.192	-0.1351505295946493	
4.435	-0.052	-0.11485677247807363	
4.44	-0.258	-0.09372968956009928	
4.445	0.194	-0.06309298106176214	
4.45	0.302	-0.027127326950087394	
4.455	-0.194	0.010047236267525897	
4.46	0.023	0.04189028089989345	
4.465	0.481	0.06780743172466971	
4.47	-0.049	0.09102080963114377	
4.475	-0.049	0.11110381611182862	
4.48	0.580	0.13403920677226916	
4.485	0.258	0.1650832743075353	
4.49	-0.107	0.19312125904198787	
4.495	0.418	0.21302137820541497	
4.5	0.498	0.22992384951497497	
4.505	-0.080	0.24291683899018274	
4.51	0.250	0.25091925911438934	
4.515	0.675	0.26090803039604094	
4.52	0.036	0.27295811234440637	
4.525	-0.016	0.27304477253212467	
4.53	0.573	0.2630827240187503	
4.535	0.304	0.2561077590195801	
4.54	-0.113	0.25310705316669735	
4.545	0.342	0.24399660175387908	
4.55	0.440	0.23092447855146656	
4.555	-0.139	0.21797223110616287	
4.56	0.088	0.20190298074644925	
4.565	0.490	0.18282295327393927	
4.57	-0.097	0.16502416002473833	
4.575	-0.118	0.14413279788303013	
4.58	0.501	0.12897036848343824	
4.585	0.154	0.12608950699582894	
4.59	-0.164	0.13025936713771885	
4.595	0.290	0.13292246273037073	
4.6	0.356	0.1348034994655377	
4.605	-0.144	0.13713950504462216	
4.61	0.081	0.1389300555479478	
4.615	0.490	0.13862103377067495	
4.62	-0.074	0.13912735152183953	
4.625	-0.097	0.135284209690527	
4.63	0.443	0.12974965482091239	
4.635	0.068	0.12404784138089686	
4.64	-0.210	0.11450357853677454	
4.645	0.220	0.10080482628016645	
4.65	0.314	0.09062768035409874	
4.655	-0.162	0.08839011681683179	
4.66	0.058	0.09096459798550406	
4.665	0.458	0.09533817355647826	
4.67	-0.038	0.10527843731528777	
4.675	-0.078	0.1144947281137103	
4.68	0.496	0.1244589132302109	
4.685	0.125	0.13601201107506722	
4.69	-0.165	0.14183311471899965	
4.695	0.270	0.1406268665524229	
4.7	0.295	0.13438174188342056	
4.705	-0.181	0.1257165312687118	
4.71	0.004	0.1129997078638309	
4.715	0.304	0.09296247812293662	
4.72	-0.199	0.06746400172917989	
4.725	-0.220	0.037756207713374575	
4.73	0.163	0.006102537740117023	
4.735	-0.127	-0.029037770526795056	
4.74	-0.318	-0.060768906323697	
4.745	-0.014	-0.08353862585389883	
4.75	-0.006	-0.10489678189754433	
4.755	-0.332	-0.12495493885573476	
4.76	-0.109	-0.12990372021307628	
4.765	0.148	-0.12637254583535595	
4.77	-0.269	-0.1224235393775416	
4.775	-0.294	-0.1200028178888904	
4.78	0.131	-0.1181331764111414	
4.785	-0.017	-0.11511440634080367	
4.79	-0.138	-0.0944984894169375	
4.795	0.586	-0.036579357956227944	
4.8	0.838	0.07596242839855893	
4.805	0.321	0.22422558058188757	
4.81	0.554	0.367088718840626	
4.815	0.731	0.47036758219435004	
4.82	-0.054	0.5066515751647676	
4.825	-0.173	0.4620932129836084	
4.83	0.142	0.3546131448752212	
4.835	-0.159	0.21690492517053178	
4.84	-0.379	0.08275061020689528	
4.845	-0.155	-0.030790986489829152	
4.85	-0.170	-0.13022639867085473	
4.855	-0.446	-0.20947601568077806	
4.86	-0.254	-0.2538487839875012	
4.865	-0.045	-0.27484903512871295	
4.87	-0.330	-0.28216574727293414	
4.875	-0.310	-0.27067231605733544	
4.88	0.036	-0.2465554287091064	
4.885	-0.152	-0.22317763297211138	
4.89	-0.329	-0.1990882559173529	
4.895	0.003	-0.17081232393888796	
4.9	0.024	-0.1493691504019525	
4.905	-0.298	-0.13244733675195758	
4.91	-0.130	-0.11678413199634137	
4.915	0.203	-0.10292010968408444	
4.92	-0.188	-0.08922367742812466	
4.925	-0.181	-0.07360890783688892	
4.93	0.310	-0.052526728869284695	
4.935	0.007	-0.028248394785462528	
4.94	-0.188	-0.005090702191520653	
4.945	0.279	0.020258666166101138	
4.95	0.325	0.050613636353558256	
4.955	-0.144	0.08150503787947865	
4.96	0.093	0.10424531005286072	
4.965	0.434	0.1190925891559033	
4.97	-0.095	0.12774177789327734	
4.975	-0.122	0.1233821043920022	
4.98	0.379	0.11047224198275313	
4.985	0.039	0.09875988261799268	
4.99	-0.197	0.08693037130040925	
4.995	0.236	0.07522112374802956	
5.0	0.276	0.07160058717874725	
5.005	-0.179	0.07458630533035353	
5.01	-0.026	0.07322005838127676	
5.015	0.324	0.0639974326847714	
5.02	-0.145	0.05284017851786543	
5.025	-0.176	0.04045717390164544	
5.03	0.212	0.024320157195242973	
5.035	-0.078	0.0037581411302800675	
5.04	-0.263	-0.016902757834843372	
5.045	0.072	-0.0328690733041497	
5.05	0.105	-0.04452584548901014	
5.055	-0.254	-0.05125169284688409	
5.06	-0.093	-0.05173098402634903	
5.065	0.180	-0.05417739250173107	
5.07	-0.187	-0.05811161250813397	
5.075	-0.167	-0.05639501452442673	
5.08	0.267	-0.04578372586614918	
5.085	-0.061	-0.034313304864644956	
5.09	-0.234	-0.0267787740892734	
5.095	0.146	-0.01987917251242069	
5.1	0.159	-0.012634724085483339	
5.105	-0.200	-0.004191642551914503	
5.11	0.018	0.006327227639635185	
5.115	0.351	0.01874418980090707	
5.12	-0.107	0.03388899020277436	
5.125	-0.141	0.04466126990850022	
5.13	0.313	0.04815237471628785	
5.135	0.061	0.05066561997569257	
5.14	-0.174	0.05431471337228385	
5.145	0.201	0.05808712295495367	
5.15	0.223	0.06027880768765424	
5.155	-0.193	0.060895245317653585	
5.16	-0.042	0.05635944712609367	
5.165	0.204	0.04060801781186464	
5.17	-0.200	0.017917042658787113	
5.175	-0.213	-0.006204902484892728	
5.18	0.152	-0.028938942675359625	
5.185	-0.095	-0.05041654602183241	
5.19	-0.265	-0.06554155440941685	
5.195	0.046	-0.07189472411941542	
5.2	0.032	-0.0778689454274428	
5.205	-0.304	-0.08504808033418174	
5.21	-0.129	-0.08951439930207139	
5.215	0.085	-0.09749492602100411	
5.22	-0.237	-0.10815131504687671	
5.225	-0.203	-0.11106271775455454	
5.23	0.290	-0.09791394905912322	
5.235	0.145	-0.06554289393742813	
5.24	0.026	-0.009485209766393771	
5.245	0.670	0.07523513414480155	
5.25	0.722	0.19005326955896903	
5.255	0.154	0.30587597912060094	
5.26	0.366	0.3875451966636625	
5.265	0.496	0.4194622843978929	
5.27	-0.121	0.39875420283575325	
5.275	-0.174	0.32895781269858504	
5.28	0.117	0.22706987810895254	
5.285	-0.155	0.11440690478445577	
5.29	-0.326	0.01456693516231947	
5.295	-0.025	-0.05976448127343685	
5.3	-0.057	-0.11502103367218927	
5.305	-0.359	-0.15405720694866248	
5.31	-0.155	-0.17133863866900234	
5.315	0.075	-0.17656249000927685	
5.32	-0.222	-0.1722614745801067	
5.325	-0.184	-0.15392805593252312	
5.33	0.229	-0.12389008396618398	
5.335	-0.051	-0.09170868508240515	
5.34	-0.222	-0.06245774158261708	
5.345	0.130	-0.03767022775199422	
5.35	0.128	-0.022078599285063213	
5.355	-0.213	-0.011170555185643432	
5.36	0.033	0.00075707110538404	
5.365	0.377	0.01549536551861305	
5.37	-0.101	0.03659483892910651	
5.375	-0.084	0.05407396952882715	
5.38	0.372	0.06722862263492627	
5.385	0.070	0.07920713831516427	
5.39	-0.126	0.0884825714640883	
5.395	0.336	0.0994585585848795	
5.4	0.319	0.11591662162985407	
5.405	-0.135	0.1327265940718974	
5.41	0.134	0.14081090132771779	
5.415	0.453	0.14553056090325145	
5.42	-0.052	0.1505271919347051	
5.425	-0.032	0.1500901572189257	
5.43	0.432	0.14626374525743488	
5.435	0.104	0.14417652211628257	
5.44	-0.107	0.14149315494346526	
5.445	0.290	0.13846382150055825	
5.45	0.238	0.13387871575543128	
5.455	-0.199	0.12375670820649146	
5.46	-0.008	0.10382722916025588	
5.465	0.296	0.07847024911825054	
5.47	-0.144	0.05556053222497087	
5.475	-0.147	0.0381553627304701	
5.48	0.218	0.022190471609043142	
5.485	-0.068	0.004147449235144383	
5.49	-0.239	-0.012411027715397815	
5.495	0.124	-0.0215519918458296	
5.5	0.146	-0.025196407381186635	
5.505	-0.222	-0.023169464931428872	
5.51	-0.029	-0.016117603724580487	
5.515	0.233	-0.012622909820449016	
5.52	-0.162	-0.012459218804159332	
5.525	-0.142	-0.009752830737719416	
5.53	0.301	-0.0038257762114434317	
5.535	-0.013	0.004071014380992639	
5.54	-0.176	0.0126373735114045	
5.545	0.272	0.025497826286557744	
5.55	0.249	0.04573233035966854	
5.555	-0.129	0.06681242039398383	
5.56	0.171	0.08895295862476184	
5.565	0.406	0.1113624677707828	
5.57	-0.113	0.125483177341714	
5.575	-0.083	0.1252614064550822	
5.58	0.389	0.11619118010955161	
5.585	0.050	0.10806043475480781	
5.59	-0.159	0.10063614884939708	
5.595	0.253	0.09348442767813331	
5.6	0.243	0.08873511285057065	
5.605	-0.162	0.08784217115426299	
5.61	-0.006	0.08392434532183947	
5.615	0.218	0.0673190378466841	
5.62	-0.194	0.04153495362646135	
5.625	-0.187	0.015305644523376105	
5.63	0.183	-0.008867193850723404	
5.635	-0.104	-0.03195794818056488	
5.64	-0.260	-0.049292502684035386	
5.645	0.090	-0.05851420189735274	
5.65	0.046	-0.06433397357736573	
5.655	-0.269	-0.06813760625694391	
5.66	-0.051	-0.06600292764128904	
5.665	0.266	-0.05870148224688348	
5.67	-0.164	-0.045509825033807266	
5.675	-0.119	-0.028648784753213658	
5.68	0.472	-0.002834402957941263	
5.685	0.272	0.04500721380749106	
5.69	0.087	0.11172204002485896	
5.695	0.638	0.1895142251939147	
5.7	0.524	0.2696242590185134	
5.705	-0.089	0.32383638924998986	
5.71	0.036	0.32396353704018654	
5.715	0.181	0.27122166760538385	
5.72	-0.266	0.18552668253957974	
5.725	-0.269	0.09141061874261039	
5.73	0.010	0.0010663770949782044	
5.735	-0.210	-0.08201667479878502	
5.74	-0.342	-0.14015031041584303	
5.745	-0.037	-0.1705095084310238	
5.75	-0.052	-0.1864708019105047	
5.755	-0.313	-0.19004530989088597	
5.76	-0.122	-0.1768970906458887	
5.765	0.065	-0.16185940806373686	
5.77	-0.263	-0.15255127275395758	
5.775	-0.217	-0.13947058310289567	
5.78	0.195	-0.12188223781243324	
5.785	-0.068	-0.10217731460274648	
5.79	-0.223	-0.08017483978139894	
5.795	0.162	-0.05435234445940538	
5.8	0.119	-0.03354832480383107	
5.805	-0.220	-0.01721154025566751	
5.81	0.044	-0.0017465404448304073	
5.815	0.322	0.012234386346629583	
5.82	-0.145	0.02723981080754426	
5.825	-0.098	0.03754601898276253	
5.83	0.388	0.046312350413522115	
5.835	0.033	0.05868821847271325	
5.84	-0.158	0.06870864404311675	
5.845	0.302	0.0778424822157491	
5.85	0.233	0.08845253807816794	
5.855	-0.170	0.09561099469229051	
5.86	0.124	0.09935236679473146	
5.865	0.432	0.1043376224232596	
5.87	-0.075	0.1141016886512779	
5.875	-0.052	0.11953652666908253	
5.88	0.438	0.12142903275267572	
5.885	0.087	0.12462822963565547	
5.89	-0.145	0.12664935276703085	
5.895	0.253	0.12191818486509506	
5.9	0.178	0.11144010529094546	
5.905	-0.174	0.09655831759592867	
5.91	0.035	0.08240789418795721	
5.915	0.236	0.06433627967239919	
5.92	-0.187	0.042033625948476365	
5.925	-0.155	0.022592100396922915	
5.93	0.273	0.006480686844859367	
5.935	-0.066	-0.004458026214875316	
5.94	-0.211	-0.01034712358625204	
5.945	0.236	-0.006968192794240182	
5.95	0.165	0.003396600358217709	
5.955	-0.193	0.01747233445593768	
5.96	0.088	0.03150166899174309	
5.965	0.318	0.04437453759681275	
5.97	-0.153	0.05291734911955408	
5.975	-0.095	0.05560869873984961	
5.98	0.351	0.055572784016722096	
5.985	0.001	0.05646930985176845	
5.99	-0.185	0.05559799102261844	
5.995	0.266	0.056116861647257855	
6.0	0.275	0.06339740794208788	
6.005	-0.153	0.07640301155629015	
6.01	0.122	0.09054010570136992	
6.015	0.398	0.10140832885320843	
6.02	-0.077	0.1108687830384284	
6.025	-0.038	0.11661585012180804	
6.03	0.392	0.11760452546581862	
6.035	-0.006	0.11343136152279659	
6.04	-0.188	0.10058815698379883	
6.045	0.194	0.08314745721723574	
6.05	0.107	0.062369561924988715	
6.055	-0.246	0.038379970364214734	
6.06	-0.022	0.018582327014941287	
6.065	0.250	0.00141789578289549	
6.07	-0.185	-0.01016570310602573	
6.075	-0.165	-0.014362862695261228	
6.08	0.233	-0.018359965172328838	
6.085	-0.110	-0.025607531494447087	
6.09	-0.258	-0.03342350329688906	
6.095	0.110	-0.03878581320259662	
6.1	0.017	-0.04765081552822269	
6.105	-0.269	-0.057691836035224896	
6.11	0.021	-0.05734121866650781	
6.115	0.398	-0.040519185250722144	
6.12	-0.061	-0.006271297125370114	
6.125	0.111	0.041638352368956036	
6.13	0.794	0.11078069330585454	
6.135	0.496	0.2073613634681221	
6.14	0.111	0.3064684386875215	
6.145	0.539	0.37324883856941327	
6.15	0.343	0.3953552289313247	
6.155	-0.199	0.3722236374633838	
6.16	-0.045	0.3046322250458334	
6.165	0.140	0.20647454158030482	
6.17	-0.295	0.10172734967808097	
6.175	-0.254	0.010678464923790857	
6.18	0.087	-0.06025610507132992	
6.185	-0.200	-0.1146937309375082	
6.19	-0.297	-0.1464268250897514	
6.195	0.169	-0.14765291116885015	
6.2	0.159	-0.12369776614135383	
6.205	-0.225	-0.08576073166251388	
6.21	0.035	-0.04525463529047062	
6.215	0.284	0.011193817055733694	
6.22	-0.200	0.006621773305684461	
6.225	-0.153	0.015728831172638486	
6.23	0.301	0.015783068010787327	
6.235	-0.051	0.01420535690654317	
6.24	-0.214	0.012560816963666784	
6.245	0.198	0.012412412409386902	
6.25	0.130	0.012231793735622078	
6.255	-0.234	0.011193817055733694	
6.26	0.026	0.012846853726321763	
6.265	0.356	0.016438343634864808	
6.27	-0.127	0.026544862638011882	
6.275	-0.083	0.01489942995018467	
6.28	0.356	0.01489942995018467	
6.285	-0.075	0.01489942995018467	
6.29	-0.237	0.04757288102514608	
6.295	0.156	0.033507710750680125	
6.3	0.104	0.01515288741792941	
6.305	-0.228	0.0021529679027168513	
6.31	0.038	-0.002030445571182857	
6.315	0.299	0.0004090746829163507	
6.32	-0.167	0.007431565156396379	
6.325	-0.112	0.01489942995018467	
6.33	0.330	0.021883421575360752	
6.335	-0.069	0.02496462846009283	
6.34	-0.246	0.02259733375327933	
6.345	0.149	0.014626154804200325	
6.35	0.038	-0.0009490020359629376	
6.355	-0.284	-0.019920718683590695	
6.36	-0.025	-0.032890863743626236	
6.365	0.240	-0.04059598499896567	
6.37	-0.219	-0.04170516301494738	
6.375	-0.165	-0.039012408835839285	
6.38	0.270	-0.03502282091942588	
6.385	-0.034	-0.02917467198564649	
6.39	-0.211	-0.018402671285429027	
6.395	0.232	-0.003210003907901697	
6.4	0.154	0.009962477460899139	
6.405	-0.222	0.0209598768829138	
6.41	0.101	0.03226737349173668	
6.415	0.351	0.04442401966035907	
6.42	-0.161	0.0551069937322436	
6.425	-0.083	0.061067220737790785	
6.43	0.449	0.0661162349600346	
6.435	0.000	0.0756657817263865	
6.44	-0.150	0.08354925759225551	
6.445	0.371	0.09196368817805395	
6.45	0.224	0.10291074528387271	
6.455	-0.185	0.11083337065052706	
6.46	0.140	0.11237655607479277	
6.465	0.429	0.11346530894529785	
6.47	-0.112	0.11699867887255311	
6.475	-0.066	0.11710203350049492	
6.48	0.394	0.1111723521948641	
6.485	-0.040	0.10058820785506084	
6.49	-0.214	0.08454987606169576	
6.495	0.236	0.06702500812636727	
6.5	0.091	0.048862388560176676	
6.505	-0.277	0.028816762809932554	
6.51	-0.029	0.009441940834888172	
6.515	0.192	-0.011563608153417834	
6.52	-0.242	-0.03104871002816982	
6.525	-0.196	-0.04382769983509694	
6.53	0.186	-0.05480441809302458	
6.535	-0.148	-0.06749199131392428	
6.54	-0.271	-0.0754221525874708	
6.545	0.143	-0.07388361804215898	
6.55	0.117	-0.06720384913857683	
6.555	-0.214	-0.05224111328617085	
6.56	0.175	-0.022429870579765088	
6.565	0.574	0.025463814435847675	
6.57	0.075	0.09181950097198469	
6.575	0.292	0.16822554198123701	
6.58	0.802	0.2503087677227025	
6.585	0.238	0.32438149572409697	
6.59	-0.142	0.35647582672253936	
6.595	0.292	0.3341890950755164	
6.6	0.091	0.27277648236520335	
6.605	-0.295	0.1916845037403706	
6.61	-0.080	0.10960647506033767	
6.615	0.104	0.028471845630727268	
6.62	-0.318	-0.04222280368984906	
6.625	-0.262	-0.09173361573544941	
6.63	0.116	-0.12466238238840267	
6.635	-0.187	-0.14665594337327226	
6.64	-0.286	-0.1514481564286371	
6.645	0.119	-0.13868554233941643	
6.65	-0.037	-0.12530232669372593	
6.655	-0.346	-0.1174096495053763	
6.66	-0.074	-0.10925188242217763	
6.665	0.171	-0.10449471942331659	
6.67	-0.231	-0.09742169853865845	
6.675	-0.148	-0.08168103385537728	
6.68	0.304	-0.061481305267104006	
6.685	-0.098	-0.04284124939786179	
6.69	-0.220	-0.02757349672971389	
6.695	0.339	-0.00643013814848718	
6.7	0.250	0.02269238603254633	
6.705	-0.177	0.05534066182728933	
6.71	0.185	0.08490075203338007	
6.715	0.452	0.10866240817225391	
6.72	-0.112	0.12832004211577325	
6.725	-0.040	0.13829176680848557	
6.73	0.501	0.1397652356672706	
6.735	0.020	0.1400375299917	
6.74	-0.164	0.1362682179541698	
6.745	0.366	0.1287662574432109	
6.75	0.230	0.12370484452792573	
6.755	-0.193	0.11915091660477012	
6.76	0.180	0.11601415912672419	
6.765	0.437	0.11677789779031168	
6.77	-0.138	0.1201594823992785	
6.775	-0.040	0.1202939184528135	
6.78	0.489	0.11891511879819541	
6.785	-0.063	0.11695087625830478	
6.79	-0.242	0.10317665403157322	
6.795	0.284	0.08388192368570238	
6.8	0.117	0.06372273451545044	
6.805	-0.297	0.04404480354546964	
6.81	-0.003	0.024046269218404557	
6.815	0.276	0.004846664224535029	
6.82	-0.219	-0.007892777577370875	
6.825	-0.147	-0.01172232846883245	
6.83	0.382	-0.010022664753313619	
6.835	-0.057	-0.0010578272800908525	
6.84	-0.228	0.009146907092300706	
6.845	0.261	0.018917320521150596	
6.85	0.171	0.026720224683512653	
6.855	-0.237	0.034010927839019524	
6.86	0.101	0.04207814611384546	
6.865	0.421	0.05185774651931276	
6.87	-0.148	0.06606285512932521	
6.875	-0.057	0.07928770419878561	
6.88	0.521	0.0909965375928801	
6.885	-0.028	0.1039086282305965	
6.89	-0.205	0.10714488521031307	
6.895	0.360	0.10393246584238172	
6.9	0.252	0.10270982911154194	
6.905	-0.223	0.10402863800262845	
6.91	0.116	0.10307124327301942	
6.915	0.379	0.09681185675745752	
6.92	-0.205	0.08910185177934325	
6.925	-0.135	0.07631705384296082	
6.93	0.347	0.05791305317070415	
6.935	-0.107	0.03892568505765868	
6.94	-0.292	0.019248677593577818	
6.945	0.151	-0.0011409644056086456	
6.95	0.006	-0.02536978695463032	
6.955	-0.330	-0.04885101417932228	
6.96	-0.078	-0.06490061209098227	
6.965	0.178	-0.07931349900169629	
6.97	-0.240	-0.08784885118432081	
6.975	-0.156	-0.08155944353623937	
6.98	0.324	-0.06616914364808246	
6.985	-0.121	-0.04915156016610493	
6.99	-0.275	-0.036646878355314466	
6.995	0.203	-0.027115571875200604	
7.0	0.163	-0.019478599465822137	
7.005	-0.194	-0.004821049355178636	
7.01	0.321	0.02821082449743529	
7.015	0.698	0.08763875181109285	
7.02	0.133	0.16809117741300614	
7.025	0.249	0.24850040153279504	
7.03	0.722	0.31180703123876197	
7.035	0.059	0.34676116854661804	
7.04	-0.177	0.33437635338714117	
7.045	0.290	0.2838842959556217	
7.05	0.075	0.21346842636864322	
7.055	-0.312	0.13722029605894737	
7.06	-0.061	0.06620666273253119	
7.065	0.088	-0.0014503771506675055	
7.07	-0.313	-0.060857973338229975	
7.075	-0.231	-0.09841271341181707	
7.08	0.177	-0.11924311396753456	
7.085	-0.173	-0.12923037956395445	
7.09	-0.300	-0.12750374560286526	
7.095	0.114	-0.11610640574051344	
7.1	-0.061	-0.11062243897211196	
7.105	-0.347	-0.11177212590527422	
7.11	-0.055	-0.1087064129731678	
7.115	0.183	-0.10447782562143668	
7.12	-0.249	-0.09796082422659455	
7.125	-0.136	-0.08136078865303709	
7.13	0.395	-0.057153444536105505	
7.135	-0.049	-0.02634414169751466	
7.14	-0.205	0.0024309918828448965	
7.145	0.321	0.027037466434762448	
7.15	0.230	0.04936880626143543	
7.155	-0.193	0.07108989518604629	
7.16	0.204	0.09038134662184232	
7.165	0.493	0.11160288900697357	
7.17	-0.103	0.13390343099552826	
7.175	-0.031	0.14762418095542096	
7.18	0.516	0.15094510347806817	
7.185	0.024	0.15259475289651037	
7.19	-0.171	0.1473872189164343	
7.195	0.340	0.13611076818601917	
7.2	0.191	0.12235072589376553	
7.205	-0.199	0.10905162269358377	
7.21	0.227	0.10443777500834191	
7.215	0.484	0.11160609256439823	
7.22	-0.119	0.12686781314818943	
7.225	-0.060	0.13565476338454796	
7.23	0.449	0.13194076410577577	
7.235	-0.055	0.12156108911076795	
7.24	-0.225	0.10442514129214656	
7.245	0.235	0.08111402273537902	
7.25	0.119	0.0563031848068351	
7.255	-0.236	0.03709634139516803	
7.26	0.160	0.031469760395470045	
7.265	0.403	0.04153415592351647	
7.27	-0.164	0.05788357850525103	
7.275	-0.075	0.07072559118693098	
7.28	0.447	0.07788340428580051	
7.285	-0.013	0.08453821141178289	
7.29	-0.161	0.08850966286657275	
7.295	0.382	0.09408592987781285	
7.3	0.211	0.10124465381291178	
7.305	-0.208	0.10616003065844525	
7.31	0.142	0.10645022195545933	
7.315	0.392	0.10344458079510963	
7.32	-0.168	0.10095946999403582	
7.325	-0.071	0.09577627221391075	
7.33	0.455	0.08977095488751627	
7.335	-0.019	0.08756690804030129	
7.34	-0.144	0.08862267911770255	
7.345	0.421	0.09498584051401981	
7.35	0.212	0.10719354083186075	
7.355	-0.199	0.11530347064712804	
7.36	0.156	0.11740455062843479	
7.365	0.336	0.11231422116419511	
7.37	-0.185	0.10108756679015486	
7.375	-0.106	0.08682413038588944	
7.38	0.331	0.06760215286387868	
7.385	-0.139	0.045618599183254775	
7.39	-0.272	0.020750496804363167	
7.395	0.163	-0.002156407523177116	
7.4	0.023	-0.024848417653530838	
7.405	-0.307	-0.04352192712583568	
7.41	-0.077	-0.05564043563318091	
7.415	0.108	-0.07281701876158297	
7.42	-0.281	-0.09079502693519681	
7.425	-0.188	-0.09710020699043703	
7.43	0.171	-0.09751878701134944	
7.435	-0.171	-0.10038976466552146	
7.44	-0.271	-0.0991437844316372	
7.445	0.215	-0.08616955250692926	
7.45	0.180	-0.06391755247223688	
7.455	-0.132	-0.02748989408813683	
7.46	0.470	0.03344191544801029	
7.465	0.837	0.12718637476993414	
7.47	0.181	0.24114744818011594	
7.475	0.238	-0.02748989408813683	
7.48	0.603	0.38346917838923333	
7.485	-0.028	0.3825741391058788	
7.49	-0.223	0.3318205622563075	
7.495	0.131	0.24579928920717414	
7.5	-0.042	0.1430907608300015	
7.505	-0.370	0.04454662668131973	
7.51	-0.119	-0.03459932211640242	
7.515	0.055	-0.09786545722548455	
7.52	-0.300	-0.14078207045520147	
7.525	-0.245	-0.15804395128951076	
7.53	0.070	-0.16354611847921408	
7.535	-0.236	-0.17043109120189004	
7.54	-0.341	-0.17210109431178294	
7.545	0.085	-0.1631442167107579	
7.55	0.006	-0.1509792272742641	
7.555	-0.260	-0.13250629707160913	
7.56	0.117	-0.09649332170614472	
7.565	0.450	-0.04784516006021296	
7.57	-0.086	0.01205853166340298	
7.575	0.058	0.06997816479275099	
7.58	0.632	0.12359569895656652	
7.585	0.111	0.1734562958140224	
7.59	-0.031	0.2087923123559668	
7.595	0.626	0.23599850913408033	
7.6	0.486	0.26904168814260654	
7.605	-0.048	0.29934998903834875	
7.61	0.371	0.31451713155409544	
7.615	0.620	0.3192193646291003	
7.62	-0.026	0.31901673593325963	
7.625	0.085	0.305941436559352	
7.63	0.588	0.28360808126583026	
7.635	0.072	0.26249999117840234	
7.64	-0.101	0.23781175723023862	
7.645	0.469	0.21392717686977789	
7.65	0.292	0.19904873419678124	
7.655	-0.141	0.19046746282867794	
7.66	0.226	0.18145937136451273	
7.665	0.377	0.17011958108334382	
7.67	-0.179	0.15315529253634005	
7.675	-0.089	0.12897397049009407	
7.68	0.327	0.09943324018560662	
7.685	-0.097	0.06757691935529124	
7.69	-0.217	0.04095993010924373	
7.695	0.246	0.023766803174504546	
7.7	0.078	0.0119959744280953	
7.705	-0.271	0.0026522146333491908	
7.71	0.009	-0.0036009724676458	
7.715	0.238	-0.012017021783306953	
7.72	-0.220	-0.017695660489258143	
7.725	-0.124	-0.016964900081301866	
7.73	0.307	-0.014726194727282278	
7.735	-0.136	-0.013390828907772438	
7.74	-0.245	-0.014923208647119442	
7.745	0.171	-0.01834431578563126	
7.75	-0.011	-0.02706640683304166	
7.755	-0.329	-0.04122281373737948	
7.76	-0.023	-0.0536137936259763	
7.765	0.208	-0.06311601810342322	
7.77	-0.223	-0.0636199943147145	
7.775	-0.113	-0.05391063418239686	
7.78	0.343	-0.03681881937641405	
7.785	-0.071	-0.018382550084113342	
7.79	-0.179	0.0011586094455779646	
7.795	0.334	0.0216078850439224	
7.8	0.140	0.041894702393526585	
7.805	-0.246	0.05484073141378436	
7.81	0.088	0.05736683645938734	
7.815	0.318	0.0548186168230868	
7.82	-0.203	0.05142980432980365	
7.825	-0.110	0.04610460858549388	
7.83	0.325	0.03709924556447577	
7.835	-0.182	0.0226456712178443	
7.84	-0.362	-0.0017850345057714673	
7.845	0.001	-0.039485562728139606	
7.85	-0.092	-0.08612459297008684	
7.855	-0.394	-0.12702913361683066	
7.86	-0.138	-0.15164536999488434	
7.865	0.027	-0.17028238958525826	
7.87	-0.358	-0.18450442887216092	
7.875	-0.258	-0.1858151755564375	
7.88	0.117	-0.18097527682473707	
7.885	-0.223	-0.17539337605976763	
7.89	-0.326	-0.16568831703323345	
7.895	0.120	-0.1484456896409565	
7.9	0.029	-0.13121763092972077	
7.905	-0.219	-0.10604925598230942	
7.91	0.235	-0.06353066833151558	
7.915	0.612	0.003721688495003003	
7.92	0.075	0.09138912043383905	
7.925	0.282	0.18022356132792872	
7.93	0.730	0.26108932115753913	
7.935	0.041	0.3154956567528785	
7.94	-0.208	0.3172297801373265	
7.945	0.189	0.2666030794675326	
7.95	-0.019	0.18478454670085165	
7.955	-0.367	0.09390656323865067	
7.96	-0.106	0.011467205525033141	
7.965	0.021	-0.06227213372823293	
7.97	-0.342	-0.12160742641979978	
7.975	-0.242	-0.15475160755609887	
7.98	0.124	-0.16888497028207528	
7.985	-0.216	-0.17349216950010254	
7.99	-0.335	-0.16772065602019734	
7.995	0.033	-0.15732743517151768	
8.0	-0.055	-0.15326077746833783	
8.005	-0.342	-0.14916199295069016	
8.01	-0.035	-0.13543185319191003	
8.015	0.208	-0.1192418951568213	
8.02	-0.229	-0.09777533995644955	
8.025	-0.122	-0.07171782049331063	
8.03	0.371	-0.043733639164959974	
8.035	-0.072	-0.0156467749346303	
8.04	-0.203	0.007185205822136789	
8.045	0.301	0.024886530212761618	
8.05	0.175	0.03970745287083948	
8.055	-0.194	0.0546358346268153	
8.06	0.163	0.06871658542398867	
8.065	0.402	0.08285850369803781	
8.07	-0.139	0.09600737403140557	
8.075	-0.023	0.10530721704655213	
8.08	0.510	0.11145256118895809	
8.085	0.013	0.1212167123542123	
8.09	-0.127	0.12810103234927883	
8.095	0.397	0.13106991312308688	
8.1	0.217	0.13367104358375492	
8.105	-0.179	0.1334878912541333	
8.11	0.233	0.13284082756155366	
8.115	0.431	0.13592047164114873	
8.12	-0.136	0.13986356695784471	
8.125	-0.035	0.1373364368738813	
8.13	0.423	0.1275507511751307	
8.135	-0.069	0.11312267561567677	
8.14	-0.203	0.0950699658535445	
8.145	0.273	0.07517413306186752	
8.15	0.026	0.05263537652843614	
8.155	-0.306	0.026412831156579802	
8.16	0.030	0.0029199385141019676	
8.165	0.266	-0.014050476544284075	
8.17	-0.228	-0.021214828148592504	
8.175	-0.106	-0.01762114873535153	
8.18	0.366	-0.010376326438372939	
8.185	-0.095	4.564533527027945e-05	
8.19	-0.214	0.009045845319031869	
8.195	0.270	0.017268005456952805	
8.2	0.105	0.02160214010491994	
8.205	-0.240	0.024337809705292146	
8.21	0.139	0.03000301273490745	
8.215	0.325	0.03797103361891105	
8.22	-0.211	0.04566858285163511	
8.225	-0.122	0.0464024899215862	
8.23	0.321	0.0387056152336748	
8.235	-0.113	0.02596116575633848	
8.24	-0.188	0.017019437443905466	
8.245	0.426	0.023395043396716275	
8.25	0.240	0.04658789647895872	
8.255	-0.193	0.07623468331182906	
8.26	0.247	0.10206348222609873	
8.265	0.446	0.12402102814555194	
8.27	-0.152	0.1405805417012261	
8.275	-0.029	0.14439867971065468	
8.28	0.487	0.13978128880022983	
8.285	-0.042	0.13193161146919874	
8.29	-0.194	0.11996422612812349	
8.295	0.263	0.1004074835040729	
8.3	0.039	0.07358803901549804	
8.305	-0.312	0.0412206351600974	
8.31	-0.019	0.010077833803322112	
8.315	0.134	-0.022975822307045497	
8.32	-0.317	-0.05442454585677933	
8.325	-0.203	-0.07556769529904081	
8.33	0.233	-0.08919821064219688	
8.335	-0.173	-0.09510560096202866	
8.34	-0.286	-0.09302573872133163	
8.345	0.163	-0.08452668232151478	
8.35	-0.037	-0.08145030116173443	
8.355	-0.312	-0.0818444591096098	
8.36	0.146	-0.06982481976590107	
8.365	0.453	-0.036912866434794855	
8.37	-0.046	0.015458286538726128	
8.375	0.321	0.08643792733757921	
8.38	1.034	0.18695454909008719	
8.385	0.438	0.3118422005687834	
8.39	0.082	0.4138092411174191	
8.395	0.631	0.4615026356752239	
8.4	0.270	0.4576223074385163	
8.405	-0.252	0.4070583548172314	
8.41	0.007	0.3170690072059097	
8.415	0.127	0.20314145081108143	
8.42	-0.336	0.08953291715586782	
8.425	-0.228	-0.0026345635375454725	
8.43	0.114	-0.07211465445356109	
8.435	-0.255	-0.12506462985698544	
8.44	-0.367	-0.1571050744535049	
8.445	0.078	-0.16951535312215732	
8.45	-0.066	-0.1733568542082109	
8.455	-0.385	-0.16987851823234681	
8.46	-0.069	-0.15790871803402928	
8.465	0.181	-0.1448715408823768	
8.47	-0.272	-0.12750227143431853	
8.475	-0.164	-0.10363291572661	
8.48	0.301	-0.07908637523451786	
8.485	-0.124	-0.05912610835886212	
8.49	-0.231	-0.04014835903633502	
8.495	0.351	-0.017431804433000898	
8.5	0.169	0.009633511244912726	
8.505	-0.240	0.035016441153735374	
8.51	0.186	0.05715053724843331	
8.515	0.438	0.07719858427945961	
8.52	-0.141	0.09838840257295237	
8.525	-0.011	0.11334498843860479	
8.53	0.547	0.12502320431811792	
8.535	0.018	0.13684036261316868	
8.54	-0.139	0.14477126733563633	
8.545	0.437	0.14662329100442928	
8.55	0.235	0.14866235137931083	
8.555	-0.200	0.14796347478049332	
8.56	0.211	0.1431525353470251	
8.565	0.466	0.14023271514181143	
8.57	-0.116	0.1423889738199396	
8.575	0.020	0.14633310110979247	
8.58	0.521	0.14801308167102425	
8.585	-0.020	0.14885531358941972	
8.59	-0.174	0.1417861181879712	
8.595	0.321	0.12758376482293238	
8.6	0.099	0.10565360191038506	
8.605	-0.266	0.08101848989926443	
8.61	0.055	0.05713643326873139	
8.615	0.223	0.03117763894592724	
8.62	-0.263	0.007430291696395291	
8.625	-0.136	-0.009626627980897483	
8.63	0.347	-0.0180333000253962	
8.635	-0.103	-0.019144842661351497	
8.64	-0.220	-0.013152631969625331	
8.645	0.249	-0.004427077279189516	
8.65	0.056	-0.0003950023276907518	
8.655	-0.251	4.370115529625461e-05	
8.66	0.119	0.006179320330350606	
8.665	0.321	0.015149233495513885	
8.67	-0.217	0.025394346982718943	
8.675	-0.100	0.03240043482855184	
8.68	0.382	0.03497763700398684	
8.685	-0.107	0.034804449637480944	
8.69	-0.211	0.03284494868520978	
8.695	0.351	0.03362864432743747	
8.7	0.151	0.04159659602620042	
8.705	-0.222	0.051003498213177505	
8.71	0.208	0.06320137056325184	
8.715	0.470	0.08117453800177518	
8.72	-0.138	0.10537647258001102	
8.725	0.003	0.12338497283157922	
8.73	0.505	0.1329811194514905	
8.735	-0.042	0.13782099745950752	
8.74	-0.164	0.13283735206554811	
8.745	0.441	0.12558697122389675	
8.75	0.252	0.12762651125015678	
8.755	-0.188	0.13305976883529658	
8.76	0.185	0.13511951918204668	
8.765	0.321	0.12712048946916849	
8.77	-0.240	0.11048673468498321	
8.775	-0.119	0.08537507365642247	
8.78	0.299	0.05586414565342937	
8.785	-0.156	0.02491586996277822	
8.79	-0.306	-0.0030761748568139988	
8.795	0.101	-0.030560150658717273	
8.8	-0.040	-0.06139228633035328	
8.805	-0.318	-0.08578753296138858	
8.81	0.015	-0.09191416799495356	
8.815	0.168	-0.08996757507271083	
8.82	-0.260	-0.08442484961406155	
8.825	-0.122	-0.07157785334284783	
8.83	0.457	-0.04820410834973979	
8.835	0.082	-0.008070072028656219	
8.84	0.113	0.05399184810582783	
8.845	1.025	0.15245046556872946	
8.85	0.974	0.3006254718927535	
8.855	0.325	0.4642162159170099	
8.86	0.681	0.5849675446952032	
8.865	0.617	0.636949414944656	
8.87	-0.139	0.6106441196951123	
8.875	-0.112	0.5113601687193459	
8.88	0.246	0.3696373567051022	
8.885	-0.229	0.21806108550885434	
8.89	-0.338	0.08410586208542933	
8.895	-0.023	-0.023789938509571704	
8.9	-0.152	-0.11340825568980942	
8.905	-0.413	-0.1765028843608775	
8.91	-0.121	-0.20604985477752644	
8.915	0.049	-0.21616712002741054	
8.92	-0.323	-0.21414491406561487	
8.925	-0.219	-0.19452723948244655	
8.93	0.223	-0.1675254684155934	
8.935	-0.167	-0.140952904312377	
8.94	-0.274	-0.11278714763396033	
8.945	0.189	-0.08685048045336619	
8.95	0.058	-0.06650342816239813	
8.955	-0.248	-0.0474618584770917	
8.96	0.146	-0.023012355501754064	
8.965	0.340	0.00476802174597724	
8.97	-0.207	0.029816117489354546	
8.975	-0.054	0.047518133832185526	
8.98	0.473	0.060478009951955215	
8.985	-0.020	0.07600211620103456	
8.99	-0.124	0.09023413583137574	
8.995	0.476	0.106181831709132	
9.0	0.249	0.1284747839037968	
9.005	-0.187	0.14553036481253406	
9.01	0.230	0.15197613302852964	
9.015	0.443	0.15375197034095248	
9.02	-0.118	0.15686717708432507	
9.025	0.078	0.15852121299947033	
9.03	0.644	0.16741140885637892	
9.035	0.084	0.18806860401264008	
9.04	-0.095	0.20228064643558377	
9.045	0.457	0.2050311103637067	
9.05	0.264	0.20149112033549765	
9.055	-0.208	0.19270722816059632	
9.06	0.143	0.1718444533823064	
9.065	0.336	0.1436184131050455	
9.07	-0.196	0.11510258802865808	
9.075	-0.097	0.08953273414706742	
9.08	0.288	0.06113034469649878	
9.085	-0.168	0.03120248561218168	
9.09	-0.283	0.0015053867851380926	
9.095	0.137	-0.02521537449047281	
9.1	-0.051	-0.052583269434753006	
9.105	-0.341	-0.07599088244998156	
9.11	-0.045	-0.09022683588982337	
9.115	0.107	-0.1016129719110543	
9.12	-0.304	-0.10969565271373587	
9.125	-0.197	-0.11035767053252024	
9.13	0.183	-0.10911134001435933	
9.135	-0.187	-0.10776243971553137	
9.14	-0.315	-0.10428974218648193	
9.145	0.073	-0.10236213064451216	
9.15	-0.081	-0.10970711446620791	
9.155	-0.349	-0.11880368628438241	
9.16	-0.014	-0.11920697210843857	
9.165	0.156	-0.11378723239101411	
9.17	-0.277	-0.10362829367128314	
9.175	-0.138	-0.08923497201880934	
9.18	0.302	-0.0722320997857324	
9.185	-0.104	-0.051812925091379115	
9.19	-0.202	-0.03115333808855937	
9.195	0.259	-0.012384701162990218	
9.2	0.052	0.0011805129800391576	
9.205	-0.274	0.006271913672500566	
9.21	0.072	0.006836427908995619	
9.215	0.253	0.005099741081490694	
9.22	-0.237	0.004394197672781387	
9.225	-0.124	0.002856855960922283	
9.23	0.256	-0.004324691005653665	
9.235	-0.164	-0.014859974036909045	
9.24	-0.310	-0.0290359870914163	
9.245	0.035	-0.05041466309372921	
9.25	-0.121	-0.08393240578052677	
9.255	-0.385	-0.11662490911472802	
9.26	-0.097	-0.13907635056154544	
9.265	0.036	-0.1550372614813405	
9.27	-0.335	-0.1656225906577214	
9.275	-0.200	-0.16397688100740163	
9.28	0.137	-0.15436455645232533	
9.285	-0.252	-0.14901008399817856	
9.29	-0.300	-0.14292823657360026	
9.295	0.159	-0.1302859522286718	
9.3	-0.026	-0.11707870189460422	
9.305	-0.229	-0.0986907517427098	
9.31	0.435	-0.05587818066860676	
9.315	0.881	0.040005063214386134	
9.32	0.366	0.18322819952561	
9.325	0.625	0.3380559007252555	
9.33	1.010	0.478718198865986	
9.335	0.226	0.5728655807777385	
9.34	-0.126	0.5819469639943532	
9.345	0.278	0.5047264916231764	
9.35	-0.037	0.3769554800356536	
9.355	-0.371	0.23130049700142974	
9.36	-0.132	0.09404877140248605	
9.365	-0.077	-0.031033313331789977	
9.37	-0.420	-0.13369495366926476	
9.375	-0.283	-0.19891272858101566	
9.38	0.026	-0.23431327466494214	
9.385	-0.284	-0.2500490968178548	
9.39	-0.359	-0.24692235655416023	
9.395	0.024	-0.23026149887341782	
9.4	-0.110	-0.21509634328550992	
9.405	-0.358	-0.19769553968831766	
9.41	-0.045	-0.17489298672278447	
9.415	0.171	-0.15005876773998084	
9.42	-0.254	-0.12379901990351566	
9.425	-0.121	-0.09288328192541945	
9.43	0.298	-0.06424576486204953	
9.435	-0.126	-0.04217027614315419	
9.44	-0.216	-0.02397166767521951	
9.445	0.288	-0.008111288212832957	
9.45	0.091	0.005863525500894305	
9.455	-0.207	0.019159075199973345	
9.46	0.244	0.03723919872274835	
9.465	0.441	0.06602801036672695	
9.47	-0.138	0.09901796303883056	
9.475	0.001	0.12011594103606732	
9.48	0.487	0.12991283120671837	
9.485	-0.046	0.1347423924837023	
9.49	-0.161	0.1299310331057338	
9.495	0.385	0.11900820531672442	
9.5	0.145	0.10988743458256148	
9.505	-0.216	0.10205799580455759	
9.51	0.180	0.09325863729908218	
9.515	0.324	0.0860773056273956	
9.52	-0.208	0.080986036460966	
9.525	-0.083	0.07110890701074414	
9.53	0.330	0.05593508411452963	
9.535	-0.148	0.038743600541739746	
9.54	-0.248	0.019936837756409843	
9.545	0.240	0.004005321643816962	
9.55	0.027	-0.009119904893460378	
9.555	-0.283	-0.01892158030177353	
9.56	0.030	-0.023740481061668352	
9.565	0.157	-0.031951660700295176	
9.57	-0.275	-0.04200606714158415	
9.575	-0.136	-0.04685622133022324	
9.58	0.279	-0.04906822121207022	
9.585	-0.158	-0.04728469301614249	
9.59	-0.243	-0.04404857267494903	
9.595	0.208	-0.03896512058289171	
9.6	-0.002	-0.03815891034502038	
9.605	-0.321	-0.040955359775640236	
9.61	0.017	-0.04468346036949158	
9.615	0.223	-0.047937729457851755	
9.62	-0.271	-0.04707066334235788	
9.625	-0.138	-0.0428324726397755	
9.63	0.304	-0.0390187057102218	
9.635	-0.150	-0.034347510965103564	
9.64	-0.220	-0.029063681080340478	
9.645	0.333	-0.017882527070406423	
9.65	0.180	0.0038249081081762944	
9.655	-0.188	0.031992577993215685	
9.66	0.201	0.05936708650964624	
9.665	0.359	0.08106534749207597	
9.67	-0.171	0.09686375838143985	
9.675	-0.011	0.10319229039347072	
9.68	0.431	0.10301126995207482	
9.685	-0.098	0.09860471326902724	
9.69	-0.219	0.08693511367961712	
9.695	0.198	0.06413355346685322	
9.7	-0.046	0.03077474374342824	
9.705	-0.312	-0.005001683983545475	
9.71	-0.019	-0.034570631783352596	
9.715	0.104	-0.060965578132497984	
9.72	-0.297	-0.08316893506998328	
9.725	-0.152	-0.09172485262586647	
9.73	0.235	-0.09096607135214083	
9.735	-0.190	-0.08748837428326094	
9.74	-0.272	-0.08103406162382198	
9.745	0.191	-0.07375478846561806	
9.75	-0.014	-0.06830193975361029	
9.755	-0.329	-0.06508864762199702	
9.76	0.000	-0.06344803238914755	
9.765	0.266	-0.060944320881843955	
9.77	-0.155	-0.04630746675138575	
9.775	0.146	-0.00864616477241622	
9.78	0.825	0.060165698204994206	
9.785	0.371	0.163394992365454	
9.79	0.226	0.273925951002544	
9.795	0.718	0.36435006758169375	
9.8	0.188	0.40959620890785486	
9.805	-0.283	0.38878421527084517	
9.81	-0.019	0.3086361844407494	
9.815	0.084	0.19406348298572984	
9.82	-0.346	0.07760068866595864	
9.825	-0.211	-0.014589504642030151	
9.83	0.133	-0.08279789388451414	
9.835	-0.254	-0.1297051314691705	
9.84	-0.320	-0.15303211330467179	
9.845	0.114	-0.1575072629789453	
9.85	-0.106	-0.15644956626191464	
9.855	-0.367	-0.15324474755500656	
9.86	-0.002	-0.14218610512632424	
9.865	0.124	-0.12993803109933427	
9.87	-0.321	-0.11860149531833142	
9.875	-0.155	-0.10451083049466252	
9.88	0.310	-0.08865286058089578	
9.885	-0.144	-0.06990368664863975	
9.89	-0.202	-0.048105792739070966	
9.895	0.369	-0.02127356613386427	
9.9	0.148	0.009488311762718601	
9.905	-0.184	0.04054636847907109	
9.91	0.330	0.07399424067380421	
9.915	0.550	0.11617452277016307	
9.92	-0.051	0.16316527348496984	
9.925	0.217	0.2045057754225719	
9.93	0.745	0.24454871584625673	
9.935	0.172	0.28396550438557666	
9.94	0.007	0.31076300465938456	
9.945	0.560	0.31587361192609886	
9.95	0.256	0.30649257490583615	
9.955	-0.145	0.28340690649140604	
9.96	0.343	0.25505233945407424	
9.965	0.515	0.23425233660449593	
9.97	-0.089	0.22409469163444273	
9.975	0.093	0.21549279015066963	
9.98	0.580	0.20760058356799843	
9.985	0.015	0.20295666088041606	
9.99	-0.122	0.19375461775498154	
9.995	0.447	0.17989047976040098	
10.0	0.137	0.16350417608821183	
10.005	-0.226	0.14342193923743873	
10.01	0.178	0.12202916132882272	
10.015	0.296	0.1002238060592299	
10.02	-0.242	0.07913335215255007	
10.025	-0.077	0.060499991741361045	
10.03	0.432	0.04655394193234286	
10.035	-0.119	0.04099172145241044	
10.04	-0.269	0.03579375067261067	
10.045	0.217	0.020818789524762616	
10.05	-0.009	-0.000506140842364009	
10.055	-0.268	-0.018483632321262163	
10.06	0.113	-0.02298877140805536	
10.065	0.256	-0.019850398678949516	
10.07	-0.243	-0.011803960119002971	
10.075	-0.080	-0.0024579081870073002	
10.08	0.398	0.006459040091734472	
10.085	-0.103	0.017988515101100663	
10.09	-0.181	0.028891609646740313	
10.095	0.383	0.04078364769078943	
10.1	0.097	0.05242937998777308	
10.105	-0.229	0.060577949805532584	
10.11	0.227	0.06801277291753002	
10.115	0.386	0.07807611503937381	
10.12	-0.145	0.09324783664405803	
10.125	-0.011	0.1055809741794676	
10.13	0.385	0.10535693660129399	
10.135	-0.113	0.09599191701698899	
10.14	-0.184	0.08099061226997162	
10.145	0.290	0.06471675793429923	
10.15	-0.064	0.04235895778828791	
10.155	-0.384	0.009678044191396977	
10.16	-0.119	-0.03298793411780007	
10.165	-0.045	-0.08604540903515817	
10.17	-0.399	-0.13969407126929106	
10.175	-0.258	-0.17330210667442503	
10.18	0.033	-0.19471102563505116	
10.185	-0.310	-0.21206833214981094	
10.19	-0.359	-0.21690720639468034	
10.195	0.059	-0.209236446742881	
10.2	-0.126	-0.20174886228222205	
10.205	-0.359	-0.18932586542713015	
10.21	0.004	-0.1678315144293626	
10.215	0.140	-0.14407775995013533	
10.22	-0.287	-0.12087016399546553	
10.225	-0.083	-0.09319962264133076	
10.23	0.547	-0.05456663396658681	
10.235	0.091	0.005758684725384361	
10.24	0.099	0.08104813030564455	
10.245	0.773	0.1669702373260356	
10.25	0.392	0.25417162815134775	
10.255	-0.145	0.3114749224069476	
10.26	0.235	0.31826709839984824	
10.265	0.264	0.2809685933983974	
10.27	-0.286	0.2179881768372521	
10.275	-0.148	0.14383151573233535	
10.28	0.246	0.06950969057410136	
10.285	-0.210	0.005670423074997432	
10.29	-0.255	-0.03794934599061209	
10.295	0.166	-0.06294092048471456	
10.3	-0.084	-0.08188573374341321	
10.305	-0.341	-0.09552857404964538	
10.31	0.009	-0.099570680965161	
10.315	0.160	-0.09903997421450944	
10.32	-0.274	-0.09313979843193727	
10.325	-0.106	-0.07805740954419478	
10.33	0.342	-0.058398841376334644	
10.335	-0.126	-0.03852112495234109	
10.34	-0.205	-0.016973683874936963	
10.345	0.331	0.002253823510514446	
10.35	0.046	0.016005743081358527	
10.355	-0.252	0.023308272171041977	
10.36	0.194	0.0316300414873945	
10.365	0.389	0.04501186907400145	
10.37	-0.155	0.06562252158100627	
10.375	0.076	0.09002676930032828	
10.38	0.565	0.11478547241227023	
10.385	0.001	0.1402793337892564	
10.39	-0.080	0.1589560307956484	
10.395	0.516	0.17048297439567556	
10.4	0.215	0.17993768653994435	
10.405	-0.190	0.18213413731657513	
10.41	0.301	0.17778872770261092	
10.415	0.457	0.17306437175025813	
10.42	-0.106	0.17444361665617794	
10.425	0.139	0.1800937134255535	
10.43	0.651	0.1909098706754772	
10.435	0.021	0.20714935182527622	
10.44	-0.058	0.21592992069336098	
10.445	0.452	0.21260261784086532	
10.45	0.096	0.19586663760214892	
10.455	-0.226	0.1670671935044202	
10.46	0.211	0.13690335963025174	
10.465	0.279	0.10905846008520172	
10.47	-0.214	0.08534016028612923	
10.475	-0.055	0.06716093682703908	
10.48	0.368	0.05196427890541543	
10.485	-0.152	0.038048615088715335	
10.49	-0.203	0.02694500852735763	
10.495	0.354	0.02272439605685108	
10.5	0.052	0.022815437605247357	
10.505	-0.268	0.02398923623234129	
10.51	0.168	0.02700269459882743	
10.515	0.342	0.03308292596345448	
10.52	-0.193	0.04422643333232555	
10.525	-0.005	0.059199306868700764	
10.53	0.501	0.07305166397795336	
10.535	-0.061	0.08695430495091039	
10.54	-0.116	0.10091052549974294	
10.545	0.460	0.11182881696603378	
10.55	0.198	0.12277113751914562	
10.555	-0.173	0.13391306137686337	
10.56	0.359	0.14610102216792847	
10.565	0.469	0.1620914561226519	
10.57	-0.141	0.17711484770985736	
10.575	0.186	0.18925373572103835	
10.58	0.603	0.20212391984344535	
10.585	-0.055	0.21085763353901338	
10.59	-0.129	0.20287921590107724	
10.595	0.482	0.18591091469557428	
10.6	0.224	0.1717659243058079	
10.605	-0.168	0.1648659325574571	
10.61	0.261	0.16011929992396728	
10.615	0.327	0.14910466858513938	
10.62	-0.229	0.13209468304145988	
10.625	-0.087	0.1092489328354699	
10.63	0.369	0.08012556135200298	
10.635	-0.141	0.05186693767343524	
10.64	-0.205	0.03291856310056437	
10.645	0.324	0.023917932804798488	
10.65	0.075	0.018714451432219923	
10.655	-0.231	0.01987465582854725	
10.66	0.194	0.030189237205662245	
10.665	0.292	0.04007277146969493	
10.67	-0.219	0.04803067497689675	
10.675	0.044	0.05732974974256905	
10.68	0.701	0.08218738187990096	
10.685	0.201	0.13278382076183187	
10.69	0.269	0.20592192459323366	
10.695	1.055	0.30301906668126766	
10.7	0.797	0.4216806437774727	
10.705	0.243	0.5317887084353805	
10.71	0.706	0.6021874569890304	
10.715	0.608	0.6190566608327929	
10.72	-0.145	0.5799883915466948	
10.725	-0.022	0.4862941381443965	
10.73	0.354	0.36214447801539806	
10.735	-0.170	0.23581632143523668	
10.74	-0.242	0.12996762554415253	
10.745	0.218	0.04994400358572629	
10.75	-0.058	-0.012334823560587151	
10.755	-0.317	-0.05407933958062519	
10.76	0.117	-0.06877210336301347	
10.765	0.261	-0.06598272156082824	
10.77	-0.232	-0.04893136194409938	
10.775	-0.035	-0.02262129818447739	
10.78	0.431	0.0040830302625366	
10.785	-0.097	0.02775422351751505	
10.79	-0.130	0.04901214655106732	
10.795	0.461	0.07195837769763007	
10.8	0.110	0.09058749344104222	
10.805	-0.190	0.10289557270059008	
10.81	0.342	0.1152801818357352	
10.815	0.443	0.13300225699362436	
10.82	-0.148	0.15100692153158182	
10.825	0.130	0.16539890937707252	
10.83	0.669	0.18113304747607295	
10.835	0.053	0.20273352196651906	
10.84	-0.048	0.2199719242798427	
10.845	0.568	0.22796951950229472	
10.85	0.270	0.23262254923905482	
10.855	-0.135	0.23389014749190626	
10.86	0.376	0.23023165461392775	
10.865	0.478	0.22600787778554032	
10.87	-0.136	0.22207061817988977	
10.875	0.111	0.21336523261693396	
10.88	0.600	0.20506132312328554	
10.885	-0.023	0.2008132536240478	
10.89	-0.122	0.19101646852821533	
10.895	0.482	0.17684755102665067	
10.9	0.177	0.16465407714420022	
10.905	-0.187	0.1550281059666236	
10.91	0.276	0.14711581720159933	
10.915	0.333	0.13792373468293312	
10.92	-0.216	0.12625090481058893	
10.925	-0.020	0.11134337935458206	
10.93	0.424	0.0948771025651243	
10.935	-0.127	0.07994946959829526	
10.94	-0.196	0.06613329862114789	
10.945	0.334	0.05464552848917418	
10.95	0.047	0.04265872264563579	
10.955	-0.242	0.035226641191231554	
10.96	0.186	0.03399814789438513	
10.965	0.304	0.037809630793421686	
10.97	-0.208	0.04444433619981054	
10.975	0.006	0.0533451392512411	
10.98	0.469	0.06469294935125444	
10.985	-0.110	0.0750587685088814	
10.99	-0.167	0.0802339910342426	
10.995	0.402	0.08046446512993818	
11.0	0.117	0.0816726040451831	
11.005	-0.200	0.08439974368833199	
11.01	0.279	0.09086726011468174	
11.015	0.406	0.10271547072734996	
11.02	-0.145	0.1186441287803603	
11.025	0.049	0.13030752116519753	
11.03	0.499	0.13649133714023975	
11.035	-0.107	0.13721825611108687	
11.04	-0.185	0.12634079125941586	
11.045	0.347	0.10621804787438394	
11.05	0.001	0.08170714455098957	
11.055	-0.286	0.05463362988637864	
11.06	0.111	0.02967871170416106	
11.065	0.204	0.00958739814980722	
11.07	-0.274	-0.00507337833832183	
11.075	-0.136	-0.01572709638489451	
11.08	0.226	-0.028771182875068448	
11.085	-0.214	-0.04658094695017879	
11.09	-0.257	-0.057499113825533604	
11.095	0.166	-0.06404835985581048	
11.1	-0.115	-0.07628670363733364	
11.105	-0.370	-0.09012625977849663	
11.11	-0.060	-0.10346451435079697	
11.115	0.023	-0.12156044279377254	
11.12	-0.339	-0.13787662875978407	
11.125	-0.188	-0.1416895355733549	
11.13	0.171	-0.13993926253728345	
11.135	-0.181	-0.13452558693800237	
11.14	-0.115	-0.11137514471980128	
11.145	0.596	-0.057107099171477216	
11.15	0.369	0.028690565805125336	
11.155	-0.049	0.12194203280063276	
11.16	0.508	0.20149447031785223	
11.165	0.463	0.25937861311098426	
11.17	-0.226	0.2821508545387529	
11.175	-0.130	0.2532511147529263	
11.18	0.163	0.1809734502060163	
11.185	-0.281	0.08756611231630701	
11.19	-0.376	-0.00034409353140519086	
11.195	-0.017	-0.07826619197764692	
11.2	-0.219	-0.14929095729854927	
11.205	-0.463	-0.20189061940724265	
11.21	-0.121	-0.22855430835986473	
11.215	-0.022	-0.24270057037229212	
11.22	-0.341	-0.2427050986243712	
11.225	-0.152	-0.2186395259895934	
11.23	0.258	-0.1821047792319443	
11.235	-0.194	-0.14148653424719404	
11.24	-0.231	-0.1032747501848749	
11.245	0.292	-0.06824288052247156	
11.25	0.007	-0.039388369280040664	
11.255	-0.292	-0.02092609576657852	
11.26	0.128	-0.008477970592961105	
11.265	0.275	0.0012800829043922973	
11.27	-0.254	0.011202848171206082	
11.275	-0.080	0.017391372324880305	
11.28	0.299	0.014934295333190867	
11.285	-0.167	0.007446531492197857	
11.29	-0.203	0.000733057262593139	
11.295	0.304	-0.0011671174569177429	
11.3	-0.002	-0.0014303066962321179	
11.305	-0.272	-0.0029651027324884218	
11.31	0.119	-0.002397568879590065	
11.315	0.218	-0.003724486155769426	
11.32	-0.248	-0.0028812976405012333	
11.325	-0.075	-0.0005441991696963805	
11.33	0.334	0.0010003988403787327	
11.335	-0.158	0.0013443931662775338	
11.34	-0.184	0.003722924362251436	
11.345	0.348	0.009947877580855878	
11.35	-0.008	0.015508896676219111	
11.355	-0.298	0.014940497694726168	
11.36	0.078	0.007711400010441783	
11.365	0.160	-0.006701499163857674	
11.37	-0.280	-0.02101293550286798	
11.375	-0.103	-0.028480559663680214	
11.38	0.256	-0.0348917391155872	
11.385	-0.216	-0.04279214178965812	
11.39	-0.265	-0.0493116473582147	
11.395	0.232	-0.05288359597730205	
11.4	0.058	-0.051553083925655954	
11.405	-0.216	-0.038176989427938506	
11.41	0.304	-0.007104027809735028	
11.415	0.450	0.03834564796518661	
11.42	-0.097	0.0897687872520658	
11.425	0.244	0.14159281513547867	
11.43	0.695	0.19328654540219234	
11.435	0.087	0.24202521368116273	
11.44	0.029	0.2725936507522152	
11.445	0.701	0.2903191081142531	
11.45	0.359	0.30941542672868017	
11.455	-0.080	0.32063655725138085	
11.46	0.507	0.3199735433088969	
11.465	0.556	0.319437933404778	
11.47	-0.086	0.3166664350556597	
11.475	0.172	0.3015472000567143	
11.48	0.640	0.2823579060652497	
11.485	-0.008	0.26706628471201455	
11.49	-0.081	0.24555308635220982	
11.495	0.524	0.2202681550307538	
11.5	0.178	0.2004867037172739	
11.505	-0.168	0.18470774409264676	
11.51	0.292	0.16885852801268894	
11.515	0.357	0.15641168531670016	
11.52	-0.191	0.14383378829779925	
11.525	-0.035	0.1274897091452936	
11.53	0.351	0.10219200487999948	
11.535	-0.153	0.07522100652382825	
11.54	-0.197	0.05065341126366241	
11.545	0.252	0.029056353605575336	
11.55	-0.038	0.007500629772967982	
11.555	-0.289	-0.0130908266738264	
11.56	0.087	-0.024264172381820045	
11.565	0.192	-0.03170579206195007	
11.57	-0.258	-0.03397638204356784	
11.575	-0.092	-0.029493682104538	
11.58	0.322	-0.02497789199903863	
11.585	-0.107	-0.017693188796178837	
11.59	-0.106	-0.0002329942616882462	
11.595	0.570	0.03293727507634128	
11.6	0.366	0.08949697521982673	
11.605	0.027	0.16004267616996204	
11.61	0.635	0.23365561615802416	
11.615	0.592	0.3041925439581344	
11.62	-0.150	0.3461259033748032	
11.625	-0.008	0.33345365594472104	
11.63	0.348	0.2778524531760696	
11.635	-0.229	0.19944647230770257	
11.64	-0.298	0.11585317958745862	
11.645	0.094	0.03268976454651082	
11.65	-0.147	-0.043466857791733975	
11.655	-0.379	-0.10270319712850047	
11.66	-0.035	-0.136513185986246	
11.665	0.013	-0.15793898986050758	
11.67	-0.358	-0.16956917296616927	
11.675	-0.217	-0.1684978283945664	
11.68	0.107	-0.16638815399012324	
11.685	-0.265	-0.1664433536151781	
11.69	-0.309	-0.15997902458921015	
11.695	0.145	-0.14748214122145176	
11.7	-0.097	-0.1375364412456856	
11.705	-0.330	-0.12655432759401114	
11.71	0.017	-0.1135506905800291	
11.715	0.120	-0.10306595335890922	
11.72	-0.272	-0.09350046603274001	
11.725	-0.071	-0.07642385216670654	
11.73	0.353	-0.05446584996612397	
11.735	-0.141	-0.02947388869448414	
11.74	-0.159	-0.006911132136617762	
11.745	0.388	0.015510095004953279	
11.75	0.065	0.03740784675007576	
11.755	-0.236	0.05246977755087641	
11.76	0.220	0.06047140590506913	
11.765	0.241	0.06389820007710803	
11.77	-0.269	0.060498261569625025	
11.775	-0.087	0.04858216024110258	
11.78	0.324	0.029502574043116965	
11.785	-0.153	0.01454969857852689	
11.79	-0.170	0.007128866596235346	
11.795	0.311	0.007466043971076305	
11.8	-0.028	0.0073949967014018975	
11.805	-0.274	0.003528592828447	
11.81	0.119	-0.0015443333945306165	
11.815	0.236	-0.004140977449399136	
11.82	-0.255	-0.0014439925457645992	
11.825	-0.055	0.0016044033517384083	
11.83	0.321	0.0034370563534886797	
11.835	-0.179	0.0035602421895938176	
11.84	-0.220	0.0001700927890246296	
11.845	0.160	-0.009592824347064535	
11.85	-0.092	-0.029626512655320188	
11.855	-0.313	-0.05139750364691197	
11.86	0.049	-0.06554986900327692	
11.865	0.139	-0.07320127642113829	
11.87	-0.268	-0.07340732320939855	
11.875	-0.116	-0.0663493015092915	
11.88	0.263	-0.05961077922799245	
11.885	-0.196	-0.05446721967298496	
11.89	-0.216	-0.047769797300812225	
11.895	0.302	-0.037569002471937785	
11.9	0.015	-0.024680047221869176	
11.905	-0.242	-0.012398445781117524	
11.91	0.185	0.0024993475058489624	
11.915	0.259	0.01776766380763762	
11.92	-0.257	0.02954068131421367	
11.925	-0.031	0.03368668766094435	
11.93	0.426	0.03741744981856077	
11.935	-0.106	0.045498467900252984	
11.94	-0.129	0.055224623679862916	
11.945	0.406	0.06445084055423712	
11.95	0.059	0.07431305391242751	
11.955	-0.243	0.07558813664970626	
11.96	0.162	0.0694857586980692	
11.965	0.241	0.058772564936040564	
11.97	-0.254	0.04757373845962175	
11.975	-0.113	0.03367025321835505	
11.98	0.247	0.011371367413831122	
11.985	-0.228	-0.013468894286608418	
11.99	-0.255	-0.03473828711501779	
11.995	0.203	-0.050596515595218695	
12.0	-0.052	-0.06269435275697066	
12.005	-0.312	-0.06834152934672177	
12.01	0.038	-0.06951759986053258	
12.015	0.130	-0.0712920878747062	
12.02	-0.301	-0.07239710931489676	
12.025	-0.147	-0.07026585112063362	
12.03	0.157	-0.07467907431209272	
12.035	-0.232	-0.08452345417120759	
12.04	-0.202	-0.08765961000138481	
12.045	0.403	-0.07154834450469692	
12.05	0.165	-0.0317733353631708	
12.055	-0.074	0.021658761724198144	
12.06	0.625	0.09257870088065204	
12.065	0.719	0.18769495691773624	
12.07	0.027	0.2835300211892693	
12.075	0.208	0.3417199641651939	
12.08	0.446	0.3493075313248414	
12.085	-0.153	0.3144659780305933	
12.09	-0.240	0.2433166860380228	
12.095	0.116	0.15337779707514013	
12.1	-0.153	0.05525180685637477	
12.105	-0.387	-0.03125901482298474	
12.11	-0.086	-0.09649957672593326	
12.115	-0.054	-0.14836659337309877	
12.12	-0.398	-0.18633884896504474	
12.125	-0.220	-0.20320762009391907	
12.13	0.107	-0.20474579811684346	
12.135	-0.257	-0.19950427810208043	
12.14	-0.249	-0.180602027406223	
12.145	0.194	-0.15062323046184156	
12.15	-0.077	-0.12280969203288057	
12.155	-0.317	-0.10128706368469897	
12.16	0.091	-0.0814505277583339	
12.165	0.186	-0.06436231565457627	
12.17	-0.260	-0.04743319620197721	
12.175	-0.057	-0.030197990175177884	
12.18	0.347	-0.015660069648331446	
12.185	-0.150	-0.002585129885457566	
12.19	-0.164	0.009327427517067794	
12.195	0.389	0.021492849067323485	
12.2	0.107	0.03920066512659672	
12.205	-0.194	0.05760312069737378	
12.21	0.258	0.07460930067924101	
12.215	0.328	0.08870373777446491	
12.22	-0.190	0.09946485891613221	
12.225	0.027	0.10379346090732251	
12.23	0.473	0.10443442846703316	
12.235	-0.103	0.1063724992400009	
12.24	-0.155	0.10226687428499656	
12.245	0.348	0.0915466676424361	
12.25	0.027	0.07820980910444178	
12.255	-0.246	0.06255496931873859	
12.26	0.208	0.04963113582506709	
12.265	0.275	0.04574329854925476	
12.27	-0.229	0.046449827957238815	
12.275	-0.042	0.04577141309327649	
12.28	0.357	0.0404435990288068	
12.285	-0.153	0.03539477930243447	
12.29	-0.194	0.030262699952015908	
12.295	0.299	0.02352518418981983	
12.3	-0.016	0.016227408665289402	
12.305	-0.271	0.0075772301415448365	
12.31	0.101	-0.0004056722974102708	
12.315	0.166	-0.00927742401920609	
12.32	-0.272	-0.01750754297243594	
12.325	-0.086	-0.02222145133176815	
12.33	0.302	-0.02459165583712388	
12.335	-0.179	-0.024589889448740174	
12.34	-0.217	-0.02271074685355584	
12.345	0.227	-0.02250183830318654	
12.35	-0.069	-0.028790189189936134	
12.355	-0.307	-0.038398537949823175	
12.36	0.091	-0.044393699109528124	
12.365	0.165	-0.04729335804383716	
12.37	-0.262	-0.04551395480141897	
12.375	-0.064	-0.03719971212523912	
12.38	0.330	-0.027586613904887775	
12.385	-0.171	-0.017625125275459973	
12.39	-0.207	-0.009708564623667386	
12.395	0.281	-0.004459307163155622	
12.4	-0.016	-0.0038134193368059093	
12.405	-0.258	-0.004433808787391754	
12.41	0.122	-0.004346464626815639	
12.415	0.214	-0.004288342884942335	
12.42	-0.237	-0.0015768796095806143	
12.425	-0.063	0.0028311414922403476	
12.43	0.302	0.003455122906802646	
12.435	-0.193	0.0003036661917337675	
12.44	-0.252	-0.0067101343516247185	
12.445	0.203	-0.019380808784210248	
12.45	-0.077	-0.035867350068891954	
12.455	-0.317	-0.051480262029145504	
12.46	0.065	-0.06024497477659936	
12.465	0.145	-0.06529703984834281	
12.47	-0.258	-0.06468009113541506	
12.475	-0.071	-0.05408172695039315	
12.48	0.304	-0.0424733937464941	
12.485	-0.181	-0.030834552842234512	
12.49	-0.205	-0.021700453158239503	
12.495	0.281	-0.014228646745643687	
12.5	0.018	-0.00896831271505688	
12.505	-0.207	-0.0015833080561442065	
12.51	0.405	0.02193835186505505	
12.515	0.608	0.07574026347529197	
12.52	0.101	0.1541458064003144	
12.525	0.559	0.24598811313392974	
12.53	0.953	0.34765978444949813	
12.535	0.223	0.43802200563381855	
12.54	-0.008	0.4761846318170089	
12.545	0.414	0.4488482079048285	
12.55	0.001	0.37203268587655824	
12.555	-0.295	0.26933380593270634	
12.56	0.010	0.16193576176413438	
12.565	0.059	0.058768264395491966	
12.57	-0.329	-0.024858212417762857	
12.575	-0.150	-0.07700543680244526	
12.58	0.201	-0.10732815198678602	
12.585	-0.217	-0.11996115109888063	
12.59	-0.234	-0.11473055511143489	
12.595	0.244	-0.09907609599806247	
12.6	-0.038	-0.08102539226079516	
12.605	-0.271	-0.06369408940227811	
12.61	0.166	-0.042960858449587705	
12.615	0.253	-0.02125935010656489	
12.62	-0.214	0.0020060351243356943	
12.625	0.009	0.024057231112863932	
12.63	0.457	0.043742275459474296	
12.635	-0.087	0.06390086358357042	
12.64	-0.116	0.0802512390159328	
12.645	0.453	0.09305175295118988	
12.65	0.159	0.10690974864292081	
12.655	-0.144	0.12122675688016848	
12.66	0.363	0.13715088184571558	
12.665	0.398	0.15374071390379285	
12.67	-0.141	0.16689518537459436	
12.675	0.127	0.1731193128349991	
12.68	0.582	0.17780234602222084	
12.685	-0.061	0.18381251690359396	
12.69	-0.081	0.1812492626990839	
12.695	0.492	0.17211675026728346	
12.7	0.160	0.16587438681520963	
12.705	-0.165	0.1602071872941859	
12.71	0.322	0.15518202333320813	
12.715	0.372	0.1527276372353689	
12.72	-0.147	0.15190453590847489	
12.725	0.084	0.15013778143525552	
12.73	0.478	0.14575803737633652	
12.735	-0.086	0.14182774106865925	
12.74	-0.129	0.13230395807715337	
12.745	0.415	0.11905700956599696	
12.75	0.061	0.1078511645463853	
12.755	-0.226	0.09429360370851234	
12.76	0.192	0.08114281751087683	
12.765	0.194	0.06565049557983466	
12.77	-0.236	0.047995999174073545	
12.775	-0.045	0.03516387028198678	
12.78	0.313	0.022653026172715245	
12.785	-0.174	0.011872241314713448	
12.79	-0.187	0.004389583870223448	
12.795	0.354	0.00397837284219544	
12.8	0.044	0.010829672930055018	
12.805	-0.219	0.02038310479473405	
12.81	0.212	0.033112829309434225	
12.815	0.272	0.04459111454277292	
12.82	-0.184	0.05505771585991183	
12.825	0.032	0.06617582412258119	
12.83	0.388	0.07258255812694012	
12.835	-0.121	0.07489415316518389	
12.84	-0.129	0.07343039718289462	
12.845	0.424	0.07492709622345908	
12.85	0.108	0.08082128642556186	
12.855	-0.168	0.08943354700632239	
12.86	0.342	0.10209108392585588	
12.865	0.409	0.1215691887619733	
12.87	-0.144	0.14210149338026412	
12.875	0.124	0.1561553861486131	
12.88	0.551	0.16554039051190816	
12.885	-0.037	0.1759608809489241	
12.89	-0.071	0.177434913173264	
12.895	0.463	0.17081907041471817	
12.9	0.087	0.16187016323053974	
12.905	-0.219	0.14452294950631644	
12.91	0.174	0.12095442087291945	
12.915	0.203	0.09152899280071423	
12.92	-0.252	0.06328226346971719	
12.925	-0.095	0.037103375650522075	
12.93	0.203	0.007378551536974946	
12.935	-0.216	-0.022889336542807427	
12.94	-0.208	-0.0434648158396428	
12.945	0.266	-0.049351840724256836	
12.95	-0.035	-0.04810797660105861	
12.955	-0.298	-0.045319681835471345	
12.96	0.027	-0.04414764707213174	
12.965	0.105	-0.05256056690943634	
12.97	-0.294	-0.06158487443103232	
12.975	-0.034	-0.06087837815084444	
12.98	0.505	-0.04071161588285247	
12.985	0.090	0.006183932112835579	
12.99	0.191	0.07959718511744732	
12.995	0.921	0.17756011195828472	
13.0	0.568	0.2949009642909073	
13.005	0.055	0.39374322121876104	
13.01	0.473	0.4417240059191253	
13.015	0.318	0.4343629867727371	
13.02	-0.248	0.3785423729711762	
13.025	-0.103	0.28605664875090947	
13.03	0.137	0.1741111007397244	
13.035	-0.281	0.06332904463102995	
13.04	-0.327	-0.0273020599140546	
13.045	0.050	-0.09566605228128015	
13.05	-0.174	-0.14807573944006042	
13.055	-0.385	-0.17898602578694778	
13.06	-0.051	-0.18834021071248525	
13.065	-0.006	-0.19176213507953138	
13.07	-0.333	-0.1882607245933403	
13.075	-0.142	-0.1718612194077216	
13.08	0.174	-0.15106440241176286	
13.085	-0.214	-0.1316743859604097	
13.09	-0.226	-0.11017753580111372	
13.095	0.261	-0.08573425987691992	
13.1	-0.017	-0.06318190612134067	
13.105	-0.234	-0.04091866617762794	
13.11	0.197	-0.018292392967569984	
13.115	0.246	0.005149314498425978	
13.12	-0.205	0.025717021832007147	
13.125	0.012	0.04220957774965217	
13.13	0.412	0.05391045435255368	
13.135	-0.086	0.06627124158997777	
13.14	-0.087	0.0768754976211927	
13.145	0.440	0.08828227489195356	
13.15	0.111	0.10175954540217759	
13.155	-0.167	0.11110505028079705	
13.16	0.333	0.1187385537626101	
13.165	0.374	0.13110638220992182	
13.17	-0.155	0.14273340643475765	
13.175	0.087	0.14723469087457475	
13.18	0.446	0.14485652503077517	
13.185	-0.113	0.13828883714425205	
13.19	-0.119	0.12491815545906831	
13.195	0.408	0.10921132506766874	
13.2	0.038	0.09776879783488646	
13.205	-0.214	0.08519648843843594	
13.21	0.204	0.07365934130659363	
13.215	0.183	0.061048659937298605	
13.22	-0.248	0.046861576333927485	
13.225	-0.090	0.030217454947171502	
13.23	0.270	0.009734493982440712	
13.235	-0.187	-0.007602111505384447	
13.24	-0.214	-0.01900275670081834	
13.245	0.249	-0.026939979945945273	
13.25	-0.063	-0.03222288074591951	
13.255	-0.286	-0.03765668890341299	
13.26	0.111	-0.0394310921862808	
13.265	0.171	-0.03903891535139927	
13.27	-0.254	-0.03298843261484476	
13.275	-0.048	-0.02477232804175599	
13.28	0.270	-0.019419486688684293	
13.285	-0.190	-0.016532992146315973	
13.29	-0.187	-0.015902249226710227	
13.295	0.288	-0.014072700571075594	
13.3	-0.032	-0.011243887860587498	
13.305	-0.266	-0.010515370992032473	
13.31	0.133	-0.010501993626554632	
13.315	0.188	-0.010141566878664066	
13.32	-0.231	-0.006856949517500753	
13.325	-0.035	-0.000750566003087275	
13.33	0.288	0.002436752067883859	
13.335	-0.156	0.00353390888552764	
13.34	-0.174	0.004201600086511713	
13.345	0.247	0.0037972513969003548	
13.35	-0.017	-0.00027673097967656176	
13.355	-0.223	-0.003368691198186868	
13.36	0.212	0.00146183808224044	
13.365	0.232	0.012750538419969412	
13.37	-0.245	0.0252329966607668	
13.375	-0.055	0.02928478699189676	
13.38	0.229	0.0203144251581913	
13.385	-0.219	0.003560927458297924	
13.39	-0.237	-0.0156973354262648	
13.395	0.180	-0.03528516546072038	
13.4	-0.150	-0.05632505313658258	
13.405	-0.352	-0.07826133038641386	
13.41	-0.072	-0.10056466410918323	
13.415	-0.064	-0.1283603177917278	
13.42	-0.368	-0.1556837375894149	
13.425	-0.161	-0.1686193735684306	
13.43	0.140	-0.16776801120815146	
13.435	-0.239	-0.15946699401630826	
13.44	-0.246	-0.1426006937732765	
13.445	0.133	-0.12529438571226903	
13.45	-0.092	-0.11341838018712991	
13.455	-0.211	-0.09921946211470076	
13.46	0.426	-0.060452302841852074	
13.465	0.657	0.01862331151040575	
13.47	0.214	0.13426116784607187	
13.475	0.568	0.2584176896996662	
13.48	0.808	0.372225496862704	
13.485	0.012	0.44343432002956423	
13.49	-0.119	0.4403415001850297	
13.495	0.253	0.3687018531807214	
13.5	-0.155	0.2596026985059949	
13.505	-0.404	0.13678634194644684	
13.51	-0.112	0.018469634161771588	
13.515	-0.101	-0.08739931276585348	
13.52	-0.445	-0.1686398134099715	
13.525	-0.258	-0.2185887234422592	
13.53	-0.026	-0.24783254253785858	
13.535	-0.327	-0.26343906465437583	
13.54	-0.341	-0.25853246060061685	
13.545	0.041	-0.2433567204095645	
13.55	-0.171	-0.2274365378748092	
13.555	-0.371	-0.209138851305307	
13.56	-0.022	-0.18751464800900675	
13.565	0.038	-0.1694921282724395	
13.57	-0.310	-0.15267412900315028	
13.575	-0.080	-0.1295109724577266	
13.58	0.259	-0.10384066108974074	
13.585	-0.174	-0.0765514496402667	
13.59	-0.202	-0.052501166133578456	
13.595	0.249	-0.035271083820956436	
13.6	-0.034	-0.025535248434441632	
13.605	-0.213	-0.017183985185255622	
13.61	0.252	-0.0023733548874186132	
13.615	0.243	0.019490102674309347	
13.62	-0.205	0.04018995789781726	
13.625	0.044	0.05456792985697107	
13.63	0.424	0.06623608918830573	
13.635	-0.113	0.07832751046631425	
13.64	-0.133	0.08349285988348489	
13.645	0.374	0.08084139445243625	
13.65	0.007	0.07641285019713835	
13.655	-0.226	0.06774816531554596	
13.66	0.192	0.055691366626703306	
13.665	0.204	0.046496979448965234	
13.67	-0.225	0.040149015175921135	
13.675	-0.016	0.03460082251435091	
13.68	0.316	0.02823963462070614	
13.685	-0.171	0.023300276338742945	
13.69	-0.182	0.017528226770624662	
13.695	0.215	0.006841162101378099	
13.7	-0.093	-0.009633198476115585	
13.705	-0.298	-0.028213795391157204	
13.71	0.062	-0.04427496103520486	
13.715	0.064	-0.05956638513472905	
13.72	-0.291	-0.0708509878960677	
13.725	-0.089	-0.07432074854030477	
13.73	0.233	-0.07379289763908042	
13.735	-0.194	-0.06776249795427355	
13.74	-0.185	-0.05739571327826093	
13.745	0.264	-0.04512056473360141	
13.75	-0.100	-0.03673109260642595	
13.755	-0.297	-0.03621039413100505	
13.76	0.073	-0.04118677432705109	
13.765	0.093	-0.04862547848755946	
13.77	-0.306	-0.056913409406161	
13.775	-0.098	-0.061231820444327505	
13.78	0.223	-0.06478485963685562	
13.785	-0.216	-0.06586117699370472	
13.79	-0.205	-0.06234930537111204	
13.795	0.258	-0.05604335778759556	
13.8	-0.046	-0.047815397805566436	
13.805	-0.236	-0.03722632644125873	
13.81	0.221	-0.022072230284118574	
13.815	0.197	-0.002665502709381766	
13.82	-0.210	0.014989531520960749	
13.825	0.075	0.03185798760745694	
13.83	0.382	0.04925973670443265	
13.835	-0.142	0.06301857561501432	
13.84	-0.132	0.06765329258189812	
13.845	0.398	0.06805485519218299	
13.85	0.015	0.06913240030926959	
13.855	-0.240	0.06570511257790634	
13.86	0.157	0.054986361058762256	
13.865	0.099	0.03735046499357137	
13.87	-0.294	0.012928435262533473	
13.875	-0.101	-0.01012723894612808	
13.88	0.139	-0.03669603940882755	
13.885	-0.271	-0.06501572426346681	
13.89	-0.266	-0.08635116528807227	
13.895	0.136	-0.10088278422236109	
13.9	-0.139	-0.11389735012693304	
13.905	-0.324	-0.12034334681184444	
13.91	0.032	-0.1179168326006136	
13.915	0.032	-0.11763177249088691	
13.92	-0.304	-0.11520024161246142	
13.925	-0.100	-0.10705504128310211	
13.93	0.299	-0.09257039937192844	
13.935	-0.110	-0.06816642535078321	
13.94	0.036	-0.0273826622593316	
13.945	0.883	0.04834549156367239	
13.95	0.678	0.17206691029239576	
13.955	0.288	0.31848223628311984	
13.96	0.802	0.4441817513479611	
13.965	0.625	0.5293973416284649	
13.97	-0.115	0.551610980669516	
13.975	0.027	0.4989153384542258	
13.98	0.246	0.3884944441278203	
13.985	-0.254	0.2567912250950331	
13.99	-0.275	0.1316059793086451	
13.995	0.055	0.02234079288766129	
14.0	-0.197	-0.07099170322518417	
14.005	-0.378	-0.1364547358823104	
14.01	-0.038	-0.17070953338725026	
14.015	-0.038	-0.1906482250846706	
14.02	-0.339	-0.19737615370229353	
14.025	-0.119	-0.18389083130732206	
14.03	0.166	-0.1635011951840453	
14.035	-0.225	-0.14140188938221226	
14.04	-0.208	-0.11531141047905889	
14.045	0.266	-0.0884978397138513	
14.05	-0.074	-0.06520532265346607	
14.055	-0.263	-0.04757060274342176	
14.06	0.198	-0.031457311734120794	
14.065	0.180	-0.01469257205130525	
14.07	-0.217	0.001361653848534406	
14.075	0.078	0.019283882203452018	
14.08	0.460	0.042658556170764465	
14.085	-0.023	0.0723364710400936	
14.09	0.105	0.10968898342375603	
14.095	0.806	0.16478133107406132	
14.1	0.490	0.24367655295705276	
14.105	0.156	0.3282535601670064	
14.11	0.790	0.40173586406940864	
14.115	0.751	0.4653362133460116	
14.12	0.137	0.5121552738098953	
14.125	0.521	0.5313361879946928	
14.13	0.845	0.5347616384276328	
14.135	0.261	0.5332286250631564	
14.14	0.232	0.5206568054304139	
14.145	0.718	0.49582055044988693	
14.15	0.304	0.4636264234642761	
14.155	-0.035	0.42226387649233044	
14.16	0.524	0.3777739808583199	
14.165	0.478	0.34230701107239886	
14.17	-0.095	0.3152080023247108	
14.175	0.191	0.2843750935630539	
14.18	0.492	0.25167169693082114	
14.185	-0.078	0.2212693569119797	
14.19	-0.060	0.19075872442624942	
14.195	0.463	0.16371411330869506	
14.2	0.056	0.14361080179847394	
14.205	-0.179	0.12642572140470587	
14.21	0.292	0.11268527072812708	
14.215	0.233	0.10217609844080401	
14.22	-0.202	0.09338517755537923	
14.225	0.070	0.0854013594202091	
14.23	0.377	0.07947401267559712	
14.235	-0.139	0.07537483003026701	
14.24	-0.130	0.07089226059566535	
14.245	0.330	0.06250761825293596	
14.25	-0.042	0.05059010772784795	
14.255	-0.248	0.03663977668193458	
14.26	0.185	0.02457001368757629	
14.265	0.214	0.01703407324702055	
14.27	-0.190	0.01960068444855531	
14.275	0.096	0.03242887227627633	
14.28	0.308	0.046243382855421136	
14.285	-0.164	0.0514669470374358	
14.29	-0.090	0.05205239651029196	
14.295	0.466	0.058338610891408446	
14.3	0.094	0.07556339879882976	
14.305	-0.148	0.09482739436524272	
14.31	0.321	0.10946640425657575	
14.315	0.272	0.1198998045373267	
14.32	-0.162	0.12476908474214529	
14.325	0.061	0.12342514522665742	
14.33	0.319	0.11105656458101956	
14.335	-0.185	0.09059335451895378	
14.34	-0.177	0.06616713456868836	
14.345	0.175	0.03411900169934206	
14.35	-0.133	-0.0034497852177557144	
14.355	-0.301	-0.03794608692310248	
14.36	0.073	-0.061624433302412664	
14.365	0.027	-0.08025090192775125	
14.37	-0.291	-0.09104830392188333	
14.375	-0.087	-0.09150388722519545	
14.38	0.204	-0.08812841039443235	
14.385	-0.237	-0.08336700337827355	
14.39	-0.211	-0.07567138410666746	
14.395	0.154	-0.0719908034237304	
14.4	-0.118	-0.07555048917452653	
14.405	-0.248	-0.07679988909650992	
14.41	0.223	-0.06459162189246839	
14.415	0.380	-0.03238619388485367	
14.42	0.015	0.027012015011414647	
14.425	0.577	0.11362673369087611	
14.43	0.965	0.23278168277589564	
14.435	0.327	0.3615752496416839	
14.44	0.244	0.45740157253567076	
14.445	0.557	0.49191773048651755	
14.45	0.003	0.4633462923715811	
14.455	-0.243	0.38029014530516136	
14.46	0.097	0.2683739225192634	
14.465	-0.045	0.1474927062915089	
14.47	-0.367	0.03511824990170948	
14.475	-0.155	-0.052331344727311026	
14.48	0.013	-0.11737202665201907	
14.485	-0.321	-0.16535977695034157	
14.49	-0.297	-0.1894098221763473	
14.495	0.010	-0.19812667316893348	
14.5	-0.228	-0.20770563323879304	
14.505	-0.355	-0.20857699329461887	
14.51	0.021	-0.1965728457647401	
14.515	0.012	-0.18062337912751109	
14.52	-0.286	-0.1589133498513316	
14.525	-0.032	-0.12922384260394312	
14.53	0.272	-0.09639459276232516	
14.535	-0.168	-0.06250339439576513	
14.54	-0.132	-0.031356797585430474	
14.545	0.353	-0.005018120034491471	
14.55	-0.026	0.016163595473297182	
14.555	-0.185	0.03136127001196243	
14.56	0.307	0.04558081123730934	
14.565	0.230	0.06134258722592482	
14.57	-0.171	0.07694551964658976	
14.575	0.186	0.09188087210828767	
14.58	0.495	0.1116793277902574	
14.585	-0.057	0.1363629283539041	
14.59	-0.023	0.15164673726910066	
14.595	0.466	0.15708549540968214	
14.6	0.072	0.1581026174902414	
14.605	-0.130	0.15331579798414297	
14.61	0.376	0.14865282492865878	
14.615	0.302	0.14833877015100005	
14.62	-0.164	0.14990453369429108	
14.625	0.143	0.1469000282645189	
14.63	0.432	0.14067229969097328	
14.635	-0.106	0.13735869153132624	
14.64	-0.081	0.1286781261267203	
14.645	0.388	0.11605817129180629	
14.65	-0.008	0.10109158701418702	
14.655	-0.184	0.08637586645748335	
14.66	0.287	0.0756250383696968	
14.665	0.180	0.07028560971812128	
14.67	-0.252	0.0639762896900733	
14.675	-0.008	0.0519064819629587	
14.68	0.305	0.03558071331663506	
14.685	-0.156	0.025420987444606143	
14.69	-0.100	0.02275765386437912	
14.695	0.340	0.025956535887063155	
14.7	-0.048	0.029076671395765655	
14.705	-0.213	0.029487033430504805	
14.71	0.191	0.027559424563029896	
14.715	0.130	0.022197879771989663	
14.72	-0.226	0.01809703210042224	
14.725	0.039	0.016940409061288922	
14.73	0.284	0.017450472727463126	
14.735	-0.173	0.017453349437654864	
14.74	-0.116	0.01885184526954381	
14.745	0.325	0.020866260646393988	
14.75	-0.025	0.02403896990708547	
14.755	-0.173	0.02760020065520533	
14.76	0.345	0.040545659266217574	
14.765	0.285	0.06312132709201805	
14.77	-0.179	0.08816083375597966	
14.775	0.116	0.1039509756173461	
14.78	0.362	0.10935903170192812	
14.785	-0.129	0.1084973644462849	
14.79	-0.101	0.10090708115712527	
14.795	0.351	0.08776777699474973	
14.8	-0.042	0.07304325766015482	
14.805	-0.225	0.056703708770838225	
14.81	0.136	0.03845618024584167	
14.815	0.029	0.01303768378794217	
14.82	-0.286	-0.014703938251191125	
14.825	-0.061	-0.03501942526071149	
14.83	0.169	-0.052765794604402866	
14.835	-0.240	-0.06645009938971581	
14.84	-0.177	-0.06998246991111551	
14.845	0.264	-0.06631305065495746	
14.85	-0.100	-0.05801203458364966	
14.855	-0.252	-0.049197501515782775	
14.86	0.128	-0.042534663332395355	
14.865	0.058	-0.0400552039331806	
14.87	-0.292	-0.04267483267401981	
14.875	-0.014	-0.04295180707286941	
14.88	0.351	-0.036822037145268945	
14.885	-0.026	-0.012468186549336813	
14.89	0.221	0.03910979246988668	
14.895	0.852	0.12369108092725162	
14.9	0.446	-0.012468186549336813	
14.905	0.076	0.33182231412974245	
14.91	0.484	0.38443364155060666	
14.915	0.177	0.3828566658338749	
14.92	-0.275	0.32935517793633895	
14.925	-0.083	0.2390598551641394	
14.93	0.076	0.1310853574014602	
14.935	-0.310	0.026568726253835884	
14.94	-0.257	-0.05381568477685615	
14.945	0.053	-0.1114169388966382	
14.95	-0.226	-0.15410057767306767	
14.955	-0.347	-0.17801184328160718	
14.96	-0.003	-0.18352509616369672	
14.965	-0.060	-0.18422842297470693	
14.97	-0.336	-0.1795760698474418	
14.975	-0.064	-0.1638205823857019	
14.98	0.172	-0.14198764223085203	
14.985	-0.222	-0.11853331414941215	
14.99	-0.159	-0.0917329065579924	
14.995	0.227	-0.06837430254453056	
15.0	-0.110	-0.05324651580856363	
15.005	-0.255	-0.04402929168321749	
15.01	0.171	-0.03738371443902301	
15.015	0.110	-0.030293974284342752	
15.02	-0.222	-0.021697439281780334	
15.025	0.097	-0.006688276003945855	
15.03	0.408	0.01706712984759647	
15.035	-0.100	0.04630385788183048	
15.04	-0.019	0.07430145594876031	
15.045	0.495	0.09876573027943629	
15.05	0.047	0.12164689430943905	
15.055	-0.147	0.13389763972626967	
15.06	0.334	0.1357425496484742	
15.065	0.172	0.1296873446144243	
15.07	-0.190	0.11819072165309284	
15.075	0.137	0.10538186572930502	
15.08	0.437	0.10012034929445496	
15.085	-0.089	0.10622373502551663	
15.09	-0.089	0.11030853296469967	
15.095	0.310	0.10180723841569081	
15.1	-0.061	0.08259688417543334	
15.105	-0.173	0.06191403795889186	
15.11	0.321	0.05181282234201412	
15.115	0.162	0.05365182439205549	
15.12	-0.280	0.05315996918536828	
15.125	-0.042	0.041417148737830735	
15.13	0.151	0.014084211192907774	
15.135	-0.248	-0.016812367139259224	
15.14	-0.164	-0.038614985390144685	
15.145	0.269	-0.04916116454849337	
15.15	-0.104	-0.05146680181662151	
15.155	-0.213	-0.0460709021073651	
15.16	0.258	-0.031133824633651698	
15.165	0.172	-0.010401936669464524	
15.17	-0.199	0.013136314787779295	
15.175	0.105	0.03450648452865555	
15.18	0.365	0.05307887747005305	
15.185	-0.141	0.06809867934499844	
15.19	-0.077	0.07641795811471261	
15.195	0.366	0.07787817862194357	
15.2	-0.013	0.07545803173044388	
15.205	-0.152	0.07292697958288807	
15.21	0.343	0.07493392011384212	
15.215	0.218	0.08355615190869171	
15.22	-0.226	0.09009639093927835	
15.225	0.075	0.0875583760760605	
15.23	0.348	0.07907230570823004	
15.235	-0.141	0.07306737051797903	
15.24	-0.042	0.07146786908295943	
15.245	0.438	0.07488691956211405	
15.25	-0.011	0.08241593329070776	
15.255	-0.159	0.08695247822265185	
15.26	0.336	0.08893716134621854	
15.265	0.212	0.09351388093079668	
15.27	-0.197	0.09713766686649705	
15.275	0.070	0.09357866795115723	
15.28	0.276	0.08099973951057787	
15.285	-0.207	0.0630880711339751	
15.29	-0.155	0.04352432346530423	
15.295	0.233	0.01980849582664112	
15.3	-0.152	-0.006605443436983466	
15.305	-0.291	-0.030942275779847653	
15.31	0.104	-0.050090594257383624	
15.315	-0.006	-0.06857926955997008	
15.32	-0.287	-0.08077881446233176	
15.325	-0.045	-0.0833446192927597	
15.33	0.169	-0.08209808340413616	
15.335	-0.228	-0.07893471004552037	
15.34	-0.104	-0.06735591187888494	
15.345	0.518	-0.038192561802428665	
15.35	0.272	0.020321099283450893	
15.355	0.203	0.10813744384559548	
15.36	0.884	0.21897041734657327	
15.365	0.693	0.34232109618859197	
15.37	0.052	0.43918258839611624	
15.375	0.321	0.47566310017393076	
15.38	0.333	0.44981046232849164	
15.385	-0.219	0.373055324991342	
15.39	-0.164	0.2686980747254431	
15.395	0.136	0.15471959131119165	
15.4	-0.239	0.04729303676551233	
15.405	-0.368	-0.04376005639846031	
15.41	-0.013	-0.11008119714357933	
15.415	-0.068	-0.15774003408316567	
15.42	-0.342	-0.18165409804142268	
15.425	-0.087	-0.18024192006237233	
15.43	0.131	-0.16827788661070342	
15.435	-0.240	-0.14991724621888464	
15.44	-0.141	-0.12218442343083313	
15.445	0.261	-0.09133455585199718	
15.45	-0.133	-0.06581553241782752	
15.455	-0.242	-0.047703926742522704	
15.46	0.186	-0.035031046272693545	
15.465	0.084	-0.025852338786248374	
15.47	-0.295	-0.020696534785210864	
15.475	-0.042	-0.022148346364761595	
15.48	0.201	-0.030311351014079592	
15.485	-0.182	-0.03700451415826243	
15.49	-0.038	-0.028090693017864918	
15.495	0.408	-0.005276654213172284	
15.5	-0.006	0.024070141381535175	
15.505	-0.127	0.05131019705628778	
15.51	0.397	0.07708462659481664	
15.515	0.266	0.10407218432285259	
15.52	-0.152	0.1272315132621979	
15.525	0.192	0.14096552191247458	
15.53	0.415	0.14669025353461695	
15.535	-0.106	0.14887639336414477	
15.54	-0.022	0.14595225908483428	
15.545	0.455	0.13777329143860545	
15.55	-0.014	0.13098832545115008	
15.555	-0.165	0.11932655538053666	
15.56	0.322	0.1061439999859499	
15.565	0.105	0.0930070164170773	
15.57	-0.249	0.07623006102122774	
15.575	0.020	0.05403597413241772	
15.58	0.261	0.03164362477897548	
15.585	-0.185	0.015862589010288385	
15.59	-0.124	0.008035423643707722	
15.595	0.295	0.0037350615325595013	
15.6	-0.104	-0.0010704507349902199	
15.605	-0.217	-0.004587713354938677	
15.61	0.211	-0.00484285123445148	
15.615	0.110	-0.0040860737167498495	
15.62	-0.239	-0.0007205830187122797	
15.625	0.093	0.007117784669581677	
15.63	0.293	0.015553345940294635	
15.635	-0.174	0.024817019811010952	
15.64	-0.074	0.03313688711916468	
15.645	0.395	0.04072047362131001	
15.65	-0.043	0.04983730900830278	
15.655	-0.165	0.05647730080535577	
15.66	0.347	0.0642054974440345	
15.665	0.198	0.07482174612503512	
15.67	-0.184	0.0852889065143069	
15.675	0.128	0.09118832557107295	
15.68	0.313	0.09048144602009384	
15.685	-0.119	0.08679139626723413	
15.69	-0.017	0.0862325219727039	
15.695	0.427	0.08969060841478946	
15.7	-0.032	0.09276151438305316	
15.705	-0.184	0.0905476663427478	
15.71	0.327	0.0852287574601131	
15.715	0.188	0.08173683569783133	
15.72	-0.170	0.08432719205635755	
15.725	0.186	0.08926222647108617	
15.73	0.313	0.09440713910664666	
15.735	-0.207	0.09176034339214863	
15.74	-0.124	0.07830173346571573	
15.745	0.263	0.0536496612860898	
15.75	-0.150	0.025713283364674263	
15.755	-0.268	-0.002365345047045077	
15.76	0.145	-0.024766509729161845	
15.765	-0.009	-0.04535324053192981	
15.77	-0.306	-0.061625130435505514	
15.775	-0.040	-0.07067367158907273	
15.78	0.157	-0.07766934285175528	
15.785	-0.248	-0.08024614693289209	
15.79	-0.152	-0.07559121976453521	
15.795	0.238	-0.06737448938610721	
15.8	-0.101	-0.058376361868200694	
15.805	-0.138	-0.04329408575905764	
15.81	0.548	-0.004684311336317804	
15.815	0.565	0.07058619930991414	
15.82	0.152	0.17336486011966043	
15.825	0.652	0.28038737479582965	
15.83	0.753	0.37727668560244465	
15.835	-0.040	0.4386816660993011	
15.84	-0.052	0.4313952834632986	
15.845	0.253	0.3585621806284306	
15.85	-0.203	0.2496293555397716	
15.855	-0.336	0.13378463125359746	
15.86	-0.016	0.0252184054466191	
15.865	-0.110	-0.06949224338183996	
15.87	-0.356	-0.13647034232521355	
15.875	-0.098	-0.16857978070006246	
15.88	0.029	-0.1828738962837851	
15.885	-0.317	-0.1872053634636083	
15.89	-0.207	-0.17739189030918037	
15.895	0.134	-0.1625384778938065	
15.9	-0.200	-0.14948711886303406	
15.905	-0.297	-0.13506203087930121	
15.91	0.093	-0.12174013713947526	
15.915	-0.023	-0.11269038018405293	
15.92	-0.260	-0.10346854662372695	
15.925	0.067	-0.08341070324441281	
15.93	0.177	-0.061974633900666695	
15.935	-0.245	-0.04635945424377485	
15.94	-0.097	-0.034237085614741446	
15.945	0.310	-0.02246309491804488	
15.95	-0.100	-0.010684110248805629	
15.955	-0.168	-3.9583518156715875e-05	
15.96	0.377	0.017458048163538634	
15.965	0.223	0.044205885362662706	
15.97	-0.167	0.07539563473958706	
15.975	0.224	0.09974117940654552	
15.98	0.366	0.11705216779057459	
15.985	-0.165	0.12648113940313638	
15.99	-0.064	0.12082035912479407	
15.995	0.368	0.10462558711043266	
16.0	-0.080	0.08620590234794556	
16.005	-0.181	0.06896134856162965	
16.01	0.316	0.05655218750599747	
16.015	0.136	0.05213162200062896	
16.02	-0.210	0.052367755333106406	
16.025	0.154	0.05484338777659762	
16.03	0.319	0.05901667277826531	
16.035	-0.171	0.06442550478578085	
16.04	-0.075	0.06591288125965625	
16.045	0.357	0.0616211695448676	
16.05	-0.144	0.0521127084975247	
16.055	-0.258	0.03501847004824423	
16.06	0.186	0.013587186039380856	
16.065	-0.029	-0.01096583112916866	
16.07	-0.297	-0.034607266337888534	
16.075	0.035	-0.04806626472502716	
16.08	0.221	-0.05204936803379212	
16.085	-0.214	-0.047611185756134364	
16.09	-0.097	-0.034987281284109266	
16.095	0.363	-0.019383896174386912	
16.1	-0.046	3.072686772083105e-05	
16.105	-0.130	0.023082722359682412	
16.11	0.369	0.047646327906283197	
16.115	0.120	0.0689369063292631	
16.12	-0.181	0.08137047405478556	
16.125	0.214	0.09002233437757619	
16.13	0.362	0.09890886377362837	
16.135	-0.171	0.10631235324535222	
16.14	-0.046	0.1040731677548982	
16.145	0.406	0.09563247756530746	
16.15	-0.040	0.08896502471396692	
16.155	-0.135	0.08411178156448615	
16.16	0.386	0.08468447288486224	
16.165	0.188	0.09190110226843781	
16.17	-0.190	0.09938611962198554	
16.175	0.209	0.10504181742525086	
16.18	0.342	0.10786346350059615	
16.185	-0.164	0.10833353721462824	
16.19	-0.081	0.10111257811631869	
16.195	0.279	0.08156688875264112	
16.2	-0.161	0.0529505614704501	
16.205	-0.228	0.023185599044768544	
16.21	0.230	0.0006545660863213267	
16.215	0.010	-0.014152583642147417	
16.22	-0.306	-0.026547027671436414	
16.225	-0.032	-0.037941693583882136	
16.23	0.131	-0.05521519387129073	
16.235	-0.255	-0.06863455296690757	
16.24	-0.145	-0.07079877760066822	
16.245	0.238	-0.06847779949902866	
16.25	-0.124	-0.0641032326646231	
16.255	-0.165	-0.05073435028685713	
16.26	0.431	-0.022310908049172202	
16.265	0.299	0.026763475174751625	
16.27	-0.011	0.08747170037921805	
16.275	0.655	0.16315716028279148	
16.28	0.826	0.26175238495307895	
16.285	0.131	0.3592966710990626	
16.29	0.178	0.4161900224549899	
16.295	0.484	0.41647337876739865	
16.3	-0.092	0.3698809625287698	
16.305	-0.242	0.28828365849048576	
16.31	0.084	0.18660609454956967	
16.315	-0.110	0.07775119028917865	
16.32	-0.356	-0.01740950459990482	
16.325	-0.095	-0.08488669958356056	
16.33	0.024	-0.1333549045486344	
16.335	-0.281	-0.16157491371875793	
16.34	-0.158	-0.1626725771150847	
16.345	0.185	-0.14759907929932023	
16.35	-0.202	-0.13114985183925978	
16.355	-0.269	-0.11360106777670423	
16.36	0.194	-0.09637234689451826	
16.365	0.020	-0.07835693572580632	
16.37	-0.268	-0.061418218852046916	
16.375	0.021	-0.04581026246809789	
16.38	0.154	-0.04041729577251714	
16.385	-0.231	-0.03967193303874994	
16.39	-0.078	-0.03358935989796294	
16.395	0.372	-0.021547865537218554	
16.4	-0.098	-0.0032659446371013597	
16.405	-0.181	0.01341145111267619	
16.41	0.374	0.028740634954016474	
16.415	0.165	0.04956582585812779	
16.42	-0.162	0.07051822827517812	
16.425	0.281	0.09230927182199436	
16.43	0.402	0.11558585218161509	
16.435	-0.158	0.13422050259220542	
16.44	-0.038	0.13744297347658907	
16.445	0.394	0.12448211057829071	
16.45	-0.042	0.10967758269119188	
16.455	-0.130	0.09744373890557935	
16.46	0.383	0.09177393238589793	
16.465	0.119	0.09050625908337107	
16.47	-0.199	0.08853393829541963	
16.475	0.159	0.08435256015581066	
16.48	0.290	0.07852532124623998	
16.485	-0.194	0.0722272840387316	
16.49	-0.061	0.06452854061296032	
16.495	0.333	0.053436149046968015	
16.5	-0.113	0.042623922702441266	
16.505	-0.207	0.03152099718647142	
16.51	0.247	0.021768793539278575	
16.515	0.052	0.012423804572555286	
16.52	-0.251	0.006597393067572774	
16.525	0.085	0.003408806477140274	
16.53	0.218	0.0004272826129784709	
16.535	-0.219	-0.0007708172172693792	
16.54	-0.057	0.001637967379373175	
16.545	0.388	0.009382041651389743	
16.55	-0.090	0.02155212554153948	
16.555	-0.168	0.033618462049217715	
16.56	0.270	0.038773096087744076	
16.565	0.018	0.037306104679110844	
16.57	-0.246	0.027650347723493625	
16.575	0.091	0.01948973009848157	
16.58	0.218	0.010327288590297039	
16.585	-0.213	0.0052109875519722555	
16.59	-0.011	0.007752935155449178	
16.595	0.441	0.021341827782323918	
16.6	-0.040	0.043469812916454235	
16.605	-0.113	0.0657060558756107	
16.61	0.432	0.08580482529568051	
16.615	0.186	0.10721767448930038	
16.62	-0.173	0.12268071731864447	
16.625	0.221	0.1295383000028466	
16.63	0.348	0.1292486811325294	
16.635	-0.155	0.1272155192769261	
16.64	-0.016	0.11981379808248019	
16.645	0.347	0.10525496963447914	
16.65	-0.152	0.08444177541174376	
16.655	-0.223	0.05781479533434501	
16.66	0.180	0.02875710284680462	
16.665	-0.078	-0.004873078121999411	
16.67	-0.297	-0.03620357448554593	
16.675	0.056	-0.055407348582311784	
16.68	0.156	-0.06386744793214039	
16.685	-0.268	-0.06475765933418944	
16.69	-0.132	-0.06107975087538986	
16.695	0.229	-0.0578158219708595	
16.7	-0.187	-0.057615023685834744	
16.705	-0.245	-0.05708574689806519	
16.71	0.217	-0.05422950524781854	
16.715	0.038	-0.04896317761249787	
16.72	-0.162	-0.034164608116654296	
16.725	0.444	0.004676038870586903	
16.73	0.706	0.08109181755138462	
16.735	0.162	0.18321868182744755	
16.74	0.408	0.2829599466816778	
16.745	0.701	0.3591397474893191	
16.75	-0.011	0.39632724273186326	
16.755	-0.150	0.37291203273999507	
16.76	0.241	0.3027216500034753	
16.765	-0.054	0.20903553115994755	
16.77	-0.323	0.11290231816585683	
16.775	-0.064	0.027596687434635683	
16.78	-0.014	-0.04898550069337487	
16.785	-0.347	-0.11165986558708896	
16.79	-0.193	-0.14699730404976896	
16.795	0.108	-0.16293798991097308	
16.8	-0.237	-0.16858842309624802	
16.805	-0.269	-0.16096860820239056	
16.81	0.104	-0.14632570856510402	
16.815	-0.077	-0.134016624191105	
16.82	-0.292	-0.12205527333967679	
16.825	0.039	-0.10437231700735625	
16.83	0.143	-0.08803095518741405	
16.835	-0.243	-0.07271744954980075	
16.84	-0.084	-0.054962605136875745	
16.845	0.322	-0.03790229505920971	
16.85	-0.106	-0.019671842774305177	
16.855	-0.156	1.4649593952277648e-05	
16.86	0.365	0.01977566334767884	
16.865	0.181	0.04394663758006866	
16.87	-0.138	0.0728642765887157	
16.875	0.249	0.09871411586566566	
16.88	0.336	0.11697938091447697	
16.885	-0.141	0.12717210497634746	
16.89	0.044	0.1300932328691518	
16.895	0.455	0.12816230513667323	
16.9	-0.045	0.12822449293373026	
16.905	-0.103	0.12502319462850092	
16.91	0.398	0.11986582292099802	
16.915	0.076	0.11486550401316972	
16.92	-0.199	0.10382184601786679	
16.925	0.227	0.09381837617833416	
16.93	0.357	0.09097372187457485	
16.935	-0.148	0.0961133724896821	
16.94	0.042	0.10314819732039122	
16.945	0.455	0.1071727820633067	
16.95	-0.066	0.11317154815938167	
16.955	-0.139	0.11105146136097235	
16.96	0.313	0.10187443453939085	
16.965	0.039	0.08582067830438121	
16.97	-0.216	0.0678599003615206	
16.975	0.152	0.05384329196434355	
16.98	0.282	0.044906844292804074	
16.985	-0.126	0.04713638158461277	
16.99	-0.019	0.05621933311981362	
16.995	0.299	0.06009856552295287	
17.0	-0.136	0.052119181359827016	
17.005	-0.159	0.04215860627364189	
17.01	0.336	0.035896416862209415	
17.015	0.117	0.03872030737268678	
17.02	-0.184	0.048902835910244004	
17.025	0.192	0.05992598595497559	
17.03	0.287	0.06779933352611744	
17.035	-0.136	0.07608966068618045	
17.04	0.108	0.08835581779404725	
17.045	0.510	0.10708656946017862	
17.05	-0.029	0.13001022663338044	
17.055	-0.068	0.14323547994014596	
17.06	0.508	0.15193174953128796	
17.065	0.235	0.16661325995591963	
17.07	-0.124	0.17994207254767491	
17.075	0.256	0.18197967211286187	
17.08	0.311	0.17369685043628053	
17.085	-0.153	0.15811323919064194	
17.09	0.052	0.140436868546432	
17.095	0.437	0.12598039849025733	
17.1	-0.103	0.11600962626584632	
17.105	-0.173	0.10036670513990648	
17.11	0.256	0.0788280521940005	
17.115	-0.026	0.05052446054765223	
17.12	-0.266	0.023112917991733626	
17.125	0.067	-1.5812810851133067e-05	
17.13	0.113	-0.02045639263868849	
17.135	-0.246	-0.0377791084527449	
17.14	-0.063	-0.04245962474220742	
17.145	0.281	-0.03917498248908998	
17.15	-0.162	-0.03300233687878361	
17.155	-0.194	-0.025475519143758153	
17.16	0.259	-0.01823207531602679	
17.165	0.044	-0.01158274663864026	
17.17	-0.174	0.00022754426151124147	
17.175	0.365	0.027039523659508444	
17.18	0.623	0.08044381087882649	
17.185	0.183	0.16226074194939516	
17.19	0.586	0.26162421770773714	
17.195	0.924	0.36972991498627295	
17.2	0.258	0.4609528978063521	
17.205	-0.008	0.49556733077502224	
17.21	0.363	0.4616538855839267	
