Vernier Format 2
reposo.txt 10/20/2025 8:2:7
Run 1
Time	Potential	EKG	
T	P	E	
s	mV	mV	

0.000	0.600	0.028	
0.005	0.568	0.118	
0.010	0.796	0.257	
0.015	1.010	0.424	
0.020	0.675	0.589	
0.025	0.389	0.689	
0.030	0.431	0.697	
0.035	0.195	0.639	
0.040	-0.081	0.527	
0.045	-0.032	0.375	
0.050	-0.042	0.222	
0.055	-0.243	0.089	
0.060	-0.220	-0.027	
0.065	-0.127	-0.117	
0.070	-0.240	-0.172	
0.075	-0.268	-0.208	
0.080	-0.106	-0.228	
0.085	-0.155	-0.225	
0.090	-0.257	-0.213	
0.095	-0.129	-0.204	
0.100	-0.077	-0.190	
0.105	-0.225	-0.171	
0.110	-0.171	-0.162	
0.115	-0.017	-0.155	
0.120	-0.129	-0.138	
0.125	-0.171	-0.125	
0.130	0.007	-0.117	
0.135	-0.031	-0.100	
0.140	-0.144	-0.082	
0.145	0.000	-0.073	
0.150	0.105	-0.057	
0.155	-0.110	-0.034	
0.160	-0.083	-0.025	
0.165	0.099	-0.025	
0.170	-0.045	-0.017	
0.175	-0.072	-0.012	
0.180	0.194	-0.008	
0.185	0.142	0.017	
0.190	-0.048	0.046	
0.195	0.130	0.060	
0.200	0.195	0.074	
0.205	-0.063	0.089	
0.210	0.032	0.084	
0.215	0.272	0.079	
0.220	0.042	0.090	
0.225	-0.031	0.094	
0.230	0.224	0.088	
0.235	0.136	0.095	
0.240	-0.064	0.100	
0.245	0.070	0.088	
0.250	0.064	0.072	
0.255	-0.139	0.054	
0.260	-0.103	0.020	
0.265	0.049	-0.014	
0.270	-0.129	-0.034	
0.275	-0.181	-0.056	
0.280	-0.040	-0.081	
0.285	-0.112	-0.095	
0.290	-0.226	-0.107	
0.295	-0.119	-0.125	
0.300	-0.058	-0.135	
0.305	-0.184	-0.134	
0.310	-0.129	-0.135	
0.315	-0.006	-0.131	
0.320	-0.133	-0.117	
0.325	-0.182	-0.110	
0.330	-0.017	-0.110	
0.335	-0.038	-0.101	
0.340	-0.148	-0.090	
0.345	-0.022	-0.084	
0.350	0.038	-0.073	
0.355	-0.145	-0.058	
0.360	-0.103	-0.056	
0.365	0.085	-0.057	
0.370	-0.078	-0.048	
0.375	-0.092	-0.042	
0.380	0.131	-0.037	
0.385	0.030	-0.019	
0.390	-0.115	-0.003	
0.395	0.046	-0.001	
0.400	0.125	0.004	
0.405	-0.104	0.015	
0.410	-0.051	0.011	
0.415	0.140	0.004	
0.420	-0.049	0.009	
0.425	-0.095	0.007	
0.430	0.131	-0.001	
0.435	0.067	0.007	
0.440	-0.092	0.017	
0.445	0.059	0.016	
0.450	0.137	0.021	
0.455	-0.097	0.030	
0.460	-0.038	0.024	
0.465	0.145	0.016	
0.470	-0.037	0.019	
0.475	-0.090	0.016	
0.480	0.156	0.009	
0.485	0.072	0.017	
0.490	-0.097	0.027	
0.495	0.072	0.025	
0.500	0.168	0.029	
0.505	-0.066	0.042	
0.510	-0.034	0.040	
0.515	0.119	0.031	
0.520	-0.061	0.028	
0.525	-0.103	0.016	
0.530	0.097	-0.001	
0.535	0.023	-0.003	
0.540	-0.127	-0.003	
0.545	0.017	-0.013	
0.550	0.078	-0.016	
0.555	-0.084	-0.010	
0.560	-0.014	-0.010	
0.565	0.212	-0.004	
0.570	0.021	0.020	
0.575	-0.026	0.038	
0.580	0.230	0.050	
0.585	0.151	0.073	
0.590	-0.013	0.095	
0.595	0.194	0.103	
0.600	0.255	0.117	
0.605	-0.043	0.133	
0.610	0.009	0.124	
0.615	0.255	0.108	
0.620	0.061	0.106	
0.625	-0.031	0.102	
0.630	0.133	0.087	
0.635	0.009	0.075	
0.640	-0.133	0.056	
0.645	0.000	0.024	
0.650	0.073	0.002	
0.655	-0.122	-0.009	
0.660	-0.100	-0.025	
0.665	0.056	-0.040	
0.670	-0.095	-0.044	
0.675	-0.133	-0.050	
0.680	0.036	-0.059	
0.685	-0.025	-0.056	
0.690	-0.161	-0.053	
0.695	-0.042	-0.059	
0.700	0.013	-0.062	
0.705	-0.171	-0.060	
0.710	-0.086	-0.068	
0.715	0.208	-0.065	
0.720	0.186	-0.028	
0.725	0.339	0.038	
0.730	0.803	0.140	
0.735	0.811	0.292	
0.740	0.534	0.449	
0.745	0.585	0.557	
0.750	0.452	0.607	
0.755	-0.019	0.587	
0.760	-0.032	0.487	
0.765	0.099	0.348	
0.770	-0.106	0.219	
0.775	-0.173	0.101	
0.780	-0.035	0.003	
0.785	-0.101	-0.062	
0.790	-0.242	-0.105	
0.795	-0.122	-0.139	
0.800	-0.063	-0.156	
0.805	-0.211	-0.156	
0.810	-0.162	-0.158	
0.815	-0.031	-0.155	
0.820	-0.147	-0.143	
0.825	-0.184	-0.133	
0.830	-0.017	-0.129	
0.835	-0.058	-0.116	
0.840	-0.176	-0.102	
0.845	-0.042	-0.097	
0.850	0.049	-0.087	
0.855	-0.126	-0.069	
0.860	-0.081	-0.060	
0.865	0.108	-0.053	
0.870	-0.045	-0.036	
0.875	-0.081	-0.024	
0.880	0.142	-0.016	
0.885	0.087	0.004	
0.890	-0.083	0.024	
0.895	0.104	0.030	
0.900	0.169	0.041	
0.905	-0.052	0.057	
0.910	0.029	0.059	
0.915	0.240	0.060	
0.920	0.035	0.075	
0.925	-0.014	0.082	
0.930	0.249	0.082	
0.935	0.148	0.096	
0.940	-0.048	0.108	
0.945	0.136	0.103	
0.950	0.215	0.102	
0.955	-0.043	0.106	
0.960	0.009	0.095	
0.965	0.195	0.080	
0.970	-0.029	0.075	
0.975	-0.109	0.060	
0.980	0.052	0.032	
0.985	-0.029	0.011	
0.990	-0.179	-0.010	
0.995	-0.075	-0.040	
1.000	-0.035	-0.064	
1.005	-0.202	-0.080	
1.010	-0.168	-0.101	
1.015	-0.025	-0.119	
1.020	-0.150	-0.123	
1.025	-0.184	-0.125	
1.030	-0.046	-0.130	
1.035	-0.097	-0.125	
1.040	-0.193	-0.119	
1.045	-0.069	-0.120	
1.050	0.012	-0.113	
1.055	-0.153	-0.098	
1.060	-0.107	-0.091	
1.065	0.044	-0.086	
1.070	-0.107	-0.073	
1.075	-0.159	-0.069	
1.080	0.024	-0.072	
1.085	-0.029	-0.067	
1.090	-0.155	-0.061	
1.095	-0.011	-0.063	
1.100	0.099	-0.056	
1.105	-0.104	-0.038	
1.110	-0.038	-0.029	
1.115	0.131	-0.022	
1.120	-0.075	-0.007	
1.125	-0.130	-0.006	
1.130	0.101	-0.015	
1.135	0.053	-0.011	
1.140	-0.093	-0.001	
1.145	0.070	0.000	
1.150	0.166	0.011	
1.155	-0.060	0.030	
1.160	-0.014	0.035	
1.165	0.152	0.034	
1.170	-0.049	0.039	
1.175	-0.100	0.032	
1.180	0.116	0.016	
1.185	0.046	0.014	
1.190	-0.104	0.015	
1.195	0.039	0.007	
1.200	0.116	0.006	
1.205	-0.104	0.012	
1.210	-0.063	0.006	
1.215	0.122	-0.004	
1.220	-0.054	-0.002	
1.225	-0.095	-0.004	
1.230	0.133	-0.010	
1.235	0.065	0.000	
1.240	-0.090	0.013	
1.245	0.065	0.015	
1.250	0.152	0.022	
1.255	-0.063	0.035	
1.260	0.027	0.038	
1.265	0.243	0.043	
1.270	0.032	0.063	
1.275	-0.058	0.072	
1.280	0.166	0.067	
1.285	0.110	0.070	
1.290	-0.054	0.074	
1.295	0.159	0.070	
1.300	0.236	0.078	
1.305	-0.013	0.096	
1.310	0.050	0.099	
1.315	0.255	0.098	
1.320	-0.008	0.105	
1.325	-0.095	0.096	
1.330	0.085	0.068	
1.335	0.000	0.046	
1.340	-0.150	0.023	
1.345	-0.038	-0.008	
1.350	0.055	-0.030	
1.355	-0.130	-0.038	
1.360	-0.093	-0.048	
1.365	0.015	-0.059	
1.370	-0.112	-0.061	
1.375	-0.142	-0.067	
1.380	0.030	-0.075	
1.385	-0.032	-0.070	
1.390	-0.162	-0.064	
1.395	-0.054	-0.068	
1.400	0.033	-0.068	
1.405	-0.097	-0.060	
1.410	0.061	-0.049	
1.415	0.461	-0.012	
1.420	0.475	0.075	
1.425	0.573	0.196	
1.430	0.884	0.335	
1.435	0.745	0.484	
1.440	0.328	0.592	
1.445	0.301	0.615	
1.450	0.226	0.566	
1.455	-0.101	0.467	
1.460	-0.092	0.330	
1.465	0.036	0.189	
1.470	-0.139	0.078	
1.475	-0.210	-0.012	
1.480	-0.072	-0.083	
1.485	-0.136	-0.125	
1.490	-0.260	-0.151	
1.495	-0.135	-0.172	
1.500	-0.083	-0.179	
1.505	-0.208	-0.173	
1.510	-0.153	-0.168	
1.515	-0.002	-0.158	
1.520	-0.126	-0.137	
1.525	-0.173	-0.121	
1.530	0.010	-0.112	
1.535	-0.040	-0.096	
1.540	-0.173	-0.082	
1.545	-0.043	-0.079	
1.550	0.044	-0.073	
1.555	-0.127	-0.061	
1.560	-0.049	-0.055	
1.565	0.154	-0.046	
1.570	-0.020	-0.021	
1.575	-0.074	-0.004	
1.580	0.162	0.005	
1.585	0.111	0.025	
1.590	-0.077	0.045	
1.595	0.104	0.049	
1.600	0.224	0.058	
1.605	-0.006	0.077	
1.610	0.049	0.084	
1.615	0.230	0.087	
1.620	0.038	0.098	
1.625	-0.022	0.098	
1.630	0.238	0.091	
1.635	0.172	0.099	
1.640	-0.051	0.110	
1.645	0.113	0.103	
1.650	0.209	0.099	
1.655	-0.048	0.100	
1.660	-0.017	0.087	
1.665	0.136	0.067	
1.670	-0.068	0.054	
1.675	-0.136	0.031	
1.680	-0.003	-0.002	
1.685	-0.055	-0.027	
1.690	-0.190	-0.048	
1.695	-0.097	-0.074	
1.700	-0.046	-0.093	
1.705	-0.202	-0.103	
1.710	-0.152	-0.117	
1.715	-0.003	-0.126	
1.720	-0.133	-0.120	
1.725	-0.181	-0.116	
1.730	0.001	-0.115	
1.735	-0.071	-0.105	
1.740	-0.207	-0.097	
1.745	-0.066	-0.100	
1.750	0.023	-0.098	
1.755	-0.150	-0.087	
1.760	-0.097	-0.082	
1.765	0.094	-0.076	
1.770	-0.081	-0.059	
1.775	-0.141	-0.049	
1.780	0.067	-0.049	
1.785	0.009	-0.040	
1.790	-0.130	-0.030	
1.795	-0.005	-0.031	
1.800	0.082	-0.029	
1.805	-0.110	-0.020	
1.810	-0.051	-0.021	
1.815	0.152	-0.020	
1.820	-0.028	-0.006	
1.825	-0.080	0.003	
1.830	0.137	0.005	
1.835	0.056	0.016	
1.840	-0.106	0.026	
1.845	0.061	0.021	
1.850	0.134	0.022	
1.855	-0.090	0.029	
1.860	-0.045	0.023	
1.865	0.160	0.015	
1.870	-0.025	0.020	
1.875	-0.083	0.020	
1.880	0.142	0.014	
1.885	0.061	0.021	
1.890	-0.110	0.027	
1.895	0.047	0.020	
1.900	0.125	0.018	
1.905	-0.109	0.022	
1.910	-0.054	0.014	
1.915	0.174	0.005	
1.920	-0.051	0.011	
1.925	-0.118	0.010	
1.930	0.079	-0.002	
1.935	0.073	-0.002	
1.940	-0.095	0.004	
1.945	0.038	0.003	
1.950	0.130	0.007	
1.955	-0.068	0.018	
1.960	-0.038	0.018	
1.965	0.188	0.017	
1.970	0.001	0.029	
1.975	-0.072	0.035	
1.980	0.160	0.032	
1.985	0.113	0.041	
1.990	-0.052	0.054	
1.995	0.154	0.057	
2.000	0.275	0.073	
2.005	0.020	0.101	
2.010	0.072	0.113	
2.015	0.258	0.118	
2.020	0.042	0.128	
2.025	-0.034	0.123	
2.030	0.166	0.105	
2.035	0.046	0.092	
2.040	-0.129	0.075	
2.045	-0.045	0.041	
2.050	-0.003	0.006	
2.055	-0.167	-0.022	
2.060	-0.110	-0.052	
2.065	0.055	-0.073	
2.070	-0.092	-0.074	
2.075	-0.147	-0.074	
2.080	0.042	-0.076	
2.085	-0.005	-0.066	
2.090	-0.141	-0.054	
2.095	-0.031	-0.053	
2.100	0.023	-0.051	
2.105	-0.174	-0.048	
2.110	-0.086	-0.056	
2.115	0.272	-0.054	
2.120	0.256	-0.010	
2.125	0.394	0.068	
2.130	0.851	0.181	
2.135	0.877	0.341	
2.140	0.608	0.504	
2.145	0.664	0.619	
2.150	0.537	0.675	
2.155	0.084	0.662	
2.160	0.015	0.567	
2.165	0.120	0.426	
2.170	-0.098	0.286	
2.175	-0.185	0.152	
2.180	-0.071	0.033	
2.185	-0.138	-0.053	
2.190	-0.271	-0.114	
2.195	-0.167	-0.162	
2.200	-0.126	-0.189	
2.205	-0.262	-0.199	
2.210	-0.210	-0.207	
2.215	-0.069	-0.207	
2.220	-0.199	-0.194	
2.225	-0.228	-0.184	
2.230	-0.068	-0.178	
2.235	-0.077	-0.163	
2.240	-0.185	-0.144	
2.245	-0.071	-0.132	
2.250	0.017	-0.116	
2.255	-0.141	-0.095	
2.260	-0.101	-0.084	
2.265	0.073	-0.076	
2.270	-0.064	-0.058	
2.275	-0.109	-0.047	
2.280	0.081	-0.042	
2.285	0.023	-0.028	
2.290	-0.110	-0.015	
2.295	0.070	-0.012	
2.300	0.215	0.003	
2.305	-0.038	0.031	
2.310	0.009	0.046	
2.315	0.250	0.055	
2.320	0.053	0.076	
2.325	-0.029	0.087	
2.330	0.236	0.087	
2.335	0.174	0.100	
2.340	-0.038	0.112	
2.345	0.127	0.108	
2.350	0.250	0.108	
2.355	-0.049	0.114	
2.360	-0.022	0.102	
2.365	0.162	0.081	
2.370	-0.017	0.068	
2.375	-0.106	0.051	
2.380	0.056	0.025	
2.385	-0.005	0.007	
2.390	-0.165	-0.008	
2.395	-0.083	-0.033	
2.400	-0.034	-0.056	
2.405	-0.197	-0.073	
2.410	-0.161	-0.095	
2.415	-0.029	-0.114	
2.420	-0.153	-0.119	
2.425	-0.190	-0.124	
2.430	-0.042	-0.130	
2.435	-0.078	-0.125	
2.440	-0.188	-0.117	
2.445	-0.063	-0.116	
2.450	0.007	-0.108	
2.455	-0.165	-0.094	
2.460	-0.124	-0.090	
2.465	0.082	-0.087	
2.470	-0.069	-0.071	
2.475	-0.119	-0.058	
2.480	0.087	-0.051	
2.485	0.035	-0.034	
2.490	-0.115	-0.018	
2.495	0.030	-0.014	
2.500	0.133	-0.006	
2.505	-0.100	0.008	
2.510	-0.075	0.007	
2.515	0.136	-0.000	
2.520	-0.031	0.004	
2.525	-0.090	0.005	
2.530	0.073	-0.002	
2.535	0.030	-0.001	
2.540	-0.122	-0.000	
2.545	0.013	-0.009	
2.550	0.104	-0.011	
2.555	-0.086	-0.004	
2.560	-0.055	-0.005	
2.565	0.171	-0.006	
2.570	0.000	0.008	
2.575	-0.075	0.017	
2.580	0.154	0.019	
2.585	0.114	0.033	
2.590	-0.077	0.047	
2.595	0.072	0.047	
2.600	0.157	0.049	
2.605	-0.087	0.054	
2.610	-0.052	0.044	
2.615	0.154	0.029	
2.620	-0.063	0.025	
2.625	-0.119	0.014	
2.630	0.099	-0.003	
2.635	0.059	-0.005	
2.640	-0.110	0.000	
2.645	0.020	-0.004	
2.650	0.120	-0.003	
2.655	-0.090	0.006	
2.660	-0.063	0.004	
2.665	0.131	-0.002	
2.670	-0.022	0.004	
2.675	-0.074	0.006	
2.680	0.124	0.004	
2.685	0.061	0.014	
2.690	-0.103	0.022	
2.695	0.073	0.019	
2.700	0.211	0.026	
2.705	-0.025	0.046	
2.710	0.010	0.055	
2.715	0.206	0.059	
2.720	0.036	0.071	
2.725	-0.034	0.075	
2.730	0.238	0.073	
2.735	0.175	0.087	
2.740	-0.042	0.103	
2.745	0.125	0.102	
2.750	0.233	0.103	
2.755	-0.043	0.110	
2.760	-0.016	0.099	
2.765	0.224	0.082	
2.770	-0.005	0.079	
2.775	-0.119	0.067	
2.780	0.032	0.039	
2.785	-0.014	0.015	
2.790	-0.153	-0.007	
2.795	-0.031	-0.032	
2.800	0.061	-0.046	
2.805	-0.133	-0.046	
2.810	-0.115	-0.053	
2.815	0.041	-0.061	
2.820	-0.098	-0.060	
2.825	-0.147	-0.062	
2.830	0.036	-0.068	
2.835	-0.020	-0.063	
2.840	-0.177	-0.057	
2.845	-0.068	-0.064	
2.850	0.125	-0.064	
2.855	0.036	-0.043	
2.860	0.281	-0.002	
2.865	0.759	0.081	
2.870	0.736	0.224	
2.875	0.664	0.386	
2.880	0.857	0.530	
2.885	0.681	0.644	
2.890	0.214	0.693	
2.895	0.212	0.650	
2.900	0.165	0.546	
2.905	-0.124	0.414	
2.910	-0.133	0.262	
2.915	-0.032	0.120	
2.920	-0.181	0.010	
2.925	-0.266	-0.076	
2.930	-0.126	-0.143	
2.935	-0.168	-0.181	
2.940	-0.278	-0.201	
2.945	-0.161	-0.214	
2.950	-0.083	-0.213	
2.955	-0.229	-0.198	
2.960	-0.220	-0.190	
2.965	-0.080	-0.185	
2.970	-0.165	-0.174	
2.975	-0.194	-0.164	
2.980	-0.025	-0.156	
2.985	-0.048	-0.136	
2.990	-0.177	-0.115	
2.995	-0.057	-0.105	
3.000	0.056	-0.091	
3.005	-0.103	-0.070	
3.010	-0.054	-0.056	
3.015	0.137	-0.042	
3.020	-0.045	-0.019	
3.025	-0.107	-0.007	
3.030	0.130	-0.006	
3.035	0.143	0.009	
3.040	-0.081	0.031	
3.045	0.065	0.038	
3.050	0.229	0.047	
3.055	-0.016	0.066	
3.060	0.023	0.074	
3.065	0.246	0.076	
3.070	0.058	0.090	
3.075	-0.026	0.096	
3.080	0.227	0.091	
3.085	0.163	0.100	
3.090	-0.048	0.109	
3.095	0.122	0.102	
3.100	0.214	0.099	
3.105	-0.054	0.102	
3.110	-0.058	0.087	
3.115	0.067	0.058	
3.120	-0.097	0.033	
3.125	-0.152	0.001	
3.130	0.021	-0.032	
3.135	-0.037	-0.049	
3.140	-0.187	-0.059	
3.145	-0.080	-0.076	
3.150	-0.035	-0.088	
3.155	-0.196	-0.094	
3.160	-0.164	-0.106	
3.165	-0.014	-0.118	
3.170	-0.124	-0.116	
3.175	-0.196	-0.115	
3.180	-0.019	-0.118	
3.185	-0.032	-0.110	
3.190	-0.171	-0.097	
3.195	-0.045	-0.093	
3.200	0.055	-0.083	
3.205	-0.126	-0.065	
3.210	-0.095	-0.058	
3.215	0.085	-0.055	
3.220	-0.069	-0.042	
3.225	-0.138	-0.037	
3.230	0.049	-0.042	
3.235	0.039	-0.036	
3.240	-0.124	-0.027	
3.245	0.001	-0.027	
3.250	0.120	-0.022	
3.255	-0.084	-0.008	
3.260	-0.054	-0.005	
3.265	0.143	-0.004	
3.270	-0.038	0.006	
3.275	-0.100	0.008	
3.280	0.143	0.003	
3.285	0.107	0.014	
3.290	-0.118	0.028	
3.295	-0.009	0.023	
3.300	0.110	0.015	
3.305	-0.081	0.014	
3.310	-0.054	0.006	
3.315	0.149	-0.000	
3.320	-0.035	0.006	
3.325	-0.112	0.006	
3.330	0.084	-0.003	
3.335	0.075	-0.001	
3.340	-0.077	0.008	
3.345	0.047	0.009	
3.350	0.136	0.015	
3.355	-0.081	0.026	
3.360	-0.051	0.023	
3.365	0.149	0.016	
3.370	-0.023	0.020	
3.375	-0.087	0.019	
3.380	0.113	0.011	
3.385	0.065	0.014	
3.390	-0.132	0.019	
3.395	-0.016	0.007	
3.400	0.108	-0.002	
3.405	-0.103	-0.002	
3.410	-0.069	-0.009	
3.415	0.146	-0.015	
3.420	-0.005	-0.005	
3.425	-0.087	0.003	
3.430	0.108	0.003	
3.435	0.073	0.012	
3.440	-0.098	0.021	
3.445	0.050	0.019	
3.450	0.180	0.022	
3.455	-0.061	0.036	
3.460	-0.020	0.038	
3.465	0.185	0.036	
3.470	0.026	0.045	
3.475	-0.054	0.050	
3.480	0.189	0.048	
3.485	0.166	0.061	
3.490	-0.029	0.079	
3.495	0.146	0.085	
3.500	0.263	0.096	
3.505	-0.011	0.115	
3.510	0.003	0.114	
3.515	0.238	0.103	
3.520	0.046	0.103	
3.525	-0.074	0.096	
3.530	0.087	0.074	
3.535	0.012	0.055	
3.540	-0.156	0.033	
3.545	-0.046	0.000	
3.550	0.046	-0.025	
3.555	-0.133	-0.037	
3.560	-0.100	-0.051	
3.565	0.033	-0.062	
3.570	-0.100	-0.062	
3.575	-0.161	-0.066	
3.580	0.018	-0.074	
3.585	-0.011	-0.071	
3.590	-0.165	-0.064	
3.595	-0.081	-0.068	
3.600	0.012	-0.072	
3.605	-0.126	-0.069	
3.610	0.000	-0.066	
3.615	0.426	-0.039	
3.620	0.507	0.045	
3.625	0.586	0.171	
3.630	0.977	0.324	
3.635	0.938	0.500	
3.640	0.557	0.652	
3.645	0.512	0.724	
3.650	0.421	0.719	
3.655	0.015	0.646	
3.660	-0.058	0.510	
3.665	0.046	0.346	
3.670	-0.145	0.196	
3.675	-0.239	0.064	
3.680	-0.121	-0.047	
3.685	-0.136	-0.121	
3.690	-0.300	-0.168	
3.695	-0.217	-0.203	
3.700	-0.118	-0.223	
3.705	-0.232	-0.223	
3.710	-0.187	-0.217	
3.715	-0.037	-0.204	
3.720	-0.144	-0.179	
3.725	-0.179	-0.156	
3.730	-0.046	-0.142	
3.735	-0.074	-0.124	
3.740	-0.207	-0.111	
3.745	-0.081	-0.111	
3.750	0.024	-0.106	
3.755	-0.147	-0.092	
3.760	-0.132	-0.087	
3.765	0.029	-0.086	
3.770	-0.078	-0.077	
3.775	-0.110	-0.069	
3.780	0.140	-0.060	
3.785	0.107	-0.031	
3.790	-0.084	0.001	
3.795	0.052	0.016	
3.800	0.211	0.031	
3.805	-0.026	0.053	
3.810	0.027	0.063	
3.815	0.310	0.072	
3.820	0.105	0.097	
3.825	-0.020	0.115	
3.830	0.223	0.116	
3.835	0.189	0.123	
3.840	-0.032	0.130	
3.845	0.114	0.121	
3.850	0.224	0.113	
3.855	-0.043	0.113	
3.860	-0.052	0.095	
3.865	0.142	0.069	
3.870	-0.045	0.052	
3.875	-0.130	0.031	
3.880	0.027	0.001	
3.885	-0.023	-0.018	
3.890	-0.171	-0.033	
3.895	-0.097	-0.055	
3.900	-0.013	-0.074	
3.905	-0.184	-0.083	
3.910	-0.181	-0.098	
3.915	-0.020	-0.114	
3.920	-0.138	-0.117	
3.925	-0.200	-0.120	
3.930	-0.046	-0.126	
3.935	-0.045	-0.121	
3.940	-0.187	-0.112	
3.945	-0.074	-0.109	
3.950	0.046	-0.101	
3.955	-0.135	-0.084	
3.960	-0.129	-0.076	
3.965	0.055	-0.074	
3.970	-0.080	-0.064	
3.975	-0.152	-0.059	
3.980	0.027	-0.062	
3.985	0.017	-0.056	
3.990	-0.139	-0.046	
3.995	-0.035	-0.047	
4.000	0.122	-0.042	
4.005	-0.101	-0.027	
4.010	-0.100	-0.023	
4.015	0.128	-0.025	
4.020	-0.005	-0.014	
4.025	-0.092	-0.005	
4.030	0.111	-0.003	
4.035	0.081	0.008	
4.040	-0.107	0.020	
4.045	0.012	0.016	
4.050	0.148	0.014	
4.055	-0.066	0.022	
4.060	-0.042	0.021	
4.065	0.191	0.018	
4.070	-0.006	0.029	
4.075	-0.087	0.033	
4.080	0.107	0.025	
4.085	0.084	0.027	
4.090	-0.121	0.030	
4.095	-0.005	0.018	
4.100	0.128	0.009	
4.105	-0.083	0.010	
4.110	-0.064	0.005	
4.115	0.156	-0.002	
4.120	-0.006	0.007	
4.125	-0.090	0.012	
4.130	0.096	0.008	
4.135	0.068	0.013	
4.140	-0.100	0.019	
4.145	0.000	0.012	
4.150	0.139	0.008	
4.155	-0.089	0.014	
4.160	-0.057	0.009	
4.165	0.178	0.004	
4.170	-0.014	0.014	
4.175	-0.113	0.018	
4.180	0.085	0.010	
4.185	0.076	0.010	
4.190	-0.104	0.014	
4.195	0.027	0.009	
4.200	0.180	0.011	
4.205	-0.040	0.026	
4.210	-0.035	0.031	
4.215	0.212	0.033	
4.220	0.062	0.048	
4.225	-0.019	0.062	
4.230	0.252	0.070	
4.235	0.215	0.093	
4.240	-0.031	0.117	
4.245	0.104	0.120	
4.250	0.263	0.119	
4.255	-0.003	0.125	
4.260	0.023	0.118	
4.265	0.266	0.107	
4.270	0.012	0.108	
4.275	-0.118	0.096	
4.280	0.050	0.065	
4.285	0.035	0.038	
4.290	-0.142	0.017	
4.295	-0.061	-0.011	
4.300	0.073	-0.032	
4.305	-0.138	-0.038	
4.310	-0.121	-0.049	
4.315	0.079	-0.060	
4.320	-0.058	-0.055	
4.325	-0.141	-0.050	
4.330	0.020	-0.054	
4.335	0.004	-0.050	
4.340	-0.168	-0.045	
4.345	-0.075	-0.053	
4.350	0.058	-0.060	
4.355	-0.034	-0.051	
4.360	0.163	-0.031	
4.365	0.672	0.030	
4.370	0.684	0.155	
4.375	0.657	0.312	
4.380	0.829	0.462	
4.385	0.652	0.588	
4.390	0.151	0.647	
4.395	0.127	0.606	
4.400	0.197	0.502	
4.405	-0.084	0.378	
4.410	-0.138	0.242	
4.415	-0.013	0.114	
4.420	-0.150	0.015	
4.425	-0.222	-0.061	
4.430	-0.078	-0.118	
4.435	-0.104	-0.147	
4.440	-0.254	-0.159	
4.445	-0.159	-0.171	
4.450	-0.060	-0.174	
4.455	-0.196	-0.166	
4.460	-0.185	-0.160	
4.465	-0.049	-0.157	
4.470	-0.126	-0.145	
4.475	-0.185	-0.134	
4.480	-0.016	-0.128	
4.485	-0.013	-0.112	
4.490	-0.173	-0.093	
4.495	-0.081	-0.087	
4.500	0.068	-0.080	
4.505	-0.097	-0.064	
4.510	-0.072	-0.053	
4.515	0.139	-0.043	
4.520	0.003	-0.020	
4.525	-0.089	-0.003	
4.530	0.116	0.004	
4.535	0.128	0.019	
4.540	-0.080	0.036	
4.545	0.072	0.040	
4.550	0.269	0.050	
4.555	-0.006	0.073	
4.560	0.003	0.083	
4.565	0.279	0.085	
4.570	0.107	0.102	
4.575	-0.016	0.113	
4.580	0.229	0.112	
4.585	0.206	0.120	
4.590	-0.022	0.131	
4.595	0.105	0.124	
4.600	0.201	0.116	
4.605	-0.075	0.111	
4.610	-0.072	0.087	
4.615	0.151	0.056	
4.620	-0.034	0.039	
4.625	-0.168	0.020	
4.630	-0.034	-0.012	
4.635	-0.040	-0.038	
4.640	-0.185	-0.058	
4.645	-0.110	-0.081	
4.650	-0.023	-0.097	
4.655	-0.174	-0.102	
4.660	-0.164	-0.111	
4.665	0.001	-0.118	
4.670	-0.101	-0.111	
4.675	-0.174	-0.105	
4.680	-0.016	-0.104	
4.685	-0.034	-0.095	
4.690	-0.176	-0.086	
4.695	-0.084	-0.087	
4.700	0.029	-0.086	
4.705	-0.141	-0.077	
4.710	-0.133	-0.077	
4.715	0.039	-0.079	
4.720	-0.058	-0.071	
4.725	-0.153	-0.064	
4.730	0.027	-0.065	
4.735	0.026	-0.057	
4.740	-0.113	-0.044	
4.745	0.000	-0.038	
4.750	0.134	-0.028	
4.755	-0.083	-0.009	
4.760	-0.080	-0.003	
4.765	0.133	-0.005	
4.770	0.012	0.004	
4.775	-0.074	0.012	
4.780	0.104	0.012	
4.785	0.076	0.019	
4.790	-0.101	0.027	
4.795	0.003	0.020	
4.800	0.154	0.015	
4.805	-0.093	0.020	
4.810	-0.097	0.013	
4.815	0.107	-0.001	
4.820	-0.034	-0.004	
4.825	-0.103	-0.008	
4.830	0.117	-0.014	
4.835	0.116	-0.003	
4.840	-0.092	0.015	
4.845	0.004	0.018	
4.850	0.172	0.020	
4.855	-0.060	0.031	
4.860	-0.064	0.030	
4.865	0.160	0.023	
4.870	0.015	0.027	
4.875	-0.104	0.029	
4.880	0.087	0.019	
4.885	0.099	0.019	
4.890	-0.110	0.023	
4.895	0.030	0.017	
4.900	0.217	0.018	
4.905	-0.040	0.035	
4.910	-0.029	0.042	
4.915	0.211	0.043	
4.920	0.059	0.056	
4.925	-0.034	0.066	
4.930	0.212	0.068	
4.935	0.215	0.084	
4.940	-0.034	0.105	
4.945	0.108	0.107	
4.950	0.284	0.110	
4.955	0.007	0.123	
4.960	-0.048	0.118	
4.965	0.128	0.096	
4.970	-0.022	0.076	
4.975	-0.136	0.049	
4.980	0.015	0.015	
4.985	0.033	-0.009	
4.990	-0.129	-0.021	
4.995	-0.032	-0.035	
5.000	0.082	-0.040	
5.005	-0.130	-0.035	
5.010	-0.119	-0.040	
5.015	0.079	-0.049	
5.020	-0.051	-0.044	
5.025	-0.144	-0.042	
5.030	0.004	-0.048	
5.035	0.000	-0.049	
5.040	-0.171	-0.048	
5.045	-0.042	-0.056	
5.050	0.211	-0.052	
5.055	0.101	-0.018	
5.060	0.241	0.032	
5.065	0.664	0.108	
5.070	0.635	0.227	
5.075	0.453	0.354	
5.080	0.585	0.449	
5.085	0.379	0.506	
5.090	-0.034	0.500	
5.095	0.003	0.420	
5.100	0.094	0.306	
5.105	-0.129	0.196	
5.110	-0.135	0.092	
5.115	0.015	0.007	
5.120	-0.113	-0.047	
5.125	-0.202	-0.084	
5.130	-0.061	-0.113	
5.135	-0.060	-0.124	
5.140	-0.211	-0.125	
5.145	-0.129	-0.130	
5.150	-0.022	-0.132	
5.155	-0.162	-0.123	
5.160	-0.176	-0.121	
5.165	-0.038	-0.123	
5.170	-0.112	-0.118	
5.175	-0.161	-0.113	
5.180	-0.006	-0.110	
5.185	0.003	-0.096	
5.190	-0.141	-0.078	
5.195	-0.013	-0.068	
5.200	0.168	-0.051	
5.205	-0.046	-0.020	
5.210	-0.042	0.000	
5.215	0.197	0.013	
5.220	0.038	0.035	
5.225	-0.069	0.049	
5.230	0.148	0.049	
5.235	0.131	0.056	
5.240	-0.087	0.064	
5.245	0.036	0.056	
5.250	0.241	0.052	
5.255	0.003	0.065	
5.260	0.018	0.071	
5.265	0.295	0.077	
5.270	0.124	0.099	
5.275	-0.043	0.114	
5.280	0.154	0.110	
5.285	0.157	0.107	
5.290	-0.081	0.103	
5.295	0.030	0.084	
5.300	0.186	0.066	
5.305	-0.066	0.061	
5.310	-0.084	0.046	
5.315	0.091	0.023	
5.320	-0.057	0.010	
5.325	-0.173	-0.008	
5.330	-0.032	-0.035	
5.335	-0.025	-0.054	
5.340	-0.207	-0.067	
5.345	-0.162	-0.088	
5.350	-0.046	-0.109	
5.355	-0.187	-0.120	
5.360	-0.188	-0.131	
5.365	-0.008	-0.138	
5.370	-0.080	-0.130	
5.375	-0.174	-0.117	
5.380	-0.038	-0.111	
5.385	-0.023	-0.100	
5.390	-0.165	-0.088	
5.395	-0.092	-0.086	
5.400	0.052	-0.083	
5.405	-0.116	-0.071	
5.410	-0.126	-0.066	
5.415	0.041	-0.067	
5.420	-0.035	-0.058	
5.425	-0.115	-0.050	
5.430	0.047	-0.047	
5.435	0.059	-0.035	
5.440	-0.130	-0.021	
5.445	-0.032	-0.021	
5.450	0.130	-0.020	
5.455	-0.075	-0.009	
5.460	-0.083	-0.007	
5.465	0.143	-0.009	
5.470	-0.016	0.001	
5.475	-0.116	0.005	
5.480	0.084	-0.002	
5.485	0.122	0.004	
5.490	-0.115	0.015	
5.495	-0.020	0.012	
5.500	0.148	0.008	
5.505	-0.061	0.015	
5.510	-0.068	0.013	
5.515	0.163	0.008	
5.520	0.029	0.018	
5.525	-0.097	0.025	
5.530	0.082	0.020	
5.535	0.120	0.023	
5.540	-0.095	0.030	
5.545	0.007	0.026	
5.550	0.162	0.022	
5.555	-0.080	0.028	
5.560	-0.095	0.022	
5.565	0.145	0.009	
5.570	0.013	0.010	
5.575	-0.098	0.013	
5.580	0.111	0.008	
5.585	0.148	0.017	
5.590	-0.064	0.034	
5.595	0.061	0.040	
5.600	0.244	0.049	
5.605	0.029	0.071	
5.610	0.000	0.083	
5.615	0.273	0.087	
5.620	0.124	0.104	
5.625	-0.025	0.116	
5.630	0.214	0.114	
5.635	0.185	0.119	
5.640	-0.092	0.122	
5.645	-0.031	0.100	
5.650	0.114	0.068	
5.655	-0.112	0.044	
5.660	-0.141	0.013	
5.665	0.061	-0.020	
5.670	-0.052	-0.036	
5.675	-0.142	-0.046	
5.680	0.007	-0.057	
5.685	0.029	-0.057	
5.690	-0.153	-0.050	
5.695	-0.084	-0.055	
5.700	0.078	-0.058	
5.705	-0.112	-0.051	
5.710	-0.139	-0.051	
5.715	0.035	-0.058	
5.720	-0.045	-0.056	
5.725	-0.110	-0.052	
5.730	0.146	-0.046	
5.735	0.362	-0.010	
5.740	0.273	0.063	
5.745	0.567	0.155	
5.750	0.816	0.274	
5.755	0.482	0.406	
5.760	0.321	0.493	
5.765	0.391	0.514	
5.770	0.113	0.486	
5.775	-0.097	0.406	
5.780	0.010	0.289	
5.785	-0.017	0.174	
5.790	-0.193	0.075	
5.795	-0.129	-0.012	
5.800	-0.017	-0.074	
5.805	-0.184	-0.107	
5.810	-0.202	-0.130	
5.815	-0.037	-0.147	
5.820	-0.122	-0.146	
5.825	-0.216	-0.142	
5.830	-0.077	-0.143	
5.835	-0.043	-0.136	
5.840	-0.197	-0.124	
5.845	-0.107	-0.120	
5.850	0.050	-0.113	
5.855	-0.119	-0.094	
5.860	-0.136	-0.083	
5.865	0.078	-0.076	
5.870	-0.032	-0.060	
5.875	-0.135	-0.046	
5.880	0.067	-0.042	
5.885	0.120	-0.026	
5.890	-0.080	-0.003	
5.895	0.000	0.007	
5.900	0.211	0.016	
5.905	-0.022	0.037	
5.910	-0.034	0.046	
5.915	0.204	0.047	
5.920	0.081	0.060	
5.925	-0.037	0.071	
5.930	0.169	0.071	
5.935	0.195	0.081	
5.940	-0.045	0.095	
5.945	0.068	0.092	
5.950	0.258	0.090	
5.955	0.015	0.100	
5.960	-0.008	0.099	
5.965	0.221	0.091	
5.970	0.091	0.094	
5.975	-0.058	0.094	
5.980	0.128	0.082	
5.985	0.113	0.075	
5.990	-0.129	0.068	
5.995	-0.078	0.042	
6.000	0.032	0.010	
6.005	-0.147	-0.016	
6.010	-0.177	-0.045	
6.015	-0.019	-0.076	
6.020	-0.107	-0.091	
6.025	-0.219	-0.103	
6.030	-0.080	-0.119	
6.035	-0.049	-0.124	
6.040	-0.207	-0.122	
6.045	-0.129	-0.125	
6.050	0.020	-0.124	
6.055	-0.138	-0.112	
6.060	-0.167	-0.104	
6.065	-0.017	-0.104	
6.070	-0.072	-0.097	
6.075	-0.150	-0.090	
6.080	0.000	-0.087	
6.085	0.027	-0.076	
6.090	-0.147	-0.060	
6.095	-0.080	-0.057	
6.100	0.079	-0.056	
6.105	-0.087	-0.045	
6.110	-0.100	-0.041	
6.115	0.093	-0.040	
6.120	-0.028	-0.029	
6.125	-0.110	-0.022	
6.130	0.072	-0.023	
6.135	0.107	-0.012	
6.140	-0.101	0.004	
6.145	-0.034	0.005	
6.150	0.137	0.003	
6.155	-0.058	0.010	
6.160	-0.077	0.009	
6.165	0.143	0.004	
6.170	0.023	0.011	
6.175	-0.104	0.017	
6.180	0.058	0.010	
6.185	0.102	0.011	
6.190	-0.119	0.015	
6.195	-0.054	0.006	
6.200	0.157	-0.003	
6.205	-0.063	0.002	
6.210	-0.063	0.003	
6.215	0.152	0.001	
6.220	0.036	0.013	
6.225	-0.090	0.022	
6.230	0.084	0.020	
6.235	0.137	0.025	
6.240	-0.090	0.035	
6.245	-0.003	0.032	
6.250	0.162	0.027	
6.255	-0.048	0.032	
6.260	-0.074	0.029	
6.265	0.157	0.020	
6.270	0.047	0.025	
6.275	-0.081	0.031	
6.280	0.127	0.029	
6.285	0.208	0.040	
6.290	-0.028	0.061	
6.295	0.084	0.072	
6.300	0.307	0.084	
6.305	0.053	0.109	
6.310	0.021	0.122	
6.315	0.267	0.122	
6.320	0.122	0.131	
6.325	-0.075	0.131	
6.330	0.084	0.110	
6.335	0.107	0.088	
6.340	-0.115	0.070	
6.345	-0.063	0.039	
6.350	0.044	0.008	
6.355	-0.122	-0.014	
6.360	-0.139	-0.037	
6.365	0.027	-0.059	
6.370	-0.068	-0.066	
6.375	-0.168	-0.070	
6.380	-0.011	-0.078	
6.385	0.056	-0.074	
6.390	-0.155	-0.061	
6.395	-0.077	-0.058	
6.400	0.079	-0.057	
6.405	-0.116	-0.047	
6.410	-0.148	-0.048	
6.415	0.119	-0.053	
6.420	0.191	-0.033	
6.425	0.185	0.015	
6.430	0.637	0.091	
6.435	0.852	0.218	
6.440	0.605	0.376	
6.445	0.625	0.508	
6.450	0.614	0.594	
6.455	0.136	0.618	
6.460	-0.045	0.554	
6.465	0.152	0.430	
6.470	-0.017	0.301	
6.475	-0.168	0.179	
6.480	-0.057	0.068	
6.485	-0.060	-0.016	
6.490	-0.236	-0.073	
6.495	-0.179	-0.120	
6.500	-0.069	-0.152	
6.505	-0.208	-0.164	
6.510	-0.220	-0.172	
6.515	-0.051	-0.176	
6.520	-0.115	-0.166	
6.525	-0.229	-0.154	
6.530	-0.081	-0.150	
6.535	-0.042	-0.140	
6.540	-0.197	-0.126	
6.545	-0.130	-0.122	
6.550	0.049	-0.117	
6.555	-0.116	-0.099	
6.560	-0.150	-0.088	
6.565	0.073	-0.082	
6.570	0.004	-0.064	
6.575	-0.121	-0.045	
6.580	0.036	-0.037	
6.585	0.136	-0.022	
6.590	-0.072	0.000	
6.595	0.003	0.011	
6.600	0.211	0.021	
6.605	-0.011	0.041	
6.610	-0.031	0.050	
6.615	0.218	0.053	
6.620	0.097	0.067	
6.625	-0.057	0.078	
6.630	0.156	0.076	
6.635	0.230	0.083	
6.640	0.001	0.100	
6.645	0.056	0.103	
6.650	0.235	0.101	
6.655	-0.026	0.105	
6.660	-0.074	0.093	
6.665	0.185	0.070	
6.670	0.044	0.061	
6.675	-0.126	0.053	
6.680	0.012	0.030	
6.685	0.036	0.010	
6.690	-0.167	-0.005	
6.695	-0.113	-0.031	
6.700	0.018	-0.055	
6.705	-0.152	-0.067	
6.710	-0.184	-0.083	
6.715	-0.040	-0.101	
6.720	-0.126	-0.109	
6.725	-0.219	-0.116	
6.730	-0.066	-0.128	
6.735	-0.026	-0.127	
6.740	-0.177	-0.117	
6.745	-0.109	-0.113	
6.750	0.055	-0.106	
6.755	-0.106	-0.088	
6.760	-0.133	-0.076	
6.765	0.059	-0.071	
6.770	-0.037	-0.057	
6.775	-0.145	-0.048	
6.780	0.004	-0.049	
6.785	0.079	-0.043	
6.790	-0.110	-0.030	
6.795	-0.064	-0.027	
6.800	0.101	-0.028	
6.805	-0.075	-0.020	
6.810	-0.100	-0.019	
6.815	0.128	-0.022	
6.820	0.023	-0.011	
6.825	-0.106	-0.001	
6.830	0.052	-0.002	
6.835	0.097	0.003	
6.840	-0.109	0.010	
6.845	-0.066	0.004	
6.850	0.085	-0.007	
6.855	-0.074	-0.010	
6.860	-0.110	-0.017	
6.865	0.120	-0.026	
6.870	0.055	-0.017	
6.875	-0.086	-0.002	
6.880	0.094	0.004	
6.885	0.148	0.018	
6.890	-0.090	0.035	
6.895	-0.016	0.035	
6.900	0.206	0.032	
6.905	-0.020	0.043	
6.910	-0.074	0.044	
6.915	0.156	0.036	
6.920	0.026	0.037	
6.925	-0.129	0.035	
6.930	0.049	0.019	
6.935	0.131	0.012	
6.940	-0.112	0.016	
6.945	-0.037	0.009	
6.950	0.178	0.003	
6.955	-0.046	0.013	
6.960	-0.090	0.015	
6.965	0.131	0.009	
6.970	0.079	0.016	
6.975	-0.087	0.025	
6.980	0.081	0.025	
6.985	0.125	0.029	
6.990	-0.112	0.036	
6.995	-0.032	0.027	
7.000	0.186	0.018	
7.005	-0.031	0.024	
7.010	-0.066	0.026	
7.015	0.127	0.020	
7.020	0.026	0.023	
7.025	-0.115	0.024	
7.030	0.078	0.013	
7.035	0.171	0.016	
7.040	-0.066	0.030	
7.045	-0.025	0.033	
7.050	0.181	0.031	
7.055	0.000	0.040	
7.060	-0.013	0.045	
7.065	0.269	0.050	
7.070	0.165	0.075	
7.075	-0.029	0.100	
7.080	0.188	0.107	
7.085	0.253	0.119	
7.090	-0.045	0.132	
7.095	-0.002	0.122	
7.100	0.188	0.101	
7.105	-0.035	0.088	
7.110	-0.090	0.066	
7.115	0.087	0.037	
7.120	-0.032	0.019	
7.125	-0.156	-0.000	
7.130	-0.009	-0.026	
7.135	0.046	-0.040	
7.140	-0.152	-0.042	
7.145	-0.101	-0.052	
7.150	0.068	-0.061	
7.155	-0.116	-0.057	
7.160	-0.156	-0.060	
7.165	0.036	-0.068	
7.170	-0.037	-0.065	
7.175	-0.170	-0.061	
7.180	-0.045	-0.068	
7.185	0.029	-0.069	
7.190	-0.112	-0.061	
7.195	0.079	-0.052	
7.200	0.496	-0.012	
7.205	0.490	0.081	
7.210	0.580	0.207	
7.215	0.887	0.348	
7.220	0.733	0.496	
7.225	0.386	0.603	
7.230	0.437	0.634	
7.235	0.337	0.606	
7.240	-0.057	0.529	
7.245	-0.081	0.400	
7.250	0.020	0.254	
7.255	-0.156	0.126	
7.260	-0.219	0.016	
7.265	-0.098	-0.073	
7.270	-0.159	-0.130	
7.275	-0.280	-0.166	
7.280	-0.168	-0.194	
7.285	-0.121	-0.206	
7.290	-0.248	-0.204	
7.295	-0.190	-0.203	
7.300	-0.066	-0.197	
7.305	-0.199	-0.181	
7.310	-0.208	-0.171	
7.315	-0.023	-0.164	
7.320	-0.080	-0.146	
7.325	-0.202	-0.128	
7.330	-0.063	-0.120	
7.335	0.029	-0.108	
7.340	-0.141	-0.089	
7.345	-0.083	-0.079	
7.350	0.110	-0.068	
7.355	-0.063	-0.047	
7.360	-0.092	-0.033	
7.365	0.152	-0.024	
7.370	0.078	-0.002	
7.375	-0.093	0.019	
7.380	0.094	0.025	
7.385	0.209	0.038	
7.390	-0.032	0.059	
7.395	0.024	0.066	
7.400	0.212	0.068	
7.405	0.000	0.077	
7.410	-0.058	0.075	
7.415	0.159	0.061	
7.420	0.101	0.060	
7.425	-0.051	0.063	
7.430	0.177	0.060	
7.435	0.263	0.074	
7.440	-0.037	0.098	
7.445	-0.011	0.100	
7.450	0.178	0.088	
7.455	-0.043	0.080	
7.460	-0.113	0.060	
7.465	0.072	0.030	
7.470	-0.035	0.010	
7.475	-0.182	-0.011	
7.480	-0.072	-0.040	
7.485	-0.037	-0.064	
7.490	-0.199	-0.080	
7.495	-0.177	-0.101	
7.500	-0.040	-0.120	
7.505	-0.179	-0.128	
7.510	-0.208	-0.136	
7.515	-0.022	-0.143	
7.520	-0.069	-0.135	
7.525	-0.179	-0.122	
7.530	-0.035	-0.114	
7.535	0.029	-0.100	
7.540	-0.153	-0.080	
7.545	-0.100	-0.073	
7.550	0.097	-0.068	
7.555	-0.080	-0.052	
7.560	-0.126	-0.043	
7.565	0.081	-0.043	
7.570	0.013	-0.032	
7.575	-0.132	-0.022	
7.580	-0.003	-0.025	
7.585	0.056	-0.025	
7.590	-0.106	-0.021	
7.595	-0.032	-0.023	
7.600	0.180	-0.020	
7.605	-0.025	-0.001	
7.610	-0.086	0.011	
7.615	0.127	0.012	
7.620	0.047	0.020	
7.625	-0.100	0.025	
7.630	0.055	0.019	
7.635	0.156	0.020	
7.640	-0.084	0.030	
7.645	-0.058	0.026	
7.650	0.168	0.018	
7.655	-0.045	0.021	
7.660	-0.086	0.018	
7.665	0.142	0.010	
7.670	0.056	0.016	
7.675	-0.126	0.022	
7.680	0.047	0.014	
7.685	0.165	0.014	
7.690	-0.072	0.025	
7.695	-0.040	0.025	
7.700	0.156	0.021	
7.705	-0.029	0.026	
7.710	-0.080	0.024	
7.715	0.136	0.017	
7.720	0.061	0.022	
7.725	-0.112	0.027	
7.730	0.029	0.018	
7.735	0.116	0.013	
7.740	-0.098	0.016	
7.745	-0.066	0.008	
7.750	0.130	-0.003	
7.755	-0.051	-0.000	
7.760	-0.109	-0.003	
7.765	0.117	-0.011	
7.770	0.062	-0.004	
7.775	-0.115	0.006	
7.780	0.039	0.004	
7.785	0.148	0.007	
7.790	-0.083	0.019	
7.795	-0.019	0.020	
7.800	0.191	0.020	
7.805	-0.029	0.032	
7.810	-0.086	0.034	
7.815	0.137	0.025	
7.820	0.042	0.027	
7.825	-0.109	0.029	
7.830	0.001	0.016	
7.835	0.101	0.006	
7.840	-0.104	0.005	
7.845	-0.051	-0.004	
7.850	0.168	-0.009	
7.855	-0.029	0.002	
7.860	-0.100	0.007	
7.865	0.116	0.003	
7.870	0.058	0.010	
7.875	-0.112	0.016	
7.880	0.058	0.012	
7.885	0.172	0.015	
7.890	-0.080	0.029	
7.895	-0.048	0.029	
7.900	0.140	0.022	
7.905	-0.055	0.023	
7.910	-0.118	0.015	
7.915	0.114	-0.000	
7.920	0.050	0.000	
7.925	-0.116	0.005	
7.930	0.053	0.000	
7.935	0.111	0.003	
7.940	-0.107	0.011	
7.945	-0.046	0.006	
7.950	0.177	0.002	
7.955	-0.008	0.013	
7.960	-0.052	0.021	
7.965	0.212	0.026	
7.970	0.137	0.047	
7.975	-0.049	0.069	
7.980	0.165	0.076	
7.985	0.261	0.091	
7.990	-0.008	0.113	
7.995	0.013	0.114	
8.000	0.244	0.106	
8.005	0.029	0.107	
8.010	-0.058	0.099	
8.015	0.204	0.082	
8.020	0.117	0.080	
8.025	-0.113	0.080	
8.030	-0.008	0.059	
8.035	0.085	0.036	
8.040	-0.129	0.020	
8.045	-0.097	-0.004	
8.050	0.088	-0.026	
8.055	-0.109	-0.033	
8.060	-0.161	-0.044	
8.065	0.032	-0.060	
8.070	-0.023	-0.062	
8.075	-0.148	-0.059	
8.080	-0.020	-0.062	
8.085	0.026	-0.060	
8.090	-0.162	-0.054	
8.095	-0.118	-0.060	
8.100	0.111	-0.065	
8.105	0.053	-0.049	
8.110	0.142	-0.015	
8.115	0.634	0.049	
8.120	0.779	0.173	
8.125	0.637	0.332	
8.130	0.814	0.481	
8.135	0.788	0.607	
8.140	0.331	0.682	
8.145	0.227	0.671	
8.150	0.304	0.592	
8.155	-0.043	0.480	
8.160	-0.159	0.339	
8.165	-0.045	0.189	
8.170	-0.118	0.063	
8.175	-0.292	-0.037	
8.180	-0.197	-0.121	
8.185	-0.121	-0.177	
8.190	-0.278	-0.205	
8.195	-0.242	-0.223	
8.200	-0.118	-0.232	
8.205	-0.217	-0.225	
8.210	-0.252	-0.218	
8.215	-0.089	-0.211	
8.220	-0.101	-0.193	
8.225	-0.222	-0.173	
8.230	-0.115	-0.161	
8.235	-0.014	-0.147	
8.240	-0.161	-0.127	
8.245	-0.116	-0.115	
8.250	0.068	-0.102	
8.255	-0.097	-0.081	
8.260	-0.162	-0.069	
8.265	0.078	-0.066	
8.270	0.061	-0.050	
8.275	-0.106	-0.028	
8.280	0.055	-0.017	
8.285	0.175	-0.000	
8.290	-0.071	0.024	
8.295	-0.026	0.031	
8.300	0.217	0.034	
8.305	0.026	0.049	
8.310	-0.042	0.057	
8.315	0.250	0.060	
8.320	0.203	0.081	
8.325	-0.022	0.105	
8.330	0.162	0.113	
8.335	0.269	0.122	
8.340	-0.016	0.135	
8.345	0.032	0.130	
8.350	0.263	0.117	
8.355	0.036	0.117	
8.360	-0.061	0.108	
8.365	0.146	0.086	
8.370	0.064	0.073	
8.375	-0.129	0.060	
8.380	-0.029	0.032	
8.385	0.039	0.006	
8.390	-0.153	-0.013	
8.395	-0.135	-0.038	
8.400	-0.020	-0.064	
8.405	-0.152	-0.080	
8.410	-0.194	-0.097	
8.415	-0.049	-0.115	
8.420	-0.064	-0.119	
8.425	-0.190	-0.116	
8.430	-0.080	-0.117	
8.435	0.010	-0.112	
8.440	-0.161	-0.099	
8.445	-0.135	-0.095	
8.450	0.070	-0.092	
8.455	-0.080	-0.077	
8.460	-0.148	-0.066	
8.465	0.024	-0.065	
8.470	-0.020	-0.058	
8.475	-0.161	-0.052	
8.480	-0.020	-0.056	
8.485	0.113	-0.052	
8.490	-0.115	-0.036	
8.495	-0.084	-0.031	
8.500	0.073	-0.032	
8.505	-0.057	-0.027	
8.510	-0.098	-0.026	
8.515	0.130	-0.026	
8.520	0.073	-0.011	
8.525	-0.121	0.006	
8.530	0.032	0.007	
8.535	0.160	0.011	
8.540	-0.074	0.023	
8.545	-0.052	0.024	
8.550	0.166	0.019	
8.555	-0.037	0.024	
8.560	-0.107	0.022	
8.565	0.088	0.009	
8.570	0.052	0.007	
8.575	-0.112	0.008	
8.580	0.017	-0.000	
8.585	0.169	0.000	
8.590	-0.078	0.013	
8.595	-0.069	0.014	
8.600	0.142	0.009	
8.605	-0.032	0.013	
8.610	-0.093	0.012	
8.615	0.107	0.004	
8.620	0.075	0.008	
8.625	-0.112	0.016	
8.630	0.036	0.011	
8.635	0.183	0.013	
8.640	-0.061	0.028	
8.645	-0.035	0.031	
8.650	0.171	0.029	
8.655	-0.025	0.035	
8.660	-0.113	0.032	
8.665	0.099	0.018	
8.670	0.067	0.014	
8.675	-0.126	0.015	
8.680	-0.023	0.003	
8.685	0.110	-0.006	
8.690	-0.072	-0.004	
8.695	-0.038	-0.006	
8.700	0.183	-0.004	
8.705	-0.013	0.012	
8.710	-0.097	0.021	
8.715	0.131	0.018	
8.720	0.085	0.025	
8.725	-0.098	0.033	
8.730	0.033	0.027	
8.735	0.149	0.025	
8.740	-0.086	0.030	
8.745	-0.074	0.023	
8.750	0.134	0.011	
8.755	-0.023	0.011	
8.760	-0.098	0.008	
8.765	0.122	0.001	
8.770	0.079	0.008	
8.775	-0.110	0.017	
8.780	0.018	0.013	
8.785	0.159	0.013	
8.790	-0.081	0.022	
8.795	-0.064	0.019	
8.800	0.165	0.012	
8.805	-0.022	0.018	
8.810	-0.107	0.018	
8.815	0.119	0.009	
8.820	0.142	0.016	
8.825	-0.057	0.032	
8.830	0.087	0.039	
8.835	0.217	0.051	
8.840	-0.038	0.070	
8.845	0.004	0.073	
8.850	0.270	0.072	
8.855	0.099	0.088	
8.860	-0.037	0.099	
8.865	0.217	0.098	
8.870	0.191	0.106	
8.875	-0.046	0.116	
8.880	0.113	0.109	
8.885	0.220	0.104	
8.890	-0.092	0.104	
8.895	-0.089	0.082	
8.900	0.084	0.047	
8.905	-0.068	0.022	
8.910	-0.138	-0.003	
8.915	0.041	-0.029	
8.920	0.007	-0.038	
8.925	-0.148	-0.040	
8.930	-0.055	-0.050	
8.935	0.072	-0.054	
8.940	-0.126	-0.048	
8.945	-0.122	-0.050	
8.950	0.036	-0.057	
8.955	-0.100	-0.057	
8.960	-0.170	-0.062	
8.965	0.038	-0.071	
8.970	0.143	-0.060	
8.975	0.078	-0.025	
8.980	0.460	0.031	
8.985	0.857	0.139	
8.990	0.719	0.300	
8.995	0.731	0.463	
9.000	0.912	0.601	
9.005	0.539	0.700	
9.010	0.157	0.719	
9.015	0.253	0.647	
9.020	0.084	0.526	
9.025	-0.162	0.382	
9.030	-0.122	0.224	
9.035	-0.083	0.082	
9.040	-0.257	-0.028	
9.045	-0.251	-0.116	
9.050	-0.109	-0.178	
9.055	-0.210	-0.207	
9.060	-0.263	-0.219	
9.065	-0.115	-0.224	
9.070	-0.121	-0.214	
9.075	-0.251	-0.197	
9.080	-0.139	-0.188	
9.085	-0.029	-0.174	
9.090	-0.187	-0.153	
9.095	-0.161	-0.141	
9.100	-0.013	-0.132	
9.105	-0.133	-0.119	
9.110	-0.173	-0.111	
9.115	0.003	-0.109	
9.120	-0.020	-0.096	
9.125	-0.164	-0.081	
9.130	-0.028	-0.077	
9.135	0.119	-0.065	
9.140	-0.092	-0.041	
9.145	-0.063	-0.028	
9.150	0.169	-0.019	
9.155	0.027	0.003	
9.160	-0.072	0.021	
9.165	0.157	0.027	
9.170	0.162	0.044	
9.175	-0.038	0.064	
9.180	0.133	0.073	
9.185	0.258	0.086	
9.190	-0.013	0.106	
9.195	-0.002	0.107	
9.200	0.212	0.096	
9.205	0.049	0.095	
9.210	-0.016	0.091	
9.215	0.252	0.084	
9.220	0.157	0.095	
9.225	-0.089	0.105	
9.230	0.012	0.090	
9.235	0.140	0.070	
9.240	-0.101	0.056	
9.245	-0.116	0.030	
9.250	0.035	-0.002	
9.255	-0.116	-0.025	
9.260	-0.210	-0.050	
9.265	-0.051	-0.080	
9.270	-0.060	-0.098	
9.275	-0.194	-0.105	
9.280	-0.110	-0.115	
9.285	-0.013	-0.118	
9.290	-0.165	-0.112	
9.295	-0.148	-0.111	
9.300	0.020	-0.110	
9.305	-0.092	-0.099	
9.310	-0.162	-0.090	
9.315	0.004	-0.088	
9.320	-0.026	-0.079	
9.325	-0.165	-0.070	
9.330	-0.064	-0.072	
9.335	0.033	-0.072	
9.340	-0.138	-0.065	
9.345	-0.116	-0.066	
9.350	0.099	-0.067	
9.355	-0.046	-0.053	
9.360	-0.132	-0.043	
9.365	0.082	-0.040	
9.370	0.091	-0.026	
9.375	-0.109	-0.007	
9.380	-0.006	-0.002	
9.385	0.130	0.001	
9.390	-0.090	0.010	
9.395	-0.064	0.007	
9.400	0.181	0.002	
9.405	0.030	0.015	
9.410	-0.083	0.026	
9.415	0.120	0.026	
9.420	0.079	0.032	
9.425	-0.132	0.036	
9.430	-0.019	0.022	
9.435	0.116	0.008	
9.440	-0.107	0.005	
9.445	-0.063	-0.005	
9.450	0.177	-0.011	
9.455	-0.003	0.001	
9.460	-0.084	0.010	
9.465	0.128	0.011	
9.470	0.113	0.023	
9.475	-0.098	0.036	
9.480	0.020	0.033	
9.485	0.160	0.030	
9.490	-0.074	0.035	
9.495	-0.055	0.029	
9.500	0.171	0.021	
9.505	-0.026	0.024	
9.510	-0.138	0.021	
9.515	0.081	0.005	
9.520	0.079	0.001	
9.525	-0.110	0.005	
9.530	0.012	-0.000	
9.535	0.165	0.001	
9.540	-0.060	0.014	
9.545	-0.051	0.018	
9.550	0.146	0.016	
9.555	0.001	0.023	
9.560	-0.092	0.025	
9.565	0.091	0.017	
9.570	0.101	0.019	
9.575	-0.095	0.025	
9.580	0.027	0.021	
9.585	0.175	0.021	
9.590	-0.061	0.032	
9.595	-0.043	0.032	
9.600	0.235	0.030	
9.605	0.030	0.045	
9.610	-0.075	0.054	
9.615	0.174	0.051	
9.620	0.186	0.061	
9.625	-0.034	0.079	
9.630	0.124	0.084	
9.635	0.266	0.093	
9.640	0.003	0.111	
9.645	0.010	0.112	
9.650	0.270	0.105	
9.655	0.068	0.111	
9.660	-0.098	0.108	
9.665	0.091	0.085	
9.670	0.053	0.064	
9.675	-0.147	0.044	
9.680	-0.063	0.012	
9.685	0.041	-0.016	
9.690	-0.139	-0.033	
9.695	-0.129	-0.052	
9.700	0.078	-0.066	
9.705	-0.057	-0.063	
9.710	-0.159	-0.058	
9.715	0.007	-0.062	
9.720	-0.006	-0.060	
9.725	-0.177	-0.056	
9.730	-0.093	-0.065	
9.735	0.058	-0.071	
9.740	-0.068	-0.063	
9.745	0.075	-0.048	
9.750	0.542	-0.003	
9.755	0.586	0.100	
9.760	0.591	0.239	
9.765	0.855	0.384	
9.770	0.727	0.524	
9.775	0.269	0.615	
9.780	0.203	0.614	
9.785	0.240	0.543	
9.790	-0.064	0.436	
9.795	-0.097	0.303	
9.800	0.039	0.172	
9.805	-0.118	0.070	
9.810	-0.234	-0.013	
9.815	-0.113	-0.084	
9.820	-0.103	-0.129	
9.825	-0.245	-0.154	
9.830	-0.150	-0.172	
9.835	-0.048	-0.176	
9.840	-0.200	-0.166	
9.845	-0.207	-0.161	
9.850	-0.029	-0.158	
9.855	-0.112	-0.145	
9.860	-0.185	-0.132	
9.865	-0.016	-0.124	
9.870	0.021	-0.107	
9.875	-0.145	-0.084	
9.880	-0.066	-0.072	
9.885	0.078	-0.063	
9.890	-0.101	-0.047	
9.895	-0.095	-0.041	
9.900	0.133	-0.037	
9.905	0.003	-0.021	
9.910	-0.100	-0.007	
9.915	0.137	-0.002	
9.920	0.111	0.014	
9.925	-0.095	0.032	
9.930	0.039	0.033	
9.935	0.241	0.038	
9.940	-0.011	0.057	
9.945	-0.028	0.064	
9.950	0.229	0.064	
9.955	0.096	0.076	
9.960	-0.023	0.086	
9.965	0.227	0.088	
9.970	0.240	0.104	
9.975	-0.011	0.124	
9.980	0.105	0.127	
9.985	0.206	0.123	
9.990	-0.078	0.119	
9.995	-0.058	0.094	
10.000	0.159	0.063	
10.005	-0.013	0.048	
10.010	-0.147	0.031	
10.015	-0.019	0.002	
10.020	-0.037	-0.023	
10.025	-0.205	-0.045	
10.030	-0.129	-0.074	
10.035	-0.031	-0.097	
10.040	-0.181	-0.108	
10.045	-0.173	-0.119	
10.050	-0.013	-0.128	
10.055	-0.118	-0.123	
10.060	-0.217	-0.119	
10.065	-0.060	-0.124	
10.070	-0.037	-0.120	
10.075	-0.184	-0.111	
10.080	-0.104	-0.110	
10.085	0.007	-0.106	
10.090	-0.139	-0.096	
10.095	-0.127	-0.091	
10.100	0.044	-0.088	
10.105	-0.063	-0.075	
10.110	-0.155	-0.066	
10.115	0.021	-0.065	
10.120	0.018	-0.057	
10.125	-0.155	-0.047	
10.130	-0.066	-0.050	
10.135	0.107	-0.051	
10.140	-0.084	-0.039	
10.145	-0.081	-0.032	
10.150	0.140	-0.028	
10.155	0.004	-0.011	
10.160	-0.103	0.001	
10.165	0.093	0.002	
10.170	0.084	0.010	
10.175	-0.116	0.018	
10.180	-0.009	0.012	
10.185	0.145	0.007	
10.190	-0.072	0.013	
10.195	-0.077	0.010	
10.200	0.163	0.004	
10.205	-0.003	0.011	
10.210	-0.113	0.015	
10.215	0.104	0.008	
10.220	0.146	0.014	
10.225	-0.078	0.030	
10.230	0.013	0.032	
10.235	0.181	0.033	
10.240	-0.052	0.042	
10.245	-0.068	0.040	
10.250	0.159	0.030	
10.255	0.001	0.031	
10.260	-0.116	0.028	
10.265	0.090	0.015	
10.270	0.111	0.014	
10.275	-0.116	0.020	
10.280	-0.008	0.013	
10.285	0.156	0.008	
10.290	-0.077	0.015	
10.295	-0.092	0.011	
10.300	0.168	0.003	
10.305	0.067	0.013	
10.310	-0.069	0.026	
10.315	0.152	0.031	
10.320	0.168	0.047	
10.325	-0.057	0.066	
10.330	0.091	0.070	
10.335	0.270	0.077	
10.340	0.027	0.097	
10.345	0.023	0.105	
10.350	0.293	0.106	
10.355	0.088	0.119	
10.360	-0.063	0.123	
10.365	0.134	0.106	
10.370	0.094	0.092	
10.375	-0.136	0.077	
10.380	-0.045	0.045	
10.385	0.076	0.014	
10.390	-0.126	-0.005	
10.395	-0.136	-0.027	
10.400	0.061	-0.049	
10.405	-0.045	-0.053	
10.410	-0.159	-0.054	
10.415	-0.014	-0.062	
10.420	0.006	-0.063	
10.425	-0.162	-0.059	
10.430	-0.066	-0.064	
10.435	0.067	-0.065	
10.440	-0.122	-0.056	
10.445	-0.130	-0.056	
10.450	0.120	-0.057	
10.455	0.081	-0.039	
10.460	0.067	-0.006	
10.465	0.437	0.041	
10.470	0.640	0.129	
10.475	0.496	0.251	
10.480	0.626	0.369	
10.485	0.681	0.471	
10.490	0.206	0.535	
10.495	0.036	0.520	
10.500	0.194	0.439	
10.505	-0.020	0.336	
10.510	-0.162	0.223	
10.515	-0.068	0.108	
10.520	-0.080	0.014	
10.525	-0.222	-0.056	
10.530	-0.135	-0.110	
10.535	-0.008	-0.140	
10.540	-0.164	-0.143	
10.545	-0.170	-0.141	
10.550	-0.011	-0.138	
10.555	-0.119	-0.126	
10.560	-0.211	-0.117	
10.565	-0.063	-0.120	
10.570	-0.045	-0.116	
10.575	-0.187	-0.109	
10.580	-0.098	-0.109	
10.585	0.050	-0.104	
10.590	-0.124	-0.088	
10.595	-0.109	-0.078	
10.600	0.101	-0.070	
10.605	-0.014	-0.049	
10.610	-0.106	-0.032	
10.615	0.102	-0.023	
10.620	0.143	-0.003	
10.625	-0.080	0.021	
10.630	0.033	0.030	
10.635	0.195	0.038	
10.640	-0.029	0.052	
10.645	-0.042	0.054	
10.650	0.209	0.050	
10.655	0.084	0.060	
10.660	-0.054	0.068	
10.665	0.175	0.067	
10.670	0.206	0.077	
10.675	-0.028	0.094	
10.680	0.099	0.096	
10.685	0.275	0.100	
10.690	-0.017	0.113	
10.695	-0.011	0.109	
10.700	0.233	0.096	
10.705	0.050	0.095	
10.710	-0.101	0.088	
10.715	0.079	0.065	
10.720	0.076	0.048	
10.725	-0.159	0.034	
10.730	-0.126	0.004	
10.735	-0.005	-0.031	
10.740	-0.165	-0.056	
10.745	-0.193	-0.082	
10.750	-0.051	-0.108	
10.755	-0.138	-0.121	
10.760	-0.219	-0.130	
10.765	-0.080	-0.140	
10.770	-0.029	-0.139	
10.775	-0.177	-0.127	
10.780	-0.107	-0.120	
10.785	0.042	-0.111	
10.790	-0.142	-0.093	
10.795	-0.150	-0.086	
10.800	0.012	-0.086	
10.805	-0.066	-0.079	
10.810	-0.164	-0.074	
10.815	0.006	-0.076	
10.820	0.017	-0.069	
10.825	-0.155	-0.058	
10.830	-0.080	-0.059	
10.835	0.102	-0.059	
10.840	-0.078	-0.045	
10.845	-0.083	-0.037	
10.850	0.124	-0.031	
10.855	-0.008	-0.016	
10.860	-0.116	-0.005	
10.865	0.053	-0.008	
10.870	0.079	-0.005	
10.875	-0.118	0.002	
10.880	-0.005	-0.002	
10.885	0.201	-0.001	
10.890	-0.037	0.017	
10.895	-0.040	0.026	
10.900	0.157	0.028	
10.905	0.009	0.037	
10.910	-0.104	0.038	
10.915	0.059	0.025	
10.920	0.062	0.017	
10.925	-0.126	0.013	
10.930	-0.025	-0.001	
10.935	0.163	-0.009	
10.940	-0.049	0.001	
10.945	-0.078	0.005	
10.950	0.142	0.003	
10.955	0.012	0.012	
10.960	-0.121	0.016	
10.965	0.067	0.007	
10.970	0.111	0.008	
10.975	-0.106	0.015	
10.980	-0.006	0.011	
10.985	0.208	0.011	
10.990	-0.017	0.027	
10.995	-0.029	0.037	
11.000	0.220	0.041	
11.005	0.070	0.058	
11.010	-0.095	0.068	
11.015	0.117	0.060	
11.020	0.198	0.061	
11.025	-0.016	0.073	
11.030	0.107	0.078	
11.035	0.282	0.088	
11.040	0.012	0.109	
11.045	-0.028	0.111	
11.050	0.229	0.101	
11.055	0.091	0.101	
11.060	-0.097	0.097	
11.065	0.068	0.076	
11.070	0.087	0.057	
11.075	-0.135	0.042	
11.080	-0.072	0.015	
11.085	0.058	-0.011	
11.090	-0.116	-0.025	
11.095	-0.141	-0.042	
11.100	0.044	-0.059	
11.105	-0.042	-0.061	
11.110	-0.164	-0.060	
11.115	0.001	-0.065	
11.120	0.067	-0.060	
11.125	-0.141	-0.047	
11.130	-0.101	-0.046	
11.135	0.033	-0.052	
11.140	-0.112	-0.052	
11.145	-0.077	-0.054	
11.150	0.347	-0.042	
11.155	0.409	0.019	
11.160	0.394	0.118	
11.165	0.783	0.236	
11.170	0.838	0.379	
11.175	0.409	0.512	
11.180	0.333	0.575	
11.185	0.360	0.566	
11.190	0.023	0.507	
11.195	-0.068	0.400	
11.200	0.099	0.273	
11.205	-0.060	0.163	
11.210	-0.210	0.069	
11.215	-0.089	-0.017	
11.220	-0.075	-0.077	
11.225	-0.242	-0.115	
11.230	-0.179	-0.146	
11.235	-0.060	-0.165	
11.240	-0.185	-0.166	
11.245	-0.211	-0.166	
11.250	-0.055	-0.165	
11.255	-0.129	-0.156	
11.260	-0.236	-0.147	
11.265	-0.097	-0.148	
11.270	-0.020	-0.142	
11.275	-0.165	-0.127	
11.280	-0.081	-0.116	
11.285	0.061	-0.101	
11.290	-0.100	-0.078	
11.295	-0.112	-0.064	
11.300	0.120	-0.055	
11.305	0.012	-0.033	
11.310	-0.115	-0.015	
11.315	0.082	-0.010	
11.320	0.165	0.004	
11.325	-0.087	0.026	
11.330	-0.002	0.031	
11.335	0.208	0.033	
11.340	-0.014	0.046	
11.345	-0.064	0.050	
11.350	0.226	0.046	
11.355	0.149	0.060	
11.360	-0.019	0.080	
11.365	0.194	0.089	
11.370	0.247	0.105	
11.375	-0.028	0.124	
11.380	0.052	0.122	
11.385	0.263	0.114	
11.390	0.026	0.117	
11.395	-0.042	0.109	
11.400	0.162	0.090	
11.405	0.004	0.077	
11.410	-0.147	0.058	
11.415	-0.019	0.023	
11.420	0.020	-0.006	
11.425	-0.185	-0.026	
11.430	-0.144	-0.054	
11.435	-0.013	-0.081	
11.440	-0.159	-0.094	
11.445	-0.187	-0.107	
11.450	-0.013	-0.119	
11.455	-0.081	-0.116	
11.460	-0.210	-0.111	
11.465	-0.078	-0.115	
11.470	-0.037	-0.114	
11.475	-0.185	-0.108	
11.480	-0.110	-0.109	
11.485	0.053	-0.106	
11.490	-0.118	-0.090	
11.495	-0.145	-0.081	
11.500	0.055	-0.078	
11.505	-0.026	-0.065	
11.510	-0.142	-0.053	
11.515	-0.002	-0.052	
11.520	0.033	-0.047	
11.525	-0.142	-0.039	
11.530	-0.058	-0.043	
11.535	0.131	-0.042	
11.540	-0.058	-0.028	
11.545	-0.107	-0.020	
11.550	0.111	-0.019	
11.555	0.027	-0.009	
11.560	-0.127	-0.001	
11.565	0.050	-0.005	
11.570	0.151	0.000	
11.575	-0.090	0.014	
11.580	-0.026	0.016	
11.585	0.181	0.016	
11.590	-0.031	0.027	
11.595	-0.089	0.029	
11.600	0.156	0.022	
11.605	0.049	0.027	
11.610	-0.122	0.031	
11.615	0.058	0.020	
11.620	0.111	0.016	
11.625	-0.100	0.020	
11.630	-0.022	0.013	
11.635	0.140	0.007	
11.640	-0.048	0.012	
11.645	-0.074	0.011	
11.650	0.157	0.007	
11.655	0.041	0.017	
11.660	-0.104	0.025	
11.665	0.082	0.020	
11.670	0.154	0.024	
11.675	-0.089	0.035	
11.680	-0.025	0.032	
11.685	0.163	0.026	
11.690	-0.061	0.029	
11.695	-0.090	0.023	
11.700	0.096	0.009	
11.705	0.010	0.006	
11.710	-0.077	0.005	
11.715	0.140	0.003	
11.720	0.195	0.020	
11.725	-0.058	0.047	
11.730	0.035	0.056	
11.735	0.269	0.064	
11.740	0.044	0.084	
11.745	0.015	0.096	
11.750	0.259	0.099	
11.755	0.143	0.114	
11.760	-0.034	0.124	
11.765	0.143	0.116	
11.770	0.178	0.110	
11.775	-0.101	0.106	
11.780	-0.069	0.080	
11.785	0.101	0.046	
11.790	-0.078	0.023	
11.795	-0.106	0.000	
11.800	0.084	-0.021	
11.805	-0.022	-0.025	
11.810	-0.159	-0.028	
11.815	-0.005	-0.040	
11.820	0.047	-0.045	
11.825	-0.145	-0.041	
11.830	-0.086	-0.047	
11.835	0.075	-0.052	
11.840	-0.118	-0.048	
11.845	-0.158	-0.052	
11.850	0.032	-0.062	
11.855	-0.023	-0.062	
11.860	-0.104	-0.055	
11.865	0.208	-0.043	
11.870	0.469	0.007	
11.875	0.406	0.102	
11.880	0.707	0.221	
11.885	0.968	0.368	
11.890	0.652	0.524	
11.895	0.427	0.629	
11.900	0.489	0.656	
11.905	0.220	0.624	
11.910	-0.077	0.532	
11.915	0.009	0.392	
11.920	-0.005	0.248	
11.925	-0.213	0.121	
11.930	-0.177	0.009	
11.935	-0.083	-0.078	
11.940	-0.225	-0.133	
11.945	-0.248	-0.171	
11.950	-0.098	-0.196	
11.955	-0.164	-0.200	
11.960	-0.268	-0.197	
11.965	-0.136	-0.198	
11.970	-0.086	-0.191	
11.975	-0.225	-0.176	
11.980	-0.156	-0.169	
11.985	-0.008	-0.159	
11.990	-0.165	-0.140	
11.995	-0.173	-0.129	
12.000	0.039	-0.121	
12.005	-0.035	-0.101	
12.010	-0.150	-0.081	
12.015	0.010	-0.071	
12.020	0.107	-0.054	
12.025	-0.109	-0.030	
12.030	-0.035	-0.020	
12.035	0.186	-0.011	
12.040	-0.023	0.010	
12.045	-0.084	0.021	
12.050	0.146	0.021	
12.055	0.070	0.029	
12.060	-0.071	0.038	
12.065	0.127	0.038	
12.070	0.243	0.051	
12.075	-0.006	0.075	
12.080	0.082	0.088	
12.085	0.308	0.099	
12.090	0.058	0.122	
12.095	-0.025	0.129	
12.100	0.208	0.118	
12.105	0.110	0.114	
12.110	-0.069	0.108	
12.115	0.102	0.088	
12.120	0.148	0.075	
12.125	-0.103	0.069	
12.130	-0.071	0.047	
12.135	0.070	0.019	
12.140	-0.118	0.000	
12.145	-0.170	-0.025	
12.150	-0.014	-0.054	
12.155	-0.097	-0.072	
12.160	-0.222	-0.088	
12.165	-0.087	-0.108	
12.170	-0.051	-0.119	
12.175	-0.211	-0.120	
12.180	-0.139	-0.127	
12.185	0.024	-0.129	
12.190	-0.138	-0.116	
12.195	-0.168	-0.108	
12.200	0.023	-0.105	
12.205	-0.046	-0.092	
12.210	-0.187	-0.080	
12.215	-0.046	-0.081	
12.220	0.026	-0.078	
12.225	-0.141	-0.069	
12.230	-0.080	-0.067	
12.235	0.116	-0.062	
12.240	-0.069	-0.044	
12.245	-0.107	-0.034	
12.250	0.107	-0.030	
12.255	0.038	-0.016	
12.260	-0.121	-0.004	
12.265	0.023	-0.005	
12.270	0.125	-0.003	
12.275	-0.101	0.007	
12.280	-0.029	0.006	
12.285	0.148	0.003	
12.290	-0.048	0.012	
12.295	-0.106	0.011	
12.300	0.107	0.002	
12.305	0.053	0.004	
12.310	-0.132	0.009	
12.315	0.041	0.001	
12.320	0.171	0.003	
12.325	-0.081	0.017	
12.330	-0.025	0.020	
12.335	0.186	0.021	
12.340	-0.028	0.032	
12.345	-0.087	0.033	
12.350	0.130	0.025	
12.355	0.018	0.025	
12.360	-0.116	0.022	
12.365	0.065	0.010	
12.370	0.177	0.011	
12.375	-0.100	0.024	
12.380	-0.031	0.024	
12.385	0.177	0.020	
12.390	-0.031	0.028	
12.395	-0.080	0.028	
12.400	0.159	0.022	
12.405	0.065	0.028	
12.410	-0.110	0.035	
12.415	0.012	0.025	
12.420	0.101	0.016	
12.425	-0.116	0.013	
12.430	-0.023	0.002	
12.435	0.209	-0.001	
12.440	-0.008	0.015	
12.445	-0.060	0.026	
12.450	0.208	0.031	
12.455	0.139	0.050	
12.460	-0.066	0.070	
12.465	0.133	0.073	
12.470	0.240	0.081	
12.475	-0.013	0.098	
12.480	0.078	0.102	
12.485	0.296	0.105	
12.490	0.070	0.121	
12.495	-0.011	0.127	
12.500	0.215	0.118	
12.505	0.108	0.116	
12.510	-0.078	0.110	
12.515	0.073	0.088	
12.520	0.105	0.069	
12.525	-0.133	0.054	
12.530	-0.095	0.025	
12.535	0.076	-0.006	
12.540	-0.093	-0.021	
12.545	-0.148	-0.037	
12.550	0.050	-0.054	
12.555	-0.029	-0.055	
12.560	-0.170	-0.054	
12.565	-0.057	-0.063	
12.570	0.009	-0.069	
12.575	-0.159	-0.068	
12.580	-0.115	-0.075	
12.585	0.062	-0.079	
12.590	-0.100	-0.071	
12.595	-0.106	-0.065	
12.600	0.288	-0.051	
12.605	0.382	0.005	
12.610	0.394	0.098	
12.615	0.785	0.216	
12.620	0.956	0.369	
12.625	0.625	0.529	
12.630	0.559	0.638	
12.635	0.612	0.682	
12.640	0.229	0.671	
12.645	0.015	0.592	
12.650	0.114	0.461	
12.655	-0.075	0.319	
12.660	-0.245	0.178	
12.665	-0.156	0.042	
12.670	-0.104	-0.063	
12.675	-0.274	-0.132	
12.680	-0.239	-0.183	
12.685	-0.112	-0.214	
12.690	-0.219	-0.221	
12.695	-0.255	-0.221	
12.700	-0.080	-0.218	
12.705	-0.113	-0.200	
12.710	-0.239	-0.180	
12.715	-0.132	-0.170	
12.720	-0.042	-0.159	
12.725	-0.182	-0.142	
12.730	-0.147	-0.133	
12.735	0.021	-0.125	
12.740	-0.095	-0.108	
12.745	-0.141	-0.093	
12.750	0.099	-0.082	
12.755	0.029	-0.057	
12.760	-0.126	-0.033	
12.765	0.030	-0.024	
12.770	0.149	-0.011	
12.775	-0.078	0.009	
12.780	-0.017	0.016	
12.785	0.227	0.022	
12.790	0.023	0.042	
12.795	-0.048	0.054	
12.800	0.211	0.057	
12.805	0.142	0.071	
12.810	-0.083	0.084	
12.815	0.104	0.079	
12.820	0.243	0.078	
12.825	-0.038	0.089	
12.830	0.029	0.087	
12.835	0.275	0.083	
12.840	0.046	0.095	
12.845	-0.038	0.098	
12.850	0.177	0.088	
12.855	0.081	0.086	
12.860	-0.119	0.078	
12.865	0.007	0.054	
12.870	0.078	0.030	
12.875	-0.147	0.014	
12.880	-0.135	-0.013	
12.885	0.010	-0.042	
12.890	-0.138	-0.061	
12.895	-0.203	-0.080	
12.900	-0.060	-0.103	
12.905	-0.092	-0.114	
12.910	-0.202	-0.119	
12.915	-0.089	-0.127	
12.920	-0.032	-0.126	
12.925	-0.190	-0.118	
12.930	-0.156	-0.119	
12.935	0.006	-0.120	
12.940	-0.110	-0.110	
12.945	-0.153	-0.102	
12.950	0.052	-0.096	
12.955	0.001	-0.078	
12.960	-0.150	-0.059	
12.965	-0.013	-0.053	
12.970	0.107	-0.043	
12.975	-0.110	-0.027	
12.980	-0.075	-0.022	
12.985	0.111	-0.023	
12.990	-0.049	-0.014	
12.995	-0.107	-0.012	
13.000	0.149	-0.014	
13.005	0.081	0.000	
13.010	-0.135	0.015	
13.015	-0.008	0.011	
13.020	0.119	0.005	
13.025	-0.101	0.007	
13.030	-0.058	0.001	
13.035	0.139	-0.007	
13.040	-0.042	-0.001	
13.045	-0.115	-0.000	
13.050	0.119	-0.007	
13.055	0.067	-0.000	
13.060	-0.107	0.010	
13.065	0.056	0.009	
13.070	0.160	0.014	
13.075	-0.084	0.028	
13.080	-0.046	0.027	
13.085	0.181	0.022	
13.090	-0.026	0.028	
13.095	-0.078	0.029	
13.100	0.168	0.023	
13.105	0.078	0.031	
13.110	-0.116	0.039	
13.115	0.000	0.029	
13.120	0.111	0.018	
13.125	-0.101	0.015	
13.130	-0.052	0.004	
13.135	0.162	-0.004	
13.140	-0.052	0.003	
13.145	-0.104	0.004	
13.150	0.125	-0.003	
13.155	0.085	0.005	
13.160	-0.106	0.017	
13.165	0.044	0.016	
13.170	0.192	0.020	
13.175	-0.066	0.036	
13.180	-0.038	0.037	
13.185	0.148	0.032	
13.190	-0.046	0.033	
13.195	-0.092	0.026	
13.200	0.117	0.012	
13.205	0.068	0.013	
13.210	-0.122	0.017	
13.215	0.021	0.009	
13.220	0.148	0.006	
13.225	-0.077	0.015	
13.230	-0.029	0.015	
13.235	0.223	0.016	
13.240	0.029	0.034	
13.245	-0.063	0.047	
13.250	0.214	0.050	
13.255	0.181	0.067	
13.260	-0.034	0.088	
13.265	0.139	0.094	
13.270	0.256	0.103	
13.275	-0.005	0.118	
13.280	0.056	0.117	
13.285	0.287	0.114	
13.290	0.026	0.121	
13.295	-0.084	0.114	
13.300	0.113	0.088	
13.305	0.056	0.068	
13.310	-0.141	0.050	
13.315	-0.023	0.020	
13.320	0.050	-0.005	
13.325	-0.155	-0.019	
13.330	-0.127	-0.041	
13.335	0.056	-0.060	
13.340	-0.093	-0.064	
13.345	-0.144	-0.066	
13.350	0.035	-0.071	
13.355	-0.014	-0.065	
13.360	-0.176	-0.057	
13.365	-0.060	-0.063	
13.370	0.021	-0.066	
13.375	-0.148	-0.064	
13.380	-0.051	-0.066	
13.385	0.357	-0.050	
13.390	0.372	0.015	
13.395	0.466	0.117	
13.400	0.889	0.246	
13.405	0.910	0.410	
13.410	0.567	0.566	
13.415	0.608	0.661	
13.420	0.519	0.691	
13.425	0.096	0.659	
13.430	0.024	0.556	
13.435	0.134	0.415	
13.440	-0.119	0.277	
13.445	-0.216	0.144	
13.450	-0.092	0.022	
13.455	-0.139	-0.067	
13.460	-0.294	-0.129	
13.465	-0.208	-0.179	
13.470	-0.141	-0.210	
13.475	-0.275	-0.221	
13.480	-0.236	-0.229	
13.485	-0.084	-0.229	
13.490	-0.197	-0.214	
13.495	-0.242	-0.201	
13.500	-0.071	-0.192	
13.505	-0.075	-0.173	
13.510	-0.208	-0.152	
13.515	-0.080	-0.140	
13.520	0.067	-0.122	
13.525	-0.144	-0.095	
13.530	-0.132	-0.080	
13.535	0.050	-0.075	
13.540	-0.113	-0.065	
13.545	-0.147	-0.063	
13.550	0.085	-0.065	
13.555	0.075	-0.050	
13.560	-0.097	-0.027	
13.565	0.072	-0.013	
13.570	0.215	0.009	
13.575	-0.057	0.038	
13.580	-0.009	0.050	
13.585	0.238	0.054	
13.590	0.042	0.069	
13.595	-0.037	0.077	
13.600	0.249	0.077	
13.605	0.211	0.094	
13.610	-0.028	0.114	
13.615	0.154	0.117	
13.620	0.285	0.123	
13.625	-0.014	0.136	
13.630	-0.022	0.129	
13.635	0.212	0.108	
13.640	0.001	0.097	
13.645	-0.106	0.078	
13.650	0.064	0.048	
13.655	-0.020	0.024	
13.660	-0.193	0.000	
13.665	-0.098	-0.035	
13.670	0.000	-0.063	
13.675	-0.164	-0.078	
13.680	-0.158	-0.093	
13.685	-0.028	-0.107	
13.690	-0.142	-0.110	
13.695	-0.193	-0.115	
13.700	-0.005	-0.121	
13.705	-0.037	-0.112	
13.710	-0.193	-0.100	
13.715	-0.063	-0.098	
13.720	0.033	-0.092	
13.725	-0.161	-0.079	
13.730	-0.132	-0.078	
13.735	0.068	-0.079	
13.740	-0.083	-0.069	
13.745	-0.158	-0.063	
13.750	0.036	-0.065	
13.755	0.032	-0.056	
13.760	-0.139	-0.044	
13.765	-0.006	-0.041	
13.770	0.128	-0.033	
13.775	-0.118	-0.017	
13.780	-0.077	-0.015	
13.785	0.133	-0.017	
13.790	-0.037	-0.008	
13.795	-0.106	-0.004	
13.800	0.117	-0.008	
13.805	0.085	0.002	
13.810	-0.101	0.015	
13.815	0.052	0.016	
13.820	0.139	0.019	
13.825	-0.090	0.029	
13.830	-0.081	0.022	
13.835	0.114	0.009	
13.840	-0.052	0.005	
13.845	-0.098	-0.002	
13.850	0.131	-0.011	
13.855	0.107	-0.000	
13.860	-0.112	0.016	
13.865	0.009	0.016	
13.870	0.148	0.015	
13.875	-0.084	0.022	
13.880	-0.081	0.017	
13.885	0.143	0.006	
13.890	-0.005	0.009	
13.895	-0.093	0.011	
13.900	0.130	0.007	
13.905	0.085	0.015	
13.910	-0.112	0.025	
13.915	-0.002	0.019	
13.920	0.145	0.014	
13.925	-0.090	0.018	
13.930	-0.072	0.011	
13.935	0.175	0.004	
13.940	-0.019	0.011	
13.945	-0.122	0.013	
13.950	0.087	0.004	
13.955	0.058	0.004	
13.960	-0.122	0.006	
13.965	0.010	-0.002	
13.970	0.159	-0.003	
13.975	-0.098	0.008	
13.980	-0.063	0.007	
13.985	0.172	0.003	
13.990	-0.005	0.013	
13.995	-0.080	0.020	
14.000	0.157	0.019	
14.005	0.127	0.032	
14.010	-0.078	0.047	
14.015	0.081	0.049	
14.020	0.232	0.055	
14.025	-0.029	0.072	
14.030	0.006	0.075	
14.035	0.249	0.073	
14.040	0.094	0.087	
14.045	-0.003	0.097	
14.050	0.232	0.099	
14.055	0.218	0.113	
14.060	-0.043	0.128	
14.065	0.125	0.124	
14.070	0.256	0.120	
14.075	-0.058	0.123	
14.080	-0.101	0.103	
14.085	0.084	0.066	
14.090	-0.054	0.037	
14.095	-0.141	0.008	
14.100	0.050	-0.021	
14.105	0.030	-0.032	
14.110	-0.152	-0.033	
14.115	-0.064	-0.043	
14.120	0.041	-0.051	
14.125	-0.150	-0.052	
14.130	-0.139	-0.061	
14.135	0.064	-0.071	
14.140	-0.074	-0.067	
14.145	-0.173	-0.064	
14.150	-0.008	-0.071	
14.155	0.018	-0.069	
14.160	-0.063	-0.057	
14.165	0.249	-0.034	
14.170	0.644	0.033	
14.175	0.592	0.159	
14.180	0.735	0.309	
14.185	0.959	0.466	
14.190	0.635	0.608	
14.195	0.249	0.681	
14.200	0.331	0.658	
14.205	0.181	0.576	
14.210	-0.106	0.456	
14.215	-0.052	0.310	
14.220	-0.019	0.170	
14.225	-0.217	0.056	
14.230	-0.222	-0.042	
14.235	-0.083	-0.117	
14.240	-0.191	-0.158	
14.245	-0.274	-0.184	
14.250	-0.135	-0.203	
14.255	-0.121	-0.205	
14.260	-0.262	-0.198	
14.265	-0.161	-0.195	
14.270	-0.043	-0.187	
14.275	-0.187	-0.168	
14.280	-0.182	-0.155	
14.285	0.024	-0.145	
14.290	-0.095	-0.123	
14.295	-0.167	-0.106	
14.300	0.020	-0.096	
14.305	0.036	-0.078	
14.310	-0.135	-0.057	
14.315	-0.035	-0.048	
14.320	0.117	-0.039	
14.325	-0.087	-0.022	
14.330	-0.078	-0.016	
14.335	0.168	-0.014	
14.340	0.010	0.002	
14.345	-0.090	0.014	
14.350	0.120	0.015	
14.355	0.125	0.026	
14.360	-0.071	0.040	
14.365	0.079	0.042	
14.370	0.258	0.052	
14.375	-0.005	0.074	
14.380	0.001	0.083	
14.385	0.272	0.084	
14.390	0.093	0.099	
14.395	-0.052	0.107	
14.400	0.191	0.099	
14.405	0.160	0.099	
14.410	-0.095	0.101	
14.415	0.018	0.082	
14.420	0.175	0.063	
14.425	-0.090	0.055	
14.430	-0.097	0.036	
14.435	0.094	0.012	
14.440	-0.074	-0.002	
14.445	-0.184	-0.019	
14.450	-0.057	-0.047	
14.455	-0.066	-0.069	
14.460	-0.226	-0.086	
14.465	-0.132	-0.109	
14.470	-0.017	-0.123	
14.475	-0.173	-0.123	
14.480	-0.158	-0.124	
14.485	0.044	-0.123	
14.490	-0.081	-0.106	
14.495	-0.168	-0.092	
14.500	-0.006	-0.087	
14.505	-0.009	-0.078	
14.510	-0.162	-0.067	
14.515	-0.069	-0.068	
14.520	0.085	-0.066	
14.525	-0.116	-0.054	
14.530	-0.107	-0.049	
14.535	0.133	-0.047	
14.540	-0.011	-0.031	
14.545	-0.115	-0.017	
14.550	0.062	-0.015	
14.555	0.052	-0.009	
14.560	-0.124	-0.002	
14.565	-0.006	-0.008	
14.570	0.162	-0.008	
14.575	-0.069	0.005	
14.580	-0.080	0.008	
14.585	0.133	0.003	
14.590	0.015	0.010	
14.595	-0.086	0.015	
14.600	0.142	0.014	
14.605	0.097	0.024	
14.610	-0.116	0.035	
14.615	-0.020	0.027	
14.620	0.159	0.018	
14.625	-0.074	0.021	
14.630	-0.058	0.016	
14.635	0.169	0.010	
14.640	0.006	0.018	
14.645	-0.104	0.022	
14.650	0.084	0.015	
14.655	0.087	0.015	
14.660	-0.121	0.019	
14.665	0.003	0.010	
14.670	0.181	0.007	
14.675	-0.072	0.018	
14.680	-0.080	0.018	
14.685	0.156	0.011	
14.690	0.015	0.017	
14.695	-0.101	0.021	
14.700	0.105	0.015	
14.705	0.131	0.020	
14.710	-0.109	0.031	
14.715	0.017	0.028	
14.720	0.204	0.027	
14.725	-0.052	0.039	
14.730	-0.046	0.040	
14.735	0.186	0.035	
14.740	0.050	0.043	
14.745	-0.048	0.051	
14.750	0.197	0.052	
14.755	0.198	0.068	
14.760	-0.046	0.089	
14.765	0.113	0.093	
14.770	0.295	0.099	
14.775	0.010	0.117	
14.780	-0.011	0.118	
14.785	0.218	0.107	
14.790	0.007	0.101	
14.795	-0.141	0.084	
14.800	0.036	0.049	
14.805	0.039	0.022	
14.810	-0.153	0.002	
14.815	-0.063	-0.023	
14.820	0.072	-0.041	
14.825	-0.126	-0.044	
14.830	-0.136	-0.052	
14.835	0.058	-0.062	
14.840	-0.057	-0.059	
14.845	-0.147	-0.056	
14.850	0.052	-0.058	
14.855	0.013	-0.050	
14.860	-0.202	-0.042	
14.865	-0.107	-0.054	
14.870	0.082	-0.065	
14.875	-0.028	-0.057	
14.880	0.122	-0.036	
14.885	0.638	0.021	
14.890	0.680	0.141	
14.895	0.545	0.291	
14.900	0.751	0.427	
14.905	0.625	0.539	
14.910	0.110	0.592	
14.915	0.079	0.551	
14.920	0.168	0.450	
14.925	-0.098	0.331	
14.930	-0.136	0.204	
14.935	0.006	0.087	
14.940	-0.116	0.003	
14.945	-0.220	-0.060	
14.950	-0.077	-0.109	
14.955	-0.081	-0.134	
14.960	-0.242	-0.144	
14.965	-0.159	-0.155	
14.970	-0.042	-0.160	
14.975	-0.187	-0.153	
14.980	-0.190	-0.149	
14.985	0.006	-0.145	
14.990	-0.075	-0.128	
14.995	-0.164	-0.111	
15.000	0.003	-0.100	
15.005	0.006	-0.083	
15.010	-0.168	-0.067	
15.015	-0.061	-0.064	
15.020	0.110	-0.060	
15.025	-0.080	-0.043	
15.030	-0.077	-0.032	
15.035	0.166	-0.024	
15.040	0.030	-0.003	
15.045	-0.072	0.016	
15.050	0.165	0.024	
15.055	0.232	0.046	
15.060	-0.066	0.075	
15.065	0.030	0.081	
15.070	0.218	0.079	
15.075	-0.026	0.084	
15.080	-0.034	0.077	
15.085	0.272	0.067	
15.090	0.120	0.079	
15.095	-0.061	0.091	
15.100	0.168	0.088	
15.105	0.194	0.092	
15.110	-0.054	0.100	
15.115	0.067	0.092	
15.120	0.249	0.087	
15.125	-0.029	0.093	
15.130	-0.078	0.084	
15.135	0.105	0.060	
15.140	-0.023	0.042	
15.145	-0.138	0.022	
15.150	0.007	-0.005	
15.155	0.006	-0.023	
15.160	-0.185	-0.035	
15.165	-0.135	-0.058	
15.170	-0.032	-0.081	
15.175	-0.177	-0.094	
15.180	-0.196	-0.111	
15.185	-0.046	-0.127	
15.190	-0.106	-0.129	
15.195	-0.199	-0.128	
15.200	-0.040	-0.129	
15.205	-0.016	-0.119	
15.210	-0.177	-0.104	
15.215	-0.086	-0.098	
15.220	0.097	-0.089	
15.225	-0.126	-0.069	
15.230	-0.145	-0.060	
15.235	0.044	-0.062	
15.240	-0.048	-0.056	
15.245	-0.164	-0.053	
15.250	0.001	-0.059	
15.255	0.065	-0.055	
15.260	-0.127	-0.043	
15.265	-0.043	-0.040	
15.270	0.107	-0.036	
15.275	-0.095	-0.024	
15.280	-0.098	-0.022	
15.285	0.142	-0.024	
15.290	0.026	-0.011	
15.295	-0.106	0.002	
15.300	0.105	0.004	
15.305	0.154	0.016	
15.310	-0.087	0.034	
15.315	-0.028	0.035	
15.320	0.127	0.028	
15.325	-0.071	0.026	
15.330	-0.072	0.017	
15.335	0.175	0.007	
15.340	0.039	0.016	
15.345	-0.100	0.024	
15.350	0.099	0.021	
15.355	0.157	0.028	
15.360	-0.086	0.041	
15.365	-0.031	0.038	
15.370	0.101	0.027	
15.375	-0.092	0.020	
15.380	-0.097	0.005	
15.385	0.145	-0.010	
15.390	0.018	-0.006	
15.395	-0.110	0.001	
15.400	0.088	-0.002	
15.405	0.156	0.008	
15.410	-0.083	0.026	
15.415	-0.003	0.029	
15.420	0.217	0.031	
15.425	-0.002	0.046	
15.430	-0.003	0.055	
15.435	0.272	0.061	
15.440	0.162	0.085	
15.445	-0.008	0.108	
15.450	0.211	0.116	
15.455	0.264	0.130	
15.460	-0.052	0.144	
15.465	0.009	0.133	
15.470	0.186	0.109	
15.475	-0.072	0.092	
15.480	-0.106	0.064	
15.485	0.099	0.029	
15.490	-0.031	0.010	
15.495	-0.147	-0.007	
15.500	-0.003	-0.029	
15.505	0.015	-0.040	
15.510	-0.177	-0.046	
15.515	-0.104	-0.061	
15.520	0.056	-0.072	
15.525	-0.112	-0.069	
15.530	-0.136	-0.069	
15.535	0.041	-0.072	
15.540	-0.058	-0.065	
15.545	-0.156	-0.061	
15.550	0.026	-0.063	
15.555	0.181	-0.049	
15.560	0.000	-0.015	
15.565	0.290	0.026	
15.570	0.690	0.100	
15.575	0.571	0.221	
15.580	0.531	0.349	
15.585	0.702	0.456	
15.590	0.377	0.530	
15.595	-0.032	0.535	
15.600	0.056	0.456	
15.605	0.058	0.339	
15.610	-0.153	0.220	
15.615	-0.101	0.105	
15.620	0.036	0.014	
15.625	-0.164	-0.042	
15.630	-0.197	-0.084	
15.635	-0.055	-0.118	
15.640	-0.112	-0.132	
15.645	-0.228	-0.138	
15.650	-0.100	-0.146	
15.655	-0.043	-0.145	
15.660	-0.200	-0.135	
15.665	-0.135	-0.132	
15.670	0.033	-0.127	
15.675	-0.124	-0.109	
15.680	-0.147	-0.097	
15.685	0.062	-0.090	
15.690	-0.014	-0.071	
15.695	-0.132	-0.053	
15.700	0.036	-0.046	
15.705	0.102	-0.032	
15.710	-0.139	-0.014	
15.715	-0.086	-0.015	
15.720	0.156	-0.020	
15.725	-0.025	-0.009	
15.730	-0.051	0.000	
15.735	0.227	0.009	
15.740	0.119	0.036	
15.745	-0.058	0.062	
15.750	0.163	0.070	
15.755	0.211	0.084	
15.760	-0.043	0.100	
15.765	0.059	0.098	
15.770	0.276	0.095	
15.775	0.042	0.106	
15.780	-0.017	0.108	
15.785	0.243	0.101	
15.790	0.120	0.105	
15.795	-0.071	0.107	
15.800	0.104	0.092	
15.805	0.168	0.082	
15.810	-0.078	0.078	
15.815	-0.037	0.061	
15.820	0.124	0.040	
15.825	-0.104	0.027	
15.830	-0.147	0.005	
15.835	0.021	-0.024	
15.840	-0.072	-0.042	
15.845	-0.200	-0.058	
15.850	-0.075	-0.081	
15.855	-0.032	-0.094	
15.860	-0.200	-0.100	
15.865	-0.152	-0.111	
15.870	-0.022	-0.120	
15.875	-0.181	-0.120	
15.880	-0.184	-0.124	
15.885	0.001	-0.128	
15.890	-0.057	-0.117	
15.895	-0.176	-0.104	
15.900	-0.029	-0.098	
15.905	0.058	-0.086	
15.910	-0.142	-0.066	
15.915	-0.077	-0.058	
15.920	0.110	-0.052	
15.925	-0.078	-0.037	
15.930	-0.139	-0.031	
15.935	0.047	-0.037	
15.940	0.000	-0.035	
15.945	-0.136	-0.032	
15.950	0.020	-0.036	
15.955	0.088	-0.032	
15.960	-0.116	-0.020	
15.965	-0.045	-0.019	
15.970	0.175	-0.017	
15.975	-0.051	-0.001	
15.980	-0.095	0.006	
15.985	0.130	0.004	
15.990	0.053	0.012	
15.995	-0.103	0.020	
16.000	0.064	0.016	
16.005	0.151	0.019	
16.010	-0.097	0.030	
16.015	-0.038	0.026	
16.020	0.160	0.018	
16.025	-0.049	0.022	
16.030	-0.109	0.018	
16.035	0.113	0.005	
16.040	0.046	0.006	
16.045	-0.104	0.009	
16.050	0.064	0.005	
16.055	0.149	0.010	
16.060	-0.078	0.024	
16.065	-0.008	0.025	
16.070	0.212	0.027	
16.075	-0.011	0.041	
16.080	-0.060	0.047	
16.085	0.195	0.044	
16.090	0.120	0.055	
16.095	-0.049	0.068	
16.100	0.181	0.072	
16.105	0.269	0.087	
16.110	-0.040	0.110	
16.115	0.015	0.110	
16.120	0.263	0.102	
16.125	0.021	0.105	
16.130	-0.071	0.098	
16.135	0.120	0.076	
16.140	0.009	0.060	
16.145	-0.147	0.040	
16.150	-0.003	0.010	
16.155	0.081	-0.010	
16.160	-0.127	-0.017	
16.165	-0.078	-0.028	
16.170	0.064	-0.039	
16.175	-0.107	-0.040	
16.180	-0.150	-0.047	
16.185	0.050	-0.058	
16.190	-0.011	-0.056	
16.195	-0.167	-0.051	
16.200	-0.043	-0.057	
16.205	0.027	-0.060	
16.210	-0.155	-0.057	
16.215	-0.115	-0.063	
16.220	0.110	-0.067	
16.225	0.018	-0.051	
16.230	0.101	-0.023	
16.235	0.592	0.033	
16.240	0.681	0.145	
16.245	0.542	0.289	
16.250	0.727	0.421	
16.255	0.666	0.531	
16.260	0.165	0.590	
16.265	0.076	0.559	
16.270	0.198	0.465	
16.275	-0.064	0.351	
16.280	-0.162	0.227	
16.285	-0.029	0.104	
16.290	-0.086	0.010	
16.295	-0.246	-0.058	
16.300	-0.142	-0.114	
16.305	-0.072	-0.149	
16.310	-0.217	-0.161	
16.315	-0.184	-0.170	
16.320	-0.037	-0.171	
16.325	-0.188	-0.161	
16.330	-0.196	-0.154	
16.335	0.001	-0.149	
16.340	-0.058	-0.131	
16.345	-0.182	-0.111	
16.350	-0.064	-0.104	
16.355	0.017	-0.094	
16.360	-0.144	-0.080	
16.365	-0.089	-0.075	
16.370	0.110	-0.069	
16.375	-0.058	-0.049	
16.380	-0.107	-0.036	
16.385	0.122	-0.030	
16.390	0.058	-0.012	
16.395	-0.092	0.005	
16.400	0.099	0.012	
16.405	0.174	0.026	
16.410	-0.049	0.046	
16.415	0.009	0.052	
16.420	0.215	0.053	
16.425	0.017	0.065	
16.430	-0.035	0.069	
16.435	0.255	0.067	
16.440	0.168	0.084	
16.445	-0.046	0.101	
16.450	0.151	0.102	
16.455	0.255	0.107	
16.460	-0.042	0.118	
16.465	0.009	0.110	
16.470	0.226	0.095	
16.475	-0.009	0.091	
16.480	-0.089	0.078	
16.485	0.133	0.054	
16.490	0.023	0.042	
16.495	-0.176	0.028	
16.500	-0.068	-0.002	
16.505	-0.016	-0.032	
16.510	-0.188	-0.054	
16.515	-0.168	-0.080	
16.520	-0.022	-0.104	
16.525	-0.144	-0.113	
16.530	-0.187	-0.119	
16.535	-0.014	-0.125	
16.540	-0.049	-0.117	
16.545	-0.184	-0.105	
16.550	-0.074	-0.102	
16.555	-0.002	-0.098	
16.560	-0.167	-0.088	
16.565	-0.113	-0.088	
16.570	0.102	-0.085	
16.575	-0.054	-0.067	
16.580	-0.142	-0.052	
16.585	0.021	-0.050	
16.590	-0.035	-0.046	
16.595	-0.187	-0.046	
16.600	-0.043	-0.059	
16.605	0.065	-0.064	
16.610	-0.116	-0.056	
16.615	-0.069	-0.052	
16.620	0.159	-0.045	
16.625	-0.052	-0.025	
16.630	-0.109	-0.012	
16.635	0.099	-0.012	
16.640	0.062	-0.003	
16.645	-0.110	0.008	
16.650	0.041	0.006	
16.655	0.124	0.008	
16.660	-0.089	0.017	
16.665	-0.058	0.013	
16.670	0.148	0.006	
16.675	-0.025	0.011	
16.680	-0.092	0.012	
16.685	0.140	0.007	
16.690	0.044	0.014	
16.695	-0.136	0.019	
16.700	0.018	0.008	
16.705	0.169	0.005	
16.710	-0.089	0.014	
16.715	-0.051	0.014	
16.720	0.175	0.010	
16.725	-0.020	0.020	
16.730	-0.098	0.022	
16.735	0.145	0.016	
16.740	0.087	0.023	
16.745	-0.089	0.033	
16.750	0.052	0.030	
16.755	0.203	0.033	
16.760	-0.049	0.047	
16.765	-0.017	0.049	
16.770	0.221	0.048	
16.775	0.023	0.059	
16.780	-0.058	0.063	
16.785	0.198	0.058	
16.790	0.168	0.069	
16.795	-0.034	0.084	
16.800	0.133	0.087	
16.805	0.256	0.095	
16.810	-0.013	0.110	
16.815	0.015	0.109	
16.820	0.214	0.099	
16.825	-0.028	0.095	
16.830	-0.115	0.077	
16.835	0.067	0.046	
16.840	0.001	0.023	
16.845	-0.159	0.003	
16.850	-0.031	-0.023	
16.855	0.093	-0.038	
16.860	-0.124	-0.037	
16.865	-0.098	-0.041	
16.870	0.053	-0.048	
16.875	-0.101	-0.047	
16.880	-0.152	-0.051	
16.885	0.013	-0.062	
16.890	-0.029	-0.063	
16.895	-0.182	-0.062	
16.900	-0.058	-0.071	
16.905	0.094	-0.072	
16.910	-0.045	-0.055	
16.915	0.152	-0.029	
16.920	0.608	0.029	
16.925	0.606	0.143	
16.930	0.629	0.286	
16.935	0.935	0.433	
16.940	0.782	0.576	
16.945	0.305	0.670	
16.950	0.261	0.669	
16.955	0.269	0.595	
16.960	-0.069	0.483	
16.965	-0.106	0.340	
16.970	0.015	0.194	
16.975	-0.138	0.077	
16.980	-0.246	-0.018	
16.985	-0.138	-0.097	
16.990	-0.156	-0.149	
16.995	-0.284	-0.181	
17.000	-0.170	-0.205	
17.005	-0.078	-0.211	
17.010	-0.240	-0.201	
17.015	-0.208	-0.195	
17.020	-0.043	-0.188	
17.025	-0.147	-0.170	
17.030	-0.199	-0.155	
17.035	0.003	-0.144	
17.040	-0.009	-0.121	
17.045	-0.165	-0.096	
17.050	-0.049	-0.084	
17.055	0.052	-0.072	
17.060	-0.141	-0.057	
17.065	-0.119	-0.055	
17.070	0.119	-0.056	
17.075	-0.051	-0.043	
17.080	-0.126	-0.034	
17.085	0.108	-0.032	
17.090	0.096	-0.016	
17.095	-0.080	0.004	
17.100	0.067	0.014	
17.105	0.191	0.027	
17.110	-0.043	0.048	
17.115	0.024	0.055	
17.120	0.263	0.061	
17.125	0.053	0.080	
17.130	-0.035	0.090	
17.135	0.246	0.089	
17.140	0.218	0.103	
17.145	-0.068	0.119	
17.150	0.082	0.113	
17.155	0.212	0.103	
17.160	-0.057	0.100	
17.165	-0.042	0.083	
17.170	0.171	0.060	
17.175	-0.058	0.049	
17.180	-0.156	0.030	
17.185	0.009	-0.002	
17.190	-0.028	-0.025	
17.195	-0.200	-0.043	
17.200	-0.083	-0.067	
17.205	0.010	-0.083	
17.210	-0.173	-0.087	
17.215	-0.161	-0.095	
17.220	0.013	-0.104	
17.225	-0.109	-0.100	
17.230	-0.177	-0.098	
17.235	-0.011	-0.100	
17.240	-0.023	-0.093	
17.245	-0.197	-0.084	
17.250	-0.077	-0.087	
17.255	0.050	-0.086	
17.260	-0.144	-0.076	
17.265	-0.107	-0.072	
17.270	0.128	-0.068	
17.275	-0.055	-0.049	
17.280	-0.130	-0.036	
17.285	0.059	-0.034	
17.290	0.020	-0.027	
17.295	-0.138	-0.020	
17.300	0.004	-0.025	
17.305	0.125	-0.023	
17.310	-0.100	-0.010	
17.315	-0.069	-0.009	
17.320	0.171	-0.010	
17.325	-0.002	0.004	
17.330	-0.116	0.013	
17.335	0.070	0.007	
17.340	0.081	0.008	
17.345	-0.121	0.012	
17.350	-0.016	0.003	
17.355	0.134	-0.002	
17.360	-0.084	0.003	
17.365	-0.058	0.001	
17.370	0.188	-0.001	
17.375	0.015	0.014	
17.380	-0.077	0.025	
17.385	0.149	0.026	
17.390	0.137	0.039	
17.395	-0.097	0.053	
17.400	-0.019	0.047	
17.405	0.116	0.034	
17.410	-0.090	0.027	
17.415	-0.068	0.013	
17.420	0.143	-0.000	
17.425	-0.040	0.001	
17.430	-0.129	-0.001	
17.435	0.096	-0.011	
17.440	0.091	-0.007	
17.445	-0.116	0.004	
17.450	0.003	0.002	
17.455	0.178	0.004	
17.460	-0.077	0.017	
17.465	-0.069	0.018	
17.470	0.156	0.013	
17.475	-0.013	0.018	
17.480	-0.109	0.019	
17.485	0.107	0.010	
17.490	0.081	0.012	
17.495	-0.110	0.018	
17.500	0.020	0.012	
17.505	0.156	0.011	
17.510	-0.087	0.020	
17.515	-0.074	0.016	
17.520	0.133	0.006	
17.525	-0.031	0.008	
17.530	-0.098	0.006	
17.535	0.137	-0.000	
17.540	0.125	0.011	
17.545	-0.095	0.028	
17.550	0.067	0.031	
17.555	0.229	0.039	
17.560	-0.029	0.059	
17.565	0.000	0.066	
17.570	0.276	0.068	
17.575	0.081	0.086	
17.580	-0.046	0.097	
17.585	0.220	0.094	
17.590	0.227	0.104	
17.595	-0.042	0.119	
17.600	0.059	0.114	
17.605	0.206	0.103	
17.610	-0.066	0.098	
17.615	-0.081	0.077	
17.620	0.128	0.047	
17.625	-0.032	0.031	
17.630	-0.129	0.014	
17.635	0.053	-0.008	
17.640	0.020	-0.017	
17.645	-0.168	-0.022	
17.650	-0.081	-0.039	
17.655	0.035	-0.054	
17.660	-0.145	-0.058	
17.665	-0.135	-0.068	
17.670	0.062	-0.076	
17.675	-0.066	-0.070	
17.680	-0.182	-0.065	
17.685	-0.054	-0.073	
17.690	-0.037	-0.079	
17.695	-0.109	-0.078	
17.700	0.211	-0.065	
17.705	0.539	-0.008	
17.710	0.461	0.103	
17.715	0.666	0.236	
17.720	1.011	0.388	
17.725	0.758	0.550	
17.730	0.464	0.666	
17.735	0.531	0.702	
17.740	0.345	0.677	
17.745	-0.043	0.594	
17.750	-0.025	0.454	
17.755	0.007	0.298	
17.760	-0.213	0.156	
17.765	-0.228	0.027	
17.770	-0.106	-0.077	
17.775	-0.211	-0.144	
17.780	-0.306	-0.189	
17.785	-0.142	-0.220	
17.790	-0.122	-0.228	
17.795	-0.258	-0.220	
17.800	-0.162	-0.212	
17.805	-0.058	-0.199	
17.810	-0.208	-0.178	
17.815	-0.185	-0.165	
17.820	-0.009	-0.156	
17.825	-0.104	-0.136	
17.830	-0.185	-0.120	
17.835	-0.037	-0.114	
17.840	0.000	-0.102	
17.845	-0.167	-0.086	
17.850	-0.066	-0.081	
17.855	0.079	-0.074	
17.860	-0.126	-0.058	
17.865	-0.100	-0.052	
17.870	0.145	-0.048	
17.875	-0.013	-0.029	
17.880	-0.122	-0.014	
17.885	0.131	-0.010	
17.890	0.177	0.008	
17.895	-0.035	0.037	
17.900	0.108	0.054	
17.905	0.232	0.071	
17.910	-0.019	0.092	
17.915	0.015	0.095	
17.920	0.311	0.094	
17.925	0.111	0.111	
17.930	-0.035	0.121	
17.935	0.163	0.114	
17.940	0.143	0.109	
17.945	-0.087	0.103	
17.950	0.030	0.081	
17.955	0.159	0.062	
17.960	-0.087	0.053	
17.965	-0.098	0.033	
17.970	0.104	0.009	
17.975	-0.035	-0.001	
17.980	-0.161	-0.012	
17.985	-0.014	-0.032	
17.990	-0.034	-0.046	
17.995	-0.217	-0.059	
18.000	-0.113	-0.081	
18.005	0.007	-0.097	
18.010	-0.168	-0.099	
18.015	-0.155	-0.104	
18.020	0.035	-0.108	
18.025	-0.095	-0.098	
18.030	-0.190	-0.091	
18.035	-0.034	-0.094	
18.040	-0.017	-0.091	
18.045	-0.168	-0.084	
18.050	-0.074	-0.084	
18.055	0.052	-0.081	
18.060	-0.130	-0.069	
18.065	-0.119	-0.066	
18.070	0.104	-0.064	
18.075	-0.011	-0.048	
18.080	-0.118	-0.033	
18.085	0.073	-0.027	
18.090	0.070	-0.015	
18.095	-0.127	-0.002	
18.100	-0.026	-0.005	
18.105	0.152	-0.007	
18.110	-0.069	0.003	
18.115	-0.072	0.005	
18.120	0.165	0.003	
18.125	-0.013	0.012	
18.130	-0.135	0.015	
18.135	0.027	0.002	
18.140	0.062	-0.006	
18.145	-0.103	-0.006	
18.150	0.009	-0.011	
18.155	0.172	-0.008	
18.160	-0.058	0.009	
18.165	-0.069	0.015	
18.170	0.192	0.015	
18.175	0.015	0.027	
18.180	-0.089	0.035	
18.185	0.111	0.029	
18.190	0.122	0.033	
18.195	-0.115	0.040	
18.200	-0.014	0.030	
18.205	0.146	0.020	
18.210	-0.092	0.020	
18.215	-0.100	0.010	
18.220	0.130	-0.004	
18.225	-0.043	-0.005	
18.230	-0.139	-0.009	
18.235	0.062	-0.021	
18.240	0.119	-0.018	
18.245	-0.093	-0.004	
18.250	0.001	0.001	
18.255	0.166	0.006	
18.260	-0.052	0.021	
18.265	-0.078	0.023	
18.270	0.149	0.018	
18.275	-0.003	0.022	
18.280	-0.115	0.021	
18.285	0.113	0.011	
18.290	0.124	0.015	
18.295	-0.119	0.025	
18.300	-0.019	0.019	
18.305	0.174	0.014	
18.310	-0.051	0.021	
18.315	-0.061	0.022	
18.320	0.175	0.018	
18.325	0.003	0.026	
18.330	-0.104	0.029	
18.335	0.119	0.021	
18.340	0.146	0.026	
18.345	-0.080	0.039	
18.350	0.012	0.038	
18.355	0.208	0.038	
18.360	-0.032	0.049	
18.365	-0.061	0.049	
18.370	0.221	0.043	
18.375	0.065	0.053	
18.380	-0.043	0.062	
18.385	0.229	0.065	
18.390	0.261	0.085	
18.395	-0.032	0.113	
18.400	0.085	0.119	
18.405	0.259	0.118	
18.410	-0.003	0.123	
18.415	-0.023	0.114	
18.420	0.227	0.097	
18.425	0.036	0.092	
18.430	-0.132	0.080	
18.435	0.044	0.051	
18.440	0.055	0.028	
18.445	-0.144	0.012	
18.450	-0.061	-0.012	
18.455	0.046	-0.031	
18.460	-0.136	-0.040	
18.465	-0.144	-0.054	
18.470	0.053	-0.068	
18.475	-0.043	-0.066	
18.480	-0.144	-0.061	
18.485	0.009	-0.062	
18.490	0.009	-0.057	
18.495	-0.184	-0.051	
18.500	-0.097	-0.059	
18.505	0.174	-0.062	
18.510	0.104	-0.036	
18.515	0.287	0.015	
18.520	0.831	0.106	
18.525	0.838	0.260	
18.530	0.657	0.434	
18.535	0.861	0.578	
18.540	0.693	0.684	
18.545	0.175	0.722	
18.550	0.139	0.662	
18.555	0.217	0.541	
18.560	-0.106	0.403	
18.565	-0.170	0.254	
18.570	-0.068	0.109	
18.575	-0.179	-0.004	
18.580	-0.284	-0.092	
18.585	-0.159	-0.160	
18.590	-0.138	-0.198	
18.595	-0.284	-0.213	
18.600	-0.207	-0.224	
18.605	-0.093	-0.224	
18.610	-0.220	-0.211	
18.615	-0.219	-0.201	
18.620	-0.057	-0.191	
18.625	-0.138	-0.173	
18.630	-0.231	-0.158	
18.635	-0.080	-0.153	
18.640	-0.038	-0.142	
18.645	-0.190	-0.126	
18.650	-0.100	-0.119	
18.655	0.082	-0.108	
18.660	-0.103	-0.084	
18.665	-0.100	-0.067	
18.670	0.101	-0.056	
18.675	-0.031	-0.037	
18.680	-0.126	-0.024	
18.685	0.096	-0.022	
18.690	0.168	-0.007	
18.695	-0.055	0.020	
18.700	0.067	0.035	
18.705	0.267	0.052	
18.710	-0.011	0.078	
18.715	-0.040	0.086	
18.720	0.235	0.080	
18.725	0.124	0.088	
18.730	-0.035	0.097	
18.735	0.204	0.095	
18.740	0.246	0.105	
18.745	-0.045	0.121	
18.750	0.055	0.116	
18.755	0.246	0.106	
18.760	-0.017	0.107	
18.765	-0.068	0.094	
18.770	0.134	0.069	
18.775	-0.006	0.053	
18.780	-0.164	0.034	
18.785	-0.031	0.001	
18.790	-0.028	-0.027	
18.795	-0.211	-0.049	
18.800	-0.164	-0.080	
18.805	-0.043	-0.107	
18.810	-0.182	-0.120	
18.815	-0.194	-0.132	
18.820	0.007	-0.140	
18.825	-0.064	-0.129	
18.830	-0.181	-0.114	
18.835	-0.026	-0.106	
18.840	0.001	-0.094	
18.845	-0.176	-0.079	
18.850	-0.092	-0.078	
18.855	0.090	-0.075	
18.860	-0.110	-0.061	
18.865	-0.122	-0.055	
18.870	0.088	-0.054	
18.875	-0.068	-0.044	
18.880	-0.182	-0.042	
18.885	-0.023	-0.054	
18.890	0.038	-0.059	
18.895	-0.135	-0.054	
18.900	-0.038	-0.054	
18.905	0.189	-0.045	
18.910	-0.058	-0.020	
18.915	-0.089	-0.004	
18.920	0.160	0.001	
18.925	0.042	0.016	
18.930	-0.095	0.027	
18.935	0.088	0.025	
18.940	0.140	0.029	
18.945	-0.107	0.038	
18.950	-0.035	0.031	
18.955	0.151	0.020	
18.960	-0.058	0.021	
18.965	-0.116	0.013	
18.970	0.082	-0.002	
18.975	0.003	-0.007	
18.980	-0.130	-0.010	
18.985	0.052	-0.019	
18.990	0.145	-0.015	
18.995	-0.083	0.002	
19.000	0.012	0.010	
19.005	0.215	0.019	
19.010	-0.020	0.039	
19.015	-0.060	0.047	
19.020	0.204	0.046	
19.025	0.049	0.055	
19.030	-0.127	0.057	
19.035	0.046	0.040	
19.040	0.096	0.027	
19.045	-0.124	0.021	
19.050	-0.068	0.004	
19.055	0.137	-0.011	
19.060	-0.069	-0.010	
19.065	-0.092	-0.012	
19.070	0.180	-0.014	
19.075	0.073	0.003	
19.080	-0.107	0.021	
19.085	0.108	0.025	
19.090	0.145	0.033	
19.095	-0.084	0.046	
19.100	0.003	0.043	
19.105	0.192	0.039	
19.110	-0.048	0.045	
19.115	-0.072	0.041	
19.120	0.186	0.031	
19.125	0.039	0.036	
19.130	-0.110	0.039	
19.135	0.075	0.029	
19.140	0.160	0.027	
19.145	-0.072	0.036	
19.150	0.046	0.037	
19.155	0.288	0.045	
19.160	0.065	0.072	
19.165	0.006	0.092	
19.170	0.266	0.100	
19.175	0.151	0.118	
19.180	-0.034	0.129	
19.185	0.194	0.124	
19.190	0.226	0.125	
19.195	-0.058	0.130	
19.200	-0.032	0.112	
19.205	0.148	0.083	
19.210	-0.069	0.063	
19.215	-0.147	0.035	
19.220	-0.003	-0.002	
19.225	-0.060	-0.030	
19.230	-0.168	-0.051	
19.235	-0.014	-0.071	
19.240	0.084	-0.073	
19.245	-0.133	-0.060	
19.250	-0.077	-0.054	
19.255	0.082	-0.051	
19.260	-0.109	-0.041	
19.265	-0.156	-0.042	
19.270	0.029	-0.053	
19.275	-0.026	-0.054	
19.280	-0.107	-0.051	
19.285	0.285	-0.038	
19.290	0.614	0.025	
19.295	0.565	0.148	
19.300	0.788	0.297	
19.305	1.005	0.461	
19.310	0.640	0.615	
19.315	0.357	0.699	
19.320	0.409	0.693	
19.325	0.160	0.624	
19.330	-0.100	0.504	
19.335	-0.003	0.350	
19.340	0.001	0.204	
19.345	-0.207	0.086	
19.350	-0.199	-0.017	
19.355	-0.092	-0.096	
19.360	-0.225	-0.145	
19.365	-0.249	-0.179	
19.370	-0.113	-0.202	
19.375	-0.176	-0.205	
19.380	-0.280	-0.204	
19.385	-0.139	-0.206	
19.390	-0.092	-0.199	
19.395	-0.246	-0.185	
19.400	-0.156	-0.178	
19.405	-0.002	-0.168	
19.410	-0.152	-0.146	
19.415	-0.182	-0.131	
19.420	0.023	-0.122	
19.425	-0.020	-0.102	
19.430	-0.153	-0.082	
19.435	0.018	-0.071	
19.440	0.108	-0.053	
19.445	-0.110	-0.028	
19.450	-0.049	-0.019	
19.455	0.146	-0.013	
19.460	-0.016	0.002	
19.465	-0.077	0.011	
19.470	0.189	0.015	
19.475	0.090	0.032	
19.480	-0.078	0.048	
19.485	0.133	0.050	
19.490	0.240	0.061	
19.495	-0.034	0.082	
19.500	0.042	0.087	
19.505	0.256	0.088	
19.510	0.006	0.098	
19.515	-0.055	0.094	
19.520	0.247	0.082	
19.525	0.159	0.088	
19.530	-0.054	0.099	
19.535	0.097	0.092	
19.540	0.124	0.084	
19.545	-0.126	0.075	
19.550	-0.100	0.046	
19.555	0.021	0.009	
19.560	-0.135	-0.019	
19.565	-0.174	-0.049	
19.570	-0.025	-0.078	
19.575	-0.086	-0.093	
19.580	-0.210	-0.101	
19.585	-0.077	-0.114	
19.590	-0.054	-0.118	
19.595	-0.211	-0.117	
19.600	-0.138	-0.123	
19.605	0.039	-0.124	
19.610	-0.124	-0.110	
19.615	-0.162	-0.100	
19.620	0.021	-0.096	
19.625	-0.028	-0.083	
19.630	-0.162	-0.071	
19.635	-0.025	-0.069	
19.640	0.044	-0.063	
19.645	-0.167	-0.053	
19.650	-0.097	-0.056	
19.655	0.067	-0.061	
19.660	-0.119	-0.056	
19.665	-0.150	-0.058	
19.670	0.076	-0.064	
19.675	0.024	-0.054	
19.680	-0.126	-0.039	
19.685	0.047	-0.033	
19.690	0.148	-0.018	
19.695	-0.092	0.004	
19.700	-0.069	0.009	
19.705	0.137	0.006	
19.710	-0.028	0.011	
19.715	-0.089	0.012	
19.720	0.149	0.007	
19.725	0.056	0.016	
19.730	-0.119	0.024	
19.735	0.024	0.016	
19.740	0.127	0.012	
19.745	-0.100	0.016	
19.750	-0.040	0.010	
19.755	0.183	0.005	
19.760	-0.020	0.016	
19.765	-0.093	0.021	
19.770	0.140	0.016	
19.775	0.078	0.023	
19.780	-0.100	0.031	
19.785	0.041	0.026	
19.790	0.160	0.025	
19.795	-0.078	0.033	
19.800	-0.032	0.030	
19.805	0.152	0.023	
19.810	-0.048	0.026	
19.815	-0.100	0.020	
19.820	0.125	0.008	
19.825	0.059	0.011	
19.830	-0.098	0.016	
19.835	0.084	0.014	
19.840	0.198	0.022	
19.845	-0.037	0.043	
19.850	-0.025	0.050	
19.855	0.175	0.048	
19.860	-0.006	0.053	
19.865	-0.046	0.051	
19.870	0.266	0.048	
19.875	0.201	0.070	
19.880	-0.022	0.097	
19.885	0.185	0.109	
19.890	0.267	0.123	
19.895	0.010	0.140	
19.900	0.004	0.137	
19.905	0.188	0.119	
19.910	-0.049	0.104	
19.915	-0.104	0.076	
19.920	0.120	0.043	
19.925	0.004	0.025	
19.930	-0.171	0.009	
19.935	-0.022	-0.017	
19.940	0.084	-0.032	
19.945	-0.148	-0.034	
19.950	-0.119	-0.044	
19.955	0.055	-0.056	
19.960	-0.101	-0.057	
19.965	-0.141	-0.060	
19.970	0.038	-0.066	
19.975	-0.032	-0.062	
19.980	-0.181	-0.058	
19.985	-0.069	-0.066	
19.990	0.082	-0.069	
19.995	-0.046	-0.056	
20.000	0.178	-0.031	
20.005	0.657	0.032	
20.010	0.625	0.154	
20.015	0.615	0.302	
20.020	0.877	0.445	
20.025	0.654	0.573	
20.030	0.174	0.639	
20.035	0.185	0.608	
20.040	0.189	0.514	
20.045	-0.115	0.394	
20.050	-0.109	0.255	
20.055	0.015	0.125	
20.060	-0.156	0.027	
20.065	-0.236	-0.050	
20.070	-0.101	-0.113	
20.075	-0.129	-0.149	
20.080	-0.252	-0.167	
20.085	-0.132	-0.181	
20.090	-0.048	-0.180	
20.095	-0.205	-0.166	
20.100	-0.167	-0.158	
20.105	-0.025	-0.150	
20.110	-0.148	-0.136	
20.115	-0.185	-0.127	
20.120	-0.011	-0.124	
20.125	-0.052	-0.111	
20.130	-0.170	-0.098	
20.135	-0.028	-0.092	
20.140	0.090	-0.079	
20.145	-0.113	-0.056	
20.150	-0.069	-0.044	
20.155	0.120	-0.036	
20.160	-0.031	-0.019	
20.165	-0.084	-0.008	
20.170	0.160	-0.003	
20.175	0.082	0.014	
20.180	-0.098	0.031	
20.185	0.091	0.032	
20.190	0.236	0.042	
20.195	-0.025	0.064	
20.200	0.061	0.074	
20.205	0.292	0.084	
20.210	0.075	0.106	
20.215	-0.029	0.116	
20.220	0.255	0.112	
20.225	0.162	0.119	
20.230	-0.084	0.124	
20.235	0.105	0.107	
20.240	0.218	0.095	
20.245	-0.072	0.094	
20.250	-0.045	0.077	
20.255	0.124	0.053	
20.260	-0.083	0.037	
20.265	-0.150	0.013	
20.270	0.017	-0.018	
20.275	-0.057	-0.038	
20.280	-0.208	-0.055	
20.285	-0.107	-0.080	
20.290	-0.029	-0.098	
20.295	-0.190	-0.105	
20.300	-0.141	-0.115	
20.305	0.021	-0.119	
20.310	-0.133	-0.110	
20.315	-0.202	-0.106	
20.320	-0.003	-0.109	
20.325	-0.038	-0.102	
20.330	-0.190	-0.092	
20.335	-0.071	-0.093	
20.340	0.035	-0.090	
20.345	-0.162	-0.079	
20.350	-0.126	-0.078	
20.355	0.105	-0.078	
20.360	-0.061	-0.062	
20.365	-0.135	-0.050	
20.370	0.073	-0.047	
20.375	0.018	-0.035	
20.380	-0.155	-0.025	
20.385	-0.014	-0.029	
20.390	0.163	-0.027	
20.395	-0.092	-0.011	
20.400	-0.078	-0.005	
20.405	0.151	-0.006	
20.410	-0.034	0.003	
20.415	-0.103	0.006	
20.420	0.151	0.003	
20.425	0.094	0.014	
20.430	-0.104	0.028	
20.435	0.036	0.026	
20.440	0.165	0.026	
20.445	-0.084	0.035	
20.450	-0.057	0.030	
20.455	0.209	0.022	
20.460	-0.020	0.030	
20.465	-0.113	0.031	
20.470	0.108	0.019	
20.475	0.067	0.018	
20.480	-0.113	0.020	
20.485	0.026	0.011	
20.490	0.154	0.009	
20.495	-0.097	0.017	
20.500	-0.072	0.013	
20.505	0.149	0.004	
20.510	-0.016	0.009	
20.515	-0.090	0.011	
20.520	0.154	0.008	
20.525	0.124	0.021	
20.530	-0.071	0.038	
20.535	0.082	0.043	
20.540	0.203	0.051	
20.545	-0.045	0.066	
20.550	0.017	0.067	
20.555	0.256	0.067	
20.560	0.067	0.082	
20.565	-0.034	0.090	
20.570	0.211	0.088	
20.575	0.178	0.096	
20.580	-0.060	0.106	
20.585	0.113	0.099	
20.590	0.235	0.096	
20.595	-0.057	0.101	
20.600	-0.069	0.087	
20.605	0.117	0.061	
20.610	-0.055	0.042	
20.615	-0.127	0.019	
20.620	0.070	-0.007	
20.625	0.018	-0.017	
20.630	-0.156	-0.021	
20.635	-0.042	-0.034	
20.640	0.046	-0.044	
20.645	-0.142	-0.045	
20.650	-0.121	-0.053	
20.655	0.075	-0.062	
20.660	-0.092	-0.058	
20.665	-0.162	-0.058	
20.670	0.050	-0.064	
20.675	0.007	-0.058	
20.680	-0.124	-0.047	
20.685	0.111	-0.039	
20.690	0.423	-0.003	
20.695	0.347	0.075	
20.700	0.536	0.175	
20.705	0.851	0.297	
20.710	0.542	0.431	
20.715	0.226	0.516	
20.720	0.348	0.525	
20.725	0.172	0.483	
20.730	-0.116	0.400	
20.735	-0.028	0.281	
20.740	0.052	0.165	
20.745	-0.168	0.073	
20.750	-0.173	-0.006	
20.755	-0.045	-0.070	
20.760	-0.171	-0.109	
20.765	-0.229	-0.136	
20.770	-0.084	-0.157	
20.775	-0.113	-0.162	
20.780	-0.239	-0.160	
20.785	-0.132	-0.163	
20.790	-0.057	-0.160	
20.795	-0.203	-0.150	
20.800	-0.162	-0.146	
20.805	0.039	-0.140	
20.810	-0.089	-0.119	
20.815	-0.150	-0.100	
20.820	0.032	-0.089	
20.825	0.030	-0.069	
20.830	-0.145	-0.049	
20.835	-0.017	-0.043	
20.840	0.154	-0.034	
20.845	-0.074	-0.013	
20.850	-0.032	-0.001	
20.855	0.209	0.008	
20.860	0.035	0.030	
20.865	-0.029	0.047	
20.870	0.206	0.055	
20.875	0.142	0.073	
20.880	-0.060	0.088	
20.885	0.114	0.086	
20.890	0.266	0.089	
20.895	-0.005	0.103	
20.900	-0.003	0.103	
20.905	0.285	0.097	
20.910	0.075	0.105	
20.915	-0.057	0.107	
20.920	0.185	0.095	
20.925	0.166	0.094	
20.930	-0.089	0.096	
20.935	-0.005	0.078	
20.940	0.120	0.056	
20.945	-0.109	0.041	
20.950	-0.106	0.016	
20.955	0.084	-0.010	
20.960	-0.081	-0.021	
20.965	-0.171	-0.035	
20.970	-0.020	-0.056	
20.975	-0.051	-0.068	
20.980	-0.213	-0.076	
20.985	-0.104	-0.093	
20.990	-0.009	-0.104	
20.995	-0.194	-0.105	
21.000	-0.165	-0.112	
21.005	0.009	-0.119	
21.010	-0.112	-0.112	
21.015	-0.179	-0.106	
21.020	0.023	-0.104	
21.025	0.017	-0.090	
21.030	-0.153	-0.070	
21.035	-0.031	-0.063	
21.040	0.102	-0.052	
21.045	-0.121	-0.035	
21.050	-0.103	-0.032	
21.055	0.116	-0.034	
21.060	-0.045	-0.025	
21.065	-0.142	-0.021	
21.070	0.056	-0.028	
21.075	0.029	-0.026	
21.080	-0.139	-0.022	
21.085	-0.029	-0.028	
21.090	0.108	-0.031	
21.095	-0.110	-0.022	
21.100	-0.087	-0.024	
21.105	0.159	-0.026	
21.110	0.000	-0.011	
21.115	-0.089	0.001	
21.120	0.124	0.004	
21.125	0.050	0.015	
21.130	-0.138	0.021	
21.135	-0.013	0.009	
21.140	0.156	0.002	
21.145	-0.087	0.007	
21.150	-0.084	0.004	
21.155	0.143	-0.004	
21.160	-0.022	0.002	
21.165	-0.106	0.004	
21.170	0.142	-0.000	
21.175	0.108	0.011	
21.180	-0.130	0.025	
21.185	-0.013	0.020	
21.190	0.146	0.013	
21.195	-0.086	0.016	
21.200	-0.063	0.011	
21.205	0.157	0.004	
21.210	0.009	0.011	
21.215	-0.077	0.018	
21.220	0.168	0.019	
21.225	0.166	0.035	
21.230	-0.045	0.058	
21.235	0.125	0.068	
21.240	0.301	0.083	
21.245	0.015	0.110	
21.250	0.024	0.119	
21.255	0.258	0.116	
21.260	0.078	0.122	
21.265	-0.061	0.119	
21.270	0.165	0.101	
21.275	0.120	0.091	
21.280	-0.141	0.082	
21.285	-0.032	0.053	
21.290	0.079	0.023	
21.295	-0.132	0.004	
21.300	-0.126	-0.020	
21.305	0.090	-0.042	
21.310	-0.064	-0.046	
21.315	-0.158	-0.048	
21.320	0.006	-0.057	
21.325	-0.009	-0.059	
21.330	-0.164	-0.057	
21.335	-0.040	-0.063	
21.340	0.087	-0.061	
21.345	-0.138	-0.049	
21.350	-0.133	-0.049	
21.355	0.105	-0.054	
21.360	0.079	-0.039	
21.365	0.108	-0.007	
21.370	0.620	0.052	
21.375	0.779	0.169	
21.380	0.541	0.321	
21.385	0.652	0.453	
21.390	0.647	0.549	
21.395	0.130	0.591	
21.400	-0.014	0.543	
21.405	0.180	0.433	
21.410	-0.008	0.314	
21.415	-0.145	0.199	
21.420	-0.026	0.090	
21.425	-0.068	0.008	
21.430	-0.252	-0.053	
21.435	-0.155	-0.107	
21.440	-0.051	-0.142	
21.445	-0.203	-0.154	
21.450	-0.188	-0.161	
21.455	-0.013	-0.163	
21.460	-0.110	-0.148	
21.465	-0.193	-0.133	
21.470	-0.016	-0.125	
21.475	-0.037	-0.110	
21.480	-0.199	-0.095	
21.485	-0.113	-0.096	
21.490	0.009	-0.098	
21.495	-0.159	-0.092	
21.500	-0.119	-0.092	
21.505	0.137	-0.087	
21.510	0.001	-0.062	
21.515	-0.106	-0.036	
21.520	0.108	-0.021	
21.525	0.082	-0.001	
21.530	-0.122	0.016	
21.535	0.036	0.015	
21.540	0.220	0.020	
21.545	-0.029	0.039	
21.550	-0.022	0.048	
21.555	0.275	0.053	
21.560	0.108	0.075	
21.565	-0.048	0.092	
21.570	0.209	0.094	
21.575	0.195	0.104	
21.580	-0.034	0.115	
21.585	0.110	0.111	
21.590	0.244	0.108	
21.595	-0.049	0.112	
21.600	-0.048	0.098	
21.605	0.174	0.074	
21.610	0.000	0.063	
21.615	-0.122	0.048	
21.620	0.035	0.022	
21.625	0.021	0.004	
21.630	-0.170	-0.010	
21.635	-0.071	-0.033	
21.640	0.052	-0.050	
21.645	-0.153	-0.055	
21.650	-0.167	-0.067	
21.655	0.001	-0.082	
21.660	-0.106	-0.087	
21.665	-0.207	-0.093	
21.670	-0.045	-0.105	
21.675	-0.035	-0.106	
21.680	-0.194	-0.102	
21.685	-0.080	-0.104	
21.690	0.050	-0.100	
21.695	-0.147	-0.085	
21.700	-0.155	-0.081	
21.705	0.038	-0.083	
21.710	-0.071	-0.076	
21.715	-0.164	-0.070	
21.720	0.024	-0.072	
21.725	0.039	-0.063	
21.730	-0.147	-0.049	
21.735	-0.038	-0.047	
21.740	0.154	-0.040	
21.745	-0.087	-0.021	
21.750	-0.086	-0.013	
21.755	0.142	-0.012	
21.760	-0.008	-0.000	
21.765	-0.130	0.005	
21.770	0.075	-0.002	
21.775	0.099	0.000	
21.780	-0.109	0.009	
21.785	0.001	0.006	
21.790	0.171	0.007	
21.795	-0.083	0.018	
21.800	-0.097	0.016	
21.805	0.136	0.005	
21.810	0.001	0.007	
21.815	-0.107	0.008	
21.820	0.079	0.001	
21.825	0.114	0.005	
21.830	-0.107	0.015	
21.835	-0.002	0.013	
21.840	0.169	0.012	
21.845	-0.068	0.022	
21.850	-0.071	0.021	
21.855	0.162	0.014	
21.860	-0.003	0.020	
21.865	-0.116	0.021	
21.870	0.094	0.011	
21.875	0.096	0.012	
21.880	-0.133	0.017	
21.885	-0.029	0.007	
21.890	0.181	0.001	
21.895	-0.051	0.010	
21.900	-0.051	0.015	
21.905	0.185	0.015	
21.910	0.026	0.029	
21.915	-0.083	0.037	
21.920	0.178	0.036	
21.925	0.232	0.052	
21.930	-0.040	0.078	
21.935	0.079	0.087	
21.940	0.247	0.093	
21.945	-0.013	0.104	
21.950	-0.022	0.100	
21.955	0.215	0.086	
21.960	0.015	0.084	
21.965	-0.136	0.072	
21.970	0.013	0.041	
21.975	0.027	0.015	
21.980	-0.161	-0.005	
21.985	-0.083	-0.031	
21.990	0.053	-0.051	
21.995	-0.126	-0.056	
22.000	-0.119	-0.063	
22.005	0.087	-0.067	
22.010	-0.046	-0.057	
22.015	-0.153	-0.048	
22.020	0.021	-0.051	
22.025	0.009	-0.047	
22.030	-0.182	-0.043	
22.035	-0.086	-0.054	
22.040	0.078	-0.062	
22.045	-0.086	-0.055	
22.050	-0.008	-0.046	
22.055	0.461	-0.017	
22.060	0.496	0.066	
22.065	0.487	0.184	
22.070	0.829	0.314	
22.075	0.794	0.456	
22.080	0.334	0.568	
22.085	0.288	0.600	
22.090	0.328	0.561	
22.095	-0.032	0.481	
22.100	-0.121	0.360	
22.105	0.026	0.222	
22.110	-0.109	0.105	
22.115	-0.222	0.009	
22.120	-0.078	-0.069	
22.125	-0.075	-0.115	
22.130	-0.239	-0.139	
22.135	-0.170	-0.158	
22.140	-0.069	-0.168	
22.145	-0.217	-0.166	
22.150	-0.200	-0.167	
22.155	-0.037	-0.167	
22.160	-0.119	-0.154	
22.165	-0.199	-0.141	
22.170	-0.025	-0.134	
22.175	0.001	-0.117	
22.180	-0.190	-0.097	
22.185	-0.101	-0.091	
22.190	0.055	-0.087	
22.195	-0.127	-0.075	
22.200	-0.118	-0.069	
22.205	0.136	-0.064	
22.210	0.012	-0.042	
22.215	-0.098	-0.021	
22.220	0.117	-0.010	
22.225	0.134	0.010	
22.230	-0.084	0.032	
22.235	0.041	0.037	
22.240	0.238	0.044	
22.245	-0.017	0.062	
22.250	-0.029	0.067	
22.255	0.264	0.066	
22.260	0.111	0.082	
22.265	-0.028	0.095	
22.270	0.191	0.096	
22.275	0.217	0.105	
22.280	-0.054	0.116	
22.285	0.073	0.109	
22.290	0.259	0.101	
22.295	-0.022	0.105	
22.300	-0.074	0.094	
22.305	0.133	0.070	
22.310	-0.032	0.052	
22.315	-0.155	0.030	
22.320	0.026	-0.001	
22.325	0.058	-0.018	
22.330	-0.165	-0.024	
22.335	-0.097	-0.040	
22.340	0.007	-0.056	
22.345	-0.162	-0.065	
22.350	-0.182	-0.081	
22.355	-0.013	-0.098	
22.360	-0.110	-0.103	
22.365	-0.210	-0.107	
22.370	-0.040	-0.116	
22.375	-0.003	-0.112	
22.380	-0.173	-0.100	
22.385	-0.075	-0.095	
22.390	0.039	-0.088	
22.395	-0.135	-0.074	
22.400	-0.139	-0.071	
22.405	0.078	-0.072	
22.410	-0.022	-0.059	
22.415	-0.142	-0.047	
22.420	0.061	-0.044	
22.425	0.076	-0.031	
22.430	-0.138	-0.016	
22.435	-0.048	-0.017	
22.440	0.136	-0.019	
22.445	-0.086	-0.010	
22.450	-0.106	-0.010	
22.455	0.122	-0.017	
22.460	0.041	-0.008	
22.465	-0.097	0.002	
22.470	0.093	0.004	
22.475	0.124	0.014	
22.480	-0.106	0.027	
22.485	-0.023	0.024	
22.490	0.172	0.018	
22.495	-0.058	0.025	
22.500	-0.087	0.022	
22.505	0.169	0.013	
22.510	0.067	0.021	
22.515	-0.113	0.030	
22.520	0.068	0.025	
22.525	0.125	0.024	
22.530	-0.104	0.030	
22.535	-0.011	0.022	
22.540	0.168	0.017	
22.545	-0.054	0.023	
22.550	-0.081	0.021	
22.555	0.157	0.014	
22.560	0.012	0.019	
22.565	-0.124	0.020	
22.570	0.070	0.010	
22.575	0.140	0.010	
22.580	-0.101	0.020	
22.585	-0.019	0.017	
22.590	0.152	0.013	
22.595	-0.072	0.019	
22.600	-0.093	0.014	
22.605	0.148	0.004	
22.610	0.050	0.010	
22.615	-0.097	0.018	
22.620	0.090	0.016	
22.625	0.154	0.023	
22.630	-0.084	0.037	
22.635	-0.005	0.036	
22.640	0.218	0.035	
22.645	-0.008	0.047	
22.650	-0.046	0.052	
22.655	0.221	0.050	
22.660	0.130	0.064	
22.665	-0.055	0.079	
22.670	0.177	0.081	
22.675	0.223	0.091	
22.680	-0.042	0.106	
22.685	0.061	0.103	
22.690	0.258	0.098	
22.695	-0.031	0.103	
22.700	-0.084	0.091	
22.705	0.110	0.065	
22.710	-0.031	0.044	
22.715	-0.156	0.021	
22.720	0.012	-0.009	
22.725	0.038	-0.027	
22.730	-0.165	-0.034	
22.735	-0.092	-0.049	
22.740	0.062	-0.061	
22.745	-0.116	-0.059	
22.750	-0.155	-0.062	
22.755	0.021	-0.071	
22.760	-0.064	-0.070	
22.765	-0.185	-0.071	
22.770	-0.048	-0.080	
22.775	0.042	-0.081	
22.780	-0.090	-0.069	
22.785	0.139	-0.050	
22.790	0.536	0.002	
22.795	0.499	0.106	
22.800	0.631	0.237	
22.805	0.961	0.384	
22.810	0.748	0.537	
22.815	0.391	0.645	
22.820	0.467	0.671	
22.825	0.368	0.638	
22.830	-0.055	0.557	
22.835	-0.058	0.424	
22.840	0.021	0.273	
22.845	-0.182	0.139	
22.850	-0.251	0.020	
22.855	-0.124	-0.079	
22.860	-0.196	-0.145	
22.865	-0.286	-0.188	
22.870	-0.127	-0.216	
22.875	-0.092	-0.219	
22.880	-0.254	-0.206	
22.885	-0.187	-0.198	
22.890	-0.055	-0.189	
22.895	-0.190	-0.172	
22.900	-0.193	-0.161	
22.905	-0.008	-0.153	
22.910	-0.084	-0.134	
22.915	-0.176	-0.116	
22.920	-0.002	-0.106	
22.925	0.049	-0.088	
22.930	-0.156	-0.065	
22.935	-0.072	-0.058	
22.940	0.091	-0.053	
22.945	-0.098	-0.040	
22.950	-0.115	-0.037	
22.955	0.128	-0.037	
22.960	0.053	-0.022	
22.965	-0.083	-0.003	
22.970	0.139	0.008	
22.975	0.197	0.030	
22.980	-0.057	0.057	
22.985	0.012	0.064	
22.990	0.230	0.065	
22.995	0.000	0.075	
23.000	-0.037	0.075	
23.005	0.250	0.070	
23.010	0.149	0.082	
23.015	-0.034	0.097	
23.020	0.159	0.097	
23.025	0.211	0.102	
23.030	-0.058	0.110	
23.035	-0.002	0.098	
23.040	0.159	0.078	
23.045	-0.071	0.065	
23.050	-0.126	0.042	
23.055	0.053	0.010	
23.060	-0.026	-0.009	
23.065	-0.171	-0.025	
23.070	-0.083	-0.049	
23.075	-0.045	-0.069	
23.080	-0.207	-0.084	
23.085	-0.150	-0.104	
23.090	-0.013	-0.118	
23.095	-0.153	-0.119	
23.100	-0.181	-0.120	
23.105	0.020	-0.121	
23.110	-0.049	-0.108	
23.115	-0.165	-0.093	
23.120	-0.013	-0.087	
23.125	0.050	-0.074	
23.130	-0.142	-0.057	
23.135	-0.081	-0.052	
23.140	0.096	-0.050	
23.145	-0.086	-0.039	
23.150	-0.113	-0.035	
23.155	0.097	-0.036	
23.160	-0.003	-0.027	
23.165	-0.148	-0.020	
23.170	0.023	-0.025	
23.175	0.107	-0.023	
23.180	-0.116	-0.013	
23.185	-0.037	-0.012	
23.190	0.163	-0.011	
23.195	-0.052	0.002	
23.200	-0.095	0.007	
23.205	0.140	0.003	
23.210	0.038	0.011	
23.215	-0.110	0.018	
23.220	0.070	0.013	
23.225	0.139	0.016	
23.230	-0.078	0.027	
23.235	-0.022	0.025	
23.240	0.162	0.022	
23.245	-0.069	0.027	
23.250	-0.104	0.021	
23.255	0.159	0.008	
23.260	0.020	0.011	
23.265	-0.127	0.014	
23.270	0.088	0.006	
23.275	0.125	0.009	
23.280	-0.098	0.020	
23.285	-0.032	0.017	
23.290	0.137	0.011	
23.295	-0.068	0.014	
23.300	-0.104	0.008	
23.305	0.125	-0.003	
23.310	0.024	-0.000	
23.315	-0.104	0.004	
23.320	0.053	-0.000	
23.325	0.120	0.003	
23.330	-0.112	0.013	
23.335	-0.038	0.009	
23.340	0.175	0.004	
23.345	-0.037	0.014	
23.350	-0.035	0.019	
23.355	0.148	0.020	
23.360	0.029	0.030	
23.365	-0.118	0.034	
23.370	0.055	0.022	
23.375	0.172	0.020	
23.380	-0.084	0.030	
23.385	-0.023	0.028	
23.390	0.171	0.024	
23.395	-0.066	0.029	
23.400	-0.097	0.024	
23.405	0.163	0.012	
23.410	0.061	0.018	
23.415	-0.115	0.025	
23.420	0.075	0.020	
23.425	0.162	0.022	
23.430	-0.058	0.035	
23.435	0.000	0.037	
23.440	0.217	0.039	
23.445	-0.020	0.051	
23.450	-0.049	0.054	
23.455	0.204	0.049	
23.460	0.082	0.058	
23.465	-0.077	0.065	
23.470	0.146	0.060	
23.475	0.221	0.067	
23.480	-0.038	0.083	
23.485	0.042	0.084	
23.490	0.247	0.083	
23.495	0.006	0.092	
23.500	-0.032	0.090	
23.505	0.259	0.082	
23.510	0.110	0.090	
23.515	-0.092	0.095	
23.520	0.072	0.080	
23.525	0.101	0.065	
23.530	-0.135	0.052	
23.535	-0.068	0.025	
23.540	0.104	-0.001	
23.545	-0.115	-0.012	
23.550	-0.148	-0.028	
23.555	0.068	-0.046	
23.560	-0.042	-0.049	
23.565	-0.182	-0.051	
23.570	-0.028	-0.062	
23.575	0.049	-0.065	
23.580	-0.181	-0.060	
23.585	-0.139	-0.067	
23.590	0.044	-0.077	
23.595	-0.083	-0.074	
23.600	-0.028	-0.066	
23.605	0.418	-0.037	
23.610	0.541	0.047	
23.615	0.527	0.172	
23.620	0.872	0.316	
23.625	0.922	0.476	
23.630	0.499	0.615	
23.635	0.408	0.677	
23.640	0.482	0.666	
23.645	0.093	0.605	
23.650	-0.109	0.489	
23.655	0.009	0.337	
23.660	-0.122	0.190	
23.665	-0.278	0.059	
23.670	-0.174	-0.056	
23.675	-0.122	-0.137	
23.680	-0.281	-0.183	
23.685	-0.225	-0.215	
23.690	-0.080	-0.228	
23.695	-0.213	-0.220	
23.700	-0.242	-0.210	
23.705	-0.066	-0.201	
23.710	-0.104	-0.182	
23.715	-0.229	-0.162	
23.720	-0.092	-0.153	
23.725	-0.017	-0.140	
23.730	-0.187	-0.122	
23.735	-0.141	-0.115	
23.740	0.058	-0.110	
23.745	-0.135	-0.094	
23.750	-0.176	-0.087	
23.755	0.042	-0.088	
23.760	-0.020	-0.077	
23.765	-0.142	-0.064	
23.770	0.056	-0.057	
23.775	0.168	-0.037	
23.780	-0.080	-0.006	
23.785	0.000	0.011	
23.790	0.235	0.024	
23.795	0.017	0.049	
23.800	-0.029	0.063	
23.805	0.223	0.067	
23.810	0.125	0.081	
23.815	-0.063	0.092	
23.820	0.127	0.086	
23.825	0.220	0.087	
23.830	-0.028	0.095	
23.835	0.030	0.091	
23.840	0.295	0.087	
23.845	0.033	0.099	
23.850	-0.058	0.101	
23.855	0.171	0.087	
23.860	0.059	0.080	
23.865	-0.130	0.069	
23.870	-0.017	0.041	
23.875	0.056	0.015	
23.880	-0.155	-0.004	
23.885	-0.141	-0.030	
23.890	-0.008	-0.058	
23.895	-0.148	-0.075	
23.900	-0.190	-0.093	
23.905	-0.008	-0.109	
23.910	-0.077	-0.110	
23.915	-0.231	-0.108	
23.920	-0.098	-0.117	
23.925	-0.006	-0.119	
23.930	-0.194	-0.113	
23.935	-0.142	-0.113	
23.940	0.026	-0.114	
23.945	-0.107	-0.102	
23.950	-0.145	-0.093	
23.955	0.078	-0.086	
23.960	0.023	-0.065	
23.965	-0.145	-0.044	
23.970	0.006	-0.038	
23.975	0.093	-0.029	
23.980	-0.115	-0.016	
23.985	-0.066	-0.016	
23.990	0.143	-0.018	
23.995	-0.095	-0.010	
24.000	-0.135	-0.012	
24.005	0.125	-0.022	
24.010	0.052	-0.015	
24.015	-0.119	-0.004	
24.020	0.056	-0.004	
24.025	0.114	0.002	
24.030	-0.118	0.012	
24.035	-0.045	0.007	
24.040	0.181	0.002	
24.045	-0.037	0.012	
24.050	-0.095	0.016	
24.055	0.149	0.011	
24.060	0.090	0.020	
24.065	-0.095	0.032	
24.070	0.073	0.030	
24.075	0.174	0.034	
24.080	-0.084	0.046	
24.085	-0.064	0.040	
24.090	0.151	0.027	
24.095	-0.048	0.024	
24.100	-0.109	0.016	
24.105	0.119	0.002	
24.110	0.065	0.004	
24.115	-0.115	0.010	
24.120	0.035	0.006	
24.125	0.139	0.007	
24.130	-0.092	0.016	
24.135	-0.054	0.013	
24.140	0.171	0.008	
24.145	-0.032	0.016	
24.150	-0.100	0.017	
24.155	0.152	0.011	
24.160	0.079	0.019	
24.165	-0.110	0.029	
24.170	0.006	0.022	
24.175	0.117	0.015	
24.180	-0.100	0.016	
24.185	-0.046	0.007	
24.190	0.165	0.000	
24.195	-0.043	0.008	
24.200	-0.098	0.009	
24.205	0.145	0.004	
24.210	0.072	0.013	
24.215	-0.113	0.023	
24.220	0.062	0.019	
24.225	0.175	0.023	
24.230	-0.098	0.035	
24.235	-0.049	0.031	
24.240	0.174	0.022	
24.245	-0.029	0.026	
24.250	-0.095	0.024	
24.255	0.134	0.015	
24.260	0.090	0.020	
24.265	-0.087	0.029	
24.270	0.097	0.029	
24.275	0.217	0.038	
24.280	-0.043	0.058	
24.285	0.029	0.065	
24.290	0.288	0.070	
24.295	0.070	0.091	
24.300	-0.019	0.103	
24.305	0.278	0.105	
24.310	0.197	0.120	
24.315	-0.057	0.134	
24.320	0.119	0.125	
24.325	0.224	0.116	
24.330	-0.071	0.114	
24.335	-0.064	0.092	
24.340	0.119	0.061	
24.345	-0.081	0.039	
24.350	-0.156	0.011	
24.355	-0.014	-0.023	
24.360	-0.049	-0.046	
24.365	-0.173	-0.063	
24.370	-0.046	-0.079	
24.375	0.029	-0.084	
24.380	-0.171	-0.078	
24.385	-0.118	-0.081	
24.390	0.072	-0.082	
24.395	-0.109	-0.072	
24.400	-0.182	-0.069	
24.405	0.041	-0.074	
24.410	0.101	-0.063	
24.415	0.035	-0.034	
24.420	0.492	0.018	
24.425	0.848	0.126	
24.430	0.678	0.288	
24.435	0.748	0.451	
24.440	0.863	0.588	
24.445	0.446	0.681	
24.450	0.139	0.689	
24.455	0.282	0.612	
24.460	0.119	0.499	
24.465	-0.144	0.369	
24.470	-0.087	0.225	
24.475	-0.069	0.095	
24.480	-0.248	-0.009	
24.485	-0.231	-0.095	
24.490	-0.103	-0.157	
24.495	-0.219	-0.189	
24.500	-0.268	-0.207	
24.505	-0.101	-0.217	
24.510	-0.118	-0.209	
24.515	-0.239	-0.193	
24.520	-0.145	-0.184	
24.525	-0.068	-0.173	
24.530	-0.216	-0.158	
24.535	-0.174	-0.153	
24.540	-0.016	-0.149	
24.545	-0.135	-0.135	
24.550	-0.193	-0.126	
24.555	0.030	-0.120	
24.560	0.001	-0.101	
24.565	-0.150	-0.079	
24.570	-0.006	-0.067	
24.575	0.134	-0.051	
24.580	-0.106	-0.026	
24.585	-0.069	-0.016	
24.590	0.191	-0.010	
24.595	0.012	0.009	
24.600	-0.048	0.025	
24.605	0.212	0.034	
24.610	0.134	0.056	
24.615	-0.084	0.074	
24.620	0.101	0.073	
24.625	0.246	0.075	
24.630	-0.042	0.088	
24.635	-0.006	0.085	
24.640	0.240	0.077	
24.645	0.065	0.083	
24.650	-0.013	0.088	
24.655	0.223	0.086	
24.660	0.159	0.096	
24.665	-0.068	0.105	
24.670	0.105	0.096	
24.675	0.154	0.088	
24.680	-0.113	0.081	
24.685	-0.112	0.055	
24.690	0.033	0.017	
24.695	-0.138	-0.013	
24.700	-0.216	-0.046	
24.705	-0.055	-0.083	
24.710	-0.080	-0.104	
24.715	-0.203	-0.115	
24.720	-0.089	-0.126	
24.725	-0.023	-0.126	
24.730	-0.199	-0.119	
24.735	-0.152	-0.120	
24.740	0.026	-0.120	
24.745	-0.107	-0.107	
24.750	-0.161	-0.098	
24.755	0.023	-0.094	
24.760	0.003	-0.079	
24.765	-0.164	-0.064	
24.770	-0.043	-0.062	
24.775	0.096	-0.056	
24.780	-0.121	-0.042	
24.785	-0.107	-0.039	
24.790	0.119	-0.040	
24.795	-0.048	-0.029	
24.800	-0.112	-0.023	
24.805	0.087	-0.024	
24.810	0.036	-0.016	
24.815	-0.126	-0.007	
24.820	0.007	-0.011	
24.825	0.152	-0.009	
24.830	-0.074	0.005	
24.835	-0.052	0.008	
24.840	0.169	0.008	
24.845	-0.013	0.019	
24.850	-0.090	0.024	
24.855	0.105	0.017	
24.860	0.078	0.020	
24.865	-0.107	0.025	
24.870	0.021	0.017	
24.875	0.142	0.014	
24.880	-0.095	0.019	
24.885	-0.058	0.014	
24.890	0.168	0.006	
24.895	-0.028	0.013	
24.900	-0.116	0.014	
24.905	0.079	0.003	
24.910	0.084	0.003	
24.915	-0.104	0.009	
24.920	0.047	0.007	
24.925	0.194	0.013	
24.930	-0.078	0.030	
24.935	-0.035	0.033	
24.940	0.185	0.030	
24.945	-0.013	0.038	
24.950	-0.107	0.037	
24.955	0.099	0.024	
24.960	0.085	0.021	
24.965	-0.124	0.023	
24.970	0.007	0.012	
24.975	0.140	0.006	
24.980	-0.081	0.011	
24.985	-0.054	0.009	
24.990	0.206	0.006	
24.995	-0.022	0.020	
25.000	-0.136	0.024	
25.005	0.072	0.011	
25.010	0.050	0.005	
25.015	-0.104	0.005	
25.020	0.070	-0.000	
25.025	0.189	0.007	
25.030	-0.052	0.028	
25.035	-0.013	0.037	
25.040	0.269	0.043	
25.045	0.067	0.065	
25.050	-0.045	0.081	
25.055	0.232	0.083	
25.060	0.201	0.098	
25.065	-0.035	0.114	
25.070	0.140	0.114	
25.075	0.298	0.118	
25.080	-0.022	0.131	
25.085	-0.046	0.123	
25.090	0.134	0.097	
25.095	-0.034	0.075	
25.100	-0.110	0.049	
25.105	0.082	0.019	
25.110	0.015	0.004	
25.115	-0.173	-0.007	
25.120	-0.045	-0.029	
25.125	0.070	-0.043	
25.130	-0.130	-0.043	
25.135	-0.118	-0.050	
25.140	0.052	-0.058	
25.145	-0.087	-0.056	
25.150	-0.147	-0.058	
25.155	0.030	-0.064	
25.160	-0.014	-0.060	
25.165	-0.164	-0.054	
25.170	-0.003	-0.057	
25.175	0.258	-0.044	
25.180	0.156	0.001	
25.185	0.486	0.072	
25.190	0.996	0.191	
25.195	0.869	0.369	
25.200	0.649	0.545	
25.205	0.768	0.666	
25.210	0.493	0.726	
25.215	0.003	0.703	
25.220	0.061	0.587	
25.225	0.119	0.434	
25.230	-0.168	0.284	
25.235	-0.205	0.138	
25.240	-0.081	0.011	
25.245	-0.196	-0.080	
25.250	-0.268	-0.144	
25.255	-0.110	-0.188	
25.260	-0.118	-0.203	
25.265	-0.274	-0.201	
25.270	-0.170	-0.202	
25.275	-0.064	-0.196	
25.280	-0.207	-0.180	
25.285	-0.173	-0.169	
25.290	-0.009	-0.159	
25.295	-0.132	-0.139	
25.300	-0.197	-0.125	
25.305	-0.016	-0.121	
25.310	-0.042	-0.108	
25.315	-0.188	-0.096	
25.320	-0.058	-0.094	
25.325	0.116	-0.084	
25.330	-0.110	-0.061	
25.335	-0.106	-0.048	
25.340	0.119	-0.042	
25.345	-0.026	-0.027	
25.350	-0.097	-0.015	
25.355	0.143	-0.011	
25.360	0.139	0.009	
25.365	-0.095	0.032	
25.370	0.041	0.037	
25.375	0.220	0.042	
25.380	-0.009	0.059	
25.385	0.035	0.067	
25.390	0.305	0.075	
25.395	0.081	0.099	
25.400	-0.054	0.112	
25.405	0.226	0.106	
25.410	0.226	0.113	
25.415	-0.035	0.125	
25.420	0.081	0.119	
25.425	0.181	0.108	
25.430	-0.086	0.099	
25.435	-0.092	0.073	
25.440	0.090	0.038	
25.445	-0.066	0.015	
25.450	-0.174	-0.009	
25.455	-0.025	-0.040	
25.460	-0.058	-0.060	
25.465	-0.220	-0.076	
25.470	-0.106	-0.098	
25.475	-0.013	-0.111	
25.480	-0.184	-0.111	
25.485	-0.161	-0.116	
25.490	-0.005	-0.120	
25.495	-0.124	-0.114	
25.500	-0.194	-0.110	
25.505	-0.025	-0.113	
25.510	-0.020	-0.106	
25.515	-0.181	-0.094	
25.520	-0.064	-0.091	
25.525	0.072	-0.084	
25.530	-0.132	-0.068	
25.535	-0.122	-0.061	
25.540	0.094	-0.060	
25.545	-0.061	-0.048	
25.550	-0.159	-0.042	
25.555	0.056	-0.046	
25.560	0.053	-0.039	
25.565	-0.115	-0.027	
25.570	-0.017	-0.024	
25.575	0.102	-0.021	
25.580	-0.098	-0.011	
25.585	-0.071	-0.012	
25.590	0.171	-0.013	
25.595	-0.019	0.000	
25.600	-0.112	0.008	
25.605	0.084	0.003	
25.610	0.079	0.006	
25.615	-0.106	0.013	
25.620	0.023	0.009	
25.625	0.195	0.011	
25.630	-0.063	0.027	
25.635	-0.055	0.030	
25.640	0.189	0.027	
25.645	0.023	0.036	
25.650	-0.098	0.040	
25.655	0.107	0.032	
25.660	0.084	0.031	
25.665	-0.118	0.032	
25.670	-0.011	0.019	
25.675	0.154	0.010	
25.680	-0.063	0.014	
25.685	-0.071	0.012	
25.690	0.159	0.006	
25.695	-0.016	0.013	
25.700	-0.121	0.014	
25.705	0.055	0.003	
25.710	0.047	-0.002	
25.715	-0.119	-0.002	
25.720	0.007	-0.011	
25.725	0.206	-0.008	
25.730	-0.045	0.012	
25.735	-0.035	0.023	
25.740	0.230	0.030	
25.745	0.059	0.050	
25.750	-0.057	0.064	
25.755	0.220	0.067	
25.760	0.236	0.084	
25.765	-0.009	0.109	
25.770	0.156	0.118	
25.775	0.314	0.129	
25.780	0.010	0.148	
25.785	-0.011	0.144	
25.790	0.185	0.124	
25.795	-0.023	0.107	
25.800	-0.164	0.077	
25.805	0.006	0.033	
25.810	0.023	-0.001	
25.815	-0.168	-0.023	
25.820	-0.080	-0.048	
25.825	0.047	-0.064	
25.830	-0.135	-0.066	
25.835	-0.135	-0.071	
25.840	0.058	-0.076	
25.845	-0.069	-0.069	
25.850	-0.164	-0.064	
25.855	0.009	-0.068	
25.860	0.039	-0.062	
25.865	-0.153	-0.051	
25.870	-0.042	-0.050	
25.875	0.208	-0.042	
25.880	0.068	-0.010	
25.885	0.259	0.036	
25.890	0.761	0.114	
25.895	0.716	0.246	
25.900	0.553	0.393	
25.905	0.728	0.510	
25.910	0.536	0.591	
25.915	0.015	0.605	
25.920	0.058	0.530	
25.925	0.146	0.407	
25.930	-0.124	0.283	
25.935	-0.148	0.157	
25.940	-0.005	0.047	
25.945	-0.124	-0.029	
25.950	-0.243	-0.084	
25.955	-0.124	-0.129	
25.960	-0.103	-0.155	
25.965	-0.248	-0.166	
25.970	-0.147	-0.175	
25.975	-0.051	-0.174	
25.980	-0.194	-0.162	
25.985	-0.168	-0.155	
25.990	0.038	-0.145	
25.995	-0.081	-0.121	
26.000	-0.167	-0.101	
26.005	0.023	-0.090	
26.010	0.036	-0.072	
26.015	-0.165	-0.053	
26.020	-0.077	-0.051	
26.025	0.090	-0.051	
26.030	-0.100	-0.042	
26.035	-0.106	-0.039	
26.040	0.131	-0.039	
26.045	-0.017	-0.025	
26.050	-0.127	-0.015	
26.055	0.120	-0.014	
26.060	0.183	0.002	
26.065	-0.066	0.029	
26.070	0.079	0.043	
26.075	0.261	0.059	
26.080	-0.003	0.083	
26.085	0.015	0.092	
26.090	0.302	0.095	
26.095	0.142	0.114	
26.100	-0.040	0.127	
26.105	0.221	0.123	
26.110	0.209	0.127	
26.115	-0.057	0.132	
26.120	0.058	0.117	
26.125	0.230	0.102	
26.130	-0.040	0.097	
26.135	-0.089	0.080	
26.140	0.105	0.052	
26.145	-0.075	0.030	
26.150	-0.187	0.003	
26.155	-0.042	-0.033	
26.160	-0.025	-0.058	
26.165	-0.196	-0.073	
26.170	-0.156	-0.094	
26.175	-0.034	-0.111	
26.180	-0.190	-0.119	
26.185	-0.177	-0.127	
26.190	0.013	-0.133	
26.195	-0.090	-0.122	
26.200	-0.176	-0.110	
26.205	0.000	-0.104	
26.210	0.000	-0.090	
26.215	-0.194	-0.076	
26.220	-0.121	-0.078	
26.225	0.032	-0.084	
26.230	-0.139	-0.080	
26.235	-0.141	-0.081	
26.240	0.084	-0.082	
26.245	-0.051	-0.069	
26.250	-0.133	-0.057	
26.255	0.087	-0.051	
26.260	0.116	-0.031	
26.265	-0.119	-0.007	
26.270	-0.022	-0.000	
26.275	0.134	0.002	
26.280	-0.100	0.009	
26.285	-0.107	0.003	
26.290	0.113	-0.010	
26.295	0.009	-0.008	
26.300	-0.104	-0.005	
26.305	0.116	-0.006	
26.310	0.139	0.007	
26.315	-0.095	0.025	
26.320	-0.031	0.026	
26.325	0.128	0.020	
26.330	-0.081	0.020	
26.335	-0.081	0.011	
26.340	0.180	0.002	
26.345	0.027	0.011	
26.350	-0.106	0.019	
26.355	0.094	0.016	
26.360	0.145	0.022	
26.365	-0.100	0.034	
26.370	-0.023	0.030	
26.375	0.131	0.022	
26.380	-0.084	0.021	
26.385	-0.095	0.010	
26.390	0.186	-0.001	
26.395	0.073	0.010	
26.400	-0.071	0.026	
26.405	0.188	0.034	
26.410	0.191	0.055	
26.415	-0.081	0.077	
26.420	0.036	0.077	
26.425	0.249	0.074	
26.430	0.003	0.083	
26.435	-0.002	0.084	
26.440	0.278	0.082	
26.445	0.113	0.097	
26.450	-0.051	0.107	
26.455	0.171	0.100	
26.460	0.175	0.100	
26.465	-0.100	0.101	
26.470	-0.049	0.080	
26.475	0.085	0.049	
26.480	-0.127	0.025	
26.485	-0.153	-0.007	
26.490	0.039	-0.039	
26.495	-0.058	-0.054	
26.500	-0.182	-0.063	
26.505	-0.028	-0.077	
26.510	0.023	-0.079	
26.515	-0.142	-0.072	
26.520	-0.049	-0.069	
26.525	0.082	-0.062	
26.530	-0.153	-0.049	
26.535	-0.177	-0.052	
26.540	0.035	-0.066	
26.545	-0.003	-0.066	
26.550	-0.064	-0.055	
26.555	0.318	-0.031	
26.560	0.568	0.039	
26.565	0.478	0.155	
26.570	0.716	0.287	
26.575	0.848	0.426	
26.580	0.402	0.546	
26.585	0.143	0.587	
26.590	0.256	0.542	
26.595	0.026	0.452	
26.600	-0.148	0.331	
26.605	-0.020	0.197	
26.610	-0.026	0.085	
26.615	-0.225	0.001	
26.620	-0.165	-0.071	
26.625	-0.028	-0.120	
26.630	-0.174	-0.140	
26.635	-0.199	-0.151	
26.640	-0.029	-0.156	
26.645	-0.138	-0.148	
26.650	-0.248	-0.142	
26.655	-0.081	-0.146	
26.660	-0.025	-0.141	
26.665	-0.193	-0.128	
26.670	-0.103	-0.121	
26.675	0.067	-0.111	
26.680	-0.129	-0.090	
26.685	-0.133	-0.078	
26.690	0.099	-0.071	
26.695	0.006	-0.052	
26.700	-0.136	-0.034	
26.705	0.027	-0.030	
26.710	0.096	-0.022	
26.715	-0.100	-0.008	
26.720	-0.006	-0.005	
26.725	0.185	0.001	
26.730	-0.048	0.018	
26.735	-0.058	0.025	
26.740	0.220	0.026	
26.745	0.136	0.046	
26.750	-0.054	0.067	
26.755	0.177	0.075	
26.760	0.232	0.089	
26.765	-0.037	0.108	
26.770	0.067	0.107	
26.775	0.255	0.104	
26.780	0.004	0.109	
26.785	-0.025	0.103	
26.790	0.252	0.091	
26.795	0.075	0.093	
26.800	-0.116	0.090	
26.805	0.049	0.067	
26.810	0.096	0.047	
26.815	-0.141	0.033	
26.820	-0.078	0.008	
26.825	0.075	-0.016	
26.830	-0.142	-0.028	
26.835	-0.173	-0.047	
26.840	0.009	-0.069	
26.845	-0.093	-0.079	
26.850	-0.217	-0.088	
26.855	-0.072	-0.103	
26.860	-0.014	-0.109	
26.865	-0.179	-0.105	
26.870	-0.127	-0.106	
26.875	0.017	-0.107	
26.880	-0.148	-0.098	
26.885	-0.174	-0.097	
26.890	0.033	-0.100	
26.895	-0.052	-0.090	
26.900	-0.150	-0.079	
26.905	0.026	-0.074	
26.910	0.081	-0.059	
26.915	-0.132	-0.038	
26.920	-0.055	-0.032	
26.925	0.148	-0.027	
26.930	-0.087	-0.013	
26.935	-0.118	-0.010	
26.940	0.114	-0.016	
26.945	-0.006	-0.012	
26.950	-0.122	-0.008	
26.955	0.078	-0.013	
26.960	0.130	-0.005	
26.965	-0.093	0.010	
26.970	-0.049	0.011	
26.975	0.133	0.007	
26.980	-0.084	0.010	
26.985	-0.104	0.003	
26.990	0.143	-0.008	
26.995	0.036	-0.002	
27.000	-0.112	0.006	
27.005	0.078	0.004	
27.010	0.145	0.011	
27.015	-0.083	0.026	
27.020	0.003	0.027	
27.025	0.212	0.029	
27.030	-0.040	0.043	
27.035	-0.084	0.044	
27.040	0.145	0.033	
27.045	0.032	0.033	
27.050	-0.118	0.031	
27.055	0.082	0.018	
27.060	0.149	0.018	
27.065	-0.103	0.027	
27.070	-0.009	0.024	
27.075	0.185	0.021	
27.080	-0.040	0.030	
27.085	-0.043	0.032	
27.090	0.258	0.033	
27.095	0.157	0.057	
27.100	-0.037	0.082	
27.105	0.209	0.093	
27.110	0.267	0.111	
27.115	-0.042	0.132	
27.120	0.039	0.128	
27.125	0.240	0.115	
27.130	-0.029	0.110	
27.135	-0.095	0.092	
27.140	0.091	0.059	
27.145	-0.043	0.035	
27.150	-0.165	0.009	
27.155	-0.006	-0.023	
27.160	0.029	-0.041	
27.165	-0.194	-0.049	
27.170	-0.124	-0.067	
27.175	0.055	-0.081	
27.180	-0.115	-0.079	
27.185	-0.135	-0.077	
27.190	0.058	-0.078	
27.195	-0.048	-0.066	
27.200	-0.193	-0.059	
27.205	-0.045	-0.067	
27.210	0.096	-0.067	
27.215	-0.048	-0.050	
27.220	0.212	-0.023	
27.225	0.644	0.042	
27.230	0.614	0.164	
27.235	0.669	0.311	
27.240	0.941	0.459	
27.245	0.696	0.597	
27.250	0.258	0.674	
27.255	0.310	0.658	
27.260	0.229	0.580	
27.265	-0.112	0.464	
27.270	-0.124	0.317	
27.275	-0.028	0.168	
27.280	-0.196	0.046	
27.285	-0.231	-0.052	
27.290	-0.083	-0.125	
27.295	-0.136	-0.162	
27.300	-0.257	-0.179	
27.305	-0.126	-0.190	
27.310	-0.058	-0.186	
27.315	-0.228	-0.172	
27.320	-0.165	-0.164	
27.325	-0.002	-0.156	
27.330	-0.167	-0.139	
27.335	-0.188	-0.129	
27.340	0.018	-0.124	
27.345	-0.058	-0.109	
27.350	-0.190	-0.095	
27.355	-0.028	-0.091	
27.360	0.032	-0.083	
27.365	-0.170	-0.070	
27.370	-0.098	-0.069	
27.375	0.097	-0.068	
27.380	-0.083	-0.055	
27.385	-0.100	-0.046	
27.390	0.180	-0.037	
27.395	0.096	-0.010	
27.400	-0.075	0.019	
27.405	0.134	0.033	
27.410	0.220	0.053	
27.415	-0.045	0.078	
27.420	0.023	0.082	
27.425	0.253	0.081	
27.430	0.018	0.091	
27.435	-0.043	0.090	
27.440	0.238	0.081	
27.445	0.134	0.088	
27.450	-0.092	0.094	
27.455	0.136	0.084	
27.460	0.223	0.082	
27.465	-0.072	0.089	
27.470	-0.032	0.078	
27.475	0.146	0.059	
27.480	-0.090	0.047	
27.485	-0.139	0.024	
27.490	0.049	-0.007	
27.495	-0.060	-0.025	
27.500	-0.205	-0.042	
27.505	-0.081	-0.068	
27.510	-0.042	-0.087	
27.515	-0.203	-0.098	
27.520	-0.127	-0.111	
27.525	0.046	-0.116	
27.530	-0.132	-0.105	
27.535	-0.181	-0.099	
27.540	0.033	-0.098	
27.545	-0.051	-0.088	
27.550	-0.187	-0.078	
27.555	-0.038	-0.080	
27.560	0.027	-0.077	
27.565	-0.148	-0.068	
27.570	-0.087	-0.067	
27.575	0.099	-0.065	
27.580	-0.086	-0.050	
27.585	-0.122	-0.043	
27.590	0.110	-0.042	
27.595	0.029	-0.028	
27.600	-0.147	-0.015	
27.605	0.009	-0.017	
27.610	0.111	-0.016	
27.615	-0.104	-0.007	
27.620	-0.045	-0.008	
27.625	0.189	-0.007	
27.630	-0.040	0.009	
27.635	-0.090	0.015	
27.640	0.157	0.013	
27.645	0.067	0.023	
27.650	-0.122	0.031	
27.655	0.050	0.024	
27.660	0.157	0.022	
27.665	-0.103	0.029	
27.670	-0.043	0.023	
27.675	0.175	0.015	
27.680	-0.020	0.022	
27.685	-0.086	0.023	
27.690	0.156	0.018	
27.695	0.055	0.025	
27.700	-0.127	0.030	
27.705	0.036	0.020	
27.710	0.131	0.014	
27.715	-0.104	0.018	
27.720	-0.049	0.011	
27.725	0.159	0.003	
27.730	-0.066	0.008	
27.735	-0.109	0.005	
27.740	0.175	-0.002	
27.745	0.075	0.009	
27.750	-0.121	0.023	
27.755	0.073	0.021	
27.760	0.197	0.026	
27.765	-0.081	0.042	
27.770	-0.019	0.042	
27.775	0.223	0.040	
27.780	0.000	0.051	
27.785	-0.040	0.055	
27.790	0.269	0.056	
27.795	0.169	0.077	
27.800	-0.049	0.099	
27.805	0.145	0.101	
27.810	0.229	0.105	
27.815	-0.048	0.114	
27.820	-0.003	0.103	
27.825	0.218	0.086	
27.830	-0.017	0.081	
27.835	-0.104	0.067	
27.840	0.090	0.042	
27.845	-0.008	0.025	
27.850	-0.164	0.008	
27.855	-0.034	-0.019	
27.860	0.036	-0.038	
27.865	-0.155	-0.045	
27.870	-0.115	-0.059	
27.875	0.044	-0.070	
27.880	-0.119	-0.069	
27.885	-0.155	-0.072	
27.890	0.052	-0.078	
27.895	-0.022	-0.070	
27.900	-0.182	-0.061	
27.905	-0.032	-0.064	
27.910	0.156	-0.059	
27.915	0.027	-0.031	
27.920	0.305	0.012	
27.925	0.785	0.097	
27.930	0.736	0.241	
27.935	0.652	0.402	
27.940	0.875	0.541	
27.945	0.637	0.650	
27.950	0.172	0.691	
27.955	0.243	0.640	
27.960	0.226	0.537	
27.965	-0.118	0.414	
27.970	-0.130	0.271	
27.975	-0.022	0.132	
27.980	-0.196	0.022	
27.985	-0.258	-0.067	
27.990	-0.115	-0.136	
27.995	-0.158	-0.175	
28.000	-0.286	-0.195	
28.005	-0.161	-0.210	
28.010	-0.083	-0.210	
28.015	-0.239	-0.198	
28.020	-0.207	-0.190	
28.025	-0.055	-0.184	
28.030	-0.165	-0.170	
28.035	-0.205	-0.158	
28.040	-0.055	-0.153	
28.045	-0.068	-0.139	
28.050	-0.193	-0.125	
28.055	-0.046	-0.118	
28.060	0.072	-0.102	
28.065	-0.124	-0.077	
28.070	-0.066	-0.062	
28.075	0.157	-0.047	
28.080	-0.035	-0.022	
28.085	-0.095	-0.005	
28.090	0.157	0.000	
28.095	0.116	0.019	
28.100	-0.081	0.038	
28.105	0.105	0.044	
28.110	0.200	0.053	
28.115	-0.046	0.069	
28.120	0.010	0.070	
28.125	0.233	0.067	
28.130	0.038	0.077	
28.135	-0.032	0.080	
28.140	0.236	0.077	
28.145	0.165	0.089	
28.150	-0.048	0.102	
28.155	0.130	0.099	
28.160	0.238	0.100	
28.165	-0.052	0.108	
28.170	-0.037	0.096	
28.175	0.175	0.075	
28.180	-0.066	0.062	
28.185	-0.161	0.039	
28.190	-0.016	0.002	
28.195	-0.063	-0.029	
28.200	-0.211	-0.055	
28.205	-0.116	-0.085	
28.210	-0.017	-0.105	
28.215	-0.187	-0.112	
28.220	-0.147	-0.119	
28.225	0.007	-0.122	
28.230	-0.133	-0.114	
28.235	-0.181	-0.109	
28.240	0.010	-0.109	
28.245	-0.048	-0.098	
28.250	-0.190	-0.087	
28.255	-0.051	-0.088	
28.260	0.049	-0.083	
28.265	-0.138	-0.070	
28.270	-0.101	-0.065	
28.275	0.096	-0.062	
28.280	-0.072	-0.049	
28.285	-0.135	-0.041	
28.290	0.079	-0.042	
28.295	0.009	-0.033	
28.300	-0.147	-0.025	
28.305	-0.003	-0.030	
28.310	0.117	-0.028	
28.315	-0.101	-0.016	
28.320	-0.060	-0.014	
28.325	0.171	-0.013	
28.330	-0.025	0.002	
28.335	-0.101	0.010	
28.340	0.122	0.007	
28.345	0.073	0.014	
28.350	-0.118	0.022	
28.355	0.030	0.016	
28.360	0.146	0.014	
28.365	-0.095	0.021	
28.370	-0.057	0.016	
28.375	0.160	0.008	
28.380	-0.038	0.013	
28.385	-0.122	0.012	
28.390	0.105	0.000	
28.395	0.073	0.002	
28.400	-0.103	0.010	
28.405	0.046	0.007	
28.410	0.162	0.012	
28.415	-0.081	0.025	
28.420	-0.049	0.025	
28.425	0.192	0.021	
28.430	-0.017	0.029	
28.435	-0.080	0.032	
28.440	0.145	0.026	
28.445	0.067	0.031	
28.450	-0.119	0.035	
28.455	0.032	0.024	
28.460	0.163	0.019	
28.465	-0.080	0.026	
28.470	-0.040	0.023	
28.475	0.217	0.020	
28.480	0.001	0.033	
28.485	-0.064	0.040	
28.490	0.221	0.041	
28.495	0.185	0.060	
28.500	-0.038	0.083	
28.505	0.168	0.092	
28.510	0.314	0.108	
28.515	0.012	0.133	
28.520	0.084	0.140	
28.525	0.321	0.141	
28.530	0.091	0.153	
28.535	-0.029	0.153	
28.540	0.192	0.135	
28.545	0.087	0.121	
28.550	-0.145	0.103	
28.555	-0.046	0.063	
28.560	0.053	0.023	
28.565	-0.156	-0.005	
28.570	-0.122	-0.036	
28.575	0.093	-0.058	
28.580	-0.068	-0.059	
28.585	-0.159	-0.058	
28.590	0.035	-0.063	
28.595	-0.009	-0.058	
28.600	-0.167	-0.052	
28.605	-0.051	-0.058	
28.610	0.046	-0.060	
28.615	-0.164	-0.056	
28.620	-0.127	-0.062	
28.625	0.148	-0.066	
28.630	0.136	-0.042	
28.635	0.278	0.010	
28.640	0.782	0.101	
28.645	0.860	0.252	
28.650	0.608	0.424	
28.655	0.738	0.559	
28.660	0.704	0.651	
28.665	0.209	0.685	
28.670	0.064	0.630	
28.675	0.233	0.513	
28.680	-0.054	0.383	
28.685	-0.181	0.246	
28.690	-0.055	0.111	
28.695	-0.106	0.006	
28.700	-0.278	-0.072	
28.705	-0.197	-0.136	
28.710	-0.126	-0.180	
28.715	-0.292	-0.202	
28.720	-0.262	-0.221	
28.725	-0.081	-0.230	
28.730	-0.165	-0.220	
28.735	-0.216	-0.203	
28.740	-0.043	-0.187	
28.745	-0.074	-0.162	
28.750	-0.239	-0.139	
28.755	-0.104	-0.133	
28.760	-0.006	-0.126	
28.765	-0.170	-0.113	
28.770	-0.139	-0.108	
28.775	0.076	-0.103	
28.780	-0.058	-0.083	
28.785	-0.126	-0.066	
28.790	0.099	-0.055	
28.795	0.091	-0.032	
28.800	-0.118	-0.007	
28.805	0.039	0.002	
28.810	0.194	0.013	
28.815	-0.052	0.033	
28.820	0.009	0.042	
28.825	0.255	0.048	
28.830	0.035	0.068	
28.835	-0.055	0.078	
28.840	0.235	0.076	
28.845	0.195	0.089	
28.850	-0.035	0.106	
28.855	0.096	0.105	
28.860	0.267	0.105	
28.865	-0.011	0.114	
28.870	0.018	0.109	
28.875	0.270	0.101	
28.880	0.018	0.104	
28.885	-0.115	0.096	
28.890	0.101	0.069	
28.895	0.033	0.048	
28.900	-0.171	0.029	
28.905	-0.086	-0.004	
28.910	0.012	-0.035	
28.915	-0.165	-0.054	
28.920	-0.170	-0.076	
28.925	-0.003	-0.096	
28.930	-0.136	-0.103	
28.935	-0.222	-0.110	
28.940	-0.037	-0.122	
28.945	-0.032	-0.120	
28.950	-0.177	-0.110	
28.955	-0.087	-0.107	
28.960	0.026	-0.100	
28.965	-0.167	-0.088	
28.970	-0.135	-0.086	
28.975	0.073	-0.086	
28.980	-0.077	-0.073	
28.985	-0.165	-0.065	
28.990	0.061	-0.065	
28.995	0.023	-0.054	
