Vernier Format 2
ecg4.txt 10/20/2025 8:18:52
Run 1
Time	Potential	EKG	
T	P	E	
s	mV	mV	

0.000	0.828	0.038	
0.005	0.790	0.163	
0.010	0.050	0.307	
0.015	0.851	0.402	
0.020	1.986	0.547	
0.025	3.060	0.881	
0.030	3.034	1.396	
0.035	3.025	1.953	
0.040	3.023	2.425	
0.045	3.022	2.767	
0.050	3.026	2.983	
0.055	3.028	3.097	
0.060	3.023	3.140	
0.065	3.025	3.140	
0.070	3.028	3.118	
0.075	3.026	3.091	
0.080	3.023	3.066	
0.085	3.025	3.045	
0.090	3.026	3.032	
0.095	3.026	3.024	
0.100	3.026	3.020	
0.105	3.026	3.020	
0.110	3.038	3.021	
0.115	3.058	3.025	
0.120	2.611	3.012	
0.125	-0.272	2.819	
0.130	-0.993	2.253	
0.135	-0.993	1.409	
0.140	-0.995	0.551	
0.145	-0.996	-0.157	
0.150	-0.995	-0.659	
0.155	-0.995	-0.969	
0.160	-0.996	-1.126	
0.165	-0.995	-1.179	
0.170	-0.995	-1.171	
0.175	-0.995	-1.135	
0.180	-0.996	-1.091	
0.185	-0.995	-1.052	
0.190	-0.995	-1.022	
0.195	-0.996	-1.003	
0.200	-0.995	-0.992	
0.205	-0.993	-0.987	
0.210	-0.995	-0.986	
0.215	-0.986	-0.986	
0.220	-0.617	-0.970	
0.225	-0.889	-0.926	
0.230	-0.775	-0.880	
0.235	-0.349	-0.824	
0.240	-0.523	-0.736	
0.245	-0.613	-0.650	
0.250	-0.029	-0.569	
0.255	0.241	-0.445	
0.260	-0.051	-0.283	
0.265	0.835	-0.106	
0.270	1.706	0.154	
0.275	1.659	0.526	
0.280	2.687	0.968	
0.285	3.072	1.472	
0.290	3.077	1.998	
0.295	2.876	2.446	
0.300	3.081	2.765	
0.305	2.560	2.946	
0.310	1.023	2.918	
0.315	0.799	2.614	
0.320	0.576	2.130	
0.325	-0.428	1.569	
0.330	-0.668	0.960	
0.335	-0.523	0.378	
0.340	-0.993	-0.103	
0.345	-0.995	-0.482	
0.350	-0.993	-0.763	
0.355	-0.993	-0.944	
0.360	-0.995	-1.042	
0.365	-0.993	-1.081	
0.370	-0.995	-1.085	
0.375	-0.993	-1.069	
0.380	-0.995	-1.048	
0.385	-0.993	-1.028	
0.390	-0.995	-1.011	
0.395	-0.995	-1.000	
0.400	-0.786	-0.984	
0.405	-0.688	-0.945	
0.410	-0.929	-0.894	
0.415	-0.578	-0.848	
0.420	-0.349	-0.781	
0.425	-0.795	-0.699	
0.430	-0.842	-0.659	
0.435	-0.566	-0.657	
0.440	-0.951	-0.670	
0.445	-0.995	-0.713	
0.450	-0.993	-0.784	
0.455	-0.993	-0.857	
0.460	-0.995	-0.919	
0.465	-0.995	-0.963	
0.470	-0.993	-0.990	
0.475	-0.995	-1.005	
0.480	-0.995	-1.010	
0.485	-0.966	-1.008	
0.490	-0.995	-1.002	
0.495	-0.995	-0.997	
0.500	-0.851	-0.987	
0.505	-0.993	-0.970	
0.510	-0.995	-0.960	
0.515	-0.995	-0.961	
0.520	-0.993	-0.968	
0.525	-0.995	-0.976	
0.530	-0.995	-0.983	
0.535	-0.995	-0.989	
0.540	-0.995	-0.993	
0.545	-0.995	-0.995	
0.550	-0.995	-0.996	
0.555	-0.995	-0.997	
0.560	-0.995	-0.996	
0.565	-0.995	-0.996	
0.570	-0.995	-0.996	
0.575	-0.995	-0.995	
0.580	-0.995	-0.995	
0.585	-0.865	-0.989	
0.590	-0.986	-0.975	
0.595	-0.995	-0.964	
0.600	-0.746	-0.953	
0.605	-0.724	-0.920	
0.610	-0.960	-0.879	
0.615	-0.717	-0.852	
0.620	-0.468	-0.813	
0.625	-0.619	-0.749	
0.630	-0.423	-0.677	
0.635	0.316	-0.570	
0.640	0.330	-0.388	
0.645	0.275	-0.168	
0.650	1.040	0.059	
0.655	0.987	0.314	
0.660	0.128	0.526	
0.665	0.301	0.605	
0.670	0.554	0.591	
0.675	-0.103	0.536	
0.680	-0.122	0.420	
0.685	0.372	0.287	
0.690	-0.095	0.193	
0.695	-0.295	0.106	
0.700	0.166	0.019	
0.705	0.247	-0.014	
0.710	-0.171	-0.005	
0.715	0.188	0.005	
0.720	0.632	0.047	
0.725	0.076	0.130	
0.730	0.204	0.192	
0.735	0.884	0.250	
0.740	0.602	0.352	
0.745	0.388	0.451	
0.750	1.150	0.533	
0.755	1.355	0.662	
0.760	1.100	0.831	
0.765	2.131	1.024	
0.770	3.083	1.319	
0.775	2.684	1.727	
0.780	2.739	2.126	
0.785	3.078	2.448	
0.790	3.019	2.704	
0.795	2.740	2.878	
0.800	3.081	2.967	
0.805	3.080	3.016	
0.810	2.438	3.022	
0.815	2.685	2.958	
0.820	2.948	2.877	
0.825	2.024	2.796	
0.830	1.706	2.641	
0.835	2.064	2.424	
0.840	1.422	2.204	
0.845	0.790	1.953	
0.850	1.118	1.658	
0.855	0.828	1.385	
0.860	-0.066	1.120	
0.865	0.059	0.818	
0.870	0.290	0.534	
0.875	-0.254	0.314	
0.880	-0.268	0.125	
0.885	0.209	-0.017	
0.890	-0.092	-0.082	
0.895	-0.306	-0.111	
0.900	0.087	-0.134	
0.905	0.162	-0.119	
0.910	-0.248	-0.082	
0.915	0.064	-0.061	
0.920	0.686	-0.014	
0.925	0.076	0.082	
0.930	0.029	0.154	
0.935	0.730	0.201	
0.940	0.348	0.271	
0.945	-0.002	0.322	
0.950	0.696	0.335	
0.955	0.690	0.376	
0.960	-0.058	0.420	
0.965	0.263	0.402	
0.970	0.771	0.377	
0.975	0.157	0.385	
0.980	0.259	0.380	
0.985	1.040	0.387	
0.990	0.728	0.460	
0.995	0.461	0.548	
1.000	1.292	0.626	
1.005	1.375	0.752	
1.010	0.632	0.891	
1.015	0.991	0.963	
1.020	1.278	1.000	
1.025	0.493	1.020	
1.030	0.429	0.966	
1.035	1.081	0.873	
1.040	0.498	0.809	
1.045	-0.005	0.724	
1.050	0.647	0.601	
1.055	0.698	0.521	
1.060	-0.013	0.479	
1.065	0.505	0.425	
1.070	1.468	0.433	
1.075	1.572	0.589	
1.080	1.708	0.848	
1.085	2.290	1.155	
1.090	1.688	1.461	
1.095	0.988	1.648	
1.100	1.564	1.678	
1.105	1.610	1.647	
1.110	0.854	1.588	
1.115	1.288	1.478	
1.120	1.899	1.397	
1.125	1.262	1.392	
1.130	1.307	1.397	
1.135	2.013	1.414	
1.140	1.589	1.480	
1.145	1.019	1.526	
1.150	1.509	1.504	
1.155	1.347	1.464	
1.160	0.457	1.389	
1.165	0.669	1.231	
1.170	0.974	1.054	
1.175	0.090	0.897	
1.180	-0.025	0.707	
1.185	0.580	0.511	
1.190	0.085	0.377	
1.195	-0.220	0.266	
1.200	0.281	0.159	
1.205	0.269	0.105	
1.210	-0.284	0.084	
1.215	-0.115	0.039	
1.220	0.203	-0.005	
1.225	-0.269	-0.025	
1.230	-0.353	-0.061	
1.235	0.017	-0.112	
1.240	-0.246	-0.143	
1.245	-0.477	-0.175	
1.250	-0.051	-0.217	
1.255	0.029	-0.222	
1.260	-0.396	-0.202	
1.265	-0.190	-0.199	
1.270	0.113	-0.191	
1.275	-0.335	-0.166	
1.280	-0.382	-0.166	
1.285	-0.016	-0.187	
1.290	-0.274	-0.195	
1.295	-0.541	-0.213	
1.300	-0.219	-0.256	
1.305	-0.237	-0.286	
1.310	-0.672	-0.310	
1.315	-0.488	-0.361	
1.320	-0.213	-0.405	
1.325	-0.576	-0.421	
1.330	-0.617	-0.442	
1.335	-0.242	-0.466	
1.340	-0.459	-0.463	
1.345	-0.676	-0.461	
1.350	-0.283	-0.472	
1.355	-0.179	-0.455	
1.360	-0.483	-0.415	
1.365	-0.193	-0.380	
1.370	0.215	-0.323	
1.375	-0.321	-0.239	
1.380	-0.469	-0.195	
1.385	-0.252	-0.207	
1.390	-0.601	-0.248	
1.395	-0.952	-0.333	
1.400	-0.691	-0.461	
1.405	-0.648	-0.576	
1.410	-0.975	-0.663	
1.415	-0.732	-0.737	
1.420	-0.442	-0.771	
1.425	-0.804	-0.756	
1.430	-0.847	-0.743	
1.435	-0.518	-0.739	
1.440	-0.763	-0.722	
1.445	-0.995	-0.721	
1.450	-0.731	-0.748	
1.455	-0.679	-0.768	
1.460	-0.972	-0.777	
1.465	-0.694	-0.791	
1.470	-0.413	-0.780	
1.475	-0.729	-0.734	
1.480	-0.715	-0.696	
1.485	-0.307	-0.662	
1.490	-0.506	-0.608	
1.495	-0.712	-0.563	
1.500	-0.353	-0.542	
1.505	-0.315	-0.512	
1.510	-0.721	-0.481	
1.515	-0.671	-0.489	
1.520	-0.607	-0.526	
1.525	-0.993	-0.580	
1.530	-0.995	-0.665	
1.535	-0.995	-0.768	
1.540	-0.995	-0.860	
1.545	-0.995	-0.930	
1.550	-0.995	-0.977	
1.555	-0.995	-1.003	
1.560	-0.995	-1.014	
1.565	-0.995	-1.016	
1.570	-0.995	-1.013	
1.575	-0.995	-1.008	
1.580	-0.996	-1.004	
1.585	-0.996	-1.000	
1.590	-0.995	-0.997	
1.595	-0.995	-0.996	
1.600	-0.993	-0.995	
1.605	-0.841	-0.987	
1.610	-0.995	-0.970	
1.615	-0.757	-0.948	
1.620	-0.445	-0.899	
1.625	-0.734	-0.819	
1.630	-0.706	-0.749	
1.635	-0.298	-0.689	
1.640	-0.451	-0.613	
1.645	-0.621	-0.547	
1.650	-0.236	-0.502	
1.655	-0.214	-0.448	
1.660	-0.509	-0.393	
1.665	-0.228	-0.360	
1.670	0.287	-0.309	
1.675	-0.228	-0.222	
1.680	-0.232	-0.156	
1.685	0.444	-0.107	
1.690	0.122	-0.027	
1.695	-0.187	0.041	
1.700	0.311	0.069	
1.705	-0.064	0.087	
1.710	-0.552	0.063	
1.715	-0.242	-0.025	
1.720	0.487	-0.089	
1.725	0.134	-0.065	
1.730	0.490	0.017	
1.735	1.521	0.176	
1.740	1.289	0.444	
1.745	0.938	0.726	
1.750	1.873	0.963	
1.755	2.132	1.217	
1.760	1.488	1.469	
1.765	1.946	1.647	
1.770	2.485	1.793	
1.775	1.822	1.938	
1.780	1.758	2.015	
1.785	2.282	2.033	
1.790	1.378	2.022	
1.795	0.440	1.896	
1.800	0.777	1.624	
1.805	0.530	1.307	
1.810	-0.251	0.983	
1.815	-0.080	0.640	
1.820	0.434	0.354	
1.825	-0.150	0.178	
1.830	-0.130	0.058	
1.835	0.614	-0.002	
1.840	0.279	0.032	
1.845	-0.116	0.092	
1.850	0.672	0.138	
1.855	0.898	0.233	
1.860	0.217	0.360	
1.865	0.733	0.452	
1.870	1.393	0.555	
1.875	0.751	0.701	
1.880	0.776	0.812	
1.885	1.648	0.900	
1.890	1.205	1.020	
1.895	0.553	1.104	
1.900	1.182	1.102	
1.905	1.176	1.087	
1.910	0.263	1.054	
1.915	0.597	0.949	
1.920	1.010	0.837	
1.925	0.159	0.755	
1.930	0.131	0.642	
1.935	1.017	0.535	
1.940	0.709	0.516	
1.945	0.215	0.534	
1.950	0.936	0.540	
1.955	1.048	0.588	
1.960	0.142	0.649	
1.965	0.501	0.644	
1.970	1.069	0.625	
1.975	0.319	0.637	
1.980	0.266	0.616	
1.985	1.121	0.583	
1.990	0.800	0.612	
1.995	0.220	0.649	
2.000	0.953	0.648	
2.005	1.094	0.677	
2.010	0.263	0.723	
2.015	0.554	0.713	
2.020	1.019	0.686	
2.025	0.143	0.673	
2.030	-0.023	0.601	
2.035	0.680	0.491	
2.040	0.195	0.417	
2.045	-0.188	0.344	
2.050	0.515	0.260	
2.055	0.724	0.243	
2.060	-0.103	0.276	
2.065	0.120	0.270	
2.070	0.542	0.249	
2.075	-0.101	0.244	
2.080	0.044	0.214	
2.085	1.171	0.213	
2.090	1.103	0.334	
2.095	0.776	0.524	
2.100	1.660	0.719	
2.105	1.654	0.948	
2.110	0.539	1.140	
2.115	0.782	1.186	
2.120	1.340	1.148	
2.125	0.580	1.105	
2.130	0.510	1.018	
2.135	1.414	0.927	
2.140	1.127	0.917	
2.145	0.608	0.940	
2.150	1.526	0.956	
2.155	1.835	1.042	
2.160	1.167	1.185	
2.165	1.671	1.306	
2.170	2.316	1.439	
2.175	1.593	1.604	
2.180	1.477	1.710	
2.185	2.207	1.759	
2.190	1.674	1.807	
2.195	0.870	1.794	
2.200	1.468	1.682	
2.205	1.531	1.562	
2.210	0.588	1.451	
2.215	0.846	1.293	
2.220	1.410	1.147	
2.225	0.632	1.061	
2.230	0.518	0.971	
2.235	1.395	0.888	
2.240	1.002	0.883	
2.245	0.457	0.895	
2.250	1.118	0.876	
2.255	1.037	0.877	
2.260	0.042	0.865	
2.265	0.292	0.764	
2.270	0.809	0.640	
2.275	0.033	0.551	
2.280	-0.014	0.445	
2.285	0.741	0.345	
2.290	0.356	0.316	
2.295	-0.110	0.306	
2.300	0.505	0.274	
2.305	0.573	0.275	
2.310	-0.196	0.293	
2.315	-0.017	0.255	
2.320	0.504	0.202	
2.325	-0.089	0.180	
2.330	-0.132	0.145	
2.335	0.548	0.110	
2.340	0.168	0.125	
2.345	-0.200	0.141	
2.350	0.236	0.123	
2.355	0.359	0.120	
2.360	-0.236	0.130	
2.365	-0.043	0.104	
2.370	0.411	0.076	
2.375	-0.152	0.077	
2.380	-0.252	0.057	
2.385	0.157	0.013	
2.390	-0.135	-0.014	
2.395	-0.416	-0.049	
2.400	-0.103	-0.107	
2.405	0.000	-0.144	
2.410	-0.405	-0.159	
2.415	-0.228	-0.185	
2.420	0.163	-0.196	
2.425	-0.306	-0.175	
2.430	-0.413	-0.172	
2.435	0.023	-0.190	
2.440	-0.084	-0.184	
2.445	-0.243	-0.166	
2.450	0.548	-0.127	
2.455	1.032	0.002	
2.460	0.340	0.202	
2.465	0.699	0.374	
2.470	1.260	0.528	
2.475	0.415	0.674	
2.480	0.186	0.727	
2.485	0.933	0.698	
2.490	0.507	0.673	
2.495	-0.068	0.623	
2.500	0.631	0.530	
2.505	0.860	0.481	
2.510	0.156	0.484	
2.515	0.573	0.476	
2.520	1.327	0.506	
2.525	0.669	0.607	
2.530	0.603	0.695	
2.535	1.520	0.767	
2.540	1.231	0.886	
2.545	0.664	0.995	
2.550	1.337	1.045	
2.555	1.503	1.100	
2.560	0.669	1.155	
2.565	0.933	1.143	
2.570	1.608	1.118	
2.575	0.991	1.136	
2.580	0.897	1.142	
2.585	1.763	1.144	
2.590	1.411	1.203	
2.595	0.617	1.250	
2.600	1.181	1.219	
2.605	1.159	1.170	
2.610	0.152	1.098	
2.615	0.229	0.938	
2.620	0.617	0.743	
2.625	-0.165	0.570	
2.630	-0.335	0.377	
2.635	-0.048	0.172	
2.640	-0.318	0.005	
2.645	-0.677	-0.141	
2.650	-0.460	-0.285	
2.655	-0.480	-0.399	
2.660	-0.921	-0.490	
2.665	-0.866	-0.591	
2.670	-0.645	-0.684	
2.675	-0.992	-0.749	
2.680	-0.995	-0.810	
2.685	-0.863	-0.867	
2.690	-0.993	-0.907	
2.695	-0.995	-0.937	
2.700	-0.995	-0.962	
2.705	-0.993	-0.980	
2.710	-0.993	-0.992	
2.715	-0.995	-0.998	
2.720	-0.914	-0.996	
2.725	-0.995	-0.988	
2.730	-0.995	-0.981	
2.735	-0.778	-0.971	
2.740	-0.912	-0.946	
2.745	-0.993	-0.925	
2.750	-0.944	-0.921	
2.755	-0.845	-0.922	
2.760	-0.993	-0.919	
2.765	-0.954	-0.923	
2.770	-0.666	-0.919	
2.775	-0.937	-0.896	
2.780	-0.960	-0.881	
2.785	-0.540	-0.868	
2.790	-0.639	-0.824	
2.795	-0.866	-0.775	
2.800	-0.459	-0.738	
2.805	-0.240	-0.677	
2.810	-0.538	-0.590	
2.815	-0.242	-0.511	
2.820	0.577	-0.398	
2.825	0.149	-0.220	
2.830	0.072	-0.048	
2.835	0.774	0.095	
2.840	0.243	0.233	
2.845	-0.310	0.302	
2.850	-0.098	0.258	
2.855	-0.165	0.158	
2.860	-0.740	0.026	
2.865	-0.760	-0.155	
2.870	-0.561	-0.345	
2.875	-0.905	-0.504	
2.880	-0.954	-0.642	
2.885	-0.533	-0.746	
2.890	-0.628	-0.782	
2.895	-0.854	-0.777	
2.900	-0.482	-0.761	
2.905	-0.402	-0.715	
2.910	-0.914	-0.662	
2.915	-0.958	-0.661	
2.920	-0.882	-0.710	
2.925	-0.993	-0.774	
2.930	-0.996	-0.841	
2.935	-0.995	-0.903	
2.940	-0.995	-0.950	
2.945	-0.995	-0.981	
2.950	-0.995	-0.999	
2.955	-0.996	-1.007	
2.960	-0.996	-1.009	
2.965	-0.996	-1.008	
2.970	-0.996	-1.005	
2.975	-0.996	-1.002	
2.980	-0.996	-0.999	
2.985	-0.996	-0.998	
2.990	-0.995	-0.996	
2.995	-0.996	-0.996	
3.000	-0.995	-0.995	
3.005	-0.995	-0.995	
3.010	-0.995	-0.995	
3.015	-0.995	-0.995	
3.020	-0.808	-0.986	
3.025	-0.995	-0.966	
3.030	-0.995	-0.953	
3.035	-0.995	-0.954	
3.040	-0.995	-0.962	
3.045	-0.993	-0.972	
3.050	-0.769	-0.971	
3.055	-0.423	-0.927	
3.060	-0.520	-0.833	
3.065	0.056	-0.698	
3.070	1.422	-0.456	
3.075	1.254	-0.061	
3.080	1.392	0.390	
3.085	2.354	0.834	
3.090	2.172	1.281	
3.095	1.665	1.650	
3.100	2.595	1.900	
3.105	3.083	2.131	
3.110	3.081	2.398	
3.115	3.075	2.655	
3.120	3.067	2.859	
3.125	3.075	2.998	
3.130	3.075	3.081	
3.135	3.071	3.120	
3.140	3.072	3.130	
3.145	3.078	3.125	
3.150	3.075	3.113	
3.155	3.077	3.101	
3.160	3.080	3.090	
3.165	3.080	3.083	
3.170	3.075	3.078	
3.175	3.080	3.076	
3.180	3.069	3.075	
3.185	3.077	3.074	
3.190	3.080	3.074	
3.195	2.446	3.046	
3.200	2.684	2.961	
3.205	2.472	2.848	
3.210	1.265	2.677	
3.215	1.317	2.390	
3.220	1.812	2.071	
3.225	1.110	1.812	
3.230	0.829	1.574	
3.235	1.601	1.368	
3.240	1.431	1.266	
3.245	1.171	1.243	
3.250	2.386	1.286	
3.255	2.849	1.475	
3.260	1.917	1.758	
3.265	1.873	1.967	
3.270	2.183	2.069	
3.275	1.256	2.083	
3.280	0.964	1.966	
3.285	1.760	1.774	
3.290	1.531	1.630	
3.295	0.838	1.519	
3.300	1.454	1.399	
3.305	1.544	1.326	
3.310	0.400	1.274	
3.315	0.411	1.140	
3.320	0.811	0.957	
3.325	-0.077	0.781	
3.330	-0.295	0.567	
3.335	0.076	0.330	
3.340	-0.170	0.138	
3.345	-0.596	-0.022	
3.350	-0.352	-0.175	
3.355	-0.283	-0.291	
3.360	-0.717	-0.370	
3.365	-0.590	-0.447	
3.370	-0.225	-0.500	
3.375	-0.530	-0.506	
3.380	-0.640	-0.505	
3.385	-0.188	-0.503	
3.390	-0.246	-0.468	
3.395	-0.532	-0.420	
3.400	-0.184	-0.388	
3.405	-0.020	-0.343	
3.410	-0.419	-0.287	
3.415	-0.268	-0.259	
3.420	0.212	-0.231	
3.425	-0.234	-0.179	
3.430	-0.356	-0.148	
3.435	0.058	-0.147	
3.440	-0.115	-0.135	
3.445	-0.492	-0.135	
3.450	-0.199	-0.170	
3.455	-0.095	-0.202	
3.460	-0.533	-0.222	
3.465	-0.408	-0.264	
3.470	-0.038	-0.300	
3.475	-0.405	-0.303	
3.480	-0.553	-0.313	
3.485	-0.258	-0.342	
3.490	-0.471	-0.365	
3.495	-0.787	-0.400	
3.500	-0.526	-0.462	
3.505	-0.430	-0.512	
3.510	-0.856	-0.545	
3.515	-0.744	-0.594	
3.520	-0.462	-0.638	
3.525	-0.853	-0.658	
3.530	-0.995	-0.693	
3.535	-0.666	-0.743	
3.540	-0.795	-0.775	
3.545	-0.995	-0.798	
3.550	-0.734	-0.824	
3.555	-0.596	-0.826	
3.560	-0.992	-0.809	
3.565	-0.925	-0.813	
3.570	-0.697	-0.828	
3.575	-0.993	-0.836	
3.580	-0.995	-0.855	
3.585	-0.889	-0.885	
3.590	-0.993	-0.910	
3.595	-0.995	-0.933	
3.600	-0.993	-0.956	
3.605	-0.902	-0.970	
3.610	-0.993	-0.972	
3.615	-0.972	-0.972	
3.620	-0.532	-0.953	
3.625	-0.700	-0.894	
3.630	-0.711	-0.822	
3.635	-0.292	-0.746	
3.640	-0.407	-0.649	
3.645	-0.715	-0.566	
3.650	-0.344	-0.521	
3.655	-0.152	-0.475	
3.660	-0.535	-0.419	
3.665	-0.362	-0.387	
3.670	0.180	-0.350	
3.675	-0.168	-0.275	
3.680	-0.257	-0.206	
3.685	0.414	-0.147	
3.690	0.224	-0.054	
3.695	-0.199	0.032	
3.700	0.426	0.080	
3.705	0.745	0.154	
3.710	-0.037	0.248	
3.715	0.206	0.289	
3.720	0.903	0.315	
3.725	0.253	0.374	
3.730	-0.058	0.396	
3.735	0.617	0.369	
3.740	0.308	0.356	
3.745	-0.258	0.329	
3.750	0.107	0.250	
3.755	0.444	0.184	
3.760	-0.121	0.157	
3.765	0.159	0.132	
3.770	0.854	0.144	
3.775	0.143	0.216	
3.780	0.038	0.266	
3.785	0.991	0.297	
3.790	0.861	0.391	
3.795	0.197	0.499	
3.800	0.910	0.560	
3.805	1.144	0.632	
3.810	0.250	0.711	
3.815	0.437	0.714	
3.820	1.075	0.685	
3.825	0.339	0.680	
3.830	-0.019	0.632	
3.835	0.637	0.535	
3.840	0.263	0.458	
3.845	-0.266	0.378	
3.850	0.140	0.262	
3.855	0.441	0.178	
3.860	-0.207	0.142	
3.865	-0.068	0.096	
3.870	0.565	0.066	
3.875	-0.080	0.084	
3.880	-0.188	0.088	
3.885	0.444	0.073	
3.890	0.208	0.094	
3.895	-0.262	0.115	
3.900	0.192	0.098	
3.905	0.527	0.102	
3.910	-0.092	0.138	
3.915	0.241	0.157	
3.920	0.993	0.202	
3.925	0.380	0.306	
3.930	0.052	0.385	
3.935	0.678	0.406	
3.940	0.308	0.420	
3.945	-0.268	0.397	
3.950	0.064	0.305	
3.955	0.285	0.210	
3.960	-0.297	0.140	
3.965	-0.232	0.055	
3.970	0.273	-0.019	
3.975	-0.095	-0.042	
3.980	-0.176	-0.050	
3.985	0.460	-0.044	
3.990	0.238	0.012	
3.995	-0.234	0.070	
4.000	0.278	0.088	
4.005	0.512	0.119	
4.010	-0.171	0.164	
4.015	-0.040	0.162	
4.020	0.687	0.151	
4.025	0.099	0.184	
4.030	-0.089	0.203	
4.035	0.735	0.205	
4.040	0.585	0.259	
4.045	-0.064	0.323	
4.050	0.426	0.335	
4.055	0.683	0.347	
4.060	-0.042	0.370	
4.065	0.201	0.350	
4.070	0.893	0.333	
4.075	0.339	0.371	
4.080	0.094	0.398	
4.085	0.790	0.398	
4.090	0.551	0.428	
4.095	-0.069	0.447	
4.100	0.379	0.411	
4.105	0.599	0.377	
4.110	-0.153	0.356	
4.115	-0.034	0.292	
4.120	0.524	0.221	
4.125	-0.029	0.190	
4.130	-0.190	0.153	
4.135	0.394	0.106	
4.140	0.181	0.099	
4.145	-0.246	0.101	
4.150	0.175	0.077	
4.155	0.423	0.075	
4.160	-0.216	0.098	
4.165	-0.086	0.086	
4.170	0.583	0.074	
4.175	-0.006	0.104	
4.180	-0.184	0.117	
4.185	0.342	0.101	
4.190	0.073	0.100	
4.195	-0.341	0.089	
4.200	-0.028	0.037	
4.205	0.214	-0.004	
4.210	-0.339	-0.020	
4.215	-0.248	-0.057	
4.220	0.230	-0.093	
4.225	-0.190	-0.092	
4.230	-0.313	-0.096	
4.235	0.195	-0.109	
4.240	0.012	-0.091	
4.245	-0.338	-0.071	
4.250	0.032	-0.077	
4.255	0.360	-0.062	
4.260	-0.205	-0.018	
4.265	-0.055	0.002	
4.270	0.713	0.030	
4.275	0.359	0.118	
4.280	0.252	0.217	
4.285	1.254	0.323	
4.290	1.281	0.502	
4.295	0.698	0.706	
4.300	1.109	0.851	
4.305	1.201	0.955	
4.310	0.290	1.005	
4.315	0.287	0.940	
4.320	0.843	0.813	
4.325	0.178	0.700	
4.330	-0.057	0.568	
4.335	0.741	0.435	
4.340	0.721	0.389	
4.345	0.307	0.409	
4.350	1.052	0.454	
4.355	1.576	0.576	
4.360	0.906	0.765	
4.365	1.071	0.923	
4.370	1.622	1.046	
4.375	0.970	1.157	
4.380	0.698	1.195	
4.385	1.454	1.169	
4.390	1.243	1.164	
4.395	0.611	1.157	
4.400	1.139	1.106	
4.405	1.323	1.072	
4.410	0.316	1.046	
4.415	0.347	0.946	
4.420	0.970	0.814	
4.425	0.120	0.710	
4.430	-0.723	0.550	
4.435	-0.995	0.263	
4.440	-0.996	-0.098	
4.445	-0.995	-0.441	
4.450	-0.996	-0.712	
4.455	-0.995	-0.898	
4.460	-0.996	-1.007	
4.465	-0.996	-1.059	
4.470	-0.996	-1.073	
4.475	-0.996	-1.065	
4.480	-0.996	-1.049	
4.485	-0.996	-1.031	
4.490	-0.996	-1.016	
4.495	-0.996	-1.005	
4.500	-0.996	-0.998	
4.505	-0.996	-0.994	
4.510	-0.996	-0.993	
4.515	-0.996	-0.993	
4.520	-0.996	-0.993	
4.525	-0.996	-0.994	
4.530	-0.996	-0.995	
4.535	-0.996	-0.996	
4.540	-0.995	-0.996	
4.545	-0.996	-0.996	
4.550	-0.995	-0.996	
4.555	-0.995	-0.996	
4.560	-0.995	-0.996	
4.565	-0.995	-0.995	
4.570	-0.995	-0.995	
4.575	-0.993	-0.995	
4.580	-0.996	-0.995	
4.585	-0.986	-0.994	
4.590	-0.966	-0.992	
4.595	-0.995	-0.988	
4.600	-0.877	-0.981	
4.605	-0.671	-0.954	
4.610	-0.908	-0.909	
4.615	-0.698	-0.866	
4.620	-0.324	-0.806	
4.625	-0.546	-0.716	
4.630	-0.639	-0.634	
4.635	-0.115	-0.566	
4.640	-0.005	-0.468	
4.645	-0.303	-0.354	
4.650	0.363	-0.243	
4.655	0.924	-0.082	
4.660	0.336	0.130	
4.665	0.762	0.319	
4.670	1.517	0.509	
4.675	0.958	0.728	
4.680	0.765	0.895	
4.685	1.613	1.001	
4.690	1.479	1.121	
4.695	0.903	1.225	
4.700	1.721	1.282	
4.705	2.334	1.381	
4.710	1.769	1.551	
4.715	2.221	1.722	
4.720	3.083	1.917	
4.725	3.083	2.188	
4.730	3.083	2.487	
4.735	3.074	2.743	
4.740	3.074	2.931	
4.745	3.083	3.050	
4.750	3.077	3.114	
4.755	3.075	3.138	
4.760	3.080	3.139	
4.765	3.080	3.128	
4.770	3.077	3.114	
4.775	3.081	3.100	
4.780	2.864	3.080	
4.785	3.080	3.050	
4.790	3.080	3.031	
4.795	2.681	3.012	
4.800	3.083	2.979	
4.805	3.078	2.963	
4.810	2.861	2.966	
4.815	2.986	2.964	
4.820	3.078	2.966	
4.825	2.928	2.976	
4.830	2.627	2.966	
4.835	3.083	2.933	
4.840	2.710	2.906	
4.845	1.459	2.816	
4.850	1.549	2.583	
4.855	1.497	2.272	
4.860	0.453	1.929	
4.865	0.467	1.538	
4.870	1.100	1.176	
4.875	0.391	0.922	
4.880	0.104	0.719	
4.885	0.880	0.554	
4.890	0.728	0.491	
4.895	0.085	0.480	
4.900	0.724	0.462	
4.905	1.153	0.491	
4.910	0.431	0.575	
4.915	0.614	0.631	
4.920	1.257	0.677	
4.925	0.606	0.747	
4.930	0.279	0.770	
4.935	0.929	0.736	
4.940	0.741	0.716	
4.945	0.006	0.686	
4.950	0.478	0.601	
4.955	0.758	0.528	
4.960	-0.002	0.486	
4.965	0.160	0.418	
4.970	0.835	0.361	
4.975	0.203	0.360	
4.980	-0.071	0.347	
4.985	0.580	0.306	
4.990	0.434	0.300	
4.995	-0.162	0.301	
5.000	0.195	0.260	
5.005	0.449	0.223	
5.010	-0.155	0.207	
5.015	-0.005	0.167	
5.020	0.736	0.143	
5.025	0.339	0.188	
5.030	0.099	0.245	
5.035	0.829	0.291	
5.040	0.516	0.365	
5.045	-0.188	0.411	
5.050	0.119	0.370	
5.055	0.372	0.301	
5.060	-0.254	0.239	
5.065	-0.177	0.151	
5.070	0.324	0.066	
5.075	-0.165	0.026	
5.080	-0.309	-0.013	
5.085	0.263	-0.054	
5.090	0.140	-0.047	
5.095	-0.291	-0.024	
5.100	0.006	-0.028	
5.105	0.351	-0.022	
5.110	-0.214	0.008	
5.115	-0.122	0.012	
5.120	0.495	0.014	
5.125	-0.035	0.050	
5.130	-0.245	0.067	
5.135	0.339	0.054	
5.140	0.288	0.072	
5.145	-0.184	0.100	
5.150	0.233	0.103	
5.155	0.537	0.124	
5.160	-0.100	0.166	
5.165	0.036	0.174	
5.170	0.727	0.178	
5.175	0.178	0.224	
5.180	-0.038	0.254	
5.185	0.725	0.259	
5.190	0.553	0.305	
5.195	-0.115	0.350	
5.200	0.305	0.337	
5.205	0.599	0.319	
5.210	-0.089	0.316	
5.215	0.017	0.277	
5.220	0.699	0.236	
5.225	0.046	0.240	
5.230	-0.147	0.227	
5.235	0.475	0.189	
5.240	0.363	0.190	
5.245	-0.173	0.202	
5.250	0.201	0.181	
5.255	0.533	0.173	
5.260	-0.144	0.188	
5.265	-0.064	0.170	
5.270	0.582	0.143	
5.275	0.078	0.158	
5.280	-0.145	0.164	
5.285	0.417	0.146	
5.290	0.194	0.150	
5.295	-0.306	0.148	
5.300	0.023	0.101	
5.305	0.383	0.065	
5.310	-0.214	0.062	
5.315	-0.155	0.040	
5.320	0.380	0.015	
5.325	-0.090	0.024	
5.330	-0.240	0.022	
5.335	0.307	0.005	
5.340	0.192	0.021	
5.345	-0.283	0.045	
5.350	0.041	0.032	
5.355	0.437	0.031	
5.360	-0.168	0.059	
5.365	-0.116	0.062	
5.370	0.437	0.053	
5.375	-0.075	0.070	
5.380	-0.202	0.070	
5.385	0.510	0.058	
5.390	0.586	0.106	
5.395	-0.032	0.187	
5.400	0.360	0.232	
5.405	0.563	0.270	
5.410	-0.216	0.297	
5.415	-0.234	0.251	
5.420	0.088	0.154	
5.425	-0.286	0.063	
5.430	-0.471	-0.038	
5.435	-0.119	-0.143	
5.440	-0.156	-0.208	
5.445	-0.469	-0.243	
5.450	-0.184	-0.274	
5.455	0.140	-0.271	
5.460	-0.283	-0.228	
5.465	-0.188	-0.193	
5.470	0.434	-0.151	
5.475	-0.019	-0.072	
5.480	-0.150	-0.008	
5.485	0.537	0.035	
5.490	0.431	0.112	
5.495	-0.110	0.189	
5.500	0.406	0.220	
5.505	0.817	0.265	
5.510	0.068	0.335	
5.515	0.282	0.365	
5.520	1.069	0.391	
5.525	0.605	0.471	
5.530	0.340	0.544	
5.535	1.121	0.591	
5.540	0.993	0.670	
5.545	0.295	0.742	
5.550	0.817	0.751	
5.555	1.069	0.755	
5.560	0.279	0.767	
5.565	0.411	0.726	
5.570	1.049	0.670	
5.575	0.438	0.655	
5.580	0.065	0.619	
5.585	0.776	0.549	
5.590	0.696	0.520	
5.595	0.007	0.510	
5.600	0.356	0.460	
5.605	0.625	0.413	
5.610	-0.097	0.383	
5.615	-0.055	0.315	
5.620	0.559	0.240	
5.625	0.062	0.210	
5.630	-0.112	0.183	
5.635	0.542	0.154	
5.640	0.528	0.180	
5.645	-0.042	0.232	
5.650	0.458	0.256	
5.655	0.837	0.300	
5.660	0.068	0.367	
5.665	0.154	0.385	
5.670	0.898	0.381	
5.675	0.400	0.418	
5.680	0.041	0.439	
5.685	0.695	0.422	
5.690	0.547	0.428	
5.695	-0.113	0.429	
5.700	0.241	0.376	
5.705	0.554	0.323	
5.710	-0.110	0.295	
5.715	-0.045	0.240	
5.720	0.621	0.188	
5.725	0.122	0.189	
5.730	-0.113	0.189	
5.735	0.426	0.169	
5.740	0.295	0.176	
5.745	-0.194	0.184	
5.750	0.253	0.162	
5.755	0.842	0.174	
5.760	0.328	0.253	
5.765	0.621	0.342	
5.770	1.375	0.459	
5.775	0.785	0.624	
5.780	0.220	0.735	
5.785	0.655	0.741	
5.790	0.371	0.695	
5.795	-0.242	0.598	
5.800	-0.051	0.432	
5.805	0.180	0.263	
5.810	-0.326	0.131	
5.815	-0.283	0.007	
5.820	0.120	-0.091	
5.825	-0.130	-0.130	
5.830	-0.155	-0.139	
5.835	0.605	-0.110	
5.840	0.576	-0.000	
5.845	-0.078	0.131	
5.850	0.226	0.201	
5.855	0.628	0.245	
5.860	-0.074	0.286	
5.865	-0.017	0.275	
5.870	0.641	0.243	
5.875	0.116	0.247	
5.880	-0.141	0.236	
5.885	0.402	0.199	
5.890	0.301	0.188	
5.895	-0.229	0.184	
5.900	-0.038	0.139	
5.905	0.185	0.085	
5.910	-0.312	0.044	
5.915	-0.275	-0.017	
5.920	0.168	-0.076	
5.925	-0.171	-0.096	
5.930	-0.367	-0.113	
5.935	-0.025	-0.144	
5.940	-0.097	-0.156	
5.945	-0.482	-0.165	
5.950	-0.268	-0.201	
5.955	-0.104	-0.233	
5.960	-0.512	-0.251	
5.965	-0.523	-0.290	
5.970	-0.231	-0.338	
5.975	-0.410	-0.364	
5.980	-0.518	-0.382	
5.985	-0.138	-0.393	
5.990	-0.145	-0.369	
5.995	-0.462	-0.331	
6.000	-0.193	-0.309	
6.005	0.096	-0.276	
6.010	-0.315	-0.223	
6.015	-0.254	-0.193	
6.020	0.218	-0.170	
6.025	-0.182	-0.127	
6.030	-0.414	-0.109	
6.035	-0.071	-0.129	
6.040	-0.104	-0.146	
6.045	-0.453	-0.161	
6.050	-0.229	-0.196	
6.055	-0.097	-0.223	
6.060	-0.570	-0.241	
6.065	-0.662	-0.293	
6.070	-0.402	-0.371	
6.075	-0.619	-0.436	
6.080	-0.737	-0.498	
6.085	-0.336	-0.548	
6.090	-0.333	-0.552	
6.095	-0.697	-0.531	
6.100	-0.466	-0.523	
6.105	-0.295	-0.512	
6.110	-0.657	-0.491	
6.115	-0.601	-0.492	
6.120	-0.213	-0.497	
6.125	-0.349	-0.471	
6.130	-0.401	-0.432	
6.135	0.061	-0.383	
6.140	0.013	-0.301	
6.145	-0.414	-0.220	
6.150	-0.254	-0.189	
6.155	-0.136	-0.187	
6.160	-0.508	-0.200	
6.165	-0.457	-0.243	
6.170	-0.083	-0.289	
6.175	-0.333	-0.303	
6.180	-0.511	-0.311	
6.185	-0.142	-0.327	
6.190	-0.159	-0.319	
6.195	-0.488	-0.300	
6.200	-0.229	-0.298	
6.205	0.061	-0.283	
6.210	-0.317	-0.243	
6.215	-0.255	-0.216	
6.220	0.276	-0.189	
6.225	-0.084	-0.131	
6.230	-0.196	-0.082	
6.235	0.513	-0.041	
6.240	0.626	0.054	
6.245	0.010	0.172	
6.250	0.527	0.253	
6.255	0.936	0.338	
6.260	0.152	0.436	
6.265	0.285	0.473	
6.270	0.979	0.483	
6.275	0.446	0.523	
6.280	0.013	0.533	
6.285	0.730	0.495	
6.290	0.681	0.484	
6.295	-0.043	0.484	
6.300	0.368	0.439	
6.305	0.647	0.398	
6.310	-0.118	0.375	
6.315	-0.216	0.304	
6.320	-0.020	0.187	
6.325	-0.404	0.064	
6.330	-0.694	-0.078	
6.335	-0.434	-0.236	
6.340	-0.498	-0.366	
6.345	-0.877	-0.468	
6.350	-0.685	-0.568	
6.355	-0.460	-0.637	
6.360	-0.750	-0.662	
6.365	-0.692	-0.675	
6.370	-0.303	-0.669	
6.375	-0.486	-0.625	
6.380	-0.662	-0.577	
6.385	-0.245	-0.542	
6.390	-0.229	-0.488	
6.395	-0.647	-0.434	
6.400	-0.515	-0.421	
6.405	-0.313	-0.429	
6.410	-0.569	-0.433	
6.415	-0.459	-0.443	
6.420	0.068	-0.431	
6.425	-0.116	-0.366	
6.430	-0.243	-0.286	
6.435	0.486	-0.199	
6.440	0.657	-0.055	
6.445	0.053	0.111	
6.450	0.686	0.239	
6.455	1.399	0.388	
6.460	0.900	0.592	
6.465	1.113	0.782	
6.470	1.980	0.967	
6.475	1.653	1.189	
6.480	1.343	1.385	
6.485	2.110	1.523	
6.490	2.218	1.669	
6.495	1.611	1.809	
6.500	2.223	1.898	
6.505	2.792	1.999	
6.510	2.064	2.136	
6.515	1.911	2.216	
6.520	2.389	2.228	
6.525	1.641	2.208	
6.530	0.953	2.095	
6.535	1.469	1.885	
6.540	1.008	1.660	
6.545	-0.225	1.393	
6.550	-0.364	1.014	
6.555	-0.445	0.576	
6.560	-0.993	0.150	
6.565	-0.995	-0.245	
6.570	-0.960	-0.576	
6.575	-0.995	-0.813	
6.580	-0.993	-0.961	
6.585	-0.966	-1.039	
6.590	-0.847	-1.059	
6.595	-0.995	-1.043	
6.600	-0.821	-1.011	
6.605	-0.616	-0.958	
6.610	-0.932	-0.894	
6.615	-0.912	-0.853	
6.620	-0.553	-0.829	
6.625	-0.630	-0.786	
6.630	-0.590	-0.731	
6.635	0.012	-0.652	
6.640	0.215	-0.509	
6.645	-0.249	-0.336	
6.650	-0.011	-0.202	
6.655	0.324	-0.097	
6.660	-0.332	-0.013	
6.665	-0.416	-0.004	
6.670	-0.074	-0.056	
6.675	-0.286	-0.111	
6.680	-0.456	-0.168	
6.685	0.015	-0.219	
6.690	0.252	-0.212	
6.695	-0.127	-0.152	
6.700	0.400	-0.075	
6.705	0.916	0.049	
6.710	0.229	0.215	
6.715	0.181	0.329	
6.720	0.670	0.382	
6.725	0.055	0.411	
6.730	-0.271	0.372	
6.735	0.067	0.265	
6.740	0.021	0.159	
6.745	-0.318	0.067	
6.750	-0.009	-0.019	
6.755	0.579	-0.047	
6.760	-0.040	-0.001	
6.765	0.159	0.052	
6.770	1.179	0.136	
6.775	1.061	0.317	
6.780	0.780	0.536	
6.785	1.474	0.734	
6.790	1.460	0.935	
6.795	0.718	1.097	
6.800	1.026	1.155	
6.805	1.427	1.165	
6.810	0.673	1.164	
6.815	0.669	1.108	
6.820	1.361	1.031	
6.825	0.895	1.001	
6.830	0.499	0.970	
6.835	1.211	0.919	
6.840	1.214	0.915	
6.845	0.547	0.937	
6.850	0.971	0.927	
6.855	1.401	0.930	
6.860	0.738	0.968	
6.865	0.809	0.978	
6.870	1.645	0.987	
6.875	1.352	1.061	
6.880	1.075	1.152	
6.885	1.757	1.226	
6.890	1.685	1.326	
6.895	0.699	1.399	
6.900	0.907	1.361	
6.905	1.155	1.261	
6.910	0.348	1.143	
6.915	0.288	0.973	
6.920	0.947	0.796	
6.925	0.554	0.688	
6.930	0.180	0.612	
6.935	0.822	0.541	
6.940	0.809	0.528	
6.945	0.058	0.539	
6.950	0.423	0.508	
6.955	0.916	0.482	
6.960	0.192	0.494	
6.965	0.163	0.476	
6.970	0.765	0.438	
6.975	0.310	0.432	
6.980	-0.051	0.410	
6.985	0.574	0.360	
6.990	0.652	0.350	
6.995	0.036	0.368	
7.000	0.482	0.365	
7.005	0.897	0.384	
7.010	0.124	0.433	
7.015	0.160	0.437	
7.020	0.834	0.418	
7.025	0.371	0.432	
7.030	0.000	0.433	
7.035	0.644	0.400	
7.040	0.661	0.400	
7.045	-0.060	0.414	
7.050	0.301	0.383	
7.055	0.707	0.355	
7.060	-0.005	0.355	
7.065	-0.023	0.320	
7.070	0.576	0.268	
7.075	0.076	0.249	
7.080	-0.229	0.216	
7.085	0.215	0.153	
7.090	0.180	0.111	
7.095	-0.268	0.084	
7.100	-0.072	0.036	
7.105	0.217	-0.004	
7.110	-0.219	-0.016	
7.115	-0.162	-0.037	
7.120	0.443	-0.045	
7.125	0.044	-0.005	
7.130	-0.176	0.032	
7.135	0.342	0.046	
7.140	0.411	0.086	
7.145	-0.164	0.137	
7.150	0.036	0.142	
7.155	0.464	0.135	
7.160	-0.124	0.146	
7.165	-0.164	0.127	
7.170	0.197	0.082	
7.175	-0.145	0.049	
7.180	-0.407	0.000	
7.185	-0.077	-0.071	
7.190	-0.054	-0.122	
7.195	-0.446	-0.153	
7.200	-0.283	-0.197	
7.205	-0.045	-0.231	
7.210	-0.396	-0.241	
7.215	-0.384	-0.257	
7.220	-0.025	-0.273	
7.225	-0.226	-0.260	
7.230	-0.433	-0.248	
7.235	-0.083	-0.251	
7.240	0.013	-0.233	
7.245	-0.248	-0.195	
7.250	0.107	-0.158	
7.255	0.672	-0.081	
7.260	0.000	0.039	
7.265	-0.080	0.118	
7.270	0.363	0.144	
7.275	-0.119	0.155	
7.280	-0.394	0.119	
7.285	-0.063	0.035	
7.290	-0.049	-0.039	
7.295	-0.459	-0.097	
7.300	-0.327	-0.167	
7.305	-0.078	-0.226	
7.310	-0.291	-0.249	
7.315	-0.165	-0.252	
7.320	0.629	-0.207	
7.325	0.403	-0.077	
7.330	0.114	0.072	
7.335	1.037	0.209	
7.340	1.239	0.396	
7.345	0.553	0.603	
7.350	0.968	0.746	
7.355	1.433	0.860	
7.360	0.750	0.968	
7.365	0.631	1.007	
7.370	1.349	0.996	
7.375	0.994	1.006	
7.380	0.533	1.004	
7.385	1.219	0.969	
7.390	1.271	0.968	
7.395	0.475	0.985	
7.400	0.828	0.952	
7.405	1.301	0.918	
7.410	0.582	0.917	
7.415	0.513	0.885	
7.420	1.236	0.837	
7.425	0.811	0.834	
7.430	0.270	0.823	
7.435	0.877	0.768	
7.440	0.880	0.734	
7.445	0.068	0.706	
7.450	0.366	0.626	
7.455	0.813	0.545	
7.460	0.134	0.503	
7.465	0.079	0.443	
7.470	0.768	0.381	
7.475	0.388	0.372	
7.480	-0.025	0.369	
7.485	0.496	0.338	
7.490	0.431	0.325	
7.495	-0.200	0.312	
7.500	0.018	0.250	
7.505	0.617	0.194	
7.510	0.053	0.191	
7.515	0.013	0.189	
7.520	0.683	0.188	
7.525	0.263	0.228	
7.530	-0.133	0.256	
7.535	0.339	0.237	
7.540	0.336	0.225	
7.545	-0.286	0.211	
7.550	-0.187	0.146	
7.555	-0.037	0.055	
7.560	-0.471	-0.034	
7.565	-0.500	-0.140	
7.570	-0.159	-0.241	
7.575	-0.379	-0.302	
7.580	-0.628	-0.347	
7.585	-0.318	-0.395	
7.590	-0.245	-0.416	
7.595	-0.608	-0.415	
7.600	-0.446	-0.425	
7.605	-0.193	-0.430	
7.610	-0.494	-0.415	
7.615	-0.430	-0.405	
7.620	0.146	-0.381	
7.625	0.067	-0.302	
7.630	-0.106	-0.199	
7.635	0.600	-0.091	
7.640	0.675	0.061	
7.645	-0.064	0.211	
7.650	0.127	0.277	
7.655	0.618	0.296	
7.660	0.087	0.317	
7.665	0.175	0.314	
7.670	0.929	0.317	
7.675	0.252	0.366	
7.680	-0.605	0.360	
7.685	-0.992	0.201	
7.690	-0.995	-0.080	
7.695	-0.996	-0.386	
7.700	-0.996	-0.650	
7.705	-0.996	-0.843	
7.710	-0.996	-0.967	
7.715	-0.996	-1.033	
7.720	-0.996	-1.059	
7.725	-0.996	-1.060	
7.730	-0.996	-1.049	
7.735	-0.995	-1.033	
7.740	-0.995	-1.019	
7.745	-0.995	-1.007	
7.750	-0.995	-0.999	
7.755	-0.821	-0.987	
7.760	-0.993	-0.966	
7.765	-0.928	-0.949	
7.770	-0.523	-0.922	
7.775	-0.659	-0.860	
7.780	-0.857	-0.795	
7.785	-0.523	-0.750	
7.790	-0.497	-0.700	
7.795	-0.834	-0.655	
7.800	-0.657	-0.642	
7.805	-0.385	-0.634	
7.810	-0.700	-0.611	
7.815	-0.625	-0.599	
7.820	-0.205	-0.581	
7.825	-0.332	-0.529	
7.830	-0.533	-0.470	
7.835	-0.179	-0.427	
7.840	-0.109	-0.373	
7.845	-0.465	-0.318	
7.850	-0.243	-0.291	
7.855	0.162	-0.260	
7.860	-0.213	-0.203	
7.865	-0.182	-0.159	
7.870	0.707	-0.101	
7.875	0.829	0.041	
7.880	0.848	0.251	
7.885	2.103	0.522	
7.890	2.795	0.921	
7.895	2.565	1.420	
7.900	3.078	1.912	
7.905	3.071	2.344	
7.910	3.072	2.692	
7.915	3.071	2.932	
7.920	3.064	3.076	
7.925	3.067	3.145	
7.930	3.075	3.165	
7.935	3.074	3.158	
7.940	3.080	3.139	
7.945	2.074	3.072	
7.950	2.038	2.900	
7.955	2.212	2.666	
7.960	1.312	2.417	
7.965	1.046	2.120	
7.970	1.544	1.811	
7.975	1.016	1.563	
7.980	0.397	1.335	
7.985	0.990	1.106	
7.990	1.112	0.950	
7.995	0.386	0.864	
8.000	0.664	0.780	
8.005	1.149	0.727	
8.010	0.333	0.719	
8.015	0.015	0.666	
8.020	0.460	0.555	
8.025	-0.026	0.440	
8.030	-0.425	0.302	
8.035	-0.197	0.128	
8.040	-0.176	-0.027	
8.045	-0.598	-0.151	
8.050	-0.529	-0.272	
8.055	-0.326	-0.372	
8.060	-0.854	-0.447	
8.065	-0.993	-0.541	
8.070	-0.952	-0.662	
8.075	-0.993	-0.779	
8.080	-0.995	-0.874	
8.085	-0.993	-0.943	
8.090	-0.995	-0.987	
8.095	-0.995	-1.009	
8.100	-0.995	-1.018	
8.105	-0.995	-1.018	
8.110	-0.995	-1.013	
8.115	-0.995	-1.008	
8.120	-0.995	-1.003	
8.125	-0.993	-0.999	
8.130	-0.995	-0.996	
8.135	-0.995	-0.994	
8.140	-0.993	-0.993	
8.145	-0.995	-0.993	
8.150	-0.995	-0.993	
8.155	-0.990	-0.993	
8.160	-0.995	-0.993	
8.165	-0.995	-0.993	
8.170	-0.889	-0.989	
8.175	-0.992	-0.978	
8.180	-0.995	-0.970	
8.185	-0.921	-0.968	
8.190	-0.859	-0.958	
8.195	-0.995	-0.945	
8.200	-0.989	-0.941	
8.205	-0.715	-0.935	
8.210	-0.975	-0.916	
8.215	-0.949	-0.905	
8.220	-0.575	-0.891	
8.225	-0.674	-0.848	
8.230	-0.851	-0.798	
8.235	-0.503	-0.759	
8.240	-0.396	-0.704	
8.245	-0.743	-0.641	
8.250	-0.566	-0.604	
8.255	-0.309	-0.576	
8.260	-0.616	-0.538	
8.265	-0.628	-0.521	
8.270	-0.268	-0.515	
8.275	-0.410	-0.489	
8.280	-0.660	-0.467	
8.285	-0.349	-0.466	
8.290	-0.274	-0.455	
8.295	-0.617	-0.435	
8.300	-0.477	-0.437	
8.305	-0.242	-0.441	
8.310	-0.543	-0.430	
8.315	-0.555	-0.433	
8.320	-0.171	-0.438	
8.325	-0.320	-0.416	
8.330	-0.572	-0.392	
8.335	-0.197	-0.385	
8.340	-0.060	-0.357	
8.345	-0.434	-0.313	
8.350	-0.255	-0.288	
8.355	0.232	-0.255	
8.360	-0.171	-0.190	
8.365	-0.109	-0.133	
8.370	0.906	-0.057	
8.375	0.860	0.109	
8.380	0.600	0.320	
8.385	1.301	0.519	
8.390	1.369	0.732	
8.395	0.469	0.910	
8.400	0.707	0.969	
8.405	1.228	0.962	
8.410	0.510	0.951	
8.415	0.426	0.893	
8.420	1.307	0.823	
8.425	1.074	0.827	
8.430	0.632	0.864	
8.435	1.453	0.898	
8.440	1.752	0.993	
8.445	1.104	1.136	
8.450	1.553	1.251	
8.455	2.090	1.368	
8.460	1.359	1.500	
8.465	1.197	1.565	
8.470	1.885	1.568	
8.475	1.547	1.581	
8.480	1.048	1.574	
8.485	1.720	1.527	
8.490	1.888	1.517	
8.495	1.007	1.531	
8.500	1.226	1.493	
8.505	1.738	1.438	
8.510	1.031	1.410	
8.515	0.900	1.353	
8.520	1.509	1.276	
8.525	1.213	1.239	
8.530	0.621	1.202	
8.535	1.158	1.129	
8.540	1.301	1.080	
8.545	0.499	1.053	
8.550	0.770	0.988	
8.555	1.269	0.925	
8.560	0.515	0.900	
8.565	0.258	0.840	
8.570	0.991	0.749	
8.575	0.644	0.698	
8.580	-0.008	0.650	
8.585	0.568	0.561	
8.590	0.625	0.495	
8.595	-0.103	0.450	
8.600	0.064	0.367	
8.605	0.620	0.289	
8.610	0.021	0.258	
8.615	-0.011	0.225	
8.620	0.884	0.208	
8.625	0.675	0.274	
8.630	0.181	0.367	
8.635	0.965	0.437	
8.640	1.237	0.546	
8.645	0.530	0.682	
8.650	0.761	0.764	
8.655	1.291	0.817	
8.660	0.666	0.878	
8.665	0.562	0.892	
8.670	1.253	0.875	
8.675	0.858	0.886	
8.680	0.275	0.878	
8.685	0.843	0.816	
8.690	1.031	0.772	
8.695	0.226	0.753	
8.700	0.522	0.697	
8.705	1.101	0.650	
8.710	0.478	0.655	
8.715	0.330	0.647	
8.720	1.026	0.623	
8.725	0.660	0.637	
8.730	0.097	0.639	
8.735	0.820	0.599	
8.740	1.113	0.601	
8.745	0.571	0.657	
8.750	1.075	0.718	
8.755	1.908	0.828	
8.760	1.236	1.013	
8.765	0.955	1.163	
8.770	1.515	1.237	
8.775	0.990	1.274	
8.780	0.209	1.229	
8.785	0.589	1.072	
8.790	0.652	0.891	
8.795	-0.086	0.721	
8.800	0.081	0.530	
8.805	0.634	0.371	
8.810	0.026	0.288	
8.815	-0.066	0.222	
8.820	0.570	0.171	
8.825	0.142	0.170	
8.830	-0.263	0.165	
8.835	0.029	0.116	
8.840	0.110	0.066	
8.845	-0.315	0.026	
8.850	-0.155	-0.029	
8.855	0.273	-0.067	
8.860	-0.220	-0.066	
8.865	-0.356	-0.077	
8.870	0.012	-0.111	
8.875	-0.171	-0.130	
8.880	-0.437	-0.151	
8.885	-0.118	-0.187	
8.890	-0.011	-0.202	
8.895	-0.430	-0.198	
8.900	-0.246	-0.211	
8.905	0.429	-0.201	
8.910	0.039	-0.129	
8.915	0.003	-0.047	
8.920	0.722	0.038	
8.925	0.515	0.163	
8.930	0.029	0.277	
8.935	0.585	0.335	
8.940	0.696	0.389	
8.945	-0.071	0.432	
8.950	0.111	0.404	
8.955	0.562	0.349	
8.960	-0.069	0.311	
8.965	-0.216	0.245	
8.970	0.266	0.156	
8.975	-0.006	0.098	
8.980	-0.358	0.046	
8.985	-0.074	-0.024	
8.990	0.104	-0.073	
8.995	-0.271	-0.090	
9.000	-0.061	-0.105	
9.005	0.577	-0.084	
9.010	0.081	-0.004	
9.015	-0.046	0.068	
9.020	0.715	0.123	
9.025	0.475	0.213	
9.030	-0.087	0.291	
9.035	0.426	0.309	
9.040	0.614	0.325	
9.045	-0.098	0.344	
9.050	0.015	0.310	
9.055	0.467	0.255	
9.060	-0.130	0.218	
9.065	-0.277	0.157	
9.070	0.070	0.069	
9.075	-0.141	0.001	
9.080	-0.466	-0.064	
9.085	-0.197	-0.143	
9.090	-0.075	-0.199	
9.095	-0.477	-0.227	
9.100	-0.434	-0.267	
9.105	-0.171	-0.307	
9.110	-0.533	-0.331	
9.115	-0.668	-0.369	
9.120	-0.286	-0.419	
9.125	-0.310	-0.438	
9.130	-0.511	-0.432	
9.135	-0.196	-0.420	
9.140	-0.133	-0.384	
9.145	-0.595	-0.344	
9.150	-0.570	-0.349	
9.155	-0.385	-0.384	
9.160	-0.674	-0.424	
9.165	-0.744	-0.479	
9.170	-0.431	-0.538	
9.175	-0.562	-0.567	
9.180	-0.763	-0.584	
9.185	-0.258	-0.593	
9.190	0.119	-0.541	
9.195	-0.214	-0.427	
9.200	-0.016	-0.307	
9.205	0.617	-0.174	
9.210	0.105	-0.016	
9.215	-0.013	0.103	
9.220	0.808	0.183	
9.225	0.759	0.298	
9.230	0.284	0.420	
9.235	0.930	0.506	
9.240	1.196	0.609	
9.245	0.484	0.723	
9.250	0.842	0.785	
9.255	1.537	0.841	
9.260	0.935	0.937	
9.265	0.664	0.999	
9.270	1.165	1.004	
9.275	0.559	0.984	
9.280	-0.167	0.891	
9.285	0.111	0.696	
9.290	0.279	0.487	
9.295	-0.239	0.315	
9.300	-0.116	0.157	
9.305	0.347	0.045	
9.310	-0.170	0.000	
9.315	-0.307	-0.036	
9.320	0.065	-0.080	
9.325	-0.002	-0.095	
9.330	-0.168	-0.090	
9.335	0.676	-0.055	
9.340	1.335	0.088	
9.345	1.123	0.349	
9.350	1.819	0.662	
9.355	2.705	1.038	
9.360	2.308	1.471	
9.365	2.206	1.853	
9.370	2.893	2.142	
9.375	2.695	2.382	
9.380	2.099	2.539	
9.385	2.623	2.587	
9.390	2.751	2.599	
9.395	1.839	2.585	
9.400	1.819	2.481	
9.405	2.245	2.329	
9.410	1.500	2.185	
9.415	1.036	2.000	
9.420	1.422	1.771	
9.425	0.761	1.545	
9.430	-0.168	1.277	
9.435	-0.173	0.921	
9.440	-0.361	0.536	
9.445	-0.972	0.161	
9.450	-0.995	-0.205	
9.455	-0.993	-0.530	
9.460	-0.995	-0.775	
9.465	-0.995	-0.936	
9.470	-0.995	-1.026	
9.475	-0.995	-1.065	
9.480	-0.995	-1.071	
9.485	-0.995	-1.060	
9.490	-0.995	-1.042	
9.495	-0.993	-1.025	
9.500	-0.995	-1.011	
9.505	-0.989	-1.000	
9.510	-0.993	-0.994	
9.515	-0.993	-0.990	
9.520	-0.937	-0.986	
9.525	-0.993	-0.981	
9.530	-0.993	-0.977	
9.535	-0.993	-0.979	
9.540	-0.984	-0.982	
9.545	-0.995	-0.985	
9.550	-0.995	-0.987	
9.555	-0.776	-0.980	
9.560	-0.932	-0.956	
9.565	-0.957	-0.934	
9.570	-0.570	-0.908	
9.575	-0.581	-0.851	
9.580	-0.799	-0.783	
9.585	-0.477	-0.728	
9.590	-0.271	-0.659	
9.595	-0.569	-0.577	
9.600	-0.420	-0.515	
9.605	0.267	-0.442	
9.610	0.328	-0.304	
9.615	0.713	-0.105	
9.620	1.818	0.178	
9.625	1.596	0.558	
9.630	0.788	0.909	
9.635	1.136	1.113	
9.640	1.271	1.208	
9.645	0.547	1.226	
9.650	0.761	1.153	
9.655	1.367	1.063	
9.660	0.893	1.025	
9.665	0.661	0.993	
9.670	1.136	0.949	
9.675	0.875	0.928	
9.680	0.227	0.890	
9.685	0.603	0.796	
9.690	0.751	0.704	
9.695	-0.013	0.625	
9.700	0.012	0.505	
9.705	0.484	0.376	
9.710	-0.078	0.284	
9.715	-0.278	0.189	
9.720	0.059	0.081	
9.725	-0.086	0.001	
9.730	-0.399	-0.062	
9.735	-0.191	-0.131	
9.740	-0.086	-0.181	
9.745	-0.449	-0.209	
9.750	-0.437	-0.250	
9.755	-0.239	-0.297	
9.760	-0.535	-0.331	
9.765	-0.659	-0.378	
9.770	-0.321	-0.432	
9.775	-0.365	-0.455	
9.780	-0.633	-0.460	
9.785	-0.364	-0.470	
9.790	-0.200	-0.460	
9.795	-0.520	-0.430	
9.800	-0.408	-0.411	
9.805	-0.054	-0.391	
9.810	-0.262	-0.344	
9.815	-0.251	-0.296	
9.820	0.360	-0.236	
9.825	0.333	-0.126	
9.830	-0.116	-0.007	
9.835	0.353	0.074	
9.840	0.655	0.157	
9.845	0.087	0.250	
9.850	0.295	0.301	
9.855	0.887	0.343	
9.860	0.290	0.409	
9.865	-0.003	0.434	
9.870	0.753	0.414	
9.875	0.758	0.432	
9.880	0.299	0.479	
9.885	0.938	0.520	
9.890	1.352	0.607	
9.895	0.586	0.733	
9.900	0.567	0.802	
9.905	0.950	0.811	
9.910	0.301	0.794	
9.915	-0.064	0.707	
9.920	0.318	0.557	
9.925	0.036	0.408	
9.930	-0.375	0.260	
9.935	-0.150	0.100	
9.940	0.017	-0.028	
9.945	-0.324	-0.106	
9.950	-0.211	-0.164	
9.955	0.282	-0.183	
9.960	-0.138	-0.149	
9.965	-0.297	-0.118	
9.970	0.087	-0.111	
9.975	-0.043	-0.094	
9.980	-0.394	-0.087	
9.985	-0.184	-0.114	
9.990	0.058	-0.139	
9.995	-0.307	-0.143	
10.000	-0.196	-0.153	
10.005	0.281	-0.149	
10.010	-0.086	-0.107	
10.015	-0.225	-0.072	
10.020	0.261	-0.054	
10.025	0.062	-0.018	
10.030	-0.304	0.006	
10.035	-0.008	-0.009	
10.040	0.235	-0.018	
10.045	-0.257	-0.010	
10.050	-0.162	-0.025	
10.055	0.324	-0.039	
10.060	-0.109	-0.022	
10.065	-0.254	-0.016	
10.070	0.226	-0.028	
10.075	0.136	-0.014	
10.080	-0.262	0.007	
10.085	-0.014	-0.003	
10.090	0.308	-0.006	
10.095	-0.194	0.012	
10.100	-0.087	0.011	
10.105	0.437	0.012	
10.110	-0.020	0.045	
10.115	-0.177	0.063	
10.120	0.406	0.062	
10.125	0.385	0.097	
10.130	-0.129	0.145	
10.135	0.244	0.158	
10.140	0.588	0.180	
10.145	-0.023	0.221	
10.150	0.113	0.231	
10.155	0.727	0.236	
10.160	0.198	0.277	
10.165	-0.052	0.295	
10.170	0.501	0.277	
10.175	0.424	0.280	
10.180	-0.136	0.286	
10.185	0.171	0.251	
10.190	0.447	0.218	
10.195	-0.130	0.204	
10.200	-0.068	0.165	
10.205	0.519	0.128	
10.210	0.059	0.133	
10.215	-0.116	0.135	
10.220	0.684	0.135	
10.225	0.843	0.206	
10.230	0.408	0.332	
10.235	1.138	0.461	
10.240	1.780	0.646	
10.245	1.508	0.903	
10.250	1.983	1.176	
10.255	2.861	1.478	
10.260	2.601	1.829	
10.265	2.482	2.151	
10.270	3.078	2.403	
10.275	3.080	2.624	
10.280	2.209	2.777	
10.285	2.456	2.799	
10.290	2.649	2.744	
10.295	1.822	2.652	
10.300	1.888	2.495	
10.305	2.545	2.333	
10.310	2.221	2.247	
10.315	2.612	2.233	
10.320	3.074	2.299	
10.325	3.066	2.453	
10.330	3.069	2.642	
10.335	3.064	2.814	
10.340	3.061	2.944	
10.345	3.067	3.031	
10.350	3.067	3.080	
10.355	3.066	3.101	
10.360	3.069	3.106	
10.365	3.072	3.101	
10.370	3.067	3.093	
10.375	3.069	3.085	
10.380	3.075	3.078	
10.385	3.078	3.074	
10.390	3.075	3.072	
10.395	2.553	3.048	
10.400	2.337	2.959	
10.405	2.750	2.829	
10.410	1.995	2.697	
10.415	1.246	2.503	
10.420	1.586	2.225	
10.425	1.236	1.939	
10.430	0.360	1.644	
10.435	0.664	1.317	
10.440	0.855	1.030	
10.445	0.065	0.812	
10.450	0.064	0.603	
10.455	0.640	0.427	
10.460	0.064	0.327	
10.465	-0.164	0.245	
10.470	0.122	0.153	
10.475	-0.011	0.083	
10.480	-0.387	0.020	
10.485	-0.229	-0.062	
10.490	-0.130	-0.135	
10.495	-0.559	-0.195	
10.500	-0.613	-0.274	
10.505	-0.356	-0.361	
10.510	-0.657	-0.429	
10.515	-0.883	-0.501	
10.520	-0.640	-0.585	
10.525	-0.695	-0.651	
10.530	-0.993	-0.702	
10.535	-0.966	-0.766	
10.540	-0.880	-0.832	
10.545	-0.993	-0.882	
10.550	-0.995	-0.922	
10.555	-0.995	-0.955	
10.560	-0.993	-0.979	
10.565	-0.995	-0.993	
10.570	-0.993	-1.000	
10.575	-0.993	-1.003	
10.580	-0.995	-1.002	
10.585	-0.993	-1.000	
10.590	-0.993	-0.998	
10.595	-0.995	-0.996	
10.600	-0.995	-0.995	
10.605	-0.961	-0.993	
10.610	-0.995	-0.989	
10.615	-0.995	-0.987	
10.620	-0.876	-0.982	
10.625	-0.770	-0.960	
10.630	-0.983	-0.929	
10.635	-0.669	-0.900	
10.640	-0.382	-0.844	
10.645	-0.651	-0.757	
10.650	-0.605	-0.680	
10.655	-0.307	-0.617	
10.660	-0.602	-0.556	
10.665	-0.862	-0.533	
10.670	-0.549	-0.556	
10.675	-0.553	-0.581	
10.680	-0.828	-0.600	
10.685	-0.588	-0.628	
10.690	-0.350	-0.635	
10.695	-0.604	-0.608	
10.700	-0.494	-0.577	
10.705	-0.113	-0.534	
10.710	-0.434	-0.468	
10.715	-0.871	-0.434	
10.720	-0.899	-0.480	
10.725	-0.993	-0.582	
10.730	-0.995	-0.704	
10.735	-0.995	-0.818	
10.740	-0.993	-0.906	
10.745	-0.995	-0.966	
10.750	-0.995	-1.001	
10.755	-0.995	-1.017	
10.760	-0.995	-1.020	
10.765	-0.995	-1.018	
10.770	-0.995	-1.012	
10.775	-0.995	-1.006	
10.780	-0.995	-1.001	
10.785	-0.993	-0.997	
10.790	-0.938	-0.992	
10.795	-0.995	-0.985	
10.800	-0.995	-0.981	
10.805	-0.819	-0.973	
10.810	-0.981	-0.956	
10.815	-0.993	-0.946	
10.820	-0.894	-0.944	
10.825	-0.946	-0.941	
10.830	-0.995	-0.940	
10.835	-0.995	-0.948	
10.840	-0.993	-0.960	
10.845	-0.995	-0.972	
10.850	-0.995	-0.982	
10.855	-0.995	-0.990	
10.860	-0.995	-0.994	
10.865	-0.996	-0.997	
10.870	-0.995	-0.998	
10.875	-0.996	-0.998	
10.880	-0.996	-0.997	
10.885	-0.995	-0.997	
10.890	-0.996	-0.997	
10.895	-0.996	-0.996	
10.900	-0.996	-0.996	
10.905	-0.996	-0.996	
10.910	-0.995	-0.996	
10.915	-0.995	-0.996	
10.920	-0.533	-0.974	
10.925	-0.373	-0.896	
10.930	-0.610	-0.780	
10.935	-0.327	-0.667	
10.940	-0.072	-0.550	
10.945	-0.413	-0.432	
10.950	-0.381	-0.353	
10.955	0.035	-0.302	
10.960	-0.188	-0.244	
10.965	-0.398	-0.204	
10.970	-0.009	-0.193	
10.975	0.119	-0.166	
10.980	-0.283	-0.124	
10.985	0.096	-0.097	
10.990	0.536	-0.045	
10.995	-0.122	0.037	
11.000	-0.092	0.080	
11.005	0.727	0.105	
11.010	0.512	0.185	
11.015	0.347	0.287	
11.020	1.248	0.397	
11.025	1.321	0.570	
11.030	0.580	0.756	
11.035	0.929	0.866	
11.040	1.164	0.926	
11.045	0.211	0.944	
11.050	0.154	0.860	
11.055	0.733	0.717	
11.060	0.261	0.601	
11.065	-0.135	0.485	
11.070	0.547	0.363	
11.075	0.777	0.316	
11.080	0.328	0.347	
11.085	0.838	0.403	
11.090	1.278	0.508	
11.095	0.579	0.649	
11.100	0.531	0.735	
11.105	1.130	0.770	
11.110	0.615	0.802	
11.115	0.209	0.789	
11.120	0.857	0.724	
11.125	0.874	0.687	
11.130	0.191	0.671	
11.135	0.611	0.626	
11.140	0.938	0.596	
11.145	0.087	0.590	
11.150	-0.049	0.528	
11.155	0.634	0.428	
11.160	0.295	0.370	
11.165	-0.023	0.328	
11.170	0.369	0.276	
11.175	0.010	0.233	
11.180	-0.497	0.164	
11.185	-0.471	0.032	
11.190	-0.448	-0.125	
11.195	-0.970	-0.287	
11.200	-0.993	-0.470	
11.205	-0.894	-0.651	
11.210	-0.995	-0.794	
11.215	-0.995	-0.897	
11.220	-0.995	-0.965	
11.225	-0.993	-1.004	
11.230	-0.993	-1.022	
11.235	-0.995	-1.025	
11.240	-0.938	-1.018	
11.245	-0.995	-1.006	
11.250	-0.995	-0.995	
11.255	-0.666	-0.974	
11.260	-0.775	-0.927	
11.265	-0.873	-0.876	
11.270	-0.494	-0.828	
11.275	-0.443	-0.758	
11.280	-0.726	-0.681	
11.285	-0.448	-0.625	
11.290	-0.142	-0.564	
11.295	-0.428	-0.483	
11.300	-0.350	-0.417	
11.305	0.305	-0.345	
11.310	0.052	-0.232	
11.315	-0.176	-0.122	
11.320	0.478	-0.038	
11.325	0.533	0.071	
11.330	-0.118	0.177	
11.335	0.328	0.226	
11.340	0.970	0.278	
11.345	0.504	0.380	
11.350	0.672	0.482	
11.355	1.564	0.601	
11.360	1.378	0.787	
11.365	1.040	0.981	
11.370	1.857	1.140	
11.375	2.236	1.331	
11.380	1.838	1.556	
11.385	2.498	1.767	
11.390	3.081	2.002	
11.395	2.945	2.284	
11.400	3.081	2.557	
11.405	3.077	2.782	
11.410	3.080	2.947	
11.415	2.206	3.012	
11.420	2.242	2.937	
11.425	1.773	2.749	
11.430	0.765	2.452	
11.435	0.831	2.044	
11.440	1.031	1.625	
11.445	0.261	1.265	
11.450	0.140	0.933	
11.455	0.698	0.654	
11.460	0.133	0.474	
11.465	-0.257	0.330	
11.470	0.122	0.186	
11.475	0.117	0.086	
11.480	-0.278	0.025	
11.485	0.012	-0.030	
11.490	0.557	-0.037	
11.495	-0.034	0.016	
11.500	-0.075	0.059	
11.505	0.588	0.088	
11.510	0.285	0.149	
11.515	-0.023	0.205	
11.520	0.680	0.236	
11.525	0.857	0.310	
11.530	0.479	0.421	
11.535	1.236	0.539	
11.540	2.053	0.728	
11.545	1.709	1.012	
11.550	1.958	1.308	
11.555	2.757	1.599	
11.560	2.533	1.908	
11.565	2.151	2.169	
11.570	2.705	2.336	
11.575	2.653	2.459	
11.580	1.871	2.522	
11.585	2.048	2.477	
11.590	2.281	2.378	
11.595	1.332	2.257	
11.600	0.916	2.051	
11.605	1.103	1.769	
11.610	0.235	1.458	
11.615	-0.266	1.097	
11.620	0.029	0.704	
11.625	-0.008	0.371	
11.630	-0.433	0.119	
11.635	-0.286	-0.080	
11.640	-0.006	-0.210	
11.645	-0.310	-0.263	
11.650	-0.182	-0.278	
11.655	0.872	-0.225	
11.660	1.618	-0.011	
11.665	2.740	0.413	
11.670	3.064	1.013	
11.675	3.052	1.672	
11.680	3.046	2.251	
11.685	3.037	2.682	
11.690	3.031	2.960	
11.695	3.031	3.110	
11.700	3.032	3.169	
11.705	3.026	3.173	
11.710	3.034	3.148	
11.715	3.040	3.115	
11.720	3.040	3.084	
11.725	3.041	3.061	
11.730	3.049	3.046	
11.735	3.049	3.039	
11.740	3.043	3.037	
11.745	3.049	3.038	
11.750	3.051	3.040	
11.755	3.048	3.043	
11.760	3.054	3.046	
11.765	3.057	3.048	
11.770	3.049	3.051	
11.775	3.049	3.052	
11.780	3.054	3.052	
11.785	3.052	3.052	
11.790	3.052	3.052	
11.795	3.058	3.053	
11.800	3.066	3.054	
11.805	3.064	3.056	
11.810	3.069	3.059	
11.815	3.077	3.063	
11.820	3.072	3.066	
11.825	3.075	3.070	
11.830	2.548	3.048	
11.835	2.797	2.981	
11.840	3.078	2.915	
11.845	2.493	2.873	
11.850	2.374	2.804	
11.855	2.983	2.724	
11.860	2.606	2.687	
11.865	1.977	2.642	
11.870	2.412	2.547	
11.875	2.279	2.448	
11.880	1.338	2.332	
11.885	1.431	2.139	
11.890	1.703	1.921	
11.895	0.780	1.719	
11.900	0.537	1.478	
11.905	1.142	1.225	
11.910	0.678	1.036	
11.915	0.108	0.872	
11.920	0.447	0.692	
11.925	0.313	0.537	
11.930	-0.202	0.402	
11.935	-0.133	0.251	
11.940	-0.019	0.108	
11.945	-0.585	-0.017	
11.950	-0.951	-0.174	
11.955	-0.966	-0.379	
11.960	-0.995	-0.588	
11.965	-0.995	-0.765	
11.970	-0.993	-0.894	
11.975	-0.995	-0.976	
11.980	-0.995	-1.020	
11.985	-0.995	-1.037	
11.990	-0.995	-1.037	
11.995	-0.995	-1.030	
12.000	-0.996	-1.020	
12.005	-0.995	-1.010	
12.010	-0.995	-1.003	
12.015	-0.996	-0.998	
12.020	-0.995	-0.995	
12.025	-0.995	-0.994	
12.030	-0.995	-0.993	
12.035	-0.995	-0.993	
12.040	-0.995	-0.994	
12.045	-0.995	-0.994	
12.050	-0.995	-0.994	
12.055	-0.995	-0.995	
12.060	-0.995	-0.995	
12.065	-0.995	-0.995	
12.070	-0.995	-0.995	
12.075	-0.993	-0.995	
12.080	-0.995	-0.995	
12.085	-0.996	-0.995	
12.090	-0.995	-0.995	
12.095	-0.995	-0.995	
12.100	-0.996	-0.995	
12.105	-0.995	-0.995	
12.110	-0.995	-0.995	
12.115	-0.995	-0.995	
12.120	-0.995	-0.995	
12.125	-0.995	-0.995	
12.130	-0.995	-0.995	
12.135	-0.995	-0.995	
12.140	-0.993	-0.995	
12.145	-0.995	-0.995	
12.150	-0.995	-0.994	
12.155	-0.637	-0.978	
12.160	-0.460	-0.915	
12.165	-0.474	-0.809	
12.170	-0.074	-0.676	
12.175	0.049	-0.512	
12.180	-0.318	-0.351	
12.185	-0.148	-0.241	
12.190	0.223	-0.160	
12.195	-0.237	-0.088	
12.200	-0.408	-0.067	
12.205	-0.176	-0.101	
12.210	-0.349	-0.150	
12.215	-0.399	-0.205	
12.220	0.588	-0.220	
12.225	1.223	-0.095	
12.230	0.664	0.155	
12.235	1.040	0.415	
12.240	1.581	0.666	
12.245	0.997	0.906	
12.250	0.753	1.057	
12.255	1.234	1.108	
12.260	0.829	1.116	
12.265	0.212	1.057	
12.270	0.651	0.921	
12.275	0.414	0.773	
12.280	-0.520	0.602	
12.285	-0.712	0.345	
12.290	-0.616	0.037	
12.295	-0.844	-0.250	
12.300	-0.740	-0.486	
12.305	-0.320	-0.634	
12.310	-0.459	-0.674	
12.315	-0.758	-0.662	
12.320	-0.549	-0.650	
12.325	-0.511	-0.633	
12.330	-0.847	-0.620	
12.335	-0.776	-0.636	
12.340	-0.585	-0.665	
12.345	-0.871	-0.686	
12.350	-0.946	-0.721	
12.355	-0.721	-0.766	
12.360	-0.931	-0.800	
12.365	-0.995	-0.834	
12.370	-0.993	-0.877	
12.375	-0.993	-0.920	
12.380	-0.995	-0.955	
12.385	-0.995	-0.979	
12.390	-0.995	-0.994	
12.395	-0.995	-1.001	
12.400	-0.995	-1.004	
12.405	-0.969	-1.002	
12.410	-0.993	-0.998	
12.415	-0.995	-0.993	
12.420	-0.957	-0.990	
12.425	-0.851	-0.979	
12.430	-0.993	-0.961	
12.435	-0.993	-0.952	
12.440	-0.738	-0.943	
12.445	-0.943	-0.922	
12.450	-0.977	-0.908	
12.455	-0.676	-0.898	
12.460	-0.775	-0.871	
12.465	-0.993	-0.845	
12.470	-0.749	-0.838	
12.475	-0.674	-0.826	
12.480	-0.949	-0.809	
12.485	-0.818	-0.807	
12.490	-0.530	-0.801	
12.495	-0.737	-0.771	
12.500	-0.763	-0.741	
12.505	-0.471	-0.716	
12.510	-0.517	-0.674	
12.515	-0.700	-0.631	
12.520	-0.428	-0.601	
12.525	-0.312	-0.562	
12.530	-0.540	-0.512	
12.535	-0.330	-0.473	
12.540	0.075	-0.418	
12.545	-0.234	-0.333	
12.550	-0.352	-0.264	
12.555	-0.098	-0.229	
12.560	-0.252	-0.207	
12.565	-0.538	-0.210	
12.570	-0.298	-0.248	
12.575	-0.158	-0.281	
12.580	-0.430	-0.293	
12.585	-0.257	-0.304	
12.590	0.154	-0.289	
12.595	-0.113	-0.232	
12.600	-0.051	-0.166	
12.605	0.739	-0.079	
12.610	0.596	0.071	
12.615	0.094	0.226	
12.620	0.570	0.323	
12.625	0.596	0.395	
12.630	-0.048	0.437	
12.635	0.230	0.410	
12.640	0.842	0.380	
12.645	0.342	0.398	
12.650	0.235	0.415	
12.655	0.967	0.429	
12.660	0.799	0.494	
12.665	0.322	0.567	
12.670	0.834	0.604	
12.675	0.945	0.646	
12.680	0.360	0.690	
12.685	0.594	0.688	
12.690	1.118	0.683	
12.695	0.641	0.715	
12.700	0.583	0.736	
12.705	1.399	0.759	
12.710	1.320	0.847	
12.715	0.814	0.958	
12.720	1.188	1.026	
12.725	1.419	1.083	
12.730	0.826	1.135	
12.735	0.971	1.138	
12.740	1.353	1.119	
12.745	0.791	1.110	
12.750	0.567	1.062	
12.755	1.194	0.986	
12.760	1.022	0.951	
12.765	0.505	0.930	
12.770	0.965	0.887	
12.775	1.135	0.867	
12.780	0.426	0.866	
12.785	0.638	0.827	
12.790	1.083	0.783	
12.795	0.345	0.763	
12.800	0.084	0.698	
12.805	0.594	0.588	
12.810	0.362	0.501	
12.815	-0.101	0.422	
12.820	0.366	0.329	
12.825	0.545	0.277	
12.830	-0.089	0.264	
12.835	0.076	0.229	
12.840	0.573	0.199	
12.845	0.125	0.209	
12.850	0.096	0.218	
12.855	0.806	0.234	
12.860	0.640	0.307	
12.865	0.172	0.391	
12.870	0.783	0.441	
12.875	1.194	0.520	
12.880	0.602	0.637	
12.885	0.846	0.726	
12.890	1.549	0.814	
12.895	1.260	0.947	
12.900	1.408	1.090	
12.905	2.310	1.254	
12.910	2.299	1.487	
12.915	1.786	1.729	
12.920	2.195	1.900	
12.925	2.273	2.024	
12.930	1.442	2.089	
12.935	1.417	2.039	
12.940	1.697	1.913	
12.945	0.835	1.759	
12.950	0.519	1.538	
12.955	1.077	1.282	
12.960	0.900	1.084	
12.965	0.655	0.949	
12.970	1.831	0.895	
12.975	2.892	1.035	
12.980	3.080	1.407	
12.985	3.067	1.889	
12.990	3.055	2.343	
12.995	3.055	2.699	
13.000	3.055	2.940	
13.005	3.054	3.079	
13.010	3.057	3.143	
13.015	3.064	3.159	
13.020	3.063	3.149	
13.025	3.061	3.128	
13.030	3.071	3.106	
13.035	3.071	3.088	
13.040	3.071	3.076	
13.045	3.080	3.070	
13.050	2.766	3.053	
13.055	3.080	3.021	
13.060	2.652	2.982	
13.065	1.728	2.879	
13.070	1.945	2.669	
13.075	1.885	2.419	
13.080	0.927	2.156	
13.085	0.906	1.843	
13.090	1.249	1.533	
13.095	0.539	1.280	
13.100	0.142	1.033	
13.105	0.618	0.787	
13.110	0.151	0.592	
13.115	-0.358	0.412	
13.120	-0.298	0.208	
13.125	-0.379	0.008	
13.130	-0.819	-0.179	
13.135	-0.828	-0.369	
13.140	-0.576	-0.535	
13.145	-0.801	-0.646	
13.150	-0.905	-0.724	
13.155	-0.643	-0.779	
13.160	-0.743	-0.797	
13.165	-0.993	-0.803	
13.170	-0.773	-0.820	
13.175	-0.679	-0.825	
13.180	-0.989	-0.819	
13.185	-0.877	-0.828	
13.190	-0.567	-0.832	
13.195	-0.857	-0.813	
13.200	-0.967	-0.804	
13.205	-0.631	-0.809	
13.210	-0.628	-0.794	
13.215	-0.883	-0.768	
13.220	-0.617	-0.752	
13.225	-0.465	-0.725	
13.230	-0.735	-0.683	
13.235	-0.602	-0.653	
13.240	-0.196	-0.617	
13.245	-0.310	-0.545	
13.250	-0.330	-0.462	
13.255	0.104	-0.376	
13.260	0.041	-0.268	
13.265	-0.286	-0.170	
13.270	-0.029	-0.117	
13.275	0.464	-0.063	
13.280	0.055	0.019	
13.285	0.140	0.089	
13.290	0.693	0.154	
13.295	0.125	0.234	
13.300	-0.133	0.267	
13.305	0.078	0.232	
13.310	-0.283	0.159	
13.315	-0.764	0.037	
13.320	-0.749	-0.149	
13.325	-0.842	-0.356	
13.330	-0.995	-0.550	
13.335	-0.993	-0.720	
13.340	-0.995	-0.855	
13.345	-0.996	-0.947	
13.350	-0.998	-1.001	
13.355	-0.996	-1.027	
13.360	-0.995	-1.034	
13.365	-0.996	-1.031	
13.370	-0.996	-1.022	
13.375	-0.995	-1.014	
13.380	-0.996	-1.006	
13.385	-0.996	-1.000	
13.390	-0.996	-0.997	
13.395	-0.996	-0.995	
13.400	-0.996	-0.994	
13.405	-0.996	-0.994	
13.410	-0.996	-0.995	
13.415	-0.996	-0.995	
13.420	-0.996	-0.996	
13.425	-0.996	-0.996	
13.430	-0.996	-0.996	
13.435	-0.996	-0.996	
13.440	-0.995	-0.996	
13.445	-0.996	-0.996	
13.450	-0.996	-0.996	
13.455	-0.996	-0.996	
13.460	-0.996	-0.996	
13.465	-0.996	-0.996	
13.470	-0.996	-0.996	
13.475	-0.996	-0.996	
13.480	-0.996	-0.996	
13.485	-0.996	-0.996	
13.490	-0.996	-0.996	
13.495	-0.996	-0.996	
13.500	-0.998	-0.996	
13.505	-0.996	-0.997	
13.510	-0.996	-0.997	
13.515	-0.996	-0.997	
13.520	-0.996	-0.997	
13.525	-0.996	-0.997	
13.530	-0.996	-0.996	
13.535	-0.996	-0.996	
13.540	-0.995	-0.996	
13.545	-0.996	-0.996	
13.550	-0.996	-0.996	
13.555	-0.894	-0.991	
13.560	-0.616	-0.963	
13.565	-0.647	-0.899	
13.570	-0.177	-0.798	
13.575	0.527	-0.623	
13.580	0.183	-0.373	
13.585	0.533	-0.116	
13.590	1.340	0.152	
13.595	1.042	0.452	
13.600	1.000	0.720	
13.605	1.857	0.945	
13.610	1.885	1.186	
13.615	1.408	1.410	
13.620	1.966	1.568	
13.625	2.346	1.710	
13.630	1.767	1.854	
13.635	2.004	1.946	
13.640	2.675	2.022	
13.645	2.267	2.130	
13.650	2.067	2.218	
13.655	2.832	2.278	
13.660	2.910	2.378	
13.665	2.548	2.505	
13.670	3.081	2.617	
13.675	3.078	2.733	
13.680	3.083	2.854	
13.685	3.080	2.955	
13.690	3.077	3.028	
13.695	3.083	3.073	
13.700	2.715	3.080	
13.705	3.081	3.050	
13.710	3.074	3.023	
13.715	2.517	2.994	
13.720	2.950	2.938	
13.725	3.083	2.898	
13.730	2.731	2.891	
13.735	3.080	2.890	
13.740	3.072	2.908	
13.745	3.074	2.948	
13.750	3.071	2.990	
13.755	3.063	3.026	
13.760	3.063	3.050	
13.765	3.067	3.065	
13.770	3.061	3.072	
13.775	3.055	3.074	
13.780	3.060	3.072	
13.785	3.057	3.068	
13.790	3.054	3.064	
13.795	3.052	3.060	
13.800	3.057	3.057	
13.805	3.049	3.055	
13.810	3.049	3.053	
13.815	3.060	3.052	
13.820	3.057	3.052	
13.825	3.055	3.053	
13.830	3.064	3.055	
13.835	3.067	3.057	
13.840	3.066	3.060	
13.845	3.072	3.063	
13.850	3.080	3.066	
13.855	3.077	3.069	
13.860	3.083	3.073	
13.865	2.186	3.035	
13.870	2.357	2.909	
13.875	2.391	2.739	
13.880	1.503	2.548	
13.885	1.387	2.297	
13.890	1.876	2.034	
13.895	1.474	1.834	
13.900	1.236	1.677	
13.905	1.914	1.560	
13.910	1.729	1.529	
13.915	1.042	1.527	
13.920	1.353	1.482	
13.925	1.581	1.433	
13.930	0.832	1.391	
13.935	0.819	1.301	
13.940	1.359	1.193	
13.945	0.793	1.120	
13.950	0.458	1.034	
13.955	1.077	0.930	
13.960	0.890	0.868	
13.965	0.201	0.819	
13.970	0.588	0.730	
13.975	0.887	0.657	
13.980	0.220	0.618	
13.985	0.340	0.562	
13.990	1.031	0.520	
13.995	0.589	0.541	
14.000	0.263	0.566	
14.005	0.909	0.567	
14.010	0.820	0.597	
14.015	0.168	0.626	
14.020	0.615	0.607	
14.025	0.965	0.595	
14.030	0.331	0.612	
14.035	0.588	0.609	
14.040	1.430	0.631	
14.045	1.263	0.743	
14.050	1.237	0.900	
14.055	2.079	1.080	
14.060	2.055	1.313	
14.065	1.362	1.533	
14.070	1.479	1.647	
14.075	1.670	1.676	
14.080	0.906	1.645	
14.085	0.817	1.524	
14.090	1.314	1.361	
14.095	0.872	1.229	
14.100	0.637	1.108	
14.105	1.509	1.012	
14.110	1.929	1.036	
14.115	1.883	1.191	
14.120	2.594	1.430	
14.125	1.627	1.685	
14.130	-0.848	1.730	
14.135	-0.995	1.384	
14.140	-0.996	0.781	
14.145	-0.995	0.157	
14.150	-0.996	-0.363	
14.155	-0.996	-0.735	
14.160	-0.996	-0.966	
14.165	-0.996	-1.086	
14.170	-0.996	-1.128	
14.175	-0.995	-1.124	
14.180	-0.995	-1.099	
14.185	-0.995	-1.067	
14.190	-0.995	-1.038	
14.195	-0.995	-1.016	
14.200	-0.995	-1.001	
14.205	-0.995	-0.993	
14.210	-0.993	-0.989	
14.215	-0.995	-0.988	
14.220	-0.993	-0.989	
14.225	-0.753	-0.979	
14.230	-0.948	-0.952	
14.235	-0.874	-0.926	
14.240	-0.585	-0.894	
14.245	-0.766	-0.843	
14.250	-0.870	-0.800	
14.255	-0.523	-0.771	
14.260	-0.501	-0.726	
14.265	-0.741	-0.674	
14.270	-0.486	-0.638	
14.275	-0.266	-0.594	
14.280	-0.544	-0.535	
14.285	-0.486	-0.492	
14.290	-0.152	-0.457	
14.295	-0.205	-0.401	
14.300	0.244	-0.315	
14.305	2.631	-0.079	
14.310	3.071	0.447	
14.315	3.066	1.169	
14.320	3.063	1.874	
14.325	3.060	2.440	
14.330	3.066	2.834	
14.335	3.069	3.070	
14.340	3.069	3.186	
14.345	3.078	3.221	
14.350	2.577	3.189	
14.355	2.588	3.084	
14.360	2.006	2.913	
14.365	0.901	2.638	
14.370	0.870	2.231	
14.375	0.806	1.779	
14.380	-0.043	1.341	
14.385	-0.197	0.902	
14.390	-0.045	0.497	
14.395	-0.417	0.174	
14.400	-0.715	-0.090	
14.405	-0.532	-0.314	
14.410	-0.630	-0.477	
14.415	-0.938	-0.595	
14.420	-0.683	-0.690	
14.425	0.276	-0.703	
14.430	3.051	-0.445	
14.435	3.055	0.199	
14.440	3.034	1.042	
14.445	3.028	1.824	
14.450	3.025	2.432	
14.455	3.025	2.840	
14.460	3.028	3.075	
14.465	3.028	3.182	
14.470	3.025	3.206	
14.475	3.026	3.184	
14.480	3.035	3.145	
14.485	3.037	3.105	
14.490	3.037	3.073	
14.495	3.041	3.050	
14.500	3.046	3.038	
14.505	3.043	3.033	
14.510	3.048	3.033	
14.515	3.054	3.035	
14.520	3.052	3.040	
14.525	3.051	3.044	
14.530	3.061	3.048	
14.535	3.064	3.052	
14.540	3.060	3.056	
14.545	3.064	3.059	
14.550	3.069	3.062	
14.555	3.066	3.064	
14.560	3.069	3.066	
14.565	2.696	3.050	
14.570	2.685	2.993	
14.575	2.766	2.913	
14.580	1.857	2.801	
14.585	1.624	2.603	
14.590	2.036	2.354	
14.595	1.443	2.127	
14.600	0.793	1.887	
14.605	1.048	1.608	
14.610	0.673	1.339	
14.615	-0.129	1.064	
14.620	-0.179	0.743	
14.625	-0.229	0.415	
14.630	-0.799	0.111	
14.635	-0.993	-0.189	
14.640	-0.992	-0.476	
14.645	-0.993	-0.713	
14.650	-0.995	-0.881	
14.655	-0.993	-0.984	
14.660	-0.995	-1.037	
14.665	-0.995	-1.055	
14.670	-0.995	-1.053	
14.675	-0.995	-1.041	
14.680	-0.995	-1.027	
14.685	-0.995	-1.014	
14.690	-0.993	-1.004	
14.695	-0.993	-0.997	
14.700	-0.995	-0.993	
14.705	-0.993	-0.991	
14.710	-0.993	-0.991	
14.715	-0.995	-0.991	
14.720	-0.993	-0.992	
14.725	-0.993	-0.993	
14.730	-0.995	-0.993	
14.735	-0.995	-0.994	
14.740	-0.993	-0.994	
14.745	-0.995	-0.994	
14.750	-0.995	-0.994	
14.755	-0.995	-0.995	
14.760	-0.995	-0.995	
14.765	-0.998	-0.995	
14.770	-0.993	-0.995	
14.775	-0.996	-0.995	
14.780	-0.995	-0.995	
14.785	-0.995	-0.995	
14.790	-0.996	-0.995	
14.795	-0.995	-0.995	
14.800	-0.995	-0.995	
14.805	-0.995	-0.995	
14.810	-0.993	-0.995	
14.815	-0.995	-0.995	
14.820	-0.993	-0.994	
14.825	-0.928	-0.991	
14.830	-0.993	-0.984	
14.835	-0.993	-0.979	
14.840	-0.749	-0.968	
14.845	-0.822	-0.937	
14.850	-0.964	-0.903	
14.855	-0.633	-0.876	
14.860	-0.521	-0.828	
14.865	-0.692	-0.761	
14.870	-0.318	-0.690	
14.875	0.424	-0.570	
14.880	0.356	-0.364	
14.885	0.617	-0.115	
14.890	1.460	0.169	
14.895	1.245	0.498	
14.900	1.023	0.798	
14.905	1.616	1.024	
14.910	1.512	1.213	
14.915	0.706	1.328	
14.920	0.948	1.319	
14.925	1.315	1.251	
14.930	0.829	1.191	
14.935	0.709	1.111	
14.940	0.813	1.008	
14.945	-0.182	0.870	
14.950	-0.801	0.626	
14.955	-0.844	0.269	
14.960	-0.993	-0.117	
14.965	-0.993	-0.461	
14.970	-0.995	-0.729	
14.975	-0.995	-0.910	
14.980	-0.995	-1.014	
14.985	-0.996	-1.062	
14.990	-0.995	-1.073	
14.995	-0.996	-1.065	
15.000	-0.996	-1.048	
15.005	-0.996	-1.030	
15.010	-0.996	-1.015	
15.015	-0.995	-1.004	
15.020	-0.995	-0.997	
15.025	-0.995	-0.993	
15.030	-0.995	-0.992	
15.035	-0.995	-0.991	
15.040	-0.995	-0.992	
15.045	-0.995	-0.993	
15.050	-0.995	-0.994	
15.055	-0.996	-0.994	
15.060	-0.995	-0.995	
15.065	-0.995	-0.995	
15.070	-0.996	-0.995	
15.075	-0.993	-0.995	
15.080	-0.995	-0.995	
15.085	-0.995	-0.995	
15.090	-0.993	-0.995	
15.095	-0.993	-0.994	
15.100	-0.995	-0.994	
15.105	-0.724	-0.982	
15.110	-0.604	-0.935	
15.115	-0.822	-0.866	
15.120	-0.564	-0.803	
15.125	-0.234	-0.724	
15.130	-0.355	-0.616	
15.135	-0.200	-0.501	
15.140	0.570	-0.361	
15.145	0.409	-0.164	
15.150	0.189	0.037	
15.155	0.990	0.210	
15.160	1.142	0.410	
15.165	0.438	0.603	
15.170	0.742	0.715	
15.175	1.185	0.781	
15.180	0.631	0.842	
15.185	0.701	0.862	
15.190	1.329	0.868	
15.195	0.843	0.904	
15.200	0.130	0.901	
15.205	0.308	0.798	
15.210	-0.002	0.634	
15.215	-0.530	0.426	
15.220	-0.523	0.172	
15.225	-0.398	-0.075	
15.230	-0.738	-0.278	
15.235	-0.723	-0.446	
15.240	-0.014	-0.548	
15.245	0.770	-0.496	
15.250	1.268	-0.250	
15.255	2.444	0.182	
15.260	2.808	0.775	
15.265	2.044	1.389	
15.270	2.215	1.855	
15.275	2.479	2.155	
15.280	1.569	2.308	
15.285	1.217	2.273	
15.290	1.625	2.096	
15.295	1.075	1.878	
15.300	0.449	1.619	
15.305	0.887	1.325	
15.310	0.767	1.074	
15.315	-0.129	0.858	
15.320	-0.194	0.608	
15.325	-0.152	0.342	
15.330	-0.628	0.096	
15.335	-0.763	-0.143	
15.340	-0.457	-0.354	
15.345	-0.593	-0.498	
15.350	-0.841	-0.591	
15.355	-0.598	-0.660	
15.360	-0.625	-0.695	
15.365	-0.992	-0.715	
15.370	-0.857	-0.753	
15.375	-0.619	-0.786	
15.380	-0.873	-0.794	
15.385	-0.948	-0.804	
15.390	-0.700	-0.821	
15.395	-0.877	-0.826	
15.400	-0.995	-0.836	
15.405	-0.866	-0.858	
15.410	-0.830	-0.875	
15.415	-0.995	-0.884	
15.420	-0.824	-0.894	
15.425	-0.469	-0.877	
15.430	-0.676	-0.819	
15.435	-0.627	-0.753	
15.440	-0.188	-0.679	
15.445	-0.223	-0.574	
15.450	-0.353	-0.462	
15.455	0.107	-0.359	
15.460	0.519	-0.225	
15.465	0.125	-0.059	
15.470	0.712	0.102	
15.475	1.427	0.299	
15.480	1.013	0.552	
15.485	1.065	0.783	
15.490	1.848	0.983	
15.495	1.541	1.190	
15.500	0.912	1.342	
15.505	1.399	1.389	
15.510	1.482	1.395	
15.515	0.762	1.377	
15.520	1.042	1.301	
15.525	1.532	1.225	
15.530	0.904	1.193	
15.535	0.678	1.143	
15.540	1.199	1.066	
15.545	0.770	1.010	
15.550	0.264	0.934	
15.555	0.964	0.829	
15.560	1.280	0.784	
15.565	0.706	0.813	
15.570	1.029	0.848	
15.575	1.399	0.901	
15.580	0.676	0.969	
15.585	0.392	0.968	
15.590	0.860	0.897	
15.595	0.261	0.805	
15.600	-0.318	0.661	
15.605	-0.144	0.444	
15.610	-0.113	0.222	
15.615	-0.275	0.042	
15.620	1.057	-0.036	
15.625	3.069	0.159	
15.630	3.075	0.699	
15.635	3.071	1.403	
15.640	3.066	2.056	
15.645	3.067	2.565	
15.650	3.075	2.908	
15.655	3.072	3.107	
15.660	3.071	3.198	
15.665	3.080	3.220	
15.670	3.078	3.205	
15.675	3.077	3.174	
15.680	2.829	3.129	
15.685	2.510	3.049	
15.690	2.947	2.944	
15.695	2.302	2.844	
15.700	1.375	2.681	
15.705	1.445	2.406	
15.710	1.158	2.077	
15.715	0.163	1.713	
15.720	0.233	1.297	
15.725	0.716	0.915	
15.730	0.130	0.641	
15.735	0.024	0.434	
15.740	0.431	0.281	
15.745	-0.142	0.187	
15.750	-0.660	0.083	
15.755	-0.611	-0.079	
15.760	-0.636	-0.260	
15.765	-0.948	-0.432	
15.770	-0.847	-0.593	
15.775	-0.547	-0.709	
15.780	-0.755	-0.760	
15.785	-0.787	-0.776	
15.790	-0.440	-0.769	
15.795	-0.541	-0.725	
15.800	-0.703	-0.672	
15.805	-0.373	-0.629	
15.810	-0.249	-0.571	
15.815	-0.517	-0.500	
15.820	-0.324	-0.448	
15.825	0.015	-0.392	
15.830	-0.228	-0.317	
15.835	-0.228	-0.252	
15.840	0.229	-0.195	
15.845	0.039	-0.118	
15.850	-0.246	-0.056	
15.855	0.128	-0.030	
15.860	0.325	0.004	
15.865	-0.136	0.049	
15.870	-0.011	0.065	
15.875	0.389	0.071	
15.880	-0.095	0.092	
15.885	-0.194	0.085	
15.890	0.243	0.055	
15.895	0.007	0.044	
15.900	-0.301	0.028	
15.905	-0.008	-0.012	
15.910	0.067	-0.042	
15.915	-0.303	-0.057	
15.920	-0.139	-0.085	
15.925	0.240	-0.099	
15.930	-0.098	-0.076	
15.935	-0.107	-0.054	
15.940	0.586	-0.021	
15.945	0.669	0.080	
15.950	0.342	0.219	
15.955	0.929	0.352	
15.960	1.000	0.500	
15.965	0.073	0.619	
15.970	0.134	0.623	
15.975	0.472	0.547	
15.980	-0.194	0.450	
15.985	-0.453	0.302	
15.990	-0.332	0.107	
15.995	-0.552	-0.085	
16.000	-0.695	-0.262	
16.005	-0.095	-0.395	
16.010	0.782	-0.392	
16.015	0.678	-0.219	
16.020	1.107	0.056	
16.025	1.503	0.384	
16.030	0.728	0.697	
16.035	0.336	0.875	
16.040	0.744	0.900	
16.045	0.233	0.841	
16.050	-0.202	0.703	
16.055	0.038	0.500	
16.060	0.042	0.303	
16.065	-0.663	0.126	
16.070	-0.860	-0.083	
16.075	-0.634	-0.310	
16.080	-0.706	-0.495	
16.085	-0.440	-0.610	
16.090	0.489	-0.604	
16.095	0.929	-0.422	
16.100	1.141	-0.094	
16.105	2.653	0.355	
16.110	3.077	0.950	
16.115	3.080	1.616	
16.120	3.075	2.213	
16.125	3.074	2.666	
16.130	3.066	2.963	
16.135	2.508	3.103	
16.140	2.762	3.100	
16.145	2.158	2.996	
16.150	1.315	2.780	
16.155	1.550	2.453	
16.160	1.469	2.111	
16.165	0.568	1.786	
16.170	0.663	1.448	
16.175	1.116	1.153	
16.180	0.324	0.944	
16.185	-0.040	0.746	
16.190	0.223	0.533	
16.195	-0.207	0.339	
16.200	-0.599	0.144	
16.205	-0.394	-0.061	
16.210	-0.284	-0.228	
16.215	-0.566	-0.338	
16.220	-0.443	-0.416	
16.225	-0.138	-0.451	
16.230	-0.367	-0.435	
16.235	-0.413	-0.406	
16.240	-0.045	-0.374	
16.245	-0.176	-0.320	
16.250	-0.483	-0.276	
16.255	-0.300	-0.269	
16.260	-0.252	-0.278	
16.265	-0.576	-0.295	
16.270	-0.474	-0.335	
16.275	-0.232	-0.374	
16.280	-0.540	-0.393	
16.285	-0.692	-0.422	
16.290	-0.434	-0.467	
16.295	-0.555	-0.501	
16.300	-0.796	-0.533	
16.305	-0.520	-0.573	
16.310	-0.388	-0.590	
16.315	-0.637	-0.579	
16.320	-0.492	-0.566	
16.325	-0.122	-0.535	
16.330	-0.312	-0.470	
16.335	-0.349	-0.402	
16.340	-0.029	-0.342	
16.345	-0.196	-0.277	
16.350	-0.488	-0.236	
16.355	-0.254	-0.238	
16.360	-0.179	-0.249	
16.365	-0.520	-0.261	
16.370	-0.442	-0.295	
16.375	-0.188	-0.331	
16.380	-0.472	-0.347	
16.385	-0.537	-0.368	
16.390	-0.055	-0.384	
16.395	0.218	-0.341	
16.400	0.160	-0.232	
16.405	1.037	-0.063	
16.410	1.456	0.202	
16.415	0.803	0.514	
16.420	1.042	0.762	
16.425	1.665	0.954	
16.430	1.294	1.133	
16.435	1.123	1.260	
16.440	1.812	1.337	
16.445	1.682	1.425	
16.450	1.158	1.497	
16.455	1.705	1.519	
16.460	1.887	1.548	
16.465	1.106	1.580	
16.470	1.190	1.548	
16.475	1.575	1.480	
16.480	0.806	1.411	
16.485	0.447	1.284	
16.490	1.017	1.110	
16.495	0.842	0.973	
16.500	0.264	0.863	
16.505	0.750	0.747	
16.510	0.869	0.674	
16.515	0.023	0.629	
16.520	-0.008	0.533	
16.525	0.266	0.400	
16.530	-0.258	0.273	
16.535	-0.488	0.126	
16.540	-0.295	-0.040	
16.545	-0.475	-0.186	
16.550	-0.802	-0.318	
16.555	-0.640	-0.450	
16.560	-0.579	-0.554	
16.565	-0.951	-0.630	
16.570	-0.888	-0.707	
16.575	-0.628	-0.769	
16.580	-0.836	-0.795	
16.585	-0.926	-0.810	
16.590	-0.592	-0.819	
16.595	-0.616	-0.798	
16.600	-0.816	-0.762	
16.605	-0.540	-0.733	
16.610	-0.410	-0.689	
16.615	-0.695	-0.635	
16.620	-0.562	-0.601	
16.625	-0.228	-0.567	
16.630	-0.431	-0.513	
16.635	-0.532	-0.467	
16.640	-0.205	-0.436	
16.645	-0.258	-0.396	
16.650	-0.520	-0.360	
16.655	-0.263	-0.348	
16.660	-0.135	-0.333	
16.665	-0.437	-0.308	
16.670	-0.298	-0.300	
16.675	0.064	-0.285	
16.680	-0.208	-0.243	
16.685	-0.304	-0.207	
16.690	0.041	-0.187	
16.695	-0.078	-0.157	
16.700	-0.310	-0.133	
16.705	0.064	-0.126	
16.710	0.322	-0.092	
16.715	-0.225	-0.037	
16.720	-0.168	-0.016	
16.725	0.133	-0.023	
16.730	-0.284	-0.031	
16.735	-0.511	-0.072	
16.740	-0.291	-0.153	
16.745	-0.404	-0.234	
16.750	-0.708	-0.313	
16.755	-0.495	-0.402	
16.760	-0.364	-0.466	
16.765	-0.628	-0.497	
16.770	-0.428	-0.515	
16.775	0.053	-0.495	
16.780	-0.052	-0.411	
16.785	-0.051	-0.299	
16.790	0.646	-0.165	
16.795	0.453	0.009	
16.800	-0.087	0.160	
16.805	0.290	0.232	
16.810	0.583	0.274	
16.815	-0.013	0.310	
16.820	0.111	0.302	
16.825	0.718	0.285	
16.830	0.249	0.307	
16.835	-0.002	0.317	
16.840	0.586	0.302	
16.845	0.467	0.314	
16.850	-0.075	0.329	
16.855	0.305	0.304	
16.860	0.605	0.289	
16.865	-0.023	0.296	
16.870	0.082	0.275	
16.875	0.554	0.246	
16.880	-0.037	0.239	
16.885	-0.245	0.203	
16.890	0.068	0.126	
16.895	-0.084	0.057	
16.900	-0.485	-0.015	
16.905	-0.353	-0.113	
16.910	-0.274	-0.207	
16.915	-0.666	-0.288	
16.920	-0.659	-0.379	
16.925	-0.376	-0.463	
16.930	-0.596	-0.511	
16.935	-0.749	-0.547	
16.940	-0.466	-0.582	
16.945	-0.471	-0.591	
16.950	-0.752	-0.586	
16.955	-0.550	-0.592	
16.960	-0.408	-0.590	
16.965	-0.731	-0.577	
16.970	-0.671	-0.581	
16.975	-0.362	-0.588	
16.980	-0.556	-0.573	
16.985	-0.662	-0.559	
16.990	-0.347	-0.551	
16.995	-0.393	-0.526	
17.000	-0.659	-0.500	
17.005	-0.474	-0.495	
17.010	-0.333	-0.491	
17.015	-0.647	-0.481	
17.020	-0.614	-0.490	
17.025	-0.378	-0.509	
17.030	-0.640	-0.516	
17.035	-0.798	-0.538	
17.040	-0.506	-0.576	
17.045	-0.569	-0.598	
17.050	-0.801	-0.611	
17.055	-0.567	-0.631	
17.060	-0.411	-0.633	
17.065	-0.705	-0.613	
17.070	-0.645	-0.604	
17.075	-0.398	-0.599	
17.080	-0.637	-0.581	
17.085	-0.723	-0.576	
17.090	-0.318	-0.578	
17.095	-0.231	-0.545	
17.100	-0.471	-0.487	
17.105	-0.199	-0.431	
17.110	-0.019	-0.365	
17.115	-0.422	-0.296	
17.120	-0.468	-0.268	
17.125	-0.243	-0.279	
17.130	-0.512	-0.301	
17.135	-0.677	-0.345	
17.140	-0.326	-0.405	
17.145	-0.309	-0.435	
17.150	-0.495	-0.436	
17.155	-0.167	-0.423	
17.160	-0.074	-0.381	
17.165	-0.617	-0.333	
17.170	-0.897	-0.349	
17.175	-0.975	-0.449	
17.180	-0.993	-0.593	
17.185	-0.996	-0.736	
17.190	-0.995	-0.855	
17.195	-0.995	-0.939	
17.200	-0.995	-0.991	
17.205	-0.995	-1.017	
17.210	-0.995	-1.026	
17.215	-0.993	-1.024	
17.220	-0.993	-1.018	
17.225	-0.995	-1.010	
17.230	-0.995	-1.004	
17.235	-0.995	-0.999	
17.240	-0.886	-0.991	
17.245	-0.811	-0.969	
17.250	-0.989	-0.941	
17.255	-0.700	-0.914	
17.260	-0.478	-0.865	
17.265	-0.677	-0.789	
17.270	-0.549	-0.715	
17.275	-0.194	-0.638	
17.280	-0.350	-0.542	
17.285	-0.453	-0.457	
17.290	-0.049	-0.391	
17.295	0.013	-0.311	
17.300	-0.248	-0.227	
17.305	0.094	-0.161	
17.310	0.544	-0.077	
17.315	0.088	0.037	
17.320	0.305	0.134	
17.325	1.058	0.238	
17.330	0.751	0.391	
17.335	0.661	0.543	
17.340	1.492	0.682	
17.345	1.567	0.865	
17.350	0.950	1.053	
17.355	1.425	1.177	
17.360	1.715	1.275	
17.365	1.109	1.363	
17.370	1.300	1.396	
17.375	1.915	1.414	
17.380	1.485	1.468	
17.385	1.193	1.503	
17.390	1.845	1.507	
17.395	1.721	1.536	
17.400	1.083	1.560	
17.405	1.505	1.533	
17.410	1.760	1.507	
17.415	1.016	1.494	
17.420	1.040	1.436	
17.425	1.627	1.359	
17.430	1.207	1.325	
17.435	0.881	1.291	
17.440	1.534	1.243	
17.445	1.485	1.241	
17.450	0.906	1.261	
17.455	1.245	1.247	
17.460	1.529	1.237	
17.465	0.869	1.243	
17.470	0.973	1.212	
17.475	1.671	1.180	
17.480	1.411	1.211	
17.485	1.402	1.274	
17.490	2.194	1.366	
17.495	2.070	1.522	
17.500	1.378	1.673	
17.505	1.622	1.736	
17.510	1.703	1.739	
17.515	0.809	1.689	
17.520	0.676	1.537	
17.525	1.141	1.331	
17.530	0.637	1.150	
17.535	0.183	0.968	
17.540	0.845	0.786	
17.545	1.065	0.686	
17.550	0.702	0.680	
17.555	0.777	0.702	
17.560	-0.165	0.679	
17.565	-0.993	0.518	
17.570	-0.996	0.197	
17.575	-0.995	-0.180	
17.580	-0.996	-0.516	
17.585	-0.996	-0.770	
17.590	-0.996	-0.937	
17.595	-0.996	-1.030	
17.600	-0.996	-1.069	
17.605	-0.996	-1.075	
17.610	-0.996	-1.064	
17.615	-0.996	-1.045	
17.620	-0.996	-1.028	
17.625	-0.996	-1.013	
17.630	-0.996	-1.003	
17.635	-0.998	-0.997	
17.640	-0.996	-0.994	
17.645	-0.995	-0.993	
17.650	-0.996	-0.993	
17.655	-0.996	-0.993	
17.660	-0.996	-0.994	
17.665	-0.996	-0.995	
17.670	-0.996	-0.996	
17.675	-0.996	-0.996	
17.680	-0.996	-0.996	
17.685	-0.996	-0.996	
17.690	-0.996	-0.997	
17.695	-0.996	-0.997	
17.700	-0.996	-0.996	
17.705	-0.996	-0.996	
17.710	-0.996	-0.996	
17.715	-0.996	-0.996	
17.720	-0.996	-0.996	
17.725	-0.995	-0.996	
17.730	-0.734	-0.984	
17.735	-0.402	-0.928	
17.740	0.845	-0.762	
17.745	1.723	-0.400	
17.750	2.073	0.145	
17.755	3.080	0.799	
17.760	3.071	1.495	
17.765	3.064	2.128	
17.770	3.049	2.612	
17.775	3.025	2.930	
17.780	3.025	3.105	
17.785	3.025	3.176	
17.790	3.023	3.183	
17.795	3.023	3.157	
17.800	3.022	3.120	
17.805	3.023	3.083	
17.810	3.026	3.054	
17.815	3.023	3.035	
17.820	3.022	3.023	
17.825	3.023	3.017	
17.830	3.025	3.015	
17.835	3.026	3.016	
17.840	3.023	3.018	
17.845	3.025	3.020	
17.850	3.025	3.022	
17.855	3.025	3.023	
17.860	3.028	3.024	
17.865	3.023	3.025	
17.870	3.023	3.025	
17.875	3.026	3.025	
17.880	3.028	3.025	
17.885	3.025	3.025	
17.890	3.025	3.026	
17.895	3.026	3.026	
17.900	3.028	3.026	
17.905	3.029	3.026	
17.910	3.037	3.027	
17.915	3.051	3.030	
17.920	3.058	3.035	
17.925	3.063	3.041	
17.930	3.071	3.049	
17.935	3.078	3.056	
17.940	3.072	3.063	
17.945	3.072	3.069	
17.950	3.080	3.072	
17.955	3.077	3.075	
17.960	3.074	3.077	
17.965	2.985	3.073	
17.970	2.786	3.050	
17.975	3.080	3.012	
17.980	2.591	2.970	
17.985	2.143	2.882	
17.990	2.624	2.745	
17.995	2.566	2.630	
18.000	1.758	2.527	
18.005	1.830	2.376	
18.010	1.827	2.197	
18.015	0.793	1.993	
18.020	0.342	1.698	
18.025	0.551	1.333	
18.030	0.007	0.975	
18.035	-0.278	0.632	
18.040	-0.009	0.321	
18.045	-0.048	0.093	
18.050	-0.474	-0.063	
18.055	-0.471	-0.196	
18.060	-0.489	-0.313	
18.065	-0.940	-0.423	
18.070	-0.995	-0.554	
18.075	-0.973	-0.696	
18.080	-0.995	-0.820	
18.085	-0.995	-0.911	
18.090	-0.995	-0.972	
18.095	-0.995	-1.006	
18.100	-0.995	-1.021	
18.105	-0.995	-1.023	
18.110	-0.995	-1.019	
18.115	-0.993	-1.013	
18.120	-0.995	-1.006	
18.125	-0.993	-1.000	
18.130	-0.993	-0.997	
18.135	-0.993	-0.994	
18.140	-0.946	-0.990	
18.145	-0.879	-0.980	
18.150	-0.995	-0.964	
18.155	-0.868	-0.951	
18.160	-0.694	-0.927	
18.165	-0.954	-0.892	
18.170	-0.937	-0.874	
18.175	-0.631	-0.863	
18.180	-0.746	-0.834	
18.185	-0.958	-0.808	
18.190	-0.752	-0.804	
18.195	-0.784	-0.803	
18.200	-0.993	-0.807	
18.205	-0.993	-0.834	
18.210	-0.923	-0.873	
18.215	-0.995	-0.908	
18.220	-0.995	-0.938	
18.225	-0.978	-0.963	
18.230	-0.993	-0.979	
18.235	-0.993	-0.989	
18.240	-0.993	-0.995	
18.245	-0.990	-0.997	
18.250	-0.995	-0.997	
18.255	-0.946	-0.995	
18.260	-0.634	-0.972	
18.265	-0.715	-0.917	
18.270	-0.529	-0.840	
18.275	-0.092	-0.733	
18.280	-0.216	-0.588	
18.285	-0.413	-0.452	
18.290	-0.181	-0.358	
18.295	-0.182	-0.289	
18.300	-0.442	-0.248	
18.305	-0.315	-0.245	
18.310	-0.064	-0.251	
18.315	-0.329	-0.244	
18.320	-0.301	-0.242	
18.325	0.160	-0.232	
18.330	0.065	-0.181	
18.335	-0.061	-0.111	
18.340	0.589	-0.032	
18.345	0.754	0.099	
18.350	0.189	0.251	
18.355	0.482	0.354	
18.360	0.913	0.434	
18.365	0.418	0.520	
18.370	0.486	0.569	
18.375	1.168	0.606	
18.380	0.869	0.683	
18.385	0.484	0.751	
18.390	1.051	0.779	
18.395	1.065	0.818	
18.400	0.369	0.849	
18.405	0.707	0.824	
18.410	1.188	0.797	
18.415	0.554	0.804	
18.420	0.380	0.783	
18.425	0.987	0.734	
18.430	0.733	0.717	
18.435	0.374	0.707	
18.440	0.900	0.681	
18.445	0.849	0.682	
18.450	0.078	0.680	
18.455	0.166	0.608	
18.460	0.402	0.497	
18.465	-0.193	0.387	
18.470	-0.294	0.249	
18.475	-0.022	0.098	
18.480	-0.255	-0.022	
18.485	-0.619	-0.130	
18.490	-0.497	-0.251	
18.495	-0.588	-0.365	
18.500	-0.926	-0.474	
18.505	-0.821	-0.591	
18.510	-0.659	-0.688	
18.515	-0.929	-0.750	
18.520	-0.955	-0.803	
18.525	-0.682	-0.843	
18.530	-0.810	-0.851	
18.535	-0.993	-0.850	
18.540	-0.758	-0.857	
18.545	-0.706	-0.850	
18.550	-0.941	-0.834	
18.555	-0.786	-0.827	
18.560	-0.521	-0.812	
18.565	-0.757	-0.773	
18.570	-0.793	-0.742	
18.575	-0.491	-0.721	
18.580	-0.631	-0.688	
18.585	-0.828	-0.664	
18.590	-0.581	-0.662	
18.595	-0.495	-0.654	
18.600	-0.784	-0.638	
18.605	-0.598	-0.635	
18.610	-0.320	-0.622	
18.615	-0.573	-0.585	
18.620	-0.604	-0.554	
18.625	-0.271	-0.531	
18.630	-0.371	-0.492	
18.635	-0.552	-0.454	
18.640	-0.254	-0.431	
18.645	-0.158	-0.397	
18.650	-0.407	-0.352	
18.655	-0.197	-0.318	
18.660	0.181	-0.272	
18.665	-0.118	-0.197	
18.670	-0.138	-0.132	
18.675	0.304	-0.080	
18.680	-0.089	-0.022	
18.685	-0.373	-0.001	
18.690	-0.127	-0.035	
18.695	-0.101	-0.079	
18.700	-0.382	-0.118	
18.705	-0.200	-0.165	
18.710	0.139	-0.188	
18.715	-0.156	-0.168	
18.720	-0.020	-0.136	
18.725	0.900	-0.063	
18.730	0.828	0.105	
18.735	0.426	0.306	
18.740	0.950	0.469	
18.745	1.054	0.619	
18.750	0.359	0.736	
18.755	0.510	0.763	
18.760	0.829	0.737	
18.765	0.163	0.696	
18.770	0.006	0.601	
18.775	0.539	0.476	
18.780	0.240	0.388	
18.785	-0.103	0.315	
18.790	0.299	0.237	
18.795	0.340	0.193	
18.800	-0.144	0.174	
18.805	0.017	0.136	
18.810	0.414	0.106	
18.815	-0.064	0.108	
18.820	-0.165	0.094	
18.825	0.311	0.066	
18.830	0.033	0.063	
18.835	-0.245	0.056	
18.840	0.070	0.024	
18.845	0.159	0.007	
18.850	-0.307	0.001	
18.855	-0.352	-0.040	
18.860	-0.428	-0.119	
18.865	-0.877	-0.232	
18.870	-0.993	-0.391	
18.875	-0.753	-0.564	
18.880	-0.874	-0.701	
18.885	-0.995	-0.800	
18.890	-0.802	-0.870	
18.895	-0.734	-0.898	
18.900	-0.972	-0.895	
18.905	-0.796	-0.889	
18.910	-0.506	-0.864	
18.915	-0.672	-0.806	
18.920	-0.633	-0.744	
18.925	-0.303	-0.679	
18.930	-0.394	-0.597	
18.935	-0.538	-0.522	
18.940	-0.203	-0.466	
18.945	-0.077	-0.400	
18.950	-0.361	-0.326	
18.955	-0.194	-0.276	
18.960	0.094	-0.230	
18.965	-0.219	-0.176	
18.970	-0.265	-0.145	
18.975	0.081	-0.133	
18.980	-0.158	-0.115	
18.985	-0.419	-0.115	
18.990	-0.133	-0.146	
18.995	0.018	-0.165	
19.000	-0.263	-0.160	
19.005	-0.068	-0.155	
19.010	0.515	-0.119	
19.015	0.081	-0.031	
19.020	0.026	0.051	
19.025	0.655	0.118	
19.030	0.431	0.210	
19.035	0.068	0.290	
19.040	0.751	0.337	
19.045	1.074	0.420	
19.050	0.614	0.545	
19.055	1.049	0.661	
19.060	1.665	0.798	
19.065	1.078	0.969	
19.070	0.842	1.090	
19.075	1.274	1.135	
19.080	0.875	1.144	
19.085	0.105	1.082	
19.090	0.385	0.919	
19.095	0.366	0.727	
19.100	-0.193	0.541	
19.105	-0.092	0.345	
19.110	0.217	0.177	
19.115	-0.138	0.071	
19.120	-0.139	-0.003	
19.125	0.379	-0.041	
19.130	0.169	-0.015	
19.135	-0.152	0.026	
19.140	0.263	0.047	
19.145	0.421	0.086	
19.150	-0.086	0.136	
19.155	0.090	0.151	
19.160	0.606	0.163	
19.165	0.065	0.202	
19.170	0.013	0.218	
19.175	0.649	0.220	
19.180	0.542	0.266	
19.185	0.104	0.324	
19.190	0.666	0.358	
19.195	0.909	0.417	
19.200	0.418	0.503	
19.205	0.779	0.569	
19.210	1.361	0.650	
19.215	0.958	0.776	
19.220	0.996	0.892	
19.225	1.922	1.009	
19.230	1.964	1.194	
19.235	1.502	1.404	
19.240	1.920	1.566	
19.245	2.026	1.696	
19.250	1.310	1.784	
19.255	1.405	1.776	
19.260	1.702	1.714	
19.265	1.036	1.636	
19.270	0.780	1.506	
19.275	1.208	1.340	
19.280	0.794	1.195	
19.285	0.157	1.039	
19.290	0.537	0.847	
19.295	0.560	0.679	
19.300	-0.048	0.545	
19.305	0.024	0.401	
19.310	0.481	0.279	
19.315	-0.020	0.212	
19.320	-0.159	0.153	
19.325	0.221	0.090	
19.330	0.059	0.058	
19.335	-0.196	0.039	
19.340	0.088	0.011	
19.345	0.253	0.006	
19.350	-0.203	0.020	
19.355	-0.089	0.012	
19.360	0.255	0.001	
19.365	-0.196	0.005	
19.370	-0.286	-0.013	
19.375	0.020	-0.054	
19.380	-0.115	-0.081	
19.385	-0.362	-0.106	
19.390	-0.130	-0.143	
19.395	-0.083	-0.168	
19.400	-0.387	-0.180	
19.405	-0.275	-0.205	
19.410	-0.064	-0.226	
19.415	-0.423	-0.233	
19.420	-0.498	-0.258	
19.425	-0.216	-0.298	
19.430	-0.274	-0.319	
19.435	-0.453	-0.326	
19.440	-0.203	-0.333	
19.445	-0.202	-0.324	
19.450	-0.567	-0.314	
19.455	-0.617	-0.341	
19.460	-0.579	-0.402	
19.465	-0.874	-0.479	
19.470	-0.937	-0.580	
19.475	-0.624	-0.678	
19.480	-0.619	-0.730	
19.485	-0.796	-0.744	
19.490	-0.566	-0.741	
19.495	-0.402	-0.711	
19.500	-0.588	-0.655	
19.505	-0.338	-0.595	
19.510	0.110	-0.509	
19.515	-0.051	-0.381	
19.520	-0.081	-0.251	
19.525	0.411	-0.131	
19.530	0.249	-0.003	
19.535	-0.097	0.098	
19.540	0.415	0.152	
19.545	0.774	0.220	
19.550	0.284	0.316	
19.555	0.533	0.392	
19.560	1.171	0.473	
19.565	0.777	0.594	
19.570	0.530	0.694	
19.575	1.065	0.749	
19.580	0.915	0.803	
19.585	0.388	0.833	
19.590	0.893	0.813	
19.595	1.246	0.811	
19.600	0.709	0.849	
19.605	1.075	0.884	
19.610	1.992	0.962	
19.615	1.816	1.139	
19.620	1.938	1.366	
19.625	2.627	1.609	
19.630	2.359	1.872	
19.635	1.749	2.076	
19.640	2.013	2.156	
19.645	1.996	2.156	
19.650	1.181	2.090	
19.655	1.068	1.922	
19.660	1.263	1.696	
19.665	0.528	1.462	
19.670	0.143	1.191	
19.675	0.536	0.900	
19.680	-0.121	0.641	
19.685	-0.663	0.379	
19.690	-0.601	0.085	
19.695	-0.601	-0.189	
19.700	-0.954	-0.416	
19.705	-0.893	-0.607	
19.710	-0.625	-0.745	
19.715	-0.793	-0.810	
19.720	-0.848	-0.834	
19.725	-0.517	-0.831	
19.730	-0.527	-0.787	
19.735	-0.703	-0.725	
19.740	-0.434	-0.670	
19.745	-0.284	-0.605	
19.750	-0.541	-0.533	
19.755	-0.399	-0.480	
19.760	-0.078	-0.431	
19.765	-0.272	-0.366	
19.770	-0.330	-0.310	
19.775	0.029	-0.267	
19.780	-0.026	-0.210	
19.785	-0.260	-0.157	
19.790	0.041	-0.125	
19.795	0.342	-0.079	
19.800	-0.080	-0.012	
19.805	0.061	0.035	
19.810	0.767	0.088	
19.815	0.690	0.204	
19.820	1.193	0.377	
19.825	2.426	0.647	
19.830	2.698	1.063	
19.835	2.374	1.542	
19.840	2.942	1.972	
19.845	3.081	2.343	
19.850	2.660	2.636	
19.855	2.792	2.810	
19.860	3.078	2.899	
19.865	2.782	2.949	
19.870	2.505	2.944	
19.875	3.016	2.897	
19.880	2.783	2.861	
19.885	1.987	2.803	
19.890	2.290	2.675	
19.895	2.763	2.549	
19.900	2.945	2.513	
19.905	3.072	2.572	
19.910	3.055	2.687	
19.915	3.049	2.812	
19.920	3.046	2.917	
19.925	3.037	2.993	
19.930	3.035	3.038	
19.935	3.043	3.060	
19.940	3.043	3.068	
19.945	3.046	3.067	
19.950	3.057	3.063	
19.955	3.061	3.060	
19.960	3.066	3.058	
19.965	3.072	3.059	
19.970	3.077	3.062	
19.975	3.078	3.066	
19.980	2.702	3.053	
19.985	1.543	2.945	
19.990	1.286	2.675	
19.995	0.981	2.284	
20.000	-0.005	1.820	
20.005	-0.126	1.294	
20.010	-0.005	0.785	
20.015	-0.378	0.366	
20.020	-0.640	0.028	
20.025	-0.504	-0.243	
20.030	-0.682	-0.439	
20.035	-0.993	-0.587	
20.040	-0.928	-0.717	
20.045	-0.917	-0.822	
20.050	-0.993	-0.896	
20.055	-0.993	-0.946	
20.060	-0.993	-0.980	
20.065	-0.995	-0.999	
20.070	-0.995	-1.007	
20.075	-0.993	-1.009	
20.080	-0.995	-1.007	
20.085	-0.995	-1.004	
20.090	-0.995	-1.001	
20.095	-0.993	-0.998	
20.100	-0.995	-0.996	
20.105	-0.996	-0.995	
20.110	-0.995	-0.994	
20.115	-0.995	-0.994	
20.120	-0.996	-0.994	
20.125	-0.995	-0.995	
20.130	-0.995	-0.995	
20.135	-0.995	-0.995	
20.140	-0.995	-0.995	
20.145	-0.993	-0.995	
20.150	-0.995	-0.995	
20.155	-0.995	-0.995	
20.160	-0.995	-0.995	
20.165	-0.995	-0.995	
20.170	-0.996	-0.995	
20.175	-0.995	-0.995	
20.180	-0.995	-0.995	
20.185	-0.995	-0.995	
20.190	-0.995	-0.995	
20.195	-0.995	-0.995	
20.200	-0.995	-0.995	
20.205	-0.995	-0.995	
20.210	-0.993	-0.995	
20.215	-0.995	-0.995	
20.220	-0.995	-0.994	
20.225	-0.995	-0.994	
20.230	-0.995	-0.995	
20.235	-0.995	-0.995	
20.240	-0.993	-0.995	
20.245	-0.993	-0.994	
20.250	-0.995	-0.994	
20.255	-0.995	-0.994	
20.260	-0.993	-0.994	
20.265	-0.995	-0.994	
20.270	-0.995	-0.994	
20.275	-0.691	-0.980	
20.280	-0.668	-0.933	
20.285	-0.893	-0.872	
20.290	-0.639	-0.824	
20.295	-0.445	-0.769	
20.300	-0.688	-0.702	
20.305	-0.526	-0.648	
20.310	-0.153	-0.589	
20.315	-0.459	-0.511	
20.320	-0.839	-0.466	
20.325	-0.902	-0.498	
20.330	-0.995	-0.590	
20.335	-0.995	-0.706	
20.340	-0.996	-0.816	
20.345	-0.995	-0.903	
20.350	-0.996	-0.963	
20.355	-0.995	-0.999	
20.360	-0.996	-1.016	
20.365	-0.996	-1.020	
20.370	-0.996	-1.018	
20.375	-0.996	-1.013	
20.380	-0.996	-1.008	
20.385	-0.995	-1.003	
20.390	-0.996	-0.999	
20.395	-0.993	-0.996	
20.400	-0.995	-0.995	
20.405	-0.995	-0.994	
20.410	-0.995	-0.994	
20.415	-0.995	-0.994	
20.420	-0.995	-0.994	
20.425	-0.995	-0.994	
20.430	-0.983	-0.994	
20.435	-0.993	-0.993	
20.440	-0.827	-0.984	
20.445	-0.605	-0.948	
20.450	-0.810	-0.887	
20.455	-0.685	-0.827	
20.460	-0.278	-0.759	
20.465	-0.365	-0.659	
20.470	-0.385	-0.553	
20.475	0.169	-0.443	
20.480	0.304	-0.296	
20.485	-0.055	-0.135	
20.490	0.562	0.004	
20.495	1.089	0.171	
20.500	0.641	0.377	
20.505	0.854	0.558	
20.510	1.593	0.726	
20.515	1.398	0.925	
20.520	1.216	1.111	
20.525	1.854	1.260	
20.530	1.812	1.411	
20.535	1.188	1.533	
20.540	1.419	1.568	
20.545	1.152	1.535	
20.550	-0.176	1.399	
20.555	-0.399	1.093	
20.560	-0.286	0.682	
20.565	-0.642	0.280	
20.570	-0.993	-0.088	
20.575	-0.983	-0.419	
20.580	-0.995	-0.687	
20.585	-0.996	-0.875	
20.590	-0.995	-0.990	
20.595	-0.996	-1.047	
20.600	-0.996	-1.066	
20.605	-0.996	-1.062	
20.610	-0.996	-1.048	
20.615	-0.996	-1.032	
20.620	-0.996	-1.017	
20.625	-0.996	-1.006	
20.630	-0.996	-0.999	
20.635	-0.996	-0.995	
20.640	-0.996	-0.993	
20.645	-0.996	-0.993	
20.650	-0.996	-0.993	
20.655	-0.996	-0.994	
20.660	-0.996	-0.995	
20.665	-0.996	-0.996	
20.670	-0.996	-0.996	
20.675	-0.996	-0.996	
20.680	-0.996	-0.996	
20.685	-0.996	-0.997	
20.690	-0.996	-0.996	
20.695	-0.996	-0.996	
20.700	-0.996	-0.996	
20.705	-0.996	-0.996	
20.710	-0.996	-0.996	
20.715	-0.996	-0.996	
20.720	-0.996	-0.996	
20.725	-0.996	-0.996	
20.730	-0.996	-0.996	
20.735	-0.996	-0.996	
20.740	-0.996	-0.996	
20.745	-0.996	-0.996	
20.750	-0.998	-0.996	
20.755	-0.996	-0.997	
20.760	-0.996	-0.997	
20.765	-0.996	-0.997	
20.770	-0.996	-0.997	
20.775	-0.996	-0.997	
20.780	-0.996	-0.996	
20.785	-0.996	-0.996	
20.790	-0.995	-0.996	
20.795	-0.856	-0.990	
20.800	-0.834	-0.967	
20.805	-0.532	-0.919	
20.810	0.273	-0.800	
20.815	0.379	-0.576	
20.820	0.545	-0.287	
20.825	1.529	0.046	
20.830	1.880	0.455	
20.835	1.636	0.891	
20.840	2.302	1.285	
20.845	2.892	1.663	
20.850	2.598	2.035	
20.855	2.991	2.353	
20.860	3.080	2.614	
20.865	3.081	2.824	
20.870	3.080	2.974	
20.875	3.074	3.068	
20.880	3.071	3.115	
20.885	3.075	3.130	
20.890	3.067	3.127	
20.895	3.063	3.115	
20.900	3.067	3.099	
20.905	3.066	3.086	
20.910	3.060	3.075	
20.915	3.061	3.067	
20.920	3.064	3.063	
20.925	3.061	3.060	
20.930	3.064	3.060	
20.935	3.066	3.060	
20.940	3.063	3.061	
20.945	3.060	3.062	
20.950	3.063	3.062	
20.955	3.067	3.063	
20.960	3.060	3.063	
20.965	3.064	3.063	
20.970	3.067	3.064	
20.975	3.064	3.064	
20.980	3.064	3.065	
20.985	3.071	3.065	
20.990	3.069	3.066	
20.995	3.066	3.067	
21.000	3.072	3.068	
21.005	3.072	3.068	
21.010	3.067	3.069	
21.015	3.072	3.070	
21.020	3.075	3.070	
21.025	3.067	3.071	
21.030	3.064	3.071	
21.035	3.067	3.070	
21.040	3.064	3.069	
21.045	3.063	3.067	
21.050	3.069	3.066	
21.055	3.071	3.066	
21.060	3.069	3.067	
21.065	3.077	3.068	
21.070	3.080	3.070	
21.075	3.077	3.072	
21.080	3.078	3.075	
21.085	2.789	3.063	
21.090	3.014	3.030	
21.095	3.080	3.004	
21.100	2.719	2.985	
21.105	2.768	2.946	
21.110	3.081	2.906	
21.115	3.081	2.904	
21.120	2.704	2.919	
21.125	3.080	2.921	
21.130	2.918	2.926	
21.135	2.168	2.900	
21.140	2.426	2.799	
21.145	2.728	2.682	
21.150	2.210	2.595	
21.155	2.285	2.509	
21.160	2.892	2.450	
21.165	2.571	2.459	
21.170	2.232	2.484	
21.175	2.785	2.491	
21.180	2.802	2.523	
21.185	2.189	2.562	
21.190	2.565	2.558	
21.195	2.930	2.556	
21.200	2.320	2.580	
21.205	2.267	2.569	
21.210	2.753	2.533	
21.215	2.316	2.513	
21.220	1.891	2.468	
21.225	2.348	2.379	
21.230	2.241	2.304	
21.235	1.537	2.228	
21.240	1.700	2.103	
21.245	1.833	1.966	
21.250	1.042	1.831	
21.255	0.782	1.644	
21.260	1.098	1.419	
21.265	0.565	1.210	
21.270	0.013	0.988	
21.275	0.282	0.736	
21.280	0.180	0.512	
21.285	-0.265	0.324	
21.290	-0.136	0.150	
21.295	0.076	0.015	
21.300	-0.263	-0.065	
21.305	-0.317	-0.128	
21.310	0.003	-0.177	
21.315	-0.147	-0.189	
21.320	-0.300	-0.187	
21.325	0.017	-0.186	
21.330	0.834	-0.125	
21.335	3.067	0.148	
21.340	3.043	0.716	
21.345	3.025	1.426	
21.350	3.028	2.070	
21.355	3.026	2.564	
21.360	3.028	2.892	
21.365	3.025	3.078	
21.370	3.025	3.160	
21.375	3.028	3.176	
21.380	3.028	3.156	
21.385	3.025	3.122	
21.390	3.025	3.088	
21.395	3.028	3.059	
21.400	3.028	3.039	
21.405	3.026	3.027	
21.410	3.026	3.021	
21.415	3.026	3.019	
21.420	3.028	3.020	
21.425	3.028	3.021	
21.430	3.026	3.023	
21.435	3.026	3.025	
21.440	3.028	3.026	
21.445	3.031	3.027	
21.450	3.026	3.028	
21.455	3.026	3.028	
21.460	3.029	3.028	
21.465	3.031	3.028	
21.470	3.026	3.028	
21.475	3.028	3.028	
21.480	3.031	3.028	
21.485	3.029	3.029	
21.490	3.026	3.029	
21.495	3.028	3.029	
21.500	3.029	3.028	
21.505	3.029	3.028	
21.510	3.029	3.028	
21.515	3.028	3.029	
21.520	3.028	3.029	
21.525	3.031	3.029	
21.530	3.032	3.029	
21.535	3.046	3.030	
21.540	3.049	3.033	
21.545	3.054	3.038	
21.550	3.061	3.043	
21.555	3.069	3.049	
21.560	3.071	3.055	
21.565	2.841	3.051	
21.570	1.758	2.970	
21.575	1.712	2.755	
21.580	1.184	2.434	
21.585	0.149	2.023	
21.590	0.070	1.518	
21.595	0.119	1.009	
21.600	-0.263	0.575	
21.605	-0.338	0.220	
21.610	-0.090	-0.042	
21.615	-0.315	-0.202	
21.620	-0.726	-0.310	
21.625	-0.729	-0.421	
21.630	-0.908	-0.541	
21.635	-0.993	-0.663	
21.640	-0.993	-0.780	
21.645	-0.995	-0.877	
21.650	-0.995	-0.946	
21.655	-0.995	-0.990	
21.660	-0.995	-1.012	
21.665	-0.995	-1.019	
21.670	-0.995	-1.019	
21.675	-0.995	-1.014	
21.680	-0.995	-1.008	
21.685	-0.995	-1.003	
21.690	-0.995	-0.999	
21.695	-0.995	-0.996	
21.700	-0.995	-0.994	
21.705	-0.995	-0.994	
21.710	-0.995	-0.994	
21.715	-0.995	-0.994	
21.720	-0.995	-0.994	
21.725	-0.995	-0.994	
21.730	-0.995	-0.995	
21.735	-0.995	-0.995	
21.740	-0.995	-0.995	
21.745	-0.996	-0.995	
21.750	-0.996	-0.995	
21.755	-0.996	-0.996	
21.760	-0.996	-0.996	
21.765	-0.996	-0.996	
21.770	-0.996	-0.996	
21.775	-0.996	-0.996	
21.780	-0.995	-0.996	
21.785	-0.996	-0.996	
21.790	-0.996	-0.996	
21.795	-0.995	-0.996	
21.800	-0.995	-0.996	
21.805	-0.996	-0.996	
21.810	-0.995	-0.995	
21.815	-0.995	-0.995	
21.820	-0.996	-0.995	
21.825	-0.996	-0.995	
21.830	-0.995	-0.996	
21.835	-0.995	-0.996	
21.840	-0.996	-0.995	
21.845	-0.996	-0.996	
21.850	-0.996	-0.996	
21.855	-0.996	-0.996	
21.860	-0.995	-0.996	
21.865	-0.996	-0.996	
21.870	-0.996	-0.996	
21.875	-0.995	-0.996	
21.880	-0.995	-0.996	
21.885	-0.995	-0.996	
21.890	-0.993	-0.995	
21.895	-0.995	-0.995	
21.900	-0.995	-0.995	
21.905	-0.995	-0.994	
21.910	-0.894	-0.990	
21.915	-0.891	-0.974	
21.920	-0.993	-0.956	
21.925	-0.885	-0.944	
21.930	-0.871	-0.932	
21.935	-0.993	-0.921	
21.940	-0.995	-0.923	
21.945	-0.822	-0.930	
21.950	-0.993	-0.929	
21.955	-0.995	-0.932	
21.960	-0.743	-0.934	
21.965	-0.819	-0.915	
21.970	-0.967	-0.891	
21.975	-0.668	-0.873	
21.980	-0.529	-0.833	
21.985	-0.761	-0.775	
21.990	-0.617	-0.726	
21.995	-0.332	-0.676	
22.000	-0.434	-0.605	
22.005	-0.355	-0.531	
22.010	0.217	-0.439	
22.015	0.197	-0.300	
22.020	-0.136	-0.154	
22.025	-0.023	-0.059	
22.030	-0.150	-0.016	
22.035	-0.636	-0.037	
22.040	-0.700	-0.138	
22.045	-0.619	-0.285	
22.050	-0.944	-0.437	
22.055	-0.993	-0.593	
22.060	-0.877	-0.736	
22.065	-0.993	-0.843	
22.070	-0.995	-0.918	
22.075	-0.995	-0.969	
22.080	-0.993	-0.999	
22.085	-0.993	-1.013	
22.090	-0.993	-1.016	
22.095	-0.995	-1.013	
22.100	-0.995	-1.009	
22.105	-0.995	-1.004	
22.110	-0.993	-1.000	
22.115	-0.995	-0.997	
22.120	-0.993	-0.995	
22.125	-0.995	-0.994	
22.130	-0.993	-0.993	
22.135	-0.995	-0.993	
22.140	-0.993	-0.993	
22.145	-0.995	-0.993	
22.150	-0.995	-0.994	
22.155	-0.993	-0.994	
22.160	-0.992	-0.994	
22.165	-0.951	-0.992	
22.170	-0.993	-0.987	
22.175	-0.650	-0.968	
22.180	-0.445	-0.906	
22.185	-0.611	-0.808	
22.190	-0.431	-0.707	
22.195	-0.141	-0.602	
22.200	-0.295	-0.485	
22.205	-0.242	-0.383	
22.210	0.359	-0.282	
22.215	0.411	-0.139	
22.220	0.171	0.019	
22.225	0.906	0.170	
22.230	1.303	0.364	
22.235	0.901	0.596	
22.240	1.268	0.802	
22.245	1.611	0.988	
22.250	0.676	1.136	
22.255	0.078	1.139	
22.260	0.165	0.976	
22.265	-0.161	0.728	
22.270	-0.449	0.443	
22.275	-0.173	0.165	
22.280	0.010	-0.039	
22.285	-0.323	-0.154	
22.290	-0.272	-0.224	
22.295	-0.026	-0.258	
22.300	-0.248	-0.254	
22.305	-0.320	-0.244	
22.310	0.049	-0.232	
22.315	-0.104	-0.199	
22.320	-0.378	-0.171	
22.325	-0.190	-0.174	
22.330	-0.058	-0.181	
22.335	-0.220	-0.175	
22.340	0.049	-0.161	
22.345	0.611	-0.102	
22.350	0.285	0.018	
22.355	0.314	0.143	
22.360	0.922	0.262	
22.365	0.800	0.409	
22.370	0.313	0.537	
22.375	0.761	0.601	
22.380	0.952	0.651	
22.385	0.354	0.694	
22.390	0.567	0.690	
22.395	1.110	0.681	
22.400	0.664	0.710	
22.405	0.559	0.731	
22.410	1.309	0.749	
22.415	1.370	0.830	
22.420	1.007	0.950	
22.425	1.637	1.065	
22.430	1.902	1.210	
22.435	1.285	1.369	
22.440	1.338	1.462	
22.445	1.656	1.497	
22.450	1.052	1.501	
22.455	0.806	1.437	
22.460	1.382	1.327	
22.465	1.141	1.245	
22.470	0.632	1.174	
22.475	0.965	1.077	
22.480	0.990	0.995	
22.485	0.224	0.917	
22.490	0.269	0.788	
22.495	0.727	0.648	
22.500	0.279	0.552	
22.505	0.160	0.470	
22.510	0.874	0.410	
22.515	0.875	0.434	
22.520	0.473	0.508	
22.525	0.906	0.577	
22.530	1.005	0.656	
22.535	0.325	0.723	
22.540	0.478	0.721	
22.545	1.000	0.693	
22.550	0.571	0.691	
22.555	0.446	0.683	
22.560	1.065	0.669	
22.565	0.956	0.702	
22.570	0.458	0.747	
22.575	0.852	0.757	
22.580	1.045	0.770	
22.585	0.476	0.792	
22.590	0.735	0.783	
22.595	1.378	0.787	
22.600	1.031	0.853	
22.605	0.883	0.927	
22.610	1.436	0.988	
22.615	1.330	1.070	
22.620	0.881	1.142	
22.625	1.457	1.177	
22.630	1.818	1.236	
22.635	1.321	1.333	
22.640	1.500	1.409	
22.645	1.807	1.470	
22.650	1.037	1.512	
22.655	0.567	1.459	
22.660	0.907	1.306	
22.665	0.606	1.127	
22.670	-0.038	0.927	
22.675	0.142	0.689	
22.680	0.252	0.467	
22.685	-0.190	0.293	
22.690	-0.152	0.141	
22.695	0.108	0.022	
22.700	-0.165	-0.045	
22.705	-0.321	-0.095	
22.710	-0.035	-0.141	
22.715	-0.113	-0.161	
22.720	-0.365	-0.170	
22.725	-0.156	-0.189	
22.730	-0.013	-0.195	
22.735	-0.262	-0.183	
22.740	-0.126	-0.174	
22.745	0.339	-0.145	
22.750	0.036	-0.077	
22.755	0.001	-0.010	
22.760	0.736	0.060	
22.765	0.777	0.188	
22.770	0.444	0.342	
22.775	1.020	0.478	
22.780	1.472	0.640	
22.785	1.028	0.832	
22.790	1.265	0.994	
22.795	2.012	1.147	
22.800	1.619	1.329	
22.805	1.456	1.483	
22.810	2.125	1.592	
22.815	2.056	1.710	
22.820	1.514	1.810	
22.825	1.873	1.846	
22.830	1.867	1.852	
22.835	0.924	1.814	
22.840	0.838	1.671	
22.845	1.226	1.469	
22.850	0.678	1.281	
22.855	0.240	1.083	
22.860	0.489	0.861	
22.865	0.049	0.652	
22.870	-0.349	0.440	
22.875	-0.197	0.215	
22.880	-0.116	0.025	
22.885	-0.436	-0.113	
22.890	-0.384	-0.223	
22.895	-0.135	-0.298	
22.900	-0.347	-0.326	
22.905	-0.463	-0.339	
22.910	-0.251	-0.353	
22.915	-0.382	-0.357	
22.920	-0.478	-0.362	
22.925	-0.017	-0.360	
22.930	0.615	-0.288	
22.935	0.501	-0.120	
22.940	1.029	0.106	
22.945	1.908	0.404	
22.950	1.639	0.775	
22.955	1.534	1.125	
22.960	2.299	1.412	
22.965	2.330	1.683	
22.970	1.887	1.914	
22.975	2.424	2.068	
22.980	2.655	2.195	
22.985	2.004	2.302	
22.990	2.175	2.337	
22.995	2.745	2.343	
23.000	2.339	2.375	
23.005	2.414	2.406	
23.010	3.078	2.450	
23.015	3.078	2.557	
23.020	2.759	2.691	
23.025	3.077	2.799	
23.030	3.077	2.888	
23.035	3.078	2.967	
23.040	3.078	3.026	
23.045	3.075	3.065	
23.050	3.078	3.086	
23.055	2.760	3.080	
23.060	3.078	3.048	
23.065	2.896	3.014	
23.070	1.867	2.937	
23.075	2.045	2.757	
23.080	2.178	2.535	
23.085	1.700	2.332	
23.090	2.690	2.183	
23.095	3.066	2.175	
23.100	3.057	2.318	
23.105	3.067	2.525	
23.110	1.598	2.659	
23.115	-0.993	2.477	
23.120	-0.995	1.867	
23.125	-0.996	1.039	
23.130	-0.996	0.256	
23.135	-0.996	-0.360	
23.140	-0.996	-0.781	
23.145	-0.996	-1.027	
23.150	-0.996	-1.143	
23.155	-0.996	-1.173	
23.160	-0.996	-1.155	
23.165	-0.996	-1.117	
23.170	-0.996	-1.076	
23.175	-0.996	-1.041	
23.180	-0.996	-1.016	
23.185	-0.996	-1.000	
23.190	-0.996	-0.991	
23.195	-0.996	-0.988	
23.200	-0.996	-0.988	
23.205	-0.996	-0.989	
23.210	-0.996	-0.991	
23.215	-0.996	-0.993	
23.220	-0.996	-0.995	
23.225	-0.996	-0.996	
23.230	-0.996	-0.996	
23.235	-0.996	-0.997	
23.240	-0.996	-0.997	
23.245	-0.996	-0.997	
23.250	-0.996	-0.997	
23.255	-0.996	-0.997	
23.260	-0.996	-0.996	
23.265	-0.995	-0.996	
23.270	-0.996	-0.996	
23.275	-0.996	-0.996	
23.280	-0.996	-0.996	
23.285	-0.996	-0.996	
23.290	-0.996	-0.996	
23.295	-0.996	-0.996	
23.300	-0.996	-0.996	
23.305	-0.996	-0.996	
23.310	-0.996	-0.996	
23.315	-0.996	-0.996	
23.320	-0.996	-0.996	
23.325	-0.996	-0.996	
23.330	-0.996	-0.996	
23.335	-0.996	-0.996	
23.340	-0.996	-0.996	
23.345	-0.996	-0.996	
23.350	-0.995	-0.996	
23.355	-0.995	-0.996	
23.360	-0.992	-0.996	
23.365	-0.799	-0.986	
23.370	-0.845	-0.958	
23.375	-0.460	-0.903	
23.380	-0.058	-0.794	
23.385	-0.159	-0.628	
23.390	0.224	-0.437	
23.395	1.109	-0.198	
23.400	1.091	0.119	
23.405	1.153	0.458	
23.410	1.967	0.787	
23.415	2.192	1.140	
23.420	1.925	1.485	
23.425	2.627	1.781	
23.430	3.083	2.071	
23.435	3.081	2.379	
23.440	3.077	2.660	
23.445	3.072	2.875	
23.450	3.074	3.018	
23.455	3.077	3.098	
23.460	3.074	3.133	
23.465	3.074	3.140	
23.470	3.077	3.131	
23.475	3.072	3.116	
23.480	3.067	3.101	
23.485	3.069	3.087	
23.490	3.066	3.077	
23.495	3.058	3.070	
23.500	3.060	3.065	
23.505	3.064	3.061	
23.510	3.064	3.060	
23.515	3.066	3.060	
23.520	3.071	3.062	
23.525	3.071	3.064	
23.530	3.067	3.066	
23.535	3.072	3.068	
23.540	3.071	3.069	
23.545	3.067	3.070	
23.550	3.071	3.070	
23.555	3.075	3.070	
23.560	3.071	3.071	
23.565	3.072	3.071	
23.570	3.075	3.072	
23.575	3.074	3.072	
23.580	3.071	3.073	
23.585	3.077	3.073	
23.590	3.077	3.074	
23.595	3.074	3.074	
23.600	3.078	3.075	
23.605	3.055	3.074	
23.610	3.078	3.073	
23.615	3.077	3.072	
23.620	2.745	3.057	
23.625	2.912	3.015	
23.630	3.043	2.974	
23.635	2.357	2.929	
23.640	2.293	2.830	
23.645	2.785	2.707	
23.650	2.345	2.619	
23.655	1.888	2.524	
23.660	2.290	2.399	
23.665	2.187	2.295	
23.670	1.514	2.197	
23.675	1.799	2.067	
23.680	2.116	1.955	
23.685	1.532	1.888	
23.690	1.497	1.815	
23.695	2.062	1.748	
23.700	1.651	1.728	
23.705	1.295	1.706	
23.710	1.812	1.660	
23.715	1.801	1.641	
23.720	1.271	1.637	
23.725	1.581	1.606	
23.730	1.867	1.586	
23.735	1.243	1.585	
23.740	1.259	1.551	
23.745	1.772	1.504	
23.750	1.369	1.487	
23.755	0.985	1.458	
23.760	1.538	1.400	
23.765	1.410	1.365	
23.770	0.699	1.330	
23.775	1.042	1.244	
23.780	1.329	1.162	
23.785	0.727	1.112	
23.790	0.704	1.043	
23.795	1.256	0.973	
23.800	0.837	0.946	
23.805	0.403	0.912	
23.810	0.878	0.843	
23.815	0.849	0.792	
23.820	0.288	0.754	
23.825	0.654	0.691	
23.830	1.187	0.661	
23.835	0.870	0.705	
23.840	0.950	0.775	
23.845	1.477	0.862	
23.850	1.065	0.975	
23.855	0.444	1.038	
23.860	0.712	1.000	
23.865	0.461	0.904	
23.870	-0.126	0.760	
23.875	-0.011	0.558	
23.880	0.192	0.358	
23.885	-0.190	0.202	
23.890	-0.184	0.071	
23.895	0.149	-0.026	
23.900	-0.035	-0.065	
23.905	-0.199	-0.077	
23.910	0.082	-0.086	
23.915	0.094	-0.071	
23.920	-0.190	-0.047	
23.925	0.024	-0.039	
23.930	0.376	-0.016	
23.935	0.044	0.035	
23.940	0.107	0.080	
23.945	0.771	0.135	
23.950	0.548	0.239	
23.955	0.275	0.344	
23.960	0.898	0.425	
23.965	0.944	0.525	
23.970	0.284	0.619	
23.975	0.594	0.648	
23.980	0.890	0.652	
23.985	0.281	0.656	
23.990	0.282	0.617	
23.995	0.849	0.562	
24.000	0.492	0.545	
24.005	0.131	0.527	
24.010	0.612	0.484	
24.015	0.603	0.464	
24.020	0.023	0.453	
24.025	0.137	0.401	
24.030	0.357	0.331	
24.035	-0.075	0.272	
24.040	-0.144	0.195	
24.045	0.108	0.110	
24.050	-0.116	0.045	
24.055	-0.309	-0.015	
24.060	-0.034	-0.077	
24.065	-0.045	-0.113	
24.070	-0.376	-0.133	
24.075	-0.213	-0.164	
24.080	-0.026	-0.188	
24.085	-0.339	-0.193	
24.090	-0.384	-0.210	
24.095	-0.119	-0.236	
24.100	-0.254	-0.246	
24.105	-0.439	-0.254	
24.110	-0.196	-0.273	
24.115	-0.138	-0.276	
24.120	-0.405	-0.267	
24.125	-0.300	-0.271	
24.130	-0.243	-0.281	
24.135	-0.642	-0.299	
24.140	-0.763	-0.359	
24.145	-0.558	-0.448	
24.150	-0.761	-0.531	
24.155	-0.940	-0.613	
24.160	-0.663	-0.692	
24.165	-0.648	-0.738	
24.170	-0.816	-0.753	
24.175	-0.544	-0.751	
24.180	-0.277	-0.712	
24.185	-0.466	-0.634	
24.190	1.272	-0.476	
24.195	3.058	-0.073	
24.200	3.029	0.619	
24.205	3.028	1.406	
24.210	3.025	2.092	
24.215	3.026	2.601	
24.220	3.025	2.930	
24.225	3.028	3.110	
24.230	3.029	3.183	
24.235	3.025	3.190	
24.240	3.025	3.163	
24.245	3.028	3.125	
24.250	3.029	3.088	
24.255	3.026	3.059	
24.260	3.026	3.038	
24.265	3.026	3.026	
24.270	3.029	3.020	
24.275	3.029	3.019	
24.280	3.026	3.020	
24.285	3.026	3.022	
24.290	3.029	3.024	
24.295	3.029	3.025	
24.300	3.028	3.027	
24.305	3.026	3.028	
24.310	3.029	3.028	
24.315	3.031	3.028	
24.320	3.028	3.029	
24.325	3.028	3.029	
24.330	3.028	3.029	
24.335	3.031	3.029	
24.340	3.031	3.029	
24.345	3.028	3.029	
24.350	3.028	3.029	
24.355	3.038	3.029	
24.360	3.040	3.031	
24.365	3.048	3.033	
24.370	3.064	3.038	
24.375	3.067	3.044	
24.380	3.072	3.052	
24.385	2.026	3.011	
24.390	1.309	2.824	
24.395	1.350	2.487	
24.400	0.530	2.072	
24.405	-0.022	1.596	
24.410	-0.017	1.089	
24.415	-0.184	0.627	
24.420	-0.676	0.236	
24.425	-0.811	-0.108	
24.430	-0.893	-0.405	
24.435	-0.992	-0.642	
24.440	-0.993	-0.818	
24.445	-0.995	-0.937	
24.450	-0.995	-1.006	
24.455	-0.995	-1.038	
24.460	-0.995	-1.046	
24.465	-0.995	-1.040	
24.470	-0.996	-1.029	
24.475	-0.996	-1.018	
24.480	-0.996	-1.008	
24.485	-0.996	-1.001	
24.490	-0.996	-0.997	
24.495	-0.995	-0.995	
24.500	-0.995	-0.994	
24.505	-0.996	-0.993	
24.510	-0.995	-0.994	
24.515	-0.995	-0.994	
24.520	-0.995	-0.994	
24.525	-0.995	-0.995	
24.530	-0.996	-0.995	
24.535	-0.996	-0.995	
24.540	-0.996	-0.996	
24.545	-0.996	-0.996	
24.550	-0.996	-0.996	
24.555	-0.996	-0.996	
24.560	-0.996	-0.996	
24.565	-0.996	-0.996	
24.570	-0.996	-0.996	
24.575	-0.996	-0.996	
24.580	-0.996	-0.996	
24.585	-0.996	-0.996	
24.590	-0.996	-0.996	
24.595	-0.996	-0.996	
24.600	-0.996	-0.996	
24.605	-0.996	-0.996	
24.610	-0.996	-0.996	
24.615	-0.996	-0.996	
24.620	-0.996	-0.996	
24.625	-0.996	-0.996	
24.630	-0.996	-0.996	
24.635	-0.996	-0.996	
24.640	-0.996	-0.996	
24.645	-0.996	-0.996	
24.650	-0.995	-0.996	
24.655	-0.996	-0.996	
24.660	-0.996	-0.996	
24.665	-0.996	-0.996	
24.670	-0.995	-0.996	
24.675	-0.996	-0.996	
24.680	-0.996	-0.996	
24.685	-0.995	-0.996	
24.690	-0.996	-0.996	
24.695	-0.993	-0.996	
24.700	-0.993	-0.995	
24.705	-0.993	-0.995	
24.710	-0.775	-0.984	
24.715	-0.533	-0.939	
24.720	-0.697	-0.861	
24.725	-0.517	-0.776	
24.730	-0.240	-0.682	
24.735	-0.501	-0.579	
24.740	-0.556	-0.505	
24.745	-0.297	-0.463	
24.750	-0.423	-0.430	
24.755	-0.671	-0.418	
24.760	-0.433	-0.436	
24.765	-0.368	-0.453	
24.770	-0.665	-0.462	
24.775	-0.529	-0.484	
24.780	-0.321	-0.500	
24.785	-0.558	-0.495	
24.790	-0.596	-0.495	
24.795	-0.252	-0.496	
24.800	-0.353	-0.472	
24.805	-0.587	-0.445	
24.810	-0.317	-0.434	
24.815	-0.231	-0.416	
24.820	-0.807	-0.403	
24.825	-0.993	-0.453	
24.830	-0.995	-0.569	
24.835	-0.993	-0.705	
24.840	-0.995	-0.825	
24.845	-0.995	-0.915	
24.850	-0.993	-0.974	
24.855	-0.995	-1.007	
24.860	-0.865	-1.015	
24.865	-0.691	-0.989	
24.870	-0.911	-0.939	
24.875	-0.724	-0.891	
24.880	-0.350	-0.828	
24.885	-0.393	-0.728	
24.890	-0.352	-0.613	
24.895	0.010	-0.493	
24.900	-0.097	-0.363	
24.905	-0.349	-0.257	
24.910	-0.116	-0.199	
24.915	-0.009	-0.161	
24.920	-0.326	-0.134	
24.925	-0.239	-0.137	
24.930	0.000	-0.151	
24.935	-0.245	-0.152	
24.940	-0.342	-0.163	
24.945	-0.086	-0.185	
24.950	-0.254	-0.197	
24.955	-0.569	-0.220	
24.960	-0.405	-0.274	
24.965	-0.408	-0.332	
24.970	-0.772	-0.392	
24.975	-0.709	-0.471	
24.980	-0.471	-0.546	
24.985	-0.613	-0.587	
24.990	-0.611	-0.605	
24.995	-0.323	-0.602	
25.000	-0.382	-0.565	
25.005	-0.555	-0.518	
25.010	-0.298	-0.482	
25.015	-0.202	-0.438	
25.020	-0.498	-0.391	
25.025	-0.399	-0.369	
25.030	-0.086	-0.354	
25.035	-0.266	-0.320	
25.040	-0.258	-0.285	
25.045	0.122	-0.245	
25.050	-0.023	-0.182	
25.055	-0.339	-0.130	
25.060	-0.181	-0.121	
25.065	-0.181	-0.135	
25.070	-0.532	-0.166	
25.075	-0.449	-0.229	
25.080	-0.222	-0.294	
25.085	-0.460	-0.334	
25.090	-0.512	-0.369	
25.095	-0.116	-0.391	
25.100	-0.043	-0.367	
25.105	-0.165	-0.304	
25.110	0.282	-0.221	
25.115	0.530	-0.097	
25.120	-0.014	0.044	
25.125	0.162	0.135	
25.130	0.649	0.199	
25.135	0.104	0.266	
25.140	-0.028	0.288	
25.145	0.502	0.271	
25.150	0.279	0.271	
25.155	-0.048	0.267	
25.160	0.458	0.246	
25.165	0.735	0.264	
25.170	0.307	0.327	
25.175	0.739	0.394	
25.180	1.425	0.502	
25.185	1.002	0.675	
25.190	1.100	0.844	
25.195	1.946	1.009	
25.200	1.775	1.216	
25.205	1.226	1.404	
25.210	1.634	1.507	
25.215	1.702	1.566	
25.220	0.909	1.580	
25.225	0.861	1.498	
25.230	1.110	1.353	
25.235	0.443	1.195	
25.240	0.130	0.995	
25.245	0.582	0.772	
25.250	0.337	0.595	
25.255	-0.074	0.453	
25.260	0.218	0.318	
25.265	0.359	0.227	
25.270	-0.162	0.175	
25.275	-0.095	0.115	
25.280	0.356	0.064	
25.285	0.021	0.057	
25.290	-0.077	0.058	
25.295	0.305	0.055	
25.300	0.061	0.071	
25.305	-0.262	0.074	
25.310	-0.078	0.036	
25.315	-0.008	-0.008	
25.320	-0.346	-0.049	
25.325	-0.294	-0.106	
25.330	-0.043	-0.159	
25.335	-0.246	-0.185	
25.340	-0.342	-0.204	
25.345	-0.013	-0.219	
25.350	-0.066	-0.206	
25.355	-0.280	-0.181	
25.360	-0.087	-0.169	
25.365	-0.028	-0.153	
25.370	-0.388	-0.142	
25.375	-0.284	-0.161	
25.380	0.024	-0.183	
25.385	-0.217	-0.181	
25.390	-0.280	-0.179	
25.395	-0.003	-0.181	
25.400	-0.295	-0.175	
25.405	-0.773	-0.203	
25.410	-0.775	-0.300	
25.415	-0.844	-0.438	
25.420	-0.995	-0.585	
25.425	-0.995	-0.726	
25.430	-0.763	-0.834	
25.435	-0.882	-0.890	
25.440	-0.856	-0.910	
25.445	-0.468	-0.893	
25.450	-0.422	-0.822	
25.455	-0.579	-0.722	
25.460	-0.287	-0.626	
25.465	-0.179	-0.525	
25.470	-0.553	-0.434	
25.475	-0.485	-0.390	
25.480	-0.254	-0.379	
25.485	-0.633	-0.378	
25.490	-0.873	-0.419	
25.495	-0.689	-0.503	
25.500	-0.811	-0.593	
25.505	-0.993	-0.680	
25.510	-0.871	-0.767	
25.515	-0.802	-0.831	
25.520	-0.993	-0.869	
25.525	-0.995	-0.902	
25.530	-0.952	-0.934	
25.535	-0.995	-0.956	
25.540	-0.995	-0.973	
25.545	-0.650	-0.969	
25.550	-0.558	-0.920	
25.555	-0.617	-0.836	
25.560	-0.260	-0.735	
25.565	0.162	-0.595	
25.570	0.152	-0.406	
25.575	0.513	-0.193	
25.580	1.025	0.049	
25.585	0.467	0.299	
25.590	0.149	0.464	
25.595	0.637	0.524	
25.600	0.466	0.544	
25.605	-0.068	0.523	
25.610	0.160	0.439	
25.615	0.272	0.340	
25.620	-0.207	0.252	
25.625	-0.158	0.148	
25.630	0.168	0.054	
25.635	-0.179	-0.003	
25.640	-0.342	-0.055	
25.645	-0.071	-0.113	
25.650	-0.104	-0.148	
25.655	-0.352	-0.167	
25.660	-0.162	-0.190	
25.665	-0.130	-0.204	
25.670	-0.599	-0.220	
25.675	-0.601	-0.276	
25.680	-0.388	-0.354	
25.685	-0.532	-0.415	
25.690	-0.556	-0.461	
25.695	-0.150	-0.481	
25.700	-0.090	-0.446	
25.705	-0.251	-0.373	
25.710	0.149	-0.289	
25.715	0.507	-0.169	
25.720	-0.020	-0.026	
25.725	0.201	0.080	
25.730	0.987	0.181	
25.735	0.901	0.339	
25.740	0.935	0.526	
25.745	1.818	0.732	
25.750	1.787	0.992	
25.755	1.242	1.243	
25.760	1.653	1.410	
25.765	1.897	1.529	
25.770	2.354	1.666	
25.775	3.077	1.872	
25.780	3.066	2.162	
25.785	3.069	2.472	
25.790	3.071	2.735	
25.795	3.071	2.926	
25.800	3.074	3.046	
25.805	2.919	3.104	
25.810	2.924	3.105	
25.815	2.838	3.068	
25.820	1.975	2.972	
25.825	1.940	2.779	
25.830	2.355	2.550	
25.835	1.925	2.362	
25.840	1.809	2.204	
25.845	2.478	2.089	
25.850	2.378	2.069	
25.855	1.711	2.090	
25.860	1.967	2.073	
25.865	2.282	2.048	
25.870	1.699	2.037	
25.875	1.696	1.996	
25.880	2.106	1.940	
25.885	1.593	1.900	
25.890	1.575	1.847	
25.895	3.067	1.840	
25.900	3.066	1.994	
25.905	3.063	2.268	
25.910	3.057	2.549	
25.915	3.051	2.781	
25.920	3.055	2.945	
25.925	3.058	3.046	
25.930	3.060	3.098	
25.935	3.064	3.117	
25.940	3.074	3.116	
25.945	3.074	3.108	
25.950	3.075	3.097	
25.955	2.797	3.075	
25.960	2.948	3.033	
25.965	2.945	2.989	
25.970	2.048	2.918	
25.975	1.749	2.751	
25.980	1.920	2.505	
25.985	1.222	2.236	
25.990	0.808	1.930	
25.995	1.364	1.617	
26.000	1.268	1.386	
26.005	0.710	1.230	
26.010	0.889	1.091	
26.015	0.570	0.962	
26.020	-0.292	0.802	
26.025	-0.478	0.552	
26.030	-0.342	0.254	
26.035	-0.613	-0.022	
26.040	-0.813	-0.263	
26.045	-0.616	-0.465	
26.050	-0.703	-0.605	
26.055	-0.969	-0.700	
26.060	-0.723	-0.773	
26.065	-0.512	-0.801	
26.070	-0.692	-0.780	
26.075	-0.521	-0.737	
26.080	-0.083	-0.664	
26.085	-0.052	-0.539	
26.090	0.020	-0.386	
26.095	0.918	-0.198	
26.100	1.317	0.077	
26.105	1.372	0.426	
26.110	2.264	0.810	
26.115	2.776	1.250	
26.120	2.116	1.694	
26.125	1.978	2.014	
26.130	2.279	2.185	
26.135	1.682	2.245	
26.140	1.405	2.185	
26.145	2.061	2.055	
26.150	2.249	1.971	
26.155	1.731	1.948	
26.160	1.915	1.929	
26.165	1.842	1.905	
26.170	0.709	1.833	
26.175	0.423	1.629	
26.180	0.716	1.333	
26.185	0.122	1.033	
26.190	-0.144	0.732	
26.195	0.127	0.447	
26.200	0.064	0.233	
26.205	-0.232	0.085	
26.210	-0.046	-0.024	
26.215	0.055	-0.085	
26.220	-0.356	-0.113	
26.225	-0.417	-0.156	
26.230	-0.187	-0.212	
26.235	-0.440	-0.257	
26.240	-0.588	-0.308	
26.245	-0.339	-0.367	
26.250	-0.575	-0.413	
26.255	-0.993	-0.474	
26.260	-0.995	-0.580	
26.265	-0.995	-0.709	
26.270	-0.995	-0.825	
26.275	-0.996	-0.914	
26.280	-0.995	-0.972	
26.285	-0.995	-1.005	
26.290	-0.996	-1.020	
26.295	-0.996	-1.022	
26.300	-0.996	-1.019	
26.305	-0.996	-1.013	
26.310	-0.996	-1.007	
26.315	-0.996	-1.002	
26.320	-0.996	-0.999	
26.325	-0.996	-0.997	
26.330	-0.996	-0.995	
26.335	-0.996	-0.995	
26.340	-0.996	-0.995	
26.345	-0.996	-0.995	
26.350	-0.996	-0.996	
26.355	-0.996	-0.996	
26.360	-0.996	-0.996	
26.365	-0.996	-0.996	
26.370	-0.996	-0.996	
26.375	-0.996	-0.996	
26.380	-0.995	-0.996	
26.385	-0.996	-0.996	
26.390	-0.996	-0.996	
26.395	-0.996	-0.996	
26.400	-0.996	-0.996	
26.405	-0.996	-0.996	
26.410	-0.996	-0.996	
26.415	-0.996	-0.996	
26.420	-0.995	-0.996	
26.425	-0.996	-0.996	
26.430	-0.996	-0.996	
26.435	-0.996	-0.996	
26.440	-0.996	-0.996	
26.445	-0.996	-0.996	
26.450	-0.996	-0.996	
26.455	-0.996	-0.996	
26.460	-0.996	-0.996	
26.465	-0.996	-0.996	
26.470	-0.996	-0.996	
26.475	-0.996	-0.996	
26.480	-0.996	-0.996	
26.485	-0.996	-0.996	
26.490	-0.996	-0.996	
26.495	-0.996	-0.996	
26.500	-0.995	-0.996	
26.505	-0.996	-0.996	
26.510	-0.996	-0.996	
26.515	-0.996	-0.996	
26.520	-0.996	-0.996	
26.525	-0.996	-0.996	
26.530	-0.996	-0.996	
26.535	-0.996	-0.996	
26.540	-0.996	-0.996	
26.545	-0.996	-0.996	
26.550	-0.996	-0.996	
26.555	-0.996	-0.996	
26.560	-0.996	-0.996	
26.565	-0.996	-0.996	
26.570	-0.995	-0.996	
26.575	-0.995	-0.996	
26.580	-0.596	-0.977	
26.585	-0.523	-0.913	
26.590	-0.457	-0.809	
26.595	0.201	-0.666	
26.600	0.574	-0.449	
26.605	0.345	-0.181	
26.610	1.039	0.090	
26.615	1.636	0.394	
26.620	1.191	0.725	
26.625	1.410	1.004	
26.630	2.271	1.246	
26.635	2.223	1.512	
26.640	2.253	1.778	
26.645	3.078	2.033	
26.650	3.081	2.313	
26.655	3.083	2.593	
26.660	3.080	2.820	
26.665	3.080	2.980	
26.670	2.744	3.062	
26.675	2.644	3.054	
26.680	3.083	2.999	
26.685	2.921	2.960	
26.690	2.727	2.932	
26.695	3.083	2.906	
26.700	3.080	2.909	
26.705	2.627	2.921	
26.710	2.728	2.899	
26.715	2.993	2.864	
26.720	2.300	2.826	
26.725	2.236	2.740	
26.730	2.789	2.633	
26.735	2.531	2.572	
26.740	2.316	2.536	
26.745	2.973	2.518	
26.750	3.067	2.567	
26.755	2.715	2.663	
26.760	3.080	2.753	
26.765	3.077	2.840	
26.770	3.078	2.927	
26.775	3.072	2.997	
26.780	3.066	3.046	
26.785	3.066	3.073	
26.790	3.072	3.086	
26.795	3.066	3.089	
26.800	3.066	3.087	
26.805	3.071	3.082	
26.810	3.066	3.077	
26.815	3.063	3.073	
26.820	3.066	3.069	
26.825	3.066	3.066	
26.830	3.060	3.065	
26.835	3.063	3.064	
26.840	3.067	3.063	
26.845	3.063	3.063	
26.850	3.064	3.063	
26.855	3.072	3.064	
26.860	3.071	3.065	
26.865	3.067	3.067	
26.870	3.075	3.068	
26.875	3.075	3.070	
26.880	3.071	3.071	
26.885	3.072	3.072	
26.890	3.078	3.073	
26.895	3.074	3.074	
26.900	3.075	3.074	
26.905	2.965	3.070	
26.910	3.078	3.058	
26.915	3.077	3.051	
26.920	3.078	3.052	
26.925	3.058	3.057	
26.930	3.077	3.061	
26.935	2.834	3.054	
26.940	2.172	2.990	
26.945	2.487	2.853	
26.950	2.406	2.700	
26.955	1.766	2.544	
26.960	1.969	2.363	
26.965	2.221	2.204	
26.970	1.590	2.088	
26.975	1.451	1.961	
26.980	1.805	1.828	
26.985	1.292	1.718	
26.990	0.765	1.585	
26.995	1.248	1.415	
27.000	1.248	1.278	
27.005	0.524	1.172	
27.010	0.813	1.047	
27.015	1.208	0.947	
27.020	0.508	0.895	
27.025	0.366	0.825	
27.030	0.870	0.735	
27.035	0.563	0.678	
27.040	0.348	0.634	
27.045	1.121	0.605	
27.050	1.477	0.666	
27.055	1.112	0.813	
27.060	3.067	1.047	
27.065	3.026	1.443	
27.070	3.028	1.932	
27.075	3.026	2.374	
27.080	3.026	2.712	
27.085	3.026	2.936	
27.090	3.037	3.064	
27.095	3.029	3.121	
27.100	3.028	3.132	
27.105	3.029	3.118	
27.110	3.026	3.095	
27.115	3.026	3.071	
27.120	3.029	3.051	
27.125	3.029	3.037	
27.130	3.026	3.029	
27.135	3.026	3.024	
27.140	3.029	3.022	
27.145	3.029	3.023	
27.150	3.029	3.024	
27.155	3.026	3.026	
27.160	3.028	3.027	
27.165	3.029	3.027	
27.170	3.031	3.028	
27.175	3.026	3.029	
27.180	3.026	3.029	
27.185	3.029	3.028	
27.190	3.031	3.028	
27.195	3.028	3.029	
27.200	3.028	3.029	
27.205	3.029	3.029	
27.210	3.031	3.029	
27.215	3.028	3.029	
27.220	3.026	3.029	
27.225	3.029	3.029	
27.230	3.031	3.028	
27.235	3.029	3.029	
27.240	3.028	3.029	
27.245	3.029	3.029	
27.250	3.031	3.029	
27.255	3.029	3.029	
27.260	3.029	3.029	
27.265	3.031	3.030	
27.270	3.037	3.030	
27.275	3.051	3.032	
27.280	3.063	3.036	
27.285	2.594	3.021	
27.290	0.858	2.876	
27.295	0.215	2.483	
27.300	-0.321	1.876	
27.305	-0.992	1.166	
27.310	-0.993	0.449	
27.315	-0.992	-0.169	
27.320	-0.993	-0.625	
27.325	-0.995	-0.917	
27.330	-0.993	-1.075	
27.335	-0.995	-1.138	
27.340	-0.995	-1.142	
27.345	-0.995	-1.117	
27.350	-0.995	-1.082	
27.355	-0.995	-1.049	
27.360	-0.995	-1.023	
27.365	-0.996	-1.005	
27.370	-0.996	-0.994	
27.375	-0.996	-0.989	
27.380	-0.996	-0.988	
27.385	-0.995	-0.989	
27.390	-0.995	-0.991	
27.395	-0.996	-0.992	
27.400	-0.995	-0.994	
27.405	-0.996	-0.995	
27.410	-0.996	-0.995	
27.415	-0.996	-0.996	
27.420	-0.995	-0.996	
27.425	-0.995	-0.996	
27.430	-0.995	-0.996	
27.435	-0.995	-0.996	
27.440	-0.995	-0.995	
27.445	-0.993	-0.995	
27.450	-0.978	-0.994	
27.455	-0.970	-0.991	
27.460	-0.566	-0.967	
27.465	-0.181	-0.882	
27.470	-0.371	-0.738	
27.475	-0.260	-0.585	
27.480	0.510	-0.420	
27.485	0.838	-0.187	
27.490	0.834	0.101	
27.495	1.454	0.407	
27.500	1.596	0.729	
27.505	0.939	1.010	
27.510	0.999	1.168	
27.515	1.219	1.222	
27.520	0.563	1.208	
27.525	0.354	1.102	
27.530	0.765	0.941	
27.535	0.377	0.792	
27.540	0.093	0.647	
27.545	0.449	0.503	
27.550	0.495	0.408	
27.555	0.041	0.354	
27.560	0.206	0.298	
27.565	0.550	0.262	
27.570	0.068	0.259	
27.575	-0.003	0.242	
27.580	0.263	0.203	
27.585	0.030	0.172	
27.590	-0.283	0.127	
27.595	-0.104	0.052	
27.600	-0.138	-0.024	
27.605	-0.541	-0.099	
27.610	-0.540	-0.199	
27.615	-0.420	-0.305	
27.620	-0.720	-0.398	
27.625	-0.810	-0.494	
27.630	-0.648	-0.587	
27.635	-0.844	-0.661	
27.640	-0.993	-0.729	
27.645	-0.923	-0.801	
27.650	-0.967	-0.864	
27.655	-0.993	-0.913	
27.660	-0.993	-0.951	
27.665	-0.993	-0.978	
27.670	-0.993	-0.993	
27.675	-0.993	-1.001	
27.680	-0.993	-1.004	
27.685	-0.995	-1.003	
27.690	-0.995	-1.001	
27.695	-0.993	-0.999	
27.700	-0.993	-0.997	
27.705	-0.995	-0.995	
27.710	-0.995	-0.994	
27.715	-0.944	-0.992	
27.720	-0.993	-0.986	
27.725	-0.995	-0.983	
27.730	-0.986	-0.983	
27.735	-0.993	-0.984	
27.740	-0.995	-0.986	
27.745	-0.993	-0.989	
27.750	-0.995	-0.991	
27.755	-0.995	-0.993	
27.760	-0.995	-0.994	
27.765	-0.995	-0.995	
27.770	-0.995	-0.995	
27.775	-0.995	-0.995	
27.780	-0.995	-0.995	
27.785	-0.995	-0.995	
27.790	-0.995	-0.995	
27.795	-0.995	-0.995	
27.800	-0.993	-0.995	
27.805	-0.995	-0.995	
27.810	-0.995	-0.994	
27.815	-0.993	-0.994	
27.820	-0.995	-0.994	
27.825	-0.995	-0.994	
27.830	-0.995	-0.994	
27.835	-0.993	-0.994	
27.840	-0.995	-0.994	
27.845	-0.993	-0.994	
27.850	-0.993	-0.994	
27.855	-0.995	-0.994	
27.860	-0.993	-0.994	
27.865	-0.827	-0.986	
27.870	-0.989	-0.968	
27.875	-0.995	-0.956	
27.880	-0.844	-0.950	
27.885	-0.989	-0.941	
27.890	-0.995	-0.939	
27.895	-0.981	-0.947	
27.900	-0.931	-0.956	
27.905	-0.995	-0.961	
27.910	-0.993	-0.967	
27.915	-0.770	-0.964	
27.920	-0.923	-0.944	
27.925	-0.833	-0.920	
27.930	-0.417	-0.876	
27.935	-0.402	-0.789	
27.940	-0.529	-0.681	
27.945	-0.231	-0.580	
27.950	-0.130	-0.475	
27.955	-0.379	-0.376	
27.960	-0.229	-0.310	
27.965	0.044	-0.256	
27.970	-0.184	-0.198	
27.975	-0.210	-0.157	
27.980	0.168	-0.128	
27.985	0.058	-0.082	
27.990	-0.129	-0.037	
27.995	0.264	-0.005	
28.000	0.498	0.053	
28.005	-0.005	0.130	
28.010	0.156	0.173	
28.015	0.531	0.201	
28.020	0.075	0.237	
28.025	0.076	0.246	
28.030	0.707	0.248	
28.035	0.482	0.295	
28.040	0.017	0.341	
28.045	0.388	0.342	
28.050	0.429	0.336	
28.055	-0.109	0.324	
28.060	0.012	0.268	
28.065	0.331	0.203	
28.070	-0.110	0.159	
28.075	-0.203	0.104	
28.080	0.119	0.039	
28.085	-0.075	-0.002	
28.090	-0.359	-0.039	
28.095	-0.139	-0.094	
28.100	-0.109	-0.138	
28.105	-0.402	-0.169	
28.110	-0.280	-0.208	
28.115	-0.071	-0.237	
28.120	-0.338	-0.242	
28.125	-0.394	-0.253	
28.130	-0.078	-0.267	
28.135	-0.184	-0.258	
28.140	-0.361	-0.244	
28.145	-0.071	-0.237	
28.150	0.055	-0.210	
28.155	-0.286	-0.170	
28.160	-0.171	-0.150	
28.165	0.140	-0.136	
28.170	-0.136	-0.104	
28.175	-0.177	-0.084	
28.180	0.229	-0.071	
28.185	0.064	-0.035	
28.190	-0.208	-0.004	
28.195	0.058	-0.002	
28.200	0.131	0.001	
28.205	-0.240	0.006	
28.210	-0.118	-0.014	
28.215	0.163	-0.036	
28.220	-0.181	-0.039	
28.225	-0.222	-0.052	
28.230	0.128	-0.072	
28.235	-0.019	-0.068	
28.240	-0.252	-0.061	
28.245	-0.019	-0.071	
28.250	0.059	-0.074	
28.255	-0.263	-0.069	
28.260	-0.037	-0.077	
28.265	0.693	-0.050	
28.270	0.403	0.053	
28.275	0.374	0.180	
28.280	1.065	0.312	
28.285	0.904	0.476	
28.290	0.386	0.620	
28.295	0.846	0.692	
28.300	1.014	0.743	
28.305	0.625	0.792	
28.310	1.242	0.832	
28.315	2.316	0.948	
28.320	2.916	1.236	
28.325	3.074	1.667	
28.330	3.064	2.131	
28.335	3.058	2.531	
28.340	3.052	2.826	
28.345	3.044	3.012	
28.350	3.040	3.110	
28.355	3.048	3.146	
28.360	3.051	3.145	
28.365	3.051	3.127	
28.370	3.055	3.104	
28.375	3.061	3.084	
28.380	3.055	3.069	
28.385	3.063	3.060	
28.390	3.067	3.056	
28.395	3.066	3.056	
28.400	3.069	3.058	
28.405	3.078	3.061	
28.410	3.077	3.065	
28.415	3.074	3.069	
28.420	2.913	3.065	
28.425	2.598	3.028	
28.430	2.892	2.958	
28.435	2.494	2.880	
28.440	1.905	2.761	
28.445	2.250	2.588	
28.450	2.085	2.417	
28.455	0.939	2.226	
28.460	0.107	1.910	
28.465	-0.252	1.443	
28.470	-0.917	0.886	
28.475	-0.993	0.307	
28.480	-0.993	-0.214	
28.485	-0.993	-0.614	
28.490	-0.993	-0.881	
28.495	-0.995	-1.033	
28.500	-0.993	-1.101	
28.505	-0.995	-1.114	
28.510	-0.995	-1.099	
28.515	-0.990	-1.072	
28.520	-0.995	-1.044	
28.525	-0.995	-1.021	
28.530	-0.993	-1.005	
28.535	-0.993	-0.995	
28.540	-0.993	-0.990	
28.545	-0.893	-0.983	
28.550	-0.694	-0.959	
28.555	-0.914	-0.917	
28.560	-0.802	-0.881	
28.565	-0.555	-0.842	
28.570	-0.782	-0.792	
28.575	-0.899	-0.761	
28.580	-0.651	-0.754	
28.585	-0.801	-0.750	
28.590	-0.993	-0.759	
28.595	-0.981	-0.798	
28.600	-0.964	-0.850	
28.605	-0.995	-0.899	
28.610	-0.993	-0.940	
28.615	-0.993	-0.969	
28.620	-0.995	-0.988	
28.625	-0.995	-0.999	
28.630	-0.995	-1.003	
28.635	-0.993	-1.004	
28.640	-0.993	-1.002	
28.645	-0.995	-1.000	
28.650	-0.993	-0.998	
28.655	-0.995	-0.996	
28.660	-0.995	-0.995	
28.665	-0.993	-0.994	
28.670	-0.995	-0.994	
28.675	-0.995	-0.994	
28.680	-0.954	-0.992	
28.685	-0.989	-0.988	
28.690	-0.995	-0.984	
28.695	-0.995	-0.984	
28.700	-0.995	-0.986	
28.705	-0.995	-0.989	
28.710	-0.995	-0.991	
28.715	-0.993	-0.993	
28.720	-0.995	-0.994	
28.725	-0.995	-0.995	
28.730	-0.995	-0.995	
28.735	-0.995	-0.995	
28.740	-0.996	-0.995	
28.745	-0.996	-0.995	
28.750	-0.995	-0.996	
28.755	-0.996	-0.996	
28.760	-0.996	-0.996	
28.765	-0.996	-0.996	
28.770	-0.996	-0.996	
28.775	-0.996	-0.996	
28.780	-0.996	-0.996	
28.785	-0.996	-0.996	
28.790	-0.996	-0.996	
28.795	-0.995	-0.996	
28.800	-0.995	-0.996	
28.805	-0.995	-0.996	
28.810	-0.995	-0.995	
28.815	-0.995	-0.995	
28.820	-0.995	-0.995	
28.825	-0.993	-0.995	
28.830	-0.995	-0.995	
28.835	-0.995	-0.994	
28.840	-0.995	-0.994	
28.845	-0.828	-0.987	
28.850	-0.601	-0.951	
28.855	-0.804	-0.889	
28.860	-0.645	-0.826	
28.865	-0.312	-0.753	
28.870	-0.465	-0.659	
28.875	-0.498	-0.571	
28.880	-0.127	-0.496	
28.885	-0.153	-0.409	
28.890	-0.359	-0.327	
28.895	-0.064	-0.270	
28.900	0.152	-0.208	
28.905	-0.280	-0.140	
28.910	-0.243	-0.111	
28.915	0.094	-0.108	
28.920	-0.170	-0.096	
28.925	-0.216	-0.094	
28.930	0.321	-0.089	
28.935	0.314	-0.035	
28.940	0.056	0.044	
28.945	1.020	0.141	
28.950	1.818	0.344	
28.955	1.688	0.673	
28.960	2.331	1.057	
28.965	3.080	1.486	
28.970	2.974	1.952	
28.975	2.904	2.371	
28.980	3.078	2.687	
28.985	3.080	2.907	
28.990	3.072	3.046	
28.995	3.077	3.120	
29.000	3.074	3.148	
29.005	3.081	3.149	
29.010	3.077	3.136	
29.015	3.075	3.119	
29.020	3.072	3.102	
29.025	3.074	3.089	
29.030	3.063	3.079	
29.035	3.060	3.071	
29.040	3.061	3.066	
29.045	3.061	3.062	
29.050	3.060	3.060	
29.055	3.064	3.059	
29.060	3.066	3.060	
