Time	Potential	EKG	Unnamed: 3
0.0	-0.179	-0.006139417346497216	
0.005	0.036	-0.021228154179976377	
0.01	-0.364	-0.05606983464685698	
0.015	-0.277	-0.1007535508381409	
0.02	0.142	-0.13354242754926876	
0.025	-0.216	-0.146276704623311	
0.03	-0.376	-0.15527516447876355	
0.035	0.029	-0.16325676331018085	
0.04	0.000	-0.1591595520270933	
0.045	-0.317	-0.1481262341377078	
0.05	0.052	-0.12936598048404796	
0.055	0.547	-0.08224941761406143	
0.06	-0.051	-0.006322098897207882	
0.065	0.026	0.06406670184701119	
0.07	0.631	0.1227124988679825	
0.075	0.047	0.17610198311893027	
0.08	-0.243	0.19386585843359613	
0.085	0.146	0.16676545090551326	
0.09	-0.023	0.11396922798822408	
0.095	-0.422	0.04481984520710137	
0.1	-0.211	-0.03287393947975276	
0.105	0.015	-0.10460586281278719	
0.11	-0.373	-0.1601884720479559	
0.115	-0.306	-0.1949707167557308	
0.12	0.073	-0.21139584857216182	
0.125	-0.246	-0.21437975611909463	
0.13	-0.341	-0.20863948087967102	
0.135	0.148	-0.18936341042989502	
0.14	0.017	-0.15700259425550828	
0.145	-0.388	-0.1300385368029693	
0.15	-0.116	-0.11639626352317806	
0.155	0.223	-0.10906837415486884	
0.16	-0.260	-0.09699804372598436	
0.165	-0.161	-0.08303569809898491	
0.17	0.374	-0.06158855477951357	
0.175	-0.064	-0.03280582509242936	
0.18	-0.225	-0.009182393061875875	
0.185	0.259	0.008336809471126382	
0.19	0.145	0.023076268358535088	
0.195	-0.240	0.03224232196733049	
0.2	0.073	0.03597396144100828	
0.205	0.343	0.04041161138530261	
0.21	-0.208	0.04435332606759686	
0.215	-0.139	0.04087164816644217	
0.22	0.426	0.03707619150935572	
0.225	-0.016	0.04289261102858484	
0.23	-0.182	0.050373647434656235	
0.235	0.382	0.060899633285001656	
0.24	0.298	0.08318525372862168	
0.245	-0.226	0.10365877845743446	
0.25	0.039	0.04087164816644217	
0.255	0.334	0.09679694043136639	
0.26	-0.222	0.07791186419662818	
0.265	-0.145	0.05678425179975889	
0.27	0.415	0.03954556623951516	
0.275	-0.086	0.03269513966607505	
0.28	-0.248	0.026053436836871557	
0.285	0.229	0.01926776436269997	
0.29	0.215	0.018254012549558274	
0.295	-0.225	0.02528494378596196	
0.3	0.120	0.038394126365426925	
0.305	0.461	0.057063025454742074	
0.31	-0.147	0.0785772127398526	
0.315	-0.055	0.09473078704261509	
0.32	0.502	0.10487537362986447	
0.325	-0.058	0.11252704188317532	
0.33	-0.217	0.10582676595070967	
0.335	0.305	0.09254631001782537	
0.34	0.166	0.08029583003670618	
0.345	-0.281	0.06699333981288563	
0.35	0.023	0.05050553042341971	
0.355	0.328	0.034257142348574146	
0.36	-0.220	0.02337336578704814	
0.365	-0.156	0.015682446209570152	
0.37	0.398	0.01209871089665365	
0.375	-0.068	0.014460743153250076	
0.38	-0.252	0.016681026650738336	
0.385	0.206	0.01569639165299289	
0.39	0.094	0.010331435217120669	
0.395	-0.318	-0.0011740961581065737	
0.4	-0.025	-0.01142309695293515	
0.405	0.354	-0.018619818211242194	
0.41	-0.211	-0.01476180697443973	
0.415	-0.077	-0.0033460041722709792	
0.42	0.690	0.028262524264481986	
0.425	0.299	0.09143145043249651	
0.43	0.012	0.1695787895483884	
0.435	0.635	0.23876798482782738	
0.44	0.437	0.29335233200651795	
0.445	-0.200	0.317735566139278	
0.45	0.070	0.295547676426264	
0.455	0.281	0.2373772824471556	
0.46	-0.315	0.16124917000548417	
0.465	-0.274	0.07966508780141646	
0.47	0.154	0.002185230235173633	
0.475	-0.239	-0.06657728944664686	
0.48	-0.368	-0.11730897767528986	
0.485	0.052	-0.14424966316560095	
0.49	-0.049	-0.15971162963969882	
0.495	-0.338	-0.16514973267740665	
0.5	0.009	-0.1503609822685374	
0.505	0.466	-0.1116813280868437	
0.51	-0.078	-0.05074982717133053	
0.515	0.052	0.019729223268205878	
0.52	0.675	0.09315287242225685	
0.525	0.227	0.16637102431297493	
0.53	-0.006	0.226702402255254	
0.535	0.634	0.2717267513416438	
0.54	0.405	0.30625720038996884	
0.545	-0.153	0.3168670569687442	
0.55	0.128	0.29456905919569093	
0.555	0.377	0.24824146332181374	
0.56	-0.170	0.1943460834735301	
0.565	-0.110	0.1427508785913398	
0.57	0.406	0.10102611737942874	
0.575	-0.068	0.07145350345823052	
0.58	-0.231	0.04883054029441375	
0.585	0.217	0.0315787318517781	
0.59	0.122	0.01823440487645873	
0.595	-0.268	0.008082589760474306	
0.6	0.000	0.002516574687720722	
0.605	0.266	-0.003907137533802368	
0.61	-0.240	-0.01149971876131747	
0.615	-0.208	-0.017201296542100588	
0.62	0.224	-0.028173568087217094	
0.625	-0.159	-0.04450319074620815	
0.63	-0.289	-0.059015264345518084	
0.635	0.084	-0.0675428409318811	
0.64	-0.022	-0.0798479012257278	
0.645	-0.324	-0.09377932673509584	
0.65	-0.037	-0.09547152820231619	
0.655	0.288	-0.08700620789422375	
0.66	-0.217	-0.07045551840404239	
0.665	-0.144	-0.0481397541232473	
0.67	0.324	-0.027223747158016773	
0.675	-0.101	-0.01353369566714681	
0.68	-0.217	-0.004985044977924973	
0.685	0.321	0.007475311862284756	
0.69	0.160	0.025143471418809203	
0.695	-0.254	0.03819399625570666	
0.7	-0.034	0.03950862647910356	
0.705	0.264	0.027000383567264065	
0.71	-0.210	0.011543264758361758	
0.715	-0.173	0.0008507901215532925	
0.72	0.203	-0.01221129435206937	
0.725	-0.170	-0.03253459078944358	
0.73	-0.315	-0.054998760036162504	
0.735	0.058	-0.07150362588965972	
0.74	-0.043	-0.09286417151297144	
0.745	-0.349	-0.1118398178473987	
0.75	-0.116	-0.12041793915824843	
0.755	0.124	-0.12695515593291495	
0.76	-0.312	-0.1325801632403865	
0.765	-0.237	-0.13113393190271716	
0.77	0.264	-0.12104532340313655	
0.775	-0.086	-0.10463058076746973	
0.78	-0.194	-0.0781211061133066	
0.785	0.490	-0.032293401877857425	
0.79	0.533	0.043192637929436645	
0.795	0.032	0.1359324842985045	
0.8	0.527	0.22864384654431394	
0.805	0.678	0.310211466670648	
0.81	-0.138	0.3552180006102793	
0.815	-0.141	0.3387152182807729	
0.82	0.304	0.2721236873264552	
0.825	-0.165	0.18238984910881548	
0.83	-0.355	0.09071125969275592	
0.835	-0.002	0.006742734867945636	
0.84	-0.037	-0.06870268640933548	
0.845	-0.336	-0.12114373281540658	
0.85	-0.068	-0.14036498946598963	
0.855	0.238	-0.13765757318090113	
0.86	-0.294	-0.12478898906915231	
0.865	-0.240	-0.10731069637287864	
0.87	0.256	-0.09375833696865388	
0.875	-0.098	-0.08163864727051186	
0.88	-0.242	-0.06640203786769555	
0.885	0.275	-0.04213651449180503	
0.89	0.127	-0.016664445645157042	
0.895	-0.303	-0.0003550028183587427	
0.9	-0.020	0.004654376895276128	
0.905	0.330	0.003506264659731161	
0.91	-0.174	0.004077487662996123	
0.915	-0.095	0.013611309454981449	
0.92	0.504	0.03144657250347037	
0.925	0.033	0.057332873079142734	
0.93	-0.142	0.08240192975623392	
0.935	0.402	0.10598955979152214	
0.94	0.325	0.12845000326223022	
0.945	-0.170	0.14646368256591485	
0.95	0.169	0.15665652283600556	
0.955	0.499	0.15967848530772577	
0.96	-0.118	0.16196818118984796	
0.965	-0.045	0.15749348262029456	
0.97	0.577	0.15359644282467924	
0.975	0.026	0.15435703259706487	
0.98	-0.171	0.15025170005792043	
0.985	0.415	0.14503930501956802	
0.99	0.311	0.14456916133875605	
0.995	-0.217	0.1463780438607562	
1.0	0.044	0.13758362246809341	
1.005	0.392	0.11677191100387749	
1.01	-0.168	0.09600148730880759	
1.015	-0.113	0.08041406662159367	
1.02	0.490	0.0726041655801871	
1.025	-0.003	0.07443299870598066	
1.03	-0.187	0.07722697114745233	
1.035	0.388	0.08498122228197036	
1.04	0.368	0.10162007112034557	
1.045	-0.138	0.12742904745915368	
1.05	0.223	0.15152231625457457	
1.055	0.501	0.16975179354168665	
1.06	-0.132	0.17907052035259446	
1.065	-0.069	0.1723688855972454	
1.07	0.486	0.15751529624433505	
1.075	0.017	0.14252319384741008	
1.08	-0.219	0.1262767450163889	
1.085	0.180	0.1018328514153388	
1.09	0.058	0.06661469325980263	
1.095	-0.327	0.024569766209249475	
1.1	-0.112	-0.011548654357472167	
1.105	0.165	-0.04833622432894185	
1.11	-0.280	-0.07978831625857481	
1.115	-0.234	-0.09458339839245083	
1.12	0.185	-0.10060483307075578	
1.125	-0.159	-0.10646244285009539	
1.13	-0.312	-0.10763182665118612	
1.135	0.096	-0.10118594785441243	
1.14	0.020	-0.0984333776968591	
1.145	-0.278	-0.09541680437705496	
1.15	0.168	-0.07248412646628574	
1.155	0.658	-0.018303598343356924	
1.16	0.154	0.06915357821340322	
1.165	0.287	0.1714023889876235	
1.17	0.852	0.2724603536807143	
1.175	0.209	0.35348856454929656	
1.18	-0.174	0.3812421597020651	
1.185	0.259	0.3488187645607987	
1.19	0.094	0.2746275770119013	
1.195	-0.329	0.1825412887472953	
1.2	-0.110	0.09345249003996149	
1.205	0.143	0.010718575481458945	
1.21	-0.298	-0.05681573894356092	
1.215	-0.234	-0.09661560945735609	
1.22	0.217	-0.11352301261771355	
1.225	-0.171	-0.12045924253270338	
1.23	-0.330	-0.11972717953889757	
1.235	0.090	-0.11313078994363715	
1.24	0.047	-0.1073578866235283	
1.245	-0.278	-0.09952112156232987	
1.25	0.067	-0.07750710491093564	
1.255	0.398	-0.043203466723914785	
1.26	-0.168	-0.0049340675028555075	
1.265	-0.095	0.027307754973975116	
1.27	0.521	0.056613511970185895	
1.275	0.067	0.08552825690363007	
1.28	-0.176	0.10911732130829904	
1.285	0.400	0.12494972340610465	
1.29	0.377	0.1417539496895567	
1.295	-0.161	0.1593423992991272	
1.3	0.212	0.17143099365229414	
1.305	0.528	0.1799235664642262	
1.31	-0.136	0.18405418364383333	
1.315	-0.075	0.17419267837571675	
1.32	0.617	0.16366690699955705	
1.325	0.099	0.16463221106530318	
1.33	-0.161	0.16804902733282082	
1.335	0.394	0.16586482631219612	
1.34	0.337	0.1638508197685173	
1.345	-0.165	0.16440765514755953	
1.35	0.119	0.160296383017124	
1.355	0.424	0.14990042825686667	
1.36	-0.156	0.13522147998331624	
1.365	-0.077	0.11815109277016206	
1.37	0.484	0.10751302702550825	
1.375	-0.028	0.10075577954221195	
1.38	-0.220	0.0911336576688028	
1.385	0.292	0.08068437096831178	
1.39	0.255	0.07488202937104646	
1.395	-0.208	0.0755881852711332	
1.4	0.120	0.08015794506326393	
1.405	0.522	0.0908163694367968	
1.41	-0.112	0.10944574800920523	
1.415	-0.084	0.12209757870896848	
1.42	0.478	0.12527662632215958	
1.425	-0.014	0.12293806410318234	
1.43	-0.222	0.11127266508183181	
1.435	0.238	0.094397700241004	
1.44	0.181	0.0748941240171817	
1.445	-0.268	0.05687831076227945	
1.45	-0.048	0.03796405277247203	
1.455	0.183	0.01260994744182088	
1.46	-0.271	-0.019251713745866577	
1.465	-0.223	-0.044864046537760625	
1.47	0.229	-0.06101384702762667	
1.475	-0.173	-0.07490467725173018	
1.48	-0.358	-0.08753527462764313	
1.485	0.021	-0.09985957448013355	
1.49	-0.037	-0.11612920651150016	
1.495	-0.381	-0.1338747699626557	
1.5	-0.176	-0.14215655547613149	
1.505	0.067	-0.1535221578958069	
1.51	-0.286	-0.16405890805175904	
1.515	-0.173	-0.1568563832779461	
1.52	0.495	-0.12014894177027644	
1.525	0.250	-0.050781199819008895	
1.53	0.125	0.04653781568757486	
1.535	0.761	0.1620156615945478	
1.54	0.617	0.2809022657826034	
1.545	-0.097	-0.10164151131872	
1.55	0.042	-0.10164151131872	
1.555	0.169	0.32143330703519585	
1.56	-0.318	0.21909245908811031	
1.565	-0.323	0.10505992475075801	
1.57	0.003	-0.0052957005352842635	
1.575	-0.222	-0.10164151131872	
1.58	-0.356	-0.16639194044418051	
1.585	-0.025	-0.1931304164273024	
1.59	-0.063	-0.20505632030196305	
1.595	-0.370	-0.20767512376966402	
1.6	-0.127	-0.19433926451558586	
1.605	0.185	-0.17355724804133726	
1.61	-0.181	-0.1468677648250362	
1.615	-0.155	-0.10896888925164919	
1.62	0.243	-0.07127631593220514	
1.625	-0.072	-0.046667259411697776	
1.63	-0.219	-0.03050734631878027	
1.635	0.284	-0.009059755764975544	
1.64	0.279	0.0200324077498818	
1.645	-0.170	0.051161631457411524	
1.65	0.128	0.0786384311300315	
1.655	0.560	0.10662607292016142	
1.66	-0.023	0.1390372913637128	
1.665	-0.052	0.16287329805013628	
1.67	0.562	0.17588958502830745	
1.675	0.201	0.18840954417090439	
1.68	-0.086	0.20231665479519426	
1.685	0.411	0.2099480350793346	
1.69	0.343	0.21215513290307028	
1.695	-0.121	0.20908766525837552	
1.7	0.204	0.20157576891041762	
1.705	0.537	0.19771454068345284	
1.71	-0.097	0.19604912005767217	
1.715	-0.109	0.18179410668287393	
1.72	0.479	0.1599056227623975	
1.725	0.046	0.1414815032742548	
1.73	-0.210	0.12428637814828705	
1.735	0.244	0.10588202552716348	
1.74	0.214	0.08721881174807289	
1.745	-0.199	0.07315661107475568	
1.75	0.047	0.06548604496427539	
1.755	0.424	0.06268087367161941	
1.76	-0.103	0.06817468231695482	
1.765	-0.084	0.07779081560011658	
1.77	0.449	0.08578692060406592	
1.775	0.124	0.09854419345235998	
1.78	-0.066	0.1173834323297179	
1.785	0.537	0.14678524147986322	
1.79	0.403	0.18718764117358686	
1.795	-0.147	0.2172621424919024	
1.8	0.131	0.222403120701802	
1.805	0.386	0.20556418370706986	
1.81	-0.142	0.17631275107578465	
1.815	-0.122	0.14081741314100676	
1.82	0.278	0.10261032148323179	
1.825	-0.104	0.06162531525773082	
1.83	-0.312	0.01950977555327827	
1.835	0.061	-0.017399447580462628	
1.84	0.061	-0.04983283563713399	
1.845	-0.271	-0.07150726645913916	
1.85	-0.054	-0.07565404306890827	
1.855	0.181	-0.07357186309075464	
1.86	-0.266	-0.07454057362859265	
1.865	-0.272	-0.0781498520936152	
1.87	0.085	-0.08854184714220169	
1.875	-0.147	-0.10731984187206996	
1.88	-0.239	-0.1163870819212526	
1.885	0.345	-0.0944608736406661	
1.89	0.603	-0.029818803255371035	
1.895	0.267	0.08157591716129681	
1.9	0.811	0.2293099362143387	
1.905	1.147	0.3984062522126719	
1.91	0.371	-0.029818803255371035	
1.915	0.102	0.6277417661390248	
1.92	0.405	0.6053340046704372	
1.925	-0.101	0.5017490994063404	
1.93	-0.310	0.35463862492884807	
1.935	-0.048	0.19838829371915023	
1.94	-0.116	0.04917825296132989	
1.945	-0.420	-0.07629471619076739	
1.95	-0.208	-0.15875633022562705	
1.955	0.067	-0.20666203505673245	
1.96	-0.301	-0.2273482703434066	
1.965	-0.271	-0.22114194802196013	
1.97	0.088	-0.20168791916661288	
1.975	-0.136	-0.18322961168671176	
1.98	-0.297	-0.16232554252429268	
1.985	0.142	-0.13060619428703008	
1.99	0.198	-0.09483643813761733	
1.995	-0.208	-0.05436025939079092	
2.0	0.026	-0.015767847867659387	
2.005	0.345	0.014371021212294017	
2.01	-0.113	0.036569995669194014	
2.015	-0.072	0.0548177359122371	
2.02	0.464	0.07341887807771573	
2.025	0.081	0.09374914400147293	
2.03	-0.121	0.11056465782724355	
2.035	0.394	0.12746876015051467	
2.04	0.336	0.14622266670143175	
2.045	-0.139	0.16052111940005664	
2.05	0.189	0.168230223817459	
2.055	0.579	0.17749949110777608	
2.06	-0.006	0.193532964279593	
2.065	0.009	0.20371556041006722	
2.07	0.571	0.20848158346661663	
2.075	0.148	0.21381790031974723	
2.08	-0.145	0.21148154165652	
2.085	0.290	0.19540937915503565	
2.09	0.252	0.1713051806344404	
2.095	-0.203	0.14456317420391165	
2.1	-0.026	0.1151358975073381	
2.105	0.279	0.0794751093188578	
2.11	-0.184	0.04563686841370904	
2.115	-0.155	0.0207168715146022	
2.12	0.377	0.01040099507280399	
2.125	-0.006	0.011875551803064478	
2.13	-0.194	0.019552352471812917	
2.135	0.285	0.032339930151828185	
2.14	0.314	0.05229762557443392	
2.145	-0.136	0.07865032104508782	
2.15	0.154	0.10409581848826335	
2.155	0.452	0.1254103659571812	
2.16	-0.106	0.13870839000943097	
2.165	-0.083	0.13870577458044514	
2.17	0.398	0.12928712893876593	
2.175	0.004	0.1159341497852393	
2.18	-0.174	0.09962951870634451	
2.185	0.275	0.08722200272806327	
2.19	0.186	0.07928691758971979	
2.195	-0.271	0.06777409893924678	
2.2	-0.086	0.047006319785100205	
2.205	0.160	0.015324283815068078	
2.21	-0.248	-0.022133743738139883	
2.215	-0.246	-0.051278393009859	
2.22	0.094	-0.07585385379562555	
2.225	-0.179	-0.10298802081333379	
2.23	-0.329	-0.12328210430058885	
2.235	-0.026	-0.1328867848463848	
2.24	-0.069	-0.14572887189395817	
2.245	-0.384	-0.16114185138203363	
2.25	-0.115	-0.16399795346118262	
2.255	0.435	-0.14466556302399744	
2.26	0.142	-0.08409085405885897	
2.265	0.406	0.023729654485084864	
2.27	1.126	0.179191634945918	
2.275	0.707	0.36002452631408316	
2.28	0.192	-0.08409085405885897	
2.285	0.528	0.5810290197026142	
2.29	0.269	0.56730230973624	
2.295	-0.321	0.47983314651514114	
2.3	-0.236	0.33789168534183234	
2.305	-0.054	0.16632219623567904	
2.31	-0.361	0.0009837503793462621	
2.315	-0.358	-0.12129645378402026	
2.32	0.001	-0.19787306982669547	
2.325	-0.219	-0.24391614535241765	
2.33	-0.376	-0.2582898341899842	
2.335	-0.022	-0.24590903035498407	
2.34	0.024	-0.2236834156266815	
2.345	-0.313	-0.19615789157203295	
2.35	-0.112	-0.16102759918334777	
2.355	0.162	-0.13165426066710567	
2.36	-0.229	-0.11116943783191428	
2.365	-0.207	-0.09332333325409084	
2.37	0.267	-0.07373338109120797	
2.375	-0.020	-0.05402097145123029	
2.38	-0.184	-0.03243949754444366	
2.385	0.324	-0.000725441842378926	
2.39	0.269	0.03737034975590579	
2.395	-0.190	0.06959387928639409	
2.4	0.056	0.08802727958073214	
2.405	0.467	0.09856372577340808	
2.41	-0.057	0.11066842989419068	
2.415	-0.063	0.120557190707522	
2.42	0.482	0.12848367023622487	
2.425	0.116	0.1369712766373108	
2.43	-0.115	0.14435716051820352	
2.435	0.389	0.15238074127810758	
2.44	0.357	0.16349104168513653	
2.445	-0.161	0.17143765703207547	
2.45	0.039	0.16500650470295947	
2.455	0.415	0.14670374337833333	
2.46	-0.165	0.12460352265162766	
2.465	-0.179	0.09846948547706404	
2.47	0.290	0.06758274452179432	
2.475	-0.014	0.03899234378752131	
2.48	-0.211	0.021280949245959982	
2.485	0.214	0.016427452122933044	
2.49	0.261	0.020531489806585403	
2.495	-0.155	0.03538693956293729	
2.5	0.157	0.05904750149382179	
2.505	0.505	0.09075637547921345	
2.51	-0.061	0.1215281217283789	
2.515	-0.025	0.1434579352751017	
2.52	0.547	0.15866194930158184	
2.525	0.114	0.17295070439821938	
2.53	-0.127	0.17820547448753815	
2.535	0.435	0.17947443600476506	
2.54	0.476	0.19157437110246267	
2.545	-0.071	0.21234196017589613	
2.55	0.318	0.23200630552354293	
2.555	0.661	0.254787948744228	
2.56	-0.017	0.2755793732351364	
2.565	-0.057	0.27339436951277685	
2.57	0.446	0.24657396433347187	
2.575	0.029	0.21005794131891928	
2.58	-0.243	0.16527554691746243	
2.585	0.107	0.115296356832545	
2.59	0.076	0.059565000221049186	
2.595	-0.309	0.007545024344673076	
2.6	-0.162	-0.033086159087475274	
2.605	0.101	-0.07237376052177681	
2.61	-0.280	-0.10722694697748865	
2.615	-0.284	-0.1275005885293347	
2.62	0.185	-0.13360601587683058	
2.625	-0.005	-0.12691153623225698	
2.63	-0.095	-0.09554170289873834	
2.635	0.615	-0.025754454620462948	
2.64	0.707	0.08750204713162803	
2.645	0.056	0.21163482881706766	
2.65	0.258	-0.07237376052177681	
2.655	0.429	0.33648015996036457	
2.66	-0.254	0.31283644906488933	
2.665	-0.297	0.2375115190712654	
2.67	0.015	0.1292322029074528	
2.675	-0.245	0.011146470591919758	
2.68	-0.394	-0.08940465128128113	
2.685	-0.064	-0.15491392956581942	
2.69	-0.071	-0.1975712841052161	
2.695	-0.398	-0.22015705297075708	
2.7	-0.185	-0.2211189877295307	
2.705	0.064	-0.21462166683738954	
2.71	-0.323	-0.2060544367488481	
2.715	-0.304	-0.19338964536464665	
2.72	0.084	-0.17985097402893443	
2.725	-0.159	-0.17189310653739326	
2.73	-0.312	-0.16136190854221172	
2.735	0.020	-0.1429206885677193	
2.74	-0.008	-0.13263163150469673	
2.745	-0.336	-0.1291942408179162	
2.75	-0.090	-0.12106418442459162	
2.755	0.302	-0.10457862209127852	
2.76	-0.174	-0.08014101032531498	
2.765	-0.153	-0.0504020258587105	
2.77	0.368	-0.021731196035917916	
2.775	0.024	0.0070552745333958364	
2.78	-0.168	0.03152099065544658	
2.785	0.302	0.05519475163982868	
2.79	0.279	0.07843225651187996	
2.795	-0.219	0.09365367454267198	
2.8	0.020	0.09593393728226832	
2.805	0.382	0.08853776070023292	
2.81	-0.187	0.07777949923755487	
2.815	-0.211	0.06052160497364441	
2.82	0.227	0.03436835245028254	
2.825	-0.077	0.004064678939714608	
2.83	-0.245	-0.01855817077812307	
2.835	0.165	-0.026741945074509575	
2.84	0.146	-0.026517931788941768	
2.845	-0.266	-0.024427967013261345	
2.85	-0.069	-0.021040567862176292	
2.855	0.255	-0.022381388328121962	
2.86	-0.220	-0.027306446524685467	
2.865	-0.200	-0.0305020410559081	
2.87	0.310	-0.030495148884076936	
2.875	-0.034	-0.02498077352395881	
2.88	-0.231	-0.016685764796932415	
2.885	0.197	-0.005632716591790785	
2.89	0.272	0.009538514110399006	
2.895	-0.245	0.02742608145263202	
2.9	0.020	0.039988869205110786	
2.905	0.369	0.04573657610935987	
2.91	-0.173	0.04959259283646296	
2.915	-0.173	0.04644398747088233	
2.92	0.351	0.04061540946099867	
2.925	-0.080	0.031989509900318076	
2.93	-0.291	0.017224270886422886	
2.935	0.087	-0.000564948067732302	
2.94	0.085	-0.022433112871363615	
2.945	-0.338	-0.04465442623224114	
2.95	-0.161	-0.06297805385108024	
2.955	0.076	-0.08719929112535202	
2.96	-0.312	-0.11648654240991897	
2.965	-0.277	-0.13555969421872144	
2.97	0.137	-0.14225814773252915	
2.975	-0.150	-0.1450709867517191	
2.98	-0.346	-0.14287937340107212	
2.985	0.113	-0.13040359108418262	
2.99	0.159	-0.1103885822586684	
2.995	-0.220	-0.08186035968585716	
3.0	0.142	-0.039886963981232	
3.005	0.660	0.021014375113608617	
3.01	0.042	0.09732107863178852	
3.015	0.081	0.1673111212206251	
3.02	0.666	0.2219647755356388	
3.025	0.099	0.25889290056176295	
3.03	-0.258	0.25687286597188974	
3.035	0.018	0.20967938334261674	
3.04	-0.005	0.1247230376996254	
3.045	-0.346	0.032987034342254765	
3.05	-0.126	-0.036885642721196495	
3.055	0.192	-0.08283824550697559	
3.06	-0.258	-0.109765478532581	
3.065	-0.239	-0.11674394751885293	
3.07	0.299	-0.10685721395010889	
3.075	-0.032	-0.08711956949514257	
3.08	-0.223	-0.06024932732251111	
3.085	0.337	-0.023131850087247986	
3.09	0.356	0.024821147132926144	
3.095	-0.193	0.07073504650882322	
3.1	0.136	0.1051053699285964	
3.105	0.621	0.13437308615881383	
3.11	0.036	0.1701053489970459	
3.115	0.044	0.20209856258336245	
3.12	0.762	0.23431727836211766	
3.125	0.386	0.276932493444649	
3.13	0.006	0.31757017213591776	
3.135	0.573	0.3438673154105374	
3.14	0.522	0.3579329343692714	
3.145	-0.077	0.35768794053865405	
3.15	0.281	0.3420280111664653	
3.155	0.687	0.32442692556590924	
3.16	0.039	0.3151737859496474	
3.165	-0.031	0.29803119631076846	
3.17	0.464	0.26722829108746193	
3.175	0.024	0.2260124416569846	
3.18	-0.234	0.17663722546299168	
3.185	0.232	0.12975522269488846	
3.19	0.230	0.09195012523680512	
3.195	-0.245	0.06485428572012748	
3.2	-0.023	0.045946724998020536	
3.205	0.327	0.030298483334355288	
3.21	-0.232	0.015329374411744388	
3.215	-0.220	0.0010774419115722658	
3.22	0.250	-0.01393726461993885	
3.225	-0.113	-0.02991364171461072	
3.23	-0.315	-0.04623341839383053	
3.235	0.108	-0.055392963053144076	
3.24	0.111	-0.06108924588404936	
3.245	-0.301	-0.06299119333363454	
3.25	-0.106	-0.06112024447347416	
3.255	0.259	-0.0598092729362892	
3.26	-0.153	-0.05553919268183881	
3.265	-0.142	-0.03988882597291969	
3.27	0.380	-0.016059720527441305	
3.275	-0.023	0.007131181536585115	
3.28	-0.243	0.02183115780425069	
3.285	0.206	0.029508299584280633	
3.29	0.221	0.03390331013993693	
3.295	-0.242	0.037096287703284686	
3.3	-0.043	0.036823144134864635	
3.305	0.324	0.03013524900449839	
3.31	-0.219	0.019538042730610022	
3.315	-0.266	0.0050959617477583175	
3.32	0.152	-0.019154323658141778	
3.325	-0.139	-0.0508128884890612	
3.33	-0.317	-0.07708850050202162	
3.335	0.081	-0.08955078755335869	
3.34	0.081	-0.09412366432526895	
3.345	-0.327	-0.0938362327494385	
3.35	-0.177	-0.09317652045500315	
3.355	0.076	-0.10292384406398328	
3.36	-0.286	-0.12245604556388102	
3.365	-0.219	-0.13083922221038097	
3.37	0.432	-0.11211554335779844	
3.375	0.181	-0.06283821228841377	
3.38	-0.022	0.007891710749540419	
3.385	0.582	0.09349151812356504	
3.39	0.476	-0.09317652045500315	
3.395	-0.188	-0.09317652045500315	
3.4	-0.084	-0.09317652045500315	
3.405	0.145	-0.10292384406398328	
3.41	-0.324	0.10754115915132072	
3.415	-0.318	0.019103241735714305	
3.42	0.088	-0.05611144589790886	
3.425	-0.177	-0.1168036558516043	
3.43	-0.350	-0.15312934849787913	
3.435	0.020	-0.16351143254175543	
3.44	0.029	-0.16308370862480023	
3.445	-0.355	-0.15792047958520522	
3.45	-0.167	-0.14616657718467746	
3.455	0.145	-0.13780511737322332	
3.46	-0.275	-0.13453767578432765	
3.465	-0.257	-0.12693970922762726	
3.47	0.296	-0.1109809407867845	
3.475	-0.113	-0.09085287881488235	
3.48	-0.329	-0.07730325261724952	
3.485	0.091	-0.06739815959178984	
3.49	0.192	-0.05998128809370126	
3.495	-0.228	-0.046106497380233924	
3.5	0.013	-0.02315399261106061	
3.505	0.447	0.004397049114981212	
3.51	-0.148	0.032333618603456446	
3.515	-0.145	0.051914474586598765	
3.52	0.524	0.06821224814864563	
3.525	0.139	0.092180507641488	
3.53	-0.185	0.11550553197766748	
3.535	0.293	0.1276734534241718	
3.54	0.284	0.1301350991409939	
3.545	-0.203	0.12474622119621519	
3.55	0.061	0.11580565977845289	
3.555	0.489	0.10954128976376099	
3.56	-0.112	0.10930640065764707	
3.565	-0.164	0.10481499323809759	
3.57	0.362	0.09227106293476589	
3.575	-0.006	0.07521677012185866	
3.58	-0.246	0.057441951378990413	
3.585	0.191	0.0436952641411284	
3.59	0.223	0.033198662446365795	
3.595	-0.239	0.02771131691613426	
3.6	0.003	0.0277812120785548	
3.605	0.449	0.03358798565644232	
3.61	-0.132	0.04530141600317708	
3.615	-0.121	0.0577827922527388	
3.62	0.484	0.07130825424667461	
3.625	0.033	0.08523474682479433	
3.63	-0.197	0.09238863766805477	
3.635	0.334	0.09769166381399957	
3.64	0.363	0.10825508840461295	
3.645	-0.190	0.1216941265680709	
3.65	0.027	0.12570879476232474	
3.655	0.457	0.1196049410687669	
3.66	-0.107	0.11336569493643736	
3.665	-0.135	0.105739933878186	
3.67	0.415	0.09724746931144101	
3.675	0.036	0.08930980965658489	
3.68	-0.271	0.07843154062415815	
3.685	0.108	0.05957950227180432	
3.69	0.076	0.02923468130074865	
3.695	-0.332	-0.007189560035814482	
3.7	-0.153	-0.038310319541167676	
3.705	0.189	-0.06647794442750041	
3.71	-0.255	-0.0895641705596759	
3.715	-0.240	-0.0982031619326314	
3.72	0.209	-0.09682117964535646	
3.725	-0.106	-0.0937063783755069	
3.73	-0.304	-0.08950834873426641	
3.735	0.188	-0.07540151624138974	
3.74	0.343	-0.04777930983264796	
3.745	-0.097	-0.0011837921426298497	
3.75	0.363	0.06472031887323335	
3.755	0.817	0.15253989089121647	
3.76	0.162	0.24740088784415865	
3.765	0.091	0.31673702810183757	
3.77	0.567	0.34715794731814803	
3.775	-0.009	0.3343066582520967	
3.78	-0.284	0.2784533629907463	
3.785	0.007	0.1925293586709779	
3.79	-0.046	0.08924909721068776	
3.795	-0.376	-0.012137291563604359	
3.8	-0.159	-0.08433555970406298	
3.805	0.209	-0.12645708355376467	
3.81	-0.266	-0.1435119566436912	
3.815	-0.281	-0.14226839537461408	
3.82	0.181	-0.1318389438751995	
3.825	-0.097	-0.12261518565601869	
3.83	-0.274	-0.1095542454037361	
3.835	0.177	-0.0844701858774197	
3.84	0.240	-0.053680878644965575	
3.845	-0.219	-0.021206765262848704	
3.85	0.042	0.011584414281453514	
3.855	0.434	0.03962868260715065	
3.86	-0.141	0.06146031037886956	
3.865	-0.116	0.07460715909545852	
3.87	0.479	0.08425823740046645	
3.875	0.067	0.0964616438769153	
3.88	-0.219	0.10228567008937535	
3.885	0.357	0.10551810484693921	
3.89	0.440	0.11948877624436906	
3.895	-0.126	0.14173448286000886	
3.9	0.134	0.1614426499312701	
3.905	0.562	0.1747450940976057	
3.91	-0.071	0.18355266287768499	
3.915	-0.083	0.18144925525645822	
3.92	0.516	0.1722250277169018	
3.925	0.119	0.16663996390693575	
3.93	-0.202	0.15724829362965137	
3.935	0.266	0.14234177383235994	
3.94	0.282	0.12559289892430858	
3.945	-0.242	0.10885777904257665	
3.95	-0.037	0.08826752051979009	
3.955	0.347	0.06470813949146535	
3.96	-0.167	0.043771484630481604	
3.965	-0.203	0.027392707036687985	
3.97	0.327	0.016044091244193502	
3.975	-0.025	0.008804527800357134	
3.98	-0.242	0.0033453880647865415	
3.985	0.162	0.004133086554631503	
3.99	0.273	0.008631333092316347	
3.995	-0.202	0.020052186007677372	
4.0	0.012	0.03512307143137712	
4.005	0.388	0.04760682250879331	
4.01	-0.130	0.05496256972947758	
4.015	-0.124	0.059359632824095725	
4.02	0.463	0.06787609773324307	
4.025	0.088	0.08194829002737605	
4.03	-0.196	0.09241427802629941	
4.035	0.204	0.0959239721783331	
4.04	0.214	0.0886703192044507	
4.045	-0.274	0.07221563240499412	
4.05	-0.113	0.04896130408819939	
4.055	0.223	0.01753630042718589	
4.06	-0.232	-0.016825137352517082	
4.065	-0.292	-0.04469013296651896	
4.07	0.130	-0.0682981492038493	
4.075	-0.110	-0.09290654003594866	
4.08	-0.313	-0.10750025237044739	
4.085	0.047	-0.10822131681900696	
4.09	0.116	-0.10328806425554732	
4.095	-0.294	-0.09567581897461253	
4.1	-0.122	-0.0831266099811713	
4.105	0.233	-0.07448061299864805	
4.11	-0.246	-0.07075254947430976	
4.115	-0.240	-0.06874726686345857	
4.12	0.455	-0.054301719298422195	
4.125	0.287	-0.011802105415575312	
4.13	0.026	0.0584601956205947	
4.135	0.684	0.14871014914479536	
4.14	0.637	-0.054301719298422195	
4.145	-0.164	0.3223095733106564	
4.15	-0.066	0.3276823068993572	
4.155	0.263	0.2705200511390692	
4.16	-0.249	0.1834200038567938	
4.165	-0.309	0.09117796104950089	
4.17	0.111	0.006533704063099454	
4.175	-0.181	-0.06566287956528752	
4.18	-0.417	-0.12244781754616406	
4.185	-0.104	-0.16049803054358275	
4.19	-0.074	-0.19118734020733796	
4.195	-0.408	-0.21443679694112122	
4.2	-0.258	-0.22135002935617681	
4.205	0.010	-0.2245868782573841	
4.21	-0.318	-0.2294557179348884	
4.215	-0.324	-0.22279684862227342	
4.22	0.101	-0.20656612005191782	
4.225	-0.095	-0.18763544414947206	
4.23	-0.278	-0.16242569081209757	
4.235	0.128	-0.12552715628981836	
4.24	0.249	-0.08316294030733921	
4.245	-0.202	-0.04047009114180141	
4.25	0.003	-0.0013887390649807824	
4.255	0.479	0.033485030495130734	
4.26	-0.064	0.06652888855270009	
4.265	-0.112	0.09110411081690671	
4.27	0.417	0.10548357788548227	
4.275	0.134	0.11542030756889722	
4.28	-0.170	0.11947919448202943	
4.285	0.307	0.12445351713511452	
4.29	0.426	0.13393466479218696	
4.295	-0.122	0.14850928607526775	
4.3	0.050	0.15652882124851203	
4.305	0.444	0.1535268964699012	
4.31	-0.057	0.14558195339100793	
4.315	-0.109	0.13405326542130094	
4.32	0.411	0.12346829376106924	
4.325	0.099	0.11548664010320156	
4.33	-0.217	0.10547210904734423	
4.335	0.093	0.08938165966183959	
4.34	0.195	0.0629489781629674	
4.345	-0.216	0.037564951782567496	
4.35	-0.017	0.023516841692084154	
4.355	0.427	0.02351938080670332	
4.36	-0.072	0.035620681101797586	
4.365	-0.112	0.0520486744014278	
4.37	0.438	0.07043644887944694	
4.375	0.162	0.09150648111785904	
4.38	-0.126	0.11149248122070399	
4.385	0.363	0.13336298504068156	
4.39	0.394	0.1559584462248379	
4.395	-0.144	0.17057351327281423	
4.4	0.044	0.17145475400793772	
4.405	0.435	0.16049870103475997	
4.41	-0.118	0.1426794622747759	
4.415	-0.184	0.11801940813169157	
4.42	0.285	0.08737162416475568	
4.425	-0.003	0.05757580753350108	
4.43	-0.263	0.02952992783814989	
4.435	0.059	0.008269589748984367	
4.44	0.093	-0.01602741039046104	
4.445	-0.292	-0.0403318330062802	
4.45	-0.150	-0.0565843880392096	
4.455	0.192	-0.07053759835016304	
4.46	-0.208	-0.08225515114964797	
4.465	-0.248	-0.08497364437811941	
4.47	0.186	-0.08165655374986638	
4.475	-0.080	-0.08041393206324389	
4.48	-0.284	-0.07848456605786686	
4.485	0.157	-0.06771201047828201	
4.49	0.409	-0.03797539200525905	
4.495	-0.043	0.012633805875253786	
4.5	0.394	0.08640382163889325	
4.505	0.926	0.18554937936982796	
4.51	0.351	0.301730996271369	
4.515	0.131	0.39290367283163924	
4.52	0.536	0.43132174878521234	
4.525	0.070	0.4126311962080603	
4.53	-0.265	0.34345953152555386	
4.535	0.018	0.24420523340160638	
4.54	0.070	0.13406907658206899	
4.545	-0.344	0.03369156080783653	
4.55	-0.196	-0.04266587543947859	
4.555	0.093	-0.09948929882800757	
4.56	-0.252	-0.1391816322235915	
4.565	-0.263	-0.1560421321519791	
4.57	0.204	-0.14866522191378786	
4.575	-0.078	-0.13131774618032332	
4.58	-0.306	-0.11353015011914651	
4.585	0.044	-0.09480197080250738	
4.59	0.195	-0.07790222721166802	
4.595	-0.214	-0.05834905711612165	
4.6	-0.046	-0.03370922773234671	
4.605	0.437	-0.006428326691380083	
4.61	-0.075	0.02380170369793682	
4.615	-0.110	0.050857056094821426	
4.62	0.458	0.07637623903103882	
4.625	0.206	0.10374614920915547	
4.63	-0.112	0.13039074281544316	
4.635	0.334	0.15317811788103614	
4.64	0.376	0.17017583502361872	
4.645	-0.124	0.1776111399227265	
4.65	0.091	0.17621596282027094	
4.655	0.560	0.1746400324874553	
4.66	0.001	0.17784903221617754	
4.665	-0.060	0.17876971273688375	
4.67	0.560	0.18036752898470287	
4.675	0.272	0.19185128668578932	
4.68	-0.119	0.20536294289627366	
4.685	0.282	0.207065676824716	
4.69	0.343	0.19724113746194294	
4.695	-0.197	0.17870913567607954	
4.7	-0.049	0.14809888458609166	
4.705	0.249	0.10756785935027546	
4.71	-0.185	0.059996562737786016	
4.715	-0.211	0.01978253920815884	
4.72	0.281	-0.005772266628097568	
4.725	0.078	-0.01407223189005418	
4.73	-0.190	-0.007520961351566907	
4.735	0.227	0.012957993091397719	
4.74	0.340	0.03922356441682824	
4.745	-0.174	0.06583593104237687	
4.75	0.006	0.08303864301288247	
4.755	0.501	0.09548902253413936	
4.76	0.013	0.11212227757170333	
4.765	-0.046	0.12978362288627043	
4.77	0.470	0.14706836768363923	
4.775	0.105	0.15698535103201672	
4.78	-0.208	0.15156711451696372	
4.785	0.157	0.13279698388822458	
4.79	0.211	0.10520285306922839	
4.795	-0.271	0.07301792224489057	
4.8	-0.167	0.036955246630126073	
4.805	0.163	-0.004649510532268359	
4.81	-0.222	-0.04571177277684624	
4.815	-0.286	-0.07516795229755374	
4.82	0.082	-0.09510507079465381	
4.825	-0.119	-0.11494483980336671	
4.83	-0.326	-0.12928676256750615	
4.835	-0.006	-0.1293081079611466	
4.84	0.087	-0.12584076215579323	
4.845	-0.317	-0.12087060016849027	
4.85	-0.187	-0.11406504077511659	
4.855	0.128	-0.11171258819526947	
4.86	-0.164	-0.11267567615033618	
4.865	-0.089	-0.09815143413539212	
4.87	0.693	-0.043078712565117736	
4.875	0.692	0.06812215339529747	
4.88	0.327	0.2166839170938061	
4.885	0.782	0.36662495189028144	
4.89	0.750	0.48717608920437466	
4.895	-0.077	0.5440952170536156	
4.9	-0.035	0.5138000617695334	
4.905	0.226	0.41127452907977596	
4.91	-0.249	0.27443453353250524	
4.915	-0.336	0.13579871437460905	
4.92	-0.058	0.01178085078664337	
4.925	-0.214	-0.09881932554252061	
4.93	-0.428	-0.1812215146465232	
4.935	-0.138	-0.22543181889246833	
4.94	-0.057	-0.2477966317578864	
4.945	-0.344	-0.25476308057554575	
4.95	-0.194	-0.23814833971029817	
4.955	0.120	-0.2107248213955254	
4.96	-0.208	-0.184585543690777	
4.965	-0.232	-0.15322931943960555	
4.97	0.247	-0.11615138890226723	
4.975	0.056	-0.07783481332849852	
4.98	-0.197	-0.04137156582937526	
4.985	0.211	-0.0023717762843585627	
4.99	0.351	0.035314974213092765	
4.995	-0.164	0.06805585970412895	
5.0	0.023	0.09078922673253145	
5.005	0.489	0.10548057914618984	
5.01	-0.025	0.11935152911118957	
5.015	-0.072	0.12959099773731753	
5.02	0.525	0.14100763852116766	
5.025	0.276	0.1612587845908458	
5.03	-0.097	0.18343321533512574	
5.035	0.376	0.2006372419766277	
5.04	0.464	0.2154819795069875	
5.045	-0.112	0.2239647754061971	
5.05	0.070	0.2176795519647094	
5.055	0.516	0.20360710622497516	
5.06	-0.038	0.18939843315017912	
5.065	-0.144	0.1684568277294007	
5.07	0.342	0.1420029797571344	
5.075	0.084	0.11537445422521994	
5.08	-0.234	0.08939461557136519	
5.085	0.094	0.0655449587665734	
5.09	0.211	0.0415646418192323	
5.095	-0.216	0.02203655176398825	
5.1	-0.060	0.011593719896738856	
5.105	0.423	0.012609141315218841	
5.11	-0.063	0.02550242096866005	
5.115	-0.141	0.04141012619887297	
5.12	0.371	0.05693250894452963	
5.125	0.192	0.07446414155185477	
5.13	-0.132	0.0944164806684195	
5.135	0.261	0.11444173332107506	
5.14	0.363	0.1295927664677527	
5.145	-0.155	0.1381086018082595	
5.15	-0.028	0.13449586186471973	
5.155	0.397	0.119551581723796	
5.16	-0.081	0.10361079892834593	
5.165	-0.159	0.08741100778991728	
5.17	0.290	0.07282506602047463	
5.175	-0.037	0.053512508974972756	
5.18	-0.300	0.02648180932619076	
5.185	-0.029	-0.004653105977970185	
5.19	0.073	-0.039414991037848554	
5.195	-0.297	-0.07077677430364884	
5.2	-0.168	-0.08952995936554231	
5.205	0.134	-0.10150844934614268	
5.21	-0.254	-0.1133260811962182	
5.215	-0.323	-0.1235847644127914	
5.22	0.061	-0.1302237706460103	
5.225	-0.113	-0.14044830110411993	
5.23	-0.335	-0.1465026746327253	
5.235	0.018	-0.13866711610817134	
5.24	0.359	-0.11436711108586356	
5.245	0.007	-0.060777929834708005	
5.25	0.542	0.03445888032161085	
5.255	1.202	0.185594367394683	
5.26	0.588	-0.060777929834708005	
5.265	0.238	-0.060777929834708005	
5.27	0.577	0.5877152628327817	
5.275	0.110	0.5656128403857972	
5.28	-0.312	0.4694271234632951	
5.285	-0.109	0.3242128420007949	
5.29	-0.064	0.1586960056144222	
5.295	-0.408	0.004302919933748177	
5.3	-0.286	-0.11064718499905345	
5.305	-0.011	-0.18746492591772002	
5.31	-0.298	-0.23819611108440045	
5.315	-0.364	-0.25667138826852753	
5.32	0.000	-0.25125659735482553	
5.325	-0.103	-0.23932523324764252	
5.33	-0.289	-0.2165529386643707	
5.335	0.059	-0.1757436810676817	
5.34	0.192	-0.12926792264102502	
5.345	-0.232	-0.08682924248166755	
5.35	-0.101	-0.05169388905844392	
5.355	0.328	-0.02533408818982592	
5.36	-0.087	-0.004289130888703391	
5.365	-0.161	0.013178090226160974	
5.37	0.385	0.03291286089695794	
5.375	0.185	0.05672747756826878	
5.38	-0.165	0.08122113432525391	
5.385	0.249	0.10130643855764504	
5.39	0.418	0.11991223625005863	
5.395	-0.158	0.13602047424727529	
5.4	0.020	0.14021814793566628	
5.405	0.544	0.14085737404792076	
5.41	0.044	0.1487074603985739	
5.415	-0.064	0.15902111855897144	
5.42	0.472	0.16698605500189423	
5.425	0.220	0.1748163430444522	
5.43	-0.155	0.17611437546851416	
5.435	0.183	0.16827014255930994	
5.44	0.311	0.15000305365168864	
5.445	-0.161	0.12901520854969561	
5.45	-0.040	0.10816257903956854	
5.455	0.359	0.08789030337145191	
5.46	-0.122	0.06872885922602424	
5.465	-0.214	0.04897920890907313	
5.47	0.250	0.03099376249478486	
5.475	0.038	0.014854329781607865	
5.48	-0.207	0.005100198364182355	
5.485	0.159	0.00827883864759578	
5.49	0.305	0.021047537927056912	
5.495	-0.184	0.03498421830835531	
5.5	-0.040	0.04712389098933349	
5.505	0.472	0.058947399035406224	
5.51	-0.035	0.07474340760290285	
5.515	-0.152	0.08690579683178812	
5.52	0.365	0.09300704746503868	
5.525	0.165	0.09691524179754418	
5.53	-0.184	0.10004667679964599	
5.535	0.162	0.10022306889630012	
5.54	0.311	0.09510222521206066	
5.545	-0.200	0.08800650646193275	
5.55	-0.118	0.0740626355910457	
5.555	0.227	0.04893438319482419	
5.56	-0.165	0.01678585512218822	
5.565	-0.190	-0.009084898338790347	
5.57	0.267	-0.017996763199608905	
5.575	-0.013	-0.020077493324030353	
5.58	-0.266	-0.022966646823180538	
5.585	0.090	-0.022767543218201437	
5.59	0.299	-0.014858059623117698	
5.595	-0.200	-0.0010162712364695232	
5.6	-0.081	0.014034331779513628	
5.605	0.331	0.021992910955039944	
5.61	-0.100	0.024787242651082477	
5.615	-0.112	0.02983547227638972	
5.62	0.592	0.05405038403619675	
5.625	0.594	0.11702558154776058	
5.63	0.236	0.21399029667010105	
5.635	0.709	0.32317079049745095	
5.64	0.728	0.4211799163090223	
5.645	-0.101	0.4709520414818673	
5.65	-0.089	0.44490060017130434	
5.655	0.244	0.3539857060511126	
5.66	-0.220	0.23290099922844457	
5.665	-0.365	0.11079933440484759	
5.67	-0.066	-0.0010732573259917674	
5.675	-0.142	-0.10191718821447465	
5.68	-0.371	-0.17092074744679517	
5.685	-0.078	-0.1988896897962078	
5.69	0.056	-0.20381572352185617	
5.695	-0.297	-0.19592012709410683	
5.7	-0.165	-0.17303791237610328	
5.705	0.261	-0.14102694819008668	
5.71	-0.133	-0.10812567752835534	
5.715	-0.240	-0.0762069233839595	
5.72	0.198	-0.05103384621222477	
5.725	0.023	-0.03696071796231669	
5.73	-0.248	-0.028023397212899575	
5.735	0.110	-0.016834771692852333	
5.74	0.369	0.0012462227583781812	
5.745	-0.132	0.027968569718846464	
5.75	0.049	0.05895207927555018	
5.755	0.567	0.0930878392255313	
5.76	0.029	0.12881019918795683	
5.765	-0.084	0.15470933352433858	
5.77	0.530	0.17207198542364266	
5.775	0.278	0.19007173668027622	
5.78	-0.126	0.20287338783939035	
5.785	0.307	0.20716927593592124	
5.79	0.398	0.20430593973372596	
5.795	-0.168	0.1939259035720089	
5.8	-0.020	0.17089829307864762	
5.805	0.438	0.14412191821106113	
5.81	-0.101	0.11885881073043719	
5.815	-0.216	0.09267905677831484	
5.82	0.258	0.0650297801864127	
5.825	0.032	0.03912570665196462	
5.83	-0.271	0.015912981149974775	
5.835	0.035	-0.0008943692719093328	
5.84	0.204	-0.01568790182597865	
5.845	-0.236	-0.025988311756717983	
5.85	-0.104	-0.027129016781360427	
5.855	0.340	-0.02192772721737134	
5.86	-0.164	-0.016086360920090997	
5.865	-0.255	-0.014317364525610717	
5.87	0.302	-0.013022680347091043	
5.875	0.113	-0.0048321630834878325	
5.88	-0.214	0.009941612825780414	
5.885	0.229	0.03004286291179266	
5.89	0.438	0.059330666911787434	
5.895	-0.184	0.09007082595955165	
5.9	-0.124	0.10177584065148887	
5.905	0.336	0.09000068021392564	
5.91	-0.132	0.06803964905297924	
5.915	-0.228	0.043706717701517905	
5.92	0.194	0.020825606012784503	
5.925	-0.037	-0.0047901893418819	
5.93	-0.330	-0.03092880824559971	
5.935	-0.051	-0.054079697363572515	
5.94	0.056	-0.07874887337806273	
5.945	-0.350	-0.10476728658720605	
5.95	-0.248	-0.12420369328806141	
5.955	0.038	-0.14211682385750946	
5.96	-0.237	-0.1629025112048067	
5.965	-0.312	-0.17121827333409037	
5.97	0.099	-0.16322889763854592	
5.975	-0.101	-0.15580934315395478	
5.98	-0.376	-0.149907900495912	
5.985	-0.043	-0.1420684203407013	
5.99	0.281	-0.1267285844560071	
5.995	-0.129	-0.09278943763744599	
6.0	0.157	-0.03519431541514638	
6.005	0.783	0.04996713862164987	
6.01	0.233	0.15406830418979794	
6.015	-0.014	0.23966657976877515	
6.02	0.429	-0.09278943763744599	
6.025	-0.016	-0.09278943763744599	
6.03	-0.347	-0.09278943763744599	
6.035	-0.090	0.12989555939891081	
6.04	0.007	0.033325762985984	
6.045	-0.365	-0.05578735234975984	
6.05	-0.236	-0.1182478855564275	
6.055	0.142	-0.1530077219147466	
6.06	-0.228	-0.16988991667088577	
6.065	-0.324	-0.16934729493942496	
6.07	0.094	-0.1591663872059157	
6.075	-0.016	-0.14771040782774628	
6.08	-0.312	-0.1310284837513711	
6.085	-0.042	-0.11108682901240835	
6.09	0.143	-0.0986089136502025	
6.095	-0.272	-0.09089472192291642	
6.1	-0.156	-0.08028732240455262	
6.105	0.293	-0.06788616527706606	
6.11	-0.112	-0.0539696354377707	
6.115	-0.185	-0.03645374391035125	
6.12	0.350	-0.011000885171385392	
6.125	0.145	0.01730009833870203	
6.13	-0.168	0.04477105256793061	
6.135	0.357	0.07702890952910203	
6.14	0.621	0.12556752081221442	
6.145	-0.019	0.1839115859129562	
6.15	0.099	0.22662316783934058	
6.155	0.631	0.24830727735320623	
6.16	0.088	0.26099369180411475	
6.165	-0.054	0.2593741570755207	
6.17	0.562	0.2520904132791161	
6.175	0.259	0.24740427243525953	
6.18	-0.158	0.23565413110582598	
6.185	0.255	0.21595940653976908	
6.19	0.438	0.19566389285632396	
6.195	-0.170	0.17894629716005012	
6.2	-0.081	0.15453240404415386	
6.205	0.405	0.12230974742463445	
6.21	-0.104	0.09411436871554602	
6.215	-0.203	0.0683519011502657	
6.22	0.278	0.04797502486318192	
6.225	0.076	0.03348988886518091	
6.23	-0.240	0.02275809044451732	
6.235	0.097	0.018831040696322826	
6.24	0.247	0.01662660595424071	
6.245	-0.229	0.01309834695753579	
6.25	-0.118	0.00948811844596498	
6.255	0.339	0.00619498912388941	
6.26	-0.064	0.007234919933591364	
6.265	-0.158	0.014391199206571658	
6.27	0.295	0.02683291422863209	
6.275	0.108	0.03753359119714037	
6.28	-0.225	0.04284924733572749	
6.285	0.145	0.047717877052492974	
6.29	0.342	0.05461439537682069	
6.295	-0.229	0.05921909862647671	
6.3	-0.164	0.053404848005246135	
6.305	0.238	0.03210156330715885	
6.31	-0.194	0.0023576563327132654	
6.315	-0.306	-0.028603882199589436	
6.32	0.072	-0.05629586086320125	
6.325	-0.090	-0.08739010022782578	
6.33	-0.367	-0.11406274053652667	
6.335	-0.078	-0.128388054750676	
6.34	0.076	-0.13839263388213555	
6.345	-0.327	-0.14468188690070632	
6.35	-0.236	-0.14362619670378685	
6.355	0.177	-0.13892137060839715	
6.36	-0.181	-0.13359110806551522	
6.365	-0.223	-0.11862569935112235	
6.37	0.386	-0.08528623454070725	
6.375	0.330	-0.02732219546351571	
6.38	-0.037	0.04588709294431193	
6.385	0.588	0.13157131070423406	
6.39	0.750	0.2317044712073068	
6.395	-0.034	0.31629008643303247	
6.4	-0.087	0.3421842748297276	
6.405	0.148	0.2960760892841708	
6.41	-0.262	0.19653298266255023	
6.415	-0.396	0.08128273963768794	
6.42	-0.063	-0.02639008061033418	
6.425	-0.162	-0.12018355003275422	
6.43	-0.437	-0.18907018468812395	
6.435	-0.190	-0.22556368084265285	
6.44	-0.026	-0.24624773402223252	
6.445	-0.338	-0.2535880069750057	
6.45	-0.214	-0.23781691951669032	
6.455	0.188	-0.2058596900403838	
6.46	-0.147	-0.17043085067786742	
6.465	-0.281	-0.13482017564774684	
6.47	0.180	-0.10034822731560969	
6.475	0.062	-0.074122443553372	
6.48	-0.260	-0.051234571674034585	
6.485	0.050	-0.030566684399936428	
6.49	0.333	-0.01208387718618284	
6.495	-0.171	0.008277645781413755	
6.5	-0.048	0.02906411804708999	
6.505	0.513	0.052338169037512206	
6.51	-0.011	0.07956116042510904	
6.515	-0.104	0.10098130193067568	
6.52	0.498	0.12177974530588175	
6.525	0.269	0.1480128850564381	
6.53	-0.159	0.16757094014770701	
6.535	0.244	0.17438823690507965	
6.54	0.484	0.17811488837468237	
6.545	-0.155	0.17922779003609307	
6.55	-0.045	0.1678800048961163	
6.555	0.475	0.1494445456552969	
6.56	0.004	0.13469918763908872	
6.565	-0.132	0.1238343330356859	
6.57	0.405	0.11871041206323747	
6.575	0.162	0.11819298597125236	
6.58	-0.226	0.11156231172741113	
6.585	0.067	0.09720782405405348	
6.59	0.292	0.07621211766039516	
6.595	-0.222	0.05536858298108638	
6.6	-0.135	0.03672244255205948	
6.605	0.302	0.019404166122317087	
6.61	-0.104	0.0048833661459546165	
6.615	-0.216	-0.004235125530114685	
6.62	0.293	-0.0024277201219472253	
6.625	0.197	0.01035993624553181	
6.63	-0.231	0.027614812685883176	
6.635	0.111	0.04401944070418307	
6.64	0.443	0.05928114344010684	
6.645	-0.124	0.07952255660449684	
6.65	-0.052	0.09555669760313507	
6.655	0.481	0.10532996338496892	
6.66	-0.002	0.11308446564927592	
6.665	-0.208	0.11271358067051235	
6.67	0.211	0.09935904483431043	
6.675	0.072	0.07248653801187362	
6.68	-0.294	0.04174831364759233	
6.685	-0.075	0.009826747095744772	
6.69	0.091	-0.027755271443024213	
6.695	-0.307	-0.06628016180906272	
6.7	-0.219	-0.09349657184265651	
6.705	0.235	-0.10579068656970678	
6.71	-0.121	-0.1047746514273575	
6.715	-0.234	-0.09223400780492846	
6.72	0.211	-0.06976233388034925	
6.725	0.012	-0.051467869918795685	
6.73	-0.321	-0.04419057041449233	
6.735	-0.086	-0.04627274978870712	
6.74	0.185	-0.05773972951769014	
6.745	-0.177	-0.06419305853381332	
6.75	0.026	-0.047559669226681894	
6.755	0.751	0.005210213750206617	
6.76	0.350	0.09833156535294083	
6.765	0.136	0.2026975332832874	
6.77	0.713	0.2951358311157256	
6.775	0.392	0.36162392488392525	
6.78	-0.196	0.3808165123780536	
6.785	-0.068	0.3345456073496269	
6.79	0.032	0.23326458614415455	
6.795	-0.361	0.10695852905815278	
6.8	-0.307	-0.006654539429653291	
6.805	-0.014	-0.09992308103898304	
6.81	-0.281	-0.1735312761892712	
6.815	-0.407	-0.22022981669130356	
6.82	-0.090	-0.2399721351470708	
6.825	-0.156	-0.2543286908267669	
6.83	-0.382	-0.2580543383972761	
6.835	-0.098	-0.24043499592512851	
6.84	0.134	-0.21172366481464472	
6.845	-0.283	-0.18006529272942143	
6.85	-0.213	-0.1476975057634114	
6.855	0.287	-0.11586381301018656	
6.86	-0.058	-0.0835565188503998	
6.865	-0.165	-0.04834508445958894	
6.87	0.342	-0.007887628589944127	
6.875	0.229	0.03474358811898283	
6.88	-0.177	0.06977696109556816	
6.885	0.068	0.08953683249256458	
6.89	0.339	0.09342218291025708	
6.895	-0.127	0.0898580823917639	
6.9	-0.035	0.08820734724099107	
6.905	0.539	0.09428447686221575	
6.91	0.084	0.11346566972717777	
6.915	-0.126	0.1314976049112036	
6.92	0.437	0.1461617767936422	
6.925	0.330	0.1618593683026866	
6.93	-0.144	0.17568331882138583	
6.935	0.195	0.17948840834932267	
6.94	0.418	0.17553662302063183	
6.945	-0.152	0.16485387259281592	
6.95	-0.116	0.14309005900024774	
6.955	0.308	0.11130396158213204	
6.96	-0.081	0.07454597950297626	
6.965	-0.200	0.04445559646463924	
6.97	0.281	0.028130119158294293	
6.975	0.177	0.026935292295438135	
6.98	-0.200	0.032689973905251496	
6.985	0.049	0.040423672739506734	
6.99	0.311	0.04257315689802195	
6.995	-0.193	0.04189876151748836	
7.0	-0.122	0.03803857386061882	
7.005	0.386	0.03531072407132893	
7.01	-0.020	0.03760794019622753	
7.015	-0.156	0.04340928935167338	
7.02	0.374	0.057080698613785806	
7.025	0.322	0.0820047334315913	
7.03	-0.121	0.11170150447805673	
7.035	0.208	0.13833830186642726	
7.04	0.460	0.15760093155183386	
7.045	-0.144	0.16596760278944123	
7.05	-0.098	0.15694958182798485	
7.055	0.314	0.13025319054468854	
7.06	-0.153	0.09171032361824162	
7.065	-0.323	0.045397901647587585	
7.07	0.017	-0.006040757659645332	
7.075	-0.063	-0.05993737785286883	
7.08	-0.346	-0.10420417243481574	
7.085	-0.127	-0.12873609539094366	
7.09	0.113	-0.14341504542837957	
7.095	-0.272	-0.14793257900228363	
7.1	-0.240	-0.14105107289542018	
7.105	0.125	-0.13179215987854764	
7.11	-0.159	-0.12826538548860417	
7.115	-0.286	-0.12258142109856092	
7.12	0.139	-0.10702700833294607	
7.125	0.156	-0.08694197273247566	
7.13	-0.058	-0.051246571349358325	
7.135	0.681	0.02833214917484093	
7.14	1.159	0.17270138450449785	
7.145	0.507	0.3559787057801855	
7.15	0.501	0.5178179045616349	
7.155	0.829	0.6182695045481322	
7.16	0.094	0.638731995241433	
7.165	-0.213	0.5712269449597609	
7.17	0.073	0.436943852398414	
7.175	-0.066	0.27121614881596323	
7.18	-0.384	0.11070986218581404	
7.185	-0.193	-0.01783080782455035	
7.19	0.004	-0.11522675469016333	
7.195	-0.355	-0.18391453290341978	
7.2	-0.335	-0.21823850274081555	
7.205	-0.011	-0.23466248906509418	
7.21	-0.205	-0.2431229461197381	
7.215	-0.292	-0.2327939189395048	
7.22	0.136	-0.198015707850562	
7.225	0.085	-0.15470634041148867	
7.23	-0.258	-0.11143768098994924	
7.235	0.024	-0.06986634408041599	
7.24	0.347	-0.032073814454254744	
7.245	-0.138	0.0009506423354630603	
7.25	-0.055	0.03161844049158205	
7.255	0.553	0.06355996579740641	
7.26	0.194	0.105889841990501	
7.265	-0.032	0.15194553908520222	
7.27	0.582	0.1970915623906426	
7.275	0.513	0.24547321029041497	
7.28	-0.046	0.2863512526082169	
7.285	0.369	0.3090585732503505	
7.29	0.716	0.32615081616281416	
7.295	0.267	0.35192655828150005	
7.3	0.429	0.3904567013460066	
7.305	1.069	0.4486759975759352	
7.31	0.606	0.5209917754322541	
7.315	0.255	0.5797756310166948	
7.32	0.788	0.6080174033710496	
7.325	0.699	0.6126254517770446	
7.33	0.125	0.5993552162335661	
7.335	0.473	0.5669045876705608	
7.34	0.725	0.527203834528726	
7.345	0.065	0.4840544630548645	
7.35	0.101	0.43131103746768396	
7.355	0.663	0.37756327245251475	
7.36	0.203	0.3382043033161802	
7.365	-0.074	0.3038320146414269	
7.37	0.414	0.270794824219588	
7.375	0.347	0.24172480962266762	
7.38	-0.159	0.21758888710379848	
7.385	0.042	0.18668240139115896	
7.39	0.348	0.14806823189722204	
7.395	-0.207	0.10937780924188867	
7.4	-0.193	0.07029061954313987	
7.405	0.272	0.03323260429819401	
7.41	-0.074	0.003405597288194112	
7.415	-0.242	-0.015932975021479258	
7.42	0.127	-0.024532908585208454	
7.425	0.068	-0.03332812509912382	
7.43	-0.278	-0.04206056200282815	
7.435	-0.116	-0.04745847786464225	
7.44	0.032	-0.06618987564491909	
7.445	-0.344	-0.09736129559483411	
7.45	-0.301	-0.1276221619187145	
7.455	0.007	-0.15204259373048856	
7.46	-0.258	-0.1795277163847413	
7.465	-0.428	-0.20175032812065574	
7.47	-0.100	-0.21468649689440833	
7.475	-0.109	-0.22738817415566995	
7.48	-0.396	-0.23390748700680347	
7.485	-0.194	-0.22647445721655413	
7.49	-0.043	-0.22126894582740042	
7.495	-0.338	-0.22331711416614106	
7.5	-0.287	-0.21659277703557395	
7.505	0.197	-0.19804387747452262	
7.51	0.026	-0.16353328928775648	
7.515	-0.029	-0.10475862752523817	
7.52	0.663	-0.010608673354624393	
7.525	0.632	0.11464435528138513	
7.53	-0.068	0.23095456298341493	
7.535	0.094	0.2914623986639794	
7.54	0.227	0.28179984490133025	
7.545	-0.298	0.21963847194262753	
7.55	-0.291	0.1303223124547565	
7.555	0.056	0.03401074849707131	
7.56	-0.229	-0.05649513481341642	
7.565	-0.382	-0.12482724875471496	
7.57	-0.013	-0.16561924350141338	
7.575	-0.064	-0.18831129598355034	
7.58	-0.390	-0.1990411874830292	
7.585	-0.211	-0.19847208466415955	
7.59	-0.013	-0.20111619475674147	
7.595	-0.344	-0.2084252022370786	
7.6	-0.306	-0.2086898196212827	
7.605	0.082	-0.20086219016387152	
7.61	-0.156	-0.19156925750930265	
7.615	-0.292	-0.17396697873405537	
7.62	0.183	-0.14246003278659589	
7.625	0.128	-0.10326160500690766	
7.63	-0.258	-0.06628303679340734	
7.635	0.018	-0.03440305651791007	
7.64	0.340	-0.008895588844121895	
7.645	-0.152	0.013365908986476724	
7.65	-0.077	0.032188760534057906	
7.655	0.495	0.05441981596454722	
7.66	0.032	0.08039161858465313	
7.665	-0.205	0.09574980400201039	
7.67	0.208	0.09569198875636895	
7.675	0.197	0.08389566105429315	
7.68	-0.220	0.07048292127209368	
7.685	0.065	0.06159845137724171	
7.69	0.467	0.06134804592831519	
7.695	-0.090	0.07424853636228305	
7.7	-0.127	0.08703618207039049	
7.705	0.350	0.08759265117466816	
7.71	-0.061	0.07639996038234315	
7.715	-0.229	0.057590693670637	
7.72	0.224	0.04281756541617959	
7.725	0.140	0.030992175390015267	
7.73	-0.268	0.020303772042197465	
7.735	-0.060	0.009609351932269838	
7.74	0.259	-0.005502702383160588	
7.745	-0.255	-0.019879507239636718	
7.75	-0.159	-0.03002851114262757	
7.755	0.443	-0.025194585054384454	
7.76	0.027	-0.0026127418212056677	
7.765	-0.174	0.02540563874286066	
7.77	0.362	0.05493068108520815	
7.775	0.348	0.08810467593826161	
7.78	-0.148	0.11913236301264744	
7.785	0.145	0.14058324402120617	
7.79	0.455	0.15165765321580577	
7.795	-0.135	0.15305233499642806	
7.8	-0.122	0.14083337781119504	
7.805	0.374	0.11989744357115474	
7.81	0.007	0.09644192306918103	
7.815	-0.188	0.07829416633567557	
7.82	0.188	0.06494559703903759	
7.825	0.154	0.04919256201261098	
7.83	-0.294	0.031062390065472456	
7.835	-0.089	0.01155509270505609	
7.84	0.224	-0.012242446748121532	
7.845	-0.231	-0.03497475595286664	
7.85	-0.193	-0.046214294708744996	
7.855	0.316	-0.046995291692888685	
7.86	-0.109	-0.04257322470510246	
7.865	-0.326	-0.04183127816818718	
7.87	0.042	-0.047969838597976135	
7.875	0.038	-0.064741775253869	
7.88	-0.310	-0.08007401662140554	
7.885	0.029	-0.07939520368157993	
7.89	0.490	-0.05407801043421648	
7.895	-0.016	-0.0050968256127440145	
7.9	0.157	0.061699331227639126	
7.905	0.838	0.1461912342722605	
7.91	0.293	-0.034112420812576344	
7.915	-0.138	-0.034112420812576344	
7.92	0.258	-0.034112420812576344	
7.925	0.108	-0.034112420812576344	
7.93	-0.326	0.18978440979129096	
7.935	-0.110	0.1075410980140869	
7.94	0.183	0.029052238815648716	
7.945	-0.271	-0.034112420812576344	
7.95	-0.231	-0.07340244583258036	
7.955	0.208	-0.09173616087780342	
7.96	-0.110	-0.1005326365277069	
7.965	-0.237	-0.09709380938080381	
7.97	0.272	-0.07281106614328992	
7.975	0.244	-0.0345271795540015	
7.98	-0.208	0.0046419481066860705	
7.985	0.078	0.03851319043231094	
7.99	0.504	0.0682166690260189	
7.995	-0.119	0.09478921750700517	
8.0	-0.104	0.11142675831359733	
8.005	0.493	0.1174176899170685	
8.01	0.094	0.12453705676439944	
8.015	-0.150	0.1297012192781527	
8.02	0.457	0.1402052651870212	
8.025	0.481	0.16365519137802598	
8.03	-0.119	0.19354938361454707	
8.035	0.154	0.21038025867324445	
8.04	0.537	0.2133402818328814	
8.045	-0.055	0.20885401082444172	
8.05	-0.032	0.20029678978618437	
8.055	0.533	0.18941968676831794	
8.06	0.097	0.18166467486307078	
8.065	-0.167	0.170645443492368	
8.07	0.327	0.15708933034769854	
8.075	0.302	0.14574415616859943	
8.08	-0.182	0.13562275563647938	
8.085	0.053	0.12526849181382052	
8.09	0.368	0.11033899953207721	
8.095	-0.187	0.08997518253205078	
8.1	-0.168	0.06823065857659466	
8.105	0.345	0.04933856351163353	
8.11	-0.037	0.032786077427744635	
8.115	-0.260	0.019659355220874947	
8.12	0.169	0.010968690742621127	
8.125	0.229	0.006813875383960667	
8.13	-0.226	0.009702565361540828	
8.135	0.010	0.019159487980602536	
8.14	0.400	0.029342510478513488	
8.145	-0.144	0.04008522460382424	
8.15	-0.135	0.04915799205618828	
8.155	0.461	0.05827350542845384	
8.16	0.067	0.07189635786840888	
8.165	-0.177	0.08465505603586736	
8.17	0.394	0.09985610162976523	
8.175	0.376	0.12188611758122883	
8.18	-0.177	0.14277095936701836	
8.185	0.038	0.1490114773902732	
8.19	0.351	0.13631643752819614	
8.195	-0.187	0.11023967237101825	
8.2	-0.203	0.07909343331148885	
8.205	0.229	0.044141369233830795	
8.21	-0.126	0.0060300981913398366	
8.215	-0.312	-0.030286479040868997	
8.22	0.036	-0.055300411057333305	
8.225	0.038	-0.07907825613641388	
8.23	-0.332	-0.09810274739170327	
8.235	-0.150	-0.1060629774726659	
8.24	0.217	-0.10970030536778694	
8.245	-0.254	-0.10866485517520844	
8.25	-0.260	-0.10194971018735924	
8.255	0.226	-0.09289242981090941	
8.26	-0.075	-0.08590278748078672	
8.265	-0.211	-0.07231810414358675	
8.27	0.435	-0.036314724799322386	
8.275	0.571	0.033024006798529654	
8.28	0.052	0.12486883420256398	
8.285	0.452	0.2178348278720729	
8.29	0.765	0.3023669098781405	
8.295	-0.025	-0.02387893448558904	
8.3	-0.124	-0.02387893448558904	
8.305	0.272	0.30607033388455995	
8.31	-0.068	0.2202587764901261	
8.315	-0.300	0.12963518151505293	
8.32	0.006	0.04951591965352065	
8.325	-0.009	-0.02387893448558904	
8.33	-0.349	-0.08502602013571776	
8.335	-0.100	-0.11728940570167234	
8.34	0.279	-0.12360193335213016	
8.345	-0.162	-0.10946536759438852	
8.35	-0.148	-0.07916457945281441	
8.355	0.392	-0.04095538829385643	
8.36	0.053	-0.001633617407936441	
8.365	-0.208	0.030563482959588866	
8.37	0.287	0.05643082695268216	
8.375	0.295	0.07824356263792795	
8.38	-0.231	0.09194825113839593	
8.385	-0.022	0.09153416931918584	
8.39	0.412	0.0814709008599763	
8.395	-0.118	0.07364337269725285	
8.4	-0.144	0.06968804945481377	
8.405	0.450	0.06900731011351838	
8.41	0.154	0.07854397770919948	
8.415	-0.138	0.09753601709682827	
8.42	0.336	0.11728396862625835	
8.425	0.331	0.13434001041020832	
8.43	-0.210	0.1420436618163345	
8.435	0.001	0.13439316054405198	
8.44	0.414	0.11644126141420627	
8.445	-0.156	0.0977961042749961	
8.45	-0.171	0.07763699978182914	
8.455	0.347	0.05986985145888392	
8.46	-0.031	0.04366072246701749	
8.465	-0.258	0.027602338536338478	
8.47	0.152	0.0161217103915201	
8.475	0.191	0.007379474061943669	
8.48	-0.283	0.0002079413881267414	
8.485	-0.106	-0.006727324686208273	
8.49	0.241	-0.019641789607711173	
8.495	-0.228	-0.03403361149418803	
8.5	-0.207	-0.04438280241547437	
8.505	0.272	-0.045270958413288924	
8.51	-0.084	-0.044225669164616524	
8.515	-0.272	-0.04434206529555414	
8.52	0.233	-0.03602217959762223	
8.525	0.276	-0.013557123386313034	
8.53	-0.242	0.012318141912199626	
8.535	-0.031	0.03011438550744109	
8.54	0.386	0.03833873758291855	
8.545	-0.162	0.04315066155055246	
8.55	-0.167	0.04350549880182673	
8.555	0.405	0.04358221786958335	
8.56	0.078	0.05099127705592695	
8.565	-0.231	0.058695782374193525	
8.57	0.128	0.05869973572184947	
8.575	0.152	0.04651868108237511	
8.58	-0.323	0.0235411266823101	
8.585	-0.168	-0.004086597560175906	
8.59	0.122	-0.0407663351377854	
8.595	-0.292	-0.07958648589269493	
8.6	-0.301	-0.10952748426059841	
8.605	0.099	-0.12763269650451098	
8.61	-0.141	-0.14285163288402142	
8.615	-0.350	-0.14919690233672123	
8.62	-0.032	-0.14748034463145274	
8.625	0.007	-0.14744362722754759	
8.63	-0.362	-0.15032215586597053	
8.635	-0.171	-0.14719362626893434	
8.64	0.200	-0.14078519273112827	
8.645	-0.188	-0.12747110420224672	
8.65	-0.119	-0.1015959249937054	
8.655	0.680	-0.04565838901909848	
8.66	0.513	0.053298660099415196	
8.665	0.171	0.17676044986742434	
8.67	0.788	0.2993762899914861	
8.675	0.681	0.40665944679322047	
8.68	-0.156	0.46371185762891604	
8.685	-0.098	0.4365426160504714	
8.69	0.139	0.3341733111079064	
8.695	-0.313	0.19777878291180273	
8.7	-0.361	0.06431818591719568	
8.705	-0.019	-0.048901536432796	
8.71	-0.217	-0.14151463224446395	
8.715	-0.433	-0.20308239760715224	
8.72	-0.103	-0.2328532343322457	
8.725	-0.054	-0.24531564032627942	
8.73	-0.405	-0.24699620762295488	
8.735	-0.269	-0.23850504777371764	
8.74	-0.034	-0.2319453563121752	
8.745	-0.373	-0.23808776213128457	
8.75	-0.384	-0.24068204547515082	
8.755	0.061	-0.23501434914444508	
8.76	-0.121	-0.22345851938400413	
8.765	-0.346	-0.20307905893643544	
8.77	-0.045	-0.17693548367080325	
8.775	0.090	-0.15627434917035812	
8.78	-0.320	-0.1379952989452293	
8.785	-0.139	-0.11956460407016317	
8.79	0.296	-0.09887134508437498	
8.795	-0.156	-0.0760667802385386	
8.8	-0.162	-0.04977822733131986	
8.805	0.411	-0.017965567362117685	
8.81	0.078	0.018603749956799576	
8.815	-0.205	0.04680376201321767	
8.82	0.246	0.06604730290890114	
8.825	0.365	0.08485922530499238	
8.83	-0.170	0.10296025640978189	
8.835	-0.016	0.10930714962577798	
8.84	0.365	0.1032087563072199	
8.845	-0.150	0.08800916636018696	
8.85	-0.208	0.06709430644451983	
8.855	0.261	0.04300248547042161	
8.86	-0.016	0.020743723306744007	
8.865	-0.262	0.0007846215881302974	
8.87	0.056	-0.012061438293959961	
8.875	0.215	-0.02205632101081516	
8.88	-0.232	-0.023970393284872438	
8.885	-0.057	-0.01878696018120854	
8.89	0.377	-0.007771787433975605	
8.895	-0.127	0.007106631132982271	
8.9	-0.173	0.019020840210140305	
8.905	0.328	0.027949624432027777	
8.91	0.084	0.036845380208229514	
8.915	-0.174	0.04577248745566149	
8.92	0.281	0.06184393063508492	
8.925	0.405	0.0860197684533698	
8.93	-0.129	0.1130795793898648	
8.935	0.041	0.1310780968848308	
8.94	0.446	0.1372220404914994	
8.945	-0.081	0.13523509213716078	
8.95	-0.145	0.12494715240359901	
8.955	0.324	0.10685013912408896	
8.96	0.027	0.08697473603696565	
8.965	-0.254	0.06380068751711222	
8.97	0.046	0.03868033143797983	
8.975	0.053	0.006057751285386657	
8.98	-0.327	-0.03279069676284346	
8.985	-0.158	-0.06401563387296891	
8.99	0.172	-0.08681045732233313	
8.995	-0.226	-0.10162735115414967	
9.0	-0.271	-0.10709004632726905	
9.005	0.134	-0.10623289986717555	
9.01	-0.090	-0.10692597813603148	
9.015	-0.350	-0.10919971577053976	
9.02	-0.063	-0.11141022158667578	
9.025	0.136	-0.11485718932889101	
9.03	-0.174	-0.10774799404719154	
9.035	0.197	-0.06909573338015158	
9.04	0.880	0.017274870490801786	
9.045	0.452	0.14945872198102206	
9.05	0.322	0.29177091829865964	
9.055	0.819	0.40971715259634783	
9.06	0.369	0.48317296304142604	
9.065	-0.152	0.491705063368508	
9.07	0.096	0.4304360538724913	
9.075	0.058	0.31823765406494786	
9.08	-0.332	0.1853216584767453	
9.085	-0.217	0.06374669092104729	
9.09	0.036	-0.037757868661738254	
9.095	-0.297	-0.11940660721323831	
9.1	-0.367	-0.17225257263719443	
9.105	-0.061	-0.20331972543275045	
9.11	-0.184	-0.22870007701992354	
9.115	-0.367	-0.23824521748392866	
9.12	-0.042	-0.22555877731459795	
9.125	0.073	-0.20268531497073453	
9.13	-0.301	-0.1767391788321911	
9.135	-0.165	-0.14731812174975048	
9.14	0.241	-0.11964681931133346	
9.145	-0.158	-0.0954652466770256	
9.15	-0.190	-0.07039889039052583	
9.155	0.339	-0.040166248596272366	
9.16	0.165	-0.004640602305628682	
9.165	-0.133	0.03552695011283275	
9.17	0.357	0.07849609480917887	
9.175	0.469	0.12650804315459302	
9.18	-0.107	0.16707351643201793	
9.185	0.113	0.18956569452381664	
9.19	0.560	0.20058651682905287	
9.195	-0.014	0.20651918077271408	
9.2	-0.100	0.1993689222540201	
9.205	0.472	0.18494415386060745	
9.21	0.252	0.1775252313899352	
9.215	-0.132	0.17635424811499695	
9.22	0.230	0.17240963614971705	
9.225	0.343	0.1616898002862483	
9.23	-0.176	0.147077091783601	
9.235	-0.034	0.12641512922359152	
9.24	0.392	0.10466341658349806	
9.245	-0.121	0.0846357011463787	
9.25	-0.193	0.06426054232186194	
9.255	0.322	0.04890010333163053	
9.26	0.119	0.04165485852565691	
9.265	-0.208	0.04233237386233295	
9.27	0.149	0.04730211821923666	
9.275	0.293	0.05077945411989033	
9.28	-0.174	0.05514192037672155	
9.285	-0.026	0.05929664212039201	
9.29	0.432	0.06467069243268489	
9.295	-0.064	0.07174946461027214	
9.3	-0.129	0.07718518448255969	
9.305	0.426	0.08482641114120859	
9.31	0.233	0.10177189763228812	
9.315	-0.139	0.12033597000399086	
9.32	0.206	0.1341651432817882	
9.325	0.366	0.13883759647852706	
9.33	-0.158	0.1372437210901028	
9.335	-0.057	0.12616717551760656	
9.34	0.383	0.10761937736246033	
9.345	-0.084	0.08890913375444308	
9.35	-0.188	0.07115858165086632	
9.355	0.188	0.050670278039840574	
9.36	-0.045	0.02285859379858225	
9.365	-0.292	-0.008568969724083319	
9.37	-0.061	-0.035957366531926604	
9.375	0.026	-0.06817199471675517	
9.38	-0.323	-0.1006336426953663	
9.385	-0.165	-0.11886561023758141	
9.39	0.235	-0.12042121704867396	
9.395	-0.184	-0.11202348387131958	
9.4	-0.275	-0.0988625380979506	
9.405	0.082	-0.09036555493372538	
9.41	0.026	-0.08908944953267453	
9.415	-0.145	-0.07657614653223241	
9.42	0.521	-0.026944734354062038	
9.425	0.968	0.0819443941771488	
9.43	0.513	0.24336068699941016	
9.435	0.748	0.4200242624326467	
9.44	1.008	0.5725857746524741	
9.445	0.220	0.661969046581216	
9.45	-0.110	0.651984270676113	
9.455	0.215	0.5505794883177729	
9.46	-0.109	0.39402407889395724	
9.465	-0.414	0.2194019602292197	
9.47	-0.182	0.06090707944423245	
9.475	-0.127	-0.0770142680863329	
9.48	-0.430	-0.18554389103484273	
9.485	-0.318	-0.24904157608652597	
9.49	-0.040	-0.28037149126873795	
9.495	-0.294	-0.2948666537038909	
9.5	-0.349	-0.285999821745989	
9.505	0.017	-0.25938926282693653	
9.51	-0.064	-0.2309051082426336	
9.515	-0.310	-0.19970299178016565	
9.52	-0.023	-0.16109764376629673	
9.525	0.220	-0.12489661396852877	
9.53	-0.182	-0.08870219037050478	
9.535	-0.061	-0.048136283260220555	
9.54	0.427	-0.008159767160008888	
9.545	0.021	0.031053005049505724	
9.55	-0.023	0.07178184222748735	
9.555	0.664	0.12383811947487766	
9.56	0.505	0.193202478315419	
9.565	0.041	0.26599747999546863	
9.57	0.531	0.323948281167147	
9.575	0.699	0.36834546825184056	
9.58	0.087	0.4010963490129875	
9.585	0.310	0.4127196807845974	
9.59	0.794	0.41708454025068387	
9.595	0.282	0.42406603251312147	
9.6	0.059	0.4205515336037773	
9.605	0.608	0.4028882724812499	
9.61	0.305	0.3773415991431036	
9.615	-0.113	0.34088862546912413	
9.62	0.243	0.29387079610276834	
9.625	0.369	0.24448375620297913	
9.63	-0.147	0.19814624500428807	
9.635	-0.048	0.1555979214485716	
9.64	0.405	0.11909961767323002	
9.645	-0.081	0.09219524568551607	
9.65	-0.167	0.07049894505404852	
9.655	0.325	0.05881038377904246	
9.66	0.130	0.054466608755488824	
9.665	-0.184	0.054924873153604524	
9.67	0.201	0.06274085460604058	
9.675	0.388	0.076540564492522	
9.68	-0.144	0.09224880065633959	
9.685	-0.064	0.10045505355579987	
9.69	0.437	0.09905275663251291	
9.695	-0.049	0.09635706870248689	
9.7	-0.167	0.09043928584296912	
9.705	0.328	0.08466231246980156	
9.71	0.162	0.08060520765832022	
9.715	-0.199	0.07799400645070365	
9.72	0.096	0.07554866160144785	
9.725	0.321	0.06856229417549234	
9.73	-0.170	0.06342773866855646	
9.735	-0.116	0.05834750126955725	
9.74	0.212	0.04193797787784803	
9.745	-0.182	0.013505687111658749	
9.75	-0.287	-0.017539304051695084	
9.755	0.065	-0.046476179066594236	
9.76	-0.075	-0.07734264576903369	
9.765	-0.352	-0.10491909517081362	
9.77	-0.106	-0.12152247561698581	
9.775	0.032	-0.13645342518073716	
9.78	-0.342	-0.15252295066188254	
9.785	-0.234	-0.15766400581997675	
9.79	0.175	-0.15403631297181908	
9.795	-0.156	-0.14547673157164787	
9.8	-0.187	-0.12258729035046562	
9.805	0.519	-0.0744059075420536	
9.81	0.571	0.013741256837463424	
9.815	0.209	0.13498663218579035	
9.82	0.675	0.26445286047261296	
9.825	0.731	-0.0744059075420536	
9.83	-0.097	-0.0744059075420536	
9.835	-0.136	-0.0744059075420536	
9.84	0.130	0.3370140649335665	
9.845	-0.248	0.2045965977362729	
9.85	-0.359	0.07432804320347389	
9.855	-0.005	-0.03344075336665542	
9.86	-0.106	-0.11718830886896762	
9.865	-0.355	-0.16902152441804597	
9.87	-0.080	-0.18556844654183363	
9.875	0.085	-0.18528755434601668	
9.88	-0.295	-0.17558182475060422	
9.885	-0.181	-0.15479109242578037	
9.89	0.253	-0.12889091815936105	
9.895	-0.159	-0.10345923874354716	
9.9	-0.263	-0.08177140709742287	
9.905	0.208	-0.0623408662473603	
9.91	0.039	-0.04718355240746402	
9.915	-0.255	-0.036202549257636794	
9.92	0.090	-0.022511437699682467	
9.925	0.325	-0.005145571299489374	
9.93	-0.153	0.01526142659683915	
9.935	-0.046	0.03613893650749966	
9.94	0.498	0.058305387521774846	
9.945	0.007	0.08350197771250925	
9.95	-0.135	0.10305343586646652	
9.955	0.420	0.11679153255947579	
9.96	0.247	0.1309173466345584	
9.965	-0.147	0.14262007864429854	
9.97	0.201	0.1484785891585964	
9.975	0.427	0.15000906479176057	
9.98	-0.136	0.14918279987898633	
9.985	-0.043	0.1420322098672167	
9.99	0.446	0.12941800630868716	
9.995	-0.080	0.11553525047725809	
10.0	-0.200	0.09593937554546633	
10.005	0.263	0.07482064406460873	
10.01	0.101	0.05500861960883188	
10.015	-0.266	0.037556406160828636	
10.02	0.020	0.02243639006184122	
10.025	0.229	0.006094902266283469	
10.03	-0.262	-0.009818392025917515	
10.035	-0.133	-0.02003450387300454	
10.04	0.394	-0.020519091323840465	
10.045	-0.071	-0.00941336960974212	
10.05	-0.177	0.005859853962390649	
10.055	0.281	0.022820901926574193	
10.06	0.113	0.03408048581258751	
10.065	-0.237	0.03849411110543593	
10.07	0.104	0.04139250645488195	
10.075	0.366	0.04619483617121571	
10.08	-0.141	0.055173822481673185	
10.085	-0.042	0.06686115745755022	
10.09	0.438	0.07753596913364998	
10.095	-0.029	0.0856386319262881	
10.1	-0.148	0.08975454143857048	
10.105	0.420	0.09583366821642277	
10.11	0.195	0.10719956159661964	
10.115	-0.225	0.11241735374488264	
10.12	0.075	0.10529482135867674	
10.125	0.256	0.08630416880301298	
10.13	-0.284	0.05819614088863745	
10.135	-0.236	0.023721824287453078	
10.14	0.127	-0.01942103964996446	
10.145	-0.205	-0.0652437318486022	
10.15	-0.317	-0.09933561271652254	
10.155	0.087	-0.11520190731473354	
10.16	-0.003	-0.12368039848716234	
10.165	-0.309	-0.12261677689890466	
10.17	-0.063	-0.11175986789903941	
10.175	0.143	-0.10359145502128567	
10.18	-0.260	-0.0988348332724147	
10.185	-0.095	-0.08535153812296198	
10.19	0.626	-0.04726259736356096	
10.195	0.290	0.027788860488227426	
10.2	0.169	0.12649128865784875	
10.205	0.845	0.23786915222877733	
10.21	0.599	0.3464360908303964	
10.215	-0.106	0.41717893683042995	
10.22	0.151	0.4201201698447504	
10.225	0.266	0.3605692721201268	
10.23	-0.271	0.2671634406399671	
10.235	-0.184	0.16548433270539184	
10.24	0.259	0.07478858340001923	
10.245	-0.168	0.004898300903314587	
10.25	-0.327	-0.04460989269850202	
10.255	0.059	-0.07918578253966105	
10.26	0.024	-0.10442822873172625	
10.265	-0.277	-0.11376301130217387	
10.27	-0.042	-0.10390164209385137	
10.275	0.185	-0.0923665432443832	
10.28	-0.239	-0.0828272511339868	
10.285	-0.124	-0.06657004423466936	
10.29	0.336	-0.045168590979113514	
10.295	-0.074	-0.025119411979200344	
10.3	-0.173	-0.004701400661833056	
10.305	0.377	0.020899918557790418	
10.31	0.249	0.053621669145264825	
10.315	-0.191	0.08206806502491719	
10.32	0.212	0.10510752982453184	
10.325	0.525	0.12780659318087634	
10.33	-0.104	0.1510700484128416	
10.335	-0.009	0.16428859462919007	
10.34	0.576	0.16898350934519912	
10.345	0.104	0.17794510454850782	
10.35	-0.103	0.1851294678117651	
10.355	0.447	0.18790048787791302	
10.36	0.310	0.19076396796389083	
10.365	-0.144	0.1910136408653083	
10.37	0.211	0.18700175084770798	
10.375	0.489	0.18189367624883263	
10.38	-0.109	0.17713877262601957	
10.385	-0.025	0.1691869916464641	
10.39	0.431	0.15495907460105868	
10.395	-0.019	0.1370486433165738	
10.4	-0.133	0.11910479401262715	
10.405	0.437	0.11282764105410219	
10.41	0.258	0.1198557704780523	
10.415	-0.208	0.127045365035049	
10.42	0.050	0.12287010017874386	
10.425	0.299	0.1029144202220331	
10.43	-0.207	0.07625271172227244	
10.435	-0.138	0.0531059316226261	
10.44	0.359	0.11880763255728471	
10.445	-0.045	0.11282764105410219	
10.45	-0.173	0.022089455419807266	
10.455	0.395	0.03470989227656935	
10.46	0.334	0.06494300300186757	
10.465	-0.165	0.10012156619806126	
10.47	0.159	0.12574449980755126	
10.475	0.400	0.13790867692280787	
10.48	-0.132	0.13837901088913557	
10.485	-0.071	0.13102378792583333	
10.49	0.432	0.11880763255728471	
10.495	-0.032	0.10631421726667364	
10.5	-0.211	0.09110422286804983	
10.505	0.223	0.07353036178866361	
10.51	0.084	0.05200035195689975	
10.515	-0.295	0.027258610366862893	
10.52	-0.069	0.0036187567233419045	
10.525	0.194	-0.02313047136557535	
10.53	-0.255	-0.04745491679375913	
10.535	-0.185	-0.05901140911056826	
10.54	0.261	-0.062302723197443156	
10.545	-0.165	-0.06358314063039211	
10.55	-0.300	-0.06686416228077474	
10.555	0.062	-0.07057601896931082	
10.56	-0.046	-0.08396109752963365	
10.565	-0.326	-0.09968588772838824	
10.57	0.023	-0.10143300196766837	
10.575	0.453	-0.07808582008526674	
10.58	-0.025	-0.028401935628544484	
10.585	0.218	0.04391004361242625	
10.59	0.854	0.13872188384159617	
10.595	0.366	0.24651208693232177	
10.6	-0.037	0.3280153615156173	
10.605	0.356	0.355303943546604	
10.61	0.084	0.3241535504538174	
10.615	-0.335	0.24832075532300962	
10.62	-0.148	0.15138810923904578	
10.625	0.053	0.04595351597219624	
10.63	-0.342	-0.05026522152182681	
10.635	-0.286	-0.11619759986962089	
10.64	0.101	-0.1563389746974311	
10.645	-0.184	-0.17834545188955353	
10.65	-0.297	-0.17995989037621182	
10.655	0.156	-0.15770870890109612	
10.66	0.088	-0.1277393286251988	
10.665	-0.268	-0.09469961824161535	
10.67	0.030	-0.06167048721601408	
10.675	0.336	-0.029949360123790382	
10.68	-0.190	-0.003306715946802875	
10.685	-0.124	0.016657510540272775	
10.69	0.432	0.031760098024495434	
10.695	-0.042	0.046716268268180434	
10.7	-0.203	0.05485516458160956	
10.705	0.340	0.06129826547956668	
10.71	0.263	0.07343786205993763	
10.715	-0.194	0.08820195544215015	
10.72	0.177	0.10019983768199515	
10.725	0.495	0.11521777228758703	
10.73	-0.132	0.13175239047815374	
10.735	-0.086	0.13545628607597948	
10.74	0.478	0.12978102347363313	
10.745	0.033	0.12591645454221567	
10.75	-0.187	0.11875037410194944	
10.755	0.319	0.11113642565601757	
10.76	0.263	0.10562152941478326	
10.765	-0.199	0.10428543071286084	
10.77	0.079	0.1009642913859935	
10.775	0.388	0.09424163877486959	
10.78	-0.182	0.08698316509475956	
10.785	-0.179	0.07331780786002212	
10.79	0.261	0.04961855516243888	
10.795	-0.098	0.021136546462273892	
10.8	-0.257	-0.003200602635071771	
10.805	0.146	-0.019092142054444917	
10.81	0.059	-0.031295807540008616	
10.815	-0.321	-0.04454623316995308	
10.82	-0.084	-0.054210432348767545	
10.825	0.252	-0.06180572484508652	
10.83	-0.217	-0.0628094956211904	
10.835	-0.174	-0.05474325890950377	
10.84	0.347	-0.041513950911391054	
10.845	-0.057	-0.024709573115078848	
10.85	-0.229	-0.010181865680639153	
10.855	0.276	0.0057316111105971184	
10.86	0.244	0.02579988858379219	
10.865	-0.205	0.04757492262841864	
10.87	0.058	0.06260668047050691	
10.875	0.383	0.0701625969358351	
10.88	-0.164	0.07438097839205951	
10.885	-0.122	0.07215730545616786	
10.89	0.360	0.06532720504407966	
10.895	-0.097	0.05447774349267525	
10.9	-0.303	0.033865351926335385	
10.905	0.058	0.005491521590607493	
10.91	-0.026	-0.03112621354612135	
10.915	-0.387	-0.07122886726912818	
10.92	-0.179	-0.1045714851904196	
10.925	0.070	-0.133902907881508	
10.93	-0.309	-0.15738499706409526	
10.935	-0.262	-0.16490029776795187	
10.94	0.116	-0.16183156018902534	
10.945	-0.210	-0.15935704997545583	
10.95	-0.368	-0.15809329035889133	
10.955	0.041	-0.1536682052857104	
10.96	0.181	-0.1390244793260014	
10.965	-0.153	-0.10512076303498155	
10.97	0.366	-0.03970375469013907	
10.975	0.881	0.06614438700755179	
10.98	0.316	0.20175624835298425	
10.985	0.256	0.32392200474766336	
10.99	0.652	0.40303800586342453	
10.995	0.046	0.4238135429837565	
11.0	-0.260	0.37885417959566897	
11.005	0.018	0.2830915253064025	
11.01	-0.032	0.16010991375838968	
11.015	-0.388	0.040036376456068	
11.02	-0.237	-0.05694618052848997	
11.025	-0.052	-0.1369120182386726	
11.03	-0.394	-0.20199447155849126	
11.035	-0.356	-0.2411228559254385	
11.04	0.006	-0.2560586361401929	
11.045	-0.207	-0.2589706432890191	
11.05	-0.347	-0.24709128944783468	
11.055	-0.011	-0.22103289610241	
11.06	0.018	-0.1938003779623959	
11.065	-0.315	-0.1689463204334825	
11.07	-0.066	-0.1390822457763124	
11.075	0.264	-0.10782787962882259	
11.08	-0.182	-0.0769492585584742	
11.085	-0.173	-0.049302672247398774	
11.09	0.353	-0.024010940165355554	
11.095	0.042	0.0021664309500419787	
11.1	-0.181	0.02673830696878378	
11.105	0.311	0.050914307112245705	
11.11	0.331	0.07740979774726656	
11.115	-0.156	0.10398349867181894	
11.12	0.072	0.11972987770630487	
11.125	0.403	0.12232130130885123	
11.13	-0.101	0.12014171979772219	
11.135	-0.064	0.11350768352244374	
11.14	0.479	0.1120108882970517	
11.145	0.091	0.11834999464180229	
11.15	-0.167	0.12262352310341236	
11.155	0.226	0.11877993787672217	
11.16	0.148	0.10457234097385582	
11.165	-0.265	0.07901700144202775	
11.17	-0.080	0.04755192846754315	
11.175	0.255	0.016406647694309544	
11.18	-0.179	-0.008701713752653903	
11.185	-0.207	-0.022652606530452635	
11.19	0.204	-0.03205052898402466	
11.195	-0.090	-0.043466624679482514	
11.2	-0.263	-0.05243087059698294	
11.205	0.151	-0.05033529810438741	
11.21	0.186	-0.04126144172508638	
11.215	-0.208	-0.024958571834935078	
11.22	-0.017	-0.006615683506131877	
11.225	0.336	0.00849596603297035	
11.23	-0.168	0.019381419572132515	
11.235	-0.133	0.025174807697623727	
11.24	0.452	0.034979218842265895	
11.245	0.165	0.0597152427590727	
11.25	-0.168	0.0884381253169416	
11.255	0.252	0.1075285811205785	
11.26	0.278	0.1149064967404258	
11.265	-0.197	0.11406553151514798	
11.27	-0.017	0.10419385220224023	
11.275	0.322	0.08455894220320465	
11.28	-0.184	0.06253750555333475	
11.285	-0.232	0.03704197179176744	
11.29	0.131	0.00487870929002046	
11.295	-0.144	-0.033140043563768505	
11.3	-0.332	-0.06954718343076084	
11.305	-0.003	-0.09458168515385994	
11.31	-0.002	-0.11501531199154516	
11.315	-0.333	-0.13086572987227407	
11.32	-0.135	-0.13489376400385023	
11.325	0.165	-0.13141198272200189	
11.33	-0.251	-0.1253933160395163	
11.335	-0.269	-0.11704071235381219	
11.34	0.111	-0.1111116645149129	
11.345	-0.049	-0.10905349638711626	
11.35	-0.147	-0.09562631793943163	
11.355	0.611	-0.040568119922846584	
11.36	0.904	0.07516459415914188	
11.365	0.354	0.2340696026921976	
11.37	0.609	0.3889359422783883	
11.375	0.877	-0.040568119922846584	
11.38	0.105	0.568636857077053	
11.385	-0.086	0.5487329377051097	
11.39	0.261	0.45886186675911034	
11.395	-0.107	0.32813670098772035	
11.4	-0.352	0.18829125139857178	
11.405	-0.089	0.06023332376758031	
11.41	-0.106	-0.05172546388510767	
11.415	-0.425	-0.14282119890038034	
11.42	-0.263	-0.20118482619143183	
11.425	-0.038	-0.23625859823698503	
11.43	-0.324	-0.25817218947851195	
11.435	-0.327	-0.25930937291694756	
11.44	0.033	-0.24313842237368097	
11.445	-0.080	-0.22274200903201757	
11.45	-0.272	-0.19180198090655426	
11.455	0.085	-0.1478130680671474	
11.46	0.177	-0.1055914110681059	
11.465	-0.211	-0.06593962896754951	
11.47	-0.022	-0.030307398609934946	
11.475	0.334	-0.0020703406322088594	
11.48	-0.130	0.018782213309798595	
11.485	-0.148	0.03146903434896535	
11.49	0.347	0.04003534514474362	
11.495	0.096	0.04936480324582826	
11.5	-0.167	0.059934394231466716	
11.505	0.316	0.07623614932327535	
11.51	0.463	0.10365899190787788	
11.515	-0.069	0.1398821282986189	
11.52	0.169	0.17155392101469585	
11.525	0.612	0.19817941203905878	
11.53	0.020	0.2217821731974364	
11.535	-0.063	0.22822589601510934	
11.54	0.489	0.22014221131018374	
11.545	0.185	0.20952946434281206	
11.55	-0.147	0.1957557586091052	
11.555	0.218	0.1761524193532358	
11.56	0.266	0.15083378190123742	
11.565	-0.240	0.12086370341112285	
11.57	-0.115	0.08539835300154909	
11.575	0.266	0.046269485906417114	
11.58	-0.127	0.012899850140617352	
11.585	-0.174	-0.004872333444222233	
11.59	0.299	-0.007870129094990637	
11.595	0.012	-0.00435767795073975	
11.6	-0.217	0.0007008366665516484	
11.605	0.146	0.008091251559953121	
11.61	0.261	0.017941896026191426	
11.615	-0.202	0.02685867655618807	
11.62	-0.023	0.03629893330381065	
11.625	0.472	0.04735265206333468	
11.63	-0.057	0.06494910603696868	
11.635	-0.101	0.08198740406766997	
11.64	0.444	0.09713494391992863	
11.645	0.169	0.11377227110742308	
11.65	-0.126	0.1286225781520544	
11.655	0.279	0.1399951625862687	
11.66	0.362	0.14806091608601024	
11.665	-0.181	0.14888386449355312	
11.67	-0.031	0.13715025344811	
11.675	0.311	0.11237886931319715	
11.68	-0.199	0.0790639392741103	
11.685	-0.277	0.0398921027141287	
11.69	0.111	-0.002931617314470301	
11.695	-0.113	-0.04809910680475853	
11.7	-0.349	-0.08537464755620633	
11.705	-0.049	-0.10910492038847631	
11.71	0.049	-0.12786304762390505	
11.715	-0.280	-0.13705401200850878	
11.72	-0.095	-0.1279148323920483	
11.725	0.388	-0.1005740972512887	
11.73	-0.038	-0.05687518837231821	
11.735	0.015	-0.0021801617901673048	
11.74	0.805	0.076104445541885	
11.745	0.774	0.19401807771785962	
11.75	0.565	0.3475602578113059	
11.755	1.242	0.5228284178253533	
11.76	1.281	0.7042381998293735	
11.765	0.423	0.8449036033706728	
11.77	0.301	0.8868300429792577	
11.775	0.466	0.8153728455512187	
11.78	-0.144	0.662276923807273	
11.785	-0.258	0.4687416150827425	
11.79	0.052	0.2719346078671885	
11.795	-0.148	0.09515615686404086	
11.8	-0.391	-0.042322911272842954	
11.805	-0.136	-0.13234343209209354	
11.81	-0.064	-0.1947528504738272	
11.815	-0.356	-0.23084655857150063	
11.82	-0.213	-0.23612289135855333	
11.825	0.084	-0.22366802718675688	
11.83	-0.248	-0.2076313334934791	
11.835	-0.275	-0.18523840651816637	
11.84	0.120	-0.1581206651740063	
11.845	-0.098	-0.13786017923671418	
11.85	-0.306	-0.12337722398025024	
11.855	0.003	-0.10835096653499313	
11.86	0.183	-0.0937035302975053	
11.865	-0.213	-0.07593062774000206	
11.87	-0.055	-0.05016882395479024	
11.875	0.376	-0.022548099932515612	
11.88	-0.083	0.0053272503233406715	
11.885	-0.078	0.03163789865750181	
11.89	0.525	0.06601294296781735	
11.895	0.307	0.11321879259136386	
11.9	-0.100	0.15944815083309688	
11.905	0.345	0.1926508453382036	
11.91	0.446	0.21344501589855827	
11.915	-0.113	0.22196594894885502	
11.92	0.053	0.214711801845033	
11.925	0.461	0.19558467165087134	
11.93	-0.064	0.1733728819567033	
11.935	-0.150	0.1474939814416653	
11.94	0.354	0.12002041090198771	
11.945	0.101	0.09933607038349154	
11.95	-0.216	0.08240085320342459	
11.955	0.142	0.06858395540965714	
11.96	0.250	0.056538487718494686	
11.965	-0.252	0.04400652044201827	
11.97	-0.132	0.028619029309702546	
11.975	0.258	0.007597378497650608	
11.98	-0.165	-0.012536458695447564	
11.985	-0.245	-0.027551560258169103	
11.99	0.223	-0.03503188436396562	
11.995	0.018	-0.03959269039988171	
12.0	-0.196	-0.03458988923096218	
12.005	0.188	-0.015468467630344335	
12.01	0.261	0.008576056791073969	
12.015	-0.193	0.029016280302253752	
12.02	-0.019	0.04356697594650929	
12.025	0.437	0.055638501350862096	
12.03	-0.054	0.07049217332990176	
12.035	-0.107	0.08136755031327889	
12.04	0.455	0.09498028692171269	
12.045	0.195	0.11449291011483051	
12.05	-0.168	0.12933375382499307	
12.055	0.133	0.13143616323363477	
12.06	0.212	0.11466723258107286	
12.065	-0.281	0.08405589389813188	
12.07	-0.174	0.045449271076678587	
12.075	0.151	0.0006543702495892959	
12.08	-0.214	-0.04540061171267452	
12.085	-0.295	-0.07769102062103897	
12.09	0.104	-0.09806448819613858	
12.095	-0.075	-0.1134258467390604	
12.1	-0.321	-0.12067489472867346	
12.105	-0.038	-0.11858657204781055	
12.11	0.055	-0.11926757865019695	
12.115	-0.346	-0.12397778319305161	
12.12	-0.167	-0.12458038958102097	
12.125	0.230	-0.11824002590195631	
12.13	-0.116	-0.10343656341364219	
12.135	-0.051	-0.07279356373848664	
12.14	0.774	-0.003913279617876647	
12.145	0.681	0.11466851173735654	
12.15	0.160	-0.07279356373848664	
12.155	0.499	-0.07279356373848664	
12.16	0.408	-0.07279356373848664	
12.165	-0.246	-0.07279356373848664	
12.17	-0.188	-0.07279356373848664	
12.175	0.099	0.2038660231944009	
12.18	-0.263	0.07763013674549765	
12.185	-0.339	-0.026908490059681642	
12.19	0.072	-0.0989229055528921	
12.195	-0.074	-0.14426257528548087	
12.2	-0.347	-0.16489636742919966	
12.205	-0.060	-0.16259165731145359	
12.21	0.101	-0.15602695429343638	
12.215	-0.292	-0.14611801531515747	
12.22	-0.132	-0.12572464954439921	
12.225	0.308	-0.09900075256097074	
12.23	-0.150	-0.07245943756320414	
12.235	-0.202	-0.047051127688806704	
12.24	0.310	-0.021771879840471985	
12.245	0.117	0.00175287852570248	
12.25	-0.184	0.025878467509118142	
12.255	0.256	0.05250994189638713	
12.26	0.420	0.08314925568840666	
12.265	-0.133	0.11165895326861779	
12.27	0.023	0.1301996266633399	
12.275	0.562	0.1422462219022219	
12.28	0.032	0.1564719296875845	
12.285	-0.074	0.16675127409962223	
12.29	0.562	0.17740356364258786	
12.295	0.259	0.19385021935889507	
12.3	-0.152	0.2036613845561973	
12.305	0.343	0.20450898141533969	
12.31	0.484	0.20733996301831692	
12.315	-0.144	0.20858170992430997	
12.32	-0.051	0.1940524543901902	
12.325	0.357	0.16135490504052846	
12.33	-0.109	0.12155496423778227	
12.335	-0.184	0.08462578656119901	
12.34	0.339	0.05938920003741341	
12.345	0.094	0.046991610124009736	
12.35	-0.231	0.0406305152337709	
12.355	0.062	0.03539554392606378	
12.36	0.249	0.026420095554283315	
12.365	-0.214	0.017650061930468627	
12.37	-0.118	0.011964693390902063	
12.375	0.339	0.00837398808972508	
12.38	-0.109	0.00564230837941587	
12.385	-0.177	0.007549978775731611	
12.39	0.340	0.01734662552705604	
12.395	0.168	0.03308518239966461	
12.4	-0.144	0.05360400359038246	
12.405	0.308	0.08233156281045342	
12.41	0.499	0.11951403656409929	
12.415	-0.089	0.1566563841667386	
12.42	0.073	0.17983343161239151	
12.425	0.539	0.19142160692366145	
12.43	-0.011	0.19474147266807695	
12.435	-0.155	0.1834193198008991	
12.44	0.308	0.15927677261178197	
12.445	0.058	0.12623795556727538	
12.45	-0.228	0.08958584089740604	
12.455	0.078	0.06017492554379277	
12.46	0.163	0.03261520611640885	
12.465	-0.254	0.0037588732532442236	
12.47	-0.150	-0.017309977767900962	
12.475	0.264	-0.032554747201856846	
12.48	-0.194	-0.04510730959217734	
12.485	-0.291	-0.055693895746324655	
12.49	0.142	-0.06377052974544101	
12.495	-0.003	-0.07258972547509726	
12.5	-0.323	-0.07848806109023526	
12.505	-0.055	-0.07895332663968946	
12.51	0.166	-0.08321862849957701	
12.515	-0.214	-0.08322946304431139	
12.52	0.018	-0.06347054758571928	
12.525	0.710	-0.010404901992990618	
12.53	0.365	0.08000970634240957	
12.535	0.270	0.19510938440015782	
12.54	0.857	0.3132488782214744	
12.545	0.536	-0.0038786874007381692	
12.55	-0.129	-0.0038786874007381692	
12.555	0.107	-0.0038786874007381692	
12.56	0.272	0.35797216240481	
12.565	-0.246	0.2537792599936971	
12.57	-0.167	0.15433279336630076	
12.575	0.224	0.0666581379289304	
12.58	-0.168	-0.0038786874007381692	
12.585	-0.300	-0.05100681666428079	
12.59	0.090	-0.0787609442865268	
12.595	-0.063	-0.10329328196631289	
12.6	-0.326	-0.11868852352759432	
12.605	-0.003	-0.11808395767538482	
12.61	0.247	-0.1049124997358551	
12.615	-0.219	-0.08429944688032245	
12.62	-0.095	-0.05473952920683553	
12.625	0.420	-0.023202659784457087	
12.63	-0.029	0.009072072814528312	
12.635	-0.150	0.038822896074403986	
12.64	0.412	0.06737935600940564	
12.645	0.258	0.09579101399377028	
12.65	-0.153	0.12009277065694608	
12.655	0.314	0.14393670968775488	
12.66	0.573	0.17128386630068643	
12.665	-0.078	0.1995540474087224	
12.67	0.027	0.21312180086287907	
12.675	0.522	0.2109837140898736	
12.68	-0.020	0.19908808501540626	
12.685	-0.138	0.1776319349688006	
12.69	0.466	0.15946572006172322	
12.695	0.333	0.15695046708008575	
12.7	-0.104	0.1669620477354787	
12.705	0.342	0.18285741384659132	
12.71	0.582	0.20544190310597601	
12.715	-0.071	0.22756089708499685	
12.72	0.030	0.2339650377885101	
12.725	0.565	0.22704410000150346	
12.73	0.013	0.21522885039120782	
12.735	-0.142	0.19551462051751983	
12.74	0.366	0.17235898928878352	
12.745	0.185	0.14809924872349245	
12.75	-0.228	0.12498563324578973	
12.755	0.059	0.10167807936786658	
12.76	0.316	0.07549753118371641	
12.765	-0.197	0.05372129045034988	
12.77	-0.068	0.042858834594997786	
12.775	0.424	0.040983339710293366	
12.78	-0.060	0.045384443873721814	
12.785	-0.207	0.04848852711707853	
12.79	0.302	0.05122904369350948	
12.795	0.209	0.05520537056827477	
12.8	-0.208	0.06305099614913523	
12.805	0.175	0.07354171639294538	
12.81	0.449	0.08852473584641929	
12.815	-0.147	0.10383889000190338	
12.82	-0.078	0.11173298591119026	
12.825	0.340	0.10489785683123948	
12.83	-0.127	0.08353180700463228	
12.835	-0.234	0.055478105932814895	
12.84	0.232	0.032096197920677666	
12.845	0.052	0.01230467942279476	
12.85	-0.287	-0.005882417098802	
12.855	-0.054	-0.019602861320447397	
12.86	0.137	-0.039454200786863056	
12.865	-0.286	-0.06204659944984939	
12.87	-0.217	-0.07634765109562969	
12.875	0.198	-0.08610965972433353	
12.88	-0.179	-0.09436001396993599	
12.885	-0.287	-0.09759026438492352	
12.89	0.108	-0.092944909174843	
12.895	-0.043	-0.09459973080331918	
12.9	-0.373	-0.1019499067819468	
12.905	-0.028	-0.10365096847431109	
12.91	0.392	-0.09229695275434256	
12.915	-0.072	-0.055071224438508606	
12.92	0.215	0.009529492983195128	
12.925	0.922	0.10704857269740427	
12.93	0.334	0.22570451342042516	
12.935	-0.017	0.31916650649053446	
12.94	0.460	0.3590282949045866	
12.945	0.131	0.34457607469149565	
12.95	-0.333	0.28393719132296746	
12.955	-0.106	0.19218246627917607	
12.96	0.052	0.08484645998775342	
12.965	-0.358	-0.01800198242684337	
12.97	-0.284	-0.09364960324102073	
12.975	0.122	-0.1429336237371608	
12.98	-0.208	-0.17213405178118904	
12.985	-0.318	-0.17888481295372605	
12.99	0.105	-0.1649693004177457	
12.995	-0.029	-0.15027384710327873	
13.0	-0.359	-0.13712578865739256	
13.005	-0.080	-0.12387540514935895	
13.01	0.194	-0.11300111182373279	
13.015	-0.298	-0.10507520620110275	
13.02	-0.196	-0.09381287422464057	
13.025	0.339	-0.07876471263369907	
13.03	-0.110	-0.060100278165577906	
13.035	-0.225	-0.041130556774577054	
13.04	0.331	-0.015865702986349477	
13.045	0.347	0.019932171323902705	
13.05	-0.181	0.06365720401528609	
13.055	0.188	0.10304375290464225	
13.06	0.496	0.13024836942224344	
13.065	-0.138	0.14984283968052667	
13.07	-0.046	0.1549746333304436	
13.075	0.567	0.15341551247342416	
13.08	0.039	0.15599716629664684	
13.085	-0.139	0.15465082262400032	
13.09	0.461	0.15514990125709238	
13.095	0.252	0.15911300576957582	
13.1	-0.268	0.15453467508025528	
13.105	0.041	0.1329117389817021	
13.11	0.402	0.10442817288363315	
13.115	-0.171	0.08391901622017953	
13.12	-0.109	0.07079551126975256	
13.125	0.386	0.06043311585562411	
13.13	-0.101	0.04916336901904647	
13.135	-0.274	0.034548624136516055	
13.14	0.203	0.019031151253065287	
13.145	0.101	0.003271668380190902	
13.15	-0.309	-0.010418017240715975	
13.155	-0.043	-0.020237729050732456	
13.16	0.298	-0.028517039910874353	
13.165	-0.249	-0.032976668746607325	
13.17	-0.164	-0.03032666765459606	
13.175	0.437	-0.020582959767674356	
13.18	-0.045	-0.001691246044399933	
13.185	-0.203	0.01748163818804918	
13.19	0.379	0.03892992996354027	
13.195	0.253	0.06540777799787706	
13.2	-0.242	0.08559755889212081	
13.205	0.067	0.09358373484830898	
13.21	0.420	0.09154809944557116	
13.215	-0.185	0.08816890711309437	
13.22	-0.142	0.08051047231809094	
13.225	0.334	0.06532757712396427	
13.23	-0.113	0.04450745856212407	
13.235	-0.312	0.019456757084249376	
13.24	0.111	-0.0062656047138904165	
13.245	-0.005	-0.03746806760504302	
13.25	-0.382	-0.0682751661162827	
13.255	-0.133	-0.09158045892009722	
13.26	0.088	-0.11545518077304945	
13.265	-0.339	-0.13767631746572823	
13.27	-0.304	-0.15056865285870308	
13.275	0.085	-0.15873310079245395	
13.28	-0.228	-0.17037732740535722	
13.285	-0.413	-0.1785741490497249	
13.29	0.006	-0.17932239527437707	
13.295	0.029	-0.1773742904489818	
13.3	-0.260	-0.16329706151766432	
13.305	0.217	-0.11862160341437625	
13.31	0.776	-0.03331339305662201	
13.315	0.194	0.08631617178803207	
13.32	0.325	0.21227790844287672	
13.325	0.910	0.326350268088423	
13.33	0.157	0.40768793011380705	
13.335	-0.236	0.4201982021708852	
13.34	0.183	0.36260570038514395	
13.345	0.001	0.2588199640636487	
13.35	-0.405	0.13964990146796416	
13.355	-0.156	0.031175488754333833	
13.36	0.116	-0.05819220413430089	
13.365	-0.353	-0.12255037466697756	
13.37	-0.313	-0.15989109547593777	
13.375	0.114	-0.17764285345065883	
13.38	-0.173	-0.18608002316306044	
13.385	-0.315	-0.17883195035169877	
13.39	0.140	-0.15445464418252694	
13.395	0.075	-0.12502094501722238	
13.4	-0.307	-0.09939897342317919	
13.405	-0.043	-0.07497657997033771	
13.41	0.313	-0.05505950711923424	
13.415	-0.245	-0.03853729218367151	
13.42	-0.225	-0.028098619202261574	
13.425	0.345	-0.022547062890088954	
13.43	-0.011	-0.015942175628957472	
13.435	-0.190	-0.0010348601568267645	
13.44	0.385	0.0255287913942709	
13.445	0.372	0.06320455367934155	
13.45	-0.179	0.10348760930896339	
13.455	0.181	0.13385992224464865	
13.46	0.580	0.1571371513838364	
13.465	-0.071	0.17951250697008175	
13.47	-0.061	0.1876812475198512	
13.475	0.446	0.18050291830153758	
13.48	0.006	0.16122050302242524	
13.485	-0.173	0.1368177293780783	
13.49	0.385	0.12143975256280391	
13.495	0.337	0.12039940658765906	
13.5	-0.199	0.12648661247448106	
13.505	0.082	0.12767155039252548	
13.51	0.406	0.12023340163874663	
13.515	-0.182	0.10764634357070235	
13.52	-0.167	0.08951904989841769	
13.525	0.385	0.06948020399558633	
13.53	-0.072	0.05042126627794624	
13.535	-0.263	0.03173486540260424	
13.54	0.224	0.01927524908539765	
13.545	0.209	0.01456807506520831	
13.55	-0.249	0.016555432514012355	
13.555	-0.006	0.020470309278341724	
13.56	0.386	0.023294742108745315	
13.565	-0.174	0.028825519074981786	
13.57	-0.119	0.03435982378686152	
13.575	0.487	0.04640267231107296	
13.58	0.056	0.06564180430131963	
13.585	-0.182	0.08268263754530294	
13.59	0.354	0.09806282441701593	
13.595	0.290	0.1117325189837681	
13.6	-0.234	0.11866242719287207	
13.605	-0.009	0.11120916591293004	
13.61	0.408	0.0943181071724678	
13.615	-0.159	0.07808735912452303	
13.62	-0.181	0.06418632523839676	
13.625	0.296	0.047218814430174436	
13.63	-0.083	0.025907302908419198	
13.635	-0.283	0.0037140716666360894	
13.64	0.088	-0.014210620609146194	
13.645	0.055	-0.03513693925229267	
13.65	-0.349	-0.05814404113231442	
13.655	-0.145	-0.07500623475884866	
13.66	0.165	-0.09170991612413525	
13.665	-0.274	-0.10669441084447458	
13.67	-0.278	-0.1129260406808499	
13.675	0.104	-0.11689307288184032	
13.68	-0.161	-0.12691328320878675	
13.685	-0.338	-0.13431517673748494	
13.69	0.157	-0.12533396931403765	
13.695	0.385	-0.09297124174062918	
13.7	-0.064	-0.03210401963866832	
13.705	0.499	0.05784044303603059	
13.71	1.049	0.18341333922168154	
13.715	0.369	0.3284134764246825	
13.72	0.253	0.4448296419760436	
13.725	0.728	0.507040876665126	
13.73	0.105	0.5082910623258438	
13.735	-0.263	0.4455536681085732	
13.74	-0.017	0.33141462964244905	
13.745	-0.049	0.1872129271437502	
13.75	-0.419	0.045026264789532686	
13.755	-0.254	-0.06742182886065204	
13.76	-0.019	-0.15258214448499252	
13.765	-0.359	-0.2163264499410367	
13.77	-0.349	-0.246251361766712	
13.775	0.033	-0.2500172014711911	
13.78	-0.179	-0.24648240321631237	
13.785	-0.390	-0.23246019879481822	
13.79	-0.042	-0.20968110139970517	
13.795	0.062	-0.18963827969575248	
13.8	-0.309	-0.1680260709125295	
13.805	-0.112	-0.13857488234779103	
13.81	0.292	-0.10842644324831138	
13.815	-0.144	-0.07833379790664952	
13.82	-0.136	-0.04346899398572092	
13.825	0.452	-0.003869834207500973	
13.83	0.122	0.0376308766497314	
13.835	-0.155	0.0752791261051715	
13.84	0.360	0.10735895379764795	
13.845	0.426	0.1386051609354125	
13.85	-0.145	0.1637685950627844	
13.855	0.108	0.17727773393058133	
13.86	0.597	0.1828492786257475	
13.865	-0.008	0.191653760817038	
13.87	-0.040	0.1962662494886921	
13.875	0.551	0.19727093330081352	
13.88	0.218	0.20080246272807764	
13.885	-0.122	0.20406796726026868	
13.89	0.342	0.20331123517166744	
13.895	0.365	0.19681600998285806	
13.9	-0.174	0.1847033544614451	
13.905	-0.009	0.16512649602474974	
13.91	0.414	0.135985844605922	
13.915	-0.153	0.1077135831297315	
13.92	-0.199	0.08011772197660946	
13.925	0.278	0.0533060802651677	
13.93	-0.023	0.02591270898203915	
13.935	-0.220	0.006978558939324513	
13.94	0.258	0.006300397004728504	
13.945	0.295	0.021945365277096833	
13.95	-0.207	0.04164467789178782	
13.955	0.024	0.05803870893518465	
13.96	0.498	0.07311097388011512	
13.965	-0.083	0.08973225304316848	
13.97	-0.124	0.10196826373326245	
13.975	0.446	0.10836359998247143	
13.98	0.104	0.11202920262890882	
13.985	-0.156	0.11484364487441347	
13.99	0.389	0.12323500258760155	
13.995	0.452	0.14410801128051473	
14.0	-0.165	0.16562619628403522	
14.005	0.020	0.17086654264458773	
14.01	0.501	0.162190729641227	
14.015	-0.086	0.1498611354074902	
14.02	-0.156	0.13482921877986437	
14.025	0.313	0.11329959529746814	
14.03	-0.045	0.08119306836489026	
14.035	-0.304	0.044817014524345285	
14.04	0.010	0.010077362328135744	
14.045	0.125	-0.02679784205371247	
14.05	-0.249	-0.054269744743200905	
14.055	0.009	-0.05521971843466139	
14.06	0.530	-0.028775254802154388	
14.065	-0.054	0.014946328787830254	
14.07	-0.104	0.058730328048778035	
14.075	0.453	0.09328655506410488	
14.08	0.125	0.11630180684963923	
14.085	-0.122	0.13074185722099257	
14.09	0.576	0.15502490797264307	
14.095	0.898	0.21737631261268064	
14.1	0.398	0.320742830436881	
14.105	0.869	0.4505920090450401	
14.11	1.382	0.5952834424494683	
14.115	0.525	0.7280788915312374	
14.12	0.130	0.7875042564219206	
14.125	0.527	0.7461016314050318	
14.13	0.000	0.6235241016978188	
14.135	-0.347	0.45378833203434954	
14.14	-0.097	0.27072474809508906	
14.145	-0.063	0.09343101051194834	
14.15	-0.413	-0.05498822072605136	
14.155	-0.240	-0.15157702033023118	
14.16	0.075	-0.20585049325255142	
14.165	-0.335	-0.23462383768277506	
14.17	-0.387	-0.24040801359515865	
14.175	0.029	-0.23504246083800662	
14.18	-0.130	-0.2283424383757949	
14.185	-0.355	-0.21311055704475687	
14.19	-0.009	-0.18541078764319963	
14.195	0.102	-0.1595647509949279	
14.2	-0.310	-0.13695034866981518	
14.205	-0.138	-0.11268801482489714	
14.21	0.316	-0.08884624604217789	
14.215	-0.142	-0.06557547500279948	
14.22	-0.184	-0.03949221449835821	
14.225	0.406	-0.00902011502557707	
14.23	0.162	0.024735121182392534	
14.235	-0.144	0.06178806508563779	
14.24	0.365	0.09956634688260493	
14.245	0.470	0.1385614453067634	
14.25	-0.130	0.17198803931793935	
14.255	0.049	0.18719598389362213	
14.26	0.463	0.18325072607679688	
14.265	-0.115	0.16646219055556977	
14.27	-0.182	0.1393795562998009	
14.275	0.394	0.11100118127720567	
14.28	0.073	0.08985042891192055	
14.285	-0.223	0.07371952215711536	
14.29	0.246	0.06649369264344238	
14.295	0.290	0.06767565278370397	
14.3	-0.246	0.06801629780158473	
14.305	-0.109	0.059072627423966115	
14.31	0.322	0.04029890187973985	
14.315	-0.164	0.021587320458731796	
14.32	-0.216	0.0062825824844968525	
14.325	0.276	-0.002065241456355245	
14.33	-0.025	-0.009015250186377992	
14.335	-0.318	-0.01930517552482429	
14.34	0.049	-0.028646778458338937	
14.345	0.195	-0.038224002229611184	
14.35	-0.298	-0.0438971751621757	
14.355	-0.127	-0.04506055468397784	
14.36	0.325	-0.04368199087505885	
14.365	-0.152	-0.03828439193395011	
14.37	-0.177	-0.026820746725368973	
14.375	0.405	-0.006122121776705248	
14.38	0.122	0.022136716958850812	
14.385	-0.231	0.04665593124397671	
14.39	0.124	0.0612074685812432	
14.395	0.267	0.060881422479003	
14.4	-0.246	0.054165931044407936	
14.405	-0.084	0.0437865125555856	
14.41	0.328	0.031341306924957235	
14.415	-0.217	0.014842516434407017	
14.42	-0.309	-0.0059378948888422454	
14.425	0.101	-0.03420039648102404	
14.43	-0.095	-0.06872454237940971	
14.435	-0.375	-0.0983464956529579	
14.44	-0.083	-0.11788288245785783	
14.445	0.007	-0.13803210255890133	
14.45	-0.388	-0.15880781326907584	
14.455	-0.240	-0.16829757899069014	
14.46	0.142	-0.17159044709606092	
14.465	-0.271	-0.17212265071349503	
14.47	-0.368	-0.16803541234679242	
14.475	0.073	-0.16212959725018722	
14.48	-0.042	-0.15966112256428738	
14.485	-0.240	-0.14448535040475682	
14.49	0.411	-0.09581097852981912	
14.495	0.761	0.00016184814263893801	
14.5	0.152	0.12803927820791638	
14.505	0.379	0.2515755592476816	
14.51	0.788	-0.07766908692292769	
14.515	-0.048	-0.07766908692292769	
14.52	-0.210	-0.07766908692292769	
14.525	0.221	0.3059587790461342	
14.53	-0.074	0.20250282947447754	
14.535	-0.388	0.09434159701285622	
14.54	-0.092	0.002080447057159209	
14.545	0.039	-0.07766908692292769	
14.55	-0.355	-0.1339555533608558	
14.555	-0.231	-0.16154467885560087	
14.56	0.130	-0.17227643367708248	
14.565	-0.254	-0.17706120871165054	
14.57	-0.306	-0.16938158598159775	
14.575	0.208	-0.1499606557882058	
14.58	-0.016	-0.12539951315624204	
14.585	-0.298	-0.10083047780844762	
14.59	0.097	-0.07291656478055819	
14.595	0.276	-0.04649815852509913	
14.6	-0.237	-0.02112318104228872	
14.605	-0.078	0.00032930097750738583	
14.61	0.452	0.01795529014781826	
14.615	-0.071	0.03791216929504842	
14.62	-0.142	0.056381410169210104	
14.625	0.466	0.07619390467352624	
14.63	0.288	0.1037434044863056	
14.635	-0.165	0.13294076302687802	
14.64	0.278	0.1550672459516202	
14.645	0.447	0.168709676962718	
14.65	-0.181	0.17276579903116296	
14.655	-0.023	0.1641878626278217	
14.66	0.553	0.15012657310641328	
14.665	-0.035	0.14195838773111186	
14.67	-0.158	0.13521040984023097	
14.675	0.470	0.12823261106084619	
14.68	0.195	0.1288741140486055	
14.685	-0.240	0.12784708804508	
14.69	0.104	0.11698544912824249	
14.695	0.264	0.09382113612907202	
14.7	-0.240	0.06580234535012452	
14.705	-0.083	0.04409626548507431	
14.71	0.397	0.030151945287308794	
14.715	-0.167	0.022033381897262855	
14.72	-0.262	0.012143746498893687	
14.725	0.299	0.00419238456879361	
14.73	0.070	-3.816298951802346e-05	
14.735	-0.240	0.0018440065914939038	
14.74	0.133	0.01092503283916217	
14.745	0.305	0.020889301875517515	
14.75	-0.220	0.02882374049584531	
14.755	-0.054	0.03699781524971049	
14.76	0.441	0.04518197110602048	
14.765	-0.087	0.0531088446821334	
14.77	-0.158	0.06006035980013026	
14.775	0.461	0.07217579240769165	
14.78	0.305	0.09607278546886244	
14.785	-0.161	0.12579281890321434	
14.79	0.209	0.14782060667746702	
14.795	0.389	0.1539735095737041	
14.8	-0.194	0.14786280204289234	
14.805	-0.063	0.13288345827861386	
14.81	0.414	0.11119588764078688	
14.815	-0.115	0.08820825146682859	
14.82	-0.240	0.06599966686395803	
14.825	0.194	0.04110586820897896	
14.83	-0.043	0.00813360991492209	
14.835	-0.350	-0.026194262883785877	
14.84	-0.009	-0.05221110726327639	
14.845	0.180	-0.07097595891456171	
14.85	-0.283	-0.08111879651445386	
14.855	-0.145	-0.0781475647294213	
14.86	0.292	-0.0687633376691574	
14.865	-0.171	-0.06079401578384256	
14.87	-0.246	-0.05206199381147052	
14.875	0.365	-0.03482098197589466	
14.88	0.269	-0.003804228507099848	
14.885	-0.078	0.04470598275394128	
14.89	0.608	0.1148073017207705	
14.895	0.866	0.2131544924675712	
14.9	0.093	0.3177895265590168	
14.905	0.266	0.3887018898572061	
14.91	0.617	0.41531656173183573	
14.915	-0.074	0.39625855405989374	
14.92	-0.228	0.3317773550145233	
14.925	0.230	0.24213596977156043	
14.93	-0.045	0.14435300492351852	
14.935	-0.353	0.05367337199197311	
14.94	-0.078	-0.01735713859077173	
14.945	0.097	-0.0757453808798178	
14.95	-0.321	-0.1160805889269009	
14.955	-0.197	-0.13239642915624567	
14.96	0.238	-0.13064334624009638	
14.965	-0.203	-0.12458791232009801	
14.97	-0.281	-0.11230495998299617	
14.975	0.233	-0.09289596902893907	
14.98	0.032	-0.07351852230981337	
14.985	-0.298	-0.0574234903883961	
14.99	0.082	-0.039451691085781865	
14.995	0.369	-0.018579629635066854	
15.0	-0.177	0.006880915320720006	
15.005	-0.049	0.03441218260492382	
15.01	0.531	0.059497679235464694	
15.015	-0.011	0.08550995150708947	
15.02	-0.150	0.10647515748930057	
15.025	0.481	0.12212188970711692	
15.03	0.247	0.13868638596442776	
15.035	-0.190	0.1504426939736349	
15.04	0.247	0.15541280568690752	
15.045	0.453	0.1576112467837144	
15.05	-0.159	0.15790206555551056	
15.055	-0.052	0.15020431761739872	
15.06	0.502	0.13657407388965453	
15.065	-0.046	0.12467760560408439	
15.07	-0.158	0.1143264023096831	
15.075	0.476	0.11104590485080801	
15.08	0.249	0.11989306469787128	
15.085	-0.225	0.12942423761565364	
15.09	0.116	0.12820399813405545	
15.095	0.363	0.11472204493790056	
15.1	-0.211	0.09805469562161516	
15.105	-0.138	0.0800229414720453	
15.11	0.308	0.05551784910325751	
15.115	-0.161	0.02587836652065513	
15.12	-0.260	0.00027209371607759875	
15.125	0.241	-0.015113055358347905	
15.13	0.058	-0.023969867864456127	
15.135	-0.291	-0.02750354790863431	
15.14	0.085	-0.023939698492859506	
15.145	0.363	-0.01122182551494577	
15.15	-0.197	0.007169944855065481	
15.155	-0.118	0.024891526307357973	
15.16	0.441	0.036490551307971075	
15.165	-0.037	0.048032942803184216	
15.17	-0.168	0.05919925965709975	
15.175	0.371	0.07176152383537461	
15.18	0.223	0.08516747949707817	
15.185	-0.219	0.09553267655385093	
15.19	0.070	0.09787916787378313	
15.195	0.351	0.08781201405166172	
15.2	-0.210	0.07531191149792471	
15.205	-0.139	0.06178544519085982	
15.21	0.347	0.045417351040621896	
15.215	-0.164	0.02516913761748225	
15.22	-0.317	0.0021877911821464972	
15.225	0.142	-0.021362522538643968	
15.23	-0.022	-0.04775687004541499	
15.235	-0.359	-0.07239186130457426	
15.24	-0.100	-0.08820703791172664	
15.245	0.128	-0.10518152540120201	
15.25	-0.313	-0.11961589057999135	
15.255	-0.190	-0.1192515242509106	
15.26	0.273	-0.10858155125321284	
15.265	-0.182	-0.09679332720216799	
15.27	-0.268	-0.08486202292665124	
15.275	0.342	-0.06233309800275616	
15.28	0.382	-0.018673504288071574	
15.285	-0.017	0.04753796161070797	
15.29	0.673	0.14077730464765711	
15.295	0.936	0.258954791360751	
15.3	0.081	0.3733195425624802	
15.305	0.082	0.4305352831201074	
15.31	0.466	0.42045790195466914	
15.315	-0.133	0.35733138863530056	
15.32	-0.307	0.26000037922727137	
15.325	0.064	0.1515615623893671	
15.33	-0.083	0.04149157070997429	
15.335	-0.399	-0.05144154655571465	
15.34	-0.126	-0.11340270335014278	
15.345	0.094	-0.15297029220177874	
15.35	-0.324	-0.17451425567996465	
15.355	-0.248	-0.17352728036272813	
15.36	0.197	-0.1615169486503941	
15.365	-0.164	-0.1485442994506901	
15.37	-0.291	-0.1290778280491962	
15.375	0.186	-0.10245462908567031	
15.38	0.085	-0.07940658516139715	
15.385	-0.251	-0.05655943218475392	
15.39	0.082	-0.02946391521044779	
15.395	0.391	-0.0008140143482114936	
15.4	-0.187	0.025394483414257315	
15.405	-0.057	0.04832032573319599	
15.41	0.669	0.07668012360214936	
15.415	0.157	0.12050942315378062	
15.42	-0.057	0.16768600506499062	
15.425	0.640	0.21061497231349888	
15.43	0.496	0.2557865592787812	
15.435	-0.087	0.29326706666698554	
15.44	0.347	0.30940629366290584	
15.445	0.588	0.3113778792819205	
15.45	-0.097	0.3014220671446893	
15.455	0.029	0.2771178852913869	
15.46	0.602	0.24871660914503468	
15.465	0.030	0.2256808084225912	
15.47	-0.173	0.19957419109564434	
15.475	0.406	0.17248285639721578	
15.48	0.198	0.1509712733681428	
15.485	-0.262	0.12733557955327765	
15.49	0.042	0.10118963210813639	
15.495	0.270	0.06943743781447984	
15.5	-0.231	0.038643362758179006	
15.505	-0.142	0.016958852344956622	
15.51	0.394	0.006603404695965488	
15.515	-0.095	0.003922370622187685	
15.52	-0.263	0.003545637077351119	
15.525	0.258	0.0042566636684208915	
15.53	0.127	0.006138542654032648	
15.535	-0.277	0.007456218077831144	
15.54	0.024	0.008951610097952997	
15.545	0.324	0.009475155750028337	
15.55	-0.268	0.006855072161642299	
15.555	-0.190	0.001765935113097998	
15.56	0.415	-0.0025083261864228697	
15.565	-0.042	0.0021896734969682817	
15.57	-0.194	0.014505548483929726	
15.575	0.287	0.03001439010225352	
15.58	0.119	0.03931694552665345	
15.585	-0.291	0.03857317976448382	
15.59	-0.023	0.02968741146507802	
15.595	0.295	0.014513831929741823	
15.6	-0.254	9.873939815975563e-05	
15.605	-0.207	-0.012410996066586135	
15.61	0.311	-0.02263969986557766	
15.615	-0.156	-0.03156672044404809	
15.62	-0.346	-0.04353183283015862	
15.625	0.009	-0.06121777420734269	
15.63	-0.042	-0.0905102465440925	
15.635	-0.364	-0.11729188375575256	
15.64	-0.118	-0.13052575878054315	
15.645	0.165	-0.13545587287564353	
15.65	-0.298	-0.13471544803664998	
15.655	-0.257	-0.12755570751532663	
15.66	0.189	-0.11971551606103045	
15.665	-0.158	-0.11539174275078529	
15.67	-0.257	-0.10657812782845369	
15.675	0.423	-0.07630195843210255	
15.68	0.576	-0.00732557284147174	
15.685	0.088	0.09471900928928895	
15.69	0.683	0.21428520821452268	
15.695	0.991	0.3436472544802241	
15.7	0.151	0.45439209648313084	
15.705	0.046	0.5011724670983615	
15.71	0.476	0.47519032845543363	
15.715	-0.075	0.3968732675344072	
15.72	-0.330	0.2873428055335885	
15.725	-0.011	0.16439955711168197	
15.73	-0.060	0.04085533140655165	
15.735	-0.402	-0.062085281286023176	
15.74	-0.165	-0.12898474046797817	
15.745	0.070	-0.170370576234457	
15.75	-0.339	-0.19528167604252455	
15.755	-0.277	-0.1988812778134582	
15.76	0.116	-0.18893998316247207	
15.765	-0.194	-0.18091857044211312	
15.77	-0.346	-0.16964504070638026	
15.775	0.084	-0.15075784835915945	
15.78	0.082	-0.1320300388769689	
15.785	-0.292	-0.11107172911507676	
15.79	-0.052	-0.08515868194446485	
15.795	0.310	-0.06328086895662174	
15.8	-0.161	-0.04021378161755147	
15.805	-0.122	-0.015055785665399168	
15.81	0.420	0.012112606758181292	
15.815	0.068	0.039218543895366345	
15.82	-0.110	0.06719795040189387	
15.825	0.502	0.10421767178411306	
15.83	0.403	0.14916058838362584	
15.835	-0.173	0.18581489721593478	
15.84	0.111	0.19667148906265947	
15.845	0.515	0.1909043909126738	
15.85	-0.089	0.18185160585078908	
15.855	-0.075	0.16971902395216276	
15.86	0.515	0.15515702424643563	
15.865	0.075	0.14742688611697632	
15.87	-0.136	0.1420582900835246	
15.875	0.429	0.14307144723495951	
15.88	0.288	0.15036665293843188	
15.885	-0.236	0.15086838611199543	
15.89	-0.026	0.13344404470926358	
15.895	0.345	0.10196919975844503	
15.9	-0.190	0.07005675148579746	
15.905	-0.167	0.045557254963458305	
15.91	0.369	0.029049498326669018	
15.915	-0.028	0.02065895715731686	
15.92	-0.232	0.018038566695399286	
15.925	0.198	0.017841812793537998	
15.93	0.204	0.019509332680977425	
15.935	-0.226	0.023027215678875296	
15.94	0.010	0.029244509819287185	
15.945	0.374	0.03395244678138366	
15.95	-0.145	0.039259906490596186	
15.955	-0.119	0.045441832552270134	
15.96	0.443	0.053910978149131324	
15.965	0.090	0.06885139864707514	
15.97	-0.141	0.08605781555232561	
15.975	0.310	0.10263471122250857	
15.98	0.302	0.11560522932343391	
15.985	-0.194	0.12316476297483861	
15.99	0.020	0.12004985844871374	
15.995	0.362	0.1049100099439533	
16.0	-0.179	0.08547128334266754	
16.005	-0.202	0.06336113184824545	
16.01	0.203	0.03473380647828129	
16.015	-0.113	-0.0009905108450852054	
16.02	-0.307	-0.03286113105662739	
16.025	0.024	-0.05654390153653836	
16.03	-0.008	-0.08136387566903507	
16.035	-0.338	-0.10568683375269189	
16.04	-0.126	-0.11602898686724629	
16.045	0.133	-0.12113401647269861	
16.05	-0.271	-0.12643832672961577	
16.055	-0.272	-0.12466189477902774	
16.06	0.133	-0.12128844668054513	
16.065	-0.115	-0.12194717196365795	
16.07	-0.245	-0.11490575590678312	
16.075	0.421	-0.08051188931013903	
16.08	0.632	-0.003243347046591181	
16.085	0.230	0.11224286672918118	
16.09	0.744	0.25190390950700525	
16.095	1.176	0.407002848571456	
16.1	0.359	0.5495367075955221	
16.105	0.124	0.6221057590073871	
16.11	0.519	0.6067032922213593	
16.115	-0.060	0.5191902308163545	
16.12	-0.342	0.3829776143616188	
16.125	-0.055	0.22732268995258648	
16.13	-0.095	0.07188709647776972	
16.135	-0.471	-0.06266517252941695	
16.14	-0.292	-0.1592621275160036	
16.145	-0.055	-0.22898538803972499	
16.15	-0.376	-0.27525468071096315	
16.155	-0.358	-0.2898840613871372	
16.16	0.003	-0.2823096249736944	
16.165	-0.196	-0.26969350895039246	
16.17	-0.365	-0.2490392795179006	
16.175	0.024	-0.21570758147074484	
16.18	0.096	-0.18104545802880545	
16.185	-0.283	-0.1457579029185312	
16.19	-0.063	-0.10732714517889405	
16.195	0.345	-0.07085448000568698	
16.2	-0.124	-0.03633086471492345	
16.205	-0.118	-0.00203874227697245	
16.21	0.447	0.03185588264600778	
16.215	0.075	0.06234916005501776	
16.22	-0.158	0.08572716149473954	
16.225	0.397	0.10837807123095762	
16.23	0.461	0.13815102682865762	
16.235	-0.112	0.17104189524279223	
16.24	0.183	0.19357729571464924	
16.245	0.551	0.207381099347294	
16.25	-0.028	0.2136242873306363	
16.255	-0.057	0.20974632943852473	
16.26	0.537	0.19900127620645988	
16.265	0.168	0.1934872307650914	
16.27	-0.182	0.1855359695799596	
16.275	0.266	0.17033205054254272	
16.28	0.272	0.14932623267580686	
16.285	-0.246	0.12399387954697728	
16.29	-0.058	0.09544697281439261	
16.295	0.321	0.062497041026193356	
16.3	-0.170	0.03370271845609659	
16.305	-0.194	0.015630319653102714	
16.31	0.276	0.003009770050591068	
16.315	-0.032	-0.007417907754781888	
16.32	-0.251	-0.014524700764688925	
16.325	0.151	-0.012689035306447629	
16.33	0.215	-0.00858329051383679	
16.335	-0.185	0.0009539765797587504	
16.34	0.151	0.023410697186882472	
16.345	0.644	0.06661251996434718	
16.35	0.042	0.12468141787667691	
16.355	0.013	0.17549456293635182	
16.36	0.658	0.21407945547778587	
16.365	0.333	0.2516743537660107	
16.37	-0.040	0.28134952526125667	
16.375	0.556	0.30125245791817645	
16.38	0.579	0.3205539873304575	
16.385	-0.090	0.33295051833320877	
16.39	0.148	0.32122228448045514	
16.395	0.544	0.2926199630663937	
16.4	-0.058	0.25885733645925346	
16.405	-0.112	0.21942058600066044	
16.41	0.345	0.17592248697940588	
16.415	-0.080	0.12583185796490892	
16.42	-0.342	0.06944285567139541	
16.425	-0.013	0.013037230363256899	
16.43	0.013	-0.04441957749402159	
16.435	-0.361	-0.09381883605331716	
16.44	-0.190	-0.12288004934027859	
16.445	0.120	-0.14249178507032667	
16.45	-0.272	-0.15496425444744094	
16.455	-0.303	-0.15557029854653281	
16.46	0.087	-0.15121758063633867	
16.465	-0.147	-0.15208900790740804	
16.47	-0.294	-0.14848875176981804	
16.475	0.267	-0.1220265648899192	
16.48	0.577	-0.05936876640279052	
16.485	0.172	0.04323430248814666	
16.49	0.698	0.1790561920046145	
16.495	1.150	0.3395333924971498	
16.5	0.336	0.4900658851265636	
16.505	0.006	0.568256253871597	
16.51	0.336	0.5466710189162403	
16.515	-0.107	0.4430334897928736	
16.52	-0.413	0.29550648702642435	
16.525	-0.136	0.13779464349501064	
16.53	-0.121	-0.012317720284804455	
16.535	-0.466	-0.13562162600347957	
16.54	-0.312	-0.21606238559449117	
16.545	-0.080	-0.26853817154744053	
16.55	-0.390	-0.30274841445589784	
16.555	-0.382	-0.31164488680463576	
16.56	0.012	-0.2983452612458757	
16.565	-0.179	-0.278915383732524	
16.57	-0.382	-0.25348191187814184	
16.575	-0.028	-0.22021678064254827	
16.58	0.065	-0.19030410310505835	
16.585	-0.324	-0.16371030534222109	
16.59	-0.144	-0.13609433459279474	
16.595	0.229	-0.11243678394396059	
16.6	-0.184	-0.09382904327721979	
16.605	-0.170	-0.07175771574776871	
16.61	0.443	-0.0381838613507726	
16.615	0.059	0.0031110142699200946	
16.62	-0.187	0.03830172569117126	
16.625	0.319	0.06786547027804836	
16.63	0.412	0.0998827600662147	
16.635	-0.196	0.12710055482822485	
16.64	-0.013	0.1367935404062319	
16.645	0.499	0.13078941842620517	
16.65	-0.075	0.12617021098918288	
16.655	-0.124	0.12102931447751057	
16.66	0.479	0.11690180759714551	
16.665	0.055	0.11625828900491166	
16.67	-0.234	0.10815955186968615	
16.675	0.198	0.09479098004481215	
16.68	0.203	0.07703839599509499	
16.685	-0.268	0.056102516416684844	
16.69	-0.075	0.03466789970140002	
16.695	0.322	0.015875498608921308	
16.7	-0.216	0.0002598302803057976	
16.705	-0.266	-0.015110753652652137	
16.71	0.233	-0.030116645526213497	
16.715	-0.043	-0.042583577240344374	
16.72	-0.303	-0.05089948790743025	
16.725	0.035	-0.0533168129537786	
16.73	0.162	-0.0588299499639246	
16.735	-0.286	-0.06086846429230296	
16.74	-0.115	-0.056468011471885876	
16.745	0.285	-0.05206289520293754	
16.75	-0.207	-0.04866259495765701	
16.755	-0.231	-0.04522547906224013	
16.76	0.392	-0.03309617262528822	
16.765	0.151	-0.007466035967518136	
16.77	-0.182	0.02800618796477053	
16.775	0.266	0.0616236281337245	
16.78	0.330	0.0892900699932995	
16.785	-0.245	0.10309368037270125	
16.79	-0.100	0.09739815799283474	
16.795	0.318	0.07401807847904698	
16.8	-0.190	0.04441715942421588	
16.805	-0.260	0.016660353570863026	
16.81	0.143	-0.0121224640486355	
16.815	-0.101	-0.046377299176776174	
16.82	-0.375	-0.07703274592403757	
16.825	-0.071	-0.10041500320381663	
16.83	0.012	-0.1256369083122639	
16.835	-0.419	-0.15091440085222396	
16.84	-0.240	-0.1666190588769363	
16.845	0.131	-0.17589814841344426	
16.85	-0.257	-0.17861945770542403	
16.855	-0.318	-0.17040653792871138	
16.86	0.072	-0.15800316612531096	
16.865	-0.116	-0.15438793196454634	
16.87	-0.278	-0.14818686633833386	
16.875	0.244	-0.1162668015617902	
16.88	0.568	-0.05349141767945352	
16.885	0.061	0.03986694365232706	
16.89	0.473	0.15037588520706296	
16.895	0.955	0.27034912079980433	
16.9	0.136	0.3752038044264266	
16.905	-0.103	-0.05349141767945352	
16.91	0.340	-0.05349141767945352	
16.915	-0.051	0.30968340556454627	
16.92	-0.342	0.2055611381907293	
16.925	0.006	0.1027687895239401	
16.93	0.052	0.010685079055991234	
16.935	-0.378	-0.06327203214968354	
16.94	-0.202	-0.11170096536853703	
16.945	0.226	-0.13646032924582596	
16.95	-0.207	-0.14278391505921065	
16.955	-0.242	-0.129738432199258	
16.96	0.318	-0.10162132031963644	
16.965	0.024	-0.06826021583320108	
16.97	-0.266	-0.03864736735379899	
16.975	0.152	-0.01216904857226541	
16.98	0.249	0.006843845476221585	
16.985	-0.239	0.018519547430264204	
16.99	-0.023	0.02821473607371601	
16.995	0.541	0.043784853670423375	
17.0	-0.009	0.07014280448661249	
17.005	-0.110	0.09803045032603923	
17.01	0.554	0.12456112901527411	
17.015	0.250	0.15285667059274882	
17.02	-0.164	0.17610814547431192	
17.025	0.322	0.18784606164214135	
17.03	0.455	0.19206271412268303	
17.035	-0.152	0.19339434672802916	
17.04	0.007	0.18507512846609706	
17.045	0.499	0.1669437489145638	
17.05	-0.074	0.14916596194551782	
17.055	-0.106	0.13288497311267866	
17.06	0.508	0.12763085120446352	
17.065	0.226	0.13396362021484556	
17.07	-0.136	0.14700977770586704	
17.075	0.347	0.16081724305766565	
17.08	0.457	0.17617554238647523	
17.085	-0.168	0.18536496684646137	
17.09	0.009	0.18097527416827736	
17.095	0.521	0.16601476105462667	
17.1	-0.077	0.15223496168209832	
17.105	-0.156	0.1357801071475513	
17.11	0.380	0.1185891554243027	
17.115	0.062	0.09906754596881269	
17.12	-0.245	0.07999596485775687	
17.125	0.165	0.0647200539846047	
17.13	0.347	0.05624680744313566	
17.135	-0.200	0.05644955856310833	
17.14	-0.003	0.06188799761203817	
17.145	0.466	0.06999514666515788	
17.15	-0.072	0.07833506650835473	
17.155	-0.152	0.08473831195757275	
17.16	0.460	0.09251649925180763	
17.165	0.183	0.10416380864381593	
17.17	-0.196	0.11501469886179816	
17.175	0.284	0.12459786651913744	
17.18	0.424	0.134289040624669	
17.185	-0.213	0.14053879132031577	
17.19	-0.078	0.1327598278550468	
17.195	0.432	0.11194547993253592	
17.2	-0.142	0.08849634623994311	
17.205	-0.263	0.06470686045417569	
17.21	0.226	0.03635523135820883	
17.215	-0.077	0.0022687416572175242	
17.22	-0.358	-0.03187738021998324	
17.225	0.015	-0.05755310056477252	
17.23	0.070	-0.0807275279665862	
17.235	-0.388	-0.10330112400543671	
17.24	-0.231	-0.12029017897430885	
17.245	0.172	-0.1331428858390672	
17.25	-0.222	-0.14139618727164377	
