Time	Potential	EKG	Unnamed: 3
0.0	0.828	0.038364659911044915	
0.005	0.790	0.1680262794804415	
0.01	0.050	0.3034210832687092	
0.015	0.851	0.3993075245597868	
0.02	1.986	0.5522594405326416	
0.025	3.060	0.8805567347593791	
0.03	3.034	1.3915101940889356	
0.035	3.025	1.9563842090239933	
0.04	3.023	2.426993719597019	
0.045	3.022	2.7622008612911495	
0.05	3.026	2.9840172508995297	
0.055	3.028	3.100864046523976	
0.06	3.023	3.136339373603076	
0.065	3.025	3.138565269925145	
0.07	3.028	3.1225353686301043	
0.075	3.026	3.089386387207891	
0.08	3.023	3.062579911829369	
0.085	3.025	3.048908331464536	
0.09	3.026	3.0328045430421406	
0.095	3.026	3.0195480717086065	
0.1	3.026	3.022194544535139	
0.105	3.026	3.023021361041991	
0.11	3.038	3.0167414978898757	
0.115	3.058	3.0248046718069457	
0.12	2.611	3.016461002506454	
0.125	-0.272	2.8159856067656213	
0.13	-0.993	2.249843137035427	
0.135	-0.993	1.4135847117091895	
0.14	-0.995	0.5511970368072081	
0.145	-0.996	-0.16141815135991125	
0.15	-0.995	-0.6560330244359436	
0.155	-0.995	-0.9662110925368351	
0.16	-0.996	-1.1305267576791365	
0.165	-0.995	-1.1787119810304567	
0.17	-0.995	-1.1665546495275962	
0.175	-0.995	-1.1381243812459578	
0.18	-0.996	-1.0934481972806414	
0.185	-0.995	-1.0472648170372736	
0.19	-0.995	-1.022607125494124	
0.195	-0.996	-1.007428468033135	
0.2	-0.995	-0.9885210705599307	
0.205	-0.993	-0.984753416193212	
0.21	-0.995	-0.9910187394235414	
0.215	-0.986	-0.9850421877301934	
0.22	-0.617	-0.9654576029290778	
0.225	-0.889	-0.9298845090706008	
0.23	-0.775	-0.8821264455519552	
0.235	-0.349	-0.818635928053879	
0.24	-0.523	-0.7372453289651522	
0.245	-0.613	-0.6546727239797281	
0.25	-0.029	-0.564734488866102	
0.255	0.241	-0.44291975505235615	
0.26	-0.051	-0.28860816155071645	
0.265	0.835	-0.1044976418568496	
0.27	1.706	0.15883379116751237	
0.275	1.659	0.5215824574124679	
0.28	2.687	0.9660529210333794	
0.285	3.072	1.4777779309517773	
0.29	3.077	1.9963428592632797	
0.295	2.876	2.4411168229171043	
0.3	3.081	2.7695344423149626	
0.305	2.560	2.9478461382700165	
0.31	1.023	2.9119873157039553	
0.315	0.799	2.615484251019197	
0.32	0.576	2.134762696891946	
0.325	-0.428	1.5644537311824638	
0.33	-0.668	0.9580584341545988	
0.335	-0.523	0.3837296103122942	
0.34	-0.993	-0.10448790003336082	
0.345	-0.995	-0.4865558228377221	
0.35	-0.993	-0.7585617763919837	
0.355	-0.993	-0.9421150077815881	
0.36	-0.995	-1.0474217806050334	
0.365	-0.993	-1.0794040944553593	
0.37	-0.995	-1.0805738129436449	
0.375	-0.993	-1.0733141610965033	
0.38	-0.995	-1.049698063390006	
0.385	-0.993	-1.0226478426558745	
0.39	-0.995	-1.0126584041588105	
0.395	-0.995	-1.0043176091767099	
0.4	-0.786	-0.9796344120455104	
0.405	-0.688	-0.9433719347903783	
0.41	-0.929	-0.8993691628488762	
0.415	-0.578	-0.846284205765016	
0.42	-0.349	-0.776667751734087	
0.425	-0.795	-0.7033880910193837	
0.43	-0.842	-0.6606535691663593	
0.435	-0.566	-0.6516645830256504	
0.44	-0.951	-0.6716899384121416	
0.445	-0.995	-0.7173037968399064	
0.45	-0.993	-0.7796919718667157	
0.455	-0.993	-0.8553916070214544	
0.46	-0.995	-0.9242760645921723	
0.465	-0.995	-0.9612989999916434	
0.47	-0.993	-0.9857491750440303	
0.475	-0.995	-1.0093356976111532	
0.48	-0.995	-1.0115573675989036	
0.485	-0.966	-1.0026487664375257	
0.49	-0.995	-1.0037633138166482	
0.495	-0.995	-1.0013114542299224	
0.5	-0.851	-0.9825144286306076	
0.505	-0.993	-0.9684152236055447	
0.51	-0.995	-0.9655550419213395	
0.515	-0.995	-0.959164843858414	
0.52	-0.993	-0.9634956347864714	
0.525	-0.995	-0.9806877401170113	
0.53	-0.995	-0.9846711622727586	
0.535	-0.995	-0.9831523277622031	
0.54	-0.995	-0.9949467034935229	
0.545	-0.995	-0.9997832792231235	
0.55	-0.995	-0.9909934658054531	
0.555	-0.995	-0.995215286158316	
0.56	-0.995	-1.002287318327385	
0.565	-0.995	-0.9938879127038576	
0.57	-0.995	-0.9908245921087354	
0.575	-0.995	-1.0004490278617482	
0.58	-0.995	-0.9969329954146964	
0.585	-0.865	-0.9821159446030223	
0.59	-0.986	-0.9773194668544745	
0.595	-0.995	-0.9696980675949806	
0.6	-0.746	-0.9469974991537845	
0.605	-0.724	-0.9178249660510693	
0.61	-0.960	-0.8865938681127036	
0.615	-0.717	-0.8494995027058532	
0.62	-0.468	-0.8066741652836957	
0.625	-0.619	-0.7555384400598348	
0.63	-0.423	-0.6794361513801329	
0.635	0.316	-0.5616353645684424	
0.64	0.330	-0.3906207310559575	
0.645	0.275	-0.17494478788728932	
0.65	1.040	0.06608943015584484	
0.655	0.987	0.31675770825536587	
0.66	0.128	0.5169036415376901	
0.665	0.301	0.6076584064635214	
0.67	0.554	0.5985184754910103	
0.675	-0.103	0.5284949493840396	
0.68	-0.122	0.4169184333257032	
0.685	0.372	0.2965831923302875	
0.69	-0.095	0.1902084361111672	
0.695	-0.295	0.09797068750376897	
0.7	0.166	0.02687286510154582	
0.705	0.247	-0.010649599351467372	
0.71	-0.171	-0.015057979543948958	
0.715	0.188	0.00787529189122607	
0.72	0.632	0.05550061684690478	
0.725	0.076	0.12181999553307489	
0.73	0.204	0.18842838091062253	
0.735	0.884	0.2605410938516541	
0.74	0.602	0.34911580717411195	
0.745	0.388	0.44209360030355166	
0.75	1.150	0.541452332245	
0.755	1.355	0.6658327125998025	
0.76	1.100	0.8201076962160505	
0.765	2.131	1.0269286342237134	
0.77	3.083	1.3283620351482512	
0.775	2.684	1.7184091875087892	
0.78	2.739	2.121872813672659	
0.785	3.078	2.4591123729182245	
0.79	3.019	2.701140373520915	
0.795	2.740	2.8684304141227797	
0.8	3.081	2.975730827531257	
0.805	3.080	3.0201704651232424	
0.81	2.438	3.0104999223002435	
0.815	2.685	2.9608502158527017	
0.82	2.948	2.8868274492336004	
0.825	2.024	2.7869947839618456	
0.83	1.706	2.6365744140248095	
0.835	2.064	2.435747638616446	
0.84	1.422	2.2011414398132523	
0.845	0.790	1.9428865806112898	
0.85	1.118	1.66711720338958	
0.855	0.828	1.3895463443261598	
0.86	-0.066	1.107998190951576	
0.865	0.059	0.8208345693225808	
0.87	0.290	0.5443429067631418	
0.875	-0.254	0.30480435272786	
0.88	-0.268	0.12036602925572046	
0.885	0.209	-0.004783598581032999	
0.89	-0.092	-0.08482272604136205	
0.895	-0.306	-0.12149593564951082	
0.9	0.087	-0.12460564792233908	
0.905	0.162	-0.11421595987657206	
0.91	-0.248	-0.09442491333414949	
0.915	0.064	-0.05810527989653178	
0.92	0.686	-0.0032298420652588774	
0.925	0.076	0.0724397372482546	
0.93	0.029	0.1490701748854637	
0.935	0.730	0.21366900432700017	
0.94	0.348	0.26809704111504407	
0.945	-0.002	0.31102164552174383	
0.95	0.696	0.34471293085849997	
0.955	0.690	0.38103647551437414	
0.96	-0.058	0.4070975991243678	
0.965	0.263	0.40487844194900213	
0.97	0.771	0.3881564552683805	
0.975	0.157	0.3752124360341905	
0.98	0.259	0.3748738365150257	
0.985	1.040	0.40003516581305987	
0.99	0.728	0.45713399429427853	
0.995	0.461	0.5367275901065569	
1.0	1.292	0.6358692853450827	
1.005	1.375	0.7572415847559584	
1.01	0.632	0.877874699507529	
1.015	0.991	0.9657999817474412	
1.02	1.278	1.0113476236777716	
1.025	0.493	1.0101240838100707	
1.03	0.429	0.9606601038263307	
1.035	1.081	0.8861319245054402	
1.04	0.498	0.8062447372190237	
1.045	-0.005	0.7125533130264549	
1.05	0.647	0.6107792287836858	
1.055	0.698	0.5264392151818029	
1.06	-0.013	0.4659371118872159	
1.065	0.505	0.42763571626617786	
1.07	1.468	0.4444768156706545	
1.075	1.572	0.5794906444312298	
1.08	1.708	0.8426362093835364	
1.085	2.290	1.167890266964176	
1.09	1.688	1.45833535944031	
1.095	0.988	1.6366106680510473	
1.1	1.564	1.6874738448989368	
1.105	1.610	1.6523747509142117	
1.11	0.854	1.5751955082946458	
1.115	1.288	1.48051846802768	
1.12	1.899	1.4082154399730231	
1.125	1.262	1.3826636043606049	
1.13	1.307	1.3916656833920273	
1.135	2.013	1.4265910664604204	
1.14	1.589	1.4775689101123077	
1.145	1.019	1.5149873914893393	
1.15	1.509	1.51312428471305	
1.155	1.347	1.4692348621398272	
1.16	0.457	1.3766691617739062	
1.165	0.669	1.2333190557440377	
1.17	0.974	1.0647368938129815	
1.175	0.090	0.8881035040035647	
1.18	-0.025	0.7018357479835426	
1.185	0.580	0.5229642544167699	
1.19	0.085	0.37480764960514423	
1.195	-0.220	0.2555878608831303	
1.2	0.281	0.16758615834907364	
1.205	0.269	0.11005425898102777	
1.21	-0.284	0.07247383726303247	
1.215	-0.115	0.04108272476837671	
1.22	0.203	0.005074341931259659	
1.225	-0.269	-0.0332259604078032	
1.23	-0.353	-0.06588063190370066	
1.235	0.017	-0.10090199484307796	
1.24	-0.246	-0.14500695527568352	
1.245	-0.477	-0.18471151831227858	
1.25	-0.051	-0.20903775233769134	
1.255	0.029	-0.2172760347436793	
1.26	-0.396	-0.2127343066971935	
1.265	-0.190	-0.19706222855221814	
1.27	0.113	-0.18159344758493887	
1.275	-0.335	-0.17369536243824343	
1.28	-0.382	-0.17057488056854342	
1.285	-0.016	-0.17660590636101742	
1.29	-0.274	-0.19688202086154036	
1.295	-0.541	-0.22212392581328438	
1.3	-0.219	-0.24853725752065645	
1.305	-0.237	-0.2815731223181984	
1.31	-0.672	-0.32010777582610583	
1.315	-0.488	-0.3591692274133522	
1.32	-0.213	-0.3961256373649761	
1.325	-0.576	-0.4282547280492527	
1.33	-0.617	-0.4463007541250451	
1.335	-0.242	-0.45616288080460066	
1.34	-0.459	-0.46479083101907614	
1.345	-0.676	-0.46963308312686525	
1.35	-0.283	-0.46490366813428685	
1.355	-0.179	-0.45079946473328075	
1.36	-0.483	-0.42459353768596586	
1.365	-0.193	-0.37823266552256174	
1.37	0.215	-0.3145526770745554	
1.375	-0.321	-0.2459344752307317	
1.38	-0.469	-0.1991354514351902	
1.385	-0.252	-0.19766240149373715	
1.39	-0.601	-0.24973119799676533	
1.395	-0.952	-0.3412452674346813	
1.4	-0.691	-0.45424309839926263	
1.405	-0.648	-0.5719958507390144	
1.41	-0.975	-0.6721344152423674	
1.415	-0.732	-0.7352870879923994	
1.42	-0.442	-0.7629402003531931	
1.425	-0.804	-0.7626216773456843	
1.43	-0.847	-0.7468906545158523	
1.435	-0.518	-0.7300344690442261	
1.44	-0.763	-0.7236824852904515	
1.445	-0.995	-0.7288761725288524	
1.45	-0.731	-0.7414887500486451	
1.455	-0.679	-0.7642094765383298	
1.46	-0.972	-0.7858031304905478	
1.465	-0.694	-0.7893096990833354	
1.47	-0.413	-0.7722600231897382	
1.475	-0.729	-0.7404295688237488	
1.48	-0.715	-0.69971690489011	
1.485	-0.307	-0.6533103115313821	
1.49	-0.506	-0.6096628031875356	
1.495	-0.712	-0.5706236665669129	
1.5	-0.353	-0.53565587832528	
1.505	-0.315	-0.5083369488758159	
1.51	-0.721	-0.4895806747457045	
1.515	-0.671	-0.4873778806854247	
1.52	-0.607	-0.5185121533760643	
1.525	-0.993	-0.586294464768073	
1.53	-0.995	-0.6685994395260628	
1.535	-0.995	-0.7595086307246804	
1.54	-0.995	-0.8616720800987041	
1.545	-0.995	-0.9374203710060817	
1.55	-0.995	-0.9706585047710127	
1.555	-0.995	-0.9994735892062969	
1.56	-0.995	-1.0225635723427131	
1.565	-0.995	-1.0141860270449734	
1.57	-0.995	-1.0054762967714959	
1.575	-0.995	-1.0145477108540184	
1.58	-0.996	-1.0075253103898403	
1.585	-0.996	-0.9911363551023041	
1.59	-0.995	-0.9989787212848913	
1.595	-0.995	-1.0037974582560643	
1.6	-0.993	-0.9880769959730358	
1.605	-0.841	-0.9833691544910904	
1.61	-0.995	-0.9793635836118698	
1.615	-0.757	-0.9458174588303662	
1.62	-0.445	-0.890726073380086	
1.625	-0.734	-0.8264018446381731	
1.63	-0.706	-0.7528445806347352	
1.635	-0.298	-0.6789989310121787	
1.64	-0.451	-0.6153294460244317	
1.645	-0.621	-0.5558127618251143	
1.65	-0.236	-0.49409166221892414	
1.655	-0.214	-0.4439164092434884	
1.66	-0.509	-0.4036928257163922	
1.665	-0.228	-0.35749755803032884	
1.67	0.287	-0.2995656162308566	
1.675	-0.228	-0.230448676048148	
1.68	-0.232	-0.16039499699885557	
1.685	0.444	-0.09559930355193207	
1.69	0.122	-0.029622842593095538	
1.695	-0.187	0.03095894299457523	
1.7	0.311	0.07793898938135259	
1.705	-0.064	0.09164451674634205	
1.71	-0.552	0.05086799956762218	
1.715	-0.242	-0.02224766007778139	
1.72	0.487	-0.07828481141267671	
1.725	0.134	-0.07438823462854657	
1.73	0.490	0.012027948797883452	
1.735	1.521	0.18882265197519452	
1.74	1.289	0.4412175733256241	
1.745	0.938	0.7146895770168843	
1.75	1.873	0.972831634555673	
1.755	2.132	1.222387146774079	
1.76	1.488	1.45563717557933	
1.765	1.946	1.6497638875144356	
1.77	2.485	1.8047909306944625	
1.775	1.822	1.92782486883998	
1.78	1.758	2.0092951718741956	
1.785	2.282	2.0467929708258725	
1.79	1.378	2.019133626326477	
1.795	0.440	1.8836367026265264	
1.8	0.777	1.634375551662862	
1.805	0.530	1.3129716690425153	
1.81	-0.251	0.9687752867576438	
1.815	-0.080	0.6427985348375029	
1.82	0.434	0.3667294306101559	
1.825	-0.150	0.1674029513675636	
1.83	-0.130	0.05182672085990913	
1.835	0.614	0.012656101896228487	
1.84	0.279	0.02924654543699991	
1.845	-0.116	0.07893905301726113	
1.85	0.672	0.14890066645655314	
1.855	0.898	0.23947720956590973	
1.86	0.217	0.3450018844893	
1.865	0.733	0.45475123721873306	
1.87	1.393	0.5684443498648655	
1.875	0.751	0.6899096348561032	
1.88	0.776	0.8052951022387743	
1.885	1.648	0.9153255929425309	
1.89	1.205	1.0172668885313696	
1.895	0.553	1.0902014306946852	
1.9	1.182	1.113212983209412	
1.905	1.176	1.0938913672928874	
1.91	0.263	1.0383932877650808	
1.915	0.597	0.9516704113074262	
1.92	1.010	0.8510315188463337	
1.925	0.159	0.7436298457251369	
1.93	0.131	0.6349091807198314	
1.935	1.017	0.550848803703861	
1.94	0.709	0.5134161133620994	
1.945	0.215	0.5197371030004416	
1.95	0.936	0.5514428042760413	
1.955	1.048	0.5952800409719932	
1.96	0.142	0.6330017934478247	
1.965	0.501	0.6465288806226824	
1.97	1.069	0.6394657214470238	
1.975	0.319	0.6255191437957606	
1.98	0.266	0.6085697030248143	
1.985	1.121	0.5991165396873878	
1.99	0.800	0.6095344395004532	
1.995	0.220	0.6343846656262146	
2.0	0.953	0.6594959762075403	
2.005	1.094	0.6845491941930033	
2.01	0.263	0.7068141549017063	
2.015	0.554	0.715411343922083	
2.02	1.019	0.7006934777182263	
2.025	0.143	0.6614679792815372	
2.03	-0.023	0.5933602986085387	
2.035	0.680	0.5072395478777818	
2.04	0.195	0.4146146801041204	
2.045	-0.188	0.3292180791762904	
2.05	0.515	0.271554969951722	
2.055	0.724	0.25073447892028544	
2.06	-0.103	0.25970247305175836	
2.065	0.120	0.2723196066519289	
2.07	0.542	0.26385345728873066	
2.075	-0.101	0.2324645862218949	
2.08	0.044	0.20624746879638114	
2.085	1.171	0.22941648043305943	
2.09	1.103	0.33176032839292807	
2.095	0.776	0.5090621485350273	
2.1	1.660	0.730529537687444	
2.105	1.654	0.955847136557143	
2.11	0.539	1.1235356186209633	
2.115	0.782	1.1881342008245372	
2.12	1.340	1.1630012875274427	
2.125	0.580	1.093554936556402	
2.13	0.510	1.0100506511847833	
2.135	1.414	0.9433559450634557	
2.14	1.127	0.9149207119604732	
2.145	0.608	0.9250120565389698	
2.15	1.526	0.9673569371277904	
2.155	1.835	1.0500185962394943	
2.16	1.167	1.168789186726948	
2.165	1.671	1.308018986713744	
2.17	2.316	1.4539322078549421	
2.175	1.593	1.5927791174367358	
2.18	1.477	1.701980335186152	
2.185	2.207	1.775063194676583	
2.19	1.674	1.805041743851083	
2.195	0.870	1.779116264635359	
2.2	1.468	1.6930138481252603	
2.205	1.531	1.5699854872816381	
2.21	0.588	1.4351062755612825	
2.215	0.846	1.2948292274819795	
2.22	1.410	1.161697499505697	
2.225	0.632	1.0501660856773185	
2.23	0.518	0.9630890587909405	
2.235	1.395	0.9036851065205703	
2.24	1.002	0.8812650277166345	
2.245	0.457	0.8805173138500163	
2.25	1.118	0.8866434349202054	
2.255	1.037	0.8848278321062218	
2.26	0.042	0.8495665948037253	
2.265	0.292	0.7656358126369502	
2.27	0.809	0.6542644385419862	
2.275	0.033	0.5406161235542403	
2.28	-0.014	0.4372477534688054	
2.285	0.741	0.36009266104110793	
2.29	0.356	0.3144738464835704	
2.295	-0.110	0.29201345510225774	
2.3	0.505	0.28411152421449604	
2.305	0.573	0.28266871848613623	
2.31	-0.196	0.27827433069760504	
2.315	-0.017	0.2564066073289997	
2.32	0.504	0.2156907566271492	
2.325	-0.089	0.1702008120887192	
2.33	-0.132	0.13747311208714957	
2.335	0.548	0.12435562502647753	
2.34	0.168	0.12366958458100444	
2.345	-0.200	0.12760128866821258	
2.35	0.236	0.13253547039026345	
2.355	0.359	0.12741425408901436	
2.36	-0.236	0.11598934785003161	
2.365	-0.043	0.10524813218887719	
2.37	0.411	0.08911993315096702	
2.375	-0.152	0.0676985338129098	
2.38	-0.252	0.0497014920353361	
2.385	0.157	0.026708569126512663	
2.39	-0.135	-0.015207789076786273	
2.395	-0.416	-0.061884531497579345	
2.4	-0.103	-0.09786066979095744	
2.405	0.000	-0.13680847723744777	
2.41	-0.405	-0.17251694152117342	
2.415	-0.228	-0.1838068265272624	
2.42	0.163	-0.183243351663833	
2.425	-0.306	-0.18404766917027005	
2.43	-0.413	-0.17914563015833312	
2.435	0.023	-0.17656990994899757	
2.44	-0.084	-0.18516296001252386	
2.445	-0.243	-0.17868183748331012	
2.45	0.548	-0.11793679363362354	
2.455	1.032	0.009200014055743715	
2.46	0.340	0.1885869496191328	
2.465	0.699	0.37508414848518457	
2.47	1.260	0.5406914517330477	
2.475	0.415	0.6650345331369661	
2.48	0.186	0.7197533903864042	
2.485	0.933	0.711300428584662	
2.49	0.507	0.67198740112087	
2.495	-0.068	0.6103478467072063	
2.5	0.631	0.5387728835599312	
2.505	0.860	0.48822342160941545	
2.51	0.156	0.47089069268303635	
2.515	0.573	0.47691576684960535	
2.52	1.327	0.5185065177013577	
2.525	0.669	0.598471559116764	
2.53	0.603	0.6878492085233153	
2.535	1.520	0.7798377171077452	
2.54	1.231	0.8852275545012487	
2.545	0.664	0.9827643879563817	
2.55	1.337	1.0532174632911424	
2.555	1.503	1.1070268572542814	
2.56	0.669	1.14255942872744	
2.565	0.933	1.1436313535313265	
2.57	1.608	1.129848697239439	
2.575	0.991	1.1281494355582096	
2.58	0.897	1.135158609971861	
2.585	1.763	1.155921770381899	
2.59	1.411	1.2024762134125802	
2.595	0.617	1.2386114084500002	
2.6	1.181	1.2263871176974068	
2.605	1.159	1.176578994828136	
2.61	0.152	1.0867113519401799	
2.615	0.229	0.9383662086929314	
2.62	0.617	0.7537264005014038	
2.625	-0.165	0.5631083375912425	
2.63	-0.335	0.3707552641532627	
2.635	-0.048	0.1825045751033652	
2.64	-0.318	0.0046992478925412876	
2.645	-0.677	-0.1509926875331721	
2.65	-0.460	-0.278589869255507	
2.655	-0.480	-0.39316374564308315	
2.66	-0.921	-0.4997689870350675	
2.665	-0.866	-0.590713228553519	
2.67	-0.645	-0.6746635006365341	
2.675	-0.992	-0.7549518518893003	
2.68	-0.995	-0.8154341114730908	
2.685	-0.863	-0.8578727212101002	
2.69	-0.993	-0.9072693449622591	
2.695	-0.995	-0.9457242734914679	
2.7	-0.995	-0.956380264957977	
2.705	-0.993	-0.9749018546929398	
2.71	-0.993	-1.0006297307472662	
2.715	-0.995	-0.9976924682122871	
2.72	-0.914	-0.9876893127569372	
2.725	-0.995	-0.9934095780454754	
2.73	-0.995	-0.9858705516586549	
2.735	-0.778	-0.9626481917495401	
2.74	-0.912	-0.9463087198333907	
2.745	-0.993	-0.9330833954660016	
2.75	-0.944	-0.9157347411342303	
2.755	-0.845	-0.917237603200369	
2.76	-0.993	-0.9271694559345667	
2.765	-0.954	-0.922691722855935	
2.77	-0.666	-0.9110463738241241	
2.775	-0.937	-0.9012033135091427	
2.78	-0.960	-0.8857161204867962	
2.785	-0.540	-0.8598963653376119	
2.79	-0.639	-0.8242693124956868	
2.795	-0.866	-0.7829016891965697	
2.8	-0.459	-0.7328624157363888	
2.805	-0.240	-0.6722663705612193	
2.81	-0.538	-0.5980093935462455	
2.815	-0.242	-0.5107736764821054	
2.82	0.577	-0.39011818682954025	
2.825	0.149	-0.22499227755655482	
2.83	0.072	-0.05274589752585269	
2.835	0.774	0.10283042745470956	
2.84	0.243	0.23286348565060416	
2.845	-0.310	0.2942407362042327	
2.85	-0.098	0.26273053320760953	
2.855	-0.165	0.16265436076141992	
2.86	-0.740	0.018435651130325546	
2.865	-0.760	-0.15500824733288077	
2.87	-0.561	-0.3375657458248683	
2.875	-0.905	-0.5085093044265392	
2.88	-0.954	-0.6465133199927537	
2.885	-0.533	-0.7387394724088125	
2.89	-0.628	-0.7819129805180183	
2.895	-0.854	-0.7841312689387343	
2.9	-0.482	-0.7566951024177233	
2.905	-0.402	-0.7105853312858658	
2.91	-0.914	-0.6689214559448283	
2.915	-0.958	-0.6611739133838694	
2.92	-0.882	-0.7031806074732094	
2.925	-0.993	-0.7780384714716201	
2.93	-0.996	-0.8452217578437401	
2.935	-0.995	-0.8964189350059677	
2.94	-0.995	-0.9498691968574698	
2.945	-0.995	-0.9875537955230501	
2.95	-0.995	-0.9950648024788618	
2.955	-0.996	-1.002921171289724	
2.96	-0.996	-1.0154205505661889	
2.965	-0.996	-1.008079688145605	
2.97	-0.996	-0.9985481069467121	
2.975	-0.996	-1.0059205286888355	
2.98	-0.996	-1.0030241834790576	
2.985	-0.996	-0.9915705200278441	
2.99	-0.995	-0.9959562581475976	
2.995	-0.996	-1.0024991430782926	
3.0	-0.995	-0.9909959813270871	
3.005	-0.995	-0.9909298300322316	
3.01	-0.995	-1.001594168056823	
3.015	-0.995	-0.995009718045098	
3.02	-0.808	-0.9792834278930933	
3.025	-0.995	-0.9701697601065045	
3.03	-0.995	-0.957238621947429	
3.035	-0.995	-0.9471227406724632	
3.04	-0.995	-0.9619934393611326	
3.045	-0.993	-0.9790348005470787	
3.05	-0.769	-0.966582109526036	
3.055	-0.423	-0.9225021769957965	
3.06	-0.520	-0.8402646646747957	
3.065	0.056	-0.6979941603335792	
3.07	1.422	-0.44841830027543356	
3.075	1.254	-0.06550067915874656	
3.08	1.392	0.3851975368199863	
3.085	2.354	0.8415504557612569	
3.09	2.172	1.2811494368750616	
3.095	1.665	1.642162086240005	
3.1	2.595	1.9045326356209933	
3.105	3.083	2.1360288842088586	
3.11	3.081	2.390390308999101	
3.115	3.075	2.654687216492174	
3.12	3.067	2.8667545928757736	
3.125	3.075	2.993359290644323	
3.13	3.075	3.0759975565052478	
3.135	3.071	3.1277632144336547	
3.14	3.072	3.130148258266093	
3.145	3.078	3.117005736474023	
3.15	3.075	3.117869283101938	
3.155	3.077	3.1060766578848638	
3.16	3.080	3.081836173964946	
3.165	3.080	3.082962081491718	
3.17	3.075	3.086388531265481	
3.175	3.080	3.070746675905587	
3.18	3.069	3.069701989465411	
3.185	3.077	3.082754987828432	
3.19	3.080	3.073923504355557	
3.195	2.446	3.036985433631188	
3.2	2.684	2.966691004159225	
3.205	2.472	2.853641618941146	
3.21	1.265	2.6675003296219537	
3.215	1.317	2.3900073744659487	
3.22	1.812	2.080670272356178	
3.225	1.110	1.8060110688906201	
3.23	0.829	1.5679321949234768	
3.235	1.601	1.3779591737258947	
3.24	1.431	1.2660838201587006	
3.245	1.171	1.2329426585564427	
3.25	2.386	1.2923135035154216	
3.255	2.849	1.4814782208658497	
3.26	1.917	1.7477255302482464	
3.265	1.873	1.9667562723488925	
3.27	2.183	2.079331404579574	
3.275	1.256	2.076661232504783	
3.28	0.964	1.9593558402233373	
3.285	1.760	1.7843875754483047	
3.29	1.531	1.6302836503642992	
3.295	0.838	1.5084740953208344	
3.3	1.454	1.4052422404415537	
3.305	1.544	1.3327172427921072	
3.31	0.400	1.2636377131817456	
3.315	0.411	1.1396011739120175	
3.32	0.811	0.9674777414688756	
3.325	-0.077	0.7749205987414512	
3.33	-0.295	0.5603025523779853	
3.335	0.076	0.34013781943328364	
3.34	-0.170	0.13844436930921675	
3.345	-0.596	-0.032277715670113755	
3.35	-0.352	-0.16907518171149336	
3.355	-0.283	-0.28441060649995664	
3.36	-0.717	-0.3799025740081789	
3.365	-0.590	-0.4474131932170968	
3.37	-0.225	-0.48987181843418043	
3.375	-0.530	-0.5117866404343876	
3.38	-0.640	-0.5114717199307306	
3.385	-0.188	-0.49324096932013045	
3.39	-0.246	-0.46755820731721887	
3.395	-0.532	-0.42996145937456515	
3.4	-0.184	-0.3822895568405632	
3.405	-0.020	-0.3366060514782858	
3.41	-0.419	-0.29663380596884564	
3.415	-0.268	-0.25943514953213365	
3.42	0.212	-0.22113856001631582	
3.425	-0.234	-0.18464115570138515	
3.43	-0.356	-0.15435368502479035	
3.435	0.058	-0.13749093417202213	
3.44	-0.115	-0.13455458168298845	
3.445	-0.492	-0.1447598415061852	
3.45	-0.199	-0.1644463857286068	
3.455	-0.095	-0.1957198169079216	
3.46	-0.533	-0.2314094563736739	
3.465	-0.408	-0.264450809052002	
3.47	-0.038	-0.29033817677854146	
3.475	-0.405	-0.3084939318402464	
3.48	-0.553	-0.31922690649396995	
3.485	-0.258	-0.3326890204877171	
3.49	-0.471	-0.3645639184848894	
3.495	-0.787	-0.4095786932784329	
3.5	-0.526	-0.4565269607826809	
3.505	-0.430	-0.5058180425412033	
3.51	-0.856	-0.5542797965934394	
3.515	-0.744	-0.5944335790254383	
3.52	-0.462	-0.6284509761602781	
3.525	-0.853	-0.663462626318355	
3.53	-0.995	-0.6991741377214258	
3.535	-0.666	-0.7337274398659691	
3.54	-0.795	-0.7745563761763099	
3.545	-0.995	-0.8075445002697899	
3.55	-0.734	-0.8185153887564663	
3.555	-0.596	-0.8198047923345784	
3.56	-0.992	-0.8183242248906948	
3.565	-0.925	-0.8134478637897318	
3.57	-0.697	-0.8183789750602752	
3.575	-0.993	-0.8415292880453457	
3.58	-0.995	-0.8612468462039834	
3.585	-0.889	-0.8755581480536517	
3.59	-0.993	-0.9095828449308424	
3.595	-0.995	-0.9427877772618635	
3.6	-0.993	-0.9503117028972677	
3.605	-0.902	-0.9636286390810131	
3.61	-0.993	-0.9817343717032074	
3.615	-0.972	-0.9723754204071245	
3.62	-0.532	-0.9428433020614139	
3.625	-0.700	-0.8999189490444767	
3.63	-0.711	-0.8286038542287005	
3.635	-0.292	-0.7358269002547477	
3.64	-0.407	-0.6486200312599502	
3.645	-0.715	-0.5766247125062527	
3.65	-0.344	-0.5147885748712027	
3.655	-0.152	-0.4680628194358495	
3.66	-0.535	-0.4296654369606585	
3.665	-0.362	-0.3874215290866556	
3.67	0.180	-0.338854887992101	
3.675	-0.168	-0.28150105759540484	
3.68	-0.257	-0.21329073029619441	
3.685	0.414	-0.1358181807337917	
3.69	0.224	-0.05353080777070653	
3.695	-0.199	0.02030854337118508	
3.7	0.426	0.08678387245774621	
3.705	0.745	0.16168698649455734	
3.71	-0.037	0.236330769282765	
3.715	0.206	0.2884054726500135	
3.72	0.903	0.32718711346953544	
3.725	0.253	0.3670415324650802	
3.73	-0.058	0.38794623144148155	
3.735	0.617	0.3809963854045907	
3.74	0.308	0.356678593985259	
3.745	-0.258	0.31642214622963766	
3.75	0.107	0.2570886393599041	
3.755	0.444	0.19230400018954708	
3.76	-0.121	0.14470664799928262	
3.765	0.159	0.1312937121529465	
3.77	0.854	0.15692547538052423	
3.775	0.143	0.20873374093341085	
3.78	0.038	0.2574471276744726	
3.785	0.991	0.30963260354151545	
3.79	0.861	0.3918474681737014	
3.795	0.197	0.4857745409508272	
3.8	0.910	0.5673075927098732	
3.805	1.144	0.6407688952152819	
3.81	0.250	0.6982107052526664	
3.815	0.437	0.7130322991106304	
3.82	1.075	0.6983841562467699	
3.825	0.339	0.672689635260955	
3.83	-0.019	0.6230663854167022	
3.835	0.637	0.5477960658583438	
3.84	0.263	0.4590270882764387	
3.845	-0.266	0.3645459412389015	
3.85	0.140	0.2692750550143872	
3.855	0.441	0.18699465959298414	
3.86	-0.207	0.12920516505126395	
3.865	-0.068	0.09493634227091462	
3.87	0.565	0.0794877825773602	
3.875	-0.080	0.07675536860943205	
3.88	-0.188	0.07898561085495287	
3.885	0.444	0.0858176107707711	
3.89	0.208	0.09511202719032288	
3.895	-0.262	0.10148790092358669	
3.9	0.192	0.10521806714435797	
3.905	0.527	0.11106516958307802	
3.91	-0.092	0.12520124411104155	
3.915	0.241	0.15585205727169804	
3.92	0.993	0.2155513989285257	
3.925	0.380	0.29883585328692097	
3.93	0.052	0.37586318664300206	
3.935	0.678	0.4187331683956013	
3.94	0.308	0.4212149548836828	
3.945	-0.268	0.3834728927415374	
3.95	0.064	0.31207161357769764	
3.955	0.285	0.21911768393370026	
3.96	-0.297	0.1273163738185668	
3.965	-0.232	0.053744918146220545	
3.97	0.273	-0.0055270891648248645	
3.975	-0.095	-0.049041920602524346	
3.98	-0.176	-0.059074416783179914	
3.985	0.460	-0.03128909406134545	
3.99	0.238	0.013259111492312174	
3.995	-0.234	0.05649438627670071	
4.0	0.278	0.0950669257496361	
4.005	0.512	0.1281515323649222	
4.01	-0.171	0.15126435903313545	
4.015	-0.040	0.16067524345331502	
4.02	0.687	0.16455213319200732	
4.025	0.099	0.17697873355343344	
4.03	-0.089	0.1937869215188147	
4.035	0.735	0.21770993305257294	
4.04	0.585	0.26039844162425	
4.045	-0.064	0.309456443526064	
4.05	0.426	0.3419271856824381	
4.055	0.683	0.3562148861588318	
4.06	-0.042	0.3573865174629148	
4.065	0.201	0.3485689299595752	
4.07	0.893	0.34647032642238557	
4.075	0.339	0.36415770360497113	
4.08	0.094	0.38880665889076066	
4.085	0.790	0.41047288862366843	
4.09	0.551	0.4294664491112501	
4.095	-0.069	0.4336604222913398	
4.1	0.379	0.4177198386977441	
4.105	0.599	0.3861128651705166	
4.11	-0.153	0.34369011609140737	
4.115	-0.034	0.2904952439998443	
4.12	0.524	0.23416268836459037	
4.125	-0.029	0.18340595866544165	
4.13	-0.190	0.14398658321267055	
4.135	0.394	0.11812404599682216	
4.14	0.181	0.1005176308499981	
4.145	-0.246	0.08801501391015923	
4.15	0.175	0.08348876466326358	
4.155	0.423	0.08393500694723452	
4.16	-0.216	0.08605175090807285	
4.165	-0.086	0.08445494005489565	
4.17	0.583	0.0868353243566802	
4.175	-0.006	0.09766131726051484	
4.18	-0.184	0.10814005150687225	
4.185	0.342	0.11273159278818276	
4.19	0.073	0.10157524416218007	
4.195	-0.341	0.0763480008450342	
4.2	-0.028	0.04319428111189583	
4.205	0.214	0.004766616082535004	
4.21	-0.339	-0.031543367668315975	
4.215	-0.248	-0.05860984451927535	
4.22	0.230	-0.08051918517495998	
4.225	-0.190	-0.0980671467605379	
4.23	-0.313	-0.1046717102163411	
4.235	0.195	-0.09760730776588006	
4.24	0.012	-0.08936886552743006	
4.245	-0.338	-0.08335360573793793	
4.25	0.032	-0.07102283676625987	
4.255	0.360	-0.0533556472197618	
4.26	-0.205	-0.029260519171936093	
4.265	-0.055	0.00031701969852966443	
4.27	0.713	0.04226968016595432	
4.275	0.359	0.1121745214428296	
4.28	0.252	0.2084089604964213	
4.285	1.254	0.3341207470467309	
4.29	1.281	0.5037761989699225	
4.295	0.698	0.693895964545464	
4.3	1.109	0.8566323819093344	
4.305	1.201	0.9634640549427673	
4.31	0.290	0.9940941964342688	
4.315	0.287	0.9381700430858151	
4.32	0.843	0.8248417612561789	
4.325	0.178	0.6945222845125119	
4.33	-0.057	0.5596371472356512	
4.335	0.741	0.44557228509414837	
4.34	0.721	0.3908762842676702	
4.345	0.307	0.39751113120697995	
4.35	1.052	0.4592607743391232	
4.355	1.576	0.5842037655162484	
4.36	0.906	0.7548777581548874	
4.365	1.071	0.9211052302495303	
4.37	1.622	1.0570581961916465	
4.375	0.970	1.1520479625076638	
4.38	0.698	1.1870750830730747	
4.385	1.454	1.1786155656183182	
4.39	1.243	1.165904934934069	
4.395	0.611	1.1464311699038932	
4.4	1.139	1.110531947282328	
4.405	1.323	1.079568355706935	
4.41	0.316	1.0369909680907001	
4.415	0.347	0.9440073979940127	
4.42	0.970	0.8238974263859093	
4.425	0.120	0.7059786403372181	
4.43	-0.723	0.5428002029663663	
4.435	-0.995	0.27104242296907405	
4.44	-0.996	-0.09607140378165525	
4.445	-0.995	-0.44990232090422777	
4.45	-0.996	-0.7083048531904983	
4.455	-0.995	-0.891512852507843	
4.46	-0.996	-1.0144426886606737	
4.465	-0.996	-1.0606485285095473	
4.47	-0.996	-1.0646950622756848	
4.475	-0.996	-1.0684668884436643	
4.48	-0.996	-1.0549571406094025	
4.485	-0.996	-1.023943804940972	
4.49	-0.996	-1.0145215408972843	
4.495	-0.996	-1.0128377765882894	
4.5	-0.996	-0.9946186891734585	
4.505	-0.996	-0.9883806979761391	
4.51	-0.996	-0.999815229612671	
4.515	-0.996	-0.9943326850940355	
4.52	-0.996	-0.9854268732052185	
4.525	-0.996	-0.99737883402779	
4.53	-0.996	-1.0004289694102266	
4.535	-0.996	-0.9892583430884715	
4.54	-0.995	-0.9947777864750084	
4.545	-0.996	-1.0035018142330911	
4.55	-0.995	-0.9925460726443053	
4.555	-0.995	-0.9906258349406868	
4.56	-0.995	-1.0028317944275806	
4.565	-0.995	-0.9961421553800008	
4.57	-0.995	-0.9873864646294848	
4.575	-0.993	-0.9986168707907039	
4.58	-0.996	-1.0004490629172307	
4.585	-0.986	-0.9869040046168946	
4.59	-0.966	-0.9909121677166819	
4.595	-0.995	-0.9959152388316462	
4.6	-0.877	-0.9771252786778017	
4.605	-0.671	-0.9483203142939807	
4.61	-0.908	-0.9165077407188476	
4.615	-0.698	-0.8670897015882087	
4.62	-0.324	-0.7976075099120932	
4.625	-0.546	-0.720112732151357	
4.63	-0.639	-0.6400141099012815	
4.635	-0.115	-0.5580388399259951	
4.64	-0.005	-0.46680858453983265	
4.645	-0.303	-0.3628566042535081	
4.65	0.363	-0.23866271170677927	
4.655	0.924	-0.07560795770748209	
4.66	0.336	0.12165421083943341	
4.665	0.762	0.3176904921973959	
4.67	1.517	0.5182956141243815	
4.675	0.958	0.723565533332498	
4.68	0.765	0.8882775660226206	
4.685	1.613	1.0095732489095082	
4.69	1.479	1.1224670689200535	
4.695	0.903	1.2154301098150921	
4.7	1.721	1.2863904464973266	
4.705	2.334	1.3879486917829604	
4.71	1.769	1.5424059672961723	
4.715	2.221	1.7203721845562903	
4.72	3.083	1.9266299023849278	
4.725	3.083	2.1837776630796806	
4.73	3.083	2.480054222557663	
4.735	3.074	2.751470512858128	
4.74	3.074	2.9325640049383255	
4.745	3.083	3.040422812839383	
4.75	3.077	3.1183248515355144	
4.755	3.075	3.144880786051952	
4.76	3.080	3.130295643935555	
4.765	3.080	3.1264794168202625	
4.77	3.077	3.1237647812132963	
4.775	3.081	3.0954179305697616	
4.78	2.864	3.0729445319262667	
4.785	3.080	3.0590808113419934	
4.79	3.080	3.032490590987475	
4.795	2.681	3.001809777276316	
4.8	3.083	2.9838681716150752	
4.805	3.078	2.970357588958702	
4.81	2.861	2.9564358451291817	
4.815	2.986	2.962492545329229	
4.82	3.078	2.976729291015637	
4.825	2.928	2.9708089102766557	
4.83	2.627	2.9582489111424737	
4.835	3.083	2.943155669685738	
4.84	2.710	2.907565176518375	
4.845	1.459	2.8045372475195958	
4.85	1.549	2.588373353449338	
4.855	1.497	2.280190773456458	
4.86	0.453	1.9183335656657206	
4.865	0.467	1.5362783707353138	
4.87	1.100	1.1879778600033046	
4.875	0.391	0.9164115863792884	
4.88	0.104	0.7104209555176262	
4.885	0.880	0.565097098525745	
4.89	0.728	0.4929048422906585	
4.895	0.085	0.46765599765927535	
4.9	0.724	0.4677730334668056	
4.905	1.153	0.49994364056387725	
4.91	0.431	0.5636665924012221	
4.915	0.614	0.629009133699954	
4.92	1.257	0.6896583819222725	
4.925	0.606	0.7411440561592457	
4.93	0.279	0.7608266185431627	
4.935	0.929	0.7475273866650085	
4.94	0.741	0.7180694982105917	
4.945	0.006	0.6730991728975539	
4.95	0.478	0.606873982345261	
4.955	0.758	0.5373226748739244	
4.96	-0.002	0.4743406414269953	
4.965	0.160	0.41585978697905046	
4.97	0.835	0.3740520476336117	
4.975	0.203	0.3541127574390409	
4.98	-0.071	0.33755530700281944	
4.985	0.580	0.31772953870976317	
4.99	0.434	0.3022245664413157	
4.995	-0.162	0.2878788988974149	
5.0	0.195	0.26586490087983683	
5.005	0.449	0.23250013480019832	
5.01	-0.155	0.19524736607654303	
5.015	-0.005	0.16475753052686742	
5.02	0.736	0.15618967478959211	
5.025	0.339	0.1821491504970942	
5.03	0.099	0.23545602732545887	
5.035	0.829	0.3027746132819593	
5.04	0.516	0.367273469011434	
5.045	-0.188	0.3977656407982497	
5.05	0.119	0.3758112396881903	
5.055	0.372	0.3105760075078786	
5.06	-0.254	0.22725117552361282	
5.065	-0.177	0.14869012243491755	
5.07	0.324	0.07919312613898048	
5.075	-0.165	0.02017374337173399	
5.08	-0.309	-0.022574221462633572	
5.085	0.263	-0.04222008605332143	
5.09	0.140	-0.04466809485551004	
5.095	-0.291	-0.03721453841230121	
5.1	0.006	-0.022162957533529714	
5.105	0.351	-0.0123811249435148	
5.11	-0.214	-0.003795143636656754	
5.115	-0.122	0.009664569845067422	
5.12	0.495	0.027268294092725447	
5.125	-0.035	0.04413539727713015	
5.13	-0.245	0.05732532219480051	
5.135	0.339	0.06585016247672108	
5.14	0.288	0.07436504484630246	
5.145	-0.184	0.08667224007592127	
5.15	0.233	0.10888489580751001	
5.155	0.537	0.13372452643173316	
5.16	-0.100	0.1540817195830326	
5.165	0.036	0.17161289161788185	
5.17	0.727	0.19142674104956742	
5.175	0.178	0.21810542227792892	
5.18	-0.038	0.24418819201111175	
5.185	0.725	0.2709657780987169	
5.19	0.553	0.30745060657705864	
5.195	-0.115	0.33650396709117697	
5.2	0.305	0.34283851623828376	
5.205	0.599	0.3288631219428495	
5.21	-0.089	0.3040595231078567	
5.215	0.017	0.2744987051645378	
5.22	0.699	0.2494879782484565	
5.225	0.046	0.23419594790599507	
5.23	-0.147	0.21710045369004888	
5.235	0.475	0.20089772158846847	
5.24	0.363	0.19256797258208264	
5.245	-0.173	0.1885470952319866	
5.25	0.201	0.18672349148837353	
5.255	0.533	0.1829044519699513	
5.26	-0.144	0.17618035365898	
5.265	-0.064	0.16738634550660458	
5.27	0.582	0.156409469653503	
5.275	0.078	0.15235653675982921	
5.28	-0.145	0.15410235160774033	
5.285	0.417	0.15773549822307226	
5.29	0.194	0.1526370544388732	
5.295	-0.306	0.13463636777716353	
5.3	0.023	0.10658472404054418	
5.305	0.383	0.07489735650212678	
5.31	-0.214	0.05033480389026522	
5.315	-0.155	0.03732623548082367	
5.32	0.380	0.028306323317459116	
5.325	-0.090	0.018461389424076886	
5.33	-0.240	0.012126816613348837	
5.335	0.307	0.01663978440847745	
5.34	0.192	0.023697204411591132	
5.345	-0.283	0.03169970992663771	
5.35	0.041	0.03750323998020427	
5.355	0.437	0.04089895970895212	
5.36	-0.168	0.04739467444818885	
5.365	-0.116	0.05927295814626136	
5.37	0.437	0.0662841596022284	
5.375	-0.075	0.06450863274605373	
5.38	-0.202	0.0600966549244046	
5.385	0.510	0.06962826082496597	
5.39	0.586	0.10877383906721713	
5.395	-0.032	0.1737035288703989	
5.4	0.360	0.2374371711694789	
5.405	0.563	0.27989620583344843	
5.41	-0.216	0.28539826069959384	
5.415	-0.234	0.24820769759120473	
5.42	0.088	0.16725282147535123	
5.425	-0.286	0.057557121233288225	
5.43	-0.471	-0.047882575538453646	
5.435	-0.119	-0.13140713301552917	
5.44	-0.156	-0.20525762122513824	
5.445	-0.469	-0.25628187233222255	
5.45	-0.184	-0.2684689550269739	
5.455	0.140	-0.26106380780468996	
5.46	-0.283	-0.239690802071934	
5.465	-0.188	-0.19570264722217462	
5.47	0.434	-0.13755265401928274	
5.475	-0.019	-0.07761771551439978	
5.48	-0.150	-0.018038624458025867	
5.485	0.537	0.046876773263857946	
5.49	0.431	0.1147407964603544	
5.495	-0.110	0.17535218837322913	
5.5	0.406	0.225677692352574	
5.505	0.817	0.27519775058377965	
5.51	0.068	0.3229861837578948	
5.515	0.282	0.3621762885820003	
5.52	1.069	0.4048087018186832	
5.525	0.605	0.4653256038795514	
5.53	0.340	0.533672655049215	
5.535	1.121	0.60307090371574	
5.54	0.993	0.6728943940890559	
5.545	0.295	0.7280969846527077	
5.55	0.817	0.7566428251217843	
5.555	1.069	0.7654063931317792	
5.56	0.279	0.7549022211707175	
5.565	0.411	0.7230153892417748	
5.57	1.049	0.6839314729368021	
5.575	0.438	0.6494054455409797	
5.58	0.065	0.6085135231042377	
5.585	0.776	0.5610378252068232	
5.59	0.696	0.5230727393119173	
5.595	0.007	0.4961078948896401	
5.6	0.356	0.4654868420734352	
5.605	0.625	0.4234648549938569	
5.61	-0.097	0.37105771673217447	
5.615	-0.055	0.3119061067929887	
5.62	0.559	0.2538257406111913	
5.625	0.062	0.2045807931416918	
5.63	-0.112	0.17256813808981353	
5.635	0.542	0.16587496427251724	
5.64	0.528	0.18313353020858164	
5.645	-0.042	0.21824462676589335	
5.65	0.458	0.2613590345769605	
5.655	0.837	0.3104318040485753	
5.66	0.068	0.35522503573134323	
5.665	0.154	0.38181715169309904	
5.67	0.898	0.39467458579005743	
5.675	0.400	0.41276163129178	
5.68	0.041	0.428606312924596	
5.685	0.695	0.43359506491356015	
5.69	0.547	0.4311945597922744	
5.695	-0.113	0.4154794624212562	
5.7	0.241	0.3811123514536199	
5.705	0.554	0.3332791984046344	
5.71	-0.110	0.2835876536786116	
5.715	-0.045	0.23680896510328753	
5.72	0.621	0.20132509070107824	
5.725	0.122	0.18400057706679254	
5.73	-0.113	0.17885544791693875	
5.735	0.426	0.1802165454168344	
5.74	0.295	0.17917660997719684	
5.745	-0.194	0.1708893686261294	
5.75	0.253	0.166906759071704	
5.755	0.842	0.1840431416854151	
5.76	0.328	0.24201357655253738	
5.765	0.621	0.33884297877913017	
5.77	1.375	0.4719036807222481	
5.775	0.785	0.6192309473568309	
5.78	0.220	0.7250704489084256	
5.785	0.655	0.7516944243890524	
5.79	0.371	0.6981473906461885	
5.795	-0.242	0.5853834358744641	
5.8	-0.051	0.4365767285584337	
5.805	0.180	0.2726656733104832	
5.81	-0.326	0.12054471253797992	
5.815	-0.283	0.0039029677011639084	
5.82	0.120	-0.07867651246786575	
5.825	-0.130	-0.13446909479235256	
5.83	-0.155	-0.14841871876925075	
5.835	0.605	-0.099677208973387	
5.84	0.576	0.0030945281223738667	
5.845	-0.078	0.11887917465989756	
5.85	0.226	0.20532023474061137	
5.855	0.628	0.2543013478321129	
5.86	-0.074	0.2759699396247254	
5.865	-0.017	0.27190670648185855	
5.87	0.641	0.25480677569850757	
5.875	0.116	0.24282452218122824	
5.88	-0.141	0.2268847423159044	
5.885	0.402	0.20870726784819726	
5.89	0.301	0.19105998496438992	
5.895	-0.229	0.17253579567963917	
5.9	-0.038	0.14298607302574523	
5.905	0.185	0.09384868165827229	
5.91	-0.312	0.03461874198141018	
5.915	-0.275	-0.019978944359663974	
5.92	0.168	-0.06488687767731152	
5.925	-0.171	-0.09986011358492382	
5.93	-0.367	-0.12159401289167676	
5.935	-0.025	-0.13489589702066068	
5.94	-0.097	-0.15309951368811173	
5.945	-0.482	-0.1757937538339085	
5.95	-0.268	-0.1972388008611068	
5.955	-0.104	-0.22463589012648105	
5.96	-0.512	-0.25987459706704963	
5.965	-0.523	-0.2928278742710245	
5.97	-0.231	-0.3274702725331141	
5.975	-0.410	-0.3676806414188908	
5.98	-0.518	-0.3901570399537961	
5.985	-0.138	-0.38428023459647653	
5.99	-0.145	-0.3662431076023908	
5.995	-0.462	-0.3413558074008878	
6.0	-0.193	-0.3053510048930683	
6.005	0.096	-0.26794058354567674	
6.01	-0.315	-0.23159747733033093	
6.015	-0.254	-0.1957259739891738	
6.02	0.218	-0.1597644905102209	
6.025	-0.182	-0.13059795695400717	
6.03	-0.414	-0.1169950533093422	
6.035	-0.071	-0.12052754642970584	
6.04	-0.104	-0.14328497715181102	
6.045	-0.453	-0.17111657078553105	
6.05	-0.229	-0.19246240212330964	
6.055	-0.097	-0.21509726360661668	
6.06	-0.570	-0.24941268750852222	
6.065	-0.662	-0.29571772232445964	
6.07	-0.402	-0.3609618143942381	
6.075	-0.619	-0.4395008204007164	
6.08	-0.737	-0.5058443082628652	
6.085	-0.336	-0.5396120932597351	
6.09	-0.333	-0.5492939047055887	
6.095	-0.697	-0.5410302375080183	
6.1	-0.466	-0.5194991494124652	
6.105	-0.295	-0.5041305859082245	
6.11	-0.657	-0.4993836370935992	
6.115	-0.601	-0.49470611811763543	
6.12	-0.213	-0.4869210549037496	
6.125	-0.349	-0.4745084088841078	
6.13	-0.401	-0.4399083676967254	
6.135	0.061	-0.37454117118333136	
6.14	0.013	-0.2982670814225904	
6.145	-0.414	-0.23019920198928334	
6.15	-0.254	-0.1854786272698373	
6.155	-0.136	-0.17898738182843982	
6.16	-0.508	-0.20855212114170482	
6.165	-0.457	-0.24578478225177228	
6.17	-0.083	-0.27865892199219217	
6.175	-0.333	-0.3065847106298737	
6.18	-0.511	-0.31917762750398476	
6.185	-0.142	-0.3183022564948992	
6.19	-0.159	-0.31613928606188246	
6.195	-0.488	-0.3105417154186556	
6.2	-0.229	-0.2943386914381977	
6.205	0.061	-0.2746215881437909	
6.21	-0.317	-0.251887441432039	
6.215	-0.255	-0.21893600079410394	
6.22	0.276	-0.17818805419899236	
6.225	-0.084	-0.1347356144724485	
6.23	-0.196	-0.09060596529451681	
6.235	0.513	-0.03187420454724657	
6.24	0.626	0.057083903978682925	
6.245	0.010	0.16091273441014292	
6.25	0.527	0.25673603972488124	
6.255	0.936	0.3468470125619709	
6.26	0.152	0.42675681717762254	
6.265	0.285	0.46975894408426655	
6.27	0.979	0.49425030710545215	
6.275	0.446	0.5193196880358582	
6.28	0.013	0.5239633024761859	
6.285	0.730	0.5042073902510495	
6.29	0.681	0.48737747737946896	
6.295	-0.043	0.47272763746640933	
6.3	0.368	0.44253595390311995	
6.305	0.647	0.4070637625598013	
6.31	-0.118	0.3658985784009634	
6.315	-0.216	0.3005217128785752	
6.32	-0.020	0.198149312639427	
6.325	-0.404	0.06055829830384266	
6.33	-0.694	-0.08701824908126365	
6.335	-0.434	-0.22700484581802463	
6.34	-0.498	-0.3625230515896223	
6.345	-0.877	-0.4790999969667393	
6.35	-0.685	-0.5645894665908231	
6.355	-0.460	-0.6279667850209305	
6.36	-0.750	-0.6709515214378114	
6.365	-0.692	-0.6784706319761364	
6.37	-0.303	-0.6578460569771141	
6.375	-0.486	-0.6283892914117152	
6.38	-0.662	-0.5860795258386549	
6.385	-0.245	-0.5329755409820824	
6.39	-0.229	-0.48446279093718203	
6.395	-0.647	-0.44526358932611937	
6.4	-0.515	-0.4176126044499891	
6.405	-0.313	-0.4198157467662638	
6.41	-0.569	-0.4421259008787496	
6.415	-0.459	-0.44657136370873385	
6.42	0.068	-0.41954120838375186	
6.425	-0.116	-0.36945841614785224	
6.43	-0.243	-0.2953789464681622	
6.435	0.486	-0.18966022356492174	
6.44	0.657	-0.05126976021730693	
6.445	0.053	0.09930138247533493	
6.45	0.686	0.24245833416648058	
6.455	1.399	0.3976496371747615	
6.46	0.900	0.582610653812524	
6.465	1.113	0.7781257541010347	
6.47	1.980	0.978823358914753	
6.475	1.653	1.1855967400947545	
6.48	1.343	1.3752221828071924	
6.485	2.110	1.5323923430745765	
6.49	2.218	1.6729667234063377	
6.495	1.611	1.797132886465707	
6.5	2.223	1.9013196695334822	
6.505	2.792	2.008815840815376	
6.51	2.064	2.1266584723185966	
6.515	1.911	2.211921068912001	
6.52	2.389	2.239729444638746	
6.525	1.641	2.204740726540806	
6.53	0.953	2.085208632499121	
6.535	1.469	1.8941471606075049	
6.54	1.008	1.6640520990354704	
6.545	-0.225	1.3813654907237782	
6.55	-0.364	1.016990831543474	
6.555	-0.445	0.5855808074276934	
6.56	-0.993	0.14113639850950715	
6.565	-0.995	-0.24896578716501191	
6.57	-0.960	-0.56465062048321	
6.575	-0.995	-0.815942773336463	
6.58	-0.993	-0.970334399340547	
6.585	-0.966	-1.0301668969156026	
6.59	-0.847	-1.055079042767603	
6.595	-0.995	-1.0542181789088825	
6.6	-0.821	-1.0079268089670739	
6.605	-0.616	-0.9486289906655625	
6.61	-0.932	-0.9029008099382186	
6.615	-0.912	-0.8569136156223438	
6.62	-0.553	-0.8176369912264243	
6.625	-0.630	-0.7891159764754099	
6.63	-0.590	-0.7404844478372796	
6.635	0.012	-0.6429088253048629	
6.64	0.215	-0.5050007581136298	
6.645	-0.249	-0.34761156231006013	
6.65	-0.011	-0.19885645484263292	
6.655	0.324	-0.08729634689684349	
6.66	-0.332	-0.02225669364218784	
6.665	-0.416	-0.00812484185839796	
6.67	-0.074	-0.0441862750605414	
6.675	-0.286	-0.1142220577767733	
6.68	-0.456	-0.1779123416056679	
6.685	0.015	-0.20953991928255483	
6.69	0.252	-0.2078109434798488	
6.695	-0.127	-0.1640981478867144	
6.7	0.400	-0.07164100731246889	
6.705	0.916	0.05920305021309855	
6.71	0.229	0.2052914250914015	
6.715	0.181	0.3246850024649347	
6.72	0.670	0.39440173537391066	
6.725	0.055	0.40756585914056176	
6.73	-0.271	0.3615272901819051	
6.735	0.067	0.2748977192357016	
6.74	0.021	0.16339126718803737	
6.745	-0.318	0.054288334873316156	
6.75	-0.009	-0.015489894666656522	
6.755	0.579	-0.03625714607219131	
6.76	-0.040	-0.011137671151396166	
6.765	0.159	0.04748680410276439	
6.77	1.179	0.14909114729484121	
6.775	1.061	0.3135367753037156	
6.78	0.780	0.5250274362150369	
6.785	1.474	0.7443064450328711	
6.79	1.460	0.9396246230732299	
6.795	0.718	1.0836698353943959	
6.8	1.026	1.1585010959735285	
6.805	1.427	1.1761577961824476	
6.81	0.673	1.1534999765657572	
6.815	0.669	1.103240467499	
6.82	1.361	1.044498202008365	
6.825	0.895	0.9974408210257117	
6.83	0.499	0.9586531276992968	
6.835	1.211	0.9296156901038267	
6.84	1.214	0.9198537975625017	
6.845	0.547	0.9233596539862878	
6.85	0.971	0.9305728766804408	
6.855	1.401	0.9414832859027634	
6.86	0.738	0.9573178318696168	
6.865	0.809	0.9730884312800199	
6.87	1.645	1.0007650909313923	
6.875	1.352	1.057457311701501	
6.88	1.075	1.1404392604421605	
6.885	1.757	1.2367191209155912	
6.89	1.685	1.3309518477494606	
6.895	0.699	1.3851486959092534	
6.9	0.907	1.364482160553098	
6.905	1.155	1.2725914538133454	
6.91	0.348	1.1322846572282357	
6.915	0.288	0.967991897053998	
6.92	0.947	0.8098147986377645	
6.925	0.554	0.6845274122538264	
6.93	0.180	0.6004033297746232	
6.935	0.822	0.5516866889908052	
6.94	0.809	0.5330312356827892	
6.945	0.058	0.5252376547106996	
6.95	0.423	0.5114593908880001	
6.955	0.916	0.4935946284709101	
6.96	0.192	0.48340165261132395	
6.965	0.163	0.4709774839345802	
6.97	0.765	0.4516582947227792	
6.975	0.310	0.42856698305479046	
6.98	-0.051	0.39849521283666456	
6.985	0.574	0.3705225237546603	
6.99	0.652	0.35499214525215506	
6.995	0.036	0.35446025316204777	
7.0	0.482	0.368399364863682	
7.005	0.897	0.39541252421995693	
7.01	0.124	0.4225803435220558	
7.015	0.160	0.43202877740507867	
7.02	0.834	0.4314132298050954	
7.025	0.371	0.4286890379617469	
7.03	0.000	0.4216888148099487	
7.035	0.644	0.4102446340780176	
7.04	0.661	0.40495221358309513	
7.045	-0.060	0.4007775791612953	
7.05	0.301	0.386193930980233	
7.055	0.707	0.3661566923305056	
7.06	-0.005	0.3449711460673431	
7.065	-0.023	0.315079736117704	
7.07	0.576	0.28096330596749575	
7.075	0.076	0.24591816626288238	
7.08	-0.229	0.20503005869109495	
7.085	0.215	0.16278335275654898	
7.09	0.180	0.11587012550531738	
7.095	-0.268	0.07130977152637172	
7.1	-0.072	0.038974676402717005	
7.105	0.217	0.006774236002920061	
7.11	-0.219	-0.025575214053271532	
7.115	-0.162	-0.04179915788452984	
7.12	0.443	-0.0324955291462798	
7.125	0.044	-0.007882097154084035	
7.13	-0.176	0.021344550456683438	
7.135	0.342	0.05540770813722879	
7.14	0.411	0.09082579639854012	
7.145	-0.164	0.12468501701923641	
7.15	0.036	0.14473878050652156	
7.155	0.464	0.1455279972395005	
7.16	-0.124	0.13679827023187643	
7.165	-0.164	0.12218265517451454	
7.17	0.197	0.09408633184928272	
7.175	-0.145	0.04632933272205039	
7.18	-0.407	-0.010392811843201214	
7.185	-0.077	-0.061946543184270994	
7.19	-0.054	-0.11722289083990961	
7.195	-0.446	-0.1649477595761601	
7.2	-0.283	-0.19437923876940977	
7.205	-0.045	-0.22069189871494607	
7.21	-0.396	-0.24997164746099182	
7.215	-0.384	-0.26174114740355947	
7.22	-0.025	-0.26108781014462207	
7.225	-0.226	-0.2626098769151527	
7.23	-0.433	-0.2583026890823097	
7.235	-0.083	-0.24201046470066298	
7.24	0.013	-0.22823027686591327	
7.245	-0.248	-0.2069494862052763	
7.25	0.107	-0.1553576588566623	
7.255	0.672	-0.07058803522733337	
7.26	0.000	0.029947830930617553	
7.265	-0.080	0.11311828131915008	
7.27	0.363	0.15602536367188133	
7.275	-0.119	0.15239841579238744	
7.28	-0.394	0.10848656733936629	
7.285	-0.063	0.04406396866551876	
7.29	-0.049	-0.034064505993041186	
7.295	-0.459	-0.10913808143265183	
7.3	-0.327	-0.16443090024868573	
7.305	-0.078	-0.21538128224148465	
7.31	-0.291	-0.2581407631461523	
7.315	-0.165	-0.25696846572789	
7.32	0.629	-0.19462493051995414	
7.325	0.403	-0.07956554689718676	
7.33	0.114	0.061166213063576114	
7.335	1.037	0.21829334478793852	
7.34	1.239	0.40119782398837467	
7.345	0.553	0.5904689447428744	
7.35	0.968	0.748461919971029	
7.355	1.433	0.8709967263756185	
7.36	0.750	0.9586991720071976	
7.365	0.631	1.001642557058997	
7.37	1.349	1.0085634124931369	
7.375	0.994	1.003604655025637	
7.38	0.533	0.9928934570872232	
7.385	1.219	0.978235290588497	
7.39	1.271	0.9734336145549437	
7.395	0.475	0.9724286421080812	
7.4	0.828	0.9542877738005681	
7.405	1.301	0.9291280663523074	
7.41	0.582	0.9078740624379094	
7.415	0.513	0.8795108789702488	
7.42	1.236	0.849467935721343	
7.425	0.811	0.8318177967325445	
7.43	0.270	0.8119306270096636	
7.435	0.877	0.7769512518512895	
7.44	0.880	0.7394974668160992	
7.445	0.068	0.6937198669899394	
7.45	0.366	0.6280507871379917	
7.455	0.813	0.5559155558150868	
7.46	0.134	0.49428229284669256	
7.465	0.079	0.4375396040499772	
7.47	0.768	0.3930036338685391	
7.475	0.388	0.37007957804421787	
7.48	-0.025	0.3583144163394954	
7.485	0.496	0.34644886239492023	
7.49	0.431	0.33038614422995954	
7.495	-0.200	0.30032377060088417	
7.5	0.018	0.25179518118838207	
7.505	0.617	0.2044377684051697	
7.51	0.053	0.18287817126602818	
7.515	0.013	0.18370821153253608	
7.52	0.683	0.19927421383188984	
7.525	0.263	0.22633309908613833	
7.53	-0.133	0.24589830121778136	
7.535	0.339	0.2447891120553691	
7.54	0.336	0.230158629094891	
7.545	-0.286	0.20016116853248395	
7.55	-0.187	0.14751760766445898	
7.555	-0.037	0.06468661259265805	
7.56	-0.471	-0.04145431159475948	
7.565	-0.500	-0.1449694432779933	
7.57	-0.159	-0.23059259704772553	
7.575	-0.379	-0.3034492470828921	
7.58	-0.628	-0.3563392246426327	
7.585	-0.318	-0.3878256551621797	
7.59	-0.245	-0.4111682583461122	
7.595	-0.608	-0.42502164723230124	
7.6	-0.446	-0.42360849683358076	
7.605	-0.193	-0.42095472371605425	
7.61	-0.494	-0.42192544573260304	
7.615	-0.430	-0.4096764422323754	
7.62	0.146	-0.3712471144504256	
7.625	0.067	-0.30330714479187637	
7.63	-0.106	-0.2077981023725099	
7.635	0.600	-0.08427889708410197	
7.64	0.675	0.06562048206768673	
7.645	-0.064	0.20152747953011121	
7.65	0.127	0.27813305886867923	
7.655	0.618	0.3045498318092116	
7.66	0.087	0.3106433440262518	
7.665	0.175	0.30946694307092826	
7.67	0.929	0.3260263577358964	
7.675	0.252	0.364997809525992	
7.68	-0.605	0.3517082920229289	
7.685	-0.992	0.20680108398406769	
7.69	-0.995	-0.07565498182196484	
7.695	-0.996	-0.3943749083678857	
7.7	-0.996	-0.6490207492922814	
7.705	-0.996	-0.8352752052664792	
7.71	-0.996	-0.9726273106963269	
7.715	-0.996	-1.0370438031173204	
7.72	-0.996	-1.0508828325679627	
7.725	-0.996	-1.0609946106684662	
7.73	-0.996	-1.0564078549134117	
7.735	-0.995	-1.0274070010387275	
7.74	-0.995	-1.0151095861691086	
7.745	-0.995	-1.015000845493446	
7.75	-0.995	-0.9979065132694399	
7.755	-0.821	-0.97967305918539	
7.76	-0.993	-0.9716531318864936	
7.765	-0.928	-0.9528240208253188	
7.77	-0.523	-0.9139266828237397	
7.775	-0.659	-0.8611457406984242	
7.78	-0.857	-0.8023811198443704	
7.785	-0.523	-0.744277588955309	
7.79	-0.497	-0.6961540688572785	
7.795	-0.834	-0.6631504125155805	
7.8	-0.657	-0.6408288537238682	
7.805	-0.385	-0.6265538330646762	
7.81	-0.700	-0.6167959709831908	
7.815	-0.625	-0.6028822711956756	
7.82	-0.205	-0.5727507934444902	
7.825	-0.332	-0.5301826742455702	
7.83	-0.533	-0.4775422122849567	
7.835	-0.179	-0.4211386377880245	
7.84	-0.109	-0.3690539744907865	
7.845	-0.465	-0.3263478366489235	
7.85	-0.243	-0.2898125193499228	
7.855	0.162	-0.25234299004322935	
7.86	-0.213	-0.20891902373252108	
7.865	-0.182	-0.16302727075354415	
7.87	0.707	-0.09254012595017526	
7.875	0.829	0.0399073595785999	
7.88	0.848	0.24331320472537357	
7.885	2.103	0.527955906593274	
7.89	2.795	0.9251802100822267	
7.895	2.565	1.4116309758044354	
7.9	3.078	1.9130146308725724	
7.905	3.071	2.351613257612809	
7.91	3.072	2.6861250889615533	
7.915	3.071	2.9278829337233563	
7.92	3.064	3.0842873747478063	
7.925	3.067	3.143855652236775	
7.93	3.075	3.157317027173506	
7.935	3.074	3.1639022832913053	
7.94	3.080	3.1430458544598396	
7.945	2.074	3.063462041053243	
7.95	2.038	2.9010788846023	
7.955	2.212	2.673814694992661	
7.96	1.312	2.4110332775084604	
7.965	1.046	2.1157990387199614	
7.97	1.544	1.8195666606262242	
7.975	1.016	1.561982298611626	
7.98	0.397	1.327109632739492	
7.985	0.990	1.111891587708171	
7.99	1.112	0.9543216575754959	
7.995	0.386	0.8555866923253732	
8.0	0.664	0.7809102494328912	
8.005	1.149	0.7348154869550072	
8.01	0.333	0.7133536495494888	
8.015	0.015	0.6616982897769546	
8.02	0.460	0.563114240143535	
8.025	-0.026	0.43923306352851027	
8.03	-0.425	0.294466757068852	
8.035	-0.197	0.13332796871660876	
8.04	-0.176	-0.022856129754692252	
8.045	-0.598	-0.1587209243535589	
8.05	-0.529	-0.2713114449978292	
8.055	-0.326	-0.3648253157668188	
8.06	-0.854	-0.45204190918300624	
8.065	-0.993	-0.5449622422004701	
8.07	-0.952	-0.6546713230486663	
8.075	-0.993	-0.7796172009583963	
8.08	-0.995	-0.8807774330035073	
8.085	-0.993	-0.9381738255954328	
8.09	-0.995	-0.9832655528007481	
8.095	-0.995	-1.0160375519998666	
8.1	-0.995	-1.0173168914012196	
8.105	-0.995	-1.0114419263022367	
8.11	-0.995	-1.0177357050638098	
8.115	-0.995	-1.011578945940121	
8.12	-0.995	-0.9960634071124799	
8.125	-0.993	-0.9997417672328589	
8.13	-0.995	-1.002474063246889	
8.135	-0.995	-0.9892272140388227	
8.14	-0.993	-0.9894790422008517	
8.145	-0.995	-0.9999976288789869	
8.15	-0.995	-0.992178181184542	
8.155	-0.990	-0.9864486208087763	
8.16	-0.995	-0.9979299221167749	
8.165	-0.995	-0.9965529990678428	
8.17	-0.889	-0.9817634669160632	
8.175	-0.992	-0.9789119824918068	
8.18	-0.995	-0.9767992964931207	
8.185	-0.921	-0.9628166703357646	
8.19	-0.859	-0.9543032006892478	
8.195	-0.995	-0.9526054463615884	
8.2	-0.989	-0.9400205646247329	
8.205	-0.715	-0.9278331782455285	
8.21	-0.975	-0.9214834094473928	
8.215	-0.949	-0.9089042322687385	
8.22	-0.575	-0.882931155717419	
8.225	-0.674	-0.8490224009107828	
8.23	-0.851	-0.8056083596907586	
8.235	-0.503	-0.7531941327023948	
8.24	-0.396	-0.6998305772853111	
8.245	-0.743	-0.6495484972735979	
8.25	-0.566	-0.6029417652524935	
8.255	-0.309	-0.5679271287215466	
8.26	-0.616	-0.5441398108222646	
8.265	-0.628	-0.5254382819411905	
8.27	-0.268	-0.5059463667194728	
8.275	-0.410	-0.49010978881725925	
8.28	-0.660	-0.47557556905424403	
8.285	-0.349	-0.4595138325994376	
8.29	-0.274	-0.4502774985449944	
8.295	-0.617	-0.4445928687819374	
8.3	-0.477	-0.43584390467440454	
8.305	-0.242	-0.43190483050477346	
8.31	-0.543	-0.43687636550895204	
8.315	-0.555	-0.43801944271531734	
8.32	-0.171	-0.42780472284437154	
8.325	-0.320	-0.41721484226960537	
8.33	-0.572	-0.4016856018551249	
8.335	-0.197	-0.3776983575596152	
8.34	-0.060	-0.35162455622584	
8.345	-0.434	-0.3238356049473744	
8.35	-0.255	-0.28673566048576	
8.355	0.232	-0.2446738376798765	
8.36	-0.171	-0.1977335373365598	
8.365	-0.109	-0.13873815226294092	
8.37	0.906	-0.045451913263550754	
8.375	0.860	0.1077657055362638	
8.38	0.600	0.30904451476149225	
8.385	1.301	0.5271164092960748	
8.39	1.369	0.7381143944780463	
8.395	0.469	0.8978371732277937	
8.4	0.707	0.970198307128443	
8.405	1.228	0.9735246565147055	
8.41	0.510	0.9425635997328338	
8.415	0.426	0.8864975632346948	
8.42	1.307	0.8356107711717434	
8.425	1.074	0.8258301537417089	
8.43	0.632	0.852003252405962	
8.435	1.453	0.9066697496706734	
8.44	1.752	0.9998244837742821	
8.445	1.104	1.1230459242026343	
8.45	1.553	1.2521399771284505	
8.455	2.090	1.3803822561750696	
8.46	1.359	1.4911538005112663	
8.465	1.197	1.5579065539539505	
8.47	1.885	1.5812469649815433	
8.475	1.547	1.5799208626560948	
8.48	1.048	1.5612855567539774	
8.485	1.720	1.5359405044500885	
8.49	1.888	1.5243044136794355	
8.495	1.007	1.5174955429431245	
8.5	1.226	1.4939634917476865	
8.505	1.738	1.45095946484316	
8.51	1.031	1.4010123947014097	
8.515	0.900	1.3455153761365346	
8.52	1.509	1.2896592289084345	
8.525	1.213	1.2380922559478724	
8.53	0.621	1.1888357227338902	
8.535	1.158	1.138042327306219	
8.54	1.301	1.087642368966169	
8.545	0.499	1.039195870331253	
8.55	0.770	0.9888486955075105	
8.555	1.269	0.9383411240818574	
8.56	0.515	0.8909092171722126	
8.565	0.258	0.8322085933644833	
8.57	0.991	0.7629157305392731	
8.575	0.644	0.6972252850223074	
8.58	-0.008	0.6365338859531005	
8.585	0.568	0.5700887443802053	
8.59	0.625	0.5028762042246651	
8.595	-0.103	0.43602830519467134	
8.6	0.064	0.3677394612062844	
8.605	0.620	0.3025423770145262	
8.61	0.021	0.24890919473122763	
8.615	-0.011	0.21708447497829894	
8.62	0.884	0.2220501881505046	
8.625	0.675	0.27332193996950016	
8.63	0.181	0.35340224079298244	
8.635	0.965	0.44608649137762235	
8.64	1.237	0.5540142211915159	
8.645	0.530	0.6679845036565917	
8.65	0.761	0.764610602617602	
8.655	1.291	0.8305785067769548	
8.66	0.666	0.8689665688191158	
8.665	0.562	0.8839752991053077	
8.67	1.253	0.8889585230574053	
8.675	0.858	0.8853969784982909	
8.68	0.275	0.8644051616558696	
8.685	0.843	0.8249504369018854	
8.69	1.031	0.7800468829895595	
8.695	0.226	0.7391159615877319	
8.7	0.522	0.6975275195386408	
8.705	1.101	0.6635324502602935	
8.71	0.478	0.6461619380478042	
8.715	0.330	0.6389729890685938	
8.72	1.026	0.6367607908835771	
8.725	0.660	0.6365246265027364	
8.73	0.097	0.625568081539188	
8.735	0.820	0.6077268027775369	
8.74	1.113	0.6090289746973219	
8.745	0.571	0.6434305340580436	
8.75	1.075	0.718417401806628	
8.755	1.908	0.8413150797907601	
8.76	1.236	1.0044656980499018	
8.765	0.955	1.1550008052131249	
8.77	1.515	1.2503005048906695	
8.775	0.990	1.2736547641184055	
8.78	0.209	1.2158904622366828	
8.785	0.589	1.0802773211774417	
8.79	0.652	0.8988422355029789	
8.795	-0.086	0.7079629619012755	
8.8	0.081	0.5302620395130332	
8.805	0.634	0.3838065869493546	
8.81	0.026	0.2799352368265927	
8.815	-0.066	0.21432964310260272	
8.82	0.570	0.18375145598274212	
8.825	0.142	0.169794265136953	
8.83	-0.263	0.15249073191441864	
8.835	0.029	0.12385966776092797	
8.84	0.110	0.07353731227323503	
8.845	-0.315	0.01356638747044435	
8.85	-0.155	-0.02881375466115192	
8.855	0.273	-0.05474860937434216	
8.86	-0.220	-0.0736989497989274	
8.865	-0.356	-0.08442440965924267	
8.87	0.012	-0.09879454078120196	
8.875	-0.171	-0.13015290495323528	
8.88	-0.437	-0.16304663462554575	
8.885	-0.118	-0.1794111799794159	
8.89	-0.011	-0.19466985688264735	
8.895	-0.430	-0.2100751383451151	
8.9	-0.246	-0.2108528738155353	
8.905	0.429	-0.18901758335047472	
8.91	0.039	-0.13647654503607662	
8.915	0.003	-0.054294653827552226	
8.92	0.722	0.04997804609750639	
8.925	0.515	0.16291049980446157	
8.93	0.029	0.2651008757241761	
8.935	0.585	0.34237301249774843	
8.94	0.696	0.39627944296110806	
8.945	-0.071	0.42013703670045754	
8.95	0.111	0.40398768241347816	
8.955	0.562	0.36076606599106764	
8.96	-0.069	0.3037630731894493	
8.965	-0.216	0.23773428081343945	
8.97	0.266	0.1676522551166576	
8.975	-0.006	0.09806655440407595	
8.98	-0.358	0.03438311469045222	
8.985	-0.074	-0.016912147495415683	
8.99	0.104	-0.06579187831305253	
8.995	-0.271	-0.10147000269006745	
9.0	-0.061	-0.10507584343677948	
9.005	0.577	-0.07247052632090215	
9.01	0.081	-0.010969237495268333	
9.015	-0.046	0.060818384506807564	
9.02	0.715	0.1343526627474466	
9.025	0.475	0.21317751268669638	
9.03	-0.087	0.2795850394695496	
9.035	0.426	0.3157866570101777	
9.04	0.614	0.33213766663791294	
9.045	-0.098	0.33285945042355947	
9.05	0.015	0.309720947887416	
9.055	0.467	0.26618933429134695	
9.06	-0.130	0.21139175285004957	
9.065	-0.277	0.14995215273654564	
9.07	0.070	0.07986772917203007	
9.075	-0.141	0.0013013770183236558	
9.08	-0.466	-0.07496223571133026	
9.085	-0.197	-0.136542533073176	
9.09	-0.075	-0.19207319519147162	
9.095	-0.477	-0.2376585039551298	
9.1	-0.434	-0.26730304835849417	
9.105	-0.171	-0.29621465350002185	
9.11	-0.533	-0.337356627785972	
9.115	-0.668	-0.37582080159790626	
9.12	-0.286	-0.40845716129048637	
9.125	-0.310	-0.437695358293449	
9.13	-0.511	-0.44266520370379847	
9.135	-0.196	-0.4136687562813945	
9.14	-0.133	-0.37724269531245047	
9.145	-0.595	-0.3545203335516287	
9.15	-0.570	-0.349289471639814	
9.155	-0.385	-0.3733438539719006	
9.16	-0.674	-0.430343323032328	
9.165	-0.744	-0.48575608817074756	
9.17	-0.431	-0.5274375267421887	
9.175	-0.562	-0.5667474985963807	
9.18	-0.763	-0.5947478390459064	
9.185	-0.258	-0.5865558118249763	
9.19	0.119	-0.5341126892564148	
9.195	-0.214	-0.43766385308699185	
9.2	-0.016	-0.30727756759373376	
9.205	0.617	-0.1630892189279889	
9.21	0.105	-0.022474123838491403	
9.215	-0.013	0.0960050043789858	
9.22	0.808	0.1937908442294025	
9.225	0.759	0.29835926393626155	
9.23	0.284	0.4089718445565693	
9.235	0.930	0.5124441592236024	
9.24	1.196	0.6160603614792111	
9.245	0.484	0.7121812608551976	
9.25	0.842	0.7845798013145826	
9.255	1.537	0.8520588992928414	
9.26	0.935	0.9306214839767631	
9.265	0.664	0.991880435039351	
9.27	1.165	1.014683109898219	
9.275	0.559	0.9844334479183605	
9.28	-0.167	0.8799801523875843	
9.285	0.111	0.7022319871368259	
9.29	0.279	0.4940787756154497	
9.295	-0.239	0.3044794840439328	
9.3	-0.116	0.1565070887337718	
9.305	0.347	0.05583420808313601	
9.31	-0.170	-0.006119645106183037	
9.315	-0.307	-0.042964640415614735	
9.32	0.065	-0.06961544805229114	
9.325	-0.002	-0.09446967825671204	
9.33	-0.168	-0.10063067125565614	
9.335	0.676	-0.04889847427036931	
9.34	1.335	0.09496373334635577	
9.345	1.123	0.3388065307078741	
9.35	1.819	0.6614675294138974	
9.355	2.705	1.0485475397496509	
9.36	2.308	1.4651011301506112	
9.365	2.206	1.8461058913739046	
9.37	2.893	2.1519521531876893	
9.375	2.695	2.3826060351892147	
9.38	2.099	2.528659364241671	
9.385	2.623	2.5926082916261373	
9.39	2.751	2.6057016071668593	
9.395	1.839	2.5753088059688864	
9.4	1.819	2.480224369880335	
9.405	2.245	2.338934532206238	
9.41	1.500	2.1796722291295354	
9.415	1.036	1.9934639498690756	
9.42	1.422	1.7801677180134055	
9.425	0.761	1.54578674104821	
9.43	-0.168	1.2674853393956307	
9.435	-0.173	0.9259208490217381	
9.44	-0.361	0.5422309725773892	
9.445	-0.972	0.15239907333616964	
9.45	-0.995	-0.20580097353348198	
9.455	-0.993	-0.5210467459442045	
9.46	-0.995	-0.7795864939046024	
9.465	-0.995	-0.9418165988460827	
9.47	-0.995	-1.0178198782248007	
9.475	-0.995	-1.0642456372064957	
9.48	-0.995	-1.0794666114753464	
9.485	-0.995	-1.055496594133058	
9.49	-0.995	-1.0364084929053663	
9.495	-0.993	-1.0329138357281265	
9.5	-0.995	-1.0116547227960129	
9.505	-0.989	-0.9917367551851186	
9.51	-0.993	-0.9984753039782895	
9.515	-0.993	-0.9954722268386694	
9.52	-0.937	-0.9781280641696067	
9.525	-0.993	-0.980408488051126	
9.53	-0.993	-0.9852696324570571	
9.535	-0.993	-0.974454150991857	
9.54	-0.984	-0.9765083739660845	
9.545	-0.995	-0.9930099714791453	
9.55	-0.995	-0.9875488996897002	
9.555	-0.776	-0.9715363814953875	
9.56	-0.932	-0.9607074916066063	
9.565	-0.957	-0.9396425320179204	
9.57	-0.570	-0.8996913186267693	
9.575	-0.581	-0.8504179939993313	
9.58	-0.799	-0.7917820387529493	
9.585	-0.477	-0.7231210839321573	
9.59	-0.271	-0.6531098526908792	
9.595	-0.569	-0.5856187648718993	
9.6	-0.420	-0.515626558753233	
9.605	0.267	-0.43284037754389115	
9.61	0.328	-0.3089979537808153	
9.615	0.713	-0.11107997630192837	
9.62	1.818	0.18701065743682066	
9.625	1.596	0.5587064139676396	
9.63	0.788	0.8993906529393553	
9.635	1.136	1.118028247390813	
9.64	1.271	1.2143975997098417	
9.645	0.547	1.2168315969526686	
9.65	0.761	1.1521153812000953	
9.655	1.367	1.0727562884425823	
9.66	0.893	1.0199138128300151	
9.665	0.661	0.9863665484961514	
9.67	1.136	0.9582093286659932	
9.675	0.875	0.9289765248224581	
9.68	0.227	0.8801260493579828	
9.685	0.603	0.8010592670937686	
9.69	0.751	0.7107592845524191	
9.695	-0.013	0.6157657465500596	
9.7	0.012	0.5038971006609035	
9.705	0.484	0.3859007148537381	
9.71	-0.078	0.27902620700225655	
9.715	-0.278	0.1821881204016535	
9.72	0.059	0.09016786121927062	
9.725	-0.086	0.0021641925668867495	
9.73	-0.399	-0.07185631403543564	
9.735	-0.191	-0.1260590541655563	
9.74	-0.086	-0.174177859340593	
9.745	-0.449	-0.21814722569090872	
9.75	-0.437	-0.25116952926103087	
9.755	-0.239	-0.28711674486343397	
9.76	-0.535	-0.3359538402305079	
9.765	-0.659	-0.3848538623554703	
9.77	-0.321	-0.4227771408196584	
9.775	-0.365	-0.45380595719737615	
9.78	-0.633	-0.4699796452535982	
9.785	-0.364	-0.46499782339457213	
9.79	-0.200	-0.4530472915338697	
9.795	-0.520	-0.43933115596244393	
9.8	-0.408	-0.41220694546334435	
9.805	-0.054	-0.3808454214659568	
9.81	-0.262	-0.34907359486911704	
9.815	-0.251	-0.3030744839146691	
9.82	0.360	-0.226456383462723	
9.825	0.333	-0.12472932081415762	
9.83	-0.116	-0.017399709679613077	
9.835	0.353	0.07913115778756803	
9.84	0.655	0.16428800290124704	
9.845	0.087	0.24031120684246554	
9.85	0.295	0.2996277078479165	
9.855	0.887	0.35358768752990644	
9.86	0.290	0.4038389129898396	
9.865	-0.003	0.4265051230863449	
9.87	0.753	0.42375965570793445	
9.875	0.758	0.4335156206632417	
9.88	0.299	0.46832902925191505	
9.885	0.938	0.5250946881284126	
9.89	1.352	0.6145878724595096	
9.895	0.586	0.7232651952357017	
9.9	0.567	0.8003714510690485	
9.905	0.950	0.8216285864396482	
9.91	0.301	0.7889917803983519	
9.915	-0.064	0.699403514759268	
9.92	0.318	0.5666016785488394	
9.925	0.036	0.4096226759138654	
9.93	-0.375	0.2494277726085218	
9.935	-0.150	0.10491625004967323	
9.94	0.017	-0.020454843870181247	
9.945	-0.324	-0.11550811275791163	
9.95	-0.211	-0.16560103264060108	
9.955	0.282	-0.1724541364537552	
9.96	-0.138	-0.1538593372408294	
9.965	-0.297	-0.1255237300136099	
9.97	0.087	-0.1015196587158302	
9.975	-0.043	-0.09235005578689107	
9.98	-0.394	-0.09750984600674212	
9.985	-0.184	-0.10918323047614859	
9.99	0.058	-0.13147704957109163	
9.995	-0.307	-0.15245743295572856	
10.0	-0.196	-0.15466274282721532	
10.005	0.281	-0.1384765549262177	
10.01	-0.086	-0.11181480148087788	
10.015	-0.225	-0.079557989520907	
10.02	0.261	-0.044509914413032446	
10.025	0.062	-0.016295249539737995	
10.03	-0.304	-0.004582296533847553	
10.035	-0.008	-0.004203157811010079	
10.04	0.235	-0.010364969348077409	
10.045	-0.257	-0.019514708654792694	
10.05	-0.162	-0.02678298688829041	
10.055	0.324	-0.028360267585930188	
10.06	-0.109	-0.026762387382452846	
10.065	-0.254	-0.02372493091753631	
10.07	0.226	-0.018467889638661812	
10.075	0.136	-0.012128036059129875	
10.08	-0.262	-0.00370171897034417	
10.085	-0.014	0.0017139094187838023	
10.09	0.308	0.0018092928349629992	
10.095	-0.194	0.002461967710193897	
10.1	-0.087	0.009064915661593545	
10.105	0.437	0.022763749750962167	
10.11	-0.020	0.040308633071653666	
10.115	-0.177	0.05510177756377169	
10.12	0.406	0.07156778960347082	
10.125	0.385	0.09903340768781893	
10.13	-0.129	0.1341814930648474	
10.135	0.244	0.16262009761691934	
10.14	0.588	0.18796862415033752	
10.145	-0.023	0.2114697712423783	
10.15	0.113	0.22889406858807915	
10.155	0.727	0.24682056497586127	
10.16	0.198	0.27245529273823	
10.165	-0.052	0.2869814027055685	
10.17	0.501	0.2864386356984525	
10.175	0.424	0.2821858336067943	
10.18	-0.136	0.27524702721132704	
10.185	0.171	0.2554149228541517	
10.19	0.447	0.22597799065916468	
10.195	-0.130	0.19469450788418186	
10.2	-0.068	0.1627809908580285	
10.205	0.519	0.13863655514250914	
10.21	0.059	0.12869107576601407	
10.215	-0.116	0.1270825011991254	
10.22	0.684	0.14417073715868411	
10.225	0.843	0.20830475345255328	
10.23	0.408	0.3215621805417903	
10.235	1.138	0.4651673184318091	
10.24	1.780	0.6538448453677884	
10.245	1.508	0.8941439094917555	
10.25	1.983	1.173732586132188	
10.255	2.861	1.4881965344519956	
10.26	2.601	1.825028958068448	
10.265	2.482	2.143339781174712	
10.27	3.078	2.4115272470034657	
10.275	3.080	2.626247966136914	
10.28	2.209	2.7671212982542315	
10.285	2.456	2.8026734443762233	
10.29	2.649	2.751317422493292	
10.295	1.822	2.643836821209966	
10.3	1.888	2.4927587198706966	
10.305	2.545	2.3423556357957556	
10.31	2.221	2.2435565132479427	
10.315	2.612	2.226088049451655	
10.32	3.074	2.3067314943475186	
10.325	3.066	2.455149176764891	
10.33	3.069	2.6331744482925363	
10.335	3.064	2.8172764312745335	
10.34	3.061	2.9505753194410165	
10.345	3.067	3.0236741152355515	
10.35	3.067	3.0779811230049035	
10.355	3.066	3.109422350011668	
10.36	3.069	3.1027769326853525	
10.365	3.072	3.0946442519715163	
10.37	3.067	3.1001145352515573	
10.375	3.069	3.086913667061803	
10.38	3.075	3.069739831239401	
10.385	3.078	3.07721159196108	
10.39	3.075	3.07826415450481	
10.395	2.553	3.0408773371368385	
10.4	2.337	2.9570453795338514	
10.405	2.750	2.837262263623057	
10.41	1.995	2.693842836386689	
10.415	1.246	2.496625420248381	
10.42	1.586	2.2319453381360477	
10.425	1.236	1.9410270292440743	
10.43	0.360	1.6358549419250978	
10.435	0.664	1.3199645473831143	
10.44	0.855	1.0362825464739651	
10.445	0.065	0.8053188088591432	
10.45	0.064	0.6009364618217691	
10.455	0.640	0.43487725930544796	
10.46	0.064	0.3243110639411386	
10.465	-0.164	0.23896457491882334	
10.47	0.122	0.1593020936945105	
10.475	-0.011	0.08507431142166748	
10.48	-0.387	0.012591840828464939	
10.485	-0.229	-0.05952917038451582	
10.49	-0.130	-0.12926942472190645	
10.495	-0.559	-0.20088292639275163	
10.5	-0.613	-0.27602913055285594	
10.505	-0.356	-0.35404479801200517	
10.51	-0.657	-0.4312309983603925	
10.515	-0.883	-0.5064175400619338	
10.52	-0.640	-0.5795505648175634	
10.525	-0.695	-0.6490193625293994	
10.53	-0.993	-0.7084819778517188	
10.535	-0.966	-0.7639966959176299	
10.54	-0.880	-0.826923647053847	
10.545	-0.993	-0.8870229409580846	
10.55	-0.995	-0.9238560030643307	
10.555	-0.995	-0.9489590675850551	
10.56	-0.993	-0.9808743038433674	
10.565	-0.995	-0.9977424520334216	
10.57	-0.993	-0.9952423570856354	
10.575	-0.993	-1.0012638747803524	
10.58	-0.995	-1.0077403686957234	
10.585	-0.993	-0.9981716916974925	
10.59	-0.993	-0.9934637189952268	
10.595	-0.995	-1.0006082194286	
10.6	-0.995	-0.9966459819520438	
10.605	-0.961	-0.9874088501843781	
10.61	-0.995	-0.9908216817417554	
10.615	-0.995	-0.9914404588368574	
10.62	-0.876	-0.9774296923996711	
10.625	-0.770	-0.958374978734634	
10.63	-0.983	-0.9345554464211184	
10.635	-0.669	-0.898185800394061	
10.64	-0.382	-0.8395370357256621	
10.645	-0.651	-0.7615204722412958	
10.65	-0.605	-0.6816679739028613	
10.655	-0.307	-0.6114881851229923	
10.66	-0.602	-0.5577488032755502	
10.665	-0.862	-0.5374601772007348	
10.67	-0.549	-0.5515826258468493	
10.675	-0.553	-0.579300792421974	
10.68	-0.828	-0.6054197455468734	
10.685	-0.588	-0.6263534257570781	
10.69	-0.350	-0.630615051291914	
10.695	-0.604	-0.6122818453271988	
10.7	-0.494	-0.578691515683422	
10.705	-0.113	-0.5287079893633702	
10.71	-0.434	-0.4695479377363362	
10.715	-0.871	-0.43831262250994585	
10.72	-0.899	-0.4759460496932085	
10.725	-0.993	-0.5803466419201944	
10.73	-0.995	-0.709045294850855	
10.735	-0.995	-0.816493197495413	
10.74	-0.993	-0.9019026594658568	
10.745	-0.995	-0.969989147875864	
10.75	-0.995	-1.0025550208139808	
10.755	-0.995	-1.0120372007650427	
10.76	-0.995	-1.0215161539846904	
10.765	-0.995	-1.022004206831534	
10.77	-0.995	-1.007986348918084	
10.775	-0.995	-1.0044848450288093	
10.78	-0.995	-1.0059789688389609	
10.785	-0.993	-0.9954199922033043	
10.79	-0.938	-0.9879639388006353	
10.795	-0.995	-0.9891159084650887	
10.8	-0.995	-0.9825126542300721	
10.805	-0.819	-0.9678804098587945	
10.81	-0.981	-0.9576544225171115	
10.815	-0.993	-0.9501675380754878	
10.82	-0.894	-0.9397302167520025	
10.825	-0.946	-0.9394323109368663	
10.83	-0.995	-0.9453256942235228	
10.835	-0.995	-0.9462788301571602	
10.84	-0.993	-0.9556540880739232	
10.845	-0.995	-0.9764794443479171	
10.85	-0.995	-0.9836341384393741	
10.855	-0.995	-0.9843811994453294	
10.86	-0.995	-0.9958461988002222	
10.865	-0.996	-1.0016116272768572	
10.87	-0.995	-0.9931985377926299	
10.875	-0.996	-0.9962646699314633	
10.88	-0.996	-1.003047764162468	
10.885	-0.995	-0.9949853732908971	
10.89	-0.996	-0.9920104672748055	
10.895	-0.996	-1.0012334905733298	
10.9	-0.996	-0.9978750911637788	
10.905	-0.996	-0.9893804146020511	
10.91	-0.995	-0.9982309962647181	
10.915	-0.995	-1.0014823919248856	
10.92	-0.533	-0.9681863761299819	
10.925	-0.373	-0.893870855143438	
10.93	-0.610	-0.787323066798644	
10.935	-0.327	-0.6646032359009177	
10.94	-0.072	-0.5439028769735906	
10.945	-0.413	-0.43832575873329127	
10.95	-0.381	-0.3553978032942578	
10.955	0.035	-0.2939825515810457	
10.96	-0.188	-0.24655535614845692	
10.965	-0.398	-0.21070940253516168	
10.97	-0.009	-0.18618012556084912	
10.975	0.119	-0.16334257557283466	
10.98	-0.283	-0.13268763004110865	
10.985	0.096	-0.09429040256955135	
10.99	0.536	-0.037719276835655374	
10.995	-0.122	0.029681678588362886	
11.0	-0.092	0.07706145796670129	
11.005	0.727	0.11431631432064207	
11.01	0.512	0.1822396454538603	
11.015	0.347	0.2792507057762753	
11.02	1.248	0.40469249102753113	
11.025	1.321	0.5731731751071965	
11.03	0.580	0.7462110872273621	
11.035	0.929	0.8687838860817612	
11.04	1.164	0.9341093168677604	
11.045	0.211	0.9360462784519957	
11.05	0.154	0.8566009454222441	
11.055	0.733	0.7270665844247481	
11.06	0.261	0.5981968189717327	
11.065	-0.135	0.4766008724059696	
11.07	0.547	0.3710459125169264	
11.075	0.777	0.3195517386859603	
11.08	0.328	0.3368203281025989	
11.085	0.838	0.4058167779635564	
11.09	1.278	0.5165410960530168	
11.095	0.579	0.6409111684584969	
11.1	0.531	0.7313863773311979	
11.105	1.130	0.7802652977205234	
11.11	0.615	0.7992309908150121	
11.115	0.209	0.7803891028345735	
11.12	0.857	0.7320309854414784	
11.125	0.874	0.6906526594070775	
11.13	0.191	0.6607641773286115	
11.135	0.611	0.62866311842639	
11.14	0.938	0.6045585400919429	
11.145	0.087	0.5820923460360904	
11.15	-0.049	0.5243085270304917	
11.155	0.634	0.43806036504652024	
11.16	0.295	0.367497913789392	
11.165	-0.023	0.31962514615489046	
11.17	0.369	0.28363999968821363	
11.175	0.010	0.23657238591786245	
11.18	-0.497	0.15419502119549783	
11.185	-0.471	0.034423993306290646	
11.19	-0.448	-0.11683663822468632	
11.195	-0.970	-0.29444225318853745	
11.2	-0.993	-0.4735215531672129	
11.205	-0.894	-0.6414523091534857	
11.21	-0.995	-0.7963441631341474	
11.215	-0.995	-0.9049671370699159	
11.22	-0.995	-0.9576889246626156	
11.225	-0.993	-1.000543824840733	
11.23	-0.993	-1.0314081744107277	
11.235	-0.995	-1.0226005886515637	
11.24	-0.938	-1.0100451223839422	
11.245	-0.995	-1.0133441926125741	
11.25	-0.995	-0.9984376226009122	
11.255	-0.666	-0.9644502820220608	
11.26	-0.775	-0.9294360737507409	
11.265	-0.873	-0.8841115678493916	
11.27	-0.494	-0.8204979420682039	
11.275	-0.443	-0.7544414196561696	
11.28	-0.726	-0.6907852540359478	
11.285	-0.448	-0.6225404608158771	
11.29	-0.142	-0.555627342481712	
11.295	-0.428	-0.49067108495481415	
11.3	-0.350	-0.42071655081414594	
11.305	0.305	-0.33491895309578934	
11.31	0.052	-0.234448115259732	
11.315	-0.176	-0.1306737875883985	
11.32	0.478	-0.03017380723860162	
11.325	0.533	0.07493329598400487	
11.33	-0.118	0.16665861028744594	
11.335	0.328	0.22836223298110037	
11.34	0.970	0.2869493509472065	
11.345	0.504	0.3721510792337211	
11.35	0.672	0.47787601977031646	
11.355	1.564	0.6114634833254922	
11.36	1.378	0.7847565699720344	
11.365	1.040	0.971915449711792	
11.37	1.857	1.1478187849194232	
11.375	2.236	1.3352869724275869	
11.38	1.838	1.545583755258804	
11.385	2.498	1.769153386056197	
11.39	3.081	2.0110985455465986	
11.395	2.945	2.2762848582748494	
11.4	3.081	2.552693664286661	
11.405	3.077	2.7923091047833086	
11.41	3.080	2.9448050534289	
11.415	2.206	3.0028935759325304	
11.42	2.242	2.944660632884557	
11.425	1.773	2.7531715245867527	
11.43	0.765	2.4415507167833486	
11.435	0.831	2.046165337186789	
11.44	1.031	1.6340958384751043	
11.445	0.261	1.2572627838496304	
11.45	0.140	0.9287713913418143	
11.455	0.698	0.6644418740199175	
11.46	0.133	0.47187877645181986	
11.465	-0.257	0.3209601012683525	
11.47	0.122	0.19372487847263384	
11.475	0.117	0.09027575898751018	
11.48	-0.278	0.014707534435001406	
11.485	0.012	-0.02785994748415333	
11.49	0.557	-0.0280043377999017	
11.495	-0.034	0.00838211082467328	
11.5	-0.075	0.05476000402497485	
11.505	0.588	0.0981800661948316	
11.51	0.285	0.1469461441978796	
11.515	-0.023	0.19615702380984315	
11.52	0.680	0.24348377412552694	
11.525	0.857	0.31419166353980715	
11.53	0.479	0.4110472446641474	
11.535	1.236	0.5410178483581953	
11.54	2.053	0.7367041066352619	
11.545	1.709	1.0047793046192686	
11.55	1.958	1.303889477787386	
11.555	2.757	1.6086419854075358	
11.56	2.533	1.9061287580954431	
11.565	2.151	2.1605964158157978	
11.57	2.705	2.342873564702791	
11.575	2.653	2.4629453425271124	
11.58	1.871	2.5127457680502707	
11.585	2.048	2.4786655014369456	
11.59	2.281	2.385941315820581	
11.595	1.332	2.2504694491052364	
11.6	0.916	2.0471424515811654	
11.605	1.103	1.7776005933605807	
11.61	0.235	1.456439737384786	
11.615	-0.266	1.0895284756245478	
11.62	0.029	0.7100246517941391	
11.625	-0.008	0.37465156256160215	
11.63	-0.433	0.11107711974499697	
11.635	-0.286	-0.07862167165887578	
11.64	-0.006	-0.20308865402217435	
11.645	-0.310	-0.268424162301259	
11.65	-0.182	-0.281305759845233	
11.655	0.872	-0.21767733870290795	
11.66	1.618	-0.012040635204959661	
11.665	2.740	0.40692101334009706	
11.67	3.064	1.0179985994090477	
11.675	3.052	1.6749003751469498	
11.68	3.046	2.244256909172374	
11.685	3.037	2.6830701109835235	
11.69	3.031	2.965656819688792	
11.695	3.031	3.1053146961779223	
11.7	3.032	3.1662229819764613	
11.705	3.026	3.1791864362787523	
11.71	3.034	3.146885261779429	
11.715	3.040	3.10961823539647	
11.72	3.040	3.0883989941816106	
11.725	3.041	3.063596435129413	
11.73	3.049	3.040089390743331	
11.735	3.049	3.040087837632071	
11.74	3.043	3.042175636046835	
11.745	3.049	3.0337377954184017	
11.75	3.051	3.0374994748200015	
11.755	3.048	3.048779096244054	
11.76	3.054	3.044917493067877	
11.765	3.057	3.042904808560168	
11.77	3.049	3.055236532148859	
11.775	3.049	3.054476116463906	
11.78	3.054	3.046209479659071	
11.785	3.052	3.0531052193709103	
11.79	3.052	3.0571492353719902	
11.795	3.058	3.048680944827461	
11.8	3.066	3.0514813343290896	
11.805	3.064	3.0619485329446796	
11.81	3.069	3.0578478806986142	
11.815	3.077	3.0576698627744423	
11.82	3.072	3.070504807986228	
11.825	3.075	3.072622514689841	
11.83	2.548	3.0417277046313558	
11.835	2.797	2.9821640258068167	
11.84	3.078	2.9206640217739763	
11.845	2.493	2.8683336005513365	
11.85	2.374	2.801111452310976	
11.855	2.983	2.7304967954905273	
11.86	2.606	2.685958251571077	
11.865	1.977	2.6360922607347215	
11.87	2.412	2.551622899013271	
11.875	2.279	2.451059187413912	
11.88	1.338	2.325460474478908	
11.885	1.431	2.1398653418092186	
11.89	1.703	1.9269328139434425	
11.895	0.780	1.7145167942133566	
11.9	0.537	1.4748267756139153	
11.905	1.142	1.2313453552359408	
11.91	0.678	1.0353364147584068	
11.915	0.108	0.8662279341537813	
11.92	0.447	0.6961442927841539	
11.925	0.313	0.5401396638793834	
11.93	-0.202	0.3960844959475369	
11.935	-0.133	0.25151983494366953	
11.94	-0.019	0.11344004707459238	
11.945	-0.585	-0.02077407225484936	
11.95	-0.951	-0.1770277710865693	
11.955	-0.966	-0.3735913859476887	
11.96	-0.995	-0.5883677786370924	
11.965	-0.995	-0.7699549390163665	
11.97	-0.993	-0.8905491597116901	
11.975	-0.995	-0.9732262916810741	
11.98	-0.995	-1.0249901941464068	
11.985	-0.995	-1.036611040477939	
11.99	-0.995	-1.0323481313209673	
11.995	-0.995	-1.0332160510535848	
12.0	-0.996	-1.0225790067634524	
12.005	-0.995	-1.0052663830066026	
12.01	-0.995	-1.0033752591577205	
12.015	-0.996	-1.0024323947342435	
12.02	-0.995	-0.9919071096216335	
12.025	-0.995	-0.9915270089199592	
12.03	-0.995	-0.997586879948636	
12.035	-0.995	-0.9926233663420166	
12.04	-0.995	-0.9896760058705899	
12.045	-0.995	-0.9970484624053928	
12.05	-0.995	-0.9964246430272122	
12.055	-0.995	-0.9904521420339584	
12.06	-0.995	-0.9953942490368122	
12.065	-0.995	-0.9993153064261417	
12.07	-0.995	-0.9919213063927631	
12.075	-0.993	-0.9925716872831493	
12.08	-0.995	-0.9996176729205168	
12.085	-0.996	-0.9945752076470783	
12.09	-0.995	-0.990589668313205	
12.095	-0.995	-0.9981854526215399	
12.1	-0.996	-0.9974909554319195	
12.105	-0.995	-0.9901981781749458	
12.11	-0.995	-0.9954660871626196	
12.115	-0.995	-0.9996144059748948	
12.12	-0.995	-0.9916287094665055	
12.125	-0.995	-0.9923850531404314	
12.13	-0.995	-1.0001049059288443	
12.135	-0.995	-0.9944806515072271	
12.14	-0.993	-0.9900674960109616	
12.145	-0.995	-0.9986409559250452	
12.15	-0.995	-0.9968021962450618	
12.155	-0.637	-0.9724499451470119	
12.16	-0.460	-0.9155306279389099	
12.165	-0.474	-0.8143291936896631	
12.17	-0.074	-0.672046662834067	
12.175	0.049	-0.5089413554119694	
12.18	-0.318	-0.35700886649209085	
12.185	-0.148	-0.2404520611609956	
12.19	0.223	-0.15420925127018725	
12.195	-0.237	-0.09221296822256596	
12.2	-0.408	-0.07037176291399677	
12.205	-0.176	-0.09465163352189296	
12.21	-0.349	-0.15056081575830046	
12.215	-0.399	-0.21116034713235243	
12.22	0.588	-0.21550974640350196	
12.225	1.223	-0.09129823903882434	
12.23	0.664	0.14832763768261	
12.235	1.040	0.4154221782655132	
12.24	1.581	0.6724639302756835	
12.245	0.997	0.9015299036271627	
12.25	0.753	1.0531373166204627	
12.255	1.234	1.1147406054884441	
12.26	0.829	1.1156160943959823	
12.265	0.212	1.050389152645888	
12.27	0.651	0.9253671471267407	
12.275	0.414	0.7768760807738642	
12.28	-0.520	0.5952237057488279	
12.285	-0.712	0.3451998207300068	
12.29	-0.616	0.04351684584188643	
12.295	-0.844	-0.25419699362030357	
12.3	-0.740	-0.48978765928129075	
12.305	-0.320	-0.6273527467100074	
12.31	-0.459	-0.6741788673557343	
12.315	-0.758	-0.6684056530686764	
12.32	-0.549	-0.6458748590891517	
12.325	-0.511	-0.6291877915435593	
12.33	-0.847	-0.6264501735586008	
12.335	-0.776	-0.6358463074780378	
12.34	-0.585	-0.6587142182459917	
12.345	-0.871	-0.6900220278501739	
12.35	-0.946	-0.7247741967169858	
12.355	-0.721	-0.759693152142503	
12.36	-0.931	-0.8001291461078448	
12.365	-0.995	-0.8401865605116469	
12.37	-0.993	-0.8730644753384025	
12.375	-0.993	-0.9162712595464518	
12.38	-0.995	-0.9612221409388723	
12.385	-0.995	-0.9788554260927528	
12.39	-0.995	-0.9878415004175065	
12.395	-0.995	-1.004958416362355	
12.4	-0.995	-1.0077263761721367	
12.405	-0.969	-0.9956870945072293	
12.41	-0.993	-0.9981636240352137	
12.415	-0.995	-0.999283113181606	
12.42	-0.957	-0.9859180526795485	
12.425	-0.851	-0.9751626843415202	
12.43	-0.993	-0.9675301975619516	
12.435	-0.993	-0.9518318183472242	
12.44	-0.738	-0.9364657861452693	
12.445	-0.943	-0.9262406507530906	
12.45	-0.977	-0.9120067526445873	
12.455	-0.676	-0.891181859237633	
12.46	-0.775	-0.8711600334571331	
12.465	-0.993	-0.8518452731398067	
12.47	-0.749	-0.8335817435710595	
12.475	-0.674	-0.8217855477843983	
12.48	-0.949	-0.816132108951846	
12.485	-0.818	-0.8068538431821365	
12.49	-0.530	-0.7938150173556272	
12.495	-0.737	-0.7756118400490976	
12.5	-0.763	-0.7454366490760751	
12.505	-0.471	-0.708522634624319	
12.51	-0.517	-0.6741363815347668	
12.515	-0.700	-0.6385435593663683	
12.52	-0.428	-0.59615007126738	
12.525	-0.312	-0.557324026922704	
12.53	-0.540	-0.5198731404792847	
12.535	-0.330	-0.4728543444627187	
12.54	0.075	-0.41002307927308174	
12.545	-0.234	-0.33810153893214434	
12.55	-0.352	-0.26897098936032693	
12.555	-0.098	-0.220726661319472	
12.56	-0.252	-0.2071349877449554	
12.565	-0.538	-0.21840756807666437	
12.57	-0.298	-0.24263769045804992	
12.575	-0.158	-0.27576706154679964	
12.58	-0.430	-0.3017370976537584	
12.585	-0.257	-0.3038567387729699	
12.59	0.154	-0.28011646822779757	
12.595	-0.113	-0.2376620681679621	
12.6	-0.051	-0.17151565003239558	
12.605	0.739	-0.06971885016516127	
12.61	0.596	0.07091329820446318	
12.615	0.094	0.21659647791225195	
12.62	0.570	0.328888785105754	
12.625	0.596	0.4008451487101247	
12.63	-0.048	0.4273006205207963	
12.635	0.230	0.4100178233706807	
12.64	0.842	0.38983357973811905	
12.645	0.342	0.39191958295026325	
12.65	0.235	0.4088256642892775	
12.655	0.967	0.43900682686094517	
12.66	0.799	0.4940856154535227	
12.665	0.322	0.5568404375536444	
12.67	0.834	0.6101896561138607	
12.675	0.945	0.6524142593463789	
12.68	0.360	0.6797543205272831	
12.685	0.594	0.6878351276155057	
12.69	1.118	0.6934353457978366	
12.695	0.641	0.7087296742554174	
12.7	0.583	0.7293653561273735	
12.705	1.399	0.7694419736644555	
12.71	1.320	0.8472926913906161	
12.715	0.814	0.9473527301546549	
12.72	1.188	1.0322574297864366	
12.725	1.419	1.0897880302615837	
12.73	0.826	1.124481013897602	
12.735	0.971	1.1376525867446061	
12.74	1.353	1.1297515214004397	
12.745	0.791	1.103671235015507	
12.75	0.567	1.055082488586533	
12.755	1.194	0.9966110459663821	
12.76	1.022	0.9514039151583705	
12.765	0.505	0.9191340785894423	
12.77	0.965	0.8933154678830865	
12.775	1.135	0.873997535040743	
12.78	0.426	0.8553543214428516	
12.785	0.638	0.8265481813761568	
12.79	1.083	0.793928051759011	
12.795	0.345	0.7567075352231794	
12.8	0.084	0.6909107477110863	
12.805	0.594	0.5986080734458641	
12.81	0.362	0.5015386356701623	
12.815	-0.101	0.411092350019269	
12.82	0.366	0.3351992847814883	
12.825	0.545	0.28410482863519293	
12.83	-0.089	0.25347899502331406	
12.835	0.076	0.228396525679928	
12.84	0.573	0.2098629076967562	
12.845	0.125	0.2029398885338244	
12.85	0.096	0.21092669936948857	
12.855	0.806	0.24442034967585294	
12.86	0.640	0.3076904173903774	
12.865	0.172	0.38022202288107004	
12.87	0.783	0.44691273424849925	
12.875	1.194	0.5271014216748344	
12.88	0.602	0.6268102943330851	
12.885	0.846	0.7251998438987468	
12.89	1.549	0.824587664003784	
12.895	1.260	0.9413304281525642	
12.9	1.408	1.0830271839701044	
12.905	2.310	1.2639418472744783	
12.91	2.299	1.4878851282646584	
12.915	1.786	1.7186436792929753	
12.92	2.195	1.9053892774462828	
12.925	2.273	2.0308302151143103	
12.93	1.442	2.0793958215236863	
12.935	1.417	2.037995642689829	
12.94	1.697	1.9229600447714	
12.945	0.835	1.7538345378758713	
12.95	0.519	1.5312736707011414	
12.955	1.077	1.2911348938963776	
12.96	0.900	1.0851015448122991	
12.965	0.655	0.9394687291270787	
12.97	1.831	0.8998501238327054	
12.975	2.892	1.0416598364122172	
12.98	3.080	1.398570410687618	
12.985	3.067	1.8878269878824074	
12.99	3.055	2.351895756181146	
12.995	3.055	2.694519038632006	
13.0	3.055	2.9338621381163734	
13.005	3.054	3.0870285140323737	
13.01	3.057	3.143972156824164	
13.015	3.064	3.150417433610132	
13.02	3.063	3.153308777892939	
13.025	3.061	3.1338082661760023	
13.03	3.071	3.09812998826166	
13.035	3.071	3.0871196941643317	
13.04	3.071	3.0843869509764055	
13.045	3.080	3.06567455103336	
13.05	2.766	3.047304195841016	
13.055	3.080	3.028841740836928	
13.06	2.652	2.9828068101879675	
13.065	1.728	2.870569883272262	
13.07	1.945	2.673259268277878	
13.075	1.885	2.424692451117981	
13.08	0.927	2.1482188753975633	
13.085	0.906	1.8420891135697275	
13.09	1.249	1.5412838871240826	
13.095	0.539	1.2758719839317725	
13.1	0.142	1.027369481127606	
13.105	0.618	0.7945477779873867	
13.11	0.151	0.5929792981903518	
13.115	-0.358	0.4039883305842699	
13.12	-0.298	0.21192393922374042	
13.125	-0.379	0.01347505710245156	
13.13	-0.819	-0.1862074272388718	
13.135	-0.828	-0.3699641296817948	
13.14	-0.576	-0.5272755492035246	
13.145	-0.801	-0.6497152057976976	
13.15	-0.905	-0.7292706253134538	
13.155	-0.643	-0.7720640194056752	
13.16	-0.743	-0.796017524551982	
13.165	-0.993	-0.8104226699597739	
13.17	-0.773	-0.8164222486662682	
13.175	-0.679	-0.8198636239204327	
13.18	-0.989	-0.8256675216814919	
13.185	-0.877	-0.8289925289153183	
13.19	-0.567	-0.8248080385322958	
13.195	-0.857	-0.8163989958626312	
13.2	-0.967	-0.8090205198582678	
13.205	-0.631	-0.8025940314840185	
13.21	-0.628	-0.7929497967169085	
13.215	-0.883	-0.7749385433139269	
13.22	-0.617	-0.7487949938901136	
13.225	-0.465	-0.7201114873253797	
13.23	-0.735	-0.6891351287188667	
13.235	-0.602	-0.6540728242980343	
13.24	-0.196	-0.610288839533309	
13.245	-0.310	-0.5480055634067291	
13.25	-0.330	-0.46674556756721275	
13.255	0.104	-0.37012671040166084	
13.26	0.041	-0.26689647612970147	
13.265	-0.286	-0.17646701388235436	
13.27	-0.029	-0.11419566933621211	
13.275	0.464	-0.058374086698582635	
13.28	0.055	0.013467654001726054	
13.285	0.140	0.08784803870748477	
13.29	0.693	0.16009822087613484	
13.295	0.125	0.23141593818724307	
13.3	-0.133	0.26258096882969073	
13.305	0.078	0.23709533598758678	
13.31	-0.283	0.16012125231617375	
13.315	-0.764	0.03131458331193905	
13.32	-0.749	-0.14672422734274662	
13.325	-0.842	-0.3519270826728807	
13.33	-0.995	-0.5546487332883916	
13.335	-0.993	-0.7210690683156649	
13.34	-0.995	-0.8498042377253974	
13.345	-0.996	-0.9490631988871072	
13.35	-0.998	-1.0047171956969256	
13.355	-0.996	-1.0226916177090075	
13.36	-0.995	-1.0329916583071115	
13.365	-0.996	-1.0357911146228806	
13.37	-0.996	-1.020047241780749	
13.375	-0.995	-1.0105183340302968	
13.38	-0.996	-1.010044082666775	
13.385	-0.996	-1.0009325688557258	
13.39	-0.996	-0.9924632643008825	
13.395	-0.996	-0.9968747307266317	
13.4	-0.996	-0.9973144084885137	
13.405	-0.996	-0.9901100925328989	
13.41	-0.996	-0.9941248817213463	
13.415	-0.996	-0.9993916154830492	
13.42	-0.996	-0.9941531261981881	
13.425	-0.996	-0.9927780977934453	
13.43	-0.996	-0.9998340464179133	
13.435	-0.996	-0.9968371059233402	
13.44	-0.995	-0.9916483810860349	
13.445	-0.996	-0.9978647052875369	
13.45	-0.996	-0.9992072891112509	
13.455	-0.996	-0.9921290193960957	
13.46	-0.996	-0.9951804156994304	
13.465	-0.996	-1.0004183247092988	
13.47	-0.996	-0.9940712598823582	
13.475	-0.996	-0.9927280154945608	
13.48	-0.996	-1.0000037777167203	
13.485	-0.996	-0.9968221821121687	
13.49	-0.996	-0.9914056493549791	
13.495	-0.996	-0.9980407229468993	
13.5	-0.998	-0.9994174682506385	
13.505	-0.996	-0.9927651782057809	
13.51	-0.996	-0.9961549781295611	
13.515	-0.996	-1.001880973069981	
13.52	-0.996	-0.9947985406599558	
13.525	-0.996	-0.9933567462427254	
13.53	-0.996	-1.0005659535732874	
13.535	-0.996	-0.9968863624438048	
13.54	-0.995	-0.9907177960929958	
13.545	-0.996	-0.9984153267796803	
13.55	-0.996	-0.999953812001131	
13.555	-0.894	-0.9859886111855434	
13.56	-0.616	-0.9620266884567614	
13.565	-0.647	-0.9047695898899747	
13.57	-0.177	-0.7953001913685327	
13.575	0.527	-0.6186062429172032	
13.58	0.183	-0.3784565227958173	
13.585	0.533	-0.11707600550407647	
13.59	1.340	0.15831491861543537	
13.595	1.042	0.4491721319291977	
13.6	1.000	0.7152599780750584	
13.605	1.857	0.9508013935052942	
13.61	1.885	1.187216237126549	
13.615	1.408	1.403316277612169	
13.62	1.966	1.5708463731253821	
13.625	2.346	1.7149582160559975	
13.63	1.767	1.84803151579433	
13.635	2.004	1.9446516285947038	
13.64	2.675	2.0288131309078445	
13.645	2.267	2.1271629205176437	
13.65	2.067	2.2129166204837043	
13.655	2.832	2.283942695290621	
13.66	2.910	2.379439190976276	
13.665	2.548	2.498243053958387	
13.67	3.081	2.619734603617263	
13.675	3.078	2.738018185824404	
13.68	3.083	2.848184603327601	
13.685	3.080	2.9535879621545433	
13.69	3.077	3.0346185340612486	
13.695	3.083	3.0702548304016046	
13.7	2.715	3.0750446657000836	
13.705	3.081	3.0557655794379963	
13.71	3.074	3.0243614914543064	
13.715	2.517	2.9874007813598284	
13.72	2.950	2.940710182988202	
13.725	3.083	2.9029047372874714	
13.73	2.731	2.8853053354148916	
13.735	3.080	2.888674718701983	
13.74	3.072	2.9145134281762726	
13.745	3.074	3.0512774833401686	
13.75	3.071	2.985184037258836	
13.755	3.063	3.031663991259204	
13.76	3.063	3.0512774833401686	
13.765	3.067	3.0585136217392925	
13.77	3.061	3.07474747172114	
13.775	3.055	3.0788047459841152	
13.78	3.060	3.066225148276833	
13.785	3.057	3.0667517407179505	
13.79	3.054	3.070624731285209	
13.795	3.052	3.057120447995586	
13.8	3.057	3.052074556902067	
13.805	3.049	3.0610201819512843	
13.81	3.049	3.054245939478872	
13.815	3.060	3.0450681940485858	
13.82	3.057	3.0550831692183196	
13.825	3.055	3.0581687641924393	
13.83	3.064	3.048582048267447	
13.835	3.067	3.055726653092135	
13.84	3.066	3.0674141924970293	
13.845	3.072	3.0596391594407697	
13.85	3.080	3.060460301382112	
13.855	3.077	3.0759740214763083	
13.86	3.083	3.0743356152300603	
13.865	2.186	3.0268808739219004	
13.87	2.357	2.9126003008176915	
13.875	2.391	2.745034463620753	
13.88	1.503	2.540457574593825	
13.885	1.387	2.295452315279118	
13.89	1.876	2.042695473446285	
13.895	1.474	1.8302113582224537	
13.9	1.236	1.670550225993264	
13.905	1.914	1.5679967744160526	
13.91	1.729	1.530695543549244	
13.915	1.042	1.5178265661326087	
13.92	1.353	1.4859594180268445	
13.925	1.581	1.4398366413085841	
13.93	0.832	1.382703897387117	
13.935	0.819	1.2991873405459133	
13.94	1.359	1.2025156537912947	
13.945	0.793	1.1159315251141013	
13.95	0.458	1.0269041405618078	
13.955	1.077	0.9385183683071561	
13.96	0.890	0.8699044526782894	
13.965	0.201	0.8092424836218585	
13.97	0.588	0.7341121337522414	
13.975	0.887	0.6642712933953501	
13.98	0.220	0.6093846528509759	
13.985	0.340	0.5600440596751308	
13.99	1.031	0.5298838589496051	
13.995	0.589	0.5368998015362654	
14.0	0.263	0.5586650707079499	
14.005	0.909	0.5756329341203301	
14.01	0.820	0.598996330868975	
14.015	0.168	0.6161374628161044	
14.02	0.615	0.6110717041848654	
14.025	0.965	0.602305126778294	
14.03	0.331	0.6034466849539271	
14.035	0.588	0.6070198664443778	
14.04	1.430	0.6407643337727118	
14.045	1.263	0.7390403109931158	
14.05	1.237	0.892849134567881	
14.055	2.079	1.088396196356736	
14.06	2.055	1.314952872406505	
14.065	1.362	1.5234699632414783	
14.07	1.479	1.6508155209685524	
14.075	1.670	1.6829016740500755	
14.08	0.906	1.6368620393309463	
14.085	0.817	1.522117064145259	
14.09	1.314	1.3701156623340218	
14.095	0.872	1.2252405036394651	
14.1	0.637	1.101397244988739	
14.105	1.509	1.019822129170032	
14.11	1.929	1.0377927579724817	
14.115	1.883	1.18243640665347	
14.12	2.594	1.4337027878021475	
14.125	1.627	1.6911249774658257	
14.13	-0.848	1.7222956347913594	
14.135	-0.995	1.382112757255254	
14.14	-0.996	0.7892040720961834	
14.145	-0.995	0.1538448326175738	
14.15	-0.996	-0.36882684639228	
14.155	-0.996	-0.728193728708539	
14.16	-0.996	-0.9642821292268832	
14.165	-0.996	-1.093467804438363	
14.17	-0.996	-1.1250180301674861	
14.175	-0.995	-1.1184915026700954	
14.18	-0.995	-1.105220688314327	
14.185	-0.995	-1.0685759620145132	
14.19	-0.995	-1.0309716055803868	
14.195	-0.995	-1.0187530805394398	
14.2	-0.995	-1.0062186002634657	
14.205	-0.995	-0.9871212880215434	
14.21	-0.993	-0.9874672862284842	
14.215	-0.995	-0.9947325621745969	
14.22	-0.993	-0.9863943142711387	
14.225	-0.753	-0.9739292582834239	
14.23	-0.948	-0.9576579248880039	
14.235	-0.874	-0.9275477358523662	
14.24	-0.585	-0.8874424104778665	
14.245	-0.766	-0.8454608712065093	
14.25	-0.870	-0.8049950393431577	
14.255	-0.523	-0.7655240942636741	
14.26	-0.501	-0.724388180924364	
14.265	-0.741	-0.6803955324450304	
14.27	-0.486	-0.6356995561505434	
14.275	-0.266	-0.589071669206825	
14.28	-0.544	-0.5402711809111498	
14.285	-0.486	-0.4936675213142459	
14.29	-0.152	-0.45078111699439694	
14.295	-0.205	-0.4031325847935736	
14.3	0.244	-0.319803824355011	
14.305	2.631	-0.07376597027497442	
14.31	3.071	0.4490200103176077	
14.315	3.066	1.1630024465467572	
14.32	3.063	1.875585588119394	
14.325	3.060	2.4446394866934944	
14.33	3.066	2.8294149564059756	
14.335	3.069	3.068003867911173	
14.34	3.069	3.1914840354055323	
14.345	3.078	3.219538032772689	
14.35	2.577	3.1844321558585005	
14.355	2.588	3.0880665143523682	
14.36	2.006	2.914917806175086	
14.365	0.901	2.6327314443790626	
14.37	0.870	2.2320772946036453	
14.375	0.806	1.783391734903304	
14.38	-0.043	1.3373907033574297	
14.385	-0.197	0.8999035936506767	
14.39	-0.045	0.5017410506826173	
14.395	-0.417	0.17335790680762914	
14.4	-0.715	-0.09406187828099546	
14.405	-0.532	-0.3109744403830469	
14.41	-0.630	-0.4747995205280491	
14.415	-0.938	-0.5990700661318001	
14.42	-0.683	-0.6897247499445811	
14.425	0.276	-0.6992053388558378	
14.43	3.051	-0.4470637796654686	
14.435	3.055	0.1972262760606396	
14.44	3.034	1.0453768823671568	
14.445	3.028	1.823528031986068	
14.45	3.025	2.428688211311508	
14.455	3.025	2.8422173912962276	
14.46	3.028	3.0766279634306732	
14.465	3.028	3.17859768440199	
14.47	3.025	3.206386921477927	
14.475	3.026	3.1870724312426253	
14.48	3.035	3.1426670806130597	
14.485	3.037	3.1033982673018174	
14.49	3.037	3.0763495643426904	
14.495	3.041	3.0495156217366084	
14.5	3.046	3.034957562619612	
14.505	3.043	3.0354151647501557	
14.51	3.048	3.0345513126874892	
14.515	3.054	3.031584812260231	
14.52	3.052	3.0405897244938442	
14.525	3.051	3.0470923271445445	
14.53	3.061	3.0454418897058924	
14.535	3.064	3.0504704491287518	
14.54	3.060	3.0595810815345215	
14.545	3.064	3.058290936376303	
14.55	3.069	3.0587804207357285	
14.555	3.066	3.0667723276582235	
14.56	3.069	3.0675469609065322	
14.565	2.696	3.0461441944971583	
14.57	2.685	2.9937925246744435	
14.575	2.766	2.9164125550496856	
14.58	1.857	2.797992626604363	
14.585	1.624	2.601281816901774	
14.59	2.036	2.358035445403333	
14.595	1.443	2.1262514132639128	
14.6	0.793	1.8834099360102483	
14.605	1.048	1.6109109589398396	
14.61	0.673	1.3407759601069371	
14.615	-0.129	1.0600220291617888	
14.62	-0.179	0.7436248449342031	
14.625	-0.229	0.4185073712657119	
14.63	-0.799	0.1082796526992927	
14.635	-0.993	-0.19075443168509892	
14.64	-0.992	-0.47225769381988214	
14.645	-0.993	-0.7135061470232001	
14.65	-0.995	-0.8842329962784647	
14.655	-0.993	-0.9814178023269969	
14.66	-0.995	-1.035349932275404	
14.665	-0.995	-1.0584994871472906	
14.67	-0.995	-1.052431201821513	
14.675	-0.995	-1.037892729218287	
14.68	-0.995	-1.0294805836627514	
14.685	-0.995	-1.0155371022246302	
14.69	-0.993	-1.000595105950623	
14.695	-0.993	-0.9975928126788532	
14.7	-0.995	-0.9960210488346718	
14.705	-0.993	-0.9885340723605438	
14.71	-0.993	-0.9895222549381676	
14.715	-0.995	-0.9943880427165056	
14.72	-0.993	-0.9913673332508751	
14.725	-0.993	-0.9899942166747144	
14.73	-0.995	-0.9955145107387312	
14.735	-0.995	-0.9954552766932718	
14.74	-0.993	-0.990550721147281	
14.745	-0.995	-0.9946886501102415	
14.75	-0.995	-0.9970628487166554	
14.755	-0.995	-0.99238051365635	
14.76	-0.995	-0.9935304020259887	
14.765	-0.998	-0.9985899231193606	
14.77	-0.993	-0.9942423496921456	
14.775	-0.996	-0.9918086120013695	
14.78	-0.995	-0.9977844738662693	
14.785	-0.995	-0.9965179111693825	
14.79	-0.996	-0.9911836420321217	
14.795	-0.995	-0.9958459394815817	
14.8	-0.995	-0.9983977247572263	
14.805	-0.995	-0.9919813958272898	
14.81	-0.993	-0.9933965904582337	
14.815	-0.995	-0.9991372613483421	
14.82	-0.993	-0.9930433963138697	
14.825	-0.928	-0.9873093901022626	
14.83	-0.993	-0.9873246163458943	
14.835	-0.993	-0.9807318066075258	
14.84	-0.749	-0.963440754550966	
14.845	-0.822	-0.938055939886409	
14.85	-0.964	-0.907057410359886	
14.855	-0.633	-0.8723505385535819	
14.86	-0.521	-0.8260761076326881	
14.865	-0.692	-0.7659595985153728	
14.87	-0.318	-0.6888502697147803	
14.875	0.424	-0.5655422114111155	
14.88	0.356	-0.36786075276455715	
14.885	0.617	-0.11706270563770435	
14.89	1.460	0.17430440155327276	
14.895	1.245	0.4968344262272157	
14.9	1.023	0.7932920920765147	
14.905	1.616	1.0280200693638055	
14.91	1.512	1.215186673348049	
14.915	0.706	1.3224725223951763	
14.92	0.948	1.3200494815745003	
14.925	1.315	1.2557894257973718	
14.93	0.829	1.1869908057331324	
14.935	0.709	1.1086982223574413	
14.94	0.813	1.0133853362513534	
14.945	-0.182	0.8689007676340095	
14.95	-0.801	0.6211694840765032	
14.955	-0.844	0.27288250883764625	
14.96	-0.993	-0.11465888565022199	
14.965	-0.993	-0.4662130067130403	
14.97	-0.995	-0.7279803640130522	
14.975	-0.995	-0.9053231512909123	
14.98	-0.995	-1.0177876189288801	
14.985	-0.996	-1.0642289401959513	
14.99	-0.995	-1.0677866006637038	
14.995	-0.996	-1.0659747376155573	
15.0	-0.996	-1.0526061857033806	
15.005	-0.996	-1.0261587784464226	
15.01	-0.996	-1.012760430811903	
15.015	-0.995	-1.0092722680345956	
15.02	-0.995	-0.9959823030768196	
15.025	-0.995	-0.9883050304595564	
15.03	-0.995	-0.9959666632908195	
15.035	-0.995	-0.9932914990857385	
15.04	-0.995	-0.9865307891307727	
15.045	-0.995	-0.9940898112837467	
15.05	-0.995	-0.9989028193470773	
15.055	-0.996	-0.9898076884114743	
15.06	-0.995	-0.9926073268663341	
15.065	-0.995	-1.0008085146718615	
15.07	-0.996	-0.9938061112811828	
15.075	-0.993	-0.9897680931584151	
15.08	-0.995	-0.9995282162860637	
15.085	-0.995	-0.9975508440234412	
15.09	-0.993	-0.9887054674626411	
15.095	-0.993	-0.9953292896802688	
15.1	-0.995	-0.9996905749163025	
15.105	-0.724	-0.9770134709545831	
15.11	-0.604	-0.9321828526485072	
15.115	-0.822	-0.8729119784152474	
15.12	-0.564	-0.8015774721245645	
15.125	-0.234	-0.717712493274247	
15.13	-0.355	-0.6213846979269411	
15.135	-0.200	-0.504109457436694	
15.14	0.570	-0.3534379786987579	
15.145	0.409	-0.1654486962128955	
15.15	0.189	0.030120587412740027	
15.155	0.990	0.21575847106840848	
15.16	1.142	0.41349715122251474	
15.165	0.438	0.5949108895247831	
15.17	0.742	0.7163506205476415	
15.175	1.185	0.788333911451513	
15.18	0.631	0.8360382974643438	
15.185	0.701	0.8581975649629712	
15.19	1.329	0.8764064706014475	
15.195	0.843	0.9026763897324118	
15.2	0.130	0.8932506832374105	
15.205	0.308	0.8040015628839252	
15.21	-0.002	0.6380011485486217	
15.215	-0.530	0.41737669977510594	
15.22	-0.523	0.1732524589846899	
15.225	-0.398	-0.06705156251607594	
15.23	-0.738	-0.28414302495646027	
15.235	-0.723	-0.4501644756428132	
15.24	-0.014	-0.5390972833733112	
15.245	0.770	-0.49710796019368164	
15.25	1.268	-0.2580164606428702	
15.255	2.444	0.1884315341839469	
15.26	2.808	0.779358844963481	
15.265	2.044	1.3798088966193602	
15.27	2.215	1.8560837172405855	
15.275	2.479	2.163331182986429	
15.28	1.569	2.3014992098850646	
15.285	1.217	2.2683723040676287	
15.29	1.625	2.1051894076616966	
15.295	1.075	1.876878134064727	
15.3	0.449	1.6104240249357182	
15.305	0.887	1.3313896116765895	
15.31	0.767	1.078690471487913	
15.315	-0.129	0.8487668615214861	
15.32	-0.194	0.6089794779389822	
15.325	-0.152	0.3505795957614375	
15.33	-0.628	0.08973534914769207	
15.335	-0.763	-0.14767039597059403	
15.34	-0.457	-0.34480567556620556	
15.345	-0.593	-0.4989309787598198	
15.35	-0.841	-0.5995346532999377	
15.355	-0.598	-0.6537334185651822	
15.36	-0.625	-0.6902983041338956	
15.365	-0.992	-0.7241746933347095	
15.37	-0.857	-0.7520413414000204	
15.375	-0.619	-0.7773923464203094	
15.38	-0.873	-0.8002709423770189	
15.385	-0.948	-0.8087405025263095	
15.39	-0.700	-0.8117652684485501	
15.395	-0.877	-0.8269664229225512	
15.4	-0.995	-0.8446928942496161	
15.405	-0.866	-0.8516336201281534	
15.41	-0.830	-0.8701959341776542	
15.415	-0.995	-0.8934081166011612	
15.42	-0.824	-0.8929877562615388	
15.425	-0.469	-0.8680796483210745	
15.43	-0.676	-0.8255231472297848	
15.435	-0.627	-0.7579442503851797	
15.44	-0.188	-0.669301402783198	
15.445	-0.223	-0.5749964771090363	
15.45	-0.353	-0.4711940720466442	
15.455	0.107	-0.352266513119557	
15.46	0.519	-0.2198373745441253	
15.465	0.125	-0.06899953076686895	
15.47	0.712	0.10300452545800992	
15.475	1.427	0.30855515727726013	
15.48	1.013	0.5451116924801734	
15.485	1.065	0.777602584655843	
15.49	1.848	0.9932699133495234	
15.495	1.541	1.1890645359390914	
15.5	0.912	1.3321456639386988	
15.505	1.399	1.3959098957315201	
15.51	1.482	1.4005508570594691	
15.515	0.762	1.3665624534532688	
15.52	1.042	1.3018277417991855	
15.525	1.532	1.2349666220413558	
15.53	0.904	1.1860427343109428	
15.535	0.678	1.1373074159520713	
15.54	1.199	1.076467359801946	
15.545	0.770	1.0092241576418226	
15.55	0.264	0.9239774022788952	
15.555	0.964	0.8359462232865298	
15.56	1.280	0.7897971999405791	
15.565	0.706	0.8025912428079187	
15.57	1.029	0.8486844671856358	
15.575	1.399	0.9109752842922999	
15.58	0.676	0.9621621384976924	
15.585	0.392	0.9621975291497811	
15.59	0.860	0.9072789305094144	
15.595	0.261	0.8043861651223996	
15.6	-0.318	0.6510859728792988	
15.605	-0.144	0.45062003234366027	
15.61	-0.113	0.22774680146717835	
15.615	-0.275	0.031931999496416716	
15.62	1.057	-0.03535448304648493	
15.625	3.069	0.1690091419097854	
15.63	3.075	0.6927672943166922	
15.635	3.071	1.3972103149651605	
15.64	3.066	2.0656217852191943	
15.645	3.067	2.564532433596578	
15.65	3.075	2.8985150572476623	
15.655	3.072	3.113123200331949	
15.66	3.071	3.203458869774083	
15.665	3.080	3.210413101879575	
15.67	3.078	3.2054642813567398	
15.675	3.077	3.1832681545798835	
15.68	2.829	3.1227455420626313	
15.685	2.510	3.043556348601993	
15.69	2.947	2.9536209436483176	
15.695	2.302	2.843477613848801	
15.7	1.375	2.6716006281766456	
15.705	1.445	2.41218573115467	
15.71	1.158	2.0824644504002863	
15.715	0.163	1.7033779376075695	
15.72	0.233	1.297437311792287	
15.725	0.716	0.9243693841788424	
15.73	0.130	0.634927214301761	
15.735	0.024	0.42855001709350016	
15.74	0.431	0.2904973502129169	
15.745	-0.142	0.18663004896839283	
15.75	-0.660	0.0737703749414274	
15.755	-0.611	-0.07301724048375677	
15.76	-0.636	-0.2545607312362705	
15.765	-0.948	-0.4413029331450386	
15.77	-0.847	-0.5926321876295917	
15.775	-0.547	-0.6998930995721591	
15.78	-0.755	-0.7659103240009675	
15.785	-0.787	-0.7813635477605652	
15.79	-0.440	-0.7597394341569272	
15.795	-0.541	-0.7253364446365669	
15.8	-0.703	-0.6810308120039616	
15.805	-0.373	-0.6230733808074177	
15.81	-0.249	-0.5656230699278986	
15.815	-0.517	-0.5092526999718356	
15.82	-0.324	-0.4476630700950528	
15.825	0.015	-0.3829373818617371	
15.83	-0.228	-0.32293785018594057	
15.835	-0.228	-0.25741181016419074	
15.84	0.229	-0.1856934553460681	
15.845	0.039	-0.11832240985022976	
15.85	-0.246	-0.06515863967692673	
15.855	0.128	-0.024047300187095895	
15.86	0.325	0.009504299105505515	
15.865	-0.136	0.03963007594627721	
15.87	-0.011	0.06525282768347399	
15.875	0.389	0.08022714639954522	
15.88	-0.095	0.08603542412084317	
15.885	-0.194	0.0794103832650372	
15.89	0.243	0.06441647920197385	
15.895	0.007	0.04378596712723717	
15.9	-0.301	0.01868473385956366	
15.905	-0.008	-0.006039695757200297	
15.91	0.067	-0.036339791544583375	
15.915	-0.303	-0.0664757884586148	
15.92	-0.139	-0.0848153126889916	
15.925	0.240	-0.08957711449701031	
15.93	-0.098	-0.08198406461510749	
15.935	-0.107	-0.059748505819097054	
15.94	0.586	-0.01140572413382581	
15.945	0.669	0.07991586837618712	
15.95	0.342	0.20948881577826706	
15.955	0.929	0.35798288542803497	
15.96	1.000	0.5058443069971961	
15.965	0.073	0.60933923166883	
15.97	0.134	0.6229593371695386	
15.975	0.472	0.5565546650050298	
15.98	-0.194	0.444091385595595	
15.985	-0.453	0.29605044607280906	
15.99	-0.332	0.11651174998105557	
15.995	-0.552	-0.0849557592638326	
16.0	-0.695	-0.27150837386796484	
16.005	-0.095	-0.38908407371896114	
16.01	0.782	-0.38596011927558127	
16.015	0.678	-0.22838941885324865	
16.02	1.107	0.05596453921908857	
16.025	1.503	0.3934829428832916	
16.03	0.728	0.6911198201249303	
16.035	0.336	0.8689689325260316	
16.04	0.744	0.9093633504312613	
16.045	0.233	0.8410802813381678	
16.05	-0.202	0.6935038489989147	
16.055	0.038	0.5057003090225018	
16.06	0.042	0.3089443460133145	
16.065	-0.663	0.116679072064354	
16.07	-0.860	-0.08319523422606556	
16.075	-0.634	-0.300632408198542	
16.08	-0.706	-0.500561898958727	
16.085	-0.440	-0.6157752465781874	
16.09	0.489	-0.5946776484906682	
16.095	0.929	-0.4217564725237584	
16.1	1.141	-0.10322773401795368	
16.105	2.653	0.36065932565693387	
16.11	3.077	0.9559221358134792	
16.115	3.080	1.6068200945114213	
16.12	3.075	2.2126682318363273	
16.125	3.074	2.675121166718853	
16.13	3.066	2.957435093875948	
16.135	2.508	3.0971039761350134	
16.14	2.762	3.1090148519695973	
16.145	2.158	2.9961421286694514	
16.15	1.315	2.7707202358056353	
16.155	1.550	2.458453612011028	
16.16	1.469	2.116860860093783	
16.165	0.568	1.776951519004076	
16.17	0.663	1.4477478324276007	
16.175	1.116	1.1622327928875398	
16.18	0.324	0.9386700248810502	
16.185	-0.040	0.7401464356673797	
16.19	0.223	0.5418819294058654	
16.195	-0.207	0.3393407584624194	
16.2	-0.599	0.1349777331979421	
16.205	-0.394	-0.05577902873847977	
16.21	-0.284	-0.22221677875912674	
16.215	-0.566	-0.3466703169287455	
16.22	-0.443	-0.4163284816614094	
16.225	-0.138	-0.44211797783092593	
16.23	-0.367	-0.44009423576018725	
16.235	-0.413	-0.411659164115038	
16.24	-0.045	-0.36542367683461097	
16.245	-0.176	-0.3196453900248247	
16.25	-0.483	-0.28477157758384664	
16.255	-0.300	-0.263980055148187	
16.26	-0.252	-0.27239346669770825	
16.265	-0.576	-0.30349373787511147	
16.27	-0.474	-0.335363564525877	
16.275	-0.232	-0.36529082305188015	
16.28	-0.540	-0.39800650919821157	
16.285	-0.692	-0.4276139689770736	
16.29	-0.434	-0.45853489983055157	
16.295	-0.555	-0.5006225001988162	
16.3	-0.796	-0.5417068027874374	
16.305	-0.520	-0.5679808817069518	
16.31	-0.388	-0.5843563583927229	
16.315	-0.637	-0.587499346347209	
16.32	-0.492	-0.5663744810271424	
16.325	-0.122	-0.5262071954495968	
16.33	-0.312	-0.475041932946082	
16.335	-0.349	-0.4076932465389988	
16.34	-0.029	-0.3333973818193272	
16.345	-0.196	-0.2766205306309212	
16.35	-0.488	-0.24493354318269722	
16.355	-0.254	-0.23288784871071125	
16.36	-0.179	-0.24319689105362646	
16.365	-0.520	-0.26976662316568983	
16.37	-0.442	-0.2954253859555664	
16.375	-0.188	-0.32189264239039606	
16.38	-0.472	-0.35221553012483814	
16.385	-0.537	-0.3739541736930057	
16.39	-0.055	-0.3750153790607065	
16.395	0.218	-0.34049911365015983	
16.4	0.160	-0.24129031211645854	
16.405	1.037	-0.0576147265457715	
16.41	1.456	0.20818072705372695	
16.415	0.803	0.5047912922541182	
16.42	1.042	0.761396514412895	
16.425	1.665	0.9635533459875204	
16.43	1.294	1.127646109090258	
16.435	1.123	1.2536501090665555	
16.44	1.812	1.3462507679080948	
16.445	1.682	1.4256384284177426	
16.45	1.158	1.4873020395790557	
16.455	1.705	1.5243095276524428	
16.46	1.887	1.5544243531702273	
16.465	1.106	1.5707092345117253	
16.47	1.190	1.5472430671321795	
16.475	1.575	1.4896896025699369	
16.48	0.806	1.405753000727744	
16.485	0.447	1.2775021871210288	
16.49	1.017	1.1191665390879282	
16.495	0.842	0.9738528204468415	
16.5	0.264	0.853410781718557	
16.505	0.750	0.7520697357516625	
16.51	0.869	0.6804456118014068	
16.515	0.023	0.6200455994632695	
16.52	-0.008	0.5320619767674424	
16.525	0.266	0.4093739149941651	
16.53	-0.258	0.2681560883138686	
16.535	-0.488	0.11969488977386364	
16.54	-0.295	-0.03135235652027488	
16.545	-0.475	-0.185071928661818	
16.55	-0.802	-0.3271043857024073	
16.555	-0.640	-0.44529696980853695	
16.56	-0.579	-0.5478476510420567	
16.565	-0.951	-0.6384153360794727	
16.57	-0.888	-0.7079017006856159	
16.575	-0.628	-0.7600775730655005	
16.58	-0.836	-0.7995637827354495	
16.585	-0.926	-0.8160169640250933	
16.59	-0.592	-0.8107393843491102	
16.595	-0.616	-0.7970858170139692	
16.6	-0.816	-0.7707548124293087	
16.605	-0.540	-0.7285006891855101	
16.61	-0.410	-0.6830512685993546	
16.615	-0.695	-0.643146320044672	
16.62	-0.562	-0.6019133965784422	
16.625	-0.228	-0.5583195905833586	
16.63	-0.431	-0.5174299184110714	
16.635	-0.532	-0.47292485863221956	
16.64	-0.205	-0.42793578784737046	
16.645	-0.258	-0.3950672754129477	
16.65	-0.520	-0.3686379659937912	
16.655	-0.263	-0.3436137377866498	
16.66	-0.135	-0.32708102107678017	
16.665	-0.437	-0.3160433865249146	
16.67	-0.298	-0.30095562672806686	
16.675	0.064	-0.2763502570257298	
16.68	-0.208	-0.24736508146440372	
16.685	-0.304	-0.21295984655517397	
16.69	0.041	-0.1789571586206245	
16.695	-0.078	-0.15600590903372877	
16.7	-0.310	-0.14168543229279967	
16.705	0.064	-0.12163606256648377	
16.71	0.322	-0.08595909823363941	
16.715	-0.225	-0.0450783569489725	
16.72	-0.168	-0.017099544872608664	
16.725	0.133	-0.01427460584813554	
16.73	-0.284	-0.035307594070861335	
16.735	-0.511	-0.07811511569485356	
16.74	-0.291	-0.1449567021956653	
16.745	-0.404	-0.23286676493856223	
16.75	-0.708	-0.321759646612253	
16.755	-0.495	-0.39770872117213857	
16.76	-0.364	-0.45984494727566066	
16.765	-0.628	-0.5050787003643669	
16.77	-0.428	-0.5161391916147242	
16.775	0.053	-0.4861232741835069	
16.78	-0.052	-0.41527273721565955	
16.785	-0.051	-0.3052159015041053	
16.79	0.646	-0.1568166161270347	
16.795	0.453	0.010228385219392445	
16.8	-0.087	0.15099384699151236	
16.805	0.290	0.2362185824731229	
16.81	0.583	0.28035991063758314	
16.815	-0.013	0.3018356440251392	
16.82	0.111	0.30062655861169096	
16.825	0.718	0.2939924709260803	
16.83	0.249	0.302870173964116	
16.835	-0.002	0.3105711277547219	
16.84	0.586	0.31004663613147687	
16.845	0.467	0.3154679035749219	
16.85	-0.075	0.3200979460055272	
16.855	0.305	0.3079774967419464	
16.86	0.605	0.2953925428731281	
16.865	-0.023	0.28814757408051384	
16.87	0.082	0.27346765608295265	
16.875	0.554	0.25470573534311647	
16.88	-0.037	0.23518654622868682	
16.885	-0.245	0.19669916919072672	
16.89	0.068	0.13358069554276641	
16.895	-0.084	0.058566929637891015	
16.9	-0.485	-0.023446816704713776	
16.905	-0.353	-0.10939041327350174	
16.91	-0.274	-0.20087934356241147	
16.915	-0.666	-0.29530728733444783	
16.92	-0.659	-0.3805639938043133	
16.925	-0.376	-0.45481013466451187	
16.93	-0.596	-0.5144409626253483	
16.935	-0.749	-0.552953628036237	
16.94	-0.466	-0.5749314142190525	
16.945	-0.471	-0.5894316130417265	
16.95	-0.752	-0.5939347392731543	
16.955	-0.550	-0.5886748183474111	
16.96	-0.408	-0.5841886968112191	
16.965	-0.731	-0.5838601376802443	
16.97	-0.671	-0.5825461445454891	
16.975	-0.362	-0.5802577901962946	
16.98	-0.556	-0.576214109157249	
16.985	-0.662	-0.5646857243414962	
16.99	-0.347	-0.5443146618748183	
16.995	-0.393	-0.5244653397117839	
17.0	-0.659	-0.5075743608052743	
17.005	-0.474	-0.49187843073611415	
17.01	-0.333	-0.48541328296484637	
17.015	-0.647	-0.48754116900132083	
17.02	-0.614	-0.491534083026642	
17.025	-0.378	-0.5015681949090889	
17.03	-0.640	-0.5190546047405306	
17.035	-0.798	-0.543516783739989	
17.04	-0.506	-0.5695797684907773	
17.045	-0.569	-0.5964620176026074	
17.05	-0.801	-0.6183183351088316	
17.055	-0.567	-0.628015394140111	
17.06	-0.411	-0.627539404658208	
17.065	-0.705	-0.6193111606498733	
17.07	-0.645	-0.6055459417546512	
17.075	-0.398	-0.5917718118905115	
17.08	-0.637	-0.5839120780479923	
17.085	-0.723	-0.5814126895955929	
17.09	-0.318	-0.5717710421026473	
17.095	-0.231	-0.5434079313183371	
17.1	-0.471	-0.4941378600718091	
17.105	-0.199	-0.4281798324605418	
17.11	-0.019	-0.35962446623812827	
17.115	-0.422	-0.30212055981137786	
17.12	-0.468	-0.26963093771375657	
17.125	-0.243	-0.2719644923460858	
17.13	-0.512	-0.30374420242504896	
17.135	-0.677	-0.3503369935906544	
17.14	-0.326	-0.3989923216304319	
17.145	-0.309	-0.4333614427402657	
17.15	-0.495	-0.44294370336128797	
17.155	-0.167	-0.42031412213161723	
17.16	-0.074	-0.375703494804982	
17.165	-0.617	-0.33893269068196963	
17.17	-0.897	-0.35070082486769827	
17.175	-0.975	-0.44218125808821795	
17.18	-0.993	-0.5956069824310826	
17.185	-0.996	-0.7411779009315473	
17.19	-0.995	-0.8491261288570052	
17.195	-0.995	-0.937421774723537	
17.2	-0.995	-0.9978314199469966	
17.205	-0.995	-1.0142798760152139	
17.21	-0.995	-1.0207905246826814	
17.215	-0.993	-1.0299922461890056	
17.22	-0.993	-1.019508867296336	
17.225	-0.995	-1.0029788038554217	
17.23	-0.995	-1.006876046267527	
17.235	-0.995	-1.004339976204113	
17.24	-0.886	-0.9847091744533969	
17.245	-0.811	-0.9674847106988584	
17.25	-0.989	-0.9483669136036954	
17.255	-0.700	-0.9109198079813766	
17.26	-0.478	-0.8593714141599811	
17.265	-0.677	-0.7956455287356028	
17.27	-0.549	-0.7165800586777674	
17.275	-0.194	-0.6302054789984296	
17.28	-0.350	-0.5452569941133136	
17.285	-0.453	-0.4629400265172172	
17.29	-0.049	-0.3839640791700844	
17.295	0.013	-0.30933007634867976	
17.3	-0.248	-0.2352366025032036	
17.305	0.094	-0.1575553631928766	
17.31	0.544	-0.07072296744977517	
17.315	0.088	0.02958215488831251	
17.32	0.305	0.13223404694372526	
17.325	1.058	0.24667800437279808	
17.33	0.751	0.3874233502392309	
17.335	0.661	0.5364227026527525	
17.34	1.492	0.6897353333753214	
17.345	1.567	0.8668886954754724	
17.35	0.950	1.043998086318037	
17.355	1.425	1.1806275483830877	
17.36	1.715	1.281773422501012	
17.365	1.109	1.355087621015076	
17.37	1.300	1.3940402399076488	
17.375	1.915	1.4231643902340037	
17.38	1.485	1.4643056073564302	
17.385	1.193	1.4960768058041065	
17.39	1.845	1.5149700490734066	
17.395	1.721	1.5380108264554635	
17.4	1.083	1.5507673441547434	
17.405	1.505	1.5366513846583185	
17.41	1.760	1.5139512317622834	
17.415	1.016	1.4860630757152804	
17.42	1.040	1.4339296061442295	
17.425	1.627	1.368154565665035	
17.43	1.207	1.3214432259911408	
17.435	0.881	1.2841200763526421	
17.44	1.534	1.2507721937602618	
17.445	1.485	1.2430650802423053	
17.45	0.906	1.2520662198141483	
17.455	1.245	1.2504446069120583	
17.46	1.529	1.2436878665964644	
17.465	0.869	1.235484021716839	
17.47	0.973	1.2100110159876256	
17.475	1.671	1.1886185500162403	
17.48	1.411	1.2077179670683587	
17.485	1.402	1.2676265342402313	
17.49	2.194	1.3731972918542523	
17.495	2.070	1.5238983702071525	
17.5	1.378	1.6647944058853417	
17.505	1.622	1.7390573390985211	
17.51	1.703	1.7450138020607737	
17.515	0.809	1.6822597688951828	
17.52	0.676	1.5351467345313918	
17.525	1.141	1.3385716201894582	
17.53	0.637	1.1471970836956493	
17.535	0.183	0.9624281931865986	
17.54	0.845	0.7920902474614431	
17.545	1.065	0.6877370648112733	
17.55	0.702	0.673269514206708	
17.555	0.777	0.7045134118244885	
17.56	-0.165	0.6838154266973493	
17.565	-0.993	0.5124369517119568	
17.57	-0.996	0.19553721725661333	
17.575	-0.995	-0.173894647130018	
17.58	-0.996	-0.5182241427073497	
17.585	-0.996	-0.7743375797272313	
17.59	-0.996	-0.9321283306959603	
17.595	-0.996	-1.0287041196598927	
17.6	-0.996	-1.0743519462795685	
17.605	-0.996	-1.0729479889154985	
17.61	-0.996	-1.0601072068111521	
17.615	-0.996	-1.0493130507860258	
17.62	-0.996	-1.0291092103267139	
17.625	-0.996	-1.0082019086687226	
17.63	-0.996	-1.0048568970826186	
17.635	-0.998	-1.0004825073211439	
17.64	-0.996	-0.9901032561884104	
17.645	-0.995	-0.9920235360722958	
17.65	-0.996	-0.9973491011588596	
17.655	-0.996	-0.9912918837134469	
