Time	Potential	EKG	Unnamed: 3
0.0	-0.996	-0.045884510173505234	
0.005	-0.996	-0.1982292061983394	
0.01	-0.996	-0.42012064247372294	
0.015	-0.996	-0.6358040860823033	
0.02	-0.996	-0.8078002489447531	
0.025	-0.996	-0.9281918494022586	
0.03	-0.996	-0.9991663004992348	
0.035	-0.996	-1.0335956150204684	
0.04	-0.996	-1.043921543009497	
0.045	-0.996	-1.040565587108009	
0.05	-0.996	-1.029763140880359	
0.055	-0.996	-1.0184181712291136	
0.06	-0.996	-1.009656848965721	
0.065	-0.996	-1.0023071348389339	
0.07	-0.995	-0.997019183673482	
0.075	-0.995	-0.9952596409511119	
0.08	-0.993	-0.993988336574439	
0.085	-0.779	-0.9820590368283373	
0.09	-0.396	-0.9314099830531373	
0.095	-0.614	-0.8373594815000088	
0.1	-0.284	-0.7227554803408427	
0.105	0.020	-0.9430684454443411	
0.11	-0.731	-0.9430684454443411	
0.115	-0.993	-0.9430684454443411	
0.12	-0.995	-0.9430684454443411	
0.125	-0.996	-0.626135963467946	
0.13	-0.996	-0.7595484773055591	
0.135	-0.996	-0.865837346201763	
0.14	-0.996	-0.9430684454443411	
0.145	-0.996	-0.9937604865745562	
0.15	-0.996	-1.0158220980902253	
0.155	-0.996	-1.0222423890431358	
0.16	-0.996	-1.0242882654230723	
0.165	-0.996	-1.0190222889825473	
0.17	-0.996	-1.0089947400893875	
0.175	-0.995	-1.0051983347983886	
0.18	-0.996	-1.001987605283324	
0.185	-0.996	-0.9955312119172725	
0.19	-0.995	-0.9938400920542748	
0.195	-0.996	-0.9972884611447235	
0.2	-0.996	-0.9937700618001757	
0.205	-0.996	-0.9927294577365824	
0.21	-0.996	-0.996688415325314	
0.215	-0.996	-0.9973261587501616	
0.22	-0.996	-0.9933693523651403	
0.225	-0.996	-0.99627075830717	
0.23	-0.996	-0.9986122557765047	
0.235	-0.996	-0.9940504873140207	
0.24	-0.995	-0.9944741328950383	
0.245	-0.996	-0.9990371820741912	
0.25	-0.996	-0.9956831553996337	
0.255	-0.996	-0.9929818599375101	
0.26	-0.996	-0.9982583922402011	
0.265	-0.998	-0.9977627420532827	
0.27	-0.996	-0.9924809391205534	
0.275	-0.996	-0.9973725134985484	
0.28	-0.996	-1.0004981939490036	
0.285	-0.996	-0.9943731596001567	
0.29	-0.995	-0.9939586065998893	
0.295	-0.996	-1.0000924371520943	
0.3	-0.996	-0.9955607994374025	
0.305	-0.996	-0.991931268492637	
0.31	-0.996	-0.999060126052666	
0.315	-0.996	-0.9983739238231538	
0.32	-0.996	-0.9912337964879416	
0.325	-0.996	-0.996514754395214	
0.33	-0.996	-1.0007393231907225	
0.335	-0.996	-0.9924309775627751	
0.34	-0.995	-0.9932357813473137	
0.345	-0.995	-1.0015582196089265	
0.35	-0.995	-0.9953957125072468	
0.355	-0.877	-0.9844673415413052	
0.36	-0.993	-0.9811558189680696	
0.365	-0.903	-0.9672303061173231	
0.37	-0.399	-0.921506284939986	
0.375	-0.430	-0.8376169936180837	
0.38	-0.610	-0.7304266638946598	
0.385	-0.019	-0.6072834435198513	
0.39	0.620	-0.44115598398171785	
0.395	0.249	-0.22027061721972088	
0.4	0.976	0.03761449301719807	
0.405	1.885	0.34927105372017664	
0.41	1.236	0.6988719689774382	
0.415	1.173	1.003614004794961	
0.42	2.184	1.2449203925043861	
0.425	1.981	1.4685376167034943	
0.43	1.312	1.6481137655853364	
0.435	2.067	1.7552691704869012	
0.44	2.346	1.8377118852569996	
0.445	1.587	1.911706429658391	
0.45	2.001	1.9563309480547668	
0.455	2.866	2.0111963055897744	
0.46	2.366	2.116661227993534	
0.465	2.533	2.251098932897707	
0.47	3.078	2.3994336117041275	
0.475	3.075	2.558719316167304	
0.48	3.078	2.728701111023578	
0.485	3.069	2.8924288859487666	
0.49	3.066	2.998912207285593	
0.495	3.072	3.0523638091988317	
0.5	3.069	3.0953910452541447	
0.505	3.063	3.1154914384946286	
0.51	3.067	3.099243781418267	
0.515	3.072	3.0919560025373256	
0.52	3.066	3.097052831490939	
0.525	3.067	3.0794592562935383	
0.53	3.075	3.065066375040456	
0.535	3.071	3.0771947887188533	
0.54	3.069	3.0742786638377178	
0.545	3.075	3.059287298724512	
0.55	3.078	3.0706957695188617	
0.555	3.074	3.0805944586291387	
0.56	3.080	3.066209300385717	
0.565	2.967	3.0643556941027446	
0.57	3.078	3.069604572945324	
0.575	3.083	3.0521398525602432	
0.58	2.218	3.0045032658551696	
0.585	2.740	2.9204418499747407	
0.59	2.788	2.8161411256201117	
0.595	1.805	2.6954255798864404	
0.6	2.033	2.5468970394256565	
0.605	2.643	2.4013601812788057	
0.61	1.844	2.2869961982044114	
0.615	1.624	2.1843754214398503	
0.62	2.433	2.095381657784543	
0.625	2.073	2.040079800627221	
0.63	1.421	1.999931945555074	
0.635	2.076	1.9574897682122867	
0.64	2.203	1.9240268385305974	
0.645	1.260	1.8919459806523313	
0.65	1.625	1.840965020527471	
0.655	2.186	1.7906907120988975	
0.66	1.405	1.751116885593204	
0.665	1.262	1.7086314349134304	
0.67	2.116	1.6696239722721458	
0.675	1.741	1.6540280526175313	
0.68	1.000	1.6397917365072074	
0.685	1.616	1.604174557443168	
0.69	1.743	1.554644048702864	
0.695	0.803	1.4969395405303292	
0.7	1.074	1.4189898255610545	
0.705	1.666	1.3375934581971496	
0.71	0.805	1.2645569197535576	
0.715	0.588	1.1841359170743169	
0.72	1.376	1.1014127700099967	
0.725	0.959	1.0319969479017461	
0.73	0.232	0.9650992317954699	
0.735	0.892	0.8876281237695545	
0.74	1.046	0.8160246095101662	
0.745	0.191	0.7563454441296215	
0.75	0.567	0.7030350708552338	
0.755	1.216	0.6701246530182244	
0.76	0.415	0.6602342018860904	
0.765	0.287	0.6528699965028046	
0.77	1.171	0.6488479594210347	
0.775	0.919	0.6659888393128792	
0.78	0.388	0.7037630436282099	
0.785	1.245	0.7548581244918469	
0.79	1.505	0.8322011501897212	
0.795	0.634	0.921066490818121	
0.8	0.964	0.9910056059717072	
0.805	1.523	1.0372834383052607	
0.81	0.583	1.0521105733476217	
0.815	0.250	1.0127528471717833	
0.82	1.007	0.9239024454603988	
0.825	0.609	0.8169954620741462	
0.83	-0.009	0.7107441290876155	
0.835	0.612	0.6108304392415866	
0.84	0.767	0.5281753510647282	
0.845	-0.009	0.46816741687018704	
0.85	0.357	0.4280468713044904	
0.855	1.083	0.41719152702775447	
0.86	0.368	0.4402343503756337	
0.865	0.350	0.48192012171489224	
0.87	1.349	0.5457523350370672	
0.875	1.113	0.6439867182731502	
0.88	0.605	0.7609741975530268	
0.885	1.390	0.8766651742414723	
0.89	1.430	0.9819680228393275	
0.895	0.600	1.0564267313096452	
0.9	1.045	1.0920033975483578	
0.905	1.709	1.1158397135180849	
0.91	0.944	1.1434908198080072	
0.915	0.770	1.1591053197210046	
0.92	1.602	1.1612653860914652	
0.925	1.233	1.1650492935447132	
0.93	0.562	1.1604446497651284	
0.935	1.260	1.1372482512349062	
0.94	1.388	1.1107183684296698	
0.945	0.441	1.0801076165642933	
0.95	0.773	1.0288792070619892	
0.955	1.382	0.9751685399461362	
0.96	0.557	0.931066334189628	
0.965	0.339	0.8794903735705828	
0.97	1.083	0.8173900125649725	
0.975	0.651	0.76018745540014	
0.98	0.027	0.6973195651991766	
0.985	0.686	0.626553840554926	
0.99	0.799	0.5672356947453036	
0.995	-0.045	0.5191936038169516	
1.0	0.195	0.4617259733644059	
1.005	0.793	0.40610373824193846	
1.01	0.067	0.3659131711319855	
1.015	0.009	0.3311118468044561	
1.02	0.822	0.3121312706253772	
1.025	0.498	0.32437180983445735	
1.03	0.018	0.3505723462532889	
1.035	0.774	0.38157791638975236	
1.04	1.048	0.4375466100210079	
1.045	0.188	0.5096811714820393	
1.05	0.676	0.5664993312287199	
1.055	1.531	0.6356717996251469	
1.06	1.010	0.7511187486555929	
1.065	1.216	0.8969210344011527	
1.07	2.285	1.0823593250744254	
1.075	2.044	1.3186674629190054	
1.08	1.517	1.5512667054072338	
1.085	2.391	1.742098905529039	
1.09	2.800	1.927606007259671	
1.095	2.224	2.120862644832095	
1.1	2.791	2.3021339171921236	
1.105	3.075	2.472544280543824	
1.11	3.080	2.6387706653937446	
1.115	3.074	2.807066504809808	
1.12	3.072	2.9508347357249383	
1.125	3.075	3.03187833331892	
1.13	3.077	3.075630836355956	
1.135	3.069	3.1115044354449184	
1.14	3.067	3.116217795678076	
1.145	3.074	3.0991967648480374	
1.15	3.072	3.0971050303441796	
1.155	3.066	3.094364715635096	
1.16	3.074	3.07607216923808	
1.165	3.078	3.071349982614688	
1.17	3.066	3.0779179726559107	
1.175	3.071	3.06989083957182	
1.18	3.063	3.063461920478195	
1.185	3.043	3.0704424459136668	
1.19	3.028	3.064168351707385	
1.195	3.029	3.047815624681622	
1.2	3.026	3.045124811325995	
1.205	3.026	3.0418524436950585	
1.21	3.026	3.027946484110122	
1.215	3.028	3.0252355756021903	
1.22	3.028	3.0305871994372944	
1.225	3.028	3.0248526169150898	
1.23	3.026	3.0207137956578105	
1.235	3.026	3.0287476604969212	
1.24	3.029	3.0284256413531754	
1.245	3.031	3.022892702300449	
1.25	3.029	3.0281811553362967	
1.255	3.028	3.031828212327028	
1.26	3.028	3.0264863889733142	
1.265	3.028	3.0268579663741404	
1.27	3.029	3.0327297890120013	
1.275	3.029	3.0287775647826836	
1.28	3.028	3.025538756609332	
1.285	3.028	3.0313405615369495	
1.29	3.031	3.0299080440750217	
1.295	3.031	3.0255589158718594	
1.3	3.028	3.0292717244008287	
1.305	3.029	3.0321738849098643	
1.31	3.028	3.026773154858139	
1.315	3.029	3.0272863002500294	
1.32	3.031	3.0322355192215404	
1.325	3.031	3.0286674910249705	
1.33	3.046	3.027038674263834	
1.335	3.049	3.0351718627457602	
1.34	3.060	3.03956219254639	
1.345	2.670	3.0228700562923274	
1.35	1.938	2.9383121254313713	
1.355	1.495	2.726686407748965	
1.36	-0.002	2.341753404002388	
1.365	-0.477	1.7694693054978998	
1.37	-0.448	1.0999734226444235	
1.375	-0.992	0.45470813321573383	
1.38	-0.993	-0.10554737609687616	
1.385	-0.993	-0.5399846083862985	
1.39	-0.993	-0.8395703972006251	
1.395	-0.993	-1.0186174177081804	
1.4	-0.996	-1.0976436911998673	
1.405	-0.995	-1.1176133664995898	
1.41	-0.995	-1.1087491453247669	
1.415	-0.996	-1.0812121018764442	
1.42	-0.995	-1.0495722934946867	
1.425	-0.995	-1.027320922556489	
1.43	-0.996	-1.0111591530990558	
1.435	-0.996	-0.9963780857845934	
1.44	-0.995	-0.9909107309998824	
1.445	-0.996	-0.9922464515204412	
1.45	-0.996	-0.9896822623728291	
1.455	-0.995	-0.9890109839472785	
1.46	-0.995	-0.9935329176852097	
1.465	-0.996	-0.9949983805510451	
1.47	-0.995	-0.9918854426143209	
1.475	-0.995	-0.9953242623522801	
1.48	-0.995	-0.9968755649567401	
1.485	-0.995	-0.9935225471989237	
1.49	-0.993	-0.99406474290031	
1.495	-0.996	-0.9970379468087797	
1.5	-0.995	-0.9946627435600748	
1.505	-0.995	-0.9931887726789557	
1.51	-0.995	-0.996459533714732	
1.515	-0.996	-0.9958955988801121	
1.52	-0.993	-0.9929872719648926	
1.525	-0.995	-0.9953585233031785	
1.53	-0.995	-0.9967917223392436	
1.535	-0.995	-0.993522305815178	
1.54	-0.995	-0.9941218835355675	
1.545	-0.995	-0.9970372999653618	
1.55	-0.995	-0.994611330590535	
1.555	-0.995	-0.9931834708406735	
1.56	-0.995	-0.9965324399880124	
1.565	-0.995	-0.9958823040409822	
1.57	-0.995	-0.9928877183247873	
1.575	-0.993	-0.9954285211078439	
1.58	-0.995	-0.9968862227059477	
1.585	-0.995	-0.9923738288133575	
1.59	-0.993	-0.9930920440774442	
1.595	-0.993	-0.9962425968228077	
1.6	-0.995	-0.9935187220129039	
1.605	-0.993	-0.9919935520921116	
1.61	-0.995	-0.995764243926989	
1.615	-0.995	-0.9949579848865645	
1.62	-0.995	-0.9915685190426823	
1.625	-0.995	-0.9945459761873416	
1.63	-0.995	-0.9971781468137536	
1.635	-0.993	-0.9930535896225056	
1.64	-0.995	-0.9939655281959896	
1.645	-0.995	-0.9966817041787072	
1.65	-0.995	-0.9943806395243509	
1.655	-0.993	-0.9925953123674724	
1.66	-0.993	-0.9961687120742512	
1.665	-0.995	-0.995137622706566	
1.67	-0.993	-0.9910128825384795	
1.675	-0.993	-0.9947035742213516	
1.68	-0.995	-0.9966813458097885	
1.685	-0.993	-0.991561767749516	
1.69	-0.993	-0.9927349023399751	
1.695	-0.992	-0.997362464848436	
1.7	-0.995	-0.9921930218803596	
1.705	-0.911	-0.9869741933952553	
1.71	-0.995	-0.983763369594552	
1.715	-0.993	-0.9764265133535424	
1.72	-0.848	-0.9651915443298799	
1.725	-0.992	-0.9579118294194658	
1.73	-0.995	-0.9544256009134062	
1.735	-0.925	-0.9498851325089743	
1.74	-0.853	-0.9463745768217572	
1.745	-0.995	-0.9422829562824175	
1.75	-0.995	-0.9359999699070595	
1.755	-0.776	-0.9331567447607697	
1.76	-0.995	-0.9314697324495711	
1.765	-0.995	-0.9268215835427426	
1.77	-0.776	-0.9222295173530312	
1.775	-0.987	-0.9211127393766024	
1.78	-0.993	-0.9232765322497661	
1.785	-0.865	-0.9221451230566309	
1.79	-0.830	-0.9209700847044865	
1.795	-0.993	-0.918287645928797	
1.8	-0.993	-0.9147838253861506	
1.805	-0.694	-0.9122701385826281	
1.81	-0.993	-0.9092379747907157	
1.815	-0.993	-0.9032405980575964	
1.82	-0.657	-0.8951899646129083	
1.825	-0.833	-0.880322290072801	
1.83	-0.995	-0.8641806089022882	
1.835	-0.715	-0.8493798411305986	
1.84	-0.665	-0.8345477505205334	
1.845	-0.992	-0.8203121851716972	
1.85	-0.827	-0.8115756847462536	
1.855	-0.527	-0.8023874507260467	
1.86	-0.928	-0.7919834604399847	
1.865	-0.928	-0.7866595406494934	
1.87	-0.501	-0.7822137020327551	
1.875	-0.721	-0.7695046342612943	
1.88	-0.993	-0.7580198219906601	
1.885	-0.619	-0.7537052267954788	
1.89	-0.585	-0.7491472874868059	
1.895	-0.993	-0.7451997765293309	
1.9	-0.805	-0.7494295700394884	
1.905	-0.524	-0.7566321457886032	
1.91	-0.918	-0.7615768287366482	
1.915	-0.949	-0.7690169952136601	
1.92	-0.504	-0.7754301879257159	
1.925	-0.700	-0.7706343029056801	
1.93	-0.972	-0.7596756446102881	
1.935	-0.592	-0.7501735981114201	
1.94	-0.521	-0.7378443713802341	
1.945	-0.931	-0.7228862672691299	
1.95	-0.654	-0.7092881802737925	
1.955	-0.263	-0.6860486463666184	
1.96	-0.581	-0.6430402835052328	
1.965	-0.446	-0.582255219111613	
1.97	0.094	-0.49881573270263246	
1.975	-0.214	-0.4017719023431606	
1.98	-0.533	-0.3202065405524049	
1.985	-0.225	-0.27578652917675767	
1.99	-0.313	-0.27163704173815406	
1.995	-0.796	-0.3054311467473291	
2.0	-0.601	-0.3662040766306422	
2.005	-0.332	-0.43560677967521005	
2.01	-0.732	-0.49639301963226495	
2.015	-0.727	-0.542473909584673	
2.02	-0.232	-0.5663530196775338	
2.025	-0.297	-0.557814141501848	
2.03	-0.426	-0.5085412142463341	
2.035	0.275	-0.4154158849158667	
2.04	0.489	-0.27340494845742347	
2.045	-0.173	-0.11383406017542565	
2.05	0.281	0.019816374136122163	
2.055	0.976	0.14672891536725477	
2.06	0.133	0.2754072769230123	
2.065	0.151	0.36028151051089796	
2.07	1.022	0.4138143772324256	
2.075	0.521	0.4732829793326425	
2.08	-0.049	0.5072714430323314	
2.085	0.652	0.4953764450298615	
2.09	0.738	0.48171788142326616	
2.095	-0.075	0.4704395652934612	
2.1	0.292	0.4335499152695842	
2.105	0.825	0.3974554127019978	
2.11	-0.055	0.3789498029453632	
2.115	-0.110	0.3353753182137431	
2.12	0.612	0.27707972035589457	
2.125	0.053	0.2376346085650102	
2.13	-0.321	0.19198921918637166	
2.135	0.119	0.12554154130364067	
2.14	0.042	0.06141279376998761	
2.145	-0.559	-0.0074076127160784405	
2.15	-0.459	-0.09784010801373279	
2.155	-0.339	-0.20761543537092322	
2.16	-0.975	-0.3329860127818731	
2.165	-0.995	-0.47814030366484384	
2.17	-0.993	-0.6353599011388726	
2.175	-0.995	-0.7909908321225996	
2.18	-0.996	-0.9056924680232852	
2.185	-0.996	-0.9675362877495285	
2.19	-0.996	-1.0092088000106112	
2.195	-0.996	-1.0349476322701654	
2.2	-0.996	-1.0300401889716193	
2.205	-0.998	-1.0208526624706593	
2.21	-0.995	-1.0220597636929698	
2.215	-0.995	-1.0124870569312605	
2.22	-0.996	-0.997561566436426	
2.225	-0.996	-0.9999232359292298	
2.23	-0.996	-1.000706346897838	
2.235	-0.996	-0.991222550621425	
2.24	-0.996	-0.9917441200575843	
2.245	-0.996	-1.0000629000710344	
2.25	-0.996	-0.9940893453679037	
2.255	-0.996	-0.9906137826141932	
2.26	-0.996	-0.9995917205593354	
2.265	-0.996	-0.998087654238273	
2.27	-0.996	-0.9911827396416255	
2.275	-0.996	-0.9969198118028137	
2.28	-0.996	-1.000182590554691	
2.285	-0.996	-0.9925026712913827	
2.29	-0.996	-0.9940254887658023	
2.295	-0.996	-1.000693822248667	
2.3	-0.996	-0.9950487721654921	
2.305	-0.996	-0.9919164577438843	
2.31	-0.996	-0.9994893309849009	
2.315	-0.996	-0.9979103568336669	
2.32	-0.996	-0.9913135048659104	
2.325	-0.996	-0.9970061007892305	
2.33	-0.996	-1.0000855391407402	
2.335	-0.996	-0.9924323437051135	
2.34	-0.995	-0.9941065682532235	
2.345	-0.996	-1.000795117742147	
2.35	-0.996	-0.9949140274837177	
2.355	-0.996	-0.9918114635052908	
2.36	-0.996	-0.9997343688773481	
2.365	-0.996	-0.9979231441982005	
2.37	-0.996	-0.9909776027613296	
2.375	-0.998	-0.9971930059412406	
2.38	-0.996	-1.0013959748016967	
2.385	-0.995	-0.9930060429178853	
2.39	-0.995	-0.9939959030096617	
2.395	-0.995	-1.0013763421903308	
2.4	-0.995	-0.9946769751678713	
2.405	-0.656	-0.9752661882146492	
2.41	-0.772	-0.9373039510969048	
2.415	-0.442	-0.8621288601622812	
2.42	1.081	-0.686099627121065	
2.425	1.734	-0.32321572455007963	
2.43	2.494	0.23904919196243266	
2.435	3.072	0.9335599163572192	
2.44	3.057	1.6362248136750877	
2.445	3.054	2.2377705203646183	
2.45	3.041	2.6943802513958466	
2.455	3.028	2.983270598698485	
2.46	3.034	3.1230510309658452	
2.465	3.034	3.181545825426372	
2.47	3.026	3.190570055806657	
2.475	3.034	3.1533477209019427	
2.48	3.040	3.1132321130769975	
2.485	3.038	3.091364945871559	
2.49	3.043	3.0636071158784244	
2.495	3.054	3.0387893789068343	
2.5	3.058	3.041866744692499	
2.505	3.057	3.0463398938364565	
2.51	3.071	3.038040331799401	
2.515	3.078	3.0471616957969667	
2.52	3.075	3.0660322036459102	
2.525	2.994	3.058869807038633	
2.53	1.902	2.996872684657532	
2.535	2.142	2.840566686541325	
2.54	1.699	2.594131563012281	
2.545	0.559	2.2660758156602827	
2.55	0.816	1.8692639307940415	
2.555	1.228	1.487819979759887	
2.56	0.336	1.1748707996342334	
2.565	0.279	0.9155144608957851	
2.57	1.147	0.7236000289922269	
2.575	0.741	0.6317132735940317	
2.58	0.211	0.6007214936743925	
2.585	0.977	0.5905385722221812	
2.59	1.112	0.6177656423326479	
2.595	0.420	0.6730304446372402	
2.6	1.075	0.732410125778535	
2.605	1.830	0.8306490965740467	
2.61	1.060	0.9752523061571579	
2.615	1.161	1.1120875839895392	
2.62	2.123	1.2402116015447135	
2.625	1.758	1.3866177652613496	
2.63	1.289	1.5222214615749405	
2.635	2.154	1.6257805255311673	
2.64	2.210	1.725948611427515	
2.645	1.338	1.809764910743188	
2.65	1.783	1.843321803784075	
2.655	2.300	1.8517081684860535	
2.66	1.512	1.8613101552606177	
2.665	1.553	1.8500847645502145	
2.67	2.365	1.8360280195981464	
2.675	1.804	1.8467259322859495	
2.68	1.210	1.841484199814517	
2.685	1.992	1.8034233325889477	
2.69	2.111	1.7788242133619347	
2.695	1.413	1.7794101124211448	
2.7	2.220	1.7981656486223907	
2.705	3.080	1.8881466821333188	
2.71	3.071	2.0960763030649554	
2.715	3.034	2.385449791064012	
2.72	3.023	2.6599074345953033	
2.725	3.023	2.845821286249092	
2.73	3.026	2.9705377646669255	
2.735	3.026	3.0567070718788765	
2.74	3.026	3.085076335642482	
2.745	3.025	3.078437154559346	
2.75	3.025	3.080310544462026	
2.755	3.026	3.071001981020083	
2.76	3.028	3.0433175325771735	
2.765	3.028	3.036261391504076	
2.77	3.026	3.039369683296732	
2.775	3.026	3.0244584312590392	
2.78	3.025	3.0172548824164647	
2.785	3.028	3.0298013986897394	
2.79	3.029	3.02646245243276	
2.795	3.048	3.017617223499484	
2.8	3.072	3.0338325153158276	
2.805	1.887	2.991607495681712	
2.81	-0.100	2.715663454371433	
2.815	-0.425	2.1474031766847337	
2.82	-0.086	1.4327326147602986	
2.825	-0.320	0.7583142792783066	
2.83	-0.569	0.22914369649461697	
2.835	-0.205	-0.13583632336096435	
2.84	-0.194	-0.3543237524750232	
2.845	-0.665	-0.46365176182323625	
2.85	-0.449	-0.5072538496137803	
2.855	-0.196	-0.516986846861913	
2.86	-0.621	-0.5090427841299106	
2.865	-0.621	-0.49566867087990263	
2.87	-0.243	-0.4863163417261189	
2.875	-0.518	-0.48169195228959943	
2.88	-0.792	-0.48603746954177623	
2.885	-0.468	-0.5019878394139365	
2.89	-0.495	-0.529303721760459	
2.895	-0.899	-0.5626846687214234	
2.9	-0.694	-0.5983430936292433	
2.905	-0.508	-0.6339529153866835	
2.91	-0.909	-0.6710043506439679	
2.915	-0.925	-0.7047270226386955	
2.92	-0.575	-0.737306391046417	
2.925	-0.822	-0.7656296983518239	
2.93	-0.993	-0.7860649329797978	
2.935	-0.700	-0.7979940947887084	
2.94	-0.650	-0.8062462447218964	
2.945	-0.989	-0.808707838631855	
2.95	-0.744	-0.8003649734221672	
2.955	-0.504	-0.7868929045946342	
2.96	-0.865	-0.7710285069928866	
2.965	-0.848	-0.7527782332656427	
2.97	-0.417	-0.7342367667764493	
2.975	-0.640	-0.7116267280898685	
2.98	-0.819	-0.6851521764990218	
2.985	-0.422	-0.6549410235969659	
2.99	-0.371	-0.6231928368709023	
2.995	-0.715	-0.5878064624906606	
3.0	-0.423	-0.549362655303931	
3.005	-0.132	-0.5077993507846279	
3.01	-0.498	-0.46409303648277156	
3.015	-0.456	-0.4198298375151586	
3.02	0.017	-0.3751409564195912	
3.025	-0.170	-0.32763880804588313	
3.03	-0.339	-0.2732364946553967	
3.035	0.130	-0.21386888063781512	
3.04	0.120	-0.15415779998615145	
3.045	-0.332	-0.10291841353464067	
3.05	-0.078	-0.07236113219174302	
3.055	0.206	-0.05672669026158633	
3.06	-0.320	-0.054157238191000545	
3.065	-0.339	-0.06787798265798871	
3.07	0.067	-0.09608287729768687	
3.075	-0.240	-0.12864238817108886	
3.08	-0.495	-0.16228346558566276	
3.085	-0.121	-0.19585361672623183	
3.09	-0.116	-0.22513208891561848	
3.095	-0.515	-0.24790715848240236	
3.1	-0.281	-0.2633470348186262	
3.105	-0.019	-0.2737281052934336	
3.11	-0.436	-0.2781427577239192	
3.115	-0.408	-0.2788441103469538	
3.12	0.033	-0.2750945786950837	
3.125	-0.200	-0.2626550514370263	
3.13	-0.416	-0.24424485827019868	
3.135	0.072	-0.21885694919102322	
3.14	0.191	-0.18016306712375968	
3.145	-0.239	-0.12686335902456863	
3.15	0.197	-0.06533608505245303	
3.155	0.783	0.019223170027021518	
3.16	-0.011	0.1229176143335408	
3.165	-0.061	0.19314703612983178	
3.17	0.537	0.21971389081947848	
3.175	0.032	0.22541594178481622	
3.18	-0.207	0.20493653154093477	
3.185	0.374	0.17188333002721962	
3.19	0.371	0.1557628886376656	
3.195	-0.207	0.15253777253145218	
3.2	0.157	0.143470410412588	
3.205	0.779	0.15282408344306347	
3.21	0.136	0.1994449563073139	
3.215	0.392	0.2623642772954961	
3.22	1.527	0.3660756674356917	
3.225	1.498	0.5627630179867139	
3.23	1.801	0.848654105805459	
3.235	3.075	1.223181579762786	
3.24	3.074	1.6815101836530988	
3.245	3.074	2.1555224213101427	
3.25	3.061	2.5710246211972967	
3.255	3.040	2.864804135994798	
3.26	3.031	3.0303108286095286	
3.265	3.028	3.1197332338937334	
3.27	3.025	3.153822747932246	
3.275	3.025	3.1349573110395803	
3.28	3.025	3.1055947850619816	
3.285	3.028	3.0883191188322803	
3.29	3.028	3.060005005785506	
3.295	3.026	3.0345685941302523	
3.3	3.026	3.031020621350663	
3.305	3.026	3.028070990027883	
3.31	3.028	3.015877178749116	
3.315	3.028	3.0191846507972366	
3.32	3.028	3.0281846822147447	
3.325	3.026	3.0219520871252445	
3.33	3.026	3.0201462791429154	
3.335	3.029	3.031054505844149	
3.34	3.029	3.028676726169399	
3.345	3.032	3.0219172194296746	
3.35	3.040	3.0311248265849633	
3.355	3.046	3.03675917524797	
3.36	3.067	3.031896419543368	
3.365	3.063	3.041418472664426	
3.37	2.924	3.050121176693065	
3.375	1.624	2.9666717287732176	
3.38	0.548	2.6889812580038965	
3.385	0.919	2.2341150462331636	
3.39	0.551	1.7267950533738818	
3.395	-0.159	1.2388696691953376	
3.4	-0.009	0.7910240345248614	
3.405	0.134	0.42194265015511584	
3.41	-0.394	0.14613910126512053	
3.415	-0.475	-0.061807287780957246	
3.42	-0.190	-0.21704284724241799	
3.425	-0.538	-0.3287787039022685	
3.43	-0.834	-0.418736819998676	
3.435	-0.572	-0.5043740703064377	
3.44	-0.692	-0.5831567609307269	
3.445	-0.993	-0.6556394120906723	
3.45	-0.993	-0.7303839999904229	
3.455	-0.940	-0.8134753856449702	
3.46	-0.993	-0.8923290658596895	
3.465	-0.993	-0.9407543532882099	
3.47	-0.993	-0.9686439740484111	
3.475	-0.995	-0.9965445939387767	
3.48	-0.993	-1.0093158814946284	
3.485	-0.993	-1.0038042363899948	
3.49	-0.993	-1.0053086432764542	
3.495	-0.993	-1.0092036441590637	
3.5	-0.993	-0.9984642618703768	
3.505	-0.876	-0.987763261446055	
3.51	-0.993	-0.9811439255348207	
3.515	-0.993	-0.9686665407686291	
3.52	-0.561	-0.9418202568153587	
3.525	-0.660	-0.8924910645531541	
3.53	-0.743	-0.8242137188942521	
3.535	-0.275	-0.7409013860007558	
3.54	-0.228	-0.6392994425588057	
3.545	-0.578	-0.5371137050123767	
3.55	-0.249	-0.4545824244495062	
3.555	0.050	-0.37681511708059456	
3.56	-0.257	-0.29695584176521206	
3.565	0.072	-0.2157162839460025	
3.57	1.619	-0.06096886153249379	
3.575	1.986	0.2618866900026058	
3.58	2.443	0.7430303861080353	
3.585	3.067	1.3096190996291537	
3.59	3.055	1.8776535481281256	
3.595	3.046	2.3693674194493264	
3.6	3.028	2.74401871543458	
3.605	3.028	2.981670548936867	
3.61	3.029	3.098603603379998	
3.615	3.028	3.1483883687187406	
3.62	3.026	3.1552321589803713	
3.625	3.026	3.126949417361415	
3.63	3.028	3.0954912875172877	
3.635	3.029	3.074188920891836	
3.64	3.037	3.051497895828402	
3.645	3.055	3.0339525564972343	
3.65	3.061	3.035029151460771	
3.655	3.071	3.0413754184703956	
3.66	1.489	2.9688322569660404	
3.665	0.247	2.680286810307332	
3.67	0.018	2.140709190958395	
3.675	-0.782	1.4501778213176082	
3.68	-0.993	0.725887033896257	
3.685	-0.993	0.06878520766865716	
3.69	-0.993	-0.45448910749811205	
3.695	-0.993	-0.8153407137857197	
3.7	-0.995	-1.0191912392295666	
3.705	-0.995	-1.1151178813183507	
3.71	-0.995	-1.145437454911701	
3.715	-0.996	-1.1292290916688252	
3.72	-0.996	-1.0938704696428045	
3.725	-0.996	-1.0637312937295929	
3.73	-0.996	-1.0365881659089742	
3.735	-0.996	-1.0097094885891615	
3.74	-0.995	-0.9979102800891316	
3.745	-0.996	-0.9949111830132825	
3.75	-0.996	-0.9882689944305905	
3.755	-0.996	-0.986613132600946	
3.76	-0.996	-0.9921962610309607	
3.765	-0.996	-0.9929775794815916	
3.77	-0.996	-0.9912367358622969	
3.775	-0.996	-0.9957556187112263	
3.78	-0.996	-0.9982512646974006	
3.785	-0.996	-0.9938508037088658	
3.79	-0.996	-0.996114346704645	
3.795	-0.995	-0.9996833467757131	
3.8	-0.996	-0.9951992917651438	
3.805	-0.996	-0.9938304723234664	
3.81	-0.996	-0.9981616271111723	
3.815	-0.996	-0.99681093005621	
3.82	-0.995	-0.993323401025821	
3.825	-0.996	-0.996871576438852	
3.83	-0.995	-0.9981437872145621	
3.835	-0.996	-0.9937684714912597	
3.84	-0.998	-0.9952435389209175	
3.845	-0.995	-0.9987369908301431	
3.85	-0.996	-0.9950359508740451	
3.855	-0.995	-0.9938290228280318	
3.86	-0.995	-0.9983566465415605	
3.865	-0.995	-0.9967205608053462	
3.87	-0.995	-0.9921339852716216	
3.875	-0.995	-0.99608075193492	
3.88	-0.995	-0.9972547610275544	
3.885	-0.995	-0.9924577296928515	
3.89	-0.993	-0.9942938050550237	
3.895	-0.995	-0.9980698372908052	
3.9	-0.995	-0.9927766886248667	
3.905	-0.995	-0.9916030939987407	
3.91	-0.996	-0.9977947464483888	
3.915	-0.996	-0.995707550988782	
3.92	-0.993	-0.991643446987408	
3.925	-0.995	-0.9964026075396736	
3.93	-0.995	-0.9976041112569833	
3.935	-0.993	-0.991876398108106	
3.94	-0.993	-0.9942717366171895	
3.945	-0.995	-0.9977292810089958	
3.95	-0.993	-0.9923833529069863	
3.955	-0.992	-0.9911267489364946	
3.96	-0.995	-0.9975278963977751	
3.965	-0.995	-0.9937613940337965	
3.97	-0.995	-0.9898110145549698	
3.975	-0.993	-0.9958762740301077	
3.98	-0.995	-0.9972047108859359	
3.985	-0.992	-0.9899781014898623	
3.99	-0.993	-0.9931963499623361	
3.995	-0.993	-0.9987503657681629	
4.0	-0.995	-0.9908107237677835	
4.005	-0.799	-0.9813803306290959	
4.01	-0.995	-0.9686012357550313	
4.015	-0.995	-0.9518782359704191	
4.02	-0.624	-0.9296013046799833	
4.025	-0.918	-0.9034948079737921	
4.03	-0.995	-0.8810795575535741	
4.035	-0.622	-0.8608153935243681	
4.04	-0.642	-0.8330065448552129	
4.045	-0.993	-0.8040261810897099	
4.05	-0.724	-0.7852468848742109	
4.055	-0.466	-0.7674814571424887	
4.06	-0.831	-0.7416918910301535	
4.065	-0.711	-0.7150886559060855	
4.07	-0.303	-0.6824192746950739	
4.075	-0.572	-0.6400016480457351	
4.08	-0.743	-0.5989033362903717	
4.085	-0.341	-0.5688387628214698	
4.09	-0.405	-0.5418327295478593	
4.095	-0.758	-0.5230812687797071	
4.1	-0.477	-0.5147694762202916	
4.105	-0.336	-0.5127648702376869	
4.11	-0.793	-0.5186108366842559	
4.115	-0.735	-0.5382456895407497	
4.12	-0.408	-0.5664584157881889	
4.125	-0.734	-0.5944487484267256	
4.13	-0.925	-0.6255614321198858	
4.135	-0.527	-0.6559923859267451	
4.14	-0.619	-0.6806895161065496	
4.145	-0.993	-0.7009723306671429	
4.15	-0.723	-0.7203523670616887	
4.155	-0.514	-0.7351356802584461	
4.16	-0.952	-0.7453789218173046	
4.165	-0.879	-0.7533684197051864	
4.17	-0.483	-0.7596178760905716	
4.175	-0.769	-0.7578312171605812	
4.18	-0.915	-0.7501364813540694	
4.185	-0.509	-0.7372567910708927	
4.19	-0.562	-0.721581884760031	
4.195	-0.879	-0.7037678675774705	
4.2	-0.520	-0.6799619697627751	
4.205	-0.274	-0.6465792069713218	
4.21	-0.691	-0.6071045718702229	
4.215	-0.567	-0.5654761031424018	
4.22	-0.136	-0.5238349050707627	
4.225	-0.426	-0.4822135113747158	
4.23	-0.579	-0.44169473793756214	
4.235	-0.129	-0.40454651140893594	
4.24	-0.203	-0.37247211426784466	
4.245	-0.598	-0.34755625112907523	
4.25	-0.291	-0.3316095531724821	
4.255	-0.100	-0.3250403317744904	
4.26	-0.564	-0.3258108573023407	
4.265	-0.520	-0.33358819310490806	
4.27	-0.115	-0.34706951470989245	
4.275	-0.428	-0.3625807739461804	
4.28	-0.588	-0.371220815311729	
4.285	-0.144	-0.37183039699349163	
4.29	-0.236	-0.36837619184985215	
4.295	-0.645	-0.36532706965527145	
4.3	-0.339	-0.3632140442406734	
4.305	-0.116	-0.36550037191114615	
4.31	-0.575	-0.3685392395284989	
4.315	-0.472	-0.36766337274095295	
4.32	0.046	-0.3592633996420899	
4.325	-0.265	-0.3389870929465859	
4.33	-0.339	-0.2997649495666266	
4.335	0.467	-0.23005143877217477	
4.34	0.357	-0.12425889618294897	
4.345	-0.304	-0.017161492607650104	
4.35	-0.020	0.04611189345101356	
4.355	0.145	0.05602899571633004	
4.36	-0.480	0.02276319948904131	
4.365	-0.431	-0.03979548970024408	
4.37	0.010	-0.11654774524537789	
4.375	-0.355	-0.1883066182114961	
4.38	-0.562	-0.24325094136317824	
4.385	-0.060	-0.27746274745184807	
4.39	-0.078	-0.294189386431523	
4.395	-0.422	-0.2867532001019032	
4.4	-0.049	-0.25346836095513037	
4.405	0.276	-0.2055276582008202	
4.41	-0.324	-0.154874269843372	
4.415	-0.193	-0.11181143933385948	
4.42	0.594	-0.06587229939561011	
4.425	0.023	-0.006695622140638769	
4.43	-0.167	0.05029256385276909	
4.435	0.577	0.1011532374962971	
4.44	0.382	0.15385468617334846	
4.445	-0.196	0.19458521605081536	
4.45	0.388	0.21881086627110147	
4.455	0.741	0.24690260681507956	
4.46	-0.101	0.2766382771145317	
4.465	0.070	0.28505632502540595	
4.47	0.915	0.2906073437176846	
4.475	0.288	0.31718153507237423	
4.48	-0.026	0.3439648916936683	
4.485	0.811	0.3624004663624072	
4.49	0.640	0.39000701916818403	
4.495	-0.135	0.41235481421233366	
4.5	0.377	0.4057631038816541	
4.505	0.658	0.3810352691812251	
4.51	-0.188	0.3476546161801335	
4.515	-0.164	0.2899645482979767	
4.52	0.452	0.2145348826561742	
4.525	-0.174	0.14128591200499116	
4.53	-0.375	0.07105644687773725	
4.535	0.114	0.00622053224888537	
4.54	-0.060	-0.053018819743517076	
4.545	-0.486	-0.1053837018364602	
4.55	-0.208	-0.14530640038841358	
4.555	-0.031	-0.1861790978876488	
4.56	-0.497	-0.22712894298543976	
4.565	-0.390	-0.2538960168552542	
4.57	0.085	-0.2657017507140945	
4.575	-0.300	-0.26869773689020787	
4.58	-0.472	-0.2617366621174952	
4.585	0.021	-0.24689838378610185	
4.59	-0.090	-0.23514503305444517	
4.595	-0.480	-0.2242388430382015	
4.6	-0.138	-0.2102778194884632	
4.605	0.200	-0.19430779599861783	
4.61	-0.371	-0.17609191626017304	
4.615	-0.257	-0.15381790502747808	
4.62	0.398	-0.12878575611004595	
4.625	-0.129	-0.09573191116703578	
4.63	-0.333	-0.06565428226358491	
4.635	0.263	-0.04393544356088645	
4.64	0.091	-0.029217914101106062	
4.645	-0.413	-0.024160609230567696	
4.65	-0.162	-0.036278748300154616	
4.655	-0.106	-0.07844617671403571	
4.66	-0.668	-0.15306004142601448	
4.665	-0.639	-0.23972086362908085	
4.67	-0.275	-0.33188388541939345	
4.675	-0.588	-0.4207797018493621	
4.68	-0.749	-0.48350205429017934	
4.685	-0.329	-0.5168954165093003	
4.69	-0.367	-0.5363488783290606	
4.695	-0.650	-0.5351258999193111	
4.7	-0.295	-0.504084388076225	
4.705	-0.092	-0.46148336438740317	
4.71	-0.526	-0.422231638306483	
4.715	-0.382	-0.37757933230225027	
4.72	0.128	-0.330727678065321	
4.725	-0.223	-0.28603352836387996	
4.73	-0.255	-0.23158305613907487	
4.735	0.499	-0.15356877955027917	
4.74	0.204	-0.06142955918938208	
4.745	-0.390	0.010504035480084179	
4.75	-0.168	0.03308371249709807	
4.755	-0.095	-0.005304964598969761	
4.76	-0.613	-0.0875759374038921	
4.765	-0.572	-0.18158503380370036	
4.77	-0.219	-0.27636595459258784	
4.775	-0.559	-0.36823767623291087	
4.78	-0.695	-0.43381757785021535	
4.785	-0.266	-0.4671878308836714	
4.79	-0.317	-0.48741876305901616	
4.795	-0.651	-0.48787660811474487	
4.8	-0.304	-0.46255566371143503	
4.805	-0.068	-0.43198504879564437	
4.81	-0.512	-0.4021230276612229	
4.815	-0.376	-0.36156310032676453	
4.82	0.212	-0.31475208614380035	
4.825	-0.223	-0.2656569667166522	
4.83	-0.358	-0.21425953218068727	
4.835	0.227	-0.16150199545110916	
4.84	0.117	-0.11441258034476534	
4.845	-0.324	-0.07364569945266629	
4.85	0.166	-0.03111936720631869	
4.855	0.594	0.01654080061650306	
4.86	-0.164	0.07011479956534086	
4.865	0.035	0.11735238388430158	
4.87	0.877	0.1650487419220012	
4.875	0.227	0.22495225277778946	
4.88	-0.084	0.2761856370517298	
4.885	0.736	0.3101790343116346	
4.89	0.592	0.3407040084813605	
4.895	-0.129	0.3646503104227349	
4.9	0.424	0.3711688505364562	
4.905	0.658	0.3629785341815895	
4.91	-0.185	0.34156375272516776	
4.915	-0.090	0.2972648402742648	
4.92	0.553	0.23957497573984515	
4.925	-0.119	0.18069678723486943	
4.93	-0.335	0.12487864314089203	
4.935	0.218	0.07063261191869874	
4.94	0.013	0.015715649457682272	
4.945	-0.420	-0.032772603265707204	
4.95	-0.106	-0.06652957077009021	
4.955	0.119	-0.10076441610935034	
4.96	-0.425	-0.13588916763694048	
4.965	-0.246	-0.15165732561493922	
4.97	0.377	-0.14593163214669286	
4.975	-0.171	-0.12967348841459977	
4.98	-0.300	-0.10241675823516	
4.985	0.411	-0.06277002840903731	
4.99	0.290	-0.01631820661471541	
4.995	-0.257	0.03260330721887347	
5.0	0.293	0.08286585363706166	
5.005	0.719	0.1336484881267839	
5.01	-0.095	0.18445348812003592	
5.015	0.172	0.23028575040921473	
5.02	0.976	0.27773191082327997	
5.025	0.337	0.33397652858309335	
5.03	0.001	0.3841230703909722	
5.035	0.880	0.4188061715383168	
5.04	0.715	0.44975243062243553	
5.045	-0.026	0.4760068884548539	
5.05	0.574	0.4881429365927331	
5.055	0.852	0.4880128952795252	
5.06	-0.022	0.47595730752215415	
5.065	0.214	0.4532431403867494	
5.07	0.950	0.43221599160338725	
5.075	0.253	0.4207238296903026	
5.08	-0.008	0.41184133579672	
5.085	0.849	0.407238013216249	
5.09	0.675	0.4157822705037541	
5.095	-0.061	0.4306059979359	
5.1	0.508	0.437359655175491	
5.105	0.846	0.4362583367739769	
5.11	0.050	0.43262736270529706	
5.115	0.450	0.43924291444147984	
5.12	1.388	0.48056526961616924	
5.125	0.944	0.5735825342628953	
5.13	0.693	0.7046651444997132	
5.135	1.511	0.48056526961616924	
5.14	1.202	0.48056526961616924	
5.145	0.235	0.48056526961616924	
5.15	0.718	1.0004682566685812	
5.155	0.918	0.9193583130817296	
5.16	-0.032	0.7994210472606337	
5.165	0.160	0.6642541453803581	
5.17	0.915	0.5417026581224258	
5.175	0.247	0.4534550331672954	
5.18	0.015	0.40062914332100374	
5.185	0.919	0.3816464746439636	
5.19	0.831	0.4017448171008845	
5.195	0.145	0.45231474687849976	
5.2	0.816	0.5136081379662432	
5.205	1.191	0.5783549608438887	
5.21	0.354	0.6403541927782541	
5.215	0.644	0.6953282053036999	
5.22	1.424	0.7456694261609	
5.225	0.730	0.7973471657052047	
5.23	0.515	0.8396905898164649	
5.235	1.407	0.8786367352211488	
5.24	1.170	0.918621725144614	
5.245	0.441	0.9503718636603775	
5.25	1.179	0.9716463696703814	
5.255	1.505	0.9922493694869537	
5.26	0.597	1.014421314937346	
5.265	0.826	1.0253927076870073	
5.27	1.563	1.0275139512665246	
5.275	0.828	1.0293943128950218	
5.28	0.505	1.019846448322523	
5.285	1.286	0.9974444221578705	
5.29	0.968	0.9645532527087214	
5.295	0.137	0.9146339902020815	
5.3	0.702	0.841526006649811	
5.305	0.874	0.7540033511604766	
5.31	-0.072	0.6557046837851495	
5.315	0.047	0.5464774138321429	
5.32	0.719	0.4361547359617531	
5.325	-0.016	0.3395616987739183	
5.33	-0.222	0.25816866707905056	
5.335	0.409	0.19410294036810433	
5.34	0.136	0.1364627667558193	
5.345	-0.327	0.08908373374484524	
5.35	0.067	0.058395496266281474	
5.355	0.330	0.030669609296700297	
5.36	-0.310	0.006050074305496767	
5.365	-0.159	-0.0053745673273092685	
5.37	0.479	-0.006235021132154447	
5.375	-0.119	-0.0033653158167299513	
5.38	-0.228	0.007463100812604661	
5.385	0.510	0.03287200739195841	
5.39	0.298	0.06633545830057491	
5.395	-0.211	0.10134614352225466	
5.4	0.350	0.14033724350125315	
5.405	0.718	0.18046934685723862	
5.41	-0.104	0.22021972520871033	
5.415	0.030	0.24766847642260845	
5.42	0.759	0.25753185503463816	
5.425	0.061	0.26071981586626924	
5.43	-0.161	0.2546249273666118	
5.435	0.545	0.24264977136156574	
5.44	0.301	0.22528186394287236	
5.445	-0.245	0.20760798929187832	
5.45	0.192	0.18923255141833892	
5.455	0.383	0.16124182676373205	
5.46	-0.289	0.12444607472829398	
5.465	-0.153	0.09078618424165902	
5.47	0.518	0.06327874290923971	
5.475	-0.106	0.04477766147003677	
5.48	-0.249	0.038860500889620744	
5.485	0.453	0.04549283678205871	
5.49	0.177	0.05516265312701222	
5.495	-0.332	0.06281328530464547	
5.5	0.036	0.06321963613467106	
5.505	0.360	0.0480525704487235	
5.51	-0.254	0.030564396464206677	
5.515	0.012	0.033925817922169026	
5.52	0.961	0.07214089450579089	
5.525	0.418	0.15777056923187324	
5.53	0.218	0.27202675329604364	
5.535	1.003	0.07214089450579089	
5.54	0.545	0.07214089450579089	
5.545	-0.179	0.07214089450579089	
5.55	0.255	0.07214089450579089	
5.555	0.443	0.4078612099604124	
5.56	-0.268	0.3126694676116571	
5.565	-0.150	0.21904401377244062	
5.57	0.368	0.1328976680761133	
5.575	-0.174	0.056741084238431765	
5.58	-0.258	0.00628754165919935	
5.585	0.398	-0.010687129612360652	
5.59	0.096	-0.010137201665217178	
5.595	-0.317	-0.0038217005206435213	
5.6	0.136	0.009321689709728045	
5.605	0.437	0.023659625389839282	
5.61	-0.228	0.03970668611986129	
5.615	-0.083	0.05820110725336081	
5.62	0.589	0.07377566860566051	
5.625	-0.026	0.08964402657731485	
5.63	-0.133	0.10841477343680013	
5.635	0.672	0.13730281318852322	
5.64	0.441	0.17974155019505347	
5.645	-0.129	0.22525834117710783	
5.65	0.444	0.2623724863417409	
5.655	0.747	0.29352630472875607	
5.66	-0.075	0.31773507359691566	
5.665	0.104	0.3262987254552904	
5.67	0.808	0.3216469330289582	
5.675	0.035	0.3136270401813629	
5.68	-0.133	0.29456218771297576	
5.685	0.644	0.2721781322276595	
5.69	0.299	0.25564634282605125	
5.695	-0.246	0.23747464647296823	
5.7	0.143	0.21032110479098226	
5.705	0.359	0.1683023495864331	
5.71	-0.286	0.12094555176282082	
5.715	-0.139	0.08143680118961688	
5.72	0.440	0.04937150974583906	
5.725	-0.185	0.02267501682366678	
5.73	-0.303	0.0028331230927481133	
5.735	0.244	-0.010014504973400607	
5.74	-0.054	-0.030520076132264717	
5.745	-0.414	-0.05626371784251972	
5.75	-0.045	-0.07364203084284604	
5.755	0.178	-0.09292457092638957	
5.76	-0.370	-0.10896754487356303	
5.765	-0.217	-0.11140187057511963	
5.77	0.316	-0.10577081495772239	
5.775	-0.200	-0.1014134790500496	
5.78	-0.292	-0.08901612890705912	
5.785	0.316	-0.06597606633210512	
5.79	0.082	-0.04566170555313798	
5.795	-0.333	-0.028262412962128454	
5.8	0.157	-0.006499040171180269	
5.805	0.467	0.01602922657737928	
5.81	-0.239	0.04289138332657519	
5.815	-0.097	0.06469086305489746	
5.82	0.586	0.07931385471590748	
5.825	-0.086	0.08942981265709118	
5.83	-0.207	0.09697041626048145	
5.835	0.492	0.10418145019637305	
5.84	0.230	0.1122560629812038	
5.845	-0.251	0.12063680565338368	
5.85	0.169	0.12464143420410836	
5.855	0.386	0.11601246067247664	
5.86	-0.317	0.09773540041462837	
5.865	-0.152	0.07481030939251315	
5.87	0.449	0.05041064788731769	
5.875	-0.158	0.02825356202430681	
5.88	-0.280	0.014996351390008402	
5.885	0.353	0.010368306181433784	
5.89	0.038	0.005111939390350432	
5.895	-0.362	-0.0034836386169618556	
5.9	0.067	-0.008123738226918122	
5.905	0.365	-0.011973503265010291	
5.91	-0.234	-0.007495803066458886	
5.915	0.070	0.017966919378156265	
5.92	0.968	0.07461624931630499	
5.925	0.331	0.16902303552339953	
5.93	0.075	0.2719311977600016	
5.935	0.916	0.35959791233242944	
5.94	0.443	0.42098979727203817	
5.945	-0.193	0.4403190080595794	
5.95	0.299	0.413040734465867	
5.955	0.452	0.35304344516688246	
5.96	-0.289	0.2783186692420111	
5.965	-0.121	0.2030500325910909	
5.97	0.507	0.13468073433502795	
5.975	-0.106	0.08386854629360219	
5.98	-0.171	0.06000568282947246	
5.985	0.600	0.06577181394090872	
5.99	0.293	0.0938787580289753	
5.995	-0.219	0.12729157578807615	
6.0	0.409	0.1612378285209666	
6.005	0.672	0.1960015330227397	
6.01	-0.087	0.23217468732657434	
6.015	0.276	0.2671760227356621	
6.02	0.953	0.30673505820608415	
6.025	0.253	0.3537059126103985	
6.03	0.119	0.3950109982241933	
6.035	1.025	0.43485434640067816	
6.04	0.759	0.4848050797207631	
6.045	0.052	0.5322795662238117	
6.05	0.771	0.5612746106869577	
6.055	1.039	0.5829399265143091	
6.06	0.149	0.6022131219780844	
6.065	0.444	0.6072133097645858	
6.07	1.110	0.6035941405357068	
6.075	0.343	0.6007598673850197	
6.08	0.133	0.5881652963745518	
6.085	0.950	0.5666500027659114	
6.09	0.484	0.5447352016429765	
6.095	-0.130	0.5085682520944714	
6.1	0.421	0.45414909470933934	
6.105	0.479	0.3886832985308617	
6.11	-0.272	0.3145290134649238	
6.115	-0.127	0.23429256774753704	
6.12	0.429	0.15420507514905157	
6.125	-0.202	0.08295151147728283	
6.13	-0.309	0.03049405291578797	
6.135	0.249	-0.0067229828084002675	
6.14	-0.063	-0.04135579653492129	
6.145	-0.414	-0.0709800611581124	
6.15	-0.032	-0.08698772241773292	
6.155	0.142	-0.10564776292819064	
6.16	-0.413	-0.12314541236188313	
6.165	-0.245	-0.12855816851396096	
6.17	0.235	-0.13216164747987924	
6.175	-0.266	-0.13801182779680288	
6.18	-0.330	-0.13421710044628027	
6.185	0.278	-0.1168940209650591	
6.19	0.000	-0.09952592441854069	
6.195	-0.342	-0.08176732643760037	
6.2	0.200	-0.053938001356849556	
6.205	0.513	-0.013831440705590314	
6.21	-0.202	0.03490372633426731	
6.215	0.010	0.08155991728715621	
6.22	0.693	0.11872089341177472	
6.225	-0.048	0.1509360393574906	
6.23	-0.118	0.17089389548567513	
6.235	0.687	0.18905900219529087	
6.24	0.282	0.210400851999558	
6.245	-0.217	0.22433336582516258	
6.25	0.244	0.22001874239511854	
6.255	0.431	0.2000284237526972	
6.26	-0.234	0.17303011633136622	
6.265	-0.026	0.14763540878505196	
6.27	0.580	0.12754944899777174	
6.275	-0.107	0.11499725004880533	
6.28	-0.197	0.10606185496091491	
6.285	0.473	0.09989019636925306	
6.29	0.125	0.09632933610071054	
6.295	-0.287	0.09156454474500567	
6.3	0.244	0.08897590233147365	
6.305	0.443	0.08985329457261537	
6.31	-0.193	0.09820667842494236	
6.315	0.097	0.11370908243535657	
6.32	0.857	0.14533306690495254	
6.325	0.180	0.20008835005258666	
6.33	0.027	0.25823830427861294	
6.335	0.797	0.30565051655932984	
6.34	0.264	0.3372640074509625	
6.345	-0.301	0.3328228852572399	
6.35	0.041	0.2807958329965423	
6.355	0.156	0.1896061341711196	
6.36	-0.398	0.08953760797006297	
6.365	-0.225	0.005787647168011847	
6.37	0.140	-0.06406696994868981	
6.375	-0.317	-0.12377437132231504	
6.38	-0.330	-0.1574119990576048	
6.385	0.318	-0.1576172293032646	
6.39	0.020	-0.1348597337651237	
6.395	-0.298	-0.10178995041147369	
6.4	0.288	-0.054215538323567306	
6.405	0.560	0.007339595930280935	
6.41	-0.162	0.07472014643225243	
6.415	0.072	0.13087812278849403	
6.42	0.669	0.16865547248877705	
6.425	-0.068	0.19328014385473913	
6.43	-0.136	0.1987648285547379	
6.435	0.654	0.19713459544756373	
6.44	0.316	0.20710003772930802	
6.445	-0.164	0.22050855215891726	
6.45	0.463	0.2315998411423883	
6.455	0.567	0.24610422923095188	
6.46	-0.222	0.25207042207794	
6.465	-0.058	0.2338839168043265	
6.47	0.542	0.19524774688602514	
6.475	-0.155	0.15656881221353708	
6.48	-0.263	0.11706370439951488	
6.485	0.322	0.07763196944422639	
6.49	-0.057	0.038081033056681646	
6.495	-0.442	-0.003950708653536274	
6.5	-0.107	-0.048724567026964566	
6.505	-0.098	-0.10627936865132885	
6.51	-0.587	-0.17336546857999216	
6.515	-0.416	-0.23202517176188	
6.52	-0.121	-0.28431990137357577	
6.525	-0.535	-0.33617414597788564	
6.53	-0.601	-0.3715338368810172	
6.535	-0.187	-0.39281850365140725	
6.54	-0.379	-0.4130249223677058	
6.545	-0.685	-0.4264759218978668	
6.55	-0.306	-0.42686966705112284	
6.555	-0.210	-0.4265958889977391	
6.56	-0.656	-0.4290606419588044	
6.565	-0.446	-0.4209145943476793	
6.57	-0.092	-0.41164047727138064	
6.575	-0.488	-0.4051128843202375	
6.58	-0.515	-0.3893060603752211	
6.585	-0.022	-0.36498318737088037	
6.59	-0.196	-0.34013772056310704	
6.595	-0.492	-0.3112963465029137	
6.6	-0.068	-0.27485856181156065	
6.605	0.091	-0.2407497193911785	
6.61	-0.402	-0.20901707265716774	
6.615	-0.173	-0.17580659588608832	
6.62	0.359	-0.14071565042972972	
6.625	-0.246	-0.10618261023456782	
6.63	-0.287	-0.0792294613981943	
6.635	0.369	-0.055970060983745476	
6.64	-0.055	-0.036219791756295305	
6.645	-0.426	-0.0312897282163701	
6.65	-0.051	-0.04483096823787526	
6.655	0.055	-0.0747952642271016	
6.66	-0.445	-0.11000903395735269	
6.665	-0.245	-0.13676146970182534	
6.67	0.166	-0.1567460913583602	
6.675	-0.333	-0.17119429437765515	
6.68	-0.376	-0.17717361311736846	
6.685	0.163	-0.17396832366904968	
6.69	-0.147	-0.1692638507886317	
6.695	-0.440	-0.1652601988405163	
6.7	-0.023	-0.1597679694147633	
6.705	0.159	-0.15281972321325787	
6.71	-0.335	-0.13905435854606715	
6.715	-0.038	-0.11170803723402067	
6.72	0.816	-0.055693282997447954	
6.725	0.151	0.040776440492327405	
6.73	0.023	0.1428037771850287	
6.735	0.750	0.22701269185414572	
6.74	0.159	0.2837119746367668	
6.745	-0.361	0.2877368182617106	
6.75	-0.040	0.23114673365807337	
6.755	-0.003	0.13012236112312628	
6.76	-0.511	0.015075706445646164	
6.765	-0.309	-0.08570824841047708	
6.77	0.056	-0.16587313197730916	
6.775	-0.384	-0.22313616604219072	
6.78	-0.416	-0.25202574463844196	
6.785	0.163	-0.25311089401382836	
6.79	-0.103	-0.23531104518125429	
6.795	-0.384	-0.2060384167616851	
6.8	0.096	-0.1678527851519143	
6.805	0.292	-0.12301043283070032	
6.81	-0.271	-0.07583036255143105	
6.815	-0.019	-0.03066670740388129	
6.82	0.644	0.01598054529630711	
6.825	-0.089	0.06889213280040943	
6.83	-0.127	0.1080491661191324	
6.835	0.748	0.14073493363723405	
6.84	0.702	0.20771834445878945	
6.845	0.414	0.31719882756205997	
6.85	1.277	0.46300318912002103	
6.855	1.404	0.6418311522282705	
6.86	0.524	0.8084506594329336	
6.865	0.884	0.9142432770689723	
6.87	1.451	0.9735843923639002	
6.875	0.588	1.00421997053235	
6.88	0.388	0.982263031377179	
6.885	1.086	0.9181228511366949	
6.89	0.562	0.8428026134403883	
6.895	-0.095	0.7447709367721778	
6.9	0.492	0.618400430744246	
6.905	0.457	0.4955000671849072	
6.91	-0.294	0.3804017445871104	
6.915	-0.170	0.2580925351575001	
6.92	0.191	0.13268575187291748	
6.925	-0.375	0.02002481560101055	
6.93	-0.434	-0.07616313644288517	
6.935	-0.019	-0.15500588710385654	
6.94	-0.304	-0.21705181900398926	
6.945	-0.633	-0.2680871635376411	
6.95	-0.318	-0.31340853727684165	
6.955	-0.576	-0.3711863159713793	
6.96	-0.995	-0.4574135679526136	
6.965	-0.996	-0.5639791366856048	
6.97	-0.996	-0.6934714733070828	
6.975	-0.996	-0.8302239164895829	
6.98	-0.996	-0.9194598205425942	
6.985	-0.996	-0.9660961459013883	
6.99	-0.996	-1.01008428405247	
6.995	-0.996	-1.0310618431743672	
7.0	-0.996	-1.0189174565249557	
7.005	-0.995	-1.0168007609093395	
7.01	-0.996	-1.0226246240546528	
7.015	-0.996	-1.0058016387570912	
7.02	-0.996	-0.994179028648167	
7.025	-0.996	-1.004069477614674	
7.03	-0.996	-1.0000174922048015	
7.035	-0.996	-0.9864267171653229	
7.04	-0.996	-0.996336913820986	
7.045	-0.996	-1.0027669428189672	
7.05	-0.996	-0.9887908980406445	
7.055	-0.996	-0.9920683409449741	
7.06	-0.995	-1.0047354841192921	
7.065	-0.996	-0.9944883113668787	
7.07	-0.995	-0.9880976447274513	
7.075	-0.995	-1.0025081766233659	
7.08	-0.996	-0.9999397858632297	
7.085	-0.993	-0.9858830986793105	
7.09	-0.995	-0.9967276125207123	
7.095	-0.995	-1.003236240028177	
7.1	-0.995	-0.9880282378385234	
7.105	-0.995	-0.9909513120937838	
7.11	-0.995	-1.0047278732257263	
7.115	-0.995	-0.993015027191815	
7.12	-0.489	-0.9621998197026781	
7.125	-0.665	-0.9095456608033212	
7.13	-0.581	-0.8172593252006577	
7.135	-0.115	-0.6974972848767101	
7.14	-0.391	-0.5832217393952023	
7.145	-0.671	-0.49346833330441703	
7.15	-0.289	-0.4318087341952958	
7.155	-0.207	-0.4004378306446502	
7.16	-0.584	-0.38332688104631096	
7.165	-0.317	-0.36257725182706035	
7.17	0.249	-0.3288389213290205	
7.175	-0.243	-0.2748428062334569	
7.18	-0.142	-0.20387122829997548	
7.185	0.864	-0.10181386121271963	
7.19	0.594	0.04743420770797375	
7.195	0.258	0.21715263024460665	
7.2	1.193	0.3884166146929368	
7.205	1.370	0.5742214753652488	
7.21	0.582	0.7531131443622516	
7.215	1.068	0.8896583304349671	
7.22	1.653	0.9964195757105337	
7.225	0.845	1.0821386965417061	
7.23	0.813	1.1294802989437316	
7.235	1.679	1.1514166371261183	
7.24	1.274	1.1772492955226337	
7.245	0.748	1.2011067681592082	
7.25	1.584	1.2161800243750678	
7.255	1.717	1.245724482892351	
7.26	0.915	1.2881598650985602	
7.265	1.402	1.3228139229820775	
7.27	1.996	1.3612337369472964	
7.275	1.139	1.405564055834199	
7.28	1.065	1.4281150097374515	
7.285	1.938	1.432141181807475	
7.29	1.498	1.443152983265712	
7.295	0.887	1.448535427252932	
7.3	1.579	1.4335697684500464	
7.305	1.526	1.404943918183906	
7.31	0.579	1.3546616938989464	
7.315	0.950	1.2718761627183963	
7.32	1.494	1.1815883712199753	
7.325	0.669	1.1063361284936237	
7.33	0.672	1.0410114649612252	
7.335	1.558	0.9984238843909835	
7.34	1.103	0.994121009872453	
7.345	0.574	1.0063819677515982	
7.35	1.433	1.0226885587579742	
7.355	1.555	1.0590228110007245	
7.36	0.761	1.1086280093207255	
7.365	1.315	1.1558685305843568	
7.37	1.906	1.211571525332165	
7.375	1.202	1.2823992614250947	
7.38	1.213	1.3490186554421046	
7.385	2.119	1.4152423911637277	
7.39	1.706	1.4921801475182446	
7.395	1.199	1.5635700173749734	
7.4	1.981	1.6164392089360664	
7.405	2.016	1.660896993685267	
7.41	1.188	1.6919811164795484	
7.415	1.754	1.7027534820021941	
7.42	2.311	1.7192130076731278	
7.425	1.502	1.7477796214589232	
7.43	1.469	1.766176993668985	
7.435	2.273	1.775675718464988	
7.44	1.757	1.7873606995918283	
7.445	1.106	1.7800820696416235	
7.45	1.825	1.7388681716478611	
7.455	1.813	1.687681402722007	
7.46	0.906	1.6287815921384667	
7.465	1.346	1.5514828866766894	
7.47	1.935	1.4834912423138311	
7.475	1.017	1.4405643063519953	
7.48	0.997	1.3954973878970698	
7.485	1.888	1.357617886443514	
7.49	1.433	1.3527270492810508	
7.495	0.819	1.3560718330489472	
7.5	1.662	1.3478655344460644	
7.505	2.372	1.384293152726284	
7.51	2.294	1.5333087565316512	
7.515	3.080	1.8072026235437364	
7.52	3.072	2.1421354589535198	
7.525	3.077	2.4576080055573972	
7.53	3.075	2.7381867908153614	
7.535	3.066	2.9510531439403733	
7.54	3.064	3.058768022972237	
7.545	3.067	3.111443181718188	
7.55	3.061	3.1480517105585433	
7.555	3.058	3.139386480377448	
7.56	3.069	3.108316544926228	
7.565	3.067	3.1042991365286596	
7.57	3.063	3.0951582869674636	
7.575	3.071	3.0670201014759915	
7.58	3.072	3.063872631984094	
7.585	3.063	3.0755353796460594	
7.59	3.058	3.06154281205825	
7.595	3.058	3.0529932684623606	
7.6	3.044	3.0680995696753257	
7.605	3.040	3.0599731375801427	
7.61	3.048	3.041353262125206	
7.615	3.043	3.051676238416248	
7.62	3.040	3.055081490397943	
7.625	3.049	3.0355792022625168	
7.63	3.058	3.040087235620069	
7.635	3.057	3.05703000149183	
7.64	3.071	3.0470350984166323	
7.645	2.863	3.035606628767653	
7.65	3.078	3.0379362250031425	
7.655	2.737	3.0079575793103674	
7.66	1.546	2.8922632437024545	
7.665	1.741	2.6711228439449206	
7.67	2.056	2.3959221216952558	
7.675	1.028	2.115630976263532	
7.68	0.878	1.8297543409617871	
7.685	1.498	1.5631803620109976	
7.69	0.892	1.341793126216134	
7.695	0.233	1.1477029287044638	
7.7	0.968	0.9686698631802062	
7.705	0.835	0.8274522645269113	
7.71	-0.055	0.7115126961355036	
7.715	0.183	0.5862525482499574	
7.72	0.504	0.4545509908911242	
7.725	-0.210	0.32917801241886757	
7.73	-0.226	0.21349118063787362	
7.735	0.249	0.11171367702754201	
7.74	-0.142	0.02566711501901482	
7.745	-0.433	-0.04370740479904053	
7.75	-0.057	-0.09596688076161809	
7.755	-0.095	-0.14743989955916892	
7.76	-0.494	-0.19394381401033475	
7.765	-0.214	-0.21852453950467968	
7.77	0.160	-0.22506786918012844	
7.775	-0.200	-0.2142775537597997	
7.78	-0.072	-0.16960278405100335	
7.785	0.835	-0.07868846481970426	
7.79	0.508	0.05344684527331641	
7.795	0.119	0.199792345473459	
7.8	1.078	0.3425309546639841	
7.805	1.288	0.49978092320230444	
7.81	0.589	0.6654460672847207	
7.815	1.278	0.8205768138365521	
7.82	2.030	0.9844194283504563	
7.825	1.584	1.1793751519082671	
7.83	1.899	1.3991596723138624	
7.835	2.905	1.6467061855376262	
7.84	2.427	1.9073936605116977	
7.845	1.760	2.1234271083584613	
7.85	2.360	2.244624725269773	
7.855	2.216	2.2768655700309033	
7.86	1.266	2.229241064575911	
7.865	1.706	2.1165474968557496	
7.87	2.198	1.9875259414299207	
7.875	1.277	1.8743636939743484	
7.88	1.182	1.7610818665468717	
7.885	1.873	1.649637363919211	
7.89	1.274	1.5524970116811785	
7.895	0.715	1.455591948428066	
7.9	1.582	1.3605229559566734	
7.905	1.692	1.3049018881704335	
7.91	0.955	1.2956052072335627	
7.915	1.595	1.315440937589006	
7.92	2.276	1.3782163864512658	
7.925	1.497	1.4847513779786714	
7.93	1.506	1.5892193031874329	
7.935	2.281	1.6750366968563104	
7.94	1.625	1.7406660025163354	
7.945	0.921	1.7491111959867647	
7.95	1.430	1.6788566100468998	
7.955	1.086	1.5455634891656969	
7.96	0.065	1.3494100853354372	
7.965	0.281	1.0961544630924367	
7.97	0.530	0.822397106485701	
7.975	-0.194	0.5665539490037557	
7.98	-0.249	0.3446498460616973	
7.985	0.097	0.15799080265450147	
7.99	-0.243	0.0019527031768258206	
7.995	-0.537	-0.11784079434133107	
8.0	-0.203	-0.20391370960560368	
8.005	-0.272	-0.27790063421155187	
8.01	-0.799	-0.34643658336021954	
8.015	-0.648	-0.4129939765941238	
8.02	-0.451	-0.48662517623670326	
8.025	-0.871	-0.5647275704372385	
8.03	-0.842	-0.6268217149856119	
8.035	-0.453	-0.6680334394844055	
8.04	-0.682	-0.6969699921232004	
8.045	-0.889	-0.7069357867265798	
8.05	-0.517	-0.6995473054004326	
8.055	-0.537	-0.6924060431325176	
8.06	-0.918	-0.6885477656478621	
8.065	-0.711	-0.6830403462094299	
8.07	-0.518	-0.6864377630006437	
8.075	-0.905	-0.7022176926215247	
8.08	-0.863	-0.7153785645323245	
8.085	-0.488	-0.7237951311730144	
8.09	-0.764	-0.7319586884585136	
8.095	-0.992	-0.7392506365026532	
8.1	-0.656	-0.745986983906493	
8.105	-0.734	-0.7628076267530159	
8.11	-0.995	-0.7849002629552904	
8.115	-0.865	-0.7990332343110402	
8.12	-0.671	-0.815035371228286	
8.125	-0.992	-0.8378691107791504	
8.13	-0.995	-0.8510173547241122	
8.135	-0.697	-0.8603217980957456	
8.14	-0.932	-0.8770036801692931	
8.145	-0.993	-0.8857445620616382	
8.15	-0.752	-0.8801955794857519	
8.155	-0.773	-0.8761303568420507	
8.16	-0.995	-0.8745517268046159	
8.165	-0.871	-0.8629274968605681	
8.17	-0.627	-0.8543830838417205	
8.175	-0.992	-0.8517987321206842	
8.18	-0.966	-0.8477629489416129	
8.185	-0.573	-0.8414968383636875	
8.19	-0.822	-0.8351365245599709	
8.195	-0.993	-0.8245387518932117	
8.2	-0.637	-0.8101819247094115	
8.205	-0.663	-0.8003256606859313	
8.21	-0.993	-0.7934812721196629	
8.215	-0.763	-0.7837831846925576	
8.22	-0.538	-0.7765156132133473	
8.225	-0.893	-0.7718729728973519	
8.23	-0.824	-0.7615929732324378	
8.235	-0.423	-0.7434935159230478	
8.24	-0.700	-0.7233040667758492	
8.245	-0.928	-0.7054724846270406	
8.25	-0.569	-0.6950609349042975	
8.255	-0.595	-0.6954641182682375	
8.26	-0.967	-0.7015388305275487	
8.265	-0.691	-0.7076123627395473	
8.27	-0.449	-0.7095412727902026	
8.275	-0.833	-0.7080223766474372	
8.28	-0.761	-0.6974789350517281	
8.285	-0.371	-0.6804062915167999	
8.29	-0.613	-0.6614726138144267	
8.295	-0.775	-0.6374578495194159	
8.3	-0.364	-0.6088730961316825	
8.305	-0.385	-0.5815696038224575	
8.31	-0.712	-0.5546695367243746	
8.315	-0.342	-0.5204192756085979	
8.32	0.029	-0.4734979157578846	
8.325	-0.321	-0.40622805764384484	
8.33	-0.211	-0.3253896458226617	
8.335	0.380	-0.23224203820669626	
8.34	-0.122	-0.14266690904096357	
8.345	-0.378	-0.08055078070021605	
8.35	0.012	-0.05870166124832395	
8.355	-0.098	-0.07063704168546707	
8.36	-0.526	-0.10481541804287048	
8.365	-0.301	-0.15129193906870247	
8.37	-0.126	-0.20647739906059528	
8.375	-0.527	-0.2613904344182707	
8.38	-0.365	-0.2993067065465975	
8.385	0.272	-0.11468546729381426	
8.39	-0.126	-0.10481541804287048	
8.395	-0.336	-0.08990858267640289	
8.4	0.128	-0.15455447322881363	
8.405	0.052	-0.11468546729381426	
8.41	-0.378	-0.08990858267640289	
8.415	-0.083	-0.0791992583561163	
8.42	0.253	-0.07545208196729165	
8.425	-0.330	-0.07147724835376473	
8.43	-0.271	-0.07530395243584694	
8.435	0.250	-0.083109236351467	
8.44	-0.138	-0.0848167238348285	
8.445	-0.317	-0.08450653465961933	
8.45	0.175	-0.0785362126125187	
8.455	0.055	-0.07073956328651568	
8.46	-0.426	-0.06785485004488839	
8.465	-0.168	-0.08118221042308152	
8.47	0.081	-0.10655173687479093	
8.475	-0.390	-0.1344218434369952	
8.48	-0.306	-0.1562065581869193	
8.485	0.073	-0.17322208789226343	
8.49	-0.301	-0.1878507220723787	
8.495	-0.514	-0.206376024354012	
8.5	-0.103	-0.22759805202527153	
8.505	-0.190	-0.2498442839252716	
8.51	-0.621	-0.27471705687631826	
8.515	-0.362	-0.3011409855148838	
8.52	-0.187	-0.33170060692970244	
8.525	-0.656	-0.36537213479665354	
8.53	-0.621	-0.4001026027977153	
8.535	-0.245	-0.434345143107937	
8.54	-0.491	-0.4618700440233273	
8.545	-0.700	-0.476216042368047	
8.55	-0.339	-0.4826531478633382	
8.555	-0.440	-0.4929753279001466	
8.56	-0.828	-0.5096010759625766	
8.565	-0.533	-0.5280744644738076	
8.57	-0.332	-0.5448404653601341	
8.575	-0.715	-0.5563505147048036	
8.58	-0.602	-0.5559592954318094	
8.585	-0.205	-0.5434220484826947	
8.59	-0.456	-0.5219652008692317	
8.595	-0.578	-0.4901008678496323	
8.6	-0.104	-0.4476177212545214	
8.605	-0.132	-0.39908650799788425	
8.61	-0.468	-0.3475637650485299	
8.615	-0.112	-0.2959846699604326	
8.62	0.235	-0.23892166078772215	
8.625	-0.329	-0.18139437027179547	
8.63	-0.249	-0.1378913244275735	
8.635	0.333	-0.10647090360928951	
8.64	-0.171	-0.07701552435788764	
8.645	-0.339	-0.062032454131000836	
8.65	0.160	-0.05867185775181809	
8.655	-0.035	-0.062152725195168616	
8.66	-0.486	-0.0774492544321067	
8.665	-0.207	-0.11002908519823723	
8.67	-0.003	-0.15006518870772623	
8.675	-0.454	-0.18822778289972952	
8.68	-0.364	-0.2188036225612283	
8.685	0.102	-0.2356847528197718	
8.69	-0.260	-0.23693284125112404	
8.695	-0.448	-0.23081848508436145	
8.7	0.035	-0.22188188184284596	
8.705	-0.057	-0.20822963121478566	
8.71	-0.437	-0.19515289202854394	
8.715	-0.049	-0.18111495259234098	
8.72	0.423	-0.1482868317197983	
8.725	-0.127	-0.08894450552276204	
8.73	0.168	-0.01573525657239193	
8.735	1.103	0.09097211648405717	
8.74	0.603	0.2472788029734231	
8.745	0.383	0.4054506713101978	
8.75	1.402	0.5506441423375349	
8.755	1.414	0.721780963569971	
8.76	0.848	0.8994520127301013	
8.765	1.761	1.0614473947851777	
8.77	2.432	1.2562621696060026	
8.775	1.867	1.4989294889873543	
8.78	2.522	1.7522475809598013	
8.785	3.072	2.020903408856841	
8.79	3.066	2.306940494759561	
8.795	3.058	2.590239500620023	
8.8	3.031	2.827357423438702	
8.805	3.025	2.9725567520830136	
8.81	3.025	3.0478162143939858	
8.815	3.025	3.0938159850819718	
8.82	3.026	3.1011840886300197	
8.825	3.028	3.08007410007947	
8.83	3.026	3.068594636502633	
8.835	3.025	3.060622907412086	
8.84	3.025	3.038304161306833	
8.845	3.026	3.0262049429297906	
8.85	3.028	3.0315906972576823	
8.855	3.031	3.025253565522839	
8.86	3.040	3.0177494726914977	
8.865	3.043	3.02962996316331	
8.87	3.046	3.0355287696444107	
8.875	3.063	3.031607792274177	
8.88	3.071	3.042867162449074	
8.885	3.071	3.0580406414779024	
8.89	2.818	3.045363320461229	
8.895	1.812	2.963543552764663	
8.9	2.047	2.7781888173265665	
8.905	1.205	2.495050486332546	
8.91	-0.046	2.0930743304429966	
8.915	0.049	1.574418486921258	
8.92	0.012	1.0292640355565787	
8.925	-0.611	0.5371274389346196	
8.93	-0.711	0.11494992821372586	
8.935	-0.508	-0.2265146312521084	
8.94	-0.963	-0.48721198751743383	
8.945	-0.993	-0.6808558050859405	
8.95	-0.925	-0.821430677127275	
8.955	-0.993	-0.9230052361030638	
8.96	-0.992	-0.9859679637799142	
8.965	-0.995	-1.0098675783334674	
8.97	-0.993	-1.0194718059725982	
8.975	-0.993	-1.028226812173815	
8.98	-0.995	-1.0188135265763743	
8.985	-0.993	-1.0063801044404475	
8.99	-0.993	-1.0060643380536773	
8.995	-0.995	-1.0022378708309625	
9.0	-0.992	-0.9919762445389352	
9.005	-0.995	-0.9923236699494716	
9.01	-0.995	-0.9963721271236913	
9.015	-0.993	-0.9899499603714471	
9.02	-0.995	-0.9899688101110599	
9.025	-0.993	-0.9969111844674332	
9.03	-0.995	-0.9935574307681149	
9.035	-0.993	-0.9897775453660728	
9.04	-0.993	-0.9960871140134334	
9.045	-0.993	-0.9968917931935136	
9.05	-0.995	-0.9901075187354296	
9.055	-0.993	-0.9935555371579875	
9.06	-0.995	-0.9981734488844873	
9.065	-0.995	-0.9918211891724558	
9.07	-0.993	-0.9911791388043633	
9.075	-0.995	-0.9979702115461747	
9.08	-0.995	-0.9943414843594814	
9.085	-0.993	-0.9897724111099018	
9.09	-0.995	-0.9963244281617382	
9.095	-0.995	-0.9968195684770687	
9.1	-0.993	-0.989853866940112	
9.105	-0.995	-0.9937532355142046	
9.11	-0.995	-0.9983861762269438	
9.115	-0.995	-0.991472282117733	
9.12	-0.993	-0.9911122487766698	
9.125	-0.995	-0.9984246663421233	
9.13	-0.993	-0.9941577833957502	
9.135	-0.755	-0.9783360328706576	
9.14	-0.986	-0.959770739781606	
9.145	-0.993	-0.9420488933068616	
9.15	-0.721	-0.9232366291864671	
9.155	-0.909	-0.9048637474298148	
9.16	-0.993	-0.8949834039374548	
9.165	-0.995	-0.8950306929902206	
9.17	-0.975	-0.9157801970615271	
9.175	-0.993	-0.946089247398354	
9.18	-0.995	-0.9610898759723567	
9.185	-0.900	-0.966685610407925	
9.19	-0.995	-0.9772552292499409	
9.195	-0.993	-0.9774249356228176	
9.2	-0.935	-0.969468116442056	
9.205	-0.946	-0.9709534112231772	
9.21	-0.993	-0.9717556127967973	
9.215	-0.724	-0.9503955809329611	
9.22	-0.540	-0.9062681681606016	
9.225	-0.949	-0.8530548300545353	
9.23	-0.786	-0.8090732946709225	
9.235	-0.437	-0.7707190393633792	
9.24	-0.763	-0.7338584669130092	
9.245	-0.857	-0.7060637415458915	
9.25	-0.422	-0.6855031285094924	
9.255	-0.532	-0.6628837230105489	
9.26	-0.882	-0.6417420629770455	
9.265	-0.559	-0.6319222200766119	
9.27	-0.390	-0.6256489712523242	
9.275	-0.787	-0.6148876837385191	
9.28	-0.604	-0.6041433620306786	
9.285	-0.210	-0.5848596809709217	
9.29	-0.494	-0.5512908611460782	
9.295	-0.584	-0.5105956242463695	
9.3	-0.113	-0.46675007261777074	
9.305	-0.278	-0.4208360017127485	
9.31	-0.672	-0.3875056592802486	
9.315	-0.361	-0.3765237964225162	
9.32	-0.271	-0.3831812988270076	
9.325	-0.772	-0.4045763683869425	
9.33	-0.660	-0.44220286977406315	
9.335	-0.310	-0.48618792837556807	
9.34	-0.683	-0.5236489641785567	
9.345	-0.842	-0.5560228934336819	
9.35	-0.417	-0.5861523614093271	
9.355	-0.538	-0.6077836389149709	
9.36	-0.894	-0.6200744162688325	
9.365	-0.576	-0.631184149834175	
9.37	-0.440	-0.6388198200454516	
9.375	-0.839	-0.6440997246380671	
9.38	-0.711	-0.6451932855854292	
9.385	-0.336	-0.6416715681888547	
9.39	-0.645	-0.6309821483088065	
9.395	-0.755	-0.614316510695102	
9.4	-0.336	-0.5946404893934383	
9.405	-0.506	-0.577830315416845	
9.41	-0.793	-0.5665762697674215	
9.415	-0.371	-0.5538320763899767	
9.42	-0.167	-0.5295198933355221	
9.425	-0.653	-0.4956186436320672	
9.43	-0.514	-0.46518489287956666	
9.435	-0.077	-0.44018659853572417	
9.44	-0.434	-0.4152946978665436	
9.445	-0.526	-0.3876042468345253	
9.45	-0.083	-0.36216685249866165	
9.455	-0.284	-0.34184477861865215	
9.46	-0.653	-0.33303389097471947	
9.465	-0.339	-0.3395602889730951	
9.47	-0.249	-0.35928514104848486	
9.475	-0.700	-0.38705904539976055	
9.48	-0.579	-0.41713617375629275	
9.485	-0.229	-0.44676906688656703	
9.49	-0.599	-0.4726006055596072	
9.495	-0.702	-0.4898212228443288	
9.5	-0.326	-0.5007109927010474	
9.505	-0.508	-0.5149063490106489	
9.51	-0.888	-0.5344513861976732	
9.515	-0.588	-0.5602211182741086	
9.52	-0.485	-0.5930595359026466	
9.525	-0.860	-0.625538767511998	
9.53	-0.592	-0.6400396389765821	
9.535	-0.084	-0.6222839598379983	
9.54	-0.440	-0.5729525124892632	
9.545	-0.669	-0.5110912027550456	
9.55	-0.407	-0.4732299929878954	
9.555	-0.689	-0.4830077645766667	
9.56	-0.995	-0.5319370405847385	
9.565	-0.917	-0.604831887673129	
9.57	-0.870	-0.7058286801487483	
9.575	-0.993	-0.8091112161302879	
9.58	-0.995	-0.8718811471553777	
9.585	-0.775	-0.9097562699479979	
9.59	-0.993	-0.9435249805734293	
9.595	-0.995	-0.9523132229359224	
9.6	-0.695	-0.9353561210467316	
9.605	-0.770	-0.9162194096883157	
9.61	-0.993	-0.8927195586707092	
9.615	-0.619	-0.8510418819957308	
9.62	-0.402	-0.8023926566373347	
9.625	-0.738	-0.7472334609770788	
9.63	-0.529	-0.6746973887230945	
9.635	-0.106	-0.5966954187737088	
9.64	-0.426	-0.5243937343284433	
9.645	-0.463	-0.44893129669865217	
9.65	0.203	-0.3650877736019169	
9.655	0.006	-0.27835710397170027	
9.66	-0.341	-0.19496113878622273	
9.665	0.233	-0.11616591388048098	
9.67	0.475	-0.03667495230222604	
9.675	-0.321	0.030411680694853394	
9.68	-0.130	0.06533409966573034	
9.685	0.649	0.07858645218158616	
9.69	0.079	0.10381870875815968	
9.695	0.010	0.14432482621990275	
9.7	0.939	0.20414385838825405	
9.705	0.620	0.290641060073209	
9.71	-0.097	0.36986836705890486	
9.715	0.576	0.41148989313732875	
9.72	0.771	0.43098151881669816	
9.725	-0.145	0.4324034971328544	
9.73	0.068	0.4003414267229076	
9.735	0.658	0.34750428628914143	
9.74	-0.090	0.29024072418389957	
9.745	-0.216	0.23080337794299233	
9.75	0.423	0.17495711807312753	
9.755	0.068	0.1246052751695926	
9.76	-0.379	0.07915262148923799	
9.765	0.017	0.037019579430915835	
9.77	0.253	-0.004622159027597516	
9.775	-0.413	-0.03931777763292608	
9.78	-0.265	-0.06553684393366804	
9.785	0.261	-0.09081866432999672	
9.79	-0.260	-0.11430041087113747	
9.795	-0.313	-0.12051670153743525	
9.8	0.369	-0.10425368469094441	
9.805	0.104	-0.0765536016739802	
9.81	-0.292	-0.041561306257350175	
9.815	0.368	0.005644439362066703	
9.82	0.670	0.06874835523478647	
9.825	-0.097	0.13981740849874308	
9.83	0.250	0.20659575049420442	
9.835	1.023	0.2739700075689586	
9.84	0.261	0.34609698888041496	
9.845	0.065	0.4030239135798593	
9.85	1.020	0.443542456702096	
9.855	0.655	0.48439289298268373	
9.86	0.010	0.5157019133315867	
9.865	0.744	0.5320868789603785	
9.87	0.999	0.5451372284485685	
9.875	0.055	0.5571734163868403	
9.88	0.354	0.5536074788768288	
9.885	1.019	0.5385231897311347	
9.89	0.266	0.5247539316132064	
9.895	0.085	0.5077528551867987	
9.9	0.968	0.49403885115188123	
9.905	0.612	0.4913571181375513	
9.91	-0.078	0.490293450885084	
9.915	0.600	0.47837108711249254	
9.92	0.808	0.46132398045684253	
9.925	0.020	0.44781123751078206	
9.93	0.508	0.44770334548022694	
9.935	1.355	0.4818593458883961	
9.94	0.806	0.564536693510536	
9.945	0.707	0.6826409826204198	
9.95	1.517	0.8113133803965344	
9.955	1.106	0.9212397749944762	
9.96	0.270	0.9830393394609902	
9.965	0.751	0.9735498811765776	
9.97	0.855	0.898350452103617	
9.975	-0.042	0.7835621377647033	
9.98	0.171	0.6528072849501539	
9.985	0.809	0.5259821396694895	
9.99	0.038	0.42030280379319235	
9.995	-0.066	0.34066491881588334	
10.0	0.881	0.2985662522286112	
10.005	0.658	0.3041461090447791	
10.01	0.059	0.3480002584378888	
10.015	0.813	0.4098091950131158	
10.02	1.007	0.4763170612632252	
10.025	0.149	0.5353866706005901	
10.03	0.570	0.5789557630058975	
10.035	1.230	0.6160208954196711	
10.04	0.449	0.6501075356007424	
10.045	0.386	0.675713857629771	
10.05	1.265	0.7016457338250451	
10.055	0.886	0.7329845557259596	
10.06	0.221	0.7569801027009517	
10.065	0.971	0.7659072733145413	
10.07	1.197	0.7722465724633856	
10.075	0.350	0.7803887671533263	
10.08	0.738	0.7890468725197657	
10.085	1.392	0.8029446954031307	
10.09	0.596	0.820097772403898	
10.095	0.386	0.8268146969456136	
10.1	1.214	0.8205365617989382	
10.105	0.843	0.8069267483950614	
10.11	0.120	0.7841566077914768	
10.115	0.777	0.7458442630205357	
10.12	0.874	0.6940711855579869	
10.125	-0.081	0.6295589745994898	
10.13	0.178	0.5501008980407764	
10.135	0.748	0.4626943612155846	
10.14	-0.077	0.3772008691083337	
10.145	-0.185	0.29804745571294555	
10.15	0.544	0.23031461214516202	
10.155	0.181	0.17785669057000136	
10.16	-0.280	0.14247575657608208	
10.165	0.247	0.12276320976474231	
10.17	0.432	0.1078252866825451	
10.175	-0.254	0.097815848123794	
10.18	-0.035	0.09622612916958877	
10.185	0.611	0.09638588268223701	
10.19	-0.106	0.09825428877553197	
10.195	-0.174	0.10431159257161439	
10.2	0.579	0.1161068834158283	
10.205	0.183	0.1276981044822042	
10.21	-0.254	0.13573010462695084	
10.215	0.295	0.14374765812994605	
10.22	0.541	0.14858319742231502	
10.225	-0.176	0.15696375401206106	
10.23	0.055	0.16936990025688162	
10.235	0.716	0.18015728325812236	
10.24	-0.040	0.18923929847133536	
10.245	-0.130	0.1945310707123844	
10.25	0.611	0.1979834774965579	
10.255	0.130	0.19254355373799342	
10.26	-0.297	0.1759266208549143	
10.265	0.215	0.15277587928350964	
10.27	0.377	0.12437221449448692	
10.275	-0.280	0.09705600855219682	
10.28	-0.043	0.08252877738298986	
10.285	0.501	0.07099315699815012	
10.29	-0.162	0.059179851123096636	
10.295	-0.200	0.054725241426212934	
10.3	0.501	0.06096487487134944	
10.305	0.097	0.06738637624633462	
10.31	-0.277	0.07302522031621633	
10.315	0.316	0.08489932225214009	
10.32	0.484	0.10124274379248484	
10.325	-0.229	0.11698745719724536	
10.33	0.029	0.13266429664723753	
10.335	0.762	0.1479951679804529	
10.34	0.148	0.17706331928161076	
10.345	0.217	0.2308070216655586	
10.35	1.184	0.3170729623252432	
10.355	0.709	0.4262827026701837	
10.36	0.007	0.17706331928161076	
10.365	0.600	0.17706331928161076	
10.37	0.515	0.17706331928161076	
10.375	-0.254	0.4739288000567553	
10.38	-0.002	0.3807292286029783	
10.385	0.657	0.287996305092837	
10.39	-0.078	0.21603068194686323	
10.395	-0.170	0.16983882489205548	
10.4	0.524	0.14204021309243733	
10.405	0.192	0.1252480208503708	
10.41	-0.200	0.12106776932977271	
10.415	0.475	0.1390224303831548	
10.42	0.683	0.1741420742535451	
10.425	-0.112	0.2179543697653781	
10.43	0.279	0.2607802510403055	
10.435	0.974	0.30293902463026956	
10.44	0.125	0.34698483981227135	
10.445	-0.043	0.3728614812157248	
10.45	0.851	0.3789980786985462	
10.455	0.472	0.38322860703810907	
10.46	-0.072	0.3901369893523454	
10.465	0.770	0.4009621705110191	
10.47	1.071	0.4360790536216274	
10.475	0.269	0.4981237513556398	
10.48	0.658	0.5687787969059263	
10.485	1.240	0.6327064983071606	
10.49	0.342	0.6791077098808829	
10.495	0.191	0.6870315032917939	
10.5	0.970	0.6637134744702775	
10.505	0.475	0.6231981840565413	
10.51	-0.112	0.5674602414405512	
10.515	0.573	0.5017526700008951	
10.52	0.596	0.43882389026073165	
10.525	-0.295	0.37448484103871404	
10.53	-0.084	0.29577604504129706	
10.535	0.592	0.2123032575110838	
10.54	-0.138	0.14843938771635964	
10.545	-0.222	0.10736013727421174	
10.55	0.380	0.07821872610453272	
10.555	-0.071	0.045179122794515414	
10.56	-0.402	0.009005236333799453	
10.565	0.088	-0.01853728680765237	
10.57	0.232	-0.041547141541928956	
10.575	-0.375	-0.056989759542860605	
10.58	-0.185	-0.06113137038127238	
10.585	0.255	-0.07025473292761247	
10.59	-0.317	-0.08937414467428903	
10.595	-0.350	-0.10225610890906753	
10.6	0.197	-0.10917046841469324	
10.605	-0.086	-0.11895350900249212	
10.61	-0.387	-0.12155826500222011	
10.615	0.081	-0.1096363787430864	
10.62	0.235	-0.09589209313606814	
10.625	-0.312	-0.07973887806310771	
10.63	-0.031	-0.05194635964585791	
10.635	0.574	-0.015546539876003598	
10.64	-0.158	0.022619496310603466	
10.645	-0.197	0.05299005286586326	
10.65	0.504	0.0746855254859179	
10.655	0.038	0.08588749851996721	
10.66	-0.350	0.08263247528025743	
10.665	0.108	0.0673619294231504	
10.67	0.163	0.034903624349328644	
10.675	-0.404	-0.003631259515656887	
10.68	-0.220	-0.03782418084422819	
10.685	0.354	-0.06672577511491284	
10.69	-0.210	-0.08238114276170888	
10.695	-0.226	-0.07479080755326026	
10.7	0.449	-0.04938564288598196	
10.705	0.010	-0.02026948188157327	
10.71	-0.323	0.0007863381450690802	
10.715	0.227	0.019450663906135004	
10.72	0.281	0.030727659183812695	
10.725	-0.342	0.03236702417399971	
10.73	-0.126	0.028326286205452036	
10.735	0.498	0.019187522649923742	
10.74	-0.145	0.017509573450906393	
10.745	-0.100	0.032338181478744926	
10.75	0.874	0.07666444402314283	
10.755	0.516	0.15863307570428342	
10.76	-0.043	0.25283592598390325	
10.765	0.637	0.0675138416442431	
10.77	0.550	0.0675138416442431	
10.775	-0.234	0.07553417319916647	
10.78	-0.035	0.3373969086090065	
10.785	0.484	0.2660541228529192	
10.79	-0.203	0.18951580748265529	
10.795	-0.265	0.12148904356155146	
10.8	0.377	0.0675138416442431	
10.805	0.024	0.027523806758305763	
10.81	-0.246	0.008083239073143074	
10.815	0.345	0.01751798341811414	
10.82	0.417	0.04540880191575504	
10.825	-0.260	0.07553417319916647	
10.83	0.010	0.09654465455929456	
10.835	0.557	0.10584468109539907	
10.84	-0.164	0.10949605234998563	
10.845	-0.174	0.10768033826627366	
10.85	0.628	0.1093971356177578	
10.855	0.221	0.12541199242834664	
10.86	-0.214	0.14725843462785831	
10.865	0.473	0.16946380449750198	
10.87	0.563	0.19522780248334026	
10.875	-0.170	0.21972116329133756	
10.88	0.227	0.23761727992471834	
10.885	0.741	0.25159662194775045	
10.89	-0.069	0.261599077879322	
10.895	-0.068	0.25686894871495836	
10.9	0.739	0.24912947842817115	
10.905	0.211	0.24938598751999033	
10.91	-0.240	0.24456228252358314	
10.915	0.377	0.227251939064178	
10.92	0.415	0.2060221934172382	
10.925	-0.317	0.18210153474039786	
10.93	-0.101	0.14557877975597128	
10.935	0.438	0.09918504710900419	
10.94	-0.214	0.05892725876750779	
10.945	-0.245	0.031151841887696707	
10.95	0.336	0.010619190318882789	
10.955	-0.139	-0.011613630736222924	
10.96	-0.448	-0.039910555130666506	
10.965	-0.035	-0.07205570914556819	
10.97	-0.023	-0.11233146698774511	
10.975	-0.504	-0.15437937891236553	
10.98	-0.303	-0.18534628203471665	
10.985	-0.025	-0.21734281260101676	
10.99	-0.463	-0.25385640434770956	
10.995	-0.463	-0.27748184586283164	
11.0	0.000	-0.2867740882837705	
11.005	-0.220	-0.2917192240903927	
11.01	-0.471	-0.2844754078371468	
11.015	-0.055	-0.2611605555336952	
11.02	-0.031	-0.2426539235582237	
11.025	-0.456	-0.2301412730295953	
11.03	-0.236	-0.2141906727139916	
11.035	0.194	-0.19861751393051869	
11.04	-0.298	-0.18486296456403442	
11.045	-0.287	-0.16224786089290094	
11.05	0.224	-0.13587948241621062	
11.055	-0.132	-0.11990291550389066	
11.06	-0.401	-0.11033790013408046	
11.065	0.041	-0.10406711008597859	
11.07	0.021	-0.10782629571745382	
11.075	-0.503	-0.12517401055873695	
11.08	-0.292	-0.14601964280424784	
11.085	0.024	-0.17766281189645808	
11.09	-0.439	-0.21503281437994148	
11.095	-0.439	-0.2401233178361348	
11.1	0.056	-0.2507303975846217	
11.105	-0.258	-0.26009254437275514	
11.11	-0.569	-0.2643978061472049	
11.115	-0.110	-0.2638079615793312	
11.12	-0.084	-0.2688868081310621	
11.125	-0.543	-0.27542413713984726	
11.13	-0.286	-0.27078398965839834	
11.135	0.038	-0.2674923543907955	
11.14	-0.393	-0.26840047772777376	
11.145	-0.315	-0.25410080137455904	
11.15	0.427	-0.2123086780358759	
11.155	0.082	-0.1483341867315088	
11.16	-0.216	-0.07170209949392417	
11.165	0.547	0.01163744007139768	
11.17	0.602	0.10519120084214037	
11.175	-0.243	0.18505736103539766	
11.18	-0.035	0.21835935043282223	
11.185	0.359	0.19684475950100988	
11.19	-0.326	0.14221309339409272	
11.195	-0.346	0.07377660403815689	
11.2	0.227	0.006091006289457169	
11.205	-0.155	-0.055493024307760125	
11.21	-0.408	-0.09797164123675305	
11.215	0.148	-0.11400613827975145	
11.22	0.279	-0.10875438450998526	
11.225	-0.312	-0.08329203389013118	
11.23	0.021	-0.045373226539927335	
11.235	0.663	0.00013446066661233205	
11.24	-0.064	0.056820772525948214	
11.245	-0.008	0.11275233728222697	
11.25	0.903	0.17450451383047094	
11.255	0.435	0.2492786257758157	
11.26	-0.052	0.3197435217354165	
11.265	0.731	0.3703178296569566	
11.27	0.942	0.4192551046392053	
11.275	0.744	0.5054307617545393	
11.28	1.353	0.6538914102204925	
11.285	1.783	0.8482850540154625	
11.29	0.794	1.0254343058055442	
11.295	0.702	1.126728981471612	
11.3	1.492	1.1547486281795822	
11.305	0.924	1.143077161757709	
11.31	0.353	1.0956130800883057	
11.315	1.149	1.024562662169128	
11.32	1.116	0.9582359801700038	
11.325	0.183	0.8972112901943128	
11.33	0.606	0.8239056162761718	
11.335	1.032	0.7483426566409608	
11.34	0.094	0.6744695440437556	
11.345	0.059	0.5888032027495154	
11.35	0.808	0.5007027406633425	
11.355	0.152	0.42410968803206556	
11.36	-0.294	0.3457599028772455	
11.365	0.240	0.2604203850805267	
11.37	0.266	0.17512957929380596	
11.375	-0.323	0.10548507179199604	
11.38	-0.087	0.055897440629318354	
11.385	0.246	0.009053449148916171	
11.39	-0.333	-0.03734492719877593	
11.395	-0.306	-0.0709741775680244	
11.4	0.296	-0.08858318686133371	
11.405	-0.145	-0.09995176955391023	
11.41	-0.422	-0.10592888163909407	
11.415	0.042	-0.10866808388267558	
11.42	0.056	-0.11811989454202607	
11.425	-0.379	-0.12633654419250767	
11.43	-0.075	-0.11796925039873313	
11.435	0.409	-0.09815189272207761	
11.44	-0.210	-0.07035846470413686	
11.445	-0.155	-0.03579394075419823	
11.45	0.594	0.006334019297851554	
11.455	0.097	0.05291893730369028	
11.46	-0.219	0.0931954684711248	
11.465	0.429	0.12437122782361354	
11.47	0.374	0.14774091830762842	
11.475	-0.269	0.15868961680267601	
11.48	0.049	0.15509821759765338	
11.485	0.492	0.138736246376068	
11.49	-0.268	0.11563283220164493	
11.495	-0.263	0.08430590999985269	
11.5	0.339	0.047244841493441075	
11.505	-0.118	0.00886716803825482	
11.51	-0.344	-0.021653388815514655	
11.515	0.203	-0.03663529102889887	
11.52	0.188	-0.041377392039365024	
11.525	-0.375	-0.04120657141417255	
11.53	-0.071	-0.03782177988216963	
11.535	0.357	-0.037395281777782764	
11.54	-0.274	-0.03736197630822287	
11.545	-0.257	-0.03555781134014217	
11.55	0.415	-0.03081882669378635	
11.555	0.035	-0.019218563552596643	
11.56	-0.150	0.006461455762456536	
11.565	0.756	0.06440626910028543	
11.57	0.721	0.16153508814129763	
11.575	-0.142	0.2598163663201481	
11.58	0.110	0.3101627637529579	
11.585	0.455	0.3014756822021072	
11.59	-0.303	0.24969005251822052	
11.595	-0.295	0.17451682462745127	
11.6	0.240	0.08903499185329909	
11.605	-0.193	0.005793502061360276	
11.61	-0.460	-0.06337175304529406	
11.615	-0.080	-0.11674341955766973	
11.62	-0.063	-0.16861566533820121	
11.625	-0.457	-0.2079384163641098	
11.63	-0.170	-0.2167002004134172	
11.635	0.266	-0.20669863714169906	
11.64	-0.281	-0.18428723358499488	
11.645	-0.205	-0.14628566238351137	
11.65	0.513	-0.0950297352837512	
11.655	0.052	-0.03636057091770505	
11.66	-0.226	0.018722060790609122	
11.665	0.505	0.07034131348293154	
11.67	0.450	0.12425661538193555	
11.675	-0.249	0.16701487714938318	
11.68	0.198	0.1893668306549307	
11.685	0.692	0.2022509319983143	
11.69	-0.069	0.21768505202968097	
11.695	0.001	0.2267635399677195	
11.7	0.863	0.23990860749895015	
11.705	0.353	0.27365633521990007	
11.71	-0.022	0.31183982696338824	
11.715	0.864	0.3512159569461379	
11.72	0.823	0.40620207819117515	
11.725	0.013	0.46126039711155764	
11.73	0.518	0.4902601870683859	
11.735	0.936	0.5049858777570484	
11.74	-0.008	0.504985618805156	
11.745	-0.046	0.46784038954741936	
11.75	0.637	0.40142113982970634	
11.755	-0.023	0.32684469215732337	
11.76	-0.350	0.24226858718012723	
11.765	0.096	0.14969702301909033	
11.77	-0.009	0.05302499789780525	
11.775	-0.504	-0.03704452769664093	
11.78	-0.260	-0.10992835550405286	
11.785	-0.025	-0.17558579871331595	
11.79	-0.504	-0.2344342833818128	
11.795	-0.480	-0.2758592979817328	
11.8	-0.072	-0.30326485665161884	
11.805	-0.382	-0.33001996248645193	
11.81	-0.611	-0.34713644392223564	
11.815	-0.176	-0.35274641240196736	
11.82	-0.164	-0.3562613466548601	
11.825	-0.569	-0.35447489279751626	
11.83	-0.309	-0.3399981434961269	
11.835	-0.055	-0.32907982582227313	
11.84	-0.483	-0.3261154846917014	
11.845	-0.401	-0.3146085533410323	
11.85	0.088	-0.2946913840764683	
11.855	-0.274	-0.27501076685426734	
11.86	-0.494	-0.256778814301648	
11.865	-0.026	-0.23996944311636695	
11.87	-0.028	-0.22746517470438163	
11.875	-0.483	-0.21717577976853936	
11.88	-0.202	-0.20599712648163604	
11.885	0.076	-0.20135225522266564	
11.89	-0.466	-0.20596588207111222	
11.895	-0.434	-0.21546370053617012	
11.9	0.003	-0.23093306891642087	
11.905	-0.332	-0.2520165305708913	
11.91	-0.518	-0.26854355014079195	
11.915	-0.045	-0.27207183741709895	
11.92	-0.048	-0.267603625272187	
11.925	-0.445	-0.25499701848483625	
11.93	-0.115	-0.22895200803994348	
11.935	0.220	-0.19651251896850663	
11.94	-0.378	-0.16691349797221744	
11.945	-0.338	-0.1473608919511477	
11.95	0.324	-0.1330350684939034	
11.955	-0.035	-0.11002933555785538	
11.96	-0.130	-0.07142434994043481	
11.965	0.927	0.010900863652477102	
11.97	1.020	0.16139502929256883	
11.975	0.013	0.3310952603879969	
11.98	0.304	0.4378575348594041	
11.985	0.449	0.45629858400085715	
11.99	-0.367	0.40032773727993604	
11.995	-0.405	0.28064609921131123	
12.0	-0.104	0.12259620795701817	
12.005	-0.520	-0.05084173799812766	
12.01	-0.841	-0.21711642498088016	
12.015	-0.489	-0.36254084665348235	
12.02	-0.576	-0.4917604383046475	
12.025	-0.987	-0.597349503458763	
12.03	-0.750	-0.6701684559781238	
12.035	-0.491	-0.7220566518332823	
12.04	-0.902	-0.7542988883160151	
12.045	-0.851	-0.7631126239424768	
12.05	-0.457	-0.7568084700255306	
12.055	-0.715	-0.7488139486625955	
12.06	-0.926	-0.7347730001628714	
12.065	-0.611	-0.7197775921430338	
12.07	-0.709	-0.7249918674959712	
12.075	-0.993	-0.7440804234127472	
12.08	-0.925	-0.7631429740571114	
12.085	-0.740	-0.79834460855285	
12.09	-0.993	-0.844240347018049	
12.095	-0.995	-0.8688983617783762	
12.1	-0.711	-0.880919045096557	
12.105	-0.966	-0.8999877332431584	
12.11	-0.993	-0.9096345648719114	
12.115	-0.769	-0.8985948177150691	
12.12	-0.804	-0.8951674024796266	
12.125	-0.995	-0.8942405405684903	
12.13	-0.871	-0.8778411348621467	
12.135	-0.624	-0.8642471984083687	
12.14	-0.993	-0.8616649943156631	
12.145	-0.986	-0.8528207221954671	
12.15	-0.627	-0.8464706001433334	
12.155	-0.891	-0.8523492884928539	
12.16	-0.993	-0.8519554466918746	
12.165	-0.691	-0.8399892602267934	
12.17	-0.714	-0.8361747668041162	
12.175	-0.995	-0.8339248103742023	
12.18	-0.828	-0.8204082553709218	
12.185	-0.604	-0.8157621872712431	
12.19	-0.972	-0.8214579089055398	
12.195	-0.879	-0.8158463885008844	
12.2	-0.453	-0.7975569544111007	
12.205	-0.672	-0.777873990864979	
12.21	-0.802	-0.7416064365797853	
12.215	-0.297	-0.6839949585179008	
12.22	-0.211	-0.6200744665919615	
12.225	-0.477	-0.5410331187452739	
12.23	0.036	-0.4307883284946902	
12.235	0.736	-0.2849069718062718	
12.24	0.067	-0.10957511348729876	
12.245	0.438	0.07395898237915674	
12.25	1.443	0.2727033996628202	
12.255	1.042	0.49658283397986946	
12.26	0.832	0.7194526431490207	
12.265	1.883	0.9310551411583107	
12.27	1.945	1.148197275823756	
12.275	1.165	1.3497718689391123	
12.28	1.812	1.5065479959983845	
12.285	2.247	1.6268861849926546	
12.29	1.301	1.7125680154415914	
12.295	1.294	1.7406453550247116	
12.3	1.923	1.7145535667140148	
12.305	1.199	1.6512814391231128	
12.31	0.738	1.5518183025532517	
12.315	1.575	1.437685510188796	
12.32	1.498	1.3454261175867304	
12.325	0.742	1.2841478448372723	
12.33	1.404	1.2458043698480885	
12.335	1.903	1.2453956719906545	
12.34	1.034	1.2791518406383278	
12.345	1.161	1.314521195576695	
12.35	2.047	1.3520527859912537	
12.355	1.673	1.4131948355473316	
12.36	1.433	1.5015441929084459	
12.365	2.507	1.6169641920069278	
12.37	2.629	1.7755084430717003	
12.375	1.816	1.9548808671592202	
12.38	2.203	2.099812184094996	
12.385	2.323	2.1744112202294925	
12.39	1.164	2.1539635587732073	
12.395	1.141	2.033511702793506	
12.4	1.853	1.8560992500994244	
12.405	1.191	1.6781361944866635	
12.41	0.813	1.5175902342616023	
12.415	1.679	1.3909625860554913	
12.42	1.547	1.3164395052230522	
12.425	0.721	1.2770102249768969	
12.43	1.416	1.2528585899196787	
12.435	1.932	1.258343576049139	
12.44	1.123	1.3002220523044823	
12.445	1.375	1.3556370824314816	
12.45	2.197	1.4257906469834634	
12.455	1.648	1.512237518287868	
12.46	1.349	1.5948697145159054	
12.465	2.294	1.6725681815224218	
12.47	2.191	1.758303431729642	
12.475	1.352	1.8335006181104552	
12.48	1.885	1.8705982129808967	
12.485	2.212	1.8788516659907115	
12.49	1.243	1.8607500103832941	
12.495	1.271	1.8017521970481416	
12.5	1.952	1.7180507492564998	
12.505	1.179	1.6265617532789145	
12.51	0.618	1.5124560140952945	
12.515	1.356	1.374791292712945	
12.52	1.222	1.2451509243059693	
12.525	0.431	1.1355024419131154	
12.53	1.072	1.0422112192039863	
12.535	1.459	0.9861120386925363	
12.54	0.571	0.9657457680464274	
12.545	0.756	0.948991479006542	
12.55	1.657	0.9488744037646195	
12.555	2.042	1.0331713110681717	
12.56	3.074	1.293632312750696	
12.565	3.057	1.7227736753838279	
12.57	3.058	2.164610401903282	
12.575	3.067	2.536641350070063	
12.58	3.067	2.8399156864644084	
12.585	3.071	3.027041992527524	
12.59	2.762	3.0933635833660835	
12.595	2.294	3.0724526657945184	
12.6	2.505	2.9610110368102665	
12.605	1.370	2.736950353439084	
12.61	0.524	2.391985657300249	
12.615	1.057	1.9604357548229372	
12.62	0.661	1.523507482534026	
12.625	-0.208	1.1171690296749988	
12.63	-0.043	0.7428529212299401	
12.635	0.035	0.4057774962613612	
12.64	-0.517	0.12386699113996497	
12.645	-0.498	-0.09233954813527874	
12.65	-0.132	-0.24742955949615272	
12.655	-0.469	-0.35574973646174385	
12.66	-0.656	-0.41946775990294954	
12.665	-0.269	-0.45001481575110147	
12.67	-0.382	-0.4687506591939987	
12.675	-0.781	-0.48528998528236894	
12.68	-0.511	-0.4962557626969842	
12.685	-0.349	-0.5127296225359017	
12.69	-0.828	-0.5388323970799056	
12.695	-0.813	-0.567147104967709	
12.7	-0.475	-0.6029138210493472	
12.705	-0.750	-0.6447286831267838	
12.71	-0.897	-0.6760845395714964	
12.715	-0.501	-0.6892669289309069	
12.72	-0.564	-0.6969631999873863	
12.725	-0.894	-0.6969433390150311	
12.73	-0.581	-0.6842378877520301	
12.735	-0.388	-0.6670332063599443	
12.74	-0.805	-0.6536831686033717	
12.745	-0.732	-0.6379513504924428	
12.75	-0.336	-0.6241336231185299	
12.755	-0.599	-0.613786124668259	
12.76	-0.706	-0.5958734679133691	
12.765	-0.226	-0.5623207402421736	
12.77	-0.242	-0.521114368683663	
12.775	-0.614	-0.47483259356951746	
12.78	-0.315	-0.4261725101009459	
12.785	-0.174	-0.39318002750388426	
12.79	-0.708	-0.3857145525946628	
12.795	-0.614	-0.3968378268098524	
12.8	-0.223	-0.421157054591389	
12.805	-0.547	-0.44888489145574106	
12.81	-0.712	-0.4698162910423597	
12.815	-0.278	-0.47924626130168674	
12.82	-0.295	-0.4832082016048697	
12.825	-0.588	-0.47086323580439854	
12.83	-0.239	-0.43702145750299687	
12.835	-0.009	-0.3931780382817681	
12.84	-0.442	-0.3488498312020479	
12.845	-0.324	-0.3037355555575079	
12.85	0.206	-0.2580371828101541	
12.855	-0.245	-0.21606540408094832	
12.86	-0.414	-0.18287223213217774	
12.865	0.094	-0.16005026011816875	
12.87	-0.060	-0.14828887769142657	
12.875	-0.433	-0.14405851509646664	
12.88	-0.097	-0.14286187662278982	
12.885	0.198	-0.13908574850484	
12.89	-0.342	-0.13205812386951155	
12.895	-0.231	-0.12169924798145368	
12.9	0.337	-0.10684795308107142	
12.905	-0.200	-0.0902049307862768	
12.91	-0.378	-0.08097098002079381	
12.915	0.107	-0.08285864756639649	
12.92	-0.055	-0.09330493365559853	
12.925	-0.446	-0.11122924444874302	
12.93	-0.147	-0.12874472147295152	
12.935	0.058	-0.14999503895603664	
12.94	-0.480	-0.17423745610123606	
12.945	-0.413	-0.19868979646680024	
12.95	-0.011	-0.22668284527123617	
12.955	-0.356	-0.2563233322214985	
12.96	-0.524	-0.27604787581946	
12.965	-0.104	-0.28664428389774976	
12.97	-0.223	-0.2983410201586483	
12.975	-0.639	-0.3134430432730665	
12.98	-0.350	-0.32656560543062824	
12.985	-0.188	-0.34787420676218717	
12.99	-0.617	-0.37452266444767146	
12.995	-0.475	-0.3906310951472148	
13.0	-0.057	-0.3923679151115531	
13.005	-0.393	-0.3875666454957539	
13.01	-0.550	-0.3732511656292009	
13.015	-0.112	-0.35325753296841583	
13.02	-0.170	-0.33735918867847686	
13.025	-0.524	-0.3218535677238876	
13.03	-0.197	-0.29727965951473967	
13.035	0.085	-0.2745908934043118	
13.04	-0.446	-0.25300473641604865	
13.045	-0.332	-0.23164903306148768	
13.05	0.246	-0.20986446339262	
13.055	-0.237	-0.1858761158165862	
13.06	-0.382	-0.16359701532694546	
13.065	0.128	-0.14273070658138576	
13.07	-0.005	-0.12933593003754754	
13.075	-0.401	-0.12141892944025501	
13.08	-0.058	-0.11196239280650014	
13.085	0.279	-0.10220969859749268	
13.09	-0.344	-0.09155722009281295	
13.095	-0.294	-0.08469832980199758	
13.1	0.140	-0.09229574246949321	
13.105	-0.295	-0.11721215917982701	
13.11	-0.445	-0.1439762982979388	
13.115	-0.003	-0.16412675154435752	
13.12	-0.110	-0.18831325863978904	
13.125	-0.475	-0.2070551904179182	
13.13	-0.101	-0.20755571809604723	
13.135	0.241	-0.194772198719054	
13.14	-0.370	-0.1732530069161554	
13.145	-0.274	-0.147710792096951	
13.15	0.279	-0.12753829962923785	
13.155	-0.164	-0.11365962897669979	
13.16	-0.274	-0.09447839438484743	
13.165	0.484	-0.05632684183749238	
13.17	0.435	0.004747728468066194	
13.175	-0.161	0.08010634592516845	
13.18	0.429	0.1528722730708708	
13.185	0.802	0.2237732898789087	
13.19	-0.139	0.28195699697422705	
13.195	-0.078	0.29917403106223384	
13.2	0.583	0.27623915551069705	
13.205	-0.075	0.2339587064251008	
13.21	-0.228	0.1860028865495106	
13.215	0.472	0.148334482521546	
13.22	0.282	0.127826482254947	
13.225	-0.281	0.11843349784703501	
13.23	0.388	0.12422325183612795	
13.235	0.991	0.1662531016404732	
13.24	0.290	0.2554327760795664	
13.245	0.638	0.37514461954392225	
13.25	1.520	0.51784283515547	
13.255	0.933	0.6776820950471476	
13.26	0.605	0.8215917260638279	
13.265	1.508	0.9327580887664998	
13.27	1.295	1.0208856538282376	
13.275	0.458	1.0759706654797476	
13.28	1.022	1.0813509482020411	
13.285	1.289	1.052459549222582	
13.29	0.371	1.003116221118966	
13.295	0.576	0.93609836691173	
13.3	1.362	0.8740914143118788	
13.305	0.626	0.8345920274692824	
13.31	0.197	0.7984966163388011	
13.315	1.063	0.7528956185910561	
13.32	0.736	0.710896260216025	
13.325	-0.066	0.6629399140458695	
13.33	0.479	0.5943973766160542	
13.335	0.676	0.5174345660011586	
13.34	-0.179	0.43615967552348833	
13.345	-0.092	0.3471447485334973	
13.35	0.438	0.2539415065518665	
13.355	-0.213	0.15960640921756206	
13.36	-0.407	0.07268330952403854	
13.365	0.020	-0.007229607817295301	
13.37	-0.199	-0.09223352159967739	
13.375	-0.613	-0.1728371587651849	
13.38	-0.326	-0.23354909617950892	
13.385	-0.152	-0.29277699339771013	
13.39	-0.572	-0.34678313871455324	
13.395	-0.474	-0.3696440836341013	
13.4	-0.077	-0.37614123109280156	
13.405	-0.408	-0.38557622732838415	
13.41	-0.533	-0.3771850492020942	
13.415	-0.061	-0.35103678939077276	
13.42	-0.155	-0.33244785960111356	
13.425	-0.514	-0.3130093588493368	
13.43	-0.122	-0.2782096027825537	
13.435	0.209	-0.24172659625052842	
13.44	-0.347	-0.2052361362590051	
13.445	-0.148	-0.1564803776296041	
13.45	0.655	-0.09371110861416826	
13.455	0.079	-0.015993915624684416	
13.46	-0.075	0.066577546585164	
13.465	0.805	0.15253405888767024	
13.47	0.641	0.244470362795439	
13.475	-0.077	0.32744597874458137	
13.48	0.562	0.38514408407522993	
13.485	0.886	0.42355315281224454	
13.49	0.023	0.44923648659555754	
13.495	0.314	0.4585384699991451	
13.5	1.097	0.4697411915855588	
13.505	0.365	0.49171790177138525	
13.51	0.212	0.5133351200627423	
13.515	1.265	0.5489382832981092	
13.52	1.210	0.6245014278932517	
13.525	0.606	0.7331516843821614	
13.53	1.456	0.8603365156944968	
13.535	1.919	1.0067397661519184	
13.54	1.089	1.163021811423551	
13.545	1.395	1.3014970237355092	
13.55	2.201	1.420879447956607	
13.555	1.511	1.523654554135683	
13.56	1.234	1.5992486989485788	
13.565	2.213	1.65195010744288	
13.57	2.154	1.7104996883655463	
13.575	1.531	1.78417430021648	
13.58	2.328	1.8693083544372624	
13.585	2.701	1.967673403539745	
13.59	1.680	2.0631132447809613	
13.595	1.804	2.1144971449155507	
13.6	2.414	2.1156764775292443	
13.605	1.550	2.073744943818907	
13.61	1.118	1.984425823742103	
13.615	1.943	1.8626911355117846	
13.62	1.605	1.7414450735701696	
13.625	0.730	1.6215157138084073	
13.63	1.364	1.497111111841107	
13.635	1.618	1.3853847951337614	
13.64	0.634	1.2925771582028451	
13.645	0.825	1.2016014834609607	
13.65	1.520	1.1211686709459183	
13.655	0.655	1.0540603213173807	
13.66	0.220	0.9758600036976658	
13.665	0.852	0.8700587689519006	
13.67	0.437	0.744335696622083	
13.675	-0.184	0.6062560693514683	
13.68	0.363	0.4747677464899761	
13.685	0.628	0.36883435233674333	
13.69	-0.126	0.29431838221318674	
13.695	0.058	0.24574169712012073	
13.7	0.848	0.223328925671132	
13.705	0.201	0.23547419307742326	
13.71	-0.003	0.2625171733222959	
13.715	0.826	0.29626458890163393	
13.72	0.501	0.33619938712428965	
13.725	-0.164	0.3621739569303596	
13.73	0.295	0.3552659838908988	
13.735	0.478	0.3210991430617951	
13.74	-0.262	0.2692322577912241	
13.745	-0.167	0.20487852608016488	
13.75	0.304	0.13023309352249676	
13.755	-0.286	0.050959732737178805	
13.76	-0.463	-0.023679298324615555	
13.765	-0.061	-0.09472952159355262	
13.77	-0.269	-0.1710177038860679	
13.775	-0.679	-0.2436767949405478	
13.78	-0.413	-0.3051452155617048	
13.785	-0.298	-0.3687383582633772	
13.79	-0.761	-0.43284638344661025	
13.795	-0.650	-0.4798183908802142	
13.8	-0.355	-0.5187962317153292	
13.805	-0.726	-0.5607242140730796	
13.81	-0.825	-0.5928876939039323	
13.815	-0.399	-0.6084669688913742	
13.82	-0.559	-0.6233164525143529	
13.825	-0.902	-0.633820147167386	
13.83	-0.558	-0.6343664593550341	
13.835	-0.390	-0.6353987806518575	
13.84	-0.763	-0.6342585145526272	
13.845	-0.426	-0.6055378668023647	
13.85	-0.040	-0.5504642761020794	
13.855	-0.454	-0.48757567878433616	
13.86	-0.596	-0.43139152035775025	
13.865	-0.187	-0.39094267203762056	
13.87	-0.349	-0.3775334033118639	
13.875	-0.676	-0.379286748436519	
13.88	-0.338	-0.38349539674400424	
13.885	-0.225	-0.39381541399201725	
13.89	-0.692	-0.4119119653115509	
13.895	-0.601	-0.42939968686978425	
13.9	-0.252	-0.45090971940996566	
13.905	-0.622	-0.47946725912880744	
13.91	-0.743	-0.5020286650694488	
13.915	-0.309	-0.5142008105460104	
13.92	-0.498	-0.5286786338347631	
13.925	-0.845	-0.5439604534258382	
13.93	-0.494	-0.5535357143070241	
13.935	-0.358	-0.5640697581217533	
13.94	-0.779	-0.5737328573346487	
13.945	-0.604	-0.5712581416284255	
13.95	-0.263	-0.5631157212834739	
13.955	-0.625	-0.5564808308708469	
13.96	-0.724	-0.5468577255469396	
13.965	-0.292	-0.5342744959651777	
13.97	-0.382	-0.5237893881593146	
13.975	-0.614	-0.505844524271368	
13.98	-0.090	-0.4604570624706359	
13.985	0.255	-0.3861519300263536	
13.99	-0.373	-0.29175170999261746	
13.995	-0.291	-0.2112104524215072	
14.0	0.039	-0.1681818525423764	
14.005	-0.454	-0.16755856361834792	
14.01	-0.614	-0.19780107668920618	
14.015	-0.216	-0.2472544640316181	
14.02	-0.394	-0.309875029519457	
14.025	-0.737	-0.3698271622948768	
14.03	-0.365	-0.41238625881627866	
14.035	-0.237	-0.4432365548994903	
14.04	-0.631	-0.46080222145681743	
14.045	-0.460	-0.45804801579862914	
14.05	-0.060	-0.4401156976224938	
14.055	-0.402	-0.41669506214925855	
14.06	-0.472	-0.3827526920740556	
14.065	0.021	-0.34007669642965643	
14.07	-0.164	-0.301001927594997	
14.075	-0.488	-0.26898016002770314	
14.08	-0.130	-0.24019312050459302	
14.085	0.049	-0.22220433810441867	
14.09	-0.439	-0.2100698091712371	
14.095	-0.243	-0.19695886836426224	
14.1	0.328	-0.17688668995386841	
14.105	-0.187	-0.14492094559251806	
14.11	-0.275	-0.10986437997813486	
14.115	0.397	-0.07078581743896557	
14.12	0.140	-0.02605274167464556	
14.125	-0.284	0.012768478926229796	
14.13	0.224	0.04199587271172433	
14.135	0.412	0.0669277060827029	
14.14	-0.294	0.08568456043584774	
14.145	-0.122	0.0830316551310715	
14.15	0.527	0.07129752001089742	
14.155	-0.162	0.06698729225626712	
14.16	-0.306	0.055032331592417966	
14.165	0.232	0.03130098686441922	
14.17	-0.077	-0.0010406898078275171	
14.175	-0.469	-0.04027850016818881	
14.18	-0.158	-0.08499073657282287	
14.185	-0.051	-0.13707451760821684	
14.19	-0.517	-0.1902956017971791	
14.195	-0.355	-0.22891466343131564	
14.2	0.059	-0.25472900761266726	
14.205	-0.396	-0.27104924256992335	
14.21	-0.489	-0.2779029094692055	
14.215	-0.025	-0.27665745396697405	
14.22	-0.225	-0.2791136205101614	
14.225	-0.566	-0.282295437944826	
14.23	-0.202	-0.2818862216753284	
14.235	-0.066	-0.28508705657878763	
14.24	-0.520	-0.2904197861146437	
14.245	-0.339	-0.287848410092006	
14.25	0.120	-0.2776234137049137	
14.255	-0.358	-0.26419453957149086	
14.26	-0.430	-0.247956629827714	
14.265	0.139	-0.22746489406465498	
14.27	-0.097	-0.20515839682613327	
14.275	-0.482	-0.18648283436917573	
14.28	-0.100	-0.17474291485641347	
14.285	0.070	-0.17298498975769494	
14.29	-0.471	-0.1766371083592844	
14.295	-0.320	-0.18283573446384205	
14.3	0.165	-0.18942271792750512	
14.305	-0.359	-0.19633594005372368	
14.31	-0.477	-0.20307576351249515	
14.315	0.006	-0.21125589076451565	
14.32	-0.202	-0.2271821744973299	
14.325	-0.572	-0.24268312698448594	
14.33	-0.187	-0.2535679323406044	
14.335	-0.032	-0.26586851890176527	
14.34	-0.517	-0.2758906015880176	
14.345	-0.346	-0.27577965779796904	
14.35	0.146	-0.2681667379188108	
14.355	-0.341	-0.25555569146885926	
14.36	-0.465	-0.2402088528332012	
14.365	0.053	-0.22693072920875773	
14.37	-0.130	-0.22024900946426174	
14.375	-0.417	-0.21098700068571125	
14.38	0.230	-0.17827796804574883	
14.385	0.754	-0.10066059307973527	
14.39	-0.017	0.016751295498315596	
14.395	0.235	0.13622504902999094	
14.4	0.860	-0.17827796804574883	
14.405	-0.093	-0.17827796804574883	
14.41	-0.332	-0.17827796804574883	
14.415	0.146	-0.17827796804574883	
14.42	-0.185	0.1327502236852217	
14.425	-0.572	0.013814293388970118	
14.43	-0.220	-0.09517814205756706	
14.435	-0.089	-0.1916168658538809	
14.44	-0.508	-0.26338633716591453	
14.445	-0.300	-0.29465753949171414	
14.45	0.198	-0.2917292515913255	
14.455	-0.313	-0.26992980249041176	
14.46	-0.361	-0.2373820323985158	
14.465	0.388	-0.18844066767614615	
14.47	0.104	-0.12635343260997994	
14.475	-0.313	-0.06538348661457032	
14.48	0.223	-0.012991155624073079	
14.485	0.489	0.034452168738771834	
14.49	-0.229	0.07835033367580313	
14.495	-0.025	0.10534045665297834	
14.5	0.681	0.12444533025696407	
14.505	-0.023	0.14696054278033943	
14.51	-0.110	0.16451585087866277	
14.515	0.721	0.18267106371398034	
14.52	0.402	0.21766959923030113	
14.525	-0.196	0.2505484973764899	
14.53	0.380	0.26199103721202743	
14.535	0.548	0.2614626674305636	
14.54	-0.245	0.2514083372765519	
14.545	-0.069	0.22031094751791086	
14.55	0.563	0.1783314390055717	
14.555	-0.199	0.1400797250398991	
14.56	-0.353	0.09661570832499239	
14.565	0.104	0.03841870355349137	
14.57	-0.213	-0.03435131182762491	
14.575	-0.604	-0.11214722201384174	
14.58	-0.323	-0.18613502390710662	
14.585	-0.298	-0.26877782291259555	
14.59	-0.792	-0.35631327021320397	
14.595	-0.714	-0.43356542035193224	
14.6	-0.514	-0.5119851301147853	
14.605	-0.957	-0.6038939602396453	
14.61	-0.993	-0.6861036581192648	
14.615	-0.677	-0.7496777856473706	
14.62	-0.824	-0.8085167559848093	
14.625	-0.995	-0.8469899145405578	
14.63	-0.755	-0.8509972495903662	
14.635	-0.627	-0.8489216447731425	
14.64	-0.990	-0.8484300127021939	
14.645	-0.772	-0.8263739137119439	
14.65	-0.402	-0.7938667442637205	
14.655	-0.709	-0.7601597342727464	
14.66	-0.732	-0.7111310656802523	
14.665	-0.258	-0.650329848218544	
14.67	-0.350	-0.5946891937293107	
14.675	-0.613	-0.535348676934337	
14.68	-0.265	-0.4686151502145989	
14.685	-0.107	-0.41676481900667595	
14.69	-0.533	-0.3789986106859007	
14.695	-0.332	-0.3382219010126486	
14.7	0.156	-0.2993373916930461	
14.705	-0.342	-0.2666801790061549	
14.71	-0.416	-0.23441033545754258	
14.715	0.143	-0.20460372189350323	
14.72	-0.112	-0.18485604248953974	
14.725	-0.431	-0.1700386655904605	
14.73	0.010	-0.15000715701801431	
14.735	0.227	-0.13139222755175892	
14.74	-0.402	-0.11485134761453371	
14.745	-0.217	-0.09908360710102722	
14.75	0.389	-0.08854459098952228	
14.755	-0.217	-0.07731158821216441	
14.76	-0.298	-0.0628225246705087	
14.765	0.345	-0.04568940609878892	
14.77	0.021	-0.03299747983130408	
14.775	-0.271	-0.020880363661449207	
14.78	0.476	0.01368334083935748	
14.785	0.932	0.09210272750475625	
14.79	0.249	0.21222362006538273	
14.795	0.727	0.35602435311630665	
14.8	1.396	0.5093291458931201	
14.805	0.440	0.6450348879283945	
14.81	0.032	0.7116025701355815	
14.815	0.750	0.6911403053308944	
14.82	0.295	0.6139801757920003	
14.825	-0.260	0.5053127261758419	
14.83	0.295	0.3911429753076354	
14.835	0.460	0.2875358933793255	
14.84	-0.280	0.20449887082823015	
14.845	-0.029	0.14605345745327916	
14.85	0.758	0.11502306242639725	
14.855	0.073	0.121661369389297	
14.86	0.012	0.1563229657190807	
14.865	1.042	0.21984974880904	
14.87	0.753	0.31494909416040634	
14.875	0.130	0.4217118521576768	
14.88	0.948	0.5165285003959265	
14.885	1.156	0.6028306623036357	
14.89	0.266	0.6739106171428053	
14.895	0.669	0.7190633569258864	
14.9	1.375	0.752488354364701	
14.905	0.589	0.7843290341681148	
14.91	0.449	0.8070485869668471	
14.915	1.367	0.8232483972536281	
14.92	1.010	0.8459240324000602	
14.925	0.347	0.8673674952464394	
14.93	1.084	0.8767450916946155	
14.935	1.272	0.8820068886192589	
14.94	0.313	0.8806446483799093	
14.945	0.644	0.8610779371746535	
14.95	1.318	0.8346980411641947	
14.955	0.495	0.8102084124587827	
14.96	0.279	0.780962190550302	
14.965	1.135	0.7463819620189658	
14.97	0.667	0.7129054874670293	
14.975	-0.051	0.6702824285329744	
14.98	0.626	0.6117910210321249	
14.985	0.773	0.5480256299598393	
14.99	-0.100	0.4886405988775202	
14.995	0.208	0.4321079846011605	
15.0	0.851	0.3846696217663572	
15.005	0.027	0.34821943481425244	
15.01	-0.086	0.31702673978346807	
15.015	0.661	0.29031946376123063	
15.02	0.256	0.2648732213731666	
15.025	-0.237	0.24140136235651274	
15.03	0.366	0.22177516178984386	
15.035	0.579	0.20892614262253012	
15.04	-0.177	0.20273212388784817	
15.045	0.064	0.20315260844535338	
15.05	0.667	0.19953199135122246	
15.055	-0.061	0.19223290441464824	
15.06	-0.106	0.1871462885374701	
15.065	0.806	0.19625419524252394	
15.07	0.496	0.23083019516841197	
15.075	-0.089	0.27751618619364116	
15.08	0.620	0.3237365155452221	
15.085	0.739	0.36080461954079535	
15.09	-0.100	0.3818173338497968	
15.095	0.204	0.38318316645669037	
15.1	0.843	0.372397798720976	
15.105	0.024	0.35629861493118975	
15.11	-0.090	0.33224044119120205	
15.115	0.585	0.30107386419837645	
15.12	0.211	0.2637984890692351	
15.125	-0.260	0.2247056647199535	
15.13	0.279	0.19265529850391042	
15.135	0.408	0.16168438006729313	
15.14	-0.272	0.13200166562005114	
15.145	-0.049	0.11122519914172196	
15.15	0.567	0.09522685966796089	
15.155	-0.150	0.08237217086373345	
15.16	-0.223	0.0763684564553733	
15.165	0.455	0.07395785505355257	
15.17	0.090	0.06875601595181535	
15.175	-0.281	0.06482287246678081	
15.18	0.398	0.07664494829279836	
15.185	0.747	0.11363054077148262	
15.19	0.026	0.1780724849608173	
15.195	0.453	0.2602456800067259	
15.2	1.112	0.35315891720795334	
15.205	0.255	0.4383834630428285	
15.21	-0.017	0.4863611404086952	
15.215	0.676	0.48385229053766976	
15.22	0.258	0.44077022745106276	
15.225	-0.260	0.374902714676434	
15.23	0.223	0.30154242148605304	
15.235	0.420	0.22555796814586335	
15.24	-0.263	0.16120002266769046	
15.245	-0.023	0.12025468829783818	
15.25	0.672	0.10004168007516616	
15.255	-0.034	0.10147616666449648	
15.26	-0.153	0.11650516010458939	
15.265	0.651	0.13877576884231574	
15.27	0.337	0.16673433787426012	
15.275	-0.158	0.19803281754253002	
15.28	0.608	0.23552847126278334	
15.285	0.906	0.2884568701504472	
15.29	0.149	0.3582876864586982	
15.295	0.690	0.43929044770129094	
15.3	1.395	0.5389065208375814	
15.305	0.676	0.6505249944564747	
15.31	0.568	0.7515898926606277	
15.315	1.492	0.8356048201080363	
15.32	1.120	0.9127343691434622	
15.325	0.450	0.9702148801219411	
15.33	1.254	0.9993379744925537	
15.335	1.402	1.01731237115888	
15.34	0.435	1.0255820727435623	
15.345	0.809	1.0072080081089512	
15.35	1.396	0.9775458082058293	
15.355	0.537	0.9448365735224686	
15.36	0.259	0.8918025725853491	
15.365	0.997	0.8170893323001187	
15.37	0.502	0.7318181094347007	
15.375	-0.133	0.6357617078791657	
15.38	0.481	0.5319212892061782	
15.385	0.545	0.4350041155529242	
15.39	-0.295	0.34526866301115744	
15.395	-0.133	0.25313696334934477	
15.4	0.420	0.15987049881008006	
15.405	-0.246	0.07835873198999144	
15.41	-0.335	0.01724642305202754	
15.415	0.284	-0.025662841882300984	
15.42	-0.051	-0.05713878804377024	
15.425	-0.414	-0.07846720507418395	
15.43	-0.025	-0.08856676473401406	
15.435	0.105	-0.10548576764726084	
15.44	-0.437	-0.12497749980701653	
15.445	-0.263	-0.13681868200804176	
15.45	0.122	-0.15087721634214205	
15.455	-0.344	-0.17227567738069743	
15.46	-0.379	-0.18428275923084114	
15.465	0.224	-0.17727555716392723	
15.47	-0.107	-0.16622364820365873	
15.475	-0.426	-0.1528719419533256	
15.48	0.030	-0.13684512221062145	
15.485	0.159	-0.12386290515625197	
15.49	-0.410	-0.11550223473832935	
15.495	-0.232	-0.1097694774798598	
15.5	0.235	-0.11135293800377401	
15.505	-0.318	-0.12003516332997426	
15.51	-0.410	-0.1289970939340189	
15.515	0.068	-0.14070308851528246	
15.52	-0.223	-0.1652664269048899	
15.525	-0.546	-0.19445602948982219	
15.53	-0.174	-0.2160400320966986	
15.535	-0.144	-0.24613476375885637	
15.54	-0.604	-0.2821804880576744	
15.545	-0.420	-0.3076896338570276	
15.55	-0.023	-0.3276496784893797	
15.555	-0.426	-0.34193336881562464	
15.56	-0.491	-0.3377801075915202	
15.565	-0.032	-0.32286389564340867	
15.57	-0.275	-0.3153630582735014	
15.575	-0.593	-0.3122992782030362	
15.58	-0.177	-0.30401844318975013	
15.585	-0.049	-0.30125615121104077	
15.59	-0.426	-0.29416528935896724	
15.595	-0.135	-0.26256565774632123	
15.6	0.585	-0.19964746940297065	
15.605	-0.181	-0.11705027685850003	
15.61	-0.266	-0.044784608414443636	
15.615	0.284	-0.003791077228974009	
15.62	-0.118	0.003562611069848056	
15.625	-0.509	-0.018376240995542137	
15.63	-0.133	-0.05993128671501725	
15.635	-0.072	-0.12024817834121233	
15.64	-0.520	-0.18126894032937116	
15.645	-0.327	-0.22251499254632842	
15.65	0.108	-0.24658850508136285	
15.655	-0.336	-0.25816340511242897	
15.66	-0.362	-0.24774042463037912	
15.665	0.223	-0.2175926414743578	
15.67	-0.115	-0.18654026791340372	
15.675	-0.405	-0.1605206715518074	
15.68	0.079	-0.13169298909309124	
15.685	0.253	-0.10418449343043928	
15.69	-0.367	-0.07957944385544195	
15.695	-0.142	-0.058443079389686445	
15.7	0.530	-0.039321835366591576	
15.705	-0.126	-0.011408719233632599	
15.71	-0.159	0.02210675213245153	
15.715	0.667	0.06273054752897825	
15.72	0.288	0.11543074416084932	
15.725	-0.196	0.1651912220561902	
15.73	0.482	0.20148461202373877	
15.735	0.600	0.2339623357146916	
15.74	-0.193	0.25717384396635035	
15.745	0.099	0.2585475359774062	
15.75	0.770	0.25086881565981733	
15.755	-0.057	0.24850062093536843	
15.76	-0.133	0.23799560632658354	
15.765	0.620	0.21981242754199826	
15.77	0.208	0.20846774258487033	
15.775	-0.258	0.19615549609798458	
15.78	0.272	0.17745629413730923	
15.785	0.336	0.15296880835267682	
15.79	-0.349	0.12124555822848626	
15.795	-0.188	0.08152993977834373	
15.8	0.269	0.02976645685518514	
15.805	-0.333	-0.026427922917618838	
15.81	-0.408	-0.07390442121933181	
15.815	0.128	-0.11329799584811708	
15.82	-0.199	-0.15057675108876628	
15.825	-0.497	-0.1807072600633387	
15.83	-0.072	-0.19453707588289132	
15.835	0.033	-0.2061401322174	
15.84	-0.477	-0.21371135922783582	
15.845	-0.266	-0.2093594188780738	
15.85	0.197	-0.2022798385494674	
15.855	-0.338	-0.19652663523351	
15.86	-0.394	-0.18583498282797567	
15.865	0.181	-0.1722116006432132	
15.87	-0.084	-0.16169969968271006	
15.875	-0.359	-0.14676629937141242	
15.88	0.171	-0.11535784392263637	
15.885	0.347	-0.07615231512484832	
15.89	-0.324	-0.03591909168628163	
15.895	-0.089	-0.004256804460379587	
15.9	0.542	0.01786840160268994	
15.905	-0.216	0.03526683617616461	
15.91	-0.294	0.04111297588864831	
15.915	0.386	0.03600917988799103	
15.92	-0.034	0.023210171650404364	
15.925	-0.459	0.003055674593529833	
15.93	-0.040	-0.02819898933885065	
15.935	0.058	-0.07212030199164948	
15.94	-0.456	-0.11609558956594776	
15.945	-0.255	-0.14413136425435946	
15.95	0.195	-0.16299884517114369	
15.955	-0.306	-0.17593822302854634	
15.96	-0.321	-0.1718605907280995	
15.965	0.340	-0.14772700646491677	
15.97	-0.049	-0.11795554278504605	
15.975	-0.393	-0.09213518076105386	
15.98	0.068	-0.07189553460000764	
15.985	0.212	-0.06308427378807344	
15.99	-0.310	-0.057456510960686887	
15.995	0.070	-0.03495933435966157	
16.0	0.870	0.018320321032121393	
16.005	0.204	0.10674005286232707	
16.01	0.214	0.21300498424681424	
16.015	1.023	0.3206509892779742	
16.02	0.403	0.412919106830047	
16.025	-0.243	0.45149819444492745	
16.03	0.279	0.42334402188325454	
16.035	0.330	0.34806468582625016	
16.04	-0.364	0.25422117899187163	
16.045	-0.144	0.16107315446634884	
16.05	0.452	0.07955816414494861	
16.055	-0.225	0.022553817192098112	
16.06	-0.242	-0.007079698414367759	
16.065	0.518	-0.01009396627736701	
16.07	0.178	0.009895086855432887	
16.075	-0.210	0.044379363051226646	
16.08	0.452	0.09056760071712108	
16.085	0.605	0.14312112338278576	
16.09	-0.162	0.1929885669975522	
16.095	0.180	0.22813768672982776	
16.1	0.870	0.2557053915696836	
16.105	0.075	0.2873758764917661	
16.11	0.039	0.31184897705950415	
16.115	0.916	0.33505555388615915	
16.12	0.482	0.36785041244668315	
16.125	-0.066	0.39627186158758876	
16.13	0.695	0.41261939838915174	
16.135	0.748	0.42714517621090065	
16.14	-0.119	0.4319664233168754	
16.145	0.227	0.41312045421099386	
16.15	0.822	0.3846713047812587	
16.155	0.020	0.36044966735690337	
16.16	-0.019	0.33388544866082837	
16.165	0.806	0.3139115432664021	
16.17	0.342	0.3109120297459418	
16.175	-0.194	0.3084470503979235	
16.18	0.398	0.2934141190616972	
16.185	0.426	0.26604295419196416	
16.19	-0.312	0.228281645091643	
16.195	-0.121	0.17705118973945463	
16.2	0.379	0.11535632126924618	
16.205	-0.286	0.052719846002738414	
16.21	-0.342	7.328231323261143e-05	
16.215	0.270	-0.039479905936161505	
16.22	-0.155	-0.07405732675324754	
16.225	-0.466	-0.10417416219419892	
16.23	-0.077	-0.1268153554185698	
16.235	-0.014	-0.15717405532866702	
16.24	-0.511	-0.189364992374361	
16.245	-0.307	-0.2079155815797728	
16.25	0.012	-0.22695688695833774	
16.255	-0.413	-0.2531515884812182	
16.26	-0.401	-0.26172890405056903	
16.265	0.208	-0.24665738194859627	
16.27	-0.113	-0.22212203239570472	
16.275	-0.420	-0.19202413851370387	
16.28	0.079	-0.15682084127170653	
16.285	0.221	-0.1252667447017834	
16.29	-0.349	-0.09635319208065812	
16.295	-0.127	-0.06786409663013122	
16.3	0.408	-0.047965156005300734	
16.305	-0.231	-0.034214795724190665	
16.31	-0.258	-0.021731182722145956	
16.315	0.371	-0.011607265948758617	
16.32	-0.043	-0.008178135124589994	
16.325	-0.344	-0.01107748931725188	
16.33	0.137	-0.011723191603372783	
16.335	0.215	-0.016258749955505216	
16.34	-0.398	-0.02547893489589411	
16.345	-0.211	-0.03780198441111792	
16.35	0.215	-0.061860362944274536	
16.355	-0.336	-0.09335497367750582	
16.36	-0.368	-0.11675496308139222	
16.365	0.267	-0.12540149606172507	
16.37	0.279	-0.111235170585252	
16.375	-0.158	-0.055204773708663626	
16.38	0.406	0.02548589385279777	
16.385	0.394	0.09573610715411192	
16.39	-0.291	0.1362281825116403	
16.395	0.042	0.14836018970676842	
16.4	0.790	0.15736793969149487	
16.405	0.192	0.18936581506648875	
16.41	0.330	0.2532308574038665	
16.415	1.327	0.35693851451563785	
16.42	0.829	0.49257718962005437	
16.425	0.088	0.6074949854420428	
16.43	0.663	0.6556930051437909	
16.435	0.432	0.6297820069916125	
16.44	-0.327	0.5379851856489375	
16.445	-0.124	0.40244602415720565	
16.45	0.333	0.25350058806050635	
16.455	-0.306	0.11720614675492592	
16.46	-0.321	0.014220000617587197	
16.465	0.330	-0.04792391537358105	
16.47	-0.014	-0.08050122075396171	
16.475	-0.315	-0.08551869376834009	
16.48	0.316	-0.060073496490206796	
16.485	0.472	-0.014181655596733497	
16.49	-0.219	0.04083623290903906	
16.495	0.088	0.0915491425997979	
16.5	0.744	0.1346071732483824	
16.505	-0.071	0.17300977090168856	
16.51	-0.110	0.19715486321978054	
16.515	0.722	0.21122816635713113	
16.52	0.321	0.22942943332629157	
16.525	-0.135	0.25035660271267024	
16.53	0.631	0.27302043314911795	
16.535	0.747	0.305841486689332	
16.54	-0.093	0.3407517345672816	
16.545	0.369	0.36357531770995344	
16.55	1.002	0.3866390331138125	
16.555	0.208	0.418010056377896	
16.56	0.154	0.44317211564677617	
16.565	1.054	0.4651761329857299	
16.57	0.596	0.4954461344293935	
16.575	0.018	0.5214463826958364	
16.58	0.753	0.5288869658148114	
16.585	0.695	0.5227535623086117	
16.59	-0.156	0.4969622575858395	
16.595	0.145	0.4425169700057212	
16.6	0.678	0.3733828983055091	
16.605	-0.161	0.30624125568852656	
16.61	-0.242	0.2353332357965136	
16.615	0.424	0.16580428527287752	
16.62	-0.028	0.1025016972706162	
16.625	-0.355	0.049848263352368256	
16.63	0.113	0.012617389076391136	
16.635	0.133	-0.021468952489313416	
16.64	-0.451	-0.05558692396334465	
16.645	-0.203	-0.08248821121389033	
16.65	0.282	-0.10402987583745496	
16.655	-0.298	-0.11949185049618387	
16.66	-0.312	-0.11941091993797288	
16.665	0.269	-0.11058283600389841	
16.67	-0.127	-0.10552257834456016	
16.675	-0.434	-0.10481003031885967	
16.68	0.010	-0.10558068431239886	
16.685	0.143	-0.11167749498985609	
16.69	-0.391	-0.11628737184420852	
16.695	-0.083	-0.10645684302364974	
16.7	0.515	-0.08130071523281694	
16.705	-0.188	-0.04436106445267654	
16.71	-0.193	-0.007259857428514108	
16.715	0.570	0.029188288130022524	
16.72	0.056	0.06447850025991866	
16.725	-0.306	0.08440128959688303	
16.73	0.250	0.09025576633802972	
16.735	0.299	0.08620858854820987	
16.74	-0.410	0.07094671018914796	
16.745	-0.203	0.041458079696247534	
16.75	0.253	-0.00454938964823085	
16.755	-0.326	-0.05313185200228356	
16.76	-0.352	-0.08812631736027758	
16.765	0.250	-0.10810248021476304	
16.77	-0.081	-0.11845996838286485	
16.775	-0.365	-0.1173131419044936	
16.78	0.127	-0.10092524503096781	
16.785	0.211	-0.08293738173699464	
16.79	-0.390	-0.0687972709659761	
16.795	-0.173	-0.059537365674418634	
16.8	0.259	-0.06377468576336419	
16.805	-0.251	-0.07502388889226116	
16.81	-0.148	-0.07098887254373944	
16.815	0.913	-0.0222273004564203	
16.82	0.652	0.08957188805736235	
16.825	0.042	-0.059537365674418634	
16.83	0.712	0.347902240215584	
16.835	0.608	0.42494840114622373	
16.84	-0.286	0.4433849763503968	
16.845	-0.124	0.38937398518178895	
16.85	0.185	0.2769826077236817	
16.855	-0.423	0.13820169723462197	
16.86	-0.466	0.005145692311947419	
16.865	-0.046	-0.10960643398177952	
16.87	-0.306	-0.20842429055210362	
16.875	-0.566	-0.27679218258900873	
16.88	-0.150	-0.309239175307285	
16.885	-0.081	-0.3242552034229773	
16.89	-0.553	-0.32726892246463096	
16.895	-0.294	-0.31449896996217075	
16.9	0.189	-0.29229475739846955	
16.905	-0.352	-0.26372884477670433	
16.91	-0.339	-0.2266482048569768	
16.915	0.273	-0.1867883166887646	
16.92	-0.133	-0.15154709837708846	
16.925	-0.451	-0.12862953297079546	
16.93	-0.051	-0.12028363325453205	
16.935	-0.016	-0.13243342907479635	
16.94	-0.497	-0.15717002922787593	
16.945	-0.275	-0.17640055378679062	
16.95	0.078	-0.19644191297805802	
16.955	-0.426	-0.21876430980753606	
16.96	-0.416	-0.2315005216879651	
16.965	0.085	-0.23380176692783197	
16.97	-0.266	-0.23767206474105165	
16.975	-0.533	-0.24256536427277692	
16.98	-0.107	-0.2431523650750176	
16.985	-0.066	-0.24951763210384742	
16.99	-0.532	-0.25727420438507753	
16.995	-0.355	-0.2592607331901071	
17.0	-0.077	-0.2723924146623119	
17.005	-0.556	-0.300978732633573	
17.01	-0.585	-0.3284666460672372	
17.015	-0.147	-0.35156964620581954	
17.02	-0.388	-0.3798480238870268	
17.025	-0.694	-0.3997320178965563	
17.03	-0.326	-0.408826591208629	
17.035	-0.309	-0.42751963731120757	
17.04	-0.688	-0.4486679474650096	
17.045	-0.436	-0.45099827681434995	
17.05	-0.138	-0.4460593331941946	
17.055	-0.524	-0.44246371241456833	
17.06	-0.492	-0.42253012769453324	
17.065	0.058	-0.38595399722846635	
17.07	-0.217	-0.34814581997836513	
17.075	-0.457	-0.30524542865384346	
17.08	0.072	-0.25117996628239775	
17.085	0.142	-0.20033976047813595	
17.09	-0.394	-0.15749062708485476	
17.095	-0.107	-0.11672098974006821	
17.1	0.557	-0.07636578174018246	
17.105	-0.098	-0.02616923592499991	
17.11	-0.032	0.03317727000152196	
17.115	0.826	0.10394534021285919	
17.12	0.354	0.18460917495791443	
17.125	-0.087	0.2559801725244999	
17.13	0.692	0.3104942650690512	
17.135	0.744	0.3590026384683753	
17.14	-0.107	0.3946443810610474	
17.145	0.276	0.4024357915213189	
17.15	0.837	0.39333135198353275	
17.155	-0.045	0.37624679492264446	
17.16	-0.077	0.3448350815320768	
17.165	0.710	0.3076598718901721	
17.17	0.267	0.279507745991589	
17.175	-0.173	0.26241189392577013	
17.18	0.507	0.2529608053501077	
17.185	0.609	0.2532744929807197	
17.19	-0.170	0.260075389607238	
17.195	0.198	0.2635611929787727	
17.2	0.803	0.2668131267184947	
17.205	0.006	0.27385280859383027	
17.21	0.078	0.28364505888115354	
17.215	1.037	0.31017989258696266	
17.22	0.759	0.3724104764814441	
17.225	0.424	0.47102224403789594	
17.23	1.355	0.597317528438948	
17.235	1.408	0.7424354405328641	
17.24	0.409	0.3724104764814441	
17.245	0.676	0.3724104764814441	
17.25	1.052	0.9240912752478265	
17.255	0.059	0.8505678462989146	
17.26	-0.022	0.7274949740757479	
17.265	0.765	0.5874660423806555	
17.27	0.281	0.46435159220892397	
17.275	-0.152	0.37080680183692727	
17.28	0.612	0.3134969167941236	
17.285	0.739	0.29354198195874937	
17.29	-0.009	0.3074816449531035	
17.295	0.562	0.3447080301738591	
17.3	1.193	0.40728403832847965	
17.305	0.414	0.48847884095349514	
17.31	0.440	0.5684484894200561	
17.315	1.387	0.6455721726187607	
17.32	0.956	0.7283128250349069	
17.325	0.507	0.8087084865808966	
17.33	1.404	0.8845115660414263	
17.335	1.437	0.9605510255170948	
17.34	0.563	1.0254377357856823	
17.345	0.927	1.0576400564737538	
17.35	1.419	1.0562335484177294	
17.355	0.495	1.0285323014755616	
17.36	0.472	0.9744588255106569	
17.365	1.346	0.9154663626075912	
17.37	0.822	0.8723846383056354	
17.375	0.189	0.8358325695313413	
17.38	0.955	0.7923329564151375	
17.385	0.909	0.7464948518654546	
17.39	-0.068	0.6927031718777286	
17.395	0.302	0.6155554427063981	
17.4	0.782	0.5269974296890096	
17.405	-0.103	0.4378322130456239	
17.41	-0.164	0.34958931190884934	
17.415	0.504	0.2630529914407565	
17.42	-0.060	0.18047842903498768	
17.425	-0.411	0.10422280575767612	
17.43	0.024	0.03601024777915904	
17.435	0.029	-0.035710101461547496	
17.44	-0.454	-0.09982309672117655	
17.445	-0.194	-0.13545249725128233	
17.45	0.295	-0.15139665008051584	
17.455	-0.307	-0.1559178767813051	
17.46	-0.317	-0.14217322540932378	
17.465	0.310	-0.12028826431911162	
17.47	-0.124	-0.1065623437900508	
17.475	-0.425	-0.09748578646718126	
17.48	0.059	-0.09011174019094977	
17.485	0.143	-0.09289843830335115	
17.49	-0.382	-0.09665038764927719	
17.495	-0.124	-0.08839776596114216	
17.5	0.406	-0.07657783804485746	
17.505	-0.217	-0.06290699227648351	
