Time	Potential	EKG	Unnamed: 3
0.0	-0.219	-0.008778251087825817	
0.005	-0.344	-0.05007432498397433	
0.01	-0.474	-0.12369760193112331	
0.015	-0.478	-0.2164997145184241	
0.02	-0.509	-0.31416120923165547	
0.025	-0.596	-0.40145605642080795	
0.03	-0.562	-0.4719407942103258	
0.035	-0.540	-0.5250814222686513	
0.04	-0.628	-0.5606291875962695	
0.045	-0.630	-0.5849644756973134	
0.05	-0.515	-0.5983074931980816	
0.055	-0.520	-0.5980352299513552	
0.06	-0.524	-0.58311438559363	
0.065	-0.408	-0.5562300428181016	
0.07	-0.382	-0.5229017892902144	
0.075	-0.413	-0.4838945346074084	
0.08	-0.275	-0.44094408712433397	
0.085	-0.181	-0.3916641669799321	
0.09	-0.291	-0.3409049086990352	
0.095	-0.291	-0.29923776408637326	
0.1	-0.153	-0.26890346329710346	
0.105	-0.158	-0.24304213416764672	
0.11	-0.138	-0.21252235602757766	
0.115	0.130	-0.16897198103178737	
0.12	0.267	-0.10163512621722456	
0.125	0.090	-0.016280163790272206	
0.13	0.334	0.06902393849251616	
0.135	0.559	0.15770761941320055	
0.14	0.313	0.24991394748553977	
0.145	0.259	0.3195134865343091	
0.15	0.403	0.3533591124180273	
0.155	0.125	0.3549889533317474	
0.16	-0.074	0.3181809071899766	
0.165	0.036	0.24608470043711086	
0.17	-0.020	0.16052583638275525	
0.175	-0.258	0.07558307975129289	
0.18	-0.258	-0.013038497460981522	
0.185	-0.257	-0.10217329543520663	
0.19	-0.436	-0.1870870342474879	
0.195	-0.459	-0.264527783173623	
0.2	-0.349	-0.3295646332540086	
0.205	-0.411	-0.37795178138040975	
0.21	-0.462	-0.4068206707212404	
0.215	-0.335	-0.41889332759146597	
0.22	-0.352	-0.4184613123536502	
0.225	-0.423	-0.41143382109376636	
0.23	-0.295	-0.3960244316207573	
0.235	-0.246	-0.37415166351436735	
0.24	-0.367	-0.35211755560564373	
0.245	-0.333	-0.3335540053288879	
0.25	-0.188	-0.31653973004996827	
0.255	-0.251	-0.2989582603994339	
0.26	-0.283	-0.27987238453255836	
0.265	-0.127	-0.2578837187830365	
0.27	-0.112	-0.23242105571143418	
0.275	-0.177	-0.20347069624343364	
0.28	-0.136	-0.17505877185999424	
0.285	-0.106	-0.15511618664938304	
0.29	-0.220	-0.14712455403463648	
0.295	-0.199	-0.14759413843922464	
0.3	-0.081	-0.1505056658386721	
0.305	-0.173	-0.15293837603078664	
0.31	-0.202	-0.15492359707035025	
0.315	-0.034	-0.15086882966275866	
0.32	-0.031	-0.1383660505706626	
0.325	-0.126	-0.11851399706788285	
0.33	-0.022	-0.0970888356639101	
0.335	0.088	-0.07203883503485665	
0.34	-0.043	-0.04611139380638271	
0.345	0.020	-0.02066903201030664	
0.35	0.172	0.005521587196076237	
0.355	0.042	0.03212682801870286	
0.36	-0.061	0.04800228889534992	
0.365	0.096	0.05306989338611835	
0.37	0.087	0.05171938041230393	
0.375	-0.098	0.04749667216708535	
0.38	-0.014	0.03580053320008829	
0.385	0.122	0.021994549896154306	
0.39	-0.072	0.014997837490918091	
0.395	-0.127	0.004245330127776074	
0.4	-0.046	-0.016574662516527235	
0.405	-0.150	-0.04475088479658129	
0.41	-0.228	-0.07694237947777635	
0.415	-0.100	-0.10706687173193896	
0.42	-0.107	-0.12925203065522445	
0.425	-0.229	-0.14435266884521147	
0.43	-0.181	-0.1552947359026028	
0.435	-0.074	-0.16210615605630307	
0.44	-0.129	-0.16084050270026012	
0.445	-0.133	-0.14972541009949775	
0.45	-0.023	-0.13373326443963302	
0.455	-0.022	-0.11366941261197361	
0.46	-0.064	-0.08981808898291428	
0.465	0.004	-0.06322041480499604	
0.47	-0.009	-0.04430678182107049	
0.475	-0.074	-0.033199256799919453	
0.48	-0.045	-0.027342583942009252	
0.485	0.006	-0.026233275504779368	
0.49	-0.032	-0.02774166970923099	
0.495	-0.026	-0.024674149546620627	
0.5	0.096	-0.01584717364798492	
0.505	0.027	-0.003649916810604545	
0.51	-0.049	0.008262410280198201	
0.515	0.020	0.013705345082438442	
0.52	0.021	0.011661017841229696	
0.525	-0.054	0.0068946923076072825	
0.53	-0.016	0.002645188038588777	
0.535	0.058	-0.001306506293238913	
0.54	0.021	-0.0016841753376548563	
0.545	0.046	0.008373381715503146	
0.55	0.189	0.027080413752177054	
0.555	0.079	0.05134218860904405	
0.56	-0.011	0.0693296604671889	
0.565	0.030	0.0726652454851624	
0.57	0.041	0.06260465374683208	
0.575	-0.002	0.049965035491752366	
0.58	0.046	0.041673042116510337	
0.585	0.125	0.039614848874947456	
0.59	0.035	0.042332798143544674	
0.595	0.044	0.05043820960515846	
0.6	0.133	0.058011356896491055	
0.605	0.061	0.06530190800541252	
0.61	-0.016	0.06742733337939713	
0.615	0.067	0.06466706427835858	
0.62	0.072	0.05751787993809542	
0.625	-0.013	0.05001714815789543	
0.63	0.012	0.04372559438079769	
0.635	0.073	0.03652014125335036	
0.64	-0.016	0.029325119997012553	
0.645	-0.017	0.023535814931986573	
0.65	0.020	0.016960690051152374	
0.655	-0.048	0.006227981213408966	
0.66	-0.052	-0.006478322429759231	
0.665	0.072	-0.011293342437301011	
0.67	0.026	-0.00857357401556239	
0.675	-0.074	-0.00597040478347593	
0.68	-0.013	-0.005206005140534242	
0.685	0.056	-0.006527550694767556	
0.69	-0.013	-0.005706007584789184	
0.695	-0.020	-0.0004030107889830332	
0.7	0.039	0.002956807810932106	
0.705	-0.035	0.0011730104045438428	
0.71	-0.072	-0.0034495605033810386	
0.715	0.012	-0.010266974997363221	
0.72	-0.061	-0.018632593237204936	
0.725	-0.127	-0.031973540851548715	
0.73	-0.075	-0.04714145670530137	
0.735	-0.045	-0.0615552529552584	
0.74	-0.135	-0.07375693268987299	
0.745	-0.126	-0.08435062488241782	
0.75	-0.042	-0.09201774756317868	
0.755	-0.092	-0.0958769515920529	
0.76	-0.147	-0.09743467251366535	
0.765	-0.054	-0.09622631375577358	
0.77	-0.054	-0.09566623992748644	
0.775	-0.119	-0.09198256994347767	
0.78	-0.048	-0.08509344290320722	
0.785	-0.101	-0.08157830416454358	
0.79	-0.217	-0.08881398598844516	
0.795	-0.200	-0.10831890206623875	
0.8	-0.138	-0.13098680805418422	
0.805	-0.258	-0.15492793632794738	
0.81	-0.326	-0.18345035501328338	
0.815	-0.222	-0.21217699804846307	
0.82	-0.226	-0.23566461135305072	
0.825	-0.303	-0.2510180381878133	
0.83	-0.268	-0.25907900826333863	
0.835	-0.200	-0.2635430851953285	
0.84	-0.251	-0.2628161395468004	
0.845	-0.147	-0.250320391083269	
0.85	-0.071	-0.22495875046972502	
0.855	-0.210	-0.1979333262440997	
0.86	-0.313	-0.18449379235182253	
0.865	-0.213	-0.18817525263966475	
0.87	-0.181	-0.2006408546252497	
0.875	-0.243	-0.2090409034557322	
0.88	-0.205	-0.21108886765712223	
0.885	-0.200	-0.2135173481587448	
0.89	-0.320	-0.2208387051779389	
0.895	-0.269	-0.2323583663577036	
0.9	-0.165	-0.2409313070076048	
0.905	-0.170	-0.23990215867481082	
0.91	-0.263	-0.22949962288385564	
0.915	-0.181	-0.21916820428925682	
0.92	-0.170	-0.21364136509488058	
0.925	-0.196	-0.20605830734137626	
0.93	-0.084	-0.19006702901983044	
0.935	-0.057	-0.1675003575006927	
0.94	-0.165	-0.14587002519095774	
0.945	-0.113	-0.12835494723595786	
0.95	0.042	-0.11090267099024007	
0.955	-0.042	-0.08793387336066298	
0.96	-0.069	-0.0655223874412646	
0.965	0.041	-0.04512891066897696	
0.97	-0.055	-0.03164087281912709	
0.975	-0.141	-0.030112573402320618	
0.98	-0.009	-0.036072388909509555	
0.985	0.097	-0.03645059704767625	
0.99	0.049	-0.021854129602602412	
0.995	0.107	0.0056149919970222935	
1.0	0.224	0.04209870967165257	
1.005	0.114	0.08009737058546211	
1.01	0.001	0.10444509532568863	
1.015	0.125	0.11282161989163904	
1.02	0.177	0.11241538332437827	
1.025	0.029	0.11394090521284535	
1.03	-0.006	0.10684563855337234	
1.035	0.082	0.08849813218359986	
1.04	0.052	0.06923207549280778	
1.045	0.052	0.06062820589776754	
1.05	0.143	0.06000129822768178	
1.055	0.122	0.06713295172512619	
1.06	0.180	0.08456556987692032	
1.065	0.295	0.11677899289474053	
1.07	0.156	0.15132991725425815	
1.075	0.058	0.1689973410898825	
1.08	0.023	0.1638714938748421	
1.085	0.078	0.13842448129552606	
1.09	0.081	0.10924254249313735	
1.095	0.154	0.09569269587634607	
1.1	0.252	0.10198058336995218	
1.105	0.224	0.12410196758128922	
1.11	0.162	0.15158581575755184	
1.115	0.203	0.17576924884544476	
1.12	0.178	0.1862963625592751	
1.125	0.162	0.18902751225283454	
1.13	0.333	0.1979366914149466	
1.135	0.232	0.21341600372057848	
1.14	0.015	0.2161668305764037	
1.145	-0.028	0.1906611635368888	
1.15	0.076	0.14701210170478576	
1.155	-0.029	0.09810098028635754	
1.16	-0.060	0.05554845341614387	
1.165	0.067	0.023805424962639425	
1.17	0.044	0.00636681256049137	
1.175	0.001	0.001991194899160053	
1.18	0.156	0.012884212148684474	
1.185	0.178	0.037489731601614736	
1.19	-0.003	0.06321190177416192	
1.195	0.006	0.07457915086702802	
1.2	0.212	0.07901967343584282	
1.205	0.088	0.0862013223138729	
1.21	-0.008	0.09248240681290307	
1.215	0.079	0.08869365019105037	
1.22	-0.011	0.07445783791983691	
1.225	-0.167	0.04703078192396323	
1.23	-0.118	0.006718560708745965	
1.235	-0.066	-0.03649849603189573	
1.24	-0.165	-0.07260273719539262	
1.245	-0.122	-0.09949413186579258	
1.25	-0.011	-0.11110576303972092	
1.255	-0.029	-0.10863162132896535	
1.26	-0.068	-0.09246132396752882	
1.265	-0.003	-0.07249176111175668	
1.27	-0.032	-0.05647984959888584	
1.275	-0.129	-0.04880990158147938	
1.28	-0.098	-0.05043434608363245	
1.285	-0.029	-0.058572272647303567	
1.29	-0.097	-0.06641688059299031	
1.295	-0.112	-0.07154188991846669	
1.3	-0.075	-0.07728059238607331	
1.305	-0.103	-0.08551189594211092	
1.31	-0.106	-0.09137933389380087	
1.315	-0.025	-0.09065042352339699	
1.32	0.012	-0.08144557650380728	
1.325	-0.086	-0.06765531896595922	
1.33	-0.138	-0.059551553449180034	
1.335	-0.106	-0.06566702505302453	
1.34	-0.080	-0.0792652610375787	
1.345	-0.074	-0.08553172606157267	
1.35	0.000	-0.08140768227161681	
1.355	-0.051	-0.07243813589889353	
1.36	-0.112	-0.06531075699400428	
1.365	-0.058	-0.06177507774463822	
1.37	-0.066	-0.06445771555514831	
1.375	-0.126	-0.06954791044401261	
1.38	-0.115	-0.07659453968866262	
1.385	-0.097	-0.08671861056293095	
1.39	-0.181	-0.10119094425204249	
1.395	-0.188	-0.11754689246335445	
1.4	-0.130	-0.1344851498074125	
1.405	-0.170	-0.14837908379937803	
1.41	-0.184	-0.15826340976764014	
1.415	-0.136	-0.16284477654773655	
1.42	-0.155	-0.16444743619433316	
1.425	-0.199	-0.1664832722185389	
1.43	-0.138	-0.16564236057339565	
1.435	-0.055	-0.15973693634516783	
1.44	-0.103	-0.1451107987107857	
1.445	-0.112	-0.12756924000935824	
1.45	-0.023	-0.10955452928797502	
1.455	-0.043	-0.09231778509257385	
1.46	-0.060	-0.07523706352690754	
1.465	0.020	-0.05593029018437326	
1.47	0.065	-0.0364238174303254	
1.475	0.001	-0.014408262625169466	
1.48	0.044	0.006286939737915202	
1.485	0.099	0.024214983180943832	
1.49	-0.013	0.03696736197759672	
1.495	-0.081	0.037410835401053416	
1.5	-0.054	0.021353493911253893	
1.505	-0.112	-0.006264379266418514	
1.51	-0.177	-0.04018165255409405	
1.515	-0.127	-0.07401727994139212	
1.52	-0.115	-0.10342844618064288	
1.525	-0.168	-0.12530604285229002	
1.53	-0.155	-0.13775155493942592	
1.535	-0.127	-0.14685597435913128	
1.54	-0.145	-0.15194319517886695	
1.545	-0.168	-0.15254456414384215	
1.55	-0.109	-0.14972655637905524	
1.555	-0.097	-0.1452422719556527	
1.56	-0.122	-0.13610625896780765	
1.565	-0.101	-0.12507229563231703	
1.57	-0.138	-0.11848165872492722	
1.575	-0.181	-0.12125693406757179	
1.58	-0.107	-0.125746042656944	
1.585	-0.083	-0.12689768268212198	
1.59	-0.152	-0.12592514472483732	
1.595	-0.176	-0.12653318424447738	
1.6	-0.150	-0.13276035486017534	
1.605	-0.164	-0.14223690359741953	
1.61	-0.203	-0.15308909328914777	
1.615	-0.165	-0.16109172381945286	
1.62	-0.155	-0.16847043799647926	
1.625	-0.188	-0.17322832570796423	
1.63	-0.177	-0.17376674234333245	
1.635	-0.150	-0.17391403402874048	
1.64	-0.173	-0.17390411248571247	
1.645	-0.164	-0.17152615064270427	
1.65	-0.057	-0.1627605210536065	
1.655	-0.045	-0.14522361040734344	
1.66	-0.129	-0.12309335844175219	
1.665	-0.122	-0.10610917868920836	
1.67	-0.138	-0.10347965933707086	
1.675	-0.156	-0.11023270900233632	
1.68	-0.115	-0.11675596140474788	
1.685	-0.064	-0.11890386637202256	
1.69	-0.083	-0.11591887733141978	
1.695	-0.095	-0.10652330660101943	
1.7	-0.072	-0.09674524780869981	
1.705	-0.132	-0.09326393132247482	
1.71	-0.116	-0.09511414533149298	
1.715	-0.017	-0.09403567487240208	
1.72	0.001	-0.0844577167301275	
1.725	-0.048	-0.06830001899536044	
1.73	0.006	-0.049738850236591345	
1.735	0.038	-0.030849251947918363	
1.74	-0.028	-0.015980772982450247	
1.745	-0.054	-0.0075655120357537055	
1.75	0.036	-0.005671531663009188	
1.755	0.046	-0.002251239526886321	
1.76	-0.068	0.0018231873579455595	
1.765	-0.023	0.0009744365822604796	
1.77	-0.054	-0.008436796068767445	
1.775	-0.086	-0.023338570698554648	
1.78	0.001	-0.03473046048572581	
1.785	0.046	-0.03480264444332546	
1.79	-0.038	-0.028999058095554434	
1.795	-0.048	-0.022588370005390487	
1.8	0.023	-0.018637992323334775	
1.805	0.001	-0.016250311967692537	
1.81	-0.022	-0.012212416697289827	
1.815	0.087	-0.0029934669501103586	
1.82	0.099	0.012609355295262616	
1.825	0.012	0.029617323495032186	
1.83	0.049	0.04323162060131379	
1.835	0.186	0.055240551025500816	
1.84	0.131	0.0740147679476021	
1.845	0.114	0.09737554830134372	
1.85	0.160	0.11636505183382236	
1.855	0.093	0.1257638122132746	
1.86	0.000	0.12376301461994844	
1.865	0.044	0.10798314723143076	
1.87	0.042	0.08561312912835248	
1.875	-0.002	0.0626382705361187	
1.88	0.032	0.045242292576275725	
1.885	0.023	0.033218814799840596	
1.89	-0.040	0.020001332850555907	
1.895	-0.069	0.005395060356409761	
1.9	-0.029	-0.010627614023623035	
1.905	-0.054	-0.027244567209917088	
1.91	-0.068	-0.040219236910567294	
1.915	-0.026	-0.045988088294486425	
1.92	-0.055	-0.05039752224432804	
1.925	-0.109	-0.05639518269780594	
1.93	-0.071	-0.061743248602360884	
1.935	0.050	-0.06274669424661405	
1.94	-0.011	-0.053018859860109624	
1.945	-0.055	-0.03861802860881329	
1.95	0.017	-0.027598618581655205	
1.955	0.009	-0.019258715523266044	
1.96	0.003	-0.011244421418679809	
1.965	0.062	0.0010411959069984485	
1.97	0.033	0.013603978120154177	
1.975	-0.058	0.018567514485871336	
1.98	-0.032	0.014265539450177406	
1.985	0.027	0.005265706902938884	
1.99	-0.020	-0.0020470982565610947	
1.995	-0.068	-0.007615910511677472	
2.0	-0.051	-0.01757380330863855	
2.005	-0.048	-0.03127786720673358	
2.01	-0.086	-0.04325531275926539	
2.015	-0.022	-0.048927505575686286	
2.02	0.032	-0.049399001872402454	
2.025	-0.023	-0.04144317813488725	
2.03	-0.008	-0.02769054702768317	
2.035	0.050	-0.015742281739254658	
2.04	-0.028	-0.006108988902693024	
2.045	-0.003	0.00042620243894974627	
2.05	0.094	0.008479842336328746	
2.055	0.085	0.020654657642137145	
2.06	0.049	0.036733669865843546	
2.065	0.181	0.058149528211702765	
2.07	0.139	0.08155885065783106	
2.075	0.041	0.09948549145633306	
2.08	0.117	0.10736752646835716	
2.085	0.124	0.11028275423028924	
2.09	-0.054	0.10382318853602333	
2.095	-0.074	0.07941821721577272	
2.1	-0.054	0.04351308763649464	
2.105	-0.006	0.005644995324482424	
2.11	-0.005	-0.016268857265233073	
2.115	0.050	-0.020827779081625038	
2.12	0.052	-0.013439011543171151	
2.125	0.007	-0.0015169954345807643	
2.13	0.056	0.012381472356012179	
2.135	0.142	0.029287616437178997	
2.14	0.101	0.04982536478711296	
2.145	0.117	0.07344352593169982	
2.15	0.169	0.09652186509743214	
2.155	0.130	0.11460572952405987	
2.16	0.143	0.1287104610086861	
2.165	0.192	0.1421950373508523	
2.17	0.189	0.15455370392321194	
2.175	0.084	0.16044805367174042	
2.18	0.163	0.16039204177554456	
2.185	0.148	0.15631052695262315	
2.19	0.101	0.1487936559657245	
2.195	0.110	0.140425246414839	
2.2	0.250	0.138573323793582	
2.205	0.183	0.14562572913802224	
2.21	0.104	0.15565876642388832	
2.215	0.215	0.16219059835567676	
2.22	0.235	0.16960931667206508	
2.225	0.125	0.17744170761025177	
2.23	0.198	0.1823431551572537	
2.235	0.198	0.18533661616577696	
2.24	0.085	0.18083323901127196	
2.245	-0.023	0.16236206391286406	
2.25	-0.029	0.12551927636443672	
2.255	-0.055	0.07568427898143854	
2.26	-0.071	0.027684687532790724	
2.265	-0.029	-0.009861021966812081	
2.27	0.020	-0.0323665331667421	
2.275	-0.066	-0.04150124118191449	
2.28	-0.072	-0.04469867427167663	
2.285	-0.077	-0.05069637271667901	
2.29	-0.127	-0.06411394563615302	
2.295	-0.115	-0.07761700713975433	
2.3	-0.038	-0.08649958782531209	
2.305	-0.037	-0.0872946067633831	
2.31	-0.087	-0.08130593081618148	
2.315	-0.052	-0.07289786567827285	
2.32	-0.017	-0.06637827491675136	
2.325	-0.055	-0.0594858874961882	
2.33	0.038	-0.046695956436993584	
2.335	0.105	-0.02568697944764422	
2.34	-0.020	-0.003108662425024949	
2.345	-0.048	0.011356084739521863	
2.35	-0.025	0.011481054723876866	
2.355	-0.068	-0.0012886106214670713	
2.36	-0.095	-0.01831032543145962	
2.365	-0.009	-0.0338993757539886	
2.37	0.032	-0.04035595834209063	
2.375	-0.020	-0.0354788200383674	
2.38	0.023	-0.02371807996913729	
2.385	0.068	-0.009695653175950659	
2.39	0.021	0.004911938723904177	
2.395	0.027	0.019371599011330363	
2.4	0.114	0.0334742230501664	
2.405	0.056	0.0457124681656491	
2.41	-0.026	0.052699445932578706	
2.415	0.090	0.05307988700397724	
2.42	0.165	0.05662914166365298	
2.425	0.058	0.06855319452520303	
2.43	0.053	0.07927397944560777	
2.435	0.097	0.08224827918789004	
2.44	0.067	0.08094292458959639	
2.445	0.101	0.08142707028252884	
2.45	0.240	0.09241884586893291	
2.455	0.223	0.11470292165139706	
2.46	0.270	0.1487971679549692	
2.465	0.298	0.18905411890655918	
2.47	0.256	0.22452961992424966	
2.475	0.137	0.2425977891600751	
2.48	0.091	0.23831037655257992	
2.485	0.053	0.20916170481591628	
2.49	-0.014	0.1619393206220891	
2.495	-0.057	0.10949708677388527	
2.5	0.010	0.05937594668608132	
2.505	-0.009	0.018655239029230348	
2.51	-0.020	-0.005131411422200474	
2.515	0.067	-0.012919607373662871	
2.52	0.046	-0.008529902125739593	
2.525	-0.034	-0.00036768900140371485	
2.53	-0.006	0.004382881293679704	
2.535	0.030	0.005116075272937839	
2.54	-0.025	0.0039156893702171095	
2.545	-0.026	0.0015673293769526023	
2.55	0.041	0.00035211715194203745	
2.555	-0.008	-0.0004149485612499914	
2.56	-0.048	-0.0020875615698689107	
2.565	0.046	-0.002906447602861872	
2.57	0.024	-0.0005965008900058104	
2.575	-0.074	-0.0003393124202483279	
2.58	-0.052	-0.005576174063729431	
2.585	0.010	-0.014942943754442538	
2.59	-0.020	-0.022075527219311154	
2.595	-0.029	-0.0223659208544413	
2.6	0.027	-0.01969760358971984	
2.605	-0.006	-0.015451711397863058	
2.61	-0.058	-0.013011833245361423	
2.615	-0.020	-0.013922592142548493	
2.62	-0.003	-0.017676857528631785	
2.625	-0.058	-0.021272137546464676	
2.63	-0.055	-0.025520321064389017	
2.635	-0.104	-0.035045905921072255	
2.64	-0.187	-0.05709603626037837	
2.645	-0.193	-0.08627561443767225	
2.65	-0.144	-0.11673532064133679	
2.655	-0.156	-0.1415099992487447	
2.66	-0.174	-0.1569261075321755	
2.665	-0.119	-0.1618936635518985	
2.67	-0.129	-0.1607599295008707	
2.675	-0.164	-0.1572525534373096	
2.68	-0.107	-0.14945004201704568	
2.685	-0.084	-0.14008695633010043	
2.69	-0.139	-0.1311234648162816	
2.695	-0.104	-0.12221269223287914	
2.7	0.000	-0.10973656255179275	
2.705	-0.022	-0.0925678089047918	
2.71	0.010	-0.06690006393992809	
2.715	0.067	-0.037859207428849004	
2.72	-0.061	-0.013817643520104127	
2.725	-0.147	-0.010289187356756116	
2.73	-0.122	-0.026415743706523737	
2.735	-0.093	-0.05208608508091185	
2.74	-0.098	-0.07614684580112124	
2.745	-0.113	-0.09018867951120348	
2.75	-0.095	-0.09972311806224027	
2.755	-0.129	-0.10760479005836687	
2.76	-0.147	-0.11490557142779854	
2.765	-0.081	-0.1178225870290043	
2.77	-0.068	-0.11681453338599813	
2.775	-0.106	-0.11029214077297522	
2.78	-0.035	-0.09937528388988547	
2.785	-0.035	-0.08608454796922761	
2.79	-0.121	-0.07620224351290966	
2.795	-0.075	-0.07118376321907006	
2.8	-0.019	-0.06868088779813722	
2.805	-0.106	-0.10862095216797413	
2.81	-0.167	-0.07194163597121911	
2.815	-0.110	-0.08379788421128659	
2.82	-0.116	-0.09980465597871924	
2.825	-0.167	-0.11332072249095046	
2.83	-0.100	-0.1223718306705828	
2.835	-0.066	-0.12405556296859863	
2.84	-0.138	-0.12220405433684398	
2.845	-0.122	-0.11719968863188035	
2.85	-0.052	-0.1126714636851813	
2.855	-0.121	-0.10862095216797413	
2.86	-0.121	-0.10494789280240678	
2.865	-0.037	-0.09979147803484963	
2.87	-0.011	-0.09079061008860109	
2.875	-0.095	-0.0773314045831133	
2.88	-0.054	-0.06538786945166913	
2.885	0.003	-0.058055761610098545	
2.89	-0.087	-0.05119997623624734	
2.895	-0.106	-0.050202402701824855	
2.9	-0.045	-0.05468824443514405	
2.905	-0.081	-0.0626203089904322	
2.91	-0.100	-0.06791727343148841	
2.915	-0.023	-0.06980247823194548	
2.92	-0.032	-0.06882815012582358	
2.925	-0.093	-0.06429822372847907	
2.93	-0.032	-0.059357339599119215	
2.935	0.017	-0.053106369909078466	
2.94	-0.029	-0.044196920751368565	
2.945	-0.057	-0.034137588731527044	
2.95	0.015	-0.02772485897504221	
2.955	-0.049	-0.02567295799035429	
2.96	-0.042	-0.024851961655941023	
2.965	0.081	-0.01978507149412253	
2.97	0.076	-0.006900818287047088	
2.975	0.010	0.010733852628820355	
2.98	0.088	0.028696451680567503	
2.985	0.114	0.04582204719603159	
2.99	0.024	0.058785391978206966	
2.995	0.088	0.0679357215828794	
3.0	0.090	0.07424560213931597	
3.005	-0.052	0.07127420840594906	
3.01	-0.092	0.05218715249217357	
3.015	-0.068	0.021205429623172976	
3.02	-0.081	-0.01394582066079404	
3.025	-0.135	-0.04622488179519482	
3.03	-0.084	-0.07128347528347499	
3.035	-0.072	-0.08821532074516711	
3.04	-0.127	-0.09918772786843624	
3.045	-0.080	-0.10303492419836649	
3.05	-0.003	-0.09778520184615573	
3.055	-0.017	-0.08470221014745298	
3.06	-0.029	-0.06476350446850271	
3.065	-0.028	-0.045829979734735	
3.07	-0.052	-0.03697957443905592	
3.075	-0.090	-0.03619511743739002	
3.08	-0.028	-0.03928384212352176	
3.085	0.067	-0.03724431003126457	
3.09	0.044	-0.02516690931390463	
3.095	0.036	-0.0030129074900389443	
3.1	0.052	0.016172135646845096	
3.105	-0.038	0.025262713140091375	
3.11	-0.083	0.021266417557825122	
3.115	-0.029	0.006180246828565598	
3.12	-0.048	-0.013011179905267607	
3.125	-0.107	-0.031171486996995526	
3.13	-0.058	-0.04725057742410626	
3.135	-0.038	-0.05929320708819923	
3.14	-0.103	-0.06718539837484344	
3.145	-0.080	-0.0709569198760176	
3.15	-0.037	-0.07383962193053237	
3.155	-0.087	-0.07477072885957903	
3.16	-0.101	-0.07467341112556117	
3.165	-0.042	-0.07480542212882257	
3.17	-0.031	-0.07307784258884586	
3.175	-0.080	-0.06713850818217781	
3.18	-0.043	-0.060199333273290905	
3.185	-0.023	-0.05637308973323314	
3.19	-0.017	-0.05019979183795553	
3.195	0.047	-0.0358517899884842	
3.2	0.061	-0.015876882696837628	
3.205	-0.019	0.0011310910860100794	
3.21	-0.072	0.00840548128515651	
3.215	-0.055	0.0022326809714326747	
3.22	-0.077	-0.015203939337515857	
3.225	-0.092	-0.03511832300659632	
3.23	-0.029	-0.05007217825690396	
3.235	-0.016	-0.05644781843591351	
3.24	-0.072	-0.05727899250613617	
3.245	-0.037	-0.05373914343402318	
3.25	0.023	-0.04786986538876013	
3.255	-0.013	-0.03797664246933905	
3.26	-0.011	-0.026516393335222183	
3.265	0.033	-0.013684729602450471	
3.27	0.032	-0.003316847175039683	
3.275	0.085	0.010873918429431896	
3.28	0.082	0.03104828953728442	
3.285	-0.011	0.044471832419318694	
3.29	-0.150	0.03760108580140392	
3.295	-0.121	0.010368726483058806	
3.3	-0.086	-0.027826199668737017	
3.305	-0.132	-0.06311075884053169	
3.31	-0.167	-0.09147808245332877	
3.315	-0.121	-0.11356014650921362	
3.32	-0.138	-0.13141838974184814	
3.325	-0.152	-0.14118828416329182	
3.33	-0.058	-0.14080611014560535	
3.335	-0.020	-0.1295291713686128	
3.34	-0.058	-0.10849741169577293	
3.345	0.030	-0.08052115384602447	
3.35	0.172	-0.04376895059324703	
3.355	0.178	0.004753635434712488	
3.36	0.171	0.06255487879096275	
3.365	0.267	0.11654467892340867	
3.37	0.229	0.16245413238219109	
3.375	0.162	0.19575974906288748	
3.38	0.215	0.21432162898298063	
3.385	0.183	0.2173937952661264	
3.39	0.076	0.20838698306476006	
3.395	0.163	0.1906146059094958	
3.4	0.159	0.17224423630223318	
3.405	0.006	0.15158597460454193	
3.41	-0.002	0.12262411478780479	
3.415	0.090	0.09165957469653097	
3.42	0.046	0.0673420020291031	
3.425	-0.008	0.05075771359881667	
3.43	0.085	0.04145644965788643	
3.435	0.085	0.03834070065196343	
3.44	-0.025	0.039326667102813614	
3.445	-0.009	0.036709483617180905	
3.45	0.053	0.028222410000575536	
3.455	-0.049	0.018510342188112993	
3.46	0.003	0.010719622909485601	
3.465	0.165	0.01168564746480635	
3.47	0.482	0.04425358658096473	
3.475	1.375	0.16890569797545088	
3.48	2.271	0.45570059610047536	
3.485	2.983	0.9203283486537626	
3.49	3.077	1.5002676976017633	
3.495	3.069	2.0747493831441948	
3.5	3.064	2.5400888524242067	
3.505	3.067	2.863320677140946	
3.51	3.071	3.0627774362344984	
3.515	3.071	3.162696780999379	
3.52	3.074	3.1920311471598684	
3.525	3.078	3.1858375072282477	
3.53	3.057	3.163714303445098	
3.535	2.585	3.1100531101891304	
3.54	1.987	2.9801033425323684	
3.545	1.677	2.7489796336701047	
3.55	1.291	2.433168105804656	
3.555	0.773	2.0581883424096503	
3.56	0.496	1.6509103002991157	
3.565	0.310	1.241878726705334	
3.57	0.010	0.8609550517755394	
3.575	-0.133	0.5248371345123701	
3.58	-0.148	0.24686756652393405	
3.585	-0.190	0.033096877119914936	
3.59	-0.291	-0.11683861854827676	
3.595	-0.275	-0.2138619255241481	
3.6	-0.252	-0.2738103507017123	
3.605	-0.335	-0.3068535021288659	
3.61	-0.284	-0.3190003716755969	
3.615	-0.249	-0.31811240336522195	
3.62	-0.280	-0.3121795406588125	
3.625	-0.278	-0.30015538310330603	
3.63	-0.214	-0.285075035902142	
3.635	-0.260	-0.2720468816891073	
3.64	-0.330	-0.26592743570486727	
3.645	-0.280	-0.26575143402673557	
3.65	-0.297	-0.27184399484205435	
3.655	-0.453	-0.2890028001607039	
3.66	-0.495	-0.3199354969673307	
3.665	-0.489	-0.3640377371364595	
3.67	-0.572	-0.4163072243772936	
3.675	-0.672	-0.47016586317693293	
3.68	-0.671	-0.5269492366256112	
3.685	-0.740	-0.5871149680556965	
3.69	-0.834	-0.6470037256644436	
3.695	-0.804	-0.7016160108979854	
3.7	-0.781	-0.7498295380071485	
3.705	-0.863	-0.786122053035406	
3.71	-0.760	-0.8068267170009467	
3.715	-0.572	-0.8029234252295774	
3.72	-0.576	-0.7714357585132079	
3.725	-0.482	-0.7141595145823079	
3.73	-0.257	-0.6337859118314401	
3.735	-0.295	-0.5401925714249772	
3.74	-0.361	-0.4511223980771582	
3.745	-0.271	-0.3795082400573464	
3.75	-0.252	-0.32882411072302475	
3.755	-0.393	-0.30027123905105835	
3.76	-0.399	-0.29380123513520623	
3.765	-0.347	-0.3058646911048813	
3.77	-0.466	-0.3325541832720452	
3.775	-0.495	-0.36319069646850477	
3.78	-0.398	-0.3946874489472344	
3.785	-0.491	-0.4232391932666439	
3.79	-0.578	-0.4501802356171687	
3.795	-0.495	-0.47439432099111306	
3.8	-0.486	-0.49579862112456785	
3.805	-0.590	-0.5123625225417201	
3.81	-0.524	-0.5237284285557455	
3.815	-0.434	-0.5277766226757573	
3.82	-0.483	-0.5226476086863707	
3.825	-0.511	-0.5102000291585131	
3.83	-0.391	-0.49358431567514655	
3.835	-0.448	-0.47930118516676035	
3.84	-0.480	-0.46625257641464707	
3.845	-0.330	-0.44928504224042765	
3.85	-0.321	-0.427786646656787	
3.855	-0.448	-0.406486611649548	
3.86	-0.399	-0.3916861094311967	
3.865	-0.342	-0.3847004625641314	
3.87	-0.445	-0.38575959373577007	
3.875	-0.416	-0.3882288218412324	
3.88	-0.262	-0.386452612876236	
3.885	-0.309	-0.37533006817169623	
3.89	-0.373	-0.35935385434207057	
3.895	-0.255	-0.34120322158540284	
3.9	-0.207	-0.321743157952018	
3.905	-0.287	-0.29958641801608066	
3.91	-0.220	-0.27565548051965216	
3.915	-0.159	-0.25361110580739876	
3.92	-0.281	-0.2378414940489518	
3.925	-0.292	-0.23127683255894013	
3.93	-0.194	-0.23036268635209767	
3.935	-0.284	-0.2363582856081393	
3.94	-0.401	-0.2504466014416954	
3.945	-0.291	-0.26913282652714127	
3.95	-0.260	-0.2886926172177709	
3.955	-0.375	-0.3026818713449299	
3.96	-0.326	-0.31164541421945047	
3.965	-0.281	-0.3175148690437618	
3.97	-0.379	-0.3259002193397488	
3.975	-0.361	-0.3313261088803756	
3.98	-0.170	-0.32824919965855426	
3.985	-0.193	-0.312345374926725	
3.99	-0.268	-0.2855415275590536	
3.995	-0.164	-0.2550720770412801	
4.0	-0.084	-0.22763809753884873	
4.005	-0.135	-0.1967877767479948	
4.01	-0.103	-0.16163163744466097	
4.015	-0.084	-0.13342123940838205	
4.02	-0.240	-0.12400900352628186	
4.025	-0.251	-0.13138737233622533	
4.03	-0.115	-0.14611460952933497	
4.035	-0.173	-0.16238998784671718	
4.04	-0.275	-0.1746733336626794	
4.045	-0.246	-0.1879404218678184	
4.05	-0.266	-0.2095876044395145	
4.055	-0.381	-0.23898242778827836	
4.06	-0.358	-0.2685740135381701	
4.065	-0.272	-0.29623403432257817	
4.07	-0.364	-0.3181502253434384	
4.075	-0.368	-0.33145297228835363	
4.08	-0.223	-0.3338937583615508	
4.085	-0.266	-0.32844898685057733	
4.09	-0.329	-0.31586443145507415	
4.095	-0.187	-0.29674810877457225	
4.1	-0.147	-0.27448871850622525	
4.105	-0.234	-0.25022772027389034	
4.11	-0.112	-0.2205167584761432	
4.115	0.133	-0.179004540543155	
4.12	-0.014	-0.12533455656532883	
4.125	0.030	-0.06657831855666803	
4.13	0.429	0.0003560407822237829	
4.135	0.455	0.09054556163308095	
4.14	0.285	0.19191826271715315	
4.145	0.431	0.27935300854276474	
4.15	0.516	0.344599391519656	
4.155	0.417	0.3956102808310539	
4.16	0.515	0.4394964176822849	
4.165	0.666	0.4780972727906568	
4.17	0.398	0.5065521456871267	
4.175	0.330	0.5123766186203104	
4.18	0.541	0.49943920838587696	
4.185	0.363	0.47647487389435716	
4.19	0.082	0.43885867298903497	
4.195	0.223	0.3804466307433485	
4.2	0.177	0.3106013771744609	
4.205	-0.080	0.23755453429335716	
4.21	-0.011	0.16454394933123573	
4.215	0.156	0.10111495463921615	
4.22	0.003	0.058551056296480775	
4.225	-0.025	0.03645133884417851	
4.23	0.044	0.02342329324083063	
4.235	-0.203	0.00039779693565103426	
4.24	-0.356	-0.045079571647088534	
4.245	-0.251	-0.10651175298428948	
4.25	-0.217	-0.1704753247772806	
4.255	-0.317	-0.22040966084974664	
4.26	-0.222	-0.2483663065807582	
4.265	-0.118	-0.2559570613636578	
4.27	-0.199	-0.24850402791135293	
4.275	-0.202	-0.22946538455802856	
4.28	-0.126	-0.20657760514449852	
4.285	-0.207	-0.19367842628219584	
4.29	-0.275	-0.1900231620079223	
4.295	-0.170	-0.18944326691344865	
4.3	-0.152	-0.19256189721654676	
4.305	-0.274	-0.1974644886069217	
4.31	-0.220	-0.2002854229648275	
4.315	-0.127	-0.2029628059220227	
4.32	-0.243	-0.20560966635374045	
4.325	-0.243	-0.20542454628083934	
4.33	-0.101	-0.20148244842130617	
4.335	-0.162	-0.19675518792277397	
4.34	-0.219	-0.1880655477155422	
4.345	-0.068	-0.17332074710995618	
4.35	-0.029	-0.1555749588381374	
4.355	-0.148	-0.1345838108784505	
4.36	-0.066	-0.11220000722575615	
4.365	0.087	-0.08788516732075358	
4.37	-0.139	-0.0687508345236704	
4.375	-0.152	-0.05844128265444506	
4.38	0.024	-0.0573478691918763	
4.385	-0.054	-0.05982625675449892	
4.39	-0.138	-0.061160611266600926	
4.395	0.052	-0.05619319754449631	
4.4	0.018	-0.0485555369123683	
4.405	-0.179	-0.043729454212446575	
4.41	-0.109	-0.04815164042918826	
4.415	0.009	-0.05878463191416547	
4.42	-0.124	-0.06985161135669937	
4.425	-0.106	-0.07445389437463448	
4.43	0.134	-0.06821016726999074	
4.435	0.105	-0.045868239889600024	
4.44	0.081	-0.00824772718065425	
4.445	0.397	0.049918301252229055	
4.45	0.411	0.12448399551142493	
4.455	0.156	0.1971478433657844	
4.46	0.250	0.24785796723459994	
4.465	0.460	0.2792983070040841	
4.47	0.178	0.29808471054044905	
4.475	0.082	0.297475510933829	
4.48	0.235	0.27382002512541137	
4.485	0.120	0.23613612795929434	
4.49	-0.005	0.19471413439801005	
4.495	0.168	0.1589062518103221	
4.5	0.094	0.12749401333227034	
4.505	-0.142	0.09416846753671834	
4.51	-0.087	0.053864556484113424	
4.515	-0.026	0.008284091075401236	
4.52	-0.182	-0.03689359920075718	
4.525	-0.171	-0.07447994444862224	
4.53	-0.064	-0.10217699027249612	
4.535	-0.153	-0.12387477252074797	
4.54	-0.203	-0.1392742528810254	
4.545	-0.045	-0.14208387856766005	
4.55	-0.016	-0.13550673820242215	
4.555	-0.150	-0.12183191902872507	
4.56	-0.095	-0.10512437278594859	
4.565	0.023	-0.09170697774012534	
4.57	-0.116	-0.0829209406187008	
4.575	-0.109	-0.07349556758998788	
4.58	0.023	-0.06614518252414325	
4.585	-0.095	-0.06389346901495932	
4.59	-0.158	-0.06632483728254804	
4.595	0.082	-0.06303995131761976	
4.6	0.168	-0.04646981457397275	
4.605	-0.031	-0.01589323501249358	
4.61	0.029	0.014874444539491462	
4.615	0.136	0.035345259775229274	
4.62	-0.064	0.04203048741443708	
4.625	-0.097	0.03846706591915622	
4.63	0.072	0.024914952692177646	
4.635	-0.005	0.009105427881675968	
4.64	-0.101	-0.002365247712364032	
4.645	0.124	-0.005000631696462034	
4.65	0.175	0.005534025421210363	
4.655	-0.072	0.02405632223014354	
4.66	-0.003	0.03690165958348238	
4.665	0.120	0.03836910437159798	
4.67	-0.035	0.033994613852150746	
4.675	-0.011	0.03149801329877805	
4.68	0.233	0.03695497842304759	
4.685	0.160	0.05506487713166226	
4.69	0.079	0.0826393897697846	
4.695	0.308	0.11603167465583751	
4.7	0.261	0.15148127094803873	
4.705	0.125	0.18104076019138143	
4.71	0.174	0.1999586946150291	
4.715	0.168	0.20233996837937318	
4.72	-0.032	0.1809339468139739	
4.725	-0.048	0.14453025832265476	
4.73	0.217	0.10797955105546192	
4.735	0.157	0.08803305712459	
4.74	0.001	0.08664979059506935	
4.745	0.154	0.09105383824653326	
4.75	0.137	0.09344876956691939	
4.755	-0.029	0.09104011595670664	
4.76	0.088	0.08800713477894664	
4.765	0.224	0.0873391646904182	
4.77	0.035	0.08992679102207377	
4.775	0.036	0.09457071244876802	
4.78	0.215	0.09795844284839993	
4.785	0.169	0.10497427314935664	
4.79	0.015	0.09104011595670664	
4.795	0.191	0.09104011595670664	
4.8	0.137	0.09104011595670664	
4.805	-0.058	0.09104011595670664	
4.81	0.056	0.10206113972709191	
4.815	0.233	0.08929586776052229	
4.82	0.064	0.0869113892179269	
4.825	-0.005	0.08963877123459338	
4.83	0.174	0.08992241663737746	
4.835	0.073	0.08591187279714936	
4.84	0.012	0.08276307378634812	
4.845	0.218	0.08811165126341053	
4.85	0.208	0.10031101946160675	
4.855	0.027	0.1140803057026893	
4.86	0.165	0.12612107828185726	
4.865	0.314	0.14021885698027908	
4.87	0.122	0.15588880136966687	
4.875	0.081	0.1687147385327507	
4.88	0.264	0.1738880129127407	
4.885	0.099	0.16985538057783925	
4.89	-0.035	0.15581795960364014	
4.895	0.116	0.13410263972499215	
4.9	0.101	0.10824211273959097	
4.905	-0.071	0.08213610660068707	
4.91	0.068	0.06316680091199642	
4.915	0.102	0.04914217953719305	
4.92	-0.068	0.0358882708231486	
4.925	-0.090	0.021788962910342935	
4.93	0.052	0.0058554887567497695	
4.935	-0.038	-0.01118241630560154	
4.94	-0.145	-0.025114368365847427	
4.945	-0.016	-0.03688138033051607	
4.95	-0.014	-0.048823277152191195	
4.955	-0.126	-0.057846292774915625	
4.96	-0.020	-0.05777451721446049	
4.965	0.056	-0.051899592285707064	
4.97	-0.084	-0.0461534991801245	
4.975	-0.032	-0.03714691682542695	
4.98	0.243	-0.017111397213901335	
4.985	0.097	0.013758576045255893	
4.99	-0.063	0.04487566785162207	
4.995	0.076	0.0601548026323846	
5.0	0.076	0.06014224245412117	
5.005	-0.081	0.05112204668341907	
5.01	0.076	0.04426665653439485	
5.015	0.163	0.04310579136657947	
5.02	-0.017	0.04581227475172024	
5.025	-0.005	0.0488682433550065	
5.03	0.163	0.050889843744989324	
5.035	-0.014	0.05071828436763229	
5.04	-0.061	0.044894529763129895	
5.045	0.127	0.039202020042142134	
5.05	0.131	0.04013487436923229	
5.055	-0.013	0.046108597759891526	
5.06	0.145	0.059277967920088895	
5.065	0.282	0.08011149133916912	
5.07	0.075	0.10581212406433772	
5.075	0.079	0.12585230425276012	
5.08	0.263	0.1398757433318149	
5.085	0.104	0.14674749226835143	
5.09	-0.005	0.1448941163292845	
5.095	0.177	0.13614842366960822	
5.1	0.163	0.1261554223061322	
5.105	-0.013	0.1161546941327946	
5.11	0.105	0.1082158900377063	
5.115	0.224	0.1030867008838495	
5.12	0.024	0.10189753346975967	
5.125	0.009	0.09983452026115117	
5.13	0.189	0.09479854889715864	
5.135	0.201	0.09582828240282378	
5.14	0.033	0.10696241113323501	
5.145	0.127	0.11804176777041103	
5.15	0.114	0.11512142017031526	
5.155	-0.037	0.1042592949437313	
5.16	0.101	0.09219964243210965	
5.165	0.214	0.08699603571495687	
5.17	0.009	0.08595800773673118	
5.175	0.018	0.08589748387425289	
5.18	0.149	0.0827087160849958	
5.185	0.050	0.07579711397024017	
5.19	-0.003	0.0710492844430973	
5.195	0.171	0.07103608276968984	
5.2	0.189	0.07807228325255536	
5.205	-0.008	0.08831467664279166	
5.21	0.097	0.09621005585875167	
5.215	0.221	0.10091648707935154	
5.22	0.041	0.10498649337318489	
5.225	0.052	0.1079620505992292	
5.23	0.255	0.11164392147667576	
5.235	0.137	0.11878036351200161	
5.24	0.030	0.12613207284742414	
5.245	0.229	0.1329872469132911	
5.25	0.259	0.1420038633762442	
5.255	0.059	0.15341436858601537	
5.26	0.133	0.161219705249171	
5.265	0.148	0.1557872927604863	
5.27	-0.043	0.13703477797909486	
5.275	-0.028	0.10805448725124696	
5.28	0.108	0.07753190716513667	
5.285	-0.058	0.04775201117530771	
5.29	-0.135	0.01826388819426523	
5.295	-0.042	-0.010063020823673665	
5.3	-0.045	-0.03910040859341606	
5.305	-0.144	-0.06147140442235944	
5.31	-0.052	-0.07272265052028346	
5.315	0.082	-0.07331998908859502	
5.32	-0.075	-0.06392208107414929	
5.325	-0.090	-0.05084539249910984	
5.33	0.024	-0.04257237109018114	
5.335	-0.057	-0.04130397914677525	
5.34	-0.071	-0.03960379842364793	
5.345	0.064	-0.032067184821594125	
5.35	0.006	-0.02422656670562368	
5.355	-0.090	-0.019416059173609262	
5.36	0.130	-0.008640965179588473	
5.365	0.178	0.012587358636905206	
5.37	-0.077	0.03404048228541204	
5.375	-0.081	0.04022705483965577	
5.38	0.058	0.030401951306052222	
5.385	-0.028	0.013653350762061736	
5.39	-0.115	-0.0005508277372744486	
5.395	0.004	-0.014072566651712939	
5.4	-0.029	-0.028276736063026664	
5.405	-0.119	-0.041366978247945926	
5.41	-0.029	-0.047620376589461125	
5.415	0.026	-0.049487781260251766	
5.42	-0.118	-0.05193809940309638	
5.425	-0.086	-0.0526857973402833	
5.43	0.067	-0.050633198539508095	
5.435	-0.057	-0.04639921057913805	
5.44	-0.122	-0.04349853819047597	
5.445	0.006	-0.04105549423016813	
5.45	-0.060	-0.045334317611761425	
5.455	-0.200	-0.0563693693680176	
5.46	-0.127	-0.07158604778601689	
5.465	-0.034	-0.055375261186249025	
5.47	-0.104	-0.055375261186249025	
5.475	-0.060	-0.09763719301060474	
5.48	0.041	-0.08362390125457292	
5.485	-0.087	-0.07046299586703424	
5.49	-0.133	-0.06248969168608325	
5.495	0.004	-0.05698718861014541	
5.5	-0.023	-0.055375261186249025	
5.505	-0.138	-0.055419970981424156	
5.51	-0.016	-0.05350031256704378	
5.515	0.094	-0.04748620433802608	
5.52	-0.049	-0.035060489373129416	
5.525	-0.040	-0.020619849530022976	
5.53	0.140	-0.0055398083650103945	
5.535	-0.023	0.005467836663146123	
5.54	-0.084	0.012467093572465154	
5.545	0.056	0.012104012461126724	
5.55	0.027	0.008608598528070473	
5.555	-0.086	0.002501048589395768	
5.56	0.059	0.0025692629873775817	
5.565	0.178	0.010555824959600125	
5.57	0.006	0.025848193796920917	
5.575	0.055	0.04439265683900175	
5.58	0.223	0.06454500316049372	
5.585	0.082	0.0824089553229908	
5.59	0.003	0.09541735846307489	
5.595	0.220	0.10419158057712316	
5.6	0.166	0.11261488462602857	
5.605	-0.006	0.11841362261611718	
5.61	0.134	0.11859492444343524	
5.615	0.275	0.12060769528244215	
5.62	0.149	0.13180291556335255	
5.625	0.130	0.15038255358099267	
5.63	0.339	0.16958460837078365	
5.635	0.117	0.18338722497224708	
5.64	0.004	0.18439268546972637	
5.645	0.208	0.1722073830221013	
5.65	0.159	0.1556118334716164	
5.655	-0.045	0.1384171176356067	
5.66	0.035	0.1156030018417368	
5.665	0.064	0.08657140223937054	
5.67	-0.122	0.0517966261205951	
5.675	-0.136	0.015416988789711244	
5.68	-0.029	-0.022440762392066188	
5.685	-0.136	-0.058625413318522474	
5.69	-0.188	-0.08653482863936285	
5.695	-0.084	-0.10678598747545884	
5.7	-0.107	-0.122457155855523	
5.705	-0.194	-0.13354689249740292	
5.71	-0.057	-0.1333219983599589	
5.715	0.026	-0.12247318565888853	
5.72	-0.170	-0.10924439155507695	
5.725	-0.147	-0.09852301203570613	
5.73	0.013	-0.09343497283848293	
5.735	-0.115	-0.09069326555238182	
5.74	-0.156	-0.0885186703696422	
5.745	0.039	-0.08373791865992825	
5.75	-0.017	-0.07449580917498513	
5.755	-0.162	-0.0665767883333678	
5.76	-0.057	-0.06229509537336542	
5.765	-0.017	-0.06348678203315575	
5.77	-0.176	-0.07027049656311396	
5.775	-0.148	-0.07949329329948837	
5.78	-0.005	-0.08942249529337096	
5.785	-0.103	-0.09571790843051711	
5.79	-0.133	-0.09550489473337649	
5.795	0.030	-0.08771660027998929	
5.8	0.021	-0.0755202401535979	
5.805	-0.068	-0.05757797067557821	
5.81	0.056	-0.03425274804166041	
5.815	0.111	-0.010496800533083314	
5.82	-0.097	0.005685522897523231	
5.825	-0.074	0.01052689681435215	
5.83	0.099	0.006599842387914245	
5.835	-0.043	0.0012410513363174875	
5.84	-0.089	-0.004513135577931208	
5.845	0.122	-0.004677058360477801	
5.85	0.087	0.0014700438452855049	
5.855	-0.077	0.012391917166567047	
5.86	0.056	0.02176009062161415	
5.865	0.148	0.028513855932274002	
5.87	-0.072	0.03468274283595303	
5.875	-0.051	0.03353396286198075	
5.88	0.127	0.02759049303709237	
5.885	0.020	0.023243369573827603	
5.89	0.027	0.026518138296534564	
5.895	0.149	0.040306942670804646	
5.9	0.010	0.04942861154995985	
5.905	-0.133	0.04440475703216319	
5.91	-0.016	0.02777326867002698	
5.915	0.094	0.009496607562913076	
5.92	-0.095	-0.00330379419453919	
5.925	-0.048	-0.01044497666840704	
5.93	0.157	-0.011417019120296933	
5.935	0.007	-0.0037554808580258945	
5.94	-0.071	0.007515881633922079	
5.945	0.085	0.014279408467186996	
5.95	-0.002	0.015439553691978691	
5.955	-0.141	0.007446702783345575	
5.96	-0.022	-0.005252599756799028	
5.965	0.012	-0.020539690594469057	
5.97	-0.202	-0.038262960032882924	
5.975	-0.165	-0.06144650157664815	
5.98	-0.009	-0.08347639560052464	
5.985	-0.104	-0.09871533908134175	
5.99	-0.223	-0.10743697433582822	
5.995	-0.087	-0.11478983591191207	
6.0	-0.078	-0.12455976661641806	
6.005	-0.174	-0.1284606812458562	
6.01	-0.054	-0.12228283101526663	
6.015	0.044	-0.10860051940212587	
6.02	-0.095	-0.09119029682310353	
6.025	-0.031	-0.06841383915831109	
6.03	0.212	-0.039552087065840874	
6.035	-0.055	-0.008712888321383484	
6.04	-0.145	-0.10412047538235239	
6.045	-0.031	-0.10412047538235239	
6.05	-0.064	-0.0185819979449321	
6.055	-0.171	-0.04239284320161785	
6.06	-0.104	-0.06431427095558302	
6.065	-0.068	-0.08466456087220464	
6.07	-0.179	-0.10412047538235239	
6.075	-0.136	-0.11538524149599903	
6.08	-0.052	-0.12064044186111318	
6.085	-0.126	-0.12369119250198407	
6.09	-0.179	-0.12330157722205956	
6.095	-0.068	-0.12088315548998932	
6.1	-0.095	-0.12063421974398872	
6.105	-0.194	-0.12134347640615802	
6.11	-0.097	-0.12029186267995579	
6.115	-0.008	-0.11671127102395887	
6.12	-0.084	-0.10811908192510981	
6.125	-0.060	-0.09034270773065958	
6.13	0.041	-0.06965804218042748	
6.135	-0.063	-0.054738779625454086	
6.14	-0.109	-0.04528239902698894	
6.145	0.017	-0.038844730671885694	
6.15	-0.014	-0.03767279678806871	
6.155	-0.095	-0.03737445479909973	
6.16	0.041	-0.031227209353675872	
6.165	0.154	-0.017695184462677507	
6.17	-0.072	-0.00020350984345850838	
6.175	-0.023	0.01266347578574782	
6.18	0.169	0.021415631004624246	
6.185	-0.006	0.029220947333624524	
6.19	-0.051	0.03467433286475477	
6.195	0.128	0.03721844384357409	
6.2	0.064	0.03933635355379175	
6.205	-0.060	0.03956617587208998	
6.21	0.076	0.03978654943367122	
6.215	0.163	0.04233717413762839	
6.22	0.010	0.04977309855300339	
6.225	0.073	0.06066248937175747	
6.23	0.250	0.0764445783126455	
6.235	0.052	0.09221076043022211	
6.24	-0.016	0.1006484037184966	
6.245	0.218	0.10222715327826941	
6.25	0.165	0.10636122310649943	
6.255	-0.011	0.11056084483979299	
6.26	0.133	0.1117529066997907	
6.265	0.159	0.1093421552378793	
6.27	-0.069	0.09980225171859215	
6.275	-0.045	0.0806189796913103	
6.28	0.090	0.055407883191188	
6.285	-0.020	0.03228631462226282	
6.29	-0.057	0.015674087800522152	
6.295	0.130	0.010151444146089383	
6.3	0.185	0.018397123839861237	
6.305	0.111	0.04464709494238993	
6.31	0.243	0.08569276865902535	
6.315	0.347	0.13230431545415794	
6.32	0.178	0.17689049271699328	
6.325	0.256	0.21461000398464142	
6.33	0.455	0.24932921646382517	
6.335	0.336	0.2833396584865295	
6.34	0.233	0.31170384398046774	
6.345	0.403	0.3290452012859967	
6.35	0.379	0.3383931251010814	
6.355	0.230	0.34172643598786034	
6.36	0.318	0.33961686721762374	
6.365	0.343	0.33024396546471163	
6.37	0.177	0.3140016995550046	
6.375	0.247	0.2966141870130299	
6.38	0.453	0.2872270346275003	
6.385	0.296	0.29041939202803396	
6.39	0.136	0.2947761421304542	
6.395	0.272	0.28591243971766156	
6.4	0.235	0.26638839305331485	
6.405	0.091	0.24387496931546968	
6.41	0.177	0.22154524418335808	
6.415	0.229	0.19913850453427917	
6.42	0.053	0.17815173288298203	
6.425	0.067	0.15764501328494795	
6.43	0.130	0.13603594390829143	
6.435	-0.023	0.10746650307031212	
6.44	-0.063	0.07693427064216254	
6.445	0.050	0.047799101817252644	
6.45	-0.017	0.02132362731359875	
6.455	-0.133	-0.0039727141500730916	
6.46	-0.071	-0.02548184718384087	
6.465	-0.005	-0.04598512470229664	
6.47	-0.089	-0.059743473356033056	
6.475	-0.080	-0.06328766712671272	
6.48	0.010	-0.0630877049057486	
6.485	-0.097	-0.06352147987234935	
6.49	-0.148	-0.06595681666792658	
6.495	-0.066	-0.07127668401936886	
6.5	-0.106	-0.08275052750469383	
6.505	-0.168	-0.09587160384799025	
6.51	-0.052	-0.10245700112656934	
6.515	0.017	-0.09907774590138282	
6.52	-0.130	-0.09072032897115881	
6.525	-0.121	-0.08323306526039123	
6.53	-0.072	-0.08215435136586322	
6.535	-0.181	-0.09254685095022021	
6.54	-0.205	-0.10889267881643205	
6.545	-0.064	-0.12228049068298572	
6.55	-0.055	-0.12878007142581288	
6.555	-0.133	-0.12383546526433838	
6.56	-0.029	-0.109449121704084	
6.565	0.055	-0.09011953118868887	
6.57	-0.043	-0.06671050978254515	
6.575	0.049	-0.03819237859798478	
6.58	0.261	-0.0001576111441499615	
6.585	0.102	0.0434441002044915	
6.59	0.017	0.08111556497125136	
6.595	0.185	0.1036932606444832	
6.6	0.145	0.1161947943959476	
6.605	0.023	0.12218791798755282	
6.61	0.152	0.12353992220483023	
6.615	0.209	0.12484515429123558	
6.62	0.026	0.12532686232208048	
6.625	0.073	0.1218120987728749	
6.63	0.211	0.11776969510851995	
6.635	0.096	0.1154798101410272	
6.64	0.061	0.11619304117798197	
6.645	0.211	0.11862829761848843	
6.65	0.203	0.12617613940120603	
6.655	0.065	0.13628981113995087	
6.66	0.165	0.14349586962901673	
6.665	0.139	0.14475147744694472	
6.67	-0.040	0.13241773644312427	
6.675	-0.028	0.10783627119506593	
6.68	0.056	0.0756473029611266	
6.685	-0.034	0.042530086656930206	
6.69	-0.058	0.017294207574796196	
6.695	0.033	0.000524253067877469	
6.7	-0.016	-0.012859548998711685	
6.705	-0.066	-0.02058726782416447	
6.71	0.068	-0.020528660498994836	
6.715	0.181	-0.005317821460786231	
6.72	0.070	0.02152272466774295	
6.725	0.136	0.05586912938299828	
6.73	0.310	0.0945425088016694	
6.735	0.233	0.13656818817653832	
6.74	0.204	0.17836335474582118	
6.745	0.285	0.21341788712491933	
6.75	0.275	0.23511033003197743	
6.755	0.278	0.25252183815704654	
6.76	0.340	0.2734301476679984	
6.765	0.386	0.29358280777188894	
6.77	0.250	0.3085867012557175	
6.775	0.235	0.3149037136021192	
6.78	0.253	0.3054429807062925	
6.785	0.009	0.2745489427051899	
6.79	-0.083	0.2194249762365713	
6.795	-0.031	0.146393088526378	
6.8	-0.103	0.0680797398855844	
6.805	-0.188	-0.0034223169119555847	
6.81	-0.130	-0.06155734647202716	
6.815	-0.119	-0.10645879437498508	
6.82	-0.226	-0.14037679008664256	
6.825	-0.219	-0.16304825466859735	
6.83	-0.167	-0.18158946836998613	
6.835	-0.239	-0.19844704336244234	
6.84	-0.260	-0.2105045791089968	
6.845	-0.184	-0.21660773160183117	
6.85	-0.252	-0.22498077771247427	
6.855	-0.349	-0.23641688469029734	
6.86	-0.318	-0.25152269654446013	
6.865	-0.332	-0.2755041780491958	
6.87	-0.378	-0.3024236700001143	
6.875	-0.301	-0.31998166238224657	
6.88	-0.242	-0.3255483759232384	
6.885	-0.329	-0.3235336362205049	
6.89	-0.324	-0.3175122283672266	
6.895	-0.194	-0.3065061006883334	
6.9	-0.231	-0.29201925742494866	
6.905	-0.307	-0.2765009097648581	
6.91	-0.260	-0.26443116654256604	
6.915	-0.275	-0.26246797292803936	
6.92	-0.368	-0.27055333827644445	
6.925	-0.313	-0.28196452583437903	
6.93	-0.237	-0.291438987112721	
6.935	-0.284	-0.2966212317872343	
6.94	-0.330	-0.29456926777660897	
6.945	-0.236	-0.29037897950093905	
6.95	-0.249	-0.2870483579674751	
6.955	-0.271	-0.28061898041186256	
6.96	-0.193	-0.26530401967193384	
6.965	-0.197	-0.2503990649908058	
6.97	-0.284	-0.2407302418244936	
6.975	-0.257	-0.2349305434772127	
6.98	-0.158	-0.23127228311932546	
6.985	-0.205	-0.22777146357280154	
6.99	-0.205	-0.21765918700550838	
6.995	-0.118	-0.20215243483018447	
7.0	-0.165	-0.19009194329338674	
7.005	-0.248	-0.1818520765628229	
7.01	-0.158	-0.17713065579755405	
7.015	-0.119	-0.17526454701203142	
7.02	-0.182	-0.17298925903039197	
7.025	-0.118	-0.16289170898264071	
7.03	-0.068	-0.1490084300913988	
7.035	-0.142	-0.1389848638101247	
7.04	-0.181	-0.13082271058476064	
7.045	-0.083	-0.12483483839977481	
7.05	-0.078	-0.12311921590174013	
7.055	-0.139	-0.11916246301071468	
7.06	-0.072	-0.10889021217009243	
7.065	-0.035	-0.10007952000084937	
7.07	-0.104	-0.09437076472568329	
7.075	0.009	-0.07885128319728518	
7.08	0.143	-0.05261150641234989	
7.085	-0.008	-0.023262697816431713	
7.09	-0.071	-7.684569604562741e-05	
7.095	0.114	0.015603150988016177	
7.1	0.033	0.022872372145129174	
7.105	-0.095	0.025376261508107307	
7.11	-0.016	0.020381173247717283	
7.115	0.007	0.006214359123583955	
7.12	-0.089	-0.011831510424220457	
7.125	-0.022	-0.02086589458124357	
7.13	0.134	-0.020133893405768946	
7.135	0.027	-0.010539613815987399	
7.14	-0.038	0.005629591618943427	
7.145	0.113	0.02208840913532144	
7.15	0.064	0.030865187956046723	
7.155	-0.013	0.03788115827140398	
7.16	0.185	0.052725809682337726	
7.165	0.253	0.07554147929431673	
7.17	-0.020	0.09761449597280272	
7.175	-0.042	0.10510862656242621	
7.18	0.091	0.09139412504004747	
7.185	0.003	0.06512042619753933	
7.19	-0.063	0.04530455145226378	
7.195	0.093	0.03265817344825416	
7.2	0.015	0.01884726076156379	
7.205	-0.121	0.007311544152889456	
7.21	0.065	0.00110530668109402	
7.215	0.104	-0.00012231420722796254	
7.22	-0.179	-0.0029922855407452644	
7.225	-0.110	-0.012838877012475797	
7.23	0.142	-0.024987702501877117	
7.235	-0.090	-0.032292865362539794	
7.24	-0.150	-0.035064018849211114	
7.245	0.156	-0.03270703053997555	
7.25	0.052	-0.02416545836579142	
7.255	-0.130	-0.01230239375918127	
7.26	0.131	0.002485341199150601	
7.265	0.166	0.019244555654822935	
7.27	-0.141	0.03040837835029489	
7.275	-0.002	0.0341610538811672	
7.28	0.374	0.04260861863239192	
7.285	0.140	0.06937085191807593	
7.29	-0.002	0.10356703695563321	
7.295	0.139	0.12281220096303357	
7.3	-0.026	0.11181812660235928	
7.305	-0.170	0.07915697293763779	
7.31	0.029	0.043828986822112656	
7.315	0.136	0.01557793382903105	
7.32	-0.121	-0.0021170638788265317	
7.325	-0.048	-0.0078115793433913335	
7.33	0.200	-0.006873139105904289	
7.335	-0.038	-0.0020100258105877605	
7.34	-0.092	0.0062645252666135055	
7.345	0.236	0.019422846323007587	
7.35	0.094	0.03380272490133106	
7.355	-0.116	0.045576832925415006	
7.36	0.137	0.05519970865660836	
7.365	0.247	0.06392192723853966	
7.37	-0.049	0.07328214080188752	
7.375	0.110	0.08719874556158763	
7.38	0.391	0.10772472938499723	
7.385	-0.002	0.1256111236039867	
7.39	-0.086	0.12986692091660185	
7.395	0.180	0.11900749462702984	
7.4	0.023	0.09382587201123435	
7.405	-0.135	0.0649744213018762	
7.41	0.110	0.045558123962672684	
7.415	0.241	0.03833533258297462	
7.42	-0.072	0.04068501569790797	
7.425	0.044	0.05214657978625468	
7.43	0.310	0.06735712603975	
7.435	-0.023	0.07727460586201168	
7.44	-0.068	0.08243883913550637	
7.445	0.444	0.09464548438282679	
7.45	0.282	0.12092108467272804	
7.455	-0.110	0.14928636802947245	
7.46	0.253	0.16583972619303045	
7.465	0.429	0.17581567565702266	
7.47	-0.057	0.1851075900614524	
7.475	0.079	0.18600003842334165	
7.48	0.551	0.186990006018265	
7.485	0.105	0.19706446659258173	
7.49	-0.045	0.2039760109347589	
7.495	0.528	0.20708900882220574	
7.5	0.444	0.22408213666110885	
7.505	0.082	0.2568154648494242	
7.51	0.461	0.2899916552635899	
7.515	0.556	0.3191471730773452	
7.52	-0.011	0.33476141831778455	
7.525	0.136	0.32488166961426734	
7.53	0.597	0.30334112879650305	
7.535	0.148	0.28896679733405223	
7.54	-0.022	0.27474072638296304	
7.545	0.557	0.2603050288043509	
7.55	0.432	0.26215790180872883	
7.555	0.044	0.2776019379238074	
7.56	0.380	0.2920400912045263	
7.565	0.521	0.30027911051362427	
7.57	0.013	0.3026729976101783	
7.575	0.130	0.29285651909025634	
7.58	0.486	0.2734071537533467	
7.585	0.042	0.24992851809828823	
7.59	-0.066	0.22072436962408287	
7.595	0.400	0.1933393107119142	
7.6	0.211	0.17412596894090057	
7.605	-0.129	0.15959542109225774	
7.61	0.137	0.14407259260178998	
7.615	0.247	0.12225077899334885	
7.62	-0.135	0.09867444432109357	
7.625	-0.017	0.08091434296822458	
7.63	0.431	0.07339402466749484	
7.635	-0.017	0.07890746309143123	
7.64	-0.126	0.08476807426189226	
7.645	0.284	0.08531564843494471	
7.65	0.133	0.08307135083967913	
7.655	-0.161	0.0796518439321867	
7.66	0.212	0.08110188274170796	
7.665	0.479	0.09519585225733271	
7.67	0.032	0.12772058584502735	
7.675	0.131	0.16395201028047457	
7.68	0.447	0.19027202766817813	
7.685	-0.040	0.19789320420969703	
7.69	-0.136	0.18087633498111275	
7.695	0.321	0.1522420072091576	
7.7	0.136	0.12601212865457243	
7.705	-0.187	0.10479104370161121	
7.71	0.087	0.08406668050081458	
7.715	0.203	0.06103734577782844	
7.72	-0.184	0.04083826973723331	
7.725	-0.071	0.025043525502500975	
7.73	0.284	0.015111265858582417	
7.735	-0.077	0.010942977407467755	
7.74	-0.144	0.012060389062030446	
7.745	0.279	0.019103734840332925	
7.75	0.076	0.02790743984428456	
7.755	-0.162	0.035982917590629035	
7.76	0.166	0.04505426145471938	
7.765	0.308	0.056863634834833476	
7.77	-0.115	0.07196099571347002	
7.775	-0.046	0.08012376450911857	
7.78	0.258	0.0759069325823831	
7.785	-0.087	0.061963905111692294	
7.79	-0.142	0.04624374118085601	
7.795	0.273	0.03797183544763934	
7.8	0.087	0.0358125330727066	
7.805	-0.162	0.038182137398473336	
7.81	0.162	0.044030896270505396	
7.815	0.235	0.050675370385338814	
7.82	-0.179	0.05409019512962873	
7.825	-0.074	0.050227034758954126	
7.83	0.236	0.03772418617127808	
7.835	-0.098	0.023987806516886354	
7.84	-0.199	0.01141601843461221	
7.845	0.117	-0.0031705743610226343	
7.85	-0.032	-0.0222948993708301	
7.855	-0.226	-0.03961577554368209	
7.86	0.102	-0.0429647847411222	
7.865	0.209	-0.03450722090407458	
7.87	-0.214	-0.02079626869014196	
7.875	-0.110	-0.01265648708142736	
7.88	0.204	-0.013457399824129399	
7.885	-0.121	-0.018024345023786734	
7.89	-0.171	-0.020398224663041933	
7.895	0.211	-0.01925827301238325	
7.9	0.039	-0.013411292151602042	
7.905	-0.171	-0.0064574349291748	
7.91	0.160	0.006038813035581193	
7.915	0.293	0.02632142966759808	
7.92	-0.098	0.04930885125367287	
7.925	0.023	0.07045361623513353	
7.93	0.386	0.08637283136791157	
7.935	-0.008	0.09997710609846759	
7.94	-0.092	0.10676078340964679	
7.945	0.316	0.10661478317398644	
7.95	0.104	0.10449871774527321	
7.955	-0.046	0.10273392980991154	
7.96	0.230	0.10900890928069062	
7.965	0.227	0.11513709789849709	
7.97	-0.176	0.11043480696674919	
7.975	-0.112	0.08853285998665555	
7.98	0.127	0.05217979652148682	
7.985	-0.127	0.011019745886102245	
7.99	-0.179	-0.019052373159412585	
7.995	0.128	-0.036506156153483446	
8.0	-0.074	-0.05059495132261159	
8.005	-0.248	-0.06310475022608665	
8.01	-0.017	-0.07100042005339585	
8.015	0.050	-0.0780034357354468	
8.02	-0.199	-0.082463117073026	
8.025	-0.087	-0.07735447564716572	
8.03	0.208	-0.06593297982076293	
8.035	-0.109	-0.05202019917585243	
8.04	-0.145	-0.035949602777221715	
8.045	0.264	-0.01853286832973905	
8.05	0.062	0.002324412413379239	
8.055	-0.147	0.02095672292793797	
8.06	0.122	0.03502941633790917	
8.065	0.149	0.03990780258072149	
8.07	-0.194	0.0365405410330844	
8.075	-0.097	0.024704991292807392	
8.08	0.172	0.006005385356437519	
8.085	-0.138	-0.012047084302253094	
8.09	-0.176	-0.02586132377930087	
8.095	0.139	-0.033554225811350265	
8.1	-0.023	-0.0407560253845306	
8.105	-0.211	-0.043970185535974524	
8.11	0.041	-0.04291312957404056	
8.115	0.079	-0.04218419725279428	
8.12	-0.220	-0.045462082513585925	
8.125	-0.095	-0.0471897106685525	
8.13	0.204	-0.04702963854725074	
8.135	-0.122	-0.04312912996983152	
8.14	-0.176	-0.03679104106235215	
8.145	0.163	-0.031515272507650946	
8.15	-0.029	-0.02985517096768463	
8.155	-0.202	-0.029966142641018108	
8.16	0.101	-0.026816826122843338	
8.165	0.148	-0.019232247326831205	
8.17	-0.176	-0.011525444395111847	
8.175	-0.025	-0.004108975590465547	
8.18	0.337	0.007987783263406205	
8.185	-0.055	0.025789034858390365	
8.19	-0.107	0.04223507408233783	
8.195	0.270	0.05153354464285344	
8.2	0.020	0.05508814701290227	
8.205	-0.202	0.05002021437932644	
8.21	0.081	0.03822309502239724	
8.215	0.154	0.02373861785598767	
8.22	-0.171	0.01246814209703332	
8.225	-0.052	0.005936687427676479	
8.23	0.296	0.004956556693662206	
8.235	-0.084	0.01076368448990634	
8.24	-0.152	0.017295813785639533	
8.245	0.197	0.017517790373441332	
8.25	-0.005	0.01303023183987054	
8.255	-0.193	0.006088561644768984	
8.26	0.120	0.0032592114706509424	
8.265	0.194	0.005653835643141861	
8.27	-0.158	0.01248788788117982	
8.275	-0.016	0.01900648093875232	
8.28	0.266	0.024877037492750113	
8.285	-0.107	0.02772918380002522	
8.29	-0.119	0.028393488046648995	
8.295	0.279	0.029498965436383945	
8.3	0.026	0.03296044496988605	
8.305	-0.170	0.035155228359099504	
8.31	0.145	0.03527184108537573	
8.315	0.212	0.03757045382083495	
8.32	-0.130	0.04253437795067046	
8.325	0.027	0.04805970838760397	
8.33	0.343	0.05679473276885559	
8.335	-0.046	0.0677437023925293	
8.34	-0.064	0.07547243170187969	
8.345	0.290	0.08041525091623938	
8.35	-0.013	0.07892416465047228	
8.355	-0.228	0.06325407869723823	
8.36	0.012	0.036217247879622355	
8.365	-0.013	-0.0005117903423872172	
8.37	-0.318	-0.04236014477527224	
8.375	-0.260	-0.0849345102265305	
8.38	-0.142	-0.13432753933538888	
8.385	-0.420	-0.19119771566177518	
8.39	-0.500	-0.24544463007813214	
8.395	-0.284	-0.29667374833587373	
8.4	-0.422	-0.34809011744675133	
8.405	-0.584	-0.38963555140971706	
8.41	-0.373	-0.4157779751704463	
8.415	-0.309	-0.43357950161080133	
8.42	-0.495	-0.4403319446546429	
8.425	-0.379	-0.4278549019977173	
8.43	-0.188	-0.4073441405211231	
8.435	-0.342	-0.38627698657405346	
8.44	-0.324	-0.3533940887199778	
8.445	-0.045	-0.3095725744397331	
8.45	-0.194	-0.27220244019843265	
8.455	-0.364	-0.2417420303804952	
8.46	-0.156	-0.21861619801124327	
8.465	-0.110	-0.20957180425210448	
8.47	-0.313	-0.20756747876943454	
8.475	-0.210	-0.19974671070990335	
8.48	-0.063	-0.194142611803991	
8.485	-0.254	-0.19654230668071088	
8.49	-0.170	-0.1884727286890604	
8.495	0.551	-0.14218485311064238	
8.5	0.626	-0.03424813734753582	
8.505	0.365	0.12397137838411805	
8.51	0.699	0.28763913609879976	
8.515	0.721	0.4225312200958157	
8.52	0.203	0.5090396911429942	
8.525	0.371	0.5403079594506588	
8.53	0.583	0.528140701069179	
8.535	0.093	0.485195608861011	
8.54	0.000	0.4173810451188205	
8.545	0.453	0.3420778702519097	
8.55	0.238	0.28164468447679086	
8.555	-0.081	0.23674903582105747	
8.56	0.288	0.20288142549096314	
8.565	0.350	0.1806477179747129	
8.57	-0.049	0.16884398883234947	
8.575	0.201	0.16741610501929416	
8.58	0.614	0.18133263608605554	
8.585	0.249	0.217059011088946	
8.59	0.243	0.26535363139469414	
8.595	0.696	0.31622756348394176	
8.6	0.536	0.3685454617006972	
8.605	0.318	0.4216544608231825	
8.61	0.921	0.48102996493343775	
8.615	1.107	0.564650826814042	
8.62	0.719	0.6687325685795229	
8.625	1.016	0.775482048863752	
8.63	1.289	0.8723338941926121	
8.635	0.788	0.9459330186897861	
8.64	0.704	0.9803712529514702	
8.645	1.165	0.9812560269185111	
8.65	0.895	0.9684854113871598	
8.655	0.447	0.9386819863912054	
8.66	0.808	0.8860072797652114	
8.665	0.756	0.8185453595000286	
8.67	0.206	0.7408067640599367	
8.675	0.372	0.6505277905033301	
8.68	0.626	0.5602030068996844	
8.685	0.197	0.4820390204930052	
8.69	0.111	0.4145501591664088	
8.695	0.447	0.3550728998795219	
8.7	0.152	0.29943407798868904	
8.705	-0.066	0.24695004001353218	
8.71	0.418	0.21094168442146818	
8.715	0.516	0.20537685052967983	
8.72	0.090	0.2270565558488204	
8.725	0.363	0.2575733357872276	
8.73	0.644	0.293910673366767	
8.735	0.209	0.3291712530476612	
8.74	0.136	0.3487305474074017	
8.745	0.544	0.35076035572822384	
8.75	0.288	0.34343007636539	
8.755	-0.029	0.3252791542456379	
8.76	0.324	0.29568213078080197	
8.765	0.295	0.2611273113354526	
8.77	-0.119	0.22445394473960606	
8.775	0.001	0.1795584325661952	
8.78	0.233	0.13047795241542562	
8.785	-0.121	0.08546843700175692	
8.79	-0.129	0.04903923402142033	
8.795	0.194	0.021299631431584195	
8.8	-0.054	0.0014224416193418998	
8.805	-0.217	-0.01621991447388363	
8.81	0.050	-0.028598769558660593	
8.815	-0.048	-0.04420090477779878	
8.82	-0.294	-0.06806895571977091	
8.825	-0.103	-0.08840203256890214	
8.83	0.075	-0.10199280890761361	
8.835	-0.263	-0.11127191912323975	
8.84	-0.342	-0.12568861392316538	
8.845	-0.153	-0.15216021740237817	
8.85	-0.301	-0.19258365394882498	
8.855	-0.425	-0.2317776463251281	
8.86	-0.214	-0.25985241792490654	
8.865	-0.197	-0.28045232347995147	
8.87	-0.399	-0.2936521950370935	
8.875	-0.239	-0.2903927743355455	
8.88	-0.109	-0.2813925323640183	
8.885	-0.362	-0.2740587303804498	
8.89	-0.388	-0.26943860977939754	
8.895	-0.165	-0.27048702978035777	
8.9	-0.291	-0.2786171920008287	
8.905	-0.407	-0.2844590229422581	
8.91	-0.138	-0.2810053380164691	
8.915	-0.150	-0.2726590929930623	
8.92	-0.396	-0.263405979961002	
8.925	-0.243	-0.25436604035155885	
8.93	-0.097	-0.247650862225767	
8.935	-0.317	-0.24493536714524627	
8.94	-0.321	-0.2392619953036563	
8.945	-0.064	-0.23369221077843147	
8.95	-0.213	-0.22865535853135238	
8.955	-0.339	-0.22224725745794013	
8.96	-0.115	-0.2141019884563155	
8.965	-0.113	-0.2088151773484831	
8.97	-0.321	-0.20423078504655895	
8.975	-0.161	-0.19631043303670936	
8.98	0.001	-0.1858370853703768	
8.985	-0.239	-0.17488053873617015	
8.99	-0.249	-0.16411956145191126	
8.995	0.009	-0.155828429308924	
9.0	-0.187	-0.15272018485731842	
9.005	-0.307	-0.15409084543343704	
9.01	-0.061	-0.15513250714298987	
9.015	-0.089	-0.1579411551945867	
9.02	-0.332	-0.16313177652995273	
9.025	-0.217	-0.16925788626672117	
9.03	-0.081	-0.18096976953133473	
9.035	-0.294	-0.19486102409471384	
9.04	-0.274	-0.20199802699041153	
9.045	-0.026	-0.20189298809989	
9.05	-0.184	-0.19878718493269087	
9.055	-0.329	-0.19399214364153597	
9.06	-0.121	-0.18911663252183758	
9.065	-0.118	-0.19104788269206185	
9.07	-0.320	-0.1941016251847835	
9.075	-0.168	-0.19115489756756904	
9.08	-0.017	-0.18603023077820946	
9.085	-0.232	-0.17993685293400824	
9.09	-0.236	-0.16990662995469075	
9.095	0.026	-0.15886220041330582	
9.1	-0.139	-0.14990886701174083	
9.105	-0.262	-0.14097010657431647	
9.11	-0.052	-0.13299290526178095	
9.115	-0.069	-0.13113675362876812	
9.12	-0.294	-0.13519645468641067	
9.125	-0.152	-0.1380144572167048	
9.13	-0.011	-0.14301025605302484	
9.135	-0.251	-0.14910532625696682	
9.14	-0.237	-0.15183367846362505	
9.145	-0.008	-0.1527185556485492	
9.15	-0.148	-0.15507022843321416	
9.155	-0.257	-0.15202711505144703	
9.16	-0.028	-0.14377118855715243	
9.165	-0.013	-0.1361962986748404	
9.17	-0.202	-0.12439228446128987	
9.175	-0.048	-0.10581673997246771	
9.18	0.110	-0.08691288614473378	
9.185	-0.145	-0.07138687278722228	
9.19	-0.115	-0.05677241268978275	
9.195	0.208	-0.040452560352593474	
9.2	-0.069	-0.02529850969330382	
9.205	-0.188	-0.018185529012183635	
9.21	0.201	-0.011453439884078537	
9.215	0.217	0.005791191599822956	
9.22	-0.122	0.03030999626136114	
9.225	0.059	0.050352675269793645	
9.23	0.217	0.06025502828767167	
9.235	-0.156	0.05734143587101094	
9.24	-0.133	0.043212603033310266	
9.245	0.209	0.02480056425641938	
9.25	-0.026	0.010575499284270552	
9.255	-0.173	0.0026763306405301014	
9.26	0.140	-0.0012425060685659446	
9.265	0.148	0.000780406714741685	
9.27	-0.127	0.009111957108116433	
9.275	0.096	0.023504551476658402	
9.28	0.302	0.042375715969784795	
9.285	-0.075	0.06013691156963783	
9.29	-0.057	0.07123029559506858	
9.295	0.302	0.07498233346127048	
9.3	0.027	0.0774338264242665	
9.305	-0.104	0.0765777615436461	
9.31	0.255	0.0779482405341757	
9.315	0.261	0.08576028267202832	
9.32	-0.026	0.10194728673875128	
9.325	0.197	0.12262184443413161	
9.33	0.343	0.1414497871213951	
9.335	-0.014	0.15296946543653558	
9.34	0.053	0.15626049241500223	
9.345	0.429	0.15913264139865518	
9.35	0.119	0.16632669613748513	
9.355	-0.077	0.16749753454078609	
9.36	0.302	0.16207808078552566	
9.365	0.310	0.15874860679417954	
9.37	-0.052	0.1618395068634779	
9.375	0.163	0.16268780968115432	
9.38	0.343	0.16049316410564846	
9.385	0.003	0.15690044786913793	
9.39	0.110	0.156290287390143	
9.395	0.446	0.16517840399145786	
9.4	0.163	0.1792726273799256	
9.405	0.021	0.19150320001746313	
9.41	0.402	0.2021275187550744	
9.415	0.347	0.21470889452482533	
9.42	-0.028	0.2248137733028131	
9.425	0.206	0.2237208884489262	
9.43	0.391	0.21648368404820872	
9.435	-0.009	0.20588798782655604	
9.44	0.001	0.1892973144667992	
9.445	0.356	0.1681444817041598	
9.45	0.082	0.15028417225380705	
9.455	-0.052	0.13756275540573915	
9.46	0.327	0.13208198690871792	
9.465	0.304	0.13667537500507287	
9.47	-0.045	0.14891326759178497	
9.475	0.174	0.1587111311369413	
9.48	0.331	0.16137203070028003	
9.485	-0.025	0.1589647784140073	
9.49	-0.017	0.14937538721821025	
9.495	0.307	0.13500858838169674	
9.5	0.052	0.1202777050406521	
9.505	-0.084	0.10670978692659025	
9.51	0.267	0.09999370263567432	
9.515	0.183	0.09756775650380342	
9.52	-0.122	0.09606285890922667	
9.525	0.036	0.08972330593361787	
9.53	0.180	0.07320759684091077	
9.535	-0.141	0.05305478864478441	
9.54	-0.109	0.031496694510998964	
9.545	0.200	0.013856731325249677	
9.55	-0.063	0.0012578550188488097	
9.555	-0.176	-0.008122618862836908	
9.56	0.062	-0.01709674225334337	
9.565	-0.025	-0.029561643937498626	
9.57	-0.219	-0.04577541121732712	
9.575	-0.005	-0.05522963198050789	
9.58	0.122	-0.055948451230763724	
9.585	-0.177	-0.05387978426377764	
9.59	-0.139	-0.05240020512479365	
9.595	0.159	-0.04927501611081882	
9.6	-0.058	-0.045757976295867864	
9.605	-0.205	-0.040995474644144325	
9.61	-0.005	-0.042171197666970806	
9.615	-0.068	-0.05664531570798065	
9.62	-0.258	-0.07666337554640616	
9.625	-0.104	-0.09221942548244072	
9.63	0.007	-0.10606330009316946	
9.635	-0.205	-0.11783379347643921	
9.64	-0.165	-0.11930573235189049	
9.645	0.079	-0.11334306736409662	
9.65	-0.110	-0.10781952352277058	
9.655	-0.203	-0.0979128932053579	
9.66	0.036	-0.08712491543153084	
9.665	-0.013	-0.08072973790367041	
9.67	-0.202	-0.07668231355070607	
9.675	-0.020	-0.06912054293809373	
9.68	0.180	-0.05707832790525557	
9.685	-0.106	-0.04093638882639698	
9.69	-0.074	-0.021246339693185696	
9.695	0.266	-0.002271790742757654	
9.7	0.047	0.019072754325849633	
9.705	-0.066	0.04207446955052979	
9.71	0.275	0.06499624080272787	
9.715	0.218	0.08721153126278115	
9.72	-0.087	0.10623052824912785	
9.725	0.110	0.11497831511062048	
9.73	0.276	0.11491733166202983	
9.735	-0.057	0.1099512068443246	
9.74	-0.005	0.10383234763408367	
9.745	0.324	0.0987887867949794	
9.75	0.035	0.09695344811739598	
9.755	-0.090	0.09509455233089079	
9.76	0.247	0.0920984990916725	
9.765	0.211	0.09212412344642679	
9.77	-0.064	0.09820493368504264	
9.775	0.201	0.10810754728437882	
9.78	0.325	0.12187383009946089	
9.785	-0.071	0.13085526359123906	
9.79	-0.049	0.126921550428303	
9.795	0.282	0.11179636902136386	
9.8	0.035	0.09685485856808101	
9.805	-0.074	0.08717116464525831	
9.81	0.282	0.08515620466473102	
9.815	0.206	0.091011987165691	
9.82	-0.089	0.10022559137356772	
9.825	0.157	0.10719464736761604	
9.83	0.327	0.11377902301740353	
9.835	-0.016	0.12184338872691128	
9.84	0.061	0.1290538270109463	
9.845	0.362	0.13573177731460723	
9.85	0.073	0.14076026039842018	
9.855	0.021	0.14429055544665068	
9.86	0.383	0.1531640705757072	
9.865	0.201	0.1658841609990902	
9.87	-0.080	0.169289118638057	
9.875	0.208	0.16325537612787255	
9.88	0.392	0.16067984357992238	
9.885	0.006	0.16587733015721248	
9.89	0.068	0.16812367717349852	
9.895	0.362	0.16662535441854576	
9.9	0.068	0.16277353984466042	
9.905	-0.058	0.15339881804922728	
9.91	0.243	0.14004246088963127	
9.915	0.139	0.12483859255975926	
9.92	-0.156	0.1064736364827166	
9.925	0.026	0.08318889221956619	
9.93	0.136	0.054506700056965264	
9.935	-0.145	0.02704770394706202	
9.94	-0.072	0.007211926421640166	
9.945	0.197	-0.003582005045968839	
9.95	-0.066	-0.008173657236332718	
9.955	-0.133	-0.009413690411412655	
9.96	0.171	-0.0051116203574653315	
9.965	0.046	-0.00024550181548875825	
9.97	-0.141	0.003676402443754318	
9.975	0.151	0.0131586437810591	
9.98	0.209	0.029353985632283267	
9.985	-0.121	0.04217170944329887	
9.99	-0.106	0.04424176053258858	
9.995	0.111	0.030239121193733537	
10.0	-0.090	0.007893699378706664	
10.005	-0.176	-0.013287452357491495	
10.01	0.075	-0.02825485634951302	
10.015	0.029	-0.0392710191169684	
10.02	-0.187	-0.044159930977123264	
10.025	-0.005	-0.042914186390466055	
10.03	0.101	-0.041769674088364656	
10.035	-0.144	-0.04068836471398789	
10.04	-0.093	-0.036696982280800775	
10.045	0.136	-0.03289827979367706	
10.05	-0.074	-0.031080536278535773	
10.055	-0.103	-0.02717850035683156	
10.06	0.174	-0.015332509424387011	
10.065	0.075	-0.0013264429011575192	
10.07	-0.136	0.010923492265601608	
10.075	0.042	0.019074299478616774	
10.08	0.218	0.024161081698463566	
10.085	-0.093	0.030362162848738987	
10.09	-0.049	0.036332606528620456	
10.095	0.211	0.037031839883865436	
10.1	-0.057	0.03392721639580852	
10.105	-0.138	0.026876696311481044	
10.11	0.146	0.019615820608928573	
10.115	0.127	0.016646288417284674	
10.12	-0.087	0.022010416029771062	
10.125	0.091	0.034073178196363726	
10.13	0.198	0.04407307563592793	
10.135	-0.097	0.050401355053016725	
10.14	-0.020	0.051394746472049516	
10.145	0.284	0.05396353208546409	
10.15	0.013	0.05891779126753744	
10.155	-0.093	0.06395802084740099	
10.16	0.209	0.06557094080344017	
10.165	0.107	0.06557981389703069	
10.17	-0.113	0.06408384930815018	
10.175	0.085	0.060080552219335774	
10.18	0.214	0.05699113154594988	
10.185	-0.092	0.05546274047189098	
10.19	-0.022	0.05344957540085918	
10.195	0.269	0.0518570636899921	
10.2	0.020	0.05593060942885453	
10.205	-0.083	0.06107293319914338	
10.21	0.180	0.062480019232929715	
10.215	0.053	0.058505737984203936	
10.22	-0.145	0.04822461896548948	
10.225	0.085	0.03806985607940587	
10.23	0.218	0.034857942483399504	
10.235	-0.110	0.036570755725639975	
10.24	-0.063	0.03651709702391169	
10.245	0.169	0.02968532139274538	
10.25	-0.066	0.019957794532621816	
10.255	-0.129	0.010231863309573192	
10.26	0.149	0.004360512482331601	
10.265	0.024	0.0014351918175078758	
10.27	-0.190	-0.003599063563895855	
10.275	-0.022	-0.011978169564345113	
10.28	0.053	-0.02531042929066284	
10.285	-0.205	-0.04128852627090539	
10.29	-0.165	-0.057397825798972596	
10.295	-0.016	-0.07649938848196074	
10.3	-0.200	-0.10101550238244975	
10.305	-0.258	-0.12160440931635258	
10.31	-0.083	-0.13875738184240066	
10.315	-0.158	-0.15565698201721798	
10.32	-0.289	-0.1714359338956128	
10.325	-0.121	-0.17596011738205464	
10.33	-0.069	-0.17644858035198271	
10.335	-0.298	-0.17823672415886516	
10.34	-0.263	-0.1813078300210465	
10.345	-0.135	-0.18958443965075428	
10.35	-0.298	-0.20806085520474804	
10.355	-0.365	-0.22552331907529716	
10.36	-0.193	-0.24074611449521433	
10.365	-0.236	-0.25773018281591564	
10.37	-0.367	-0.26942821843514186	
10.375	-0.272	-0.2718860615969865	
10.38	-0.246	-0.2794882142316343	
10.385	-0.434	-0.29632843061340486	
10.39	-0.375	-0.3092188999701869	
10.395	-0.193	-0.31949076430132783	
10.4	-0.300	-0.3241992933164032	
10.405	-0.326	-0.3155424875910516	
10.41	-0.075	-0.2915444814313163	
10.415	-0.101	-0.26181083187311216	
10.42	-0.262	-0.2266187646051657	
10.425	-0.084	-0.18968815810248818	
10.43	0.023	-0.15839604247797387	
10.435	-0.196	-0.1336032635193562	
10.44	-0.130	-0.11115410766808188	
10.445	0.124	-0.09124286202329784	
10.45	-0.069	-0.07343648389056165	
10.455	-0.124	-0.05367656292171753	
10.46	0.185	-0.032228589679971664	
10.465	0.105	-0.00787768727167997	
10.47	-0.106	0.015088509032020893	
10.475	0.168	0.0385589972698806	
10.48	0.293	0.06275956040474143	
10.485	-0.019	0.08806323875022758	
10.49	0.073	0.10889390611405646	
10.495	0.382	0.126054863295346	
10.5	0.096	0.1423346331216948	
10.505	-0.006	0.15416630678901835	
10.51	0.350	0.16107683958618968	
10.515	0.279	0.17008407684170745	
10.52	0.058	0.18382928280085972	
10.525	0.318	0.20176503202525278	
10.53	0.360	0.21787499217966488	
10.535	0.036	0.225777843888052	
10.54	0.250	0.22895510888010692	
10.545	0.626	0.24531724909749947	
10.55	0.102	0.2701441314102333	
10.555	-0.052	0.27300433437405547	
10.56	0.316	0.24729656086595375	
10.565	0.247	0.21810186276171045	
10.57	-0.006	0.19664321838656362	
10.575	0.279	0.1858498387402996	
10.58	0.382	0.18499903103431545	
10.585	0.023	0.18967792528500435	
10.59	0.149	0.1939073752226398	
10.595	0.414	0.19738437498107414	
10.6	0.116	0.2011429386178975	
10.605	0.032	0.20099274378340687	
10.61	0.427	0.20133477705474806	
10.615	0.347	0.2111045710067699	
10.62	0.108	0.23062055543474128	
10.625	0.458	0.25684857441263614	
10.63	0.541	0.29000421157802453	
10.635	0.041	0.3166781160063358	
10.64	0.091	0.3138636433698772	
10.645	0.318	0.2833369904436379	
10.65	0.015	0.23820362625869146	
10.655	-0.054	0.1890282980288337	
10.66	0.282	0.14924239609590267	
10.665	0.191	0.12412906383457226	
10.67	-0.035	0.11473073531183532	
10.675	0.192	0.11475232229035692	
10.68	0.275	0.1189313548523133	
10.685	-0.020	0.12284009562190354	
10.69	0.041	0.12488257508474315	
10.695	0.284	0.12119647308139789	
10.7	0.012	0.11428680392413634	
10.705	-0.069	0.10512077078050162	
10.71	0.276	0.09709134290631655	
10.715	0.236	0.09911411221665313	
10.72	-0.069	0.10988738478299995	
10.725	0.085	0.11465499238899084	
10.73	0.177	0.10479215967582614	
10.735	-0.086	0.08800639416996647	
10.74	-0.014	0.07294408355770379	
10.745	0.240	0.06100297193804949	
10.75	0.047	0.05534352523686574	
10.755	0.020	0.0633124483136769	
10.76	0.308	0.08294814331465007	
10.765	0.151	0.10298489278022088	
10.77	-0.078	0.1160703869262734	
10.775	0.142	0.1186769486566307	
10.78	0.209	0.11361457129394288	
10.785	-0.084	0.10208640688249872	
10.79	-0.005	0.09006363794807894	
10.795	0.232	0.07585298909232702	
10.8	-0.040	0.06330558859105595	
10.805	-0.066	0.05346365129649433	
10.81	0.238	0.05088696121897322	
10.815	0.079	0.052881870079359655	
10.82	-0.107	0.055205583756254104	
10.825	0.142	0.056707691272111824	
10.83	0.241	0.06248111976673928	
10.835	-0.046	0.0721574069046348	
10.84	-0.032	0.07814968009351347	
10.845	0.139	0.07070455831385389	
10.85	-0.081	0.05028997875606234	
10.855	-0.104	0.029616208342241303	
10.86	0.218	0.018815268844381675	
10.865	0.044	0.017782181127935826	
10.87	-0.130	0.02034267718219885	
10.875	0.094	0.022723964743840898	
10.88	0.162	0.025329864098348833	
10.885	-0.101	0.02822491085178828	
10.89	0.026	0.033263939284469454	
10.895	0.284	0.04259867892966409	
10.9	-0.038	0.05427240892434945	
10.905	-0.061	0.060724240603752734	
10.91	0.269	0.0657343412544068	
10.915	0.110	0.07371852127298123	
10.92	-0.107	0.07946781664234272	
10.925	0.116	0.07868842629911202	
10.93	0.212	0.07521414839016964	
10.935	-0.064	0.07335084165966557	
10.94	0.046	0.07430309042177406	
10.945	0.278	0.07742943010362954	
10.95	-0.003	0.08134335236860377	
10.955	-0.045	0.082863003247265	
10.96	0.276	0.08557053827315123	
10.965	0.163	0.09168043253491179	
10.97	-0.078	0.10067110180082615	
10.975	0.160	0.10460356687152637	
10.98	0.226	0.10405189504562339	
10.985	-0.049	0.10353670768034533	
10.99	0.091	0.10235311836891622	
10.995	0.342	0.10720565883333419	
11.0	0.007	0.11644103260096762	
11.005	-0.077	0.11603133006865264	
11.01	0.226	0.10533426814136095	
11.015	0.108	0.09464137838641642	
11.02	-0.075	0.08695850158131177	
11.025	0.243	0.08547308137761081	
11.03	0.278	0.09685264540797828	
11.035	-0.068	0.11182651255278629	
11.04	0.036	0.11435592636754381	
11.045	0.284	0.10985600404438603	
11.05	-0.028	0.10466512399563978	
11.055	-0.089	0.0932744050536907	
11.06	0.185	0.07593550152859602	
11.065	0.013	0.05964094793470853	
11.07	-0.161	0.04038477591667811	
11.075	0.039	0.02017920399258384	
11.08	0.067	0.0025696695576524903	
11.085	-0.190	-0.01468071453275578	
11.09	-0.127	-0.032647106228795734	
11.095	0.020	-0.05364644294992806	
11.1	-0.165	-0.07401193351665511	
11.105	-0.190	-0.08939938352626911	
11.11	-0.026	-0.10158043643099912	
11.115	-0.119	-0.11236560518041724	
11.12	-0.226	-0.12108964324777059	
11.125	-0.045	-0.12312550621792516	
11.13	-0.017	-0.12075973590284199	
11.135	-0.167	-0.11417591766880493	
11.14	-0.046	-0.10161936388961852	
11.145	0.052	-0.08414639188699265	
11.15	-0.188	-0.07373989903677285	
11.155	-0.234	-0.07811073311097202	
11.16	-0.124	-0.09605817751253157	
11.165	-0.223	-0.12636519014465583	
11.17	-0.307	-0.15962972084477917	
11.175	-0.193	-0.1864168262374072	
11.18	-0.173	-0.20902352725206594	
11.185	-0.297	-0.22472283872800167	
11.19	-0.251	-0.23164302411300453	
11.195	-0.155	-0.23557268359077277	
11.2	-0.185	-0.23444191647159396	
11.205	-0.176	-0.22083851714650757	
11.21	-0.072	-0.19646400615452905	
11.215	-0.133	-0.17436904294834582	
11.22	-0.174	-0.15624979775185888	
11.225	-0.058	-0.13764581841599716	
11.23	-0.048	-0.12125400611715381	
11.235	-0.145	-0.10938809437674635	
11.24	-0.074	-0.09664136834693177	
11.245	0.010	-0.08488902825414471	
11.25	-0.113	-0.07626188058324192	
11.255	-0.100	-0.07067975182927677	
11.26	0.070	-0.06174578483566867	
11.265	0.000	-0.04932940038131971	
11.27	-0.097	-0.03599500513361043	
11.275	0.033	-0.024852941501169408	
11.28	0.015	-0.017374005168823405	
11.285	-0.109	-0.017109155549769325	
11.29	0.001	-0.017707561646038053	
11.295	0.127	-0.013116173815206196	
11.3	-0.026	-0.0030292247392745635	
11.305	-0.026	0.006402098565239855	
11.31	0.137	0.016956857582684285	
11.315	0.041	0.02777753762626887	
11.32	-0.057	0.03423350802573623	
11.325	0.013	0.03387740810788331	
11.33	0.062	0.026562568349519786	
11.335	-0.042	0.018217181017149746	
11.34	-0.002	0.015159971241546256	
11.345	0.094	0.013632934847939874	
11.35	0.026	0.015253005772870368	
11.355	0.017	0.022486196977481096	
11.36	0.136	0.034637038603962333	
11.365	0.107	0.0488900703092656	
11.37	0.020	0.06248105708110231	
11.375	0.125	0.07462902083033779	
11.38	0.238	0.08848347912114284	
11.385	0.148	0.11051958692257485	
11.39	0.117	0.134057053436415	
11.395	0.117	0.1453740125483655	
11.4	0.000	0.13646951346264719	
11.405	0.001	0.11358103769765217	
11.41	0.156	0.09236206291216062	
11.415	0.152	0.08197821029088162	
11.42	0.053	0.08472101498013308	
11.425	0.104	0.09140869964863133	
11.43	0.127	0.09436916196660923	
11.435	-0.014	0.09078098458208425	
11.44	-0.017	0.0789945804237199	
11.445	0.058	0.06116260988595875	
11.45	-0.040	0.03868884609096236	
11.455	-0.072	0.017681435456813874	
11.46	0.006	-0.0009140596759749393	
11.465	-0.023	-0.016970803090308174	
11.47	-0.057	-0.02705043932277893	
11.475	-0.005	-0.029773284110798246	
11.48	0.047	-0.027729114854091904	
11.485	0.015	-0.0199652801629511	
11.49	-0.029	-0.007042749919036799	
11.495	-0.020	-0.0010545540231821301	
11.5	-0.049	-0.007165090779478596	
11.505	-0.090	-0.017210364890733368	
11.51	-0.026	-0.028111219420760534	
11.515	0.018	-0.036960477502062966	
11.52	0.012	-0.03487267064247753	
11.525	0.162	-0.013861371007242279	
11.53	0.172	0.021177615423379825	
11.535	-0.006	0.05415179502401696	
11.54	-0.017	0.06993751481991282	
11.545	0.035	0.065829718397258	
11.55	-0.019	0.04992615362151674	
11.555	-0.045	0.0318493684185675	
11.56	0.033	0.015766980764889166	
11.565	0.027	0.005061388960514711	
11.57	-0.026	0.00022972737498998637	
11.575	0.055	0.00303292687874647	
11.58	0.079	0.010122214363265054	
11.585	-0.017	0.018296336015449628	
11.59	-0.025	0.02192816256598884	
11.595	-0.016	0.017711153309569544	
11.6	-0.069	0.00300929851015507	
11.605	-0.083	-0.015090692204973728	
11.61	0.003	-0.028347561283985124	
11.615	0.001	-0.0369202774272214	
11.62	-0.058	-0.03667297809083942	
11.625	0.006	-0.03204744460986395	
11.63	0.049	-0.024923601429166043	
11.635	-0.008	-0.014598844339027283	
11.64	0.024	-0.002081154015713563	
11.645	0.099	0.01163432328664086	
11.65	0.024	0.02507731569288268	
11.655	-0.003	0.033942878236793254	
11.66	0.114	0.04155494785061757	
11.665	0.128	0.0510970936252971	
11.67	0.041	0.06441181161063088	
11.675	0.039	0.07387248714619074	
11.68	0.030	0.07001255284651317	
11.685	-0.037	0.05649654243738292	
11.69	0.003	0.03992099417151291	
11.695	0.059	0.02654234768483867	
11.7	0.023	0.018135768936523182	
11.705	-0.003	0.01701571718792157	
11.71	0.065	0.019470602334640142	
11.715	0.044	0.02206706176506998	
11.72	-0.006	0.025499689944123365	
11.725	0.047	0.02886298769626771	
11.73	0.068	0.03195390072412266	
11.735	-0.016	0.03254965922052276	
11.74	0.010	0.03194777900029112	
11.745	0.087	0.03047144385078485	
11.75	0.020	0.03114361493683459	
11.755	-0.005	0.0320721437321433	
11.76	0.094	0.03342323548561688	
11.765	0.140	0.041045293694230454	
11.77	0.116	0.05857978733645992	
11.775	0.131	0.0828486552658743	
11.78	0.023	0.09686764974078604	
11.785	-0.034	0.09058259633444922	
11.79	0.038	0.07199413333361429	
11.795	0.142	0.05942391888121461	
11.8	0.061	0.05714817452783795	
11.805	0.006	0.0591163119065387	
11.81	0.067	0.057382016976885906	
11.815	0.035	0.05201893773770592	
11.82	-0.040	0.04361497080915901	
11.825	-0.003	0.03182937236558805	
11.83	-0.016	0.015854686662091933	
11.835	-0.098	-0.0023527543025378362	
11.84	-0.097	-0.023014841338781074	
11.845	-0.060	-0.044653281320540424	
11.85	-0.100	-0.06381378016294678	
11.855	-0.118	-0.07882282106895432	
11.86	-0.052	-0.08667662115916741	
11.865	-0.051	-0.08999397202368375	
11.87	-0.122	-0.08830788294573613	
11.875	-0.095	-0.08619590759569956	
11.88	-0.081	-0.08820769998530725	
11.885	-0.107	-0.09229382657658422	
11.89	-0.133	-0.09498079214872962	
11.895	-0.112	-0.09972663871512591	
11.9	-0.144	-0.1098207228638495	
11.905	-0.100	-0.11675802933748468	
11.91	-0.005	-0.11268943630662193	
11.915	-0.046	-0.09903891778058944	
11.92	-0.107	-0.08428502884383163	
11.925	-0.086	-0.07517476373512731	
11.93	-0.081	-0.07423974341857391	
11.935	-0.145	-0.08030674964805765	
11.94	-0.121	-0.0889551471283471	
11.945	-0.068	-0.09671891345003167	
11.95	-0.087	-0.10183355903161793	
11.955	-0.084	-0.09875566323797448	
11.96	-0.051	-0.09168606189798606	
11.965	-0.048	-0.08405837688240009	
11.97	-0.078	-0.07628479927069426	
11.975	-0.023	-0.06613811954959864	
11.98	-0.017	-0.05624219109796402	
11.985	-0.057	-0.04834332104148216	
11.99	0.001	-0.03892787697029513	
11.995	0.094	-0.02468219402586769	
12.0	-0.025	-0.008885494779914172	
12.005	-0.057	0.0022129287030582465	
12.01	0.017	0.0023625097811651443	
12.015	0.000	-0.0010624485576711314	
12.02	-0.040	-0.0033266202070758675	
12.025	0.017	-0.005109302232465486	
12.03	0.021	-0.005222571681994062	
12.035	-0.042	-0.005376592007461201	
12.04	-0.008	-0.005923409005249364	
12.045	0.075	-0.002664385738391846	
12.05	0.003	0.0031003899651391646	
12.055	-0.019	0.009221571802827545	
12.06	0.062	0.013378768715693674	
12.065	0.007	0.015921180453685277	
12.07	-0.048	0.01566715530347468	
12.075	-0.022	0.00989684216827841	
12.08	0.026	0.0007679158070345261	
12.085	-0.035	-0.005368263782494581	
12.09	-0.038	-0.009909425904794168	
12.095	-0.023	-0.015693958007728607	
12.1	-0.103	-0.026912997710268713	
12.105	-0.113	-0.041741639552843345	
12.11	-0.054	-0.05762702494839302	
12.115	-0.077	-0.07011033730607909	
12.12	-0.109	-0.07929534725363396	
12.125	-0.028	-0.08107430488053363	
12.13	0.004	-0.07526996423863302	
12.135	-0.072	-0.06436854666901987	
12.14	-0.066	-0.05488001668693712	
12.145	-0.026	-0.04971857514311268	
12.15	-0.058	-0.04892239696702039	
12.155	-0.078	-0.04870539379673274	
12.16	0.023	-0.046638506849059944	
12.165	0.049	-0.038134514260312294	
12.17	0.097	-0.01725568681018193	
12.175	0.130	0.01593798100249349	
12.18	0.117	0.04967345176775715	
12.185	0.017	0.07262253718249215	
12.19	0.039	0.0821607618863964	
12.195	0.053	0.07826153070806782	
12.2	-0.045	0.06503792336228953	
12.205	-0.068	0.042321955634396474	
12.21	-0.020	0.016378497326200222	
12.215	-0.051	-0.00917654250437128	
12.22	-0.116	-0.03126412547068215	
12.225	-0.089	-0.05103328648284645	
12.23	-0.074	-0.06933464499993061	
12.235	-0.115	-0.08337661969001756	
12.24	-0.098	-0.09179864247051026	
12.245	-0.066	-0.09573923464750465	
12.25	-0.095	-0.09698471409900557	
12.255	-0.093	-0.09564589693136638	
12.26	-0.023	-0.08860242092515186	
12.265	-0.037	-0.08021744487557958	
12.27	-0.077	-0.06926630448655728	
12.275	-0.013	-0.05799170801273809	
12.28	-0.016	-0.04835727219008294	
12.285	-0.003	-0.0384161065066863	
12.29	0.091	-0.02075395349742101	
12.295	0.093	0.004289083130174526	
12.3	-0.032	0.02494607981174814	
12.305	-0.060	0.03032768100167582	
12.31	-0.008	0.021453409956071954	
12.315	-0.068	0.004767601983740361	
12.32	-0.104	-0.016323620781517036	
12.325	-0.031	-0.03494852572640059	
12.33	-0.011	-0.04730631401854182	
12.335	-0.071	-0.052471617662450204	
12.34	-0.031	-0.05078222388012028	
12.345	0.041	-0.04464772719796335	
12.35	-0.037	-0.035045928767289417	
12.355	-0.054	-0.02671581443609751	
12.36	0.007	-0.022516282069831396	
12.365	0.000	-0.02019963860822878	
12.37	-0.061	-0.018364949227859053	
12.375	0.001	-0.01695869402599942	
12.38	0.061	-0.01427287186217602	
12.385	-0.026	-0.007486172235188669	
12.39	-0.002	-0.0008079035798879776	
12.395	0.078	0.006366807922238611	
12.4	0.015	0.012963149415864489	
12.405	0.009	0.020274710032999136	
12.41	0.137	0.030488394306781828	
12.415	0.085	0.0438121796505205	
12.42	0.023	0.057629709285046564	
12.425	0.062	0.06502439113915565	
12.43	0.058	0.06472173235259626	
12.435	-0.008	0.05852204651880398	
12.44	0.024	0.050190427249241575	
12.445	0.064	0.04235901154875778	
12.45	0.032	0.035972005732984536	
12.455	0.009	0.034284111857718645	
12.46	0.076	0.03447584053629864	
12.465	0.039	0.03480112670412232	
12.47	-0.005	0.035645932815359035	
12.475	0.090	0.037040778727152515	
12.48	0.157	0.04571764045688882	
12.485	0.134	0.06353038994775836	
12.49	0.127	0.08920774102235855	
12.495	0.152	0.036665591439569066	
12.5	0.006	0.035972005732984536	
12.505	-0.019	0.035645932815359035	
12.51	0.030	0.08448049754601994	
12.515	0.023	0.058779351894406986	
12.52	-0.025	0.036665591439569066	
12.525	0.038	0.022062792961510348	
12.53	0.088	0.01668455901871794	
12.535	0.000	0.018525137426318908	
12.54	0.007	0.023239365362216064	
12.545	0.061	0.02431746060147516	
12.55	-0.003	0.02393405284851039	
12.555	0.000	0.023351753180380276	
12.56	0.099	0.024472336330378337	
12.565	0.087	0.03173354832819074	
12.57	0.110	0.04671095304010585	
12.575	0.117	0.06708300105766694	
12.58	0.064	0.08260230274541822	
12.585	-0.017	0.08351696136133657	
12.59	0.079	0.07630719215711221	
12.595	0.064	0.06829408443301421	
12.6	-0.048	0.05588558474792057	
12.605	-0.057	0.03738286215207197	
12.61	0.001	0.015490829414892547	
12.615	-0.043	-0.005300983310629075	
12.62	-0.089	-0.02229925718180413	
12.625	-0.042	-0.03589078223520948	
12.63	-0.022	-0.0463815377260217	
12.635	-0.064	-0.0524858055362518	
12.64	-0.045	-0.051689869505785566	
12.645	-0.011	-0.04869775272919312	
12.65	-0.031	-0.04611954820761335	
12.655	-0.014	-0.03860938563045843	
12.66	0.042	-0.026485939756394437	
12.665	0.015	-0.014324334315637417	
12.67	0.018	-0.0023282825095940684	
12.675	0.236	0.020162380305356647	
12.68	0.139	0.05564738074361003	
12.685	0.036	0.08542762199207919	
12.69	-0.028	0.09627589639309547	
12.695	-0.028	0.08137327663225985	
12.7	-0.086	0.048854587355397945	
12.705	-0.061	0.013312847879580599	
12.71	0.075	-0.011408341457102003	
12.715	0.053	-0.01725106195738743	
12.72	0.006	-0.008423703586661762	
12.725	0.067	0.006130846867186915	
12.73	0.070	0.020737933728123797	
12.735	0.021	0.03240794063206336	
12.74	0.096	0.04423046166047871	
12.745	0.194	0.0614671295312453	
12.75	0.090	0.08188151930861598	
12.755	0.047	0.0972016512046405	
12.76	0.131	0.1035913191302511	
12.765	0.165	0.10682426132148132	
12.77	0.101	0.11452140478818489	
12.775	0.108	0.12208318440874147	
12.78	0.125	0.12180537886326216	
12.785	0.000	0.11340413001268781	
12.79	0.042	0.0991643701413745	
12.795	0.169	0.08550046154366658	
12.8	0.120	0.08392834160263347	
12.805	0.050	0.09017546657887535	
12.81	0.133	0.09457835594938246	
12.815	0.061	0.09383623475159969	
12.82	-0.005	0.0875161797699061	
12.825	0.090	0.07807858627499487	
12.83	0.113	0.07081575359540906	
12.835	0.020	0.06742542642014715	
12.84	0.041	0.06516470939937302	
12.845	0.081	0.06046372128177468	
12.85	0.033	0.0549244027870767	
12.855	0.075	0.05421466231076845	
12.86	0.159	0.06157548047178216	
12.865	0.079	0.07281357682456387	
12.87	0.050	0.08153716445486738	
12.875	0.177	0.09008884732584588	
12.88	0.145	0.10179377775753189	
12.885	-0.008	0.10741988183328191	
12.89	0.018	0.10015770662248716	
12.895	0.084	0.08345805982162349	
12.9	0.007	0.0659492740433963	
12.905	-0.029	0.050201722473304566	
12.91	0.013	0.03253033083415164	
12.915	-0.008	0.015849503579730844	
12.92	-0.038	0.001580717753030833	
12.925	0.027	-0.004967140846599582	
12.93	0.052	-0.006217444471511953	
12.935	0.049	0.0015042484699860838	
12.94	0.102	0.01815920419128813	
12.945	0.162	0.04340087744818968	
12.95	0.117	0.06998260300378678	
12.955	0.013	0.09022455971525928	
12.96	0.017	0.09246213772455321	
12.965	-0.020	0.07583601135805396	
12.97	-0.074	0.04863034290071215	
12.975	-0.017	0.02001082006554748	
12.98	-0.029	-0.005256332574701844	
12.985	-0.077	-0.025459758286082646	
12.99	-0.046	-0.03882675073026433	
12.995	-0.020	-0.04664311049601941	
13.0	-0.055	-0.05100806439212988	
13.005	-0.068	-0.05172451570644194	
13.01	0.000	-0.04954025113454664	
13.015	-0.045	-0.04717992369701331	
13.02	-0.087	-0.04534836888782872	
13.025	-0.014	-0.04398591924037001	
13.03	0.009	-0.04228016459312804	
13.035	-0.038	-0.036454388311114916	
13.04	0.018	-0.026809755976934316	
13.045	0.047	-0.014660611736484419	
13.05	-0.029	-0.005024605824273877	
13.055	-0.017	0.0002885791130166802	
13.06	0.096	0.006463952841486302	
13.065	0.017	0.014811708547387451	
13.07	-0.078	0.01764932609671321	
13.075	-0.058	0.010000809775868237	
13.08	-0.063	-0.009288672422807898	
13.085	-0.122	-0.032442494043994116	
13.09	-0.081	-0.053815102943254735	
13.095	-0.013	-0.06766550172420402	
13.1	-0.045	-0.07199223313346309	
13.105	-0.040	-0.06570158703577036	
13.11	0.032	-0.05256661591720545	
13.115	0.026	-0.03718240811461792	
13.12	-0.038	-0.0203166955225665	
13.125	0.024	-0.008007510433137646	
13.13	0.084	0.0036934865072049	
13.135	0.012	0.015583145352768134	
13.14	-0.002	0.026187881312838068	
13.145	0.088	0.031285188632817464	
13.15	-0.011	0.03300625293525759	
13.155	-0.060	0.029334249590551892	
13.16	-0.023	0.01639037876709989	
13.165	-0.026	-0.0012179043832067035	
13.17	-0.035	-0.015240659638205182	
13.175	0.030	-0.019988636324357423	
13.18	0.026	-0.01738681973370625	
13.185	-0.040	-0.012389479187667175	
13.19	0.003	-0.007740892452924501	
13.195	0.053	-0.0027778910131344057	
13.2	-0.025	0.0009755973870181244	
13.205	-0.034	0.003421043471631188	
13.21	0.047	0.0033797703918092017	
13.215	0.020	0.0037118521287415104	
13.22	-0.014	0.006810650404202083	
13.225	0.050	0.011036888991227697	
13.23	0.059	0.016533939446368412	
13.235	0.032	0.02363365144450438	
13.24	0.122	0.036334711024271965	
13.245	0.111	0.05416170492295436	
13.25	0.018	0.06693240686371008	
13.255	-0.048	0.06748811050098522	
13.26	-0.013	0.05236043347745564	
13.265	-0.037	0.027643115279338368	
13.27	-0.051	0.0038674500896586127	
13.275	0.015	-0.010918435263290244	
13.28	0.013	-0.018532722320548197	
13.285	-0.043	-0.020368293015561072	
13.29	-0.008	-0.018604021773567295	
13.295	0.070	-0.013873633293813371	
13.3	-0.003	-0.005098037928638721	
13.305	0.013	0.004564915227786362	
13.31	0.093	0.015371917025522132	
13.315	0.064	0.027575973108745738	
13.32	0.049	0.040897091205957005	
13.325	0.122	0.056118052447616154	
13.33	0.099	0.0694002525601123	
13.335	0.082	0.07962442151337294	
13.34	0.099	0.08945950119582649	
13.345	0.068	0.09408688281154942	
13.35	-0.026	0.08583869202193793	
13.355	-0.061	0.06561173584143906	
13.36	0.015	0.03839987968431242	
13.365	-0.046	0.01251874553798114	
13.37	-0.097	-0.011100409662787478	
13.375	-0.034	-0.0308259418506095	
13.38	-0.048	-0.0456202989258708	
13.385	-0.098	-0.05640692372079687	
13.39	-0.060	-0.0634997534513093	
13.395	-0.035	-0.06689558341318992	
13.4	-0.077	-0.06818432056370628	
13.405	-0.077	-0.06636731663812158	
13.41	-0.022	-0.0635811682158586	
13.415	-0.034	-0.060514093668343344	
13.42	-0.043	-0.05310000027880378	
13.425	0.023	-0.04178951524935521	
13.43	-0.009	-0.030647632345122272	
13.435	-0.078	-0.024446479545133237	
13.44	0.033	-0.020459734405887615	
13.445	0.110	-0.00987110838662559	
13.45	-0.051	0.0037671633948110697	
13.455	-0.107	0.0066154504490656485	
13.46	-0.078	-0.00755886051884913	
13.465	-0.090	-0.03152433370138624	
13.47	-0.097	-0.054111257097766284	
13.475	-0.028	-0.06677140557210796	
13.48	-0.028	-0.07063502039190883	
13.485	-0.068	-0.0684465307632593	
13.49	-0.035	-0.06046236214007151	
13.495	0.010	-0.05188068889865656	
13.5	-0.037	-0.04323418086461326	
13.505	-0.022	-0.032355733282196666	
13.51	0.046	-0.021537281727931717	
13.515	0.003	-0.011553192528987366	
13.52	-0.025	-0.0031297188363787268	
13.525	0.056	0.004256878530961293	
13.53	0.039	0.011354555185104502	
13.535	-0.042	0.015513008035510884	
13.54	0.027	0.016560452863631704	
13.545	0.093	0.019146545489616563	
13.55	-0.005	0.023733222631391996	
13.555	-0.046	0.024630852519100684	
13.56	0.021	0.0184837826868795	
13.565	-0.011	0.009444102991914703	
13.57	-0.055	-0.00013733069006231227	
13.575	0.013	-0.0067359439497480765	
13.58	0.009	-0.011643005074490355	
13.585	-0.040	0.015425610868898418	
13.59	0.018	-0.011433074151959804	
13.595	0.056	-0.0068647789878497996	
13.6	-0.006	0.0007320373822816165	
13.605	-0.005	0.007651448759513303	
13.61	0.055	0.012480529239438837	
13.615	0.015	0.015425610868898418	
13.62	-0.020	0.017875934956518052	
13.625	0.049	0.01927223377248418	
13.63	0.029	0.019330480039938227	
13.635	-0.058	0.016518377836774623	
13.64	-0.019	0.009584629480655957	
13.645	0.079	0.004116273579091775	
13.65	0.012	0.004733382053402467	
13.655	0.035	0.012686392924239736	
13.66	0.036	0.020460584542984075	
13.665	-0.019	0.022392093429292208	
13.67	-0.051	0.01690756737633929	
13.675	0.023	0.009284027958952112	
13.68	0.035	0.003295886800689779	
13.685	-0.017	0.0015392772637385268	
13.69	0.058	0.006622775781287266	
13.695	0.096	0.01608184573465566	
13.7	0.013	0.027706537052899334	
13.705	0.013	0.03571784822285321	
13.71	0.087	0.040461507303896915	
13.715	0.049	0.044371669846474546	
13.72	0.007	0.046931412588368145	
13.725	0.090	0.04828845880837421	
13.73	0.087	0.05126575859925555	
13.735	0.017	0.05555492422610067	
13.74	0.079	0.05863214314900647	
13.745	0.056	0.06004104907807211	
13.75	-0.035	0.053715771791346845	
13.755	-0.057	0.03974688044418173	
13.76	-0.048	0.017421921625668926	
13.765	-0.098	-0.010638043259371078	
13.77	-0.121	-0.039021102485415814	
13.775	-0.061	-0.06172321436216067	
13.78	-0.068	-0.07776173614997828	
13.785	-0.112	-0.08640950315948868	
13.79	-0.083	-0.0903565641642014	
13.795	-0.052	-0.08998839188304777	
13.8	-0.107	-0.09026655314444637	
13.805	-0.112	-0.08822462117541523	
13.81	-0.072	-0.08959874801607606	
13.815	-0.119	-0.09264917668787065	
13.82	-0.112	-0.09599808748090875	
13.825	-0.009	-0.09472508119894349	
13.83	0.024	-0.0827779248961345	
13.835	-0.064	-0.06439642944373136	
13.84	-0.081	-0.08998839188304777	
13.845	-0.087	-0.08959874801607606	
13.85	-0.136	-0.05826301708498011	
13.855	-0.122	-0.07319094435118897	
13.86	-0.077	-0.0876175156900943	
13.865	-0.118	-0.09866603462242753	
13.87	-0.124	-0.10595985356338937	
13.875	-0.069	-0.10772877514397199	
13.88	-0.072	-0.10582595469436729	
13.885	-0.089	-0.10037445369560632	
13.89	-0.005	-0.0883099518329325	
13.895	0.042	-0.06904171981559235	
13.9	-0.025	-0.04728007529401171	
13.905	-0.008	-0.026167424932093997	
13.91	0.076	-0.008620844450976826	
13.915	0.007	0.006307780135707956	
13.92	-0.029	0.01604373179325739	
13.925	0.050	0.02027527321417509	
13.93	0.030	0.02115864179237242	
13.935	-0.016	0.02062703584764737	
13.94	0.062	0.02269560787582394	
13.945	0.142	0.029948028174454543	
13.95	0.107	0.046731914222904195	
13.955	0.082	0.06885163095243096	
13.96	0.088	0.029948028174454543	
13.965	-0.011	0.029948028174454543	
13.97	-0.020	0.029948028174454543	
13.975	0.065	0.05628819159280331	
13.98	0.056	0.043129656923488316	
13.985	-0.008	0.03564062728173996	
13.99	0.047	0.03172226226180561	
13.995	0.059	0.030912480173119452	
14.0	-0.011	0.028710620213009304	
14.005	-0.003	0.026887566292617356	
14.01	0.038	0.02235678396451657	
14.015	-0.019	0.016265501537517685	
14.02	-0.031	0.009097612453665787	
14.025	0.050	0.005299980017321586	
14.03	0.018	0.004101859894845937	
14.035	-0.064	0.0026356952270715018	
14.04	-0.020	-0.0012610921404796012	
14.045	0.023	-0.008097467422962367	
14.05	-0.045	-0.012296733883630926	
14.055	-0.020	-0.015092294245617529	
14.06	0.075	-0.01264108264871761	
14.065	0.046	-0.0037414354278192605	
14.07	0.039	0.011114186520430785	
14.075	0.091	0.029294996581584958	
14.08	0.042	0.042073936252071745	
14.085	0.000	0.04864681796737005	
14.09	0.099	0.051760611507645	
14.095	0.156	0.0588876811905041	
14.1	0.052	0.07069884060231665	
14.105	0.087	0.0819195420649203	
14.11	0.162	0.09034161895616508	
14.115	0.061	0.09724634651927583	
14.12	-0.003	0.09612279719716732	
14.125	0.035	0.08427363608557151	
14.13	-0.014	0.06306675842688693	
14.135	-0.071	0.03768846394490015	
14.14	-0.020	0.012747984584513022	
14.145	0.006	-0.008155947943699025	
14.15	-0.023	-0.020253487539458104	
14.155	0.003	-0.02204256939987738	
14.16	-0.006	-0.01871879865132941	
14.165	-0.097	-0.021762918589826173	
14.17	-0.112	-0.03281809289747961	
14.175	-0.066	-0.0477385479588737	
14.18	-0.090	-0.06396559008676803	
14.185	-0.121	-0.07727665019014554	
14.19	-0.063	-0.08623631761272935	
14.195	-0.052	-0.08818861565307295	
14.2	-0.100	-0.08825837740253364	
14.205	-0.075	-0.08402967890258928	
14.21	0.039	-0.07571812936898906	
14.215	0.036	-0.058748869260060094	
14.22	-0.008	-0.0338036461243258	
14.225	-0.003	-0.012757203719364212	
14.23	-0.068	-0.004991079837943339	
14.235	-0.113	-0.01327502717208085	
14.24	-0.058	-0.028229167582410133	
14.245	-0.055	-0.04520057067198935	
14.25	-0.101	-0.05926484649645681	
14.255	-0.071	-0.06800954771832048	
14.26	0.003	-0.07071501556809281	
14.265	-0.043	-0.06577684742873181	
14.27	-0.083	-0.058800830011511915	
14.275	-0.058	-0.05472977071769106	
14.28	-0.064	-0.05699727343386494	
14.285	-0.086	-0.06027867579751308	
14.29	-0.016	-0.06020016853211196	
14.295	-0.009	-0.05620698187748818	
14.3	-0.078	-0.05029464603038272	
14.305	-0.049	-0.04599257537552942	
14.31	0.001	-0.043708708730479995	
14.315	-0.045	-0.040811527609587464	
14.32	-0.064	-0.03778789681833847	
14.325	-0.006	-0.03569668859083265	
14.33	-0.029	-0.035025545362133995	
14.335	-0.058	-0.03429110934106679	
14.34	0.015	-0.03216624183209489	
14.345	0.068	-0.023217390456864564	
14.35	0.006	-0.009312150882679324	
14.355	0.001	0.005035252004745677	
14.36	0.018	-0.032042892185482966	
14.365	-0.086	-0.02931058073601038	
14.37	-0.089	-0.0037696870072304596	
14.375	-0.003	-0.020676657805999147	
14.38	-0.023	-0.032042892185482966	
14.385	-0.068	-0.038284328781158644	
14.39	-0.003	-0.03915547004378296	
14.395	0.021	-0.03523459200141825	
14.4	-0.038	-0.02931058073601038	
14.405	-0.014	-0.021952671202131048	
14.41	0.029	-0.0157236734611664	
14.415	-0.034	-0.010837943412149517	
14.42	-0.052	-0.010760849524140075	
14.425	0.038	-0.010699380874509582	
14.43	-0.005	-0.01004009697884838	
14.435	-0.054	-0.010269775377321287	
14.44	0.012	-0.010182618382662512	
14.445	0.114	-0.0052322831899439	
14.45	-0.002	0.0067305446338133505	
14.455	-0.022	0.018017880934450434	
14.46	0.026	0.020231996261579406	
14.465	-0.013	0.015210258475752548	
14.47	-0.028	0.010265777392567016	
14.475	0.038	0.006241890044500145	
14.48	0.049	0.004962616010184108	
14.485	0.013	0.010798717475981379	
14.49	0.072	0.019792960400437497	
14.495	0.061	0.029699746771932663	
14.5	-0.016	0.035769643686414346	
14.505	0.036	0.03706376651023781	
14.51	0.056	0.037179565920005	
14.515	-0.038	0.032199066739005404	
14.52	-0.064	0.021314797938579065	
14.525	-0.022	0.005211112808494042	
14.53	-0.026	-0.012071752393477842	
14.535	-0.084	-0.026152570637592458	
14.54	-0.060	-0.03720810029482236	
14.545	-0.089	-0.05134978969214347	
14.55	-0.133	-0.06719836805256912	
14.555	-0.121	-0.08189907145952086	
14.56	-0.083	-0.09486359017329321	
14.565	-0.122	-0.10580747548333243	
14.57	-0.119	-0.11062342359555281	
14.575	-0.064	-0.11079294675614117	
14.58	-0.051	-0.10612533435479571	
14.585	-0.066	-0.09512176787364625	
14.59	-0.048	-0.08116324228848013	
14.595	-0.060	-0.07040547487907936	
14.6	-0.072	-0.06422400964846502	
14.605	0.041	-0.05482472339269094	
14.61	0.082	-0.035861453806239715	
14.615	-0.038	-0.014882329596119426	
14.62	-0.077	-0.0036101625747205746	
14.625	-0.055	-0.07027009171509113	
14.63	-0.089	-0.02217975547522271	
14.635	-0.100	-0.041141328094826436	
14.64	-0.049	-0.05610109235376419	
14.645	-0.038	-0.06540217976440679	
14.65	-0.109	-0.07027009171509113	
14.655	-0.081	-0.07280720365852686	
14.66	-0.048	-0.07584235796182202	
14.665	-0.103	-0.0779157911393435	
14.67	-0.112	-0.08059289000241501	
14.675	-0.071	-0.08371016216761201	
14.68	-0.075	-0.08720958838829009	
14.685	-0.107	-0.08816331629655635	
14.69	-0.028	-0.08405461619772371	
14.695	-0.031	-0.07741333633261402	
14.7	-0.097	-0.069318063760506	
14.705	-0.060	-0.06377058192342774	
14.71	-0.009	-0.05981970652982156	
14.715	-0.051	-0.054967616108591896	
14.72	-0.048	-0.048579171627892784	
14.725	0.041	-0.039661193974013347	
14.73	0.003	-0.02825056683782342	
14.735	-0.031	-0.017188683892261244	
14.74	0.104	-0.004005680083073013	
14.745	0.110	0.01558344124411084	
14.75	0.073	0.038648432786828266	
14.755	0.088	0.061253266522347735	
14.76	0.087	0.07618578620631226	
14.765	0.007	0.07999160529101726	
14.77	-0.031	0.0714186742221043	
14.775	0.042	0.05535870734548807	
14.78	0.020	0.03773734583102701	
14.785	-0.019	0.02581036203282596	
14.79	0.035	0.018011760670920328	
14.795	0.036	0.01356611300116355	
14.8	-0.038	0.010635590290947496	
14.805	0.033	0.009284938636951401	
14.81	0.072	0.011194095570984856	
14.815	0.013	0.01697751810389231	
14.82	0.003	0.022442325530547404	
14.825	0.070	0.026365593231690878	
14.83	0.050	0.030707210744268174	
14.835	0.010	0.03481999410353623	
14.84	0.078	0.04002673153180855	
14.845	0.065	0.044539187283750156	
14.85	0.035	0.047637557486404934	
14.855	0.099	0.05431069337191531	
14.86	0.139	0.06417686782691956	
14.865	0.029	0.0739598898998664	
14.87	0.007	0.07545559660614785	
14.875	0.081	0.06936109694025362	
14.88	0.038	0.0616983952594798	
14.885	0.009	0.05283196448909432	
14.89	0.067	0.048024260621624515	
14.895	0.035	0.04253402614411332	
14.9	-0.049	0.03464582146074404	
14.905	-0.038	0.022293985438020723	
14.91	-0.002	0.006162950739737539	
14.915	-0.072	-0.01000983321600958	
14.92	-0.083	-0.02553426860389842	
14.925	-0.045	-0.04066406174456193	
14.93	-0.058	-0.053289535968940496	
14.935	-0.057	-0.05914202244309306	
14.94	-0.077	-0.06099595924214976	
14.945	-0.138	-0.06748885049133027	
14.95	-0.203	-0.0853386833383969	
14.955	-0.171	-0.10969531746018304	
14.96	-0.136	-0.13284664464060492	
14.965	-0.185	-0.1510069312163982	
14.97	-0.174	-0.1615219434957343	
14.975	-0.118	-0.165660346683499	
14.98	-0.141	-0.16529677887445665	
14.985	-0.165	-0.1601521691512675	
14.99	-0.081	-0.15198600856698147	
14.995	0.009	-0.13546280550066075	
15.0	-0.066	-0.11033037009963022	
15.005	-0.061	-0.08370961583847586	
15.01	-0.042	-0.06586526389588551	
15.015	-0.106	-0.058012796321991626	
15.02	-0.126	-0.06051821558687896	
15.025	-0.086	-0.06867590845432155	
15.03	-0.103	-0.08131096217521598	
15.035	-0.119	-0.09112786744158745	
15.04	-0.093	-0.09697856777094513	
15.045	-0.087	-0.10150381252266633	
15.05	-0.098	-0.10333205658463188	
15.055	-0.038	-0.09765603395114432	
15.06	0.000	-0.084862490086749	
15.065	-0.031	-0.06905057907052131	
15.07	-0.032	-0.050488324092978654	
15.075	0.021	-0.03463822526203216	
15.08	-0.006	-0.022365171084737394	
15.085	-0.045	-0.014151897497502453	
15.09	0.020	-0.00791477668686139	
15.095	0.032	-0.004518746259939561	
15.1	-0.040	-0.0013986686710310092	
15.105	0.032	0.0023903168782926604	
15.11	0.072	0.008172054159521887	
15.115	-0.006	0.014874641848581052	
15.12	-0.002	0.019517188906861112	
15.125	0.055	0.021432443611045404	
15.13	-0.034	0.019587271594799005	
15.135	-0.045	0.012805277023770769	
15.14	0.035	0.005157757312091133	
15.145	-0.028	-0.0015131812406232342	
15.15	-0.090	-0.01047117698732746	
15.155	-0.049	-0.022584123560278103	
15.16	-0.002	-0.033776837974352006	
15.165	-0.048	-0.03916642592500914	
15.17	-0.038	-0.039497255834288855	
15.175	0.033	-0.03551477567157706	
15.18	-0.008	-0.028416178699425112	
15.185	-0.040	-0.020230772537384648	
15.19	0.024	-0.013822471250275973	
15.195	0.050	-0.006496176603986461	
15.2	-0.008	0.0025116226186080374	
15.205	0.007	0.010418052610114265	
15.21	0.023	0.014223669393421992	
15.215	-0.072	0.009810281657053554	
15.22	-0.068	-0.001499625644402562	
15.225	0.006	-0.014502562618871277	
15.23	-0.037	-0.02442104868388714	
15.235	-0.054	-0.031231620723414545	
15.24	0.027	-0.03080969021637505	
15.245	0.041	-0.025492427817109503	
15.25	-0.026	-0.015497823905633385	
15.255	0.044	-0.003581319056633523	
15.26	0.099	0.010242843612425638	
15.265	0.053	0.02581771216435958	
15.27	0.085	0.04448968347302073	
15.275	0.133	0.06249922747922565	
15.28	0.062	0.07657882309882741	
15.285	0.026	0.08274633734837591	
15.29	0.163	0.08618780914157914	
15.295	0.198	0.09553197575833024	
15.3	0.012	0.1064944750944288	
15.305	-0.032	0.10437533932745605	
15.31	-0.031	0.08023080354932845	
15.315	-0.100	0.04184306168105855	
15.32	-0.090	0.0024890619021894034	
15.325	-0.049	-0.03152005085033341	
15.33	-0.095	-0.05739539367291265	
15.335	-0.155	-0.07822163137427157	
15.34	-0.119	-0.0958453770391029	
15.345	-0.107	-0.11149526216824861	
15.35	-0.138	-0.1214560696100505	
15.355	-0.080	-0.12258612050332156	
15.36	-0.023	-0.11579089974231335	
15.365	-0.097	-0.10415615875476092	
15.37	-0.092	-0.09148805172567853	
15.375	0.006	-0.07954510913445381	
15.38	0.010	-0.06441309306664214	
15.385	-0.002	-0.04418484958683153	
15.39	0.042	-0.020845475689386266	
15.395	-0.061	-0.006546829299727249	
15.4	-0.133	-0.08718703923295265	
15.405	-0.118	-0.027569583865379468	
15.41	-0.077	-0.05181178241793646	
15.415	-0.097	-0.07316138138232187	
15.42	-0.086	-0.08545384618191723	
15.425	-0.037	-0.08854194120071573	
15.43	-0.090	-0.08744262374892545	
15.435	-0.138	-0.08718703923295265	
15.44	-0.081	-0.08882624003613762	
15.445	-0.095	-0.09354192001490816	
15.45	-0.147	-0.09946132625322172	
15.455	-0.104	-0.10355225039958835	
15.46	-0.066	-0.1068093511057303	
15.465	-0.097	-0.10618274029346425	
15.47	-0.072	-0.09945173704586899	
15.475	0.012	-0.08752282107009554	
15.48	0.009	-0.0694562153463964	
15.485	-0.037	-0.04819314517045757	
15.49	0.013	-0.028802132035648055	
15.495	0.001	-0.015558492812392709	
15.5	-0.028	-0.008488077809521459	
15.505	0.027	-0.0025191433687563806	
15.51	0.039	0.004199045985668988	
15.515	-0.023	0.007767653193133612	
15.52	-0.005	0.009553642288300478	
15.525	0.073	0.0115177219652685	
15.53	0.000	0.01451102752788747	
15.535	-0.016	0.015773816115491737	
15.54	0.052	0.017248520246367992	
15.545	0.059	0.019463594390701264	
15.55	0.000	0.023461084149918137	
15.555	0.090	0.03048811037116225	
15.56	0.188	0.04525614265309548	
15.565	0.091	0.06674819309219254	
15.57	0.075	0.08751101389830301	
15.575	0.145	0.10154394730320147	
15.58	0.047	0.10552355826420437	
15.585	-0.006	0.09873036798161655	
15.59	0.091	0.08524696704264405	
15.595	0.090	0.0745067065383031	
15.6	0.029	0.06645069835984921	
15.605	0.062	0.06344938359109718	
15.61	0.096	0.061275076302316524	
15.615	0.023	0.05876813525671307	
15.62	0.038	0.057480677231407776	
15.625	0.140	0.05855512649491714	
15.63	0.125	0.06557409991578861	
15.635	0.119	0.08071806470255546	
15.64	0.180	0.10122333380258354	
15.645	0.194	0.12153113659096569	
15.65	0.085	0.13744055973941152	
15.655	0.140	0.14641650605887174	
15.66	0.253	0.1522987547644004	
15.665	0.160	0.16178959069786092	
15.67	0.113	0.1694494330108805	
15.675	0.181	0.1695343029499839	
15.68	0.151	0.16559157427902915	
15.685	0.078	0.15772181711565184	
15.69	0.130	0.14819346887737816	
15.695	0.104	0.13452867888174147	
15.7	0.007	0.11747890985080775	
15.705	0.056	0.09841108559640643	
15.71	0.085	0.08026168127745978	
15.715	-0.028	0.06281328955639182	
15.72	-0.048	0.043474958437283814	
15.725	0.024	0.023501413519836	
15.73	0.047	0.008601845385018382	
15.735	0.012	0.005772843595940965	
15.74	0.020	0.010170422068806226	
15.745	-0.011	0.010489223116334552	
15.75	-0.058	0.00451525048730508	
15.755	-0.006	-0.0025671789234330113	
15.76	0.042	-0.007780066370219002	
15.765	-0.022	-0.008185511863975	
15.77	0.009	-0.005476295742476656	
15.775	0.111	0.0034889194202928553	
15.78	0.020	0.01655904137187896	
15.785	-0.060	0.02378125629750881	
15.79	-0.034	0.01917350840462027	
15.795	-0.052	0.003468503334016806	
15.8	-0.109	-0.017465717758388764	
15.805	-0.064	-0.03755648030059732	
15.81	0.029	-0.049805294610900185	
15.815	-0.045	-0.052163872189129525	
15.82	-0.075	-0.04845635410355993	
15.825	-0.009	-0.04556292250925506	
15.83	-0.032	-0.04344176551851381	
15.835	-0.061	-0.041151222770114126	
15.84	-0.016	-0.037844135495116754	
15.845	0.000	-0.03457544160188479	
15.85	-0.049	-0.03141243414776575	
15.855	-0.014	-0.02654148327378875	
15.86	-0.009	-0.023881950085668985	
15.865	-0.061	-0.024158431624571368	
15.87	-0.043	-0.02639549994453752	
15.875	0.004	-0.028599031958212152	
15.88	-0.042	-0.029476334243588122	
15.885	-0.074	-0.032100052373474575	
15.89	0.013	-0.032842121721436204	
15.895	0.053	-0.02861621711977961	
15.9	-0.043	-0.019379714981029885	
15.905	-0.005	-0.009524485641285583	
15.91	0.026	-0.004932621401976207	
15.915	-0.009	-0.002141937027698512	
15.92	-0.014	0.0006522467357948896	
15.925	0.021	0.00235218235515772	
15.93	-0.023	0.0004954097744162313	
15.935	-0.055	-0.0040361084690339125	
15.94	-0.020	-0.009851082185191401	
15.945	-0.037	-0.018688801906307336	
15.95	-0.066	-0.02834410004955052	
15.955	0.000	-0.0334640173067067	
15.96	0.023	-0.03197981700111838	
15.965	-0.028	-0.027166695705609263	
15.97	0.023	-0.01828922538249683	
15.975	0.088	-0.004644442571749085	
15.98	0.046	0.012452135617999365	
15.985	-0.008	0.025980506142187672	
15.99	0.030	0.033168921929185476	
15.995	0.018	0.03228115001196713	
16.0	-0.048	0.025648287696631182	
16.005	-0.032	0.014552013357079188	
16.01	0.007	0.002005041417857639	
16.015	-0.042	-0.010174428896337582	
16.02	-0.025	-0.0172685988095961	
16.025	0.036	-0.018648806063503165	
16.03	-0.031	-0.01756499967330515	
16.035	-0.049	-0.017003690630113366	
16.04	0.049	-0.014812117378177014	
16.045	0.110	-0.005720844314851138	
16.05	0.035	0.012655486597977097	
16.055	0.110	0.03556198585791782	
16.06	0.157	0.057992642629369553	
16.065	0.072	0.0798200877054287	
16.07	0.082	0.09473538354633669	
16.075	0.152	0.10332814232319383	
16.08	0.015	0.10542871571587387	
16.085	-0.063	0.09201516294871509	
16.09	-0.037	0.06414971914625275	
16.095	-0.049	0.028250919846516905	
16.1	-0.115	-0.007289923050964349	
16.105	-0.084	-0.037441448173562826	
16.11	-0.072	-0.06206126651355527	
16.115	-0.135	-0.08212653012793834	
16.12	-0.119	-0.0962236948422248	
16.125	-0.057	-0.10373624225127936	
16.13	-0.090	-0.10655198380396508	
16.135	-0.126	-0.10390372978091819	
16.14	-0.071	-0.1008907261006361	
16.145	-0.071	-0.0977937528804341	
16.15	-0.113	-0.09422714303217597	
16.155	-0.075	-0.08943963324895574	
16.16	-0.025	-0.08513144578157913	
16.165	-0.031	-0.07609285071982558	
16.17	0.010	-0.059166877343483935	
16.175	0.013	-0.038800905309670786	
16.18	-0.058	-0.025594869643344884	
16.185	-0.084	-0.02184186200089162	
16.19	-0.063	-0.02789315313824294	
16.195	-0.074	-0.03986119166076434	
16.2	-0.116	-0.055197275865203205	
16.205	-0.118	-0.0693883636122464	
16.21	-0.089	-0.08418423913114492	
16.215	-0.112	-0.09712235599375757	
16.22	-0.083	-0.10210362419416061	
16.225	-0.049	-0.09979371978972787	
16.23	-0.103	-0.09564859517708996	
16.235	-0.116	-0.09281163434538636	
16.24	-0.055	-0.08983989157255663	
16.245	-0.069	-0.08790731195480697	
16.25	-0.115	-0.0852272584186078	
16.255	-0.092	-0.08432745152628474	
16.26	-0.063	-0.08518722088559892	
16.265	-0.097	-0.08618772378575265	
16.27	-0.078	-0.0850718877378247	
16.275	-0.031	-0.0807520173076896	
16.28	-0.060	-0.07570689401192249	
16.285	-0.068	-0.0678148929108036	
16.29	-0.002	-0.05877216721695182	
16.295	-0.011	-0.04994598052508482	
16.3	-0.055	-0.04027572829294092	
16.305	-0.011	-0.03125376443320976	
16.31	0.015	-0.02518162115812768	
16.315	-0.028	-0.02027382894737444	
16.32	-0.011	-0.014025370076638444	
16.325	0.050	-0.007690647668686056	
16.33	0.003	-0.0018008024186117193	
16.335	0.007	0.00517648199302198	
16.34	0.181	0.01934113685595931	
16.345	0.107	0.04200801696687597	
16.35	-0.048	-0.0018008024186117193	
16.355	-0.019	-0.0008696373604568298	
16.36	0.007	-0.00017483067252527923	
16.365	-0.045	-0.00017483067252527923	
16.37	0.009	0.009019340574041473	
16.375	0.053	0.0013684640286320533	
16.38	-0.032	-0.0008696373604568298	
16.385	-0.035	-0.003833055272287868	
16.39	0.035	-0.005604605405185304	
16.395	0.018	-0.005030071477785591	
16.4	-0.029	-0.00237940025216123	
16.405	-0.003	-0.00010904334151365445	
16.41	0.029	-0.00017483067252527923	
16.415	-0.025	-0.0014132379955897664	
16.42	0.006	5.75023957392792e-05	
16.425	0.072	0.004391306624504344	
16.43	0.026	0.011075622739310594	
16.435	0.020	0.020180570176092805	
16.44	0.114	0.030445702700989546	
16.445	0.113	0.04492499789348607	
16.45	0.070	0.061597977447524314	
16.455	0.116	0.07795227088201861	
16.46	0.136	0.09080758492694863	
16.465	0.117	0.10153216021313835	
16.47	0.050	0.11010587239804702	
16.475	-0.002	0.10439451740600139	
16.48	-0.064	0.0789810637024291	
16.485	-0.066	0.043211503910091945	
16.49	-0.022	0.010535257089769578	
16.495	-0.037	-0.017153746486014504	
16.5	-0.084	-0.03645212547524605	
16.505	-0.035	-0.04691781929765095	
16.51	-0.023	-0.05319408067519805	
16.515	-0.072	-0.05560440008952944	
16.52	-0.013	-0.05280512964483436	
16.525	0.081	-0.04147506506513972	
16.53	0.020	-0.02314295902421425	
16.535	0.027	-0.0018308422877031383	
16.54	0.151	0.021684651040839085	
16.545	0.084	0.04479142658922661	
16.55	0.015	0.06341190402004221	
16.555	0.203	0.07819525377638803	
16.56	0.215	0.09887234643604172	
16.565	0.061	0.12125577167796646	
16.57	0.056	0.13018466955068403	
16.575	0.087	0.12361269590547416	
16.58	-0.016	0.10379337129413366	
16.585	-0.032	0.0781187945114063	
16.59	0.046	0.0507589941583424	
16.595	0.012	0.028799766635680506	
16.6	-0.037	0.013368946842079033	
16.605	0.018	0.005225436509117535	
16.61	0.036	-0.00011749430614259828	
16.615	-0.019	-0.0017770927198195736	
16.62	0.021	0.002226473440309438	
16.625	0.084	0.008653981957869717	
16.63	-0.005	0.01574124794207149	
16.635	-0.011	0.02011434699370351	
16.64	0.122	0.025818729659636528	
16.645	0.062	0.03476659535582363	
16.65	-0.034	0.041315182983365305	
16.655	0.050	0.04327001716198674	
16.66	0.081	0.04089740661529448	
16.665	0.026	0.041171088723648386	
16.67	0.093	0.04624374878055449	
16.675	0.203	0.060697198802273956	
16.68	0.067	0.07871158310781437	
16.685	-0.020	0.0900872639575237	
16.69	0.050	0.041171088723648386	
16.695	0.050	0.06875917001906975	
16.7	-0.002	0.05532554319193743	
16.705	0.061	0.046294786600554555	
16.71	0.046	0.03987006787963852	
16.715	-0.038	0.032159197304475154	
16.72	0.032	0.025277750164720593	
16.725	0.099	0.023676744820537592	
16.73	0.023	0.02668693059685046	
16.735	0.026	0.03314430609721007	
16.74	0.097	0.03984666674532027	
16.745	0.041	0.04470399258860208	
16.75	-0.013	0.046331360756119405	
16.755	0.062	0.04532992111130793	
16.76	0.067	0.043841123869408694	
16.765	-0.032	0.03914431864442651	
16.77	0.032	0.035309019167210964	
16.775	0.107	0.032668307017220566	
16.78	0.013	0.03466219798332554	
16.785	0.018	0.03716431235608891	
16.79	0.079	0.04085516066178631	
16.795	0.058	0.04168280430049282	
16.8	-0.008	0.04334025262655585	
16.805	0.097	0.045348851027364634	
16.81	0.124	0.050828045773139485	
16.815	0.023	0.059142320058598194	
16.82	0.076	0.06632422677824795	
16.825	0.166	0.07365250008179786	
16.83	0.087	0.08365508526140747	
16.835	0.104	0.0951900609287356	
16.84	0.192	0.1078446254368788	
16.845	0.111	0.11866098026953556	
16.85	0.000	0.12136072963252811	
16.855	0.052	0.11033223404707765	
16.86	0.047	0.08978785011001703	
16.865	-0.011	0.06718370845775498	
16.87	0.030	0.04935221320292646	
16.875	0.099	0.03859929858882121	
16.88	0.021	0.0346668392752738	
16.885	-0.043	0.03224128549724645	
16.89	0.009	0.024789059288521865	
16.895	-0.048	0.010629347021023628	
16.9	-0.109	-0.008555518762717698	
16.905	-0.043	-0.02666256036193877	
16.91	-0.028	-0.04328024354321905	
16.915	-0.090	-0.053771967416654826	
16.92	-0.057	-0.05860264885269531	
16.925	0.001	-0.05947635459947691	
16.93	-0.080	-0.05734291380102746	
16.935	-0.081	-0.05567914054532877	
16.94	-0.011	-0.05424062179753241	
16.945	0.018	-0.05041928949986913	
16.95	0.047	-0.03547466147523111	
16.955	0.157	-0.0066360092147475175	
16.96	0.091	0.027629288953630263	
16.965	-0.032	0.05223014371157538	
16.97	-0.003	0.0584455062335619	
16.975	0.049	0.051464333690613755	
16.98	-0.017	0.03863717972409529	
16.985	-0.049	0.025390731487671778	
16.99	0.000	0.010735773849822453	
16.995	-0.029	-0.00447782070364408	
17.0	-0.075	-0.01742827726015349	
17.005	-0.043	-0.028627017005601125	
17.01	-0.072	-0.040435054027030605	
17.015	-0.122	-0.05572835753271755	
17.02	-0.066	-0.0674821279975367	
17.025	0.012	-0.07158342378591512	
17.03	-0.040	-0.0673863099801556	
17.035	-0.031	-0.055540928129492864	
17.04	0.036	-0.040271404979769485	
17.045	-0.022	-0.027539380490628214	
17.05	-0.034	-0.018400989225160463	
17.055	0.053	-0.008588167109631976	
17.06	0.053	0.0015281860341092458	
17.065	-0.031	0.010255180077571672	
17.07	0.033	0.016549615711965098	
17.075	0.124	0.0244073996307036	
17.08	0.097	0.037585662535527156	
17.085	0.039	0.05647899406293086	
17.09	0.072	0.06773264324790423	
17.095	0.001	0.06641831315628516	
17.1	-0.038	0.05560849597663683	
