Vernier Format 2
ecg1.txt 10/20/2025 8:5:14
Run 1
Time	Potential	EKG	
T	P	E	
s	mV	mV	

0.000	0.489	0.023	
0.005	-0.148	0.068	
0.010	-0.220	0.076	
0.015	0.119	0.044	
0.020	-0.176	0.013	
0.025	-0.381	-0.033	
0.030	-0.016	-0.093	
0.035	0.007	-0.124	
0.040	-0.330	-0.132	
0.045	-0.129	-0.148	
0.050	0.169	-0.147	
0.055	-0.232	-0.121	
0.060	-0.232	-0.110	
0.065	0.175	-0.108	
0.070	-0.112	-0.087	
0.075	-0.280	-0.076	
0.080	0.166	-0.080	
0.085	0.183	-0.056	
0.090	-0.257	-0.021	
0.095	0.023	-0.014	
0.100	0.417	0.001	
0.105	-0.112	0.043	
0.110	-0.098	0.060	
0.115	0.478	0.065	
0.120	0.151	0.102	
0.125	-0.152	0.130	
0.130	0.348	0.129	
0.135	0.328	0.145	
0.140	-0.173	0.165	
0.145	0.128	0.149	
0.150	0.542	0.142	
0.155	-0.080	0.165	
0.160	-0.083	0.160	
0.165	0.450	0.137	
0.170	0.050	0.141	
0.175	-0.219	0.132	
0.180	0.263	0.097	
0.185	0.263	0.089	
0.190	-0.223	0.094	
0.195	0.006	0.071	
0.200	0.376	0.054	
0.205	-0.116	0.066	
0.210	-0.135	0.059	
0.215	0.363	0.044	
0.220	-0.031	0.055	
0.225	-0.245	0.052	
0.230	0.209	0.027	
0.235	0.159	0.025	
0.240	-0.231	0.033	
0.245	0.018	0.018	
0.250	0.345	0.014	
0.255	-0.147	0.035	
0.260	-0.129	0.036	
0.265	0.398	0.029	
0.270	0.010	0.052	
0.275	-0.202	0.063	
0.280	0.290	0.053	
0.285	0.288	0.068	
0.290	-0.168	0.096	
0.295	0.142	0.096	
0.300	0.481	0.106	
0.305	-0.087	0.138	
0.310	-0.064	0.139	
0.315	0.516	0.128	
0.320	0.052	0.146	
0.325	-0.196	0.148	
0.330	0.215	0.115	
0.335	0.111	0.094	
0.340	-0.301	0.073	
0.345	-0.078	0.022	
0.350	0.252	-0.016	
0.355	-0.220	-0.022	
0.360	-0.213	-0.040	
0.365	0.243	-0.060	
0.370	-0.095	-0.050	
0.375	-0.300	-0.048	
0.380	0.084	-0.066	
0.385	0.091	-0.065	
0.390	-0.294	-0.053	
0.395	-0.055	-0.063	
0.400	0.377	-0.058	
0.405	-0.104	-0.017	
0.410	0.047	0.016	
0.415	0.926	0.072	
0.420	0.643	0.203	
0.425	0.330	0.347	
0.430	0.831	0.453	
0.435	0.548	0.538	
0.440	-0.147	0.563	
0.445	0.081	0.487	
0.450	0.284	0.373	
0.455	-0.274	0.266	
0.460	-0.292	0.138	
0.465	0.072	0.014	
0.470	-0.185	-0.065	
0.475	-0.365	-0.123	
0.480	-0.019	-0.172	
0.485	-0.019	-0.183	
0.490	-0.356	-0.174	
0.495	-0.112	-0.177	
0.500	0.177	-0.164	
0.505	-0.231	-0.127	
0.510	-0.193	-0.107	
0.515	0.290	-0.093	
0.520	-0.058	-0.053	
0.525	-0.239	-0.027	
0.530	0.249	-0.023	
0.535	0.236	0.007	
0.540	-0.211	0.043	
0.545	0.120	0.051	
0.550	0.502	0.069	
0.555	-0.069	0.114	
0.560	-0.002	0.132	
0.565	0.612	0.141	
0.570	0.177	0.184	
0.575	-0.130	0.210	
0.580	0.397	0.198	
0.585	0.379	0.204	
0.590	-0.127	0.217	
0.595	0.217	0.199	
0.600	0.563	0.193	
0.605	-0.034	0.215	
0.610	-0.026	0.208	
0.615	0.507	0.186	
0.620	0.059	0.189	
0.625	-0.142	0.177	
0.630	0.394	0.147	
0.635	0.293	0.148	
0.640	-0.200	0.157	
0.645	0.078	0.132	
0.650	0.431	0.112	
0.655	-0.133	0.119	
0.660	-0.129	0.102	
0.665	0.371	0.074	
0.670	-0.046	0.073	
0.675	-0.271	0.059	
0.680	0.206	0.024	
0.685	0.194	0.018	
0.690	-0.234	0.028	
0.695	0.020	0.016	
0.700	0.376	0.016	
0.705	-0.152	0.041	
0.710	-0.112	0.044	
0.715	0.441	0.041	
0.720	-0.008	0.067	
0.725	-0.196	0.078	
0.730	0.311	0.065	
0.735	0.288	0.079	
0.740	-0.168	0.105	
0.745	0.160	0.104	
0.750	0.501	0.114	
0.755	-0.107	0.147	
0.760	-0.084	0.145	
0.765	0.434	0.125	
0.770	-0.003	0.128	
0.775	-0.234	0.114	
0.780	0.171	0.073	
0.785	0.044	0.046	
0.790	-0.341	0.021	
0.795	-0.110	-0.030	
0.800	0.139	-0.069	
0.805	-0.283	-0.081	
0.810	-0.214	-0.101	
0.815	0.201	-0.116	
0.820	-0.159	-0.101	
0.825	-0.341	-0.096	
0.830	0.035	-0.113	
0.835	-0.016	-0.114	
0.840	-0.292	-0.106	
0.845	0.088	-0.107	
0.850	0.614	-0.064	
0.855	0.162	0.037	
0.860	0.432	0.143	
0.865	1.097	0.266	
0.870	0.576	0.426	
0.875	0.064	0.532	
0.880	0.464	0.540	
0.885	0.232	0.501	
0.890	-0.306	0.418	
0.895	-0.150	0.276	
0.900	0.003	0.127	
0.905	-0.339	0.008	
0.910	-0.318	-0.098	
0.915	0.006	-0.177	
0.920	-0.254	-0.209	
0.925	-0.391	-0.227	
0.930	-0.006	-0.242	
0.935	-0.048	-0.226	
0.940	-0.379	-0.198	
0.945	-0.119	-0.191	
0.950	0.130	-0.175	
0.955	-0.257	-0.140	
0.960	-0.181	-0.123	
0.965	0.281	-0.107	
0.970	-0.089	-0.067	
0.975	-0.251	-0.041	
0.980	0.221	-0.038	
0.985	0.124	-0.015	
0.990	-0.263	0.009	
0.995	0.062	0.003	
1.000	0.455	0.014	
1.005	-0.115	0.057	
1.010	-0.068	0.074	
1.015	0.519	0.082	
1.020	0.046	0.117	
1.025	-0.203	0.132	
1.030	0.267	0.110	
1.035	0.194	0.104	
1.040	-0.217	0.101	
1.045	0.136	0.077	
1.050	0.495	0.076	
1.055	-0.109	0.108	
1.060	-0.112	0.112	
1.065	0.405	0.096	
1.070	-0.040	0.101	
1.075	-0.220	0.090	
1.080	0.292	0.059	
1.085	0.171	0.057	
1.090	-0.277	0.063	
1.095	-0.008	0.035	
1.100	0.307	0.016	
1.105	-0.211	0.022	
1.110	-0.145	0.009	
1.115	0.247	-0.011	
1.120	-0.150	-0.010	
1.125	-0.294	-0.023	
1.130	0.156	-0.052	
1.135	0.065	-0.053	
1.140	-0.304	-0.045	
1.145	-0.023	-0.058	
1.150	0.292	-0.057	
1.155	-0.196	-0.029	
1.160	-0.153	-0.022	
1.165	0.339	-0.022	
1.170	-0.052	0.004	
1.175	-0.211	0.017	
1.180	0.241	0.010	
1.185	0.166	0.024	
1.190	-0.232	0.043	
1.195	0.030	0.032	
1.200	0.217	0.022	
1.205	-0.240	0.024	
1.210	-0.184	-0.000	
1.215	0.195	-0.031	
1.220	-0.181	-0.039	
1.225	-0.352	-0.060	
1.230	0.003	-0.100	
1.235	-0.042	-0.119	
1.240	-0.359	-0.126	
1.245	-0.121	-0.148	
1.250	0.117	-0.153	
1.255	-0.301	-0.136	
1.260	-0.222	-0.135	
1.265	0.198	-0.135	
1.270	-0.161	-0.109	
1.275	-0.284	-0.095	
1.280	0.224	-0.094	
1.285	0.230	-0.058	
1.290	-0.133	-0.004	
1.295	0.389	0.039	
1.300	0.783	0.120	
1.305	0.139	0.234	
1.310	0.124	0.301	
1.315	0.450	0.317	
1.320	-0.112	0.309	
1.325	-0.300	0.244	
1.330	0.029	0.136	
1.335	-0.060	0.044	
1.340	-0.358	-0.030	
1.345	-0.119	-0.103	
1.350	0.059	-0.144	
1.355	-0.321	-0.153	
1.360	-0.263	-0.168	
1.365	0.122	-0.178	
1.370	-0.203	-0.160	
1.375	-0.326	-0.150	
1.380	0.059	-0.154	
1.385	-0.035	-0.139	
1.390	-0.312	-0.121	
1.395	-0.034	-0.121	
1.400	0.214	-0.107	
1.405	-0.194	-0.071	
1.410	-0.115	-0.054	
1.415	0.385	-0.037	
1.420	-0.017	0.007	
1.425	-0.147	0.037	
1.430	0.366	0.048	
1.435	0.273	0.084	
1.440	-0.171	0.120	
1.445	0.114	0.118	
1.450	0.427	0.117	
1.455	-0.064	0.137	
1.460	-0.008	0.135	
1.465	0.452	0.126	
1.470	-0.014	0.139	
1.475	-0.164	0.132	
1.480	0.327	0.103	
1.485	0.233	0.104	
1.490	-0.174	0.113	
1.495	0.174	0.100	
1.500	0.402	0.101	
1.505	-0.153	0.121	
1.510	-0.083	0.109	
1.515	0.334	0.084	
1.520	-0.074	0.080	
1.525	-0.213	0.062	
1.530	0.188	0.027	
1.535	0.070	0.016	
1.540	-0.251	0.011	
1.545	0.035	-0.012	
1.550	0.264	-0.017	
1.555	-0.200	0.000	
1.560	-0.112	-0.003	
1.565	0.295	-0.010	
1.570	-0.087	0.007	
1.575	-0.214	0.009	
1.580	0.259	-0.003	
1.585	0.152	0.012	
1.590	-0.219	0.034	
1.595	0.105	0.030	
1.600	0.327	0.037	
1.605	-0.147	0.062	
1.610	-0.101	0.060	
1.615	0.357	0.048	
1.620	-0.051	0.059	
1.625	-0.194	0.057	
1.630	0.259	0.037	
1.635	0.146	0.042	
1.640	-0.223	0.052	
1.645	0.064	0.036	
1.650	0.220	0.028	
1.655	-0.252	0.030	
1.660	-0.199	0.003	
1.665	0.186	-0.032	
1.670	-0.162	-0.043	
1.675	-0.289	-0.060	
1.680	0.084	-0.088	
1.685	-0.038	-0.092	
1.690	-0.318	-0.092	
1.695	-0.054	-0.109	
1.700	0.116	-0.111	
1.705	-0.286	-0.097	
1.710	-0.205	-0.102	
1.715	0.247	-0.107	
1.720	-0.069	-0.079	
1.725	-0.104	-0.051	
1.730	0.585	-0.013	
1.735	0.551	0.082	
1.740	0.038	0.194	
1.745	0.406	0.260	
1.750	0.507	0.308	
1.755	-0.202	0.330	
1.760	-0.179	0.277	
1.765	0.114	0.179	
1.770	-0.228	0.090	
1.775	-0.364	-0.003	
1.780	-0.037	-0.094	
1.785	-0.152	-0.149	
1.790	-0.393	-0.182	
1.795	-0.100	-0.213	
1.800	0.061	-0.213	
1.805	-0.309	-0.187	
1.810	-0.202	-0.175	
1.815	0.214	-0.160	
1.820	-0.129	-0.118	
1.825	-0.225	-0.088	
1.830	0.218	-0.074	
1.835	0.072	-0.040	
1.840	-0.240	-0.011	
1.845	0.067	-0.010	
1.850	0.241	-0.001	
1.855	-0.156	0.021	
1.860	-0.040	0.023	
1.865	0.394	0.027	
1.870	-0.075	0.055	
1.875	-0.229	0.059	
1.880	0.264	0.038	
1.885	0.117	0.040	
1.890	-0.213	0.046	
1.895	0.143	0.034	
1.900	0.374	0.042	
1.905	-0.147	0.072	
1.910	-0.038	0.076	
1.915	0.466	0.075	
1.920	0.026	0.103	
1.925	-0.132	0.116	
1.930	0.270	0.102	
1.935	0.130	0.101	
1.940	-0.236	0.096	
1.945	0.035	0.061	
1.950	0.246	0.037	
1.955	-0.202	0.033	
1.960	-0.122	0.012	
1.965	0.288	-0.008	
1.970	-0.141	-0.002	
1.975	-0.242	-0.009	
1.980	0.195	-0.031	
1.985	0.056	-0.026	
1.990	-0.257	-0.017	
1.995	0.055	-0.028	
2.000	0.275	-0.022	
2.005	-0.217	0.003	
2.010	-0.112	0.002	
2.015	0.372	-0.002	
2.020	-0.045	0.023	
2.025	-0.184	0.036	
2.030	0.267	0.029	
2.035	0.122	0.042	
2.040	-0.217	0.054	
2.045	0.172	0.044	
2.050	0.406	0.055	
2.055	-0.138	0.090	
2.060	-0.038	0.094	
2.065	0.417	0.088	
2.070	-0.051	0.104	
2.075	-0.179	0.098	
2.080	0.258	0.071	
2.085	0.032	0.061	
2.090	-0.275	0.047	
2.095	-0.017	0.007	
2.100	0.146	-0.022	
2.105	-0.252	-0.031	
2.110	-0.153	-0.053	
2.115	0.191	-0.071	
2.120	-0.179	-0.065	
2.125	-0.277	-0.070	
2.130	0.093	-0.089	
2.135	-0.049	-0.089	
2.140	-0.292	-0.086	
2.145	0.009	-0.097	
2.150	0.302	-0.084	
2.155	-0.104	-0.038	
2.160	0.160	0.003	
2.165	0.758	0.068	
2.170	0.351	0.180	
2.175	0.099	0.274	
2.180	0.589	0.323	
2.185	0.269	0.358	
2.190	-0.188	0.353	
2.195	0.017	0.281	
2.200	0.094	0.191	
2.205	-0.284	0.108	
2.210	-0.187	0.016	
2.215	0.114	-0.057	
2.220	-0.194	-0.089	
2.225	-0.258	-0.113	
2.230	0.108	-0.132	
2.235	-0.064	-0.122	
2.240	-0.321	-0.110	
2.245	-0.042	-0.119	
2.250	0.146	-0.113	
2.255	-0.231	-0.088	
2.260	-0.103	-0.079	
2.265	0.301	-0.066	
2.270	-0.087	-0.029	
2.275	-0.170	-0.007	
2.280	0.269	-0.002	
2.285	0.076	0.021	
2.290	-0.197	0.039	
2.295	0.134	0.032	
2.300	0.340	0.042	
2.305	-0.109	0.071	
2.310	-0.011	0.078	
2.315	0.423	0.080	
2.320	-0.026	0.104	
2.325	-0.113	0.108	
2.330	0.374	0.096	
2.335	0.146	0.108	
2.340	-0.181	0.117	
2.345	0.178	0.098	
2.350	0.363	0.095	
2.355	-0.129	0.112	
2.360	-0.042	0.103	
2.365	0.345	0.085	
2.370	-0.075	0.088	
2.375	-0.162	0.074	
2.380	0.246	0.046	
2.385	0.070	0.043	
2.390	-0.228	0.040	
2.395	0.062	0.017	
2.400	0.218	0.007	
2.405	-0.170	0.017	
2.410	-0.054	0.010	
2.415	0.305	0.006	
2.420	-0.122	0.023	
2.425	-0.210	0.020	
2.430	0.235	0.001	
2.435	0.061	0.006	
2.440	-0.216	0.014	
2.445	0.188	0.007	
2.450	0.359	0.026	
2.455	-0.205	0.063	
2.460	-0.092	0.063	
2.465	0.389	0.051	
2.470	-0.029	0.066	
2.475	-0.127	0.071	
2.480	0.372	0.064	
2.485	0.145	0.084	
2.490	-0.199	0.100	
2.495	0.175	0.086	
2.500	0.348	0.086	
2.505	-0.170	0.102	
2.510	-0.084	0.088	
2.515	0.313	0.064	
2.520	-0.124	0.059	
2.525	-0.234	0.038	
2.530	0.168	0.001	
2.535	-0.016	-0.013	
2.540	-0.291	-0.025	
2.545	-0.002	-0.054	
2.550	0.168	-0.064	
2.555	-0.263	-0.054	
2.560	-0.138	-0.062	
2.565	0.279	-0.066	
2.570	-0.182	-0.045	
2.575	-0.283	-0.044	
2.580	0.189	-0.060	
2.585	0.122	-0.048	
2.590	-0.130	-0.018	
2.595	0.444	0.013	
2.600	0.704	0.094	
2.605	0.148	0.209	
2.610	0.295	0.286	
2.615	0.649	0.335	
2.620	0.009	0.372	
2.625	-0.184	0.343	
2.630	0.201	0.259	
2.635	-0.064	0.176	
2.640	-0.353	0.091	
2.645	-0.069	-0.007	
2.650	0.059	-0.074	
2.655	-0.312	-0.105	
2.660	-0.231	-0.138	
2.665	0.171	-0.156	
2.670	-0.188	-0.140	
2.675	-0.252	-0.127	
2.680	0.166	-0.122	
2.685	-0.052	-0.095	
2.690	-0.310	-0.076	
2.695	0.006	-0.084	
2.700	0.203	-0.076	
2.705	-0.214	-0.049	
2.710	-0.057	-0.040	
2.715	0.388	-0.025	
2.720	-0.084	0.016	
2.725	-0.161	0.036	
2.730	0.337	0.036	
2.735	0.157	0.060	
2.740	-0.187	0.083	
2.745	0.186	0.077	
2.750	0.368	0.085	
2.755	-0.127	0.111	
2.760	0.047	0.110	
2.765	0.525	0.112	
2.770	0.006	0.143	
2.775	-0.129	0.151	
2.780	0.400	0.134	
2.785	0.189	0.140	
2.790	-0.156	0.146	
2.795	0.246	0.128	
2.800	0.400	0.129	
2.805	-0.150	0.147	
2.810	-0.022	0.133	
2.815	0.398	0.110	
2.820	-0.089	0.111	
2.825	-0.174	0.093	
2.830	0.302	0.060	
2.835	0.041	0.055	
2.840	-0.243	0.049	
2.845	0.137	0.023	
2.850	0.330	0.022	
2.855	-0.136	0.048	
2.860	0.009	0.055	
2.865	0.452	0.064	
2.870	-0.029	0.097	
2.875	-0.139	0.107	
2.880	0.391	0.096	
2.885	0.177	0.111	
2.890	-0.200	0.123	
2.895	0.178	0.104	
2.900	0.389	0.101	
2.905	-0.124	0.119	
2.910	0.088	0.116	
2.915	0.516	0.120	
2.920	0.023	0.152	
2.925	-0.118	0.161	
2.930	0.405	0.144	
2.935	0.233	0.152	
2.940	-0.184	0.159	
2.945	0.169	0.135	
2.950	0.336	0.121	
2.955	-0.202	0.121	
2.960	-0.133	0.090	
2.965	0.229	0.047	
2.970	-0.177	0.024	
2.975	-0.255	-0.010	
2.980	0.221	-0.046	
2.985	0.059	-0.044	
2.990	-0.248	-0.030	
2.995	0.078	-0.035	
3.000	0.217	-0.025	
3.005	-0.243	-0.003	
3.010	-0.090	-0.008	
3.015	0.357	-0.012	
3.020	-0.080	0.013	
3.025	-0.095	0.028	
3.030	0.654	0.048	
3.035	0.602	0.132	
3.040	0.186	0.244	
3.045	0.649	0.328	
3.050	0.669	0.409	
3.055	-0.086	0.461	
3.060	-0.014	0.423	
3.065	0.292	0.335	
3.070	-0.202	0.247	
3.075	-0.313	0.138	
3.080	0.029	0.022	
3.085	-0.126	-0.056	
3.090	-0.367	-0.112	
3.095	-0.069	-0.161	
3.100	0.067	-0.176	
3.105	-0.300	-0.162	
3.110	-0.159	-0.157	
3.115	0.230	-0.143	
3.120	-0.165	-0.104	
3.125	-0.231	-0.081	
3.130	0.240	-0.072	
3.135	0.017	-0.043	
3.140	-0.251	-0.019	
3.145	0.128	-0.020	
3.150	0.243	-0.006	
3.155	-0.208	0.021	
3.160	-0.058	0.020	
3.165	0.397	0.019	
3.170	-0.038	0.047	
3.175	-0.112	0.062	
3.180	0.469	0.067	
3.185	0.226	0.106	
3.190	-0.173	0.140	
3.195	0.249	0.137	
3.200	0.431	0.145	
3.205	-0.133	0.167	
3.210	0.058	0.157	
3.215	0.568	0.149	
3.220	0.007	0.173	
3.225	-0.153	0.172	
3.230	0.310	0.141	
3.235	0.097	0.125	
3.240	-0.217	0.108	
3.245	0.130	0.070	
3.250	0.322	0.055	
3.255	-0.196	0.064	
3.260	-0.063	0.051	
3.265	0.383	0.038	
3.270	-0.100	0.052	
3.275	-0.182	0.050	
3.280	0.302	0.032	
3.285	0.061	0.040	
3.290	-0.213	0.046	
3.295	0.180	0.032	
3.300	0.331	0.041	
3.305	-0.208	0.067	
3.310	-0.066	0.061	
3.315	0.388	0.049	
3.320	-0.081	0.063	
3.325	-0.156	0.061	
3.330	0.376	0.048	
3.335	0.159	0.068	
3.340	-0.161	0.089	
3.345	0.308	0.090	
3.350	0.406	0.114	
3.355	-0.156	0.149	
3.360	0.023	0.144	
3.365	0.490	0.133	
3.370	-0.075	0.145	
3.375	-0.161	0.133	
3.380	0.380	0.102	
3.385	0.070	0.098	
3.390	-0.280	0.090	
3.395	0.050	0.049	
3.400	0.163	0.019	
3.405	-0.274	0.005	
3.410	-0.122	-0.026	
3.415	0.285	-0.047	
3.420	-0.159	-0.035	
3.425	-0.252	-0.036	
3.430	0.185	-0.052	
3.435	-0.016	-0.046	
3.440	-0.309	-0.041	
3.445	0.026	-0.059	
3.450	0.232	-0.059	
3.455	-0.184	-0.033	
3.460	0.102	-0.016	
3.465	0.780	0.032	
3.470	0.295	0.140	
3.475	0.183	0.239	
3.480	0.840	0.313	
3.485	0.360	0.394	
3.490	-0.193	0.424	
3.495	0.127	0.366	
3.500	0.174	0.280	
3.505	-0.304	0.194	
3.510	-0.174	0.088	
3.515	0.145	-0.004	
3.520	-0.226	-0.054	
3.525	-0.294	-0.096	
3.530	0.087	-0.132	
3.535	-0.087	-0.136	
3.540	-0.339	-0.132	
3.545	0.001	-0.141	
3.550	0.137	-0.129	
3.555	-0.265	-0.098	
3.560	-0.127	-0.089	
3.565	0.264	-0.080	
3.570	-0.148	-0.049	
3.575	-0.177	-0.035	
3.580	0.316	-0.030	
3.585	-0.002	-0.001	
3.590	-0.292	0.014	
3.595	0.107	-0.003	
3.600	0.264	-0.002	
3.605	-0.207	0.018	
3.610	-0.013	0.017	
3.615	0.486	0.026	
3.620	-0.043	0.067	
3.625	-0.110	0.088	
3.630	0.469	0.092	
3.635	0.178	0.123	
3.640	-0.187	0.145	
3.645	0.281	0.133	
3.650	0.412	0.139	
3.655	-0.148	0.160	
3.660	-0.006	0.146	
3.665	0.405	0.124	
3.670	-0.100	0.122	
3.675	-0.177	0.100	
3.680	0.302	0.064	
3.685	0.033	0.055	
3.690	-0.266	0.046	
3.695	0.119	0.015	
3.700	0.220	0.006	
3.705	-0.248	0.015	
3.710	-0.084	-0.000	
3.715	0.331	-0.012	
3.720	-0.148	0.005	
3.725	-0.219	0.004	
3.730	0.236	-0.014	
3.735	-0.028	-0.009	
3.740	-0.269	-0.010	
3.745	0.157	-0.027	
3.750	0.253	-0.017	
3.755	-0.237	0.011	
3.760	-0.081	0.009	
3.765	0.310	0.002	
3.770	-0.152	0.016	
3.775	-0.197	0.011	
3.780	0.392	-0.000	
3.785	0.130	0.027	
3.790	-0.243	0.054	
3.795	0.142	0.048	
3.800	0.221	0.048	
3.805	-0.214	0.056	
3.810	-0.072	0.037	
3.815	0.319	0.019	
3.820	-0.152	0.026	
3.825	-0.252	0.013	
3.830	0.139	-0.019	
3.835	-0.097	-0.035	
3.840	-0.375	-0.056	
3.845	-0.077	-0.098	
3.850	0.030	-0.124	
3.855	-0.358	-0.131	
3.860	-0.203	-0.151	
3.865	0.097	-0.164	
3.870	-0.251	-0.152	
3.875	-0.306	-0.151	
3.880	0.046	-0.160	
3.885	-0.118	-0.150	
3.890	-0.313	-0.141	
3.895	0.166	-0.137	
3.900	0.513	-0.085	
3.905	0.082	0.015	
3.910	0.420	0.112	
3.915	0.843	0.220	
3.920	0.178	0.338	
3.925	-0.077	0.386	
3.930	0.348	0.355	
3.935	-0.057	0.301	
3.940	-0.347	0.213	
3.945	-0.095	0.092	
3.950	-0.061	-0.013	
3.955	-0.404	-0.090	
3.960	-0.257	-0.164	
3.965	-0.014	-0.213	
3.970	-0.307	-0.225	
3.975	-0.355	-0.235	
3.980	0.010	-0.243	
3.985	-0.136	-0.223	
3.990	-0.367	-0.202	
3.995	-0.051	-0.196	
4.000	0.053	-0.177	
4.005	-0.303	-0.146	
4.010	-0.100	-0.134	
4.015	0.266	-0.114	
4.020	-0.177	-0.072	
4.025	-0.216	-0.052	
4.030	0.334	-0.045	
4.035	0.094	-0.008	
4.040	-0.202	0.026	
4.045	0.244	0.035	
4.050	0.388	0.064	
4.055	-0.152	0.107	
4.060	0.062	0.115	
4.065	0.472	0.118	
4.070	-0.081	0.141	
4.075	-0.132	0.134	
4.080	0.397	0.108	
4.085	0.119	0.112	
4.090	-0.177	0.114	
4.095	0.250	0.095	
4.100	0.316	0.097	
4.105	-0.188	0.113	
4.110	-0.006	0.096	
4.115	0.360	0.078	
4.120	-0.138	0.081	
4.125	-0.158	0.064	
4.130	0.311	0.038	
4.135	0.000	0.039	
4.140	-0.277	0.034	
4.145	0.097	0.004	
4.150	0.166	-0.007	
4.155	-0.278	-0.005	
4.160	-0.113	-0.026	
4.165	0.302	-0.041	
4.170	-0.164	-0.025	
4.175	-0.190	-0.023	
4.180	0.310	-0.029	
4.185	-0.031	-0.008	
4.190	-0.283	0.003	
4.195	0.108	-0.015	
4.200	0.203	-0.015	
4.205	-0.222	0.001	
4.210	-0.023	-0.003	
4.215	0.461	0.004	
4.220	-0.084	0.045	
4.225	-0.119	0.064	
4.230	0.466	0.069	
4.235	0.162	0.103	
4.240	-0.193	0.128	
4.245	0.298	0.121	
4.250	0.362	0.130	
4.255	-0.177	0.149	
4.260	-0.005	0.131	
4.265	0.388	0.108	
4.270	-0.155	0.104	
4.275	-0.220	0.077	
4.280	0.233	0.033	
4.285	-0.089	0.012	
4.290	-0.324	-0.013	
4.295	0.009	-0.056	
4.300	0.079	-0.078	
4.305	-0.278	-0.079	
4.310	-0.089	-0.091	
4.315	0.273	-0.089	
4.320	-0.193	-0.059	
4.325	-0.223	-0.049	
4.330	0.305	-0.050	
4.335	0.068	-0.021	
4.340	-0.142	0.011	
4.345	0.617	0.044	
4.350	0.974	0.147	
4.355	0.467	0.310	
4.360	0.718	0.455	
4.365	0.979	0.575	
4.370	0.142	0.658	
4.375	-0.064	0.632	
4.380	0.382	0.521	
4.385	-0.026	0.402	
4.390	-0.323	0.269	
4.395	-0.006	0.123	
4.400	0.042	0.015	
4.405	-0.355	-0.054	
4.410	-0.194	-0.117	
4.415	0.122	-0.156	
4.420	-0.225	-0.154	
4.425	-0.248	-0.151	
4.430	0.192	-0.146	
4.435	-0.052	-0.113	
4.440	-0.258	-0.084	
4.445	0.194	-0.071	
4.450	0.302	-0.032	
4.455	-0.194	0.021	
4.460	0.023	0.040	
4.465	0.481	0.058	
4.470	-0.049	0.099	
4.475	-0.049	0.116	
4.480	0.580	0.123	
4.485	0.258	0.167	
4.490	-0.107	0.203	
4.495	0.418	0.205	
4.500	0.498	0.225	
4.505	-0.080	0.254	
4.510	0.250	0.249	
4.515	0.675	0.251	
4.520	0.036	0.281	
4.525	-0.016	0.278	
4.530	0.573	0.252	
4.535	0.304	0.258	
4.540	-0.113	0.263	
4.545	0.342	0.236	
4.550	0.440	0.226	
4.555	-0.139	0.229	
4.560	0.088	0.200	
4.565	0.490	0.173	
4.570	-0.097	0.173	
4.575	-0.118	0.149	
4.580	0.501	0.118	
4.585	0.154	0.128	
4.590	-0.164	0.140	
4.595	0.290	0.125	
4.600	0.356	0.130	
4.605	-0.144	0.148	
4.610	0.081	0.137	
4.615	0.490	0.129	
4.620	-0.074	0.147	
4.625	-0.097	0.140	
4.630	0.443	0.119	
4.635	0.068	0.126	
4.640	-0.210	0.124	
4.645	0.220	0.093	
4.650	0.314	0.086	
4.655	-0.162	0.099	
4.660	0.058	0.089	
4.665	0.458	0.086	
4.670	-0.038	0.113	
4.675	-0.078	0.119	
4.680	0.496	0.114	
4.685	0.125	0.138	
4.690	-0.165	0.151	
4.695	0.270	0.133	
4.700	0.295	0.130	
4.705	-0.181	0.136	
4.710	0.004	0.111	
4.715	0.304	0.084	
4.720	-0.199	0.075	
4.725	-0.220	0.042	
4.730	0.163	-0.004	
4.735	-0.127	-0.027	
4.740	-0.318	-0.052	
4.745	-0.014	-0.091	
4.750	-0.006	-0.109	
4.755	-0.332	-0.115	
4.760	-0.109	-0.132	
4.765	0.148	-0.135	
4.770	-0.269	-0.115	
4.775	-0.294	-0.116	
4.780	0.131	-0.128	
4.785	-0.017	-0.113	
4.790	-0.138	-0.086	
4.795	0.586	-0.044	
4.800	0.838	0.072	
4.805	0.321	0.234	
4.810	0.554	0.365	
4.815	0.731	0.462	
4.820	-0.054	0.514	
4.825	-0.173	0.466	
4.830	0.142	0.345	
4.835	-0.159	0.219	
4.840	-0.379	0.091	
4.845	-0.155	-0.038	
4.850	-0.170	-0.134	
4.855	-0.446	-0.200	
4.860	-0.254	-0.256	
4.865	-0.045	-0.283	
4.870	-0.330	-0.275	
4.875	-0.310	-0.267	
4.880	0.036	-0.256	
4.885	-0.152	-0.221	
4.890	-0.329	-0.191	
4.895	0.003	-0.178	
4.900	0.024	-0.153	
4.905	-0.298	-0.123	
4.910	-0.130	-0.119	
4.915	0.203	-0.111	
4.920	-0.188	-0.082	
4.925	-0.181	-0.070	
4.930	0.310	-0.062	
4.935	0.007	-0.026	
4.940	-0.188	0.003	
4.945	0.279	0.013	
4.950	0.325	0.047	
4.955	-0.144	0.091	
4.960	0.093	0.102	
4.965	0.434	0.111	
4.970	-0.095	0.135	
4.975	-0.122	0.127	
4.980	0.379	0.101	
4.985	0.039	0.101	
4.990	-0.197	0.095	
4.995	0.236	0.068	
5.000	0.276	0.068	
5.005	-0.179	0.084	
5.010	-0.026	0.071	
5.015	0.324	0.056	
5.020	-0.145	0.060	
5.025	-0.176	0.044	
5.030	0.212	0.015	
5.035	-0.078	0.006	
5.040	-0.263	-0.009	
5.045	0.072	-0.040	
5.050	0.105	-0.048	
5.055	-0.254	-0.042	
5.060	-0.093	-0.054	
5.065	0.180	-0.062	
5.070	-0.187	-0.051	
5.075	-0.167	-0.053	
5.080	0.267	-0.055	
5.085	-0.061	-0.032	
5.090	-0.234	-0.019	
5.095	0.146	-0.027	
5.100	0.159	-0.016	
5.105	-0.200	0.005	
5.110	0.018	0.004	
5.115	0.351	0.011	
5.120	-0.107	0.041	
5.125	-0.141	0.048	
5.130	0.313	0.039	
5.135	0.061	0.053	
5.140	-0.174	0.062	
5.145	0.201	0.051	
5.150	0.223	0.057	
5.155	-0.193	0.070	
5.160	-0.042	0.054	
5.165	0.204	0.033	
5.170	-0.200	0.025	
5.175	-0.213	-0.003	
5.180	0.152	-0.038	
5.185	-0.095	-0.048	
5.190	-0.265	-0.058	
5.195	0.046	-0.079	
5.200	0.032	-0.081	
5.205	-0.304	-0.076	
5.210	-0.129	-0.092	
5.215	0.085	-0.105	
5.220	-0.237	-0.101	
5.225	-0.203	-0.108	
5.230	0.290	-0.107	
5.235	0.145	-0.063	
5.240	0.026	-0.002	
5.245	0.670	0.068	
5.250	0.722	0.187	
5.255	0.154	0.315	
5.260	0.366	0.385	
5.265	0.496	0.412	
5.270	-0.121	0.406	
5.275	-0.174	0.332	
5.280	0.117	0.218	
5.285	-0.155	0.117	
5.290	-0.326	0.022	
5.295	-0.025	-0.067	
5.300	-0.057	-0.118	
5.305	-0.359	-0.145	
5.310	-0.155	-0.174	
5.315	0.075	-0.184	
5.320	-0.222	-0.165	
5.325	-0.184	-0.151	
5.330	0.229	-0.133	
5.335	-0.051	-0.089	
5.340	-0.222	-0.055	
5.345	0.130	-0.045	
5.350	0.128	-0.025	
5.355	-0.213	-0.002	
5.360	0.033	-0.002	
5.365	0.377	0.008	
5.370	-0.101	0.044	
5.375	-0.084	0.057	
5.380	0.372	0.058	
5.385	0.070	0.082	
5.390	-0.126	0.096	
5.395	0.336	0.092	
5.400	0.319	0.113	
5.405	-0.135	0.142	
5.410	0.134	0.138	
5.415	0.453	0.138	
5.420	-0.052	0.158	
5.425	-0.032	0.153	
5.430	0.432	0.137	
5.435	0.104	0.147	
5.440	-0.107	0.149	
5.445	0.290	0.131	
5.450	0.238	0.131	
5.455	-0.199	0.133	
5.460	-0.008	0.101	
5.465	0.296	0.071	
5.470	-0.144	0.063	
5.475	-0.147	0.041	
5.480	0.218	0.013	
5.485	-0.068	0.007	
5.490	-0.239	-0.005	
5.495	0.124	-0.029	
5.500	0.146	-0.028	
5.505	-0.222	-0.014	
5.510	-0.029	-0.019	
5.515	0.233	-0.020	
5.520	-0.162	-0.005	
5.525	-0.142	-0.007	
5.530	0.301	-0.013	
5.535	-0.013	0.007	
5.540	-0.176	0.020	
5.545	0.272	0.018	
5.550	0.249	0.043	
5.555	-0.129	0.076	
5.560	0.171	0.086	
5.565	0.406	0.104	
5.570	-0.113	0.133	
5.575	-0.083	0.128	
5.580	0.389	0.107	
5.585	0.050	0.111	
5.590	-0.159	0.108	
5.595	0.253	0.086	
5.600	0.243	0.086	
5.605	-0.162	0.097	
5.610	-0.006	0.081	
5.615	0.218	0.060	
5.620	-0.194	0.049	
5.625	-0.187	0.018	
5.630	0.183	-0.018	
5.635	-0.104	-0.029	
5.640	-0.260	-0.042	
5.645	0.090	-0.066	
5.650	0.046	-0.067	
5.655	-0.269	-0.059	
5.660	-0.051	-0.069	
5.665	0.266	-0.066	
5.670	-0.164	-0.038	
5.675	-0.119	-0.026	
5.680	0.472	-0.012	
5.685	0.272	0.048	
5.690	0.087	0.119	
5.695	0.638	0.182	
5.700	0.524	0.267	
5.705	-0.089	0.333	
5.710	0.036	0.321	
5.715	0.181	0.264	
5.720	-0.266	0.193	
5.725	-0.269	0.094	
5.730	0.010	-0.008	
5.735	-0.210	-0.079	
5.740	-0.342	-0.133	
5.745	-0.037	-0.178	
5.750	-0.052	-0.189	
5.755	-0.313	-0.181	
5.760	-0.122	-0.180	
5.765	0.065	-0.169	
5.770	-0.263	-0.145	
5.775	-0.217	-0.137	
5.780	0.195	-0.131	
5.785	-0.068	-0.099	
5.790	-0.223	-0.073	
5.795	0.162	-0.062	
5.800	0.119	-0.036	
5.805	-0.220	-0.008	
5.810	0.044	-0.005	
5.815	0.322	0.005	
5.820	-0.145	0.035	
5.825	-0.098	0.040	
5.830	0.388	0.037	
5.835	0.033	0.062	
5.840	-0.158	0.076	
5.845	0.302	0.070	
5.850	0.233	0.086	
5.855	-0.170	0.105	
5.860	0.124	0.096	
5.865	0.432	0.097	
5.870	-0.075	0.122	
5.875	-0.052	0.122	
5.880	0.438	0.112	
5.885	0.087	0.128	
5.890	-0.145	0.134	
5.895	0.253	0.114	
5.900	0.178	0.109	
5.905	-0.174	0.106	
5.910	0.035	0.079	
5.915	0.236	0.057	
5.920	-0.187	0.050	
5.925	-0.155	0.025	
5.930	0.273	-0.003	
5.935	-0.066	-0.001	
5.940	-0.211	-0.003	
5.945	0.236	-0.015	
5.950	0.165	0.001	
5.955	-0.193	0.027	
5.960	0.088	0.028	
5.965	0.318	0.037	
5.970	-0.153	0.061	
5.975	-0.095	0.058	
5.980	0.351	0.046	
5.985	0.001	0.060	
5.990	-0.185	0.063	
5.995	0.266	0.048	
6.000	0.275	0.061	
6.005	-0.153	0.086	
6.010	0.122	0.087	
6.015	0.398	0.094	
6.020	-0.077	0.119	
6.025	-0.038	0.119	
6.030	0.392	0.108	
6.035	-0.006	0.117	
6.040	-0.188	0.108	
6.045	0.194	0.075	
6.050	0.107	0.060	
6.055	-0.246	0.048	
6.060	-0.022	0.015	
6.065	0.250	-0.006	
6.070	-0.185	-0.002	
6.075	-0.165	-0.012	
6.080	0.233	-0.028	
6.085	-0.110	-0.022	
6.090	-0.258	-0.026	
6.095	0.110	-0.047	
6.100	0.017	-0.050	
6.105	-0.269	-0.048	
6.110	0.021	-0.061	
6.115	0.398	-0.048	
6.120	-0.061	0.002	
6.125	0.111	0.044	
6.130	0.794	0.101	
6.135	0.496	0.211	
6.140	0.111	0.314	
6.145	0.539	0.365	
6.150	0.343	0.393	
6.155	-0.199	0.382	
6.160	-0.045	0.301	
6.165	0.140	0.199	
6.170	-0.295	0.110	
6.175	-0.254	0.013	
6.180	0.087	-0.070	
6.185	-0.200	-0.111	
6.190	-0.297	-0.139	
6.195	0.169	-0.156	
6.200	0.159	-0.126	
6.205	-0.225	-0.076	
6.210	0.035	-0.049	
6.215	0.284	-0.021	
6.220	-0.200	0.015	
6.225	-0.153	0.018	
6.230	0.301	0.006	
6.235	-0.051	0.018	
6.240	-0.214	0.020	
6.245	0.198	0.004	
6.250	0.130	0.010	
6.255	-0.234	0.021	
6.260	0.026	0.009	
6.265	0.356	0.009	
6.270	-0.127	0.035	
6.275	-0.083	0.043	
6.280	0.356	0.041	
6.285	-0.075	0.059	
6.290	-0.237	0.055	
6.295	0.156	0.025	
6.300	0.104	0.013	
6.305	-0.228	0.012	
6.310	0.038	-0.006	
6.315	0.299	-0.007	
6.320	-0.167	0.016	
6.325	-0.112	0.017	
6.330	0.330	0.012	
6.335	-0.069	0.029	
6.340	-0.246	0.030	
6.345	0.149	0.006	
6.350	0.038	-0.003	
6.355	-0.284	-0.010	
6.360	-0.025	-0.037	
6.365	0.240	-0.048	
6.370	-0.219	-0.033	
6.375	-0.165	-0.037	
6.380	0.270	-0.045	
6.385	-0.034	-0.025	
6.390	-0.211	-0.011	
6.395	0.232	-0.012	
6.400	0.154	0.008	
6.405	-0.222	0.031	
6.410	0.101	0.028	
6.415	0.351	0.037	
6.420	-0.161	0.064	
6.425	-0.083	0.063	
6.430	0.449	0.056	
6.435	0.000	0.080	
6.440	-0.150	0.091	
6.445	0.371	0.083	
6.450	0.224	0.101	
6.455	-0.185	0.121	
6.460	0.140	0.108	
6.465	0.429	0.106	
6.470	-0.112	0.126	
6.475	-0.066	0.119	
6.480	0.394	0.101	
6.485	-0.040	0.105	
6.490	-0.214	0.092	
6.495	0.236	0.058	
6.500	0.091	0.047	
6.505	-0.277	0.039	
6.510	-0.029	0.005	
6.515	0.192	-0.019	
6.520	-0.242	-0.022	
6.525	-0.196	-0.042	
6.530	0.186	-0.065	
6.535	-0.148	-0.063	
6.540	-0.271	-0.068	
6.545	0.143	-0.083	
6.550	0.117	-0.069	
6.555	-0.214	-0.042	
6.560	0.175	-0.027	
6.565	0.574	0.018	
6.570	0.075	0.101	
6.575	0.292	0.170	
6.580	0.802	0.240	
6.585	0.238	0.329	
6.590	-0.142	0.364	
6.595	0.292	0.325	
6.600	0.091	0.271	
6.605	-0.295	0.202	
6.610	-0.080	0.105	
6.615	0.104	0.021	
6.620	-0.318	-0.033	
6.625	-0.262	-0.090	
6.630	0.116	-0.135	
6.635	-0.187	-0.142	
6.640	-0.286	-0.144	
6.645	0.119	-0.148	
6.650	-0.037	-0.127	
6.655	-0.346	-0.107	
6.660	-0.074	-0.114	
6.665	0.171	-0.112	
6.670	-0.231	-0.088	
6.675	-0.148	-0.080	
6.680	0.304	-0.072	
6.685	-0.098	-0.038	
6.690	-0.220	-0.020	
6.695	0.339	-0.016	
6.700	0.250	0.021	
6.705	-0.177	0.066	
6.710	0.185	0.080	
6.715	0.452	0.101	
6.720	-0.112	0.138	
6.725	-0.040	0.140	
6.730	0.501	0.129	
6.735	0.020	0.145	
6.740	-0.164	0.144	
6.745	0.366	0.119	
6.750	0.230	0.122	
6.755	-0.193	0.130	
6.760	0.180	0.111	
6.765	0.437	0.109	
6.770	-0.138	0.130	
6.775	-0.040	0.122	
6.780	0.489	0.108	
6.785	-0.063	0.122	
6.790	-0.242	0.111	
6.795	0.284	0.074	
6.800	0.117	0.062	
6.805	-0.297	0.055	
6.810	-0.003	0.019	
6.815	0.276	-0.003	
6.820	-0.219	0.002	
6.825	-0.147	-0.010	
6.830	0.382	-0.021	
6.835	-0.057	0.004	
6.840	-0.228	0.017	
6.845	0.261	0.009	
6.850	0.171	0.025	
6.855	-0.237	0.045	
6.860	0.101	0.037	
6.865	0.421	0.044	
6.870	-0.148	0.076	
6.875	-0.057	0.081	
6.880	0.521	0.080	
6.885	-0.028	0.109	
6.890	-0.205	0.115	
6.895	0.360	0.094	
6.900	0.252	0.101	
6.905	-0.223	0.115	
6.910	0.116	0.098	
6.915	0.379	0.089	
6.920	-0.205	0.099	
6.925	-0.135	0.078	
6.930	0.347	0.047	
6.935	-0.107	0.044	
6.940	-0.292	0.027	
6.945	0.151	-0.011	
6.950	0.006	-0.027	
6.955	-0.330	-0.038	
6.960	-0.078	-0.070	
6.965	0.178	-0.087	
6.970	-0.240	-0.078	
6.975	-0.156	-0.080	
6.980	0.324	-0.077	
6.985	-0.121	-0.044	
6.990	-0.275	-0.029	
6.995	0.203	-0.037	
7.000	0.163	-0.021	
7.005	-0.194	0.006	
7.010	0.321	0.023	
7.015	0.698	0.080	
7.020	0.133	0.178	
7.025	0.249	0.250	
7.030	0.722	0.301	
7.035	0.059	0.352	
7.040	-0.177	0.342	
7.045	0.290	0.274	
7.050	0.075	0.212	
7.055	-0.312	0.148	
7.060	-0.061	0.061	
7.065	0.088	-0.009	
7.070	-0.313	-0.051	
7.075	-0.231	-0.097	
7.080	0.177	-0.130	
7.085	-0.173	-0.124	
7.090	-0.300	-0.120	
7.095	0.114	-0.126	
7.100	-0.061	-0.112	
7.105	-0.347	-0.101	
7.110	-0.055	-0.114	
7.115	0.183	-0.112	
7.120	-0.249	-0.088	
7.125	-0.136	-0.080	
7.130	0.395	-0.068	
7.135	-0.049	-0.021	
7.140	-0.205	0.010	
7.145	0.321	0.017	
7.150	0.230	0.048	
7.155	-0.193	0.082	
7.160	0.204	0.085	
7.165	0.493	0.104	
7.170	-0.103	0.144	
7.175	-0.031	0.149	
7.180	0.516	0.140	
7.185	0.024	0.158	
7.190	-0.171	0.155	
7.195	0.340	0.126	
7.200	0.191	0.121	
7.205	-0.199	0.120	
7.210	0.227	0.099	
7.215	0.484	0.104	
7.220	-0.119	0.137	
7.225	-0.060	0.137	
7.230	0.449	0.121	
7.235	-0.055	0.127	
7.240	-0.225	0.112	
7.245	0.235	0.071	
7.250	0.119	0.055	
7.255	-0.236	0.048	
7.260	0.160	0.026	
7.265	0.403	0.034	
7.270	-0.164	0.068	
7.275	-0.075	0.072	
7.280	0.447	0.067	
7.285	-0.013	0.090	
7.290	-0.161	0.096	
7.295	0.382	0.084	
7.300	0.211	0.100	
7.305	-0.208	0.117	
7.310	0.142	0.101	
7.315	0.392	0.096	
7.320	-0.168	0.111	
7.325	-0.071	0.097	
7.330	0.455	0.079	
7.335	-0.019	0.093	
7.340	-0.144	0.096	
7.345	0.421	0.085	
7.350	0.212	0.106	
7.355	-0.199	0.126	
7.360	0.156	0.112	
7.365	0.336	0.105	
7.370	-0.185	0.111	
7.375	-0.106	0.088	
7.380	0.331	0.057	
7.385	-0.139	0.051	
7.390	-0.272	0.028	
7.395	0.163	-0.012	
7.400	0.023	-0.026	
7.405	-0.307	-0.033	
7.410	-0.077	-0.061	
7.415	0.108	-0.080	
7.420	-0.281	-0.081	
7.425	-0.188	-0.096	
7.430	0.171	-0.108	
7.435	-0.171	-0.095	
7.440	-0.271	-0.092	
7.445	0.215	-0.096	
7.450	0.180	-0.065	
7.455	-0.132	-0.017	
7.460	0.470	0.028	
7.465	0.837	0.120	
7.470	0.181	0.251	
7.475	0.238	0.335	
7.480	0.603	0.373	
7.485	-0.028	0.388	
7.490	-0.223	0.339	
7.495	0.131	0.236	
7.500	-0.042	0.142	
7.505	-0.370	0.055	
7.510	-0.119	-0.040	
7.515	0.055	-0.105	
7.520	-0.300	-0.131	
7.525	-0.245	-0.157	
7.530	0.070	-0.174	
7.535	-0.236	-0.165	
7.540	-0.341	-0.165	
7.545	0.085	-0.173	
7.550	0.006	-0.152	
7.555	-0.260	-0.122	
7.560	0.117	-0.102	
7.565	0.450	-0.055	
7.570	-0.086	0.022	
7.575	0.058	0.071	
7.580	0.632	0.113	
7.585	0.111	0.179	
7.590	-0.031	0.216	
7.595	0.626	0.226	
7.600	0.486	0.268	
7.605	-0.048	0.310	
7.610	0.371	0.309	
7.615	0.620	0.312	
7.620	-0.026	0.329	
7.625	0.085	0.307	
7.630	0.588	0.273	
7.635	0.072	0.268	
7.640	-0.101	0.245	
7.645	0.469	0.204	
7.650	0.292	0.198	
7.655	-0.141	0.201	
7.660	0.226	0.176	
7.665	0.377	0.163	
7.670	-0.179	0.163	
7.675	-0.089	0.130	
7.680	0.327	0.089	
7.685	-0.097	0.073	
7.690	-0.217	0.048	
7.695	0.246	0.014	
7.700	0.078	0.011	
7.705	-0.271	0.013	
7.710	0.009	-0.009	
7.715	0.238	-0.019	
7.720	-0.220	-0.008	
7.725	-0.124	-0.016	
7.730	0.307	-0.025	
7.735	-0.136	-0.008	
7.740	-0.245	-0.008	
7.745	0.171	-0.028	
7.750	-0.011	-0.028	
7.755	-0.329	-0.031	
7.760	-0.023	-0.059	
7.765	0.208	-0.070	
7.770	-0.223	-0.054	
7.775	-0.113	-0.053	
7.780	0.343	-0.047	
7.785	-0.071	-0.013	
7.790	-0.179	0.008	
7.795	0.334	0.012	
7.800	0.140	0.041	
7.805	-0.246	0.065	
7.810	0.088	0.052	
7.815	0.318	0.048	
7.820	-0.203	0.061	
7.825	-0.110	0.047	
7.830	0.325	0.027	
7.835	-0.182	0.028	
7.840	-0.362	0.005	
7.845	0.001	-0.049	
7.850	-0.092	-0.087	
7.855	-0.394	-0.117	
7.860	-0.138	-0.157	
7.865	0.027	-0.177	
7.870	-0.358	-0.175	
7.875	-0.258	-0.185	
7.880	0.117	-0.191	
7.885	-0.223	-0.170	
7.890	-0.326	-0.159	
7.895	0.120	-0.158	
7.900	0.029	-0.132	
7.905	-0.219	-0.096	
7.910	0.235	-0.069	
7.915	0.612	-0.003	
7.920	0.075	0.101	
7.925	0.282	0.181	
7.930	0.730	0.251	
7.935	0.041	0.321	
7.940	-0.208	0.324	
7.945	0.189	0.257	
7.950	-0.019	0.184	
7.955	-0.367	0.104	
7.960	-0.106	0.006	
7.965	0.021	-0.069	
7.970	-0.342	-0.112	
7.975	-0.242	-0.154	
7.980	0.124	-0.179	
7.985	-0.216	-0.168	
7.990	-0.335	-0.161	
7.995	0.033	-0.167	
8.000	-0.055	-0.154	
8.005	-0.342	-0.139	
8.010	-0.035	-0.141	
8.015	0.208	-0.126	
8.020	-0.229	-0.088	
8.025	-0.122	-0.071	
8.030	0.371	-0.054	
8.035	-0.072	-0.010	
8.040	-0.203	0.014	
8.045	0.301	0.015	
8.050	0.175	0.039	
8.055	-0.194	0.065	
8.060	0.163	0.063	
8.065	0.402	0.076	
8.070	-0.139	0.106	
8.075	-0.023	0.106	
8.080	0.510	0.101	
8.085	0.013	0.127	
8.090	-0.127	0.135	
8.095	0.397	0.121	
8.100	0.217	0.133	
8.105	-0.179	0.144	
8.110	0.233	0.127	
8.115	0.431	0.129	
8.120	-0.136	0.150	
8.125	-0.035	0.138	
8.130	0.423	0.117	
8.135	-0.069	0.119	
8.140	-0.203	0.102	
8.145	0.273	0.065	
8.150	0.026	0.052	
8.155	-0.306	0.037	
8.160	0.030	-0.003	
8.165	0.266	-0.021	
8.170	-0.228	-0.011	
8.175	-0.106	-0.017	
8.180	0.366	-0.021	
8.185	-0.095	0.006	
8.190	-0.214	0.016	
8.195	0.270	0.007	
8.200	0.105	0.021	
8.205	-0.240	0.035	
8.210	0.139	0.024	
8.215	0.325	0.031	
8.220	-0.211	0.056	
8.225	-0.122	0.047	
8.230	0.321	0.028	
8.235	-0.113	0.032	
8.240	-0.188	0.024	
8.245	0.426	0.013	
8.250	0.240	0.046	
8.255	-0.193	0.087	
8.260	0.247	0.096	
8.265	0.446	0.117	
8.270	-0.152	0.151	
8.275	-0.029	0.145	
8.280	0.487	0.129	
8.285	-0.042	0.138	
8.290	-0.194	0.127	
8.295	0.263	0.090	
8.300	0.039	0.073	
8.305	-0.312	0.052	
8.310	-0.019	0.004	
8.315	0.134	-0.030	
8.320	-0.317	-0.044	
8.325	-0.203	-0.075	
8.330	0.233	-0.100	
8.335	-0.173	-0.089	
8.340	-0.286	-0.086	
8.345	0.163	-0.095	
8.350	-0.037	-0.082	
8.355	-0.312	-0.071	
8.360	0.146	-0.076	
8.365	0.453	-0.044	
8.370	-0.046	0.026	
8.375	0.321	0.087	
8.380	1.034	0.176	
8.385	0.438	0.318	
8.390	0.082	0.421	
8.395	0.631	0.451	
8.400	0.270	0.457	
8.405	-0.252	0.418	
8.410	0.007	0.311	
8.415	0.127	0.196	
8.420	-0.336	0.100	
8.425	-0.228	-0.002	
8.430	0.114	-0.083	
8.435	-0.255	-0.119	
8.440	-0.367	-0.150	
8.445	0.078	-0.180	
8.450	-0.066	-0.174	
8.455	-0.385	-0.159	
8.460	-0.069	-0.164	
8.465	0.181	-0.152	
8.470	-0.272	-0.117	
8.475	-0.164	-0.103	
8.480	0.301	-0.090	
8.485	-0.124	-0.053	
8.490	-0.231	-0.033	
8.495	0.351	-0.028	
8.500	0.169	0.009	
8.505	-0.240	0.046	
8.510	0.186	0.051	
8.515	0.438	0.070	
8.520	-0.141	0.109	
8.525	-0.011	0.114	
8.530	0.547	0.114	
8.535	0.018	0.143	
8.540	-0.139	0.152	
8.545	0.437	0.136	
8.550	0.235	0.148	
8.555	-0.200	0.159	
8.560	0.211	0.137	
8.565	0.466	0.133	
8.570	-0.116	0.153	
8.575	0.020	0.147	
8.580	0.521	0.137	
8.585	-0.020	0.155	
8.590	-0.174	0.149	
8.595	0.321	0.117	
8.600	0.099	0.105	
8.605	-0.266	0.092	
8.610	0.055	0.051	
8.615	0.223	0.024	
8.620	-0.263	0.018	
8.625	-0.136	-0.009	
8.630	0.347	-0.029	
8.635	-0.103	-0.013	
8.640	-0.220	-0.006	
8.645	0.249	-0.015	
8.650	0.056	-0.001	
8.655	-0.251	0.011	
8.660	0.119	-0.000	
8.665	0.321	0.008	
8.670	-0.217	0.036	
8.675	-0.100	0.033	
8.680	0.382	0.024	
8.685	-0.107	0.041	
8.690	-0.211	0.040	
8.695	0.351	0.023	
8.700	0.151	0.041	
8.705	-0.222	0.062	
8.710	0.208	0.057	
8.715	0.470	0.074	
8.720	-0.138	0.116	
8.725	0.003	0.124	
8.730	0.505	0.122	
8.735	-0.042	0.144	
8.740	-0.164	0.140	
8.745	0.441	0.115	
8.750	0.252	0.127	
8.755	-0.188	0.144	
8.760	0.185	0.129	
8.765	0.321	0.120	
8.770	-0.240	0.121	
8.775	-0.119	0.086	
8.780	0.299	0.045	
8.785	-0.156	0.031	
8.790	-0.306	0.004	
8.795	0.101	-0.041	
8.800	-0.040	-0.062	
8.805	-0.318	-0.075	
8.810	0.015	-0.098	
8.815	0.168	-0.097	
8.820	-0.260	-0.074	
8.825	-0.122	-0.071	
8.830	0.457	-0.059	
8.835	0.082	-0.002	
8.840	0.113	0.061	
8.845	1.025	0.142	
8.850	0.974	0.300	
8.855	0.325	0.475	
8.860	0.681	0.579	
8.865	0.617	0.630	
8.870	-0.139	0.621	
8.875	-0.112	0.512	
8.880	0.246	0.359	
8.885	-0.229	0.224	
8.890	-0.338	0.091	
8.895	-0.023	-0.034	
8.900	-0.152	-0.114	
8.905	-0.413	-0.166	
8.910	-0.121	-0.212	
8.915	0.049	-0.223	
8.920	-0.323	-0.204	
8.925	-0.219	-0.194	
8.930	0.223	-0.178	
8.935	-0.167	-0.135	
8.940	-0.274	-0.106	
8.945	0.189	-0.097	
8.950	0.058	-0.067	
8.955	-0.248	-0.037	
8.960	0.146	-0.029	
8.965	0.340	-0.002	
8.970	-0.207	0.040	
8.975	-0.054	0.048	
8.980	0.473	0.050	
8.985	-0.020	0.082	
8.990	-0.124	0.097	
8.995	0.476	0.096	
9.000	0.249	0.128	
9.005	-0.187	0.156	
9.010	0.230	0.146	
9.015	0.443	0.147	
9.020	-0.118	0.167	
9.025	0.078	0.159	
9.030	0.644	0.157	
9.035	0.084	0.194	
9.040	-0.095	0.209	
9.045	0.457	0.195	
9.050	0.264	0.201	
9.055	-0.208	0.203	
9.060	0.143	0.166	
9.065	0.336	0.137	
9.070	-0.196	0.125	
9.075	-0.097	0.090	
9.080	0.288	0.051	
9.085	-0.168	0.037	
9.090	-0.283	0.008	
9.095	0.137	-0.035	
9.100	-0.051	-0.053	
9.105	-0.341	-0.066	
9.110	-0.045	-0.096	
9.115	0.107	-0.108	
9.120	-0.304	-0.100	
9.125	-0.197	-0.110	
9.130	0.183	-0.119	
9.135	-0.187	-0.102	
9.140	-0.315	-0.098	
9.145	0.073	-0.112	
9.150	-0.081	-0.110	
9.155	-0.349	-0.109	
9.160	-0.014	-0.125	
9.165	0.156	-0.120	
9.170	-0.277	-0.094	
9.175	-0.138	-0.089	
9.180	0.302	-0.082	
9.185	-0.104	-0.046	
9.190	-0.202	-0.025	
9.195	0.259	-0.022	
9.200	0.052	0.001	
9.205	-0.274	0.016	
9.210	0.072	0.001	
9.215	0.253	-0.001	
9.220	-0.237	0.014	
9.225	-0.124	0.003	
9.230	0.256	-0.014	
9.235	-0.164	-0.009	
9.240	-0.310	-0.023	
9.245	0.035	-0.060	
9.250	-0.121	-0.084	
9.255	-0.385	-0.107	
9.260	-0.097	-0.145	
9.265	0.036	-0.161	
9.270	-0.335	-0.156	
9.275	-0.200	-0.164	
9.280	0.137	-0.164	
9.285	-0.252	-0.143	
9.290	-0.300	-0.137	
9.295	0.159	-0.140	
9.300	-0.026	-0.117	
9.305	-0.229	-0.089	
9.310	0.435	-0.062	
9.315	0.881	0.034	
9.320	0.366	0.193	
9.325	0.625	0.338	
9.330	1.010	0.469	
9.335	0.226	0.579	
9.340	-0.126	0.588	
9.345	0.278	0.495	
9.350	-0.037	0.377	
9.355	-0.371	0.241	
9.360	-0.132	0.088	
9.365	-0.077	-0.037	
9.370	-0.420	-0.124	
9.375	-0.283	-0.199	
9.380	0.026	-0.244	
9.385	-0.284	-0.244	
9.390	-0.359	-0.241	
9.395	0.024	-0.240	
9.400	-0.110	-0.215	
9.405	-0.358	-0.188	
9.410	-0.045	-0.181	
9.415	0.171	-0.156	
9.420	-0.254	-0.114	
9.425	-0.121	-0.093	
9.430	0.298	-0.074	
9.435	-0.126	-0.036	
9.440	-0.216	-0.018	
9.445	0.288	-0.018	
9.450	0.091	0.006	
9.455	-0.207	0.029	
9.460	0.244	0.031	
9.465	0.441	0.060	
9.470	-0.138	0.109	
9.475	0.001	0.120	
9.480	0.487	0.120	
9.485	-0.046	0.141	
9.490	-0.161	0.136	
9.495	0.385	0.109	
9.500	0.145	0.110	
9.505	-0.216	0.112	
9.510	0.180	0.087	
9.515	0.324	0.080	
9.520	-0.208	0.091	
9.525	-0.083	0.071	
9.530	0.330	0.046	
9.535	-0.148	0.045	
9.540	-0.248	0.026	
9.545	0.240	-0.006	
9.550	0.027	-0.009	
9.555	-0.283	-0.009	
9.560	0.030	-0.030	
9.565	0.157	-0.038	
9.570	-0.275	-0.032	
9.575	-0.136	-0.047	
9.580	0.279	-0.059	
9.585	-0.158	-0.041	
9.590	-0.243	-0.038	
9.595	0.208	-0.049	
9.600	-0.002	-0.038	
9.605	-0.321	-0.031	
9.610	0.017	-0.051	
9.615	0.223	-0.054	
9.620	-0.271	-0.037	
9.625	-0.138	-0.043	
9.630	0.304	-0.049	
9.635	-0.150	-0.028	
9.640	-0.220	-0.023	
9.645	0.333	-0.028	
9.650	0.180	0.004	
9.655	-0.188	0.042	
9.660	0.201	0.053	
9.665	0.359	0.075	
9.670	-0.171	0.107	
9.675	-0.011	0.103	
9.680	0.431	0.093	
9.685	-0.098	0.105	
9.690	-0.219	0.093	
9.695	0.198	0.054	
9.700	-0.046	0.031	
9.705	-0.312	0.005	
9.710	-0.019	-0.041	
9.715	0.104	-0.067	
9.720	-0.297	-0.073	
9.725	-0.152	-0.092	
9.730	0.235	-0.101	
9.735	-0.190	-0.081	
9.740	-0.272	-0.075	
9.745	0.191	-0.084	
9.750	-0.014	-0.068	
9.755	-0.329	-0.055	
9.760	0.000	-0.070	
9.765	0.266	-0.067	
9.770	-0.155	-0.036	
9.775	0.146	-0.009	
9.780	0.825	0.050	
9.785	0.371	0.170	
9.790	0.226	0.280	
9.795	0.718	0.354	
9.800	0.188	0.410	
9.805	-0.283	0.399	
9.810	-0.019	0.302	
9.815	0.084	0.188	
9.820	-0.346	0.088	
9.825	-0.211	-0.015	
9.830	0.133	-0.093	
9.835	-0.254	-0.123	
9.840	-0.320	-0.147	
9.845	0.114	-0.168	
9.850	-0.106	-0.156	
9.855	-0.367	-0.143	
9.860	-0.002	-0.149	
9.865	0.124	-0.136	
9.870	-0.321	-0.108	
9.875	-0.155	-0.105	
9.880	0.310	-0.099	
9.885	-0.144	-0.063	
9.890	-0.202	-0.042	
9.895	0.369	-0.032	
9.900	0.148	0.010	
9.905	-0.184	0.051	
9.910	0.330	0.067	
9.915	0.550	0.110	
9.920	-0.051	0.174	
9.925	0.217	0.204	
9.930	0.745	0.234	
9.935	0.172	0.291	
9.940	0.007	0.317	
9.945	0.560	0.305	
9.950	0.256	0.307	
9.955	-0.145	0.294	
9.960	0.343	0.248	
9.965	0.515	0.228	
9.970	-0.089	0.235	
9.975	0.093	0.215	
9.980	0.580	0.197	
9.985	0.015	0.210	
9.990	-0.122	0.200	
9.995	0.447	0.169	
10.000	0.137	0.164	
10.005	-0.226	0.154	
10.010	0.178	0.115	
10.015	0.296	0.094	
10.020	-0.242	0.090	
10.025	-0.077	0.060	
10.030	0.432	0.036	
10.035	-0.119	0.048	
10.040	-0.269	0.042	
10.045	0.217	0.010	
10.050	-0.009	0.000	
10.055	-0.268	-0.008	
10.060	0.113	-0.030	
10.065	0.256	-0.026	
10.070	-0.243	-0.001	
10.075	-0.080	-0.003	
10.080	0.398	-0.004	
10.085	-0.103	0.025	
10.090	-0.181	0.035	
10.095	0.383	0.030	
10.100	0.097	0.053	
10.105	-0.229	0.071	
10.110	0.227	0.061	
10.115	0.386	0.072	
10.120	-0.145	0.104	
10.125	-0.011	0.105	
10.130	0.385	0.095	
10.135	-0.113	0.103	
10.140	-0.184	0.087	
10.145	0.290	0.054	
10.150	-0.064	0.043	
10.155	-0.384	0.020	
10.160	-0.119	-0.040	
10.165	-0.045	-0.092	
10.170	-0.399	-0.129	
10.175	-0.258	-0.174	
10.180	0.033	-0.205	
10.185	-0.310	-0.205	
10.190	-0.359	-0.211	
10.195	0.059	-0.220	
10.200	-0.126	-0.201	
10.205	-0.359	-0.179	
10.210	0.004	-0.175	
10.215	0.140	-0.150	
10.220	-0.287	-0.110	
10.225	-0.083	-0.094	
10.230	0.547	-0.065	
10.235	0.091	0.013	
10.240	0.099	0.087	
10.245	0.773	0.156	
10.250	0.392	0.255	
10.255	-0.145	0.322	
10.260	0.235	0.311	
10.265	0.264	0.275	
10.270	-0.286	0.229	
10.275	-0.148	0.143	
10.280	0.246	0.059	
10.285	-0.210	0.013	
10.290	-0.255	-0.032	
10.295	0.166	-0.074	
10.300	-0.084	-0.081	
10.305	-0.341	-0.085	
10.310	0.009	-0.107	
10.315	0.160	-0.105	
10.320	-0.274	-0.082	
10.325	-0.106	-0.079	
10.330	0.342	-0.069	
10.335	-0.126	-0.031	
10.340	-0.205	-0.011	
10.345	0.331	-0.009	
10.350	0.046	0.017	
10.355	-0.252	0.034	
10.360	0.194	0.024	
10.365	0.389	0.039	
10.370	-0.155	0.077	
10.375	0.076	0.089	
10.380	0.565	0.104	
10.385	0.001	0.148	
10.390	-0.080	0.165	
10.395	0.516	0.159	
10.400	0.215	0.181	
10.405	-0.190	0.193	
10.410	0.301	0.170	
10.415	0.457	0.167	
10.420	-0.106	0.186	
10.425	0.139	0.179	
10.430	0.651	0.180	
10.435	0.021	0.215	
10.440	-0.058	0.222	
10.445	0.452	0.201	
10.450	0.096	0.197	
10.455	-0.226	0.178	
10.460	0.211	0.129	
10.465	0.279	0.103	
10.470	-0.214	0.097	
10.475	-0.055	0.066	
10.480	0.368	0.041	
10.485	-0.152	0.046	
10.490	-0.203	0.033	
10.495	0.354	0.011	
10.500	0.052	0.024	
10.505	-0.268	0.035	
10.510	0.168	0.019	
10.515	0.342	0.027	
10.520	-0.193	0.056	
10.525	-0.005	0.058	
10.530	0.501	0.062	
10.535	-0.061	0.095	
10.540	-0.116	0.107	
10.545	0.460	0.100	
10.550	0.198	0.124	
10.555	-0.173	0.145	
10.560	0.359	0.138	
10.565	0.469	0.156	
10.570	-0.141	0.189	
10.575	0.186	0.188	
10.580	0.603	0.191	
10.585	-0.055	0.219	
10.590	-0.129	0.209	
10.595	0.482	0.174	
10.600	0.224	0.173	
10.605	-0.168	0.176	
10.610	0.261	0.152	
10.615	0.327	0.143	
10.620	-0.229	0.144	
10.625	-0.087	0.108	
10.630	0.369	0.069	
10.635	-0.141	0.060	
10.640	-0.205	0.039	
10.645	0.324	0.012	
10.650	0.075	0.020	
10.655	-0.231	0.031	
10.660	0.194	0.022	
10.665	0.292	0.034	
10.670	-0.219	0.060	
10.675	0.044	0.056	
10.680	0.701	0.071	
10.685	0.201	0.141	
10.690	0.269	0.212	
10.695	1.055	0.291	
10.700	0.797	0.423	
10.705	0.243	0.543	
10.710	0.706	0.594	
10.715	0.608	0.613	
10.720	-0.145	0.592	
10.725	-0.022	0.485	
10.730	0.354	0.351	
10.735	-0.170	0.244	
10.740	-0.242	0.136	
10.745	0.218	0.038	
10.750	-0.058	-0.011	
10.755	-0.317	-0.043	
10.760	0.117	-0.077	
10.765	0.261	-0.072	
10.770	-0.232	-0.037	
10.775	-0.035	-0.024	
10.780	0.431	-0.007	
10.785	-0.097	0.036	
10.790	-0.130	0.055	
10.795	0.461	0.060	
10.800	0.110	0.092	
10.805	-0.190	0.114	
10.810	0.342	0.107	
10.815	0.443	0.127	
10.820	-0.148	0.163	
10.825	0.130	0.164	
10.830	0.669	0.170	
10.835	0.053	0.211	
10.840	-0.048	0.226	
10.845	0.568	0.216	
10.850	0.270	0.234	
10.855	-0.135	0.245	
10.860	0.376	0.222	
10.865	0.478	0.220	
10.870	-0.136	0.234	
10.875	0.111	0.212	
10.880	0.600	0.194	
10.885	-0.023	0.209	
10.890	-0.122	0.197	
10.895	0.482	0.165	
10.900	0.177	0.166	
10.905	-0.187	0.166	
10.910	0.276	0.139	
10.915	0.333	0.132	
10.920	-0.216	0.138	
10.925	-0.020	0.110	
10.930	0.424	0.084	
10.935	-0.127	0.088	
10.940	-0.196	0.072	
10.945	0.334	0.043	
10.950	0.047	0.044	
10.955	-0.242	0.046	
10.960	0.186	0.026	
10.965	0.304	0.032	
10.970	-0.208	0.056	
10.975	0.006	0.052	
10.980	0.469	0.054	
10.985	-0.110	0.083	
10.990	-0.167	0.086	
10.995	0.402	0.069	
11.000	0.117	0.083	
11.005	-0.200	0.095	
11.010	0.279	0.083	
11.015	0.406	0.097	
11.020	-0.145	0.130	
11.025	0.049	0.129	
11.030	0.499	0.126	
11.035	-0.107	0.145	
11.040	-0.185	0.132	
11.045	0.347	0.095	
11.050	0.001	0.083	
11.055	-0.286	0.065	
11.060	0.111	0.022	
11.065	0.204	0.004	
11.070	-0.274	0.006	
11.075	-0.136	-0.017	
11.080	0.226	-0.039	
11.085	-0.214	-0.039	
11.090	-0.257	-0.052	
11.095	0.166	-0.075	
11.100	-0.115	-0.075	
11.105	-0.370	-0.080	
11.110	-0.060	-0.111	
11.115	0.023	-0.127	
11.120	-0.339	-0.127	
11.125	-0.188	-0.143	
11.130	0.171	-0.150	
11.135	-0.181	-0.127	
11.140	-0.115	-0.106	
11.145	0.596	-0.068	
11.150	0.369	0.030	
11.155	-0.049	0.132	
11.160	0.508	0.194	
11.165	0.463	0.254	
11.170	-0.226	0.293	
11.175	-0.130	0.252	
11.180	0.163	0.171	
11.185	-0.281	0.095	
11.190	-0.376	0.005	
11.195	-0.017	-0.089	
11.200	-0.219	-0.148	
11.205	-0.463	-0.192	
11.210	-0.121	-0.236	
11.215	-0.022	-0.248	
11.220	-0.341	-0.232	
11.225	-0.152	-0.220	
11.230	0.258	-0.192	
11.235	-0.194	-0.134	
11.240	-0.231	-0.098	
11.245	0.292	-0.079	
11.250	0.007	-0.038	
11.255	-0.292	-0.011	
11.260	0.128	-0.016	
11.265	0.275	-0.004	
11.270	-0.254	0.022	
11.275	-0.080	0.016	
11.280	0.299	0.005	
11.285	-0.167	0.015	
11.290	-0.203	0.006	
11.295	0.304	-0.012	
11.300	-0.002	0.000	
11.305	-0.272	0.007	
11.310	0.119	-0.010	
11.315	0.218	-0.009	
11.320	-0.248	0.008	
11.325	-0.075	-0.002	
11.330	0.334	-0.009	
11.335	-0.158	0.009	
11.340	-0.184	0.009	
11.345	0.348	-0.001	
11.350	-0.008	0.017	
11.355	-0.298	0.025	
11.360	0.078	-0.000	
11.365	0.160	-0.012	
11.370	-0.280	-0.010	
11.375	-0.103	-0.030	
11.380	0.256	-0.045	
11.385	-0.216	-0.035	
11.390	-0.265	-0.044	
11.395	0.232	-0.064	
11.400	0.058	-0.050	
11.405	-0.216	-0.028	
11.410	0.304	-0.015	
11.415	0.450	0.033	
11.420	-0.097	0.101	
11.425	0.244	0.140	
11.430	0.695	0.183	
11.435	0.087	0.250	
11.440	0.029	0.278	
11.445	0.701	0.279	
11.450	0.359	0.311	
11.455	-0.080	0.331	
11.460	0.507	0.312	
11.465	0.556	0.314	
11.470	-0.086	0.328	
11.475	0.172	0.300	
11.480	0.640	0.272	
11.485	-0.008	0.275	
11.490	-0.081	0.251	
11.495	0.524	0.209	
11.500	0.178	0.202	
11.505	-0.168	0.195	
11.510	0.292	0.161	
11.515	0.357	0.151	
11.520	-0.191	0.155	
11.525	-0.035	0.126	
11.530	0.351	0.092	
11.535	-0.153	0.083	
11.540	-0.197	0.056	
11.545	0.252	0.018	
11.550	-0.038	0.009	
11.555	-0.289	-0.003	
11.560	0.087	-0.032	
11.565	0.192	-0.037	
11.570	-0.258	-0.023	
11.575	-0.092	-0.031	
11.580	0.322	-0.035	
11.585	-0.107	-0.010	
11.590	-0.106	0.005	
11.595	0.570	0.022	
11.600	0.366	0.091	
11.605	0.027	0.170	
11.610	0.635	0.226	
11.615	0.592	0.299	
11.620	-0.150	0.357	
11.625	-0.008	0.332	
11.630	0.348	0.268	
11.635	-0.229	0.207	
11.640	-0.298	0.121	
11.645	0.094	0.022	
11.650	-0.147	-0.042	
11.655	-0.379	-0.093	
11.660	-0.035	-0.144	
11.665	0.013	-0.163	
11.670	-0.358	-0.159	
11.675	-0.217	-0.170	
11.680	0.107	-0.176	
11.685	-0.265	-0.159	
11.690	-0.309	-0.155	
11.695	0.145	-0.158	
11.700	-0.097	-0.136	
11.705	-0.330	-0.117	
11.710	0.017	-0.121	
11.715	0.120	-0.108	
11.720	-0.272	-0.083	
11.725	-0.071	-0.078	
11.730	0.353	-0.064	
11.735	-0.141	-0.022	
11.740	-0.159	-0.002	
11.745	0.388	0.005	
11.750	0.065	0.039	
11.755	-0.236	0.062	
11.760	0.220	0.053	
11.765	0.241	0.059	
11.770	-0.269	0.071	
11.775	-0.087	0.047	
11.780	0.324	0.020	
11.785	-0.153	0.022	
11.790	-0.170	0.012	
11.795	0.311	-0.003	
11.800	-0.028	0.009	
11.805	-0.274	0.013	
11.810	0.119	-0.009	
11.815	0.236	-0.009	
11.820	-0.255	0.009	
11.825	-0.055	0.000	
11.830	0.321	-0.006	
11.835	-0.179	0.011	
11.840	-0.220	0.005	
11.845	0.160	-0.020	
11.850	-0.092	-0.028	
11.855	-0.313	-0.042	
11.860	0.049	-0.073	
11.865	0.139	-0.078	
11.870	-0.268	-0.063	
11.875	-0.116	-0.068	
11.880	0.263	-0.069	
11.885	-0.196	-0.047	
11.890	-0.216	-0.043	
11.895	0.302	-0.048	
11.900	0.015	-0.023	
11.905	-0.242	-0.003	
11.910	0.185	-0.005	
11.915	0.259	0.013	
11.920	-0.257	0.040	
11.925	-0.031	0.032	
11.930	0.426	0.028	
11.935	-0.106	0.053	
11.940	-0.129	0.060	
11.945	0.406	0.054	
11.950	0.059	0.076	
11.955	-0.243	0.085	
11.960	0.162	0.062	
11.965	0.241	0.054	
11.970	-0.254	0.058	
11.975	-0.113	0.032	
11.980	0.247	0.002	
11.985	-0.228	-0.006	
11.990	-0.255	-0.030	
11.995	0.203	-0.061	
12.000	-0.052	-0.061	
12.005	-0.312	-0.059	
12.010	0.038	-0.077	
12.015	0.130	-0.076	
12.020	-0.301	-0.062	
12.025	-0.147	-0.072	
12.030	0.157	-0.084	
12.035	-0.232	-0.077	
12.040	-0.202	-0.083	
12.045	0.403	-0.082	
12.050	0.165	-0.030	
12.055	-0.074	0.031	
12.060	0.625	0.085	
12.065	0.719	0.183	
12.070	0.027	0.294	
12.075	0.208	0.340	
12.080	0.446	0.340	
12.085	-0.153	0.322	
12.090	-0.240	0.248	
12.095	0.116	0.143	
12.100	-0.153	0.057	
12.105	-0.387	-0.022	
12.110	-0.086	-0.104	
12.115	-0.054	-0.153	
12.120	-0.398	-0.176	
12.125	-0.220	-0.205	
12.130	0.107	-0.214	
12.135	-0.257	-0.192	
12.140	-0.249	-0.176	
12.145	0.194	-0.161	
12.150	-0.077	-0.121	
12.155	-0.317	-0.092	
12.160	0.091	-0.089	
12.165	0.186	-0.069	
12.170	-0.260	-0.037	
12.175	-0.057	-0.032	
12.180	0.347	-0.025	
12.185	-0.150	0.005	
12.190	-0.164	0.014	
12.195	0.389	0.011	
12.200	0.107	0.041	
12.205	-0.194	0.067	
12.210	0.258	0.067	
12.215	0.328	0.084	
12.220	-0.190	0.110	
12.225	0.027	0.102	
12.230	0.473	0.095	
12.235	-0.103	0.114	
12.240	-0.155	0.107	
12.245	0.348	0.081	
12.250	0.027	0.080	
12.255	-0.246	0.072	
12.260	0.208	0.042	
12.265	0.275	0.041	
12.270	-0.229	0.057	
12.275	-0.042	0.044	
12.280	0.357	0.031	
12.285	-0.153	0.043	
12.290	-0.194	0.035	
12.295	0.299	0.013	
12.300	-0.016	0.018	
12.305	-0.271	0.017	
12.310	0.101	-0.008	
12.315	0.166	-0.014	
12.320	-0.272	-0.007	
12.325	-0.086	-0.024	
12.330	0.302	-0.034	
12.335	-0.179	-0.017	
12.340	-0.217	-0.018	
12.345	0.227	-0.033	
12.350	-0.069	-0.027	
12.355	-0.307	-0.029	
12.360	0.091	-0.052	
12.365	0.165	-0.052	
12.370	-0.262	-0.035	
12.375	-0.064	-0.039	
12.380	0.330	-0.037	
12.385	-0.171	-0.010	
12.390	-0.207	-0.005	
12.395	0.281	-0.015	
12.400	-0.016	-0.002	
12.405	-0.258	0.005	
12.410	0.122	-0.012	
12.415	0.214	-0.009	
12.420	-0.237	0.009	
12.425	-0.063	0.001	
12.430	0.302	-0.006	
12.435	-0.193	0.008	
12.440	-0.252	-0.002	
12.445	0.203	-0.030	
12.450	-0.077	-0.034	
12.455	-0.317	-0.042	
12.460	0.065	-0.068	
12.465	0.145	-0.070	
12.470	-0.258	-0.054	
12.475	-0.071	-0.056	
12.480	0.304	-0.052	
12.485	-0.181	-0.023	
12.490	-0.205	-0.017	
12.495	0.281	-0.025	
12.500	0.018	-0.007	
12.505	-0.207	0.008	
12.510	0.405	0.014	
12.515	0.608	0.071	
12.520	0.101	0.165	
12.525	0.559	0.244	
12.530	0.953	0.338	
12.535	0.223	0.446	
12.540	-0.008	0.481	
12.545	0.414	0.438	
12.550	0.001	0.374	
12.555	-0.295	0.279	
12.560	0.010	0.154	
12.565	0.059	0.054	
12.570	-0.329	-0.014	
12.575	-0.150	-0.079	
12.580	0.201	-0.117	
12.585	-0.217	-0.112	
12.590	-0.234	-0.110	
12.595	0.244	-0.110	
12.600	-0.038	-0.079	
12.605	-0.271	-0.054	
12.610	0.166	-0.051	
12.615	0.253	-0.026	
12.620	-0.214	0.013	
12.625	0.009	0.022	
12.630	0.457	0.034	
12.635	-0.087	0.072	
12.640	-0.116	0.085	
12.645	0.453	0.082	
12.650	0.159	0.109	
12.655	-0.144	0.131	
12.660	0.363	0.129	
12.665	0.398	0.149	
12.670	-0.141	0.178	
12.675	0.127	0.171	
12.680	0.582	0.168	
12.685	-0.061	0.192	
12.690	-0.081	0.186	
12.695	0.492	0.161	
12.700	0.160	0.168	
12.705	-0.165	0.170	
12.710	0.322	0.147	
12.715	0.372	0.148	
12.720	-0.147	0.163	
12.725	0.084	0.148	
12.730	0.478	0.136	
12.735	-0.086	0.150	
12.740	-0.129	0.137	
12.745	0.415	0.108	
12.750	0.061	0.110	
12.755	-0.226	0.104	
12.760	0.192	0.073	
12.765	0.194	0.061	
12.770	-0.236	0.059	
12.775	-0.045	0.033	
12.780	0.313	0.013	
12.785	-0.174	0.020	
12.790	-0.187	0.009	
12.795	0.354	-0.007	
12.800	0.044	0.013	
12.805	-0.219	0.030	
12.810	0.212	0.025	
12.815	0.272	0.040	
12.820	-0.184	0.066	
12.825	0.032	0.064	
12.830	0.388	0.063	
12.835	-0.121	0.083	
12.840	-0.129	0.078	
12.845	0.424	0.064	
12.850	0.108	0.083	
12.855	-0.168	0.099	
12.860	0.342	0.094	
12.865	0.409	0.117	
12.870	-0.144	0.153	
12.875	0.124	0.154	
12.880	0.551	0.156	
12.885	-0.037	0.184	
12.890	-0.071	0.182	
12.895	0.463	0.160	
12.900	0.087	0.164	
12.905	-0.219	0.154	
12.910	0.174	0.113	
12.915	0.203	0.087	
12.920	-0.252	0.074	
12.925	-0.095	0.035	
12.930	0.203	-0.002	
12.935	-0.216	-0.015	
12.940	-0.208	-0.039	
12.945	0.266	-0.060	
12.950	-0.035	-0.046	
12.955	-0.298	-0.036	
12.960	0.027	-0.052	
12.965	0.105	-0.057	
12.970	-0.294	-0.051	
12.975	-0.034	-0.063	
12.980	0.505	-0.050	
12.985	0.090	0.014	
12.990	0.191	0.084	
12.995	0.921	0.167	
13.000	0.568	0.297	
13.005	0.055	0.403	
13.010	0.473	0.434	
13.015	0.318	0.430	
13.020	-0.248	0.389	
13.025	-0.103	0.284	
13.030	0.137	0.165	
13.035	-0.281	0.071	
13.040	-0.327	-0.023	
13.045	0.050	-0.106	
13.050	-0.174	-0.146	
13.055	-0.385	-0.170	
13.060	-0.051	-0.196	
13.065	-0.006	-0.196	
13.070	-0.333	-0.178	
13.075	-0.142	-0.174	
13.080	0.174	-0.160	
13.085	-0.214	-0.124	
13.090	-0.226	-0.106	
13.095	0.261	-0.096	
13.100	-0.017	-0.061	
13.105	-0.234	-0.032	
13.110	0.197	-0.026	
13.115	0.246	0.001	
13.120	-0.205	0.036	
13.125	0.012	0.040	
13.130	0.412	0.045	
13.135	-0.086	0.074	
13.140	-0.087	0.081	
13.145	0.440	0.078	
13.150	0.111	0.104	
13.155	-0.167	0.120	
13.160	0.333	0.111	
13.165	0.374	0.127	
13.170	-0.155	0.153	
13.175	0.087	0.145	
13.180	0.446	0.136	
13.185	-0.113	0.146	
13.190	-0.119	0.129	
13.195	0.408	0.099	
13.200	0.038	0.100	
13.205	-0.214	0.094	
13.210	0.204	0.066	
13.215	0.183	0.057	
13.220	-0.248	0.057	
13.225	-0.090	0.028	
13.230	0.270	0.001	
13.235	-0.187	-0.000	
13.240	-0.214	-0.015	
13.245	0.249	-0.037	
13.250	-0.063	-0.030	
13.255	-0.286	-0.029	
13.260	0.111	-0.047	
13.265	0.171	-0.043	
13.270	-0.254	-0.023	
13.275	-0.048	-0.027	
13.280	0.270	-0.028	
13.285	-0.190	-0.009	
13.290	-0.187	-0.012	
13.295	0.288	-0.024	
13.300	-0.032	-0.009	
13.305	-0.266	-0.002	
13.310	0.133	-0.018	
13.315	0.188	-0.014	
13.320	-0.231	0.003	
13.325	-0.035	-0.003	
13.330	0.288	-0.006	
13.335	-0.156	0.011	
13.340	-0.174	0.008	
13.345	0.247	-0.006	
13.350	-0.017	0.002	
13.355	-0.223	0.005	
13.360	0.212	-0.006	
13.365	0.232	0.009	
13.370	-0.245	0.035	
13.375	-0.055	0.027	
13.380	0.229	0.012	
13.385	-0.219	0.011	
13.390	-0.237	-0.012	
13.395	0.180	-0.045	
13.400	-0.150	-0.054	
13.405	-0.352	-0.070	
13.410	-0.072	-0.108	
13.415	-0.064	-0.132	
13.420	-0.368	-0.146	
13.425	-0.161	-0.171	
13.430	0.140	-0.176	
13.435	-0.239	-0.152	
13.440	-0.246	-0.139	
13.445	0.133	-0.135	
13.450	-0.092	-0.111	
13.455	-0.211	-0.091	
13.460	0.426	-0.068	
13.465	0.657	0.015	
13.470	0.214	0.144	
13.475	0.568	0.256	
13.480	0.808	0.364	
13.485	0.012	0.451	
13.490	-0.119	0.444	
13.495	0.253	0.359	
13.500	-0.155	0.262	
13.505	-0.404	0.145	
13.510	-0.112	0.011	
13.515	-0.101	-0.091	
13.520	-0.445	-0.159	
13.525	-0.258	-0.221	
13.530	-0.026	-0.256	
13.535	-0.327	-0.256	
13.540	-0.341	-0.255	
13.545	0.041	-0.253	
13.550	-0.171	-0.225	
13.555	-0.371	-0.201	
13.560	-0.022	-0.195	
13.565	0.038	-0.173	
13.570	-0.310	-0.143	
13.575	-0.080	-0.132	
13.580	0.259	-0.112	
13.585	-0.174	-0.069	
13.590	-0.202	-0.049	
13.595	0.249	-0.045	
13.600	-0.034	-0.023	
13.605	-0.213	-0.009	
13.610	0.252	-0.010	
13.615	0.243	0.016	
13.620	-0.205	0.050	
13.625	0.044	0.052	
13.630	0.424	0.058	
13.635	-0.113	0.086	
13.640	-0.133	0.087	
13.645	0.374	0.071	
13.650	0.007	0.079	
13.655	-0.226	0.076	
13.660	0.192	0.048	
13.665	0.204	0.043	
13.670	-0.225	0.050	
13.675	-0.016	0.032	
13.680	0.316	0.020	
13.685	-0.171	0.031	
13.690	-0.182	0.021	
13.695	0.215	-0.003	
13.700	-0.093	-0.007	
13.705	-0.298	-0.020	
13.710	0.062	-0.052	
13.715	0.064	-0.063	
13.720	-0.291	-0.061	
13.725	-0.089	-0.077	
13.730	0.233	-0.082	
13.735	-0.194	-0.060	
13.740	-0.185	-0.054	
13.745	0.264	-0.055	
13.750	-0.100	-0.034	
13.755	-0.297	-0.028	
13.760	0.073	-0.049	
13.765	0.093	-0.052	
13.770	-0.306	-0.047	
13.775	-0.098	-0.064	
13.780	0.223	-0.073	
13.785	-0.216	-0.058	
13.790	-0.205	-0.059	
13.795	0.258	-0.066	
13.800	-0.046	-0.045	
13.805	-0.236	-0.029	
13.810	0.221	-0.030	
13.815	0.197	-0.006	
13.820	-0.210	0.025	
13.825	0.075	0.029	
13.830	0.382	0.041	
13.835	-0.142	0.071	
13.840	-0.132	0.071	
13.845	0.398	0.058	
13.850	0.015	0.072	
13.855	-0.240	0.074	
13.860	0.157	0.047	
13.865	0.099	0.034	
13.870	-0.294	0.023	
13.875	-0.101	-0.013	
13.880	0.139	-0.045	
13.885	-0.271	-0.057	
13.890	-0.266	-0.083	
13.895	0.136	-0.111	
13.900	-0.139	-0.111	
13.905	-0.324	-0.112	
13.910	0.032	-0.126	
13.915	0.032	-0.121	
13.920	-0.304	-0.105	
13.925	-0.100	-0.110	
13.930	0.299	-0.101	
13.935	-0.110	-0.060	
13.940	0.036	-0.024	
13.945	0.883	0.038	
13.950	0.678	0.175	
13.955	0.288	0.327	
13.960	0.802	0.436	
13.965	0.625	0.526	
13.970	-0.115	0.562	
13.975	0.027	0.496	
13.980	0.246	0.380	
13.985	-0.254	0.265	
13.990	-0.275	0.135	
13.995	0.055	0.012	
14.000	-0.197	-0.068	
14.005	-0.378	-0.128	
14.010	-0.038	-0.179	
14.015	-0.038	-0.194	
14.020	-0.339	-0.187	
14.025	-0.119	-0.187	
14.030	0.166	-0.172	
14.035	-0.225	-0.133	
14.040	-0.208	-0.112	
14.045	0.266	-0.099	
14.050	-0.074	-0.062	
14.055	-0.263	-0.039	
14.060	0.198	-0.040	
14.065	0.180	-0.018	
14.070	-0.217	0.012	
14.075	0.078	0.016	
14.080	0.460	0.034	
14.085	-0.023	0.081	
14.090	0.105	0.113	
14.095	0.806	0.154	
14.100	0.490	0.247	
14.105	0.156	0.337	
14.110	0.790	0.393	
14.115	0.751	0.462	
14.120	0.137	0.523	
14.125	0.521	0.528	
14.130	0.845	0.526	
14.135	0.261	0.542	
14.140	0.232	0.524	
14.145	0.718	0.485	
14.150	0.304	0.467	
14.155	-0.035	0.431	
14.160	0.524	0.369	
14.165	0.478	0.339	
14.170	-0.095	0.326	
14.175	0.191	0.281	
14.180	0.492	0.243	
14.185	-0.078	0.230	
14.190	-0.060	0.194	
14.195	0.463	0.153	
14.200	0.056	0.147	
14.205	-0.179	0.135	
14.210	0.292	0.104	
14.215	0.233	0.099	
14.220	-0.202	0.104	
14.225	0.070	0.082	
14.230	0.377	0.071	
14.235	-0.139	0.084	
14.240	-0.130	0.074	
14.245	0.330	0.052	
14.250	-0.042	0.054	
14.255	-0.248	0.045	
14.260	0.185	0.016	
14.265	0.214	0.014	
14.270	-0.190	0.030	
14.275	0.096	0.029	
14.280	0.308	0.038	
14.285	-0.164	0.060	
14.290	-0.090	0.055	
14.295	0.466	0.048	
14.300	0.094	0.079	
14.305	-0.148	0.103	
14.310	0.321	0.101	
14.315	0.272	0.117	
14.320	-0.162	0.135	
14.325	0.061	0.120	
14.330	0.319	0.103	
14.335	-0.185	0.099	
14.340	-0.177	0.069	
14.345	0.175	0.024	
14.350	-0.133	-0.000	
14.355	-0.301	-0.030	
14.360	0.073	-0.070	
14.365	0.027	-0.083	
14.370	-0.291	-0.081	
14.375	-0.087	-0.095	
14.380	0.204	-0.096	
14.385	-0.237	-0.075	
14.390	-0.211	-0.073	
14.395	0.154	-0.082	
14.400	-0.118	-0.072	
14.405	-0.248	-0.069	
14.410	0.223	-0.073	
14.415	0.380	-0.035	
14.420	0.015	0.037	
14.425	0.577	0.110	
14.430	0.965	0.225	
14.435	0.327	0.370	
14.440	0.244	0.460	
14.445	0.557	0.482	
14.450	0.003	0.467	
14.455	-0.243	0.388	
14.460	0.097	0.260	
14.465	-0.045	0.145	
14.470	-0.367	0.045	
14.475	-0.155	-0.056	
14.480	0.013	-0.125	
14.485	-0.321	-0.157	
14.490	-0.297	-0.187	
14.495	0.010	-0.208	
14.500	-0.228	-0.204	
14.505	-0.355	-0.201	
14.510	0.021	-0.205	
14.515	0.012	-0.183	
14.520	-0.286	-0.149	
14.525	-0.032	-0.133	
14.530	0.272	-0.104	
14.535	-0.168	-0.054	
14.540	-0.132	-0.029	
14.545	0.353	-0.015	
14.550	-0.026	0.020	
14.555	-0.185	0.039	
14.560	0.307	0.037	
14.565	0.230	0.059	
14.570	-0.171	0.087	
14.575	0.186	0.088	
14.580	0.495	0.104	
14.585	-0.057	0.145	
14.590	-0.023	0.154	
14.595	0.466	0.147	
14.600	0.072	0.162	
14.605	-0.130	0.161	
14.610	0.376	0.140	
14.615	0.302	0.146	
14.620	-0.164	0.160	
14.625	0.143	0.143	
14.630	0.432	0.133	
14.635	-0.106	0.146	
14.640	-0.081	0.131	
14.645	0.388	0.106	
14.650	-0.008	0.105	
14.655	-0.184	0.094	
14.660	0.287	0.067	
14.665	0.180	0.068	
14.670	-0.252	0.074	
14.675	-0.008	0.048	
14.680	0.305	0.028	
14.685	-0.156	0.034	
14.690	-0.100	0.025	
14.695	0.340	0.016	
14.700	-0.048	0.033	
14.705	-0.213	0.037	
14.710	0.191	0.019	
14.715	0.130	0.020	
14.720	-0.226	0.028	
14.725	0.039	0.013	
14.730	0.284	0.010	
14.735	-0.173	0.026	
14.740	-0.116	0.021	
14.745	0.325	0.011	
14.750	-0.025	0.028	
14.755	-0.173	0.035	
14.760	0.345	0.032	
14.765	0.285	0.061	
14.770	-0.179	0.098	
14.775	0.116	0.100	
14.780	0.362	0.102	
14.785	-0.129	0.117	
14.790	-0.101	0.103	
14.795	0.351	0.078	
14.800	-0.042	0.077	
14.805	-0.225	0.064	
14.810	0.136	0.030	
14.815	0.029	0.011	
14.820	-0.286	-0.005	
14.825	-0.061	-0.039	
14.830	0.169	-0.060	
14.835	-0.240	-0.058	
14.840	-0.177	-0.068	
14.845	0.264	-0.076	
14.850	-0.100	-0.054	
14.855	-0.252	-0.042	
14.860	0.128	-0.051	
14.865	0.058	-0.042	
14.870	-0.292	-0.033	
14.875	-0.014	-0.047	
14.880	0.351	-0.044	
14.885	-0.026	-0.004	
14.890	0.221	0.041	
14.895	0.852	0.114	
14.900	0.446	0.238	
14.905	0.076	0.339	
14.910	0.484	0.376	
14.915	0.177	0.381	
14.920	-0.275	0.339	
14.925	-0.083	0.235	
14.930	0.076	0.124	
14.935	-0.310	0.035	
14.940	-0.257	-0.052	
14.945	0.053	-0.121	
14.950	-0.226	-0.150	
14.955	-0.347	-0.171	
14.960	-0.003	-0.192	
14.965	-0.060	-0.186	
14.970	-0.336	-0.170	
14.975	-0.064	-0.168	
14.980	0.172	-0.149	
14.985	-0.222	-0.110	
14.990	-0.159	-0.090	
14.995	0.227	-0.078	
15.000	-0.110	-0.049	
15.005	-0.255	-0.037	
15.010	0.171	-0.046	
15.015	0.110	-0.032	
15.020	-0.222	-0.012	
15.025	0.097	-0.011	
15.030	0.408	0.010	
15.035	-0.100	0.055	
15.040	-0.019	0.076	
15.045	0.495	0.089	
15.050	0.047	0.126	
15.055	-0.147	0.141	
15.060	0.334	0.127	
15.065	0.172	0.128	
15.070	-0.190	0.128	
15.075	0.137	0.101	
15.080	0.437	0.093	
15.085	-0.089	0.115	
15.090	-0.089	0.112	
15.095	0.310	0.092	
15.100	-0.061	0.087	
15.105	-0.173	0.069	
15.110	0.321	0.043	
15.115	0.162	0.052	
15.120	-0.280	0.063	
15.125	-0.042	0.037	
15.130	0.151	0.007	
15.135	-0.248	-0.008	
15.140	-0.164	-0.037	
15.145	0.269	-0.059	
15.150	-0.104	-0.047	
15.155	-0.213	-0.039	
15.160	0.258	-0.040	
15.165	0.172	-0.012	
15.170	-0.199	0.023	
15.175	0.105	0.030	
15.180	0.365	0.046	
15.185	-0.141	0.077	
15.190	-0.077	0.078	
15.195	0.366	0.068	
15.200	-0.013	0.080	
15.205	-0.152	0.080	
15.210	0.343	0.066	
15.215	0.218	0.082	
15.220	-0.226	0.100	
15.225	0.075	0.083	
15.230	0.348	0.072	
15.235	-0.141	0.082	
15.240	-0.042	0.073	
15.245	0.438	0.065	
15.250	-0.011	0.087	
15.255	-0.159	0.094	
15.260	0.336	0.080	
15.265	0.212	0.092	
15.270	-0.197	0.107	
15.275	0.070	0.089	
15.280	0.276	0.074	
15.285	-0.207	0.072	
15.290	-0.155	0.045	
15.295	0.233	0.010	
15.300	-0.152	-0.002	
15.305	-0.291	-0.024	
15.310	0.104	-0.059	
15.315	-0.006	-0.070	
15.320	-0.287	-0.071	
15.325	-0.045	-0.088	
15.330	0.169	-0.089	
15.335	-0.228	-0.070	
15.340	-0.104	-0.066	
15.345	0.518	-0.048	
15.350	0.272	0.025	
15.355	0.203	0.115	
15.360	0.884	0.210	
15.365	0.693	0.341	
15.370	0.052	0.449	
15.375	0.321	0.471	
15.380	0.333	0.443	
15.385	-0.219	0.382	
15.390	-0.164	0.270	
15.395	0.136	0.145	
15.400	-0.239	0.052	
15.405	-0.368	-0.037	
15.410	-0.013	-0.119	
15.415	-0.068	-0.159	
15.420	-0.342	-0.172	
15.425	-0.087	-0.185	
15.430	0.131	-0.175	
15.435	-0.240	-0.141	
15.440	-0.141	-0.121	
15.445	0.261	-0.101	
15.450	-0.133	-0.061	
15.455	-0.242	-0.041	
15.460	0.186	-0.044	
15.465	0.084	-0.027	
15.470	-0.295	-0.011	
15.475	-0.042	-0.027	
15.480	0.201	-0.037	
15.485	-0.182	-0.028	
15.490	-0.038	-0.027	
15.495	0.408	-0.015	
15.500	-0.006	0.029	
15.505	-0.127	0.058	
15.510	0.397	0.068	
15.515	0.266	0.103	
15.520	-0.152	0.137	
15.525	0.192	0.136	
15.530	0.415	0.140	
15.535	-0.106	0.158	
15.540	-0.022	0.147	
15.545	0.455	0.128	
15.550	-0.014	0.136	
15.555	-0.165	0.126	
15.560	0.322	0.097	
15.565	0.105	0.092	
15.570	-0.249	0.086	
15.575	0.020	0.049	
15.580	0.261	0.025	
15.585	-0.185	0.025	
15.590	-0.124	0.009	
15.595	0.295	-0.006	
15.600	-0.104	0.004	
15.605	-0.217	0.002	
15.610	0.211	-0.014	
15.615	0.110	-0.005	
15.620	-0.239	0.009	
15.625	0.093	0.002	
15.630	0.293	0.009	
15.635	-0.174	0.034	
15.640	-0.074	0.034	
15.645	0.395	0.031	
15.650	-0.043	0.055	
15.655	-0.165	0.063	
15.660	0.347	0.055	
15.665	0.198	0.074	
15.670	-0.184	0.095	
15.675	0.128	0.086	
15.680	0.313	0.084	
15.685	-0.119	0.096	
15.690	-0.017	0.087	
15.695	0.427	0.080	
15.700	-0.032	0.098	
15.705	-0.184	0.097	
15.710	0.327	0.076	
15.715	0.188	0.081	
15.720	-0.170	0.094	
15.725	0.186	0.084	
15.730	0.313	0.088	
15.735	-0.207	0.101	
15.740	-0.124	0.079	
15.745	0.263	0.044	
15.750	-0.150	0.031	
15.755	-0.268	0.004	
15.760	0.145	-0.034	
15.765	-0.009	-0.046	
15.770	-0.306	-0.052	
15.775	-0.040	-0.076	
15.780	0.157	-0.084	
15.785	-0.248	-0.071	
15.790	-0.152	-0.075	
15.795	0.238	-0.077	
15.800	-0.101	-0.053	
15.805	-0.138	-0.037	
15.810	0.548	-0.014	
15.815	0.565	0.070	
15.820	0.152	0.183	
15.825	0.652	0.275	
15.830	0.753	0.371	
15.835	-0.040	0.448	
15.840	-0.052	0.432	
15.845	0.253	0.349	
15.850	-0.203	0.255	
15.855	-0.336	0.140	
15.860	-0.016	0.016	
15.865	-0.110	-0.070	
15.870	-0.356	-0.127	
15.875	-0.098	-0.174	
15.880	0.029	-0.189	
15.885	-0.317	-0.178	
15.890	-0.207	-0.177	
15.895	0.134	-0.172	
15.900	-0.200	-0.144	
15.905	-0.297	-0.129	
15.910	0.093	-0.131	
15.915	-0.023	-0.113	
15.920	-0.260	-0.094	
15.925	0.067	-0.089	
15.930	0.177	-0.068	
15.935	-0.245	-0.037	
15.940	-0.097	-0.034	
15.945	0.310	-0.032	
15.950	-0.100	-0.005	
15.955	-0.168	0.006	
15.960	0.377	0.008	
15.965	0.223	0.044	
15.970	-0.167	0.085	
15.975	0.224	0.094	
15.980	0.366	0.111	
15.985	-0.165	0.136	
15.990	-0.064	0.121	
15.995	0.368	0.095	
16.000	-0.080	0.092	
16.005	-0.181	0.075	
16.010	0.316	0.047	
16.015	0.136	0.052	
16.020	-0.210	0.062	
16.025	0.154	0.049	
16.030	0.319	0.053	
16.035	-0.171	0.074	
16.040	-0.075	0.066	
16.045	0.357	0.052	
16.050	-0.144	0.058	
16.055	-0.258	0.041	
16.060	0.186	0.004	
16.065	-0.029	-0.011	
16.070	-0.297	-0.025	
16.075	0.035	-0.054	
16.080	0.221	-0.058	
16.085	-0.214	-0.038	
16.090	-0.097	-0.035	
16.095	0.363	-0.029	
16.100	-0.046	0.006	
16.105	-0.130	0.029	
16.110	0.369	0.038	
16.115	0.120	0.069	
16.120	-0.181	0.091	
16.125	0.214	0.084	
16.130	0.362	0.093	
16.135	-0.171	0.116	
16.140	-0.046	0.104	
16.145	0.406	0.086	
16.150	-0.040	0.095	
16.155	-0.135	0.090	
16.160	0.386	0.075	
16.165	0.188	0.092	
16.170	-0.190	0.109	
16.175	0.209	0.099	
16.180	0.342	0.102	
16.185	-0.164	0.118	
16.190	-0.081	0.101	
16.195	0.279	0.072	
16.200	-0.161	0.059	
16.205	-0.228	0.029	
16.210	0.230	-0.009	
16.215	0.010	-0.014	
16.220	-0.306	-0.017	
16.225	-0.032	-0.044	
16.230	0.131	-0.061	
16.235	-0.255	-0.059	
16.240	-0.145	-0.071	
16.245	0.238	-0.078	
16.250	-0.124	-0.058	
16.255	-0.165	-0.045	
16.260	0.431	-0.032	
16.265	0.299	0.027	
16.270	-0.011	0.097	
16.275	0.655	0.157	
16.280	0.826	0.256	
16.285	0.131	0.369	
16.290	0.178	0.416	
16.295	0.484	0.407	
16.300	-0.092	0.376	
16.305	-0.242	0.294	
16.310	0.084	0.177	
16.315	-0.110	0.078	
16.320	-0.356	-0.008	
16.325	-0.095	-0.091	
16.330	0.024	-0.139	
16.335	-0.281	-0.152	
16.340	-0.158	-0.163	
16.345	0.185	-0.157	
16.350	-0.202	-0.125	
16.355	-0.269	-0.108	
16.360	0.194	-0.106	
16.365	0.020	-0.078	
16.370	-0.268	-0.052	
16.375	0.021	-0.052	
16.380	0.154	-0.046	
16.385	-0.231	-0.030	
16.390	-0.078	-0.034	
16.395	0.372	-0.031	
16.400	-0.098	0.003	
16.405	-0.181	0.019	
16.410	0.374	0.019	
16.415	0.165	0.050	
16.420	-0.162	0.080	
16.425	0.281	0.086	
16.430	0.402	0.110	
16.435	-0.158	0.144	
16.440	-0.038	0.137	
16.445	0.394	0.115	
16.450	-0.042	0.116	
16.455	-0.130	0.103	
16.460	0.383	0.082	
16.465	0.119	0.091	
16.470	-0.199	0.098	
16.475	0.159	0.078	
16.480	0.290	0.073	
16.485	-0.194	0.082	
16.490	-0.061	0.064	
16.495	0.333	0.044	
16.500	-0.113	0.049	
16.505	-0.207	0.037	
16.510	0.247	0.012	
16.515	0.052	0.013	
16.520	-0.251	0.016	
16.525	0.085	-0.003	
16.530	0.218	-0.005	
16.535	-0.219	0.009	
16.540	-0.057	0.001	
16.545	0.388	-0.000	
16.550	-0.090	0.028	
16.555	-0.168	0.039	
16.560	0.270	0.029	
16.565	0.018	0.038	
16.570	-0.246	0.037	
16.575	0.091	0.013	
16.580	0.218	0.005	
16.585	-0.213	0.015	
16.590	-0.011	0.007	
16.595	0.441	0.012	
16.600	-0.040	0.050	
16.605	-0.113	0.071	
16.610	0.432	0.076	
16.615	0.186	0.108	
16.620	-0.173	0.132	
16.625	0.221	0.123	
16.630	0.348	0.124	
16.635	-0.155	0.137	
16.640	-0.016	0.119	
16.645	0.347	0.096	
16.650	-0.152	0.091	
16.655	-0.223	0.063	
16.660	0.180	0.019	
16.665	-0.078	-0.004	
16.670	-0.297	-0.027	
16.675	0.056	-0.062	
16.680	0.156	-0.069	
16.685	-0.268	-0.055	
16.690	-0.132	-0.062	
16.695	0.229	-0.067	
16.700	-0.187	-0.051	
16.705	-0.245	-0.052	
16.710	0.217	-0.064	
16.715	0.038	-0.048	
16.720	-0.162	-0.025	
16.725	0.444	-0.002	
16.730	0.706	0.076	
16.735	0.162	0.193	
16.740	0.408	0.282	
16.745	0.701	0.350	
16.750	-0.011	0.403	
16.755	-0.150	0.378	
16.760	0.241	0.293	
16.765	-0.054	0.210	
16.770	-0.323	0.122	
16.775	-0.064	0.021	
16.780	-0.014	-0.054	
16.785	-0.347	-0.102	
16.790	-0.193	-0.148	
16.795	0.108	-0.172	
16.800	-0.237	-0.162	
16.805	-0.269	-0.156	
16.810	0.104	-0.156	
16.815	-0.077	-0.133	
16.820	-0.292	-0.113	
16.825	0.039	-0.111	
16.830	0.143	-0.093	
16.835	-0.243	-0.063	
16.840	-0.084	-0.056	
16.845	0.322	-0.047	
16.850	-0.106	-0.013	
16.855	-0.156	0.005	
16.860	0.365	0.010	
16.865	0.181	0.045	
16.870	-0.138	0.082	
16.875	0.249	0.092	
16.880	0.336	0.112	
16.885	-0.141	0.137	
16.890	0.044	0.129	
16.895	0.455	0.119	
16.900	-0.045	0.135	
16.905	-0.103	0.130	
16.910	0.398	0.110	
16.915	0.076	0.116	
16.920	-0.199	0.113	
16.925	0.227	0.087	
16.930	0.357	0.086	
16.935	-0.148	0.106	
16.940	0.042	0.102	
16.945	0.455	0.098	
16.950	-0.066	0.120	
16.955	-0.139	0.116	
16.960	0.313	0.092	
16.965	0.039	0.087	
16.970	-0.216	0.077	
16.975	0.152	0.047	
16.980	0.282	0.040	
16.985	-0.126	0.057	
16.990	-0.019	0.055	
16.995	0.299	0.051	
17.000	-0.136	0.059	
17.005	-0.159	0.047	
17.010	0.336	0.026	
17.015	0.117	0.040	
17.020	-0.184	0.058	
17.025	0.192	0.053	
17.030	0.287	0.063	
17.035	-0.136	0.086	
17.040	0.108	0.087	
17.045	0.510	0.098	
17.050	-0.029	0.137	
17.055	-0.068	0.148	
17.060	0.508	0.142	
17.065	0.235	0.168	
17.070	-0.124	0.189	
17.075	0.256	0.175	
17.080	0.311	0.169	
17.085	-0.153	0.168	
17.090	0.052	0.139	
17.095	0.437	0.117	
17.100	-0.103	0.123	
17.105	-0.173	0.105	
17.110	0.256	0.069	
17.115	-0.026	0.052	
17.120	-0.266	0.032	
17.125	0.067	-0.007	
17.130	0.113	-0.025	
17.135	-0.246	-0.028	
17.140	-0.063	-0.044	
17.145	0.281	-0.048	
17.150	-0.162	-0.026	
17.155	-0.194	-0.021	
17.160	0.259	-0.028	
17.165	0.044	-0.010	
17.170	-0.174	0.009	
17.175	0.365	0.020	
17.180	0.623	0.076	
17.185	0.183	0.172	
17.190	0.586	0.260	
17.195	0.924	0.361	
17.200	0.258	0.468	
17.205	-0.008	0.500	
17.210	0.363	0.452	
17.215	0.021	0.379	
17.220	-0.275	0.279	
17.225	0.039	0.156	
17.230	0.076	0.061	
17.235	-0.268	-0.001	
17.240	-0.086	-0.056	
17.245	0.181	-0.085	
17.250	-0.239	-0.081	
17.255	-0.246	-0.090	
17.260	0.143	-0.104	
17.265	-0.072	-0.094	
17.270	-0.274	-0.084	
17.275	0.122	-0.087	
17.280	0.178	-0.065	
17.285	-0.217	-0.030	
17.290	-0.042	-0.021	
17.295	0.322	-0.012	
17.300	-0.122	0.017	
17.305	-0.147	0.025	
17.310	0.357	0.021	
17.315	0.117	0.047	
17.320	-0.122	0.073	
17.325	0.366	0.083	
17.330	0.417	0.120	
17.335	-0.095	0.167	
17.340	0.163	0.177	
17.345	0.537	0.185	
17.350	-0.013	0.211	
17.355	-0.063	0.206	
17.360	0.382	0.177	
17.365	0.067	0.165	
17.370	-0.162	0.145	
17.375	0.272	0.109	
17.380	0.258	0.101	
17.385	-0.168	0.107	
17.390	0.027	0.088	
17.395	0.360	0.073	
17.400	-0.109	0.082	
17.405	-0.139	0.072	
17.410	0.264	0.048	
17.415	-0.006	0.045	
17.420	-0.229	0.036	
17.425	0.093	0.008	
17.430	0.125	-0.004	
17.435	-0.242	-0.004	
17.440	-0.078	-0.024	
17.445	0.253	-0.035	
17.450	-0.152	-0.022	
17.455	-0.167	-0.021	
17.460	0.226	-0.029	
17.465	-0.064	-0.017	
17.470	-0.265	-0.016	
17.475	0.052	-0.037	
17.480	0.104	-0.044	
17.485	-0.252	-0.038	
17.490	-0.058	-0.050	
17.495	0.270	-0.051	
17.500	-0.141	-0.026	
17.505	-0.145	-0.017	
17.510	0.287	-0.015	
17.515	0.018	0.009	
17.520	-0.197	0.025	
17.525	0.224	0.021	
17.530	0.256	0.039	
17.535	-0.199	0.065	
17.540	-0.025	0.058	
17.545	0.267	0.045	
17.550	-0.158	0.047	
17.555	-0.167	0.029	
17.560	0.244	0.003	
17.565	-0.086	0.001	
17.570	-0.295	-0.011	
17.575	-0.017	-0.046	
17.580	-0.006	-0.071	
17.585	-0.317	-0.086	
17.590	-0.150	-0.114	
17.595	0.073	-0.132	
17.600	-0.260	-0.128	
17.605	-0.271	-0.136	
17.610	0.053	-0.149	
17.615	-0.141	-0.142	
17.620	-0.320	-0.138	
17.625	0.021	-0.145	
17.630	0.097	-0.130	
17.635	-0.203	-0.098	
17.640	0.130	-0.073	
17.645	0.651	-0.014	
17.650	0.259	0.095	
17.655	0.299	0.199	
17.660	0.741	0.287	
17.665	0.246	0.371	
17.670	-0.219	0.391	
17.675	0.015	0.320	
17.680	-0.057	0.215	
17.685	-0.373	0.102	
17.690	-0.214	-0.020	
17.695	-0.038	-0.114	
17.700	-0.330	-0.169	
17.705	-0.341	-0.212	
17.710	-0.042	-0.243	
17.715	-0.200	-0.242	
17.720	-0.359	-0.234	
17.725	-0.074	-0.233	
17.730	-0.054	-0.215	
17.735	-0.327	-0.190	
17.740	-0.164	-0.183	
17.745	0.052	-0.173	
17.750	-0.260	-0.152	
17.755	-0.263	-0.147	
17.760	0.088	-0.149	
17.765	-0.139	-0.134	
17.770	-0.307	-0.124	
17.775	0.035	-0.130	
17.780	0.105	-0.115	
17.785	-0.219	-0.085	
17.790	0.012	-0.069	
17.795	0.334	-0.042	
17.800	-0.132	0.004	
17.805	-0.130	0.023	
17.810	0.305	0.024	
17.815	0.015	0.043	
17.820	-0.214	0.050	
17.825	0.124	0.031	
17.830	0.116	0.023	
17.835	-0.246	0.019	
17.840	-0.071	-0.006	
17.845	0.168	-0.028	
17.850	-0.217	-0.031	
17.855	-0.208	-0.049	
17.860	0.165	-0.070	
17.865	-0.109	-0.067	
17.870	-0.289	-0.069	
17.875	0.012	-0.088	
17.880	0.013	-0.093	
17.885	-0.278	-0.089	
17.890	-0.095	-0.100	
17.895	0.157	-0.102	
17.900	-0.225	-0.084	
17.905	-0.229	-0.084	
17.910	0.145	-0.093	
17.915	-0.110	-0.083	
17.920	-0.291	-0.079	
17.925	0.021	-0.094	
17.930	-0.008	-0.096	
17.935	-0.287	-0.092	
17.940	-0.113	-0.105	
17.945	0.127	-0.110	
17.950	-0.242	-0.097	
17.955	-0.236	-0.100	
17.960	0.157	-0.109	
17.965	-0.101	-0.094	
17.970	-0.271	-0.084	
17.975	0.087	-0.089	
17.980	0.094	-0.075	
17.985	-0.232	-0.053	
17.990	0.015	-0.048	
17.995	0.340	-0.031	
18.000	-0.141	0.009	
18.005	-0.152	0.023	
18.010	0.240	0.016	
18.015	-0.049	0.022	
18.020	-0.231	0.017	
18.025	0.146	-0.005	
18.030	0.119	-0.007	
18.035	-0.271	-0.001	
18.040	-0.115	-0.023	
18.045	0.070	-0.049	
18.050	-0.277	-0.065	
18.055	-0.255	-0.095	
18.060	0.064	-0.125	
18.065	-0.152	-0.130	
18.070	-0.315	-0.134	
18.075	-0.017	-0.148	
18.080	-0.052	-0.146	
18.085	-0.339	-0.140	
18.090	-0.152	-0.151	
18.095	0.075	-0.155	
18.100	-0.243	-0.140	
18.105	-0.188	-0.134	
18.110	0.392	-0.117	
18.115	0.255	-0.048	
18.120	0.165	0.044	
18.125	0.799	0.145	
18.130	0.730	0.283	
18.135	0.137	0.409	
18.140	0.282	0.455	
18.145	0.365	0.443	
18.150	-0.181	0.393	
18.155	-0.240	0.286	
18.160	0.009	0.150	
18.165	-0.240	0.034	
18.170	-0.393	-0.069	
18.175	-0.124	-0.160	
18.180	-0.118	-0.210	
18.185	-0.378	-0.230	
18.190	-0.203	-0.247	
18.195	-0.009	-0.247	
18.200	-0.294	-0.225	
18.205	-0.243	-0.211	
18.210	0.079	-0.198	
18.215	-0.156	-0.166	
18.220	-0.306	-0.144	
18.225	0.039	-0.141	
18.230	0.042	-0.122	
18.235	-0.229	-0.095	
18.240	0.035	-0.081	
18.245	0.287	-0.054	
18.250	-0.145	-0.009	
18.255	-0.100	0.010	
18.260	0.377	0.019	
18.265	0.082	0.054	
18.270	-0.103	0.081	
18.275	0.369	0.091	
18.280	0.327	0.124	
18.285	-0.112	0.159	
18.290	0.180	0.160	
18.295	0.434	0.162	
18.300	-0.071	0.179	
18.305	-0.051	0.165	
18.310	0.376	0.137	
18.315	0.015	0.131	
18.320	-0.173	0.115	
18.325	0.238	0.081	
18.330	0.198	0.073	
18.335	-0.165	0.077	
18.340	0.055	0.061	
18.345	0.249	0.051	
18.350	-0.177	0.054	
18.355	-0.116	0.035	
18.360	0.282	0.014	
18.365	-0.058	0.018	
18.370	-0.196	0.016	
18.375	0.165	-0.001	
18.380	0.084	0.000	
18.385	-0.229	0.006	
18.390	0.000	-0.010	
18.395	0.282	-0.013	
18.400	-0.136	0.007	
18.405	-0.092	0.012	
18.410	0.330	0.013	
18.415	-0.038	0.035	
18.420	-0.223	0.041	
18.425	0.188	0.023	
18.430	0.177	0.025	
18.435	-0.152	0.039	
18.440	0.105	0.038	
18.445	0.389	0.051	
18.450	-0.086	0.085	
18.455	-0.040	0.094	
18.460	0.446	0.094	
18.465	0.088	0.120	
18.470	-0.112	0.134	
18.475	0.388	0.128	
18.480	0.288	0.145	
18.485	-0.098	0.167	
18.490	0.236	0.162	
18.495	0.437	0.167	
18.500	-0.072	0.187	
18.505	-0.019	0.174	
18.510	0.443	0.152	
18.515	0.039	0.154	
18.520	-0.156	0.144	
18.525	0.233	0.110	
18.530	0.117	0.093	
18.535	-0.219	0.079	
18.540	0.012	0.043	
18.545	0.241	0.020	
18.550	-0.158	0.020	
18.555	-0.136	0.007	
18.560	0.217	-0.011	
18.565	-0.101	-0.008	
18.570	-0.222	-0.015	
18.575	0.177	-0.033	
18.580	0.124	-0.024	
18.585	-0.130	-0.001	
18.590	0.372	0.021	
18.595	0.877	0.097	
18.600	0.554	0.240	
18.605	0.758	0.392	
18.610	1.159	0.544	
18.615	0.594	0.688	
18.620	0.094	0.744	
18.625	0.402	0.689	
18.630	0.127	0.582	
18.635	-0.240	0.441	
18.640	-0.089	0.270	
18.645	0.039	0.119	
18.650	-0.274	0.009	
18.655	-0.219	-0.080	
18.660	0.064	-0.139	
18.665	-0.173	-0.154	
18.670	-0.292	-0.160	
18.675	0.044	-0.166	
18.680	-0.005	-0.148	
18.685	-0.262	-0.122	
18.690	0.033	-0.110	
18.695	0.273	-0.080	
18.700	-0.155	-0.031	
18.705	-0.110	-0.008	
18.710	0.292	0.001	
18.715	-0.022	0.026	
18.720	-0.138	0.039	
18.725	0.313	0.038	
18.730	0.246	0.065	
18.735	-0.100	0.099	
18.740	0.258	0.111	
18.745	0.470	0.138	
18.750	-0.055	0.178	
18.755	0.061	0.184	
18.760	0.567	0.183	
18.765	0.183	0.212	
18.770	-0.058	0.227	
18.775	0.446	0.217	
18.780	0.351	0.226	
18.785	-0.086	0.238	
18.790	0.259	0.220	
18.795	0.418	0.210	
18.800	-0.092	0.213	
18.805	-0.019	0.185	
18.810	0.435	0.151	
18.815	0.020	0.147	
18.820	-0.116	0.134	
18.825	0.362	0.110	
18.830	0.214	0.116	
18.835	-0.187	0.125	
18.840	0.091	0.103	
18.845	0.278	0.086	
18.850	-0.144	0.085	
18.855	-0.081	0.065	
18.860	0.314	0.043	
18.865	-0.051	0.047	
18.870	-0.156	0.043	
18.875	0.305	0.031	
18.880	0.160	0.047	
18.885	-0.197	0.066	
18.890	0.067	0.056	
18.895	0.261	0.049	
18.900	-0.167	0.057	
18.905	-0.086	0.042	
18.910	0.339	0.028	
18.915	-0.051	0.040	
18.920	-0.158	0.043	
18.925	0.261	0.031	
18.930	0.131	0.043	
18.935	-0.170	0.057	
18.940	0.177	0.052	
18.945	0.395	0.066	
18.950	-0.090	0.102	
18.955	-0.003	0.110	
18.960	0.380	0.107	
18.965	0.004	0.121	
18.970	-0.129	0.117	
18.975	0.343	0.098	
18.980	0.221	0.107	
18.985	-0.152	0.120	
18.990	0.133	0.107	
18.995	0.215	0.096	
19.000	-0.214	0.089	
19.005	-0.145	0.053	
19.010	0.140	0.008	
19.015	-0.173	-0.017	
19.020	-0.271	-0.048	
19.025	0.061	-0.085	
19.030	-0.035	-0.096	
19.035	-0.280	-0.097	
19.040	-0.049	-0.109	
19.045	0.085	-0.109	
19.050	-0.263	-0.095	
19.055	-0.150	-0.098	
19.060	0.321	-0.092	
19.065	0.068	-0.047	
19.070	0.094	0.010	
19.075	0.829	0.086	
19.080	0.754	0.223	
19.085	0.218	0.367	
19.090	0.489	0.448	
19.095	0.398	0.479	
19.100	-0.193	0.456	
19.105	-0.181	0.353	
19.110	0.030	0.213	
19.115	-0.237	0.088	
19.120	-0.342	-0.026	
19.125	-0.074	-0.123	
19.130	-0.141	-0.177	
19.135	-0.350	-0.204	
19.140	-0.118	-0.223	
19.145	0.003	-0.219	
19.150	-0.297	-0.195	
19.155	-0.187	-0.183	
19.160	0.148	-0.168	
19.165	-0.156	-0.131	
19.170	-0.226	-0.107	
19.175	0.148	-0.097	
19.180	-0.014	-0.071	
19.185	-0.240	-0.051	
19.190	0.049	-0.052	
19.195	0.255	-0.038	
19.200	-0.147	-0.005	
19.205	-0.046	0.008	
19.210	0.374	0.019	
19.215	-0.045	0.052	
19.220	-0.106	0.066	
19.225	0.360	0.066	
19.230	0.212	0.092	
19.235	-0.118	0.118	
19.240	0.221	0.119	
19.245	0.343	0.128	
19.250	-0.127	0.145	
19.255	-0.029	0.129	
19.260	0.366	0.106	
19.265	-0.051	0.105	
19.270	-0.159	0.090	
19.275	0.258	0.061	
19.280	0.096	0.056	
19.285	-0.188	0.056	
19.290	0.127	0.038	
19.295	0.238	0.036	
19.300	-0.194	0.048	
19.305	-0.107	0.032	
19.310	0.238	0.011	
19.315	-0.113	0.010	
19.320	-0.200	-0.001	
19.325	0.156	-0.022	
19.330	-0.011	-0.024	
19.335	-0.239	-0.026	
19.340	0.072	-0.041	
19.345	0.160	-0.038	
19.350	-0.202	-0.021	
19.355	-0.095	-0.024	
19.360	0.264	-0.027	
19.365	-0.100	-0.008	
19.370	-0.179	-0.003	
19.375	0.232	-0.010	
19.380	0.067	0.005	
19.385	-0.181	0.019	
19.390	0.203	0.019	
19.395	0.325	0.041	
19.400	-0.139	0.077	
19.405	-0.008	0.082	
19.410	0.417	0.082	
19.415	0.023	0.105	
19.420	-0.068	0.116	
19.425	0.392	0.113	
19.430	0.214	0.133	
19.435	-0.106	0.152	
19.440	0.169	0.141	
19.445	0.263	0.132	
19.450	-0.156	0.128	
19.455	-0.049	0.098	
19.460	0.256	0.065	
19.465	-0.129	0.053	
19.470	-0.225	0.026	
19.475	0.117	-0.013	
19.480	-0.031	-0.031	
19.485	-0.272	-0.044	
19.490	-0.019	-0.070	
19.495	0.101	-0.079	
19.500	-0.236	-0.072	
19.505	-0.127	-0.078	
19.510	0.185	-0.080	
19.515	-0.150	-0.063	
19.520	-0.223	-0.058	
19.525	0.263	-0.060	
19.530	0.162	-0.029	
19.535	-0.083	0.015	
19.540	0.455	0.055	
19.545	0.713	0.135	
19.550	0.198	0.246	
19.555	0.339	0.322	
19.560	0.580	0.367	
19.565	-0.083	0.387	
19.570	-0.223	0.334	
19.575	0.096	0.226	
19.580	-0.061	0.127	
19.585	-0.300	0.040	
19.590	-0.052	-0.043	
19.595	0.044	-0.093	
19.600	-0.271	-0.111	
19.605	-0.159	-0.130	
19.610	0.148	-0.135	
19.615	-0.193	-0.116	
19.620	-0.252	-0.107	
19.625	0.130	-0.110	
19.630	-0.017	-0.091	
19.635	-0.240	-0.072	
19.640	0.046	-0.070	
19.645	0.206	-0.053	
19.650	-0.213	-0.024	
19.655	-0.097	-0.020	
19.660	0.281	-0.020	
19.665	-0.092	0.001	
19.670	-0.156	0.008	
19.675	0.293	0.005	
19.680	0.127	0.029	
19.685	-0.135	0.054	
19.690	0.282	0.063	
19.695	0.417	0.094	
19.700	-0.064	0.141	
19.705	0.097	0.156	
19.710	0.461	0.162	
19.715	-0.006	0.181	
19.720	-0.083	0.175	
19.725	0.415	0.150	
19.730	0.125	0.151	
19.735	-0.211	0.144	
19.740	0.113	0.106	
19.745	0.264	0.080	
19.750	-0.153	0.075	
19.755	-0.037	0.055	
19.760	0.308	0.039	
19.765	-0.093	0.046	
19.770	-0.156	0.040	
19.775	0.230	0.021	
19.780	0.017	0.023	
19.785	-0.214	0.022	
19.790	0.078	0.002	
19.795	0.156	-0.004	
19.800	-0.223	0.002	
19.805	-0.090	-0.014	
19.810	0.217	-0.027	
19.815	-0.124	-0.019	
19.820	-0.153	-0.020	
19.825	0.166	-0.029	
19.830	-0.022	-0.021	
19.835	-0.210	-0.017	
19.840	0.133	-0.026	
19.845	0.272	-0.011	
19.850	-0.132	0.024	
19.855	0.029	0.038	
19.860	0.397	0.053	
19.865	-0.020	0.088	
19.870	-0.077	0.101	
19.875	0.359	0.098	
19.880	0.165	0.115	
19.885	-0.141	0.128	
19.890	0.226	0.115	
19.895	0.235	0.113	
19.900	-0.165	0.116	
19.905	0.004	0.091	
19.910	0.353	0.072	
19.915	-0.089	0.077	
19.920	-0.173	0.066	
19.925	0.172	0.036	
19.930	-0.034	0.021	
19.935	-0.234	0.004	
19.940	0.056	-0.026	
19.945	0.139	-0.035	
19.950	-0.229	-0.028	
19.955	-0.133	-0.041	
19.960	0.151	-0.055	
19.965	-0.170	-0.052	
19.970	-0.203	-0.059	
19.975	0.130	-0.072	
19.980	-0.066	-0.066	
19.985	-0.284	-0.064	
19.990	0.076	-0.077	
19.995	0.243	-0.064	
20.000	-0.057	-0.023	
20.005	0.347	0.024	
20.010	0.829	0.110	
20.015	0.389	0.242	
20.020	0.221	0.347	
20.025	0.537	0.398	
20.030	0.076	0.413	
20.035	-0.248	0.364	
20.040	-0.017	0.253	
20.045	0.020	0.140	
20.050	-0.307	0.045	
20.055	-0.182	-0.046	
20.060	0.044	-0.111	
20.065	-0.232	-0.138	
20.070	-0.272	-0.157	
20.075	0.010	-0.173	
20.080	-0.148	-0.168	
20.085	-0.330	-0.162	
20.090	-0.031	-0.169	
20.095	0.036	-0.157	
20.100	-0.275	-0.133	
20.105	-0.104	-0.125	
20.110	0.259	-0.109	
20.115	-0.124	-0.067	
20.120	-0.147	-0.040	
20.125	0.249	-0.028	
20.130	-0.003	-0.000	
20.135	-0.182	0.016	
20.140	0.143	0.011	
20.145	0.208	0.021	
20.150	-0.164	0.040	
20.155	0.009	0.037	
20.160	0.310	0.036	
20.165	-0.095	0.054	
20.170	-0.110	0.053	
20.175	0.330	0.043	
20.180	0.075	0.059	
20.185	-0.181	0.070	
20.190	0.165	0.057	
20.195	0.208	0.056	
20.200	-0.159	0.065	
20.205	0.006	0.052	
20.210	0.316	0.044	
20.215	-0.124	0.056	
20.220	-0.173	0.046	
20.225	0.226	0.022	
20.230	-0.025	0.018	
20.235	-0.210	0.011	
20.240	0.128	-0.009	
20.245	0.111	-0.010	
20.250	-0.292	-0.006	
20.255	-0.133	-0.031	
20.260	0.116	-0.058	
20.265	-0.205	-0.065	
20.270	-0.205	-0.080	
20.275	0.197	-0.092	
20.280	-0.025	-0.073	
20.285	-0.222	-0.054	
20.290	0.185	-0.047	
20.295	0.215	-0.019	
20.300	-0.159	0.020	
20.305	0.042	0.032	
20.310	0.356	0.045	
20.315	-0.083	0.074	
20.320	-0.107	0.079	
20.325	0.308	0.067	
20.330	0.041	0.074	
20.335	-0.162	0.075	
20.340	0.269	0.060	
20.345	0.305	0.074	
20.350	-0.161	0.100	
20.355	0.006	0.094	
20.360	0.321	0.081	
20.365	-0.126	0.084	
20.370	-0.139	0.067	
20.375	0.299	0.041	
20.380	0.003	0.042	
20.385	-0.229	0.038	
20.390	0.090	0.013	
20.395	0.102	-0.000	
20.400	-0.231	-0.003	
20.405	-0.086	-0.025	
20.410	0.191	-0.041	
20.415	-0.181	-0.036	
20.420	-0.216	-0.044	
20.425	0.154	-0.062	
20.430	-0.066	-0.058	
20.435	-0.255	-0.056	
20.440	0.042	-0.069	
20.445	0.036	-0.069	
20.450	-0.232	-0.062	
20.455	0.021	-0.066	
20.460	0.461	-0.043	
20.465	0.127	0.026	
20.470	0.278	0.100	
20.475	0.886	0.191	
20.480	0.528	0.319	
20.485	0.013	0.414	
20.490	0.307	0.423	
20.495	0.185	0.388	
20.500	-0.234	0.319	
20.505	-0.116	0.208	
20.510	0.084	0.097	
20.515	-0.248	0.016	
20.520	-0.274	-0.059	
20.525	0.029	-0.120	
20.530	-0.152	-0.145	
20.535	-0.320	-0.158	
20.540	0.006	-0.171	
20.545	0.058	-0.158	
20.550	-0.277	-0.129	
20.555	-0.112	-0.119	
20.560	0.212	-0.106	
20.565	-0.161	-0.073	
20.570	-0.156	-0.055	
20.575	0.264	-0.046	
20.580	-0.023	-0.017	
20.585	-0.203	0.001	
20.590	0.191	-0.001	
20.595	0.264	0.018	
20.600	-0.139	0.051	
20.605	0.111	0.062	
20.610	0.461	0.081	
20.615	0.001	0.124	
20.620	-0.011	0.142	
20.625	0.475	0.146	
20.630	0.172	0.172	
20.635	-0.081	0.188	
20.640	0.334	0.176	
20.645	0.314	0.180	
20.650	-0.130	0.187	
20.655	0.084	0.162	
20.660	0.402	0.140	
20.665	-0.080	0.141	
20.670	-0.095	0.122	
20.675	0.356	0.094	
20.680	0.064	0.094	
20.685	-0.187	0.091	
20.690	0.165	0.066	
20.695	0.133	0.054	
20.700	-0.208	0.048	
20.705	0.015	0.024	
20.710	0.337	0.015	
20.715	-0.135	0.034	
20.720	-0.107	0.035	
20.725	0.337	0.028	
20.730	0.038	0.048	
20.735	-0.165	0.060	
20.740	0.276	0.054	
20.745	0.322	0.074	
20.750	-0.115	0.107	
20.755	0.108	0.113	
20.760	0.405	0.118	
20.765	-0.093	0.137	
20.770	-0.113	0.126	
20.775	0.298	0.096	
20.780	0.001	0.086	
20.785	-0.161	0.072	
20.790	0.188	0.045	
20.795	0.143	0.040	
20.800	-0.190	0.044	
20.805	0.072	0.030	
20.810	0.385	0.033	
20.815	-0.104	0.062	
20.820	-0.104	0.069	
20.825	0.386	0.063	
20.830	0.050	0.081	
20.835	-0.176	0.090	
20.840	0.191	0.072	
20.845	0.101	0.064	
20.850	-0.263	0.055	
20.855	-0.112	0.015	
20.860	0.053	-0.027	
20.865	-0.284	-0.056	
20.870	-0.307	-0.098	
20.875	-0.029	-0.144	
20.880	-0.158	-0.164	
20.885	-0.303	-0.173	
20.890	-0.016	-0.182	
20.895	-0.006	-0.168	
20.900	-0.278	-0.145	
20.905	-0.101	-0.137	
20.910	0.214	-0.120	
20.915	-0.122	-0.080	
20.920	0.001	-0.047	
20.925	0.641	0.002	
20.930	0.432	0.105	
20.935	0.220	0.216	
20.940	0.816	0.308	
20.945	0.770	0.418	
20.950	0.075	0.507	
20.955	0.236	0.510	
20.960	0.386	0.461	
20.965	-0.135	0.392	
20.970	-0.182	0.283	
20.975	0.128	0.160	
20.980	-0.133	0.067	
20.985	-0.306	-0.011	
20.990	0.021	-0.081	
20.995	0.015	-0.112	
21.000	-0.254	-0.116	
21.005	-0.068	-0.122	
21.010	0.168	-0.113	
21.015	-0.179	-0.084	
21.020	-0.145	-0.069	
21.025	0.250	-0.059	
21.030	-0.031	-0.029	
21.035	-0.210	-0.009	
21.040	0.122	-0.013	
21.045	0.116	-0.006	
21.050	-0.177	0.007	
21.055	0.076	0.005	
21.060	0.374	0.019	
21.065	-0.054	0.058	
21.070	0.007	0.079	
21.075	0.518	0.097	
21.080	0.226	0.146	
21.085	-0.022	0.187	
21.090	0.478	0.203	
21.095	0.409	0.236	
21.100	-0.057	0.265	
21.105	0.223	0.255	
21.110	0.464	0.242	
21.115	-0.058	0.241	
21.120	-0.089	0.209	
21.125	0.333	0.158	
21.130	0.024	0.132	
21.135	-0.165	0.105	
21.140	0.241	0.069	
21.145	0.217	0.063	
21.150	-0.162	0.072	
21.155	0.084	0.062	
21.160	0.337	0.062	
21.165	-0.135	0.079	
21.170	-0.129	0.070	
21.175	0.253	0.046	
21.180	-0.083	0.040	
21.185	-0.228	0.023	
21.190	0.090	-0.011	
21.195	0.003	-0.027	
21.200	-0.280	-0.039	
21.205	-0.057	-0.066	
21.210	0.204	-0.075	
21.215	-0.162	-0.058	
21.220	-0.142	-0.050	
21.225	0.240	-0.047	
21.230	-0.054	-0.024	
21.235	-0.202	-0.011	
21.240	0.188	-0.015	
21.245	0.104	-0.002	
21.250	-0.225	0.013	
21.255	-0.005	0.002	
21.260	0.250	-0.003	
21.265	-0.148	0.011	
21.270	-0.092	0.009	
21.275	0.348	0.008	
21.280	-0.008	0.033	
21.285	-0.176	0.046	
21.290	0.175	0.036	
21.295	0.133	0.038	
21.300	-0.196	0.044	
21.305	0.018	0.027	
21.310	0.244	0.018	
21.315	-0.174	0.025	
21.320	-0.177	0.011	
21.325	0.130	-0.016	
21.330	-0.132	-0.029	
21.335	-0.280	-0.049	
21.340	-0.002	-0.082	
21.345	-0.068	-0.099	
21.350	-0.318	-0.110	
21.355	-0.106	-0.133	
21.360	0.068	-0.141	
21.365	-0.260	-0.129	
21.370	-0.225	-0.131	
21.375	0.049	-0.138	
21.380	-0.185	-0.130	
21.385	-0.271	-0.130	
21.390	0.114	-0.134	
21.395	0.206	-0.104	
21.400	-0.048	-0.048	
21.405	0.466	0.015	
21.410	0.739	0.118	
21.415	0.105	0.242	
21.420	0.013	0.302	
21.425	0.273	0.295	
21.430	-0.106	0.258	
21.435	-0.283	0.182	
21.440	-0.032	0.078	
21.445	-0.100	-0.008	
21.450	-0.355	-0.075	
21.455	-0.193	-0.141	
21.460	-0.087	-0.186	
21.465	-0.320	-0.205	
21.470	-0.277	-0.223	
21.475	-0.025	-0.232	
21.480	-0.199	-0.218	
21.485	-0.327	-0.205	
21.490	-0.046	-0.203	
21.495	-0.090	-0.188	
21.500	-0.329	-0.171	
21.505	-0.100	-0.171	
21.510	0.113	-0.158	
21.515	-0.207	-0.126	
21.520	-0.161	-0.109	
21.525	0.224	-0.094	
21.530	-0.071	-0.059	
21.535	-0.219	-0.038	
21.540	0.131	-0.037	
21.545	0.116	-0.023	
21.550	-0.173	-0.003	
21.555	0.099	0.001	
21.560	0.318	0.019	
21.565	-0.126	0.052	
21.570	-0.080	0.058	
21.575	0.328	0.053	
21.580	-0.040	0.065	
21.585	-0.173	0.062	
21.590	0.221	0.042	
21.595	0.140	0.043	
21.600	-0.196	0.050	
21.605	0.041	0.034	
21.610	0.241	0.026	
21.615	-0.165	0.034	
21.620	-0.147	0.020	
21.625	0.224	-0.001	
21.630	-0.072	-0.000	
21.635	-0.210	-0.006	
21.640	0.114	-0.025	
21.645	0.003	-0.029	
21.650	-0.263	-0.032	
21.655	-0.043	-0.054	
21.660	0.186	-0.062	
21.665	-0.184	-0.048	
21.670	-0.121	-0.046	
21.675	0.256	-0.044	
21.680	-0.060	-0.020	
21.685	-0.196	-0.007	
21.690	0.191	-0.012	
21.695	0.110	0.002	
21.700	-0.184	0.019	
21.705	0.044	0.014	
21.710	0.250	0.016	
21.715	-0.147	0.032	
21.720	-0.100	0.028	
21.725	0.292	0.018	
21.730	-0.045	0.030	
21.735	-0.165	0.032	
21.740	0.244	0.021	
21.745	0.156	0.034	
21.750	-0.162	0.052	
21.755	0.160	0.051	
21.760	0.414	0.067	
21.765	-0.052	0.106	
21.770	0.007	0.120	
21.775	0.444	0.124	
21.780	0.049	0.146	
21.785	-0.116	0.150	
21.790	0.307	0.130	
21.795	0.159	0.126	
21.800	-0.210	0.120	
21.805	-0.009	0.083	
21.810	0.119	0.044	
21.815	-0.223	0.017	
21.820	-0.179	-0.023	
21.825	0.137	-0.059	
21.830	-0.156	-0.068	
21.835	-0.255	-0.080	
21.840	0.032	-0.101	
21.845	-0.064	-0.104	
21.850	-0.326	-0.106	
21.855	-0.152	-0.127	
21.860	0.035	-0.142	
21.865	-0.237	-0.137	
21.870	-0.142	-0.137	
21.875	0.409	-0.116	
21.880	0.263	-0.042	
21.885	0.269	0.058	
21.890	0.883	0.174	
21.895	0.715	0.326	
21.900	0.125	0.453	
21.905	0.347	0.492	
21.910	0.362	0.475	
21.915	-0.170	0.421	
21.920	-0.179	0.309	
21.925	0.059	0.175	
21.930	-0.239	0.064	
21.935	-0.381	-0.040	
21.940	-0.071	-0.133	
21.945	-0.106	-0.183	
21.950	-0.385	-0.205	
21.955	-0.182	-0.226	
21.960	-0.026	-0.231	
21.965	-0.265	-0.214	
21.970	-0.179	-0.200	
21.975	0.172	-0.177	
21.980	-0.098	-0.130	
21.985	-0.179	-0.092	
21.990	0.186	-0.069	
21.995	0.023	-0.035	
22.000	-0.219	-0.011	
22.005	0.064	-0.014	
22.010	0.253	-0.005	
22.015	-0.133	0.021	
22.020	-0.026	0.027	
22.025	0.447	0.038	
22.030	0.079	0.080	
22.035	-0.061	0.111	
22.040	0.440	0.124	
22.045	0.340	0.161	
22.050	-0.049	0.199	
22.055	0.322	0.207	
22.060	0.502	0.223	
22.065	-0.029	0.250	
22.070	0.062	0.240	
22.075	0.411	0.215	
22.080	0.006	0.203	
22.085	-0.129	0.174	
22.090	0.241	0.127	
22.095	0.148	0.103	
22.100	-0.176	0.089	
22.105	0.097	0.061	
22.110	0.299	0.051	
22.115	-0.112	0.063	
22.120	-0.019	0.060	
22.125	0.351	0.057	
22.130	-0.072	0.073	
22.135	-0.223	0.067	
22.140	0.145	0.034	
22.145	0.052	0.017	
22.150	-0.196	0.008	
22.155	0.110	-0.008	
22.160	0.318	0.001	
22.165	-0.141	0.033	
22.170	-0.086	0.040	
22.175	0.270	0.035	
22.180	-0.090	0.042	
22.185	-0.185	0.034	
22.190	0.250	0.014	
22.195	0.139	0.022	
22.200	-0.173	0.039	
22.205	0.143	0.037	
22.210	0.304	0.048	
22.215	-0.147	0.073	
22.220	-0.052	0.070	
22.225	0.348	0.060	
22.230	0.015	0.074	
22.235	-0.097	0.081	
22.240	0.376	0.078	
22.245	0.206	0.102	
22.250	-0.119	0.126	
22.255	0.258	0.125	
22.260	0.447	0.140	
22.265	-0.049	0.173	
22.270	0.053	0.175	
22.275	0.467	0.169	
22.280	0.079	0.183	
22.285	-0.052	0.183	
22.290	0.325	0.163	
22.295	0.072	0.154	
22.300	-0.229	0.132	
22.305	0.009	0.080	
22.310	0.156	0.036	
22.315	-0.237	0.012	
22.320	-0.162	-0.024	
22.325	0.105	-0.058	
22.330	-0.165	-0.070	
22.335	-0.231	-0.084	
22.340	0.114	-0.099	
22.345	-0.025	-0.089	
22.350	-0.266	-0.077	
22.355	-0.078	-0.087	
22.360	0.044	-0.093	
22.365	-0.219	-0.088	
22.370	-0.020	-0.089	
22.375	0.623	-0.056	
22.380	0.510	0.051	
22.385	0.544	0.195	
22.390	1.069	0.352	
22.395	0.813	0.526	
22.400	0.148	0.646	
22.405	0.310	0.651	
22.410	0.278	0.581	
22.415	-0.205	0.470	
22.420	-0.187	0.314	
22.425	0.001	0.153	
22.430	-0.280	0.024	
22.435	-0.385	-0.087	
22.440	-0.124	-0.180	
22.445	-0.187	-0.230	
22.450	-0.373	-0.253	
22.455	-0.119	-0.266	
22.460	-0.006	-0.251	
22.465	-0.283	-0.217	
22.470	-0.210	-0.196	
22.475	0.044	-0.180	
22.480	-0.165	-0.152	
22.485	-0.234	-0.134	
22.490	0.097	-0.126	
22.495	-0.020	-0.101	
22.500	-0.229	-0.078	
22.505	0.052	-0.072	
22.510	0.235	-0.051	
22.515	-0.141	-0.013	
22.520	-0.048	0.003	
22.525	0.304	0.014	
22.530	-0.035	0.041	
22.535	-0.112	0.052	
22.540	0.397	0.054	
22.545	0.253	0.089	
22.550	-0.107	0.126	
22.555	0.229	0.133	
22.560	0.372	0.146	
22.565	-0.109	0.165	
22.570	-0.026	0.150	
22.575	0.372	0.124	
22.580	-0.037	0.120	
22.585	-0.121	0.105	
22.590	0.282	0.078	
22.595	0.133	0.077	
22.600	-0.176	0.079	
22.605	0.061	0.058	
22.610	0.162	0.042	
22.615	-0.202	0.035	
22.620	-0.098	0.009	
22.625	0.233	-0.013	
22.630	-0.133	-0.010	
22.635	-0.226	-0.019	
22.640	0.082	-0.043	
22.645	-0.043	-0.052	
22.650	-0.251	-0.058	
22.655	0.039	-0.074	
22.660	0.220	-0.066	
22.665	-0.164	-0.035	
22.670	-0.061	-0.021	
22.675	0.288	-0.011	
22.680	-0.090	0.016	
22.685	-0.196	0.022	
22.690	0.178	0.007	
22.695	0.018	0.007	
22.700	-0.188	0.006	
22.705	0.032	-0.010	
22.710	0.162	-0.014	
22.715	-0.162	-0.005	
22.720	-0.042	-0.009	
22.725	0.302	-0.007	
22.730	-0.060	0.019	
22.735	-0.155	0.029	
22.740	0.288	0.025	
22.745	0.180	0.046	
22.750	-0.112	0.073	
22.755	0.241	0.082	
22.760	0.354	0.104	
22.765	-0.097	0.136	
22.770	-0.025	0.132	
22.775	0.304	0.113	
22.780	-0.063	0.107	
22.785	-0.153	0.086	
22.790	0.214	0.052	
22.795	0.015	0.039	
22.800	-0.237	0.026	
22.805	-0.008	-0.007	
22.810	0.084	-0.030	
22.815	-0.232	-0.039	
22.820	-0.136	-0.060	
22.825	0.131	-0.076	
22.830	-0.167	-0.072	
22.835	-0.242	-0.078	
22.840	0.076	-0.092	
22.845	-0.043	-0.089	
22.850	-0.258	-0.083	
22.855	-0.016	-0.091	
22.860	0.053	-0.089	
22.865	-0.217	-0.078	
22.870	-0.003	-0.076	
22.875	0.657	-0.041	
22.880	0.515	0.068	
22.885	0.476	0.209	
22.890	0.913	0.349	
22.895	0.551	0.486	
22.900	-0.040	0.554	
22.905	0.148	0.514	
22.910	0.143	0.418	
22.915	-0.268	0.301	
22.920	-0.211	0.161	
22.925	-0.048	0.028	
22.930	-0.281	-0.070	
22.935	-0.342	-0.149	
22.940	-0.066	-0.208	
22.945	-0.145	-0.227	
22.950	-0.327	-0.226	
22.955	-0.113	-0.226	
22.960	-0.032	-0.211	
22.965	-0.242	-0.185	
22.970	-0.126	-0.167	
22.975	0.068	-0.147	
22.980	-0.194	-0.118	
22.985	-0.237	-0.108	
22.990	0.119	-0.109	
22.995	-0.011	-0.089	
23.000	-0.194	-0.068	
23.005	0.117	-0.058	
23.010	0.250	-0.029	
23.015	-0.153	0.012	
23.020	-0.032	0.026	
23.025	0.377	0.035	
23.030	0.012	0.067	
23.035	-0.075	0.086	
23.040	0.377	0.090	
23.045	0.212	0.116	
23.050	-0.100	0.140	
23.055	0.250	0.138	
23.060	0.380	0.148	
23.065	-0.104	0.167	
23.070	0.030	0.155	
23.075	0.343	0.134	
23.080	-0.058	0.130	
23.085	-0.107	0.109	
23.090	0.269	0.079	
23.095	0.010	0.069	
23.100	-0.237	0.055	
23.105	0.033	0.017	
23.110	0.137	-0.006	
23.115	-0.217	-0.012	
23.120	-0.104	-0.031	
23.125	0.212	-0.045	
23.130	-0.136	-0.035	
23.135	-0.181	-0.034	
23.140	0.197	-0.042	
23.145	0.013	-0.027	
23.150	-0.205	-0.014	
23.155	0.096	-0.019	
23.160	0.183	-0.010	
23.165	-0.214	0.008	
23.170	-0.095	-0.001	
23.175	0.186	-0.015	
23.180	-0.127	-0.012	
23.185	-0.177	-0.020	
23.190	0.197	-0.033	
23.195	0.001	-0.024	
23.200	-0.203	-0.015	
23.205	0.078	-0.023	
23.210	0.192	-0.016	
23.215	-0.173	0.004	
23.220	-0.058	0.003	
23.225	0.308	0.003	
23.230	-0.064	0.025	
23.235	-0.115	0.034	
23.240	0.293	0.033	
23.245	0.116	0.053	
23.250	-0.127	0.071	
23.255	0.146	0.068	
23.260	0.212	0.071	
23.265	-0.152	0.079	
23.270	-0.013	0.063	
23.275	0.325	0.051	
23.280	-0.071	0.061	
23.285	-0.162	0.056	
23.290	0.172	0.033	
23.295	-0.048	0.022	
23.300	-0.258	0.004	
23.305	0.003	-0.032	
23.310	0.047	-0.053	
23.315	-0.263	-0.061	
23.320	-0.127	-0.082	
23.325	0.097	-0.096	
23.330	-0.205	-0.092	
23.335	-0.248	-0.099	
23.340	0.050	-0.114	
23.345	-0.046	-0.109	
23.350	-0.226	-0.099	
23.355	0.137	-0.093	
23.360	0.385	-0.052	
23.365	0.111	0.024	
23.370	0.495	0.108	
23.375	0.889	0.221	
23.380	0.347	0.357	
23.385	0.041	0.433	
23.390	0.266	0.422	
23.395	-0.071	0.362	
23.400	-0.324	0.257	
23.405	-0.118	0.119	
23.410	-0.057	0.001	
23.415	-0.327	-0.083	
23.420	-0.214	-0.152	
23.425	-0.009	-0.193	
23.430	-0.252	-0.200	
23.435	-0.289	-0.204	
23.440	0.010	-0.206	
23.445	-0.112	-0.186	
23.450	-0.281	-0.165	
23.455	-0.038	-0.157	
23.460	0.061	-0.138	
23.465	-0.214	-0.109	
23.470	-0.068	-0.095	
23.475	0.243	-0.075	
23.480	-0.106	-0.037	
23.485	-0.196	-0.019	
23.490	0.131	-0.024	
23.495	-0.048	-0.021	
23.500	-0.200	-0.023	
23.505	0.185	-0.032	
23.510	0.296	-0.009	
23.515	-0.107	0.035	
23.520	0.059	0.056	
23.525	0.408	0.076	
23.530	-0.017	0.111	
23.535	-0.087	0.121	
23.540	0.302	0.109	
23.545	0.078	0.110	
23.550	-0.156	0.104	
23.555	0.208	0.081	
23.560	0.273	0.079	
23.565	-0.141	0.092	
23.570	0.012	0.081	
23.575	0.296	0.069	
23.580	-0.092	0.074	
23.585	-0.136	0.062	
23.590	0.269	0.040	
23.595	0.067	0.043	
23.600	-0.171	0.048	
23.605	0.163	0.036	
23.610	0.235	0.041	
23.615	-0.127	0.060	
23.620	0.091	0.061	
23.625	0.447	0.074	
23.630	0.021	0.113	
23.635	-0.014	0.133	
23.640	0.397	0.137	
23.645	0.145	0.156	
23.650	-0.113	0.163	
23.655	0.240	0.144	
23.660	0.299	0.138	
23.665	-0.098	0.144	
23.670	0.087	0.129	
23.675	0.411	0.121	
23.680	-0.026	0.135	
23.685	-0.097	0.129	
23.690	0.327	0.107	
23.695	0.154	0.110	
23.700	-0.112	0.115	
23.705	0.250	0.104	
23.710	0.307	0.112	
23.715	-0.090	0.131	
23.720	0.075	0.125	
23.725	0.386	0.120	
23.730	-0.051	0.132	
23.735	-0.097	0.122	
23.740	0.258	0.095	
23.745	0.026	0.085	
23.750	-0.162	0.071	
23.755	0.134	0.044	
23.760	0.177	0.035	
23.765	-0.173	0.039	
23.770	-0.040	0.024	
23.775	0.232	0.011	
23.780	-0.138	0.016	
23.785	-0.188	0.005	
23.790	0.131	-0.019	
23.795	-0.068	-0.027	
23.800	-0.248	-0.038	
23.805	-0.019	-0.063	
23.810	0.003	-0.077	
23.815	-0.286	-0.083	
23.820	-0.148	-0.104	
23.825	0.004	-0.122	
23.830	-0.246	-0.126	
23.835	-0.257	-0.139	
23.840	0.188	-0.146	
23.845	0.214	-0.108	
23.850	0.108	-0.035	
23.855	0.707	0.059	
23.860	0.793	0.202	
23.865	0.229	0.351	
23.870	0.319	0.432	
23.875	0.392	0.450	
23.880	-0.139	0.420	
23.885	-0.245	0.322	
23.890	-0.037	0.184	
23.895	-0.182	0.059	
23.900	-0.346	-0.048	
23.905	-0.110	-0.137	
23.910	-0.083	-0.186	
23.915	-0.318	-0.203	
23.920	-0.208	-0.216	
23.925	-0.051	-0.219	
23.930	-0.272	-0.207	
23.935	-0.263	-0.203	
23.940	0.067	-0.197	
23.945	-0.103	-0.168	
23.950	-0.254	-0.141	
23.955	0.036	-0.128	
23.960	0.096	-0.102	
23.965	-0.190	-0.069	
23.970	-0.026	-0.054	
23.975	0.252	-0.036	
23.980	-0.080	-0.002	
23.985	-0.100	0.014	
23.990	0.313	0.021	
23.995	0.038	0.047	
24.000	-0.133	0.063	
24.005	0.302	0.062	
24.010	0.305	0.086	
24.015	-0.153	0.117	
24.020	0.007	0.111	
24.025	0.313	0.096	
24.030	-0.081	0.096	
24.035	-0.080	0.082	
24.040	0.350	0.064	
24.045	0.038	0.075	
24.050	-0.176	0.077	
24.055	0.194	0.059	
24.060	0.261	0.061	
24.065	-0.113	0.078	
24.070	0.053	0.076	
24.075	0.311	0.075	
24.080	-0.080	0.089	
24.085	-0.121	0.080	
24.090	0.195	0.055	
24.095	-0.028	0.044	
24.100	-0.188	0.028	
24.105	0.152	0.004	
24.110	0.131	0.002	
24.115	-0.197	0.011	
24.120	-0.035	-0.000	
24.125	0.261	-0.006	
24.130	-0.112	0.009	
24.135	-0.133	0.011	
24.140	0.272	0.005	
24.145	0.012	0.020	
24.150	-0.174	0.030	
24.155	0.180	0.022	
24.160	0.212	0.032	
24.165	-0.153	0.052	
24.170	0.026	0.049	
24.175	0.318	0.049	
24.180	-0.087	0.066	
24.185	-0.098	0.064	
24.190	0.307	0.053	
24.195	0.073	0.064	
24.200	-0.136	0.073	
24.205	0.240	0.065	
24.210	0.273	0.078	
24.215	-0.124	0.101	
24.220	0.068	0.097	
24.225	0.423	0.098	
24.230	-0.016	0.122	
24.235	-0.060	0.126	
24.240	0.325	0.114	
24.245	0.056	0.117	
24.250	-0.179	0.108	
24.255	0.131	0.076	
24.260	0.087	0.055	
24.265	-0.249	0.036	
24.270	-0.078	-0.002	
24.275	0.149	-0.032	
24.280	-0.223	-0.041	
24.285	-0.249	-0.063	
24.290	0.026	-0.095	
24.295	-0.136	-0.108	
24.300	-0.274	-0.119	
24.305	-0.002	-0.134	
24.310	0.055	-0.127	
24.315	-0.203	-0.104	
24.320	0.052	-0.088	
24.325	0.461	-0.047	
24.330	0.149	0.034	
24.335	0.279	0.115	
24.340	0.887	0.207	
24.345	0.635	0.339	
24.350	0.198	0.449	
24.355	0.486	0.491	
24.360	0.264	0.487	
24.365	-0.200	0.433	
24.370	-0.097	0.315	
24.375	0.024	0.182	
24.380	-0.274	0.069	
24.385	-0.280	-0.037	
24.390	-0.019	-0.122	
24.395	-0.176	-0.163	
24.400	-0.324	-0.186	
24.405	-0.049	-0.203	
24.410	-0.031	-0.195	
24.415	-0.292	-0.173	
24.420	-0.127	-0.165	
24.425	0.114	-0.151	
24.430	-0.211	-0.121	
24.435	-0.225	-0.108	
24.440	0.116	-0.107	
24.445	-0.072	-0.090	
24.450	-0.217	-0.076	
24.455	0.090	-0.075	
24.460	0.111	-0.057	
24.465	-0.184	-0.031	
24.470	0.015	-0.024	
24.475	0.310	-0.009	
24.480	-0.104	0.024	
24.485	-0.084	0.037	
24.490	0.386	0.042	
24.495	0.085	0.072	
24.500	-0.121	0.094	
24.505	0.292	0.093	
24.510	0.263	0.109	
24.515	-0.135	0.128	
24.520	0.067	0.117	
24.525	0.322	0.105	
24.530	-0.110	0.107	
24.535	-0.101	0.088	
24.540	0.266	0.061	
24.545	-0.013	0.055	
24.550	-0.187	0.045	
24.555	0.130	0.020	
24.560	0.120	0.012	
24.565	-0.187	0.015	
24.570	-0.011	0.002	
24.575	0.244	-0.004	
24.580	-0.113	0.011	
24.585	-0.127	0.011	
24.590	0.209	0.002	
24.595	-0.061	0.008	
24.600	-0.211	0.003	
24.605	0.137	-0.015	
24.610	0.099	-0.014	
24.615	-0.197	-0.005	
24.620	-0.003	-0.013	
24.625	0.212	-0.014	
24.630	-0.144	0.001	
24.635	-0.119	-0.001	
24.640	0.232	-0.009	
24.645	-0.026	0.004	
24.650	-0.174	0.009	
24.655	0.172	0.001	
24.660	0.192	0.014	
24.665	-0.148	0.036	
24.670	0.068	0.039	
24.675	0.350	0.049	
24.680	-0.072	0.076	
24.685	-0.058	0.083	
24.690	0.406	0.081	
24.695	0.093	0.104	
24.700	-0.138	0.117	
24.705	0.223	0.104	
24.710	0.197	0.101	
24.715	-0.150	0.103	
24.720	0.030	0.081	
24.725	0.240	0.063	
24.730	-0.142	0.059	
24.735	-0.142	0.037	
24.740	0.178	0.009	
24.745	-0.092	-0.002	
24.750	-0.243	-0.018	
24.755	0.082	-0.045	
24.760	0.107	-0.049	
24.765	-0.222	-0.039	
24.770	-0.058	-0.045	
24.775	0.142	-0.048	
24.780	-0.210	-0.041	
24.785	-0.182	-0.050	
24.790	0.168	-0.065	
24.795	-0.069	-0.056	
24.800	-0.213	-0.050	
24.805	0.162	-0.053	
24.810	0.236	-0.029	
24.815	-0.020	0.017	
24.820	0.438	0.065	
24.825	0.805	0.154	
24.830	0.322	0.278	
24.835	0.209	0.365	
24.840	0.504	0.397	
24.845	0.059	0.399	
24.850	-0.190	0.346	
24.855	0.076	0.245	
24.860	-0.005	0.148	
24.865	-0.284	0.063	
24.870	-0.132	-0.023	
24.875	0.065	-0.083	
24.880	-0.246	-0.109	
24.885	-0.225	-0.132	
24.890	0.073	-0.147	
24.895	-0.145	-0.138	
24.900	-0.266	-0.130	
24.905	0.039	-0.132	
24.910	0.056	-0.114	
24.915	-0.234	-0.089	
24.920	-0.072	-0.082	
24.925	0.159	-0.073	
24.930	-0.159	-0.052	
24.935	-0.116	-0.044	
24.940	0.281	-0.038	
24.945	0.006	-0.007	
24.950	-0.162	0.016	
24.955	0.259	0.021	
24.960	0.269	0.049	
24.965	-0.121	0.085	
24.970	0.163	0.095	
24.975	0.455	0.113	
24.980	-0.028	0.150	
24.985	-0.028	0.157	
24.990	0.431	0.148	
24.995	0.120	0.160	
25.000	-0.101	0.163	
25.005	0.321	0.145	
25.010	0.247	0.146	
25.015	-0.112	0.152	
25.020	0.094	0.132	
25.025	0.345	0.118	
25.030	-0.074	0.122	
25.035	-0.055	0.108	
25.040	0.356	0.089	
25.045	0.024	0.095	
25.050	-0.142	0.092	
25.055	0.174	0.070	
25.060	0.081	0.059	
25.065	-0.203	0.049	
25.070	-0.019	0.019	
25.075	0.244	0.001	
25.080	-0.165	0.006	
25.085	-0.139	-0.003	
25.090	0.305	-0.013	
25.095	0.039	0.008	
25.100	-0.129	0.028	
25.105	0.301	0.037	
25.110	0.201	0.066	
25.115	-0.161	0.093	
25.120	0.101	0.088	
25.125	0.345	0.087	
25.130	-0.124	0.101	
25.135	-0.126	0.088	
25.140	0.223	0.059	
25.145	-0.045	0.046	
25.150	-0.167	0.030	
25.155	0.263	0.011	
25.160	0.230	0.027	
25.165	-0.139	0.057	
25.170	0.114	0.064	
25.175	0.372	0.077	
25.180	-0.054	0.106	
25.185	-0.005	0.113	
25.190	0.415	0.112	
25.195	0.084	0.133	
25.200	-0.101	0.140	
25.205	0.330	0.128	
25.210	0.276	0.137	
25.215	-0.138	0.150	
25.220	0.088	0.133	
25.225	0.281	0.115	
25.230	-0.145	0.108	
25.235	-0.153	0.077	
25.240	0.130	0.033	
25.245	-0.116	0.005	
25.250	-0.239	-0.026	
25.255	0.096	-0.059	
25.260	0.058	-0.064	
25.265	-0.222	-0.055	
25.270	-0.042	-0.060	
25.275	0.162	-0.058	
25.280	-0.159	-0.041	
25.285	-0.144	-0.039	
25.290	0.229	-0.040	
25.295	0.001	-0.019	
25.300	-0.063	0.002	
25.305	0.544	0.032	
25.310	0.641	0.117	
25.315	0.236	0.233	
25.320	0.464	0.320	
25.325	0.592	0.384	
25.330	-0.009	0.421	
25.335	-0.052	0.385	
25.340	0.235	0.302	
25.345	-0.112	0.220	
25.350	-0.272	0.127	
25.355	0.013	0.028	
25.360	-0.034	-0.039	
25.365	-0.298	-0.081	
25.370	-0.110	-0.121	
25.375	0.079	-0.138	
25.380	-0.220	-0.129	
25.385	-0.187	-0.126	
25.390	0.134	-0.123	
25.395	-0.116	-0.100	
25.400	-0.228	-0.085	
25.405	0.084	-0.085	
25.410	0.067	-0.069	
25.415	-0.182	-0.046	
25.420	0.023	-0.040	
25.425	0.181	-0.027	
25.430	-0.152	-0.005	
25.435	-0.127	-0.005	
25.440	0.230	-0.012	
25.445	-0.006	0.002	
25.450	-0.122	0.013	
25.455	0.327	0.019	
25.460	0.305	0.057	
25.465	-0.077	0.105	
25.470	0.247	0.128	
25.475	0.469	0.156	
25.480	-0.026	0.195	
25.485	-0.013	0.196	
25.490	0.392	0.177	
25.495	0.044	0.172	
25.500	-0.095	0.156	
25.505	0.279	0.125	
25.510	0.160	0.116	
25.515	-0.139	0.111	
25.520	0.133	0.089	
25.525	0.397	0.086	
25.530	-0.040	0.109	
25.535	-0.009	0.115	
25.540	0.382	0.111	
25.545	0.046	0.126	
25.550	-0.161	0.124	
25.555	0.177	0.096	
25.560	0.117	0.079	
25.565	-0.203	0.065	
25.570	0.029	0.035	
25.575	0.235	0.017	
25.580	-0.141	0.022	
25.585	-0.104	0.013	
25.590	0.263	0.003	
25.595	-0.084	0.012	
25.600	-0.207	0.010	
25.605	0.128	-0.010	
25.610	0.067	-0.013	
25.615	-0.202	-0.009	
25.620	0.020	-0.020	
25.625	0.243	-0.018	
25.630	-0.147	0.003	
25.635	-0.133	0.004	
25.640	0.186	-0.007	
25.645	-0.075	-0.003	
25.650	-0.182	-0.008	
25.655	0.178	-0.020	
25.660	0.134	-0.009	
25.665	-0.159	0.012	
25.670	0.107	0.016	
25.675	0.328	0.033	
25.680	-0.083	0.067	
25.685	-0.042	0.076	
25.690	0.328	0.075	
25.695	-0.022	0.087	
25.700	-0.135	0.084	
25.705	0.255	0.066	
25.710	0.174	0.070	
25.715	-0.147	0.080	
25.720	0.055	0.067	
25.725	0.198	0.056	
25.730	-0.182	0.052	
25.735	-0.171	0.026	
25.740	0.105	-0.012	
25.745	-0.144	-0.033	
25.750	-0.258	-0.057	
25.755	0.021	-0.088	
25.760	-0.002	-0.097	
25.765	-0.283	-0.096	
25.770	-0.103	-0.109	
25.775	0.009	-0.117	
25.780	-0.271	-0.116	
25.785	-0.225	-0.129	
25.790	0.151	-0.138	
25.795	-0.032	-0.115	
25.800	-0.077	-0.082	
25.805	0.551	-0.034	
25.810	0.628	0.073	
25.815	0.270	0.207	
25.820	0.479	0.311	
25.825	0.556	0.387	
25.830	-0.054	0.424	
25.835	-0.150	0.378	
25.840	0.081	0.273	
25.845	-0.184	0.163	
25.850	-0.339	0.050	
25.855	-0.106	-0.060	
25.860	-0.118	-0.133	
25.865	-0.327	-0.176	
25.870	-0.159	-0.207	
25.875	-0.025	-0.215	
25.880	-0.292	-0.203	
25.885	-0.249	-0.199	
25.890	0.013	-0.196	
25.895	-0.165	-0.176	
25.900	-0.239	-0.160	
25.905	0.032	-0.150	
25.910	-0.034	-0.128	
25.915	-0.271	-0.107	
25.920	-0.054	-0.106	
25.925	0.166	-0.096	
25.930	-0.165	-0.068	
25.935	-0.130	-0.055	
25.940	0.223	-0.048	
25.945	-0.035	-0.023	
25.950	-0.138	-0.006	
25.955	0.223	-0.000	
25.960	0.168	0.025	
25.965	-0.148	0.051	
25.970	0.117	0.054	
25.975	0.356	0.066	
25.980	-0.072	0.095	
25.985	-0.037	0.099	
25.990	0.343	0.092	
25.995	0.032	0.103	
26.000	-0.153	0.101	
26.005	0.208	0.079	
26.010	0.130	0.071	
26.015	-0.196	0.067	
26.020	0.000	0.040	
26.025	0.178	0.019	
26.030	-0.161	0.014	
26.035	-0.107	-0.003	
26.040	0.198	-0.018	
26.045	-0.080	-0.013	
26.050	-0.194	-0.015	
26.055	0.125	-0.029	
26.060	0.050	-0.026	
26.065	-0.229	-0.020	
26.070	-0.051	-0.034	
26.075	0.169	-0.042	
26.080	-0.177	-0.034	
26.085	-0.162	-0.039	
26.090	0.162	-0.050	
26.095	-0.103	-0.044	
26.100	-0.208	-0.044	
26.105	0.120	-0.055	
26.110	0.056	-0.045	
26.115	-0.217	-0.032	
26.120	-0.014	-0.037	
26.125	0.214	-0.035	
26.130	-0.188	-0.017	
26.135	-0.139	-0.019	
26.140	0.148	-0.031	
26.145	-0.103	-0.029	
26.150	-0.229	-0.036	
26.155	0.075	-0.055	
26.160	0.026	-0.057	
26.165	-0.210	-0.051	
26.170	0.032	-0.056	
26.175	0.238	-0.043	
26.180	-0.127	-0.012	
26.185	-0.072	0.002	
26.190	0.331	0.011	
26.195	0.000	0.041	
26.200	-0.127	0.057	
26.205	0.229	0.054	
26.210	0.110	0.062	
26.215	-0.177	0.067	
26.220	0.018	0.047	
26.225	0.154	0.029	
26.230	-0.207	0.020	
26.235	-0.153	-0.007	
26.240	0.127	-0.037	
26.245	-0.133	-0.046	
26.250	-0.248	-0.060	
26.255	0.039	-0.083	
26.260	-0.028	-0.088	
26.265	-0.255	-0.087	
26.270	-0.069	-0.098	
26.275	0.062	-0.101	
26.280	-0.240	-0.092	
26.285	-0.208	-0.100	
26.290	0.059	-0.113	
26.295	-0.162	-0.110	
26.300	-0.231	-0.111	
26.305	0.269	-0.108	
26.310	0.379	-0.054	
26.315	0.217	0.039	
26.320	0.722	0.149	
26.325	0.926	0.294	
26.330	0.299	0.444	
26.335	0.192	0.515	
26.340	0.406	0.505	
26.345	-0.061	0.451	
26.350	-0.242	0.343	
26.355	-0.043	0.199	
26.360	-0.136	0.070	
26.365	-0.362	-0.037	
26.370	-0.176	-0.131	
26.375	-0.055	-0.189	
26.380	-0.301	-0.209	
26.385	-0.249	-0.223	
26.390	0.003	-0.225	
26.395	-0.177	-0.204	
26.400	-0.254	-0.184	
26.405	0.070	-0.169	
26.410	0.042	-0.133	
26.415	-0.211	-0.094	
26.420	-0.038	-0.076	
26.425	0.157	-0.060	
26.430	-0.190	-0.037	
26.435	-0.113	-0.034	
26.440	0.264	-0.033	
26.445	-0.035	-0.009	
26.450	-0.136	0.007	
26.455	0.276	0.012	
26.460	0.224	0.042	
26.465	-0.084	0.078	
26.470	0.226	0.095	
26.475	0.467	0.124	
26.480	0.021	0.170	
26.485	0.070	0.188	
26.490	0.424	0.189	
26.495	0.094	0.202	
26.500	-0.072	0.195	
26.505	0.369	0.171	
26.510	0.186	0.167	
26.515	-0.156	0.161	
26.520	0.094	0.127	
26.525	0.311	0.103	
26.530	-0.106	0.100	
26.535	-0.038	0.083	
26.540	0.356	0.067	
26.545	0.012	0.079	
26.550	-0.109	0.082	
26.555	0.295	0.073	
26.560	0.172	0.085	
26.565	-0.171	0.097	
26.570	0.065	0.080	
26.575	0.220	0.065	
26.580	-0.135	0.063	
26.585	-0.058	0.045	
26.590	0.267	0.029	
26.595	-0.068	0.034	
26.600	-0.187	0.028	
26.605	0.180	0.008	
26.610	0.143	0.011	
26.615	-0.156	0.025	
26.620	0.046	0.021	
26.625	0.230	0.023	
26.630	-0.139	0.037	
26.635	-0.061	0.032	
26.640	0.313	0.026	
26.645	-0.009	0.044	
26.650	-0.124	0.052	
26.655	0.255	0.047	
26.660	0.125	0.059	
26.665	-0.142	0.071	
26.670	0.110	0.061	
26.675	0.259	0.061	
26.680	-0.104	0.074	
26.685	-0.011	0.068	
26.690	0.406	0.066	
26.695	0.047	0.092	
26.700	-0.057	0.108	
26.705	0.397	0.111	
26.710	0.270	0.139	
26.715	-0.075	0.167	
26.720	0.241	0.166	
26.725	0.429	0.174	
26.730	-0.049	0.194	
26.735	-0.028	0.182	
26.740	0.307	0.152	
26.745	-0.026	0.135	
26.750	-0.162	0.106	
26.755	0.133	0.062	
26.760	0.000	0.034	
26.765	-0.255	0.008	
26.770	-0.025	-0.031	
26.775	0.162	-0.051	
26.780	-0.171	-0.046	
26.785	-0.103	-0.048	
26.790	0.285	-0.044	
26.795	-0.068	-0.016	
26.800	-0.214	-0.002	
26.805	0.078	-0.014	
26.810	0.035	-0.018	
26.815	-0.139	-0.017	
26.820	0.324	-0.009	
26.825	0.773	0.055	
26.830	0.571	0.189	
26.835	0.762	0.344	
26.840	0.996	0.499	
26.845	0.475	0.632	
26.850	0.084	0.675	
26.855	0.353	0.617	
26.860	0.091	0.515	
26.865	-0.243	0.384	
26.870	-0.090	0.226	
26.875	-0.048	0.085	
26.880	-0.336	-0.024	
26.885	-0.260	-0.119	
26.890	-0.028	-0.184	
26.895	-0.223	-0.207	
26.900	-0.317	-0.217	
26.905	-0.054	-0.223	
26.910	-0.078	-0.209	
26.915	-0.278	-0.185	
26.920	-0.060	-0.172	
26.925	0.107	-0.147	
26.930	-0.179	-0.109	
26.935	-0.106	-0.086	
26.940	0.238	-0.066	
26.945	-0.060	-0.030	
26.950	-0.147	-0.008	
26.955	0.198	-0.003	
26.960	0.122	0.017	
26.965	-0.141	0.038	
26.970	0.221	0.044	
26.975	0.402	0.071	
26.980	-0.069	0.116	
26.985	0.030	0.130	
26.990	0.427	0.132	
26.995	0.078	0.153	
27.000	-0.069	0.159	
27.005	0.368	0.147	
27.010	0.273	0.157	
27.015	-0.095	0.171	
27.020	0.185	0.158	
27.025	0.360	0.152	
27.030	-0.061	0.160	
27.035	0.041	0.147	
27.040	0.356	0.131	
27.045	-0.029	0.132	
27.050	-0.129	0.116	
27.055	0.246	0.085	
27.060	0.119	0.076	
27.065	-0.173	0.072	
27.070	0.078	0.050	
27.075	0.198	0.038	
27.080	-0.153	0.040	
27.085	-0.072	0.025	
27.090	0.244	0.011	
27.095	-0.074	0.018	
27.100	-0.159	0.015	
27.105	0.203	0.002	
27.110	0.078	0.010	
27.115	-0.181	0.021	
27.120	0.064	0.012	
27.125	0.189	0.012	
27.130	-0.174	0.022	
27.135	-0.106	0.010	
27.140	0.220	-0.005	
27.145	-0.054	0.002	
27.150	-0.170	0.002	
27.155	0.094	-0.012	
27.160	-0.035	-0.018	
27.165	-0.242	-0.027	
27.170	-0.022	-0.052	
27.175	0.134	-0.061	
27.180	-0.170	-0.051	
27.185	-0.092	-0.050	
27.190	0.261	-0.045	
27.195	-0.032	-0.016	
27.200	-0.136	0.004	
27.205	0.238	0.010	
27.210	0.174	0.035	
27.215	-0.109	0.063	
27.220	0.165	0.070	
27.225	0.321	0.086	
27.230	-0.106	0.110	
27.235	-0.071	0.104	
27.240	0.218	0.080	
27.245	-0.068	0.067	
27.250	-0.152	0.045	
27.255	0.124	0.015	
27.260	-0.046	-0.001	
27.265	-0.271	-0.019	
27.270	-0.069	-0.055	
27.275	0.041	-0.079	
27.280	-0.254	-0.088	
27.285	-0.168	-0.105	
27.290	0.038	-0.120	
27.295	-0.182	-0.118	
27.300	-0.239	-0.121	
27.305	-0.052	-0.133	
27.310	-0.142	-0.137	
27.315	-0.330	-0.144	
27.320	-0.121	-0.164	
27.325	0.079	-0.166	
27.330	-0.098	-0.139	
27.335	0.233	-0.095	
27.340	0.813	-0.001	
27.345	0.623	0.160	
27.350	0.498	0.327	
27.355	0.854	0.463	
27.360	0.496	0.569	
27.365	-0.118	0.596	
27.370	-0.005	0.511	
27.375	0.003	0.369	
27.380	-0.303	0.217	
27.385	-0.278	0.062	
27.390	-0.110	-0.071	
27.395	-0.309	-0.160	
27.400	-0.387	-0.226	
27.405	-0.155	-0.274	
27.410	-0.203	-0.288	
27.415	-0.356	-0.284	
27.420	-0.152	-0.279	
27.425	-0.028	-0.257	
27.430	-0.260	-0.220	
27.435	-0.179	-0.195	
27.440	0.108	-0.170	
27.445	-0.138	-0.131	
27.450	-0.193	-0.104	
27.455	0.151	-0.089	
27.460	0.026	-0.059	
27.465	-0.187	-0.033	
27.470	0.120	-0.024	
27.475	0.235	-0.002	
27.480	-0.133	0.030	
27.485	-0.034	0.037	
27.490	0.313	0.039	
27.495	0.000	0.060	
27.500	-0.069	0.071	
27.505	0.363	0.073	
27.510	0.258	0.103	
27.515	-0.078	0.136	
27.520	0.229	0.142	
27.525	0.347	0.152	
27.530	-0.048	0.170	
27.535	0.026	0.160	
27.540	0.284	0.139	
27.545	-0.043	0.128	
27.550	-0.116	0.103	
27.555	0.246	0.070	
27.560	0.105	0.063	
27.565	-0.150	0.062	
27.570	0.130	0.047	
27.575	0.263	0.048	
27.580	-0.135	0.064	
27.585	-0.069	0.056	
27.590	0.221	0.040	
27.595	-0.119	0.036	
27.600	-0.185	0.018	
27.605	0.128	-0.011	
27.610	0.018	-0.019	
27.615	-0.211	-0.021	
27.620	0.001	-0.037	
27.625	0.117	-0.043	
27.630	-0.208	-0.036	
27.635	-0.150	-0.047	
27.640	0.165	-0.059	
27.645	-0.095	-0.051	
27.650	-0.174	-0.046	
27.655	0.139	-0.050	
27.660	0.015	-0.037	
27.665	-0.193	-0.025	
27.670	0.042	-0.029	
27.675	0.192	-0.022	
27.680	-0.152	-0.002	
27.685	-0.064	0.000	
27.690	0.211	-0.002	
27.695	-0.078	0.010	
27.700	-0.156	0.010	
27.705	0.206	-0.001	
27.710	0.143	0.012	
27.715	-0.110	0.034	
27.720	0.192	0.044	
27.725	0.238	0.064	
27.730	-0.144	0.087	
27.735	-0.043	0.077	
27.740	0.250	0.059	
27.745	-0.057	0.058	
27.750	-0.142	0.047	
27.755	0.145	0.023	
27.760	-0.029	0.013	
27.765	-0.252	-0.002	
27.770	-0.034	-0.035	
27.775	0.050	-0.058	
27.780	-0.246	-0.066	
27.785	-0.168	-0.086	
27.790	0.091	-0.103	
27.795	-0.159	-0.099	
27.800	-0.246	-0.100	
27.805	0.032	-0.111	
27.810	-0.101	-0.109	
27.815	-0.265	-0.108	
27.820	-0.051	-0.119	
27.825	0.136	-0.113	
27.830	-0.118	-0.084	
27.835	0.119	-0.054	
27.840	0.681	0.008	
27.845	0.479	0.127	
27.850	0.380	0.256	
27.855	0.719	0.362	
27.860	0.376	0.449	
27.865	-0.142	0.470	
27.870	-0.009	0.397	
27.875	0.003	0.281	
27.880	-0.283	0.159	
27.885	-0.245	0.032	
27.890	-0.068	-0.075	
27.895	-0.277	-0.144	
27.900	-0.350	-0.196	
27.905	-0.097	-0.235	
27.910	-0.159	-0.243	
27.915	-0.336	-0.237	
27.920	-0.139	-0.235	
27.925	-0.019	-0.220	
27.930	-0.231	-0.191	
27.935	-0.135	-0.170	
27.940	0.137	-0.145	
27.945	-0.121	-0.105	
27.950	-0.190	-0.079	
27.955	0.130	-0.069	
27.960	0.001	-0.048	
27.965	-0.226	-0.033	
27.970	-0.020	-0.042	
27.975	0.127	-0.045	
27.980	-0.190	-0.036	
27.985	-0.078	-0.040	
27.990	0.258	-0.039	
27.995	-0.049	-0.013	
28.000	-0.113	0.004	
28.005	0.307	0.013	
28.010	0.208	0.048	
28.015	-0.098	0.085	
28.020	0.218	0.098	
28.025	0.324	0.117	
28.030	-0.068	0.141	
28.035	0.021	0.137	
28.040	0.292	0.122	
28.045	-0.054	0.117	
28.050	-0.133	0.096	
28.055	0.241	0.064	
28.060	0.017	0.053	
28.065	-0.208	0.041	
28.070	0.053	0.012	
28.075	0.160	-0.002	
28.080	-0.199	-0.001	
28.085	-0.121	-0.016	
28.090	0.168	-0.034	
28.095	-0.126	-0.032	
28.100	-0.187	-0.037	
28.105	0.124	-0.051	
28.110	0.000	-0.045	
28.115	-0.222	-0.039	
28.120	0.006	-0.048	
28.125	0.137	-0.048	
28.130	-0.184	-0.034	
28.135	-0.124	-0.037	
28.140	0.188	-0.043	
28.145	-0.116	-0.032	
28.150	-0.185	-0.031	
28.155	0.162	-0.040	
28.160	0.052	-0.028	
28.165	-0.173	-0.013	
28.170	0.113	-0.011	
28.175	0.218	0.004	
28.180	-0.156	0.029	
28.185	-0.068	0.028	
28.190	0.226	0.020	
28.195	-0.078	0.026	
28.200	-0.126	0.022	
28.205	0.292	0.014	
28.210	0.198	0.038	
28.215	-0.118	0.069	
28.220	0.152	0.077	
28.225	0.249	0.087	
28.230	-0.121	0.100	
28.235	-0.014	0.088	
28.240	0.232	0.069	
28.245	-0.127	0.062	
28.250	-0.226	0.036	
28.255	0.041	-0.008	
28.260	-0.051	-0.038	
28.265	-0.254	-0.060	
28.270	-0.063	-0.088	
28.275	0.053	-0.101	
28.280	-0.196	-0.096	
28.285	-0.098	-0.096	
28.290	0.097	-0.091	
28.295	-0.184	-0.077	
28.300	-0.245	-0.079	
28.305	0.039	-0.095	
28.310	-0.063	-0.095	
28.315	-0.236	-0.093	
28.320	0.091	-0.095	
28.325	0.366	-0.064	
28.330	0.117	0.006	
28.335	0.408	0.086	
28.340	0.825	0.191	
28.345	0.426	0.322	
28.350	0.174	0.412	
28.355	0.340	0.432	
28.360	0.021	0.402	
28.365	-0.240	0.320	
28.370	-0.052	0.197	
28.375	-0.016	0.084	
28.380	-0.284	-0.005	
28.385	-0.217	-0.084	
28.390	-0.006	-0.141	
28.395	-0.219	-0.164	
28.400	-0.277	-0.178	
28.405	-0.019	-0.189	
28.410	-0.092	-0.178	
28.415	-0.291	-0.162	
28.420	-0.089	-0.160	
28.425	0.003	-0.151	
28.430	-0.229	-0.133	
28.435	-0.135	-0.127	
28.440	0.162	-0.116	
28.445	-0.115	-0.086	
28.450	-0.153	-0.065	
28.455	0.215	-0.053	
28.460	0.081	-0.020	
28.465	-0.135	0.011	
28.470	0.168	0.023	
28.475	0.301	0.048	
28.480	-0.101	0.082	
28.485	0.026	0.089	
28.490	0.363	0.091	
28.495	0.001	0.110	
28.500	-0.061	0.113	
28.505	0.357	0.104	
28.510	0.198	0.120	
28.515	-0.080	0.137	
28.520	0.232	0.132	
28.525	0.340	0.139	
28.530	-0.092	0.155	
28.535	0.041	0.143	
28.540	0.359	0.127	
28.545	-0.014	0.130	
28.550	-0.086	0.119	
28.555	0.259	0.095	
28.560	0.078	0.089	
28.565	-0.171	0.081	
28.570	0.079	0.054	
28.575	0.175	0.038	
28.580	-0.173	0.035	
28.585	-0.074	0.016	
28.590	0.208	-0.002	
28.595	-0.083	0.002	
28.600	-0.142	-0.001	
28.605	0.235	-0.009	
28.610	0.113	0.010	
28.615	-0.145	0.031	
28.620	0.139	0.034	
28.625	0.263	0.048	
28.630	-0.097	0.072	
28.635	-0.025	0.072	
28.640	0.240	0.064	
28.645	-0.097	0.064	
28.650	-0.155	0.047	
28.655	0.223	0.022	
28.660	0.094	0.023	
28.665	-0.132	0.033	
28.670	0.152	0.030	
28.675	0.264	0.044	
28.680	-0.113	0.069	
28.685	0.009	0.070	
28.690	0.380	0.071	
28.695	0.009	0.094	
28.700	-0.052	0.104	
28.705	0.383	0.103	
28.710	0.197	0.126	
28.715	-0.132	0.143	
28.720	0.124	0.128	
28.725	0.215	0.112	
28.730	-0.139	0.103	
28.735	-0.045	0.074	
28.740	0.194	0.045	
28.745	-0.121	0.032	
28.750	-0.203	0.009	
28.755	0.085	-0.025	
28.760	-0.028	-0.040	
28.765	-0.211	-0.048	
28.770	0.035	-0.062	
28.775	0.148	-0.058	
28.780	-0.179	-0.038	
28.785	-0.092	-0.035	
28.790	0.169	-0.036	
28.795	-0.122	-0.024	
28.800	-0.181	-0.026	
28.805	0.226	-0.034	
28.810	0.197	-0.010	
28.815	0.053	0.035	
28.820	0.589	0.092	
28.825	0.762	0.195	
28.830	0.313	0.321	
28.835	0.412	0.407	
28.840	0.545	0.452	
28.845	-0.025	0.459	
28.850	-0.159	0.393	
28.855	0.099	0.277	
28.860	-0.093	0.166	
28.865	-0.306	0.063	
28.870	-0.097	-0.037	
28.875	-0.023	-0.103	
28.880	-0.254	-0.135	
28.885	-0.190	-0.159	
28.890	-0.014	-0.171	
28.895	-0.207	-0.165	
28.900	-0.260	-0.164	
28.905	0.026	-0.165	
28.910	-0.068	-0.148	
28.915	-0.239	-0.128	
28.920	-0.009	-0.120	
28.925	0.090	-0.102	
28.930	-0.208	-0.076	
28.935	-0.110	-0.069	
28.940	0.110	-0.068	
28.945	-0.174	-0.058	
28.950	-0.219	-0.063	
28.955	0.105	-0.078	
28.960	0.009	-0.070	
28.965	-0.159	-0.055	
28.970	0.172	-0.044	
28.975	0.347	-0.006	
28.980	-0.054	0.051	
28.985	0.107	0.086	
28.990	0.453	0.115	
28.995	0.067	0.159	
29.000	-0.046	0.175	
29.005	0.386	0.168	
29.010	0.177	0.175	
29.015	-0.129	0.174	
29.020	0.186	0.147	
29.025	0.334	0.133	
29.030	-0.083	0.137	
29.035	0.024	0.123	
29.040	0.340	0.107	
29.045	-0.034	0.111	
29.050	-0.119	0.099	
29.055	0.217	0.072	
29.060	0.050	0.063	
29.065	-0.168	0.053	
29.070	0.094	0.030	
29.075	0.189	0.023	
29.080	-0.173	0.029	
29.085	-0.126	0.013	
29.090	0.124	-0.011	
29.095	-0.153	-0.022	
29.100	-0.203	-0.041	
29.105	0.087	-0.065	
29.110	-0.080	-0.070	
29.115	-0.303	-0.076	
29.120	-0.069	-0.100	
29.125	-0.013	-0.115	
29.130	-0.254	-0.117	
29.135	-0.147	-0.127	
29.140	0.094	-0.129	
