Time	Potential	EKG	Unnamed: 3
0.0	-0.314	-0.019755324304855784	
0.005	-0.201	-0.05951954427493058	
0.01	0.704	-0.060023583156401564	
0.015	-0.105	-0.012524121102228794	
0.02	-0.352	0.02010899284605315	
0.025	0.530	0.034189996969085694	
0.03	0.232	0.06863917739030617	
0.035	-0.462	0.08766001551369236	
0.04	-0.041	0.06420980363481205	
0.045	0.337	0.02971775857736628	
0.05	-0.448	-0.0013400022149100237	
0.055	-0.354	-0.04571945814562771	
0.06	0.366	-0.08654184948725045	
0.065	-0.276	-0.10384117602478728	
0.07	-0.509	-0.12441482456003941	
0.075	0.210	-0.14263759503560877	
0.08	-0.017	-0.14422109584790072	
0.085	-0.564	-0.1464588317973134	
0.09	-0.087	-0.1566057749633258	
0.095	0.401	-0.15093497917967805	
0.1	-0.422	-0.1262446695697167	
0.105	-0.322	-0.11185918020019076	
0.11	0.454	-0.1006673356906624	
0.115	-0.229	-0.08284539154226195	
0.12	-0.477	-0.07761043243507286	
0.125	0.349	-0.07898897115549547	
0.13	0.152	-0.0630704991721747	
0.135	-0.479	-0.04709673083299568	
0.14	-0.024	-0.045786759717179444	
0.145	0.398	-0.04490937952906615	
0.15	-0.457	-0.04464744963769172	
0.155	-0.363	-0.05900174202847082	
0.16	0.360	-0.08227002840390422	
0.165	-0.308	-0.10054181933283628	
0.17	-0.570	-0.12550199331407863	
0.175	0.180	-0.14979545125188648	
0.18	0.011	-0.16194346057983547	
0.185	-0.563	-0.16629356414698673	
0.19	-0.119	-0.1691675592866174	
0.195	0.296	-0.16612869193206314	
0.2	-0.512	-0.15970259151972066	
0.205	-0.407	-0.16110474988944712	
0.21	0.466	-0.1591841289782263	
0.215	-0.046	-0.13306532615341654	
0.22	-0.270	-0.08718287519982171	
0.225	0.599	-0.1591841289782263	
0.23	0.171	-0.15970259151972066	
0.235	-0.555	-0.15970259151972066	
0.24	-0.185	-0.1591841289782263	
0.245	0.194	-0.1533734222749063	
0.25	-0.524	-0.07550624604820846	
0.255	-0.421	-0.13421159163815893	
0.26	0.270	-0.17532900965074089	
0.265	-0.322	-0.20047745538565465	
0.27	-0.540	-0.21478558130097763	
0.275	0.293	-0.2061020695814495	
0.28	0.030	-0.18169870318275705	
0.285	-0.607	-0.1610897806137785	
0.29	-0.143	-0.1533734222749063	
0.295	0.306	-0.15288049469558462	
0.3	-0.476	-0.15120388123297424	
0.305	-0.390	-0.14941709395721575	
0.31	0.381	-0.14754872018014786	
0.315	-0.241	-0.1427548818883077	
0.32	-0.505	-0.1384038328192425	
0.325	0.294	-0.12648643939177837	
0.33	0.101	-0.11047747717898723	
0.335	-0.508	-0.09782578462042282	
0.34	-0.005	-0.08513117884688222	
0.345	0.572	-0.0652756797988359	
0.35	-0.352	-0.034789446770339495	
0.355	-0.235	-0.008668923333321426	
0.36	0.756	0.017167647635440174	
0.365	-0.085	0.05107841421317816	
0.37	-0.396	0.07098912408114585	
0.375	0.581	0.08299036249855042	
0.38	0.460	0.10783349330468371	
0.385	-0.410	0.13557934143191638	
0.39	0.125	0.14488383973532643	
0.395	0.668	0.14121132672349945	
0.4	-0.387	0.13492602898324046	
0.405	-0.343	0.1080369608095109	
0.41	0.422	0.05952570311962991	
0.415	-0.265	0.004128132311173569	
0.42	-0.538	-0.04931199979929979	
0.425	0.239	-0.08786506127931928	
0.43	0.035	-0.11498806267836971	
0.435	-0.598	-0.13463887338651925	
0.44	-0.183	-0.1501190985016937	
0.445	0.238	-0.1675703602650861	
0.45	-0.550	-0.18720103862377158	
0.455	-0.467	-0.20006538588259254	
0.46	0.373	-0.2062295687490046	
0.465	-0.250	-0.20089069535348186	
0.47	-0.570	-0.18954979756405155	
0.475	0.149	-0.1767135094172977	
0.48	0.038	-0.17087107343627955	
0.485	-0.582	-0.16889252223082052	
0.49	-0.145	-0.16307468040625223	
0.495	0.315	-0.1603301782925094	
0.5	-0.508	-0.15940933742476637	
0.505	-0.416	-0.15918903494819545	
0.51	0.399	-0.15694088056367647	
0.515	-0.285	-0.15496394779844042	
0.52	-0.595	-0.1568233482359807	
0.525	0.157	-0.15946739962666232	
0.53	-0.023	-0.1677347030761282	
0.535	-0.628	-0.18123682925873055	
0.54	-0.175	-0.18800307442042447	
0.545	0.326	-0.19200309868483548	
0.55	-0.491	-0.1886715396125341	
0.555	-0.436	-0.18035876837667475	
0.56	0.354	-0.17256467087585947	
0.565	-0.220	-0.16803001896357259	
0.57	-0.439	-0.15516219287662353	
0.575	0.677	-0.1081308712622559	
0.58	0.573	-0.02051141196913046	
0.585	-0.398	-0.15516219287662353	
0.59	0.030	-0.15516219287662353	
0.595	0.474	-0.15516219287662353	
0.6	-0.465	-0.1531652993639201	
0.605	-0.435	0.05640769935753319	
0.61	0.340	-0.008200041428050982	
0.615	-0.302	-0.07601695020670024	
0.62	-0.601	-0.1305066301770615	
0.625	0.187	-0.16295548565821077	
0.63	0.018	-0.1813337476398736	
0.635	-0.611	-0.19197996520425717	
0.64	-0.146	-0.18993810790848598	
0.645	0.469	-0.17828948038831688	
0.65	-0.398	-0.1531652993639201	
0.655	-0.393	-0.12176525926827246	
0.66	0.431	-0.1018353394922658	
0.665	-0.215	-0.09509673405241564	
0.67	-0.511	-0.09486585134386755	
0.675	0.396	-0.08365922408280486	
0.68	0.293	-0.059152584360976805	
0.685	-0.464	-0.030401669317701913	
0.69	0.015	-0.004878725005483561	
0.695	0.633	0.014070549246745216	
0.7	-0.323	0.03252684890296895	
0.705	-0.270	0.04705233975702869	
0.71	0.788	0.05959442216458942	
0.715	-0.044	0.07785435330156093	
0.72	-0.380	0.09075209236469156	
0.725	0.582	0.10359075753626236	
0.73	0.466	0.12405289309239012	
0.735	-0.396	0.1442434886693696	
0.74	0.172	0.15612396042337878	
0.745	0.755	0.162394939763007	
0.75	-0.317	0.1643457204408391	
0.755	-0.291	0.1518380577264482	
0.76	0.620	0.12284818363329524	
0.765	-0.119	0.08890101755707011	
0.77	-0.464	0.0555063931276826	
0.775	0.370	0.03069359529613891	
0.78	0.229	0.012221226190628268	
0.785	-0.511	-0.0029429669127672814	
0.79	-0.044	-0.012908802048383045	
0.795	0.573	-0.020393133304497796	
0.8	-0.360	-0.0197344264487461	
0.805	-0.297	-0.011286145036258605	
0.81	0.732	0.0030417585682244114	
0.815	-0.021	0.025924218968019653	
0.82	-0.364	0.05130098700026324	
0.825	0.729	0.0867958543387329	
0.83	0.712	0.14738531801289642	
0.835	-0.258	0.2188873924723729	
0.84	0.398	0.2760032314370554	
0.845	0.983	0.3207687680623357	
0.85	-0.133	0.3522507820932532	
0.855	-0.084	0.35653334212077525	
0.86	0.968	0.342073373662913	
0.865	0.139	0.3280803207666078	
0.87	-0.311	0.3072211096349797	
0.875	0.588	0.27862007839178565	
0.88	0.387	0.24649550133450596	
0.885	-0.425	0.2100232858285283	
0.89	0.052	0.16982207274089928	
0.895	0.575	0.12772488505804175	
0.9	-0.380	0.08750452889753214	
0.905	-0.297	0.05248452096973669	
0.91	0.590	0.027872463314170336	
0.915	-0.175	0.007268258703784901	
0.92	-0.488	-0.012682823791797668	
0.925	0.506	-0.016607345004484565	
0.93	0.613	0.013607961724201457	
0.935	-0.246	0.07525251016161934	
0.94	0.407	0.15158195296427895	
0.945	0.930	0.22763740656004985	
0.95	-0.299	0.2797847422137141	
0.955	-0.367	0.2763047059597709	
0.96	0.372	0.21155911832798563	
0.965	-0.277	0.11058361917462481	
0.97	-0.634	0.005460791687079745	
0.975	0.026	-0.08501949875922558	
0.98	-0.069	-0.1663332760273705	
0.985	-0.689	-0.2313969524535099	
0.99	-0.297	-0.2666651928953606	
0.995	0.192	-0.28752319500380413	
1.0	-0.572	-0.29984412947652417	
1.005	-0.529	-0.296667702497931	
1.01	0.270	-0.28367060570672054	
1.015	-0.284	-0.2722514095285732	
1.02	-0.605	-0.2554531032958013	
1.025	0.158	-0.22921462186561561	
1.03	0.126	-0.20328160355444266	
1.035	-0.564	-0.17930928180193412	
1.04	-0.131	-0.15281382080539252	
1.045	0.535	-0.1265033252366231	
1.05	-0.386	-0.09773647110013237	
1.055	-0.366	-0.07179658353685026	
1.06	0.620	-0.0486983764709068	
1.065	-0.111	-0.028107061267828855	
1.07	-0.476	-0.013539333042013404	
1.075	0.476	0.0016792181278701284	
1.08	0.361	0.024883926817610084	
1.085	-0.491	0.04570850158405494	
1.09	-0.089	0.0479739000293728	
1.095	0.529	0.03255892493138261	
1.1	-0.404	0.012442265618272389	
1.105	-0.421	-0.010953047409191686	
1.11	0.407	-0.03880494398332228	
1.115	-0.273	-0.07389413352704996	
1.12	-0.651	-0.1125425273776079	
1.125	0.027	-0.1495346426309031	
1.13	-0.053	-0.19200962589849355	
1.135	-0.680	-0.23114260481473092	
1.14	-0.287	-0.2531629254193161	
1.145	0.227	-0.26544113062339414	
1.15	-0.541	-0.2734239611261914	
1.155	-0.509	-0.26703575104053867	
1.16	0.335	-0.2528285948411696	
1.165	-0.215	-0.23478058071337318	
1.17	-0.608	-0.21361749997414314	
1.175	0.120	-0.19157715796304375	
1.18	0.113	-0.17889397346075556	
1.185	-0.581	-0.170220853520643	
1.19	-0.182	-0.15724516005295805	
1.195	0.401	-0.14829970164358025	
1.2	-0.462	-0.14246900169597643	
1.205	-0.442	-0.13617903832716577	
1.21	0.491	-0.12767711277119626	
1.215	-0.159	-0.11573748577992071	
1.22	-0.515	-0.10381887104790163	
1.225	0.300	-0.08647695803905438	
1.23	0.200	-0.07072936980770972	
1.235	-0.563	-0.06344174598443844	
1.24	-0.185	-0.06530109088775021	
1.245	0.332	-0.08305074392307266	
1.25	-0.534	-0.11258033755220545	
1.255	-0.517	-0.14237394478072732	
1.26	0.314	-0.16843127577691175	
1.265	-0.293	-0.19268775553187334	
1.27	-0.660	-0.21110960751962418	
1.275	0.038	-0.22033132889201168	
1.28	-0.029	-0.2345142418864583	
1.285	-0.680	-0.25074148672470953	
1.29	-0.185	-0.2502974438976181	
1.295	0.683	-0.22165194310829867	
1.3	-0.233	-0.15776757187976254	
1.305	-0.230	-0.07564251417483453	
1.31	0.738	0.0019248840913779078	
1.315	-0.136	0.05532060571651134	
1.32	-0.566	0.0674448859870578	
1.325	0.172	0.04586669614691324	
1.33	0.085	-0.002216869692970269	
1.335	-0.633	-0.060131048189477995	
1.34	-0.253	-0.10836707919276375	
1.345	0.361	-0.14824464421083522	
1.35	-0.489	-0.17699090950125154	
1.355	-0.491	-0.1869276435093496	
1.36	0.418	-0.18463060977873977	
1.365	-0.212	-0.17861963542185766	
1.37	-0.563	-0.16899601004803128	
1.375	0.265	-0.14683311551053158	
1.38	0.270	-0.11988953161443858	
1.385	-0.521	-0.09364899996699685	
1.39	-0.061	-0.06639635220660017	
1.395	0.658	-0.03969642133081674	
1.4	-0.328	-0.012322425278810462	
1.405	-0.328	0.010678067553745799	
1.41	0.726	0.030927130924093237	
1.415	0.009	0.05043480015613897	
1.42	-0.435	0.06539540977119129	
1.425	0.576	0.08446550808240362	
1.43	0.663	0.11855133879825887	
1.435	-0.352	0.16281519126857458	
1.44	0.181	0.1974763841224054	
1.445	0.976	0.22387576024321332	
1.45	-0.177	0.24846672062660213	
1.455	-0.165	0.25824606998496635	
1.46	0.965	0.26035543802302175	
1.465	0.163	0.2646056579425138	
1.47	-0.492	0.2549003810270467	
1.475	0.227	0.21252093558384952	
1.48	0.326	0.14389977537038603	
1.485	-0.500	0.0765669048911819	
1.49	-0.110	0.031352858480625086	
1.495	0.678	0.0012106591508419416	
1.5	-0.308	-0.007594264530105192	
1.505	-0.322	2.4316961976323038e-05	
1.51	0.736	0.01758632256869059	
1.515	-0.018	0.037654959729094536	
1.52	-0.460	0.050649482292011445	
1.525	0.468	0.06469725536272866	
1.53	0.486	0.08108928649922967	
1.535	-0.427	0.09626079004437939	
1.54	0.075	0.11031310991280918	
1.545	0.877	0.12551625135951705	
1.55	-0.238	0.14524449903797337	
1.555	-0.255	0.1567796848172195	
1.56	0.849	0.16285433993609677	
1.565	0.113	0.16974367571327215	
1.57	-0.395	0.17234923412438516	
1.575	0.596	0.17677500651255448	
1.58	0.619	0.18833969130531036	
1.585	-0.407	0.2010610589643474	
1.59	-0.018	0.1981627877956455	
1.595	0.698	0.1727408688620437	
1.6	-0.351	0.1372458947106257	
1.605	-0.378	0.09958220181893646	
1.61	0.607	0.06397270124606576	
1.615	-0.105	0.030863886281663738	
1.62	-0.540	0.0011797846428944366	
1.625	0.258	-0.01822545459326615	
1.63	0.189	-0.03950764905904781	
1.635	-0.598	-0.06505210615887312	
1.64	-0.230	-0.0848894883376397	
1.645	0.479	-0.10505450122079005	
1.65	-0.337	-0.1158111571082753	
1.655	-0.224	-0.09656474350303065	
1.66	1.216	-0.024777781954803003	
1.665	0.594	0.10695960814547241	
1.67	-0.230	0.24987680735862358	
1.675	0.669	0.3507799762775712	
1.68	0.559	0.38968447628500436	
1.685	-0.483	0.3717539363209963	
1.69	-0.130	0.30797474806378367	
1.695	0.617	0.21615127260064226	
1.7	-0.351	0.12619238230422886	
1.705	-0.358	0.06025432386723791	
1.71	0.668	0.02427727915989677	
1.715	-0.038	0.007021149099502849	
1.72	-0.486	-0.00021519233356124504	
1.725	0.398	0.007873597795738225	
1.73	0.469	0.023837884218897026	
1.735	-0.441	0.04264707346887877	
1.74	-0.031	0.06195036050733515	
1.745	0.739	0.07332305895824795	
1.75	-0.279	0.07909493948288465	
1.755	-0.291	0.0850841982268881	
1.76	0.861	0.09845502978398608	
1.765	0.155	0.12107787083850013	
1.77	-0.380	0.14454896871470213	
1.775	0.643	0.1709406971076835	
1.78	0.681	0.20303313536291512	
1.785	-0.369	0.23145771417417446	
1.79	0.169	0.24584287408857694	
1.795	0.942	0.2525636478189652	
1.8	-0.156	0.2560809340961253	
1.805	-0.153	0.2558517385746845	
1.81	1.122	0.2645819246946138	
1.815	0.482	0.30026814028513293	
1.82	-0.227	0.34535784153206467	
1.825	0.834	0.3838242943605602	
1.83	0.817	0.4142462176716307	
1.835	-0.296	0.42646664500956216	
1.84	0.161	0.40960214787423843	
1.845	0.928	0.3726365930255248	
1.85	-0.192	0.33029848263866435	
1.855	-0.268	0.2826796216838666	
1.86	0.777	0.2364143563534597	
1.865	0.107	0.19550552238953278	
1.87	-0.415	0.1634080024889331	
1.875	0.463	0.14557422520764285	
1.88	0.526	0.13536613401354178	
1.885	-0.399	0.1306897114753539	
1.89	-0.009	0.12939414525532045	
1.895	0.785	0.12456813756227748	
1.9	-0.264	0.1195528249425426	
1.905	-0.313	0.11359322090732323	
1.91	0.762	0.11022284190235859	
1.915	0.125	0.11270933968562354	
1.92	-0.401	0.11746044951893622	
1.925	0.540	0.13233050652173944	
1.93	0.675	0.15546802360035247	
1.935	-0.352	0.1828715775075122	
1.94	0.040	0.20116124876637193	
1.945	0.854	0.20250140835284008	
1.95	-0.227	0.1968177745737185	
1.955	-0.308	0.1824963310926812	
1.96	0.700	0.16199627620194568	
1.965	0.050	0.13692419569587738	
1.97	-0.465	0.11155757141484525	
1.975	0.331	0.09305705083575691	
1.98	0.472	0.0765205035094083	
1.985	-0.418	0.06711032722448447	
1.99	-0.061	0.06800061866074911	
1.995	0.669	0.06539431007130268	
2.0	-0.335	0.056031189942937557	
2.005	-0.422	0.04246563366900938	
2.01	0.601	0.02783295568408884	
2.015	0.218	0.024072222917566416	
2.02	-0.212	0.05265594037078707	
2.025	1.008	0.13293943701919272	
2.03	1.026	0.25757457296623354	
2.035	-0.282	0.06539431007130268	
2.04	-0.043	0.4177795973103987	
2.045	0.625	0.3773284609893249	
2.05	-0.364	0.28823333404782747	
2.055	-0.432	0.18641837761433508	
2.06	0.497	0.09566606983537732	
2.065	-0.107	0.017224020312108623	
2.07	-0.524	-0.039273357974873246	
2.075	0.219	-0.06429508787867563	
2.08	0.340	-0.07340299682772342	
2.085	-0.474	-0.07059767027646882	
2.09	-0.139	-0.054249905168623866	
2.095	0.643	-0.03771922044848356	
2.1	-0.308	-0.022653478002062154	
2.105	-0.361	-0.006616854603107192	
2.11	0.639	0.011593307082203488	
2.115	0.046	0.02528499831201707	
2.12	-0.412	0.03869097456236447	
2.125	0.472	0.06264772818094477	
2.13	0.593	0.09467900653697668	
2.135	-0.360	0.1263720379586524	
2.14	0.085	0.15364888131505322	
2.145	0.928	0.17638162210966618	
2.15	-0.151	0.19839206061808454	
2.155	-0.200	0.21323080830751734	
2.16	1.014	0.2286327595762192	
2.165	0.428	0.26145240465507463	
2.17	-0.270	0.2995800976538378	
2.175	0.715	0.3295037853621579	
2.18	0.848	0.35583161039396854	
2.185	-0.244	0.3764490415838039	
2.19	0.154	0.3774418454392687	
2.195	0.898	0.35635676443729863	
2.2	-0.197	0.32260670543551073	
2.205	-0.297	0.2761572444612214	
2.21	0.675	0.22342069590638913	
2.215	0.014	0.16861105908123541	
2.22	-0.470	0.11771876606796955	
2.225	0.315	0.08129055227223385	
2.23	0.421	0.055838626146589944	
2.235	-0.467	0.037682240830630515	
2.24	-0.151	0.02732895530833128	
2.245	0.590	0.013230518970890299	
2.25	-0.310	-0.0011881210871190389	
2.255	-0.386	-0.007826595790383951	
2.26	0.601	-0.005751598591825013	
2.265	0.017	-0.0002865774111249857	
2.27	-0.460	0.005799839872582725	
2.275	0.344	0.020136069034536314	
2.28	0.480	0.036858215530634744	
2.285	-0.424	0.0527923360389997	
2.29	-0.073	0.06622145572975445	
2.295	0.753	0.07320040645353647	
2.3	-0.213	0.08093502497749479	
2.305	-0.300	0.09010888709461237	
2.31	0.758	0.10216231610432357	
2.315	0.151	0.11683285411584632	
2.32	-0.442	0.1258003337324088	
2.325	0.300	0.12599183077628429	
2.33	0.439	0.11091647743772556	
2.335	-0.444	0.09088805262229097	
2.34	-0.102	0.07412219524914361	
2.345	0.658	0.05718080375794679	
2.35	-0.281	0.04303922493651835	
2.355	-0.342	0.03606965420152448	
2.36	0.584	0.03510252708783518	
2.365	-0.058	0.027894094731613486	
2.37	-0.488	0.013795760863300949	
2.375	0.488	0.016979388424112733	
2.38	0.933	0.06303455701431003	
2.385	-0.107	0.14990191672784592	
2.39	0.372	0.06303455701431003	
2.395	1.001	0.05718080375794679	
2.4	-0.194	0.04303922493651835	
2.405	-0.360	0.0401443678317633	
2.41	0.550	0.0401443678317633	
2.415	-0.012	0.052239943252484676	
2.42	-0.474	0.12176547597157103	
2.425	0.322	0.0668141591719052	
2.43	0.512	0.0401443678317633	
2.435	-0.439	0.03497331624787809	
2.44	-0.133	0.0378284099156555	
2.445	0.657	0.035267188274324304	
2.45	-0.265	0.03128914091482968	
2.455	-0.345	0.031816713107560374	
2.46	0.662	0.03999909710289571	
2.465	0.125	0.052239943252484676	
2.47	-0.416	0.06570736381907266	
2.475	0.428	0.08666217210752267	
2.48	0.623	0.11126308443433754	
2.485	-0.329	0.13801311987686316	
2.49	0.020	0.159666899740242	
2.495	0.852	0.17232869933673356	
2.5	-0.156	0.1804067539899325	
2.505	-0.236	0.18366565605192495	
2.51	0.908	0.19196701571619226	
2.515	0.416	0.2174310946638845	
2.52	-0.253	0.2526483329179319	
2.525	0.750	0.2924974976792908	
2.53	0.918	0.3394092029545975	
2.535	-0.229	0.3821042123238133	
2.54	0.209	0.39743764437643625	
2.545	1.040	0.3943195492321202	
2.55	-0.098	0.38266084566124575	
2.555	-0.250	0.3515340339984767	
2.56	0.785	0.30771467929000595	
2.565	0.190	0.26368493857508624	
2.57	-0.415	0.22278585207973683	
2.575	0.360	0.1861357771741245	
2.58	0.503	0.15445795503037957	
2.585	-0.441	0.12548405837616577	
2.59	-0.166	0.0972009051397338	
2.595	0.584	0.0620825710753012	
2.6	-0.319	0.028059570126545676	
2.605	-0.433	0.0005746265918167924	
2.61	0.521	-0.01667205252932006	
2.615	-0.002	-0.02811267792134432	
2.62	-0.502	-0.0339550577970674	
2.625	0.204	-0.02921203841781174	
2.63	0.390	-0.025583751858824787	
2.635	-0.442	-0.021166196855425132	
2.64	-0.149	-0.010965989801990808	
2.645	0.660	-0.0011302902305288416	
2.65	-0.279	0.007345002342516554	
2.655	-0.399	0.013578258655144938	
2.66	0.553	0.01603996997735442	
2.665	0.017	0.015049190464584384	
2.67	-0.497	0.009198440244809772	
2.675	0.155	0.0045258985163187816	
2.68	0.283	-0.011576651435874991	
2.685	-0.544	-0.0359409550068265	
2.69	-0.270	-0.057121519229676655	
2.695	0.448	-0.08023690041336051	
2.7	-0.360	-0.10144070604977595	
2.705	-0.477	-0.1114474908276524	
2.71	0.416	-0.11010662195903087	
2.715	-0.073	-0.1088200539691525	
2.72	-0.560	-0.10877124763066091	
2.725	0.020	-0.10560365027629462	
2.73	0.223	-0.11449696628367871	
2.735	-0.460	-0.12389075838443518	
2.74	-0.034	-0.10720623594054193	
2.745	1.043	-0.04812402874115369	
2.75	-0.060	0.043620384640663	
2.755	-0.291	-0.07302031609267992	
2.76	0.585	-0.0720113222953662	
2.765	-0.032	0.16432100847967834	
2.77	-0.555	0.12308494360227412	
2.775	0.108	0.07032114669380703	
2.78	0.341	0.01471637391989387	
2.785	-0.503	-0.028922577158317142	
2.79	-0.253	-0.054412411629481267	
2.795	0.521	-0.07302031609267992	
2.8	-0.323	-0.08429371409004542	
2.805	-0.436	-0.08378389651582793	
2.81	0.524	-0.0720113222953662	
2.815	0.041	-0.05552970472257664	
2.82	-0.499	-0.039077793360102905	
2.825	0.236	-0.019690823080186947	
2.83	0.479	-0.002102258800095726	
2.835	-0.428	0.014937602732846472	
2.84	-0.151	0.029461839248997646	
2.845	0.684	0.036188277863530995	
2.85	-0.226	0.040680585121120764	
2.855	-0.343	0.046002045902607744	
2.86	0.761	0.06114989329921737	
2.865	0.280	0.09160088104054533	
2.87	-0.357	0.1266911924880617	
2.875	0.544	0.16331676215745855	
2.88	0.840	0.20812771106843098	
2.885	-0.252	0.2548109687310527	
2.89	0.120	0.28429236319632833	
2.895	1.040	0.30237738451426627	
2.9	-0.034	0.31675401275523185	
2.905	-0.217	0.31577450592682943	
2.91	0.919	0.3071412843911497	
2.915	0.387	0.30481424923452866	
2.92	-0.361	0.3016153108287986	
2.925	0.389	0.28410508084642483	
2.93	0.584	0.2542579710431288	
2.935	-0.396	0.21797020676471182	
2.94	-0.149	0.17609757861920328	
2.945	0.643	0.12830967238837362	
2.95	-0.268	0.0840039917451335	
2.955	-0.412	0.04775106693080175	
2.96	0.570	0.024927457556329358	
2.965	0.058	0.012962364148699966	
2.97	-0.476	0.006756915235737931	
2.975	0.271	0.010906942828670206	
2.98	0.534	0.023271901815951138	
2.985	-0.404	0.04017759866270156	
2.99	-0.133	0.05495675648518028	
2.995	0.703	0.061185730331195405	
3.0	-0.227	0.06421395561683957	
3.005	-0.364	0.06372620891218804	
3.01	0.640	0.06471082011936036	
3.015	0.146	0.0701123613457355	
3.02	-0.456	0.07387645603682211	
3.025	0.290	0.07666236476283766	
3.03	0.546	0.0802837255381377	
3.035	-0.415	0.08441805542075312	
3.04	-0.206	0.07979235110878205	
3.045	0.561	0.059021568593469784	
3.05	-0.316	0.028471384039123426	
3.055	-0.485	-0.0032563886482076462	
3.06	0.381	-0.03155650303481497	
3.065	-0.060	-0.061752761670527456	
3.07	-0.543	-0.0859354278313188	
3.075	0.117	-0.09255121187372849	
3.08	0.386	-0.08974709448864578	
3.085	-0.485	-0.08136224149664081	
3.09	-0.270	-0.06929915326335405	
3.095	0.466	-0.06810219192544412	
3.1	-0.255	-0.07337244475590629	
3.105	-0.274	-0.06223210486855917	
3.11	1.052	-0.0056345126132056784	
3.115	0.599	-0.06223210486855917	
3.12	-0.320	-0.06810219192544412	
3.125	0.294	-0.06810219192544412	
3.13	0.369	-0.06810219192544412	
3.135	-0.517	-0.06810219192544412	
3.14	-0.282	0.13857879724459957	
3.145	0.431	0.05183686847239599	
3.15	-0.348	-0.02618429905409426	
3.155	-0.497	-0.08126375576893775	
3.16	0.366	-0.10983698766383072	
3.165	-0.066	-0.12754740775678206	
3.17	-0.564	-0.13680596257899888	
3.175	0.064	-0.1308312082394908	
3.18	0.373	-0.1206901182785764	
3.185	-0.460	-0.10614495159629306	
3.19	-0.221	-0.08248897182413782	
3.195	0.578	-0.06215855494497218	
3.2	-0.261	-0.046153821627431285	
3.205	-0.407	-0.03235745551768274	
3.21	0.564	-0.014816694061697458	
3.215	0.137	0.0045297057743295	
3.22	-0.445	0.023086226046291545	
3.225	0.297	0.043146228458394165	
3.23	0.619	0.06644179744545341	
3.235	-0.335	0.0937861361810533	
3.24	-0.027	0.11640240227522475	
3.245	0.960	0.1419778882858297	
3.25	-0.037	0.17690178401561626	
3.255	-0.233	0.20548112152840273	
3.26	0.895	0.22818619302006768	
3.265	0.445	0.25768731020575936	
3.27	-0.302	0.28502746699881776	
3.275	0.546	0.29998981564757143	
3.28	0.785	0.31054107487702964	
3.285	-0.319	0.31391111428471086	
3.29	-0.099	0.2902117431368911	
3.295	0.620	0.23886411332656687	
3.3	-0.299	0.17213585862742778	
3.305	-0.432	0.10249780568665923	
3.31	0.482	0.04594038703304255	
3.315	0.029	0.004825216231431489	
3.32	-0.502	-0.023761884838911163	
3.325	0.097	-0.03824819483133852	
3.33	0.378	-0.047514820434180316	
3.335	-0.485	-0.054796918292285064	
3.34	-0.244	-0.05587197876337562	
3.345	0.562	-0.056318048904428784	
3.35	-0.268	-0.053637554174559524	
3.355	-0.421	-0.04746604452674628	
3.36	0.532	-0.03431023265778708	
3.365	0.108	-0.017065956509282325	
3.37	-0.480	-0.0026142838131573295	
3.375	0.187	0.01052707563998301	
3.38	0.524	0.021474588854716734	
3.385	-0.432	0.0324283812257838	
3.39	-0.197	0.03698126148422018	
3.395	0.633	0.03252814787292885	
3.4	-0.265	0.025597221099617585	
3.405	-0.450	0.014538106543230593	
3.41	0.419	-0.00056919974407423	
3.415	-0.031	-0.02093068156566334	
3.42	-0.561	-0.04543523162943212	
3.425	-0.061	-0.0707118782995939	
3.43	0.204	-0.10357037787467467	
3.435	-0.570	-0.139316421213301	
3.44	-0.352	-0.16110168747513026	
3.445	0.364	-0.1746282459669441	
3.45	-0.374	-0.18422181630936874	
3.455	-0.558	-0.18542363936175374	
3.46	0.178	-0.18573533062782666	
3.465	-0.111	-0.19486514137281188	
3.47	-0.505	-0.19834125995303054	
3.475	0.437	-0.15975892235659783	
3.48	0.945	-0.06249122547498591	
3.485	-0.233	-0.15975892235659783	
3.49	-0.140	-0.16110168747513026	
3.495	0.538	-0.1746282459669441	
3.5	-0.345	-0.18422181630936874	
3.505	-0.572	-0.17654347944986834	
3.51	0.180	0.01316262926062313	
3.515	-0.157	-0.07571641580040657	
3.52	-0.621	-0.15030258909585617	
3.525	-0.085	-0.1929405523838266	
3.53	0.209	-0.21649117111362812	
3.535	-0.567	-0.2271472742374124	
3.54	-0.358	-0.2202883962839371	
3.545	0.384	-0.20764943544764683	
3.55	-0.331	-0.19504447805933522	
3.555	-0.499	-0.17654347944986834	
3.56	0.346	-0.15280126360371948	
3.565	-0.044	-0.13468692107973027	
3.57	-0.537	-0.12343547289017606	
3.575	0.070	-0.10892553725635495	
3.58	0.431	-0.09135916522959098	
3.585	-0.444	-0.07128170294066774	
3.59	-0.230	-0.051376152319094745	
3.595	0.646	-0.03345179719993996	
3.6	-0.204	-0.01407691519781248	
3.605	-0.355	0.004257164857728064	
3.61	0.694	0.030356136220625624	
3.615	0.337	0.07145434223926021	
3.62	-0.355	0.11534662214995617	
3.625	0.495	0.15604519640314357	
3.63	0.838	0.20386484837357616	
3.635	-0.265	0.24963634802659596	
3.64	-0.070	0.26641217174220744	
3.645	0.819	0.2546697744807516	
3.65	-0.162	0.23106026404949756	
3.655	-0.374	0.19407692351819936	
3.66	0.559	0.15226362365253185	
3.665	0.094	0.11365818514056569	
3.67	-0.523	0.07336047143266082	
3.675	0.018	0.0328195311627126	
3.68	0.334	-0.01205857287818847	
3.685	-0.523	-0.05215471627522024	
3.69	-0.369	-0.08372417449577856	
3.695	0.352	-0.11541946029085272	
3.7	-0.357	-0.1457332779413329	
3.705	-0.524	-0.16292574450581623	
3.71	0.311	-0.16389199441699004	
3.715	-0.064	-0.16124090466235683	
3.72	-0.581	-0.15957444064247128	
3.725	-0.014	-0.15029670470869833	
3.73	0.384	-0.14001756278482674	
3.735	-0.456	-0.12409074391520897	
3.74	-0.271	-0.10081652808695782	
3.745	0.559	-0.08039630908480765	
3.75	-0.270	-0.06467455358468645	
3.755	-0.465	-0.054035976783848666	
3.76	0.454	-0.044891345296508255	
3.765	0.059	-0.037132797619196106	
3.77	-0.532	-0.03566470781795371	
3.775	0.050	-0.037359267779877976	
3.78	0.373	-0.04489277056871518	
3.785	-0.499	-0.05512489767004318	
3.79	-0.340	-0.06593503174965992	
3.795	0.398	-0.08328770616486131	
3.8	-0.364	-0.10862745909881966	
3.805	-0.566	-0.13117460527286665	
3.81	0.200	-0.14882928963087785	
3.815	-0.117	-0.17202982465763983	
3.82	-0.624	-0.19380983786779576	
3.825	-0.139	-0.2013349073501592	
3.83	0.122	-0.21572551896770845	
3.835	-0.558	-0.23229755526352816	
3.84	-0.215	-0.2249808126028499	
3.845	1.038	-0.16594456990549153	
3.85	0.241	-0.04568879230849085	
3.855	-0.191	0.09452430422086941	
3.86	0.686	-0.14428686872904806	
3.865	0.052	-0.13667475252193537	
3.87	-0.589	0.2168170712303958	
3.875	-0.076	0.14472789807738506	
3.88	0.271	0.05057887904369351	
3.885	-0.541	-0.038525450782747536	
3.89	-0.349	-0.0991248988139347	
3.895	0.439	-0.13667475252193537	
3.9	-0.311	-0.1557961314960892	
3.905	-0.506	-0.15769525485516567	
3.91	0.346	-0.14428686872904806	
3.915	0.001	-0.1318252222380032	
3.92	-0.540	-0.12252769541881875	
3.925	0.102	-0.1030933427967787	
3.93	0.506	-0.07810992152303595	
3.935	-0.418	-0.048924396861427126	
3.94	-0.236	-0.022254265983669624	
3.945	0.660	-0.003220402383426929	
3.95	-0.215	0.009016173587438414	
3.955	-0.399	0.016911926901902064	
3.96	0.678	0.03313912906574468	
3.965	0.401	0.06734516468565875	
3.97	-0.367	0.11096314025459013	
3.975	0.419	0.15302840594577075	
3.98	0.884	0.19730182457317597	
3.985	-0.220	0.2427144617174099	
3.99	0.017	0.27154679872052395	
3.995	1.050	0.28821975354822305	
4.0	0.101	0.3069665537257589	
4.005	-0.217	0.31854212295333073	
4.01	0.905	0.32335756329725907	
4.015	0.550	0.3345331238617424	
4.02	-0.314	0.34366806492134405	
4.025	0.393	0.3369970584054435	
4.03	0.738	0.31753839316153465	
4.035	-0.343	0.28761833607372334	
4.04	-0.198	0.24340047167221596	
4.045	0.687	0.18736191046114048	
4.05	-0.213	0.13102221104859627	
4.055	-0.448	0.08142109044950614	
4.06	0.466	0.044389424764698024	
4.065	0.096	0.013622906947545598	
4.07	-0.514	-0.009396289756360929	
4.075	0.131	-0.018006525436689222	
4.08	0.480	-0.019357579538158694	
4.085	-0.462	-0.01842992875118918	
4.09	-0.252	-0.016658958172299586	
4.095	0.715	-0.011517173407545066	
4.1	-0.157	0.0020234940078007442	
4.105	-0.399	0.019282415508635357	
4.11	0.599	0.03946084577689604	
4.115	0.280	0.06171626281656324	
4.12	-0.422	0.08146038787704243	
4.125	0.293	0.10296175970451685	
4.13	0.709	0.12379324371196464	
4.135	-0.339	0.1425104923593719	
4.14	-0.175	0.14920874280615493	
4.145	0.716	0.1395843652654045	
4.15	-0.191	0.11906528099492532	
4.155	-0.436	0.09314544720110571	
4.16	0.474	0.06849871045162441	
4.165	0.116	0.041826213166150206	
4.17	-0.506	0.017356730608532527	
4.175	0.088	0.002931598442459164	
4.18	0.515	-0.006069294232655045	
4.185	-0.419	-0.009541630131623213	
4.19	-0.262	-0.005873284440552101	
4.195	0.544	-0.008274321763381056	
4.2	-0.279	-0.0209472506309455	
4.205	-0.438	-0.03400584245071186	
4.21	0.660	-0.02434537929270955	
4.215	0.627	0.02395551706222855	
4.22	-0.188	0.10916084160502122	
4.225	0.633	0.21093946039743833	
4.23	0.829	0.033948271702526844	
4.235	-0.355	0.04733965197790811	
4.24	-0.244	0.04976657755034409	
4.245	0.594	0.26194229824933857	
4.25	-0.218	0.17507156476073388	
4.255	-0.433	0.09779251238991529	
4.26	0.544	0.04976657755034409	
4.265	0.235	0.02706717659139986	
4.27	-0.454	0.02294863585315465	
4.275	0.183	0.033948271702526844	
4.28	0.643	0.04733965197790811	
4.285	-0.343	0.06417359982003709	
4.29	-0.186	0.08087780463872085	
4.295	0.764	0.09117274655164437	
4.3	-0.093	0.09703400300992537	
4.305	-0.329	0.10355709925838703	
4.31	0.727	0.11993093779183432	
4.315	0.450	0.14717932671715125	
4.32	-0.343	0.17868520480588543	
4.325	0.445	0.21098229109590785	
4.33	0.893	0.2435775876522796	
4.335	-0.226	0.2739880883766188	
4.34	-0.061	0.28673123226379	
4.345	0.954	0.28241696334704386	
4.35	0.107	0.2790395852119052	
4.355	-0.197	0.28033922531518485	
4.36	1.030	0.29705037876776985	
4.365	0.741	0.34032998974484896	
4.37	-0.209	0.38951631511057244	
4.375	0.627	0.4259077520850171	
4.38	0.998	0.44972842545748754	
4.385	-0.198	0.45598326080136325	
4.39	-0.034	0.43258400523063256	
4.395	0.944	0.3874550570114468	
4.4	-0.027	0.3371712347557807	
4.405	-0.325	0.28625067502360013	
4.41	0.710	0.24392314274921761	
4.415	0.343	0.21346413070827136	
4.42	-0.439	0.18859530203736424	
4.425	0.168	0.1647349115979191	
4.43	0.665	0.13875262395305366	
4.435	-0.342	0.11919123647463982	
4.44	-0.215	0.10749870537824155	
4.445	0.697	0.09332484746458483	
4.45	-0.148	0.07733246621489859	
4.455	-0.390	0.06528912630998757	
4.46	0.627	0.06675502242902992	
4.465	0.341	0.08052593634523678	
4.47	-0.418	0.09871516321968887	
4.475	0.242	0.11760670701849378	
4.48	0.735	0.13271390876168576	
4.485	-0.303	0.14632310100799403	
4.49	-0.156	0.15543704415801246	
4.495	0.826	0.15622501241225886	
4.5	-0.089	0.15245200185950253	
4.505	-0.354	0.14630609595815247	
4.51	0.665	0.14360924985129267	
4.515	0.315	0.14458313892531555	
4.52	-0.450	0.14281711130011954	
4.525	0.158	0.13547878956996892	
4.53	0.553	0.11667720580138394	
4.535	-0.422	0.09146372860779364	
4.54	-0.284	0.06539311392324088	
4.545	0.575	0.036125025838911286	
4.55	-0.213	0.00656104527414614	
4.555	-0.441	-0.013651783104131083	
4.56	0.508	-0.014491935616003048	
4.565	0.160	-0.008380646601257407	
4.57	-0.526	-0.005125648152132947	
4.575	0.119	0.0014164857532467173	
4.58	0.863	0.021716587569109012	
4.585	-0.117	0.07355253268061351	
4.59	0.245	0.1553396016658386	
4.595	1.242	0.257114496334049	
4.6	0.064	0.01773922522323464	
4.605	-0.390	0.01773922522323464	
4.61	0.462	0.01773922522323464	
4.615	0.126	0.27274487487250404	
4.62	-0.531	0.17593480475731443	
4.625	-0.020	0.09126559975647912	
4.63	0.433	0.01773922522323464	
4.635	-0.441	-0.03732562282986723	
4.64	-0.293	-0.06176661908985823	
4.645	0.599	-0.06693382143432372	
4.65	-0.210	-0.0642245845223311	
4.655	-0.454	-0.05475401746882409	
4.66	0.485	-0.035650380612543386	
4.665	0.290	-0.0121717480309703	
4.67	-0.418	0.015898195376395863	
4.675	0.229	0.051203572898082354	
4.68	0.707	0.08482310163635562	
4.685	-0.311	0.11362714794325528	
4.69	-0.160	0.13310714756513128	
4.695	0.843	0.1431628228149266	
4.7	-0.023	0.151825849969459	
4.705	-0.299	0.16010299126830463	
4.71	0.820	0.17738911962414072	
4.715	0.625	0.21396748366384338	
4.72	-0.261	0.26079275375470756	
4.725	0.552	0.3051127104343623	
4.73	1.029	0.3479615295523887	
4.735	-0.156	0.3846530530986423	
4.74	-0.017	0.39294186963938116	
4.745	1.038	0.3801746711926285	
4.75	0.110	0.3639906259704099	
4.755	-0.294	0.34202867306258933	
4.76	0.724	0.31321080578094296	
4.765	0.386	0.2830923928860432	
4.77	-0.439	0.24891971372851193	
4.775	0.116	0.2079001025569514	
4.78	0.555	0.15691474154964313	
4.785	-0.407	0.10692146485029927	
4.79	-0.305	0.06590002343020335	
4.795	0.556	0.027962213631438394	
4.8	-0.210	-0.006841010098650974	
4.805	-0.465	-0.029835907074545774	
4.81	0.422	-0.03498756124862326	
4.815	0.163	-0.034908023760123585	
4.82	-0.489	-0.032899816264221275	
4.825	0.070	-0.0211775787296639	
4.83	0.587	-0.008170498931969682	
4.835	-0.370	0.006027980533572708	
4.84	-0.229	0.02289222903448092	
4.845	0.721	0.037884021906413996	
4.85	-0.139	0.04920504769474937	
4.855	-0.407	0.0551612339641882	
4.86	0.546	0.06295425929454856	
4.865	0.276	0.07113860463761479	
4.87	-0.418	0.07710914638235386	
4.875	0.265	0.09076007764707776	
4.88	0.721	0.11088277151038273	
4.885	-0.332	0.13106004232810406	
4.89	-0.227	0.13677977443026676	
4.895	0.684	0.12589365517582662	
4.9	-0.200	0.1023131777163987	
4.905	-0.480	0.07007594596568383	
4.91	0.408	0.040888450071813714	
4.915	0.186	0.014281119433258832	
4.92	-0.492	-0.003896931980777117	
4.925	0.033	-0.009377102324915502	
4.93	0.549	-0.012026709233837023	
4.935	-0.413	-0.011859598046493593	
4.94	-0.340	-0.009341066735092605	
4.945	0.520	-0.017080900648010894	
4.95	-0.089	-0.02758133361669051	
4.955	-0.207	-0.01398780894803984	
4.96	1.212	0.0619384245185056	
4.965	1.009	0.014281119433258832	
4.97	-0.204	-0.003896931980777117	
4.975	0.322	-0.008577387362580912	
4.98	0.651	0.017108803163436964	
4.985	-0.396	0.021944029126306518	
4.99	-0.305	0.30351381136321154	
4.995	0.555	0.19592902722329109	
5.0	-0.210	0.09557623923822633	
5.005	-0.450	0.021944029126306518	
5.01	0.450	-0.015230302818521637	
5.015	0.218	-0.028496415202789886	
5.02	-0.468	-0.026907584404604907	
5.025	0.143	-0.008577387362580912	
5.03	0.680	0.017108803163436964	
5.035	-0.320	0.04725522858986195	
5.04	-0.194	0.07445491531067996	
5.045	0.780	0.09392420353820259	
5.05	-0.049	0.10861864665521029	
5.055	-0.325	0.11986151108061893	
5.06	0.751	0.13973660489227893	
5.065	0.552	0.1745998798919486	
5.07	-0.297	0.21505755777712912	
5.075	0.463	0.2533139408981973	
5.08	1.029	0.29418898359122025	
5.085	-0.133	0.3363305446673138	
5.09	0.076	0.36231598328520437	
5.095	1.192	0.3808971724262705	
5.1	0.358	0.41081322269456144	
5.105	-0.124	0.4398164520408169	
5.11	1.084	0.4615063484497956	
5.115	0.870	0.49374497036037096	
5.12	-0.156	0.5252570395684191	
5.125	0.631	0.5360162474861407	
5.13	1.046	0.5350756816954119	
5.135	-0.185	0.5197259403261485	
5.14	-0.108	0.4702027180320804	
5.145	0.812	0.39346246217882364	
5.15	-0.104	0.3121722973745352	
5.155	-0.421	0.22910088335698464	
5.16	0.471	0.15695067030781362	
5.165	0.244	0.10078571885693768	
5.17	-0.488	0.06086513460455047	
5.175	-0.014	0.031639912863917125	
5.18	0.430	0.0006864311886131437	
5.185	-0.451	-0.028622289050387845	
5.19	-0.355	-0.04973525082260151	
5.195	0.442	-0.06818017487802183	
5.2	-0.239	-0.08749298761173485	
5.205	-0.514	-0.09946475598906523	
5.21	0.341	-0.09762668904575832	
5.215	0.149	-0.0903020051109838	
5.22	-0.532	-0.08055433098519832	
5.225	-0.050	-0.0706374814699251	
5.23	0.463	-0.06570536945339425	
5.235	-0.433	-0.06312788684456283	
5.24	-0.328	-0.05766712837263353	
5.245	0.569	-0.05269790513578086	
5.25	-0.169	-0.04624378114827536	
5.255	-0.465	-0.0391232475122385	
5.26	0.348	-0.03209518101256721	
5.265	0.059	-0.034375348243051884	
5.27	-0.592	-0.05107866667008673	
5.275	-0.169	-0.0738672179138762	
5.28	0.216	-0.11103353466530885	
5.285	-0.557	-0.1527165036832679	
5.29	-0.465	-0.18359136247207486	
5.295	0.300	-0.203110868527316	
5.3	-0.311	-0.21906084880540824	
5.305	-0.576	-0.22084158128365422	
5.31	0.058	-0.21540844763005323	
5.315	-0.201	-0.2284534913820427	
5.32	-0.701	-0.25677872021730314	
5.325	-0.089	-0.2669330787982814	
5.33	0.767	-0.2331520761689274	
5.335	-0.192	-0.14650990723412433	
5.34	-0.134	-0.0406036301113253	
5.345	0.721	0.04566733831495035	
5.35	-0.139	-0.21540844763005323	
5.355	-0.491	0.11224178679300842	
5.36	0.215	0.08539566136102167	
5.365	-0.070	0.026554290257222782	
5.37	-0.653	-0.04957781138375213	
5.375	-0.227	-0.11806890511179313	
5.38	0.113	-0.18133748889207824	
5.385	-0.656	-0.23934718776832828	
5.39	-0.593	-0.28253277709630764	
5.395	0.155	-0.3134671150041648	
5.4	-0.337	-0.33390001580082174	
5.405	-0.555	-0.32560459068741476	
5.41	0.340	-0.2826400048378237	
5.415	0.194	-0.21946751280512558	
5.42	-0.399	-0.1475363271662744	
5.425	0.294	-0.06507191884468719	
5.43	0.963	0.03467338698167176	
5.435	-0.029	0.14765162287342273	
5.44	0.273	0.2554128947454929	
5.445	1.287	0.3595450478125074	
5.45	0.474	0.4631428931972901	
5.455	-0.066	0.535284821897562	
5.46	0.948	0.561224129085168	
5.465	0.655	0.5606333039817839	
5.47	-0.159	0.5385544096385928	
5.475	0.753	0.5127343087005224	
5.48	1.277	0.5206662204840032	
5.485	0.280	0.5639493476620685	
5.49	0.534	0.6142828069798415	
5.495	1.495	0.6722565101348708	
5.5	0.683	0.7374906413797404	
5.505	-0.003	0.7704310396014111	
5.51	0.910	0.74769849996953	
5.515	0.636	0.6877633553431142	
5.52	-0.230	0.6070875094409571	
5.525	0.190	0.5042418144559611	
5.53	0.401	0.3812811659439991	
5.535	-0.454	0.2456373681700451	
5.54	-0.349	0.11727736279711633	
5.545	0.410	0.013562662159467383	
5.55	-0.194	-0.060047752938767046	
5.555	-0.473	-0.10004109502453085	
5.56	0.251	-0.1139569323476541	
5.565	0.148	-0.11428383959976063	
5.57	-0.421	-0.10219321060582001	
5.575	0.041	-0.07610117401968308	
5.58	0.508	-0.04616655458635924	
5.585	-0.352	-0.018741023379606217	
5.59	-0.331	-0.0036955187669542354	
5.595	0.314	-0.01413340676830996	
5.6	-0.206	-0.04273869841534995	
5.605	-0.424	-0.06859556460614194	
5.61	0.300	-0.07552623422499558	
5.615	0.053	-0.07637935548321816	
5.62	-0.540	-0.0826183313151213	
5.625	-0.137	-0.09438795690902817	
5.63	0.181	-0.11556329544952115	
5.635	-0.523	-0.14623495062806063	
5.64	-0.517	-0.17661079866821486	
5.645	-0.055	-0.21963558074770248	
5.65	-0.492	-0.28151138257450936	
5.655	-0.756	-0.3382775165029691	
5.66	-0.191	-0.3779226147983673	
5.665	-0.305	-0.4154309112986011	
5.67	-0.758	-0.4432255388808199	
5.675	-0.355	-0.4455221884740338	
5.68	-0.079	-0.44078044608515965	
5.685	-0.674	-0.43801020848851296	
5.69	-0.624	-0.42956180369069574	
5.695	-0.073	-0.4248019131659426	
5.7	-0.332	-0.4244458520260468	
5.705	-0.366	-0.392183771674174	
5.71	0.707	-0.293922508671571	
5.715	0.404	-0.14439747951508583	
5.72	-0.491	-0.012330046637888947	
5.725	-0.230	0.04833262776022418	
5.73	-0.002	0.020293722107290968	
5.735	-0.602	-0.06199675771806865	
5.74	-0.532	-0.15068087177625544	
5.745	0.027	-0.22769357653904815	
5.75	-0.364	-0.29235197408088326	
5.755	-0.628	-0.32737811484237467	
5.76	-0.092	-0.33594773814373496	
5.765	-0.125	-0.34225649833645316	
5.77	-0.570	-0.33840643981116564	
5.775	-0.165	-0.31058287966781684	
5.78	0.355	-0.26846039167159813	
5.785	-0.364	-0.21718824130623243	
5.79	-0.306	-0.16282159671544696	
5.795	0.462	-0.11438797767213538	
5.8	-0.159	-0.07945464885211799	
5.805	-0.442	-0.05672346971445246	
5.81	0.319	-0.04065417877644194	
5.815	0.293	-0.02408389027072722	
5.82	-0.407	-0.003832067909602905	
5.825	0.084	0.017477410538783312	
5.83	0.646	0.03990732643903563	
5.835	-0.197	0.06951651376267687	
5.84	-0.140	0.09799748179002128	
5.845	0.771	0.12201526706031528	
5.85	-0.029	0.14448562442912966	
5.855	-0.366	0.1489280250627179	
5.86	0.585	0.1435985740613827	
5.865	0.538	0.15510863878522407	
5.87	-0.279	0.18085803501664333	
5.875	0.287	0.2034707999977345	
5.88	0.727	0.22015811373038519	
5.885	-0.291	0.22637730625107558	
5.89	-0.249	0.20382113239938712	
5.895	0.604	0.16217497132218456	
5.9	-0.093	0.12057493806072289	
5.905	-0.392	0.0828046935401718	
5.91	0.320	0.05257907184217333	
5.915	0.125	0.02319640678783135	
5.92	-0.480	-0.007170395719659125	
5.925	-0.162	-0.03559653417005348	
5.93	0.351	-0.06778278818007255	
5.935	-0.427	-0.09456301210823072	
5.94	-0.363	-0.1082068615435775	
5.945	0.505	-0.10980909269911401	
5.95	-0.102	-0.09639327726157709	
5.955	-0.412	-0.07323147103411014	
5.96	0.308	-0.04842299297152738	
5.965	0.130	-0.03278581921414171	
5.97	-0.477	-0.03121305353656862	
5.975	0.097	-0.026582049318977993	
5.98	0.643	-0.0067109339618488415	
5.985	-0.264	0.02739597646325974	
5.99	-0.226	0.05571494632367084	
5.995	0.555	0.06722479175696541	
6.0	-0.124	0.06462548620587666	
6.005	-0.409	0.050695445129590934	
6.01	0.329	0.0345847809455849	
6.015	0.180	0.019303078556458002	
6.02	-0.465	0.0027587347011478816	
6.025	-0.128	-0.015665168328871312	
6.03	0.238	-0.04768423946046644	
6.035	-0.460	-0.08857771573368783	
6.04	-0.403	-0.12131055479243973	
6.045	0.291	-0.14372470928444891	
6.05	-0.241	-0.16235036882531517	
6.055	-0.499	-0.17036566043257623	
6.06	0.107	-0.16535809042108562	
6.065	0.014	-0.16665767693957	
6.07	-0.415	-0.1653697448090426	
6.075	0.323	-0.12556889807668312	
6.08	1.096	-0.025446252071813353	
6.085	0.139	0.12226002096066298	
6.09	0.119	0.2625017053219073	
6.095	0.878	0.356472423560248	
6.1	0.052	0.39462966050788106	
6.105	-0.317	0.3743419682289862	
6.11	0.437	0.3187519507683305	
6.115	0.322	0.25056040652337236	
6.12	-0.403	0.18642122382675952	
6.125	-0.052	0.12728995157009015	
6.13	0.565	0.07472869891074374	
6.135	-0.290	0.04125287190045069	
6.14	-0.302	0.024391722442605665	
6.145	0.373	0.003611541686081338	
6.15	-0.198	-0.027293880224237708	
6.155	-0.444	-0.05574860720969112	
6.16	0.287	-0.06716309328816951	
6.165	0.241	-0.06437248041956802	
6.17	-0.399	-0.05071722558890371	
6.175	-0.043	-0.03067191717330942	
6.18	0.482	-0.01816103613702834	
6.185	-0.261	-0.007917813497294075	
6.19	-0.206	0.008364819434433336	
6.195	0.642	0.02984396180980473	
6.2	-0.003	0.052602452806075735	
6.205	-0.299	0.07305668786281638	
6.21	0.534	0.0960516737409284	
6.215	0.495	0.12668172839519373	
6.22	-0.236	0.16101416574089733	
6.225	0.314	0.19543335525419547	
6.23	0.773	0.22705203523577033	
6.235	-0.127	0.25084350487470697	
6.24	-0.053	0.2592633503464705	
6.245	0.881	0.2621108552890203	
6.25	0.203	0.2715590443832915	
6.255	-0.253	0.27683674902450384	
6.26	0.534	0.26918479154358144	
6.265	0.453	0.25177826009167503	
6.27	-0.267	0.23484021075069658	
6.275	0.203	0.22045270782573598	
6.28	0.646	0.20619459777942056	
6.285	-0.200	0.1897534739458968	
6.29	-0.131	0.1742152044319005	
6.295	0.750	0.1652389519212527	
6.3	0.090	0.16452579466022704	
6.305	-0.226	0.1697475164739813	
6.31	0.712	0.18731065863453447	
6.315	0.683	0.22683945433699498	
6.32	-0.114	0.2777066542573575	
6.325	0.596	0.33245979895290745	
6.33	1.166	0.39832667354916185	
6.335	0.309	0.4757137679444701	
6.34	0.436	0.5511095319558468	
6.345	1.387	0.6212899882686953	
6.35	0.748	0.6915972654530669	
6.355	0.207	0.7436563454420653	
6.36	1.210	0.7732054773696727	
6.365	1.056	0.7919221383751844	
6.37	0.064	0.7947701390980779	
6.375	0.744	0.771289587174214	
6.38	1.119	0.7372809023280917	
6.385	0.015	0.6919194501498966	
6.39	-0.017	0.6160164793772727	
6.395	0.819	0.5190472305889077	
6.4	0.090	0.42285164577214573	
6.405	-0.281	0.33283924348245264	
6.41	0.521	0.25985453922848933	
6.415	0.375	0.20698137603759817	
6.42	-0.319	0.1701841031048133	
6.425	0.204	0.1490227855067391	
6.43	0.747	0.14804712666504313	
6.435	-0.201	0.15839750885574883	
6.44	-0.159	0.1639988347915162	
6.445	0.875	0.170581202964464	
6.45	0.492	0.20620952221877809	
6.455	0.146	0.28116104460888747	
6.46	1.154	0.3853034013189098	
6.465	0.832	0.4959630971468092	
6.47	-0.265	0.5606877625852795	
6.475	-0.003	0.5325601555550228	
6.48	0.352	0.42261673235669495	
6.485	-0.413	0.2750702534856787	
6.49	-0.395	0.13107145439423948	
6.495	0.227	0.007871248953451744	
6.5	-0.250	-0.09344680464222968	
6.505	-0.521	-0.16033459020365443	
6.51	0.070	-0.19134384909176125	
6.515	0.014	-0.20813710680085518	
6.52	-0.515	-0.21353532168857814	
6.525	-0.166	-0.2016361746699978	
6.53	0.287	-0.18686223681449013	
6.535	-0.421	-0.17341828166615225	
6.54	-0.396	-0.1598021459187805	
6.545	0.279	-0.1507107661529471	
6.55	-0.244	-0.15126620151763254	
6.555	-0.538	-0.1559645727411813	
6.56	0.014	-0.16178226414325309	
6.565	-0.063	-0.1812564890372333	
6.57	-0.550	-0.20308661165759206	
6.575	-0.197	-0.2107923750250177	
6.58	0.294	-0.20716348789432368	
6.585	-0.370	-0.19408488224026302	
6.59	-0.303	-0.16770970710420796	
6.595	0.553	-0.12703544542187983	
6.6	-0.064	-0.07812811388429651	
6.605	-0.352	-0.03475701224322443	
6.61	0.469	0.006955517478785109	
6.615	0.386	0.0517413035573629	
6.62	-0.355	0.0901746309983986	
6.625	0.053	0.10798083600509797	
6.63	0.553	0.1086588153363892	
6.635	-0.337	0.10024540763179947	
6.64	-0.360	0.07322814557324395	
6.645	0.343	0.029589208488272865	
6.65	-0.213	-0.019853134826701865	
6.655	-0.541	-0.06750734415591896	
6.66	-0.003	-0.1124770855167623	
6.665	-0.082	-0.16027323183691025	
6.67	-0.614	-0.20635994431340585	
6.675	-0.271	-0.23622829268332837	
6.68	0.131	-0.2566337418159763	
6.685	-0.502	-0.2683491221138776	
6.69	-0.473	-0.26969310923357925	
6.695	0.177	-0.26380484103984436	
6.7	-0.265	-0.25667957664910424	
6.705	-0.575	-0.24724808954372107	
6.71	-0.037	-0.2377972803234216	
6.715	-0.104	-0.24133024924786678	
6.72	-0.617	-0.254054248858699	
6.725	-0.277	-0.26037506749607753	
6.73	0.099	-0.2668294322575647	
6.735	-0.518	-0.2741165192368248	
6.74	-0.497	-0.27567163512852044	
6.745	0.163	-0.2730183301960749	
6.75	-0.302	-0.26956965348702894	
6.755	-0.601	-0.2651397517176317	
6.76	-0.078	-0.26095392692321195	
6.765	-0.131	-0.26931846457263897	
6.77	-0.665	-0.284937015747746	
6.775	-0.339	-0.2964607839824499	
6.78	-0.037	-0.31286798381148395	
6.785	-0.614	-0.3350379167050556	
6.79	-0.608	-0.3547058652780455	
6.795	-0.052	-0.37004100515379035	
6.8	-0.404	-0.38752454874082376	
6.805	-0.701	-0.395174734313416	
6.81	-0.213	-0.3939322649500874	
6.815	-0.268	-0.40126427432522815	
6.82	-0.720	-0.41503978329275476	
6.825	-0.227	-0.4074320268654242	
6.83	0.587	-0.3566649890581248	
6.835	-0.166	-0.25611766899413124	
6.84	-0.207	-0.13985338241574904	
6.845	0.436	-0.37004100515379035	
6.85	-0.300	-0.3775148199154273	
6.855	-0.688	-0.3775148199154273	
6.86	-0.200	-0.3566649890581248	
6.865	-0.226	-0.17810452689103642	
6.87	-0.721	-0.2702022956198338	
6.875	-0.393	-0.3344694245909865	
6.88	-0.066	-0.3775148199154273	
6.885	-0.596	-0.40724605761775945	
6.89	-0.572	-0.4139300996550621	
6.895	0.015	-0.40462501186162525	
6.9	-0.358	-0.393553332690035	
6.905	-0.657	-0.3776304029331258	
6.91	-0.098	-0.3545981623024164	
6.915	-0.066	-0.33797858296365807	
6.92	-0.582	-0.3205870822083784	
6.925	-0.226	-0.2933883858438202	
6.93	0.320	-0.25915393673459436	
6.935	-0.395	-0.22059018095611257	
6.94	-0.367	-0.18213435962161828	
6.945	0.437	-0.1451518135178275	
6.95	-0.131	-0.11064877488576014	
6.955	-0.428	-0.08408123107120424	
6.96	0.389	-0.055228427777720954	
6.965	0.469	-0.011718315937732543	
6.97	-0.332	0.04190929474418514	
6.975	0.136	0.08562778685943803	
6.98	0.782	0.12429258949050152	
6.985	-0.204	0.16113217512608274	
6.99	-0.229	0.17358077093964128	
6.995	0.692	0.1672223717624377	
7.0	-0.006	0.15740472881576267	
7.005	-0.392	0.13656900145553302	
7.01	0.338	0.10888273659554422	
7.015	0.244	0.08150182833746433	
7.02	-0.496	0.05170147187696274	
7.025	-0.195	0.011533264204120933	
7.03	0.285	-0.03749587252173976	
7.035	-0.448	-0.08687392671619916	
7.04	-0.467	-0.12655808524203074	
7.045	0.224	-0.1596645575148748	
7.05	-0.265	-0.18751586991996466	
7.055	-0.576	-0.20755986180125693	
7.06	0.032	-0.2140821070566261	
7.065	0.040	-0.2173841848734615	
7.07	-0.585	-0.21841277022213687	
7.075	-0.253	-0.2134833579679723	
7.08	0.233	-0.2123373608074829	
7.085	-0.448	-0.2109763305627702	
7.09	-0.442	-0.2046728524556243	
7.095	0.285	-0.19446955692114437	
7.1	-0.239	-0.18753386503380293	
7.105	-0.550	-0.18378817957868954	
7.11	0.107	-0.17592271858479813	
7.115	0.120	-0.16824290774109615	
7.12	-0.524	-0.1586832463643426	
7.125	-0.169	-0.14646164197283398	
7.13	0.355	-0.13705990247421268	
7.135	-0.435	-0.13118301045754172	
7.14	-0.454	-0.13085143798187665	
7.145	0.207	-0.1411599508948752	
7.15	-0.284	-0.16356095529647163	
7.155	-0.602	-0.18909647751254977	
7.16	-0.008	-0.20668604904215226	
7.165	0.011	-0.22306822467750909	
7.17	-0.560	-0.23404472536299262	
7.175	-0.220	-0.22739203831703797	
7.18	0.334	-0.21269371969717318	
7.185	-0.441	-0.19648808788640765	
7.19	-0.457	-0.17904376185893867	
7.195	0.346	-0.16569293669401336	
7.2	-0.026	-0.1496349467935968	
7.205	-0.261	-0.11251503342235736	
7.21	0.815	-0.03027825770851894	
7.215	0.733	0.09318598941342887	
7.22	-0.343	0.2073623059835318	
7.225	-0.055	0.2555778268291453	
7.23	0.447	0.2317752510288888	
7.235	-0.398	0.16720029440166417	
7.24	-0.409	0.08867698151326459	
7.245	0.386	0.013780832815113012	
7.25	-0.157	-0.04662728233251178	
7.255	-0.479	-0.08696629790123309	
7.26	0.268	-0.0980510675352926	
7.265	0.291	-0.0885558841239019	
7.27	-0.447	-0.06898511190311384	
7.275	-0.108	-0.047352111775625684	
7.28	0.503	-0.03581542539138671	
7.285	-0.332	-0.02907621698680438	
7.29	-0.332	-0.023550619318411667	
7.295	0.587	-0.01579590713883773	
7.3	-0.011	-0.002675053148426687	
7.305	-0.396	0.012605314354570579	
7.31	0.424	0.031226683502427948	
7.315	0.450	0.05767552314847332	
7.32	-0.377	0.08258229176752607	
7.325	0.043	0.10067215997935644	
7.33	0.721	0.11059410921346156	
7.335	-0.215	0.12166397872754664	
7.34	-0.230	0.1262060133128149	
7.345	0.779	0.1305862858025747	
7.35	0.192	0.14734077470489412	
7.355	-0.287	0.16724846496671736	
7.36	0.642	0.19141080943860214	
7.365	0.619	0.22289846694949195	
7.37	-0.303	0.24928979884320118	
7.375	0.152	0.2566122972686238	
7.38	0.756	0.2478696022531944	
7.385	-0.238	0.23056735268905523	
7.39	-0.297	0.19900110776993338	
7.395	0.561	0.15475182354428368	
7.4	-0.060	0.10742054284769953	
7.405	-0.435	0.06406337924067365	
7.41	0.303	0.034445596602903826	
7.415	0.300	0.01605559826050757	
7.42	-0.453	0.004190274887013666	
7.425	-0.101	-0.0024460744518194693	
7.43	0.546	-0.009975741354597662	
7.435	-0.329	-0.014453454401299394	
7.44	-0.349	-0.01511410792929739	
7.445	0.559	-0.01312667143874019	
7.45	-0.073	-0.010532360587532886	
7.455	-0.459	-0.01010467175284113	
7.46	0.279	-0.007513754996776139	
7.465	0.334	-0.004813985023163193	
7.47	-0.415	0.001056165937985319	
7.475	-0.052	0.010507618049376161	
7.48	0.593	0.018191657976289972	
7.485	-0.302	0.02347654523916366	
7.49	-0.320	0.025746648322440394	
7.495	0.590	0.028030092252641893	
7.5	-0.017	0.029511325545588406	
7.505	-0.422	0.029705521858683748	
7.51	0.303	0.03256311260413225	
7.515	0.312	0.031330060202129376	
7.52	-0.450	0.024869853247502655	
7.525	-0.099	0.018465378841236342	
7.53	0.565	0.009416618437598435	
7.535	-0.325	0.002384488265758394	
7.54	-0.348	-0.0024238581522538646	
7.545	0.508	-0.005759551156157331	
7.55	-0.108	-0.013449172242919274	
7.555	-0.467	-0.0245492245222742	
7.56	0.215	-0.029309676273966027	
7.565	0.206	-0.03847471400263358	
7.57	-0.471	-0.050393636864153074	
7.575	0.035	-0.04555537616895092	
7.58	1.020	-0.005225530897026031	
7.585	0.210	0.08626241803349247	
7.59	0.123	0.20732552665895485	
7.595	1.030	0.013107060613591993	
7.6	0.198	0.013107060613591993	
7.605	-0.392	0.013107060613591993	
7.61	0.312	0.022033032502347765	
7.615	0.337	0.27178560853026223	
7.62	-0.432	0.18434018148877168	
7.625	-0.101	0.11236452531371866	
7.63	0.556	0.05404717749795333	
7.635	-0.297	0.013107060613591993	
7.64	-0.319	-0.005862632227150324	
7.645	0.584	-0.007164765162371691	
7.65	-0.018	-0.0023650461258073194	
7.655	-0.415	0.004792155267675045	
7.66	0.392	0.022033032502347765	
7.665	0.447	0.04299282869527239	
7.67	-0.375	0.06496556471010348	
7.675	0.032	0.0853553825902989	
7.68	0.764	0.10241967231527588	
7.685	-0.189	0.1198570593078647	
7.69	-0.209	0.13386959323689746	
7.695	0.846	0.15122933313500375	
7.7	0.251	0.1766707640425848	
7.705	-0.290	0.2033788419213412	
7.71	0.646	0.23022924202775294	
7.715	0.747	0.2612761946584279	
7.72	-0.220	0.292613425461561	
7.725	0.329	0.31928246483354394	
7.73	1.053	0.34379646640773176	
7.735	0.021	0.3697171916488933	
7.74	-0.018	0.3845829010039748	
7.745	1.108	0.39450179718708767	
7.75	0.491	0.415792293955053	
7.755	-0.194	0.4350689284986396	
7.76	0.751	0.44025545743633837	
7.765	0.785	0.4375159861827294	
7.77	-0.270	0.4264696353250921	
7.775	0.128	0.39412115186368946	
7.78	0.774	0.34295794977768557	
7.785	-0.186	0.2867840998438148	
7.79	-0.255	0.23344332098358542	
7.795	0.662	0.1865089698292926	
7.8	0.056	0.1459028768118007	
7.805	-0.389	0.11403264517945025	
7.81	0.419	0.10021561289878841	
7.815	0.546	0.10060376543462778	
7.82	-0.331	0.1124853223152139	
7.825	0.059	0.1300658418248228	
7.83	0.835	0.14601014802681797	
7.835	-0.143	0.16381153698601822	
7.84	-0.200	0.17836227493580656	
7.845	0.812	0.18951967096454075	
7.85	0.242	0.20096525570539223	
7.855	-0.297	0.21397409961250252	
7.86	0.601	0.22817042405190155	
7.865	0.700	0.24766207306798524	
7.87	-0.246	0.2674855968871379	
7.875	0.204	0.28300028793752313	
7.88	0.939	0.29102706967855396	
7.885	-0.079	0.29686268049602127	
7.89	-0.180	0.29331967834491585	
7.895	0.762	0.27646924529199757	
7.9	0.110	0.2490125163368836	
7.905	-0.352	0.21599896113682365	
7.91	0.428	0.18911210122674277	
7.915	0.453	0.1646668588765759	
7.92	-0.366	0.1425418181344142	
7.925	0.027	0.12898044652057206	
7.93	0.741	0.1210103920565004	
7.935	-0.168	0.11990376744442155	
7.94	-0.252	0.12432244297154155	
7.945	0.639	0.12645768474366434	
7.95	0.168	0.12402857323938064	
7.955	-0.204	0.13300171687419973	
7.96	1.078	0.18816100107322856	
7.965	1.364	0.3137545898608892	
7.97	0.242	0.4795086708361897	
7.975	0.623	0.18816100107322856	
7.98	1.075	0.18816100107322856	
7.985	-0.114	0.6929162729668106	
7.99	-0.223	0.6112247021164785	
7.995	0.750	0.4914167029891642	
8.0	0.134	0.3721754170366385	
8.005	-0.389	0.2710074683086663	
8.01	0.341	0.19394895323476294	
8.015	0.404	0.13277157332184117	
8.02	-0.398	0.08868647579375222	
8.025	-0.060	0.06379832105664983	
8.03	0.654	0.049965644279489095	
8.035	-0.232	0.044131790034585755	
8.04	-0.279	0.048239641827332494	
8.045	0.709	0.06227623285206972	
8.05	0.140	0.08225184263637966	
8.055	-0.342	0.10305464151152914	
8.06	0.514	0.12982061106162807	
8.065	0.643	0.16079945187004158	
8.07	-0.271	0.1927661140649812	
8.075	0.157	0.21867666970777988	
8.08	0.959	0.24093989444145908	
8.085	-0.021	0.26526722845767003	
8.09	-0.081	0.286164848272546	
8.095	1.059	0.3091595456345141	
8.1	0.575	0.34941507694634577	
8.105	-0.101	0.3981099756054247	
8.11	0.922	0.4446005736616367	
8.115	1.021	0.4948454800648989	
8.12	-0.049	0.5379847454570128	
8.125	0.483	0.5584806149100439	
8.13	1.155	0.5647734206886215	
8.135	0.049	0.558572116218921	
8.14	-0.102	0.5241445568024905	
8.145	0.907	0.46977510026384184	
8.15	0.280	0.4146424009938672	
8.155	-0.322	0.3604000944266706	
8.16	0.430	0.30616545391435046	
8.165	0.456	0.24978681031928152	
8.17	-0.407	0.19550739999104372	
8.175	-0.105	0.14425975996082147	
8.18	0.552	0.09338330524104495	
8.185	-0.291	0.04806500063271775	
8.19	-0.352	0.01730720460868454	
8.195	0.505	0.00023864309227820523	
8.2	-0.023	-0.01118603292789899	
8.205	-0.416	-0.017177722066918016	
8.21	0.317	-0.00623258866329228	
8.215	0.444	0.012645458269738811	
8.22	-0.393	0.032972812698346676	
8.225	-0.082	0.05009350535196328	
8.23	0.565	0.05302562979617315	
8.235	-0.265	0.04641936557282794	
8.24	-0.320	0.03940226128849991	
8.245	0.614	0.037832806421687404	
8.25	0.061	0.04397982540014524	
8.255	-0.415	0.04910166966142168	
8.26	0.328	0.0564083016577191	
8.265	0.405	0.06258019317227403	
8.27	-0.416	0.06335842829234631	
8.275	-0.146	0.05791135684095772	
8.28	0.483	0.03775880509814586	
8.285	-0.328	0.009769346751344455	
8.29	-0.416	-0.016550334396472337	
8.295	0.376	-0.03854278628977001	
8.3	-0.140	-0.06484664486868685	
8.305	-0.535	-0.08964912094360578	
8.31	0.082	-0.1038948463226159	
8.315	0.227	-0.11545480055577821	
8.32	-0.526	-0.12233203225638374	
8.325	-0.293	-0.1232266660794104	
8.33	0.309	-0.13442308506425438	
8.335	-0.277	-0.14599655446443638	
8.34	-0.174	-0.12749823985598555	
8.345	1.058	-0.05168614479338027	
8.35	0.413	0.07228352584383618	
8.355	-0.377	-0.11545480055577821	
8.36	0.055	-0.12233203225638374	
8.365	0.093	-0.12233203225638374	
8.37	-0.560	-0.12233203225638374	
8.375	-0.258	-0.003314285888318831	
8.38	0.355	-0.0764981146023402	
8.385	-0.370	-0.12783660081132014	
8.39	-0.441	-0.15152339418862004	
8.395	0.363	-0.1528730715371599	
8.4	-0.128	-0.14866173280325568	
8.405	-0.524	-0.14248055935179343	
8.41	0.096	-0.130156022658221	
8.415	0.262	-0.11944425551605087	
8.42	-0.468	-0.10813310115456753	
8.425	-0.178	-0.09135622750158096	
8.43	0.501	-0.07748639407983905	
8.435	-0.291	-0.06485287956390107	
8.44	-0.349	-0.049585308151367524	
8.445	0.537	-0.03082113009247916	
8.45	0.035	-0.011637057137022505	
8.455	-0.396	0.005425222851005458	
8.46	0.317	0.025883498533442968	
8.465	0.466	0.04664129595829764	
8.47	-0.342	0.06775962518060032	
8.475	0.044	0.08761272550720275	
8.48	0.855	0.11365769087524581	
8.485	-0.108	0.14811087041189855	
8.49	-0.250	0.1722772191831032	
8.495	0.800	0.18425660416920567	
8.5	0.332	0.20245702574523164	
8.505	-0.271	0.22533262726667633	
8.51	0.544	0.24382671221201113	
8.515	0.607	0.2567235468935104	
8.52	-0.342	0.258783204529211	
8.525	-0.047	0.23649971459232672	
8.53	0.610	0.1936132275894312	
8.535	-0.273	0.1462351638899069	
8.54	-0.361	0.09730228487349823	
8.545	0.463	0.0541197517505364	
8.55	-0.078	0.015499723097031178	
8.555	-0.485	-0.01953608646860392	
8.56	0.155	-0.04127951492427361	
8.565	0.256	-0.05632782050374521	
8.57	-0.489	-0.06804952518811738	
8.575	-0.203	-0.07351433218367583	
8.58	0.488	-0.07750188423039717	
8.585	-0.305	-0.07666144279211584	
8.59	-0.390	-0.06965338973154474	
8.595	0.437	-0.060003596502626974	
8.6	-0.038	-0.05347218016157419	
8.605	-0.467	-0.050460444531709746	
8.61	0.223	-0.040359541393924704	
8.615	0.338	-0.030346427570261653	
8.62	-0.464	-0.021981938262532974	
8.625	-0.165	-0.01855786121592182	
8.63	0.576	-0.019538883289560556	
8.635	-0.267	-0.015599546034237844	
8.64	-0.351	-0.009665297945041122	
8.645	0.520	-0.002056156380153916	
8.65	-0.069	0.0005737743228166185	
8.655	-0.521	-0.009452883080755608	
8.66	0.070	-0.02743621870129578	
8.665	0.233	-0.05432135068172776	
8.67	-0.502	-0.07891396994303287	
8.675	-0.247	-0.09360064784036609	
8.68	0.341	-0.10856492027822655	
8.685	-0.370	-0.12655957370366058	
8.69	-0.442	-0.13467160650016183	
8.695	0.344	-0.13305291744635184	
8.7	-0.188	-0.13441289620896318	
8.705	-0.601	-0.14449345399303176	
8.71	0.123	-0.14839180167087546	
8.715	0.570	-0.1282349663670646	
8.72	-0.210	-0.06997530010416238	
8.725	0.274	0.02138124988071487	
8.73	0.896	-0.10856492027822655	
8.735	-0.241	-0.10311977170070322	
8.74	-0.418	-0.10156873401859201	
8.745	0.323	-0.08492555192665939	
8.75	-0.151	0.09569092083745115	
8.755	-0.552	0.009402864614195063	
8.76	0.059	-0.05741821747321598	
8.765	0.259	-0.10311977170070322	
8.77	-0.477	-0.12503724653854736	
8.775	-0.203	-0.12472214845242076	
8.78	0.482	-0.11433246613159861	
8.785	-0.308	-0.10156873401859201	
8.79	-0.415	-0.08492555192665939	
8.795	0.410	-0.07190273837980943	
8.8	-0.066	-0.06625140827215276	
8.805	-0.492	-0.06674705210132786	
8.81	0.163	-0.06139426665291488	
8.815	0.328	-0.055999479776257494	
8.82	-0.451	-0.05019351510306545	
8.825	-0.162	-0.040780587139835706	
8.83	0.610	-0.03213122221292766	
8.835	-0.221	-0.016640810490666066	
8.84	-0.290	0.00391197377804515	
8.845	0.741	0.035300487298514815	
8.85	0.250	0.07982221962277065	
8.855	-0.354	0.12200931129767122	
8.86	0.479	0.15565634978613976	
8.865	0.691	0.1871972773830674	
8.87	-0.282	0.21664931424077963	
8.875	0.067	0.23110065204973976	
8.88	0.773	0.2290413524211163	
8.885	-0.235	0.21635954795884924	
8.89	-0.337	0.1837296839959494	
8.895	0.628	0.14534737192753028	
8.9	0.102	0.11596390838714099	
8.905	-0.432	0.09293148999952178	
8.91	0.245	0.07456549742420299	
8.915	0.407	0.05831175306505938	
8.92	-0.438	0.04370378884579963	
8.925	-0.175	0.028977001930089785	
8.93	0.521	0.010059038564046587	
8.935	-0.305	-0.009500704721482367	
8.94	-0.406	-0.024330562487013204	
8.945	0.431	-0.03474059615924241	
8.95	-0.069	-0.045939477091263226	
8.955	-0.496	-0.058060143033155265	
8.96	0.166	-0.060525100609050836	
8.965	0.367	-0.05662076895999081	
8.97	-0.436	-0.04725366798630567	
8.975	-0.156	-0.03411711240552695	
8.98	0.611	-0.02190409837855975	
8.985	-0.241	-0.007428994747555406	
8.99	-0.322	0.007571591730248667	
8.995	0.633	0.02625191860483114	
9.0	0.085	0.04717471866177866	
9.005	-0.435	0.06086479075589453	
9.01	0.204	0.06337272255921589	
9.015	0.380	0.05348474043399998	
9.02	-0.439	0.038770081111169155	
9.025	-0.194	0.022759716992242444	
9.03	0.457	-0.0008634337709922807	
9.035	-0.342	-0.02834499547672283	
9.04	-0.468	-0.053517534914386294	
9.045	0.326	-0.0757683622506754	
9.05	-0.111	-0.09973605571544057	
9.055	-0.532	-0.11816698046925928	
9.06	0.097	-0.1216392140487713	
9.065	0.302	-0.11743076216537218	
9.07	-0.465	-0.10727977661140284	
9.075	-0.232	-0.09228623810055973	
9.08	0.344	-0.08876142664662041	
9.085	-0.375	-0.10039720588803272	
9.09	-0.372	-0.10861435205792702	
9.095	0.823	-0.08158150158041363	
9.1	0.534	-0.0006540107270158802	
9.105	-0.203	-0.08876142664662041	
9.11	0.535	-0.08876142664662041	
9.115	0.479	-0.08876142664662041	
9.12	-0.479	-0.08876142664662041	
9.125	-0.273	-0.08539297077711058	
9.13	0.387	0.12542054203823413	
9.135	-0.369	0.030620081928531252	
9.14	-0.489	-0.0457586808494641	
9.145	0.294	-0.09853827880478278	
9.15	-0.124	-0.13761487779758833	
9.155	-0.537	-0.16047038936066702	
9.16	0.094	-0.15855004632924563	
9.165	0.363	-0.1421614910167628	
9.17	-0.447	-0.11654480515468099	
9.175	-0.195	-0.08539297077711058	
9.18	0.521	-0.06241234440317138	
9.185	-0.294	-0.0485029282403948	
9.19	-0.392	-0.03891057201310764	
9.195	0.518	-0.02733039906807364	
9.2	0.058	-0.01560362896673088	
9.205	-0.444	-0.0037326963792865997	
9.21	0.300	0.012577097389121435	
9.215	0.572	0.03702207070408403	
9.22	-0.328	0.06820337345403346	
9.225	0.004	0.09756777115332428	
9.23	0.875	0.12687300143068564	
9.235	-0.075	0.1603874609385495	
9.24	-0.204	0.1858761579453863	
9.245	0.889	0.2088822330145033	
9.25	0.430	0.24349050672189143	
9.255	-0.270	0.27603372064322423	
9.26	0.578	0.29858473385425344	
9.265	0.753	0.31519544056266857	
9.27	-0.288	0.3221071893647527	
9.275	-0.018	0.304428988603689	
9.28	0.776	0.2669710302367085	
9.285	-0.206	0.22547279550208893	
9.29	-0.340	0.17977291198070255	
9.295	0.514	0.13282482559336847	
9.3	-0.005	0.08559836805967076	
9.305	-0.497	0.040060883592983106	
9.31	0.128	0.005484817679424482	
9.315	0.355	-0.02276446335900667	
9.32	-0.453	-0.03978021441579371	
9.325	-0.212	-0.04562057163955628	
9.33	0.527	-0.04907234435006654	
9.335	-0.284	-0.05145065244274982	
9.34	-0.377	-0.047227067026900285	
9.345	0.555	-0.032216094335773535	
9.35	0.093	-0.01236285125722696	
9.355	-0.419	0.008054730076001482	
9.36	0.340	0.03244654357698118	
9.365	0.579	0.0632756851099936	
9.37	-0.345	0.09321149355759285	
9.375	-0.064	0.11430389366295093	
9.38	0.750	0.12296326472516282	
9.385	-0.149	0.12860226460077695	
9.39	-0.297	0.129690623789455	
9.395	0.649	0.12775140264130552	
9.4	0.052	0.12072425510235536	
9.405	-0.467	0.10202796445173684	
9.41	0.242	0.07935280289840382	
9.415	0.459	0.06034962128113147	
9.42	-0.412	0.04928477381275144	
9.425	-0.192	0.039204255691980106	
9.43	0.517	0.02094656081405188	
9.435	-0.294	-0.001287101053206263	
9.44	-0.419	-0.02034651579547062	
9.445	0.431	-0.03232163122311145	
9.45	-0.041	-0.044184314212508326	
9.455	-0.515	-0.05694491698172222	
9.46	-0.014	-0.06773880448272411	
9.465	0.180	-0.09163590769118479	
9.47	-0.453	-0.11767707904012305	
9.475	0.014	-0.11079619218153908	
9.48	1.174	-0.04495059400107037	
9.485	0.216	0.0787504460152123	
9.49	-0.153	0.20651382395642387	
9.495	0.663	-0.04495059400107037	
9.5	0.004	-0.05694491698172222	
9.505	-0.526	-0.06390115953603376	
9.51	0.044	0.16322226053550637	
9.515	0.265	0.07047735346642446	
9.52	-0.499	-0.010681053774110556	
9.525	-0.274	-0.06390115953603376	
9.53	0.378	-0.10195197942024103	
9.535	-0.369	-0.13224706756911547	
9.54	-0.470	-0.14648259007493103	
9.545	0.381	-0.14222047888686223	
9.55	-0.032	-0.133096204535631	
9.555	-0.489	-0.11914029212324279	
9.56	0.187	-0.09367070196700633	
9.565	0.462	-0.06142061869150954	
9.57	-0.389	-0.027899945741520153	
9.575	-0.136	0.004070007322319609	
9.58	0.681	0.02727983433774136	
9.585	-0.183	0.04661573685290314	
9.59	-0.302	0.062323304146623695	
9.595	0.742	0.08302482995470747	
9.6	0.338	0.11696285360220911	
9.605	-0.288	0.15658355948509017	
9.61	0.611	0.20042359672198656	
9.615	0.902	0.25579341208760825	
9.62	-0.146	0.31289579460766775	
9.625	0.285	0.35596553657395785	
9.63	1.183	0.393515653610171	
9.635	0.172	0.43361195600561897	
9.64	-0.098	0.453098767357829	
9.645	1.008	0.4520719681413865	
9.65	0.534	0.45012714772948	
9.655	-0.249	0.44248513408759194	
9.66	0.540	0.41926417507328795	
9.665	0.715	0.3879049279138358	
9.67	-0.313	0.3500285074959145	
9.675	-0.070	0.29879629793420187	
9.68	0.729	0.23942090534140192	
9.685	-0.186	0.18485435499957198	
9.69	-0.351	0.13913227768294315	
9.695	0.575	0.10282948960819326	
9.7	0.117	0.07824286461739106	
9.705	-0.427	0.06070295909245695	
9.71	0.271	0.055050280048044645	
9.715	0.526	0.05783311575838727	
9.72	-0.378	0.06531273728589226	
9.725	-0.142	0.06971125437323267	
9.73	0.677	0.06818521992588938	
9.735	-0.197	0.06607794024416415	
9.74	-0.351	0.06422125273137841	
9.745	0.587	0.0635328578201136	
9.75	0.142	0.06532299686701772	
9.755	-0.413	0.06794437897928568	
9.76	0.288	0.07280775252274083	
9.765	0.549	0.08172590879308228	
9.77	-0.360	0.09162255018845195	
9.775	-0.133	0.09462659334462215	
9.78	0.640	0.08791199767937374	
9.785	-0.242	0.07532509442801935	
9.79	-0.425	0.056340629469651696	
9.795	0.366	0.02919139498587585	
9.8	-0.098	-0.00961051708467372	
9.805	-0.573	-0.053762395688221894	
9.81	-0.053	-0.09043135627895518	
9.815	0.180	-0.128418766990778	
9.82	-0.532	-0.16005813846153327	
9.825	-0.293	-0.17038800290976197	
9.83	0.366	-0.1713327357571171	
9.835	-0.364	-0.17051451787434632	
9.84	-0.544	-0.16753354063041587	
9.845	0.160	-0.1690009544371638	
9.85	-0.128	-0.1836116765629151	
9.855	-0.456	-0.19060518218262906	
9.86	0.540	-0.14744471070333043	
9.865	1.026	-0.03641753539238433	
9.87	-0.182	-0.16005813846153327	
9.875	-0.090	-0.16753354063041587	
9.88	0.472	-0.16753354063041587	
9.885	-0.378	-0.16753354063041587	
9.89	-0.541	-0.16753354063041587	
9.895	0.186	0.019901106676747292	
9.9	-0.178	-0.07553698661548323	
9.905	-0.621	-0.1535260950832686	
9.91	-0.095	-0.19858757906153024	
9.915	0.149	-0.22850008659209606	
9.92	-0.543	-0.24188340737466554	
9.925	-0.308	-0.2324155845659818	
9.93	0.367	-0.21344489076970738	
9.935	-0.343	-0.19444480496999306	
9.94	-0.470	-0.1734967193546228	
9.945	0.354	-0.147038610175866	
9.95	-0.026	-0.12660036025780558	
9.955	-0.496	-0.11063273438043719	
9.96	0.146	-0.08748717012339913	
9.965	0.444	-0.06243772702922032	
9.97	-0.392	-0.0350700992186226	
9.975	-0.134	-0.007414266333836158	
9.98	0.716	0.017750236533669906	
9.985	-0.160	0.045435754855820916	
9.99	-0.303	0.06735665148139922	
9.995	0.785	0.0931702563785426	
10.0	0.418	0.13745661857881025	
10.005	-0.265	0.18715654942726379	
10.01	0.593	0.23456037962587512	
10.015	0.861	0.2837170200041288	
10.02	-0.215	0.3258099210078991	
10.025	0.059	0.33846934211429514	
10.03	0.904	0.32785256463405893	
10.035	-0.111	0.3084985403007492	
10.04	-0.300	0.2722453885410685	
10.045	0.646	0.22810339174447344	
10.05	0.151	0.18757541481928336	
10.055	-0.453	0.14719753847883277	
10.06	0.155	0.10739842603352798	
10.065	0.393	0.06673749353203746	
10.07	-0.445	0.031010444542771687	
10.075	-0.220	0.0033901015285806727	
10.08	0.486	-0.02027759133568461	
10.085	-0.299	-0.04231907083245858	
10.09	-0.460	-0.058702967340996906	
10.095	0.352	-0.06908625886954675	
10.1	-0.046	-0.08136419618356935	
10.105	-0.505	-0.09266793920024917	
10.11	0.131	-0.08871824009111104	
10.115	0.444	-0.07428271443638135	
10.12	-0.406	-0.05187344085535399	
10.125	-0.191	-0.02768464171298768	
10.13	0.582	-0.011341287389632656	
10.135	-0.244	-0.0022239150356570055	
10.14	-0.384	0.002268116110355316	
10.145	0.501	0.006841402400412896	
10.15	0.091	0.011720500313716388	
10.155	-0.454	0.014335567865301092	
10.16	0.148	0.01617395837367322	
10.165	0.369	0.010757447934832076	
10.17	-0.477	-0.0008201692346933313	
10.175	-0.285	-0.017768913934992664	
10.18	0.404	-0.044335688735861384	
10.185	-0.343	-0.07514372706555739	
10.19	-0.497	-0.09977863336458107	
10.195	0.288	-0.11518115032819252	
10.2	-0.102	-0.13121717124456256	
10.205	-0.564	-0.14569920382139873	
10.21	-0.018	-0.14983930490507952	
10.215	0.312	-0.1501611538620054	
10.22	-0.485	-0.14286207449380836	
10.225	-0.297	-0.12880970522466723	
10.23	0.413	-0.11923016032703644	
10.235	-0.238	-0.11418475647638249	
10.24	-0.276	-0.09387347419165468	
10.245	0.931	-0.033007233536123975	
10.25	0.512	0.07085288605108415	
10.255	-0.328	0.17507412592788577	
10.26	0.223	-0.07702047771335213	
10.265	0.348	-0.06374562948044167	
10.27	-0.488	0.17500492880344387	
10.275	-0.294	0.103110718671961	
10.28	0.422	0.027945985872729676	
10.285	-0.291	-0.03718584460731837	
10.29	-0.438	-0.07702047771335213	
10.295	0.424	-0.08994035845319932	
10.3	0.017	-0.08910032704507363	
10.305	-0.476	-0.08202561951388279	
10.31	0.178	-0.06374562948044167	
10.315	0.479	-0.038875585754983094	
10.32	-0.398	-0.012150927275368106	
10.325	-0.188	0.009056979124556575	
10.33	0.623	0.020140494918900267	
10.335	-0.197	0.026722866839688487	
10.34	-0.351	0.031789371268727315	
10.345	0.642	0.04423883502270321	
10.35	0.290	0.0689829331346379	
10.355	-0.351	0.09974856606719071	
10.36	0.372	0.12928968135235339	
10.365	0.678	0.15730376259432433	
10.37	-0.276	0.18170543043469256	
10.375	0.015	0.19596611487424975	
10.38	0.934	0.2083315567990247	
10.385	0.011	0.22772441337440907	
10.39	-0.198	0.24261626390343785	
10.395	0.863	0.2552998394936721	
10.4	0.485	0.2771018600279759	
10.405	-0.253	0.3006487099096632	
10.41	0.546	0.31620926995742354	
10.415	0.797	0.32841361809940534	
10.42	-0.287	0.3317501996126657	
10.425	-0.120	0.3058172766374785	
10.43	0.721	0.25528812182602906	
10.435	-0.204	0.19989195828904543	
10.44	-0.401	0.14360948870776485	
10.445	0.482	0.09311494452439759	
10.45	0.094	0.052202701415343736	
10.455	-0.488	0.020821809715843517	
10.46	0.072	2.4602121103397038e-05	
10.465	0.334	-0.023665362043916116	
10.47	-0.473	-0.04599775359516281	
10.475	-0.249	-0.05919239371199548	
10.48	0.534	-0.06490035233763114	
10.485	-0.241	-0.06397194414088597	
10.49	-0.396	-0.056287937334108785	
10.495	0.515	-0.03806223625137948	
10.5	0.166	-0.013788924399888925	
10.505	-0.413	0.010959380211013591	
10.51	0.206	0.0349184309088669	
10.515	0.466	0.049266971529019904	
10.52	-0.398	0.05512613623883498	
10.525	-0.174	0.052766087169978534	
10.53	0.646	0.046990902732816184	
10.535	-0.220	0.042131574241006706	
10.54	-0.407	0.03473932480140092	
10.545	0.483	0.026798474475131864	
10.55	0.049	0.017260469040552305	
10.555	-0.491	0.00406275618344049	
10.56	0.068	-0.00919709232499689	
10.565	0.279	-0.028757614755487777	
10.57	-0.492	-0.053735184166557995	
10.575	-0.291	-0.07428552083014694	
10.58	0.416	-0.09109464133059371	
10.585	-0.335	-0.10776072821702543	
10.59	-0.468	-0.1172497913965677	
10.595	0.372	-0.11528389337710265	
10.6	0.037	-0.10666977842640134	
10.605	-0.524	-0.0959145457042456	
10.61	-0.029	-0.08728280312818326	
10.615	0.308	-0.09071362070152675	
10.62	-0.366	-0.09268984283648261	
10.625	0.023	-0.06633161835184237	
10.63	1.165	0.006982355628903564	
10.635	0.087	-0.08728280312818326	
10.64	-0.290	-0.08728280312818326	
10.645	0.558	-0.08728280312818326	
10.65	-0.005	-0.08728280312818326	
10.655	-0.552	-0.08728280312818326	
10.66	-0.029	0.08959918755335293	
10.665	0.297	0.008377775607909768	
10.67	-0.499	-0.0575787564320949	
10.675	-0.311	-0.0974843458472061	
10.68	0.399	-0.12311157334433996	
10.685	-0.351	-0.14054483017186356	
10.69	-0.517	-0.14935925816398515	
10.695	0.340	-0.14743299903365453	
10.7	0.032	-0.13847426763879717	
10.705	-0.492	-0.12187615169247448	
10.71	0.096	-0.09748115204728447	
10.715	0.495	-0.0696120909575868	
10.72	-0.345	-0.03554067386318417	
10.725	-0.165	-0.0015544084923776779	
10.73	0.628	0.023868998439991292	
10.735	-0.232	0.03749819593631536	
10.74	-0.396	0.0375984429582423	
10.745	0.527	0.03453365505899872	
10.75	0.239	0.04058666893398172	
10.755	-0.390	0.054127449372302676	
10.76	0.308	0.07445352559188614	
10.765	0.681	0.1014190768141737	
10.77	-0.285	0.13251421480869235	
10.775	-0.070	0.15336964989901808	
10.78	0.799	0.16183303504275565	
10.785	-0.117	0.1676159341398377	
10.79	-0.337	0.16059248795967515	
10.795	0.553	0.1443854463742779	
10.8	0.130	0.12264884030203052	
10.805	-0.465	0.09624637314935545	
10.81	0.157	0.06930188012241546	
10.815	0.460	0.046365534327699215	
10.82	-0.457	0.02872115606429769	
10.825	-0.273	0.008316997634388404	
10.83	0.501	-0.01635303462429812	
10.835	-0.343	-0.041205000338382945	
10.84	-0.524	-0.06730311940251016	
10.845	0.274	-0.09285255776941391	
10.85	-0.114	-0.11930568869086126	
10.855	-0.614	-0.14652841944504624	
10.86	-0.125	-0.16787640346762184	
10.865	0.190	-0.18875570561808105	
10.87	-0.511	-0.20302751506679384	
10.875	-0.299	-0.1966875244202157	
10.88	0.399	-0.18055661159303693	
10.885	-0.357	-0.166082623041714	
10.89	-0.521	-0.15620755396478908	
10.895	0.277	-0.14801630869354848	
10.9	-0.047	-0.14328885402397856	
10.905	-0.561	-0.14240998421518403	
10.91	-0.027	-0.13796694723599717	
10.915	0.256	-0.13779523995065063	
10.92	-0.523	-0.13994666892710278	
10.925	-0.374	-0.14274311798193987	
10.93	0.273	-0.15360950248774535	
10.935	-0.399	-0.17400927277413292	
10.94	-0.581	-0.19221084870007454	
10.945	0.122	-0.20605436977294148	
10.95	-0.162	-0.22425396930898006	
10.955	-0.636	-0.24042170950518185	
10.96	-0.140	-0.2439655259204908	
10.965	0.210	-0.24374248515269206	
10.97	-0.566	-0.23800308736607317	
10.975	-0.409	-0.2257585877888289	
10.98	0.230	-0.22150067603770662	
10.985	-0.415	-0.22808402438894518	
10.99	-0.605	-0.2343064468861542	
10.995	0.110	-0.23788380764346972	
11.0	-0.064	-0.24325618114754619	
11.005	-0.448	-0.23261515603570093	
11.01	0.433	-0.17477207686458723	
11.015	0.829	-0.22150067603770662	
11.02	-0.294	-0.22150067603770662	
11.025	-0.212	-0.22150067603770662	
11.03	0.472	-0.22150067603770662	
11.035	-0.358	-0.22808402438894518	
11.04	-0.589	-0.2187370992287101	
11.045	0.056	-0.03862601163518546	
11.05	-0.201	-0.13020485898025677	
11.055	-0.654	-0.20790418281434353	
11.06	-0.168	-0.25065610130522076	
11.065	0.114	-0.2763959060092679	
11.07	-0.584	-0.2905670756943343	
11.075	-0.383	-0.2817456772423259	
11.08	0.314	-0.26285467717019584	
11.085	-0.343	-0.2445006018064563	
11.09	-0.491	-0.2187370992287101	
11.095	0.369	-0.18213844025261475	
11.1	0.079	-0.1432556204825861	
11.105	-0.456	-0.10544312202727435	
11.11	0.169	-0.06331273083524683	
11.115	0.477	-0.025057320043740956	
11.12	-0.404	0.002820258063832795	
11.125	-0.194	0.021223587611840962	
11.13	0.703	0.03277826567095675	
11.135	-0.154	0.045144809286816655	
11.14	-0.332	0.05782315122884312	
11.145	0.726	0.0774816189971921	
11.15	0.421	0.11483135774322997	
11.155	-0.291	0.15990586744288715	
11.16	0.538	0.2059874160474438	
11.165	0.899	0.257406037085699	
11.17	-0.204	0.3032699819243243	
11.175	0.059	0.3250843038989507	
11.18	0.974	0.3283527025538178	
11.185	0.027	0.32694043294564223	
11.19	-0.276	0.31139325640254567	
11.195	0.706	0.28487737003834557	
11.2	0.265	0.2539728366147924	
11.205	-0.424	0.21744956263538806	
11.21	0.210	0.18010519336961262	
11.215	0.581	0.14275466412094154	
11.22	-0.355	0.11498364565241234	
11.225	-0.143	0.09797754079319759	
11.23	0.716	0.08672572043389015	
11.235	-0.154	0.0798302741719881	
11.24	-0.348	0.07611815990408066	
11.245	0.636	0.0811881286129661	
11.25	0.332	0.09607728189112663	
11.255	-0.366	0.1170896076738384	
11.26	0.341	0.1402324545603027	
11.265	0.709	0.16203100605603774	
11.27	-0.296	0.17966611918718323	
11.275	-0.067	0.1878660227136671	
11.28	0.870	0.1900860018047834	
11.285	-0.052	0.1927196952347366	
11.29	-0.282	0.1918260314081941	
11.295	0.803	0.196458435801589	
11.3	0.447	0.21320461295854085	
11.305	-0.339	0.2327580667307309	
11.31	0.405	0.24528364547259046	
11.315	0.770	0.25230427905928776	
11.32	-0.262	0.25547191971457817	
11.325	-0.075	0.2487194301386174	
11.33	0.773	0.2283325910006226	
11.335	-0.165	0.19770472268098804	
11.34	-0.380	0.160601052310397	
11.345	0.535	0.12659523625012717	
11.35	0.239	0.09832932569930025	
11.355	-0.410	0.08156471968811439	
11.36	0.247	0.08131558787165458	
11.365	0.640	0.08850225832109404	
11.37	-0.340	0.09832061233977109	
11.375	-0.201	0.10562164069750657	
11.38	0.701	0.09955850954222038	
11.385	-0.014	0.0946665656616591	
11.39	-0.104	0.11243385100334163	
11.395	1.316	0.18282907126303577	
11.4	1.035	0.11243385100334163	
11.405	-0.073	0.11243385100334163	
11.41	0.605	0.11243385100334163	
11.415	0.771	0.11243385100334163	
11.42	-0.342	0.11243385100334163	
11.425	-0.191	0.11652815316884277	
11.43	0.671	0.32170996109358285	
11.435	-0.171	0.21069344069689105	
11.44	-0.364	0.12731451619297607	
11.445	0.546	0.07882935072109325	
11.45	0.219	0.052471718044643526	
11.455	-0.410	0.0432658720696312	
11.46	0.264	0.0543740618665095	
11.465	0.646	0.073745605037036	
11.47	-0.303	0.09511229726049057	
11.475	-0.107	0.11652815316884277	
11.48	0.803	0.1318225925842976	
11.485	-0.064	0.14158719277115633	
11.49	-0.277	0.15019719470474927	
11.495	0.770	0.1659791726713974	
11.5	0.517	0.1934912211593776	
11.505	-0.258	0.23008026902366413	
11.51	0.576	0.2714475940668859	
11.515	0.918	0.31387711203100205	
11.52	-0.194	0.3469437248585706	
11.525	0.073	0.35846711571460566	
11.53	1.090	0.3590048179188314	
11.535	0.209	0.36656566354963627	
11.54	-0.134	0.3780587853289349	
11.545	1.032	0.3910541781893835	
11.55	0.716	0.4155661960472575	
11.555	-0.178	0.4439904251320674	
11.56	0.628	0.460398758554312	
11.565	0.951	0.4659337409092407	
11.57	-0.180	0.45898288484915145	
11.575	0.009	0.42941501451119446	
11.58	0.890	0.3829437295272218	
11.585	-0.060	0.3296338036204933	
11.59	-0.277	0.27610798942521286	
11.595	0.736	0.23694948392066176	
11.6	0.407	0.21658376595483458	
11.605	-0.360	0.20912508709370098	
11.61	0.308	0.20531108074642151	
11.615	0.639	0.19584931039335285	
11.62	-0.322	0.1811450128093166	
11.625	-0.122	0.16543024454140237	
11.63	0.771	0.14979736666291904	
11.635	-0.095	0.136726642876642	
11.64	-0.300	0.12920194587749584	
11.645	0.739	0.13579831400604903	
11.65	0.405	0.1555780926651388	
11.655	-0.325	0.18026398069754246	
11.66	0.422	0.20722311431925855	
11.665	0.793	0.23077698957107706	
11.67	-0.241	0.24928119613189173	
11.675	-0.040	0.25639636299669827	
11.68	0.902	0.2516601274555925	
11.685	-0.031	0.24484256672074825	
11.69	-0.267	0.23326011131527313	
11.695	0.751	0.22561880336825194	
11.7	0.376	0.22361764081838104	
11.705	-0.363	0.22142487649735665	
11.71	0.274	0.21406889249226357	
11.715	0.636	0.1986907133951808	
11.72	-0.322	0.17850053512945835	
11.725	-0.148	0.15936868773212132	
11.73	0.748	0.13946850975179714	
11.735	-0.153	0.12099815133466305	
11.74	-0.370	0.10336250579356049	
11.745	0.587	0.09340438552874036	
11.75	0.280	0.09065253734319448	
11.755	-0.403	0.09462393958557572	
11.76	0.197	0.10192594886399167	
11.765	0.620	0.10459147340949629	
11.77	-0.235	0.10970498347720578	
11.775	0.210	0.13937087369710627	
11.78	1.376	0.2133425213209052	
11.785	0.434	0.329147339617398	
11.79	-0.076	0.11828357479781962	
11.795	0.893	0.49313853509857	
11.8	0.358	0.49668706140277724	
11.805	-0.416	0.44780220931712555	
11.81	0.168	0.36571580098993406	
11.815	0.553	0.2685088374326657	
11.82	-0.361	0.18200417885240053	
11.825	-0.217	0.11828357479781962	
11.83	0.591	0.06802424392923091	
11.835	-0.188	0.029368979632479225	
11.84	-0.367	0.008614929280882835	
11.845	0.582	0.011903248607245781	
11.85	0.226	0.028712024493331025	
11.855	-0.442	0.04608380972720137	
11.86	0.136	0.05956977865795237	
11.865	0.552	0.062337591444748264	
11.87	-0.348	0.06221485421607186	
11.875	-0.159	0.06628910315998543	
11.88	0.793	0.07481424621508723	
11.885	-0.110	0.08848368563104551	
11.89	-0.325	0.10071508563569655	
11.895	0.654	0.11369267927847898	
11.9	0.340	0.1317284746321316	
11.905	-0.358	0.14828479962687588	
11.91	0.354	0.1644333226228181	
11.915	0.829	0.18723975856347932	
11.92	-0.195	0.21644285726236662	
11.925	0.044	0.24223598189294468	
11.93	1.027	0.26558153005542173	
11.935	0.075	0.2916903870945858	
11.94	-0.230	0.30382767479222417	
11.945	0.777	0.30236064914821437	
11.95	0.441	0.2988001352613546	
11.955	-0.331	0.2906098272255232	
11.96	0.297	0.2721356565242775	
11.965	0.617	0.24403824400158836	
11.97	-0.351	0.2098733343544574	
11.975	-0.244	0.16718103880992158	
11.98	0.501	0.11213861582650822	
11.985	-0.250	0.05200577721219251	
11.99	-0.456	0.002128908767958935	
11.995	0.344	-0.031090544782041003	
12.0	0.015	-0.05821482870743983	
12.005	-0.537	-0.08092969506113447	
12.01	-0.031	-0.09209390354088137	
12.015	0.370	-0.10024061667329293	
12.02	-0.441	-0.10273127787581095	
12.025	-0.277	-0.0937647989335509	
12.03	0.508	-0.08223009616171811	
12.035	-0.236	-0.07382620857158126	
12.04	-0.435	-0.06465361035686015	
12.045	0.437	-0.049385214122675006	
12.05	0.130	-0.034243970893131484	
12.055	-0.474	-0.02265920476431261	
12.06	0.073	-0.012246526518818242	
12.065	0.456	-0.008408042203725059	
12.07	-0.387	-0.006504996248436199	
12.075	-0.232	-0.0017605110759868667	
12.08	0.561	-0.0014462461519516817	
12.085	-0.229	-0.004704288409928388	
12.09	-0.447	-0.01153310123984615	
12.095	0.367	-0.019577921708248933	
12.1	0.037	-0.031249555899905745	
12.105	-0.529	-0.04747927903665553	
12.11	-0.055	-0.062340859040960324	
12.115	0.343	-0.08051315537029456	
12.12	-0.438	-0.09435204176716025	
12.125	-0.284	-0.0947364345785229	
12.13	0.422	-0.0915810536264936	
12.135	-0.279	-0.0956563445587463	
12.14	-0.489	-0.09844853203911985	
12.145	0.268	-0.09964534993067019	
12.15	-0.032	-0.10728453922810087	
12.155	-0.486	-0.11642767115910077	
12.16	0.306	-0.09729271564726524	
12.165	0.982	-0.028476417218709974	
12.17	-0.084	-0.0915810536264936	
12.175	0.068	-0.0915810536264936	
12.18	0.780	-0.0915810536264936	
12.185	-0.207	-0.0956563445587463	
12.19	-0.477	-0.09729271564726524	
12.195	0.283	0.16232249153475387	
12.2	-0.020	0.07279969284413722	
12.205	-0.549	-0.011411170288753691	
12.21	-0.092	-0.07239971308029679	
12.215	0.261	-0.11949402220049533	
12.22	-0.485	-0.15230354407253632	
12.225	-0.343	-0.161790923402283	
12.23	0.398	-0.15955661805385268	
12.235	-0.276	-0.15560109022831678	
12.24	-0.460	-0.14452465267554326	
12.245	0.358	-0.12162811881115977	
12.25	0.085	-0.09918537902973684	
12.255	-0.483	-0.08053277896237857	
12.26	0.067	-0.059368217930566125	
12.265	0.511	-0.0393759030877626	
12.27	-0.361	-0.018452580950033486	
12.275	-0.182	0.005132958704951412	
12.28	0.759	0.02965031879554398	
12.285	-0.090	0.058351248117424634	
12.29	-0.316	0.08326790502304542	
12.295	0.678	0.10753072461167017	
12.3	0.468	0.14193943592891092	
12.305	-0.281	0.1812558634928274	
12.31	0.477	0.2206320571337823	
12.315	0.908	0.26282176304718763	
12.32	-0.151	0.30444284229559854	
12.325	0.015	0.3249799284821515	
12.33	0.924	0.32477417781822226	
12.335	0.008	0.3154148244256123	
12.34	-0.290	0.29213025965316275	
12.345	0.623	0.2585065913073364	
12.35	0.291	0.2250556938789144	
12.355	-0.409	0.19024074976376076	
12.36	0.136	0.1555190874500172	
12.365	0.524	0.11886701922179879	
12.37	-0.377	0.08655392579469373	
12.375	-0.250	0.059921016020342804	
12.38	0.561	0.03371805288386039	
12.385	-0.218	0.00952123818237335	
12.39	-0.445	-0.009844373538408462	
12.395	0.415	-0.019582161971266606	
12.4	0.161	-0.022906306957133735	
12.405	-0.454	-0.020693719430114384	
12.41	0.117	-0.009539554744921477	
12.415	0.544	0.003853606895231154	
12.42	-0.342	0.02060719609536655	
12.425	-0.177	0.03689018326637585	
12.43	0.719	0.052690480050208356	
12.435	-0.099	0.06856654556422834	
12.44	-0.342	0.08113739222132048	
12.445	0.590	0.09336955007827522	
12.45	0.308	0.10813683126535244	
12.455	-0.396	0.11931869734282456	
12.46	0.213	0.12538453277458278	
12.465	0.645	0.1278703067643275	
12.47	-0.319	0.13068051293277777	
12.475	-0.191	0.12582234404871012	
12.48	0.581	0.1076250533162101	
12.485	-0.229	0.07865847012899166	
12.49	-0.465	0.04215184763353433	
12.495	0.376	0.010267255986273632	
12.5	0.082	-0.016811498117387084	
12.505	-0.515	-0.03959413413826293	
12.51	-0.024	-0.052701886051332233	
12.515	0.366	-0.06815386071905627	
12.52	-0.432	-0.07922212684623839	
12.525	-0.288	-0.08019399949537456	
12.53	0.465	-0.0774143850357899	
12.535	-0.270	-0.07929268994825427	
12.54	-0.456	-0.08185601925543182	
12.545	0.585	-0.06574080483700889	
12.55	0.558	-0.013738495882360613	
12.555	-0.177	0.07139947174313756	
12.56	0.605	-0.052701886051332233	
12.565	0.819	-0.06574080483700889	
12.57	-0.337	-0.06574080483700889	
12.575	-0.273	-0.06574080483700889	
12.58	0.453	-0.06574080483700889	
12.585	-0.264	0.14483864561106033	
12.59	-0.492	0.053101105187911585	
12.595	0.267	-0.017855197765747996	
12.6	-0.003	-0.07466455318249952	
12.605	-0.544	-0.11455466528599018	
12.61	-0.058	-0.13185166946948512	
12.615	0.395	-0.1360686957091453	
12.62	-0.410	-0.12811543422562693	
12.625	-0.291	-0.10734976968497578	
12.63	0.515	-0.08542096847069111	
12.635	-0.197	-0.06913395930618038	
12.64	-0.409	-0.052954619122941006	
12.645	0.472	-0.03084553405213351	
12.65	0.229	-0.005620777225633222	
12.655	-0.430	0.017354301863295958	
12.66	0.158	0.03912810276210432	
12.665	0.601	0.05602570629139206	
12.67	-0.308	0.07381470104087745	
12.675	-0.146	0.08757111297761208	
12.68	0.812	0.10070060224194766	
12.685	-0.032	0.12088855225445867	
12.69	-0.273	0.13891692832831842	
12.695	0.793	0.16119529892627293	
12.7	0.565	0.20349667700836332	
12.705	-0.247	0.25028651362847903	
12.71	0.459	0.2860303862961843	
12.715	0.878	0.31410639751330005	
12.72	-0.226	0.33288875942452184	
12.725	-0.116	0.3204261904942548	
12.73	0.791	0.2846150590026508	
12.735	-0.102	0.24308288091377694	
12.74	-0.383	0.194933476751669	
12.745	0.460	0.1459361586671777	
12.75	0.161	0.10159326392289425	
12.755	-0.471	0.06153401192482018	
12.76	0.014	0.029801711544866688	
12.765	0.428	-1.3195216633137344e-05	
12.77	-0.441	-0.02376800258045823	
12.775	-0.332	-0.0416015506995751	
12.78	0.419	-0.061682317901330976	
12.785	-0.249	-0.08170404121288669	
12.79	-0.470	-0.09388397157087996	
12.795	0.344	-0.09235306601012142	
12.8	0.082	-0.08640726838742918	
12.805	-0.491	-0.08020520314256861	
12.81	0.008	-0.06935624471003823	
12.815	0.434	-0.06116501358406888	
12.82	-0.406	-0.05254414595948685	
12.825	-0.273	-0.043603338534704314	
12.83	0.537	-0.03688431222101743	
12.835	-0.200	-0.03258291523580091	
12.84	-0.448	-0.0317902714114012	
12.845	0.384	-0.028541918688029428	
12.85	0.133	-0.02638362787696822	
12.855	-0.485	-0.026045569452479163	
12.86	0.023	-0.02548404602337586	
12.865	0.447	-0.027238103207840796	
12.87	-0.432	-0.0293748374912498	
12.875	-0.339	-0.03564584650871977	
12.88	0.389	-0.05103332100070536	
12.885	-0.285	-0.07545822018395734	
12.89	-0.523	-0.09972249574758052	
12.895	0.230	-0.11468855265317843	
12.9	0.014	-0.12834943549846664	
12.905	-0.541	-0.13792971023348016	
12.91	-0.085	-0.13657062294325933	
12.915	0.312	-0.13727544857214544	
12.92	-0.494	-0.1382887014926061	
12.925	-0.404	-0.13866710008082825	
12.93	0.366	-0.14306495756658427	
12.935	-0.156	-0.14340990864057776	
12.94	-0.271	-0.12071323235615061	
12.945	0.858	-0.050659009821097375	
12.95	0.538	-0.12277007976745105	
12.955	-0.395	-0.12277007976745105	
12.96	-0.018	-0.12277007976745105	
12.965	0.338	-0.12277007976745105	
12.97	-0.485	-0.12277007976745105	
12.975	-0.366	-0.12277007976745105	
12.98	0.384	-0.0350465491167466	
12.985	-0.273	-0.08834115373006873	
12.99	-0.508	-0.12277007976745105	
12.995	0.259	-0.134735128430663	
13.0	-0.003	-0.14126143439706718	
13.005	-0.557	-0.14496586892196653	
13.01	-0.093	-0.14363462359637352	
13.015	0.340	-0.14118216876846879	
13.02	-0.445	-0.1362916875872403	
13.025	-0.325	-0.12475582397094444	
13.03	0.448	-0.11197969645721839	
13.035	-0.220	-0.10238436757495356	
13.04	-0.432	-0.09086518679628192	
13.045	0.437	-0.06963472256540433	
13.05	0.181	-0.04221361709316558	
13.055	-0.438	-0.01812054825920195	
13.06	0.117	0.004395734560638684	
13.065	0.601	0.025968061738823683	
13.07	-0.311	0.04858169295468959	
13.075	-0.157	0.06814562354031797	
13.08	0.811	0.08720541895807135	
13.085	-0.008	0.11462622388862789	
13.09	-0.273	0.13694335421257078	
13.095	0.722	0.1604355299260407	
13.1	0.474	0.1929363693764224	
13.105	-0.313	0.22275055326046955	
13.11	0.267	0.2342899801983061	
13.115	0.648	0.23110420792012917	
13.12	-0.325	0.21361578520497965	
13.125	-0.230	0.17998195404302553	
13.13	0.575	0.13521246687502583	
13.135	-0.206	0.08678327601331828	
13.14	-0.476	0.03987295071794129	
13.145	0.282	-0.0016912530040682056	
13.15	0.046	-0.04093221790224198	
13.155	-0.528	-0.07317944311855905	
13.16	-0.098	-0.09384044452751865	
13.165	0.340	-0.11085028546972167	
13.17	-0.457	-0.12226229646328796	
13.175	-0.352	-0.12310208717774658	
13.18	0.399	-0.1218143563513482	
13.185	-0.236	-0.12312595974688281	
13.19	-0.479	-0.11917449458292774	
13.195	0.311	-0.10672004756404899	
13.2	0.107	-0.0938609418200044	
13.205	-0.486	-0.08324086640985548	
13.21	0.033	-0.06687716280690648	
13.215	0.518	-0.048740412146839135	
13.22	-0.364	-0.028318750151709565	
13.225	-0.262	-0.00920734536559492	
13.23	0.572	0.0013138007012813673	
13.235	-0.156	0.005890048776728518	
13.24	-0.418	0.006660862653326284	
13.245	0.418	0.008363483910202564	
13.25	0.229	0.013258879077722446	
13.255	-0.441	0.018600240309957626	
13.26	0.040	0.023096773169806184	
13.265	0.471	0.020419446921846635	
13.27	-0.395	0.011589807160198433	
13.275	-0.302	0.0016907517526923098	
13.28	0.517	-0.01151660014160205	
13.285	-0.198	-0.024106535894398203	
13.29	-0.453	-0.035506825046912674	
13.295	0.399	-0.03752041356339253	
13.3	0.186	-0.031632742251533036	
13.305	-0.453	-0.02258608745862052	
13.31	0.018	-0.012895410907339588	
13.315	0.431	-0.010390845498584166	
13.32	-0.430	-0.017543381610540275	
13.325	-0.261	-0.024425439659116765	
13.33	0.889	-0.011275799882877375	
13.335	0.355	0.04994179296506691	
13.34	-0.044	0.14828893912290983	
13.345	0.973	-0.011235296509237222	
13.35	0.459	-0.011235296509237222	
13.355	-0.441	-0.011235296509237222	
13.36	-0.041	-0.011235296509237222	
13.365	0.405	0.2437752121239507	
13.37	-0.419	0.13846451620819256	
13.375	-0.313	0.05146635902447448	
13.38	0.500	-0.011235296509237222	
13.385	-0.188	-0.0510249617981943	
13.39	-0.462	-0.07078515036246844	
13.395	0.349	-0.07142516491877786	
13.4	0.187	-0.06443208204624779	
13.405	-0.465	-0.05278798449019151	
13.41	0.018	-0.035956056962748145	
13.415	0.508	-0.023164694141663958	
13.42	-0.361	-0.01261153733234769	
13.425	-0.244	-0.001585058863008154	
13.43	0.643	0.01085429201734017	
13.435	-0.120	0.021933900550465152	
13.44	-0.374	0.031099697748568484	
13.445	0.544	0.04567498485747192	
13.45	0.366	0.06963264888328319	
13.455	-0.378	0.09406271108825882	
13.46	0.207	0.1150506173908624	
13.465	0.724	0.13298233156365002	
13.47	-0.233	0.1523076584147529	
13.475	-0.087	0.1663080843553939	
13.48	0.953	0.18298381997702426	
13.485	0.155	0.21399344465179843	
13.49	-0.226	0.243963561140437	
13.495	0.774	0.2666528714182025	
13.5	0.573	0.2907490474971831	
13.505	-0.276	0.3090457573349352	
13.51	0.337	0.31292668348533503	
13.515	0.756	0.3040166587621115	
13.52	-0.277	0.2854239864039192	
13.525	-0.233	0.24620607034153263	
13.53	0.575	0.1898536050758021	
13.535	-0.197	0.12614361426021095	
13.54	-0.462	0.06403807849366973	
13.545	0.328	0.01547039294963458	
13.55	0.161	-0.019202233349790248	
13.555	-0.483	-0.04075817402635805	
13.56	-0.037	-0.04820280892801933	
13.565	0.436	-0.05407883964566859	
13.57	-0.401	-0.05737194733058536	
13.575	-0.302	-0.055791110579727764	
13.58	0.514	-0.05130615295444663	
13.585	-0.194	-0.04875224698346585	
13.59	-0.439	-0.04789040352615151	
13.595	0.424	-0.03767669663790455	
13.6	0.241	-0.020177790456383432	
13.605	-0.444	-0.0026606908053325396	
13.61	0.058	0.013681270369458388	
13.615	0.535	0.023898392589451586	
13.62	-0.354	0.02874923155544064	
13.625	-0.265	0.03012759620354304	
13.63	0.619	0.028619694828471102	
13.635	-0.116	0.028389519023579102	
13.64	-0.392	0.02809252167057204	
13.645	0.468	0.03318214067880961	
13.65	0.288	0.0439284521502897	
13.655	-0.445	0.05341517570659281	
13.66	-0.040	0.05151176874105086	
13.665	0.367	0.028901195805583278	
13.67	-0.448	-0.006096330490589879	
13.675	-0.367	-0.03996004756137693	
13.68	0.369	-0.0714664574686138	
13.685	-0.259	-0.10147380041289625	
13.69	-0.520	-0.12390415234480903	
13.695	0.197	-0.13192918128033002	
13.7	0.040	-0.14000493655827656	
13.705	-0.534	-0.14554140159389706	
13.71	-0.130	-0.1415437630716535	
13.715	0.277	-0.1420435178970439	
13.72	-0.457	-0.14809324278690394	
13.725	-0.236	-0.140028002050329	
13.73	1.011	-0.09033144138039771	
13.735	0.436	0.018609497910078723	
13.74	-0.116	-0.10835325042198571	
13.745	0.777	-0.10835325042198571	
13.75	0.319	-0.10835325042198571	
13.755	-0.518	-0.10835325042198571	
13.76	-0.136	-0.10835325042198571	
13.765	0.291	0.15008686202021032	
13.77	-0.476	0.03696510967290779	
13.775	-0.395	-0.0511438078552899	
13.78	0.392	-0.10835325042198571	
13.785	-0.252	-0.14433819039449441	
13.79	-0.523	-0.1600960868924019	
13.795	0.229	-0.15692218882566739	
13.8	0.102	-0.14780987935333922	
13.805	-0.503	-0.13568075535402896	
13.81	-0.043	-0.11464660371789485	
13.815	0.501	-0.09182712644513141	
13.82	-0.366	-0.06711942638379938	
13.825	-0.287	-0.043238462267793654	
13.83	0.631	-0.020237715651710855	
13.835	-0.090	0.000651607027777066	
13.84	-0.375	0.019743628622595256	
13.845	0.553	0.043171116253125134	
13.85	0.437	0.07630679837451636	
13.855	-0.354	0.11215382760024352	
13.86	0.212	0.1403116247288108	
13.865	0.819	0.1643420787180054	
13.87	-0.186	0.1918321964249044	
13.875	-0.060	0.21162582369742222	
13.88	0.988	0.22986520843359623	
13.885	0.194	0.2597437085990989	
13.89	-0.239	0.2836230970312088	
13.895	0.768	0.2960989482205404	
13.9	0.567	0.3104233372058476	
13.905	-0.305	0.3171973600254795	
13.91	0.235	0.30414994703169085	
13.915	0.703	0.2783237060562965	
13.92	-0.319	0.2430278296097348	
13.925	-0.302	0.1935435890861818	
13.93	0.534	0.13264992689782484	
13.935	-0.194	0.07094407337819214	
13.94	-0.497	0.014771302391971752	
13.945	0.255	-0.0271773768543856	
13.95	0.101	-0.060551857441815474	
13.955	-0.537	-0.08650528011799824	
13.96	-0.128	-0.10101625353003735	
13.965	0.380	-0.11184069549823462	
13.97	-0.430	-0.11868875848650272	
13.975	-0.364	-0.1154402487917047	
13.98	0.418	-0.11060163005452761	
13.985	-0.215	-0.10892205436350443	
13.99	-0.482	-0.10709547852472191	
13.995	0.319	-0.09538338579039421	
14.0	0.186	-0.07954674148888213	
14.005	-0.492	-0.06434046312391745	
14.01	-0.067	-0.05114432636836112	
14.015	0.460	-0.04792330785625646	
14.02	-0.381	-0.04553544043578077	
14.025	-0.310	-0.041470798500461876	
14.03	0.546	-0.036721154385694926	
14.035	-0.149	-0.030814285446053597	
14.04	-0.442	-0.02805516411111736	
14.045	0.395	-0.019517930715166276	
14.05	0.223	-0.008503141301346266	
14.055	-0.489	-0.002242857491379222	
14.06	-0.119	-0.006260773763761008	
14.065	0.311	-0.029961203532460883	
14.07	-0.476	-0.06541359584381563	
14.075	-0.430	-0.09751430925110373	
14.08	0.291	-0.12679968407188752	
14.085	-0.279	-0.1567221989051078	
14.09	-0.555	-0.1770388413574851	
14.095	0.161	-0.17958160876269108	
14.1	0.075	-0.17846114582361286	
14.105	-0.526	-0.1712304311346363	
14.11	-0.159	-0.1552723764046129	
14.115	0.245	-0.14990744520691707	
14.12	-0.460	-0.15647321590291335	
14.125	-0.258	-0.1515500898895464	
14.13	0.982	-0.10361269297076685	
14.135	0.453	0.005300119105700878	
14.14	-0.149	0.14177114214093056	
14.145	0.687	-0.10361269297076685	
14.15	0.285	-0.09929473875010561	
14.155	-0.512	-0.0955508514473989	
14.16	-0.142	0.22668988633644743	
14.165	0.331	0.12625966736664698	
14.17	-0.445	0.026491655544419082	
14.175	-0.380	-0.04864975747419634	
14.18	0.427	-0.0955508514473989	
14.185	-0.213	-0.12171855803593154	
14.19	-0.488	-0.1312996650414624	
14.195	0.319	-0.12140343461923711	
14.2	0.210	-0.09929473875010561	
14.205	-0.470	-0.0755275990794311	
14.21	-0.044	-0.052270317027093116	
14.215	0.486	-0.03760667883725774	
14.22	-0.372	-0.02964898955967911	
14.225	-0.311	-0.02275471660398932	
14.23	0.540	-0.01938049195494094	
14.235	-0.130	-0.018750223666555352	
14.24	-0.419	-0.01748943114038371	
14.245	0.428	-0.007264146972008988	
14.25	0.306	0.010813059940190654	
14.255	-0.409	0.029253330441419416	
14.26	0.113	0.04875598083912509	
14.265	0.729	0.07062274767222448	
14.27	-0.217	0.09920422149510588	
14.275	-0.120	0.12610352255070212	
14.28	0.910	0.1548518304668673	
14.285	0.181	0.19327455263433643	
14.29	-0.256	0.22627242574577183	
14.295	0.716	0.25080888614951174	
14.3	0.567	0.2739775814185804	
14.305	-0.325	0.2870998916794551	
14.31	0.169	0.278649605274081	
14.315	0.678	0.251767800639217	
14.32	-0.302	0.2172258211344118	
14.325	-0.297	0.17195837609369047	
14.33	0.491	0.11686328072331054	
14.335	-0.175	0.05838949507808307	
14.34	-0.477	0.006235170254594728	
14.345	0.273	-0.028251748053857682	
14.35	0.140	-0.05293801718430754	
14.355	-0.509	-0.07086443451845453	
14.36	-0.084	-0.07740655311369926	
14.365	0.437	-0.08118882527026057	
14.37	-0.401	-0.08073636774981555	
14.375	-0.357	-0.07709977371166007	
14.38	0.468	-0.07310307830743118	
14.385	-0.188	-0.07256991125395727	
14.39	-0.483	-0.07486020761894732	
14.395	0.302	-0.06924176080824784	
14.4	0.256	-0.05884025332574283	
14.405	-0.444	-0.04395356178931996	
14.41	-0.018	-0.024462367164442413	
14.415	0.573	-0.009060769856303438	
14.42	-0.326	0.005225188697598261	
14.425	-0.270	0.017778650265984422	
14.43	0.630	0.028018662070900372	
14.435	-0.081	0.035479201756995885	
14.44	-0.401	0.03897540769849767	
14.445	0.444	0.0448084601988369	
14.45	0.344	0.05529452052324647	
14.455	-0.432	0.06490324564730349	
14.46	-0.029	0.06547171365092415	
14.465	0.469	0.05010102968156642	
14.47	-0.374	0.026180209048266734	
14.475	-0.313	0.004651206029171035	
14.48	0.521	-0.009840705501798486	
14.485	-0.151	-0.023471124827828135	
14.49	-0.457	-0.03319426380864581	
14.495	0.357	-0.03211902094955775	
14.5	0.229	-0.026568686317329768	
14.505	-0.480	-0.02227089061471391	
14.51	-0.108	-0.019552393774590816	
14.515	0.441	-0.029678567116133106	
14.52	-0.325	-0.04093554191314858	
14.525	-0.140	-0.032491970931560143	
14.53	1.142	0.021443153878484063	
14.535	0.480	0.1305884468118984	
14.54	-0.171	0.014523557016355314	
14.545	0.654	0.014523557016355314	
14.55	0.402	0.021443153878484063	
14.555	-0.447	0.023708328355079654	
14.56	-0.049	0.2713738157932325	
14.565	0.520	0.1855377335067717	
14.57	-0.342	0.10602702073998818	
14.575	-0.299	0.049350597503889516	
14.58	0.590	0.014523557016355314	
14.585	-0.081	-0.0023864004258690357	
14.59	-0.415	-0.007585865133193494	
14.595	0.439	0.00305080222625098	
14.6	0.393	0.023708328355079654	
14.605	-0.396	0.049403650686679255	
14.61	0.072	0.07238852882517091	
14.615	0.658	0.086665519649711	
14.62	-0.259	0.09590833713379598	
14.625	-0.213	0.10325493089860326	
14.63	0.774	0.11067026456902256	
14.635	0.075	0.12359935320022615	
14.64	-0.299	0.13926435250250258	
14.645	0.681	0.16114472589665396	
14.65	0.651	0.19879772474583604	
14.655	-0.241	0.24127045932766153	
14.66	0.361	0.27737554745330684	
14.665	0.968	0.30879092836803035	
14.67	-0.073	0.33586449047998923	
14.675	0.003	0.3481522523270372	
14.68	1.081	0.3567310843301963	
14.685	0.390	0.3776841252817116	
14.69	-0.149	0.3991931292963388	
14.695	0.902	0.4160500764082987	
14.7	0.771	0.43588250829082364	
14.705	-0.227	0.4483463303164966	
14.71	0.343	0.4372143026342787	
14.715	0.873	0.41074278240267686	
14.72	-0.201	0.3750866834181893	
14.725	-0.207	0.3230941125589395	
14.73	0.672	0.26047977665023425	
14.735	-0.075	0.19587737583824805	
14.74	-0.425	0.13436984820191783	
14.745	0.338	0.0857482479856477	
14.75	0.238	0.04588995211499026	
14.755	-0.459	0.014688967425522741	
14.76	-0.143	-0.006960481986747909	
14.765	0.317	-0.03747700153796391	
14.77	-0.453	-0.07761119081566169	
14.775	-0.432	-0.10785096631495629	
14.78	0.300	-0.12979123949724525	
14.785	-0.227	-0.15400912047237372	
14.79	-0.518	-0.1664682393628547	
14.795	0.233	-0.156415842001518	
14.8	0.195	-0.13813513271180333	
14.805	-0.454	-0.11519830973856104	
14.81	-0.053	-0.0840088643568628	
14.815	0.503	-0.0574929787742125	
14.82	-0.361	-0.0395824449022738	
14.825	-0.335	-0.02691016399304514	
14.83	0.517	-0.02076193808420788	
14.835	-0.110	-0.01997115346403861	
14.84	-0.418	-0.020574250626664937	
14.845	0.390	-0.00939187605305491	
14.85	0.354	0.00897632219859808	
14.855	-0.415	0.028683980605364034	
14.86	-0.052	0.041925421523560075	
14.865	0.512	0.03966385316214865	
14.87	-0.349	0.026375953178444038	
14.875	-0.340	0.012956193122299165	
14.88	0.515	-0.0006118007581965811	
14.885	-0.096	-0.01392062593317066	
14.89	-0.419	-0.020762380061909717	
14.895	0.402	-0.011306096408037779	
14.9	0.334	0.0061232722348026295	
14.905	-0.435	0.023484651071001287	
14.91	-0.082	0.03290041276252548	
14.915	0.495	0.02589692494714958	
14.92	-0.265	0.013248909723657243	
14.925	-0.060	0.0228200999629922	
14.93	1.264	0.08369622810266948	
14.935	0.681	0.20913397254419416	
14.94	-0.064	0.03476685404748062	
14.945	0.762	0.03476685404748062	
14.95	0.479	0.03476685404748062	
14.955	-0.416	0.03476685404748062	
14.96	-0.052	0.045866737190033514	
14.965	0.561	0.25911731290451195	
14.97	-0.326	0.1582102895024941	
14.975	-0.302	0.08366687667066515	
14.98	0.558	0.03476685404748062	
14.985	-0.096	0.0021447163500939357	
14.99	-0.427	-0.01515595470851068	
14.995	0.399	-0.013117668243048686	
15.0	0.372	0.003389587915543373	
15.005	-0.401	0.02414787959647435	
15.01	0.029	0.045866737190033514	
15.015	0.663	0.06225592537021232	
15.02	-0.253	0.07506807369431123	
15.025	-0.210	0.0875596709861958	
15.03	0.776	0.10294852090390179	
15.035	0.122	0.12413106352348799	
15.04	-0.293	0.14564494885066653	
15.045	0.662	0.17299029893022813	
15.05	0.665	0.21051986673118245	
15.055	-0.232	0.2509663004421827	
15.06	0.376	0.28583317729680274	
15.065	1.055	0.32245368212133735	
15.07	-0.011	0.3600097254442053	
15.075	0.033	0.38438701497502226	
15.08	1.142	0.4010586254454464	
15.085	0.456	0.4282516203255977	
15.09	-0.140	0.45150007375193096	
15.095	0.840	0.46089555426022033	
15.1	0.817	0.46766719081891606	
15.105	-0.195	0.468014430284297	
15.11	0.308	0.4516426486479581	
15.115	0.881	0.4194385904755881	
15.12	-0.162	0.3792208208093513	
15.125	-0.192	0.32831682794962636	
15.13	0.707	0.2718499435094347	
15.135	-0.020	0.21342528149634132	
15.14	-0.403	0.15864311076236587	
15.145	0.413	0.11766320197594846	
15.15	0.380	0.09168723726175178	
15.155	-0.389	0.07627154771698634	
15.16	0.011	0.07149923151917045	
15.165	0.637	0.06829900205029543	
15.17	-0.279	0.06646778255471311	
15.175	-0.279	0.06531115894697548	
15.18	0.619	0.06362132817043353	
15.185	-0.023	0.05957645834438147	
15.19	-0.383	0.05576165794201628	
15.195	0.437	0.061433429748070215	
15.2	0.431	0.07471142583577756	
15.205	-0.355	0.08946340134718159	
15.21	0.076	0.10533527896519226	
15.215	0.712	0.11721125956145041	
15.22	-0.227	0.1256803147088975	
15.225	-0.226	0.12924781767149646	
15.23	0.701	0.12944725554133082	
15.235	0.067	0.12875788054118315	
15.24	-0.342	0.12781742602590374	
15.245	0.505	0.132207254868492	
15.25	0.441	0.13979493961897216	
15.255	-0.378	0.14363058460817607	
15.26	-0.018	0.13712750859666925	
15.265	0.575	0.11615466050009096	
15.27	-0.325	0.08791920051376859	
15.275	-0.332	0.06016434619411795	
15.28	0.517	0.034271132693203185	
15.285	-0.092	0.00895281741531868	
15.29	-0.435	-0.009124264400864328	
15.295	0.341	-0.011001001517410881	
15.3	0.322	-0.005117989508682721	
15.305	-0.435	0.003778435011158925	
15.31	-0.113	0.009961864942815948	
15.315	0.415	0.00012807939958275595	
15.32	-0.308	-0.018920663359289706	
15.325	-0.148	-0.02090238492332493	
15.33	1.229	0.03225412795725205	
15.335	0.745	0.009961864942815948	
15.34	-0.055	0.009961864942815948	
15.345	0.727	0.009961864942815948	
15.35	0.482	0.009961864942815948	
15.355	-0.427	0.009961864942815948	
15.36	-0.107	0.012684979422110162	
15.365	0.469	0.24408746664826375	
15.37	-0.345	0.13133443696390412	
15.375	-0.348	0.04603821311642298	
15.38	0.523	-0.00802000928781671	
15.385	-0.070	-0.03672379394541989	
15.39	-0.444	-0.048001816040844664	
15.395	0.303	-0.041390395017598766	
15.4	0.343	-0.027023538438095393	
15.405	-0.401	-0.008883123607906976	
15.41	-0.018	0.012684979422110162	
15.415	0.648	0.030962267067440045	
15.42	-0.242	0.04947156820080776	
15.425	-0.250	0.06502300928431712	
15.43	0.739	0.08080945776202789	
15.435	0.105	0.10336928100725933	
15.44	-0.334	0.12308366179839103	
15.445	0.550	0.14243182091409187	
15.45	0.587	0.16799049063567179	
15.455	-0.284	0.19530120222058533	
15.46	0.227	0.2165431011806266	
15.465	0.937	0.238842563890718	
15.47	-0.056	0.2677210888617047	
15.475	-0.046	0.2880020204721885	
15.48	1.043	0.3065240506213757	
15.485	0.402	0.3395814945508555	
15.49	-0.188	0.3692904702184505	
15.495	0.765	0.3840367342795893	
15.5	0.704	0.395971092011525	
15.505	-0.274	0.3957524507000375	
15.51	0.102	0.3662537799800994	
15.515	0.672	0.31245977186115154	
15.52	-0.277	0.25125820939929044	
15.525	-0.325	0.1831052331207818	
15.53	0.460	0.11487064282582737	
15.535	-0.148	0.04985593998218216	
15.54	-0.524	-0.009168537380714381	
15.545	0.084	-0.05654769597750466	
15.55	0.093	-0.10021273850772242	
15.555	-0.544	-0.13551194478191558	
15.56	-0.236	-0.15394364587106457	
15.565	0.267	-0.16909807690000217	
15.57	-0.448	-0.1821980340652707	
15.575	-0.474	-0.1886703514860818	
15.58	0.204	-0.1917754220507339	
15.585	-0.249	-0.20298526230599664	
15.59	-0.587	-0.21267043958536933	
15.595	0.029	-0.21198873216357705	
15.6	0.059	-0.21141496984059913	
15.605	-0.553	-0.21100315448200768	
15.61	-0.220	-0.20007067135481937	
15.615	0.340	-0.18748454014174876	
15.62	-0.406	-0.17385491056921087	
15.625	-0.435	-0.1595351756871722	
15.63	0.331	-0.14717308201359747	
15.635	-0.192	-0.1418687201743714	
15.64	-0.550	-0.1413869504362144	
15.645	0.058	-0.14328447589176407	
15.65	0.064	-0.15150865282671475	
15.655	-0.575	-0.16467945539547632	
15.66	-0.291	-0.1751889199453962	
15.665	0.116	-0.19572966425993987	
15.67	-0.526	-0.22561779186434708	
15.675	-0.557	-0.25044968139540114	
15.68	0.101	-0.268415252235363	
15.685	-0.297	-0.28679269170999017	
15.69	-0.630	-0.2962114287861197	
15.695	-0.079	-0.2914185152328806	
15.7	-0.060	-0.2925661011334145	
15.705	-0.628	-0.29556194528205254	
15.71	-0.334	-0.2901950383326585	
15.715	0.073	-0.28877662831516177	
15.72	-0.489	-0.29561424604636033	
15.725	-0.387	-0.2874341437077562	
15.73	0.779	-0.2333193965058283	
15.735	0.358	-0.12176146010750107	
15.74	-0.247	-0.2542785831407575	
15.745	0.399	-0.2542785831407575	
15.75	0.149	-0.2503529566168312	
15.755	-0.593	-0.2333193965058283	
15.76	-0.322	-0.23182377877501853	
15.765	0.097	-0.02864336742401791	
15.77	-0.518	-0.13160056959948696	
15.775	-0.531	-0.20855679656781292	
15.78	0.165	-0.2542785831407575	
15.785	-0.255	-0.2797248152704469	
15.79	-0.584	-0.28442912479403876	
15.795	0.026	-0.26932369035864356	
15.8	0.075	-0.2503529566168312	
15.805	-0.555	-0.23182377877501853	
15.81	-0.230	-0.2092704332883915	
15.815	0.341	-0.1894239967095727	
15.82	-0.407	-0.17175586497855805	
15.825	-0.422	-0.15674825095693348	
15.83	0.395	-0.14002687778272485	
15.835	-0.136	-0.12471535038173574	
15.84	-0.489	-0.11174321534159362	
15.845	0.251	-0.09516067471591545	
15.85	0.334	-0.07011996326661127	
15.855	-0.413	-0.04112388398688327	
15.86	-0.047	-0.01533579464785683	
15.865	0.691	0.010913810036037181	
15.87	-0.212	0.04212639714110467	
15.875	-0.232	0.06898909952381377	
15.88	0.785	0.09422644996094304	
15.885	0.194	0.130408804671712	
15.89	-0.303	0.16296212518605174	
15.895	0.558	0.1858538774244969	
15.9	0.576	0.21012264415810458	
15.905	-0.349	0.22574209522998845	
15.91	-0.032	0.21347238772439006	
15.915	0.598	0.17907219985727585	
15.92	-0.297	0.13823030806936495	
15.925	-0.355	0.0938104232661962	
15.93	0.456	0.04918749666348509	
15.935	-0.153	0.007591475284570461	
15.94	-0.557	-0.03506563678177326	
15.945	0.026	-0.07631190942416147	
15.95	0.064	-0.11977228401145179	
15.955	-0.570	-0.15812380730747883	
15.96	-0.271	-0.1806441501598276	
15.965	0.212	-0.19794029529981683	
15.97	-0.471	-0.21564431395447667	
15.975	-0.526	-0.22525437687190042	
15.98	0.161	-0.2308659060283399	
15.985	-0.239	-0.24131858837737885	
15.99	-0.587	-0.24509863513658212	
15.995	-0.027	-0.23833801506972313	
16.0	0.052	-0.23469439982287726	
16.005	-0.560	-0.23220599600060685	
16.01	-0.258	-0.21968179833423965	
16.015	0.314	-0.20578959546242978	
16.02	-0.415	-0.1947329439150874	
16.025	-0.445	-0.18038841185303375	
16.03	0.376	-0.16164924265676855	
16.035	-0.113	-0.14430884384980436	
16.04	-0.467	-0.12537027945125034	
16.045	0.239	-0.09916909193259837	
16.05	0.273	-0.07149181131546696	
16.055	-0.505	-0.05253438799742743	
16.06	-0.235	-0.04873088187557707	
16.065	0.326	-0.06544488310548155	
16.07	-0.432	-0.09391570723488528	
16.075	-0.477	-0.11963429933823866	
16.08	0.306	-0.13929520367575	
16.085	-0.175	-0.1552717929479177	
16.09	-0.534	-0.16375518408364928	
16.095	0.096	-0.15895069168893403	
16.1	0.221	-0.14922364855715864	
16.105	-0.505	-0.1379244373331048	
16.11	-0.221	-0.12273001598538795	
16.115	0.361	-0.11600704924774798	
16.12	-0.337	-0.11719859600633294	
16.125	-0.265	-0.10490847320346555	
16.13	0.974	-0.05276616950950087	
16.135	0.508	0.05276563100050846	
16.14	-0.212	0.17369956769845787	
16.145	0.524	0.2622740106980232	
16.15	0.465	0.3000847250100608	
16.155	-0.436	0.2875893884923672	
16.16	-0.174	0.23320120577543116	
16.165	0.456	0.1514698277277206	
16.17	-0.334	0.0685925379661677	
16.175	-0.374	0.005786222632514778	
16.18	0.500	-0.030405328488149395	
16.185	-0.035	-0.047225108660131035	
16.19	-0.435	-0.04966642393259092	
16.195	0.343	-0.034422570057868286	
16.2	0.466	-0.004628486624373071	
16.205	-0.377	0.02918738325440449	
16.21	-0.052	0.056212417544334044	
16.215	0.691	0.07289540231159905	
16.22	-0.203	0.08531507957610637	
16.225	-0.246	0.09549221850744218	
16.23	0.719	0.1070096119257976	
16.235	0.168	0.12379379746112111	
16.24	-0.332	0.13889401510012875	
16.245	0.540	0.15679647741278516	
16.25	0.687	0.18566066090467925	
16.255	-0.247	0.21881110931630712	
16.26	0.238	0.24715652107788708	
16.265	1.038	0.27730048617860004	
16.27	0.052	0.31516123772433735	
16.275	-0.056	0.3441919949318004	
16.28	1.098	0.3662929924411612	
16.285	0.549	0.40092805364526524	
16.29	-0.149	0.4345848850808555	
16.295	0.843	0.4558022538124435	
16.3	0.899	0.47790116377002995	
16.305	-0.191	0.48869756269510445	
16.31	0.206	0.4699608244851583	
16.315	0.887	0.4294222432979945	
16.32	-0.143	0.37928859368475	
16.325	-0.253	0.31904122335800716	
16.33	0.665	0.25520486167277845	
16.335	0.067	0.1971155723169472	
16.34	-0.415	0.14561940281952448	
16.345	0.311	0.10760648535275584	
16.35	0.419	0.07998534477955213	
16.355	-0.413	0.061894599258223326	
16.36	-0.117	0.0498098637918513	
16.365	0.567	0.03534117133107902	
16.37	-0.274	0.02050322072473269	
16.375	-0.354	0.012012258607275486	
16.38	0.512	0.007029234947884454	
16.385	0.012	0.003243211362057164	
16.39	-0.422	0.001694864658264737	
16.395	0.314	0.011439969517745313	
16.4	0.456	0.02701614730830204	
16.405	-0.361	0.0460150422208798	
16.41	-0.024	0.06469516595251837	
16.415	0.729	0.08130628263550346	
16.42	-0.194	0.09763433446344429	
16.425	-0.276	0.10694190761575105	
16.43	0.663	0.11192765640317925	
16.435	0.137	0.11737977729104415	
16.44	-0.381	0.11870840313353953	
16.445	0.364	0.12026963852616046	
16.45	0.462	0.12009160707394165	
16.455	-0.409	0.11313824246052313	
16.46	-0.113	0.09952626045506752	
16.465	0.561	0.07526759442716643	
16.47	-0.296	0.04783067582004755	
16.475	-0.381	0.023873128510284662	
16.48	0.474	0.004788681570140756	
16.485	-0.018	-0.012458728487587162	
16.49	-0.456	-0.02324926943815011	
16.495	0.273	-0.020891785723346934	
16.5	0.401	-0.009824046957319884	
16.505	-0.430	0.00324674351202594	
16.51	-0.180	0.011377797349724671	
16.515	0.466	0.0022553658455628147	
16.52	-0.282	-0.015035315872089311	
16.525	-0.235	-0.01919522683211312	
16.53	1.032	0.018768473101444798	
16.535	0.674	0.11871816937361185	
16.54	-0.139	0.0047629287398876195	
16.545	0.610	0.3418938098024346	
16.55	0.517	0.0047629287398876195	
16.555	-0.447	0.36434278666310604	
16.56	-0.209	0.2922088862486206	
16.565	0.445	0.18821415714501788	
16.57	-0.329	0.08417965487788949	
16.575	-0.410	0.0047629287398876195	
16.58	0.412	-0.04445306752946224	
16.585	-0.075	-0.07618898923747361	
16.59	-0.491	-0.09315549016648342	
16.595	0.172	-0.09120362772219576	
16.6	0.332	-0.0807342181046769	
16.605	-0.451	-0.06750108136319534	
16.61	-0.174	-0.05184761782838008	
16.615	0.546	-0.04083812853667134	
16.62	-0.268	-0.03174600474189947	
16.625	-0.357	-0.022291491283080448	
16.63	0.534	-0.00951805701896646	
16.635	0.050	0.0028866847638223544	
16.64	-0.403	0.013820858069950556	
16.645	0.369	0.03271958273737903	
16.65	0.585	0.06335399125666105	
16.655	-0.299	0.09852364513374084	
16.66	0.047	0.1310319343687369	
16.665	0.828	0.15620867006190026	
16.67	-0.102	0.1803548270972148	
16.675	-0.191	0.1935845144156628	
16.68	0.912	0.20943554053392746	
16.685	0.430	0.24307337150750172	
16.69	-0.258	0.2787917424425935	
16.695	0.578	0.3014964675286387	
16.7	0.730	0.3164576068202465	
16.705	-0.282	0.32270404433329813	
16.71	-0.031	0.3027984320050717	
16.715	0.686	0.2580858854955917	
16.72	-0.250	0.20567188503126901	
16.725	-0.377	0.147568030060277	
16.73	0.436	0.09008772999018501	
16.735	-0.082	0.03425871375399317	
16.74	-0.521	-0.016936885424356365	
16.745	0.030	-0.05581992466695919	
16.75	0.209	-0.09161575249638133	
16.755	-0.515	-0.11890901017460655	
16.76	-0.270	-0.13130015938184603	
16.765	0.337	-0.14018080901035876	
16.77	-0.381	-0.15106644814823536	
16.775	-0.470	-0.15533385655503057	
16.78	0.294	-0.1521919436104891	
16.785	-0.136	-0.1526656795850027	
16.79	-0.538	-0.15375599563088715	
16.795	0.058	-0.1469960055929123	
16.8	0.268	-0.13765726025602665	
16.805	-0.462	-0.125748754306904	
16.81	-0.200	-0.10638219083836481	
16.815	0.505	-0.08825900716952209	
16.82	-0.281	-0.07194752403911533	
16.825	-0.375	-0.05536402967447329	
16.83	0.529	-0.036276419791969924	
16.835	0.047	-0.01556897589848267	
16.84	-0.436	-0.0007556520013372603	
16.845	0.264	0.014895637037798023	
16.85	0.445	0.02941807741706843	
16.855	-0.432	0.04029871494480139	
16.86	-0.229	0.03847743453610696	
16.865	0.381	0.01274833151694484	
16.87	-0.361	-0.027833797675851084	
16.875	-0.459	-0.06444052598609741	
16.88	0.341	-0.09031889636220895	
16.885	-0.090	-0.10945721358086025	
16.89	-0.517	-0.12078001611675376	
16.895	0.101	-0.11816638855313112	
16.9	0.328	-0.10949638115798105	
16.905	-0.467	-0.09570514078569932	
16.91	-0.247	-0.08058225950568851	
16.915	0.340	-0.08116793628327494	
16.92	-0.342	-0.09584507549950383	
16.925	-0.349	-0.1025348272469668	
16.93	0.867	-0.07018263537804204	
16.935	0.681	0.02464412075740569	
16.94	-0.089	-0.07720863211957439	
16.945	0.715	-0.07720863211957439	
16.95	0.602	-0.07720863211957439	
16.955	-0.436	-0.07720863211957439	
16.96	-0.255	-0.07720863211957439	
16.965	0.363	0.21994612228107255	
16.97	-0.374	0.09621667955474338	
16.975	-0.477	-0.007638473447284522	
16.98	0.355	-0.07720863211957439	
16.985	-0.096	-0.1203004624328822	
16.99	-0.538	-0.14396850091106222	
16.995	0.072	-0.14519430803584088	
17.0	0.319	-0.13728562046022666	
17.005	-0.439	-0.12080503492248101	
17.01	-0.178	-0.09471978688582208	
17.015	0.599	-0.06695567277054013	
17.02	-0.232	-0.03780935036917679	
17.025	-0.360	-0.012778920497290614	
17.03	0.562	0.008858605897057009	
17.035	0.136	0.029759944279709204	
17.04	-0.377	0.04888440189624777	
17.045	0.383	0.07181380393874243	
17.05	0.613	0.10285406658022875	
17.055	-0.313	0.13309471168722592	
17.06	-0.003	0.1521684375917297	
17.065	0.875	0.1661835770565635	
17.07	-0.064	0.18623978479705658	
17.075	-0.186	0.20206951135616158	
17.08	0.934	0.21987825747042206	
17.085	0.540	0.2619318726000923	
17.09	-0.183	0.3108264503205681	
17.095	0.700	0.35163313427451115	
17.1	0.864	0.38995781706077004	
17.105	-0.206	0.41324979634087855	
17.11	0.056	0.40194917331788393	
17.115	0.790	0.36105306272615234	
17.12	-0.172	0.30853890221828945	
17.125	-0.345	0.24405984740325085	
17.13	0.476	0.17451862475557364	
17.135	-0.037	0.1051148479848859	
17.14	-0.518	0.03911177203162691	
17.145	0.012	-0.01571276575539049	
17.15	0.210	-0.06712030718404002	
17.155	-0.502	-0.1073087610009719	
17.16	-0.273	-0.12815721290742219	
17.165	0.380	-0.13825216678191588	
17.17	-0.361	-0.14515034007024344	
17.175	-0.474	-0.14582008645606603	
17.18	0.322	-0.14082516779021473	
17.185	-0.105	-0.13678700755110001	
17.19	-0.560	-0.13764957259985722	
17.195	-0.015	-0.13796462908219614	
17.2	0.247	-0.14119042318478697	
17.205	-0.502	-0.14204703994057538	
17.21	-0.279	-0.13627732518251867	
17.215	0.425	-0.13043297816463634	
17.22	-0.314	-0.12393028682386457	
