Vernier Format 2
ecg5.txt 10/18/2025 7:37:57
Run 1
Time	Potential	EKG	
T	P	E	
s	mV	mV	

0.000	-0.314	-0.014	
0.005	-0.201	-0.057	
0.010	0.704	-0.068	
0.015	-0.105	-0.010	
0.020	-0.352	0.027	
0.025	0.530	0.027	
0.030	0.232	0.066	
0.035	-0.462	0.097	
0.040	-0.041	0.061	
0.045	0.337	0.022	
0.050	-0.448	0.007	
0.055	-0.354	-0.043	
0.060	0.366	-0.097	
0.065	-0.276	-0.100	
0.070	-0.509	-0.116	
0.075	0.210	-0.152	
0.080	-0.017	-0.147	
0.085	-0.564	-0.135	
0.090	-0.087	-0.161	
0.095	0.401	-0.160	
0.100	-0.422	-0.116	
0.105	-0.322	-0.109	
0.110	0.454	-0.113	
0.115	-0.229	-0.078	
0.120	-0.477	-0.068	
0.125	0.349	-0.090	
0.130	0.152	-0.066	
0.135	-0.479	-0.034	
0.140	-0.024	-0.051	
0.145	0.398	-0.055	
0.150	-0.457	-0.033	
0.155	-0.363	-0.056	
0.160	0.360	-0.096	
0.165	-0.308	-0.095	
0.170	-0.570	-0.115	
0.175	0.180	-0.162	
0.180	0.011	-0.165	
0.185	-0.563	-0.152	
0.190	-0.119	-0.175	
0.195	0.296	-0.177	
0.200	-0.512	-0.147	
0.205	-0.407	-0.158	
0.210	0.466	-0.174	
0.215	-0.046	-0.127	
0.220	-0.270	-0.076	
0.225	0.599	-0.036	
0.230	0.171	0.041	
0.235	-0.555	0.089	
0.240	-0.185	0.044	
0.245	0.194	-0.020	
0.250	-0.524	-0.062	
0.255	-0.421	-0.131	
0.260	0.270	-0.191	
0.265	-0.322	-0.194	
0.270	-0.540	-0.203	
0.275	0.293	-0.220	
0.280	0.030	-0.185	
0.285	-0.607	-0.145	
0.290	-0.143	-0.160	
0.295	0.306	-0.165	
0.300	-0.476	-0.137	
0.305	-0.390	-0.146	
0.310	0.381	-0.164	
0.315	-0.241	-0.136	
0.320	-0.505	-0.126	
0.325	0.294	-0.141	
0.330	0.101	-0.114	
0.335	-0.508	-0.081	
0.340	-0.005	-0.092	
0.345	0.572	-0.078	
0.350	-0.352	-0.020	
0.355	-0.235	-0.005	
0.360	0.756	0.000	
0.365	-0.085	0.058	
0.370	-0.396	0.084	
0.375	0.581	0.068	
0.380	0.460	0.104	
0.385	-0.410	0.153	
0.390	0.125	0.138	
0.395	0.668	0.128	
0.400	-0.387	0.150	
0.405	-0.343	0.112	
0.410	0.422	0.042	
0.415	-0.265	0.011	
0.420	-0.538	-0.036	
0.425	0.239	-0.103	
0.430	0.035	-0.119	
0.435	-0.598	-0.117	
0.440	-0.183	-0.157	
0.445	0.238	-0.181	
0.450	-0.550	-0.172	
0.455	-0.467	-0.196	
0.460	0.373	-0.224	
0.465	-0.250	-0.194	
0.470	-0.570	-0.176	
0.475	0.149	-0.192	
0.480	0.038	-0.175	
0.485	-0.582	-0.151	
0.490	-0.145	-0.170	
0.495	0.315	-0.174	
0.500	-0.508	-0.144	
0.505	-0.416	-0.155	
0.510	0.399	-0.175	
0.515	-0.285	-0.148	
0.520	-0.595	-0.143	
0.525	0.157	-0.175	
0.530	-0.023	-0.172	
0.535	-0.628	-0.163	
0.540	-0.175	-0.195	
0.545	0.326	-0.206	
0.550	-0.491	-0.173	
0.555	-0.436	-0.176	
0.560	0.354	-0.191	
0.565	-0.220	-0.161	
0.570	-0.439	-0.141	
0.575	0.677	-0.124	
0.580	0.573	-0.025	
0.585	-0.398	0.095	
0.590	0.030	0.127	
0.595	0.474	0.126	
0.600	-0.465	0.126	
0.605	-0.435	0.061	
0.610	0.340	-0.027	
0.615	-0.302	-0.069	
0.620	-0.601	-0.116	
0.625	0.187	-0.179	
0.630	0.018	-0.186	
0.635	-0.611	-0.173	
0.640	-0.146	-0.197	
0.645	0.469	-0.193	
0.650	-0.398	-0.137	
0.655	-0.393	-0.117	
0.660	0.431	-0.121	
0.665	-0.215	-0.088	
0.670	-0.511	-0.080	
0.675	0.396	-0.100	
0.680	0.293	-0.064	
0.685	-0.464	-0.011	
0.690	0.015	-0.012	
0.695	0.633	-0.001	
0.700	-0.323	0.049	
0.705	-0.270	0.052	
0.710	0.788	0.040	
0.715	-0.044	0.085	
0.720	-0.380	0.106	
0.725	0.582	0.087	
0.730	0.466	0.119	
0.735	-0.396	0.164	
0.740	0.172	0.149	
0.745	0.755	0.147	
0.750	-0.317	0.181	
0.755	-0.291	0.157	
0.760	0.620	0.103	
0.765	-0.119	0.096	
0.770	-0.464	0.071	
0.775	0.370	0.014	
0.780	0.229	0.007	
0.785	-0.511	0.017	
0.790	-0.044	-0.020	
0.795	0.573	-0.036	
0.800	-0.360	-0.003	
0.805	-0.297	-0.006	
0.810	0.732	-0.017	
0.815	-0.021	0.033	
0.820	-0.364	0.067	
0.825	0.729	0.070	
0.830	0.712	0.142	
0.835	-0.258	0.239	
0.840	0.398	0.269	
0.845	0.983	0.305	
0.850	-0.133	0.369	
0.855	-0.084	0.362	
0.860	0.968	0.322	
0.865	0.139	0.335	
0.870	-0.311	0.323	
0.875	0.588	0.262	
0.880	0.387	0.241	
0.885	-0.425	0.230	
0.890	0.052	0.163	
0.895	0.575	0.112	
0.900	-0.380	0.104	
0.905	-0.297	0.058	
0.910	0.590	0.008	
0.915	-0.175	0.014	
0.920	-0.488	0.003	
0.925	0.506	-0.033	
0.930	0.613	0.008	
0.935	-0.246	0.095	
0.940	0.407	0.145	
0.945	0.930	0.212	
0.950	-0.299	0.296	
0.955	-0.367	0.282	
0.960	0.372	0.192	
0.965	-0.277	0.117	
0.970	-0.634	0.021	
0.975	0.026	-0.101	
0.980	-0.069	-0.172	
0.985	-0.689	-0.212	
0.990	-0.297	-0.273	
0.995	0.192	-0.303	
1.000	-0.572	-0.284	
1.005	-0.529	-0.291	
1.010	0.270	-0.303	
1.015	-0.284	-0.266	
1.020	-0.605	-0.240	
1.025	0.158	-0.245	
1.030	0.126	-0.209	
1.035	-0.564	-0.160	
1.040	-0.131	-0.159	
1.045	0.535	-0.142	
1.050	-0.386	-0.082	
1.055	-0.366	-0.066	
1.060	0.620	-0.068	
1.065	-0.111	-0.022	
1.070	-0.476	0.002	
1.075	0.476	-0.014	
1.080	0.361	0.019	
1.085	-0.491	0.065	
1.090	-0.089	0.042	
1.095	0.529	0.017	
1.100	-0.404	0.028	
1.105	-0.421	-0.005	
1.110	0.407	-0.058	
1.115	-0.273	-0.068	
1.120	-0.651	-0.097	
1.125	0.027	-0.165	
1.130	-0.053	-0.198	
1.135	-0.680	-0.212	
1.140	-0.287	-0.259	
1.145	0.227	-0.281	
1.150	-0.541	-0.258	
1.155	-0.509	-0.261	
1.160	0.335	-0.272	
1.165	-0.215	-0.229	
1.170	-0.608	-0.198	
1.175	0.120	-0.207	
1.180	0.113	-0.185	
1.185	-0.581	-0.151	
1.190	-0.182	-0.163	
1.195	0.401	-0.164	
1.200	-0.462	-0.127	
1.205	-0.442	-0.130	
1.210	0.491	-0.147	
1.215	-0.159	-0.110	
1.220	-0.515	-0.088	
1.225	0.300	-0.102	
1.230	0.200	-0.077	
1.235	-0.563	-0.044	
1.240	-0.185	-0.071	
1.245	0.332	-0.099	
1.250	-0.534	-0.097	
1.255	-0.517	-0.136	
1.260	0.314	-0.188	
1.265	-0.293	-0.187	
1.270	-0.660	-0.195	
1.275	0.038	-0.236	
1.280	-0.029	-0.241	
1.285	-0.680	-0.231	
1.290	-0.185	-0.256	
1.295	0.683	-0.238	
1.300	-0.233	-0.142	
1.305	-0.230	-0.069	
1.310	0.738	-0.018	
1.315	-0.136	0.061	
1.320	-0.566	0.084	
1.325	0.172	0.030	
1.330	0.085	-0.009	
1.335	-0.633	-0.040	
1.340	-0.253	-0.114	
1.345	0.361	-0.165	
1.350	-0.489	-0.161	
1.355	-0.491	-0.180	
1.360	0.418	-0.205	
1.365	-0.212	-0.173	
1.370	-0.563	-0.152	
1.375	0.265	-0.163	
1.380	0.270	-0.127	
1.385	-0.521	-0.073	
1.390	-0.061	-0.072	
1.395	0.658	-0.057	
1.400	-0.328	0.004	
1.405	-0.328	0.018	
1.410	0.726	0.010	
1.415	0.009	0.056	
1.420	-0.435	0.083	
1.425	0.576	0.068	
1.430	0.663	0.111	
1.435	-0.352	0.184	
1.440	0.181	0.192	
1.445	0.976	0.206	
1.450	-0.177	0.265	
1.455	-0.165	0.266	
1.460	0.965	0.239	
1.465	0.163	0.270	
1.470	-0.492	0.273	
1.475	0.227	0.196	
1.480	0.326	0.136	
1.485	-0.500	0.098	
1.490	-0.110	0.026	
1.495	0.678	-0.017	
1.500	-0.308	0.009	
1.505	-0.322	0.008	
1.510	0.736	-0.004	
1.515	-0.018	0.043	
1.520	-0.460	0.069	
1.525	0.468	0.048	
1.530	0.486	0.073	
1.535	-0.427	0.118	
1.540	0.075	0.105	
1.545	0.877	0.107	
1.550	-0.238	0.162	
1.555	-0.255	0.165	
1.560	0.849	0.141	
1.565	0.113	0.175	
1.570	-0.395	0.191	
1.575	0.596	0.160	
1.580	0.619	0.180	
1.585	-0.407	0.223	
1.590	-0.018	0.193	
1.595	0.698	0.154	
1.600	-0.351	0.154	
1.605	-0.378	0.108	
1.610	0.607	0.042	
1.615	-0.105	0.036	
1.620	-0.540	0.020	
1.625	0.258	-0.035	
1.630	0.189	-0.048	
1.635	-0.598	-0.043	
1.640	-0.230	-0.090	
1.645	0.479	-0.124	
1.650	-0.337	-0.099	
1.655	-0.224	-0.088	
1.660	1.216	-0.047	
1.665	0.594	0.112	
1.670	-0.230	0.269	
1.675	0.669	0.334	
1.680	0.559	0.381	
1.685	-0.483	0.394	
1.690	-0.130	0.303	
1.695	0.617	0.197	
1.700	-0.351	0.143	
1.705	-0.358	0.069	
1.710	0.668	0.002	
1.715	-0.038	0.012	
1.720	-0.486	0.019	
1.725	0.398	-0.009	
1.730	0.469	0.015	
1.735	-0.441	0.065	
1.740	-0.031	0.057	
1.745	0.739	0.054	
1.750	-0.279	0.096	
1.755	-0.291	0.094	
1.760	0.861	0.076	
1.765	0.155	0.126	
1.770	-0.380	0.164	
1.775	0.643	0.154	
1.780	0.681	0.194	
1.785	-0.369	0.254	
1.790	0.169	0.241	
1.795	0.942	0.233	
1.800	-0.156	0.273	
1.805	-0.153	0.265	
1.810	1.122	0.242	
1.815	0.482	0.305	
1.820	-0.227	0.365	
1.825	0.834	0.367	
1.830	0.817	0.405	
1.835	-0.296	0.449	
1.840	0.161	0.405	
1.845	0.928	0.353	
1.850	-0.192	0.347	
1.855	-0.268	0.292	
1.860	0.777	0.214	
1.865	0.107	0.200	
1.870	-0.415	0.183	
1.875	0.463	0.129	
1.880	0.526	0.126	
1.885	-0.399	0.153	
1.890	-0.009	0.125	
1.895	0.785	0.105	
1.900	-0.264	0.136	
1.905	-0.313	0.123	
1.910	0.762	0.088	
1.915	0.125	0.117	
1.920	-0.401	0.137	
1.925	0.540	0.116	
1.930	0.675	0.146	
1.935	-0.352	0.205	
1.940	0.040	0.197	
1.945	0.854	0.183	
1.950	-0.227	0.213	
1.955	-0.308	0.192	
1.960	0.700	0.140	
1.965	0.050	0.141	
1.970	-0.465	0.131	
1.975	0.331	0.077	
1.980	0.472	0.067	
1.985	-0.418	0.089	
1.990	-0.061	0.064	
1.995	0.669	0.046	
2.000	-0.335	0.072	
2.005	-0.422	0.052	
2.010	0.601	0.006	
2.015	0.218	0.028	
2.020	-0.212	0.072	
2.025	1.008	0.117	
2.030	1.026	0.248	
2.035	-0.282	0.395	
2.040	-0.043	0.414	
2.045	0.625	0.358	
2.050	-0.364	0.304	
2.055	-0.432	0.196	
2.060	0.497	0.074	
2.065	-0.107	0.021	
2.070	-0.524	-0.020	
2.075	0.219	-0.080	
2.080	0.340	-0.083	
2.085	-0.474	-0.049	
2.090	-0.139	-0.058	
2.095	0.643	-0.057	
2.100	-0.308	-0.007	
2.105	-0.361	0.003	
2.110	0.639	-0.010	
2.115	0.046	0.029	
2.120	-0.412	0.058	
2.125	0.472	0.047	
2.130	0.593	0.085	
2.135	-0.360	0.148	
2.140	0.085	0.150	
2.145	0.928	0.157	
2.150	-0.151	0.214	
2.155	-0.200	0.223	
2.160	1.014	0.207	
2.165	0.428	0.265	
2.170	-0.270	0.319	
2.175	0.715	0.314	
2.180	0.848	0.346	
2.185	-0.244	0.398	
2.190	0.154	0.374	
2.195	0.898	0.337	
2.200	-0.197	0.338	
2.205	-0.297	0.286	
2.210	0.675	0.202	
2.215	0.014	0.172	
2.220	-0.470	0.137	
2.225	0.315	0.066	
2.230	0.421	0.046	
2.235	-0.467	0.059	
2.240	-0.151	0.024	
2.245	0.590	-0.006	
2.250	-0.310	0.014	
2.255	-0.386	0.002	
2.260	0.601	-0.027	
2.265	0.017	0.003	
2.270	-0.460	0.025	
2.275	0.344	0.005	
2.280	0.480	0.027	
2.285	-0.424	0.074	
2.290	-0.073	0.063	
2.295	0.753	0.054	
2.300	-0.213	0.096	
2.305	-0.300	0.100	
2.310	0.758	0.081	
2.315	0.151	0.120	
2.320	-0.442	0.145	
2.325	0.300	0.111	
2.330	0.439	0.101	
2.335	-0.444	0.112	
2.340	-0.102	0.071	
2.345	0.658	0.038	
2.350	-0.281	0.058	
2.355	-0.342	0.046	
2.360	0.584	0.014	
2.365	-0.058	0.031	
2.370	-0.488	0.033	
2.375	0.488	0.002	
2.380	0.933	0.053	
2.385	-0.107	0.171	
2.390	0.372	0.248	
2.395	1.001	0.316	
2.400	-0.194	0.392	
2.405	-0.360	0.368	
2.410	0.550	0.272	
2.415	-0.012	0.208	
2.420	-0.474	0.141	
2.425	0.322	0.052	
2.430	0.512	0.030	
2.435	-0.439	0.056	
2.440	-0.133	0.035	
2.445	0.657	0.016	
2.450	-0.265	0.046	
2.455	-0.345	0.042	
2.460	0.662	0.019	
2.465	0.125	0.055	
2.470	-0.416	0.085	
2.475	0.428	0.072	
2.480	0.623	0.101	
2.485	-0.329	0.159	
2.490	0.020	0.157	
2.495	0.852	0.153	
2.500	-0.156	0.195	
2.505	-0.236	0.194	
2.510	0.908	0.171	
2.515	0.416	0.220	
2.520	-0.253	0.272	
2.525	0.750	0.278	
2.530	0.918	0.329	
2.535	-0.229	0.403	
2.540	0.209	0.395	
2.545	1.040	0.375	
2.550	-0.098	0.397	
2.555	-0.250	0.362	
2.560	0.785	0.287	
2.565	0.190	0.266	
2.570	-0.415	0.242	
2.575	0.360	0.172	
2.580	0.503	0.144	
2.585	-0.441	0.146	
2.590	-0.166	0.095	
2.595	0.584	0.043	
2.600	-0.319	0.042	
2.605	-0.433	0.011	
2.610	0.521	-0.037	
2.615	-0.002	-0.026	
2.620	-0.502	-0.015	
2.625	0.204	-0.043	
2.630	0.390	-0.036	
2.635	-0.442	-0.001	
2.640	-0.149	-0.013	
2.645	0.660	-0.020	
2.650	-0.279	0.021	
2.655	-0.399	0.024	
2.660	0.553	-0.004	
2.665	0.017	0.017	
2.670	-0.497	0.028	
2.675	0.155	-0.009	
2.680	0.283	-0.022	
2.685	-0.544	-0.016	
2.690	-0.270	-0.059	
2.695	0.448	-0.099	
2.700	-0.360	-0.088	
2.705	-0.477	-0.101	
2.710	0.416	-0.130	
2.715	-0.073	-0.107	
2.720	-0.560	-0.090	
2.725	0.020	-0.119	
2.730	0.223	-0.125	
2.735	-0.460	-0.104	
2.740	-0.034	-0.109	
2.745	1.043	-0.067	
2.750	-0.060	0.057	
2.755	-0.291	0.137	
2.760	0.585	0.149	
2.765	-0.032	0.166	
2.770	-0.555	0.142	
2.775	0.108	0.057	
2.780	0.341	0.004	
2.785	-0.503	-0.009	
2.790	-0.253	-0.056	
2.795	0.521	-0.092	
2.800	-0.323	-0.071	
2.805	-0.436	-0.073	
2.810	0.524	-0.092	
2.815	0.041	-0.054	
2.820	-0.499	-0.020	
2.825	0.236	-0.033	
2.830	0.479	-0.013	
2.835	-0.428	0.035	
2.840	-0.151	0.028	
2.845	0.684	0.017	
2.850	-0.226	0.054	
2.855	-0.343	0.057	
2.860	0.761	0.041	
2.865	0.280	0.093	
2.870	-0.357	0.146	
2.875	0.544	0.150	
2.880	0.840	0.197	
2.885	-0.252	0.275	
2.890	0.120	0.283	
2.895	1.040	0.283	
2.900	-0.034	0.330	
2.905	-0.217	0.327	
2.910	0.919	0.287	
2.915	0.387	0.306	
2.920	-0.361	0.321	
2.925	0.389	0.271	
2.930	0.584	0.243	
2.935	-0.396	0.238	
2.940	-0.149	0.175	
2.945	0.643	0.109	
2.950	-0.268	0.097	
2.955	-0.412	0.059	
2.960	0.570	0.005	
2.965	0.058	0.014	
2.970	-0.476	0.026	
2.975	0.271	-0.002	
2.980	0.534	0.012	
2.985	-0.404	0.060	
2.990	-0.133	0.054	
2.995	0.703	0.042	
3.000	-0.227	0.077	
3.005	-0.364	0.075	
3.010	0.640	0.045	
3.015	0.146	0.071	
3.020	-0.456	0.093	
3.025	0.290	0.064	
3.030	0.546	0.069	
3.035	-0.415	0.104	
3.040	-0.206	0.079	
3.045	0.561	0.040	
3.050	-0.316	0.041	
3.055	-0.485	0.008	
3.060	0.381	-0.051	
3.065	-0.060	-0.061	
3.070	-0.543	-0.067	
3.075	0.117	-0.105	
3.080	0.386	-0.101	
3.085	-0.485	-0.062	
3.090	-0.270	-0.070	
3.095	0.466	-0.087	
3.100	-0.255	-0.061	
3.105	-0.274	-0.051	
3.110	1.052	-0.025	
3.115	0.599	0.104	
3.120	-0.320	0.237	
3.125	0.294	0.271	
3.130	0.369	0.267	
3.135	-0.517	0.239	
3.140	-0.282	0.138	
3.145	0.431	0.033	
3.150	-0.348	-0.014	
3.155	-0.497	-0.070	
3.160	0.366	-0.129	
3.165	-0.066	-0.127	
3.170	-0.564	-0.118	
3.175	0.064	-0.143	
3.180	0.373	-0.132	
3.185	-0.460	-0.087	
3.190	-0.221	-0.083	
3.195	0.578	-0.081	
3.200	-0.261	-0.034	
3.205	-0.407	-0.021	
3.210	0.564	-0.034	
3.215	0.137	0.005	
3.220	-0.445	0.042	
3.225	0.297	0.031	
3.230	0.619	0.055	
3.235	-0.335	0.113	
3.240	-0.027	0.116	
3.245	0.960	0.123	
3.250	-0.037	0.189	
3.255	-0.233	0.217	
3.260	0.895	0.209	
3.265	0.445	0.258	
3.270	-0.302	0.304	
3.275	0.546	0.288	
3.280	0.785	0.299	
3.285	-0.319	0.333	
3.290	-0.099	0.290	
3.295	0.620	0.220	
3.300	-0.299	0.184	
3.305	-0.432	0.114	
3.310	0.482	0.027	
3.315	0.029	0.005	
3.320	-0.502	-0.005	
3.325	0.097	-0.050	
3.330	0.378	-0.059	
3.335	-0.485	-0.036	
3.340	-0.244	-0.056	
3.345	0.562	-0.075	
3.350	-0.268	-0.042	
3.355	-0.421	-0.036	
3.360	0.532	-0.053	
3.365	0.108	-0.017	
3.370	-0.480	0.016	
3.375	0.187	-0.001	
3.380	0.524	0.010	
3.385	-0.432	0.051	
3.390	-0.197	0.037	
3.395	0.633	0.014	
3.400	-0.265	0.037	
3.405	-0.450	0.026	
3.410	0.419	-0.019	
3.415	-0.031	-0.021	
3.420	-0.561	-0.027	
3.425	-0.061	-0.082	
3.430	0.204	-0.115	
3.435	-0.570	-0.121	
3.440	-0.352	-0.161	
3.445	0.364	-0.193	
3.450	-0.374	-0.173	
3.455	-0.558	-0.174	
3.460	0.178	-0.204	
3.465	-0.111	-0.195	
3.470	-0.505	-0.180	
3.475	0.437	-0.171	
3.480	0.945	-0.074	
3.485	-0.233	0.084	
3.490	-0.140	0.161	
3.495	0.538	0.171	
3.500	-0.345	0.171	
3.505	-0.572	0.107	
3.510	0.180	-0.005	
3.515	-0.157	-0.076	
3.520	-0.621	-0.132	
3.525	-0.085	-0.204	
3.530	0.209	-0.228	
3.535	-0.567	-0.209	
3.540	-0.358	-0.220	
3.545	0.384	-0.226	
3.550	-0.331	-0.184	
3.555	-0.499	-0.165	
3.560	0.346	-0.171	
3.565	-0.044	-0.135	
3.570	-0.537	-0.105	
3.575	0.070	-0.120	
3.580	0.431	-0.103	
3.585	-0.444	-0.053	
3.590	-0.230	-0.051	
3.595	0.646	-0.052	
3.600	-0.204	-0.003	
3.605	-0.355	0.016	
3.610	0.694	0.012	
3.615	0.337	0.071	
3.620	-0.355	0.134	
3.625	0.495	0.145	
3.630	0.838	0.192	
3.635	-0.265	0.268	
3.640	-0.070	0.267	
3.645	0.819	0.236	
3.650	-0.162	0.242	
3.655	-0.374	0.206	
3.660	0.559	0.134	
3.665	0.094	0.113	
3.670	-0.523	0.092	
3.675	0.018	0.022	
3.680	0.334	-0.024	
3.685	-0.523	-0.034	
3.690	-0.369	-0.083	
3.695	0.352	-0.134	
3.700	-0.357	-0.135	
3.705	-0.524	-0.151	
3.710	0.311	-0.182	
3.715	-0.064	-0.162	
3.720	-0.581	-0.141	
3.725	-0.014	-0.161	
3.730	0.384	-0.152	
3.735	-0.456	-0.106	
3.740	-0.271	-0.100	
3.745	0.559	-0.099	
3.750	-0.270	-0.054	
3.755	-0.465	-0.042	
3.760	0.454	-0.063	
3.765	0.059	-0.038	
3.770	-0.532	-0.017	
3.775	0.050	-0.048	
3.780	0.373	-0.057	
3.785	-0.499	-0.037	
3.790	-0.340	-0.065	
3.795	0.398	-0.102	
3.800	-0.364	-0.098	
3.805	-0.566	-0.119	
3.810	0.200	-0.167	
3.815	-0.117	-0.173	
3.820	-0.624	-0.175	
3.825	-0.139	-0.212	
3.830	0.122	-0.228	
3.835	-0.558	-0.214	
3.840	-0.215	-0.224	
3.845	1.038	-0.185	
3.850	0.241	-0.035	
3.855	-0.191	0.107	
3.860	0.686	0.182	
3.865	0.052	0.242	
3.870	-0.589	0.236	
3.875	-0.076	0.134	
3.880	0.271	0.038	
3.885	-0.541	-0.020	
3.890	-0.349	-0.098	
3.895	0.439	-0.156	
3.900	-0.311	-0.145	
3.905	-0.506	-0.145	
3.910	0.346	-0.163	
3.915	0.001	-0.133	
3.920	-0.540	-0.103	
3.925	0.102	-0.114	
3.930	0.506	-0.091	
3.935	-0.418	-0.030	
3.940	-0.236	-0.021	
3.945	0.660	-0.023	
3.950	-0.215	0.020	
3.955	-0.399	0.030	
3.960	0.678	0.014	
3.965	0.401	0.066	
3.970	-0.367	0.131	
3.975	0.419	0.142	
3.980	0.884	0.184	
3.985	-0.220	0.262	
3.990	0.017	0.273	
3.995	1.050	0.268	
4.000	0.101	0.318	
4.005	-0.217	0.332	
4.010	0.905	0.304	
4.015	0.550	0.333	
4.020	-0.314	0.364	
4.025	0.393	0.326	
4.030	0.738	0.304	
4.035	-0.343	0.307	
4.040	-0.198	0.245	
4.045	0.687	0.167	
4.050	-0.213	0.142	
4.055	-0.448	0.095	
4.060	0.466	0.025	
4.065	0.096	0.012	
4.070	-0.514	0.011	
4.075	0.131	-0.029	
4.080	0.480	-0.033	
4.085	-0.462	0.001	
4.090	-0.252	-0.015	
4.095	0.715	-0.032	
4.100	-0.157	0.013	
4.105	-0.399	0.033	
4.110	0.599	0.020	
4.115	0.280	0.060	
4.120	-0.422	0.102	
4.125	0.293	0.092	
4.130	0.709	0.110	
4.135	-0.339	0.162	
4.140	-0.175	0.151	
4.145	0.716	0.119	
4.150	-0.191	0.130	
4.155	-0.436	0.107	
4.160	0.474	0.049	
4.165	0.116	0.040	
4.170	-0.506	0.038	
4.175	0.088	-0.008	
4.180	0.515	-0.020	
4.185	-0.419	0.010	
4.190	-0.262	-0.004	
4.195	0.544	-0.029	
4.200	-0.279	-0.010	
4.205	-0.438	-0.020	
4.210	0.660	-0.044	
4.215	0.627	0.022	
4.220	-0.188	0.130	
4.225	0.633	0.200	
4.230	0.829	0.285	
4.235	-0.355	0.364	
4.240	-0.244	0.330	
4.245	0.594	0.241	
4.250	-0.218	0.186	
4.255	-0.433	0.112	
4.260	0.544	0.030	
4.265	0.235	0.025	
4.270	-0.454	0.044	
4.275	0.183	0.023	
4.280	0.643	0.033	
4.285	-0.343	0.084	
4.290	-0.186	0.083	
4.295	0.764	0.070	
4.300	-0.093	0.108	
4.305	-0.329	0.118	
4.310	0.727	0.100	
4.315	0.450	0.145	
4.320	-0.343	0.200	
4.325	0.445	0.200	
4.330	0.893	0.229	
4.335	-0.226	0.294	
4.340	-0.061	0.289	
4.345	0.954	0.261	
4.350	0.107	0.290	
4.355	-0.197	0.295	
4.360	1.030	0.277	
4.365	0.741	0.338	
4.370	-0.209	0.411	
4.375	0.627	0.415	
4.380	0.998	0.435	
4.385	-0.198	0.476	
4.390	-0.034	0.435	
4.395	0.944	0.366	
4.400	-0.027	0.348	
4.405	-0.325	0.301	
4.410	0.710	0.224	
4.415	0.343	0.211	
4.420	-0.439	0.210	
4.425	0.168	0.154	
4.430	0.665	0.124	
4.435	-0.342	0.139	
4.440	-0.215	0.110	
4.445	0.697	0.072	
4.450	-0.148	0.088	
4.455	-0.390	0.080	
4.460	0.627	0.047	
4.465	0.341	0.078	
4.470	-0.418	0.120	
4.475	0.242	0.107	
4.480	0.735	0.118	
4.485	-0.303	0.166	
4.490	-0.156	0.158	
4.495	0.826	0.135	
4.500	-0.089	0.163	
4.505	-0.354	0.161	
4.510	0.665	0.124	
4.515	0.315	0.142	
4.520	-0.450	0.164	
4.525	0.158	0.125	
4.530	0.553	0.102	
4.535	-0.422	0.111	
4.540	-0.284	0.068	
4.545	0.575	0.015	
4.550	-0.213	0.017	
4.555	-0.441	0.001	
4.560	0.508	-0.034	
4.565	0.160	-0.011	
4.570	-0.526	0.016	
4.575	0.119	-0.009	
4.580	0.863	0.007	
4.585	-0.117	0.093	
4.590	0.245	0.158	
4.595	1.242	0.236	
4.600	0.064	0.359	
4.605	-0.390	0.399	
4.610	0.462	0.333	
4.615	0.126	0.270	
4.620	-0.531	0.197	
4.625	-0.020	0.081	
4.630	0.433	0.003	
4.635	-0.441	-0.018	
4.640	-0.293	-0.059	
4.645	0.599	-0.088	
4.650	-0.210	-0.054	
4.655	-0.454	-0.040	
4.660	0.485	-0.055	
4.665	0.290	-0.015	
4.670	-0.418	0.037	
4.675	0.229	0.041	
4.680	0.707	0.070	
4.685	-0.311	0.133	
4.690	-0.160	0.136	
4.695	0.843	0.122	
4.700	-0.023	0.162	
4.705	-0.299	0.175	
4.710	0.820	0.158	
4.715	0.625	0.211	
4.720	-0.261	0.282	
4.725	0.552	0.295	
4.730	1.029	0.333	
4.735	-0.156	0.404	
4.740	-0.017	0.396	
4.745	1.038	0.359	
4.750	0.110	0.374	
4.755	-0.294	0.357	
4.760	0.724	0.294	
4.765	0.386	0.280	
4.770	-0.439	0.270	
4.775	0.116	0.198	
4.780	0.555	0.142	
4.785	-0.407	0.126	
4.790	-0.305	0.069	
4.795	0.556	0.007	
4.800	-0.210	0.003	
4.805	-0.465	-0.015	
4.810	0.422	-0.054	
4.815	0.163	-0.038	
4.820	-0.489	-0.012	
4.825	0.070	-0.031	
4.830	0.587	-0.023	
4.835	-0.370	0.025	
4.840	-0.229	0.026	
4.845	0.721	0.017	
4.850	-0.139	0.059	
4.855	-0.407	0.070	
4.860	0.546	0.044	
4.865	0.276	0.068	
4.870	-0.418	0.098	
4.875	0.265	0.081	
4.880	0.721	0.096	
4.885	-0.332	0.150	
4.890	-0.227	0.140	
4.895	0.684	0.105	
4.900	-0.200	0.112	
4.905	-0.480	0.085	
4.910	0.408	0.022	
4.915	0.186	0.011	
4.920	-0.492	0.017	
4.925	0.033	-0.019	
4.930	0.549	-0.027	
4.935	-0.413	0.007	
4.940	-0.340	-0.006	
4.945	0.520	-0.038	
4.950	-0.089	-0.018	
4.955	-0.207	0.001	
4.960	1.212	0.043	
4.965	1.009	0.204	
4.970	-0.204	0.386	
4.975	0.322	0.446	
4.980	0.651	0.444	
4.985	-0.396	0.417	
4.990	-0.305	0.307	
4.995	0.555	0.175	
5.000	-0.210	0.105	
5.005	-0.450	0.037	
5.010	0.450	-0.034	
5.015	0.218	-0.032	
5.020	-0.468	-0.006	
5.025	0.143	-0.018	
5.030	0.680	0.002	
5.035	-0.320	0.066	
5.040	-0.194	0.078	
5.045	0.780	0.073	
5.050	-0.049	0.118	
5.055	-0.325	0.135	
5.060	0.751	0.121	
5.065	0.552	0.171	
5.070	-0.297	0.236	
5.075	0.463	0.244	
5.080	1.029	0.279	
5.085	-0.133	0.355	
5.090	0.076	0.366	
5.095	1.192	0.360	
5.100	0.358	0.420	
5.105	-0.124	0.455	
5.110	1.084	0.443	
5.115	0.870	0.490	
5.120	-0.156	0.546	
5.125	0.631	0.527	
5.130	1.046	0.520	
5.135	-0.185	0.538	
5.140	-0.108	0.474	
5.145	0.812	0.373	
5.150	-0.104	0.321	
5.155	-0.421	0.244	
5.160	0.471	0.139	
5.165	0.244	0.097	
5.170	-0.488	0.081	
5.175	-0.014	0.023	
5.180	0.430	-0.014	
5.185	-0.451	-0.011	
5.190	-0.355	-0.046	
5.195	0.442	-0.088	
5.200	-0.239	-0.079	
5.205	-0.514	-0.085	
5.210	0.341	-0.115	
5.215	0.149	-0.094	
5.220	-0.532	-0.061	
5.225	-0.050	-0.079	
5.230	0.463	-0.080	
5.235	-0.433	-0.046	
5.240	-0.328	-0.054	
5.245	0.569	-0.072	
5.250	-0.169	-0.038	
5.255	-0.465	-0.025	
5.260	0.348	-0.049	
5.265	0.059	-0.038	
5.270	-0.592	-0.032	
5.275	-0.169	-0.082	
5.280	0.216	-0.125	
5.285	-0.557	-0.136	
5.290	-0.465	-0.180	
5.295	0.300	-0.222	
5.300	-0.311	-0.211	
5.305	-0.576	-0.207	
5.310	0.058	-0.232	
5.315	-0.201	-0.232	
5.320	-0.701	-0.238	
5.325	-0.089	-0.275	
5.330	0.767	-0.247	
5.335	-0.192	-0.130	
5.340	-0.134	-0.037	
5.345	0.721	0.027	
5.350	-0.139	0.108	
5.355	-0.491	0.126	
5.360	0.215	0.069	
5.365	-0.070	0.023	
5.370	-0.653	-0.031	
5.375	-0.227	-0.126	
5.380	0.113	-0.195	
5.385	-0.656	-0.223	
5.390	-0.593	-0.279	
5.395	0.155	-0.332	
5.400	-0.337	-0.326	
5.405	-0.555	-0.312	
5.410	0.340	-0.299	
5.415	0.194	-0.223	
5.420	-0.399	-0.129	
5.425	0.294	-0.073	
5.430	0.963	0.021	
5.435	-0.029	0.164	
5.440	0.273	0.259	
5.445	1.287	0.341	
5.450	0.474	0.471	
5.455	-0.066	0.549	
5.460	0.948	0.545	
5.465	0.655	0.557	
5.470	-0.159	0.557	
5.475	0.753	0.505	
5.480	1.277	0.507	
5.485	0.280	0.580	
5.490	0.534	0.618	
5.495	1.495	0.654	
5.500	0.683	0.745	
5.505	-0.003	0.784	
5.510	0.910	0.732	
5.515	0.636	0.684	
5.520	-0.230	0.625	
5.525	0.190	0.497	
5.530	0.401	0.368	
5.535	-0.454	0.261	
5.540	-0.349	0.121	
5.545	0.410	-0.004	
5.550	-0.194	-0.053	
5.555	-0.473	-0.087	
5.560	0.251	-0.129	
5.565	0.148	-0.118	
5.570	-0.421	-0.085	
5.575	0.041	-0.083	
5.580	0.508	-0.059	
5.585	-0.352	-0.004	
5.590	-0.331	-0.000	
5.595	0.314	-0.031	
5.600	-0.206	-0.036	
5.605	-0.424	-0.056	
5.610	0.300	-0.090	
5.615	0.053	-0.080	
5.620	-0.540	-0.066	
5.625	-0.137	-0.101	
5.630	0.181	-0.128	
5.635	-0.523	-0.132	
5.640	-0.517	-0.173	
5.645	-0.055	-0.236	
5.650	-0.492	-0.275	
5.655	-0.756	-0.326	
5.660	-0.191	-0.392	
5.665	-0.305	-0.419	
5.670	-0.758	-0.427	
5.675	-0.355	-0.452	
5.680	-0.079	-0.453	
5.685	-0.674	-0.424	
5.690	-0.624	-0.426	
5.695	-0.073	-0.441	
5.700	-0.332	-0.418	
5.705	-0.366	-0.380	
5.710	0.707	-0.308	
5.715	0.404	-0.148	
5.720	-0.491	0.004	
5.725	-0.230	0.042	
5.730	-0.002	0.008	
5.735	-0.602	-0.048	
5.740	-0.532	-0.147	
5.745	0.027	-0.244	
5.750	-0.364	-0.286	
5.755	-0.628	-0.315	
5.760	-0.092	-0.350	
5.765	-0.125	-0.346	
5.770	-0.570	-0.322	
5.775	-0.165	-0.317	
5.780	0.355	-0.281	
5.785	-0.364	-0.203	
5.790	-0.306	-0.159	
5.795	0.462	-0.131	
5.800	-0.159	-0.073	
5.805	-0.442	-0.044	
5.810	0.319	-0.055	
5.815	0.293	-0.028	
5.820	-0.407	0.013	
5.825	0.084	0.011	
5.830	0.646	0.027	
5.835	-0.197	0.084	
5.840	-0.140	0.102	
5.845	0.771	0.105	
5.850	-0.029	0.151	
5.855	-0.366	0.162	
5.860	0.585	0.129	
5.865	0.538	0.151	
5.870	-0.279	0.198	
5.875	0.287	0.197	
5.880	0.727	0.207	
5.885	-0.291	0.241	
5.890	-0.249	0.208	
5.895	0.604	0.145	
5.900	-0.093	0.127	
5.905	-0.392	0.096	
5.910	0.320	0.038	
5.915	0.125	0.019	
5.920	-0.480	0.010	
5.925	-0.162	-0.042	
5.930	0.351	-0.081	
5.935	-0.427	-0.080	
5.940	-0.363	-0.104	
5.945	0.505	-0.127	
5.950	-0.102	-0.090	
5.955	-0.412	-0.060	
5.960	0.308	-0.063	
5.965	0.130	-0.037	
5.970	-0.477	-0.014	
5.975	0.097	-0.033	
5.980	0.643	-0.020	
5.985	-0.264	0.042	
5.990	-0.226	0.060	
5.995	0.555	0.050	
6.000	-0.124	0.071	
6.005	-0.409	0.064	
6.010	0.329	0.020	
6.015	0.180	0.015	
6.020	-0.465	0.020	
6.025	-0.128	-0.022	
6.030	0.238	-0.061	
6.035	-0.460	-0.074	
6.040	-0.403	-0.117	
6.045	0.291	-0.161	
6.050	-0.241	-0.156	
6.055	-0.499	-0.157	
6.060	0.107	-0.180	
6.065	0.014	-0.171	
6.070	-0.415	-0.148	
6.075	0.323	-0.132	
6.080	1.096	-0.039	
6.085	0.139	0.137	
6.090	0.119	0.267	
6.095	0.878	0.339	
6.100	0.052	0.401	
6.105	-0.317	0.388	
6.110	0.437	0.304	
6.115	0.322	0.246	
6.120	-0.403	0.204	
6.125	-0.052	0.121	
6.130	0.565	0.061	
6.135	-0.290	0.056	
6.140	-0.302	0.029	
6.145	0.373	-0.014	
6.150	-0.198	-0.021	
6.155	-0.444	-0.042	
6.160	0.287	-0.082	
6.165	0.241	-0.069	
6.170	-0.399	-0.033	
6.175	-0.043	-0.037	
6.180	0.482	-0.032	
6.185	-0.261	0.007	
6.190	-0.206	0.013	
6.195	0.642	0.012	
6.200	-0.003	0.059	
6.205	-0.299	0.087	
6.210	0.534	0.081	
6.215	0.495	0.122	
6.220	-0.236	0.179	
6.225	0.314	0.189	
6.230	0.773	0.213	
6.235	-0.127	0.266	
6.240	-0.053	0.264	
6.245	0.881	0.244	
6.250	0.203	0.278	
6.255	-0.253	0.291	
6.260	0.534	0.254	
6.265	0.453	0.247	
6.270	-0.267	0.253	
6.275	0.203	0.214	
6.280	0.646	0.192	
6.285	-0.200	0.205	
6.290	-0.131	0.179	
6.295	0.750	0.147	
6.300	0.090	0.171	
6.305	-0.226	0.184	
6.310	0.712	0.172	
6.315	0.683	0.222	
6.320	-0.114	0.296	
6.325	0.596	0.326	
6.330	1.166	0.384	
6.335	0.309	0.491	
6.340	0.436	0.556	
6.345	1.387	0.603	
6.350	0.748	0.698	
6.355	0.207	0.758	
6.360	1.210	0.758	
6.365	1.056	0.787	
6.370	0.064	0.813	
6.375	0.744	0.765	
6.380	1.119	0.723	
6.385	0.015	0.707	
6.390	-0.017	0.621	
6.395	0.819	0.501	
6.400	0.090	0.429	
6.405	-0.281	0.347	
6.410	0.521	0.245	
6.415	0.375	0.202	
6.420	-0.319	0.188	
6.425	0.204	0.143	
6.430	0.747	0.134	
6.435	-0.201	0.173	
6.440	-0.159	0.169	
6.445	0.875	0.153	
6.450	0.492	0.212	
6.455	0.146	0.295	
6.460	1.154	0.371	
6.465	0.832	0.491	
6.470	-0.265	0.578	
6.475	-0.003	0.527	
6.480	0.352	0.409	
6.485	-0.413	0.289	
6.490	-0.395	0.136	
6.495	0.227	-0.009	
6.500	-0.250	-0.088	
6.505	-0.521	-0.147	
6.510	0.070	-0.205	
6.515	0.014	-0.213	
6.520	-0.515	-0.197	
6.525	-0.166	-0.207	
6.530	0.287	-0.200	
6.535	-0.421	-0.160	
6.540	-0.396	-0.155	
6.545	0.279	-0.167	
6.550	-0.244	-0.146	
6.555	-0.538	-0.143	
6.560	0.014	-0.175	
6.565	-0.063	-0.186	
6.570	-0.550	-0.187	
6.575	-0.197	-0.216	
6.580	0.294	-0.220	
6.585	-0.370	-0.181	
6.590	-0.303	-0.163	
6.595	0.553	-0.143	
6.600	-0.064	-0.073	
6.605	-0.352	-0.022	
6.610	0.469	-0.006	
6.615	0.386	0.047	
6.620	-0.355	0.106	
6.625	0.053	0.103	
6.630	0.553	0.096	
6.635	-0.337	0.113	
6.640	-0.360	0.078	
6.645	0.343	0.014	
6.650	-0.213	-0.015	
6.655	-0.541	-0.055	
6.660	-0.003	-0.125	
6.665	-0.082	-0.165	
6.670	-0.614	-0.191	
6.675	-0.271	-0.241	
6.680	0.131	-0.269	
6.685	-0.502	-0.256	
6.690	-0.473	-0.265	
6.695	0.177	-0.279	
6.700	-0.265	-0.252	
6.705	-0.575	-0.235	
6.710	-0.037	-0.250	
6.715	-0.104	-0.246	
6.720	-0.617	-0.239	
6.725	-0.277	-0.265	
6.730	0.099	-0.279	
6.735	-0.518	-0.262	
6.740	-0.497	-0.271	
6.745	0.163	-0.288	
6.750	-0.302	-0.265	
6.755	-0.601	-0.253	
6.760	-0.078	-0.273	
6.765	-0.131	-0.274	
6.770	-0.665	-0.270	
6.775	-0.339	-0.301	
6.780	-0.037	-0.325	
6.785	-0.614	-0.323	
6.790	-0.608	-0.350	
6.795	-0.052	-0.385	
6.800	-0.404	-0.383	
6.805	-0.701	-0.383	
6.810	-0.213	-0.406	
6.815	-0.268	-0.406	
6.820	-0.720	-0.400	
6.825	-0.227	-0.412	
6.830	0.587	-0.369	
6.835	-0.166	-0.244	
6.840	-0.207	-0.135	
6.845	0.436	-0.063	
6.850	-0.300	0.000	
6.855	-0.688	-0.008	
6.860	-0.200	-0.097	
6.865	-0.226	-0.183	
6.870	-0.721	-0.255	
6.875	-0.393	-0.339	
6.880	-0.066	-0.390	
6.885	-0.596	-0.395	
6.890	-0.572	-0.409	
6.895	0.015	-0.420	
6.900	-0.358	-0.389	
6.905	-0.657	-0.365	
6.910	-0.098	-0.367	
6.915	-0.066	-0.343	
6.920	-0.582	-0.305	
6.925	-0.226	-0.298	
6.930	0.320	-0.272	
6.935	-0.395	-0.208	
6.940	-0.367	-0.177	
6.945	0.437	-0.161	
6.950	-0.131	-0.106	
6.955	-0.428	-0.071	
6.960	0.389	-0.068	
6.965	0.469	-0.017	
6.970	-0.332	0.058	
6.975	0.136	0.081	
6.980	0.782	0.111	
6.985	-0.204	0.174	
6.990	-0.229	0.179	
6.995	0.692	0.151	
7.000	-0.006	0.162	
7.005	-0.392	0.150	
7.010	0.338	0.096	
7.015	0.244	0.076	
7.020	-0.496	0.068	
7.025	-0.195	0.007	
7.030	0.285	-0.051	
7.035	-0.448	-0.074	
7.040	-0.467	-0.121	
7.045	0.224	-0.176	
7.050	-0.265	-0.183	
7.055	-0.576	-0.194	
7.060	0.032	-0.227	
7.065	0.040	-0.223	
7.070	-0.585	-0.202	
7.075	-0.253	-0.218	
7.080	0.233	-0.226	
7.085	-0.448	-0.198	
7.090	-0.442	-0.199	
7.095	0.285	-0.211	
7.100	-0.239	-0.183	
7.105	-0.550	-0.170	
7.110	0.107	-0.189	
7.115	0.120	-0.174	
7.120	-0.524	-0.142	
7.125	-0.169	-0.151	
7.130	0.355	-0.151	
7.135	-0.435	-0.118	
7.140	-0.454	-0.125	
7.145	0.207	-0.158	
7.150	-0.284	-0.159	
7.155	-0.602	-0.175	
7.160	-0.008	-0.220	
7.165	0.011	-0.229	
7.170	-0.560	-0.217	
7.175	-0.220	-0.232	
7.180	0.334	-0.227	
7.185	-0.441	-0.183	
7.190	-0.457	-0.173	
7.195	0.346	-0.183	
7.200	-0.026	-0.145	
7.205	-0.261	-0.098	
7.210	0.815	-0.044	
7.215	0.733	0.087	
7.220	-0.343	0.225	
7.225	-0.055	0.251	
7.230	0.447	0.217	
7.235	-0.398	0.181	
7.240	-0.409	0.095	
7.245	0.386	-0.004	
7.250	-0.157	-0.042	
7.255	-0.479	-0.072	
7.260	0.268	-0.112	
7.265	0.291	-0.095	
7.270	-0.447	-0.051	
7.275	-0.108	-0.052	
7.280	0.503	-0.051	
7.285	-0.332	-0.015	
7.290	-0.332	-0.017	
7.295	0.587	-0.034	
7.300	-0.011	0.002	
7.305	-0.396	0.028	
7.310	0.424	0.017	
7.315	0.450	0.051	
7.320	-0.377	0.101	
7.325	0.043	0.096	
7.330	0.721	0.095	
7.335	-0.215	0.136	
7.340	-0.230	0.133	
7.345	0.779	0.112	
7.350	0.192	0.152	
7.355	-0.287	0.183	
7.360	0.642	0.177	
7.365	0.619	0.216	
7.370	-0.303	0.268	
7.375	0.152	0.252	
7.380	0.756	0.232	
7.385	-0.238	0.245	
7.390	-0.297	0.206	
7.395	0.561	0.136	
7.400	-0.060	0.112	
7.405	-0.435	0.080	
7.410	0.303	0.020	
7.415	0.300	0.009	
7.420	-0.453	0.023	
7.425	-0.101	-0.007	
7.430	0.546	-0.026	
7.435	-0.329	0.000	
7.440	-0.349	-0.008	
7.445	0.559	-0.032	
7.450	-0.073	-0.006	
7.455	-0.459	0.006	
7.460	0.279	-0.022	
7.465	0.334	-0.012	
7.470	-0.415	0.020	
7.475	-0.052	0.006	
7.480	0.593	0.002	
7.485	-0.302	0.038	
7.490	-0.320	0.033	
7.495	0.590	0.009	
7.500	-0.017	0.034	
7.505	-0.422	0.046	
7.510	0.303	0.018	
7.515	0.312	0.024	
7.520	-0.450	0.044	
7.525	-0.099	0.014	
7.530	0.565	-0.007	
7.535	-0.325	0.017	
7.540	-0.348	0.005	
7.545	0.508	-0.025	
7.550	-0.108	-0.009	
7.555	-0.467	-0.008	
7.560	0.215	-0.044	
7.565	0.206	-0.046	
7.570	-0.471	-0.031	
7.575	0.035	-0.050	
7.580	1.020	-0.022	
7.585	0.210	0.101	
7.590	0.123	0.215	
7.595	1.030	0.300	
7.600	0.198	0.397	
7.605	-0.392	0.419	
7.610	0.312	0.340	
7.615	0.337	0.264	
7.620	-0.432	0.204	
7.625	-0.101	0.108	
7.630	0.556	0.037	
7.635	-0.297	0.028	
7.640	-0.319	0.002	
7.645	0.584	-0.027	
7.650	-0.018	0.002	
7.655	-0.415	0.022	
7.660	0.392	0.007	
7.665	0.447	0.035	
7.670	-0.375	0.085	
7.675	0.032	0.081	
7.680	0.764	0.085	
7.685	-0.189	0.135	
7.690	-0.209	0.142	
7.695	0.846	0.131	
7.700	0.251	0.181	
7.705	-0.290	0.221	
7.710	0.646	0.215	
7.715	0.747	0.253	
7.720	-0.220	0.313	
7.725	0.329	0.315	
7.730	1.053	0.326	
7.735	0.021	0.385	
7.740	-0.018	0.393	
7.745	1.108	0.374	
7.750	0.491	0.420	
7.755	-0.194	0.453	
7.760	0.751	0.425	
7.765	0.785	0.429	
7.770	-0.270	0.447	
7.775	0.128	0.390	
7.780	0.774	0.325	
7.785	-0.186	0.302	
7.790	-0.255	0.242	
7.795	0.662	0.166	
7.800	0.056	0.150	
7.805	-0.389	0.132	
7.810	0.419	0.085	
7.815	0.546	0.092	
7.820	-0.331	0.133	
7.825	0.059	0.126	
7.830	0.835	0.128	
7.835	-0.143	0.179	
7.840	-0.200	0.187	
7.845	0.812	0.169	
7.850	0.242	0.205	
7.855	-0.297	0.232	
7.860	0.601	0.213	
7.865	0.700	0.239	
7.870	-0.246	0.288	
7.875	0.204	0.279	
7.880	0.939	0.273	
7.885	-0.079	0.312	
7.890	-0.180	0.302	
7.895	0.762	0.256	
7.900	0.110	0.253	
7.905	-0.352	0.234	
7.910	0.428	0.174	
7.915	0.453	0.156	
7.920	-0.366	0.163	
7.925	0.027	0.125	
7.930	0.741	0.103	
7.935	-0.168	0.135	
7.940	-0.252	0.133	
7.945	0.639	0.106	
7.950	0.168	0.128	
7.955	-0.204	0.151	
7.960	1.078	0.173	
7.965	1.364	0.305	
7.970	0.242	0.500	
7.975	0.623	0.618	
7.980	1.075	0.680	
7.985	-0.114	0.708	
7.990	-0.223	0.620	
7.995	0.750	0.471	
8.000	0.134	0.376	
8.005	-0.389	0.289	
8.010	0.341	0.179	
8.015	0.404	0.124	
8.020	-0.398	0.109	
8.025	-0.060	0.060	
8.030	0.654	0.032	
8.035	-0.232	0.059	
8.040	-0.279	0.057	
8.045	0.709	0.042	
8.050	0.140	0.086	
8.055	-0.342	0.121	
8.060	0.514	0.115	
8.065	0.643	0.152	
8.070	-0.271	0.213	
8.075	0.157	0.215	
8.080	0.959	0.223	
8.085	-0.021	0.280	
8.090	-0.081	0.295	
8.095	1.059	0.289	
8.100	0.575	0.353	
8.105	-0.101	0.416	
8.110	0.922	0.430	
8.115	1.021	0.486	
8.120	-0.049	0.558	
8.125	0.483	0.555	
8.130	1.155	0.547	
8.135	0.049	0.573	
8.140	-0.102	0.533	
8.145	0.907	0.450	
8.150	0.280	0.418	
8.155	-0.322	0.378	
8.160	0.430	0.292	
8.165	0.456	0.241	
8.170	-0.407	0.215	
8.175	-0.105	0.141	
8.180	0.552	0.076	
8.185	-0.291	0.062	
8.190	-0.352	0.026	
8.195	0.505	-0.019	
8.200	-0.023	-0.008	
8.205	-0.416	0.000	
8.210	0.317	-0.020	
8.215	0.444	0.004	
8.220	-0.393	0.052	
8.225	-0.082	0.047	
8.230	0.565	0.036	
8.235	-0.265	0.060	
8.240	-0.320	0.048	
8.245	0.614	0.019	
8.250	0.061	0.047	
8.255	-0.415	0.066	
8.260	0.328	0.043	
8.265	0.405	0.054	
8.270	-0.416	0.082	
8.275	-0.146	0.055	
8.280	0.483	0.021	
8.285	-0.328	0.023	
8.290	-0.416	-0.008	
8.295	0.376	-0.057	
8.300	-0.140	-0.062	
8.305	-0.535	-0.073	
8.310	0.082	-0.117	
8.315	0.227	-0.124	
8.320	-0.526	-0.104	
8.325	-0.293	-0.126	
8.330	0.309	-0.151	
8.335	-0.277	-0.133	
8.340	-0.174	-0.119	
8.345	1.058	-0.070	
8.350	0.413	0.075	
8.355	-0.377	0.203	
8.360	0.055	0.215	
8.365	0.093	0.173	
8.370	-0.560	0.106	
8.375	-0.258	-0.006	
8.380	0.355	-0.093	
8.385	-0.370	-0.115	
8.390	-0.441	-0.143	
8.395	0.363	-0.171	
8.400	-0.128	-0.146	
8.405	-0.524	-0.126	
8.410	0.096	-0.143	
8.415	0.262	-0.128	
8.420	-0.468	-0.090	
8.425	-0.178	-0.094	
8.430	0.501	-0.094	
8.435	-0.291	-0.052	
8.440	-0.349	-0.041	
8.445	0.537	-0.049	
8.450	0.035	-0.009	
8.455	-0.396	0.022	
8.460	0.317	0.013	
8.465	0.466	0.038	
8.470	-0.342	0.086	
8.475	0.044	0.085	
8.480	0.855	0.097	
8.485	-0.108	0.161	
8.490	-0.250	0.181	
8.495	0.800	0.166	
8.500	0.332	0.205	
8.505	-0.271	0.242	
8.510	0.544	0.231	
8.515	0.607	0.248	
8.520	-0.342	0.277	
8.525	-0.047	0.234	
8.530	0.610	0.177	
8.535	-0.273	0.159	
8.540	-0.361	0.106	
8.545	0.463	0.036	
8.550	-0.078	0.018	
8.555	-0.485	-0.003	
8.560	0.155	-0.054	
8.565	0.256	-0.065	
8.570	-0.489	-0.050	
8.575	-0.203	-0.076	
8.580	0.488	-0.094	
8.585	-0.305	-0.064	
8.590	-0.390	-0.061	
8.595	0.437	-0.078	
8.600	-0.038	-0.051	
8.605	-0.467	-0.034	
8.610	0.223	-0.053	
8.615	0.338	-0.039	
8.620	-0.464	-0.004	
8.625	-0.165	-0.021	
8.630	0.576	-0.036	
8.635	-0.267	-0.003	
8.640	-0.351	-0.001	
8.645	0.520	-0.020	
8.650	-0.069	0.003	
8.655	-0.521	0.007	
8.660	0.070	-0.040	
8.665	0.233	-0.063	
8.670	-0.502	-0.061	
8.675	-0.247	-0.096	
8.680	0.341	-0.125	
8.685	-0.370	-0.114	
8.690	-0.442	-0.126	
8.695	0.344	-0.151	
8.700	-0.188	-0.132	
8.705	-0.601	-0.128	
8.710	0.123	-0.161	
8.715	0.570	-0.137	
8.720	-0.210	-0.052	
8.725	0.274	0.019	
8.730	0.896	0.108	
8.735	-0.241	0.216	
8.740	-0.418	0.229	
8.745	0.323	0.158	
8.750	-0.151	0.098	
8.755	-0.552	0.026	
8.760	0.059	-0.070	
8.765	0.259	-0.112	
8.770	-0.477	-0.107	
8.775	-0.203	-0.127	
8.780	0.482	-0.131	
8.785	-0.308	-0.089	
8.790	-0.415	-0.076	
8.795	0.410	-0.090	
8.800	-0.066	-0.064	
8.805	-0.492	-0.050	
8.810	0.163	-0.074	
8.815	0.328	-0.065	
8.820	-0.451	-0.032	
8.825	-0.162	-0.043	
8.830	0.610	-0.049	
8.835	-0.221	-0.004	
8.840	-0.290	0.013	
8.845	0.741	0.017	
8.850	0.250	0.082	
8.855	-0.354	0.139	
8.860	0.479	0.143	
8.865	0.691	0.178	
8.870	-0.282	0.235	
8.875	0.067	0.229	
8.880	0.773	0.212	
8.885	-0.235	0.229	
8.890	-0.337	0.193	
8.895	0.628	0.127	
8.900	0.102	0.118	
8.905	-0.432	0.110	
8.910	0.245	0.062	
8.915	0.407	0.049	
8.920	-0.438	0.062	
8.925	-0.175	0.027	
8.930	0.521	-0.007	
8.935	-0.305	0.003	
8.940	-0.406	-0.015	
8.945	0.431	-0.053	
8.950	-0.069	-0.044	
8.955	-0.496	-0.041	
8.960	0.166	-0.073	
8.965	0.367	-0.066	
8.970	-0.436	-0.029	
8.975	-0.156	-0.036	
8.980	0.611	-0.039	
8.985	-0.241	0.005	
8.990	-0.322	0.017	
8.995	0.633	0.008	
9.000	0.085	0.049	
9.005	-0.435	0.078	
9.010	0.204	0.051	
9.015	0.380	0.044	
9.020	-0.439	0.057	
9.025	-0.194	0.021	
9.030	0.457	-0.018	
9.035	-0.342	-0.016	
9.040	-0.468	-0.044	
9.045	0.326	-0.094	
9.050	-0.111	-0.098	
9.055	-0.532	-0.101	
9.060	0.097	-0.134	
9.065	0.302	-0.127	
9.070	-0.465	-0.089	
9.075	-0.232	-0.094	
9.080	0.344	-0.106	
9.085	-0.375	-0.088	
9.090	-0.372	-0.099	
9.095	0.823	-0.100	
9.100	0.534	0.001	
9.105	-0.203	0.129	
9.110	0.535	0.198	
9.115	0.479	0.258	
9.120	-0.479	0.287	
9.125	-0.273	0.213	
9.130	0.387	0.108	
9.135	-0.369	0.043	
9.140	-0.489	-0.036	
9.145	0.294	-0.117	
9.150	-0.124	-0.136	
9.155	-0.537	-0.143	
9.160	0.094	-0.171	
9.165	0.363	-0.152	
9.170	-0.447	-0.098	
9.175	-0.195	-0.087	
9.180	0.521	-0.080	
9.185	-0.294	-0.036	
9.190	-0.392	-0.029	
9.195	0.518	-0.046	
9.200	0.058	-0.014	
9.205	-0.444	0.014	
9.210	0.300	0.000	
9.215	0.572	0.027	
9.220	-0.328	0.087	
9.225	0.004	0.096	
9.230	0.875	0.109	
9.235	-0.075	0.173	
9.240	-0.204	0.196	
9.245	0.889	0.190	
9.250	0.430	0.245	
9.255	-0.270	0.294	
9.260	0.578	0.286	
9.265	0.753	0.305	
9.270	-0.288	0.341	
9.275	-0.018	0.303	
9.280	0.776	0.249	
9.285	-0.206	0.238	
9.290	-0.340	0.190	
9.295	0.514	0.114	
9.300	-0.005	0.087	
9.305	-0.497	0.058	
9.310	0.128	-0.007	
9.315	0.355	-0.033	
9.320	-0.453	-0.021	
9.325	-0.212	-0.047	
9.330	0.527	-0.067	
9.335	-0.284	-0.039	
9.340	-0.377	-0.037	
9.345	0.555	-0.051	
9.350	0.093	-0.011	
9.355	-0.419	0.026	
9.360	0.340	0.020	
9.365	0.579	0.053	
9.370	-0.345	0.112	
9.375	-0.064	0.113	
9.380	0.750	0.105	
9.385	-0.149	0.141	
9.390	-0.297	0.140	
9.395	0.649	0.109	
9.400	0.052	0.122	
9.405	-0.467	0.120	
9.410	0.242	0.067	
9.415	0.459	0.050	
9.420	-0.412	0.068	
9.425	-0.192	0.038	
9.430	0.517	0.003	
9.435	-0.294	0.011	
9.440	-0.419	-0.010	
9.445	0.431	-0.051	
9.450	-0.041	-0.043	
9.455	-0.515	-0.039	
9.460	-0.014	-0.080	
9.465	0.180	-0.102	
9.470	-0.453	-0.099	
9.475	0.014	-0.112	
9.480	1.174	-0.063	
9.485	0.216	0.091	
9.490	-0.153	0.217	
9.495	0.663	0.266	
9.500	0.004	0.295	
9.505	-0.526	0.262	
9.510	0.044	0.151	
9.515	0.265	0.060	
9.520	-0.499	0.008	
9.525	-0.274	-0.065	
9.530	0.378	-0.120	
9.535	-0.369	-0.120	
9.540	-0.470	-0.136	
9.545	0.381	-0.161	
9.550	-0.032	-0.132	
9.555	-0.489	-0.101	
9.560	0.187	-0.106	
9.565	0.462	-0.072	
9.570	-0.389	-0.009	
9.575	-0.136	0.003	
9.580	0.681	0.009	
9.585	-0.183	0.059	
9.590	-0.302	0.073	
9.595	0.742	0.064	
9.600	0.338	0.118	
9.605	-0.288	0.175	
9.610	0.611	0.188	
9.615	0.902	0.245	
9.620	-0.146	0.332	
9.625	0.285	0.355	
9.630	1.183	0.375	
9.635	0.172	0.446	
9.640	-0.098	0.464	
9.645	1.008	0.433	
9.650	0.534	0.451	
9.655	-0.249	0.461	
9.660	0.540	0.407	
9.665	0.715	0.377	
9.670	-0.313	0.369	
9.675	-0.070	0.298	
9.680	0.729	0.221	
9.685	-0.186	0.197	
9.690	-0.351	0.150	
9.695	0.575	0.084	
9.700	0.117	0.079	
9.705	-0.427	0.079	
9.710	0.271	0.043	
9.715	0.526	0.047	
9.720	-0.378	0.084	
9.725	-0.142	0.069	
9.730	0.677	0.050	
9.735	-0.197	0.078	
9.740	-0.351	0.075	
9.745	0.587	0.045	
9.750	0.142	0.066	
9.755	-0.413	0.086	
9.760	0.288	0.061	
9.765	0.549	0.071	
9.770	-0.360	0.110	
9.775	-0.133	0.094	
9.780	0.640	0.070	
9.785	-0.242	0.087	
9.790	-0.425	0.067	
9.795	0.366	0.011	
9.800	-0.098	-0.009	
9.805	-0.573	-0.036	
9.810	-0.053	-0.102	
9.815	0.180	-0.139	
9.820	-0.532	-0.142	
9.825	-0.293	-0.171	
9.830	0.366	-0.189	
9.835	-0.364	-0.159	
9.840	-0.544	-0.157	
9.845	0.160	-0.187	
9.850	-0.128	-0.183	
9.855	-0.456	-0.173	
9.860	0.540	-0.159	
9.865	1.026	-0.047	
9.870	-0.182	0.128	
9.875	-0.090	0.217	
9.880	0.472	0.226	
9.885	-0.378	0.210	
9.890	-0.541	0.126	
9.895	0.186	0.002	
9.900	-0.178	-0.075	
9.905	-0.621	-0.136	
9.910	-0.095	-0.210	
9.915	0.149	-0.239	
9.920	-0.543	-0.224	
9.925	-0.308	-0.233	
9.930	0.367	-0.231	
9.935	-0.343	-0.183	
9.940	-0.470	-0.163	
9.945	0.354	-0.165	
9.950	-0.026	-0.126	
9.955	-0.496	-0.093	
9.960	0.146	-0.099	
9.965	0.444	-0.073	
9.970	-0.392	-0.017	
9.975	-0.134	-0.008	
9.980	0.716	0.000	
9.985	-0.160	0.057	
9.990	-0.303	0.078	
9.995	0.785	0.075	
10.000	0.418	0.138	
10.005	-0.265	0.205	
10.010	0.593	0.223	
10.015	0.861	0.273	
10.020	-0.215	0.344	
10.025	0.059	0.338	
10.030	0.904	0.310	
10.035	-0.111	0.320	
10.040	-0.300	0.283	
10.045	0.646	0.210	
10.050	0.151	0.188	
10.055	-0.453	0.165	
10.060	0.155	0.096	
10.065	0.393	0.056	
10.070	-0.445	0.049	
10.075	-0.220	0.003	
10.080	0.486	-0.038	
10.085	-0.299	-0.031	
10.090	-0.460	-0.048	
10.095	0.352	-0.087	
10.100	-0.046	-0.081	
10.105	-0.505	-0.075	
10.110	0.131	-0.100	
10.115	0.444	-0.085	
10.120	-0.406	-0.034	
10.125	-0.191	-0.028	
10.130	0.582	-0.029	
10.135	-0.244	0.009	
10.140	-0.384	0.013	
10.145	0.501	-0.011	
10.150	0.091	0.012	
10.155	-0.454	0.032	
10.160	0.148	0.005	
10.165	0.369	0.000	
10.170	-0.477	0.017	
10.175	-0.285	-0.018	
10.180	0.404	-0.062	
10.185	-0.343	-0.064	
10.190	-0.497	-0.089	
10.195	0.288	-0.133	
10.200	-0.102	-0.131	
10.205	-0.564	-0.128	
10.210	-0.018	-0.161	
10.215	0.312	-0.161	
10.220	-0.485	-0.125	
10.225	-0.297	-0.129	
10.230	0.413	-0.137	
10.235	-0.238	-0.103	
10.240	-0.276	-0.083	
10.245	0.931	-0.051	
10.250	0.512	0.071	
10.255	-0.328	0.193	
10.260	0.223	0.221	
10.265	0.348	0.215	
10.270	-0.488	0.193	
10.275	-0.294	0.103	
10.280	0.422	0.010	
10.285	-0.291	-0.026	
10.290	-0.438	-0.066	
10.295	0.424	-0.108	
10.300	0.017	-0.089	
10.305	-0.476	-0.064	
10.310	0.178	-0.075	
10.315	0.479	-0.050	
10.320	-0.398	0.006	
10.325	-0.188	0.009	
10.330	0.623	0.002	
10.335	-0.197	0.038	
10.340	-0.351	0.043	
10.345	0.642	0.026	
10.350	0.290	0.069	
10.355	-0.351	0.118	
10.360	0.372	0.118	
10.365	0.678	0.146	
10.370	-0.276	0.200	
10.375	0.015	0.196	
10.380	0.934	0.190	
10.385	0.011	0.239	
10.390	-0.198	0.254	
10.395	0.863	0.237	
10.400	0.485	0.277	
10.405	-0.253	0.319	
10.410	0.546	0.305	
10.415	0.797	0.317	
10.420	-0.287	0.350	
10.425	-0.120	0.306	
10.430	0.721	0.237	
10.435	-0.204	0.211	
10.440	-0.401	0.155	
10.445	0.482	0.075	
10.450	0.094	0.052	
10.455	-0.488	0.039	
10.460	0.072	-0.011	
10.465	0.334	-0.035	
10.470	-0.473	-0.028	
10.475	-0.249	-0.059	
10.480	0.534	-0.083	
10.485	-0.241	-0.053	
10.490	-0.396	-0.045	
10.495	0.515	-0.056	
10.500	0.166	-0.014	
10.505	-0.413	0.029	
10.510	0.206	0.024	
10.515	0.466	0.038	
10.520	-0.398	0.073	
10.525	-0.174	0.053	
10.530	0.646	0.029	
10.535	-0.220	0.053	
10.540	-0.407	0.046	
10.545	0.483	0.009	
10.550	0.049	0.017	
10.555	-0.491	0.022	
10.560	0.068	-0.020	
10.565	0.279	-0.040	
10.570	-0.492	-0.036	
10.575	-0.291	-0.074	
10.580	0.416	-0.109	
10.585	-0.335	-0.097	
10.590	-0.468	-0.106	
10.595	0.372	-0.133	
10.600	0.037	-0.107	
10.605	-0.524	-0.078	
10.610	-0.029	-0.098	
10.615	0.308	-0.102	
10.620	-0.366	-0.075	
10.625	0.023	-0.066	
10.630	1.165	-0.011	
10.635	0.087	0.131	
10.640	-0.290	0.225	
10.645	0.558	0.233	
10.650	-0.005	0.231	
10.655	-0.552	0.188	
10.660	-0.029	0.079	
10.665	0.297	-0.003	
10.670	-0.499	-0.040	
10.675	-0.311	-0.097	
10.680	0.399	-0.141	
10.685	-0.351	-0.130	
10.690	-0.517	-0.138	
10.695	0.340	-0.165	
10.700	0.032	-0.139	
10.705	-0.492	-0.104	
10.710	0.096	-0.108	
10.715	0.495	-0.081	
10.720	-0.345	-0.018	
10.725	-0.165	-0.001	
10.730	0.628	0.006	
10.735	-0.232	0.048	
10.740	-0.396	0.049	
10.745	0.527	0.017	
10.750	0.239	0.040	
10.755	-0.390	0.072	
10.760	0.308	0.064	
10.765	0.681	0.090	
10.770	-0.285	0.150	
10.775	-0.070	0.154	
10.780	0.799	0.144	
10.785	-0.117	0.178	
10.790	-0.337	0.172	
10.795	0.553	0.127	
10.800	0.130	0.122	
10.805	-0.465	0.114	
10.810	0.157	0.059	
10.815	0.460	0.035	
10.820	-0.457	0.046	
10.825	-0.273	0.009	
10.830	0.501	-0.034	
10.835	-0.343	-0.031	
10.840	-0.524	-0.056	
10.845	0.274	-0.110	
10.850	-0.114	-0.120	
10.855	-0.614	-0.129	
10.860	-0.125	-0.178	
10.865	0.190	-0.200	
10.870	-0.511	-0.186	
10.875	-0.299	-0.196	
10.880	0.399	-0.198	
10.885	-0.357	-0.156	
10.890	-0.521	-0.145	
10.895	0.277	-0.165	
10.900	-0.047	-0.144	
10.905	-0.561	-0.125	
10.910	-0.027	-0.148	
10.915	0.256	-0.149	
10.920	-0.523	-0.123	
10.925	-0.374	-0.142	
10.930	0.273	-0.171	
10.935	-0.399	-0.164	
10.940	-0.581	-0.181	
10.945	0.122	-0.223	
10.950	-0.162	-0.225	
10.955	-0.636	-0.223	
10.960	-0.140	-0.254	
10.965	0.210	-0.255	
10.970	-0.566	-0.221	
10.975	-0.409	-0.225	
10.980	0.230	-0.239	
10.985	-0.415	-0.218	
10.990	-0.605	-0.223	
10.995	0.110	-0.255	
11.000	-0.064	-0.244	
11.005	-0.448	-0.215	
11.010	0.433	-0.185	
11.015	0.829	-0.079	
11.020	-0.294	0.071	
11.025	-0.212	0.133	
11.030	0.472	0.127	
11.035	-0.358	0.118	
11.040	-0.589	0.054	
11.045	0.056	-0.056	
11.050	-0.201	-0.131	
11.055	-0.654	-0.190	
11.060	-0.168	-0.261	
11.065	0.114	-0.288	
11.070	-0.584	-0.273	
11.075	-0.383	-0.281	
11.080	0.314	-0.281	
11.085	-0.343	-0.234	
11.090	-0.491	-0.207	
11.095	0.369	-0.200	
11.100	0.079	-0.144	
11.105	-0.456	-0.087	
11.110	0.169	-0.074	
11.115	0.477	-0.037	
11.120	-0.404	0.021	
11.125	-0.194	0.022	
11.130	0.703	0.014	
11.135	-0.154	0.056	
11.140	-0.332	0.070	
11.145	0.726	0.059	
11.150	0.421	0.114	
11.155	-0.291	0.179	
11.160	0.538	0.195	
11.165	0.899	0.245	
11.170	-0.204	0.322	
11.175	0.059	0.326	
11.180	0.974	0.309	
11.185	0.027	0.338	
11.190	-0.276	0.324	
11.195	0.706	0.266	
11.200	0.265	0.253	
11.205	-0.424	0.237	
11.210	0.210	0.169	
11.215	0.581	0.130	
11.220	-0.355	0.134	
11.225	-0.143	0.099	
11.230	0.716	0.067	
11.235	-0.154	0.091	
11.240	-0.348	0.089	
11.245	0.636	0.062	
11.250	0.332	0.095	
11.255	-0.366	0.137	
11.260	0.341	0.129	
11.265	0.709	0.149	
11.270	-0.296	0.199	
11.275	-0.067	0.189	
11.280	0.870	0.170	
11.285	-0.052	0.204	
11.290	-0.282	0.205	
11.295	0.803	0.177	
11.300	0.447	0.212	
11.305	-0.339	0.253	
11.310	0.405	0.234	
11.315	0.770	0.239	
11.320	-0.262	0.275	
11.325	-0.075	0.250	
11.330	0.773	0.208	
11.335	-0.165	0.209	
11.340	-0.380	0.174	
11.345	0.535	0.107	
11.350	0.239	0.097	
11.355	-0.410	0.102	
11.360	0.247	0.070	
11.365	0.640	0.075	
11.370	-0.340	0.118	
11.375	-0.201	0.107	
11.380	0.701	0.079	
11.385	-0.014	0.106	
11.390	-0.104	0.126	
11.395	1.316	0.163	
11.400	1.035	0.315	
11.405	-0.073	0.485	
11.410	0.605	0.548	
11.415	0.771	0.566	
11.420	-0.342	0.553	
11.425	-0.191	0.441	
11.430	0.671	0.301	
11.435	-0.171	0.222	
11.440	-0.364	0.141	
11.445	0.546	0.059	
11.450	0.219	0.051	
11.455	-0.410	0.064	
11.460	0.264	0.043	
11.465	0.646	0.060	
11.470	-0.303	0.115	
11.475	-0.107	0.118	
11.480	0.803	0.111	
11.485	-0.064	0.153	
11.490	-0.277	0.164	
11.495	0.770	0.146	
11.500	0.517	0.192	
11.505	-0.258	0.251	
11.510	0.576	0.260	
11.515	0.918	0.300	
11.520	-0.194	0.367	
11.525	0.073	0.360	
11.530	1.090	0.338	
11.535	0.209	0.378	
11.540	-0.134	0.392	
11.545	1.032	0.371	
11.550	0.716	0.414	
11.555	-0.178	0.465	
11.560	0.628	0.449	
11.565	0.951	0.452	
11.570	-0.180	0.479	
11.575	0.009	0.431	
11.580	0.890	0.362	
11.585	-0.060	0.341	
11.590	-0.277	0.290	
11.595	0.736	0.217	
11.600	0.407	0.215	
11.605	-0.360	0.230	
11.610	0.308	0.194	
11.615	0.639	0.182	
11.620	-0.322	0.201	
11.625	-0.122	0.167	
11.630	0.771	0.129	
11.635	-0.095	0.148	
11.640	-0.300	0.143	
11.645	0.739	0.116	
11.650	0.405	0.154	
11.655	-0.325	0.201	
11.660	0.422	0.196	
11.665	0.793	0.217	
11.670	-0.241	0.269	
11.675	-0.040	0.258	
11.680	0.902	0.231	
11.685	-0.031	0.256	
11.690	-0.267	0.247	
11.695	0.751	0.206	
11.700	0.376	0.222	
11.705	-0.363	0.242	
11.710	0.274	0.203	
11.715	0.636	0.185	
11.720	-0.322	0.198	
11.725	-0.148	0.161	
11.730	0.748	0.119	
11.735	-0.153	0.132	
11.740	-0.370	0.117	
11.745	0.587	0.074	
11.750	0.280	0.089	
11.755	-0.403	0.115	
11.760	0.197	0.091	
11.765	0.620	0.091	
11.770	-0.235	0.129	
11.775	0.210	0.141	
11.780	1.376	0.193	
11.785	0.434	0.340	
11.790	-0.076	0.449	
11.795	0.893	0.474	
11.800	0.358	0.495	
11.805	-0.416	0.468	
11.810	0.168	0.355	
11.815	0.553	0.255	
11.820	-0.361	0.201	
11.825	-0.217	0.120	
11.830	0.591	0.048	
11.835	-0.188	0.040	
11.840	-0.367	0.022	
11.845	0.582	-0.007	
11.850	0.226	0.027	
11.855	-0.442	0.066	
11.860	0.136	0.049	
11.865	0.552	0.049	
11.870	-0.348	0.081	
11.875	-0.159	0.068	
11.880	0.793	0.055	
11.885	-0.110	0.099	
11.890	-0.325	0.114	
11.895	0.654	0.095	
11.900	0.340	0.130	
11.905	-0.358	0.168	
11.910	0.354	0.154	
11.915	0.829	0.174	
11.920	-0.195	0.235	
11.925	0.044	0.244	
11.930	1.027	0.246	
11.935	0.075	0.302	
11.940	-0.230	0.317	
11.945	0.777	0.284	
11.950	0.441	0.297	
11.955	-0.331	0.310	
11.960	0.297	0.262	
11.965	0.617	0.231	
11.970	-0.351	0.228	
11.975	-0.244	0.169	
11.980	0.501	0.093	
11.985	-0.250	0.062	
11.990	-0.456	0.015	
11.995	0.344	-0.049	
12.000	0.015	-0.060	
12.005	-0.537	-0.062	
12.010	-0.031	-0.102	
12.015	0.370	-0.113	
12.020	-0.441	-0.085	
12.025	-0.277	-0.092	
12.030	0.508	-0.101	
12.035	-0.236	-0.064	
12.040	-0.435	-0.052	
12.045	0.437	-0.067	
12.050	0.130	-0.036	
12.055	-0.474	-0.004	
12.060	0.073	-0.022	
12.065	0.456	-0.021	
12.070	-0.387	0.011	
12.075	-0.232	-0.000	
12.080	0.561	-0.020	
12.085	-0.229	0.005	
12.090	-0.447	0.001	
12.095	0.367	-0.037	
12.100	0.037	-0.033	
12.105	-0.529	-0.029	
12.110	-0.055	-0.072	
12.115	0.343	-0.093	
12.120	-0.438	-0.077	
12.125	-0.284	-0.093	
12.130	0.422	-0.110	
12.135	-0.279	-0.086	
12.140	-0.489	-0.086	
12.145	0.268	-0.117	
12.150	-0.032	-0.109	
12.155	-0.486	-0.098	
12.160	0.306	-0.107	
12.165	0.982	-0.041	
12.170	-0.084	0.100	
12.175	0.068	0.192	
12.180	0.780	0.240	
12.185	-0.207	0.285	
12.190	-0.477	0.249	
12.195	0.283	0.145	
12.200	-0.020	0.071	
12.205	-0.549	0.007	
12.210	-0.092	-0.082	
12.215	0.261	-0.132	
12.220	-0.485	-0.135	
12.225	-0.343	-0.160	
12.230	0.398	-0.178	
12.235	-0.276	-0.146	
12.240	-0.460	-0.132	
12.245	0.358	-0.139	
12.250	0.085	-0.101	
12.255	-0.483	-0.062	
12.260	0.067	-0.069	
12.265	0.511	-0.052	
12.270	-0.361	-0.001	
12.275	-0.182	0.007	
12.280	0.759	0.011	
12.285	-0.090	0.068	
12.290	-0.316	0.096	
12.295	0.678	0.090	
12.300	0.468	0.140	
12.305	-0.281	0.200	
12.310	0.477	0.211	
12.315	0.908	0.250	
12.320	-0.151	0.322	
12.325	0.015	0.327	
12.330	0.924	0.306	
12.335	0.008	0.325	
12.340	-0.290	0.305	
12.345	0.623	0.241	
12.350	0.291	0.223	
12.355	-0.409	0.209	
12.360	0.136	0.146	
12.365	0.524	0.106	
12.370	-0.377	0.104	
12.375	-0.250	0.062	
12.380	0.561	0.015	
12.385	-0.218	0.019	
12.390	-0.445	0.003	
12.395	0.415	-0.037	
12.400	0.161	-0.025	
12.405	-0.454	-0.002	
12.410	0.117	-0.019	
12.415	0.544	-0.009	
12.420	-0.342	0.038	
12.425	-0.177	0.039	
12.430	0.719	0.034	
12.435	-0.099	0.078	
12.440	-0.342	0.094	
12.445	0.590	0.076	
12.450	0.308	0.106	
12.455	-0.396	0.138	
12.460	0.213	0.116	
12.465	0.645	0.115	
12.470	-0.319	0.148	
12.475	-0.191	0.128	
12.480	0.581	0.089	
12.485	-0.229	0.088	
12.490	-0.465	0.055	
12.495	0.376	-0.007	
12.500	0.082	-0.019	
12.505	-0.515	-0.021	
12.510	-0.024	-0.062	
12.515	0.366	-0.081	
12.520	-0.432	-0.062	
12.525	-0.288	-0.078	
12.530	0.465	-0.096	
12.535	-0.270	-0.070	
12.540	-0.456	-0.069	
12.545	0.585	-0.083	
12.550	0.558	-0.016	
12.555	-0.177	0.090	
12.560	0.605	0.163	
12.565	0.819	0.254	
12.570	-0.337	0.340	
12.575	-0.273	0.314	
12.580	0.453	0.223	
12.585	-0.264	0.154	
12.590	-0.492	0.066	
12.595	0.267	-0.035	
12.600	-0.003	-0.077	
12.605	-0.544	-0.096	
12.610	-0.058	-0.141	
12.615	0.395	-0.149	
12.620	-0.410	-0.111	
12.625	-0.291	-0.105	
12.630	0.515	-0.104	
12.635	-0.197	-0.060	
12.640	-0.409	-0.040	
12.645	0.472	-0.048	
12.650	0.229	-0.008	
12.655	-0.430	0.036	
12.660	0.158	0.030	
12.665	0.601	0.043	
12.670	-0.308	0.091	
12.675	-0.146	0.090	
12.680	0.812	0.082	
12.685	-0.032	0.130	
12.690	-0.273	0.152	
12.695	0.793	0.144	
12.700	0.565	0.201	
12.705	-0.247	0.269	
12.710	0.459	0.277	
12.715	0.878	0.301	
12.720	-0.226	0.350	
12.725	-0.116	0.323	
12.730	0.791	0.266	
12.735	-0.102	0.252	
12.740	-0.383	0.208	
12.745	0.460	0.129	
12.750	0.161	0.099	
12.755	-0.471	0.080	
12.760	0.014	0.021	
12.765	0.428	-0.013	
12.770	-0.441	-0.007	
12.775	-0.332	-0.039	
12.780	0.419	-0.080	
12.785	-0.249	-0.073	
12.790	-0.470	-0.081	
12.795	0.344	-0.109	
12.800	0.082	-0.089	
12.805	-0.491	-0.062	
12.810	0.008	-0.078	
12.815	0.434	-0.074	
12.820	-0.406	-0.036	
12.825	-0.273	-0.041	
12.830	0.537	-0.055	
12.835	-0.200	-0.024	
12.840	-0.448	-0.019	
12.845	0.384	-0.045	
12.850	0.133	-0.029	
12.855	-0.485	-0.008	
12.860	0.023	-0.034	
12.865	0.447	-0.040	
12.870	-0.432	-0.013	
12.875	-0.339	-0.033	
12.880	0.389	-0.069	
12.885	-0.285	-0.067	
12.890	-0.523	-0.087	
12.895	0.230	-0.131	
12.900	0.014	-0.131	
12.905	-0.541	-0.120	
12.910	-0.085	-0.145	
12.915	0.312	-0.150	
12.920	-0.494	-0.122	
12.925	-0.404	-0.136	
12.930	0.366	-0.161	
12.935	-0.156	-0.135	
12.940	-0.271	-0.108	
12.945	0.858	-0.067	
12.950	0.538	0.057	
12.955	-0.395	0.178	
12.960	-0.018	0.193	
12.965	0.338	0.160	
12.970	-0.485	0.122	
12.975	-0.366	0.035	
12.980	0.384	-0.053	
12.985	-0.273	-0.080	
12.990	-0.508	-0.110	
12.995	0.259	-0.151	
13.000	-0.003	-0.144	
13.005	-0.557	-0.127	
13.010	-0.093	-0.152	
13.015	0.340	-0.154	
13.020	-0.445	-0.120	
13.025	-0.325	-0.122	
13.030	0.448	-0.130	
13.035	-0.220	-0.094	
13.040	-0.432	-0.078	
13.045	0.437	-0.086	
13.050	0.181	-0.045	
13.055	-0.438	0.000	
13.060	0.117	-0.004	
13.065	0.601	0.013	
13.070	-0.311	0.065	
13.075	-0.157	0.071	
13.080	0.811	0.069	
13.085	-0.008	0.123	
13.090	-0.273	0.150	
13.095	0.722	0.144	
13.100	0.474	0.190	
13.105	-0.313	0.241	
13.110	0.267	0.226	
13.115	0.648	0.218	
13.120	-0.325	0.230	
13.125	-0.230	0.183	
13.130	0.575	0.117	
13.135	-0.206	0.095	
13.140	-0.476	0.053	
13.145	0.282	-0.018	
13.150	0.046	-0.044	
13.155	-0.528	-0.055	
13.160	-0.098	-0.102	
13.165	0.340	-0.124	
13.170	-0.457	-0.106	
13.175	-0.352	-0.120	
13.180	0.399	-0.140	
13.185	-0.236	-0.115	
13.190	-0.479	-0.106	
13.195	0.311	-0.123	
13.200	0.107	-0.097	
13.205	-0.486	-0.065	
13.210	0.033	-0.075	
13.215	0.518	-0.062	
13.220	-0.364	-0.012	
13.225	-0.262	-0.006	
13.230	0.572	-0.017	
13.235	-0.156	0.014	
13.240	-0.418	0.020	
13.245	0.418	-0.008	
13.250	0.229	0.010	
13.255	-0.441	0.037	
13.260	0.040	0.015	
13.265	0.471	0.007	
13.270	-0.395	0.028	
13.275	-0.302	0.005	
13.280	0.517	-0.030	
13.285	-0.198	-0.016	
13.290	-0.453	-0.022	
13.295	0.399	-0.054	
13.300	0.186	-0.035	
13.305	-0.453	-0.004	
13.310	0.018	-0.021	
13.315	0.431	-0.024	
13.320	-0.430	-0.001	
13.325	-0.261	-0.021	
13.330	0.889	-0.030	
13.335	0.355	0.058	
13.340	-0.044	0.162	
13.345	0.973	0.240	
13.350	0.459	0.343	
13.355	-0.441	0.398	
13.360	-0.041	0.330	
13.365	0.405	0.230	
13.370	-0.419	0.155	
13.375	-0.313	0.055	
13.380	0.500	-0.030	
13.385	-0.188	-0.043	
13.390	-0.462	-0.057	
13.395	0.349	-0.088	
13.400	0.187	-0.068	
13.405	-0.465	-0.034	
13.410	0.018	-0.044	
13.415	0.508	-0.037	
13.420	-0.361	0.004	
13.425	-0.244	0.002	
13.430	0.643	-0.008	
13.435	-0.120	0.030	
13.440	-0.374	0.045	
13.445	0.544	0.029	
13.450	0.366	0.066	
13.455	-0.378	0.113	
13.460	0.207	0.107	
13.465	0.724	0.119	
13.470	-0.233	0.169	
13.475	-0.087	0.170	
13.480	0.953	0.164	
13.485	0.155	0.222	
13.490	-0.226	0.258	
13.495	0.774	0.250	
13.500	0.573	0.287	
13.505	-0.276	0.328	
13.510	0.337	0.305	
13.515	0.756	0.290	
13.520	-0.277	0.302	
13.525	-0.233	0.250	
13.530	0.575	0.171	
13.535	-0.197	0.134	
13.540	-0.462	0.078	
13.545	0.328	-0.001	
13.550	0.161	-0.023	
13.555	-0.483	-0.022	
13.560	-0.037	-0.056	
13.565	0.436	-0.068	
13.570	-0.401	-0.041	
13.575	-0.302	-0.052	
13.580	0.514	-0.070	
13.585	-0.194	-0.041	
13.590	-0.439	-0.034	
13.595	0.424	-0.054	
13.600	0.241	-0.024	
13.605	-0.444	0.016	
13.610	0.058	0.006	
13.615	0.535	0.010	
13.620	-0.354	0.045	
13.625	-0.265	0.034	
13.630	0.619	0.010	
13.635	-0.116	0.036	
13.640	-0.392	0.042	
13.645	0.468	0.017	
13.650	0.288	0.040	
13.655	-0.445	0.072	
13.660	-0.040	0.044	
13.665	0.367	0.015	
13.670	-0.448	0.010	
13.675	-0.367	-0.036	
13.680	0.369	-0.090	
13.685	-0.259	-0.094	
13.690	-0.520	-0.110	
13.695	0.197	-0.148	
13.700	0.040	-0.144	
13.705	-0.534	-0.127	
13.710	-0.130	-0.149	
13.715	0.277	-0.156	
13.720	-0.457	-0.132	
13.725	-0.236	-0.136	
13.730	1.011	-0.109	
13.735	0.436	0.026	
13.740	-0.116	0.170	
13.745	0.777	0.254	
13.750	0.319	0.330	
13.755	-0.518	0.348	
13.760	-0.136	0.253	
13.765	0.291	0.136	
13.770	-0.476	0.053	
13.775	-0.395	-0.047	
13.780	0.392	-0.127	
13.785	-0.252	-0.137	
13.790	-0.523	-0.146	
13.795	0.229	-0.173	
13.800	0.102	-0.152	
13.805	-0.503	-0.117	
13.810	-0.043	-0.122	
13.815	0.501	-0.106	
13.820	-0.366	-0.051	
13.825	-0.287	-0.039	
13.830	0.631	-0.039	
13.835	-0.090	0.008	
13.840	-0.375	0.034	
13.845	0.553	0.027	
13.850	0.437	0.072	
13.855	-0.354	0.131	
13.860	0.212	0.133	
13.865	0.819	0.150	
13.870	-0.186	0.208	
13.875	-0.060	0.216	
13.880	0.988	0.211	
13.885	0.194	0.267	
13.890	-0.239	0.298	
13.895	0.768	0.280	
13.900	0.567	0.306	
13.905	-0.305	0.336	
13.910	0.235	0.297	
13.915	0.703	0.264	
13.920	-0.319	0.259	
13.925	-0.302	0.198	
13.930	0.534	0.114	
13.935	-0.194	0.078	
13.940	-0.497	0.029	
13.945	0.255	-0.043	
13.950	0.101	-0.065	
13.955	-0.537	-0.068	
13.960	-0.128	-0.108	
13.965	0.380	-0.126	
13.970	-0.430	-0.103	
13.975	-0.364	-0.111	
13.980	0.418	-0.129	
13.985	-0.215	-0.102	
13.990	-0.482	-0.093	
13.995	0.319	-0.111	
14.000	0.186	-0.084	
14.005	-0.492	-0.046	
14.010	-0.067	-0.058	
14.015	0.460	-0.062	
14.020	-0.381	-0.030	
14.025	-0.310	-0.037	
14.030	0.546	-0.055	
14.035	-0.149	-0.024	
14.040	-0.442	-0.014	
14.045	0.395	-0.035	
14.050	0.223	-0.013	
14.055	-0.489	0.016	
14.060	-0.119	-0.013	
14.065	0.311	-0.044	
14.070	-0.476	-0.050	
14.075	-0.430	-0.093	
14.080	0.291	-0.145	
14.085	-0.279	-0.150	
14.090	-0.555	-0.163	
14.095	0.161	-0.195	
14.100	0.075	-0.183	
14.105	-0.526	-0.153	
14.110	-0.159	-0.162	
14.115	0.245	-0.164	
14.120	-0.460	-0.141	
14.125	-0.258	-0.147	
14.130	0.982	-0.122	
14.135	0.453	0.012	
14.140	-0.149	0.156	
14.145	0.687	0.237	
14.150	0.285	0.303	
14.155	-0.512	0.313	
14.160	-0.142	0.220	
14.165	0.331	0.112	
14.170	-0.445	0.042	
14.175	-0.380	-0.044	
14.180	0.427	-0.114	
14.185	-0.213	-0.115	
14.190	-0.488	-0.117	
14.195	0.319	-0.137	
14.200	0.210	-0.104	
14.205	-0.470	-0.057	
14.210	-0.044	-0.059	
14.215	0.486	-0.052	
14.220	-0.372	-0.014	
14.225	-0.311	-0.018	
14.230	0.540	-0.038	
14.235	-0.130	-0.012	
14.240	-0.419	-0.003	
14.245	0.428	-0.023	
14.250	0.306	0.006	
14.255	-0.409	0.048	
14.260	0.113	0.042	
14.265	0.729	0.056	
14.270	-0.217	0.115	
14.275	-0.120	0.131	
14.280	0.910	0.136	
14.285	0.181	0.200	
14.290	-0.256	0.241	
14.295	0.716	0.235	
14.300	0.567	0.269	
14.305	-0.325	0.306	
14.310	0.169	0.272	
14.315	0.678	0.237	
14.320	-0.302	0.233	
14.325	-0.297	0.177	
14.330	0.491	0.098	
14.335	-0.175	0.065	
14.340	-0.477	0.021	
14.345	0.273	-0.044	
14.350	0.140	-0.058	
14.355	-0.509	-0.052	
14.360	-0.084	-0.084	
14.365	0.437	-0.096	
14.370	-0.401	-0.065	
14.375	-0.357	-0.072	
14.380	0.468	-0.092	
14.385	-0.188	-0.066	
14.390	-0.483	-0.060	
14.395	0.302	-0.085	
14.400	0.256	-0.064	
14.405	-0.444	-0.025	
14.410	-0.018	-0.031	
14.415	0.573	-0.024	
14.420	-0.326	0.021	
14.425	-0.270	0.023	
14.430	0.630	0.009	
14.435	-0.081	0.042	
14.440	-0.401	0.054	
14.445	0.444	0.029	
14.450	0.344	0.050	
14.455	-0.432	0.084	
14.460	-0.029	0.059	
14.465	0.469	0.035	
14.470	-0.374	0.042	
14.475	-0.313	0.010	
14.480	0.521	-0.029	
14.485	-0.151	-0.017	
14.490	-0.457	-0.018	
14.495	0.357	-0.048	
14.500	0.229	-0.032	
14.505	-0.480	-0.003	
14.510	-0.108	-0.026	
14.515	0.441	-0.045	
14.520	-0.325	-0.025	
14.525	-0.140	-0.027	
14.530	1.142	0.002	
14.535	0.480	0.137	
14.540	-0.171	0.267	
14.545	0.654	0.318	
14.550	0.402	0.356	
14.555	-0.447	0.355	
14.560	-0.049	0.265	
14.565	0.520	0.170	
14.570	-0.342	0.122	
14.575	-0.299	0.055	
14.580	0.590	-0.005	
14.585	-0.081	0.004	
14.590	-0.415	0.008	
14.595	0.439	-0.013	
14.600	0.393	0.018	
14.605	-0.396	0.069	
14.610	0.072	0.066	
14.615	0.658	0.071	
14.620	-0.259	0.112	
14.625	-0.213	0.109	
14.630	0.774	0.091	
14.635	0.075	0.130	
14.640	-0.299	0.155	
14.645	0.681	0.145	
14.650	0.651	0.193	
14.655	-0.241	0.261	
14.660	0.361	0.271	
14.665	0.968	0.293	
14.670	-0.073	0.352	
14.675	0.003	0.354	
14.680	1.081	0.337	
14.685	0.390	0.384	
14.690	-0.149	0.415	
14.695	0.902	0.400	
14.700	0.771	0.430	
14.705	-0.227	0.468	
14.710	0.343	0.431	
14.715	0.873	0.395	
14.720	-0.201	0.391	
14.725	-0.207	0.329	
14.730	0.672	0.241	
14.735	-0.075	0.202	
14.740	-0.425	0.150	
14.745	0.338	0.070	
14.750	0.238	0.040	
14.755	-0.459	0.034	
14.760	-0.143	-0.013	
14.765	0.317	-0.053	
14.770	-0.453	-0.062	
14.775	-0.432	-0.102	
14.780	0.300	-0.149	
14.785	-0.227	-0.148	
14.790	-0.518	-0.151	
14.795	0.233	-0.172	
14.800	0.195	-0.144	
14.805	-0.454	-0.096	
14.810	-0.053	-0.090	
14.815	0.503	-0.073	
14.820	-0.361	-0.024	
14.825	-0.335	-0.021	
14.830	0.517	-0.040	
14.835	-0.110	-0.014	
14.840	-0.418	-0.005	
14.845	0.390	-0.025	
14.850	0.354	0.003	
14.855	-0.415	0.048	
14.860	-0.052	0.036	
14.865	0.512	0.024	
14.870	-0.349	0.042	
14.875	-0.340	0.019	
14.880	0.515	-0.020	
14.885	-0.096	-0.008	
14.890	-0.419	-0.005	
14.895	0.402	-0.027	
14.900	0.334	0.000	
14.905	-0.435	0.043	
14.910	-0.082	0.027	
14.915	0.495	0.010	
14.920	-0.265	0.029	
14.925	-0.060	0.029	
14.930	1.264	0.064	
14.935	0.681	0.215	
14.940	-0.064	0.367	
14.945	0.762	0.435	
14.950	0.479	0.478	
14.955	-0.416	0.471	
14.960	-0.052	0.362	
14.965	0.561	0.243	
14.970	-0.326	0.174	
14.975	-0.302	0.090	
14.980	0.558	0.015	
14.985	-0.096	0.008	
14.990	-0.427	0.001	
14.995	0.399	-0.029	
15.000	0.372	-0.003	
15.005	-0.401	0.044	
15.010	0.029	0.040	
15.015	0.663	0.046	
15.020	-0.253	0.091	
15.025	-0.210	0.094	
15.030	0.776	0.083	
15.035	0.122	0.130	
15.040	-0.293	0.162	
15.045	0.662	0.157	
15.050	0.665	0.204	
15.055	-0.232	0.271	
15.060	0.376	0.280	
15.065	1.055	0.306	
15.070	-0.011	0.376	
15.075	0.033	0.391	
15.080	1.142	0.381	
15.085	0.456	0.434	
15.090	-0.140	0.468	
15.095	0.840	0.445	
15.100	0.817	0.461	
15.105	-0.195	0.488	
15.110	0.308	0.446	
15.115	0.881	0.403	
15.120	-0.162	0.395	
15.125	-0.192	0.335	
15.130	0.707	0.252	
15.135	-0.020	0.219	
15.140	-0.403	0.175	
15.145	0.413	0.102	
15.150	0.380	0.085	
15.155	-0.389	0.096	
15.160	0.011	0.066	
15.165	0.637	0.052	
15.170	-0.279	0.082	
15.175	-0.279	0.072	
15.180	0.619	0.044	
15.185	-0.023	0.065	
15.190	-0.383	0.072	
15.195	0.437	0.046	
15.200	0.431	0.068	
15.205	-0.355	0.109	
15.210	0.076	0.100	
15.215	0.712	0.101	
15.220	-0.227	0.141	
15.225	-0.226	0.136	
15.230	0.701	0.110	
15.235	0.067	0.134	
15.240	-0.342	0.144	
15.245	0.505	0.117	
15.250	0.441	0.133	
15.255	-0.378	0.163	
15.260	-0.018	0.132	
15.265	0.575	0.100	
15.270	-0.325	0.103	
15.275	-0.332	0.067	
15.280	0.517	0.015	
15.285	-0.092	0.014	
15.290	-0.435	0.007	
15.295	0.341	-0.026	
15.300	0.322	-0.012	
15.305	-0.435	0.023	
15.310	-0.113	0.005	
15.315	0.415	-0.016	
15.320	-0.308	-0.004	
15.325	-0.148	-0.014	
15.330	1.229	0.013	
15.335	0.745	0.164	
15.340	-0.055	0.332	
15.345	0.727	0.415	
15.350	0.482	0.467	
15.355	-0.427	0.464	
15.360	-0.107	0.355	
15.365	0.469	0.228	
15.370	-0.345	0.146	
15.375	-0.348	0.053	
15.380	0.523	-0.027	
15.385	-0.070	-0.032	
15.390	-0.444	-0.032	
15.395	0.303	-0.056	
15.400	0.343	-0.034	
15.405	-0.401	0.010	
15.410	-0.018	0.008	
15.415	0.648	0.015	
15.420	-0.242	0.064	
15.425	-0.250	0.072	
15.430	0.739	0.062	
15.435	0.105	0.108	
15.440	-0.334	0.139	
15.445	0.550	0.128	
15.450	0.587	0.161	
15.455	-0.284	0.214	
15.460	0.227	0.212	
15.465	0.937	0.223	
15.470	-0.056	0.282	
15.475	-0.046	0.295	
15.480	1.043	0.288	
15.485	0.402	0.344	
15.490	-0.188	0.385	
15.495	0.765	0.370	
15.500	0.704	0.389	
15.505	-0.274	0.414	
15.510	0.102	0.362	
15.515	0.672	0.297	
15.520	-0.277	0.265	
15.525	-0.325	0.190	
15.530	0.460	0.097	
15.535	-0.148	0.054	
15.540	-0.524	0.006	
15.545	0.084	-0.070	
15.550	0.093	-0.107	
15.555	-0.544	-0.118	
15.560	-0.236	-0.158	
15.565	0.267	-0.184	
15.570	-0.448	-0.169	
15.575	-0.474	-0.182	
15.580	0.204	-0.209	
15.585	-0.249	-0.199	
15.590	-0.587	-0.198	
15.595	0.029	-0.225	
15.600	0.059	-0.218	
15.605	-0.553	-0.194	
15.610	-0.220	-0.204	
15.615	0.340	-0.202	
15.620	-0.406	-0.161	
15.625	-0.435	-0.153	
15.630	0.331	-0.164	
15.635	-0.192	-0.138	
15.640	-0.550	-0.127	
15.645	0.058	-0.156	
15.650	0.064	-0.158	
15.655	-0.575	-0.148	
15.660	-0.291	-0.179	
15.665	0.116	-0.210	
15.670	-0.526	-0.213	
15.675	-0.557	-0.244	
15.680	0.101	-0.285	
15.685	-0.297	-0.283	
15.690	-0.630	-0.282	
15.695	-0.079	-0.304	
15.700	-0.060	-0.299	
15.705	-0.628	-0.279	
15.710	-0.334	-0.294	
15.715	0.073	-0.303	
15.720	-0.489	-0.283	
15.725	-0.387	-0.281	
15.730	0.779	-0.250	
15.735	0.358	-0.118	
15.740	-0.247	0.026	
15.745	0.399	0.104	
15.750	0.149	0.156	
15.755	-0.593	0.157	
15.760	-0.322	0.066	
15.765	0.097	-0.043	
15.770	-0.518	-0.119	
15.775	-0.531	-0.202	
15.780	0.165	-0.271	
15.785	-0.255	-0.276	
15.790	-0.584	-0.270	
15.795	0.026	-0.282	
15.800	0.075	-0.257	
15.805	-0.555	-0.215	
15.810	-0.230	-0.213	
15.815	0.341	-0.204	
15.820	-0.407	-0.159	
15.825	-0.422	-0.150	
15.830	0.395	-0.157	
15.835	-0.136	-0.121	
15.840	-0.489	-0.097	
15.845	0.251	-0.108	
15.850	0.334	-0.077	
15.855	-0.413	-0.024	
15.860	-0.047	-0.019	
15.865	0.691	-0.004	
15.870	-0.212	0.055	
15.875	-0.232	0.076	
15.880	0.785	0.077	
15.885	0.194	0.134	
15.890	-0.303	0.178	
15.895	0.558	0.173	
15.900	0.576	0.203	
15.905	-0.349	0.243	
15.910	-0.032	0.210	
15.915	0.598	0.164	
15.920	-0.297	0.151	
15.925	-0.355	0.101	
15.930	0.456	0.032	
15.935	-0.153	0.011	
15.940	-0.557	-0.020	
15.945	0.026	-0.089	
15.950	0.064	-0.127	
15.955	-0.570	-0.141	
15.960	-0.271	-0.184	
15.965	0.212	-0.213	
15.970	-0.471	-0.203	
15.975	-0.526	-0.218	
15.980	0.161	-0.248	
15.985	-0.239	-0.238	
15.990	-0.587	-0.230	
15.995	-0.027	-0.251	
16.000	0.052	-0.242	
16.005	-0.560	-0.215	
16.010	-0.258	-0.223	
16.015	0.314	-0.221	
16.020	-0.415	-0.182	
16.025	-0.445	-0.173	
16.030	0.376	-0.179	
16.035	-0.113	-0.141	
16.040	-0.467	-0.110	
16.045	0.239	-0.112	
16.050	0.273	-0.079	
16.055	-0.505	-0.035	
16.060	-0.235	-0.052	
16.065	0.326	-0.081	
16.070	-0.432	-0.081	
16.075	-0.477	-0.112	
16.080	0.306	-0.157	
16.085	-0.175	-0.152	
16.090	-0.534	-0.148	
16.095	0.096	-0.172	
16.100	0.221	-0.157	
16.105	-0.505	-0.120	
16.110	-0.221	-0.126	
16.115	0.361	-0.132	
16.120	-0.337	-0.104	
16.125	-0.265	-0.097	
16.130	0.974	-0.071	
16.135	0.508	0.056	
16.140	-0.212	0.190	
16.145	0.524	0.249	
16.150	0.465	0.292	
16.155	-0.436	0.306	
16.160	-0.174	0.230	
16.165	0.456	0.135	
16.170	-0.334	0.082	
16.175	-0.374	0.014	
16.180	0.500	-0.049	
16.185	-0.035	-0.044	
16.190	-0.435	-0.033	
16.195	0.343	-0.048	
16.200	0.466	-0.013	
16.205	-0.377	0.048	
16.210	-0.052	0.053	
16.215	0.691	0.056	
16.220	-0.203	0.099	
16.225	-0.246	0.104	
16.230	0.719	0.088	
16.235	0.168	0.127	
16.240	-0.332	0.156	
16.245	0.540	0.143	
16.250	0.687	0.177	
16.255	-0.247	0.238	
16.260	0.238	0.244	
16.265	1.038	0.260	
16.270	0.052	0.329	
16.275	-0.056	0.353	
16.280	1.098	0.347	
16.285	0.549	0.404	
16.290	-0.149	0.452	
16.295	0.843	0.442	
16.300	0.899	0.469	
16.305	-0.191	0.508	
16.310	0.206	0.467	
16.315	0.887	0.412	
16.320	-0.143	0.393	
16.325	-0.253	0.328	
16.330	0.665	0.236	
16.335	0.067	0.200	
16.340	-0.415	0.163	
16.345	0.311	0.094	
16.350	0.419	0.071	
16.355	-0.413	0.081	
16.360	-0.117	0.047	
16.365	0.567	0.018	
16.370	-0.274	0.034	
16.375	-0.354	0.021	
16.380	0.512	-0.012	
16.385	0.012	0.006	
16.390	-0.422	0.019	
16.395	0.314	-0.002	
16.400	0.456	0.018	
16.405	-0.361	0.065	
16.410	-0.024	0.062	
16.415	0.729	0.064	
16.420	-0.194	0.111	
16.425	-0.276	0.116	
16.430	0.663	0.093	
16.435	0.137	0.120	
16.440	-0.381	0.136	
16.445	0.364	0.107	
16.450	0.462	0.111	
16.455	-0.409	0.132	
16.460	-0.113	0.097	
16.465	0.561	0.058	
16.470	-0.296	0.061	
16.475	-0.381	0.033	
16.480	0.474	-0.014	
16.485	-0.018	-0.010	
16.490	-0.456	-0.006	
16.495	0.273	-0.034	
16.500	0.401	-0.019	
16.505	-0.430	0.022	
16.510	-0.180	0.009	
16.515	0.466	-0.015	
16.520	-0.282	-0.002	
16.525	-0.235	-0.010	
16.530	1.032	0.000	
16.535	0.674	0.121	
16.540	-0.139	0.261	
16.545	0.610	0.329	
16.550	0.517	0.375	
16.555	-0.447	0.383	
16.560	-0.209	0.290	
16.565	0.445	0.171	
16.570	-0.329	0.097	
16.575	-0.410	0.014	
16.580	0.412	-0.063	
16.585	-0.075	-0.074	
16.590	-0.491	-0.076	
16.595	0.172	-0.104	
16.600	0.332	-0.090	
16.605	-0.451	-0.049	
16.610	-0.174	-0.054	
16.615	0.546	-0.058	
16.620	-0.268	-0.019	
16.625	-0.357	-0.013	
16.630	0.534	-0.028	
16.635	0.050	0.005	
16.640	-0.403	0.031	
16.645	0.369	0.020	
16.650	0.585	0.054	
16.655	-0.299	0.117	
16.660	0.047	0.129	
16.665	0.828	0.139	
16.670	-0.102	0.193	
16.675	-0.191	0.203	
16.680	0.912	0.191	
16.685	0.430	0.245	
16.690	-0.258	0.296	
16.695	0.578	0.289	
16.700	0.730	0.307	
16.705	-0.282	0.341	
16.710	-0.031	0.301	
16.715	0.686	0.241	
16.720	-0.250	0.218	
16.725	-0.377	0.157	
16.730	0.436	0.072	
16.735	-0.082	0.036	
16.740	-0.521	0.000	
16.745	0.030	-0.068	
16.750	0.209	-0.101	
16.755	-0.515	-0.101	
16.760	-0.270	-0.133	
16.765	0.337	-0.157	
16.770	-0.381	-0.139	
16.775	-0.470	-0.146	
16.780	0.294	-0.170	
16.785	-0.136	-0.151	
16.790	-0.538	-0.137	
16.795	0.058	-0.159	
16.800	0.268	-0.147	
16.805	-0.462	-0.108	
16.810	-0.200	-0.108	
16.815	0.505	-0.105	
16.820	-0.281	-0.060	
16.825	-0.375	-0.046	
16.830	0.529	-0.054	
16.835	0.047	-0.014	
16.840	-0.436	0.016	
16.845	0.264	0.003	
16.850	0.445	0.020	
16.855	-0.432	0.058	
16.860	-0.229	0.037	
16.865	0.381	-0.004	
16.870	-0.361	-0.016	
16.875	-0.459	-0.055	
16.880	0.341	-0.108	
16.885	-0.090	-0.108	
16.890	-0.517	-0.104	
16.895	0.101	-0.130	
16.900	0.328	-0.119	
16.905	-0.467	-0.078	
16.910	-0.247	-0.082	
16.915	0.340	-0.098	
16.920	-0.342	-0.084	
16.925	-0.349	-0.093	
16.930	0.867	-0.088	
16.935	0.681	0.026	
16.940	-0.089	0.176	
16.945	0.715	0.273	
16.950	0.602	0.361	
16.955	-0.436	0.405	
16.960	-0.255	0.328	
16.965	0.363	0.203	
16.970	-0.374	0.108	
16.975	-0.477	0.002	
16.980	0.355	-0.095	
16.985	-0.096	-0.119	
16.990	-0.538	-0.127	
16.995	0.072	-0.157	
17.000	0.319	-0.147	
17.005	-0.439	-0.103	
17.010	-0.178	-0.096	
17.015	0.599	-0.084	
17.020	-0.232	-0.026	
17.025	-0.360	-0.003	
17.030	0.562	-0.009	
17.035	0.136	0.031	
17.040	-0.377	0.066	
17.045	0.383	0.060	
17.050	0.613	0.093	
17.055	-0.313	0.151	
17.060	-0.003	0.151	
17.065	0.875	0.149	
17.070	-0.064	0.198	
17.075	-0.186	0.212	
17.080	0.934	0.202	
17.085	0.540	0.263	
17.090	-0.183	0.328	
17.095	0.700	0.340	
17.100	0.864	0.380	
17.105	-0.206	0.431	
17.110	0.056	0.401	
17.115	0.790	0.344	
17.120	-0.172	0.320	
17.125	-0.345	0.254	
17.130	0.476	0.157	
17.135	-0.037	0.106	
17.140	-0.518	0.056	
17.145	0.012	-0.027	
17.150	0.210	-0.077	
17.155	-0.502	-0.090	
17.160	-0.273	-0.129	
17.165	0.380	-0.155	
17.170	-0.361	-0.134	
17.175	-0.474	-0.136	
17.180	0.322	-0.158	
17.185	-0.105	-0.136	
17.190	-0.560	-0.121	
17.195	-0.015	-0.149	
17.200	0.247	-0.151	
17.205	-0.502	-0.125	
17.210	-0.279	-0.137	
17.215	0.425	-0.147	
17.220	-0.314	-0.113	
17.225	-0.435	-0.105	
17.230	0.407	-0.117	
17.235	-0.032	-0.086	
17.240	-0.503	-0.062	
17.245	0.099	-0.082	
17.250	0.343	-0.075	
17.255	-0.454	-0.043	
17.260	-0.268	-0.057	
17.265	0.364	-0.083	
17.270	-0.393	-0.077	
17.275	-0.555	-0.105	
17.280	0.131	-0.163	
17.285	-0.186	-0.183	
17.290	-0.624	-0.199	
17.295	-0.128	-0.243	
17.300	0.064	-0.257	
17.305	-0.585	-0.243	
17.310	-0.378	-0.260	
17.315	0.151	-0.276	
17.320	-0.494	-0.259	
17.325	-0.585	-0.268	
17.330	0.376	-0.283	
17.335	0.294	-0.217	
17.340	-0.206	-0.109	
17.345	0.684	-0.010	
17.350	0.681	0.126	
17.355	-0.453	0.243	
17.360	-0.339	0.230	
17.365	0.229	0.139	
17.370	-0.453	0.054	
17.375	-0.607	-0.058	
17.380	0.068	-0.175	
17.385	-0.218	-0.233	
17.390	-0.640	-0.264	
17.395	-0.133	-0.307	
17.400	0.116	-0.307	
17.405	-0.544	-0.271	
17.410	-0.326	-0.264	
17.415	0.328	-0.251	
17.420	-0.351	-0.200	
17.425	-0.485	-0.177	
17.430	0.360	-0.178	
17.435	-0.008	-0.135	
17.440	-0.500	-0.096	
17.445	0.099	-0.101	
17.450	0.434	-0.079	
17.455	-0.386	-0.027	
17.460	-0.146	-0.018	
17.465	0.716	-0.009	
17.470	-0.136	0.050	
17.475	-0.281	0.078	
17.480	0.742	0.079	
17.485	0.360	0.137	
17.490	-0.305	0.194	
17.495	0.489	0.197	
17.500	0.736	0.227	
17.505	-0.274	0.278	
17.510	-0.079	0.257	
17.515	0.742	0.213	
17.520	-0.182	0.209	
17.525	-0.377	0.168	
17.530	0.466	0.096	
17.535	0.023	0.069	
17.540	-0.514	0.043	
17.545	0.001	-0.024	
17.550	0.250	-0.064	
17.555	-0.508	-0.073	
17.560	-0.303	-0.113	
17.565	0.401	-0.145	
17.570	-0.328	-0.126	
17.575	-0.479	-0.127	
17.580	0.291	-0.150	
17.585	-0.072	-0.132	
17.590	-0.543	-0.117	
17.595	0.049	-0.139	
17.600	0.389	-0.127	
17.605	-0.425	-0.079	
17.610	-0.191	-0.071	
17.615	0.642	-0.062	
17.620	-0.212	-0.005	
17.625	-0.406	0.015	
17.630	0.468	-0.003	
17.635	0.125	0.018	
17.640	-0.425	0.039	
17.645	0.239	0.020	
17.650	0.544	0.034	
17.655	-0.354	0.080	
17.660	-0.172	0.072	
17.665	0.608	0.051	
17.670	-0.224	0.069	
17.675	-0.396	0.054	
17.680	0.479	0.012	
17.685	0.119	0.020	
17.690	-0.471	0.032	
17.695	0.130	-0.000	
17.700	0.436	-0.006	
17.705	-0.407	0.020	
17.710	-0.195	0.003	
17.715	0.573	-0.017	
17.720	-0.271	0.008	
17.725	-0.422	0.001	
17.730	0.625	-0.026	
17.735	0.535	0.029	
17.740	-0.128	0.123	
17.745	0.735	0.193	
17.750	0.848	0.293	
17.755	-0.339	0.384	
17.760	-0.259	0.354	
17.765	0.360	0.251	
17.770	-0.346	0.160	
17.775	-0.470	0.048	
17.780	0.398	-0.057	
17.785	0.075	-0.079	
17.790	-0.465	-0.072	
17.795	0.163	-0.087	
17.800	0.491	-0.062	
17.805	-0.370	-0.003	
17.810	-0.160	0.008	
17.815	0.660	0.010	
17.820	-0.148	0.056	
17.825	-0.296	0.072	
17.830	0.704	0.064	
17.835	0.346	0.116	
17.840	-0.340	0.169	
17.845	0.399	0.167	
17.850	0.748	0.191	
17.855	-0.227	0.244	
17.860	0.049	0.241	
17.865	1.012	0.236	
17.870	0.137	0.292	
17.875	-0.143	0.318	
17.880	0.985	0.311	
17.885	0.686	0.366	
17.890	-0.143	0.428	
17.895	0.724	0.431	
17.900	1.030	0.461	
17.905	-0.098	0.514	
17.910	0.190	0.493	
17.915	1.052	0.453	
17.920	0.114	0.461	
17.925	-0.221	0.429	
17.930	0.724	0.352	
17.935	0.323	0.321	
17.940	-0.363	0.293	
17.945	0.261	0.218	
17.950	0.538	0.174	
17.955	-0.355	0.165	
17.960	-0.182	0.114	
17.965	0.617	0.063	
17.970	-0.177	0.067	
17.975	-0.372	0.051	
17.980	0.514	0.016	
17.985	0.213	0.035	
17.990	-0.361	0.065	
17.995	0.348	0.060	
18.000	0.654	0.092	
18.005	-0.276	0.155	
18.010	-0.096	0.157	
18.015	0.773	0.143	
18.020	-0.107	0.172	
18.025	-0.306	0.166	
18.030	0.652	0.129	
18.035	0.328	0.149	
18.040	-0.342	0.175	
18.045	0.343	0.155	
18.050	0.683	0.164	
18.055	-0.273	0.205	
18.060	-0.101	0.188	
18.065	0.751	0.158	
18.070	-0.145	0.172	
18.075	-0.360	0.152	
18.080	0.547	0.100	
18.085	0.261	0.101	
18.090	-0.407	0.114	
18.095	0.177	0.082	
18.100	0.552	0.074	
18.105	-0.325	0.100	
18.110	-0.148	0.084	
18.115	0.712	0.064	
18.120	-0.128	0.096	
18.125	-0.355	0.098	
18.130	0.617	0.071	
18.135	0.521	0.109	
18.140	-0.108	0.179	
18.145	0.945	0.239	
18.150	1.247	0.363	
18.155	-0.095	0.512	
18.160	-0.029	0.538	
18.165	0.719	0.478	
18.170	-0.149	0.418	
18.175	-0.366	0.314	
18.180	0.501	0.187	
18.185	0.213	0.130	
18.190	-0.389	0.102	
18.195	0.236	0.055	
18.200	0.581	0.052	
18.205	-0.322	0.091	
18.210	-0.131	0.084	
18.215	0.764	0.073	
18.220	-0.081	0.115	
18.225	-0.296	0.129	
18.230	0.672	0.112	
18.235	0.372	0.148	
18.240	-0.322	0.189	
18.245	0.390	0.180	
18.250	0.762	0.199	
18.255	-0.207	0.250	
18.260	0.023	0.246	
18.265	1.009	0.238	
18.270	0.189	0.293	
18.275	-0.117	0.324	
18.280	1.011	0.325	
18.285	0.765	0.388	
18.290	-0.090	0.461	
18.295	0.779	0.474	
18.300	1.162	0.515	
18.305	-0.008	0.582	
18.310	0.239	0.572	
18.315	1.143	0.536	
18.320	0.216	0.546	
18.325	-0.163	0.515	
18.330	0.835	0.438	
18.335	0.501	0.412	
18.340	-0.294	0.395	
18.345	0.314	0.324	
18.350	0.663	0.275	
18.355	-0.299	0.262	
18.360	-0.172	0.203	
18.365	0.649	0.136	
18.370	-0.149	0.123	
18.375	-0.367	0.094	
18.380	0.500	0.044	
18.385	0.241	0.052	
18.390	-0.381	0.074	
18.395	0.210	0.056	
18.400	0.616	0.068	
18.405	-0.277	0.115	
18.410	-0.134	0.113	
18.415	0.722	0.100	
18.420	-0.067	0.132	
18.425	-0.290	0.137	
18.430	0.628	0.114	
18.435	0.373	0.143	
18.440	-0.320	0.180	
18.445	0.341	0.168	
18.450	0.774	0.184	
18.455	-0.215	0.235	
18.460	-0.095	0.228	
18.465	0.771	0.200	
18.470	-0.085	0.212	
18.475	-0.337	0.191	
18.480	0.483	0.132	
18.485	0.210	0.118	
18.490	-0.407	0.112	
18.495	0.136	0.067	
18.500	0.515	0.050	
18.505	-0.340	0.070	
18.510	-0.209	0.050	
18.515	0.604	0.024	
18.520	-0.125	0.047	
18.525	-0.375	0.049	
18.530	0.387	0.018	
18.535	0.218	0.028	
18.540	-0.273	0.053	
18.545	0.712	0.073	
18.550	1.374	0.186	
18.555	0.230	0.378	
18.560	0.235	0.497	
18.565	0.913	0.539	
18.570	-0.090	0.551	
18.575	-0.378	0.471	
18.580	0.460	0.328	
18.585	0.270	0.234	
18.590	-0.375	0.173	
18.595	0.203	0.099	
18.600	0.651	0.075	
18.605	-0.267	0.107	
18.610	-0.133	0.102	
18.615	0.797	0.093	
18.620	0.009	0.139	
18.625	-0.244	0.163	
18.630	0.797	0.159	
18.635	0.602	0.218	
18.640	-0.206	0.289	
18.645	0.561	0.306	
18.650	1.020	0.347	
18.655	-0.040	0.421	
18.660	0.157	0.431	
18.665	1.127	0.420	
18.670	0.325	0.464	
18.675	-0.076	0.478	
18.680	1.073	0.454	
18.685	0.890	0.495	
18.690	-0.037	0.554	
18.695	0.822	0.556	
18.700	1.282	0.588	
18.705	0.181	0.660	
18.710	0.358	0.666	
18.715	1.252	0.645	
18.720	0.352	0.664	
18.725	-0.136	0.635	
18.730	0.831	0.545	
18.735	0.546	0.496	
18.740	-0.302	0.455	
18.745	0.216	0.358	
18.750	0.607	0.279	
18.755	-0.314	0.240	
18.760	-0.244	0.164	
18.765	0.505	0.083	
18.770	-0.197	0.054	
18.775	-0.451	0.014	
18.780	0.287	-0.046	
18.785	0.084	-0.057	
18.790	-0.488	-0.054	
18.795	-0.063	-0.086	
18.800	0.351	-0.098	
18.805	-0.409	-0.076	
18.810	-0.308	-0.086	
18.815	0.441	-0.102	
18.820	-0.192	-0.074	
18.825	-0.430	-0.064	
18.830	0.340	-0.080	
18.835	0.134	-0.055	
18.840	-0.457	-0.026	
18.845	0.029	-0.041	
18.850	0.477	-0.038	
18.855	-0.348	0.000	
18.860	-0.261	-0.003	
18.865	0.472	-0.023	
18.870	-0.209	-0.006	
18.875	-0.479	-0.016	
18.880	0.192	-0.063	
18.885	-0.044	-0.081	
18.890	-0.582	-0.097	
18.895	-0.194	-0.152	
18.900	0.122	-0.190	
18.905	-0.523	-0.195	
18.910	-0.436	-0.225	
18.915	0.165	-0.254	
18.920	-0.319	-0.242	
18.925	-0.553	-0.238	
18.930	0.037	-0.257	
18.935	-0.143	-0.247	
18.940	-0.645	-0.238	
18.945	-0.178	-0.264	
18.950	0.497	-0.251	
18.955	-0.154	-0.168	
18.960	0.001	-0.088	
18.965	0.777	-0.003	
18.970	-0.178	0.103	
18.975	-0.552	0.130	
18.980	-0.038	0.058	
18.985	-0.168	-0.024	
18.990	-0.657	-0.108	
18.995	-0.249	-0.209	
19.000	0.056	-0.271	
19.005	-0.544	-0.283	
19.010	-0.447	-0.305	
19.015	0.224	-0.315	
19.020	-0.317	-0.277	
19.025	-0.564	-0.252	
19.030	0.107	-0.255	
19.035	-0.029	-0.227	
19.040	-0.549	-0.194	
19.045	-0.143	-0.201	
19.050	0.300	-0.192	
19.055	-0.418	-0.150	
19.060	-0.329	-0.142	
19.065	0.454	-0.140	
19.070	-0.180	-0.095	
19.075	-0.433	-0.071	
19.080	0.386	-0.077	
19.085	0.315	-0.035	
19.090	-0.357	0.022	
19.095	0.192	0.037	
19.100	0.751	0.073	
19.105	-0.200	0.147	
19.110	-0.081	0.168	
19.115	0.928	0.174	
19.120	0.148	0.233	
19.125	-0.259	0.264	
19.130	0.630	0.242	
19.135	0.465	0.255	
19.140	-0.352	0.269	
19.145	0.090	0.220	
19.150	0.559	0.173	
19.155	-0.314	0.159	
19.160	-0.262	0.108	
19.165	0.527	0.048	
19.170	-0.160	0.039	
19.175	-0.432	0.017	
19.180	0.306	-0.030	
19.185	0.133	-0.033	
19.190	-0.477	-0.024	
19.195	-0.049	-0.055	
19.200	0.416	-0.068	
19.205	-0.377	-0.043	
19.210	-0.316	-0.053	
19.215	0.457	-0.073	
19.220	-0.160	-0.050	
19.225	-0.419	-0.042	
19.230	0.392	-0.058	
19.235	0.244	-0.028	
19.240	-0.422	0.014	
19.245	0.021	0.005	
19.250	0.550	0.007	
19.255	-0.314	0.044	
19.260	-0.259	0.039	
19.265	0.605	0.019	
19.270	-0.096	0.045	
19.275	-0.422	0.049	
19.280	0.315	0.013	
19.285	0.145	0.009	
19.290	-0.505	0.010	
19.295	-0.130	-0.037	
19.300	0.296	-0.075	
19.305	-0.448	-0.079	
19.310	-0.390	-0.112	
19.315	0.346	-0.149	
19.320	-0.223	-0.135	
19.325	-0.488	-0.131	
19.330	0.229	-0.149	
19.335	0.104	-0.128	
19.340	-0.515	-0.097	
19.345	-0.154	-0.114	
19.350	0.369	-0.122	
19.355	-0.287	-0.090	
19.360	-0.075	-0.070	
19.365	1.076	-0.018	
19.370	0.251	0.118	
19.375	-0.317	0.222	
19.380	0.334	0.229	
19.385	0.099	0.212	
19.390	-0.524	0.164	
19.395	-0.156	0.060	
19.400	0.309	-0.027	
19.405	-0.424	-0.063	
19.410	-0.366	-0.111	
19.415	0.410	-0.148	
19.420	-0.206	-0.128	
19.425	-0.508	-0.118	
19.430	0.201	-0.138	
19.435	0.155	-0.120	
19.440	-0.470	-0.087	
19.445	-0.082	-0.095	
19.450	0.450	-0.090	
19.455	-0.351	-0.049	
19.460	-0.300	-0.046	
19.465	0.561	-0.053	
19.470	-0.070	-0.013	
19.475	-0.374	0.012	
19.480	0.476	0.006	
19.485	0.413	0.048	
19.490	-0.339	0.104	
19.495	0.195	0.109	
19.500	0.811	0.131	
19.505	-0.148	0.195	
19.510	-0.072	0.211	
19.515	0.959	0.210	
19.520	0.264	0.269	
19.525	-0.233	0.306	
19.530	0.707	0.291	
19.535	0.573	0.311	
19.540	-0.317	0.334	
19.545	0.088	0.285	
19.550	0.613	0.230	
19.555	-0.303	0.207	
19.560	-0.308	0.144	
19.565	0.476	0.066	
19.570	-0.156	0.038	
19.575	-0.480	0.002	
19.580	0.227	-0.057	
19.585	0.177	-0.068	
19.590	-0.497	-0.057	
19.595	-0.143	-0.086	
19.600	0.369	-0.103	
19.605	-0.383	-0.083	
19.610	-0.367	-0.093	
19.615	0.413	-0.113	
19.620	-0.157	-0.088	
19.625	-0.464	-0.077	
19.630	0.317	-0.092	
19.635	0.293	-0.061	
19.640	-0.432	-0.013	
19.645	-0.032	-0.015	
19.650	0.555	-0.010	
19.655	-0.319	0.029	
19.660	-0.288	0.026	
19.665	0.616	0.007	
19.670	-0.038	0.038	
19.675	-0.381	0.053	
19.680	0.412	0.033	
19.685	0.346	0.054	
19.690	-0.438	0.084	
19.695	-0.111	0.054	
19.700	0.419	0.019	
19.705	-0.380	0.013	
19.710	-0.386	-0.025	
19.715	0.375	-0.075	
19.720	-0.194	-0.078	
19.725	-0.515	-0.089	
19.730	0.178	-0.127	
19.735	0.152	-0.122	
19.740	-0.500	-0.098	
19.745	-0.142	-0.114	
19.750	0.323	-0.122	
19.755	-0.454	-0.101	
19.760	-0.418	-0.118	
19.765	0.601	-0.137	
19.770	0.251	-0.073	
19.775	-0.134	0.017	
19.780	0.864	0.097	
19.785	0.630	0.221	
19.790	-0.395	0.321	
19.795	-0.134	0.297	
19.800	0.344	0.216	
19.805	-0.413	0.143	
19.810	-0.406	0.039	
19.815	0.392	-0.057	
19.820	-0.159	-0.084	
19.825	-0.503	-0.101	
19.830	0.180	-0.137	
19.835	0.195	-0.127	
19.840	-0.476	-0.094	
19.845	-0.137	-0.102	
19.850	0.480	-0.099	
19.855	-0.317	-0.056	
19.860	-0.313	-0.046	
19.865	0.575	-0.050	
19.870	-0.014	-0.004	
19.875	-0.378	0.026	
19.880	0.483	0.024	
19.885	0.549	0.070	
19.890	-0.290	0.140	
19.895	0.186	0.155	
19.900	0.866	0.178	
19.905	-0.101	0.240	
19.910	-0.060	0.254	
19.915	1.046	0.252	
19.920	0.456	0.320	
19.925	-0.133	0.378	
19.930	0.910	0.388	
19.935	0.919	0.441	
19.940	-0.145	0.506	
19.945	0.410	0.493	
19.950	1.023	0.473	
19.955	-0.081	0.486	
19.960	-0.149	0.436	
19.965	0.802	0.350	
19.970	0.125	0.316	
19.975	-0.345	0.274	
19.980	0.477	0.198	
19.985	0.485	0.175	
19.990	-0.369	0.181	
19.995	-0.044	0.137	
20.000	0.578	0.095	
20.005	-0.288	0.095	
20.010	-0.310	0.064	
20.015	0.575	0.021	
20.020	-0.017	0.034	
20.025	-0.410	0.040	
20.030	0.320	0.012	
20.035	0.357	0.023	
20.040	-0.409	0.053	
20.045	-0.061	0.034	
20.050	0.605	0.022	
20.055	-0.267	0.052	
20.060	-0.287	0.048	
20.065	0.634	0.027	
20.070	0.035	0.059	
20.075	-0.380	0.079	
20.080	0.430	0.060	
20.085	0.477	0.084	
20.090	-0.369	0.127	
20.095	-0.055	0.110	
20.100	0.588	0.087	
20.105	-0.294	0.097	
20.110	-0.364	0.068	
20.115	0.405	0.012	
20.120	-0.153	-0.004	
20.125	-0.528	-0.031	
20.130	0.102	-0.089	
20.135	0.146	-0.110	
20.140	-0.517	-0.105	
20.145	-0.201	-0.134	
20.150	0.380	-0.148	
20.155	-0.370	-0.119	
20.160	-0.399	-0.118	
20.165	0.372	-0.132	
20.170	-0.168	-0.107	
20.175	-0.468	-0.095	
20.180	0.526	-0.098	
20.185	0.878	-0.014	
20.190	-0.081	0.132	
20.195	0.326	0.227	
20.200	0.698	0.290	
20.205	-0.335	0.332	
20.210	-0.435	0.273	
20.215	0.288	0.151	
20.220	-0.182	0.061	
20.225	-0.538	-0.023	
20.230	0.075	-0.114	
20.235	0.165	-0.148	
20.240	-0.509	-0.143	
20.245	-0.204	-0.162	
20.250	0.398	-0.166	
20.255	-0.360	-0.127	
20.260	-0.424	-0.118	
20.265	0.322	-0.133	
20.270	-0.165	-0.113	
20.275	-0.518	-0.107	
20.280	0.154	-0.133	
20.285	0.268	-0.118	
20.290	-0.453	-0.078	
20.295	-0.133	-0.080	
20.300	0.561	-0.073	
20.305	-0.265	-0.023	
20.310	-0.297	-0.006	
20.315	0.648	-0.007	
20.320	0.143	0.047	
20.325	-0.310	0.093	
20.330	0.561	0.103	
20.335	0.646	0.156	
20.340	-0.270	0.226	
20.345	0.122	0.230	
20.350	0.834	0.226	
20.355	-0.148	0.258	
20.360	-0.232	0.241	
20.365	0.678	0.191	
20.370	0.056	0.185	
20.375	-0.425	0.165	
20.380	0.213	0.098	
20.385	0.241	0.058	
20.390	-0.509	0.036	
20.395	-0.250	-0.028	
20.400	0.303	-0.088	
20.405	-0.404	-0.103	
20.410	-0.491	-0.137	
20.415	0.178	-0.185	
20.420	-0.213	-0.190	
20.425	-0.569	-0.195	
20.430	0.011	-0.224	
20.435	0.113	-0.216	
20.440	-0.540	-0.187	
20.445	-0.261	-0.195	
20.450	0.290	-0.198	
20.455	-0.398	-0.167	
20.460	-0.459	-0.165	
20.465	0.322	-0.180	
20.470	-0.128	-0.151	
20.475	-0.506	-0.130	
20.480	0.090	-0.144	
20.485	0.210	-0.129	
20.490	-0.482	-0.097	
20.495	-0.195	-0.107	
20.500	0.466	-0.111	
20.505	-0.313	-0.073	
20.510	-0.375	-0.065	
20.515	0.469	-0.077	
20.520	-0.049	-0.045	
20.525	-0.485	-0.026	
20.530	0.133	-0.053	
20.535	0.270	-0.054	
20.540	-0.479	-0.036	
20.545	-0.207	-0.061	
20.550	0.427	-0.084	
20.555	-0.346	-0.066	
20.560	-0.430	-0.077	
20.565	0.393	-0.106	
20.570	-0.089	-0.088	
20.575	-0.508	-0.076	
20.580	0.047	-0.105	
20.585	0.207	-0.110	
20.590	-0.415	-0.089	
20.595	0.065	-0.089	
20.600	1.044	-0.037	
20.605	0.017	0.096	
20.610	-0.224	0.182	
20.615	0.540	0.196	
20.620	-0.101	0.202	
20.625	-0.569	0.157	
20.630	-0.084	0.045	
20.635	0.035	-0.051	
20.640	-0.576	-0.116	
20.645	-0.332	-0.193	
20.650	0.206	-0.244	
20.655	-0.412	-0.239	
20.660	-0.489	-0.243	
20.665	0.241	-0.254	
20.670	-0.183	-0.221	
20.675	-0.575	-0.196	
20.680	-0.026	-0.211	
20.685	0.160	-0.200	
20.690	-0.520	-0.169	
20.695	-0.259	-0.175	
20.700	0.361	-0.177	
20.705	-0.348	-0.140	
20.710	-0.419	-0.130	
20.715	0.424	-0.137	
20.720	-0.015	-0.096	
20.725	-0.448	-0.061	
20.730	0.247	-0.063	
20.735	0.469	-0.028	
20.740	-0.346	0.032	
20.745	-0.050	0.044	
20.750	0.709	0.053	
20.755	-0.180	0.103	
20.760	-0.291	0.111	
20.765	0.599	0.087	
20.770	0.076	0.104	
20.775	-0.432	0.109	
20.780	0.189	0.063	
20.785	0.273	0.039	
20.790	-0.511	0.030	
20.795	-0.300	-0.028	
20.800	0.209	-0.093	
20.805	-0.467	-0.124	
20.810	-0.589	-0.177	
20.815	0.014	-0.246	
20.820	-0.291	-0.273	
20.825	-0.678	-0.294	
20.830	-0.180	-0.334	
20.835	-0.066	-0.343	
20.840	-0.636	-0.328	
20.845	-0.404	-0.340	
20.850	0.096	-0.346	
20.855	-0.494	-0.317	
20.860	-0.590	-0.313	
20.865	0.056	-0.328	
20.870	-0.235	-0.307	
20.875	-0.619	-0.288	
20.880	-0.102	-0.298	
20.885	0.110	-0.281	
20.890	-0.538	-0.240	
20.895	-0.311	-0.235	
20.900	0.273	-0.230	
20.905	-0.403	-0.193	
20.910	-0.502	-0.186	
20.915	0.256	-0.202	
20.920	-0.153	-0.179	
20.925	-0.576	-0.164	
20.930	-0.064	-0.189	
20.935	0.068	-0.196	
20.940	-0.596	-0.187	
20.945	-0.399	-0.219	
20.950	0.088	-0.254	
20.955	-0.477	-0.257	
20.960	-0.611	-0.279	
20.965	0.001	-0.317	
20.970	-0.276	-0.318	
20.975	-0.665	-0.316	
20.980	-0.151	-0.337	
20.985	-0.002	-0.330	
20.990	-0.646	-0.303	
20.995	-0.467	-0.315	
21.000	0.018	-0.335	
21.005	-0.425	-0.322	
21.010	-0.395	-0.313	
21.015	0.719	-0.274	
21.020	0.329	-0.141	
21.025	-0.389	-0.003	
21.030	0.047	0.046	
21.035	0.078	0.052	
21.040	-0.616	0.026	
21.045	-0.416	-0.064	
21.050	0.101	-0.158	
21.055	-0.462	-0.207	
21.060	-0.563	-0.257	
21.065	0.160	-0.300	
21.070	-0.175	-0.285	
21.075	-0.598	-0.261	
21.080	-0.085	-0.269	
21.085	0.108	-0.253	
21.090	-0.540	-0.218	
21.095	-0.299	-0.219	
21.100	0.372	-0.214	
21.105	-0.326	-0.167	
21.110	-0.444	-0.146	
21.115	0.375	-0.148	
21.120	0.011	-0.107	
21.125	-0.453	-0.069	
21.130	0.189	-0.071	
21.135	0.469	-0.040	
21.140	-0.352	0.018	
21.145	-0.078	0.029	
21.150	0.828	0.044	
21.155	-0.046	0.114	
21.160	-0.204	0.152	
21.165	0.851	0.160	
21.170	0.450	0.225	
21.175	-0.265	0.284	
21.180	0.521	0.281	
21.185	0.739	0.297	
21.190	-0.270	0.330	
21.195	-0.044	0.293	
21.200	0.730	0.238	
21.205	-0.159	0.224	
21.210	-0.345	0.180	
21.215	0.479	0.108	
21.220	0.033	0.082	
21.225	-0.489	0.057	
21.230	0.078	-0.006	
21.235	0.314	-0.037	
21.240	-0.474	-0.034	
21.245	-0.277	-0.069	
21.250	0.398	-0.102	
21.255	-0.325	-0.091	
21.260	-0.467	-0.102	
21.265	0.299	-0.133	
21.270	-0.056	-0.120	
21.275	-0.528	-0.107	
21.280	0.014	-0.132	
21.285	0.325	-0.128	
21.290	-0.445	-0.092	
21.295	-0.250	-0.095	
21.300	0.468	-0.101	
21.305	-0.276	-0.067	
21.310	-0.421	-0.061	
21.315	0.384	-0.080	
21.320	0.009	-0.059	
21.325	-0.486	-0.041	
21.330	0.113	-0.064	
21.335	0.398	-0.057	
21.340	-0.421	-0.021	
21.345	-0.227	-0.030	
21.350	0.474	-0.048	
21.355	-0.313	-0.029	
21.360	-0.500	-0.044	
21.365	0.189	-0.095	
21.370	-0.159	-0.116	
21.375	-0.598	-0.138	
21.380	-0.124	-0.192	
21.385	0.108	-0.217	
21.390	-0.558	-0.210	
21.395	-0.372	-0.232	
21.400	0.264	-0.248	
21.405	-0.374	-0.220	
21.410	-0.535	-0.213	
21.415	0.125	-0.231	
21.420	-0.157	-0.217	
21.425	-0.496	-0.202	
21.430	0.381	-0.193	
21.435	0.954	-0.096	
21.440	-0.116	0.069	
21.445	0.018	0.172	
21.450	0.608	0.215	
21.455	-0.287	0.240	
21.460	-0.508	0.187	
21.465	0.212	0.076	
21.470	-0.108	-0.002	
21.475	-0.558	-0.066	
21.480	-0.053	-0.144	
21.485	0.285	-0.173	
21.490	-0.467	-0.153	
21.495	-0.282	-0.158	
21.500	0.460	-0.158	
21.505	-0.253	-0.111	
21.510	-0.421	-0.089	
21.515	0.476	-0.090	
21.520	0.198	-0.040	
21.525	-0.398	0.013	
21.530	0.273	0.022	
21.535	0.620	0.058	
21.540	-0.305	0.121	
21.545	-0.117	0.124	
21.550	0.785	0.114	
21.555	-0.037	0.154	
21.560	-0.252	0.166	
21.565	0.812	0.154	
21.570	0.556	0.209	
21.575	-0.209	0.276	
21.580	0.663	0.295	
21.585	1.050	0.350	
21.590	-0.055	0.438	
21.595	0.232	0.454	
21.600	1.117	0.449	
21.605	0.224	0.487	
21.610	-0.162	0.481	
21.615	0.869	0.425	
21.620	0.482	0.414	
21.625	-0.311	0.402	
21.630	0.348	0.332	
21.635	0.634	0.283	
21.640	-0.320	0.266	
21.645	-0.191	0.200	
21.650	0.599	0.126	
21.655	-0.175	0.104	
21.660	-0.367	0.069	
21.665	0.538	0.022	
21.670	0.247	0.039	
21.675	-0.392	0.069	
21.680	0.224	0.057	
21.685	0.581	0.070	
21.690	-0.311	0.113	
21.695	-0.151	0.104	
21.700	0.726	0.086	
21.705	-0.098	0.117	
21.710	-0.314	0.120	
21.715	0.668	0.097	
21.720	0.418	0.134	
21.725	-0.296	0.183	
21.730	0.412	0.185	
21.735	0.780	0.212	
21.740	-0.229	0.266	
21.745	-0.064	0.256	
21.750	0.896	0.228	
21.755	0.096	0.257	
21.760	-0.230	0.263	
21.765	0.759	0.236	
21.770	0.450	0.259	
21.775	-0.325	0.284	
21.780	0.264	0.247	
21.785	0.593	0.220	
21.790	-0.317	0.218	
21.795	-0.165	0.168	
21.800	0.695	0.114	
21.805	-0.134	0.117	
21.810	-0.346	0.101	
21.815	0.594	0.063	
21.820	0.338	0.088	
21.825	-0.346	0.126	
21.830	0.273	0.118	
21.835	0.604	0.129	
21.840	-0.281	0.166	
21.845	0.027	0.157	
21.850	1.270	0.172	
21.855	0.637	0.295	
21.860	0.181	0.427	
21.865	1.148	0.512	
21.870	0.649	0.604	
21.875	-0.276	0.638	
21.880	0.331	0.556	
21.885	0.698	0.464	
21.890	-0.258	0.400	
21.895	-0.102	0.299	
21.900	0.848	0.212	
21.905	0.023	0.204	
21.910	-0.261	0.192	
21.915	0.751	0.162	
21.920	0.541	0.200	
21.925	-0.239	0.255	
21.930	0.483	0.260	
21.935	0.925	0.291	
21.940	-0.136	0.354	
21.945	0.049	0.352	
21.950	1.000	0.330	
21.955	0.180	0.362	
21.960	-0.186	0.364	
21.965	0.869	0.330	
21.970	0.652	0.353	
21.975	-0.183	0.392	
21.980	0.643	0.381	
21.985	1.128	0.409	
21.990	0.058	0.483	
21.995	0.325	0.503	
22.000	1.345	0.515	
22.005	0.564	0.590	
22.010	0.114	0.638	
22.015	1.215	0.636	
22.020	0.934	0.679	
22.025	-0.053	0.714	
22.030	0.691	0.670	
22.035	1.070	0.635	
22.040	-0.089	0.627	
22.045	0.020	0.550	
22.050	0.930	0.451	
22.055	0.067	0.409	
22.060	-0.267	0.349	
22.065	0.674	0.265	
22.070	0.483	0.247	
22.075	-0.299	0.254	
22.080	0.291	0.219	
22.085	0.719	0.208	
22.090	-0.224	0.233	
22.095	-0.101	0.211	
22.100	0.797	0.178	
22.105	0.003	0.198	
22.110	-0.290	0.195	
22.115	0.634	0.160	
22.120	0.447	0.179	
22.125	-0.302	0.212	
22.130	0.320	0.197	
22.135	0.785	0.205	
22.140	-0.203	0.249	
22.145	-0.101	0.237	
22.150	0.809	0.207	
22.155	0.027	0.225	
22.160	-0.273	0.219	
22.165	0.658	0.183	
22.170	0.517	0.203	
22.175	-0.265	0.241	
22.180	0.354	0.231	
22.185	0.800	0.241	
22.190	-0.188	0.283	
22.195	-0.122	0.265	
22.200	0.687	0.219	
22.205	-0.093	0.210	
22.210	-0.358	0.173	
22.215	0.462	0.107	
22.220	0.290	0.094	
22.225	-0.390	0.101	
22.230	0.110	0.068	
22.235	0.569	0.057	
22.240	-0.294	0.085	
22.245	-0.210	0.073	
22.250	0.611	0.049	
22.255	-0.131	0.068	
22.260	-0.377	0.064	
22.265	0.703	0.042	
22.270	0.855	0.110	
22.275	0.065	0.238	
22.280	0.835	0.341	
22.285	1.125	0.460	
22.290	-0.162	0.569	
22.295	-0.186	0.546	
22.300	0.627	0.438	
22.305	-0.105	0.349	
22.310	-0.389	0.242	
22.315	0.421	0.123	
22.320	0.287	0.076	
22.325	-0.390	0.067	
22.330	0.081	0.031	
22.335	0.584	0.024	
22.340	-0.290	0.060	
22.345	-0.203	0.058	
22.350	0.709	0.047	
22.355	-0.020	0.088	
22.360	-0.316	0.108	
22.365	0.619	0.097	
22.370	0.463	0.137	
22.375	-0.320	0.188	
22.380	0.232	0.181	
22.385	0.750	0.185	
22.390	-0.189	0.224	
22.395	-0.070	0.216	
22.400	0.956	0.201	
22.405	0.197	0.251	
22.410	-0.195	0.282	
22.415	0.841	0.275	
22.420	0.758	0.325	
22.425	-0.154	0.391	
22.430	0.514	0.396	
22.435	0.997	0.411	
22.440	-0.072	0.455	
22.445	0.009	0.433	
22.450	0.963	0.384	
22.455	0.136	0.385	
22.460	-0.297	0.357	
22.465	0.535	0.281	
22.470	0.348	0.244	
22.475	-0.407	0.218	
22.480	-0.012	0.143	
22.485	0.474	0.082	
22.490	-0.349	0.064	
22.495	-0.310	0.018	
22.500	0.465	-0.031	
22.505	-0.163	-0.028	
22.510	-0.447	-0.036	
22.515	0.302	-0.068	
22.520	0.232	-0.053	
22.525	-0.444	-0.021	
22.530	-0.056	-0.035	
22.535	0.468	-0.039	
22.540	-0.332	-0.008	
22.545	-0.282	-0.014	
22.550	0.518	-0.032	
22.555	-0.127	-0.006	
22.560	-0.407	0.002	
22.565	0.334	-0.023	
22.570	0.236	-0.008	
22.575	-0.433	0.018	
22.580	-0.026	-0.003	
22.585	0.503	-0.012	
22.590	-0.308	0.017	
22.595	-0.270	0.010	
22.600	0.546	-0.009	
22.605	-0.096	0.017	
22.610	-0.416	0.024	
22.615	0.267	-0.008	
22.620	0.122	-0.011	
22.625	-0.503	-0.010	
22.630	-0.154	-0.056	
22.635	0.312	-0.091	
22.640	-0.412	-0.089	
22.645	-0.364	-0.112	
22.650	0.395	-0.137	
22.655	-0.178	-0.112	
22.660	-0.477	-0.100	
22.665	0.183	-0.119	
22.670	0.084	-0.108	
22.675	-0.524	-0.091	
22.680	-0.145	-0.117	
22.685	0.503	-0.122	
22.690	-0.197	-0.072	
22.695	-0.035	-0.030	
22.700	0.969	0.028	
22.705	0.082	0.143	
22.710	-0.425	0.206	
22.715	0.133	0.170	
22.720	-0.032	0.112	
22.725	-0.575	0.039	
22.730	-0.223	-0.069	
22.735	0.177	-0.148	
22.740	-0.477	-0.175	
22.745	-0.459	-0.214	
22.750	0.192	-0.249	
22.755	-0.277	-0.236	
22.760	-0.549	-0.229	
22.765	0.053	-0.244	
22.770	-0.005	-0.227	
22.775	-0.550	-0.200	
22.780	-0.194	-0.210	
22.785	0.306	-0.205	
22.790	-0.419	-0.165	
22.795	-0.384	-0.157	
22.800	0.380	-0.161	
22.805	-0.165	-0.124	
22.810	-0.436	-0.101	
22.815	0.311	-0.104	
22.820	0.265	-0.066	
22.825	-0.392	-0.014	
22.830	0.084	-0.006	
22.835	0.721	0.022	
22.840	-0.169	0.094	
22.845	-0.139	0.124	
22.850	0.849	0.134	
22.855	0.207	0.196	
22.860	-0.226	0.238	
22.865	0.660	0.234	
22.870	0.520	0.263	
22.875	-0.325	0.293	
22.880	0.068	0.250	
22.885	0.613	0.203	
22.890	-0.273	0.189	
22.895	-0.281	0.138	
22.900	0.482	0.071	
22.905	-0.130	0.050	
22.910	-0.460	0.020	
22.915	0.215	-0.037	
22.920	0.166	-0.052	
22.925	-0.476	-0.047	
22.930	-0.149	-0.078	
22.935	0.326	-0.100	
22.940	-0.370	-0.086	
22.945	-0.345	-0.099	
22.950	0.424	-0.116	
22.955	-0.153	-0.087	
22.960	-0.451	-0.072	
22.965	0.283	-0.087	
22.970	0.265	-0.061	
22.975	-0.410	-0.018	
22.980	-0.049	-0.021	
22.985	0.532	-0.018	
22.990	-0.296	0.020	
22.995	-0.281	0.019	
23.000	0.596	0.003	
23.005	-0.006	0.037	
23.010	-0.367	0.056	
23.015	0.462	0.043	
23.020	0.485	0.076	
23.025	-0.334	0.129	
23.030	0.068	0.126	
23.035	0.645	0.122	
23.040	-0.293	0.147	
23.045	-0.332	0.119	
23.050	0.428	0.059	
23.055	-0.153	0.036	
23.060	-0.468	0.002	
23.065	0.229	-0.055	
23.070	0.210	-0.063	
23.075	-0.467	-0.048	
23.080	-0.124	-0.070	
23.085	0.471	-0.079	
23.090	-0.345	-0.047	
23.095	-0.383	-0.051	
23.100	0.363	-0.077	
23.105	-0.031	-0.062	
23.110	-0.241	-0.040	
23.115	0.991	0.000	
23.120	1.040	0.148	
23.125	-0.133	0.329	
23.130	0.149	0.400	
23.135	0.515	0.392	
23.140	-0.383	0.353	
23.145	-0.425	0.237	
23.150	0.302	0.094	
23.155	-0.185	0.005	
23.160	-0.505	-0.065	
23.165	0.155	-0.136	
23.170	0.186	-0.146	
23.175	-0.468	-0.121	
23.180	-0.124	-0.127	
23.185	0.483	-0.117	
23.190	-0.303	-0.066	
23.195	-0.317	-0.049	
23.200	0.505	-0.051	
23.205	-0.064	-0.014	
23.210	-0.418	0.005	
23.215	0.277	-0.015	
23.220	0.258	-0.004	
23.225	-0.457	0.017	
23.230	-0.136	-0.012	
23.235	0.431	-0.038	
23.240	-0.329	-0.025	
23.245	-0.323	-0.040	
23.250	0.544	-0.059	
23.255	0.000	-0.023	
23.260	-0.363	0.008	
23.265	0.431	0.008	
23.270	0.472	0.051	
23.275	-0.335	0.111	
23.280	0.035	0.113	
23.285	0.639	0.110	
23.290	-0.262	0.136	
23.295	-0.325	0.115	
23.300	0.428	0.061	
23.305	-0.156	0.040	
23.310	-0.549	0.003	
23.315	-0.029	-0.075	
23.320	-0.031	-0.129	
23.325	-0.598	-0.164	
23.330	-0.314	-0.221	
23.335	0.097	-0.261	
23.340	-0.497	-0.261	
23.345	-0.511	-0.277	
23.350	0.146	-0.298	
23.355	-0.261	-0.275	
23.360	-0.596	-0.258	
23.365	-0.041	-0.271	
23.370	0.046	-0.256	
23.375	-0.555	-0.225	
23.380	-0.247	-0.229	
23.385	0.312	-0.222	
23.390	-0.387	-0.179	
23.395	-0.419	-0.165	
23.400	0.367	-0.167	
23.405	-0.116	-0.128	
23.410	-0.464	-0.101	
23.415	0.244	-0.105	
23.420	0.322	-0.072	
23.425	-0.406	-0.020	
23.430	-0.072	-0.017	
23.435	0.578	-0.011	
23.440	-0.265	0.032	
23.445	-0.316	0.035	
23.450	0.575	0.015	
23.455	-0.047	0.039	
23.460	-0.462	0.044	
23.465	0.168	0.001	
23.470	0.233	-0.015	
23.475	-0.448	-0.012	
23.480	-0.128	-0.044	
23.485	0.480	-0.063	
23.490	-0.310	-0.036	
23.495	-0.343	-0.038	
23.500	0.530	-0.054	
23.505	-0.014	-0.019	
23.510	-0.441	0.004	
23.515	0.235	-0.015	
23.520	0.471	0.001	
23.525	-0.215	0.053	
23.530	0.529	0.095	
23.535	1.317	0.198	
23.540	0.163	0.365	
23.545	-0.131	0.450	
23.550	0.726	0.438	
23.555	0.107	0.417	
23.560	-0.374	0.355	
23.565	0.387	0.248	
23.570	0.526	0.192	
23.575	-0.335	0.180	
23.580	-0.002	0.134	
23.585	0.715	0.104	
23.590	-0.175	0.128	
23.595	-0.227	0.122	
23.600	0.733	0.102	
23.605	0.203	0.139	
23.610	-0.267	0.172	
23.615	0.604	0.169	
23.620	0.709	0.213	
23.625	-0.192	0.279	
23.630	0.317	0.290	
23.635	0.994	0.308	
23.640	-0.043	0.364	
23.645	-0.131	0.361	
23.650	0.927	0.321	
23.655	0.465	0.343	
23.660	-0.146	0.370	
23.665	0.826	0.361	
23.670	0.960	0.403	
23.675	-0.069	0.473	
23.680	0.477	0.481	
23.685	1.184	0.491	
23.690	0.157	0.544	
23.695	0.012	0.539	
23.700	1.049	0.494	
23.705	0.434	0.498	
23.710	-0.224	0.486	
23.715	0.587	0.417	
23.720	0.585	0.377	
23.725	-0.337	0.353	
23.730	-0.070	0.269	
23.735	0.579	0.183	
23.740	-0.249	0.145	
23.745	-0.334	0.088	
23.750	0.474	0.024	
23.755	-0.060	0.013	
23.760	-0.456	0.001	
23.765	0.154	-0.043	
23.770	0.235	-0.053	
23.775	-0.451	-0.040	
23.780	-0.182	-0.065	
23.785	0.433	-0.083	
23.790	-0.299	-0.059	
23.795	-0.349	-0.060	
23.800	0.471	-0.074	
23.805	-0.026	-0.041	
23.810	-0.424	-0.017	
23.815	0.255	-0.031	
23.820	0.380	-0.011	
23.825	-0.401	0.030	
23.830	-0.127	0.019	
23.835	0.535	0.004	
23.840	-0.270	0.027	
23.845	-0.337	0.018	
23.850	0.526	-0.009	
23.855	0.043	0.014	
23.860	-0.413	0.032	
23.865	0.206	0.008	
23.870	0.283	0.008	
23.875	-0.460	0.021	
23.880	-0.212	-0.016	
23.885	0.370	-0.055	
23.890	-0.313	-0.054	
23.895	-0.383	-0.073	
23.900	0.363	-0.102	
23.905	-0.098	-0.086	
23.910	-0.471	-0.076	
23.915	0.143	-0.099	
23.920	0.239	-0.089	
23.925	-0.485	-0.062	
23.930	-0.194	-0.079	
23.935	0.633	-0.084	
23.940	-0.037	-0.024	
23.945	-0.032	0.035	
23.950	1.021	0.100	
23.955	0.343	0.222	
23.960	-0.375	0.302	
23.965	0.165	0.275	
23.970	0.224	0.219	
23.975	-0.488	0.157	
23.980	-0.236	0.052	
23.985	0.370	-0.037	
23.990	-0.326	-0.065	
23.995	-0.395	-0.098	
24.000	0.352	-0.132	
24.005	-0.087	-0.114	
24.010	-0.465	-0.097	
24.015	0.183	-0.109	
24.020	0.384	-0.082	
24.025	-0.383	-0.027	
24.030	-0.124	-0.019	
24.035	0.546	-0.015	
24.040	-0.229	0.024	
24.045	-0.285	0.029	
24.050	0.657	0.020	
24.055	0.230	0.070	
24.060	-0.279	0.120	
24.065	0.532	0.132	
24.070	0.732	0.184	
24.075	-0.192	0.258	
24.080	0.250	0.275	
24.085	1.024	0.294	
24.090	0.094	0.359	
24.095	-0.055	0.379	
24.100	1.014	0.364	
24.105	0.567	0.407	
24.110	-0.146	0.445	
24.115	0.660	0.425	
24.120	0.742	0.425	
24.125	-0.244	0.434	
24.130	-0.003	0.370	
24.135	0.669	0.290	
24.140	-0.188	0.250	
24.145	-0.311	0.183	
24.150	0.469	0.101	
24.155	-0.024	0.070	
24.160	-0.456	0.040	
24.165	0.116	-0.020	
24.170	0.314	-0.042	
24.175	-0.409	-0.029	
24.180	-0.156	-0.048	
24.185	0.469	-0.060	
24.190	-0.281	-0.032	
24.195	-0.386	-0.034	
24.200	0.404	-0.059	
24.205	-0.035	-0.042	
24.210	-0.444	-0.031	
24.215	0.177	-0.055	
24.220	0.378	-0.043	
24.225	-0.370	-0.003	
24.230	-0.114	-0.005	
24.235	0.596	-0.005	
24.240	-0.207	0.036	
24.245	-0.317	0.043	
24.250	0.553	0.025	
24.255	0.134	0.055	
24.260	-0.378	0.079	
24.265	0.288	0.061	
24.270	0.445	0.071	
24.275	-0.372	0.100	
24.280	-0.136	0.075	
24.285	0.468	0.041	
24.290	-0.299	0.040	
24.295	-0.416	0.007	
24.300	0.315	-0.048	
24.305	-0.090	-0.061	
24.310	-0.500	-0.073	
24.315	0.029	-0.114	
24.320	0.189	-0.125	
24.325	-0.460	-0.110	
24.330	-0.227	-0.126	
24.335	0.306	-0.139	
24.340	-0.358	-0.119	
24.345	-0.384	-0.123	
24.350	0.721	-0.122	
24.355	0.599	-0.022	
24.360	-0.011	0.119	
24.365	0.780	0.229	
24.370	0.639	0.342	
24.375	-0.421	0.410	
24.380	-0.285	0.345	
24.385	0.232	0.215	
24.390	-0.406	0.100	
24.395	-0.521	-0.025	
24.400	0.160	-0.142	
24.405	-0.140	-0.189	
24.410	-0.524	-0.207	
24.415	-0.018	-0.233	
24.420	0.178	-0.221	
24.425	-0.468	-0.180	
24.430	-0.227	-0.172	
24.435	0.451	-0.158	
24.440	-0.261	-0.103	
24.445	-0.370	-0.077	
24.450	0.450	-0.076	
24.455	0.023	-0.036	
24.460	-0.422	-0.006	
24.465	0.201	-0.019	
24.470	0.454	-0.002	
24.475	-0.332	0.043	
24.480	-0.076	0.044	
24.485	0.686	0.045	
24.490	-0.120	0.092	
24.495	-0.212	0.109	
24.500	0.808	0.109	
24.505	0.399	0.172	
24.510	-0.232	0.235	
24.515	0.564	0.245	
24.520	0.767	0.282	
24.525	-0.194	0.336	
24.530	0.033	0.319	
24.535	0.719	0.280	
24.540	-0.177	0.268	
24.545	-0.335	0.215	
24.550	0.434	0.130	
24.555	-0.044	0.086	
24.560	-0.503	0.042	
24.565	-0.018	-0.037	
24.570	0.175	-0.086	
24.575	-0.499	-0.102	
24.580	-0.296	-0.142	
24.585	0.276	-0.174	
24.590	-0.349	-0.161	
24.595	-0.473	-0.167	
24.600	0.230	-0.188	
24.605	-0.137	-0.170	
24.610	-0.531	-0.157	
24.615	-0.043	-0.179	
24.620	0.168	-0.177	
24.625	-0.465	-0.151	
24.630	-0.239	-0.157	
24.635	0.408	-0.156	
24.640	-0.273	-0.112	
24.645	-0.393	-0.095	
24.650	0.381	-0.100	
24.655	-0.023	-0.068	
24.660	-0.473	-0.046	
24.665	0.072	-0.068	
24.670	0.338	-0.066	
24.675	-0.396	-0.037	
24.680	-0.201	-0.046	
24.685	0.428	-0.059	
24.690	-0.310	-0.038	
24.695	-0.454	-0.051	
24.700	0.175	-0.096	
24.705	-0.197	-0.114	
24.710	-0.601	-0.140	
24.715	-0.133	-0.197	
24.720	0.061	-0.226	
24.725	-0.544	-0.224	
24.730	-0.340	-0.245	
24.735	0.219	-0.256	
24.740	-0.369	-0.227	
24.745	-0.491	-0.217	
24.750	0.183	-0.226	
24.755	-0.192	-0.204	
24.760	-0.564	-0.190	
24.765	0.158	-0.202	
24.770	0.729	-0.148	
24.775	-0.110	-0.025	
24.780	0.155	0.071	
24.785	0.649	0.144	
24.790	-0.299	0.207	
24.795	-0.500	0.179	
24.800	0.131	0.078	
24.805	-0.182	-0.005	
24.810	-0.604	-0.084	
24.815	-0.159	-0.178	
24.820	0.041	-0.232	
24.825	-0.553	-0.245	
24.830	-0.369	-0.273	
24.835	0.190	-0.286	
24.840	-0.383	-0.258	
24.845	-0.505	-0.246	
24.850	0.203	-0.249	
24.855	-0.111	-0.215	
24.860	-0.515	-0.183	
24.865	0.023	-0.185	
24.870	0.323	-0.159	
24.875	-0.393	-0.104	
24.880	-0.183	-0.087	
24.885	0.544	-0.073	
24.890	-0.207	-0.021	
24.895	-0.325	0.000	
24.900	0.587	-0.002	
24.905	0.255	0.048	
24.910	-0.311	0.100	
24.915	0.465	0.112	
24.920	0.771	0.161	
24.925	-0.188	0.239	
24.930	0.101	0.257	
24.935	0.873	0.259	
24.940	-0.041	0.295	
24.945	-0.233	0.285	
24.950	0.646	0.233	
24.955	0.213	0.224	
24.960	-0.401	0.209	
24.965	0.110	0.141	
24.970	0.276	0.086	
24.975	-0.483	0.051	
24.980	-0.343	-0.023	
24.985	0.203	-0.100	
24.990	-0.390	-0.134	
24.995	-0.529	-0.178	
25.000	0.068	-0.230	
25.005	-0.195	-0.240	
25.010	-0.587	-0.243	
25.015	-0.117	-0.268	
25.020	0.111	-0.264	
25.025	-0.521	-0.232	
25.030	-0.346	-0.233	
25.035	0.287	-0.233	
25.040	-0.337	-0.195	
25.045	-0.473	-0.180	
25.050	0.282	-0.186	
25.055	-0.044	-0.152	
25.060	-0.468	-0.120	
25.065	0.111	-0.122	
25.070	0.424	-0.093	
25.075	-0.380	-0.034	
25.080	-0.207	-0.024	
25.085	0.500	-0.028	
25.090	-0.224	0.001	
25.095	-0.363	0.001	
25.100	0.459	-0.022	
25.105	0.064	-0.001	
25.110	-0.467	0.016	
25.115	0.015	-0.019	
25.120	0.282	-0.039	
25.125	-0.451	-0.036	
25.130	-0.274	-0.069	
25.135	0.399	-0.101	
25.140	-0.288	-0.086	
25.145	-0.442	-0.092	
25.150	0.344	-0.116	
25.155	0.015	-0.094	
25.160	-0.468	-0.071	
25.165	-0.008	-0.089	
25.170	0.203	-0.094	
25.175	-0.444	-0.082	
25.180	-0.145	-0.099	
25.185	0.893	-0.081	
25.190	0.207	0.027	
25.195	-0.131	0.130	
25.200	0.697	0.186	
25.205	0.113	0.243	
25.210	-0.483	0.246	
25.215	-0.017	0.162	
25.220	0.235	0.078	
25.225	-0.460	0.022	
25.230	-0.305	-0.056	
25.235	0.349	-0.117	
25.240	-0.290	-0.120	
25.245	-0.435	-0.131	
25.250	0.303	-0.151	
25.255	0.018	-0.124	
25.260	-0.462	-0.094	
25.265	0.075	-0.100	
25.270	0.398	-0.081	
25.275	-0.380	-0.034	
25.280	-0.204	-0.030	
25.285	0.558	-0.034	
25.290	-0.185	0.004	
25.295	-0.323	0.016	
25.300	0.593	0.008	
25.305	0.267	0.054	
25.310	-0.342	0.104	
25.315	0.332	0.105	
25.320	0.687	0.133	
25.325	-0.212	0.191	
25.330	0.061	0.199	
25.335	0.992	0.208	
25.340	0.195	0.278	
25.345	-0.116	0.319	
25.350	0.886	0.320	
25.355	0.514	0.361	
25.360	-0.235	0.392	
25.365	0.451	0.358	
25.370	0.710	0.339	
25.375	-0.276	0.340	
25.380	-0.146	0.279	
25.385	0.598	0.199	
25.390	-0.172	0.163	
25.395	-0.361	0.110	
25.400	0.404	0.041	
25.405	0.058	0.023	
25.410	-0.453	0.013	
25.415	0.050	-0.031	
25.420	0.363	-0.047	
25.425	-0.403	-0.028	
25.430	-0.229	-0.045	
25.435	0.482	-0.063	
25.440	-0.239	-0.037	
25.445	-0.422	-0.037	
25.450	0.341	-0.064	
25.455	0.088	-0.050	
25.460	-0.425	-0.029	
25.465	0.163	-0.041	
25.470	0.503	-0.021	
25.475	-0.343	0.031	
25.480	-0.191	0.033	
25.485	0.607	0.023	
25.490	-0.153	0.054	
25.495	-0.339	0.057	
25.500	0.530	0.035	
25.505	0.251	0.062	
25.510	-0.358	0.095	
25.515	0.230	0.083	
25.520	0.543	0.092	
25.525	-0.335	0.124	
25.530	-0.207	0.102	
25.535	0.503	0.060	
25.540	-0.210	0.056	
25.545	-0.399	0.029	
25.550	0.343	-0.020	
25.555	0.059	-0.025	
25.560	-0.462	-0.023	
25.565	0.024	-0.056	
25.570	0.366	-0.064	
25.575	-0.401	-0.040	
25.580	-0.262	-0.053	
25.585	0.370	-0.075	
25.590	-0.299	-0.064	
25.595	-0.424	-0.077	
25.600	0.634	-0.092	
25.605	0.665	-0.014	
25.610	-0.040	0.117	
25.615	0.722	0.219	
25.620	0.802	0.331	
25.625	-0.303	0.418	
25.630	-0.249	0.382	
25.635	0.412	0.275	
25.640	-0.264	0.186	
25.645	-0.453	0.082	
25.650	0.287	-0.025	
25.655	0.000	-0.068	
25.660	-0.477	-0.085	
25.665	0.018	-0.121	
25.670	0.376	-0.119	
25.675	-0.381	-0.078	
25.680	-0.223	-0.072	
25.685	0.569	-0.067	
25.690	-0.157	-0.018	
25.695	-0.354	0.005	
25.700	0.505	-0.001	
25.705	0.294	0.040	
25.710	-0.322	0.088	
25.715	0.344	0.096	
25.720	0.715	0.131	
25.725	-0.195	0.198	
25.730	0.053	0.211	
25.735	1.005	0.221	
25.740	0.247	0.292	
25.745	-0.032	0.340	
25.750	1.130	0.362	
25.755	0.913	0.451	
25.760	0.058	0.550	
25.765	0.895	0.586	
25.770	1.206	0.637	
25.775	0.137	0.703	
25.780	0.398	0.692	
25.785	1.152	0.656	
25.790	0.216	0.651	
25.795	-0.160	0.595	
25.800	0.784	0.488	
25.805	0.407	0.430	
25.810	-0.328	0.380	
25.815	0.242	0.285	
25.820	0.540	0.218	
25.825	-0.328	0.191	
25.830	-0.192	0.128	
25.835	0.576	0.067	
25.840	-0.166	0.061	
25.845	-0.363	0.042	
25.850	0.439	0.004	
25.855	0.131	0.014	
25.860	-0.438	0.029	
25.865	0.070	-0.001	
25.870	0.436	-0.008	
25.875	-0.357	0.016	
25.880	-0.206	0.003	
25.885	0.582	-0.013	
25.890	-0.143	0.020	
25.895	-0.348	0.030	
25.900	0.463	0.012	
25.905	0.195	0.036	
25.910	-0.390	0.063	
25.915	0.198	0.047	
25.920	0.582	0.057	
25.925	-0.274	0.102	
25.930	-0.139	0.100	
25.935	0.658	0.086	
25.940	-0.116	0.112	
25.945	-0.346	0.108	
25.950	0.465	0.070	
25.955	0.152	0.073	
25.960	-0.448	0.075	
25.965	-0.023	0.027	
25.970	0.303	-0.010	
25.975	-0.442	-0.020	
25.980	-0.314	-0.063	
25.985	0.360	-0.105	
25.990	-0.268	-0.100	
25.995	-0.459	-0.108	
26.000	0.279	-0.134	
26.005	0.030	-0.116	
26.010	-0.491	-0.093	
26.015	-0.079	-0.112	
26.020	0.303	-0.117	
26.025	-0.317	-0.088	
26.030	0.052	-0.070	
26.035	1.273	0.000	
26.040	0.549	0.180	
26.045	-0.070	0.341	
26.050	0.681	0.408	
26.055	0.183	0.433	
26.060	-0.492	0.392	
26.065	-0.089	0.258	
26.070	0.259	0.125	
26.075	-0.445	0.036	
26.080	-0.332	-0.059	
26.085	0.335	-0.130	
26.090	-0.274	-0.138	
26.095	-0.479	-0.149	
26.100	0.239	-0.172	
26.105	0.040	-0.150	
26.110	-0.467	-0.119	
26.115	0.003	-0.122	
26.120	0.422	-0.103	
26.125	-0.351	-0.052	
26.130	-0.206	-0.039	
26.135	0.614	-0.033	
26.140	-0.116	0.018	
26.145	-0.339	0.042	
26.150	0.540	0.034	
26.155	0.344	0.074	
26.160	-0.310	0.123	
26.165	0.341	0.127	
26.170	0.780	0.159	
26.175	-0.134	0.227	
26.180	0.145	0.249	
26.185	1.075	0.270	
26.190	0.305	0.351	
26.195	-0.085	0.400	
26.200	0.942	0.399	
26.205	0.660	0.439	
26.210	-0.200	0.473	
26.215	0.465	0.435	
26.220	0.764	0.406	
26.225	-0.235	0.397	
26.230	-0.142	0.327	
26.235	0.633	0.237	
26.240	-0.154	0.194	
26.245	-0.389	0.134	
26.250	0.355	0.053	
26.255	0.099	0.023	
26.260	-0.450	0.009	
26.265	0.004	-0.037	
26.270	0.372	-0.055	
26.275	-0.386	-0.038	
26.280	-0.270	-0.053	
26.285	0.463	-0.072	
26.290	-0.206	-0.047	
26.295	-0.418	-0.043	
26.300	0.267	-0.069	
26.305	-0.018	-0.065	
26.310	-0.528	-0.064	
26.315	-0.119	-0.107	
26.320	0.203	-0.134	
26.325	-0.442	-0.130	
26.330	-0.323	-0.151	
26.335	0.322	-0.168	
26.340	-0.276	-0.144	
26.345	-0.462	-0.137	
26.350	0.247	-0.153	
26.355	0.030	-0.129	
26.360	-0.474	-0.101	
26.365	0.009	-0.111	
26.370	0.419	-0.097	
26.375	-0.369	-0.050	
26.380	-0.276	-0.045	
26.385	0.380	-0.059	
26.390	-0.259	-0.045	
26.395	-0.491	-0.059	
26.400	0.140	-0.106	
26.405	-0.055	-0.121	
26.410	-0.544	-0.130	
26.415	-0.128	-0.169	
26.420	0.245	-0.183	
26.425	-0.442	-0.160	
26.430	-0.329	-0.163	
26.435	0.348	-0.170	
26.440	-0.267	-0.137	
26.445	-0.491	-0.127	
26.450	0.305	-0.142	
26.455	0.332	-0.102	
26.460	-0.192	-0.028	
26.465	0.677	0.042	
26.470	0.998	0.169	
26.475	-0.188	0.315	
26.480	-0.210	0.347	
26.485	0.430	0.291	
26.490	-0.244	0.228	
26.495	-0.467	0.131	
26.500	0.262	0.017	
26.505	0.084	-0.036	
26.510	-0.451	-0.056	
26.515	-0.021	-0.095	
26.520	0.369	-0.102	
26.525	-0.375	-0.071	
26.530	-0.250	-0.072	
26.535	0.532	-0.075	
26.540	-0.151	-0.032	
26.545	-0.369	-0.011	
26.550	0.474	-0.018	
26.555	0.309	0.023	
26.560	-0.355	0.073	
26.565	0.186	0.074	
26.570	0.614	0.090	
26.575	-0.249	0.135	
26.580	-0.124	0.132	
26.585	0.808	0.121	
26.590	0.073	0.165	
26.595	-0.223	0.190	
26.600	0.790	0.187	
26.605	0.671	0.244	
26.610	-0.151	0.319	
26.615	0.593	0.341	
26.620	1.038	0.384	
26.625	-0.040	0.456	
26.630	0.111	0.457	
26.635	0.976	0.426	
26.640	0.154	0.435	
26.645	-0.224	0.408	
26.650	0.681	0.337	
26.655	0.395	0.311	
26.660	-0.354	0.292	
26.665	0.090	0.219	
26.670	0.495	0.157	
26.675	-0.335	0.132	
26.680	-0.262	0.075	
26.685	0.456	0.015	
26.690	-0.200	0.003	
26.695	-0.432	-0.021	
26.700	0.323	-0.063	
26.705	0.157	-0.055	
26.710	-0.424	-0.031	
26.715	0.032	-0.044	
26.720	0.479	-0.037	
26.725	-0.329	0.004	
26.730	-0.238	0.004	
26.735	0.553	-0.008	
26.740	-0.122	0.022	
26.745	-0.360	0.030	
26.750	0.459	0.011	
26.755	0.277	0.038	
26.760	-0.374	0.074	
26.765	0.140	0.063	
26.770	0.553	0.067	
26.775	-0.290	0.101	
26.780	-0.206	0.088	
26.785	0.608	0.061	
26.790	-0.102	0.079	
26.795	-0.366	0.075	
26.800	0.436	0.040	
26.805	0.212	0.049	
26.810	-0.428	0.064	
26.815	-0.037	0.028	
26.820	0.348	-0.002	
26.825	-0.389	-0.004	
26.830	-0.311	-0.038	
26.835	0.413	-0.076	
26.840	-0.203	-0.066	
26.845	-0.436	-0.069	
26.850	0.302	-0.093	
26.855	0.142	-0.073	
26.860	-0.453	-0.044	
26.865	-0.072	-0.060	
26.870	0.290	-0.071	
26.875	-0.395	-0.058	
26.880	-0.186	-0.073	
26.885	0.950	-0.058	
26.890	0.412	0.058	
26.895	-0.060	0.183	
26.900	0.799	0.261	
26.905	0.351	0.339	
26.910	-0.435	0.363	
26.915	-0.064	0.282	
26.920	0.348	0.179	
26.925	-0.398	0.107	
26.930	-0.308	0.017	
26.935	0.430	-0.058	
26.940	-0.204	-0.068	
26.945	-0.436	-0.079	
26.950	0.290	-0.107	
26.955	0.134	-0.088	
26.960	-0.435	-0.056	
26.965	-0.020	-0.065	
26.970	0.434	-0.060	
26.975	-0.334	-0.022	
26.980	-0.232	-0.021	
26.985	0.607	-0.025	
26.990	-0.063	0.020	
26.995	-0.325	0.045	
27.000	0.527	0.041	
27.005	0.399	0.083	
27.010	-0.297	0.136	
27.015	0.303	0.142	
27.020	0.755	0.168	
27.025	-0.168	0.225	
27.030	-0.024	0.230	
27.035	0.956	0.224	
27.040	0.256	0.279	
27.045	-0.145	0.315	
27.050	0.835	0.312	
27.055	0.631	0.352	
27.060	-0.229	0.393	
27.065	0.317	0.364	
27.070	0.732	0.334	
27.075	-0.233	0.330	
27.080	-0.194	0.270	
27.085	0.579	0.189	
27.090	-0.120	0.153	
27.095	-0.396	0.104	
27.100	0.312	0.034	
27.105	0.105	0.008	
27.110	-0.480	-0.004	
27.115	-0.116	-0.054	
27.120	0.283	-0.089	
27.125	-0.409	-0.087	
27.130	-0.331	-0.110	
27.135	0.383	-0.133	
27.140	-0.209	-0.109	
27.145	-0.438	-0.099	
27.150	0.294	-0.112	
27.155	0.128	-0.085	
27.160	-0.465	-0.052	
27.165	-0.066	-0.066	
27.170	0.415	-0.070	
27.175	-0.352	-0.039	
27.180	-0.276	-0.043	
27.185	0.501	-0.056	
27.190	-0.127	-0.024	
27.195	-0.377	-0.010	
27.200	0.410	-0.023	
27.205	0.271	0.008	
27.210	-0.389	0.048	
27.215	0.085	0.039	
27.220	0.550	0.043	
27.225	-0.296	0.078	
27.230	-0.236	0.068	
27.235	0.494	0.038	
27.240	-0.153	0.044	
27.245	-0.442	0.027	
27.250	0.216	-0.024	
27.255	0.072	-0.042	
27.260	-0.486	-0.049	
27.265	-0.104	-0.090	
27.270	0.302	-0.111	
27.275	-0.407	-0.097	
27.280	-0.337	-0.111	
27.285	0.372	-0.131	
27.290	-0.201	-0.106	
27.295	-0.464	-0.098	
27.300	0.125	-0.122	
27.305	0.011	-0.120	
27.310	-0.401	-0.109	
27.315	0.352	-0.104	
27.320	1.093	-0.018	
27.325	0.093	0.149	
27.330	0.015	0.264	
27.335	0.627	0.306	
27.340	-0.200	0.319	
27.345	-0.512	0.254	
27.350	0.070	0.122	
27.355	-0.032	0.016	
27.360	-0.543	-0.064	
27.365	-0.201	-0.153	
27.370	0.175	-0.203	
27.375	-0.460	-0.205	
27.380	-0.399	-0.221	
27.385	0.268	-0.234	
27.390	-0.253	-0.202	
27.395	-0.506	-0.184	
27.400	0.143	-0.193	
27.405	0.068	-0.168	
27.410	-0.479	-0.135	
27.415	-0.116	-0.139	
27.420	0.305	-0.135	
27.425	-0.396	-0.103	
27.430	-0.319	-0.106	
27.435	0.465	-0.114	
27.440	-0.153	-0.076	
27.445	-0.399	-0.054	
27.450	0.433	-0.057	
27.455	0.361	-0.010	
27.460	-0.325	0.053	
27.465	0.212	0.071	
27.470	0.742	0.105	
27.475	-0.172	0.173	
27.480	-0.116	0.188	
27.485	0.762	0.177	
27.490	0.049	0.206	
27.495	-0.303	0.208	
27.500	0.483	0.167	
27.505	0.305	0.161	
27.510	-0.439	0.158	
27.515	-0.131	0.095	
27.520	0.241	0.025	
27.525	-0.471	-0.019	
27.530	-0.454	-0.091	
27.535	0.117	-0.168	
27.540	-0.340	-0.200	
27.545	-0.598	-0.233	
27.550	-0.055	-0.279	
27.555	-0.131	-0.289	
27.560	-0.607	-0.283	
27.565	-0.276	-0.303	
27.570	0.043	-0.308	
27.575	-0.518	-0.287	
27.580	-0.459	-0.290	
27.585	0.142	-0.298	
27.590	-0.317	-0.270	
27.595	-0.570	-0.255	
27.600	0.009	-0.268	
27.605	-0.043	-0.252	
27.610	-0.549	-0.226	
27.615	-0.198	-0.234	
27.620	0.236	-0.227	
27.625	-0.424	-0.189	
27.630	-0.374	-0.181	
27.635	0.315	-0.183	
27.640	-0.230	-0.149	
27.645	-0.485	-0.134	
27.650	0.216	-0.147	
27.655	0.094	-0.124	
27.660	-0.476	-0.094	
27.665	-0.116	-0.106	
27.670	0.352	-0.109	
27.675	-0.418	-0.083	
27.680	-0.412	-0.096	
27.685	0.210	-0.132	
27.690	-0.302	-0.139	
27.695	-0.579	-0.162	
27.700	0.014	-0.210	
27.705	-0.037	-0.222	
27.710	-0.553	-0.215	
27.715	-0.213	-0.235	
27.720	0.204	-0.237	
27.725	-0.454	-0.206	
27.730	-0.425	-0.205	
27.735	0.212	-0.217	
27.740	-0.303	-0.197	
27.745	-0.546	-0.194	
27.750	0.288	-0.208	
27.755	0.527	-0.151	
27.760	-0.116	-0.038	
27.765	0.556	0.064	
27.770	0.835	0.186	
27.775	-0.284	0.302	
27.780	-0.337	0.300	
27.785	0.279	0.212	
27.790	-0.265	0.128	
27.795	-0.524	0.027	
27.800	0.094	-0.084	
27.805	0.024	-0.137	
27.810	-0.514	-0.155	
27.815	-0.162	-0.189	
27.820	0.279	-0.197	
27.825	-0.413	-0.165	
27.830	-0.370	-0.161	
27.835	0.364	-0.166	
27.840	-0.177	-0.129	
27.845	-0.439	-0.107	
27.850	0.322	-0.110	
27.855	0.302	-0.068	
27.860	-0.377	-0.010	
27.865	0.032	0.002	
27.870	0.570	0.019	
27.875	-0.241	0.067	
27.880	-0.178	0.074	
27.885	0.779	0.072	
27.890	0.140	0.128	
27.895	-0.261	0.169	
27.900	0.669	0.171	
27.905	0.627	0.219	
27.910	-0.224	0.281	
27.915	0.344	0.283	
27.920	0.854	0.293	
27.925	-0.133	0.332	
27.930	-0.124	0.312	
27.935	0.765	0.262	
27.940	0.079	0.258	
27.945	-0.314	0.236	
27.950	0.437	0.177	
27.955	0.267	0.153	
27.960	-0.438	0.138	
27.965	-0.125	0.071	
27.970	0.322	0.008	
27.975	-0.407	-0.019	
27.980	-0.401	-0.070	
27.985	0.264	-0.126	
27.990	-0.233	-0.135	
27.995	-0.506	-0.147	
28.000	0.140	-0.177	
28.005	0.101	-0.165	
28.010	-0.500	-0.136	
28.015	-0.174	-0.146	
28.020	0.323	-0.148	
28.025	-0.380	-0.118	
28.030	-0.358	-0.118	
28.035	0.341	-0.131	
28.040	-0.195	-0.107	
28.045	-0.468	-0.100	
28.050	0.229	-0.119	
28.055	0.201	-0.098	
28.060	-0.444	-0.061	
28.065	-0.089	-0.067	
28.070	0.471	-0.065	
28.075	-0.316	-0.027	
28.080	-0.281	-0.024	
28.085	0.546	-0.033	
28.090	-0.084	0.002	
28.095	-0.392	0.018	
28.100	0.367	-0.000	
28.105	0.346	0.023	
28.110	-0.390	0.060	
28.115	-0.063	0.045	
28.120	0.430	0.025	
28.125	-0.361	0.031	
28.130	-0.340	-0.001	
28.135	0.439	-0.045	
28.140	-0.142	-0.039	
28.145	-0.445	-0.043	
28.150	0.235	-0.074	
28.155	0.219	-0.064	
28.160	-0.432	-0.036	
28.165	-0.064	-0.048	
28.170	0.465	-0.050	
28.175	-0.348	-0.018	
28.180	-0.339	-0.025	
28.185	0.610	-0.043	
28.190	0.285	0.010	
28.195	-0.014	0.088	
28.200	1.072	0.171	
28.205	0.908	0.321	
28.210	-0.212	0.459	
28.215	0.073	0.468	
28.220	0.498	0.406	
28.225	-0.337	0.334	
28.230	-0.325	0.214	
28.235	0.474	0.092	
28.240	-0.090	0.040	
28.245	-0.399	0.002	
28.250	0.352	-0.042	
28.255	0.352	-0.026	
28.260	-0.366	0.019	
28.265	0.003	0.020	
28.270	0.590	0.028	
28.275	-0.230	0.070	
28.280	-0.229	0.073	
28.285	0.645	0.060	
28.290	0.067	0.094	
28.295	-0.310	0.115	
28.300	0.553	0.104	
28.305	0.547	0.142	
28.310	-0.264	0.198	
28.315	0.271	0.202	
28.320	0.878	0.221	
28.325	-0.056	0.280	
28.330	0.006	0.293	
28.335	1.062	0.292	
28.340	0.492	0.359	
28.345	-0.055	0.417	
28.350	0.954	0.431	
28.355	0.937	0.487	
28.360	-0.060	0.552	
28.365	0.518	0.544	
28.370	1.073	0.534	
28.375	0.003	0.554	
28.380	-0.072	0.508	
28.385	0.817	0.423	
28.390	0.165	0.382	
28.395	-0.328	0.330	
28.400	0.430	0.240	
28.405	0.395	0.195	
28.410	-0.387	0.175	
28.415	-0.076	0.112	
28.420	0.514	0.059	
28.425	-0.279	0.053	
28.430	-0.290	0.025	
28.435	0.552	-0.008	
28.440	0.026	0.017	
28.445	-0.339	0.038	
28.450	0.447	0.032	
28.455	0.454	0.069	
28.460	-0.340	0.122	
28.465	0.037	0.117	
28.470	0.666	0.111	
28.475	-0.206	0.141	
28.480	-0.220	0.132	
28.485	0.698	0.105	
28.490	0.158	0.134	
28.495	-0.271	0.158	
28.500	0.553	0.149	
28.505	0.558	0.181	
28.510	-0.277	0.227	
28.515	0.166	0.216	
28.520	0.762	0.208	
28.525	-0.156	0.237	
28.530	-0.169	0.220	
28.535	0.790	0.185	
28.540	0.203	0.208	
28.545	-0.252	0.224	
28.550	0.613	0.205	
28.555	0.587	0.230	
28.560	-0.300	0.268	
28.565	0.084	0.241	
28.570	0.681	0.208	
28.575	-0.204	0.211	
28.580	-0.241	0.175	
28.585	0.613	0.122	
28.590	0.027	0.120	
28.595	-0.355	0.111	
28.600	0.383	0.072	
28.605	0.381	0.076	
28.610	-0.416	0.098	
28.615	-0.133	0.064	
28.620	0.529	0.028	
28.625	-0.137	0.042	
28.630	0.094	0.057	
28.635	1.416	0.121	
28.640	0.877	0.306	
28.645	-0.075	0.483	
28.650	0.518	0.539	
28.655	0.276	0.524	
28.660	-0.494	0.446	
28.665	-0.221	0.283	
28.670	0.279	0.120	
28.675	-0.401	0.015	
28.680	-0.432	-0.084	
28.685	0.271	-0.163	
28.690	-0.180	-0.175	
28.695	-0.520	-0.176	
28.700	0.067	-0.198	
28.705	0.160	-0.182	
28.710	-0.468	-0.145	
28.715	-0.168	-0.143	
28.720	0.412	-0.134	
28.725	-0.329	-0.090	
28.730	-0.364	-0.080	
28.735	0.407	-0.090	
28.740	-0.117	-0.063	
28.745	-0.462	-0.052	
28.750	0.223	-0.074	
28.755	0.323	-0.058	
28.760	-0.401	-0.017	
28.765	-0.050	-0.019	
28.770	0.651	-0.009	
28.775	-0.194	0.046	
28.780	-0.201	0.068	
28.785	0.819	0.076	
28.790	0.264	0.145	
28.795	-0.264	0.201	
28.800	0.569	0.206	
28.805	0.598	0.238	
28.810	-0.300	0.278	
28.815	0.001	0.246	
28.820	0.613	0.199	
28.825	-0.293	0.183	
28.830	-0.389	0.124	
28.835	0.308	0.037	
28.840	-0.183	-0.010	
28.845	-0.555	-0.060	
28.850	-0.049	-0.135	
28.855	-0.011	-0.178	
28.860	-0.585	-0.196	
28.865	-0.305	-0.238	
28.870	0.207	-0.260	
28.875	-0.439	-0.238	
28.880	-0.496	-0.237	
28.885	0.186	-0.250	
28.890	-0.220	-0.226	
28.895	-0.569	-0.211	
28.900	-0.017	-0.228	
28.905	0.082	-0.218	
28.910	-0.528	-0.190	
28.915	-0.226	-0.197	
28.920	0.352	-0.193	
28.925	-0.357	-0.150	
28.930	-0.390	-0.135	
28.935	0.384	-0.138	
28.940	-0.090	-0.101	
28.945	-0.453	-0.075	
28.950	0.241	-0.084	
28.955	0.332	-0.056	
28.960	-0.396	-0.008	
28.965	-0.111	-0.010	
28.970	0.503	-0.014	
28.975	-0.288	0.014	
28.980	-0.320	0.008	
28.985	0.561	-0.014	
28.990	0.014	0.015	
28.995	-0.415	0.035	
29.000	0.241	0.012	
29.005	0.265	0.013	
29.010	-0.494	0.025	
29.015	-0.226	-0.018	
29.020	0.341	-0.064	
29.025	-0.358	-0.070	
29.030	-0.407	-0.096	
29.035	0.381	-0.128	
29.040	-0.085	-0.107	
29.045	-0.479	-0.090	
29.050	0.154	-0.106	
29.055	0.213	-0.092	
29.060	-0.488	-0.064	
