Time	Potential	EKG	Unnamed: 3
0.0	-0.134	-0.004971609522234277	
0.005	-0.153	-0.028508062861572897	
0.01	-0.226	-0.06481540719790427	
0.015	-0.160	-0.103968485595624	
0.02	-0.143	-0.13774606465303135	
0.025	-0.223	-0.16023599689950985	
0.03	-0.204	-0.17650295354111456	
0.035	-0.163	-0.18898850226118347	
0.04	-0.282	-0.2001454597761015	
0.045	-0.235	-0.21136557695687364	
0.05	0.171	-0.20254602344042294	
0.055	0.401	-0.14042989694152003	
0.06	0.491	-0.01614814388944627	
0.065	0.482	0.1362147071209836	
0.07	0.165	-0.16023599689950985	
0.075	-0.168	-0.1612460206127617	
0.08	-0.204	-0.17650295354111456	
0.085	-0.186	0.14434636402657008	
0.09	-0.259	0.0236823799621246	
0.095	-0.259	-0.08256049196996008	
0.1	-0.171	-0.1612460206127617	
0.105	-0.217	-0.2104528733181211	
0.11	-0.264	-0.23649939469028064	
0.115	-0.151	-0.24358187388914604	
0.12	-0.111	-0.23530008481453726	
0.125	-0.192	-0.21587676347466578	
0.13	-0.111	-0.1915588577022757	
0.135	-0.003	-0.1633336336372324	
0.14	-0.082	-0.131474495365185	
0.145	-0.090	-0.10180629703337948	
0.15	0.037	-0.07699758658891256	
0.155	-0.043	-0.05641427222403716	
0.16	-0.102	-0.042806513245019676	
0.165	0.056	-0.03347123738303697	
0.17	0.082	-0.02108926542579335	
0.175	-0.011	-0.003112621335299621	
0.18	0.160	0.019377380605979367	
0.185	0.343	0.057941546913172284	
0.19	0.262	0.11345476377469448	
0.195	0.241	0.172984791674782	
0.2	0.405	0.22517572707681704	
0.205	0.344	0.27068018234256863	
0.21	0.236	0.3039804026834644	
0.215	0.338	0.32153775861487643	
0.22	0.280	0.32407144108476743	
0.225	0.041	0.3057631077920878	
0.23	-0.002	0.26124975226100444	
0.235	0.061	0.19606459764715783	
0.24	-0.113	0.12347259852603362	
0.245	-0.154	0.052865266311465126	
0.25	-0.055	-0.010757405726167311	
0.255	-0.089	-0.060215982561533335	
0.26	-0.186	-0.0930935538584414	
0.265	-0.098	-0.11347594716532095	
0.27	-0.047	-0.12482270392991254	
0.275	-0.149	-0.12624171009218965	
0.28	-0.073	-0.11878635461855462	
0.285	0.015	-0.10587094780461462	
0.29	-0.095	-0.09052498963638414	
0.295	-0.107	-0.07720051239057256	
0.3	-0.008	-0.06773431312635478	
0.305	-0.058	-0.06319951230487872	
0.31	-0.136	-0.06115728656104104	
0.315	-0.046	-0.062471354630055	
0.32	0.001	-0.06377908728391762	
0.325	-0.096	-0.062284782159934285	
0.33	-0.056	-0.05780776290067244	
0.335	0.026	-0.05182297322779803	
0.34	-0.105	-0.04954335729820735	
0.345	-0.137	-0.05224149072677859	
0.35	-0.055	-0.06069157071983448	
0.355	-0.139	-0.07518776768007623	
0.36	-0.204	-0.09421067595912053	
0.365	-0.119	-0.1124462176391143	
0.37	-0.104	-0.12773116265173326	
0.375	-0.194	-0.13933887518329083	
0.38	-0.153	-0.1448250002549654	
0.385	-0.140	-0.14975106568818036	
0.39	-0.236	-0.15957219018865443	
0.395	-0.171	-0.1693000110954835	
0.4	0.235	-0.15558452702128817	
0.405	0.381	-0.09209915583115416	
0.41	0.293	0.013711341154448097	
0.415	0.213	-0.12773116265173326	
0.42	-0.012	-0.13055780510693232	
0.425	-0.198	-0.13055780510693232	
0.43	-0.178	-0.12547704808412177	
0.435	-0.085	0.03834548138291528	
0.44	-0.169	-0.036552135808241654	
0.445	-0.195	-0.09337920951996051	
0.45	-0.098	-0.13055780510693232	
0.455	-0.104	-0.15208831377887222	
0.46	-0.182	-0.15738478450477628	
0.465	-0.076	-0.15142275417948825	
0.47	-0.043	-0.1405590285893377	
0.475	-0.137	-0.12547704808412177	
0.48	-0.105	-0.11092269179416249	
0.485	0.006	-0.09755174321881555	
0.49	-0.070	-0.08559378298156695	
0.495	-0.061	-0.07148198300132286	
0.5	0.131	-0.049464685014277476	
0.505	0.087	-0.021057968693220304	
0.51	0.001	0.009480767498701635	
0.515	0.212	0.04161227791819769	
0.52	0.332	0.08355912475772362	
0.525	0.233	0.13543510253187785	
0.53	0.273	0.19001492913844814	
0.535	0.335	0.23455681629425235	
0.54	0.194	0.26037965950942865	
0.545	0.195	0.26939555900354384	
0.55	0.404	0.2736110407503636	
0.555	0.323	0.28201839410303214	
0.56	0.157	0.2883628935782351	
0.565	0.233	0.2835819235268956	
0.57	0.226	0.26665634905314006	
0.575	0.011	0.2363776370082285	
0.58	0.021	0.19492839152190447	
0.585	0.117	0.14766461446022214	
0.59	-0.050	0.10144050389178572	
0.595	-0.107	0.05829084550163437	
0.6	0.004	0.017614804215257178	
0.605	-0.026	-0.014881898797489204	
0.61	-0.165	-0.03967602251799394	
0.615	-0.116	-0.061470233534276705	
0.62	-0.076	-0.08426494145424998	
0.625	-0.174	-0.1045954372714519	
0.63	-0.127	-0.1161270172479254	
0.635	-0.003	-0.11930710996252529	
0.64	-0.093	-0.1135189229302397	
0.645	-0.124	-0.10275356347344958	
0.65	0.088	-0.08639181621806996	
0.655	0.023	-0.06283929061148155	
0.66	-0.119	-0.04070647796348079	
0.665	-0.027	-0.028513261544057915	
0.67	0.058	-0.024226646444132846	
0.675	-0.096	-0.021575713802365618	
0.68	-0.056	-0.02118481388332788	
0.685	0.032	-0.024324585150482858	
0.69	-0.119	-0.03046854328976807	
0.695	-0.192	-0.0457718382906778	
0.7	-0.130	-0.0694633909673775	
0.705	-0.209	-0.10281030837509098	
0.71	-0.250	-0.13864774784764777	
0.715	-0.160	-0.16554825444276533	
0.72	-0.133	-0.18223341005919458	
0.725	-0.230	-0.19152222064604468	
0.73	-0.226	-0.1942058077867995	
0.735	-0.178	-0.1973532411673411	
0.74	-0.209	-0.20442857249683832	
0.745	-0.084	-0.19975868066291003	
0.75	0.332	-0.158433584842757	
0.755	0.402	-0.06773132494550278	
0.76	0.160	0.04731498130357697	
0.765	0.041	-0.18223341005919458	
0.77	-0.113	-0.19152222064604468	
0.775	-0.302	-0.1942058077867995	
0.78	-0.316	0.027732480154401332	
0.785	-0.221	-0.07133438689120569	
0.79	-0.258	-0.15935246613426043	
0.795	-0.273	-0.21778899953706243	
0.8	-0.188	-0.24849777957575345	
0.805	-0.217	-0.2607232136760071	
0.81	-0.291	-0.2626644899081039	
0.815	-0.197	-0.2566232685510295	
0.82	-0.143	-0.2451680855802902	
0.825	-0.230	-0.23150623725338013	
0.83	-0.186	-0.21529069443109386	
0.835	-0.073	-0.19630204999140755	
0.84	-0.119	-0.17636752646134912	
0.845	-0.159	-0.15486435794948272	
0.85	-0.066	-0.1344793521986006	
0.855	-0.072	-0.12068962207230013	
0.86	-0.153	-0.10973267510271742	
0.865	-0.049	-0.09862483147287224	
0.87	0.076	-0.08409407771476209	
0.875	-0.055	-0.0635512122842937	
0.88	0.014	-0.03933461300888526	
0.885	0.232	-0.008220506552464061	
0.89	0.143	0.03163482873369454	
0.895	0.123	0.0760601935846818	
0.9	0.294	0.12056623373119031	
0.905	0.258	0.16035648004354608	
0.91	0.061	0.1891895322747407	
0.915	0.122	0.19634486350937583	
0.92	0.166	0.183952283151537	
0.925	-0.027	0.15942887415567902	
0.93	-0.066	0.12362152831014242	
0.935	-0.021	0.07678897551295931	
0.94	-0.134	0.023640787820457237	
0.945	-0.162	-0.026945056428925397	
0.95	-0.031	-0.0644152955387868	
0.955	-0.050	-0.0876281914705544	
0.96	-0.137	-0.09779882947965288	
0.965	-0.078	-0.09762584827726578	
0.97	-0.043	-0.09604140776094544	
0.975	-0.137	-0.09659550951981657	
0.98	-0.076	-0.09235488420097987	
0.985	0.084	-0.08115980152622287	
0.99	-0.029	-0.06339075789659251	
0.995	-0.090	-0.043990550143863175	
1.0	0.067	-0.02837662580479173	
1.005	-0.026	-0.018634039605986866	
1.01	-0.114	-0.017874134851564288	
1.015	0.000	-0.019597191425738545	
1.02	0.087	-0.019976049587903853	
1.025	-0.093	-0.016652657707513313	
1.03	-0.079	-0.016396336514623112	
1.035	0.059	-0.020102424570343436	
1.04	-0.113	-0.02739702501198377	
1.045	-0.206	-0.041049832574665414	
1.05	-0.137	-0.0663514726037121	
1.055	-0.174	-0.1006000104181954	
1.06	-0.250	-0.13490158811790098	
1.065	-0.174	-0.16059056367895114	
1.07	-0.127	-0.17894941782965765	
1.075	-0.197	-0.18767281722074286	
1.08	-0.177	-0.18538405707116715	
1.085	-0.171	-0.1810695466886645	
1.09	-0.239	-0.1864489237597406	
1.095	-0.104	-0.18805515457085115	
1.1	0.434	-0.1502097426661016	
1.105	0.543	-0.04754745856289038	
1.11	0.259	-0.14823211358236127	
1.115	0.140	-0.1502097426661016	
1.12	-0.014	-0.1502097426661016	
1.125	-0.209	-0.1502097426661016	
1.13	-0.188	-0.14823211358236127	
1.135	-0.093	0.03801081777670522	
1.14	-0.182	-0.04542291720653521	
1.145	-0.220	-0.10810769730911814	
1.15	-0.102	-0.14823211358236127	
1.155	-0.136	-0.16956921968766944	
1.16	-0.226	-0.1790261878937069	
1.165	-0.122	-0.17754630679638406	
1.17	-0.064	-0.16984947151819868	
1.175	-0.145	-0.15778365750933782	
1.18	-0.096	-0.1394313933811656	
1.185	0.047	-0.11592626248009925	
1.19	-0.046	-0.09046320244178917	
1.195	-0.072	-0.06518725999742016	
1.2	0.140	-0.038175776502892826	
1.205	0.091	-0.00854023827140919	
1.21	-0.041	0.01887600868457034	
1.215	0.142	0.041456088293195255	
1.22	0.294	0.06824130551978566	
1.225	0.154	0.1041755105528797	
1.23	0.197	0.14450327802438143	
1.235	0.416	0.1841323495645234	
1.24	0.346	0.2275680518264399	
1.245	0.309	0.2727558659585917	
1.25	0.503	0.3178167740303691	
1.255	0.439	0.35849851737915994	
1.26	0.235	0.3838562797599825	
1.265	0.308	0.3874046780304735	
1.27	0.282	0.36923932468628146	
1.275	-0.015	0.32618447195963696	
1.28	-0.026	0.2594596477929376	
1.285	0.070	0.18111896211216066	
1.29	-0.078	0.105629205780778	
1.295	-0.146	0.03875123755692786	
1.3	-0.055	-0.015237533210075127	
1.305	-0.102	-0.0604400468125817	
1.31	-0.195	-0.09408032145827763	
1.315	-0.113	-0.11564869934448724	
1.32	-0.053	-0.12874405375853681	
1.325	-0.139	-0.13172107022202972	
1.33	-0.117	-0.12656374996861275	
1.335	-0.015	-0.11593000484235547	
1.34	-0.099	-0.10632657476650867	
1.345	-0.148	-0.09725213298650873	
1.35	-0.041	-0.090291477280734	
1.355	-0.079	-0.0884233996515794	
1.36	-0.180	-0.09107056791593493	
1.365	-0.102	-0.09568969258356308	
1.37	-0.050	-0.100735656475074	
1.375	-0.186	-0.10770585094178821	
1.38	-0.156	-0.11360119553288799	
1.385	-0.049	-0.11892003437777829	
1.39	-0.153	-0.12329161159201624	
1.395	-0.183	-0.1262870847436342	
1.4	-0.075	-0.1272966693013043	
1.405	-0.114	-0.128371971560442	
1.41	-0.221	-0.1320977100000256	
1.415	-0.136	-0.1367275710479075	
1.42	-0.061	-0.13967652865218017	
1.425	-0.165	-0.13969657949800085	
1.43	-0.195	-0.136665914661996	
1.435	-0.157	-0.14089637368741276	
1.44	-0.213	-0.15526176155049987	
1.445	-0.082	-0.1643353777233763	
1.45	0.463	-0.12923414910681305	
1.455	0.649	-0.023237494315976322	
1.46	0.355	-0.1320977100000256	
1.465	0.227	-0.136665914661996	
1.47	0.043	-0.136665914661996	
1.475	-0.200	-0.136665914661996	
1.48	-0.210	-0.1347835933029201	
1.485	-0.098	-0.12923414910681305	
1.49	-0.174	-0.0191522506044668	
1.495	-0.200	-0.09437039291535687	
1.5	-0.075	-0.13934728951176806	
1.505	-0.085	-0.15922388920100236	
1.51	-0.213	-0.16410151622568314	
1.515	-0.146	-0.16086108916975186	
1.52	-0.067	-0.15660024530906116	
1.525	-0.131	-0.1496088029375431	
1.53	-0.108	-0.1347835933029201	
1.535	0.021	-0.11489934970383911	
1.54	-0.044	-0.09512359657734407	
1.545	-0.111	-0.07541470831816495	
1.55	0.056	-0.055387833925711824	
1.555	0.065	-0.03719011467866802	
1.56	-0.038	-0.017116269968972656	
1.565	0.163	0.009116677753239244	
1.57	0.282	0.045453317126001716	
1.575	0.108	0.08838223141340543	
1.58	0.148	0.12714688931314022	
1.585	0.395	0.16213534997141538	
1.59	0.323	0.20193217506427458	
1.595	0.200	0.24253043820821119	
1.6	0.381	0.2735705660357143	
1.605	0.346	0.294861856160188	
1.61	0.165	0.30489224025685857	
1.615	0.242	0.3020360599258817	
1.62	0.253	0.2854359098704519	
1.625	0.037	0.25544763990857366	
1.63	-0.017	0.21212656952236322	
1.635	0.068	0.157061087954096	
1.64	-0.067	0.09897640241337788	
1.645	-0.146	0.04258992294209402	
1.65	-0.047	-0.007486484157162824	
1.655	-0.078	-0.048138558046414204	
1.66	-0.178	-0.08001578029852928	
1.665	-0.101	-0.0999826127303434	
1.67	-0.040	-0.1116119643534745	
1.675	-0.134	-0.11647397410738138	
1.68	-0.116	-0.11284200918984012	
1.685	0.004	-0.1040068591421	
1.69	-0.089	-0.09500529324308347	
1.695	-0.182	-0.08937005149030361	
1.7	-0.096	-0.08954582118047819	
1.705	-0.124	-0.10016379529912964	
1.71	-0.218	-0.11497504438216635	
1.715	-0.137	-0.1289957491632438	
1.72	-0.053	-0.1366389336911642	
1.725	-0.148	-0.138450240045421	
1.73	-0.116	-0.13183545491652904	
1.735	-0.031	-0.12002608848573272	
1.74	-0.165	-0.11400546951632273	
1.745	-0.262	-0.1173735846016586	
1.75	-0.183	-0.13254751713365834	
1.755	-0.203	-0.15815161296979502	
1.76	-0.274	-0.18398349982275253	
1.765	-0.206	-0.20099290911764556	
1.77	-0.140	-0.2116158758399626	
1.775	-0.233	-0.21547836970668377	
1.78	-0.218	-0.21285073179232683	
1.785	-0.108	-0.20497439586011476	
1.79	-0.174	-0.19601628347593425	
1.795	-0.108	-0.18140785801000525	
1.8	0.309	-0.1394528549736067	
1.805	0.431	-0.05307895275829202	
1.81	0.178	-0.16245862985757706	
1.815	0.094	-0.16000224680595926	
1.82	-0.021	-0.1454853622567686	
1.825	-0.198	0.15147554287301268	
1.83	-0.226	0.08308915631507971	
1.835	-0.117	0.0020791642397239153	
1.84	-0.186	-0.0739783085045342	
1.845	-0.229	-0.13045823681090468	
1.85	-0.085	-0.16245862985757706	
1.855	-0.081	-0.17406795225686097	
1.86	-0.198	-0.17110983531353613	
1.865	-0.120	-0.16000224680595926	
1.87	0.015	-0.1454853622567686	
1.875	-0.095	-0.12455183753045482	
1.88	-0.072	-0.09993931769170186	
1.885	0.053	-0.07385150462018227	
1.89	-0.060	-0.0550153389475012	
1.895	-0.125	-0.04355183087114463	
1.9	0.044	-0.03640568563406715	
1.905	0.049	-0.0300384202148823	
1.91	-0.046	-0.01919995778212878	
1.915	0.154	2.6343223221016285e-05	
1.92	0.312	0.035607804488826875	
1.925	0.163	0.08437926280151807	
1.93	0.198	0.13500307053550306	
1.935	0.412	0.18323934009154513	
1.94	0.309	0.22899687784858822	
1.945	0.161	0.264359418753766	
1.95	0.360	0.28460831888301996	
1.955	0.344	0.2940154760170663	
1.96	0.096	0.2947540333442008	
1.965	0.180	0.27896577601944417	
1.97	0.247	0.2526228719914144	
1.975	-0.029	0.2164073455850881	
1.98	-0.072	0.16796730947608646	
1.985	0.085	0.11220313648971669	
1.99	-0.053	0.06106038872488354	
1.995	-0.166	0.015408108645716456	
2.0	-0.066	-0.024463609901341683	
2.005	-0.082	-0.06098291534761889	
2.01	-0.200	-0.09113679834381805	
2.015	-0.117	-0.11106263900446368	
2.02	-0.047	-0.12244554445481973	
2.025	-0.142	-0.127496802700581	
2.03	-0.122	-0.12399085731748079	
2.035	0.070	-0.1108901440718302	
2.04	-0.058	-0.09091785315315434	
2.045	-0.110	-0.0715289999672403	
2.05	0.037	-0.054537558807722944	
2.055	0.020	-0.040002817665512516	
2.06	-0.098	-0.030065928466344656	
2.065	-0.017	-0.023114759927314477	
2.07	0.052	-0.01950003930194373	
2.075	-0.075	-0.018418259971531115	
2.08	-0.093	-0.0200049097351253	
2.085	-0.024	-0.026986111643070358	
2.09	-0.128	-0.0438656034875739	
2.095	-0.246	-0.06748016880641818	
2.1	-0.153	-0.09762249161003103	
2.105	-0.168	-0.13099776607574387	
2.11	-0.265	-0.16098019457076165	
2.115	-0.185	-0.18114895644816797	
2.12	-0.108	-0.19253815740949684	
2.125	-0.213	-0.19535317085491213	
2.13	-0.217	-0.19299638493166343	
2.135	-0.149	-0.18903700970908985	
2.14	-0.188	-0.1898386947088152	
2.145	-0.160	-0.18744094975000736	
2.15	0.200	-0.16062541761039179	
2.155	0.412	-0.09095347680337307	
2.16	0.264	-0.16098019457076165	
2.165	0.206	-0.1646841561715005	
2.17	0.043	-0.1646841561715005	
2.175	-0.201	-0.1646841561715005	
2.18	-0.213	-0.1646841561715005	
2.185	-0.131	-0.1646841561715005	
2.19	-0.204	-0.045785619309307225	
2.195	-0.267	-0.11643277517879459	
2.2	-0.142	-0.1646841561715005	
2.205	-0.134	-0.1929597530575059	
2.21	-0.261	-0.20593269448649115	
2.215	-0.210	-0.20822208274499457	
2.22	-0.137	-0.20954046537691523	
2.225	-0.232	-0.20929434739515412	
2.23	-0.212	-0.20504341825191585	
2.235	-0.058	-0.19504814716844177	
2.24	-0.114	-0.17976634666241026	
2.245	-0.163	-0.15947881431920968	
2.25	-0.020	-0.1366983072613933	
2.255	-0.014	-0.11293435434670207	
2.26	-0.120	-0.09196779279722708	
2.265	-0.005	-0.07124096341996904	
2.27	0.151	-0.04648720166153991	
2.275	0.011	-0.01729914423515532	
2.28	0.008	0.011898815846978886	
2.285	0.230	0.03897489908019908	
2.29	0.187	0.07027489614747652	
2.295	0.079	0.10447956812066228	
2.3	0.255	0.134272156064861	
2.305	0.241	0.1601066671019477	
2.31	0.075	0.17703944776971992	
2.315	0.171	0.18370365965290247	
2.32	0.203	0.18150426387622767	
2.325	-0.040	0.16674118600187743	
2.33	-0.099	0.13286531145678238	
2.335	0.037	0.08592080358256815	
2.34	-0.050	0.03833493870560595	
2.345	-0.171	-0.003482304106308007	
2.35	-0.092	-0.040807976408818794	
2.355	-0.096	-0.07487768415421331	
2.36	-0.217	-0.10385933427101714	
2.365	-0.191	-0.1273474816315155	
2.37	-0.128	-0.1495578644508741	
2.375	-0.220	-0.16814938310777638	
2.38	-0.203	-0.17909155847395092	
2.385	-0.096	-0.1811747335293042	
2.39	-0.162	-0.17964890080589793	
2.395	-0.221	-0.17541042275517907	
2.4	-0.101	-0.1688643555302854	
2.405	-0.079	-0.1599118239465825	
2.41	-0.159	-0.14879457473338814	
2.415	-0.120	-0.13435716154903904	
2.42	-0.058	-0.12361366623449688	
2.425	-0.163	-0.11912497639060908	
2.43	-0.194	-0.11907795735177107	
2.435	-0.082	-0.12221655583813151	
2.44	-0.162	-0.13064849361022035	
2.445	-0.258	-0.14138696186142177	
2.45	-0.175	-0.1548799360254279	
2.455	-0.217	-0.17392995004032724	
2.46	-0.342	-0.1977920833426022	
2.465	-0.276	-0.22334786500154763	
2.47	-0.191	-0.2436010149236651	
2.475	-0.277	-0.25712206729162956	
2.48	-0.282	-0.261077299723153	
2.485	-0.226	-0.26020082063921357	
2.49	-0.326	-0.2656571136115361	
2.495	-0.349	-0.27641460231031445	
2.5	-0.092	-0.27683936199724535	
2.505	0.256	-0.2418559937499661	
2.51	0.320	-0.14878139451410652	
2.515	0.338	-0.014352530142031274	
2.52	0.180	-0.23645498560489206	
2.525	-0.163	-0.22222598621113032	
2.53	-0.244	-0.21384556258538542	
2.535	-0.169	-0.2011819738000813	
2.54	-0.250	-0.01165627700891912	
2.545	-0.310	-0.10047027046204789	
2.55	-0.182	-0.16978102512322366	
2.555	-0.182	-0.21384556258538542	
2.56	-0.276	-0.23791390975164758	
2.565	-0.198	-0.2433377296467	
2.57	-0.101	-0.23645498560489206	
2.575	-0.188	-0.22222598621113032	
2.58	-0.186	-0.2011819738000813	
2.585	-0.050	-0.1790230401914754	
2.59	-0.075	-0.1566487018654781	
2.595	-0.128	-0.1315980215402616	
2.6	-0.014	-0.10673592100589305	
2.605	0.009	-0.08378489344256247	
2.61	-0.066	-0.06404200984872856	
2.615	0.072	-0.03933807015845653	
2.62	0.277	-0.0033204552294106137	
2.625	0.099	0.04269334946483428	
2.63	0.123	0.0887233460310685	
2.635	0.372	0.13110466578823432	
2.64	0.317	0.1773716470610054	
2.645	0.251	0.2252718447357264	
2.65	0.434	0.270312215798184	
2.655	0.427	0.31130430443424983	
2.66	0.224	0.33985760459449343	
2.665	0.306	0.3506013484886816	
2.67	0.390	0.3487574525428068	
2.675	0.140	0.3346845897358532	
2.68	0.068	0.30263859701040774	
2.685	0.239	0.25912936836103995	
2.69	0.032	0.21043374056295758	
2.695	-0.105	0.15721805344171202	
2.7	-0.003	0.0992620449133009	
2.705	-0.035	0.042388269250015376	
2.71	-0.148	-0.007094419198868246	
2.715	-0.104	-0.04546935442925953	
2.72	-0.035	-0.07322342366916407	
2.725	-0.142	-0.09321976327813121	
2.73	-0.145	-0.10439690450889692	
2.735	0.003	-0.1069149797925435	
2.74	-0.052	-0.10248603921471311	
2.745	-0.131	-0.09277371196406373	
2.75	-0.032	-0.08081064510210278	
2.755	-0.035	-0.0735785552834489	
2.76	-0.169	-0.07307119878111965	
2.765	-0.107	-0.07654398807657199	
2.77	0.017	-0.08020922095890132	
2.775	-0.116	-0.08116266451826885	
2.78	-0.166	-0.08146099009495827	
2.785	-0.044	-0.08594849316155118	
2.79	-0.119	-0.09442098298232666	
2.795	-0.207	-0.10479355944512647	
2.8	-0.117	-0.11486247206452425	
2.805	-0.111	-0.12652195704568853	
2.81	-0.203	-0.13804717732817945	
2.815	-0.140	-0.14359810554148114	
2.82	-0.044	-0.1431851624203323	
2.825	-0.163	-0.1401278623456224	
2.83	-0.182	-0.13551160366699025	
2.835	-0.072	-0.13193962484198998	
2.84	-0.175	-0.134373352584916	
2.845	-0.232	-0.14184978736488563	
2.85	0.008	-0.14286889842914524	
2.855	0.358	-0.1124061094954847	
2.86	0.508	-0.024024723023991973	
2.865	0.658	0.12236055029041262	
2.87	0.613	-0.08509370889714188	
2.875	0.152	-0.08509370889714188	
2.88	-0.084	-0.08509370889714188	
2.885	-0.029	-0.08509370889714188	
2.89	-0.110	-0.08509370889714188	
2.895	-0.172	0.12309930160676623	
2.9	-0.052	0.023117305804532938	
2.905	0.000	-0.04634399324324418	
2.91	-0.145	-0.08509370889714188	
2.915	-0.120	-0.10172430305267834	
2.92	-0.031	-0.11005369388757767	
2.925	-0.145	-0.11408802403090704	
2.93	-0.154	-0.1146640351329344	
2.935	0.001	-0.10987069315535508	
2.94	-0.053	-0.10225291675873341	
2.945	-0.148	-0.0919828945707982	
2.95	-0.003	-0.08090567586157277	
2.955	0.094	-0.06529156359907351	
2.96	-0.049	-0.04414515290856533	
2.965	0.026	-0.01876806062067706	
2.97	0.216	0.008014094761234974	
2.975	0.087	0.03891210709582595	
2.98	0.139	0.07427369200143595	
2.985	0.346	0.11516790405522818	
2.99	0.277	0.15978195519591643	
2.995	0.184	0.20095481838273951	
3.0	0.389	0.23808687594066935	
3.005	0.445	0.2747637831867881	
3.01	0.236	0.30782260979368103	
3.015	0.277	0.3271707229196872	
3.02	0.367	0.331044440880075	
3.025	0.136	0.3189340027290262	
3.03	0.011	0.2862011015845632	
3.035	0.136	0.23613720090701235	
3.04	0.011	0.17585169903523573	
3.045	-0.128	0.11396127091113112	
3.05	-0.066	0.05401908747753169	
3.055	-0.063	-0.0032065247165277925	
3.06	-0.174	-0.05110537729159786	
3.065	-0.142	-0.08585644982400845	
3.07	-0.024	-0.10796881637777987	
3.075	-0.127	-0.11999578895534882	
3.08	-0.169	-0.12178278993739379	
3.085	-0.031	-0.11889794757704919	
3.09	-0.087	-0.11513184407001446	
3.095	-0.200	-0.1120208690625175	
3.1	-0.090	-0.11000501535482589	
3.105	-0.060	-0.11221639837374364	
3.11	-0.154	-0.11309891376412887	
3.115	-0.095	-0.10885956961040666	
3.12	0.120	-0.09597174121381759	
3.125	-0.072	-0.0739996549166084	
3.13	-0.122	-0.054792413683473255	
3.135	-0.014	-0.04491060826874187	
3.14	-0.072	-0.04813987810635812	
3.145	-0.163	-0.05601041810257353	
3.15	-0.114	-0.06799820058870976	
3.155	-0.146	-0.08824100840719971	
3.16	-0.261	-0.11711038322835614	
3.165	-0.210	-0.1448332149094844	
3.17	-0.110	-0.16697410539754926	
3.175	-0.172	-0.1810316932707715	
3.18	-0.198	-0.18175739579356565	
3.185	-0.114	-0.17585444844526657	
3.19	-0.175	-0.1731935842742096	
3.195	-0.268	-0.17505368188728682	
3.2	-0.099	-0.1759061869005895	
3.205	0.126	-0.16120771351646107	
3.21	0.149	-0.11517197617709957	
3.215	0.416	-0.026763696881816564	
3.22	0.392	-0.16120771351646107	
3.225	-0.069	-0.1521336768716406	
3.23	-0.220	-0.14911745312787753	
3.235	-0.119	-0.13793451193322329	
3.24	-0.157	0.0508341542285064	
3.245	-0.258	-0.03315707873644066	
3.25	-0.165	-0.1008631327452952	
3.255	-0.104	-0.14911745312787753	
3.26	-0.218	-0.17827532666055823	
3.265	-0.111	-0.18383963904892756	
3.27	0.006	-0.1717774529763207	
3.275	-0.175	-0.1521336768716406	
3.28	-0.197	-0.13793451193322329	
3.285	-0.005	-0.12667628524503804	
3.29	-0.063	-0.1160974301790315	
3.295	-0.191	-0.10527568665885342	
3.3	-0.064	-0.09789636965511883	
3.305	0.032	-0.09200897335958329	
3.31	-0.101	-0.08132703019630913	
3.315	-0.008	-0.06394004692945206	
3.32	0.168	-0.039689149895525105	
3.325	0.040	-0.01008836981584998	
3.33	0.058	0.022968718317410115	
3.335	0.311	0.061350208301187516	
3.34	0.213	0.10498699621625876	
3.345	0.079	0.1426448973092364	
3.35	0.332	0.17405551673926492	
3.355	0.436	0.2091021938544142	
3.36	0.236	0.24967198008169514	
3.365	0.169	0.2779229830207822	
3.37	0.261	0.28132503859977903	
3.375	0.032	0.2579972961600221	
3.38	-0.067	0.21287970910553694	
3.385	0.009	0.15227350431373415	
3.39	-0.125	0.08109206896146696	
3.395	-0.281	0.004670988154434917	
3.4	-0.175	-0.06704655155478961	
3.405	-0.131	-0.1268564338834826	
3.41	-0.270	-0.17023543243671319	
3.415	-0.207	-0.19613078866323752	
3.42	-0.032	-0.20366579387994121	
3.425	-0.242	-0.19988941895543624	
3.43	-0.296	-0.19616899919367997	
3.435	-0.120	-0.19780318212238399	
3.44	-0.178	-0.19979474243568762	
3.445	-0.284	-0.20130349175931947	
3.45	-0.163	-0.20018486564751814	
3.455	-0.105	-0.19781845574021864	
3.46	-0.203	-0.19213370582395659	
3.465	-0.178	-0.1802491187483185	
3.47	-0.047	-0.16772320623340667	
3.475	-0.203	-0.15776015962339512	
3.48	-0.276	-0.15620062914447314	
3.485	-0.162	-0.16391674411328533	
3.49	-0.143	-0.17670203407453505	
3.495	-0.221	-0.18324523873853255	
3.5	-0.198	-0.18229416919956315	
3.505	-0.172	-0.18681447247268404	
3.51	-0.303	-0.198061370818896	
3.515	-0.306	-0.21330771392293504	
3.52	-0.169	-0.2287495909761465	
3.525	-0.268	-0.24268907983453775	
3.53	-0.282	-0.24820172330237902	
3.535	-0.099	-0.24393741769429547	
3.54	-0.198	-0.23166818155435842	
3.545	-0.358	-0.22527489343945806	
3.55	-0.247	-0.22833926698780338	
3.555	-0.075	-0.23174965233017408	
3.56	-0.040	-0.21601233328167097	
3.565	0.119	-0.16534270970045845	
3.57	0.428	-0.22527489343945806	
3.575	0.133	-0.22527489343945806	
3.58	-0.178	-0.22527489343945806	
3.585	-0.209	-0.22527489343945806	
3.59	-0.262	0.03638312979352752	
3.595	-0.364	-0.05321122555646032	
3.6	-0.267	-0.13939051811247027	
3.605	-0.203	-0.2087642858745805	
3.61	-0.326	-0.25495159595554395	
3.615	-0.320	-0.28037232031595716	
3.62	-0.242	-0.2948073947542452	
3.625	-0.403	-0.3096049132352535	
3.63	-0.491	-0.32820270570681576	
3.635	-0.340	-0.3520414543816031	
3.64	-0.380	-0.37463188914682377	
3.645	-0.489	-0.3921722807728266	
3.65	-0.430	-0.40539445814558445	
3.655	-0.427	-0.419829530518448	
3.66	-0.544	-0.43895691532150666	
3.665	-0.465	-0.4543340767522081	
3.67	-0.335	-0.45981963391596986	
3.675	-0.432	-0.45561810141888315	
3.68	-0.428	-0.4431685346412537	
3.685	-0.276	-0.4220279109798343	
3.69	-0.284	-0.3966591226160721	
3.695	-0.419	-0.372186154787874	
3.7	-0.291	-0.3503790503590169	
3.705	-0.235	-0.33281807207849023	
3.71	-0.377	-0.32097730086671794	
3.715	-0.328	-0.312353250096846	
3.72	-0.229	-0.30580354198003756	
3.725	-0.348	-0.3046239690866507	
3.73	-0.340	-0.30420598417062816	
3.735	-0.259	-0.30300884214405	
3.74	-0.317	-0.3046338172578017	
3.745	-0.383	-0.31023547984679223	
3.75	-0.252	-0.31137048275333573	
3.755	-0.274	-0.30974355274642684	
3.76	-0.462	-0.3150344519749181	
3.765	-0.403	-0.32842163848949485	
3.77	-0.273	-0.34369419021412617	
3.775	-0.351	-0.3535939491658969	
3.78	-0.335	-0.3523286940923567	
3.785	-0.224	-0.3389500873347561	
3.79	-0.229	-0.3205186660330608	
3.795	-0.358	-0.30336669635353886	
3.8	-0.239	-0.2874249931433326	
3.805	-0.177	-0.27457904496552166	
3.81	-0.319	-0.2650745563370269	
3.815	-0.313	-0.2585590005788758	
3.82	-0.188	-0.2575676800921055	
3.825	-0.143	-0.25354252198257504	
3.83	-0.218	-0.236490085701485	
3.835	-0.143	-0.21189525307482057	
3.84	-0.192	-0.19741426139165819	
3.845	-0.261	-0.19252097423897874	
3.85	-0.066	-0.1844163933566591	
3.855	0.078	-0.16238873949223	
3.86	-0.131	-0.12919166411740002	
3.865	-0.157	-0.09967911742746458	
3.87	-0.017	-0.08538070374040027	
3.875	-0.142	-0.08456921824673946	
3.88	-0.186	-0.08969781260001775	
3.885	0.053	-0.09074309456168644	
3.89	0.052	-0.08126670416577805	
3.895	-0.154	-0.06372756534837117	
3.9	-0.073	-0.052446969494992335	
3.905	0.126	-0.046213409901437075	
3.91	0.149	-0.02527107581179925	
3.915	0.348	0.030271863711581616	
3.92	0.627	0.1228135827902306	
3.925	0.427	0.23240131776224596	
3.93	0.178	-0.02179342876895696	
3.935	0.197	-0.02179342876895696	
3.94	0.062	-0.011184238985327999	
3.945	-0.171	0.003994033867603547	
3.95	-0.034	0.173608294434456	
3.955	0.050	0.08691641951747536	
3.96	-0.107	0.02060517549379754	
3.965	-0.073	-0.02179342876895696	
3.97	0.101	-0.042056876968794496	
3.975	-0.015	-0.04662139080009331	
3.98	-0.063	-0.0389477230774714	
3.985	0.072	-0.024528515964921636	
3.99	0.075	-0.011184238985327999	
3.995	-0.009	0.003994033867603547	
4.0	0.134	0.02667523517500608	
4.005	0.183	0.05201080320234523	
4.01	-0.043	0.06942880822981948	
4.015	-0.002	0.07515330038704282	
4.02	0.337	0.08112557107191944	
4.025	0.305	0.10632868936103514	
4.03	0.180	0.1519150140728069	
4.035	0.384	0.20160477727789217	
4.04	0.334	0.24285276302631698	
4.045	0.194	0.2718192818560447	
4.05	0.415	0.2967290331499053	
4.055	0.578	0.32614658530392127	
4.06	0.413	0.3653215311630624	
4.065	0.427	0.4071216114881643	
4.07	0.680	0.445240495305208	
4.075	0.413	0.476239292921417	
4.08	0.230	0.4847999952795692	
4.085	0.383	0.4647065646690225	
4.09	0.381	0.4268803234943144	
4.095	0.168	0.3867334625092892	
4.1	0.244	0.34677335615188254	
4.105	0.279	0.30617349937609134	
4.11	0.152	0.266246256911181	
4.115	0.296	0.24317260423054582	
4.12	0.527	0.24933081227935533	
4.125	0.309	0.27517786152234247	
4.13	0.238	0.30278239507027915	
4.135	0.552	0.3288130296543401	
4.14	0.530	0.3618781106738076	
4.145	0.341	0.39764641528899825	
4.15	0.523	0.42980285758756576	
4.155	0.651	0.4592360481336645	
4.16	0.474	0.48819948493837517	
4.165	0.535	0.5161100112360161	
4.17	0.672	0.5403437763835952	
4.175	0.453	0.5521918323976311	
4.18	0.287	0.543740748688686	
4.185	0.439	0.5137828679633589	
4.19	0.329	0.4679005301229804	
4.195	0.099	0.40964813297611846	
4.2	0.215	0.34777380287662585	
4.205	0.338	0.29226438913477254	
4.21	0.091	0.2492398535568769	
4.215	0.134	0.2180741170453835	
4.22	0.293	0.19633725152764653	
4.225	0.157	0.181264609102747	
4.23	0.068	0.1737484142929134	
4.235	0.235	0.16874155388141263	
4.24	0.155	0.16193880696431096	
4.245	-0.084	0.1456714721144854	
4.25	0.037	0.1207118663387231	
4.255	0.268	0.09626643135789041	
4.26	0.287	0.0993159944735911	
4.265	0.601	0.15409159915745133	
4.27	0.912	0.2673356923486861	
4.275	0.643	0.40728476679016223	
4.28	0.282	0.5166798406099358	
4.285	0.305	0.5516312621960542	
4.29	0.207	0.5129545384266399	
4.295	-0.024	0.42672384048644973	
4.3	0.011	0.3216583713253751	
4.305	0.093	0.2132371886003411	
4.31	-0.050	0.1203696473666056	
4.315	0.061	0.06106334239472521	
4.32	0.148	0.033258155160368355	
4.325	-0.005	0.022329926305399827	
4.33	-0.116	0.01477744932096297	
4.335	0.056	0.0076584026156696116	
4.34	0.044	-0.0010372256822013034	
4.345	-0.085	-0.006250126253490244	
4.35	0.047	-0.0033259760411159084	
4.355	0.221	0.008234032658716927	
4.36	0.065	0.03034122873271034	
4.365	0.064	0.06103789790524094	
4.37	0.219	0.08725574350594517	
4.375	0.015	0.10030639589596549	
4.38	-0.005	0.10076149733854364	
4.385	0.305	0.10370340362422532	
4.39	0.261	0.11997965255874674	
4.395	0.009	0.14169848423270862	
4.4	0.250	0.15766254679523045	
4.405	0.401	0.17727433346111643	
4.41	0.169	0.20333777795206262	
4.415	0.186	0.22698786181475503	
4.42	0.433	0.24526080879796128	
4.425	0.221	0.2603805327361344	
4.43	0.021	0.2617408357657346	
4.435	0.204	0.24258099544722667	
4.44	0.082	0.20700749641195276	
4.445	-0.098	0.15980870455924834	
4.45	-0.002	0.10957154076389297	
4.455	0.038	0.06119902139979895	
4.46	-0.131	0.01647995561469219	
4.465	-0.119	-0.020002989878094186	
4.47	0.073	-0.043869021988454535	
4.475	-0.061	-0.05652095867630568	
4.48	-0.142	-0.060156517277217	
4.485	0.023	-0.0585445709812376	
4.49	0.024	-0.055983190670673075	
4.495	-0.107	-0.04905355936508092	
4.5	0.009	-0.038513026124964295	
4.505	0.084	-0.026882311497441778	
4.51	-0.090	-0.0183993197661875	
4.515	-0.111	-0.016020048032040157	
4.52	-0.003	-0.023007151187328934	
4.525	-0.078	-0.038454495179412296	
4.53	-0.128	-0.051075977088429654	
4.535	0.094	-0.05264056348182294	
4.54	0.110	-0.039981935276996894	
4.545	-0.085	-0.01995756047566498	
4.55	0.030	-0.0005817411639272213	
4.555	0.079	0.011054225977611954	
4.56	-0.122	0.010692496298730236	
4.565	-0.122	-2.3835276962363787e-05	
4.57	-0.021	-0.019090146558128716	
4.575	-0.136	-0.046394886088766026	
4.58	-0.197	-0.07303979786355058	
4.585	-0.060	-0.09272900483455364	
4.59	-0.114	-0.1099713493528852	
4.595	-0.224	-0.12589759613685886	
4.6	-0.134	-0.13562475320628076	
4.605	-0.023	-0.13993954462218894	
4.61	-0.238	-0.14124989876979205	
4.615	-0.175	-0.14306432536926905	
4.62	0.181	-0.13208684579087404	
4.625	0.297	-0.08728692493798168	
4.63	0.322	0.0019585387228552302	
4.635	0.529	0.12020209705565994	
4.64	0.287	-0.11716195025398608	
4.645	-0.166	-0.12589759613685886	
4.65	-0.177	-0.13208684579087404	
4.655	-0.125	-0.13208684579087404	
4.66	-0.224	0.04787100826044838	
4.665	-0.223	-0.04810840380347145	
4.67	-0.095	-0.11716195025398608	
4.675	-0.153	-0.16321381030050497	
4.68	-0.218	-0.18304477613204906	
4.685	-0.090	-0.18388761982010363	
4.69	-0.116	-0.17886306146384723	
4.695	-0.221	-0.17180921011784717	
4.7	-0.122	-0.16178931134020175	
4.705	-0.031	-0.14993111968487594	
4.71	-0.148	-0.1380991253525335	
4.715	-0.137	-0.1241626802135654	
4.72	0.055	-0.10717772869230352	
4.725	0.011	-0.08718219999691967	
4.73	-0.098	-0.061091987187316454	
4.735	0.067	-0.03590992566934682	
4.74	0.082	-0.016817313918768142	
4.745	-0.066	0.00016676661392067755	
4.75	0.163	0.020186283261553816	
4.755	0.322	0.05312902652265709	
4.76	0.094	0.09389832870127655	
4.765	0.151	0.13177291181315517	
4.77	0.415	0.16785110502627582	
4.775	0.264	0.2048620188436741	
4.78	0.151	0.23584597240841249	
4.785	0.354	0.25705544874398434	
4.79	0.267	0.26725542908774513	
4.795	-0.017	0.25915733198948576	
4.8	0.046	0.2270659828950714	
4.805	0.078	0.17614417235072782	
4.81	-0.114	0.11599882445371822	
4.815	-0.111	0.05670941566337044	
4.82	0.093	0.010797347469083955	
4.825	-0.092	-0.0220139599695039	
4.83	-0.191	-0.047148733727678194	
4.835	-0.053	-0.06806365929885713	
4.84	-0.026	-0.08465317564281251	
4.845	-0.171	-0.09473388193804833	
4.85	-0.111	-0.09704874315018072	
4.855	-0.041	-0.10086265848273337	
4.86	-0.168	-0.1068727816617541	
4.865	-0.159	-0.11136834631598246	
4.87	0.082	-0.10728569236864732	
4.875	-0.047	-0.09389053361374378	
4.88	-0.171	-0.07815326444758784	
4.885	-0.006	-0.06819580528798919	
4.89	0.067	-0.05957918162535761	
4.895	-0.085	-0.04665164090495501	
4.9	0.017	-0.029171888928477004	
4.905	0.157	-0.010871880643522791	
4.91	-0.047	0.007259707084441767	
4.915	-0.101	0.016555905168125946	
4.92	0.011	0.011585897099664027	
4.925	-0.178	-0.011788640126479127	
4.93	-0.337	-0.05210855779396469	
4.935	-0.299	-0.10933576019045207	
4.94	-0.316	-0.17856176798399218	
4.945	-0.412	-0.2455310216381007	
4.95	-0.343	-0.2962371916912636	
4.955	-0.250	-0.32792096306247465	
4.96	-0.395	-0.34663008275046414	
4.965	-0.410	-0.3544398827610479	
4.97	-0.221	-0.3554831213962414	
4.975	-0.137	-0.34270764786702235	
4.98	-0.072	-0.29902800971408505	
4.985	0.184	-0.22036956378694156	
4.99	0.032	-0.12956935603469613	
4.995	-0.256	-0.0655514315100089	
5.0	-0.296	-0.32034937225551685	
5.005	-0.279	-0.32034937225551685	
5.01	-0.406	-0.1525931980207926	
5.015	-0.392	-0.22147050253157488	
5.02	-0.303	-0.27948188370990745	
5.025	-0.354	-0.32466976934952974	
5.03	-0.395	-0.35208770355860686	
5.035	-0.256	-0.3593985268637544	
5.04	-0.230	-0.3524797094543943	
5.045	-0.360	-0.3375335296380082	
5.05	-0.306	-0.32034937225551685	
5.055	-0.213	-0.30685942825781937	
5.06	-0.316	-0.29859458804934214	
5.065	-0.334	-0.2895575449643362	
5.07	-0.174	-0.2814316708800833	
5.075	-0.206	-0.27263453691290407	
5.08	-0.259	-0.25718849588390863	
5.085	-0.114	-0.23437944158913976	
5.09	-0.061	-0.20840406067484119	
5.095	-0.171	-0.18062372741839294	
5.1	-0.052	-0.1483618739882463	
5.105	0.161	-0.10973349726610157	
5.11	0.073	-0.06164803861054494	
5.115	0.133	-0.0026368246166465735	
5.12	0.369	0.06469415639274875	
5.125	0.148	0.12535992630848808	
5.13	-0.064	0.1596320695405099	
5.135	0.218	0.1646706337240528	
5.14	0.280	0.16372851329587468	
5.145	0.035	0.1652669112242564	
5.15	0.073	0.16155774764573227	
5.155	0.155	0.14637623740678068	
5.16	-0.090	0.11834350836594375	
5.165	-0.125	0.07923754602967065	
5.17	-0.003	0.034735285597334596	
5.175	-0.116	-0.011534935597646801	
5.18	-0.227	-0.05440656709362952	
5.185	-0.107	-0.08935687594728166	
5.19	-0.063	-0.11720080162874608	
5.195	-0.204	-0.13374105558021976	
5.2	-0.102	-0.13747995594479318	
5.205	0.093	-0.12754884835443372	
5.21	-0.127	-0.10763007672022105	
5.215	-0.151	-0.08984020057240644	
5.22	0.073	-0.07524403099161017	
5.225	-0.037	-0.062469745936704846	
5.23	-0.136	-0.05247075655837927	
5.235	0.035	-0.043401622015157834	
5.24	0.072	-0.03412425068536109	
5.245	-0.095	-0.023747385879302398	
5.25	-0.047	-0.015576764199977288	
5.255	0.102	-0.01252225874429164	
5.26	-0.064	-0.010563950501370753	
5.265	-0.128	-0.011900879065536586	
5.27	-0.069	-0.023282613496629738	
5.275	-0.156	-0.05041428715174118	
5.28	-0.264	-0.08547789859309216	
5.285	-0.133	-0.11743648192546033	
5.29	-0.081	-0.14308521465897367	
5.295	-0.197	-0.15673242880980154	
5.3	-0.159	-0.15759563894986517	
5.305	-0.044	-0.1534976182897133	
5.31	-0.178	-0.14957135025335144	
5.315	-0.198	-0.14492630904027787	
5.32	0.033	-0.1352213777914504	
5.325	0.183	-0.11038059666773851	
5.33	0.297	-0.046504261394273924	
5.335	0.762	0.07163939585295172	
5.34	0.771	0.23296476852167208	
5.345	0.239	0.38112244711379245	
5.35	0.085	-0.045609721635933326	
5.355	0.116	0.4285443877812217	
5.36	-0.085	0.34141752876775794	
5.365	-0.113	0.2310201264171005	
5.37	0.012	0.12581878687955192	
5.375	-0.027	0.038648522435069596	
5.38	-0.116	-0.019562693537454125	
5.385	0.017	-0.048395444935148524	
5.39	0.058	-0.05801192153038558	
5.395	-0.105	-0.05682851588879988	
5.4	-0.008	-0.045609721635933326	
5.405	0.157	-0.029389543469542513	
5.41	-0.040	-0.010625870208377488	
5.415	-0.063	0.003997749259461935	
5.42	0.181	0.016869207554856477	
5.425	0.087	0.031616289921924945	
5.43	-0.063	0.04535974220907073	
5.435	0.190	0.05763165431981325	
5.44	0.247	0.0760252989569071	
5.445	0.040	0.09912668571161154	
5.45	0.171	0.1213653333027732	
5.455	0.358	0.14564442516154558	
5.46	0.227	0.17439500641886174	
5.465	0.195	0.20597443090865217	
5.47	0.479	0.23985092900916666	
5.475	0.357	0.2746485914552342	
5.48	0.160	0.3023674144907361	
5.485	0.315	0.31356333418821564	
5.49	0.302	0.30801150799611277	
5.495	0.032	0.2871849114399603	
5.5	0.076	0.25032595031656274	
5.505	0.181	0.20457928916704587	
5.51	-0.067	0.15446585194159926	
5.515	-0.119	0.10099811026274823	
5.52	-0.008	0.04674882127588783	
5.525	-0.133	-0.007316949751161428	
5.53	-0.249	-0.05752577378191542	
5.535	-0.143	-0.10050390792532377	
5.54	-0.119	-0.13601865372376407	
5.545	-0.279	-0.1646909987836427	
5.55	-0.256	-0.18468728505348253	
5.555	-0.142	-0.20251383643502857	
5.56	-0.264	-0.21745733079033047	
5.565	-0.262	-0.22494683420639944	
5.57	-0.120	-0.22433658224005057	
5.575	-0.178	-0.21931195601649514	
5.58	-0.255	-0.21245826236775284	
5.585	-0.160	-0.20155170803715808	
5.59	-0.131	-0.195061160388952	
5.595	-0.252	-0.19164944303488313	
5.6	-0.206	-0.18768518027288048	
5.605	-0.111	-0.18554486947265203	
5.61	-0.233	-0.1874556038937314	
5.615	-0.252	-0.18894379143970086	
5.62	-0.146	-0.19033684483945468	
5.625	-0.204	-0.19732261904270798	
5.63	-0.267	-0.20247761457650532	
5.635	-0.157	-0.2025139337201755	
5.64	-0.175	-0.20304233066125885	
5.645	-0.308	-0.2087213542180652	
5.65	-0.270	-0.21567050137700117	
5.655	-0.154	-0.22445843368161364	
5.66	-0.288	-0.23352545581885079	
5.665	-0.349	-0.2420019680824837	
5.67	-0.230	-0.2532188124018986	
5.675	-0.210	-0.26432984129275927	
5.68	-0.133	-0.25858477974790256	
5.685	0.296	-0.20937881319223667	
5.69	0.395	-0.1099225030327373	
5.695	0.055	0.006107914079268121	
5.7	-0.047	0.08925706166834226	
5.705	-0.023	0.11265636784741614	
5.71	-0.194	0.08239806865743474	
5.715	-0.233	0.02589024084799889	
5.72	-0.116	-0.03708228913717924	
5.725	-0.160	-0.09629236386040585	
5.73	-0.223	-0.1397441252974558	
5.735	-0.078	-0.15935001121749548	
5.74	-0.096	-0.16483690834372078	
5.745	-0.233	-0.16600985524882866	
5.75	-0.165	-0.1627005062934519	
5.755	0.030	-0.15412425711081007	
5.76	-0.084	-0.1376881109284498	
5.765	-0.151	-0.11424188942797137	
5.77	-0.018	-0.09489850182628157	
5.775	-0.043	-0.08529347967281206	
5.78	-0.110	-0.07597119641438974	
5.785	0.120	-0.0562199902685787	
5.79	0.226	-0.022681827146512526	
5.795	0.012	0.01876017837585361	
5.8	0.166	0.06228509928143162	
5.805	0.375	0.10611349980022741	
5.81	0.212	0.15316471213912844	
5.815	0.267	0.1995998684122959	
5.82	0.556	0.252358831945958	
5.825	0.413	0.30673380648709864	
5.83	0.235	0.3497466734924816	
5.835	0.428	0.37586625293329334	
5.84	0.535	0.3905026668497858	
5.845	0.280	0.40155991019741455	
5.85	0.349	0.40621269283700767	
5.855	0.498	0.4043308822294367	
5.86	0.258	0.39409821426125075	
5.865	0.146	0.3734147073879306	
5.87	0.360	0.34250260276726363	
5.875	0.221	0.30681323507118086	
5.88	0.015	0.2685811413059518	
5.885	0.213	0.22991647923040945	
5.89	0.207	0.1956498339008002	
5.895	0.030	0.16643969913269718	
5.9	0.133	0.14716306136487728	
5.905	0.378	0.14350911651271142	
5.91	0.137	0.15407974382910433	
5.915	0.041	0.16627294706912416	
5.92	0.283	0.17160061065157167	
5.925	0.227	0.17289365540297763	
5.93	0.049	0.1764515169373918	
5.935	0.264	0.18091731447145318	
5.94	0.343	0.18976753178634653	
5.945	0.093	0.199369076424716	
5.95	0.157	0.20707839910871376	
5.955	0.373	0.21058848129039753	
5.96	0.175	0.21408801212682785	
5.965	0.110	0.21820026250554442	
5.97	0.312	0.21964541388559097	
5.975	0.119	0.21192404995223457	
5.98	-0.111	0.18636295653281443	
5.985	0.052	0.1459113051121911	
5.99	0.055	0.09884160756349827	
5.995	-0.151	0.05033140021957191	
6.0	-0.092	0.009038312827150785	
6.005	0.190	-0.017323057030852514	
6.01	-0.014	-0.022886018309304847	
6.015	-0.113	-0.01588352392333666	
6.02	0.029	-0.012338757782278303	
6.025	-0.073	-0.022010256938798593	
6.03	-0.120	-0.03567345453244093	
6.035	0.314	-0.027075901203839733	
6.04	0.622	0.030957912424231362	
6.045	0.425	0.13833404308648753	
6.05	0.340	0.006895305408251047	
6.055	0.326	-0.012338757782278303	
6.06	-0.011	-0.005887480049304348	
6.065	-0.107	0.006895305408251047	
6.07	0.081	0.22568349603570784	
6.075	-0.031	0.13903981737700516	
6.08	-0.157	0.06230178783939186	
6.085	0.015	0.006895305408251047	
6.09	0.094	-0.026046421792051168	
6.095	-0.102	-0.04069634502202961	
6.1	-0.026	-0.03803549028303757	
6.105	0.203	-0.025253472690715185	
6.11	0.015	-0.005887480049304348	
6.115	0.020	0.020032741915989027	
6.12	0.352	0.054742200694166646	
6.125	0.308	0.10206511067367013	
6.13	0.180	0.15722030058267286	
6.135	0.355	0.21088497324530908	
6.14	0.430	0.2569937054142921	
6.145	0.197	0.2892405042232562	
6.15	0.358	0.3139235193797624	
6.155	0.584	0.33981866255800375	
6.16	0.486	0.37411855943056493	
6.165	0.477	0.4179650236445804	
6.17	0.799	0.4737741884031623	
6.175	0.755	0.5361104864995956	
6.18	0.581	0.5991497555963687	
6.185	0.852	0.6558674031435521	
6.19	0.849	0.7040778607621105	
6.195	0.471	0.7302053871339953	
6.2	0.474	0.7208139475681099	
6.205	0.628	0.6798555871393627	
6.21	0.290	0.6181720425381274	
6.215	0.091	0.5368627952854468	
6.22	0.309	0.44072423442621467	
6.225	0.146	0.3442241698974847	
6.23	-0.063	0.256168681002421	
6.235	0.072	0.17876244363025295	
6.24	0.096	0.11213216288517971	
6.245	-0.101	0.05934152609877333	
6.25	-0.055	0.0227682309693549	
6.255	0.174	0.0008089328309843142	
6.26	-0.017	-0.005705939046954097	
6.265	-0.082	-0.0031110978468784157	
6.27	0.154	0.005617889323115687	
6.275	0.102	0.01626129982678105	
6.28	-0.093	0.028239985995551123	
6.285	0.096	0.037666373799990244	
6.29	0.210	0.04709778096718748	
6.295	0.004	0.060443476466384	
6.3	0.114	0.0777291863264047	
6.305	0.387	0.1037130251901923	
6.31	0.122	0.1353805264757112	
6.315	0.064	0.15991562198165	
6.32	0.349	0.17748183458985267	
6.325	0.235	0.19230833865927854	
6.33	-0.026	0.1983543034010668	
6.335	0.088	0.1855137686301862	
6.34	0.142	0.15603332986974228	
6.345	-0.101	0.11763661900691777	
6.35	-0.041	0.07967303698195095	
6.355	0.175	0.04853319210477999	
6.36	-0.032	0.028560521811529127	
6.365	-0.127	0.015020130271516304	
6.37	0.041	0.0012412035039500433	
6.375	-0.079	-0.017661477507790888	
6.38	-0.239	-0.04341516191303493	
6.385	-0.079	-0.06862951478736445	
6.39	0.259	-0.07806307111427435	
6.395	0.241	-0.043082173822724376	
6.4	0.405	0.041687746365099324	
6.405	0.474	0.14827259015800773	
6.41	-0.024	0.2266358706501065	
6.415	-0.209	0.2361109667495912	
6.42	-0.124	0.17700168312073009	
6.425	-0.180	0.08034427422186496	
6.43	-0.290	-0.021168944789051593	
6.435	-0.203	-0.10275125969498751	
6.44	-0.192	-0.16722507173971488	
6.445	-0.345	-0.21791050343226254	
6.45	-0.303	-0.2513255998416105	
6.455	-0.157	-0.2688982140066539	
6.46	-0.249	-0.27617728399023594	
6.465	-0.300	-0.2707175176132495	
6.47	-0.142	-0.2571559040282033	
6.475	-0.177	-0.2446615143812422	
6.48	-0.287	-0.23203255032123368	
6.485	-0.151	-0.21685407149971084	
6.49	-0.111	-0.20330604439348854	
6.495	-0.253	-0.19480110348536056	
6.5	-0.206	-0.1863500762762587	
6.505	-0.037	-0.1779942044473826	
6.51	-0.149	-0.1681118327364194	
6.515	-0.177	-0.15369007413284022	
6.52	0.058	-0.13322949315946894	
6.525	0.046	-0.1046239091076602	
6.53	-0.096	-0.07098211983247336	
6.535	0.120	-0.035924803854916885	
6.54	0.204	0.0026960990621744956	
6.545	-0.067	0.03627392778266588	
6.55	-0.067	0.051576207684558714	
6.555	0.111	0.047931664723651665	
6.56	-0.102	0.032992605666978266	
6.565	-0.200	0.00731446518111399	
6.57	-0.066	-0.026375242820919024	
6.575	-0.157	-0.06656683444950347	
6.58	-0.329	-0.10886540837654735	
6.585	-0.246	-0.15206025781251792	
6.59	-0.201	-0.19335253329244864	
6.595	-0.328	-0.229540192613137	
6.6	-0.305	-0.25343840288744335	
6.605	-0.197	-0.26719834836292966	
6.61	-0.320	-0.2798931726401849	
6.615	-0.386	-0.2886171884123696	
6.62	-0.261	-0.295505493179378	
6.625	-0.306	-0.3065435064451242	
6.63	-0.409	-0.31676543575924043	
6.635	-0.277	-0.32113198064588927	
6.64	-0.197	-0.31938020863491623	
6.645	-0.317	-0.31046501528585513	
6.65	-0.285	-0.29547463092885523	
6.655	-0.160	-0.2792457371628979	
6.66	-0.270	-0.26684209787102103	
6.665	-0.310	-0.25662236631302193	
6.67	-0.172	-0.24754587623660357	
6.675	-0.226	-0.24250885341739672	
6.68	-0.325	-0.2427655110781344	
6.685	-0.250	-0.24217624242418204	
6.69	-0.239	-0.24835642604351077	
6.695	-0.384	-0.2624688542725302	
6.7	-0.352	-0.2785222112802327	
6.705	-0.229	-0.2931935158721698	
6.71	-0.320	-0.30581417967785196	
6.715	-0.378	-0.3106970661917945	
6.72	-0.213	-0.3095044811262656	
6.725	-0.250	-0.30643892159641817	
6.73	-0.407	-0.3018606076189605	
6.735	-0.339	-0.3021881362563397	
6.74	-0.235	-0.3092476452243542	
6.745	-0.217	-0.30851744942057513	
6.75	0.091	-0.2725436433091672	
6.755	0.584	-0.2931935158721698	
6.76	0.157	-0.29665449051009785	
6.765	-0.207	-0.2958645145887844	
6.77	-0.186	-0.27545485549057946	
6.775	-0.271	-0.2725436433091672	
6.78	-0.389	-0.2625152594353018	
6.785	-0.276	-0.13021769580384498	
6.79	-0.230	-0.20514771913407084	
6.795	-0.377	-0.2625152594353018	
6.8	-0.316	-0.29665449051009785	
6.805	-0.168	-0.3100419734250901	
6.81	-0.267	-0.308762181657649	
6.815	-0.306	-0.2958645145887844	
6.82	-0.131	-0.27545485549057946	
6.825	-0.157	-0.25331068868235745	
6.83	-0.293	-0.2329844834431986	
6.835	-0.175	-0.21523877513604908	
6.84	-0.073	-0.20109371820467423	
6.845	-0.198	-0.18756202492082885	
6.85	-0.153	-0.169712773231889	
6.855	0.030	-0.1479761667084463	
6.86	-0.049	-0.12376492029518153	
6.865	-0.087	-0.09494673457702607	
6.87	0.183	-0.05839543283775357	
6.875	0.194	-0.013250428570221217	
6.88	-0.003	0.03392142033026688	
6.885	0.236	0.07775638774465103	
6.89	0.387	0.12401073515721822	
6.895	0.161	0.17038830603403665	
6.9	0.137	0.20619258597289047	
6.905	0.357	0.22608661382187553	
6.91	0.113	0.23126906654060655	
6.915	-0.070	0.21595006961380706	
6.92	0.072	0.17657024059124943	
6.925	-0.066	0.11981977974811438	
6.93	-0.262	0.05191426911747862	
6.935	-0.191	-0.01930804086860732	
6.94	-0.143	-0.08895886472970184	
6.945	-0.294	-0.14854901335377496	
6.95	-0.288	-0.19282615736402905	
6.955	-0.149	-0.22192101644614462	
6.96	-0.255	-0.24167399793066657	
6.965	-0.305	-0.2500319246145132	
6.97	-0.160	-0.2484391111570391	
6.975	-0.137	-0.2431548130820905	
6.98	-0.235	-0.22907916044158513	
6.985	-0.171	-0.20831304479021026	
6.99	-0.110	-0.19295781338925094	
6.995	-0.239	-0.18559365893283764	
7.0	-0.194	-0.1778311438080223	
7.005	-0.060	-0.16986688695785396	
7.01	-0.194	-0.1657322224944901	
7.015	-0.242	-0.16309162145214254	
7.02	-0.072	-0.16033673586987468	
7.025	-0.104	-0.15715670448930877	
7.03	-0.235	-0.1532127573782961	
7.035	-0.146	-0.14923590750849092	
7.04	-0.047	-0.1468522820993764	
7.045	-0.220	-0.14773518320228496	
7.05	-0.172	-0.14485290463032446	
7.055	0.052	-0.13669413613558729	
7.06	-0.096	-0.12380271337422201	
7.065	-0.175	-0.10722050959246851	
7.07	0.018	-0.09218422768869762	
7.075	-0.038	-0.08112633474615004	
7.08	-0.215	-0.07740209519692809	
7.085	-0.143	-0.08116160210759255	
7.09	0.004	-0.0927121449280046	
7.095	0.012	-0.09388792382574246	
7.1	0.328	-0.05484359072770288	
7.105	0.625	0.03754359938800999	
7.11	0.227	-0.06887090164853678	
7.115	-0.061	-0.05484359072770288	
7.12	0.058	-0.05459340922857174	
7.125	-0.050	-0.05004609175807884	
7.13	-0.198	0.12138196350069565	
7.135	-0.046	0.04889729014514577	
7.14	0.030	-0.009495115655522959	
7.145	-0.162	-0.05004609175807884	
7.15	-0.110	-0.07400887292542602	
7.155	0.142	-0.07927602717491782	
7.16	-0.044	-0.06887090164853678	
7.165	-0.137	-0.05459340922857174	
7.17	0.078	-0.04090961585738777	
7.175	0.059	-0.02890703409482586	
7.18	-0.114	-0.017786314473252386	
7.185	0.041	-0.006152676903552142	
7.19	0.154	0.0046754037860891355	
7.195	-0.089	0.01387724371221033	
7.2	-0.044	0.01783503083979379	
7.205	0.312	0.027863906019543153	
7.21	0.197	0.05420632578763515	
7.215	0.073	0.09424592798849987	
7.22	0.383	0.138112555878314	
7.225	0.422	0.1862371624641641	
7.23	0.204	0.23712369494671723	
7.235	0.346	0.2817547216036851	
7.24	0.498	0.3147833780147566	
7.245	0.259	0.338896181804068	
7.25	0.265	0.35272884812645344	
7.255	0.508	0.3588784527757768	
7.26	0.308	0.3602569210130792	
7.265	0.119	0.3531839450915205	
7.27	0.358	0.3340766200584413	
7.275	0.258	0.3072871407224323	
7.28	-0.056	0.2711223000138973	
7.285	0.046	0.22070013264182897	
7.29	0.163	0.16280462126027836	
7.295	-0.081	0.109965751168238	
7.3	-0.041	0.06771341033107948	
7.305	0.189	0.03983695523029085	
7.31	0.046	0.02832280241049431	
7.315	-0.067	0.02723304055687599	
7.32	0.171	0.03400354271581678	
7.325	0.134	0.044289586386996024	
7.33	-0.105	0.05221547234920906	
7.335	-0.018	0.05064999535592275	
7.34	0.111	0.037727221637021593	
7.345	-0.096	0.022052558137138592	
7.35	-0.055	0.009732873692901439	
7.355	0.189	0.004722960166829046	
7.36	-0.011	0.008358727199358863	
7.365	-0.108	0.011316116632083612	
7.37	0.090	0.0128980529816379	
7.375	0.053	0.011255820072916051	
7.38	-0.110	0.007347529536632696	
7.385	0.020	0.006620555643895304	
7.39	0.122	0.005632365455658242	
7.395	-0.142	0.0021451484743617564	
7.4	-0.153	-0.008249975428652403	
7.405	-0.006	-0.029409970553280637	
7.41	-0.139	-0.05559674616789951	
7.415	-0.221	-0.08158006075648216	
7.42	-0.053	-0.1001923022994949	
7.425	-0.095	-0.11677857149087649	
7.43	-0.207	-0.12754059697286657	
7.435	-0.124	-0.1304021194628897	
7.44	-0.098	-0.13445682875741344	
7.445	-0.273	-0.1467973770020577	
7.45	-0.210	-0.1591979934375642	
7.455	0.143	-0.1574457811215971	
7.46	0.261	-0.11956151958769057	
7.465	0.317	-0.033506751968534955	
7.47	0.543	-0.11677857149087649	
7.475	0.290	-0.11956151958769057	
7.48	-0.162	-0.12754059697286657	
7.485	-0.160	-0.1304021194628897	
7.49	-0.120	-0.13445682875741344	
7.495	-0.244	0.05223702867955797	
7.5	-0.217	-0.04319215444203289	
7.505	-0.082	-0.1124577355494215	
7.51	-0.183	-0.16057783070419027	
7.515	-0.238	-0.1855421829945038	
7.52	-0.075	-0.18919800940124937	
7.525	-0.101	-0.1847811872618318	
7.53	-0.212	-0.17456381964802942	
7.535	-0.111	-0.15939499493447834	
7.54	0.003	-0.14240424983304117	
7.545	-0.143	-0.12783918739167788	
7.55	-0.084	-0.10823755154480796	
7.555	0.192	-0.079358369676512	
7.56	0.012	-0.04461072333711174	
7.565	-0.128	-0.014680360391436309	
7.57	0.146	0.005873064606002464	
7.575	0.087	0.0213001134627798	
7.58	-0.101	0.030301629689500235	
7.585	0.152	0.039586193101138284	
7.59	0.404	0.06375954013852708	
7.595	0.197	0.10913271172718429	
7.6	0.276	0.16663141611813945	
7.605	0.556	0.22871959202741896	
7.61	0.395	0.2914685679038169	
7.615	0.200	0.34020199329509687	
7.62	0.424	0.36482641949598293	
7.625	0.312	0.3674071373418596	
7.63	-0.015	0.3442795667263962	
7.635	0.068	0.2934514076749331	
7.64	0.177	0.22778938154915518	
7.645	-0.078	0.1612289573224493	
7.65	-0.102	0.10055086660599898	
7.655	0.076	0.046655812640234724	
7.66	-0.063	0.00359868020971089	
7.665	-0.169	-0.028756915657216598	
7.67	-0.014	-0.050281529947460976	
7.675	-0.058	-0.0685359302568136	
7.68	-0.224	-0.08560350777754383	
7.685	-0.133	-0.09962790250678545	
7.69	0.008	-0.11124921010529422	
7.695	-0.131	-0.11566347221063634	
7.7	-0.128	-0.10847037899524775	
7.705	0.126	-0.09242578742606214	
7.71	-0.002	-0.07033921978352708	
7.715	-0.087	-0.043734153008427985	
7.72	0.126	-0.0173633549442606	
7.725	0.078	0.004480167763440602	
7.73	-0.117	0.017444991422355463	
7.735	0.021	0.022313598969753386	
7.74	0.172	0.024732765363691036	
7.745	-0.069	0.027394638252372677	
7.75	-0.090	0.026491001907596033	
7.755	0.056	0.01650975454955439	
7.76	-0.104	-0.0032874201036687703	
7.765	-0.209	-0.02871407081358112	
7.77	-0.072	-0.055430017252133444	
7.775	-0.105	-0.08449479279811473	
7.78	-0.267	-0.11349169763237596	
7.785	-0.198	-0.13672847623663276	
7.79	-0.099	-0.15929102946254275	
7.795	-0.226	-0.1765541754398121	
7.8	-0.262	-0.1855020859030107	
7.805	-0.148	-0.192509883848069	
7.81	-0.145	-0.2002766445117148	
7.815	-0.020	-0.18868689529409396	
7.82	0.559	-0.122358281368116	
7.825	0.697	0.010561554920056688	
7.83	0.267	0.17144246733108542	
7.835	0.131	-0.13672847623663276	
7.84	0.065	-0.1242372605110189	
7.845	-0.206	-0.122358281368116	
7.85	-0.229	0.17645636287592875	
7.855	-0.069	0.06852063786241543	
7.86	-0.159	-0.030230669319117116	
7.865	-0.242	-0.10172368402799607	
7.87	-0.052	-0.14241670935745393	
7.875	-0.040	-0.158446834285439	
7.88	-0.183	-0.1565248362708997	
7.885	-0.090	-0.14173956888606046	
7.89	0.018	-0.1242372605110189	
7.895	-0.145	-0.10959822350482398	
7.9	-0.119	-0.09555176844321328	
7.905	0.146	-0.07642147295671915	
7.91	0.001	-0.053264768624277446	
7.915	-0.082	-0.028811987100727153	
7.92	0.180	-0.0023745945755278366	
7.925	0.186	0.026591286334836955	
7.93	-0.067	0.05437990489809977	
7.935	0.094	0.07224146894283948	
7.94	0.325	0.08785503504763378	
7.945	0.169	0.11439378854806909	
7.95	0.255	0.15339217990945903	
7.955	0.556	0.2056191587632211	
7.96	0.428	0.26877189105258503	
7.965	0.259	0.3271388523303159	
7.97	0.485	0.36958179132829766	
7.975	0.375	0.3916123128887252	
7.98	0.073	0.38539217000914694	
7.985	0.163	0.35018433736550514	
7.99	0.206	0.2968339778071174	
7.995	-0.089	0.2304458293840001	
8.0	-0.133	0.1543514439296347	
8.005	0.040	0.07954947460663374	
8.01	-0.090	0.013864534228219112	
8.015	-0.213	-0.03780815983609907	
8.02	-0.085	-0.07651363059599926	
8.025	-0.082	-0.10733720801008535	
8.03	-0.215	-0.12948017906276807	
8.035	-0.136	-0.13788564021889507	
8.04	-0.046	-0.14120675450708842	
8.045	-0.189	-0.1444443700497398	
8.05	-0.180	-0.14166402200992884	
8.055	-0.002	-0.1355265675755873	
8.06	-0.099	-0.1280877329879421	
8.065	-0.180	-0.11780113920288975	
8.07	0.014	-0.1045662130946681	
8.075	0.014	-0.08930849634905305	
8.08	-0.154	-0.07547828031435225	
8.085	-0.084	-0.0649409741572031	
8.09	0.078	-0.05817815859849251	
8.095	-0.104	-0.05441633546708061	
8.1	-0.108	-0.04771817645639279	
8.105	0.099	-0.041519360808033146	
8.11	-0.066	-0.03704454423071411	
8.115	-0.175	-0.03785059810097832	
8.12	-0.053	-0.045591510765214956	
8.125	-0.064	-0.06125738219868028	
8.13	-0.197	-0.08049478408799796	
8.135	-0.110	-0.09296572269193609	
8.14	0.032	-0.10011940808096995	
8.145	-0.127	-0.1004230974221578	
8.15	-0.146	-0.09477124654197505	
8.155	0.020	-0.08746771001730885	
8.16	-0.124	-0.08602922845612322	
8.165	-0.183	-0.08892532022622268	
8.17	0.223	-0.07852864819366343	
8.175	0.512	-0.027138480226903038	
8.18	0.393	0.07345427632893564	
8.185	0.410	-0.0651157886551828	
8.19	0.348	-0.05095033582180117	
8.195	-0.067	-0.031514588421129155	
8.2	-0.137	-0.027138480226903038	
8.205	0.000	0.20859504748386445	
8.21	-0.087	0.11201872878840727	
8.215	-0.180	0.02701748706095846	
8.22	0.009	-0.031514588421129155	
8.225	0.043	-0.0651157886551828	
8.23	-0.117	-0.07562903020154718	
8.235	-0.017	-0.06900487322131879	
8.24	0.181	-0.05095033582180117	
8.245	-0.044	-0.02649260727286578	
8.25	-0.058	-0.003907989994386194	
8.255	0.206	0.015676551302740947	
8.26	0.064	0.03402266904096202	
8.265	-0.064	0.04790986110964216	
8.27	0.187	0.06049980189675055	
8.275	0.221	0.07494293916319467	
8.28	0.030	0.09330125257969007	
8.285	0.197	0.11495692208415878	
8.29	0.395	0.14312484036301298	
8.295	0.186	0.1765083637063504	
8.3	0.232	0.21002346041623693	
8.305	0.486	0.2467131372105015	
8.31	0.398	0.2840804212279235	
8.315	0.247	0.32084878498209085	
8.32	0.558	0.3544687477547761	
8.325	0.646	0.39402302021797414	
8.33	0.404	0.4393019989155504	
8.335	0.480	0.4768614347376777	
8.34	0.614	0.5001326435269842	
8.345	0.273	0.5015664787790926	
8.35	0.157	0.4759494979176968	
8.355	0.402	0.4256440470237962	
8.36	0.163	0.3671717440604184	
8.365	-0.052	0.3008816648283036	
8.37	0.158	0.23134685196369334	
8.375	0.122	0.16804455680288663	
8.38	-0.146	0.11143521544497897	
8.385	-0.096	0.05877699535859602	
8.39	0.081	0.01105797178698197	
8.395	-0.114	-0.02524394448385576	
8.4	-0.124	-0.046009075909142653	
8.405	0.087	-0.05552953486040296	
8.41	-0.056	-0.05774371341310684	
8.415	-0.185	-0.05897540962627371	
8.42	-0.034	-0.061823786560013826	
8.425	-0.009	-0.06801343278028318	
8.43	-0.191	-0.07437193779464948	
8.435	-0.128	-0.08128270821333819	
8.44	-0.011	-0.08910671928162564	
8.445	-0.159	-0.0991079787387194	
8.45	-0.185	-0.10494776552145968	
8.455	-0.047	-0.10971184917362058	
8.46	-0.171	-0.11971147838844313	
8.465	-0.273	-0.13383259394236766	
8.47	-0.143	-0.14793390838206483	
8.475	-0.160	-0.1650765392786279	
8.48	-0.308	-0.18323902412627607	
8.485	-0.236	-0.1983011559377829	
8.49	-0.110	-0.20920099981812376	
8.495	-0.232	-0.21502789054117719	
8.5	-0.262	-0.21290922738435494	
8.505	-0.104	-0.20779874027092393	
8.51	-0.221	-0.20569085830527134	
8.515	-0.342	-0.20777259844280282	
8.52	-0.140	-0.21198837452920755	
8.525	0.136	-0.20107709771389753	
8.53	0.142	-0.1511300572313668	
8.535	0.416	-0.1983011559377829	
8.54	0.460	-0.20107709771389753	
8.545	-0.067	-0.20107709771389753	
8.55	-0.218	-0.20107709771389753	
8.555	-0.130	-0.20107709771389753	
8.56	-0.239	-0.20107709771389753	
8.565	-0.323	-0.04070557751753337	
8.57	-0.162	-0.12304964230583496	
8.575	-0.160	-0.18208802349894992	
8.58	-0.306	-0.21907697862125253	
8.585	-0.238	-0.23637008424286246	
8.59	-0.117	-0.24130820301968883	
8.595	-0.246	-0.24088715532134564	
8.6	-0.249	-0.23089441421548715	
8.605	-0.081	-0.21694639194389592	
8.61	-0.145	-0.2026035259747898	
8.615	-0.227	-0.18667452474962232	
8.62	-0.084	-0.16813047459424477	
8.625	-0.041	-0.15209769270146634	
8.63	-0.212	-0.13904632690592034	
8.635	-0.128	-0.1274118683883121	
8.64	0.059	-0.11531495048377759	
8.645	-0.113	-0.1018557939273955	
8.65	-0.136	-0.0869237489284462	
8.655	0.110	-0.07095753880470107	
8.66	0.030	-0.05156266283524287	
8.665	-0.058	-0.027687618899330656	
8.67	0.178	-0.00015877248424020908	
8.675	0.223	0.03494398264332555	
8.68	-0.020	0.06796672283050956	
8.685	0.082	0.09052360811755802	
8.69	0.242	0.10368378479555611	
8.695	-0.005	0.11020534382723957	
8.7	-0.098	0.10202888784238925	
8.705	0.024	0.07696392064398049	
8.71	-0.125	0.03550197873740241	
8.715	-0.255	-0.014652903460828745	
8.72	-0.131	-0.06425987967739738	
8.725	-0.098	-0.10903694854401995	
8.73	-0.276	-0.1439202278061281	
8.735	-0.220	-0.16752887789575346	
8.74	-0.137	-0.18737531823982068	
8.745	-0.270	-0.20469887553498192	
8.75	-0.279	-0.2159452855713544	
8.755	-0.125	-0.22009683787778941	
8.76	-0.185	-0.22145688505402022	
8.765	-0.261	-0.21761141597736322	
8.77	-0.099	-0.20530565339318357	
8.775	-0.090	-0.19004177315556764	
8.78	-0.244	-0.17690540558472115	
8.785	-0.171	-0.16555911132084258	
8.79	-0.008	-0.1553640470258622	
8.795	-0.145	-0.14467890477110965	
8.8	-0.172	-0.13098616941865013	
8.805	0.017	-0.11709245003064285	
8.81	-0.076	-0.10442149420797855	
8.815	-0.206	-0.09665977568015699	
8.82	-0.120	-0.09533337159009074	
8.825	-0.137	-0.10699561447996643	
8.83	-0.300	-0.13092827867765144	
8.835	-0.236	-0.15659389299308143	
8.84	-0.128	-0.1813037321579341	
8.845	-0.271	-0.20168048165223648	
8.85	-0.297	-0.21604938787505681	
8.855	-0.162	-0.2260364726578763	
8.86	-0.217	-0.23338343138498183	
8.865	-0.337	-0.23874186953341525	
8.87	-0.258	-0.24330395404879077	
8.875	-0.215	-0.25291051522406066	
8.88	-0.233	-0.2590017041991207	
8.885	0.108	-0.23358825387277915	
8.89	0.611	-0.1491318020917192	
8.895	0.340	-0.2106412813203453	
8.9	0.011	-0.21604938787505681	
8.905	0.041	-0.21388561635919975	
8.91	-0.186	-0.2106412813203453	
8.915	-0.313	-0.1913660811179671	
8.92	-0.212	0.012706652128417912	
8.925	-0.185	-0.08182267669310682	
8.93	-0.317	-0.16003865967140968	
8.935	-0.236	-0.2106412813203453	
8.94	-0.107	-0.2371269504999135	
8.945	-0.215	-0.2447335208557804	
8.95	-0.218	-0.23417234449373414	
8.955	-0.060	-0.21388561635919975	
8.96	-0.120	-0.1913660811179671	
8.965	-0.230	-0.17191815273197175	
8.97	-0.064	-0.15220181434148689	
8.975	-0.040	-0.1357934939605147	
8.98	-0.218	-0.12519539756504156	
8.985	-0.130	-0.11862934635643642	
8.99	0.081	-0.11000210257155922	
8.995	-0.069	-0.09483872245042688	
9.0	-0.056	-0.07125349393958574	
9.005	0.291	-0.03673122284730443	
9.01	0.190	0.013647784566068978	
9.015	0.004	0.06593548140327925	
9.02	0.315	0.11085213230831406	
9.025	0.412	0.15731155005509828	
9.03	0.152	0.2047220283573076	
9.035	0.262	0.24231462524112304	
9.04	0.459	0.27006354463593346	
9.045	0.180	0.2891663910486436	
9.05	0.076	0.28966721036715526	
9.055	0.291	0.27023063170326184	
9.06	0.134	0.24169953174469277	
9.065	-0.108	0.20096156409159882	
9.07	-0.012	0.14776553092847194	
9.075	-0.049	0.08329400148913971	
9.08	-0.223	0.014830789576062837	
9.085	-0.177	-0.04570194241836635	
9.09	-0.075	-0.09601676108331385	
9.095	-0.215	-0.13573561155326574	
9.1	-0.258	-0.1612607082987354	
9.105	-0.104	-0.1778637768147451	
9.11	-0.133	-0.18729083180278538	
9.115	-0.203	-0.1849282251918048	
9.12	-0.061	-0.17026111355231066	
9.125	-0.079	-0.15276654612410473	
9.13	-0.239	-0.14312827212402696	
9.135	-0.136	-0.13769128560655236	
9.14	0.033	-0.13006166731293928	
9.145	-0.146	-0.11973117390412472	
9.15	-0.203	-0.11025171805386767	
9.155	-0.005	-0.10589199119297649	
9.16	-0.070	-0.1032893667683781	
9.165	-0.186	-0.0999207803604931	
9.17	-0.043	-0.09528942248888204	
9.175	-0.038	-0.09175946134345472	
9.18	-0.235	-0.09609894408758943	
9.185	-0.192	-0.1057218406901912	
9.19	-0.084	-0.1220851786921718	
9.195	-0.250	-0.14269824529225755	
9.2	-0.285	-0.16425061516682718	
9.205	-0.127	-0.18191031061381022	
9.21	-0.191	-0.19726481410752517	
9.215	-0.305	-0.20792097640973256	
9.22	-0.182	-0.21230940036460558	
9.225	-0.162	-0.21673150562829396	
9.23	-0.343	-0.22409830730117158	
9.235	-0.244	-0.22974663021429623	
9.24	0.139	-0.2200301058269562	
9.245	0.224	-0.17064205908703914	
9.25	0.265	-0.07226334517129848	
9.255	0.434	-0.18191031061381022	
9.26	0.090	-0.19726481410752517	
9.265	-0.238	-0.2066731287004644	
9.27	-0.174	-0.19428245679800302	
9.275	-0.154	-0.17965312896746244	
9.28	-0.302	-0.024099151791752305	
9.285	-0.244	-0.10675716602065373	
9.29	-0.119	-0.16701110428441807	
9.295	-0.220	-0.2066731287004644	
9.3	-0.255	-0.2223117269017291	
9.305	-0.110	-0.22186495251129246	
9.31	-0.165	-0.21722983742353158	
9.315	-0.258	-0.2080061769291296	
9.32	-0.110	-0.19428245679800302	
9.325	-0.063	-0.17965312896746244	
9.33	-0.201	-0.16518617051214185	
9.335	-0.119	-0.14776517580578807	
9.34	0.078	-0.1269283300779256	
9.345	-0.095	-0.10375270947613885	
9.35	-0.128	-0.08139294410507472	
9.355	0.145	-0.05875200701651921	
9.36	0.099	-0.031215445860256676	
9.365	-0.061	-0.0011292524501903315	
9.37	0.212	0.03077102010758345	
9.375	0.331	0.06944167025639336	
9.38	0.102	0.11472262945624441	
9.385	0.241	0.15819318376269526	
9.39	0.459	0.20116313052162238	
9.395	0.203	0.23923176364815282	
9.4	0.152	0.2635200900354553	
9.405	0.383	0.2742746603030425	
9.41	0.151	0.27182850942889336	
9.415	-0.113	0.24479973363777757	
9.42	0.043	0.1927100950756659	
9.425	0.044	0.12950758971546814	
9.43	-0.188	0.06576116170459861	
9.435	-0.140	0.007109885906149119	
9.44	-0.023	-0.043831562957892575	
9.445	-0.203	-0.08665403445773659	
9.45	-0.242	-0.11951200438757592	
9.455	-0.075	-0.14279837591653577	
9.46	-0.128	-0.1590621713219359	
9.465	-0.258	-0.16613983868063592	
9.47	-0.090	-0.16538345941501864	
9.475	-0.037	-0.15946840205740204	
9.48	-0.236	-0.15116215646975587	
9.485	-0.206	-0.1459731159687807	
9.49	-0.058	-0.14687469374126183	
9.495	-0.172	-0.15056795141390406	
9.5	-0.204	-0.15053109624646172	
9.505	-0.012	-0.14386950963459338	
9.51	-0.116	-0.13600977288257765	
9.515	-0.232	-0.1311240772112433	
9.52	-0.069	-0.12645846060753504	
9.525	0.004	-0.12043854851175544	
9.53	-0.169	-0.11210783609980929	
9.535	-0.130	-0.10203354013315963	
9.54	0.032	-0.09487864079303646	
9.545	-0.171	-0.09250704402000651	
9.55	-0.253	-0.0975884587082431	
9.555	-0.107	-0.11191811447747267	
9.56	-0.139	-0.13293458164094935	
9.565	-0.235	-0.14911478441430395	
9.57	-0.116	-0.15551409189603993	
9.575	-0.064	-0.15740567420186896	
9.58	-0.223	-0.15608564147682316	
9.585	-0.195	-0.15307496704637086	
9.59	-0.063	-0.1528644018516016	
9.595	-0.096	-0.1514802087346862	
9.6	0.075	-0.12758505697932507	
9.605	0.575	-0.05784293220409765	
9.61	0.463	-0.12758505697932507	
9.615	0.055	-0.12758505697932507	
9.62	0.078	-0.12758505697932507	
9.625	0.009	-0.12758505697932507	
9.63	-0.217	-0.12758505697932507	
9.635	-0.168	-0.12758505697932507	
9.64	-0.029	0.012167003500287842	
9.645	-0.183	-0.0574163785401342	
9.65	-0.239	-0.10764236459466243	
9.655	-0.056	-0.13893124734301682	
9.66	-0.114	-0.1568456963376566	
9.665	-0.247	-0.16414423524075916	
9.67	-0.107	-0.1615879696851267	
9.675	-0.024	-0.15633687718929526	
9.68	-0.165	-0.14504790358914993	
9.685	-0.128	-0.1291580507488232	
9.69	0.030	-0.1128510380909733	
9.695	-0.090	-0.09940902789983241	
9.7	-0.124	-0.08466566073339094	
9.705	0.149	-0.06393153025769252	
9.71	0.072	-0.03683122595709559	
9.715	-0.107	-0.011178545615460802	
9.72	0.088	0.009398122762153845	
9.725	0.189	0.027698120554273106	
9.73	-0.017	0.04493832835130515	
9.735	0.120	0.06480622702098829	
9.74	0.405	0.09419464338113825	
9.745	0.216	0.13563237828011984	
9.75	0.126	0.17827061990330706	
9.755	0.370	0.21202770259085174	
9.76	0.262	0.2342269031404621	
9.765	-0.018	0.24081998942983976	
9.77	0.084	0.2213091468404223	
9.775	0.099	0.17970541741260088	
9.78	-0.148	0.1260141283283691	
9.785	-0.128	0.06775814122103103	
9.79	-0.032	0.009118605190243288	
9.795	-0.188	-0.04729645449391996	
9.8	-0.255	-0.09367304902703677	
9.805	-0.120	-0.13104395114285866	
9.81	-0.180	-0.16276958706911548	
9.815	-0.299	-0.18607909855459787	
9.82	-0.160	-0.19969191337260842	
9.825	-0.111	-0.2053422039249293	
9.83	-0.238	-0.20494008863250207	
9.835	-0.177	-0.19620636886015208	
9.84	-0.024	-0.18092415857416033	
9.845	-0.139	-0.1653125437322469	
9.85	-0.198	-0.1476457321816746	
9.855	-0.037	-0.13205060403704985	
9.86	-0.098	-0.1228053914599468	
9.865	-0.220	-0.11908507271404742	
9.87	-0.076	-0.11566759627339959	
9.875	-0.002	-0.11234860243036653	
9.88	-0.183	-0.10797764969483571	
9.885	-0.146	-0.1041954311743574	
9.89	-0.005	-0.10189510625158651	
9.895	-0.169	-0.10535236420866641	
9.9	-0.227	-0.11166647689472149	
9.905	-0.066	-0.11899162592075241	
9.91	-0.165	-0.13181062144413758	
9.915	-0.293	-0.14714792184572073	
9.92	-0.162	-0.1626226615856052	
9.925	-0.146	-0.17730277567582653	
9.93	-0.277	-0.19205759706215716	
9.935	-0.238	-0.2011936745649854	
9.94	-0.128	-0.20579133114579024	
9.945	-0.247	-0.21341110426037913	
9.95	-0.253	-0.21474290249399147	
9.955	0.169	-0.19684651848559256	
9.96	0.392	-0.13574200231200517	
9.965	0.329	-0.02425674421024857	
9.97	0.488	0.1144250459150699	
9.975	0.315	0.2337538767322477	
9.98	-0.134	0.2877473791063827	
9.985	-0.149	0.2637309020379173	
9.99	-0.011	0.18435991562636547	
9.995	-0.130	0.08955285625376065	
10.0	-0.160	0.009153980799837237	
10.005	0.046	-0.04373278194468346	
10.01	-0.038	-0.07373936133644106	
10.015	-0.183	-0.08743304310126329	
10.02	-0.031	-0.08950354476680739	
10.025	0.087	-0.08406933468215097	
10.03	-0.125	-0.07131653856835352	
10.035	-0.058	-0.056273826254399126	
10.04	0.212	-0.036482199689310005	
10.045	0.003	-0.011510436028587808	
10.05	-0.064	0.012010318188492833	
10.055	0.239	0.03436584030291459	
10.06	0.169	0.05830794664478623	
10.065	-0.035	0.08242811869814792	
10.07	0.169	0.09950580746866829	
10.075	0.290	0.11402997773135164	
10.08	0.070	0.13162023186755645	
10.085	0.230	0.15267787884152137	
10.09	0.527	0.1866021407234172	
10.095	0.381	0.2375080463581161	
10.1	0.285	0.29294673941353866	
10.105	0.575	0.34436510287697664	
10.11	0.492	0.38834447119305615	
10.115	0.247	0.41841026942316095	
10.12	0.405	0.42845579559970565	
10.125	0.381	0.41903364713949875	
10.13	0.061	0.38564743974328625	
10.135	0.087	0.33262225983234006	
10.14	0.253	0.27055758749167086	
10.145	-0.041	0.20657354327073488	
10.15	-0.139	0.14094838028213197	
10.155	0.044	0.0772928071086785	
10.16	-0.034	0.02141428129638589	
10.165	-0.195	-0.023510810034699837	
10.17	-0.067	-0.055623748261846385	
10.175	0.000	-0.07795171115584318	
10.18	-0.175	-0.09322771107435257	
10.185	-0.122	-0.09842803702656744	
10.19	0.111	-0.09450892430047785	
10.195	-0.079	-0.08231812283112012	
10.2	-0.148	-0.06804803995621897	
10.205	0.113	-0.053821730440310314	
10.21	0.085	-0.03552402792077603	
10.215	-0.153	-0.01744734211807511	
10.22	-0.011	-0.006756827651362356	
10.225	0.059	-0.007972465379456253	
10.23	-0.130	-0.015100805166761107	
10.235	-0.079	-0.022491678813640628	
10.24	0.149	-0.02561182417339869	
10.245	-0.037	-0.022196951669522232	
10.25	-0.145	-0.017009473901618583	
10.255	-0.006	-0.01997752542873185	
10.26	-0.084	-0.03550294178856342	
10.265	-0.253	-0.05931997639330657	
10.27	-0.169	-0.08683920526800575	
10.275	-0.128	-0.1190378475180145	
10.28	-0.255	-0.1519792679373108	
10.285	-0.220	-0.17348280605965263	
10.29	-0.087	-0.18471495157826723	
10.295	-0.209	-0.19215476053920139	
10.3	-0.259	-0.19394414489890502	
10.305	-0.156	-0.19202350523734626	
10.31	-0.212	-0.19851938638718256	
10.315	-0.203	-0.20428426117171572	
10.32	0.274	-0.17679426568268106	
10.325	0.622	-0.08796505203648522	
10.33	0.308	0.04901119008400744	
10.335	0.126	-0.16198290328977807	
10.34	0.113	-0.16198290328977807	
10.345	-0.137	-0.16198290328977807	
10.35	-0.227	-0.1450513388959967	
10.355	-0.081	0.07996608600029048	
10.36	-0.137	-0.00744101771833548	
10.365	-0.255	-0.08029155016220374	
10.37	-0.142	-0.1298756858658478	
10.375	-0.105	-0.16198290328977807	
10.38	-0.241	-0.18197425059263883	
10.385	-0.188	-0.1875529985108538	
10.39	0.009	-0.18065081706971137	
10.395	-0.124	-0.16611689110433697	
10.4	-0.168	-0.1450513388959967	
10.405	0.073	-0.11798249477728347	
10.41	0.032	-0.08941049258098531	
10.415	-0.142	-0.06240232520991527	
10.42	0.076	-0.036880256146235774	
10.425	0.209	-0.009883158020674446	
10.43	-0.037	0.0199545306435335	
10.435	-0.021	0.04135717819355756	
10.44	0.288	0.05844024781323342	
10.445	0.166	0.07991383817830926	
10.45	0.146	0.11385888237956664	
10.455	0.441	0.1570442709811425	
10.46	0.389	0.2096613150183175	
10.465	0.183	0.25754112730947143	
10.47	0.413	0.2960690853561708	
10.475	0.509	0.3281721559515519	
10.48	0.221	0.3529715235791952	
10.485	0.229	0.3602868064140825	
10.49	0.412	0.3514294435150267	
10.495	0.175	0.3299693657745272	
10.5	-0.008	0.2958158486332676	
10.505	0.184	0.24695878926681858	
10.51	0.085	0.19172388838495247	
10.515	-0.153	0.13561400187861397	
10.52	-0.049	0.07797839909895327	
10.525	0.015	0.023147190036082572	
10.53	-0.162	-0.022892401617115206	
10.535	-0.146	-0.05671246118961937	
10.54	-0.002	-0.08067376553867842	
10.545	-0.130	-0.09794823324745518	
10.55	-0.171	-0.10709276884771572	
10.555	0.000	-0.10613892512111561	
10.56	-0.027	-0.1012919458430209	
10.565	-0.153	-0.09328025785450993	
10.57	-0.038	-0.08106140249649338	
10.575	0.038	-0.07092771126314418	
10.58	-0.113	-0.06283457446536347	
10.585	-0.058	-0.05269834517991421	
10.59	0.137	-0.03873332543244541	
10.595	-0.020	-0.023932553472181445	
10.6	-0.079	-0.01007202620764372	
10.605	0.139	0.0038239585085649	
10.61	0.030	0.014709050099044677	
10.615	-0.153	0.016730147044916772	
10.62	-0.053	0.006902064515895276	
10.625	-0.002	-0.012922860954122475	
10.63	-0.174	-0.037801867458133916	
10.635	-0.160	-0.060729430726353374	
10.64	0.000	-0.0797453462739275	
10.645	-0.105	-0.09488585343015166	
10.65	-0.191	-0.10208053876556317	
10.655	-0.058	-0.10420528714181299	
10.66	-0.105	-0.11126340573189711	
10.665	-0.265	-0.12226438026291092	
10.67	-0.154	-0.1331059657480372	
10.675	0.064	-0.1398883099153591	
10.68	0.136	-0.11878760316717848	
10.685	0.456	-0.04369457236818678	
10.69	0.694	0.08432664268875806	
10.695	0.236	-0.10208053876556317	
10.7	-0.117	-0.10420528714181299	
10.705	0.014	-0.1078240428011472	
10.71	-0.044	-0.1078240428011472	
10.715	-0.233	0.12466903691940208	
10.72	-0.156	0.033881100771466915	
10.725	-0.076	-0.046809743502637176	
10.73	-0.186	-0.1078240428011472	
10.735	-0.162	-0.14078997267876764	
10.74	0.024	-0.14964062379563653	
10.745	-0.110	-0.14488150190702181	
10.75	-0.157	-0.13019721797202438	
10.755	0.049	-0.10912550648269714	
10.76	0.020	-0.08618291830802083	
10.765	-0.128	-0.0643965379243847	
10.77	0.035	-0.04310468494087824	
10.775	0.209	-0.0197548826120088	
10.78	0.020	0.011102567442922167	
10.785	0.037	0.04215858975273746	
10.79	0.241	0.06942115179240926	
10.795	0.084	0.08909695107413783	
10.8	-0.020	0.10173305289085648	
10.805	0.291	0.11192392000094407	
10.81	0.262	0.12885754802452903	
10.815	0.140	0.1535531552161794	
10.82	0.390	0.18890318069159429	
10.825	0.447	0.23229251510841617	
10.83	0.146	0.27005681668139997	
10.835	0.198	0.2881031229559695	
10.84	0.444	0.2924701639442261	
10.845	0.262	0.29514426643029756	
10.85	0.072	0.29067390892280737	
10.855	0.229	0.2718730827347102	
10.86	0.107	0.23590657647343027	
10.865	-0.093	0.18655959304559577	
10.87	0.058	0.13582315339849718	
10.875	0.101	0.08931790361318176	
10.88	-0.151	0.04815048151721252	
10.885	-0.143	0.00905877045637246	
10.89	0.050	-0.02657867877911659	
10.895	-0.085	-0.05276450644584826	
10.9	-0.172	-0.06830485069014097	
10.905	0.027	-0.07419591812861927	
10.91	-0.012	-0.07603675999550398	
10.915	-0.153	-0.07237933733705894	
10.92	-0.014	-0.06526022026823519	
10.925	0.105	-0.05469809722192308	
10.93	-0.096	-0.04176299075345989	
10.935	-0.098	-0.02997790475600985	
10.94	0.136	-0.022653416484288237	
10.945	-0.003	-0.014703255727360705	
10.95	-0.104	-0.006279028127492235	
10.955	0.104	0.001716561957707466	
10.96	0.020	0.0049703051169840634	
10.965	-0.156	0.0016880254853056174	
10.97	-0.060	-0.00832047134920931	
10.975	0.004	-0.02574802783149446	
10.98	-0.182	-0.04668541382393158	
10.985	-0.178	-0.06796930426828057	
10.99	-0.053	-0.08972714972841166	
10.995	-0.168	-0.11267168409167179	
11.0	-0.221	-0.13022541719810282	
11.005	-0.066	-0.13832468616479857	
11.01	-0.131	-0.14504127448816112	
11.015	-0.267	-0.1522694403511925	
11.02	-0.175	-0.15932332643261293	
11.025	-0.130	-0.16876570433846297	
11.03	-0.233	-0.17967899412320038	
11.035	-0.082	-0.17795231858056396	
11.04	0.393	-0.14067548968180568	
11.045	0.326	-0.05663491997444709	
11.05	0.140	-0.13897661485036172	
11.055	0.161	-0.14067548968180568	
11.06	-0.058	-0.14067548968180568	
11.065	-0.253	-0.13897661485036172	
11.07	-0.194	-0.1349991435308242	
11.075	-0.108	-0.010736834818842205	
11.08	-0.239	-0.08565363337883795	
11.085	-0.212	-0.13897661485036172	
11.09	-0.041	-0.16769857616171086	
11.095	-0.122	-0.17764915732740738	
11.1	-0.191	-0.17126907693963594	
11.105	-0.021	-0.1533089673745307	
11.11	-0.064	-0.1349991435308242	
11.115	-0.206	-0.12133153962950677	
11.12	-0.058	-0.10933369204951562	
11.125	0.075	-0.09567649302956101	
11.13	-0.142	-0.0807210377938439	
11.135	-0.084	-0.06704221292905617	
11.14	0.174	-0.04962029965376918	
11.145	0.053	-0.025642535649497276	
11.15	-0.076	0.0016271692920383396	
11.155	0.203	0.026720945665712197	
11.16	0.212	0.053085419866762545	
11.165	0.020	0.08261024697203202	
11.17	0.255	0.1126220671479643	
11.175	0.422	0.15040041226091677	
11.18	0.172	0.1922936492267388	
11.185	0.197	0.22687497964755307	
11.19	0.469	0.2543764244603919	
11.195	0.302	0.27842647707530643	
11.2	0.110	0.2945958469184237	
11.205	0.311	0.29463640126207047	
11.21	0.204	0.277125319439859	
11.215	-0.066	0.24366218025885558	
11.22	0.040	0.19552734842767422	
11.225	0.072	0.13836360883582155	
11.23	-0.165	0.07840569587134222	
11.235	-0.162	0.020868670315456472	
11.24	0.020	-0.029716198682072568	
11.245	-0.105	-0.06649132379755729	
11.25	-0.194	-0.08931986993219522	
11.255	-0.046	-0.10245711499743149	
11.26	-0.095	-0.11187526383055274	
11.265	-0.224	-0.12121738095768854	
11.27	-0.105	-0.12551668701559876	
11.275	-0.012	-0.1267078475585134	
11.28	-0.137	-0.12249783808695874	
11.285	-0.119	-0.11211448930241383	
11.29	0.035	-0.09782193249038745	
11.295	-0.098	-0.08646736980260639	
11.3	-0.185	-0.08026985892066943	
11.305	-0.021	-0.07853038396412758	
11.31	-0.031	-0.0798812379518164	
11.315	-0.177	-0.08114866019080244	
11.32	-0.078	-0.08155768900374921	
11.325	0.030	-0.08075032961577891	
11.33	-0.177	-0.08144131469428222	
11.335	-0.195	-0.08612674295011041	
11.34	-0.111	-0.09988763168353335	
11.345	-0.274	-0.12743075733237394	
11.35	-0.358	-0.16323730967688405	
11.355	-0.217	-0.20057832269231846	
11.36	-0.224	-0.2328683226359458	
11.365	-0.342	-0.25609944899075	
11.37	-0.236	-0.26558407758124214	
11.375	-0.142	-0.26676163250854507	
11.38	-0.297	-0.2624045506263623	
11.385	-0.334	-0.2561351277336126	
11.39	-0.213	-0.2559028648589352	
11.395	-0.183	-0.26040532548722356	
11.4	-0.055	-0.24220740850735384	
11.405	0.462	-0.1745281668733165	
11.41	0.412	-0.2328683226359458	
11.415	-0.038	-0.24220740850735384	
11.42	-0.125	-0.23960554333371845	
11.425	-0.154	-0.23224381378928752	
11.43	-0.314	-0.22071718261080162	
11.435	-0.305	-0.04015682393561672	
11.44	-0.175	-0.12288018537717602	
11.445	-0.246	-0.19036116656531343	
11.45	-0.305	-0.23224381378928752	
11.455	-0.174	-0.2505948642223101	
11.46	-0.168	-0.25583493551807146	
11.465	-0.291	-0.25212229676267733	
11.47	-0.169	-0.23960554333371845	
11.475	-0.058	-0.22071718261080162	
11.48	-0.198	-0.20042629378067656	
11.485	-0.175	-0.17717378599539452	
11.49	0.024	-0.15383272504834664	
11.495	-0.072	-0.1303996113917752	
11.5	-0.178	-0.10731919846047167	
11.505	0.021	-0.08854552656449399	
11.51	0.055	-0.07181187604412637	
11.515	-0.085	-0.05220011438684973	
11.52	0.114	-0.025578616471990806	
11.525	0.314	0.013353373833205756	
11.53	0.107	0.06151316997285885	
11.535	0.203	0.11279899638743521	
11.54	0.512	0.16824304595567457	
11.545	0.367	0.23059076049445776	
11.55	0.207	0.2866179774839397	
11.555	0.430	0.3244698643277595	
11.56	0.349	0.34320472172663585	
11.565	0.059	0.33975781497204544	
11.57	0.171	0.31238072946133055	
11.575	0.215	0.26935445318744256	
11.58	-0.102	0.2145375356795659	
11.585	-0.125	0.14677362634955715	
11.59	0.044	0.07719728419889989	
11.595	-0.124	0.013648025717874768	
11.6	-0.244	-0.0403287419355964	
11.605	-0.114	-0.08559338246623241	
11.61	-0.125	-0.12477534319930007	
11.615	-0.241	-0.1531303690293625	
11.62	-0.140	-0.16565071149775368	
11.625	-0.070	-0.16869846525066323	
11.63	-0.238	-0.17037842084363264	
11.635	-0.238	-0.17121273692898792	
11.64	-0.098	-0.17288170411234186	
11.645	-0.166	-0.17733093172439207	
11.65	-0.255	-0.17728895299308112	
11.655	-0.113	-0.17463344667926156	
11.66	-0.102	-0.17279149393472462	
11.665	-0.215	-0.16811273417589473	
11.67	-0.124	-0.15765683170799116	
11.675	-0.012	-0.14570851655086778	
11.68	-0.157	-0.13438472894012038	
11.685	-0.133	-0.12020089483174605	
11.69	0.059	-0.10385780370677672	
11.695	-0.096	-0.08936200870490502	
11.7	-0.213	-0.0803208221908831	
11.705	-0.085	-0.08259389349040673	
11.71	-0.124	-0.09679827320599928	
11.715	-0.268	-0.11817369850815158	
11.72	-0.180	-0.13761689388540993	
11.725	-0.087	-0.15566141197731004	
11.73	-0.224	-0.1694551160870394	
11.735	-0.200	-0.17419884402027713	
11.74	0.052	-0.1667639044507988	
11.745	-0.143	-0.15040652071983082	
11.75	-0.282	-0.13838934647185913	
11.755	-0.127	-0.1375082699475672	
11.76	0.062	-0.13876864553772816	
11.765	0.163	-0.11123002254566042	
11.77	0.543	-0.025518897090118144	
11.775	0.617	-0.12137188874325261	
11.78	0.096	-0.12137188874325261	
11.785	-0.108	-0.12137188874325261	
11.79	-0.014	-0.11455074357366887	
11.795	-0.145	-0.11123002254566042	
11.8	-0.215	0.0805446686426241	
11.805	-0.081	-0.004404263985662713	
11.81	-0.102	-0.07272774776345242	
11.815	-0.239	-0.12137188874325261	
11.82	-0.136	-0.14853925150670821	
11.825	0.012	-0.15748036298597684	
11.83	-0.148	-0.15262742973961663	
11.835	-0.140	-0.13627699993511244	
11.84	0.094	-0.11455074357366887	
11.845	-0.050	-0.09046940082829047	
11.85	-0.108	-0.0665660245319123	
11.855	0.125	-0.04131136296891661	
11.86	0.102	-0.01569538383515709	
11.865	-0.093	0.006477094647581843	
11.87	0.064	0.023478133327690765	
11.875	0.256	0.03963064867332858	
11.88	0.079	0.06327802901505286	
11.885	0.174	0.09567096268615125	
11.89	0.488	0.14057956395655724	
11.895	0.352	0.19752027125616475	
11.9	0.247	0.2563233970799703	
11.905	0.495	0.3077458521573231	
11.91	0.399	0.3463514995334976	
11.915	0.189	0.36537928151722543	
11.92	0.326	0.3664697275115686	
11.925	0.465	0.3587098076055432	
11.93	0.177	0.34723474161852813	
11.935	0.137	0.32659638635588945	
11.94	0.306	0.295616395334092	
11.945	0.108	0.2575450089538863	
11.95	-0.063	0.21327224620287222	
11.955	0.137	0.16474747957346536	
11.96	0.062	0.1184169597247045	
11.965	-0.149	0.07438732780877219	
11.97	-0.052	0.033431788609338854	
11.975	0.059	-0.002267962723881918	
11.98	-0.154	-0.030718329998689137	
11.985	-0.119	-0.05142343406073494	
11.99	0.154	-0.058392419342675	
11.995	0.001	-0.05039107397320064	
12.0	-0.114	-0.03472714398788282	
12.005	0.097	-0.018320701131376543	
12.01	0.079	-0.005552610878564285	
12.015	-0.114	0.004435842677342983	
12.02	-0.041	0.007357194284042096	
12.025	0.114	0.00370251416876858	
12.03	-0.038	0.0003652145281339775	
12.035	-0.044	0.0025597475843642833	
12.04	0.236	0.013524333288742656	
12.045	0.040	0.029656466165520114	
12.05	-0.095	0.04331535222870545	
12.055	0.143	0.04859453840271688	
12.06	0.038	0.0484456225951385	
12.065	-0.198	0.03551743433955066	
12.07	-0.159	0.006292188071888313	
12.075	-0.075	-0.036359410674067616	
12.08	-0.201	-0.08152793156150769	
12.085	-0.180	-0.11443178220658788	
12.09	0.011	-0.13058072374313742	
12.095	-0.105	-0.13427438709784112	
12.1	-0.192	-0.12860322702407	
12.105	-0.061	-0.12050817095151684	
12.11	-0.110	-0.11856946449159274	
12.115	-0.241	-0.12437485103337047	
12.12	-0.011	-0.12472877718211291	
12.125	0.381	-0.09637917194195456	
12.13	0.348	-0.02141840802513979	
12.135	0.276	-0.11443178220658788	
12.14	0.320	-0.11856946449159274	
12.145	-0.056	-0.11856946449159274	
12.15	-0.221	-0.11856946449159274	
12.155	-0.102	0.14141295824163244	
12.16	-0.113	0.051435324612699757	
12.165	-0.262	-0.03327631064406521	
12.17	-0.197	-0.10076595717014969	
12.175	-0.101	-0.14946867911447068	
12.18	-0.230	-0.18238420618280937	
12.185	-0.224	-0.19640903361791076	
12.19	-0.055	-0.19672983092816065	
12.195	-0.130	-0.1892166990596087	
12.2	-0.195	-0.17450549045788033	
12.205	0.017	-0.1506069972116635	
12.21	-0.017	-0.12358192565018686	
12.215	-0.220	-0.10327651732206314	
12.22	-0.140	-0.09380111121787742	
12.225	0.017	-0.09447928403362635	
12.23	-0.127	-0.09537052663366918	
12.235	-0.117	-0.09043010566553857	
12.24	0.149	-0.07573360174907204	
12.245	-0.012	-0.05519080741615534	
12.25	-0.104	-0.03352997515367407	
12.255	0.207	-0.00963351039083342	
12.26	0.229	0.024468190345368256	
12.265	-0.002	0.06174595200177265	
12.27	0.192	0.09614338573002622	
12.275	0.366	0.12953487652342222	
12.28	0.068	0.1606902084847985	
12.285	0.026	0.17549035414799458	
12.29	0.221	0.17018273019439453	
12.295	0.021	0.15191336606522304	
12.3	-0.163	0.11949641543042519	
12.305	-0.044	0.07220306295808285	
12.31	-0.064	0.016494972071032836	
12.315	-0.207	-0.035087410031639864	
12.32	-0.159	-0.07695484170599652	
12.325	-0.053	-0.10957436790553036	
12.33	-0.209	-0.13413067653586383	
12.335	-0.212	-0.14946031455765518	
12.34	-0.110	-0.15898533854636349	
12.345	-0.215	-0.1710217804577997	
12.35	-0.271	-0.18336360193151824	
12.355	-0.116	-0.18790597362539638	
12.36	-0.105	-0.18854515392872712	
12.365	-0.223	-0.1839681691915412	
12.37	-0.127	-0.17199983433813815	
12.375	-0.008	-0.156653456348047	
12.38	-0.162	-0.1410546137709197	
12.385	-0.175	-0.12646090434022894	
12.39	0.029	-0.11405885838445833	
12.395	-0.052	-0.10196815703298466	
12.4	-0.166	-0.0883318196214879	
12.405	-0.005	-0.07598466964838295	
12.41	-0.006	-0.06854116874230472	
12.415	-0.238	-0.06891779868181952	
12.42	-0.195	-0.08005847470425749	
12.425	-0.105	-0.10469258177731508	
12.43	-0.241	-0.1339889284284933	
12.435	-0.264	-0.15944837549983193	
12.44	-0.130	-0.17911120350047713	
12.445	-0.200	-0.19595170880109186	
12.45	-0.270	-0.2052886752293968	
12.455	-0.146	-0.2060003502445304	
12.46	-0.157	-0.2055610940201295	
12.465	-0.288	-0.20589688810596513	
12.47	-0.235	-0.20602989626510895	
12.475	-0.102	-0.20769697446722823	
12.48	-0.087	-0.2020111736687133	
12.485	0.133	-0.16340238168718613	
12.49	0.564	-0.07602646054021635	
12.495	0.366	-0.17743880416679964	
12.5	0.026	-0.17743880416679964	
12.505	0.035	-0.17743880416679964	
12.51	-0.105	-0.16340238168718613	
12.515	-0.296	-0.16154004208410228	
12.52	-0.221	0.03198603057464286	
12.525	-0.117	-0.058644791960676915	
12.53	-0.236	-0.13203580139679794	
12.535	-0.223	-0.17743880416679964	
12.54	-0.070	-0.19702585549565108	
12.545	-0.154	-0.20099382228255638	
12.55	-0.224	-0.1933557746316436	
12.555	-0.070	-0.17891322193066522	
12.56	-0.056	-0.16154004208410228	
12.565	-0.197	-0.14600472608932688	
12.57	-0.101	-0.12898642060272314	
12.575	0.050	-0.11360561998265398	
12.58	-0.099	-0.09611953096832385	
12.585	-0.101	-0.07747378596196922	
12.59	0.072	-0.05995368939073514	
12.595	-0.005	-0.04503307998013492	
12.6	-0.066	-0.03042654310215101	
12.605	0.204	-0.006825832312111595	
12.61	0.280	0.030500079086162292	
12.615	0.096	0.07789950265092306	
12.62	0.280	0.1290355550230043	
12.625	0.482	0.18347945773733432	
12.63	0.265	0.23781102434498483	
12.635	0.248	0.2834688002204644	
12.64	0.485	0.3161222104876764	
12.645	0.270	0.33496637543797014	
12.65	0.052	0.33147813235769474	
12.655	0.244	0.30517090795004365	
12.66	0.219	0.2665456373183752	
12.665	-0.067	0.22187054263709277	
12.67	0.000	0.16999381674997943	
12.675	0.102	0.11550360049258455	
12.68	-0.163	0.06184927751049141	
12.685	-0.197	0.008449403447741413	
12.69	-0.026	-0.040897617731402346	
12.695	-0.119	-0.08197001971403067	
12.7	-0.201	-0.10847062149521389	
12.705	-0.067	-0.12186985506000124	
12.71	-0.079	-0.12945953452524622	
12.715	-0.197	-0.13307173269918715	
12.72	-0.101	-0.13001466782077759	
12.725	0.017	-0.12153101282013844	
12.73	-0.134	-0.11112325319139738	
12.735	-0.134	-0.09953833869853908	
12.74	0.050	-0.08692702290631975	
12.745	-0.037	-0.07497610226328487	
12.75	-0.146	-0.06347115104165059	
12.755	0.030	-0.052882955295687636	
12.76	0.024	-0.044455548941275985	
12.765	-0.149	-0.04007623149300466	
12.77	-0.073	-0.040036474491880976	
12.775	0.058	-0.04252269355848918	
12.78	-0.151	-0.04911255194259445	
12.785	-0.192	-0.05856367759144377	
12.79	-0.070	-0.07593243187526852	
12.795	-0.175	-0.10095917247053189	
12.8	-0.262	-0.12648127787418023	
12.805	-0.093	-0.14487780505537945	
12.81	-0.131	-0.1584305562448931	
12.815	-0.249	-0.16809418708141144	
12.82	-0.168	-0.17203752039581643	
12.825	-0.060	-0.17148002501133203	
12.83	-0.258	-0.1711379454727414	
12.835	-0.296	-0.17660296558606403	
12.84	-0.053	-0.18287002923300819	
12.845	0.090	-0.1739202672159332	
12.85	0.261	-0.11950645201479887	
12.855	0.691	-0.0038103479165549565	
12.86	0.553	-0.128606167839464	
12.865	0.020	-0.128606167839464	
12.87	-0.076	-0.11950645201479887	
12.875	-0.027	-0.11712434566852645	
12.88	-0.188	0.17988161761087512	
12.885	-0.200	0.0763310365012113	
12.89	-0.055	-0.013826769086245316	
12.895	-0.148	-0.08386972607883006	
12.9	-0.215	-0.128606167839464	
12.905	-0.049	-0.14886628240475902	
12.91	-0.008	-0.15028996694050287	
12.915	-0.145	-0.13817618232567497	
12.92	-0.085	-0.11712434566852645	
12.925	0.047	-0.0963515298210358	
12.93	-0.095	-0.08013975217287236	
12.935	-0.101	-0.06472584339690217	
12.94	0.143	-0.04677694568371375	
12.945	0.049	-0.02586946384997105	
12.95	-0.050	-0.0027008629516860616	
12.955	0.218	0.024162449783059797	
12.96	0.248	0.05877517333374033	
12.965	0.046	0.0947371875283611	
12.97	0.244	0.12884106692029232	
12.975	0.453	0.16775999157250215	
12.98	0.267	0.2138577201834931	
12.985	0.296	0.260170243154663	
12.99	0.605	0.30826711182936595	
12.995	0.477	0.3582136215442597	
13.0	0.283	0.4012104376416551	
13.005	0.494	0.4270837882287172	
13.01	0.468	0.43686316147141796	
13.015	0.146	0.42875569647191447	
13.02	0.180	0.39671118536423366	
13.025	0.325	0.3457603125489527	
13.03	0.015	0.2889743173855795	
13.035	-0.090	0.2241100668440944	
13.04	0.104	0.15215524983376322	
13.045	-0.021	0.08733028003460874	
13.05	-0.169	0.03230868621684819	
13.055	-0.037	-0.01105034974619122	
13.06	-0.037	-0.047140918237066905	
13.065	-0.198	-0.07505753579316218	
13.07	-0.139	-0.09433567873755508	
13.075	-0.026	-0.1093745132262708	
13.08	-0.162	-0.11988605425767272	
13.085	-0.151	-0.12181042750504002	
13.09	0.035	-0.1160043072890339	
13.095	-0.061	-0.10465547430713916	
13.1	-0.137	-0.09056223450792265	
13.105	0.003	-0.07515184309814485	
13.11	-0.005	-0.06421998690731047	
13.115	-0.159	-0.05893891784433555	
13.12	-0.084	-0.057348671197225004	
13.125	0.062	-0.05748566914195161	
13.13	-0.105	-0.05781388341543079	
13.135	-0.125	-0.05575876403967372	
13.14	0.076	-0.05211266404343239	
13.145	-0.098	-0.05064853359859586	
13.15	-0.227	-0.057480967558131334	
13.155	-0.104	-0.07322609468094496	
13.16	-0.127	-0.09725687477105913	
13.165	-0.264	-0.12483939933320266	
13.17	-0.203	-0.14736427795022372	
13.175	-0.108	-0.16756022124169656	
13.18	-0.242	-0.18374988356112176	
13.185	-0.242	-0.1927234493531833	
13.19	-0.111	-0.1951824488116824	
13.195	-0.236	-0.19963626644947396	
13.2	-0.314	-0.2074274268231205	
13.205	-0.049	-0.20724389202507298	
13.21	0.300	-0.17823287911841063	
13.215	0.312	-0.09575882090125884	
13.22	0.363	-0.16756022124169656	
13.225	0.251	-0.17823287911841063	
13.23	-0.151	-0.18226016581063428	
13.235	-0.217	-0.17823287911841063	
13.24	-0.117	-0.16675459594367373	
13.245	-0.198	0.02036041572251089	
13.25	-0.303	-0.06641788022271425	
13.255	-0.162	-0.1352172889225185	
13.26	-0.140	-0.18226016581063428	
13.265	-0.246	-0.20883361406741877	
13.27	-0.160	-0.21334364949116008	
13.275	-0.027	-0.20253409413873597	
13.28	-0.186	-0.1857908166300412	
13.285	-0.188	-0.16675459594367373	
13.29	0.043	-0.1451110512487434	
13.295	-0.055	-0.12163465919769281	
13.3	-0.182	-0.10051537795403806	
13.305	-0.024	-0.08420301935889196	
13.31	0.037	-0.07320528565736874	
13.315	-0.120	-0.06291674175782906	
13.32	0.024	-0.04737693313249293	
13.325	0.265	-0.021436032603034165	
13.33	0.075	0.017195478675014104	
13.335	0.093	0.060163540351314326	
13.34	0.393	0.10494478033066228	
13.345	0.305	0.1554144616350822	
13.35	0.142	0.20441351707528574	
13.355	0.425	0.24378151360275485	
13.36	0.482	0.2828629665626251	
13.365	0.216	0.31907754181084536	
13.37	0.229	0.3375357628946795	
13.375	0.290	0.3295326182303041	
13.38	0.008	0.29524697287019996	
13.385	-0.035	0.24014997019777906	
13.39	0.157	0.177867900552768	
13.395	-0.052	0.11846412757690458	
13.4	-0.230	0.05848697977041244	
13.405	-0.137	-0.0053142631247508985	
13.41	-0.149	-0.06916555350317422	
13.415	-0.294	-0.12578336199961548	
13.42	-0.232	-0.16947282324666613	
13.425	-0.159	-0.20054788575389293	
13.43	-0.267	-0.2236351456438989	
13.435	-0.265	-0.23479384741326062	
13.44	-0.157	-0.23625905616595158	
13.445	-0.223	-0.2365139495402181	
13.45	-0.291	-0.23540975522500052	
13.455	-0.157	-0.22838158348655407	
13.46	-0.128	-0.22020611052044925	
13.465	-0.262	-0.21171728346923058	
13.47	-0.177	-0.20050050810831008	
13.475	-0.041	-0.18759137975283968	
13.48	-0.191	-0.173595022786036	
13.485	-0.206	-0.16080909199843743	
13.49	-0.046	-0.15029892613334192	
13.495	-0.140	-0.14347591095203524	
13.5	-0.239	-0.1404096310878799	
13.505	-0.142	-0.14143264785443826	
13.51	-0.143	-0.15018403205727188	
13.515	-0.317	-0.16569553884298974	
13.52	-0.264	-0.18454571002537723	
13.525	-0.174	-0.20558633161577494	
13.53	-0.274	-0.22555622663449193	
13.535	-0.285	-0.23783001426197434	
13.54	-0.143	-0.24029700490068917	
13.545	-0.192	-0.23844087949601878	
13.55	-0.264	-0.23143389133305864	
13.555	-0.178	-0.21943308071890336	
13.56	-0.174	-0.21314220059590425	
13.565	-0.253	-0.2117364492463638	
13.57	-0.038	-0.19854935818475045	
13.575	0.343	-0.1534702714430347	
13.58	0.172	-0.07256568134283235	
13.585	-0.029	0.014050989860510517	
13.59	-0.005	-0.17395992315269987	
13.595	-0.159	0.06156987704696267	
13.6	-0.282	0.020471000056145997	
13.605	-0.160	-0.03740475756237114	
13.61	-0.146	-0.09706066214362531	
13.615	-0.255	-0.145796025886452	
13.62	-0.178	-0.17556764577485345	
13.625	-0.040	-0.1864178806688455	
13.63	-0.180	-0.18463620979100845	
13.635	-0.195	-0.17395992315269987	
13.64	-0.037	-0.15912398451370863	
13.645	-0.105	-0.14643124912170974	
13.65	-0.186	-0.13464169305247298	
13.655	-0.014	-0.11930288990885532	
13.66	0.044	-0.10099333209397439	
13.665	-0.125	-0.08096109871829674	
13.67	-0.035	-0.06056905386460623	
13.675	0.165	-0.03927165806230837	
13.68	-0.024	-0.01674210323620143	
13.685	-0.011	0.005940541340137614	
13.69	0.253	0.030040716641279986	
13.695	0.187	0.061582344529560844	
13.7	0.068	0.09719925825922864	
13.705	0.354	0.1347750079134404	
13.71	0.373	0.1781122571785932	
13.715	0.116	0.21790457642632147	
13.72	0.256	0.24338609505402675	
13.725	0.448	0.26185332327045396	
13.73	0.200	0.2772362956531479	
13.735	0.116	0.2818321522876881	
13.74	0.338	0.2730760528995775	
13.745	0.171	0.2556426679794591	
13.75	-0.076	0.22713471524983297	
13.755	0.059	0.1817113263346588	
13.76	0.084	0.12816885945339077	
13.765	-0.148	0.07696550914126184	
13.77	-0.122	0.028333798109928122	
13.775	-0.049	-0.019186273553002994	
13.78	-0.192	-0.06568533151245895	
13.785	-0.212	-0.10313096492945845	
13.79	-0.040	-0.12698512339230283	
13.795	-0.110	-0.14033508706791392	
13.8	-0.223	-0.14478680102043365	
13.805	-0.098	-0.14331898975613977	
13.81	-0.052	-0.14087311949097397	
13.815	-0.178	-0.13598902754127523	
13.82	-0.107	-0.12665237840958715	
13.825	0.073	-0.11122071273312703	
13.83	-0.110	-0.09467811652720218	
13.835	-0.131	-0.07812423112962288	
13.84	0.073	-0.06401549633137446	
13.845	-0.009	-0.051340458723779764	
13.85	-0.139	-0.04077364040336917	
13.855	0.027	-0.03333411777272653	
13.86	0.006	-0.0298823996093648	
13.865	-0.201	-0.035983003414796086	
13.87	-0.162	-0.05067365038190163	
13.875	-0.073	-0.07523554195580807	
13.88	-0.215	-0.10465759860097366	
13.885	-0.253	-0.1321196385885029	
13.89	-0.098	-0.15302360039580193	
13.895	-0.165	-0.17032723355552692	
13.9	-0.271	-0.18076918486667873	
13.905	-0.122	-0.18333214327705422	
13.91	-0.082	-0.18186517929941282	
13.915	-0.279	-0.17899019333664068	
13.92	-0.282	-0.1806791337726344	
13.925	-0.139	-0.1922160979834956	
13.93	-0.082	-0.19866305550862653	
13.935	0.171	-0.1690919277841683	
13.94	0.677	-0.07392800297273303	
13.945	0.509	-0.16596825767037032	
13.95	0.076	-0.16596825767037032	
13.955	0.078	-0.15831533517973606	
13.96	-0.047	-0.1391733517063018	
13.965	-0.249	-0.13678817577464192	
13.97	-0.207	0.09630006660457802	
13.975	-0.076	-0.003154806987920977	
13.98	-0.200	-0.0856440165869991	
13.985	-0.218	-0.1391733517063018	
13.99	-0.070	-0.16596825767037032	
13.995	-0.111	-0.17728697456999148	
14.0	-0.191	-0.17384677795134532	
14.005	-0.053	-0.15831533517973606	
14.01	0.027	-0.13678817577464192	
14.015	-0.140	-0.1130609347152359	
14.02	-0.058	-0.08770867707075297	
14.025	0.174	-0.06210008064367002	
14.03	-0.056	-0.03470284192218179	
14.035	-0.087	-0.01224883509455123	
14.04	0.178	0.004091867226078457	
14.045	0.099	0.02172411814230855	
14.05	-0.043	0.04007409741112857	
14.055	0.219	0.05970479079380613	
14.06	0.276	0.08726827578225925	
14.065	0.114	0.11890305624461509	
14.07	0.303	0.15726626374186703	
14.075	0.558	0.20694961770936587	
14.08	0.358	0.2683201452614655	
14.085	0.290	0.3237008001323781	
14.09	0.523	0.3640619081121942	
14.095	0.416	0.39177060808815534	
14.1	0.163	0.4010720350386844	
14.105	0.235	0.3846057382302762	
14.11	0.177	0.3392594470103514	
14.115	-0.117	0.2709798716561971	
14.12	-0.082	0.18720519772056612	
14.125	0.023	0.10086781608145408	
14.13	-0.148	0.0244294586511061	
14.135	-0.201	-0.03723754244483709	
14.14	-0.069	-0.08304276631929443	
14.145	-0.136	-0.11919666141638811	
14.15	-0.238	-0.14279948901693412	
14.155	-0.104	-0.1534418771357005	
14.16	-0.098	-0.15878267566753645	
14.165	-0.244	-0.16291657357993833	
14.17	-0.185	-0.16379212697737267	
14.175	-0.050	-0.1632176265222012	
14.18	-0.175	-0.1615394181748035	
14.185	-0.174	-0.15420176170234196	
14.19	0.021	-0.14009385378249778	
14.195	-0.095	-0.12420650124040691	
14.2	-0.218	-0.11278231935350262	
14.205	-0.069	-0.10647152616594394	
14.21	-0.021	-0.1037849933403967	
14.215	-0.188	-0.10289291342879481	
14.22	-0.093	-0.09981217338749783	
14.225	0.119	-0.09021676680761304	
14.23	-0.137	-0.07550675035245924	
14.235	-0.241	-0.07024506690806562	
14.24	-0.125	-0.08314966306454918	
14.245	-0.198	-0.11215744181796672	
14.25	-0.306	-0.14574923301283607	
14.255	-0.224	-0.17552607377218749	
14.26	-0.183	-0.203778609960795	
14.265	-0.277	-0.22583394966079293	
14.27	-0.220	-0.2328323445042077	
14.275	-0.096	-0.22924829860415452	
14.28	-0.230	-0.22248015759540998	
14.285	-0.294	-0.21422585739326802	
14.29	-0.130	-0.2091431034258834	
14.295	-0.079	-0.20315543075403764	
14.3	-0.006	-0.17774556821371024	
14.305	0.497	-0.10645695411943598	
14.31	0.587	0.017275261036995712	
14.315	0.140	-0.18275607034427055	
14.32	-0.050	-0.18275607034427055	
14.325	-0.052	-0.18275607034427055	
14.33	-0.242	-0.18275607034427055	
14.335	-0.296	-0.17774556821371024	
14.34	-0.156	-0.037132392315684125	
14.345	-0.200	-0.1231129886750599	
14.35	-0.274	-0.18275607034427055	
14.355	-0.148	-0.21251786061415695	
14.36	-0.137	-0.2237458696302262	
14.365	-0.265	-0.2248667818278923	
14.37	-0.197	-0.2178553799471089	
14.375	-0.063	-0.2052050009865778	
14.38	-0.185	-0.1924906490227673	
14.385	-0.180	-0.17526277247590388	
14.39	0.047	-0.1520910663190738	
14.395	-0.009	-0.1231363387862999	
14.4	-0.153	-0.09383720046765606	
14.405	0.023	-0.06849866016585915	
14.41	0.113	-0.04570214809398257	
14.415	-0.034	-0.02192699429440119	
14.42	0.101	0.007130640686323845	
14.425	0.360	0.04587180931219679	
14.43	0.166	0.09449328084214866	
14.435	0.165	0.1436710994077729	
14.44	0.430	0.189941124115515	
14.445	0.383	0.23589702639689553	
14.45	0.186	0.2771168876964758	
14.455	0.380	0.3054801113700857	
14.46	0.393	0.3223285693822706	
14.465	0.119	0.3250675771567207	
14.47	0.174	0.309073952973284	
14.475	0.317	0.28285607194158896	
14.48	0.029	0.24854296142338222	
14.485	-0.139	0.19965256222173908	
14.49	-0.003	0.1328593857710239	
14.495	-0.119	0.056943280091772984	
14.5	-0.244	-0.014795760274083343	
14.505	-0.139	-0.07458506035547911	
14.51	-0.098	-0.12169268047176889	
14.515	-0.235	-0.15380410911199427	
14.52	-0.180	-0.1699251509163899	
14.525	-0.031	-0.1732391600889156	
14.53	-0.143	-0.1683829658703709	
14.535	-0.172	-0.15426315933513374	
14.54	-0.049	-0.13822167585496464	
14.545	-0.137	-0.13008969591006958	
14.55	-0.250	-0.12972998591631066	
14.555	-0.095	-0.13260929973776742	
14.56	-0.090	-0.13675314488873427	
14.565	-0.256	-0.1437801644365525	
14.57	-0.210	-0.15191250981914028	
14.575	-0.058	-0.16027714664942136	
14.58	-0.177	-0.16438175656210946	
14.585	-0.210	-0.16323830838934766	
14.59	-0.060	-0.15622885885042315	
14.595	-0.114	-0.15109373406247756	
14.6	-0.212	-0.14571607984010276	
14.605	-0.163	-0.14060811818545674	
14.61	-0.136	-0.14677165714591717	
14.615	-0.160	-0.1547890640232154	
14.62	0.184	-0.136853907543308	
14.625	0.585	-0.06419794959396188	
14.63	0.283	-0.14571607984010276	
14.635	-0.012	-0.14571607984010276	
14.64	0.001	-0.14571607984010276	
14.645	-0.183	-0.14105810281466857	
14.65	-0.303	-0.14060811818545674	
14.655	-0.177	-0.006601168216626297	
14.66	-0.143	-0.0896994682097182	
14.665	-0.264	-0.15378985240916854	
14.67	-0.195	-0.18992447744287705	
14.675	-0.046	-0.2032119415624776	
14.68	-0.149	-0.20038955866330133	
14.685	-0.197	-0.18330439745522162	
14.69	-0.012	-0.16216949892726706	
14.695	-0.079	-0.14105810281466857	
14.7	-0.194	-0.12381422022392868	
14.705	-0.070	-0.10958797049873421	
14.71	0.000	-0.10066979393154964	
14.715	-0.151	-0.09386848259677522	
14.72	-0.052	-0.0829413252532076	
14.725	0.148	-0.06513740413890207	
14.73	-0.041	-0.042440200408113055	
14.735	-0.067	-0.02137351529516983	
14.74	0.186	-8.497398786677516e-05	
14.745	0.160	0.024970600456058274	
14.75	0.033	0.05609856458142813	
14.755	0.293	0.09244761617960275	
14.76	0.370	0.13641281213826167	
14.765	0.149	0.18106017424003437	
14.77	0.264	0.21900091707644315	
14.775	0.413	0.24993388719752158	
14.78	0.184	0.2695607123985072	
14.785	0.072	0.27253773529630254	
14.79	0.305	0.25792893661257177	
14.795	0.142	0.2350304698483603	
14.8	-0.134	0.19903988611211104	
14.805	-0.063	0.14337474622270935	
14.81	-0.037	0.07346504994269205	
14.815	-0.201	0.004113950776394473	
14.82	-0.149	-0.05204341249655771	
14.825	-0.047	-0.09307006209477102	
14.83	-0.157	-0.12236138555524426	
14.835	-0.160	-0.13544830869514018	
14.84	0.027	-0.13210341637423784	
14.845	-0.031	-0.11793661106279599	
14.85	-0.177	-0.10193280312533565	
14.855	-0.104	-0.0896472677223796	
14.86	-0.020	-0.08853183218542834	
14.865	-0.169	-0.09188727955220304	
14.87	-0.131	-0.09306719808212863	
14.875	0.044	-0.09205908372629312	
14.88	-0.116	-0.08936626865153477	
14.885	-0.154	-0.08548525670700217	
14.89	0.056	-0.07808824137387314	
14.895	-0.009	-0.0689215838619283	
14.9	-0.142	-0.05896864447178654	
14.905	0.000	-0.04862752893303889	
14.91	0.091	-0.039487688692488636	
14.915	-0.107	-0.0299310125386633	
14.92	-0.006	-0.02008921392669839	
14.925	0.189	-0.0059988751361561695	
14.93	-0.050	0.009623716295019834	
14.935	-0.104	0.01744751204546747	
14.94	0.148	0.018938682012673666	
14.945	0.084	0.02212905181708286	
14.95	-0.076	0.02899073678335183	
14.955	0.070	0.034339769971946904	
14.96	0.044	0.033554194549592964	
14.965	-0.159	0.020070107125697786	
14.97	-0.116	-0.0011480205656587306	
14.975	0.020	-0.026985473033609646	
14.98	-0.130	-0.051321507670246624	
14.985	-0.204	-0.07157763624325245	
14.99	-0.031	-0.08908606649488626	
14.995	-0.049	-0.10182886837684792	
15.0	-0.162	-0.1050051708169818	
15.005	-0.012	-0.09668225867743142	
15.01	-0.018	-0.08741707684736305	
15.015	-0.104	-0.07992244856725933	
15.02	0.229	-0.055149239239333285	
15.025	0.739	0.020099429560361735	
15.03	0.681	0.15573019774171942	
15.035	0.425	-0.07157763624325245	
15.04	0.297	-0.07419189383126511	
15.045	-0.024	-0.07419189383126511	
15.05	-0.198	-0.07419189383126511	
15.055	-0.098	0.24530167040788603	
15.06	-0.067	0.1176479262847007	
15.065	-0.215	0.006085341405478825	
15.07	-0.163	-0.07419189383126511	
15.075	-0.034	-0.123905037094941	
15.08	-0.142	-0.15029941168343208	
15.085	-0.175	-0.15566296552436507	
15.09	0.015	-0.14602164246983823	
15.095	-0.034	-0.12876923575825944	
15.1	-0.169	-0.10913833304972743	
15.105	0.001	-0.08867593040370095	
15.11	0.158	-0.06427105210581877	
15.115	-0.026	-0.03401013122566839	
15.12	0.012	-0.0012599222423166512	
15.125	0.239	0.02918446626818897	
15.13	0.076	0.056669669510312284	
15.135	0.009	0.08023260729100824	
15.14	0.282	0.10104570538545125	
15.145	0.265	0.1252811238360354	
15.15	0.117	0.15377504491519867	
15.155	0.386	0.1883371144649815	
15.16	0.530	0.23380863946494435	
15.165	0.367	0.28994068130706996	
15.17	0.450	0.3496990453908926	
15.175	0.628	0.40424491905454923	
15.18	0.363	0.4446581375423395	
15.185	0.229	0.45715413297950924	
15.19	0.482	0.4460574673928045	
15.195	0.364	0.4233275740046277	
15.2	0.087	0.39173486284047776	
15.205	0.194	0.3452786163319245	
15.21	0.187	0.2868305609361077	
15.215	-0.108	0.21997140033325874	
15.22	-0.093	0.14765208605552707	
15.225	0.096	0.07823242252586676	
15.23	-0.078	0.0227603290534839	
15.235	-0.160	-0.016808336475214077	
15.24	0.003	-0.045021130436756526	
15.245	-0.070	-0.06664818733258585	
15.25	-0.192	-0.0831721673940925	
15.255	-0.050	-0.0917663246656866	
15.26	0.043	-0.09220799308286551	
15.265	-0.139	-0.08693680261073705	
15.27	-0.084	-0.0763485302568983	
15.275	0.131	-0.06285763743217743	
15.28	-0.024	-0.04520080692974822	
15.285	-0.096	-0.026767147665179687	
15.29	0.122	-0.011106171141657744	
15.295	0.058	0.0023493113036720894	
15.3	-0.117	0.011903501414119975	
15.305	0.029	0.015169519228994923	
15.31	0.094	0.012728536001495823	
15.315	-0.107	0.008154272679974166	
15.32	-0.085	0.0016573769126088224	
15.325	0.068	-0.008968260073309035	
15.33	-0.134	-0.024156904136760582	
15.335	-0.224	-0.04468651992059572	
15.34	-0.105	-0.07220444573638825	
15.345	-0.175	-0.10668397733891369	
15.35	-0.288	-0.13997335838694455	
15.355	-0.182	-0.1668446432998037	
15.36	-0.142	-0.1873658185318476	
15.365	-0.235	-0.20176977248409012	
15.37	-0.192	-0.20227356244780975	
15.375	-0.119	-0.19705462320783373	
15.38	-0.288	-0.19918184742824624	
15.385	-0.290	-0.2066070181891964	
15.39	0.064	-0.20218967732067136	
15.395	0.354	-0.1606936756568271	
15.4	0.386	-0.05990690721856456	
15.405	0.569	-0.1606936756568271	
15.41	0.351	-0.1606936756568271	
15.415	-0.140	-0.1606936756568271	
15.42	-0.188	-0.14674209132453475	
15.425	-0.087	-0.14624375408425083	
15.43	-0.200	0.08280451709833564	
15.435	-0.238	-0.018594877005628955	
15.44	-0.096	-0.094154616995997	
15.445	-0.140	-0.14674209132453475	
15.45	-0.239	-0.1759814833990868	
15.455	-0.102	-0.1837612243308713	
15.46	-0.026	-0.17736825298139697	
15.465	-0.192	-0.1638660211293423	
15.47	-0.137	-0.14624375408425083	
15.475	0.058	-0.12696497118925426	
15.48	-0.111	-0.10725226854151422	
15.485	-0.156	-0.09066061601528161	
15.49	0.096	-0.07509703800114612	
15.495	0.062	-0.054738278501179675	
15.5	-0.076	-0.03006654184614323	
15.505	0.163	-0.0017437392077533686	
15.51	0.270	0.0346904873092372	
15.515	0.073	0.07508838116805377	
15.52	0.226	0.11672108714055551	
15.525	0.469	0.1640922332880606	
15.53	0.306	0.21776940398784042	
15.535	0.233	0.2662790013673543	
15.54	0.506	0.30688539300940265	
15.545	0.428	0.34131683883328157	
15.55	0.229	0.36591771592878164	
15.555	0.412	0.3781719603977015	
15.56	0.415	0.3797174717201115	
15.565	0.096	0.36614835303298393	
15.57	0.072	0.3286214738698795	
15.575	0.213	0.273031347353043	
15.58	-0.018	0.20989525046307939	
15.585	-0.133	0.14428342266490238	
15.59	-0.003	0.07875456222023304	
15.595	-0.101	0.01439904452635995	
15.6	-0.247	-0.04296455712959795	
15.605	-0.128	-0.08894815679432697	
15.61	-0.067	-0.12329971450703062	
15.615	-0.217	-0.14667868812933918	
15.62	-0.180	-0.15640990035737168	
15.625	-0.043	-0.1580746443389644	
15.63	-0.148	-0.15599570559056974	
15.635	-0.210	-0.149678336116399	
15.64	-0.029	-0.14036276749777027	
15.645	-0.066	-0.13156509237016573	
15.65	-0.197	-0.1218922260466893	
15.655	-0.044	-0.11003903919573084	
15.66	0.072	-0.09632052542339928	
15.665	-0.151	-0.07959800182885646	
15.67	-0.142	-0.06846444125395154	
15.675	0.052	-0.06514436381737268	
15.68	-0.053	-0.06291367382833885	
15.685	-0.148	-0.058654345561959025	
15.69	0.003	-0.054459261929313746	
15.695	-0.090	-0.05955153295886166	
15.7	-0.252	-0.07282011113424697	
15.705	-0.194	-0.09510278830043949	
15.71	-0.156	-0.12737652867898583	
15.715	-0.273	-0.16151891513372665	
15.72	-0.232	-0.1854278242771283	
15.725	-0.085	-0.19920086629047662	
15.73	-0.183	-0.2029107118689094	
15.735	-0.241	-0.1976011075729655	
15.74	-0.113	-0.18847023890101952	
15.745	-0.212	-0.18559436073881247	
15.75	-0.337	-0.19280185052305865	
15.755	-0.117	-0.20005492972689704	
15.76	0.274	-0.18236493360355266	
15.765	0.320	-0.11149476171524508	
15.77	0.474	-0.18236493360355266	
15.775	0.488	-0.18236493360355266	
15.78	-0.032	-0.18236493360355266	
15.785	-0.249	-0.18236493360355266	
15.79	-0.163	-0.17942048124280485	
15.795	-0.194	-0.17138537773175586	
15.8	-0.293	-0.025785978121770827	
15.805	-0.174	-0.11302931579004576	
15.81	-0.096	-0.17138537773175586	
15.815	-0.247	-0.2025465403180035	
15.82	-0.220	-0.2123907999024287	
15.825	-0.089	-0.21119187142234366	
15.83	-0.192	-0.20596024279764846	
15.835	-0.221	-0.19559430138876505	
15.84	-0.050	-0.17942048124280485	
15.845	-0.082	-0.16361394620132974	
15.85	-0.185	-0.14582954127040626	
15.855	-0.052	-0.12701165614593984	
15.86	0.038	-0.10738780782369779	
15.865	-0.114	-0.0876147350389346	
15.87	-0.037	-0.06738073570144938	
15.875	0.174	-0.04213038773920924	
15.88	0.040	-0.014007137330683612	
15.885	0.020	0.0173628588781901	
15.89	0.317	0.05365235939385567	
15.895	0.236	0.09739864997647771	
15.9	0.070	0.13809083971161046	
15.905	0.326	0.17199962631129945	
15.91	0.413	0.20768002971455898	
15.915	0.102	0.2383494481329457	
15.92	0.119	0.24953868985780475	
15.925	0.303	0.24089035761136166	
15.93	0.084	0.22205389486001403	
15.935	-0.024	0.19431106959608602	
15.94	0.137	0.15957726244607903	
15.945	-0.011	0.11746847355343627	
15.95	-0.185	0.0701431997553621	
15.955	-0.107	0.017896121905337643	
15.96	-0.076	-0.034328147052638154	
15.965	-0.212	-0.081520141922026	
15.97	-0.178	-0.11547703002247356	
15.975	-0.053	-0.13718100054165616	
15.98	-0.185	-0.15085979279095332	
15.985	-0.262	-0.1596553377890392	
15.99	-0.113	-0.16651188547660317	
15.995	-0.128	-0.17349826698039056	
16.0	-0.229	-0.1747794825522756	
16.005	-0.098	-0.16715969105998024	
16.01	0.001	-0.15435209915669362	
16.015	-0.175	-0.13746350623781595	
16.02	-0.160	-0.12251007183793212	
16.025	0.014	-0.11223727134483488	
16.03	-0.075	-0.10281478255263896	
16.035	-0.162	-0.09163006926772069	
16.04	-0.034	-0.08256667583397227	
16.045	-0.090	-0.08351095387253513	
16.05	-0.206	-0.0897439143242828	
16.055	-0.079	-0.09717242216364294	
16.06	-0.055	-0.10338533628765864	
16.065	-0.224	-0.112448038045209	
16.07	-0.210	-0.12348750749822836	
16.075	-0.089	-0.13725318955313803	
16.08	-0.204	-0.15383285668660068	
16.085	-0.271	-0.16661310755864833	
16.09	-0.148	-0.17754146949839306	
16.095	-0.175	-0.18952555281317357	
16.1	-0.271	-0.198759255851131	
16.105	-0.151	-0.2001331401367659	
16.11	-0.128	-0.19737580429365958	
16.115	-0.282	-0.19750516085075287	
16.12	-0.203	-0.19746789500064926	
16.125	0.200	-0.18016849365477067	
16.13	0.285	-0.12384026458495145	
16.135	0.282	-0.16661310755864833	
16.14	0.392	-0.16692292044800278	
16.145	0.078	-0.16251897215019795	
16.15	-0.197	-0.14794751075274487	
16.155	-0.143	-0.13509863467776365	
16.16	-0.116	0.08467522831536745	
16.165	-0.256	-0.005565370358773888	
16.17	-0.204	-0.08145674628020605	
16.175	-0.067	-0.13509863467776365	
16.18	-0.166	-0.16692292044800278	
16.185	-0.213	-0.1787012534145538	
16.19	-0.040	-0.1743692893134982	
16.195	-0.078	-0.16251897215019795	
16.2	-0.195	-0.14794751075274487	
16.205	-0.053	-0.13003685427213044	
16.21	0.070	-0.10923690236157521	
16.215	-0.122	-0.08768341010346961	
16.22	-0.063	-0.06550276891566444	
16.225	0.177	-0.04298098813430749	
16.23	0.044	-0.015974623536005497	
16.235	-0.009	0.013183806273695389	
16.24	0.280	0.04673250577751558	
16.245	0.262	0.08553218699939301	
16.25	0.053	0.12592338873588985	
16.255	0.255	0.15897496098893021	
16.26	0.389	0.18786179963411742	
16.265	0.270	0.22125408747384265	
16.27	0.319	0.25945845687207947	
16.275	0.506	0.2990950495901574	
16.28	0.317	0.33199751126668864	
16.285	0.194	0.3501097460118678	
16.29	0.415	0.35177008124739395	
16.295	0.302	0.3435477093007512	
16.3	0.035	0.3218687693840465	
16.305	0.175	0.28397968496536574	
16.31	0.221	0.2398949111677953	
16.315	-0.060	0.19323413203342088	
16.32	-0.058	0.14142720472572842	
16.325	0.058	0.08810598704327122	
16.33	-0.101	0.03604222583888358	
16.335	-0.165	-0.00887845496509373	
16.34	-0.009	-0.04325540217568904	
16.345	-0.078	-0.0694222515099569	
16.35	-0.200	-0.09008583605074286	
16.355	-0.070	-0.10104736827380087	
16.36	0.046	-0.10310660641163896	
16.365	-0.148	-0.0977203919079806	
16.37	-0.105	-0.08759287641777397	
16.375	0.088	-0.07591613190537008	
16.38	-0.049	-0.06292141912238444	
16.385	-0.098	-0.047893261321472334	
16.39	0.137	-0.030294182236382524	
16.395	0.113	-0.008386514391354995	
16.4	-0.066	0.014924680538198119	
16.405	0.076	0.03389142552850209	
16.41	0.161	0.04589113841585649	
16.415	-0.050	0.053322367411866085	
16.42	-0.020	0.05537538331640769	
16.425	0.142	0.05104555656678169	
16.43	-0.095	0.04011746263132051	
16.435	-0.217	0.01610801111358784	
16.44	-0.111	-0.021362780996375334	
16.445	-0.162	-0.0693757630850481	
16.45	-0.256	-0.11500986738252071	
16.455	-0.154	-0.14712666643784755	
16.46	-0.084	-0.1671320076168704	
16.465	-0.185	-0.17562637768712125	
16.47	-0.165	-0.17060666653997808	
16.475	-0.052	-0.1599869854001284	
16.48	-0.212	-0.15488188124461416	
16.485	-0.241	-0.15486686140204237	
16.49	0.021	-0.15133951104066118	
16.495	0.277	-0.12335666511744603	
16.5	0.344	-0.04698929025200778	
16.505	0.587	0.07790853209675827	
16.51	0.465	-0.12335666511744603	
16.515	-0.064	-0.12335666511744603	
16.52	-0.142	-0.11865955424203184	
16.525	-0.006	-0.10033837578679004	
16.53	-0.154	0.13713500405549955	
16.535	-0.223	0.040100532953636	
16.54	-0.085	-0.04031922450761224	
16.545	-0.104	-0.10033837578679004	
16.55	-0.209	-0.1380576321510339	
16.555	-0.095	-0.15212312314003185	
16.56	0.011	-0.1500687283428861	
16.565	-0.142	-0.13767461032014477	
16.57	-0.104	-0.11865955424203184	
16.575	0.082	-0.09590509462245995	
16.58	-0.063	-0.07486751969231334	
16.585	-0.122	-0.05695846785531645	
16.59	0.113	-0.04030590741434947	
16.595	0.087	-0.021308960031113718	
16.6	-0.072	-0.001124425657202459	
16.605	0.111	0.01884880746964768	
16.61	0.305	0.04499757959100216	
16.615	0.079	0.07931808166620731	
16.62	0.142	0.11527399773828695	
16.625	0.439	0.1521257583946568	
16.63	0.352	0.1971946165654557	
16.635	0.276	0.2500082309890307	
16.64	0.561	0.30464989456585806	
16.645	0.494	0.3567293216687769	
16.65	0.259	0.39689297362168463	
16.655	0.380	0.41477151980887794	
16.66	0.427	0.41196547816093054	
16.665	0.131	0.39138158635093645	
16.67	0.110	0.35125139692062524	
16.675	0.256	0.2980381234003335	
16.68	0.015	0.23824723693167155	
16.685	-0.122	0.17406134578146593	
16.69	0.000	0.10654614120163876	
16.695	-0.078	0.038733703555262275	
16.7	-0.217	-0.021965405807389482	
16.705	-0.128	-0.07026476019401282	
16.71	-0.050	-0.10610864257909135	
16.715	-0.192	-0.13049122125046927	
16.72	-0.169	-0.14070226115477352	
16.725	-0.040	-0.1430780918985607	
16.73	-0.163	-0.14371976855463883	
16.735	-0.217	-0.14384516382830204	
16.74	-0.056	-0.14052610349958683	
16.745	-0.075	-0.13730583006742814	
16.75	-0.186	-0.13088979734358677	
16.755	-0.073	-0.1212848795016092	
16.76	0.024	-0.1091746489998304	
16.765	-0.113	-0.09545411235117851	
16.77	-0.073	-0.07868191172997253	
16.775	0.107	-0.06012760082847629	
16.78	-0.069	-0.043713671328209476	
16.785	-0.130	-0.03381761216164201	
16.79	0.053	-0.028559538472441536	
16.795	-0.020	-0.028315923327989642	
16.8	-0.180	-0.03386440170902532	
16.805	-0.124	-0.046311022004440885	
16.81	-0.099	-0.0691985020670845	
16.815	-0.241	-0.10042901887298368	
16.82	-0.204	-0.1276807236602247	
16.825	-0.066	-0.14813626142782188	
16.83	-0.165	-0.1606922252677754	
16.835	-0.213	-0.16380951180281605	
16.84	-0.073	-0.15955782637965732	
16.845	-0.120	-0.15531075955426799	
16.85	-0.279	-0.15488261883386356	
16.855	-0.200	-0.16030113729054768	
16.86	0.023	-0.16415954462969373	
16.865	0.204	-0.14042312852069722	
16.87	0.534	-0.05263263245843661	
16.875	0.747	-0.14042312852069722	
16.88	0.306	-0.14042312852069722	
16.885	-0.095	-0.14042312852069722	
16.89	-0.044	-0.136490497637138	
16.895	-0.124	-0.12146367228093899	
16.9	-0.267	0.1310486064401392	
16.905	-0.162	0.018717757158570977	
16.91	-0.093	-0.07206496699425391	
16.915	-0.215	-0.136490497637138	
16.92	-0.178	-0.1697443997312395	
16.925	-0.009	-0.17899997960834355	
16.93	-0.102	-0.17069617368563067	
16.935	-0.131	-0.14995002750595132	
16.94	0.024	-0.12146367228093899	
16.945	-0.047	-0.09622333961871746	
16.95	-0.195	-0.08205050691606527	
16.955	-0.050	-0.07429579584342913	
16.96	0.090	-0.06797970350350648	
16.965	-0.096	-0.057567741717745605	
16.97	-0.066	-0.043830323873596116	
16.975	0.178	-0.027900140450038906	
16.98	0.065	-0.005686405915154659	
16.985	0.014	0.02193278019378401	
16.99	0.348	0.0585966878416996	
16.995	0.358	0.10988256005894063	
17.0	0.181	0.16886502117002147	
17.005	0.384	0.22465684815398962	
17.01	0.529	0.27811280210679606	
17.015	0.306	0.3264215154331427	
17.02	0.352	0.36507365244625867	
17.025	0.543	0.3911277747371412	
17.03	0.358	0.40737065582025755	
17.035	0.126	0.4048549266667115	
17.04	0.270	0.3765204633572476	
17.045	0.172	0.3269356202118326	
17.05	-0.099	0.2618920141094224	
17.055	-0.043	0.18558002525336037	
17.06	0.006	0.10511348275562538	
17.065	-0.143	0.03151753735934307	
17.07	-0.119	-0.023929290158431277	
17.075	0.058	-0.05792090476735212	
17.08	-0.113	-0.07756294881472561	
17.085	-0.194	-0.08809469639999157	
17.09	-0.049	-0.09552937744161229	
17.095	-0.058	-0.10305061869584768	
17.1	-0.178	-0.10704583080427392	
17.105	-0.095	-0.10544329351375978	
