Vernier Format 2
ecg7.txt 10/18/2025 7:47:10
Run 1
Time	Potential	EKG	
T	P	E	
s	mV	mV	

0.000	-0.134	-0.006	
0.005	-0.153	-0.028	
0.010	-0.226	-0.064	
0.015	-0.160	-0.105	
0.020	-0.143	-0.138	
0.025	-0.223	-0.159	
0.030	-0.204	-0.177	
0.035	-0.163	-0.190	
0.040	-0.282	-0.199	
0.045	-0.235	-0.211	
0.050	0.171	-0.204	
0.055	0.401	-0.140	
0.060	0.491	-0.015	
0.065	0.482	0.135	
0.070	0.165	0.259	
0.075	-0.168	0.301	
0.080	-0.204	0.249	
0.085	-0.186	0.143	
0.090	-0.259	0.025	
0.095	-0.259	-0.082	
0.100	-0.171	-0.163	
0.105	-0.217	-0.210	
0.110	-0.264	-0.235	
0.115	-0.151	-0.245	
0.120	-0.111	-0.236	
0.125	-0.192	-0.214	
0.130	-0.111	-0.192	
0.135	-0.003	-0.165	
0.140	-0.082	-0.130	
0.145	-0.090	-0.101	
0.150	0.037	-0.079	
0.155	-0.043	-0.056	
0.160	-0.102	-0.041	
0.165	0.056	-0.035	
0.170	0.082	-0.022	
0.175	-0.011	-0.001	
0.180	0.160	0.019	
0.185	0.343	0.056	
0.190	0.262	0.115	
0.195	0.241	0.174	
0.200	0.405	0.223	
0.205	0.344	0.271	
0.210	0.236	0.306	
0.215	0.338	0.320	
0.220	0.280	0.323	
0.225	0.041	0.308	
0.230	-0.002	0.261	
0.235	0.061	0.194	
0.240	-0.113	0.125	
0.245	-0.154	0.054	
0.250	-0.055	-0.013	
0.255	-0.089	-0.060	
0.260	-0.186	-0.091	
0.265	-0.098	-0.115	
0.270	-0.047	-0.126	
0.275	-0.149	-0.124	
0.280	-0.073	-0.119	
0.285	0.015	-0.108	
0.290	-0.095	-0.089	
0.295	-0.107	-0.076	
0.300	-0.008	-0.070	
0.305	-0.058	-0.063	
0.310	-0.136	-0.059	
0.315	-0.046	-0.064	
0.320	0.001	-0.065	
0.325	-0.096	-0.060	
0.330	-0.056	-0.058	
0.335	0.026	-0.054	
0.340	-0.105	-0.048	
0.345	-0.137	-0.051	
0.350	-0.055	-0.063	
0.355	-0.139	-0.075	
0.360	-0.204	-0.092	
0.365	-0.119	-0.114	
0.370	-0.104	-0.129	
0.375	-0.194	-0.137	
0.380	-0.153	-0.145	
0.385	-0.140	-0.152	
0.390	-0.236	-0.158	
0.395	-0.171	-0.168	
0.400	0.235	-0.158	
0.405	0.381	-0.092	
0.410	0.293	0.016	
0.415	0.213	0.121	
0.420	-0.012	0.183	
0.425	-0.198	0.179	
0.430	-0.178	0.117	
0.435	-0.085	0.036	
0.440	-0.169	-0.035	
0.445	-0.195	-0.092	
0.450	-0.098	-0.133	
0.455	-0.104	-0.152	
0.460	-0.182	-0.155	
0.465	-0.076	-0.153	
0.470	-0.043	-0.142	
0.475	-0.137	-0.123	
0.480	-0.105	-0.111	
0.485	0.006	-0.100	
0.490	-0.070	-0.084	
0.495	-0.061	-0.070	
0.500	0.131	-0.052	
0.505	0.087	-0.021	
0.510	0.001	0.012	
0.515	0.212	0.040	
0.520	0.332	0.082	
0.525	0.233	0.138	
0.530	0.273	0.190	
0.535	0.335	0.232	
0.540	0.194	0.262	
0.545	0.195	0.271	
0.550	0.404	0.271	
0.555	0.323	0.282	
0.560	0.157	0.291	
0.565	0.233	0.282	
0.570	0.226	0.265	
0.575	0.011	0.239	
0.580	0.021	0.195	
0.585	0.117	0.145	
0.590	-0.050	0.103	
0.595	-0.107	0.060	
0.600	0.004	0.015	
0.605	-0.026	-0.015	
0.610	-0.165	-0.037	
0.615	-0.116	-0.063	
0.620	-0.076	-0.086	
0.625	-0.174	-0.102	
0.630	-0.127	-0.116	
0.635	-0.003	-0.122	
0.640	-0.093	-0.112	
0.645	-0.124	-0.101	
0.650	0.088	-0.089	
0.655	0.023	-0.063	
0.660	-0.119	-0.038	
0.665	-0.027	-0.030	
0.670	0.058	-0.026	
0.675	-0.096	-0.019	
0.680	-0.056	-0.021	
0.685	0.032	-0.027	
0.690	-0.119	-0.029	
0.695	-0.192	-0.044	
0.700	-0.130	-0.072	
0.705	-0.209	-0.103	
0.710	-0.250	-0.136	
0.715	-0.160	-0.167	
0.720	-0.133	-0.184	
0.725	-0.230	-0.189	
0.730	-0.226	-0.194	
0.735	-0.178	-0.200	
0.740	-0.209	-0.203	
0.745	-0.084	-0.198	
0.750	0.332	-0.161	
0.755	0.402	-0.068	
0.760	0.160	0.050	
0.765	0.041	0.134	
0.770	-0.113	0.157	
0.775	-0.302	0.117	
0.780	-0.316	0.028	
0.785	-0.221	-0.074	
0.790	-0.258	-0.158	
0.795	-0.273	-0.216	
0.800	-0.188	-0.251	
0.805	-0.217	-0.261	
0.810	-0.291	-0.260	
0.815	-0.197	-0.258	
0.820	-0.143	-0.247	
0.825	-0.230	-0.229	
0.830	-0.186	-0.215	
0.835	-0.073	-0.199	
0.840	-0.119	-0.175	
0.845	-0.159	-0.153	
0.850	-0.066	-0.137	
0.855	-0.072	-0.121	
0.860	-0.153	-0.107	
0.865	-0.049	-0.100	
0.870	0.076	-0.086	
0.875	-0.055	-0.061	
0.880	0.014	-0.039	
0.885	0.232	-0.011	
0.890	0.143	0.033	
0.895	0.123	0.078	
0.900	0.294	0.118	
0.905	0.258	0.160	
0.910	0.061	0.192	
0.915	0.122	0.195	
0.920	0.166	0.182	
0.925	-0.027	0.162	
0.930	-0.066	0.124	
0.935	-0.021	0.074	
0.940	-0.134	0.025	
0.945	-0.162	-0.025	
0.950	-0.031	-0.067	
0.955	-0.050	-0.088	
0.960	-0.137	-0.095	
0.965	-0.078	-0.099	
0.970	-0.043	-0.098	
0.975	-0.137	-0.094	
0.980	-0.076	-0.092	
0.985	0.084	-0.084	
0.990	-0.029	-0.062	
0.995	-0.090	-0.042	
1.000	0.067	-0.031	
1.005	-0.026	-0.019	
1.010	-0.114	-0.015	
1.015	0.000	-0.021	
1.020	0.087	-0.022	
1.025	-0.093	-0.014	
1.030	-0.079	-0.016	
1.035	0.059	-0.023	
1.040	-0.113	-0.026	
1.045	-0.206	-0.039	
1.050	-0.137	-0.069	
1.055	-0.174	-0.101	
1.060	-0.250	-0.132	
1.065	-0.174	-0.162	
1.070	-0.127	-0.181	
1.075	-0.197	-0.185	
1.080	-0.177	-0.185	
1.085	-0.171	-0.184	
1.090	-0.239	-0.185	
1.095	-0.104	-0.186	
1.100	0.434	-0.153	
1.105	0.543	-0.048	
1.110	0.259	0.095	
1.115	0.140	0.203	
1.120	-0.014	0.243	
1.125	-0.209	0.213	
1.130	-0.188	0.131	
1.135	-0.093	0.035	
1.140	-0.182	-0.044	
1.145	-0.220	-0.106	
1.150	-0.102	-0.151	
1.155	-0.136	-0.170	
1.160	-0.226	-0.176	
1.165	-0.122	-0.179	
1.170	-0.064	-0.172	
1.175	-0.145	-0.155	
1.180	-0.096	-0.139	
1.185	0.047	-0.119	
1.190	-0.046	-0.089	
1.195	-0.072	-0.063	
1.200	0.140	-0.041	
1.205	0.091	-0.009	
1.210	-0.041	0.022	
1.215	0.142	0.040	
1.220	0.294	0.066	
1.225	0.154	0.107	
1.230	0.197	0.145	
1.235	0.416	0.181	
1.240	0.346	0.229	
1.245	0.309	0.275	
1.250	0.503	0.315	
1.255	0.439	0.358	
1.260	0.235	0.387	
1.265	0.308	0.386	
1.270	0.282	0.367	
1.275	-0.015	0.329	
1.280	-0.026	0.260	
1.285	0.070	0.178	
1.290	-0.078	0.107	
1.295	-0.146	0.041	
1.300	-0.055	-0.018	
1.305	-0.102	-0.061	
1.310	-0.195	-0.091	
1.315	-0.113	-0.117	
1.320	-0.053	-0.131	
1.325	-0.139	-0.129	
1.330	-0.117	-0.126	
1.335	-0.015	-0.119	
1.340	-0.099	-0.105	
1.345	-0.148	-0.095	
1.350	-0.041	-0.093	
1.355	-0.079	-0.089	
1.360	-0.180	-0.088	
1.365	-0.102	-0.097	
1.370	-0.050	-0.103	
1.375	-0.186	-0.105	
1.380	-0.156	-0.113	
1.385	-0.049	-0.122	
1.390	-0.153	-0.122	
1.395	-0.183	-0.124	
1.400	-0.075	-0.130	
1.405	-0.114	-0.129	
1.410	-0.221	-0.129	
1.415	-0.136	-0.138	
1.420	-0.061	-0.142	
1.425	-0.165	-0.137	
1.430	-0.195	-0.136	
1.435	-0.157	-0.144	
1.440	-0.213	-0.154	
1.445	-0.082	-0.162	
1.450	0.463	-0.132	
1.455	0.649	-0.024	
1.460	0.355	0.132	
1.465	0.227	0.257	
1.470	0.043	0.310	
1.475	-0.200	0.285	
1.480	-0.210	0.193	
1.485	-0.098	0.079	
1.490	-0.174	-0.018	
1.495	-0.200	-0.092	
1.500	-0.075	-0.142	
1.505	-0.085	-0.160	
1.510	-0.213	-0.161	
1.515	-0.146	-0.162	
1.520	-0.067	-0.159	
1.525	-0.131	-0.147	
1.530	-0.108	-0.134	
1.535	0.021	-0.118	
1.540	-0.044	-0.094	
1.545	-0.111	-0.073	
1.550	0.056	-0.058	
1.555	0.065	-0.038	
1.560	-0.038	-0.014	
1.565	0.163	0.008	
1.570	0.282	0.043	
1.575	0.108	0.091	
1.580	0.148	0.128	
1.585	0.395	0.159	
1.590	0.323	0.203	
1.595	0.200	0.245	
1.600	0.381	0.271	
1.605	0.346	0.294	
1.610	0.165	0.308	
1.615	0.242	0.301	
1.620	0.253	0.283	
1.625	0.037	0.258	
1.630	-0.017	0.213	
1.635	0.068	0.154	
1.640	-0.067	0.100	
1.645	-0.146	0.045	
1.650	-0.047	-0.010	
1.655	-0.078	-0.049	
1.660	-0.178	-0.077	
1.665	-0.101	-0.101	
1.670	-0.040	-0.114	
1.675	-0.134	-0.114	
1.680	-0.116	-0.112	
1.685	0.004	-0.107	
1.690	-0.089	-0.094	
1.695	-0.182	-0.087	
1.700	-0.096	-0.092	
1.705	-0.124	-0.101	
1.710	-0.218	-0.112	
1.715	-0.137	-0.130	
1.720	-0.053	-0.139	
1.725	-0.148	-0.136	
1.730	-0.116	-0.131	
1.735	-0.031	-0.123	
1.740	-0.165	-0.113	
1.745	-0.262	-0.115	
1.750	-0.183	-0.135	
1.755	-0.203	-0.159	
1.760	-0.274	-0.181	
1.765	-0.206	-0.202	
1.770	-0.140	-0.214	
1.775	-0.233	-0.213	
1.780	-0.218	-0.212	
1.785	-0.108	-0.208	
1.790	-0.174	-0.195	
1.795	-0.108	-0.179	
1.800	0.309	-0.142	
1.805	0.431	-0.054	
1.810	0.178	0.061	
1.815	0.094	0.148	
1.820	-0.021	0.179	
1.825	-0.198	0.154	
1.830	-0.226	0.084	
1.835	-0.117	-0.001	
1.840	-0.186	-0.073	
1.845	-0.229	-0.128	
1.850	-0.085	-0.165	
1.855	-0.081	-0.175	
1.860	-0.198	-0.168	
1.865	-0.120	-0.161	
1.870	0.015	-0.148	
1.875	-0.095	-0.122	
1.880	-0.072	-0.099	
1.885	0.053	-0.077	
1.890	-0.060	-0.054	
1.895	-0.125	-0.041	
1.900	0.044	-0.039	
1.905	0.049	-0.031	
1.910	-0.046	-0.016	
1.915	0.154	-0.001	
1.920	0.312	0.033	
1.925	0.163	0.087	
1.930	0.198	0.136	
1.935	0.412	0.180	
1.940	0.309	0.230	
1.945	0.161	0.267	
1.950	0.360	0.282	
1.955	0.344	0.293	
1.960	0.096	0.298	
1.965	0.180	0.278	
1.970	0.247	0.250	
1.975	-0.029	0.219	
1.980	-0.072	0.169	
1.985	0.085	0.109	
1.990	-0.053	0.062	
1.995	-0.166	0.018	
2.000	-0.066	-0.027	
2.005	-0.082	-0.062	
2.010	-0.200	-0.088	
2.015	-0.117	-0.112	
2.020	-0.047	-0.125	
2.025	-0.142	-0.125	
2.030	-0.122	-0.123	
2.035	0.070	-0.114	
2.040	-0.058	-0.090	
2.045	-0.110	-0.069	
2.050	0.037	-0.057	
2.055	0.020	-0.041	
2.060	-0.098	-0.027	
2.065	-0.017	-0.024	
2.070	0.052	-0.022	
2.075	-0.075	-0.016	
2.080	-0.093	-0.019	
2.085	-0.024	-0.030	
2.090	-0.128	-0.043	
2.095	-0.246	-0.065	
2.100	-0.153	-0.100	
2.105	-0.168	-0.132	
2.110	-0.265	-0.158	
2.115	-0.185	-0.182	
2.120	-0.108	-0.195	
2.125	-0.213	-0.193	
2.130	-0.217	-0.192	
2.135	-0.149	-0.192	
2.140	-0.188	-0.189	
2.145	-0.160	-0.185	
2.150	0.200	-0.163	
2.155	0.412	-0.092	
2.160	0.264	0.020	
2.165	0.206	0.123	
2.170	0.043	0.185	
2.175	-0.201	0.185	
2.180	-0.213	0.125	
2.185	-0.131	0.037	
2.190	-0.204	-0.045	
2.195	-0.267	-0.114	
2.200	-0.142	-0.167	
2.205	-0.134	-0.194	
2.210	-0.261	-0.203	
2.215	-0.210	-0.209	
2.220	-0.137	-0.212	
2.225	-0.232	-0.207	
2.230	-0.212	-0.204	
2.235	-0.058	-0.198	
2.240	-0.114	-0.179	
2.245	-0.163	-0.157	
2.250	-0.020	-0.139	
2.255	-0.014	-0.114	
2.260	-0.120	-0.089	
2.265	-0.005	-0.072	
2.270	0.151	-0.049	
2.275	0.011	-0.015	
2.280	0.008	0.013	
2.285	0.230	0.036	
2.290	0.187	0.071	
2.295	0.079	0.107	
2.300	0.255	0.132	
2.305	0.241	0.159	
2.310	0.075	0.180	
2.315	0.171	0.183	
2.320	0.203	0.179	
2.325	-0.040	0.169	
2.330	-0.099	0.134	
2.335	0.037	0.083	
2.340	-0.050	0.039	
2.345	-0.171	-0.001	
2.350	-0.092	-0.043	
2.355	-0.096	-0.076	
2.360	-0.217	-0.101	
2.365	-0.191	-0.128	
2.370	-0.128	-0.152	
2.375	-0.220	-0.166	
2.380	-0.203	-0.178	
2.385	-0.096	-0.184	
2.390	-0.162	-0.179	
2.395	-0.221	-0.173	
2.400	-0.101	-0.171	
2.405	-0.079	-0.161	
2.410	-0.159	-0.146	
2.415	-0.120	-0.135	
2.420	-0.058	-0.126	
2.425	-0.163	-0.117	
2.430	-0.194	-0.118	
2.435	-0.082	-0.125	
2.440	-0.162	-0.130	
2.445	-0.258	-0.139	
2.450	-0.175	-0.157	
2.455	-0.217	-0.175	
2.460	-0.342	-0.195	
2.465	-0.276	-0.224	
2.470	-0.191	-0.246	
2.475	-0.277	-0.255	
2.480	-0.282	-0.260	
2.485	-0.226	-0.263	
2.490	-0.326	-0.265	
2.495	-0.349	-0.274	
2.500	-0.092	-0.279	
2.505	0.256	-0.243	
2.510	0.320	-0.146	
2.515	0.338	-0.015	
2.520	0.180	0.107	
2.525	-0.163	0.172	
2.530	-0.244	0.154	
2.535	-0.169	0.079	
2.540	-0.250	-0.011	
2.545	-0.310	-0.098	
2.550	-0.182	-0.172	
2.555	-0.182	-0.215	
2.560	-0.276	-0.235	
2.565	-0.198	-0.244	
2.570	-0.101	-0.239	
2.575	-0.188	-0.220	
2.580	-0.186	-0.200	
2.585	-0.050	-0.182	
2.590	-0.075	-0.156	
2.595	-0.128	-0.129	
2.600	-0.014	-0.109	
2.605	0.009	-0.085	
2.610	-0.066	-0.061	
2.615	0.072	-0.040	
2.620	0.277	-0.006	
2.625	0.099	0.045	
2.630	0.123	0.090	
2.635	0.372	0.128	
2.640	0.317	0.178	
2.645	0.251	0.228	
2.650	0.434	0.268	
2.655	0.427	0.310	
2.660	0.224	0.343	
2.665	0.306	0.350	
2.670	0.390	0.346	
2.675	0.140	0.337	
2.680	0.068	0.304	
2.685	0.239	0.256	
2.690	0.032	0.211	
2.695	-0.105	0.160	
2.700	-0.003	0.097	
2.705	-0.035	0.041	
2.710	-0.148	-0.004	
2.715	-0.104	-0.046	
2.720	-0.035	-0.076	
2.725	-0.142	-0.091	
2.730	-0.145	-0.103	
2.735	0.003	-0.110	
2.740	-0.052	-0.102	
2.745	-0.131	-0.090	
2.750	-0.032	-0.083	
2.755	-0.035	-0.075	
2.760	-0.169	-0.070	
2.765	-0.107	-0.077	
2.770	0.017	-0.083	
2.775	-0.116	-0.079	
2.780	-0.166	-0.080	
2.785	-0.044	-0.089	
2.790	-0.119	-0.094	
2.795	-0.207	-0.102	
2.800	-0.117	-0.117	
2.805	-0.111	-0.128	
2.810	-0.203	-0.135	
2.815	-0.140	-0.144	
2.820	-0.044	-0.146	
2.825	-0.163	-0.138	
2.830	-0.182	-0.134	
2.835	-0.072	-0.135	
2.840	-0.175	-0.134	
2.845	-0.232	-0.139	
2.850	0.008	-0.145	
2.855	0.358	-0.114	
2.860	0.508	-0.021	
2.865	0.658	0.122	
2.870	0.613	0.282	
2.875	0.152	0.403	
2.880	-0.084	0.427	
2.885	-0.029	0.357	
2.890	-0.110	0.246	
2.895	-0.172	0.126	
2.900	-0.052	0.021	
2.905	0.000	-0.048	
2.910	-0.145	-0.082	
2.915	-0.120	-0.102	
2.920	-0.031	-0.113	
2.925	-0.145	-0.112	
2.930	-0.154	-0.113	
2.935	0.001	-0.113	
2.940	-0.053	-0.102	
2.945	-0.148	-0.089	
2.950	-0.003	-0.083	
2.955	0.094	-0.067	
2.960	-0.049	-0.041	
2.965	0.026	-0.019	
2.970	0.216	0.005	
2.975	0.087	0.041	
2.980	0.139	0.076	
2.985	0.346	0.112	
2.990	0.277	0.160	
2.995	0.184	0.204	
3.000	0.389	0.236	
3.005	0.445	0.273	
3.010	0.236	0.311	
3.015	0.277	0.327	
3.020	0.367	0.328	
3.025	0.136	0.321	
3.030	0.011	0.288	
3.035	0.136	0.233	
3.040	0.011	0.176	
3.045	-0.128	0.117	
3.050	-0.066	0.052	
3.055	-0.063	-0.005	
3.060	-0.174	-0.048	
3.065	-0.142	-0.086	
3.070	-0.024	-0.111	
3.075	-0.127	-0.118	
3.080	-0.169	-0.120	
3.085	-0.031	-0.122	
3.090	-0.087	-0.115	
3.095	-0.200	-0.109	
3.100	-0.090	-0.112	
3.105	-0.060	-0.114	
3.110	-0.154	-0.110	
3.115	-0.095	-0.109	
3.120	0.120	-0.099	
3.125	-0.072	-0.072	
3.130	-0.122	-0.053	
3.135	-0.014	-0.048	
3.140	-0.072	-0.048	
3.145	-0.163	-0.053	
3.150	-0.114	-0.070	
3.155	-0.146	-0.090	
3.160	-0.261	-0.114	
3.165	-0.210	-0.145	
3.170	-0.110	-0.170	
3.175	-0.172	-0.179	
3.180	-0.198	-0.180	
3.185	-0.114	-0.179	
3.190	-0.175	-0.173	
3.195	-0.268	-0.172	
3.200	-0.099	-0.178	
3.205	0.126	-0.163	
3.210	0.149	-0.112	
3.215	0.416	-0.027	
3.220	0.392	0.083	
3.225	-0.069	0.174	
3.230	-0.220	0.188	
3.235	-0.119	0.131	
3.240	-0.157	0.051	
3.245	-0.258	-0.030	
3.250	-0.165	-0.103	
3.255	-0.104	-0.151	
3.260	-0.218	-0.175	
3.265	-0.111	-0.184	
3.270	0.006	-0.175	
3.275	-0.175	-0.150	
3.280	-0.197	-0.136	
3.285	-0.005	-0.130	
3.290	-0.063	-0.116	
3.295	-0.191	-0.102	
3.300	-0.064	-0.100	
3.305	0.032	-0.094	
3.310	-0.101	-0.078	
3.315	-0.008	-0.064	
3.320	0.168	-0.043	
3.325	0.040	-0.008	
3.330	0.058	0.025	
3.335	0.311	0.058	
3.340	0.213	0.105	
3.345	0.079	0.146	
3.350	0.332	0.172	
3.355	0.436	0.207	
3.360	0.236	0.253	
3.365	0.169	0.278	
3.370	0.261	0.278	
3.375	0.032	0.260	
3.380	-0.067	0.215	
3.385	0.009	0.149	
3.390	-0.125	0.081	
3.395	-0.281	0.008	
3.400	-0.175	-0.069	
3.405	-0.131	-0.129	
3.410	-0.270	-0.167	
3.415	-0.207	-0.196	
3.420	-0.032	-0.207	
3.425	-0.242	-0.198	
3.430	-0.296	-0.194	
3.435	-0.120	-0.201	
3.440	-0.178	-0.200	
3.445	-0.284	-0.198	
3.450	-0.163	-0.202	
3.455	-0.105	-0.200	
3.460	-0.203	-0.189	
3.465	-0.178	-0.180	
3.470	-0.047	-0.171	
3.475	-0.203	-0.156	
3.480	-0.276	-0.154	
3.485	-0.162	-0.167	
3.490	-0.143	-0.177	
3.495	-0.221	-0.180	
3.500	-0.198	-0.184	
3.505	-0.172	-0.189	
3.510	-0.303	-0.195	
3.515	-0.306	-0.213	
3.520	-0.169	-0.232	
3.525	-0.268	-0.241	
3.530	-0.282	-0.246	
3.535	-0.099	-0.247	
3.540	-0.198	-0.232	
3.545	-0.358	-0.222	
3.550	-0.247	-0.230	
3.555	-0.075	-0.234	
3.560	-0.040	-0.213	
3.565	0.119	-0.165	
3.570	0.428	-0.082	
3.575	0.133	0.025	
3.580	-0.178	0.097	
3.585	-0.209	0.094	
3.590	-0.262	0.036	
3.595	-0.364	-0.050	
3.600	-0.267	-0.141	
3.605	-0.203	-0.211	
3.610	-0.326	-0.252	
3.615	-0.320	-0.280	
3.620	-0.242	-0.298	
3.625	-0.403	-0.308	
3.630	-0.491	-0.326	
3.635	-0.340	-0.355	
3.640	-0.380	-0.375	
3.645	-0.489	-0.389	
3.650	-0.430	-0.407	
3.655	-0.427	-0.422	
3.660	-0.544	-0.436	
3.665	-0.465	-0.454	
3.670	-0.335	-0.463	
3.675	-0.432	-0.454	
3.680	-0.428	-0.441	
3.685	-0.276	-0.425	
3.690	-0.284	-0.397	
3.695	-0.419	-0.369	
3.700	-0.291	-0.352	
3.705	-0.235	-0.335	
3.710	-0.377	-0.318	
3.715	-0.328	-0.312	
3.720	-0.229	-0.309	
3.725	-0.348	-0.303	
3.730	-0.340	-0.302	
3.735	-0.259	-0.306	
3.740	-0.317	-0.305	
3.745	-0.383	-0.307	
3.750	-0.252	-0.313	
3.755	-0.274	-0.312	
3.760	-0.462	-0.312	
3.765	-0.403	-0.328	
3.770	-0.273	-0.347	
3.775	-0.351	-0.352	
3.780	-0.335	-0.350	
3.785	-0.224	-0.342	
3.790	-0.229	-0.321	
3.795	-0.358	-0.300	
3.800	-0.239	-0.289	
3.805	-0.177	-0.277	
3.810	-0.319	-0.262	
3.815	-0.313	-0.258	
3.820	-0.188	-0.261	
3.825	-0.143	-0.252	
3.830	-0.218	-0.234	
3.835	-0.143	-0.215	
3.840	-0.192	-0.198	
3.845	-0.261	-0.189	
3.850	-0.066	-0.186	
3.855	0.078	-0.165	
3.860	-0.131	-0.126	
3.865	-0.157	-0.099	
3.870	-0.017	-0.089	
3.875	-0.142	-0.083	
3.880	-0.186	-0.087	
3.885	0.053	-0.094	
3.890	0.052	-0.082	
3.895	-0.154	-0.060	
3.900	-0.073	-0.054	
3.905	0.126	-0.049	
3.910	0.149	-0.022	
3.915	0.348	0.031	
3.920	0.627	0.119	
3.925	0.427	0.234	
3.930	0.178	0.324	
3.935	0.197	0.353	
3.940	0.062	0.332	
3.945	-0.171	0.267	
3.950	-0.034	0.172	
3.955	0.050	0.084	
3.960	-0.107	0.024	
3.965	-0.073	-0.021	
3.970	0.101	-0.046	
3.975	-0.015	-0.045	
3.980	-0.063	-0.036	
3.985	0.072	-0.028	
3.990	0.075	-0.012	
3.995	-0.009	0.008	
4.000	0.134	0.025	
4.005	0.183	0.049	
4.010	-0.043	0.073	
4.015	-0.002	0.076	
4.020	0.337	0.077	
4.025	0.305	0.108	
4.030	0.180	0.155	
4.035	0.384	0.198	
4.040	0.334	0.242	
4.045	0.194	0.276	
4.050	0.415	0.295	
4.055	0.578	0.323	
4.060	0.413	0.369	
4.065	0.427	0.408	
4.070	0.680	0.441	
4.075	0.413	0.478	
4.080	0.230	0.488	
4.085	0.383	0.461	
4.090	0.381	0.426	
4.095	0.168	0.391	
4.100	0.244	0.345	
4.105	0.279	0.303	
4.110	0.152	0.270	
4.115	0.296	0.244	
4.120	0.527	0.245	
4.125	0.309	0.277	
4.130	0.238	0.306	
4.135	0.552	0.325	
4.140	0.530	0.361	
4.145	0.341	0.402	
4.150	0.523	0.428	
4.155	0.651	0.456	
4.160	0.474	0.492	
4.165	0.535	0.517	
4.170	0.672	0.536	
4.175	0.453	0.554	
4.180	0.287	0.547	
4.185	0.439	0.510	
4.190	0.329	0.467	
4.195	0.099	0.414	
4.200	0.215	0.346	
4.205	0.338	0.289	
4.210	0.091	0.253	
4.215	0.134	0.219	
4.220	0.293	0.192	
4.225	0.157	0.183	
4.230	0.068	0.177	
4.235	0.235	0.165	
4.240	0.155	0.161	
4.245	-0.084	0.150	
4.250	0.037	0.119	
4.255	0.268	0.093	
4.260	0.287	0.103	
4.265	0.601	0.155	
4.270	0.912	0.263	
4.275	0.643	0.409	
4.280	0.282	0.520	
4.285	0.305	0.548	
4.290	0.207	0.512	
4.295	-0.024	0.431	
4.300	0.011	0.320	
4.305	0.093	0.210	
4.310	-0.050	0.124	
4.315	0.061	0.062	
4.320	0.148	0.029	
4.325	-0.005	0.024	
4.330	-0.116	0.018	
4.335	0.056	0.004	
4.340	0.044	-0.002	
4.345	-0.085	-0.002	
4.350	0.047	-0.005	
4.355	0.221	0.005	
4.360	0.065	0.034	
4.365	0.064	0.062	
4.370	0.219	0.083	
4.375	0.015	0.102	
4.380	-0.005	0.104	
4.385	0.305	0.100	
4.390	0.261	0.119	
4.395	0.009	0.146	
4.400	0.250	0.156	
4.405	0.401	0.174	
4.410	0.169	0.207	
4.415	0.186	0.228	
4.420	0.433	0.241	
4.425	0.221	0.262	
4.430	0.021	0.265	
4.435	0.204	0.239	
4.440	0.082	0.206	
4.445	-0.098	0.164	
4.450	-0.002	0.108	
4.455	0.038	0.058	
4.460	-0.131	0.020	
4.465	-0.119	-0.019	
4.470	0.073	-0.048	
4.475	-0.061	-0.055	
4.480	-0.142	-0.057	
4.485	0.023	-0.062	
4.490	0.024	-0.057	
4.495	-0.107	-0.045	
4.500	0.009	-0.040	
4.505	0.084	-0.030	
4.510	-0.090	-0.015	
4.515	-0.111	-0.015	
4.520	-0.003	-0.027	
4.525	-0.078	-0.037	
4.530	-0.128	-0.048	
4.535	0.094	-0.056	
4.540	0.110	-0.041	
4.545	-0.085	-0.016	
4.550	0.030	-0.002	
4.555	0.079	0.008	
4.560	-0.122	0.014	
4.565	-0.122	0.001	
4.570	-0.021	-0.023	
4.575	-0.136	-0.045	
4.580	-0.197	-0.070	
4.585	-0.060	-0.096	
4.590	-0.114	-0.111	
4.595	-0.224	-0.122	
4.600	-0.134	-0.137	
4.605	-0.023	-0.143	
4.610	-0.238	-0.138	
4.615	-0.175	-0.142	
4.620	0.181	-0.136	
4.625	0.297	-0.086	
4.630	0.322	0.005	
4.635	0.529	0.117	
4.640	0.287	0.227	
4.645	-0.166	0.283	
4.650	-0.177	0.247	
4.655	-0.125	0.155	
4.660	-0.224	0.051	
4.665	-0.223	-0.047	
4.670	-0.095	-0.121	
4.675	-0.153	-0.162	
4.680	-0.218	-0.180	
4.685	-0.090	-0.187	
4.690	-0.116	-0.180	
4.695	-0.221	-0.168	
4.700	-0.122	-0.163	
4.705	-0.031	-0.153	
4.710	-0.148	-0.135	
4.715	-0.137	-0.123	
4.720	0.055	-0.111	
4.725	0.011	-0.086	
4.730	-0.098	-0.058	
4.735	0.067	-0.039	
4.740	0.082	-0.018	
4.745	-0.066	0.004	
4.750	0.163	0.019	
4.755	0.322	0.050	
4.760	0.094	0.097	
4.765	0.151	0.133	
4.770	0.415	0.164	
4.775	0.264	0.206	
4.780	0.151	0.239	
4.785	0.354	0.254	
4.790	0.267	0.266	
4.795	-0.017	0.263	
4.800	0.046	0.226	
4.805	0.078	0.173	
4.810	-0.114	0.119	
4.815	-0.111	0.058	
4.820	0.093	0.007	
4.825	-0.092	-0.021	
4.830	-0.191	-0.044	
4.835	-0.053	-0.071	
4.840	-0.026	-0.086	
4.845	-0.171	-0.091	
4.850	-0.111	-0.098	
4.855	-0.041	-0.104	
4.860	-0.168	-0.104	
4.865	-0.159	-0.110	
4.870	0.082	-0.111	
4.875	-0.047	-0.093	
4.880	-0.171	-0.075	
4.885	-0.006	-0.071	
4.890	0.067	-0.061	
4.895	-0.085	-0.043	
4.900	0.017	-0.030	
4.905	0.157	-0.014	
4.910	-0.047	0.010	
4.915	-0.101	0.018	
4.920	0.011	0.008	
4.925	-0.178	-0.011	
4.930	-0.337	-0.049	
4.935	-0.299	-0.112	
4.940	-0.316	-0.180	
4.945	-0.412	-0.242	
4.950	-0.343	-0.297	
4.955	-0.250	-0.331	
4.960	-0.395	-0.344	
4.965	-0.410	-0.353	
4.970	-0.221	-0.359	
4.975	-0.137	-0.342	
4.980	-0.072	-0.296	
4.985	0.184	-0.223	
4.990	0.032	-0.131	
4.995	-0.256	-0.062	
5.000	-0.296	-0.052	
5.005	-0.279	-0.090	
5.010	-0.406	-0.150	
5.015	-0.392	-0.220	
5.020	-0.303	-0.283	
5.025	-0.354	-0.324	
5.030	-0.395	-0.349	
5.035	-0.256	-0.362	
5.040	-0.230	-0.354	
5.045	-0.360	-0.334	
5.050	-0.306	-0.321	
5.055	-0.213	-0.310	
5.060	-0.316	-0.296	
5.065	-0.334	-0.288	
5.070	-0.174	-0.285	
5.075	-0.206	-0.272	
5.080	-0.259	-0.254	
5.085	-0.114	-0.237	
5.090	-0.061	-0.210	
5.095	-0.171	-0.177	
5.100	-0.052	-0.149	
5.105	0.161	-0.113	
5.110	0.073	-0.059	
5.115	0.133	-0.001	
5.120	0.369	0.061	
5.125	0.148	0.126	
5.130	-0.064	0.163	
5.135	0.218	0.162	
5.140	0.280	0.162	
5.145	0.035	0.169	
5.150	0.073	0.161	
5.155	0.155	0.143	
5.160	-0.090	0.121	
5.165	-0.125	0.081	
5.170	-0.003	0.031	
5.175	-0.116	-0.011	
5.180	-0.227	-0.051	
5.185	-0.107	-0.092	
5.190	-0.063	-0.119	
5.195	-0.204	-0.130	
5.200	-0.102	-0.138	
5.205	0.093	-0.131	
5.210	-0.127	-0.105	
5.215	-0.151	-0.088	
5.220	0.073	-0.079	
5.225	-0.037	-0.062	
5.230	-0.136	-0.049	
5.235	0.035	-0.046	
5.240	0.072	-0.036	
5.245	-0.095	-0.020	
5.250	-0.047	-0.016	
5.255	0.102	-0.016	
5.260	-0.064	-0.008	
5.265	-0.128	-0.010	
5.270	-0.069	-0.027	
5.275	-0.156	-0.050	
5.280	-0.264	-0.082	
5.285	-0.133	-0.120	
5.290	-0.081	-0.145	
5.295	-0.197	-0.153	
5.300	-0.159	-0.158	
5.305	-0.044	-0.157	
5.310	-0.178	-0.147	
5.315	-0.198	-0.143	
5.320	0.033	-0.139	
5.325	0.183	-0.110	
5.330	0.297	-0.043	
5.335	0.762	0.069	
5.340	0.771	0.231	
5.345	0.239	0.385	
5.350	0.085	0.452	
5.355	0.116	0.425	
5.360	-0.085	0.344	
5.365	-0.113	0.233	
5.370	0.012	0.122	
5.375	-0.027	0.039	
5.380	-0.116	-0.016	
5.385	0.017	-0.051	
5.390	0.058	-0.060	
5.395	-0.105	-0.053	
5.400	-0.008	-0.046	
5.405	0.157	-0.033	
5.410	-0.040	-0.008	
5.415	-0.063	0.006	
5.420	0.181	0.013	
5.425	0.087	0.032	
5.430	-0.063	0.049	
5.435	0.190	0.055	
5.440	0.247	0.074	
5.445	0.040	0.103	
5.450	0.171	0.121	
5.455	0.358	0.142	
5.460	0.227	0.177	
5.465	0.195	0.208	
5.470	0.479	0.236	
5.475	0.357	0.275	
5.480	0.160	0.306	
5.485	0.315	0.311	
5.490	0.302	0.306	
5.495	0.032	0.291	
5.500	0.076	0.250	
5.505	0.181	0.201	
5.510	-0.067	0.157	
5.515	-0.119	0.103	
5.520	-0.008	0.043	
5.525	-0.133	-0.007	
5.530	-0.249	-0.054	
5.535	-0.143	-0.103	
5.540	-0.119	-0.138	
5.545	-0.279	-0.161	
5.550	-0.256	-0.185	
5.555	-0.142	-0.206	
5.560	-0.264	-0.215	
5.565	-0.262	-0.223	
5.570	-0.120	-0.228	
5.575	-0.178	-0.219	
5.580	-0.255	-0.209	
5.585	-0.160	-0.204	
5.590	-0.131	-0.197	
5.595	-0.252	-0.188	
5.600	-0.206	-0.188	
5.605	-0.111	-0.189	
5.610	-0.233	-0.185	
5.615	-0.252	-0.187	
5.620	-0.146	-0.194	
5.625	-0.204	-0.197	
5.630	-0.267	-0.199	
5.635	-0.157	-0.205	
5.640	-0.175	-0.205	
5.645	-0.308	-0.205	
5.650	-0.270	-0.216	
5.655	-0.154	-0.228	
5.660	-0.288	-0.231	
5.665	-0.349	-0.240	
5.670	-0.230	-0.257	
5.675	-0.210	-0.264	
5.680	-0.133	-0.255	
5.685	0.296	-0.212	
5.690	0.395	-0.112	
5.695	0.055	0.010	
5.700	-0.047	0.089	
5.705	-0.023	0.109	
5.710	-0.194	0.085	
5.715	-0.233	0.028	
5.720	-0.116	-0.041	
5.725	-0.160	-0.096	
5.730	-0.223	-0.136	
5.735	-0.078	-0.162	
5.740	-0.096	-0.167	
5.745	-0.233	-0.162	
5.750	-0.165	-0.163	
5.755	0.030	-0.158	
5.760	-0.084	-0.135	
5.765	-0.151	-0.112	
5.770	-0.018	-0.099	
5.775	-0.043	-0.085	
5.780	-0.110	-0.072	
5.785	0.120	-0.059	
5.790	0.226	-0.025	
5.795	0.012	0.023	
5.800	0.166	0.062	
5.805	0.375	0.102	
5.810	0.212	0.156	
5.815	0.267	0.202	
5.820	0.556	0.248	
5.825	0.413	0.307	
5.830	0.235	0.354	
5.835	0.428	0.373	
5.840	0.535	0.388	
5.845	0.280	0.406	
5.850	0.349	0.406	
5.855	0.498	0.400	
5.860	0.258	0.397	
5.865	0.146	0.376	
5.870	0.360	0.338	
5.875	0.221	0.307	
5.880	0.015	0.273	
5.885	0.213	0.227	
5.890	0.207	0.193	
5.895	0.030	0.171	
5.900	0.133	0.147	
5.905	0.378	0.139	
5.910	0.137	0.157	
5.915	0.041	0.169	
5.920	0.283	0.167	
5.925	0.227	0.173	
5.930	0.049	0.181	
5.935	0.264	0.178	
5.940	0.343	0.187	
5.945	0.093	0.204	
5.950	0.157	0.207	
5.955	0.373	0.206	
5.960	0.175	0.217	
5.965	0.110	0.221	
5.970	0.312	0.215	
5.975	0.119	0.212	
5.980	-0.111	0.191	
5.985	0.052	0.143	
5.990	0.055	0.096	
5.995	-0.151	0.055	
6.000	-0.092	0.009	
6.005	0.190	-0.022	
6.010	-0.014	-0.020	
6.015	-0.113	-0.013	
6.020	0.029	-0.017	
6.025	-0.073	-0.022	
6.030	-0.120	-0.031	
6.035	0.314	-0.030	
6.040	0.622	0.028	
6.045	0.425	0.143	
6.050	0.340	0.257	
6.055	0.326	0.331	
6.060	-0.011	0.352	
6.065	-0.107	0.307	
6.070	0.081	0.221	
6.075	-0.031	0.139	
6.080	-0.157	0.067	
6.085	0.015	0.004	
6.090	0.094	-0.029	
6.095	-0.102	-0.036	
6.100	-0.026	-0.038	
6.105	0.203	-0.030	
6.110	0.015	-0.003	
6.115	0.020	0.023	
6.120	0.352	0.050	
6.125	0.308	0.102	
6.130	0.180	0.162	
6.135	0.355	0.208	
6.140	0.430	0.254	
6.145	0.197	0.294	
6.150	0.358	0.314	
6.155	0.584	0.335	
6.160	0.486	0.377	
6.165	0.477	0.421	
6.170	0.799	0.469	
6.175	0.755	0.536	
6.180	0.581	0.604	
6.185	0.852	0.653	
6.190	0.849	0.701	
6.195	0.471	0.735	
6.200	0.474	0.721	
6.205	0.628	0.675	
6.210	0.290	0.621	
6.215	0.091	0.540	
6.220	0.309	0.436	
6.225	0.146	0.344	
6.230	-0.063	0.261	
6.235	0.072	0.176	
6.240	0.096	0.109	
6.245	-0.101	0.064	
6.250	-0.055	0.023	
6.255	0.174	-0.004	
6.260	-0.017	-0.003	
6.265	-0.082	0.000	
6.270	0.154	0.001	
6.275	0.102	0.016	
6.280	-0.093	0.033	
6.285	0.096	0.035	
6.290	0.210	0.044	
6.295	0.004	0.065	
6.300	0.114	0.078	
6.305	0.387	0.099	
6.310	0.122	0.138	
6.315	0.064	0.163	
6.320	0.349	0.173	
6.325	0.235	0.192	
6.330	-0.026	0.203	
6.335	0.088	0.183	
6.340	0.142	0.153	
6.345	-0.101	0.122	
6.350	-0.041	0.080	
6.355	0.175	0.044	
6.360	-0.032	0.031	
6.365	-0.127	0.018	
6.370	0.041	-0.003	
6.375	-0.079	-0.018	
6.380	-0.239	-0.039	
6.385	-0.079	-0.071	
6.390	0.259	-0.081	
6.395	0.241	-0.039	
6.400	0.405	0.042	
6.405	0.474	0.144	
6.410	-0.024	0.229	
6.415	-0.209	0.239	
6.420	-0.124	0.173	
6.425	-0.180	0.080	
6.430	-0.290	-0.017	
6.435	-0.203	-0.105	
6.440	-0.192	-0.170	
6.445	-0.345	-0.214	
6.450	-0.303	-0.251	
6.455	-0.157	-0.273	
6.460	-0.249	-0.274	
6.465	-0.300	-0.268	
6.470	-0.142	-0.261	
6.475	-0.177	-0.245	
6.480	-0.287	-0.228	
6.485	-0.151	-0.219	
6.490	-0.111	-0.206	
6.495	-0.253	-0.191	
6.500	-0.206	-0.186	
6.505	-0.037	-0.182	
6.510	-0.149	-0.166	
6.515	-0.177	-0.151	
6.520	0.058	-0.137	
6.525	0.046	-0.105	
6.530	-0.096	-0.067	
6.535	0.120	-0.038	
6.540	0.204	-0.000	
6.545	-0.067	0.040	
6.550	-0.067	0.052	
6.555	0.111	0.044	
6.560	-0.102	0.035	
6.565	-0.200	0.010	
6.570	-0.066	-0.030	
6.575	-0.157	-0.067	
6.580	-0.329	-0.105	
6.585	-0.246	-0.154	
6.590	-0.201	-0.196	
6.595	-0.328	-0.226	
6.600	-0.305	-0.253	
6.605	-0.197	-0.271	
6.610	-0.320	-0.278	
6.615	-0.386	-0.286	
6.620	-0.261	-0.299	
6.625	-0.306	-0.307	
6.630	-0.409	-0.313	
6.635	-0.277	-0.323	
6.640	-0.197	-0.322	
6.645	-0.317	-0.307	
6.650	-0.285	-0.295	
6.655	-0.160	-0.283	
6.660	-0.270	-0.265	
6.665	-0.310	-0.254	
6.670	-0.172	-0.251	
6.675	-0.226	-0.243	
6.680	-0.325	-0.239	
6.685	-0.250	-0.244	
6.690	-0.239	-0.251	
6.695	-0.384	-0.259	
6.700	-0.352	-0.278	
6.705	-0.229	-0.297	
6.710	-0.320	-0.304	
6.715	-0.378	-0.308	
6.720	-0.213	-0.313	
6.725	-0.250	-0.307	
6.730	-0.407	-0.298	
6.735	-0.339	-0.304	
6.740	-0.235	-0.312	
6.745	-0.217	-0.305	
6.750	0.091	-0.272	
6.755	0.584	-0.180	
6.760	0.157	-0.037	
6.765	-0.207	0.073	
6.770	-0.186	0.093	
6.775	-0.271	0.046	
6.780	-0.389	-0.037	
6.785	-0.276	-0.132	
6.790	-0.230	-0.208	
6.795	-0.377	-0.259	
6.800	-0.316	-0.296	
6.805	-0.168	-0.314	
6.810	-0.267	-0.307	
6.815	-0.306	-0.293	
6.820	-0.131	-0.279	
6.825	-0.157	-0.254	
6.830	-0.293	-0.229	
6.835	-0.175	-0.217	
6.840	-0.073	-0.204	
6.845	-0.198	-0.184	
6.850	-0.153	-0.169	
6.855	0.030	-0.152	
6.860	-0.049	-0.122	
6.865	-0.087	-0.092	
6.870	0.183	-0.062	
6.875	0.194	-0.014	
6.880	-0.003	0.038	
6.885	0.236	0.076	
6.890	0.387	0.121	
6.895	0.161	0.174	
6.900	0.137	0.207	
6.905	0.357	0.222	
6.910	0.113	0.233	
6.915	-0.070	0.219	
6.920	0.072	0.173	
6.925	-0.066	0.119	
6.930	-0.262	0.056	
6.935	-0.191	-0.021	
6.940	-0.143	-0.092	
6.945	-0.294	-0.145	
6.950	-0.288	-0.192	
6.955	-0.149	-0.226	
6.960	-0.255	-0.240	
6.965	-0.305	-0.247	
6.970	-0.160	-0.252	
6.975	-0.137	-0.244	
6.980	-0.235	-0.225	
6.985	-0.171	-0.210	
6.990	-0.110	-0.196	
6.995	-0.239	-0.182	
7.000	-0.194	-0.177	
7.005	-0.060	-0.174	
7.010	-0.194	-0.164	
7.015	-0.242	-0.160	
7.020	-0.072	-0.164	
7.025	-0.104	-0.158	
7.030	-0.235	-0.149	
7.035	-0.146	-0.151	
7.040	-0.047	-0.150	
7.045	-0.220	-0.144	
7.050	-0.172	-0.144	
7.055	0.052	-0.141	
7.060	-0.096	-0.122	
7.065	-0.175	-0.104	
7.070	0.018	-0.096	
7.075	-0.038	-0.082	
7.080	-0.215	-0.073	
7.085	-0.143	-0.083	
7.090	0.004	-0.096	
7.095	0.012	-0.090	
7.100	0.328	-0.054	
7.105	0.625	0.033	
7.110	0.227	0.153	
7.115	-0.061	0.231	
7.120	0.058	0.234	
7.125	-0.050	0.193	
7.130	-0.198	0.126	
7.135	-0.046	0.047	
7.140	0.030	-0.013	
7.145	-0.162	-0.046	
7.150	-0.110	-0.073	
7.155	0.142	-0.084	
7.160	-0.044	-0.067	
7.165	-0.137	-0.051	
7.170	0.078	-0.045	
7.175	0.059	-0.030	
7.180	-0.114	-0.013	
7.185	0.041	-0.008	
7.190	0.154	0.001	
7.195	-0.089	0.018	
7.200	-0.044	0.019	
7.205	0.312	0.023	
7.210	0.197	0.056	
7.215	0.073	0.098	
7.220	0.383	0.134	
7.225	0.422	0.185	
7.230	0.204	0.242	
7.235	0.346	0.280	
7.240	0.498	0.311	
7.245	0.259	0.343	
7.250	0.265	0.354	
7.255	0.508	0.354	
7.260	0.308	0.362	
7.265	0.119	0.357	
7.270	0.358	0.330	
7.275	0.258	0.306	
7.280	-0.056	0.276	
7.285	0.046	0.219	
7.290	0.163	0.159	
7.295	-0.081	0.114	
7.300	-0.041	0.069	
7.305	0.189	0.035	
7.310	0.046	0.030	
7.315	-0.067	0.031	
7.320	0.171	0.030	
7.325	0.134	0.043	
7.330	-0.105	0.057	
7.335	-0.018	0.049	
7.340	0.111	0.034	
7.345	-0.096	0.026	
7.350	-0.055	0.011	
7.355	0.189	0.000	
7.360	-0.011	0.010	
7.365	-0.108	0.015	
7.370	0.090	0.009	
7.375	0.053	0.010	
7.380	-0.110	0.012	
7.385	0.020	0.005	
7.390	0.122	0.002	
7.395	-0.142	0.006	
7.400	-0.153	-0.007	
7.405	-0.006	-0.034	
7.410	-0.139	-0.054	
7.415	-0.221	-0.078	
7.420	-0.053	-0.104	
7.425	-0.095	-0.118	
7.430	-0.207	-0.123	
7.435	-0.124	-0.132	
7.440	-0.098	-0.138	
7.445	-0.273	-0.143	
7.450	-0.210	-0.158	
7.455	0.143	-0.162	
7.460	0.261	-0.118	
7.465	0.317	-0.030	
7.470	0.543	0.086	
7.475	0.290	0.205	
7.480	-0.162	0.270	
7.485	-0.160	0.243	
7.490	-0.120	0.157	
7.495	-0.244	0.056	
7.500	-0.217	-0.042	
7.505	-0.082	-0.117	
7.510	-0.183	-0.159	
7.515	-0.238	-0.182	
7.520	-0.075	-0.193	
7.525	-0.101	-0.186	
7.530	-0.212	-0.170	
7.535	-0.111	-0.161	
7.540	0.003	-0.146	
7.545	-0.143	-0.124	
7.550	-0.084	-0.107	
7.555	0.192	-0.084	
7.560	0.012	-0.043	
7.565	-0.128	-0.011	
7.570	0.146	0.002	
7.575	0.087	0.020	
7.580	-0.101	0.035	
7.585	0.152	0.038	
7.590	0.404	0.060	
7.595	0.197	0.113	
7.600	0.276	0.168	
7.605	0.556	0.224	
7.610	0.395	0.293	
7.615	0.200	0.344	
7.620	0.424	0.361	
7.625	0.312	0.366	
7.630	-0.015	0.349	
7.635	0.068	0.292	
7.640	0.177	0.224	
7.645	-0.078	0.165	
7.650	-0.102	0.102	
7.655	0.076	0.042	
7.660	-0.063	0.005	
7.665	-0.169	-0.025	
7.670	-0.014	-0.054	
7.675	-0.058	-0.070	
7.680	-0.224	-0.081	
7.685	-0.133	-0.101	
7.690	0.008	-0.115	
7.695	-0.131	-0.112	
7.700	-0.128	-0.107	
7.705	0.126	-0.097	
7.710	-0.002	-0.069	
7.715	-0.087	-0.040	
7.720	0.126	-0.021	
7.725	0.078	0.003	
7.730	-0.117	0.022	
7.735	0.021	0.021	
7.740	0.172	0.021	
7.745	-0.069	0.031	
7.750	-0.090	0.028	
7.755	0.056	0.012	
7.760	-0.104	-0.002	
7.765	-0.209	-0.025	
7.770	-0.072	-0.059	
7.775	-0.105	-0.086	
7.780	-0.267	-0.109	
7.785	-0.198	-0.138	
7.790	-0.099	-0.163	
7.795	-0.226	-0.173	
7.800	-0.262	-0.184	
7.805	-0.148	-0.197	
7.810	-0.145	-0.199	
7.815	-0.020	-0.185	
7.820	0.559	-0.126	
7.825	0.697	0.009	
7.830	0.267	0.176	
7.835	0.131	0.288	
7.840	0.065	0.318	
7.845	-0.206	0.276	
7.850	-0.229	0.178	
7.855	-0.069	0.064	
7.860	-0.159	-0.029	
7.865	-0.242	-0.098	
7.870	-0.052	-0.146	
7.875	-0.040	-0.160	
7.880	-0.183	-0.152	
7.885	-0.090	-0.143	
7.890	0.018	-0.128	
7.895	-0.145	-0.106	
7.900	-0.119	-0.094	
7.905	0.146	-0.081	
7.910	0.001	-0.052	
7.915	-0.082	-0.025	
7.920	0.180	-0.006	
7.925	0.186	0.025	
7.930	-0.067	0.059	
7.935	0.094	0.071	
7.940	0.325	0.084	
7.945	0.169	0.118	
7.950	0.255	0.155	
7.955	0.556	0.201	
7.960	0.428	0.270	
7.965	0.259	0.331	
7.970	0.485	0.366	
7.975	0.375	0.390	
7.980	0.073	0.390	
7.985	0.163	0.349	
7.990	0.206	0.293	
7.995	-0.089	0.234	
8.000	-0.133	0.156	
8.005	0.040	0.075	
8.010	-0.090	0.015	
8.015	-0.213	-0.034	
8.020	-0.085	-0.080	
8.025	-0.082	-0.109	
8.030	-0.215	-0.125	
8.035	-0.136	-0.139	
8.040	-0.046	-0.145	
8.045	-0.189	-0.141	
8.050	-0.180	-0.140	
8.055	-0.002	-0.140	
8.060	-0.099	-0.127	
8.065	-0.180	-0.114	
8.070	0.014	-0.108	
8.075	0.014	-0.091	
8.080	-0.154	-0.071	
8.085	-0.084	-0.066	
8.090	0.078	-0.062	
8.095	-0.104	-0.051	
8.100	-0.108	-0.046	
8.105	0.099	-0.046	
8.110	-0.066	-0.036	
8.115	-0.175	-0.034	
8.120	-0.053	-0.049	
8.125	-0.064	-0.063	
8.130	-0.197	-0.076	
8.135	-0.110	-0.094	
8.140	0.032	-0.104	
8.145	-0.127	-0.097	
8.150	-0.146	-0.093	
8.155	0.020	-0.092	
8.160	-0.124	-0.085	
8.165	-0.183	-0.085	
8.170	0.223	-0.082	
8.175	0.512	-0.029	
8.180	0.393	0.078	
8.185	0.410	0.195	
8.190	0.348	0.288	
8.195	-0.067	0.329	
8.200	-0.137	0.292	
8.205	0.000	0.204	
8.210	-0.087	0.113	
8.215	-0.180	0.031	
8.220	0.009	-0.035	
8.225	0.043	-0.067	
8.230	-0.117	-0.071	
8.235	-0.017	-0.070	
8.240	0.181	-0.055	
8.245	-0.044	-0.023	
8.250	-0.058	-0.002	
8.255	0.206	0.011	
8.260	0.064	0.035	
8.265	-0.064	0.052	
8.270	0.187	0.057	
8.275	0.221	0.073	
8.280	0.030	0.098	
8.285	0.197	0.114	
8.290	0.395	0.139	
8.295	0.186	0.180	
8.300	0.232	0.212	
8.305	0.486	0.242	
8.310	0.398	0.285	
8.315	0.247	0.325	
8.320	0.558	0.351	
8.325	0.646	0.392	
8.330	0.404	0.444	
8.335	0.480	0.476	
8.340	0.614	0.496	
8.345	0.273	0.505	
8.350	0.157	0.478	
8.355	0.402	0.421	
8.360	0.163	0.368	
8.365	-0.052	0.305	
8.370	0.158	0.228	
8.375	0.122	0.166	
8.380	-0.146	0.116	
8.385	-0.096	0.058	
8.390	0.081	0.007	
8.395	-0.114	-0.022	
8.400	-0.124	-0.044	
8.405	0.087	-0.060	
8.410	-0.056	-0.057	
8.415	-0.185	-0.055	
8.420	-0.034	-0.065	
8.425	-0.009	-0.070	
8.430	-0.191	-0.070	
8.435	-0.128	-0.082	
8.440	-0.011	-0.093	
8.445	-0.159	-0.096	
8.450	-0.185	-0.103	
8.455	-0.047	-0.114	
8.460	-0.171	-0.119	
8.465	-0.273	-0.130	
8.470	-0.143	-0.151	
8.475	-0.160	-0.167	
8.480	-0.308	-0.179	
8.485	-0.236	-0.199	
8.490	-0.110	-0.213	
8.495	-0.232	-0.212	
8.500	-0.262	-0.211	
8.505	-0.104	-0.212	
8.510	-0.221	-0.205	
8.515	-0.342	-0.204	
8.520	-0.140	-0.215	
8.525	0.136	-0.203	
8.530	0.142	-0.147	
8.535	0.416	-0.054	
8.540	0.460	0.068	
8.545	-0.067	0.174	
8.550	-0.218	0.199	
8.555	-0.130	0.145	
8.560	-0.239	0.059	
8.565	-0.323	-0.037	
8.570	-0.162	-0.126	
8.575	-0.160	-0.184	
8.580	-0.306	-0.215	
8.585	-0.238	-0.237	
8.590	-0.117	-0.245	
8.595	-0.246	-0.238	
8.600	-0.249	-0.229	
8.605	-0.081	-0.221	
8.610	-0.145	-0.202	
8.615	-0.227	-0.183	
8.620	-0.084	-0.171	
8.625	-0.041	-0.154	
8.630	-0.212	-0.135	
8.635	-0.128	-0.128	
8.640	0.059	-0.119	
8.645	-0.113	-0.099	
8.650	-0.136	-0.085	
8.655	0.110	-0.075	
8.660	0.030	-0.051	
8.665	-0.058	-0.024	
8.670	0.178	-0.003	
8.675	0.223	0.033	
8.680	-0.020	0.072	
8.685	0.082	0.090	
8.690	0.242	0.100	
8.695	-0.005	0.113	
8.700	-0.098	0.104	
8.705	0.024	0.073	
8.710	-0.125	0.036	
8.715	-0.255	-0.011	
8.720	-0.131	-0.067	
8.725	-0.098	-0.111	
8.730	-0.276	-0.140	
8.735	-0.220	-0.168	
8.740	-0.137	-0.191	
8.745	-0.270	-0.202	
8.750	-0.279	-0.214	
8.755	-0.125	-0.224	
8.760	-0.185	-0.221	
8.765	-0.261	-0.214	
8.770	-0.099	-0.208	
8.775	-0.090	-0.192	
8.780	-0.244	-0.173	
8.785	-0.171	-0.166	
8.790	-0.008	-0.159	
8.795	-0.145	-0.142	
8.800	-0.172	-0.129	
8.805	0.017	-0.121	
8.810	-0.076	-0.104	
8.815	-0.206	-0.093	
8.820	-0.120	-0.098	
8.825	-0.137	-0.109	
8.830	-0.300	-0.127	
8.835	-0.236	-0.157	
8.840	-0.128	-0.185	
8.845	-0.271	-0.199	
8.850	-0.297	-0.214	
8.855	-0.162	-0.230	
8.860	-0.217	-0.233	
8.865	-0.337	-0.235	
8.870	-0.258	-0.246	
8.875	-0.215	-0.255	
8.880	-0.233	-0.255	
8.885	0.108	-0.234	
8.890	0.611	-0.153	
8.895	0.340	-0.008	
8.900	0.011	0.125	
8.905	0.041	0.186	
8.910	-0.186	0.177	
8.915	-0.313	0.110	
8.920	-0.212	0.010	
8.925	-0.185	-0.084	
8.930	-0.317	-0.156	
8.935	-0.236	-0.211	
8.940	-0.107	-0.241	
8.945	-0.215	-0.242	
8.950	-0.218	-0.232	
8.955	-0.060	-0.218	
8.960	-0.120	-0.191	
8.965	-0.230	-0.168	
8.970	-0.064	-0.155	
8.975	-0.040	-0.138	
8.980	-0.218	-0.121	
8.985	-0.130	-0.119	
8.990	0.081	-0.114	
8.995	-0.069	-0.092	
9.000	-0.056	-0.069	
9.005	0.291	-0.041	
9.010	0.190	0.014	
9.015	0.004	0.070	
9.020	0.315	0.108	
9.025	0.412	0.155	
9.030	0.152	0.209	
9.035	0.262	0.242	
9.040	0.459	0.266	
9.045	0.180	0.292	
9.050	0.076	0.292	
9.055	0.291	0.266	
9.060	0.134	0.242	
9.065	-0.108	0.205	
9.070	-0.012	0.145	
9.075	-0.049	0.081	
9.080	-0.223	0.019	
9.085	-0.177	-0.046	
9.090	-0.075	-0.100	
9.095	-0.215	-0.133	
9.100	-0.258	-0.159	
9.105	-0.104	-0.182	
9.110	-0.133	-0.187	
9.115	-0.203	-0.181	
9.120	-0.061	-0.173	
9.125	-0.079	-0.155	
9.130	-0.239	-0.139	
9.135	-0.136	-0.138	
9.140	0.033	-0.134	
9.145	-0.146	-0.117	
9.150	-0.203	-0.108	
9.155	-0.005	-0.110	
9.160	-0.070	-0.103	
9.165	-0.186	-0.096	
9.170	-0.043	-0.098	
9.175	-0.038	-0.094	
9.180	-0.235	-0.092	
9.185	-0.192	-0.106	
9.190	-0.084	-0.126	
9.195	-0.250	-0.140	
9.200	-0.285	-0.162	
9.205	-0.127	-0.186	
9.210	-0.191	-0.197	
9.215	-0.305	-0.204	
9.220	-0.182	-0.215	
9.225	-0.162	-0.219	
9.230	-0.343	-0.220	
9.235	-0.244	-0.230	
9.240	0.139	-0.224	
9.245	0.224	-0.168	
9.250	0.265	-0.070	
9.255	0.434	0.045	
9.260	0.090	0.151	
9.265	-0.238	0.192	
9.270	-0.174	0.151	
9.275	-0.154	0.069	
9.280	-0.302	-0.020	
9.285	-0.244	-0.107	
9.290	-0.119	-0.171	
9.295	-0.220	-0.204	
9.300	-0.255	-0.220	
9.305	-0.110	-0.226	
9.310	-0.165	-0.217	
9.315	-0.258	-0.204	
9.320	-0.110	-0.197	
9.325	-0.063	-0.182	
9.330	-0.201	-0.161	
9.335	-0.119	-0.148	
9.340	0.078	-0.131	
9.345	-0.095	-0.101	
9.350	-0.128	-0.079	
9.355	0.145	-0.063	
9.360	0.099	-0.031	
9.365	-0.061	0.003	
9.370	0.212	0.028	
9.375	0.331	0.067	
9.380	0.102	0.119	
9.385	0.241	0.158	
9.390	0.459	0.197	
9.395	0.203	0.242	
9.400	0.152	0.266	
9.405	0.383	0.270	
9.410	0.151	0.272	
9.415	-0.113	0.249	
9.420	0.043	0.190	
9.425	0.044	0.127	
9.430	-0.188	0.070	
9.435	-0.140	0.007	
9.440	-0.023	-0.048	
9.445	-0.203	-0.084	
9.450	-0.242	-0.117	
9.455	-0.075	-0.147	
9.460	-0.128	-0.159	
9.465	-0.258	-0.162	
9.470	-0.090	-0.168	
9.475	-0.037	-0.162	
9.480	-0.236	-0.147	
9.485	-0.206	-0.146	
9.490	-0.058	-0.151	
9.495	-0.172	-0.148	
9.500	-0.204	-0.148	
9.505	-0.012	-0.148	
9.510	-0.116	-0.136	
9.515	-0.232	-0.127	
9.520	-0.069	-0.129	
9.525	0.004	-0.123	
9.530	-0.169	-0.108	
9.535	-0.130	-0.102	
9.540	0.032	-0.099	
9.545	-0.171	-0.090	
9.550	-0.253	-0.095	
9.555	-0.107	-0.116	
9.560	-0.139	-0.133	
9.565	-0.235	-0.145	
9.570	-0.116	-0.158	
9.575	-0.064	-0.160	
9.580	-0.223	-0.152	
9.585	-0.195	-0.153	
9.590	-0.063	-0.157	
9.595	-0.096	-0.149	
9.600	0.075	-0.125	
9.605	0.575	-0.062	
9.610	0.463	0.058	
9.615	0.055	0.179	
9.620	0.078	0.235	
9.625	0.009	0.229	
9.630	-0.217	0.179	
9.635	-0.168	0.093	
9.640	-0.029	0.008	
9.645	-0.183	-0.055	
9.650	-0.239	-0.105	
9.655	-0.056	-0.143	
9.660	-0.114	-0.157	
9.665	-0.247	-0.160	
9.670	-0.107	-0.164	
9.675	-0.024	-0.159	
9.680	-0.165	-0.141	
9.685	-0.128	-0.129	
9.690	0.030	-0.117	
9.695	-0.090	-0.097	
9.700	-0.124	-0.082	
9.705	0.149	-0.068	
9.710	0.072	-0.037	
9.715	-0.107	-0.007	
9.720	0.088	0.007	
9.725	0.189	0.025	
9.730	-0.017	0.049	
9.735	0.120	0.065	
9.740	0.405	0.090	
9.745	0.216	0.138	
9.750	0.126	0.181	
9.755	0.370	0.208	
9.760	0.262	0.234	
9.765	-0.018	0.245	
9.770	0.084	0.219	
9.775	0.099	0.177	
9.780	-0.148	0.130	
9.785	-0.128	0.068	
9.790	-0.032	0.005	
9.795	-0.188	-0.045	
9.800	-0.255	-0.091	
9.805	-0.120	-0.135	
9.810	-0.180	-0.163	
9.815	-0.299	-0.182	
9.820	-0.160	-0.202	
9.825	-0.111	-0.208	
9.830	-0.238	-0.201	
9.835	-0.177	-0.196	
9.840	-0.024	-0.185	
9.845	-0.139	-0.163	
9.850	-0.198	-0.145	
9.855	-0.037	-0.136	
9.860	-0.098	-0.123	
9.865	-0.220	-0.115	
9.870	-0.076	-0.118	
9.875	-0.002	-0.115	
9.880	-0.183	-0.104	
9.885	-0.146	-0.104	
9.890	-0.005	-0.106	
9.895	-0.169	-0.103	
9.900	-0.227	-0.109	
9.905	-0.066	-0.123	
9.910	-0.165	-0.132	
9.915	-0.293	-0.143	
9.920	-0.162	-0.165	
9.925	-0.146	-0.180	
9.930	-0.277	-0.188	
9.935	-0.238	-0.201	
9.940	-0.128	-0.210	
9.945	-0.247	-0.211	
9.950	-0.253	-0.212	
9.955	0.169	-0.201	
9.960	0.392	-0.136	
9.965	0.329	-0.020	
9.970	0.488	0.112	
9.975	0.315	0.231	
9.980	-0.134	0.292	
9.985	-0.149	0.264	
9.990	-0.011	0.180	
9.995	-0.130	0.092	
10.000	-0.160	0.012	
10.005	0.046	-0.048	
10.010	-0.038	-0.074	
10.015	-0.183	-0.083	
10.020	-0.031	-0.092	
10.025	0.087	-0.087	
10.030	-0.125	-0.067	
10.035	-0.058	-0.056	
10.040	0.212	-0.041	
10.045	0.003	-0.009	
10.050	-0.064	0.015	
10.055	0.239	0.030	
10.060	0.169	0.058	
10.065	-0.035	0.087	
10.070	0.169	0.097	
10.075	0.290	0.111	
10.080	0.070	0.136	
10.085	0.230	0.153	
10.090	0.527	0.182	
10.095	0.381	0.240	
10.100	0.285	0.296	
10.105	0.575	0.340	
10.110	0.492	0.388	
10.115	0.247	0.423	
10.120	0.405	0.426	
10.125	0.381	0.416	
10.130	0.061	0.390	
10.135	0.087	0.333	
10.140	0.253	0.266	
10.145	-0.041	0.209	
10.150	-0.139	0.144	
10.155	0.044	0.073	
10.160	-0.034	0.021	
10.165	-0.195	-0.019	
10.170	-0.067	-0.058	
10.175	0.000	-0.081	
10.180	-0.175	-0.089	
10.185	-0.122	-0.098	
10.190	0.111	-0.099	
10.195	-0.079	-0.080	
10.200	-0.148	-0.065	
10.205	0.113	-0.058	
10.210	0.085	-0.036	
10.215	-0.153	-0.013	
10.220	-0.011	-0.009	
10.225	0.059	-0.011	
10.230	-0.130	-0.011	
10.235	-0.079	-0.022	
10.240	0.149	-0.030	
10.245	-0.037	-0.020	
10.250	-0.145	-0.014	
10.255	-0.006	-0.024	
10.260	-0.084	-0.036	
10.265	-0.253	-0.055	
10.270	-0.169	-0.089	
10.275	-0.128	-0.122	
10.280	-0.255	-0.148	
10.285	-0.220	-0.173	
10.290	-0.087	-0.189	
10.295	-0.209	-0.190	
10.300	-0.259	-0.191	
10.305	-0.156	-0.196	
10.310	-0.212	-0.199	
10.315	-0.203	-0.200	
10.320	0.274	-0.179	
10.325	0.622	-0.091	
10.330	0.308	0.053	
10.335	0.126	0.177	
10.340	0.113	0.237	
10.345	-0.137	0.232	
10.350	-0.227	0.169	
10.355	-0.081	0.076	
10.360	-0.137	-0.008	
10.365	-0.255	-0.076	
10.370	-0.142	-0.132	
10.375	-0.105	-0.165	
10.380	-0.241	-0.178	
10.385	-0.188	-0.187	
10.390	0.009	-0.185	
10.395	-0.124	-0.164	
10.400	-0.168	-0.142	
10.405	0.073	-0.122	
10.410	0.032	-0.090	
10.415	-0.142	-0.058	
10.420	0.076	-0.039	
10.425	0.209	-0.013	
10.430	-0.037	0.024	
10.435	-0.021	0.042	
10.440	0.288	0.054	
10.445	0.166	0.082	
10.450	0.146	0.117	
10.455	0.441	0.153	
10.460	0.389	0.209	
10.465	0.183	0.262	
10.470	0.413	0.294	
10.475	0.509	0.325	
10.480	0.221	0.357	
10.485	0.229	0.361	
10.490	0.412	0.347	
10.495	0.175	0.332	
10.500	-0.008	0.299	
10.505	0.184	0.243	
10.510	0.085	0.191	
10.515	-0.153	0.140	
10.520	-0.049	0.076	
10.525	0.015	0.020	
10.530	-0.162	-0.019	
10.535	-0.146	-0.056	
10.540	-0.002	-0.085	
10.545	-0.130	-0.096	
10.550	-0.171	-0.104	
10.555	0.000	-0.110	
10.560	-0.027	-0.102	
10.565	-0.153	-0.089	
10.570	-0.038	-0.083	
10.575	0.038	-0.074	
10.580	-0.113	-0.059	
10.585	-0.058	-0.052	
10.590	0.137	-0.043	
10.595	-0.020	-0.022	
10.600	-0.079	-0.007	
10.605	0.139	0.000	
10.610	0.030	0.014	
10.615	-0.153	0.021	
10.620	-0.053	0.005	
10.625	-0.002	-0.016	
10.630	-0.174	-0.034	
10.635	-0.160	-0.060	
10.640	0.000	-0.084	
10.645	-0.105	-0.093	
10.650	-0.191	-0.099	
10.655	-0.058	-0.108	
10.660	-0.105	-0.112	
10.665	-0.265	-0.118	
10.670	-0.154	-0.135	
10.675	0.064	-0.143	
10.680	0.136	-0.115	
10.685	0.456	-0.043	
10.690	0.694	0.080	
10.695	0.236	0.222	
10.700	-0.117	0.299	
10.705	0.014	0.283	
10.710	-0.044	0.216	
10.715	-0.233	0.129	
10.720	-0.156	0.032	
10.725	-0.076	-0.050	
10.730	-0.186	-0.104	
10.735	-0.162	-0.140	
10.740	0.024	-0.154	
10.745	-0.110	-0.143	
10.750	-0.157	-0.127	
10.755	0.049	-0.113	
10.760	0.020	-0.087	
10.765	-0.128	-0.060	
10.770	0.035	-0.045	
10.775	0.209	-0.023	
10.780	0.020	0.015	
10.785	0.037	0.043	
10.790	0.241	0.065	
10.795	0.084	0.091	
10.800	-0.020	0.105	
10.805	0.291	0.108	
10.810	0.262	0.128	
10.815	0.140	0.158	
10.820	0.390	0.187	
10.825	0.447	0.229	
10.830	0.146	0.274	
10.835	0.198	0.289	
10.840	0.444	0.288	
10.845	0.262	0.297	
10.850	0.072	0.294	
10.855	0.229	0.268	
10.860	0.107	0.235	
10.865	-0.093	0.191	
10.870	0.058	0.134	
10.875	0.101	0.086	
10.880	-0.151	0.052	
10.885	-0.143	0.010	
10.890	0.050	-0.031	
10.895	-0.085	-0.051	
10.900	-0.172	-0.065	
10.905	0.027	-0.078	
10.910	-0.012	-0.077	
10.915	-0.153	-0.068	
10.920	-0.014	-0.067	
10.925	0.105	-0.058	
10.930	-0.096	-0.038	
10.935	-0.098	-0.029	
10.940	0.136	-0.027	
10.945	-0.003	-0.013	
10.950	-0.104	-0.003	
10.955	0.104	-0.002	
10.960	0.020	0.004	
10.965	-0.156	0.006	
10.970	-0.060	-0.010	
10.975	0.004	-0.029	
10.980	-0.182	-0.043	
10.985	-0.178	-0.067	
10.990	-0.053	-0.094	
10.995	-0.168	-0.111	
11.000	-0.221	-0.127	
11.005	-0.066	-0.142	
11.010	-0.131	-0.146	
11.015	-0.267	-0.148	
11.020	-0.175	-0.161	
11.025	-0.130	-0.172	
11.030	-0.233	-0.176	
11.035	-0.082	-0.177	
11.040	0.393	-0.145	
11.045	0.326	-0.055	
11.050	0.140	0.054	
11.055	0.161	0.133	
11.060	-0.058	0.166	
11.065	-0.253	0.142	
11.070	-0.194	0.069	
11.075	-0.108	-0.014	
11.080	-0.239	-0.082	
11.085	-0.212	-0.138	
11.090	-0.041	-0.172	
11.095	-0.122	-0.176	
11.100	-0.191	-0.168	
11.105	-0.021	-0.157	
11.110	-0.064	-0.136	
11.115	-0.206	-0.117	
11.120	-0.058	-0.111	
11.125	0.075	-0.099	
11.130	-0.142	-0.077	
11.135	-0.084	-0.066	
11.140	0.174	-0.054	
11.145	0.053	-0.024	
11.150	-0.076	0.005	
11.155	0.203	0.023	
11.160	0.212	0.052	
11.165	0.020	0.087	
11.170	0.255	0.111	
11.175	0.422	0.147	
11.180	0.172	0.196	
11.185	0.197	0.228	
11.190	0.469	0.250	
11.195	0.302	0.280	
11.200	0.110	0.298	
11.205	0.311	0.291	
11.210	0.204	0.276	
11.215	-0.066	0.248	
11.220	0.040	0.194	
11.225	0.072	0.135	
11.230	-0.165	0.082	
11.235	-0.162	0.022	
11.240	0.020	-0.034	
11.245	-0.105	-0.065	
11.250	-0.194	-0.086	
11.255	-0.046	-0.106	
11.260	-0.095	-0.113	
11.265	-0.224	-0.117	
11.270	-0.105	-0.127	
11.275	-0.012	-0.130	
11.280	-0.137	-0.119	
11.285	-0.119	-0.111	
11.290	0.035	-0.102	
11.295	-0.098	-0.085	
11.300	-0.185	-0.077	
11.305	-0.021	-0.082	
11.310	-0.031	-0.081	
11.315	-0.177	-0.077	
11.320	-0.078	-0.083	
11.325	0.030	-0.084	
11.330	-0.177	-0.078	
11.335	-0.195	-0.085	
11.340	-0.111	-0.104	
11.345	-0.274	-0.126	
11.350	-0.358	-0.160	
11.355	-0.217	-0.204	
11.360	-0.224	-0.234	
11.365	-0.342	-0.252	
11.370	-0.236	-0.267	
11.375	-0.142	-0.270	
11.380	-0.297	-0.259	
11.385	-0.334	-0.255	
11.390	-0.213	-0.260	
11.395	-0.183	-0.259	
11.400	-0.055	-0.239	
11.405	0.462	-0.178	
11.410	0.412	-0.056	
11.415	-0.038	0.072	
11.420	-0.125	0.131	
11.425	-0.154	0.116	
11.430	-0.314	0.052	
11.435	-0.305	-0.039	
11.440	-0.175	-0.127	
11.445	-0.246	-0.189	
11.450	-0.305	-0.229	
11.455	-0.174	-0.254	
11.460	-0.168	-0.257	
11.465	-0.291	-0.248	
11.470	-0.169	-0.241	
11.475	-0.058	-0.224	
11.480	-0.198	-0.197	
11.485	-0.175	-0.176	
11.490	0.024	-0.158	
11.495	-0.072	-0.129	
11.500	-0.178	-0.104	
11.505	0.021	-0.092	
11.510	0.055	-0.073	
11.515	-0.085	-0.048	
11.520	0.114	-0.027	
11.525	0.314	0.010	
11.530	0.107	0.065	
11.535	0.203	0.114	
11.540	0.512	0.164	
11.545	0.367	0.232	
11.550	0.207	0.290	
11.555	0.430	0.321	
11.560	0.349	0.342	
11.565	0.059	0.344	
11.570	0.171	0.311	
11.575	0.215	0.266	
11.580	-0.102	0.218	
11.585	-0.125	0.148	
11.590	0.044	0.073	
11.595	-0.124	0.015	
11.600	-0.244	-0.037	
11.605	-0.114	-0.089	
11.610	-0.125	-0.126	
11.615	-0.241	-0.149	
11.620	-0.140	-0.167	
11.625	-0.070	-0.172	
11.630	-0.238	-0.167	
11.635	-0.238	-0.170	
11.640	-0.098	-0.177	
11.645	-0.166	-0.176	
11.650	-0.255	-0.174	
11.655	-0.113	-0.178	
11.660	-0.102	-0.174	
11.665	-0.215	-0.164	
11.670	-0.124	-0.159	
11.675	-0.012	-0.149	
11.680	-0.157	-0.131	
11.685	-0.133	-0.119	
11.690	0.059	-0.108	
11.695	-0.096	-0.088	
11.700	-0.213	-0.077	
11.705	-0.085	-0.086	
11.710	-0.124	-0.098	
11.715	-0.268	-0.114	
11.720	-0.180	-0.139	
11.725	-0.087	-0.159	
11.730	-0.224	-0.166	
11.735	-0.200	-0.173	
11.740	0.052	-0.171	
11.745	-0.143	-0.149	
11.750	-0.282	-0.135	
11.755	-0.127	-0.141	
11.760	0.062	-0.140	
11.765	0.163	-0.107	
11.770	0.543	-0.027	
11.775	0.617	0.103	
11.780	0.096	0.234	
11.785	-0.108	0.288	
11.790	-0.014	0.255	
11.795	-0.145	0.179	
11.800	-0.215	0.084	
11.805	-0.081	-0.008	
11.810	-0.102	-0.074	
11.815	-0.239	-0.117	
11.820	-0.136	-0.150	
11.825	0.012	-0.161	
11.830	-0.148	-0.149	
11.835	-0.140	-0.135	
11.840	0.094	-0.119	
11.845	-0.050	-0.089	
11.850	-0.108	-0.063	
11.855	0.125	-0.045	
11.860	0.102	-0.017	
11.865	-0.093	0.011	
11.870	0.064	0.022	
11.875	0.256	0.036	
11.880	0.079	0.067	
11.885	0.174	0.097	
11.890	0.488	0.136	
11.895	0.352	0.199	
11.900	0.247	0.260	
11.905	0.495	0.304	
11.910	0.399	0.345	
11.915	0.189	0.370	
11.920	0.326	0.365	
11.925	0.465	0.355	
11.930	0.177	0.351	
11.935	0.137	0.328	
11.940	0.306	0.291	
11.945	0.108	0.259	
11.950	-0.063	0.217	
11.955	0.137	0.161	
11.960	0.062	0.117	
11.965	-0.149	0.079	
11.970	-0.052	0.032	
11.975	0.059	-0.006	
11.980	-0.154	-0.027	
11.985	-0.119	-0.050	
11.990	0.154	-0.063	
11.995	0.001	-0.049	
12.000	-0.114	-0.031	
12.005	0.097	-0.022	
12.010	0.079	-0.007	
12.015	-0.114	0.009	
12.020	-0.041	0.006	
12.025	0.114	-0.000	
12.030	-0.038	0.004	
12.035	-0.044	0.004	
12.040	0.236	0.009	
12.045	0.040	0.031	
12.050	-0.095	0.047	
12.055	0.143	0.045	
12.060	0.038	0.047	
12.065	-0.198	0.040	
12.070	-0.159	0.005	
12.075	-0.075	-0.040	
12.080	-0.201	-0.078	
12.085	-0.180	-0.113	
12.090	0.011	-0.135	
12.095	-0.105	-0.133	
12.100	-0.192	-0.125	
12.105	-0.061	-0.124	
12.110	-0.110	-0.120	
12.115	-0.241	-0.120	
12.120	-0.011	-0.126	
12.125	0.381	-0.100	
12.130	0.348	-0.018	
12.135	0.276	0.088	
12.140	0.320	0.180	
12.145	-0.056	0.232	
12.150	-0.221	0.214	
12.155	-0.102	0.138	
12.160	-0.113	0.050	
12.165	-0.262	-0.029	
12.170	-0.197	-0.102	
12.175	-0.101	-0.153	
12.180	-0.230	-0.179	
12.185	-0.224	-0.195	
12.190	-0.055	-0.201	
12.195	-0.130	-0.188	
12.200	-0.195	-0.171	
12.205	0.017	-0.154	
12.210	-0.017	-0.125	
12.215	-0.220	-0.099	
12.220	-0.140	-0.095	
12.225	0.017	-0.098	
12.230	-0.127	-0.092	
12.235	-0.117	-0.089	
12.240	0.149	-0.080	
12.245	-0.012	-0.054	
12.250	-0.104	-0.030	
12.255	0.207	-0.013	
12.260	0.229	0.023	
12.265	-0.002	0.066	
12.270	0.192	0.095	
12.275	0.366	0.126	
12.280	0.068	0.164	
12.285	0.026	0.177	
12.290	0.221	0.166	
12.295	0.021	0.153	
12.300	-0.163	0.123	
12.305	-0.044	0.069	
12.310	-0.064	0.015	
12.315	-0.207	-0.031	
12.320	-0.159	-0.078	
12.325	-0.053	-0.113	
12.330	-0.209	-0.131	
12.335	-0.212	-0.148	
12.340	-0.110	-0.163	
12.345	-0.215	-0.170	
12.350	-0.271	-0.180	
12.355	-0.116	-0.191	
12.360	-0.105	-0.190	
12.365	-0.223	-0.180	
12.370	-0.127	-0.173	
12.375	-0.008	-0.160	
12.380	-0.162	-0.138	
12.385	-0.175	-0.125	
12.390	0.029	-0.118	
12.395	-0.052	-0.101	
12.400	-0.166	-0.085	
12.405	-0.005	-0.079	
12.410	-0.006	-0.070	
12.415	-0.238	-0.065	
12.420	-0.195	-0.081	
12.425	-0.105	-0.108	
12.430	-0.241	-0.131	
12.435	-0.264	-0.158	
12.440	-0.130	-0.183	
12.445	-0.200	-0.195	
12.450	-0.270	-0.202	
12.455	-0.146	-0.209	
12.460	-0.157	-0.207	
12.465	-0.288	-0.202	
12.470	-0.235	-0.207	
12.475	-0.102	-0.211	
12.480	-0.087	-0.199	
12.485	0.133	-0.162	
12.490	0.564	-0.080	
12.495	0.366	0.050	
12.500	0.026	0.166	
12.505	0.035	0.213	
12.510	-0.105	0.196	
12.515	-0.296	0.130	
12.520	-0.221	0.031	
12.525	-0.117	-0.062	
12.530	-0.236	-0.129	
12.535	-0.223	-0.176	
12.540	-0.070	-0.201	
12.545	-0.154	-0.200	
12.550	-0.224	-0.190	
12.555	-0.070	-0.182	
12.560	-0.056	-0.163	
12.565	-0.197	-0.142	
12.570	-0.101	-0.130	
12.575	0.050	-0.117	
12.580	-0.099	-0.093	
12.585	-0.101	-0.076	
12.590	0.072	-0.064	
12.595	-0.005	-0.044	
12.600	-0.066	-0.027	
12.605	0.204	-0.010	
12.610	0.280	0.029	
12.615	0.096	0.082	
12.620	0.280	0.128	
12.625	0.482	0.180	
12.630	0.265	0.241	
12.635	0.248	0.285	
12.640	0.485	0.312	
12.645	0.270	0.336	
12.650	0.052	0.335	
12.655	0.244	0.302	
12.660	0.219	0.265	
12.665	-0.067	0.226	
12.670	0.000	0.169	
12.675	0.102	0.112	
12.680	-0.163	0.065	
12.685	-0.197	0.010	
12.690	-0.026	-0.045	
12.695	-0.119	-0.081	
12.700	-0.201	-0.105	
12.705	-0.067	-0.125	
12.710	-0.079	-0.131	
12.715	-0.197	-0.129	
12.720	-0.101	-0.131	
12.725	0.017	-0.125	
12.730	-0.134	-0.108	
12.735	-0.134	-0.098	
12.740	0.050	-0.091	
12.745	-0.037	-0.074	
12.750	-0.146	-0.060	
12.755	0.030	-0.056	
12.760	0.024	-0.046	
12.765	-0.149	-0.036	
12.770	-0.073	-0.041	
12.775	0.058	-0.046	
12.780	-0.151	-0.046	
12.785	-0.192	-0.057	
12.790	-0.070	-0.080	
12.795	-0.175	-0.100	
12.800	-0.262	-0.123	
12.805	-0.093	-0.148	
12.810	-0.131	-0.160	
12.815	-0.249	-0.164	
12.820	-0.168	-0.173	
12.825	-0.060	-0.175	
12.830	-0.258	-0.168	
12.835	-0.296	-0.175	
12.840	-0.053	-0.187	
12.845	0.090	-0.173	
12.850	0.261	-0.116	
12.855	0.691	-0.007	
12.860	0.553	0.149	
12.865	0.020	0.282	
12.870	-0.076	0.320	
12.875	-0.027	0.272	
12.880	-0.188	0.183	
12.885	-0.200	0.078	
12.890	-0.055	-0.018	
12.895	-0.148	-0.083	
12.900	-0.215	-0.125	
12.905	-0.049	-0.152	
12.910	-0.008	-0.152	
12.915	-0.145	-0.134	
12.920	-0.085	-0.118	
12.925	0.047	-0.100	
12.930	-0.095	-0.077	
12.935	-0.101	-0.063	
12.940	0.143	-0.051	
12.945	0.049	-0.025	
12.950	-0.050	0.001	
12.955	0.218	0.021	
12.960	0.248	0.057	
12.965	0.046	0.099	
12.970	0.244	0.128	
12.975	0.453	0.164	
12.980	0.267	0.217	
12.985	0.296	0.262	
12.990	0.605	0.304	
12.995	0.477	0.359	
13.000	0.283	0.405	
13.005	0.494	0.424	
13.010	0.468	0.435	
13.015	0.146	0.433	
13.020	0.180	0.396	
13.025	0.325	0.342	
13.030	0.015	0.292	
13.035	-0.090	0.226	
13.040	0.104	0.148	
13.045	-0.021	0.088	
13.050	-0.169	0.036	
13.055	-0.037	-0.014	
13.060	-0.037	-0.049	
13.065	-0.198	-0.071	
13.070	-0.139	-0.095	
13.075	-0.026	-0.113	
13.080	-0.162	-0.117	
13.085	-0.151	-0.120	
13.090	0.035	-0.120	
13.095	-0.061	-0.104	
13.100	-0.137	-0.087	
13.105	0.003	-0.078	
13.110	-0.005	-0.066	
13.115	-0.159	-0.055	
13.120	-0.084	-0.058	
13.125	0.062	-0.061	
13.130	-0.105	-0.055	
13.135	-0.125	-0.054	
13.140	0.076	-0.056	
13.145	-0.098	-0.050	
13.150	-0.227	-0.054	
13.155	-0.104	-0.076	
13.160	-0.127	-0.099	
13.165	-0.264	-0.121	
13.170	-0.203	-0.148	
13.175	-0.108	-0.171	
13.180	-0.242	-0.181	
13.185	-0.242	-0.191	
13.190	-0.111	-0.199	
13.195	-0.236	-0.199	
13.200	-0.314	-0.204	
13.205	-0.049	-0.210	
13.210	0.300	-0.180	
13.215	0.312	-0.092	
13.220	0.363	0.028	
13.225	0.251	0.141	
13.230	-0.151	0.204	
13.235	-0.217	0.184	
13.240	-0.117	0.109	
13.245	-0.198	0.021	
13.250	-0.303	-0.063	
13.255	-0.162	-0.138	
13.260	-0.140	-0.184	
13.265	-0.246	-0.205	
13.270	-0.160	-0.214	
13.275	-0.027	-0.206	
13.280	-0.186	-0.183	
13.285	-0.188	-0.165	
13.290	0.043	-0.149	
13.295	-0.055	-0.121	
13.300	-0.182	-0.097	
13.305	-0.024	-0.087	
13.310	0.037	-0.075	
13.315	-0.120	-0.059	
13.320	0.024	-0.048	
13.325	0.265	-0.025	
13.330	0.075	0.020	
13.335	0.093	0.062	
13.340	0.393	0.101	
13.345	0.305	0.156	
13.350	0.142	0.208	
13.355	0.425	0.241	
13.360	0.482	0.281	
13.365	0.216	0.323	
13.370	0.229	0.337	
13.375	0.290	0.326	
13.380	0.008	0.298	
13.385	-0.035	0.242	
13.390	0.157	0.174	
13.395	-0.052	0.119	
13.400	-0.230	0.062	
13.405	-0.137	-0.008	
13.410	-0.149	-0.071	
13.415	-0.294	-0.122	
13.420	-0.232	-0.170	
13.425	-0.159	-0.204	
13.430	-0.267	-0.221	
13.435	-0.265	-0.233	
13.440	-0.157	-0.240	
13.445	-0.223	-0.236	
13.450	-0.291	-0.232	
13.455	-0.157	-0.231	
13.460	-0.128	-0.222	
13.465	-0.262	-0.208	
13.470	-0.177	-0.201	
13.475	-0.041	-0.191	
13.480	-0.191	-0.171	
13.485	-0.206	-0.159	
13.490	-0.046	-0.154	
13.495	-0.140	-0.143	
13.500	-0.239	-0.137	
13.505	-0.142	-0.144	
13.510	-0.143	-0.152	
13.515	-0.317	-0.162	
13.520	-0.264	-0.185	
13.525	-0.174	-0.209	
13.530	-0.274	-0.223	
13.535	-0.285	-0.236	
13.540	-0.143	-0.244	
13.545	-0.192	-0.238	
13.550	-0.264	-0.228	
13.555	-0.178	-0.222	
13.560	-0.174	-0.215	
13.565	-0.253	-0.208	
13.570	-0.038	-0.199	
13.575	0.343	-0.157	
13.580	0.172	-0.070	
13.585	-0.029	0.016	
13.590	-0.005	0.061	
13.595	-0.159	0.062	
13.600	-0.282	0.024	
13.605	-0.160	-0.040	
13.610	-0.146	-0.099	
13.615	-0.255	-0.142	
13.620	-0.178	-0.176	
13.625	-0.040	-0.190	
13.630	-0.180	-0.182	
13.635	-0.195	-0.172	
13.640	-0.037	-0.163	
13.645	-0.105	-0.146	
13.650	-0.186	-0.131	
13.655	-0.014	-0.122	
13.660	0.044	-0.103	
13.665	-0.125	-0.077	
13.670	-0.035	-0.061	
13.675	0.165	-0.043	
13.680	-0.024	-0.014	
13.685	-0.011	0.008	
13.690	0.253	0.026	
13.695	0.187	0.062	
13.700	0.068	0.101	
13.705	0.354	0.132	
13.710	0.373	0.176	
13.715	0.116	0.222	
13.720	0.256	0.243	
13.725	0.448	0.258	
13.730	0.200	0.280	
13.735	0.116	0.284	
13.740	0.338	0.269	
13.745	0.171	0.256	
13.750	-0.076	0.231	
13.755	0.059	0.179	
13.760	0.084	0.126	
13.765	-0.148	0.081	
13.770	-0.122	0.028	
13.775	-0.049	-0.023	
13.780	-0.192	-0.063	
13.785	-0.212	-0.101	
13.790	-0.040	-0.131	
13.795	-0.110	-0.140	
13.800	-0.223	-0.141	
13.805	-0.098	-0.146	
13.810	-0.052	-0.143	
13.815	-0.178	-0.132	
13.820	-0.107	-0.127	
13.825	0.073	-0.115	
13.830	-0.110	-0.092	
13.835	-0.131	-0.076	
13.840	0.073	-0.068	
13.845	-0.009	-0.051	
13.850	-0.139	-0.037	
13.855	0.027	-0.036	
13.860	0.006	-0.032	
13.865	-0.201	-0.032	
13.870	-0.162	-0.051	
13.875	-0.073	-0.079	
13.880	-0.215	-0.102	
13.885	-0.253	-0.130	
13.890	-0.098	-0.157	
13.895	-0.165	-0.170	
13.900	-0.271	-0.177	
13.905	-0.122	-0.186	
13.910	-0.082	-0.184	
13.915	-0.279	-0.175	
13.920	-0.282	-0.181	
13.925	-0.139	-0.196	
13.930	-0.082	-0.196	
13.935	0.171	-0.167	
13.940	0.677	-0.078	
13.945	0.509	0.074	
13.950	0.076	0.216	
13.955	0.078	0.281	
13.960	-0.047	0.269	
13.965	-0.249	0.201	
13.970	-0.207	0.096	
13.975	-0.076	-0.007	
13.980	-0.200	-0.083	
13.985	-0.218	-0.137	
13.990	-0.070	-0.170	
13.995	-0.111	-0.177	
14.000	-0.191	-0.170	
14.005	-0.053	-0.161	
14.010	0.027	-0.139	
14.015	-0.140	-0.109	
14.020	-0.058	-0.088	
14.025	0.174	-0.066	
14.030	-0.056	-0.032	
14.035	-0.087	-0.010	
14.040	0.178	-0.000	
14.045	0.099	0.022	
14.050	-0.043	0.044	
14.055	0.219	0.057	
14.060	0.276	0.085	
14.065	0.114	0.123	
14.070	0.303	0.157	
14.075	0.558	0.203	
14.080	0.358	0.271	
14.085	0.290	0.326	
14.090	0.523	0.360	
14.095	0.416	0.392	
14.100	0.163	0.405	
14.105	0.235	0.382	
14.110	0.177	0.337	
14.115	-0.117	0.275	
14.120	-0.082	0.187	
14.125	0.023	0.097	
14.130	-0.148	0.027	
14.135	-0.201	-0.035	
14.140	-0.069	-0.087	
14.145	-0.136	-0.119	
14.150	-0.238	-0.139	
14.155	-0.104	-0.156	
14.160	-0.098	-0.161	
14.165	-0.244	-0.159	
14.170	-0.185	-0.164	
14.175	-0.050	-0.167	
14.180	-0.175	-0.159	
14.185	-0.174	-0.152	
14.190	0.021	-0.144	
14.195	-0.095	-0.124	
14.200	-0.218	-0.109	
14.205	-0.069	-0.109	
14.210	-0.021	-0.106	
14.215	-0.188	-0.099	
14.220	-0.093	-0.100	
14.225	0.119	-0.094	
14.230	-0.137	-0.073	
14.235	-0.241	-0.068	
14.240	-0.125	-0.087	
14.245	-0.198	-0.112	
14.250	-0.306	-0.142	
14.255	-0.224	-0.178	
14.260	-0.183	-0.206	
14.265	-0.277	-0.222	
14.270	-0.220	-0.233	
14.275	-0.096	-0.233	
14.280	-0.230	-0.220	
14.285	-0.294	-0.212	
14.290	-0.130	-0.213	
14.295	-0.079	-0.203	
14.300	-0.006	-0.174	
14.305	0.497	-0.109	
14.310	0.587	0.015	
14.315	0.140	0.157	
14.320	-0.050	0.236	
14.325	-0.052	0.230	
14.330	-0.242	0.167	
14.335	-0.296	0.066	
14.340	-0.156	-0.041	
14.345	-0.200	-0.123	
14.350	-0.274	-0.179	
14.355	-0.148	-0.215	
14.360	-0.137	-0.226	
14.365	-0.265	-0.221	
14.370	-0.197	-0.218	
14.375	-0.063	-0.209	
14.380	-0.185	-0.190	
14.385	-0.180	-0.173	
14.390	0.047	-0.156	
14.395	-0.009	-0.123	
14.400	-0.153	-0.090	
14.405	0.023	-0.071	
14.410	0.113	-0.048	
14.415	-0.034	-0.018	
14.420	0.101	0.007	
14.425	0.360	0.042	
14.430	0.166	0.097	
14.435	0.165	0.146	
14.440	0.430	0.186	
14.445	0.383	0.236	
14.450	0.186	0.281	
14.455	0.380	0.303	
14.460	0.393	0.320	
14.465	0.119	0.329	
14.470	0.174	0.309	
14.475	0.317	0.279	
14.480	0.029	0.251	
14.485	-0.139	0.202	
14.490	-0.003	0.129	
14.495	-0.119	0.057	
14.500	-0.244	-0.011	
14.505	-0.139	-0.077	
14.510	-0.098	-0.124	
14.515	-0.235	-0.150	
14.520	-0.180	-0.170	
14.525	-0.031	-0.177	
14.530	-0.143	-0.166	
14.535	-0.172	-0.152	
14.540	-0.049	-0.142	
14.545	-0.137	-0.130	
14.550	-0.250	-0.126	
14.555	-0.095	-0.135	
14.560	-0.090	-0.139	
14.565	-0.256	-0.140	
14.570	-0.210	-0.152	
14.575	-0.058	-0.164	
14.580	-0.177	-0.162	
14.585	-0.210	-0.161	
14.590	-0.060	-0.160	
14.595	-0.114	-0.151	
14.600	-0.212	-0.142	
14.605	-0.163	-0.143	
14.610	-0.136	-0.149	
14.615	-0.160	-0.151	
14.620	0.184	-0.137	
14.625	0.585	-0.068	
14.630	0.283	0.054	
14.635	-0.012	0.156	
14.640	0.001	0.190	
14.645	-0.183	0.163	
14.650	-0.303	0.088	
14.655	-0.177	-0.009	
14.660	-0.143	-0.092	
14.665	-0.264	-0.150	
14.670	-0.195	-0.190	
14.675	-0.046	-0.207	
14.680	-0.149	-0.198	
14.685	-0.197	-0.181	
14.690	-0.012	-0.166	
14.695	-0.079	-0.141	
14.700	-0.194	-0.120	
14.705	-0.070	-0.112	
14.710	0.000	-0.103	
14.715	-0.151	-0.090	
14.720	-0.052	-0.083	
14.725	0.148	-0.069	
14.730	-0.041	-0.040	
14.735	-0.067	-0.019	
14.740	0.186	-0.004	
14.745	0.160	0.025	
14.750	0.033	0.060	
14.755	0.293	0.090	
14.760	0.370	0.134	
14.765	0.149	0.185	
14.770	0.264	0.219	
14.775	0.413	0.246	
14.780	0.184	0.272	
14.785	0.072	0.275	
14.790	0.305	0.254	
14.795	0.142	0.235	
14.800	-0.134	0.203	
14.805	-0.063	0.141	
14.810	-0.037	0.071	
14.815	-0.201	0.008	
14.820	-0.149	-0.052	
14.825	-0.047	-0.097	
14.830	-0.157	-0.120	
14.835	-0.160	-0.133	
14.840	0.027	-0.136	
14.845	-0.031	-0.118	
14.850	-0.177	-0.098	
14.855	-0.104	-0.092	
14.860	-0.020	-0.091	
14.865	-0.169	-0.088	
14.870	-0.131	-0.093	
14.875	0.044	-0.096	
14.880	-0.116	-0.087	
14.885	-0.154	-0.083	
14.890	0.056	-0.082	
14.895	-0.009	-0.069	
14.900	-0.142	-0.055	
14.905	0.000	-0.051	
14.910	0.091	-0.042	
14.915	-0.107	-0.026	
14.920	-0.006	-0.020	
14.925	0.189	-0.010	
14.930	-0.050	0.012	
14.935	-0.104	0.020	
14.940	0.148	0.015	
14.945	0.084	0.022	
14.950	-0.076	0.033	
14.955	0.070	0.032	
14.960	0.044	0.031	
14.965	-0.159	0.024	
14.970	-0.116	-0.001	
14.975	0.020	-0.031	
14.980	-0.130	-0.049	
14.985	-0.204	-0.069	
14.990	-0.031	-0.093	
14.995	-0.049	-0.102	
15.000	-0.162	-0.101	
15.005	-0.012	-0.099	
15.010	-0.018	-0.090	
15.015	-0.104	-0.076	
15.020	0.229	-0.055	
15.025	0.739	0.016	
15.030	0.681	0.158	
15.035	0.425	0.316	
15.040	0.297	0.419	
15.045	-0.024	0.438	
15.050	-0.198	0.369	
15.055	-0.098	0.243	
15.060	-0.067	0.115	
15.065	-0.215	0.010	
15.070	-0.163	-0.074	
15.075	-0.034	-0.128	
15.080	-0.142	-0.148	
15.085	-0.175	-0.153	
15.090	0.015	-0.150	
15.095	-0.034	-0.129	
15.100	-0.169	-0.105	
15.105	0.001	-0.091	
15.110	0.158	-0.067	
15.115	-0.026	-0.030	
15.120	0.012	-0.001	
15.125	0.239	0.025	
15.130	0.076	0.059	
15.135	0.009	0.083	
15.140	0.282	0.097	
15.145	0.265	0.125	
15.150	0.117	0.158	
15.155	0.386	0.186	
15.160	0.530	0.231	
15.165	0.367	0.294	
15.170	0.450	0.350	
15.175	0.628	0.400	
15.180	0.363	0.447	
15.185	0.229	0.460	
15.190	0.482	0.442	
15.195	0.364	0.423	
15.200	0.087	0.396	
15.205	0.194	0.343	
15.210	0.187	0.284	
15.215	-0.108	0.224	
15.220	-0.093	0.148	
15.225	0.096	0.074	
15.230	-0.078	0.025	
15.235	-0.160	-0.014	
15.240	0.003	-0.049	
15.245	-0.070	-0.067	
15.250	-0.192	-0.079	
15.255	-0.050	-0.094	
15.260	0.043	-0.095	
15.265	-0.139	-0.083	
15.270	-0.084	-0.076	
15.275	0.131	-0.067	
15.280	-0.024	-0.043	
15.285	-0.096	-0.024	
15.290	0.122	-0.015	
15.295	0.058	0.002	
15.300	-0.117	0.016	
15.305	0.029	0.013	
15.310	0.094	0.010	
15.315	-0.107	0.012	
15.320	-0.085	0.002	
15.325	0.068	-0.013	
15.330	-0.134	-0.022	
15.335	-0.224	-0.042	
15.340	-0.105	-0.076	
15.345	-0.175	-0.107	
15.350	-0.288	-0.136	
15.355	-0.182	-0.169	
15.360	-0.142	-0.190	
15.365	-0.235	-0.198	
15.370	-0.192	-0.202	
15.375	-0.119	-0.201	
15.380	-0.288	-0.197	
15.385	-0.290	-0.204	
15.390	0.064	-0.206	
15.395	0.354	-0.161	
15.400	0.386	-0.056	
15.405	0.569	0.085	
15.410	0.351	0.224	
15.415	-0.140	0.304	
15.420	-0.188	0.281	
15.425	-0.087	0.191	
15.430	-0.200	0.085	
15.435	-0.238	-0.016	
15.440	-0.096	-0.098	
15.445	-0.140	-0.147	
15.450	-0.239	-0.172	
15.455	-0.102	-0.186	
15.460	-0.026	-0.180	
15.465	-0.192	-0.160	
15.470	-0.137	-0.146	
15.475	0.058	-0.131	
15.480	-0.111	-0.105	
15.485	-0.156	-0.088	
15.490	0.096	-0.079	
15.495	0.062	-0.055	
15.500	-0.076	-0.026	
15.505	0.163	-0.004	
15.510	0.270	0.032	
15.515	0.073	0.079	
15.520	0.226	0.117	
15.525	0.469	0.160	
15.530	0.306	0.220	
15.535	0.233	0.269	
15.540	0.506	0.303	
15.545	0.428	0.341	
15.550	0.229	0.370	
15.555	0.412	0.376	
15.560	0.415	0.377	
15.565	0.096	0.370	
15.570	0.072	0.329	
15.575	0.213	0.269	
15.580	-0.018	0.212	
15.585	-0.133	0.147	
15.590	-0.003	0.075	
15.595	-0.101	0.014	
15.600	-0.247	-0.039	
15.605	-0.128	-0.091	
15.610	-0.067	-0.126	
15.615	-0.217	-0.143	
15.620	-0.180	-0.156	
15.625	-0.043	-0.162	
15.630	-0.148	-0.154	
15.635	-0.210	-0.147	
15.640	-0.029	-0.144	
15.645	-0.066	-0.132	
15.650	-0.197	-0.118	
15.655	-0.044	-0.112	
15.660	0.072	-0.099	
15.665	-0.151	-0.076	
15.670	-0.142	-0.068	
15.675	0.052	-0.069	
15.680	-0.053	-0.061	
15.685	-0.148	-0.056	
15.690	0.003	-0.058	
15.695	-0.090	-0.060	
15.700	-0.252	-0.069	
15.705	-0.194	-0.097	
15.710	-0.156	-0.130	
15.715	-0.273	-0.158	
15.720	-0.232	-0.185	
15.725	-0.085	-0.203	
15.730	-0.183	-0.201	
15.735	-0.241	-0.195	
15.740	-0.113	-0.192	
15.745	-0.212	-0.186	
15.750	-0.337	-0.189	
15.755	-0.117	-0.202	
15.760	0.274	-0.185	
15.765	0.320	-0.108	
15.770	0.474	0.014	
15.775	0.488	0.153	
15.780	-0.032	0.258	
15.785	-0.249	0.270	
15.790	-0.163	0.194	
15.795	-0.194	0.086	
15.800	-0.293	-0.022	
15.805	-0.174	-0.115	
15.810	-0.096	-0.174	
15.815	-0.247	-0.199	
15.820	-0.220	-0.212	
15.825	-0.089	-0.215	
15.830	-0.192	-0.204	
15.835	-0.221	-0.193	
15.840	-0.050	-0.183	
15.845	-0.082	-0.164	
15.850	-0.185	-0.142	
15.855	-0.052	-0.129	
15.860	0.038	-0.110	
15.865	-0.114	-0.084	
15.870	-0.037	-0.067	
15.875	0.174	-0.046	
15.880	0.040	-0.012	
15.885	0.020	0.020	
15.890	0.317	0.050	
15.895	0.236	0.097	
15.900	0.070	0.142	
15.905	0.326	0.170	
15.910	0.413	0.205	
15.915	0.102	0.242	
15.920	0.119	0.250	
15.925	0.303	0.237	
15.930	0.084	0.224	
15.935	-0.024	0.197	
15.940	0.137	0.156	
15.945	-0.011	0.117	
15.950	-0.185	0.074	
15.955	-0.107	0.016	
15.960	-0.076	-0.037	
15.965	-0.212	-0.078	
15.970	-0.178	-0.115	
15.975	-0.053	-0.141	
15.980	-0.185	-0.149	
15.985	-0.262	-0.157	
15.990	-0.113	-0.170	
15.995	-0.128	-0.174	
16.000	-0.229	-0.171	
16.005	-0.098	-0.169	
16.010	0.001	-0.157	
16.015	-0.175	-0.134	
16.020	-0.160	-0.122	
16.025	0.014	-0.116	
16.030	-0.075	-0.101	
16.035	-0.162	-0.089	
16.040	-0.034	-0.086	
16.045	-0.090	-0.084	
16.050	-0.206	-0.086	
16.055	-0.079	-0.099	
16.060	-0.055	-0.106	
16.065	-0.224	-0.109	
16.070	-0.210	-0.123	
16.075	-0.089	-0.141	
16.080	-0.204	-0.152	
16.085	-0.271	-0.164	
16.090	-0.148	-0.181	
16.095	-0.175	-0.190	
16.100	-0.271	-0.195	
16.105	-0.151	-0.202	
16.110	-0.128	-0.200	
16.115	-0.282	-0.194	
16.120	-0.203	-0.197	
16.125	0.200	-0.184	
16.130	0.285	-0.122	
16.135	0.282	-0.020	
16.140	0.392	0.091	
16.145	0.078	0.181	
16.150	-0.197	0.209	
16.155	-0.143	0.162	
16.160	-0.116	0.082	
16.165	-0.256	-0.002	
16.170	-0.204	-0.081	
16.175	-0.067	-0.139	
16.180	-0.166	-0.165	
16.185	-0.213	-0.176	
16.190	-0.040	-0.178	
16.195	-0.078	-0.163	
16.200	-0.195	-0.144	
16.205	-0.053	-0.132	
16.210	0.070	-0.112	
16.215	-0.122	-0.084	
16.220	-0.063	-0.065	
16.225	0.177	-0.047	
16.230	0.044	-0.014	
16.235	-0.009	0.016	
16.240	0.280	0.043	
16.245	0.262	0.085	
16.250	0.053	0.130	
16.255	0.255	0.157	
16.260	0.389	0.185	
16.265	0.270	0.225	
16.270	0.319	0.260	
16.275	0.506	0.295	
16.280	0.317	0.334	
16.285	0.194	0.353	
16.290	0.415	0.348	
16.295	0.302	0.343	
16.300	0.035	0.326	
16.305	0.175	0.282	
16.310	0.221	0.237	
16.315	-0.060	0.197	
16.320	-0.058	0.142	
16.325	0.058	0.084	
16.330	-0.101	0.038	
16.335	-0.165	-0.006	
16.340	-0.009	-0.047	
16.345	-0.078	-0.070	
16.350	-0.200	-0.086	
16.355	-0.070	-0.103	
16.360	0.046	-0.106	
16.365	-0.148	-0.094	
16.370	-0.105	-0.087	
16.375	0.088	-0.080	
16.380	-0.049	-0.061	
16.385	-0.098	-0.045	
16.390	0.137	-0.034	
16.395	0.113	-0.009	
16.400	-0.066	0.019	
16.405	0.076	0.032	
16.410	0.161	0.043	
16.415	-0.050	0.057	
16.420	-0.020	0.056	
16.425	0.142	0.047	
16.430	-0.095	0.042	
16.435	-0.217	0.019	
16.440	-0.111	-0.025	
16.445	-0.162	-0.070	
16.450	-0.256	-0.111	
16.455	-0.154	-0.149	
16.460	-0.084	-0.170	
16.465	-0.185	-0.172	
16.470	-0.165	-0.170	
16.475	-0.052	-0.164	
16.480	-0.212	-0.153	
16.485	-0.241	-0.152	
16.490	0.021	-0.155	
16.495	0.277	-0.124	
16.500	0.344	-0.043	
16.505	0.587	0.076	
16.510	0.465	0.212	
16.515	-0.064	0.307	
16.520	-0.142	0.306	
16.525	-0.006	0.233	
16.530	-0.154	0.139	
16.535	-0.223	0.043	
16.540	-0.085	-0.044	
16.545	-0.104	-0.101	
16.550	-0.209	-0.134	
16.555	-0.095	-0.154	
16.560	0.011	-0.153	
16.565	-0.142	-0.134	
16.570	-0.104	-0.118	
16.575	0.082	-0.100	
16.580	-0.063	-0.073	
16.585	-0.122	-0.054	
16.590	0.113	-0.044	
16.595	0.087	-0.022	
16.600	-0.072	0.003	
16.605	0.111	0.017	
16.610	0.305	0.042	
16.615	0.079	0.083	
16.620	0.142	0.116	
16.625	0.439	0.148	
16.630	0.352	0.199	
16.635	0.276	0.253	
16.640	0.561	0.301	
16.645	0.494	0.356	
16.650	0.259	0.401	
16.655	0.380	0.413	
16.660	0.427	0.409	
16.665	0.131	0.395	
16.670	0.110	0.352	
16.675	0.256	0.294	
16.680	0.015	0.240	
16.685	-0.122	0.177	
16.690	0.000	0.103	
16.695	-0.078	0.038	
16.700	-0.217	-0.018	
16.705	-0.128	-0.072	
16.710	-0.050	-0.109	
16.715	-0.192	-0.127	
16.720	-0.169	-0.140	
16.725	-0.040	-0.147	
16.730	-0.163	-0.142	
16.735	-0.217	-0.141	
16.740	-0.056	-0.144	
16.745	-0.075	-0.138	
16.750	-0.186	-0.127	
16.755	-0.073	-0.123	
16.760	0.024	-0.112	
16.765	-0.113	-0.092	
16.770	-0.073	-0.078	
16.775	0.107	-0.064	
16.780	-0.069	-0.042	
16.785	-0.130	-0.031	
16.790	0.053	-0.032	
16.795	-0.020	-0.029	
16.800	-0.180	-0.030	
16.805	-0.124	-0.048	
16.810	-0.099	-0.072	
16.815	-0.241	-0.097	
16.820	-0.204	-0.127	
16.825	-0.066	-0.152	
16.830	-0.165	-0.159	
16.835	-0.213	-0.161	
16.840	-0.073	-0.163	
16.845	-0.120	-0.156	
16.850	-0.279	-0.151	
16.855	-0.200	-0.162	
16.860	0.023	-0.167	
16.865	0.204	-0.137	
16.870	0.534	-0.052	
16.875	0.747	0.092	
16.880	0.306	0.254	
16.885	-0.095	0.345	
16.890	-0.044	0.329	
16.895	-0.124	0.247	
16.900	-0.267	0.135	
16.905	-0.162	0.017	
16.910	-0.093	-0.075	
16.915	-0.215	-0.133	
16.920	-0.178	-0.169	
16.925	-0.009	-0.183	
16.930	-0.102	-0.169	
16.935	-0.131	-0.147	
16.940	0.024	-0.125	
16.945	-0.047	-0.097	
16.950	-0.195	-0.078	
16.955	-0.050	-0.076	
16.960	0.090	-0.071	
16.965	-0.096	-0.054	
16.970	-0.066	-0.043	
16.975	0.178	-0.032	
16.980	0.065	-0.004	
16.985	0.014	0.025	
16.990	0.348	0.055	
16.995	0.358	0.109	
17.000	0.181	0.173	
17.005	0.384	0.223	
17.010	0.529	0.275	
17.015	0.306	0.330	
17.020	0.352	0.366	
17.025	0.543	0.387	
17.030	0.358	0.409	
17.035	0.126	0.408	
17.040	0.270	0.373	
17.045	0.172	0.326	
17.050	-0.099	0.266	
17.055	-0.043	0.184	
17.060	0.006	0.102	
17.065	-0.143	0.035	
17.070	-0.119	-0.023	
17.075	0.058	-0.062	
17.080	-0.113	-0.076	
17.085	-0.194	-0.085	
17.090	-0.049	-0.099	
17.095	-0.058	-0.104	
17.100	-0.178	-0.103	
17.105	-0.095	-0.107	
17.110	0.075	-0.103	
17.115	-0.076	-0.083	
17.120	-0.055	-0.064	
17.125	0.148	-0.044	
17.130	-0.069	-0.019	
17.135	-0.186	-0.011	
17.140	0.023	-0.024	
17.145	0.085	-0.029	
17.150	-0.066	-0.020	
17.155	-0.005	-0.014	
17.160	0.075	-0.009	
17.165	-0.125	-0.004	
17.170	-0.102	-0.013	
17.175	0.053	-0.028	
17.180	-0.134	-0.036	
17.185	-0.213	-0.053	
17.190	-0.072	-0.081	
17.195	-0.085	-0.100	
17.200	-0.194	-0.111	
17.205	-0.067	-0.121	
17.210	-0.008	-0.119	
17.215	-0.178	-0.108	
17.220	-0.180	-0.108	
17.225	-0.046	-0.115	
17.230	0.003	-0.109	
17.235	0.219	-0.078	
17.240	0.652	0.002	
17.245	0.501	0.134	
17.250	0.056	0.254	
17.255	0.137	0.300	
17.260	0.143	0.290	
17.265	-0.140	0.244	
17.270	-0.159	0.163	
17.275	-0.002	0.072	
17.280	-0.102	0.001	
17.285	-0.168	-0.051	
17.290	-0.017	-0.088	
17.295	-0.027	-0.101	
17.300	-0.172	-0.099	
17.305	-0.034	-0.099	
17.310	0.111	-0.087	
17.315	-0.124	-0.062	
17.320	-0.105	-0.049	
17.325	0.094	-0.045	
17.330	-0.035	-0.032	
17.335	-0.069	-0.022	
17.340	0.194	-0.012	
17.345	0.084	0.014	
17.350	-0.102	0.036	
17.355	0.113	0.040	
17.360	0.338	0.055	
17.365	0.326	0.105	
17.370	0.404	0.174	
17.375	0.546	0.253	
17.380	0.367	0.331	
17.385	0.262	0.380	
17.390	0.505	0.398	
17.395	0.387	0.410	
17.400	0.247	0.411	
17.405	0.393	0.394	
17.410	0.383	0.378	
17.415	-0.076	0.351	
17.420	-0.217	0.273	
17.425	-0.064	0.158	
17.430	-0.125	0.051	
17.435	-0.212	-0.036	
17.440	-0.119	-0.103	
17.445	-0.148	-0.144	
17.450	-0.207	-0.167	
17.455	0.001	-0.173	
17.460	0.104	-0.149	
17.465	-0.165	-0.107	
17.470	-0.209	-0.087	
17.475	-0.050	-0.090	
17.480	-0.120	-0.095	
17.485	-0.153	-0.100	
17.490	-0.020	-0.105	
17.495	-0.073	-0.100	
17.500	-0.259	-0.099	
17.505	-0.137	-0.114	
17.510	0.102	-0.120	
17.515	-0.069	-0.101	
17.520	-0.122	-0.080	
17.525	0.114	-0.064	
17.530	-0.128	-0.046	
17.535	-0.351	-0.051	
17.540	-0.332	-0.098	
17.545	-0.415	-0.169	
17.550	-0.585	-0.253	
17.555	-0.505	-0.344	
17.560	-0.389	-0.417	
17.565	-0.486	-0.458	
17.570	-0.502	-0.479	
17.575	-0.381	-0.487	
17.580	-0.448	-0.481	
17.585	-0.499	-0.471	
17.590	-0.316	-0.460	
17.595	-0.360	-0.439	
17.600	-0.462	-0.416	
17.605	-0.320	-0.402	
17.610	-0.200	-0.381	
17.615	-0.317	-0.349	
17.620	-0.403	-0.325	
17.625	-0.390	-0.323	
17.630	-0.517	-0.341	
17.635	-0.630	-0.382	
17.640	-0.581	-0.440	
17.645	-0.589	-0.497	
17.650	-0.709	-0.547	
17.655	-0.718	-0.597	
17.660	-0.805	-0.647	
17.665	-0.971	-0.705	
17.670	-0.996	-0.775	
17.675	-0.996	-0.850	
17.680	-0.996	-0.913	
17.685	-0.994	-0.960	
17.690	-0.996	-0.989	
17.695	-0.996	-1.004	
17.700	-0.996	-1.010	
17.705	-0.996	-1.011	
17.710	-0.996	-1.008	
17.715	-0.996	-1.004	
17.720	-0.996	-1.001	
17.725	-0.907	-0.994	
17.730	-0.864	-0.977	
17.735	-0.805	-0.947	
17.740	-0.643	-0.901	
17.745	-0.631	-0.838	
17.750	-0.663	-0.771	
17.755	-0.567	-0.712	
17.760	-0.496	-0.658	
17.765	-0.506	-0.605	
17.770	-0.483	-0.559	
17.775	-0.364	-0.518	
17.780	-0.470	-0.480	
17.785	-0.521	-0.457	
17.790	-0.456	-0.452	
17.795	-0.462	-0.454	
17.800	-0.517	-0.458	
17.805	-0.444	-0.465	
17.810	-0.407	-0.467	
17.815	-0.471	-0.461	
17.820	-0.425	-0.455	
17.825	-0.259	-0.441	
17.830	-0.262	-0.408	
17.835	-0.311	-0.368	
17.840	-0.197	-0.329	
17.845	-0.153	-0.290	
17.850	-0.185	-0.248	
17.855	-0.070	-0.209	
17.860	0.001	-0.166	
17.865	-0.130	-0.124	
17.870	-0.136	-0.098	
17.875	0.008	-0.086	
17.880	-0.047	-0.071	
17.885	-0.002	-0.055	
17.890	0.308	-0.025	
17.895	0.305	0.036	
17.900	0.081	0.106	
17.905	0.136	0.149	
17.910	0.190	0.167	
17.915	0.029	0.171	
17.920	0.021	0.153	
17.925	0.145	0.126	
17.930	0.067	0.107	
17.935	0.123	0.097	
17.940	0.386	0.106	
17.945	0.456	0.153	
17.950	0.319	0.223	
17.955	0.354	0.283	
17.960	0.433	0.327	
17.965	0.389	0.363	
17.970	0.646	0.399	
17.975	1.035	0.469	
17.980	1.067	0.591	
17.985	0.815	0.726	
17.990	0.765	0.818	
17.995	0.497	0.844	
18.000	0.212	0.791	
18.005	0.285	0.675	
18.010	0.398	0.548	
18.015	0.288	0.447	
18.020	0.344	0.376	
18.025	0.506	0.340	
18.030	0.425	0.342	
18.035	0.311	0.357	
18.040	0.408	0.365	
18.045	0.450	0.375	
18.050	0.500	0.394	
18.055	0.608	0.425	
18.060	0.623	0.470	
18.065	0.436	0.511	
18.070	0.381	0.524	
18.075	0.590	0.516	
18.080	0.544	0.514	
18.085	0.495	0.518	
18.090	0.707	0.528	
18.095	0.761	0.559	
18.100	0.620	0.602	
18.105	0.726	0.638	
18.110	0.880	0.674	
18.115	0.797	0.719	
18.120	0.750	0.757	
18.125	0.902	0.784	
18.130	0.767	0.805	
18.135	0.515	0.804	
18.140	0.604	0.765	
18.145	0.543	0.710	
18.150	0.370	0.646	
18.155	0.412	0.574	
18.160	0.428	0.507	
18.165	0.276	0.452	
18.170	0.267	0.399	
18.175	0.366	0.354	
18.180	0.259	0.324	
18.185	0.215	0.300	
18.190	0.354	0.281	
18.195	0.393	0.281	
18.200	0.258	0.293	
18.205	0.338	0.303	
18.210	0.425	0.314	
18.215	0.390	0.335	
18.220	0.553	0.364	
18.225	0.732	0.414	
18.230	0.658	0.486	
18.235	0.509	0.549	
18.240	0.655	0.587	
18.245	0.652	0.611	
18.250	0.511	0.624	
18.255	0.634	0.622	
18.260	0.744	0.622	
18.265	0.636	0.635	
18.270	0.530	0.641	
18.275	0.558	0.630	
18.280	0.404	0.603	
18.285	0.283	0.554	
18.290	0.468	0.495	
18.295	0.430	0.450	
18.300	0.239	0.417	
18.305	0.315	0.381	
18.310	0.524	0.357	
18.315	0.425	0.362	
18.320	0.402	0.379	
18.325	0.418	0.394	
18.330	0.209	0.395	
18.335	0.178	0.370	
18.340	0.567	0.341	
18.345	0.748	0.359	
18.350	0.680	0.428	
18.355	0.694	0.513	
18.360	0.556	0.580	
18.365	0.102	0.595	
18.370	-0.087	0.523	
18.375	-0.020	0.387	
18.380	-0.072	0.240	
18.385	-0.131	0.109	
18.390	-0.020	0.009	
18.395	-0.024	-0.051	
18.400	-0.099	-0.079	
18.405	-0.044	-0.091	
18.410	-0.003	-0.088	
18.415	-0.114	-0.078	
18.420	-0.105	-0.075	
18.425	0.012	-0.074	
18.430	-0.053	-0.066	
18.435	-0.090	-0.058	
18.440	0.038	-0.053	
18.445	0.018	-0.040	
18.450	-0.101	-0.028	
18.455	0.003	-0.025	
18.460	0.087	-0.019	
18.465	-0.003	-0.005	
18.470	-0.014	0.006	
18.475	0.197	0.018	
18.480	0.291	0.052	
18.485	0.319	0.109	
18.490	0.454	0.181	
18.495	0.408	0.258	
18.500	0.251	0.319	
18.505	0.355	0.348	
18.510	0.364	0.360	
18.515	0.142	0.355	
18.520	0.076	0.321	
18.525	0.163	0.266	
18.530	0.011	0.209	
18.535	-0.047	0.149	
18.540	0.108	0.093	
18.545	0.110	0.061	
18.550	0.043	0.051	
18.555	0.184	0.054	
18.560	0.354	0.081	
18.565	0.291	0.134	
18.570	0.373	0.196	
18.575	0.535	0.262	
18.580	0.415	0.333	
18.585	0.325	0.384	
18.590	0.491	0.410	
18.595	0.454	0.428	
18.600	0.262	0.435	
18.605	0.280	0.416	
18.610	0.340	0.384	
18.615	0.194	0.350	
18.620	0.219	0.313	
18.625	0.367	0.283	
18.630	0.239	0.271	
18.635	0.163	0.262	
18.640	0.346	0.251	
18.645	0.363	0.255	
18.650	0.230	0.271	
18.655	0.355	0.282	
18.660	0.462	0.301	
18.665	0.349	0.329	
18.670	0.459	0.357	
18.675	0.684	0.395	
18.680	0.593	0.453	
18.685	0.428	0.503	
18.690	0.520	0.526	
18.695	0.251	0.520	
18.700	-0.061	0.465	
18.705	-0.058	0.356	
18.710	0.171	0.236	
18.715	0.210	0.156	
18.720	0.270	0.128	
18.725	0.239	0.136	
18.730	-0.064	0.147	
18.735	-0.201	0.120	
18.740	-0.119	0.058	
18.745	-0.117	-0.009	
18.750	-0.162	-0.064	
18.755	0.041	-0.098	
18.760	0.361	-0.083	
18.765	0.373	-0.008	
18.770	0.543	0.106	
18.775	0.941	0.254	
18.780	1.052	0.440	
18.785	1.154	0.644	
18.790	1.596	0.854	
18.795	1.631	1.075	
18.800	1.316	1.271	
18.805	1.413	1.394	
18.810	1.578	1.461	
18.815	1.526	1.506	
18.820	1.681	1.541	
18.825	2.040	1.594	
18.830	1.837	1.676	
18.835	1.591	1.744	
18.840	1.820	1.771	
18.845	1.840	1.784	
18.850	1.508	1.784	
18.855	1.564	1.751	
18.860	1.721	1.705	
18.865	1.445	1.666	
18.870	1.319	1.612	
18.875	1.451	1.544	
18.880	1.162	1.474	
18.885	0.817	1.379	
18.890	0.931	1.250	
18.895	0.797	1.116	
18.900	0.428	0.981	
18.905	0.445	0.830	
18.910	0.401	0.682	
18.915	0.072	0.544	
18.920	0.030	0.402	
18.925	0.258	0.277	
18.930	0.096	0.193	
18.935	-0.067	0.134	
18.940	0.076	0.082	
18.945	0.027	0.047	
18.950	-0.142	0.020	
18.955	-0.099	-0.013	
18.960	-0.014	-0.043	
18.965	-0.151	-0.063	
18.970	-0.160	-0.083	
18.975	-0.067	-0.102	
18.980	-0.146	-0.113	
18.985	-0.238	-0.125	
18.990	-0.145	-0.144	
18.995	-0.151	-0.157	
19.000	-0.294	-0.169	
19.005	-0.239	-0.189	
19.010	-0.163	-0.207	
19.015	-0.331	-0.219	
19.020	-0.387	-0.241	
19.025	-0.290	-0.271	
19.030	-0.378	-0.298	
19.035	-0.464	-0.326	
19.040	-0.358	-0.356	
19.045	-0.332	-0.375	
19.050	-0.480	-0.385	
19.055	-0.436	-0.398	
19.060	-0.339	-0.409	
19.065	-0.477	-0.413	
19.070	-0.523	-0.422	
19.075	-0.352	-0.435	
19.080	-0.268	-0.430	
19.085	-0.180	-0.398	
19.090	0.152	-0.330	
19.095	0.046	-0.228	
19.100	-0.296	-0.139	
19.105	-0.383	-0.112	
19.110	-0.369	-0.144	
19.115	-0.491	-0.207	
19.120	-0.496	-0.286	
19.125	-0.366	-0.357	
19.130	-0.428	-0.402	
19.135	-0.503	-0.430	
19.140	-0.372	-0.448	
19.145	-0.364	-0.448	
19.150	-0.474	-0.438	
19.155	-0.410	-0.432	
19.160	-0.305	-0.423	
19.165	-0.412	-0.407	
19.170	-0.435	-0.396	
19.175	-0.311	-0.391	
19.180	-0.342	-0.381	
19.185	-0.412	-0.370	
19.190	-0.279	-0.364	
19.195	-0.249	-0.349	
19.200	-0.334	-0.329	
19.205	-0.244	-0.312	
19.210	-0.113	-0.289	
19.215	-0.210	-0.256	
19.220	-0.182	-0.225	
19.225	-0.023	-0.196	
19.230	-0.116	-0.162	
19.235	-0.198	-0.136	
19.240	-0.055	-0.124	
19.245	-0.064	-0.113	
19.250	-0.239	-0.106	
19.255	-0.217	-0.118	
19.260	-0.166	-0.141	
19.265	-0.306	-0.166	
19.270	-0.352	-0.199	
19.275	-0.224	-0.236	
19.280	-0.299	-0.261	
19.285	-0.430	-0.283	
19.290	-0.339	-0.311	
19.295	-0.320	-0.333	
19.300	-0.439	-0.348	
19.305	-0.384	-0.364	
19.310	-0.291	-0.374	
19.315	-0.396	-0.373	
19.320	-0.401	-0.372	
19.325	-0.274	-0.371	
19.330	-0.317	-0.360	
19.335	-0.386	-0.348	
19.340	-0.256	-0.340	
19.345	-0.238	-0.326	
19.350	-0.360	-0.309	
19.355	-0.299	-0.302	
19.360	-0.206	-0.296	
19.365	-0.299	-0.285	
19.370	-0.308	-0.279	
19.375	-0.200	-0.275	
19.380	-0.276	-0.268	
19.385	-0.378	-0.267	
19.390	-0.279	-0.278	
19.395	-0.277	-0.288	
19.400	-0.409	-0.297	
19.405	-0.366	-0.314	
19.410	-0.285	-0.330	
19.415	-0.390	-0.339	
19.420	-0.404	-0.348	
19.425	-0.277	-0.356	
19.430	-0.343	-0.355	
19.435	-0.450	-0.354	
19.440	-0.363	-0.362	
19.445	-0.308	-0.368	
19.450	-0.282	-0.361	
19.455	-0.064	-0.334	
19.460	0.203	-0.269	
19.465	-0.067	-0.174	
19.470	-0.239	-0.104	
19.475	-0.206	-0.085	
19.480	-0.300	-0.103	
19.485	-0.387	-0.149	
19.490	-0.277	-0.206	
19.495	-0.261	-0.252	
19.500	-0.357	-0.281	
19.505	-0.302	-0.302	
19.510	-0.204	-0.311	
19.515	-0.294	-0.304	
19.520	-0.293	-0.295	
19.525	-0.148	-0.283	
19.530	-0.192	-0.261	
19.535	-0.253	-0.238	
19.540	-0.127	-0.221	
19.545	-0.096	-0.200	
19.550	-0.215	-0.177	
19.555	-0.130	-0.163	
19.560	0.037	-0.147	
19.565	-0.098	-0.119	
19.570	-0.098	-0.095	
19.575	0.171	-0.071	
19.580	0.130	-0.029	
19.585	0.032	0.018	
19.590	0.338	0.063	
19.595	0.387	0.123	
19.600	0.119	0.187	
19.605	0.189	0.222	
19.610	0.395	0.239	
19.615	0.111	0.254	
19.620	-0.021	0.241	
19.625	0.157	0.201	
19.630	0.011	0.158	
19.635	-0.139	0.110	
19.640	-0.006	0.053	
19.645	-0.002	0.008	
19.650	-0.200	-0.025	
19.655	-0.172	-0.063	
19.660	-0.055	-0.098	
19.665	-0.175	-0.118	
19.670	-0.200	-0.134	
19.675	-0.081	-0.148	
19.680	-0.131	-0.150	
19.685	-0.201	-0.148	
19.690	-0.081	-0.148	
19.695	-0.056	-0.141	
19.700	-0.175	-0.128	
19.705	-0.108	-0.122	
19.710	0.029	-0.113	
19.715	-0.145	-0.097	
19.720	-0.171	-0.091	
19.725	-0.002	-0.094	
19.730	-0.067	-0.089	
19.735	-0.165	-0.084	
19.740	-0.003	-0.085	
19.745	-0.006	-0.077	
19.750	-0.171	-0.068	
19.755	-0.119	-0.073	
19.760	-0.002	-0.080	
19.765	-0.186	-0.084	
19.770	-0.247	-0.098	
19.775	-0.162	-0.126	
19.780	-0.207	-0.153	
19.785	-0.270	-0.176	
19.790	-0.166	-0.198	
19.795	-0.136	-0.206	
19.800	-0.264	-0.204	
19.805	-0.212	-0.206	
19.810	-0.153	-0.208	
19.815	-0.265	-0.206	
19.820	-0.177	-0.207	
19.825	0.280	-0.185	
19.830	0.437	-0.102	
19.835	0.271	0.023	
19.840	0.267	0.138	
19.845	0.062	0.209	
19.850	-0.207	0.214	
19.855	-0.192	0.152	
19.860	-0.092	0.062	
19.865	-0.204	-0.021	
19.870	-0.212	-0.090	
19.875	-0.061	-0.140	
19.880	-0.108	-0.159	
19.885	-0.204	-0.161	
19.890	-0.087	-0.160	
19.895	-0.032	-0.149	
19.900	-0.172	-0.131	
19.905	-0.122	-0.121	
19.910	0.023	-0.112	
19.915	-0.101	-0.095	
19.920	-0.117	-0.083	
19.925	0.050	-0.075	
19.930	0.003	-0.058	
19.935	-0.120	-0.041	
19.940	0.105	-0.032	
19.945	0.197	-0.008	
19.950	0.052	0.030	
19.955	0.192	0.066	
19.960	0.389	0.110	
19.965	0.227	0.166	
19.970	0.212	0.212	
19.975	0.425	0.245	
19.980	0.300	0.279	
19.985	0.101	0.296	
19.990	0.259	0.285	
19.995	0.244	0.267	
20.000	-0.038	0.241	
20.005	-0.012	0.191	
20.010	0.050	0.131	
20.015	-0.143	0.074	
20.020	-0.217	0.012	
20.025	-0.099	-0.052	
20.030	-0.160	-0.100	
20.035	-0.255	-0.137	
20.040	-0.166	-0.168	
20.045	-0.127	-0.185	
20.050	-0.235	-0.190	
20.055	-0.186	-0.193	
20.060	-0.056	-0.190	
20.065	-0.180	-0.175	
20.070	-0.223	-0.165	
20.075	-0.067	-0.162	
20.080	-0.099	-0.151	
20.085	-0.194	-0.139	
20.090	-0.081	-0.134	
20.095	-0.049	-0.125	
20.100	-0.191	-0.115	
20.105	-0.127	-0.114	
20.110	0.023	-0.112	
20.115	-0.107	-0.099	
20.120	-0.139	-0.090	
20.125	0.049	-0.084	
20.130	-0.108	-0.073	
20.135	-0.258	-0.073	
20.140	-0.157	-0.096	
20.145	-0.149	-0.123	
20.150	-0.277	-0.147	
20.155	-0.244	-0.176	
20.160	-0.148	-0.199	
20.165	-0.230	-0.210	
20.170	-0.233	-0.215	
20.175	-0.102	-0.215	
20.180	-0.188	-0.204	
20.185	-0.334	-0.198	
20.190	-0.227	-0.209	
20.195	-0.047	-0.214	
20.200	0.085	-0.188	
20.205	0.433	-0.115	
20.210	0.643	0.016	
20.215	0.219	0.167	
20.220	-0.076	0.256	
20.225	-0.053	0.254	
20.230	-0.136	0.191	
20.235	-0.244	0.099	
20.240	-0.151	-0.001	
20.245	-0.128	-0.081	
20.250	-0.238	-0.135	
20.255	-0.162	-0.172	
20.260	-0.014	-0.185	
20.265	-0.153	-0.173	
20.270	-0.165	-0.158	
20.275	0.017	-0.142	
20.280	-0.064	-0.118	
20.285	-0.162	-0.096	
20.290	-0.003	-0.086	
20.295	0.078	-0.069	
20.300	-0.087	-0.045	
20.305	-0.021	-0.031	
20.310	0.207	-0.014	
20.315	0.064	0.018	
20.320	0.024	0.047	
20.325	0.340	0.073	
20.330	0.319	0.120	
20.335	0.210	0.175	
20.340	0.422	0.224	
20.345	0.483	0.278	
20.350	0.271	0.329	
20.355	0.366	0.358	
20.360	0.514	0.376	
20.365	0.300	0.394	
20.370	0.163	0.389	
20.375	0.322	0.358	
20.380	0.131	0.320	
20.385	-0.104	0.265	
20.390	-0.031	0.184	
20.395	-0.027	0.101	
20.400	-0.194	0.029	
20.405	-0.165	-0.039	
20.410	-0.060	-0.092	
20.415	-0.166	-0.122	
20.420	-0.217	-0.142	
20.425	-0.069	-0.157	
20.430	-0.111	-0.156	
20.435	-0.207	-0.150	
20.440	-0.089	-0.148	
20.445	-0.018	-0.138	
20.450	-0.182	-0.122	
20.455	-0.128	-0.115	
20.460	0.030	-0.109	
20.465	-0.105	-0.094	
20.470	-0.125	-0.083	
20.475	0.084	-0.075	
20.480	0.000	-0.055	
20.485	-0.127	-0.037	
20.490	0.011	-0.033	
20.495	0.072	-0.026	
20.500	-0.125	-0.017	
20.505	-0.113	-0.022	
20.510	-0.012	-0.038	
20.515	-0.169	-0.053	
20.520	-0.220	-0.076	
20.525	-0.098	-0.107	
20.530	-0.157	-0.128	
20.535	-0.259	-0.146	
20.540	-0.157	-0.166	
20.545	-0.104	-0.177	
20.550	-0.224	-0.177	
20.555	-0.191	-0.178	
20.560	-0.149	-0.181	
20.565	-0.252	-0.183	
20.570	-0.171	-0.188	
20.575	0.357	-0.167	
20.580	0.598	-0.073	
20.585	0.437	0.078	
20.590	0.364	0.223	
20.595	0.058	0.310	
20.600	-0.220	0.307	
20.605	-0.221	0.221	
20.610	-0.131	0.102	
20.615	-0.220	-0.008	
20.620	-0.230	-0.098	
20.625	-0.075	-0.159	
20.630	-0.105	-0.182	
20.635	-0.220	-0.183	
20.640	-0.110	-0.180	
20.645	-0.060	-0.168	
20.650	-0.182	-0.150	
20.655	-0.104	-0.138	
20.660	0.052	-0.122	
20.665	-0.107	-0.097	
20.670	-0.119	-0.079	
20.675	0.101	-0.067	
20.680	0.046	-0.043	
20.685	-0.076	-0.018	
20.690	0.108	-0.002	
20.695	0.206	0.022	
20.700	0.003	0.054	
20.705	0.091	0.074	
20.710	0.346	0.094	
20.715	0.230	0.134	
20.720	0.233	0.176	
20.725	0.480	0.219	
20.730	0.369	0.272	
20.735	0.130	0.310	
20.740	0.303	0.314	
20.745	0.317	0.307	
20.750	0.008	0.290	
20.755	0.008	0.244	
20.760	0.114	0.183	
20.765	-0.093	0.126	
20.770	-0.165	0.063	
20.775	-0.020	0.001	
20.780	-0.117	-0.045	
20.785	-0.246	-0.083	
20.790	-0.156	-0.121	
20.795	-0.119	-0.149	
20.800	-0.232	-0.164	
20.805	-0.194	-0.177	
20.810	-0.064	-0.182	
20.815	-0.159	-0.173	
20.820	-0.183	-0.163	
20.825	-0.018	-0.153	
20.830	-0.067	-0.133	
20.835	-0.175	-0.114	
20.840	-0.078	-0.106	
20.845	-0.037	-0.100	
20.850	-0.168	-0.093	
20.855	-0.111	-0.095	
20.860	0.065	-0.093	
20.865	-0.076	-0.078	
20.870	-0.128	-0.066	
20.875	0.040	-0.061	
20.880	-0.090	-0.054	
20.885	-0.232	-0.058	
20.890	-0.140	-0.081	
20.895	-0.127	-0.107	
20.900	-0.244	-0.129	
20.905	-0.207	-0.154	
20.910	-0.124	-0.174	
20.915	-0.223	-0.183	
20.920	-0.247	-0.191	
20.925	-0.095	-0.198	
20.930	-0.127	-0.190	
20.935	-0.277	-0.180	
20.940	-0.186	-0.182	
20.945	-0.027	-0.181	
20.950	0.065	-0.155	
20.955	0.422	-0.089	
20.960	0.611	0.030	
20.965	0.229	0.169	
20.970	-0.087	0.252	
20.975	-0.073	0.245	
20.980	-0.182	0.177	
20.985	-0.274	0.079	
20.990	-0.145	-0.025	
20.995	-0.066	-0.100	
21.000	-0.189	-0.140	
21.005	-0.133	-0.161	
21.010	0.032	-0.161	
21.015	-0.114	-0.139	
21.020	-0.140	-0.119	
21.025	0.044	-0.103	
21.030	0.000	-0.078	
21.035	-0.136	-0.056	
21.040	-0.012	-0.048	
21.045	0.087	-0.039	
21.050	-0.101	-0.024	
21.055	-0.011	-0.018	
21.060	0.229	-0.007	
21.065	0.090	0.024	
21.070	0.056	0.057	
21.075	0.381	0.089	
21.080	0.358	0.143	
21.085	0.161	0.201	
21.090	0.256	0.236	
21.095	0.343	0.256	
21.100	0.155	0.270	
21.105	0.251	0.268	
21.110	0.468	0.270	
21.115	0.305	0.290	
21.120	0.177	0.304	
21.125	0.358	0.302	
21.130	0.139	0.293	
21.135	-0.113	0.258	
21.140	-0.043	0.188	
21.145	0.003	0.109	
21.150	-0.162	0.041	
21.155	-0.142	-0.021	
21.160	-0.026	-0.069	
21.165	-0.143	-0.096	
21.170	-0.191	-0.115	
21.175	-0.032	-0.128	
21.180	-0.096	-0.128	
21.185	-0.195	-0.123	
21.190	-0.072	-0.124	
21.195	-0.032	-0.118	
21.200	-0.178	-0.108	
21.205	-0.137	-0.108	
21.210	0.004	-0.108	
21.215	-0.104	-0.099	
21.220	-0.162	-0.093	
21.225	-0.023	-0.094	
21.230	-0.069	-0.090	
21.235	-0.177	-0.087	
21.240	-0.053	-0.091	
21.245	-0.002	-0.090	
21.250	-0.133	-0.081	
21.255	-0.105	-0.079	
21.260	0.009	-0.079	
21.265	-0.165	-0.076	
21.270	-0.213	-0.085	
21.275	-0.067	-0.104	
21.280	-0.156	-0.118	
21.285	-0.249	-0.131	
21.290	-0.151	-0.151	
21.295	-0.075	-0.162	
21.300	-0.207	-0.161	
21.305	-0.183	-0.161	
21.310	-0.151	-0.165	
21.315	-0.256	-0.171	
21.320	-0.182	-0.181	
21.325	0.279	-0.169	
21.330	0.517	-0.090	
21.335	0.422	0.045	
21.340	0.415	0.185	
21.345	0.181	0.286	
21.350	-0.177	0.311	
21.355	-0.218	0.247	
21.360	-0.107	0.137	
21.365	-0.201	0.029	
21.370	-0.247	-0.065	
21.375	-0.102	-0.136	
21.380	-0.124	-0.172	
21.385	-0.217	-0.184	
21.390	-0.099	-0.187	
21.395	-0.034	-0.174	
21.400	-0.165	-0.151	
21.405	-0.116	-0.134	
21.410	0.041	-0.117	
21.415	-0.102	-0.094	
21.420	-0.133	-0.078	
21.425	0.076	-0.070	
21.430	0.015	-0.051	
21.435	-0.104	-0.032	
21.440	0.072	-0.023	
21.445	0.200	-0.003	
21.450	0.017	0.030	
21.455	0.140	0.058	
21.460	0.418	0.094	
21.465	0.294	0.153	
21.470	0.235	0.211	
21.475	0.489	0.258	
21.480	0.343	0.306	
21.485	0.151	0.334	
21.490	0.331	0.331	
21.495	0.355	0.322	
21.500	0.041	0.309	
21.505	0.001	0.265	
21.510	0.143	0.203	
21.515	-0.061	0.146	
21.520	-0.146	0.085	
21.525	-0.018	0.022	
21.530	-0.104	-0.026	
21.535	-0.215	-0.065	
21.540	-0.113	-0.102	
21.545	-0.082	-0.126	
21.550	-0.201	-0.136	
21.555	-0.172	-0.147	
21.560	-0.092	-0.154	
21.565	-0.209	-0.155	
21.570	-0.253	-0.162	
21.575	-0.099	-0.174	
21.580	-0.108	-0.173	
21.585	-0.194	-0.164	
21.590	-0.089	-0.156	
21.595	-0.044	-0.143	
21.600	-0.186	-0.127	
21.605	-0.149	-0.121	
21.610	-0.018	-0.120	
21.615	-0.108	-0.110	
21.620	-0.153	-0.103	
21.625	-0.026	-0.101	
21.630	-0.093	-0.095	
21.635	-0.230	-0.095	
21.640	-0.154	-0.110	
21.645	-0.114	-0.127	
21.650	-0.235	-0.141	
21.655	-0.204	-0.158	
21.660	-0.089	-0.171	
21.665	-0.172	-0.171	
21.670	-0.224	-0.170	
21.675	-0.096	-0.171	
21.680	-0.127	-0.165	
21.685	-0.247	-0.159	
21.690	-0.191	-0.164	
21.695	-0.090	-0.170	
21.700	-0.035	-0.160	
21.705	0.279	-0.120	
21.710	0.582	-0.027	
21.715	0.290	0.103	
21.720	0.003	0.202	
21.725	0.033	0.229	
21.730	-0.104	0.198	
21.735	-0.218	0.128	
21.740	-0.183	0.037	
21.745	-0.124	-0.047	
21.750	-0.221	-0.110	
21.755	-0.165	-0.154	
21.760	-0.011	-0.174	
21.765	-0.116	-0.165	
21.770	-0.159	-0.149	
21.775	0.024	-0.132	
21.780	-0.015	-0.105	
21.785	-0.136	-0.079	
21.790	-0.024	-0.066	
21.795	0.094	-0.052	
21.800	-0.049	-0.030	
21.805	-0.011	-0.014	
21.810	0.155	0.000	
21.815	0.023	0.022	
21.820	-0.026	0.037	
21.825	0.238	0.047	
21.830	0.238	0.075	
21.835	0.090	0.112	
21.840	0.317	0.143	
21.845	0.428	0.185	
21.850	0.210	0.236	
21.855	0.268	0.269	
21.860	0.451	0.290	
21.865	0.201	0.311	
21.870	0.015	0.304	
21.875	0.180	0.263	
21.880	0.099	0.216	
21.885	-0.107	0.166	
21.890	-0.029	0.104	
21.895	0.027	0.048	
21.900	-0.134	0.007	
21.905	-0.149	-0.033	
21.910	-0.061	-0.069	
21.915	-0.160	-0.094	
21.920	-0.217	-0.117	
21.925	-0.101	-0.138	
21.930	-0.116	-0.148	
21.935	-0.217	-0.151	
21.940	-0.120	-0.155	
21.945	-0.043	-0.152	
21.950	-0.156	-0.139	
21.955	-0.117	-0.129	
21.960	0.059	-0.115	
21.965	-0.075	-0.091	
21.970	-0.133	-0.072	
21.975	0.058	-0.063	
21.980	0.041	-0.045	
21.985	-0.116	-0.027	
21.990	-0.038	-0.024	
21.995	0.012	-0.026	
22.000	-0.143	-0.030	
22.005	-0.142	-0.045	
22.010	-0.038	-0.066	
22.015	-0.143	-0.081	
22.020	-0.221	-0.098	
22.025	-0.128	-0.122	
22.030	-0.159	-0.140	
22.035	-0.249	-0.155	
22.040	-0.156	-0.172	
22.045	-0.104	-0.178	
22.050	-0.224	-0.176	
22.055	-0.195	-0.177	
22.060	-0.113	-0.178	
22.065	-0.249	-0.177	
22.070	-0.256	-0.183	
22.075	0.107	-0.183	
22.080	0.392	-0.133	
22.085	0.412	-0.024	
22.090	0.479	0.112	
22.095	0.279	0.235	
22.100	-0.125	0.294	
22.105	-0.182	0.261	
22.110	-0.108	0.170	
22.115	-0.195	0.066	
22.120	-0.244	-0.031	
22.125	-0.105	-0.110	
22.130	-0.108	-0.154	
22.135	-0.220	-0.173	
22.140	-0.130	-0.181	
22.145	-0.046	-0.176	
22.150	-0.134	-0.157	
22.155	-0.105	-0.139	
22.160	0.050	-0.117	
22.165	-0.073	-0.089	
22.170	-0.117	-0.068	
22.175	0.111	-0.055	
22.180	0.094	-0.029	
22.185	-0.049	0.001	
22.190	0.114	0.021	
22.195	0.294	0.048	
22.200	0.161	0.093	
22.205	0.197	0.135	
22.210	0.380	0.174	
22.215	0.285	0.218	
22.220	0.230	0.254	
22.225	0.430	0.279	
22.230	0.366	0.307	
22.235	0.174	0.326	
22.240	0.290	0.321	
22.245	0.348	0.310	
22.250	0.065	0.296	
22.255	0.024	0.258	
22.260	0.145	0.203	
22.265	-0.056	0.151	
22.270	-0.151	0.092	
22.275	-0.021	0.028	
22.280	-0.069	-0.020	
22.285	-0.195	-0.057	
22.290	-0.131	-0.091	
22.295	-0.087	-0.117	
22.300	-0.207	-0.131	
22.305	-0.200	-0.147	
22.310	-0.101	-0.160	
22.315	-0.189	-0.164	
22.320	-0.235	-0.169	
22.325	-0.081	-0.174	
22.330	-0.085	-0.167	
22.335	-0.197	-0.153	
22.340	-0.110	-0.145	
22.345	-0.050	-0.136	
22.350	-0.188	-0.125	
22.355	-0.145	-0.123	
22.360	-0.012	-0.121	
22.365	-0.130	-0.112	
22.370	-0.185	-0.108	
22.375	-0.067	-0.112	
22.380	-0.113	-0.113	
22.385	-0.252	-0.118	
22.390	-0.230	-0.138	
22.395	-0.207	-0.164	
22.400	-0.323	-0.192	
22.405	-0.285	-0.222	
22.410	-0.169	-0.246	
22.415	-0.241	-0.251	
22.420	-0.294	-0.252	
22.425	-0.169	-0.251	
22.430	-0.178	-0.242	
22.435	-0.291	-0.231	
22.440	-0.274	-0.230	
22.445	-0.213	-0.236	
22.450	-0.163	-0.235	
22.455	0.137	-0.210	
22.460	0.620	-0.125	
22.465	0.497	0.026	
22.470	0.137	0.177	
22.475	0.009	0.254	
22.480	-0.172	0.244	
22.485	-0.331	0.164	
22.490	-0.250	0.044	
22.495	-0.178	-0.070	
22.500	-0.255	-0.152	
22.505	-0.227	-0.207	
22.510	-0.111	-0.234	
22.515	-0.185	-0.233	
22.520	-0.226	-0.222	
22.525	-0.075	-0.209	
22.530	-0.099	-0.185	
22.535	-0.210	-0.162	
22.540	-0.098	-0.149	
22.545	0.000	-0.134	
22.550	-0.117	-0.112	
22.555	-0.056	-0.094	
22.560	0.149	-0.071	
22.565	-0.017	-0.037	
22.570	-0.053	-0.010	
22.575	0.174	0.007	
22.580	0.201	0.037	
22.585	0.055	0.074	
22.590	0.279	0.106	
22.595	0.437	0.150	
22.600	0.264	0.210	
22.605	0.308	0.259	
22.610	0.527	0.300	
22.615	0.329	0.343	
22.620	0.194	0.365	
22.625	0.344	0.357	
22.630	0.268	0.340	
22.635	-0.017	0.309	
22.640	0.011	0.248	
22.645	0.041	0.174	
22.650	-0.143	0.104	
22.655	-0.131	0.032	
22.660	-0.018	-0.028	
22.665	-0.136	-0.067	
22.670	-0.177	-0.095	
22.675	-0.046	-0.116	
22.680	-0.040	-0.119	
22.685	-0.149	-0.111	
22.690	-0.090	-0.107	
22.695	-0.053	-0.102	
22.700	-0.171	-0.098	
22.705	-0.156	-0.104	
22.710	-0.034	-0.111	
22.715	-0.116	-0.110	
22.720	-0.180	-0.109	
22.725	-0.050	-0.113	
22.730	-0.052	-0.110	
22.735	-0.198	-0.104	
22.740	-0.127	-0.108	
22.745	-0.052	-0.114	
22.750	-0.151	-0.113	
22.755	-0.142	-0.115	
22.760	-0.043	-0.116	
22.765	-0.151	-0.113	
22.770	-0.250	-0.118	
22.775	-0.131	-0.135	
22.780	0.003	-0.142	
22.785	0.119	-0.119	
22.790	0.448	-0.054	
22.795	0.462	0.056	
22.800	0.040	0.165	
22.805	-0.111	0.208	
22.810	-0.053	0.180	
22.815	-0.146	0.116	
22.820	-0.207	0.038	
22.825	-0.063	-0.037	
22.830	-0.075	-0.085	
22.835	-0.186	-0.112	
22.840	-0.099	-0.129	
22.845	-0.003	-0.132	
22.850	-0.136	-0.120	
22.855	-0.130	-0.111	
22.860	0.030	-0.103	
22.865	-0.078	-0.086	
22.870	-0.143	-0.075	
22.875	0.035	-0.071	
22.880	0.056	-0.056	
22.885	-0.072	-0.035	
22.890	0.061	-0.020	
22.895	0.210	0.004	
22.900	0.030	0.038	
22.905	0.130	0.066	
22.910	0.422	0.101	
22.915	0.277	0.157	
22.920	0.161	0.208	
22.925	0.399	0.241	
22.930	0.383	0.275	
22.935	0.197	0.303	
22.940	0.418	0.316	
22.945	0.500	0.335	
22.950	0.250	0.359	
22.955	0.215	0.361	
22.960	0.354	0.343	
22.965	0.122	0.319	
22.970	-0.029	0.274	
22.975	0.075	0.208	
22.980	-0.005	0.143	
22.985	-0.143	0.080	
22.990	-0.095	0.017	
22.995	-0.061	-0.035	
23.000	-0.191	-0.073	
23.005	-0.160	-0.106	
23.010	0.033	-0.125	
23.015	-0.096	-0.120	
23.020	-0.169	-0.110	
23.025	-0.024	-0.106	
23.030	-0.029	-0.096	
23.035	-0.156	-0.085	
23.040	-0.073	-0.082	
23.045	-0.029	-0.081	
23.050	-0.168	-0.079	
23.055	-0.154	-0.088	
23.060	-0.026	-0.099	
23.065	-0.107	-0.101	
23.070	-0.156	-0.101	
23.075	0.012	-0.101	
23.080	0.038	-0.087	
23.085	-0.120	-0.065	
23.090	-0.035	-0.054	
23.095	0.053	-0.044	
23.100	-0.120	-0.034	
23.105	-0.099	-0.036	
23.110	0.117	-0.039	
23.115	-0.024	-0.029	
23.120	-0.087	-0.019	
23.125	0.079	-0.016	
23.130	0.008	-0.008	
23.135	-0.169	-0.006	
23.140	-0.111	-0.025	
23.145	-0.053	-0.050	
23.150	-0.204	-0.072	
23.155	-0.185	-0.100	
23.160	-0.035	-0.123	
23.165	-0.120	-0.129	
23.170	-0.201	-0.130	
23.175	-0.060	-0.134	
23.180	-0.082	-0.129	
23.185	-0.207	-0.123	
23.190	-0.031	-0.122	
23.195	0.344	-0.095	
23.200	0.431	-0.014	
23.205	0.662	0.114	
23.210	0.764	0.273	
23.215	0.317	0.416	
23.220	-0.095	0.470	
23.225	-0.089	0.411	
23.230	-0.148	0.287	
23.235	-0.262	0.143	
23.240	-0.204	0.006	
23.245	-0.154	-0.101	
23.250	-0.252	-0.170	
23.255	-0.218	-0.213	
23.260	-0.081	-0.230	
23.265	-0.160	-0.221	
23.270	-0.204	-0.204	
23.275	-0.021	-0.185	
23.280	-0.020	-0.154	
23.285	-0.153	-0.120	
23.290	-0.075	-0.100	
23.295	-0.006	-0.085	
23.300	-0.154	-0.074	
23.305	-0.117	-0.074	
23.310	0.059	-0.076	
23.315	-0.027	-0.064	
23.320	-0.069	-0.049	
23.325	0.195	-0.032	
23.330	0.259	0.010	
23.335	0.111	0.066	
23.340	0.264	0.116	
23.345	0.392	0.167	
23.350	0.201	0.219	
23.355	0.187	0.249	
23.360	0.390	0.263	
23.365	0.226	0.276	
23.370	0.033	0.272	
23.375	0.177	0.241	
23.380	0.099	0.204	
23.385	-0.110	0.161	
23.390	-0.069	0.101	
23.395	-0.063	0.038	
23.400	-0.235	-0.019	
23.405	-0.244	-0.080	
23.410	-0.137	-0.134	
23.415	-0.229	-0.171	
23.420	-0.282	-0.198	
23.425	-0.159	-0.219	
23.430	-0.149	-0.223	
23.435	-0.249	-0.216	
23.440	-0.151	-0.210	
23.445	-0.058	-0.196	
23.450	-0.191	-0.174	
23.455	-0.165	-0.159	
23.460	-0.006	-0.147	
23.465	-0.102	-0.126	
23.470	-0.182	-0.111	
23.475	-0.055	-0.107	
23.480	-0.046	-0.101	
23.485	-0.166	-0.094	
23.490	-0.076	-0.094	
23.495	0.070	-0.088	
23.500	-0.113	-0.071	
23.505	-0.116	-0.062	
23.510	0.009	-0.062	
23.515	-0.160	-0.062	
23.520	-0.264	-0.077	
23.525	-0.168	-0.110	
23.530	-0.183	-0.142	
23.535	-0.290	-0.169	
23.540	-0.229	-0.197	
23.545	-0.156	-0.216	
23.550	-0.252	-0.222	
23.555	-0.230	-0.225	
23.560	-0.128	-0.224	
23.565	-0.246	-0.216	
23.570	-0.337	-0.216	
23.575	-0.122	-0.224	
23.580	0.157	-0.207	
23.585	0.322	-0.136	
23.590	0.611	-0.011	
23.595	0.547	0.149	
23.600	0.017	0.279	
23.605	-0.178	0.311	
23.610	-0.149	0.246	
23.615	-0.258	0.135	
23.620	-0.329	0.010	
23.625	-0.224	-0.106	
23.630	-0.223	-0.190	
23.635	-0.300	-0.241	
23.640	-0.210	-0.269	
23.645	-0.104	-0.271	
23.650	-0.191	-0.250	
23.655	-0.180	-0.225	
23.660	-0.021	-0.197	
23.665	-0.087	-0.161	
23.670	-0.137	-0.129	
23.675	0.046	-0.104	
23.680	0.041	-0.073	
23.685	-0.105	-0.043	
23.690	0.012	-0.028	
23.695	0.174	-0.011	
23.700	0.046	0.018	
23.705	0.120	0.047	
23.710	0.369	0.083	
23.715	0.293	0.138	
23.720	0.218	0.194	
23.725	0.463	0.241	
23.730	0.442	0.292	
23.735	0.259	0.338	
23.740	0.369	0.359	
23.745	0.466	0.371	
23.750	0.244	0.380	
23.755	0.140	0.364	
23.760	0.219	0.324	
23.765	0.003	0.271	
23.770	-0.143	0.199	
23.775	-0.032	0.112	
23.780	-0.079	0.035	
23.785	-0.217	-0.028	
23.790	-0.153	-0.084	
23.795	-0.076	-0.124	
23.800	-0.215	-0.145	
23.805	-0.229	-0.162	
23.810	-0.095	-0.176	
23.815	-0.159	-0.177	
23.820	-0.233	-0.175	
23.825	-0.090	-0.174	
23.830	-0.111	-0.166	
23.835	-0.223	-0.156	
23.840	-0.108	-0.153	
23.845	-0.005	-0.144	
23.850	-0.146	-0.125	
23.855	-0.137	-0.113	
23.860	-0.012	-0.106	
23.865	-0.122	-0.096	
23.870	-0.165	-0.093	
23.875	-0.029	-0.096	
23.880	-0.060	-0.093	
23.885	-0.197	-0.091	
23.890	-0.149	-0.100	
23.895	-0.073	-0.113	
23.900	-0.194	-0.121	
23.905	-0.201	-0.133	
23.910	-0.119	-0.147	
23.915	-0.185	-0.156	
23.920	-0.249	-0.165	
23.925	-0.119	-0.177	
23.930	-0.125	-0.178	
23.935	-0.227	-0.173	
23.940	-0.177	-0.174	
23.945	-0.140	-0.175	
23.950	-0.227	-0.175	
23.955	-0.070	-0.174	
23.960	0.445	-0.137	
23.965	0.530	-0.032	
23.970	0.294	0.109	
23.975	0.223	0.220	
23.980	0.008	0.269	
23.985	-0.191	0.245	
23.990	-0.168	0.163	
23.995	-0.110	0.064	
24.000	-0.209	-0.025	
24.005	-0.213	-0.098	
24.010	-0.084	-0.149	
24.015	-0.153	-0.171	
24.020	-0.217	-0.178	
24.025	-0.070	-0.179	
24.030	-0.056	-0.166	
24.035	-0.159	-0.144	
24.040	-0.060	-0.127	
24.045	0.096	-0.104	
24.050	-0.034	-0.068	
24.055	-0.029	-0.038	
24.060	0.197	-0.012	
24.065	0.094	0.025	
24.070	0.017	0.057	
24.075	0.197	0.077	
24.080	0.212	0.101	
24.085	0.078	0.127	
24.090	0.280	0.146	
24.095	0.466	0.179	
24.100	0.311	0.233	
24.105	0.326	0.282	
24.110	0.543	0.323	
24.115	0.427	0.369	
24.120	0.285	0.401	
24.125	0.427	0.408	
24.130	0.335	0.404	
24.135	0.040	0.380	
24.140	0.090	0.322	
24.145	0.165	0.251	
24.150	-0.027	0.188	
24.155	-0.060	0.125	
24.160	0.084	0.068	
24.165	-0.044	0.030	
24.170	-0.125	0.000	
24.175	0.014	-0.028	
24.180	0.011	-0.040	
24.185	-0.124	-0.043	
24.190	-0.049	-0.050	
24.195	0.056	-0.051	
24.200	-0.098	-0.044	
24.205	-0.064	-0.042	
24.210	0.140	-0.037	
24.215	0.038	-0.016	
24.220	-0.061	0.004	
24.225	0.107	0.015	
24.230	0.120	0.030	
24.235	-0.061	0.045	
24.240	0.059	0.047	
24.245	0.210	0.051	
24.250	-0.032	0.065	
24.255	-0.046	0.064	
24.260	0.163	0.054	
24.265	-0.011	0.051	
24.270	-0.137	0.041	
24.275	-0.020	0.014	
24.280	-0.064	-0.013	
24.285	-0.194	-0.040	
24.290	-0.116	-0.071	
24.295	-0.011	-0.094	
24.300	-0.143	-0.101	
24.305	-0.142	-0.106	
24.310	0.003	-0.108	
24.315	-0.114	-0.101	
24.320	-0.226	-0.100	
24.325	-0.117	-0.112	
24.330	0.030	-0.117	
24.335	0.137	-0.095	
24.340	0.534	-0.027	
24.345	0.730	0.100	
24.350	0.363	0.253	
24.355	0.099	0.353	
24.360	0.122	0.369	
24.365	-0.085	0.320	
24.370	-0.177	0.227	
24.375	-0.037	0.117	
24.380	-0.063	0.027	
24.385	-0.204	-0.039	
24.390	-0.142	-0.093	
24.395	-0.041	-0.126	
24.400	-0.156	-0.137	
24.405	-0.154	-0.140	
24.410	-0.012	-0.138	
24.415	-0.082	-0.124	
24.420	-0.131	-0.108	
24.425	0.052	-0.094	
24.430	0.078	-0.067	
24.435	-0.084	-0.036	
24.440	0.011	-0.018	
24.445	0.133	-0.002	
24.450	-0.034	0.017	
24.455	0.037	0.028	
24.460	0.312	0.044	
24.465	0.227	0.085	
24.470	0.152	0.132	
24.475	0.401	0.174	
24.480	0.437	0.226	
24.485	0.245	0.281	
24.490	0.383	0.316	
24.495	0.503	0.345	
24.500	0.265	0.372	
24.505	0.166	0.372	
24.510	0.274	0.343	
24.515	0.062	0.302	
24.520	-0.110	0.239	
24.525	-0.050	0.155	
24.530	-0.096	0.070	
24.535	-0.223	-0.006	
24.540	-0.166	-0.075	
24.545	-0.107	-0.125	
24.550	-0.213	-0.154	
24.555	-0.220	-0.175	
24.560	-0.098	-0.187	
24.565	-0.172	-0.186	
24.570	-0.259	-0.183	
24.575	-0.148	-0.187	
24.580	-0.128	-0.186	
24.585	-0.227	-0.180	
24.590	-0.159	-0.178	
24.595	-0.063	-0.172	
24.600	-0.174	-0.159	
24.605	-0.160	-0.149	
24.610	0.018	-0.139	
24.615	-0.073	-0.117	
24.620	-0.172	-0.099	
24.625	-0.076	-0.094	
24.630	-0.079	-0.093	
24.635	-0.194	-0.095	
24.640	-0.154	-0.108	
24.645	-0.078	-0.120	
24.650	-0.220	-0.129	
24.655	-0.250	-0.145	
24.660	-0.154	-0.166	
24.665	-0.218	-0.182	
24.670	-0.300	-0.197	
24.675	-0.210	-0.216	
24.680	-0.200	-0.228	
24.685	-0.305	-0.234	
24.690	-0.235	-0.242	
24.695	-0.168	-0.244	
24.700	-0.326	-0.242	
24.705	-0.381	-0.252	
24.710	-0.215	-0.270	
24.715	-0.099	-0.271	
24.720	0.125	-0.235	
24.725	0.601	-0.139	
24.730	0.460	0.016	
24.735	-0.093	0.155	
24.740	-0.195	0.199	
24.745	-0.204	0.152	
24.750	-0.325	0.058	
24.755	-0.331	-0.054	
24.760	-0.221	-0.154	
24.765	-0.273	-0.224	
24.770	-0.314	-0.266	
24.775	-0.180	-0.288	
24.780	-0.166	-0.284	
24.785	-0.291	-0.267	
24.790	-0.215	-0.254	
24.795	-0.113	-0.239	
24.800	-0.212	-0.218	
24.805	-0.207	-0.201	
24.810	-0.046	-0.187	
24.815	-0.119	-0.165	
24.820	-0.175	-0.145	
24.825	-0.024	-0.131	
24.830	0.011	-0.110	
24.835	-0.117	-0.085	
24.840	-0.026	-0.068	
24.845	0.149	-0.049	
24.850	0.021	-0.016	
24.855	0.097	0.016	
24.860	0.387	0.057	
24.865	0.322	0.121	
24.870	0.194	0.187	
24.875	0.386	0.235	
24.880	0.346	0.276	
24.885	0.076	0.299	
24.890	0.093	0.282	
24.895	0.157	0.241	
24.900	-0.085	0.191	
24.905	-0.131	0.125	
24.910	-0.005	0.053	
24.915	-0.122	-0.005	
24.920	-0.221	-0.053	
24.925	-0.125	-0.099	
24.930	-0.146	-0.132	
24.935	-0.255	-0.155	
24.940	-0.194	-0.177	
24.945	-0.136	-0.191	
24.950	-0.262	-0.196	
24.955	-0.274	-0.205	
24.960	-0.156	-0.217	
24.965	-0.183	-0.218	
24.970	-0.242	-0.213	
24.975	-0.120	-0.208	
24.980	-0.096	-0.194	
24.985	-0.204	-0.175	
24.990	-0.159	-0.164	
24.995	-0.079	-0.156	
25.000	-0.178	-0.146	
25.005	-0.194	-0.143	
25.010	-0.047	-0.144	
25.015	-0.107	-0.136	
25.020	-0.200	-0.128	
25.025	-0.098	-0.128	
25.030	-0.124	-0.129	
25.035	-0.259	-0.133	
25.040	-0.213	-0.150	
25.045	-0.171	-0.170	
25.050	-0.273	-0.187	
25.055	-0.288	-0.207	
25.060	-0.172	-0.226	
25.065	-0.217	-0.233	
25.070	-0.274	-0.234	
25.075	-0.159	-0.234	
25.080	-0.153	-0.225	
25.085	-0.302	-0.214	
25.090	-0.255	-0.216	
25.095	-0.069	-0.218	
25.100	0.108	-0.192	
25.105	0.428	-0.117	
25.110	0.744	0.020	
25.115	0.412	0.192	
25.120	-0.064	0.310	
25.125	-0.101	0.319	
25.130	-0.149	0.246	
25.135	-0.262	0.134	
25.140	-0.203	0.013	
25.145	-0.093	-0.083	
25.150	-0.206	-0.143	
25.155	-0.200	-0.178	
25.160	-0.052	-0.193	
25.165	-0.098	-0.183	
25.170	-0.163	-0.164	
25.175	-0.029	-0.145	
25.180	-0.014	-0.119	
25.185	-0.119	-0.093	
25.190	0.030	-0.073	
25.195	0.190	-0.044	
25.200	0.037	-0.001	
25.205	0.053	0.035	
25.210	0.332	0.068	
25.215	0.235	0.116	
25.220	0.137	0.161	
25.225	0.346	0.193	
25.230	0.422	0.231	
25.235	0.312	0.276	
25.240	0.500	0.319	
25.245	0.694	0.374	
25.250	0.538	0.443	
25.255	0.503	0.501	
25.260	0.697	0.540	
25.265	0.569	0.573	
25.270	0.389	0.586	
25.275	0.495	0.570	
25.280	0.404	0.538	
25.285	0.114	0.489	
25.290	0.133	0.410	
25.295	0.204	0.322	
25.300	-0.034	0.243	
25.305	-0.073	0.162	
25.310	0.119	0.090	
25.315	0.055	0.048	
25.320	-0.072	0.025	
25.325	0.072	0.009	
25.330	0.052	0.005	
25.335	-0.131	0.004	
25.340	0.020	-0.006	
25.345	0.134	-0.008	
25.350	-0.073	0.003	
25.355	-0.090	0.003	
25.360	0.145	-0.003	
25.365	0.123	0.010	
25.370	-0.024	0.031	
25.375	0.160	0.047	
25.380	0.192	0.068	
25.385	0.020	0.092	
25.390	0.059	0.100	
25.395	0.148	0.099	
25.400	-0.012	0.096	
25.405	-0.002	0.082	
25.410	0.204	0.069	
25.415	0.044	0.071	
25.420	-0.102	0.067	
25.425	0.020	0.047	
25.430	0.027	0.026	
25.435	-0.117	0.009	
25.440	-0.046	-0.012	
25.445	0.073	-0.027	
25.450	-0.085	-0.029	
25.455	-0.105	-0.033	
25.460	0.053	-0.041	
25.465	-0.066	-0.040	
25.470	-0.197	-0.045	
25.475	-0.076	-0.064	
25.480	0.134	-0.071	
25.485	0.245	-0.041	
25.490	0.564	0.036	
25.495	0.622	0.159	
25.500	0.209	0.283	
25.505	-0.038	0.338	
25.510	0.032	0.311	
25.515	-0.076	0.237	
25.520	-0.185	0.143	
25.525	-0.101	0.046	
25.530	-0.029	-0.030	
25.535	-0.137	-0.075	
25.540	-0.076	-0.101	
25.545	0.047	-0.107	
25.550	-0.093	-0.093	
25.555	-0.052	-0.078	
25.560	0.190	-0.056	
25.565	0.046	-0.018	
25.570	-0.064	0.014	
25.575	0.116	0.029	
25.580	0.134	0.045	
25.585	-0.023	0.061	
25.590	0.123	0.067	
25.595	0.273	0.081	
25.600	0.122	0.109	
25.605	0.133	0.133	
25.610	0.392	0.156	
25.615	0.344	0.197	
25.620	0.233	0.241	
25.625	0.456	0.277	
25.630	0.520	0.320	
25.635	0.300	0.365	
25.640	0.366	0.388	
25.645	0.433	0.396	
25.650	0.117	0.389	
25.655	0.047	0.346	
25.660	0.213	0.281	
25.665	0.020	0.220	
25.670	-0.131	0.155	
25.675	-0.037	0.082	
25.680	-0.041	0.019	
25.685	-0.188	-0.029	
25.690	-0.160	-0.074	
25.695	-0.090	-0.110	
25.700	-0.235	-0.134	
25.705	-0.230	-0.158	
25.710	-0.089	-0.176	
25.715	-0.153	-0.179	
25.720	-0.232	-0.176	
25.725	-0.124	-0.176	
25.730	-0.096	-0.170	
25.735	-0.201	-0.160	
25.740	-0.134	-0.154	
25.745	-0.031	-0.146	
25.750	-0.143	-0.131	
25.755	-0.162	-0.121	
25.760	-0.035	-0.117	
25.765	-0.064	-0.107	
25.770	-0.166	-0.098	
25.775	-0.066	-0.096	
25.780	-0.009	-0.092	
25.785	-0.137	-0.083	
25.790	-0.087	-0.081	
25.795	-0.018	-0.080	
25.800	-0.169	-0.078	
25.805	-0.232	-0.090	
25.810	-0.157	-0.116	
25.815	-0.223	-0.142	
25.820	-0.282	-0.170	
25.825	-0.182	-0.197	
25.830	-0.178	-0.212	
25.835	-0.277	-0.218	
25.840	-0.203	-0.224	
25.845	-0.128	-0.223	
25.850	-0.258	-0.214	
25.855	-0.317	-0.215	
25.860	-0.221	-0.227	
25.865	-0.146	-0.233	
25.870	0.008	-0.216	
25.875	0.486	-0.152	
25.880	0.454	-0.026	
25.885	0.027	0.107	
25.890	-0.119	0.170	
25.895	-0.142	0.153	
25.900	-0.271	0.086	
25.905	-0.288	-0.008	
25.910	-0.177	-0.100	
25.915	-0.209	-0.166	
25.920	-0.267	-0.208	
25.925	-0.148	-0.231	
25.930	-0.137	-0.232	
25.935	-0.258	-0.221	
25.940	-0.201	-0.214	
25.945	-0.087	-0.206	
25.950	-0.154	-0.188	
25.955	-0.139	-0.169	
25.960	0.009	-0.148	
25.965	-0.072	-0.120	
25.970	-0.130	-0.095	
25.975	0.030	-0.080	
25.980	0.073	-0.057	
25.985	-0.063	-0.030	
25.990	0.072	-0.011	
25.995	0.280	0.018	
26.000	0.166	0.065	
26.005	0.177	0.113	
26.010	0.410	0.158	
26.015	0.328	0.213	
26.020	0.236	0.260	
26.025	0.439	0.293	
26.030	0.441	0.326	
26.035	0.178	0.352	
26.040	0.192	0.345	
26.045	0.259	0.316	
26.050	0.001	0.276	
26.055	-0.099	0.213	
26.060	0.004	0.134	
26.065	-0.111	0.061	
26.070	-0.204	-0.006	
26.075	-0.143	-0.068	
26.080	-0.128	-0.115	
26.085	-0.242	-0.146	
26.090	-0.220	-0.173	
26.095	-0.153	-0.193	
26.100	-0.229	-0.202	
26.105	-0.238	-0.208	
26.110	-0.149	-0.212	
26.115	-0.188	-0.208	
26.120	-0.238	-0.203	
26.125	-0.136	-0.200	
26.130	-0.127	-0.191	
26.135	-0.217	-0.179	
26.140	-0.151	-0.173	
26.145	-0.053	-0.165	
26.150	-0.151	-0.149	
26.155	-0.163	-0.138	
26.160	-0.055	-0.131	
26.165	-0.108	-0.121	
26.170	-0.174	-0.115	
26.175	-0.069	-0.115	
26.180	-0.058	-0.110	
26.185	-0.195	-0.105	
26.190	-0.197	-0.113	
26.195	-0.139	-0.130	
26.200	-0.255	-0.148	
26.205	-0.281	-0.172	
26.210	-0.169	-0.198	
26.215	-0.233	-0.213	
26.220	-0.276	-0.224	
26.225	-0.178	-0.232	
26.230	-0.168	-0.230	
26.235	-0.273	-0.223	
26.240	-0.241	-0.222	
26.245	-0.200	-0.225	
26.250	-0.267	-0.227	
26.255	-0.124	-0.225	
26.260	0.418	-0.187	
26.265	0.655	-0.071	
26.270	0.491	0.102	
26.275	0.355	0.260	
26.280	0.073	0.348	
26.285	-0.203	0.341	
26.290	-0.226	0.249	
26.295	-0.159	0.120	
26.300	-0.247	-0.002	
26.305	-0.256	-0.103	
26.310	-0.143	-0.176	
26.315	-0.171	-0.212	
26.320	-0.232	-0.224	
26.325	-0.116	-0.223	
26.330	-0.070	-0.206	
26.335	-0.166	-0.179	
26.340	-0.108	-0.156	
26.345	0.006	-0.134	
26.350	-0.084	-0.106	
26.355	-0.079	-0.084	
26.360	0.107	-0.064	
26.365	0.052	-0.034	
26.370	-0.044	-0.005	
26.375	0.175	0.016	
26.380	0.274	0.051	
26.385	0.158	0.099	
26.390	0.265	0.144	
26.395	0.444	0.192	
26.400	0.358	0.250	
26.405	0.378	0.303	
26.410	0.591	0.352	
26.415	0.521	0.407	
26.420	0.341	0.450	
26.425	0.448	0.465	
26.430	0.444	0.464	
26.435	0.203	0.448	
26.440	0.232	0.408	
26.445	0.314	0.358	
26.450	0.044	0.309	
26.455	-0.060	0.244	
26.460	0.088	0.167	
26.465	-0.040	0.102	
26.470	-0.139	0.046	
26.475	-0.037	-0.007	
26.480	0.001	-0.041	
26.485	-0.136	-0.058	
26.490	-0.104	-0.073	
26.495	0.006	-0.083	
26.500	-0.110	-0.081	
26.505	-0.137	-0.082	
26.510	0.035	-0.083	
26.515	-0.026	-0.073	
26.520	-0.116	-0.060	
26.525	-0.009	-0.055	
26.530	0.072	-0.046	
26.535	-0.052	-0.029	
26.540	0.040	-0.015	
26.545	0.161	0.004	
26.550	-0.002	0.029	
26.555	-0.020	0.042	
26.560	0.177	0.047	
26.565	0.110	0.061	
26.570	-0.031	0.074	
26.575	0.116	0.074	
26.580	0.065	0.073	
26.585	-0.136	0.064	
26.590	-0.114	0.033	
26.595	-0.043	-0.007	
26.600	-0.169	-0.043	
26.605	-0.197	-0.079	
26.610	-0.078	-0.112	
26.615	-0.110	-0.129	
26.620	-0.178	-0.135	
26.625	-0.056	-0.137	
26.630	-0.032	-0.128	
26.635	-0.185	-0.114	
26.640	-0.160	-0.112	
26.645	0.024	-0.112	
26.650	0.146	-0.090	
26.655	0.437	-0.028	
26.660	0.779	0.091	
26.665	0.514	0.248	
26.670	0.070	0.366	
26.675	0.015	0.388	
26.680	-0.058	0.329	
26.685	-0.204	0.225	
26.690	-0.169	0.103	
26.695	-0.055	-0.004	
26.700	-0.130	-0.074	
26.705	-0.120	-0.115	
26.710	0.004	-0.131	
26.715	-0.044	-0.122	
26.720	-0.128	-0.105	
26.725	0.043	-0.089	
26.730	0.070	-0.063	
26.735	-0.098	-0.035	
26.740	-0.015	-0.021	
26.745	0.163	-0.009	
26.750	0.041	0.015	
26.755	-0.009	0.035	
26.760	0.195	0.048	
26.765	0.181	0.072	
26.770	0.093	0.100	
26.775	0.296	0.126	
26.780	0.294	0.161	
26.785	0.126	0.195	
26.790	0.309	0.215	
26.795	0.534	0.244	
26.800	0.381	0.295	
26.805	0.331	0.340	
26.810	0.497	0.371	
26.815	0.387	0.396	
26.820	0.192	0.403	
26.825	0.312	0.382	
26.830	0.259	0.351	
26.835	0.000	0.309	
26.840	-0.027	0.242	
26.845	0.018	0.163	
26.850	-0.130	0.088	
26.855	-0.160	0.017	
26.860	-0.075	-0.046	
26.865	-0.139	-0.089	
26.870	-0.213	-0.120	
26.875	-0.099	-0.143	
26.880	-0.099	-0.152	
26.885	-0.226	-0.153	
26.890	-0.180	-0.158	
26.895	-0.082	-0.163	
26.900	-0.180	-0.159	
26.905	-0.191	-0.157	
26.910	-0.079	-0.157	
26.915	-0.142	-0.150	
26.920	-0.207	-0.146	
26.925	-0.090	-0.146	
26.930	-0.058	-0.140	
26.935	-0.180	-0.129	
26.940	-0.127	-0.125	
26.945	-0.005	-0.120	
26.950	-0.122	-0.107	
26.955	-0.156	-0.100	
26.960	-0.040	-0.100	
26.965	-0.096	-0.096	
26.970	-0.195	-0.097	
26.975	-0.117	-0.107	
26.980	-0.134	-0.118	
26.985	-0.268	-0.132	
26.990	-0.236	-0.156	
26.995	-0.163	-0.181	
27.000	-0.255	-0.198	
27.005	-0.261	-0.212	
27.010	-0.148	-0.223	
27.015	-0.188	-0.221	
27.020	-0.264	-0.216	
27.025	-0.183	-0.215	
27.030	-0.201	-0.213	
27.035	-0.284	-0.213	
27.040	-0.113	-0.214	
27.045	0.271	-0.186	
27.050	0.306	-0.104	
27.055	0.209	0.006	
27.060	0.195	0.101	
27.065	-0.078	0.153	
27.070	-0.268	0.140	
27.075	-0.233	0.069	
27.080	-0.209	-0.023	
27.085	-0.288	-0.107	
27.090	-0.224	-0.175	
27.095	-0.125	-0.216	
27.100	-0.241	-0.229	
27.105	-0.261	-0.234	
27.110	-0.124	-0.233	
27.115	-0.166	-0.221	
27.120	-0.239	-0.207	
27.125	-0.125	-0.197	
27.130	-0.069	-0.181	
27.135	-0.163	-0.160	
27.140	-0.111	-0.143	
27.145	-0.006	-0.127	
27.150	-0.099	-0.105	
27.155	-0.110	-0.090	
27.160	0.072	-0.077	
27.165	0.032	-0.054	
27.170	-0.060	-0.029	
27.175	0.154	-0.008	
27.180	0.291	0.028	
27.185	0.148	0.082	
27.190	0.247	0.132	
27.195	0.404	0.180	
27.200	0.236	0.230	
27.205	0.148	0.260	
27.210	0.296	0.264	
27.215	0.163	0.259	
27.220	-0.043	0.236	
27.225	0.040	0.186	
27.230	0.003	0.129	
27.235	-0.194	0.071	
27.240	-0.207	0.001	
27.245	-0.142	-0.068	
27.250	-0.226	-0.122	
27.255	-0.255	-0.165	
27.260	-0.166	-0.198	
27.265	-0.224	-0.215	
27.270	-0.300	-0.226	
27.275	-0.210	-0.237	
27.280	-0.192	-0.241	
27.285	-0.270	-0.238	
27.290	-0.224	-0.237	
27.295	-0.137	-0.232	
27.300	-0.220	-0.220	
27.305	-0.238	-0.211	
27.310	-0.124	-0.206	
27.315	-0.169	-0.195	
27.320	-0.253	-0.187	
27.325	-0.148	-0.186	
27.330	-0.095	-0.181	
27.335	-0.185	-0.170	
27.340	-0.168	-0.162	
27.345	-0.073	-0.155	
27.350	-0.154	-0.145	
27.355	-0.192	-0.140	
27.360	-0.076	-0.140	
27.365	-0.145	-0.136	
27.370	-0.267	-0.139	
27.375	-0.207	-0.155	
27.380	-0.192	-0.175	
27.385	-0.284	-0.193	
27.390	-0.267	-0.213	
27.395	-0.207	-0.231	
27.400	-0.281	-0.242	
27.405	-0.293	-0.251	
27.410	-0.183	-0.258	
27.415	-0.220	-0.254	
27.420	-0.311	-0.249	
27.425	-0.284	-0.252	
27.430	-0.226	-0.258	
27.435	-0.146	-0.254	
27.440	0.210	-0.219	
27.445	0.607	-0.121	
27.450	0.422	0.035	
27.455	0.125	0.177	
27.460	0.018	0.247	
27.465	-0.169	0.235	
27.470	-0.306	0.157	
27.475	-0.223	0.043	
27.480	-0.180	-0.064	
27.485	-0.265	-0.144	
27.490	-0.212	-0.199	
27.495	-0.122	-0.227	
27.500	-0.183	-0.228	
27.505	-0.195	-0.218	
27.510	-0.102	-0.204	
27.515	-0.134	-0.184	
27.520	-0.188	-0.166	
27.525	-0.073	-0.154	
27.530	-0.024	-0.136	
27.535	-0.130	-0.113	
27.540	-0.053	-0.097	
27.545	0.122	-0.076	
27.550	0.011	-0.043	
27.555	0.032	-0.010	
27.560	0.296	0.025	
27.565	0.283	0.079	
27.570	0.148	0.138	
27.575	0.344	0.184	
27.580	0.454	0.232	
27.585	0.320	0.286	
27.590	0.412	0.329	
27.595	0.564	0.368	
27.600	0.375	0.408	
27.605	0.268	0.425	
27.610	0.437	0.417	
27.615	0.296	0.403	
27.620	0.050	0.371	
27.625	0.079	0.309	
27.630	0.050	0.233	
27.635	-0.151	0.154	
27.640	-0.137	0.069	
27.645	-0.047	-0.007	
27.650	-0.160	-0.062	
27.655	-0.195	-0.103	
27.660	-0.072	-0.133	
27.665	-0.108	-0.144	
27.670	-0.210	-0.146	
27.675	-0.122	-0.150	
27.680	-0.089	-0.149	
27.685	-0.207	-0.145	
27.690	-0.191	-0.148	
27.695	-0.069	-0.152	
27.700	-0.142	-0.148	
27.705	-0.156	-0.142	
27.710	-0.008	-0.134	
27.715	-0.049	-0.116	
27.720	-0.146	-0.097	
27.725	-0.032	-0.087	
27.730	0.027	-0.075	
27.735	-0.116	-0.059	
27.740	-0.056	-0.052	
27.745	0.090	-0.046	
27.750	-0.044	-0.031	
27.755	-0.095	-0.022	
27.760	0.056	-0.022	
27.765	-0.044	-0.019	
27.770	-0.180	-0.024	
27.775	-0.119	-0.046	
27.780	-0.105	-0.072	
27.785	-0.221	-0.098	
27.790	-0.197	-0.126	
27.795	-0.104	-0.150	
27.800	-0.174	-0.161	
27.805	-0.162	-0.165	
27.810	-0.058	-0.162	
27.815	-0.114	-0.149	
27.820	-0.233	-0.139	
27.825	-0.194	-0.144	
27.830	-0.092	-0.153	
27.835	0.017	-0.146	
27.840	0.501	-0.095	
27.845	0.866	0.035	
27.850	0.543	0.220	
27.855	0.139	0.367	
27.860	0.044	0.411	
27.865	-0.090	0.364	
27.870	-0.197	0.258	
27.875	-0.114	0.130	
27.880	-0.070	0.021	
27.885	-0.160	-0.056	
27.890	-0.087	-0.105	
27.895	0.068	-0.123	
27.900	-0.084	-0.110	
27.905	-0.104	-0.093	
27.910	0.114	-0.075	
27.915	0.076	-0.044	
27.920	-0.032	-0.009	
27.925	0.117	0.015	
27.930	0.186	0.043	
27.935	0.020	0.072	
27.940	0.099	0.088	
27.945	0.311	0.104	
27.950	0.203	0.135	
27.955	0.209	0.168	
27.960	0.427	0.202	
27.965	0.401	0.249	
27.970	0.283	0.295	
27.975	0.495	0.332	
27.980	0.605	0.375	
27.985	0.460	0.427	
27.990	0.572	0.470	
27.995	0.687	0.511	
28.000	0.469	0.548	
28.005	0.361	0.557	
28.010	0.508	0.537	
28.015	0.360	0.508	
28.020	0.099	0.461	
28.025	0.186	0.387	
28.030	0.194	0.310	
28.035	-0.038	0.240	
28.040	-0.009	0.166	
28.045	0.108	0.101	
28.050	-0.073	0.057	
28.055	-0.131	0.017	
28.060	0.026	-0.020	
28.065	-0.058	-0.041	
28.070	-0.174	-0.056	
28.075	-0.079	-0.075	
28.080	-0.061	-0.089	
28.085	-0.182	-0.097	
28.090	-0.128	-0.109	
28.095	-0.002	-0.114	
28.100	-0.093	-0.107	
28.105	-0.122	-0.097	
28.110	0.046	-0.088	
28.115	-0.015	-0.070	
28.120	-0.137	-0.053	
28.125	-0.037	-0.050	
28.130	0.017	-0.049	
28.135	-0.124	-0.045	
28.140	-0.081	-0.049	
28.145	0.070	-0.052	
28.150	-0.061	-0.044	
28.155	-0.107	-0.039	
28.160	0.043	-0.040	
28.165	-0.032	-0.036	
28.170	-0.160	-0.035	
28.175	-0.117	-0.050	
28.180	-0.113	-0.072	
28.185	-0.230	-0.096	
28.190	-0.203	-0.125	
28.195	-0.096	-0.151	
28.200	-0.188	-0.162	
28.205	-0.203	-0.169	
28.210	-0.089	-0.173	
28.215	-0.134	-0.166	
28.220	-0.261	-0.161	
28.225	-0.198	-0.168	
28.230	-0.049	-0.173	
28.235	0.061	-0.154	
28.240	0.405	-0.095	
28.245	0.640	0.022	
28.250	0.293	0.166	
28.255	-0.046	0.261	
28.260	-0.056	0.266	
28.265	-0.159	0.205	
28.270	-0.265	0.108	
28.275	-0.177	-0.000	
28.280	-0.133	-0.088	
28.285	-0.226	-0.146	
28.290	-0.188	-0.183	
28.295	-0.078	-0.199	
28.300	-0.162	-0.193	
28.305	-0.185	-0.182	
28.310	-0.035	-0.169	
28.315	-0.049	-0.145	
28.320	-0.163	-0.120	
28.325	-0.069	-0.107	
28.330	0.004	-0.094	
28.335	-0.127	-0.079	
28.340	-0.075	-0.072	
28.345	0.070	-0.065	
28.350	-0.026	-0.047	
28.355	-0.035	-0.031	
28.360	0.233	-0.011	
28.365	0.230	0.032	
28.370	0.072	0.082	
28.375	0.259	0.121	
28.380	0.390	0.163	
28.385	0.200	0.210	
28.390	0.242	0.243	
28.395	0.401	0.264	
28.400	0.200	0.283	
28.405	0.049	0.279	
28.410	0.187	0.248	
28.415	0.072	0.210	
28.420	-0.098	0.163	
28.425	-0.047	0.102	
28.430	-0.069	0.041	
28.435	-0.212	-0.015	
28.440	-0.197	-0.071	
28.445	-0.133	-0.120	
28.450	-0.223	-0.153	
28.455	-0.252	-0.180	
28.460	-0.142	-0.200	
28.465	-0.192	-0.206	
28.470	-0.271	-0.208	
28.475	-0.182	-0.213	
28.480	-0.149	-0.212	
28.485	-0.247	-0.206	
28.490	-0.217	-0.205	
28.495	-0.124	-0.204	
28.500	-0.195	-0.196	
28.505	-0.224	-0.190	
28.510	-0.102	-0.186	
28.515	-0.120	-0.175	
28.520	-0.212	-0.163	
28.525	-0.127	-0.158	
28.530	-0.076	-0.152	
28.535	-0.171	-0.141	
28.540	-0.124	-0.135	
28.545	-0.015	-0.127	
28.550	-0.157	-0.114	
28.555	-0.207	-0.111	
28.560	-0.104	-0.121	
28.565	-0.171	-0.130	
28.570	-0.288	-0.144	
28.575	-0.230	-0.170	
28.580	-0.195	-0.195	
28.585	-0.284	-0.213	
28.590	-0.261	-0.229	
28.595	-0.177	-0.241	
28.600	-0.270	-0.243	
28.605	-0.300	-0.246	
28.610	-0.192	-0.251	
28.615	-0.229	-0.249	
28.620	-0.342	-0.248	
28.625	-0.265	-0.256	
28.630	-0.117	-0.259	
28.635	-0.015	-0.236	
28.640	0.343	-0.172	
28.645	0.558	-0.052	
28.650	0.206	0.093	
28.655	-0.131	0.186	
