Time	Potential	EKG	Unnamed: 3
0.0	-0.275	-0.012166802518348533	
0.005	-0.992	-0.09809590612570322	
0.01	-0.433	-0.22765807642413158	
0.015	-0.017	-0.3399700896790244	
0.02	-0.741	-0.4047297550566201	
0.025	-0.537	-0.4410864294550918	
0.03	0.131	-0.4473797678985222	
0.035	-0.595	-0.4284303996928316	
0.04	-0.993	-0.4294522059855387	
0.045	-0.313	-0.4669449752945417	
0.05	-0.517	-0.5136865777886694	
0.055	-0.993	-0.5569832586929855	
0.06	-0.650	-0.6005315390174003	
0.065	-0.342	-0.6382674988668033	
0.07	-0.995	-0.6632971720934293	
0.075	-0.980	-0.6904379279147941	
0.08	-0.327	-0.7197151984702479	
0.085	-0.931	-0.7405261264012681	
0.09	-0.995	-0.7559548687102016	
0.095	-0.478	-0.7624872715843194	
0.1	-0.648	-0.7614700098463922	
0.105	-0.993	-0.7565456917114544	
0.11	-0.749	-0.7493953310959098	
0.115	-0.422	-0.7458254873559544	
0.12	-0.993	-0.7447204225843659	
0.125	-0.995	-0.7476146546432285	
0.13	-0.355	-0.7561933648757682	
0.135	-0.934	-0.7646861857195741	
0.14	-0.995	-0.7713819155802464	
0.145	-0.446	-0.7680607030889168	
0.15	-0.604	-0.7573054972471385	
0.155	-0.995	-0.7430767437405573	
0.16	-0.647	-0.7262315838815929	
0.165	-0.291	-0.7073870056937377	
0.17	-0.993	-0.6901482968192933	
0.175	-0.905	-0.6838011716339216	
0.18	-0.200	-0.6836626588252498	
0.185	-0.808	-0.6778097807969854	
0.19	-0.993	-0.6748288568793759	
0.195	-0.329	-0.6726977214987135	
0.2	-0.511	-0.6650955163051411	
0.205	-0.995	-0.6555409710252933	
0.21	-0.650	-0.6521733010226852	
0.215	-0.346	-0.6570047689437144	
0.22	-0.995	-0.6664275467343849	
0.225	-0.993	-0.683987537850731	
0.23	-0.341	-0.710297905406735	
0.235	-0.954	-0.736861982126547	
0.24	-0.993	-0.7581297830122935	
0.245	-0.469	-0.7654410455502891	
0.25	-0.608	-0.7629546326458723	
0.255	-0.995	-0.7538745870370497	
0.26	-0.735	-0.7410896420360026	
0.265	-0.358	-0.732716470202528	
0.27	-0.995	-0.7266922233296421	
0.275	-0.992	-0.726106054233992	
0.28	-0.284	-0.7329521284838453	
0.285	-0.874	-0.7369599013907108	
0.29	-0.995	-0.7374155194296151	
0.295	-0.384	-0.7311710608320086	
0.3	-0.530	-0.715849246750548	
0.305	-0.993	-0.6992106374952325	
0.31	-0.614	-0.6819874855024045	
0.315	-0.268	-0.6674522030075308	
0.32	-0.993	-0.6579545456169243	
0.325	-0.955	-0.6612123384351073	
0.33	-0.229	-0.6756455255498637	
0.335	-0.837	-0.6860391710230892	
0.34	-0.995	-0.6936562477948628	
0.345	-0.373	-0.6949581101961313	
0.35	-0.521	-0.6907527337563977	
0.355	-0.995	-0.6824650496502757	
0.36	-0.698	-0.6759257659781185	
0.365	-0.436	-0.6832676701502199	
0.37	-0.993	-0.7011415364303404	
0.375	-0.995	-0.7192521770350302	
0.38	-0.541	-0.7474202862948284	
0.385	-0.993	-0.7901799158686102	
0.39	-0.995	-0.8228109913001564	
0.395	-0.585	-0.8296548073416887	
0.4	-0.685	-0.8297633767213846	
0.405	-0.995	-0.8238187301098479	
0.41	-0.720	-0.7996585788198478	
0.415	-0.430	-0.777992999093198	
0.42	-0.995	-0.7646252491177092	
0.425	-0.938	-0.752270221316589	
0.43	-0.203	-0.7388408267138025	
0.435	-0.601	-0.711480565234595	
0.44	-0.775	-0.6622346612919038	
0.445	-0.025	-0.5930675945873544	
0.45	-0.257	-0.5186893612202738	
0.455	-0.986	-0.46852329906277135	
0.46	-0.483	-0.45538199284872	
0.465	-0.162	-0.4674968014284146	
0.47	-0.889	-0.4892013127005309	
0.475	-0.732	-0.5134039018686904	
0.48	-0.083	-0.531192280692482	
0.485	-0.608	-0.5387425001292264	
0.49	-0.880	-0.537729582372758	
0.495	-0.167	-0.5315444129031818	
0.5	-0.310	-0.520524602492132	
0.505	-0.915	-0.5100914391336427	
0.51	-0.346	-0.4971386015972863	
0.515	-0.034	-0.4800407152314466	
0.52	-0.743	-0.4616994878268183	
0.525	-0.578	-0.4425535169903568	
0.53	0.081	-0.4236171739532506	
0.535	-0.488	-0.40695948426690276	
0.54	-0.752	-0.39319072576051417	
0.545	0.009	-0.3810605239046627	
0.55	-0.152	-0.3663581914122831	
0.555	-0.764	-0.3526743748743397	
0.56	-0.210	-0.3389569580257581	
0.565	0.183	-0.32157209906907525	
0.57	-0.619	-0.3001579081276111	
0.575	-0.449	-0.28274440880858454	
0.58	0.348	-0.26305444715007564	
0.585	-0.368	-0.2400966901252742	
0.59	-0.650	-0.226660290051695	
0.595	0.171	-0.22167231586266634	
0.6	-0.035	-0.2151336978699655	
0.605	-0.666	-0.21116922278337077	
0.61	-0.110	-0.20889610071574946	
0.615	0.295	-0.2021384458108354	
0.62	-0.578	-0.19245289840576063	
0.625	-0.437	-0.18999766218075886	
0.63	0.258	-0.1956533598679407	
0.635	-0.417	-0.20809187866134862	
0.64	-0.718	-0.23004368787459195	
0.645	-0.043	-0.2594613283457986	
0.65	-0.223	-0.29489380972121926	
0.655	-0.836	-0.33251280187837406	
0.66	-0.219	-0.35691219598949114	
0.665	0.368	-0.34975108705924685	
0.67	-0.630	-0.3146156194297728	
0.675	-0.569	-0.28427711337066836	
0.68	0.259	-0.2733646821285459	
0.685	-0.399	-0.26798800031469605	
0.69	-0.776	-0.27135952354576665	
0.695	-0.023	-0.28739813678034615	
0.7	-0.109	-0.306643432054997	
0.705	-0.842	-0.3236815406654534	
0.71	-0.346	-0.340063243518149	
0.715	0.093	-0.3565869128667697	
0.72	-0.683	-0.3655957978528942	
0.725	-0.593	-0.3663961051807161	
0.73	0.113	-0.3662911352456484	
0.735	-0.497	-0.36892838760292557	
0.74	-0.896	-0.3794546889022851	
0.745	-0.152	-0.3993867416508526	
0.75	-0.229	-0.42357181180968323	
0.755	-0.932	-0.4417342704896797	
0.76	-0.411	-0.4550769679534328	
0.765	0.052	-0.4605243410965494	
0.77	-0.796	-0.45662509594319833	
0.775	-0.743	-0.45443748173328724	
0.78	-0.052	-0.46326337906271814	
0.785	-0.599	-0.47892788109186735	
0.79	-0.972	-0.49645489745517357	
0.795	-0.228	-0.513362863632405	
0.8	-0.327	-0.5295985948736697	
0.805	-0.993	-0.540739577467404	
0.81	-0.561	-0.548033847618236	
0.815	-0.148	-0.5605715864107064	
0.82	-0.888	-0.5706698003675568	
0.825	-0.787	-0.5733352679386494	
0.83	-0.138	-0.5752450957785629	
0.835	-0.679	-0.5810562686215363	
0.84	-0.995	-0.586401666164871	
0.845	-0.317	-0.5912402706840338	
0.85	-0.304	-0.5957347571272831	
0.855	-0.792	-0.5807872833828921	
0.86	-0.171	-0.5307964855666358	
0.865	0.305	-0.4515958192163779	
0.87	-0.656	-0.5733352679386494	
0.875	-0.668	-0.5752450957785629	
0.88	-0.188	-0.5807872833828921	
0.885	-0.720	-0.3703178222877506	
0.89	-0.975	-0.4433760959440419	
0.895	-0.335	-0.5089547168916007	
0.9	-0.469	-0.5669187088844868	
0.905	-0.995	-0.6099933877112226	
0.91	-0.555	-0.6254912799716461	
0.915	-0.300	-0.6345820820442005	
0.92	-0.937	-0.646273893617018	
0.925	-0.813	-0.6479763326305105	
0.93	-0.269	-0.6457762492507727	
0.935	-0.760	-0.6547319944155758	
0.94	-0.995	-0.6605313388552311	
0.945	-0.349	-0.6564014363492288	
0.95	-0.480	-0.657080161149767	
0.955	-0.995	-0.6555402874156195	
0.96	-0.523	-0.6400100652950302	
0.965	-0.243	-0.626275365076307	
0.97	-0.868	-0.6189952220407835	
0.975	-0.720	-0.6008781008903318	
0.98	-0.152	-0.581044118446006	
0.985	-0.657	-0.5752924187815716	
0.99	-0.897	-0.5679921465007156	
0.995	-0.223	-0.5535089084326654	
1.0	-0.344	-0.5471354390281931	
1.005	-0.877	-0.5404790618661746	
1.01	-0.347	-0.5153630935492588	
1.015	-0.034	-0.48965386278202583	
1.02	-0.686	-0.46707642507746816	
1.025	-0.530	-0.4338742716403919	
1.03	0.139	-0.3968837454276607	
1.035	-0.454	-0.37301607209618337	
1.04	-0.695	-0.3527863424033026	
1.045	0.039	-0.330255758483249	
1.05	-0.116	-0.31907652515681384	
1.055	-0.685	-0.3098449379445167	
1.06	-0.170	-0.2875828604179179	
1.065	0.250	-0.26770665388675524	
1.07	-0.590	-0.2524890808540061	
1.075	-0.446	-0.23399611391027825	
1.08	0.365	-0.21734087061275884	
1.085	-0.355	-0.210849465121342	
1.09	-0.604	-0.20486464535856114	
1.095	0.263	-0.18970715059663554	
1.1	0.021	-0.17991239283233743	
1.105	-0.602	-0.1715511759798232	
1.11	-0.035	-0.15169526037829575	
1.115	0.536	-0.12948892164122847	
1.12	-0.430	-0.10114511914377886	
1.125	-0.243	-0.06420937782307987	
1.13	0.820	-0.022497739510437445	
1.135	-0.119	0.020238894829168862	
1.14	-0.405	0.05381165712447284	
1.145	0.731	0.08902206219047729	
1.15	0.533	0.1303748322621569	
1.155	-0.364	0.17554315585216448	
1.16	0.423	0.2191712448131008	
1.165	1.026	0.2608702239981127	
1.17	-0.213	0.2991484425902663	
1.175	-0.011	0.3234516725666994	
1.18	1.220	0.33937239177274364	
1.185	0.174	0.3594395846642937	
1.19	-0.251	0.3734667280430193	
1.195	0.991	0.3816175880336532	
1.2	0.672	0.39170819254335354	
1.205	-0.326	0.3977688752863697	
1.21	0.522	0.3999210880366655	
1.215	1.104	0.4011506289018694	
1.22	-0.202	0.4026427318577799	
1.225	-0.006	0.3971255245114623	
1.23	1.207	0.3860497594056731	
1.235	0.125	0.3787359512969056	
1.24	-0.258	0.3702567296255863	
1.245	1.101	0.37306826981013214	
1.25	0.845	0.39704730986361203	
1.255	-0.266	0.43216341467948954	
1.26	0.654	0.46356377568599233	
1.265	1.303	0.4913231971987641	
1.27	-0.072	0.5183016292616354	
1.275	0.498	0.5488069154303539	
1.28	2.103	0.6236150051307858	
1.285	0.915	0.753204523009147	
1.29	0.052	0.8730617316119061	
1.295	1.567	0.9341593550761017	
1.3	1.207	0.9564306585855891	
1.305	-0.182	0.9448670704304959	
1.31	1.092	0.9059279174151663	
1.315	1.931	0.8903315121034183	
1.32	0.127	0.9074699638070922	
1.325	0.446	0.9083526920262444	
1.33	1.915	0.8984866236059482	
1.335	0.478	0.8950527414420574	
1.34	-0.208	0.8603951998159061	
1.345	1.421	0.7996636962346326	
1.35	1.023	0.7528062922774899	
1.355	-0.339	0.7123532145913876	
1.36	0.666	0.6598581356959052	
1.365	1.381	0.6117243858460816	
1.37	-0.287	0.5743660536262459	
1.375	-0.142	0.5190816603417006	
1.38	1.307	0.45262790877576575	
1.385	-0.035	0.3962603863585848	
1.39	-0.459	0.34127993275536483	
1.395	0.977	0.29851380067870065	
1.4	0.599	0.28098724634103783	
1.405	-0.566	0.2714832836321206	
1.41	0.256	0.2565878724945886	
1.415	1.054	0.2386823079047394	
1.42	-0.430	0.2287092945493958	
1.425	-0.252	0.21696467296542452	
1.43	1.118	0.20231446165286746	
1.435	-0.145	0.1905694821318641	
1.44	-0.547	0.1724321474787759	
1.445	0.748	0.15405907272386726	
1.45	0.394	0.1410662465123793	
1.455	-0.643	0.12791193202364542	
1.46	0.067	0.11124579586221262	
1.465	0.869	0.08943471200106556	
1.47	-0.543	0.07521862238182478	
1.475	-0.404	0.0629199239478067	
1.48	0.794	0.04180581150483366	
1.485	-0.323	0.012904240888904548	
1.49	-0.735	-0.022250884683031387	
1.495	0.389	-0.05446377732484069	
1.5	0.021	-0.09495469110314345	
1.505	-0.841	-0.13756910636551406	
1.51	-0.176	-0.16801837463471492	
1.515	0.467	-0.19388754153885246	
1.52	-0.711	-0.2133408120448605	
1.525	-0.564	-0.21702852481923973	
1.53	0.533	-0.21760685802685018	
1.535	-0.422	-0.22389149420359594	
1.54	-0.831	-0.22900146762583767	
1.545	0.183	-0.2327849574620921	
1.55	-0.077	-0.25299551270946546	
1.555	-0.883	-0.277285793135114	
1.56	-0.194	-0.2821284697657218	
1.565	0.505	-0.27703692028173865	
1.57	-0.694	-0.2621822261280467	
1.575	-0.538	-0.2350074643287118	
1.58	0.632	-0.20972433795605466	
1.585	-0.367	-0.19185806088925433	
1.59	-0.746	-0.17695998768819007	
1.595	0.406	-0.15980066305656282	
1.6	0.099	-0.15099301908121052	
1.605	-0.776	-0.14832132747392984	
1.61	-0.080	-0.14112337604142622	
1.615	0.699	-0.13098436179675643	
1.62	-0.596	-0.11324858488756809	
1.625	-0.440	-0.09003934214161691	
1.63	0.761	-0.07261643962579738	
1.635	-0.335	-0.06690472905127128	
1.64	-0.727	-0.07207369408076106	
1.645	0.418	-0.0796749495099914	
1.65	0.111	-0.09494418810843148	
1.655	-0.764	-0.11349437958801437	
1.66	-0.081	-0.12005378315502539	
1.665	0.651	-0.12282585152755014	
1.67	-0.630	-0.11943758405283643	
1.675	-0.448	-0.10709482539978118	
1.68	0.774	-0.09435162402112751	
1.685	-0.333	-0.08600190916175496	
1.69	-0.711	-0.0843020317539094	
1.695	0.684	-0.07240501890667554	
1.7	0.603	-0.03181360631029245	
1.705	-0.468	0.03719627124508986	
1.71	0.498	0.12301552121741754	
1.715	1.146	0.2104326662970289	
1.72	-0.501	-0.042703722707341935	
1.725	-0.410	-0.042703722707341935	
1.73	0.797	-0.042703722707341935	
1.735	-0.300	0.1520066057074895	
1.74	-0.705	0.07147737677915343	
1.745	0.475	0.007715200414768605	
1.75	0.189	-0.042703722707341935	
1.755	-0.753	-0.07699773413528208	
1.76	-0.063	-0.0929723738737272	
1.765	0.722	-0.09937751071149659	
1.77	-0.559	-0.09177854507013693	
1.775	-0.399	-0.07131351304125401	
1.78	0.883	-0.04688575172550994	
1.785	-0.265	-0.026072073120113844	
1.79	-0.663	-0.016713410496034687	
1.795	0.586	-0.010108072383421311	
1.8	0.322	-0.0036387059154575053	
1.805	-0.672	0.002753543118726051	
1.81	0.085	0.014094016720144884	
1.815	0.912	0.026825293133036093	
1.82	-0.497	0.04701923627844629	
1.825	-0.323	0.06758669463664699	
1.83	1.045	0.08336242446861739	
1.835	-0.167	0.09787871402223469	
1.84	-0.566	0.1020789712451537	
1.845	0.793	0.10906886042078384	
1.85	0.505	0.12447030204467718	
1.855	-0.593	0.14252825436619224	
1.86	0.255	0.15710727135315034	
1.865	1.077	0.17201887475946676	
1.87	-0.423	0.1929059666842118	
1.875	-0.262	0.203459947241837	
1.88	1.150	0.20450909109242815	
1.885	-0.118	0.20292451873353717	
1.89	-0.541	0.19093548003570604	
1.895	0.813	0.1790784208718964	
1.9	0.492	0.17459062533769937	
1.905	-0.616	0.1714823694805227	
1.91	0.157	0.1630036362581463	
1.915	0.929	0.149087286726222	
1.92	-0.504	0.13798826910552411	
1.925	-0.362	0.12436502114689549	
1.93	0.910	0.10346396254907907	
1.935	-0.249	0.07704553112752939	
1.94	-0.657	0.04793254579631517	
1.945	0.574	0.025963814665625425	
1.95	0.284	0.0076526240965664565	
1.955	-0.703	-0.005435272532814597	
1.96	0.003	-0.010083682059239455	
1.965	0.825	-0.01392574384005409	
1.97	-0.550	-0.008919505480868714	
1.975	-0.407	0.0013333897231521607	
1.98	0.895	0.007411178043995153	
1.985	-0.242	0.010101061241198969	
1.99	-0.651	0.006940664677285793	
1.995	0.583	0.006910290327176862	
2.0	0.301	0.005667735422454139	
2.005	-0.691	0.0035884081414649955	
2.01	0.044	0.004887315295189681	
2.015	0.893	0.010075607318680919	
2.02	-0.511	0.025105597685276582	
2.025	-0.365	0.042313286741260905	
2.03	0.971	0.05439754697819793	
2.035	-0.199	0.06212755595368043	
2.04	-0.611	0.06093424935254057	
2.045	0.676	0.06088307494910528	
2.05	0.377	0.06469558986384025	
2.055	-0.676	0.06560626254618246	
2.06	0.007	0.0608309351690243	
2.065	0.774	0.044059922194591164	
2.07	-0.575	0.027159181081753674	
2.075	-0.440	0.012300732966442619	
2.08	0.780	-0.0036449306592899826	
2.085	-0.300	-0.025834611399576296	
2.09	-0.680	-0.046038372586066925	
2.095	0.515	-0.05414532250779842	
2.1	0.197	-0.05930730400713704	
2.105	-0.747	-0.0673852020705854	
2.11	-0.089	-0.07115606483123249	
2.115	0.631	-0.08191983786417413	
2.12	-0.579	-0.09088280143581945	
2.125	-0.298	-0.07969354933320687	
2.13	1.358	-0.027510778068724283	
2.135	0.212	0.07317267150470233	
2.14	-0.402	-0.046038372586066925	
2.145	0.877	-0.05414532250779842	
2.15	0.365	-0.05653192208664821	
2.155	-0.735	-0.05653192208664821	
2.16	-0.095	-0.05653192208664821	
2.165	0.683	-0.05653192208664821	
2.17	-0.611	0.036149236796701484	
2.175	-0.468	-0.019791941757004893	
2.18	0.758	-0.05653192208664821	
2.185	-0.304	-0.08178501659135887	
2.19	-0.702	-0.09618053995736571	
2.195	0.490	-0.09509636301115781	
2.2	0.223	-0.09118817032280316	
2.205	-0.724	-0.08651620937108946	
2.21	-0.020	-0.07318480596773118	
2.215	0.802	-0.059749233552072706	
2.22	-0.547	-0.04196158287141164	
2.225	-0.388	-0.01883859533184603	
2.23	0.906	0.0006031577724855451	
2.235	-0.237	0.012145531539255787	
2.24	-0.640	0.01467151950640734	
2.245	0.626	0.01905976898744527	
2.25	0.377	0.02587507941304852	
2.255	-0.640	0.03427260047809201	
2.26	0.149	0.04988032475034124	
2.265	1.032	0.07244370757851712	
2.27	-0.440	0.10385913139302236	
2.275	-0.284	0.1320613313386662	
2.28	1.223	0.15583711163280722	
2.285	-0.014	0.18512672062999397	
2.29	-0.482	0.20646729631680047	
2.295	0.952	0.22517881974357865	
2.3	0.681	0.2520014714207629	
2.305	-0.517	0.2781085634812678	
2.31	0.348	0.29081981682805674	
2.315	1.184	0.298579219411955	
2.32	-0.381	0.30786101671483057	
2.325	-0.245	0.3009359750020818	
2.33	1.175	0.28083903468693694	
2.335	-0.107	0.25824707942718883	
2.34	-0.566	0.22644130217011316	
2.345	0.712	0.19103587259620453	
2.35	0.434	0.1610835949651169	
2.355	-0.640	0.1362588822453143	
2.36	0.082	0.11466642215085993	
2.365	0.880	0.09449711923490496	
2.37	-0.537	0.08009315576075815	
2.375	-0.404	0.06691577687742163	
2.38	0.886	0.05161546700416676	
2.385	-0.248	0.034406316548025076	
2.39	-0.674	0.014588425237091493	
2.395	0.533	-0.00020659485213035754	
2.4	0.249	-0.01492215363638054	
2.405	-0.721	-0.029504585193127108	
2.41	-0.032	-0.035469525729736426	
2.415	0.790	-0.03964261074954588	
2.42	-0.552	-0.03568854764939824	
2.425	-0.401	-0.023077344497657408	
2.43	0.880	-0.010585358442033553	
2.435	-0.231	-0.0014820989210405874	
2.44	-0.637	0.0006968532106680347	
2.445	0.629	0.0076246891817699555	
2.45	0.382	0.019090618507104008	
2.455	-0.672	0.030644385849312655	
2.46	0.024	0.038408089659775574	
2.465	0.877	0.03927361496809902	
2.47	-0.515	0.044476447116500915	
2.475	-0.382	0.04989615907938806	
2.48	0.929	0.05125601025178822	
2.485	-0.262	0.0476392357191385	
2.49	-0.718	0.02977822883779351	
2.495	0.437	0.004429552251243897	
2.5	0.186	-0.029898108242912325	
2.505	-0.761	-0.0631644823291504	
2.51	-0.115	-0.08369028888710256	
2.515	0.641	-0.10183607326300566	
2.52	-0.630	-0.11336425724049366	
2.525	-0.478	-0.11308388138628613	
2.53	0.736	-0.10687912854096301	
2.535	-0.313	-0.1042959711179491	
2.54	-0.738	-0.10514071154839696	
2.545	0.356	-0.10564746526926691	
2.55	0.075	-0.1209205164496472	
2.555	-0.731	-0.14012695481431037	
2.56	0.240	-0.12566407232347473	
2.565	1.410	-0.04975841530899376	
2.57	-0.216	-0.1042959711179491	
2.575	-0.162	-0.1042959711179491	
2.58	1.065	-0.1042959711179491	
2.585	-0.258	-0.1042959711179491	
2.59	-0.735	-0.10514071154839696	
2.595	0.374	-0.10275013424086897	
2.6	0.120	0.05519855720429406	
2.605	-0.792	-0.03606719519955262	
2.61	-0.142	-0.09782286477559245	
2.615	0.651	-0.13680712311659565	
2.62	-0.617	-0.15222759382267104	
2.625	-0.489	-0.14519105152541642	
2.63	0.728	-0.13093634801681642	
2.635	-0.318	-0.12015462494461125	
2.64	-0.717	-0.11518410649726785	
2.645	0.478	-0.10275013424086897	
2.65	0.232	-0.09278387253133275	
2.655	-0.738	-0.08510605488567963	
2.66	-0.066	-0.07486040726260298	
2.665	0.791	-0.06775533801205262	
2.67	-0.549	-0.05326548473775859	
2.675	-0.413	-0.033256577529606514	
2.68	0.901	-0.014849711645015048	
2.685	-0.231	-0.0011459468571554904	
2.69	-0.653	0.003703541364049234	
2.695	0.626	0.0093126609089991	
2.7	0.423	0.022302243553537215	
2.705	-0.633	0.038786663838157404	
2.71	0.113	0.0571222487917773	
2.715	0.984	0.07435871237227382	
2.72	-0.457	0.09768338882314245	
2.725	-0.326	0.11565238881281097	
2.73	1.069	0.12523149925766008	
2.735	-0.130	0.1338992526689392	
2.74	-0.556	0.1316165959146079	
2.745	0.768	0.13130391891304138	
2.75	0.522	0.14038537903771048	
2.755	-0.602	0.14976901652397673	
2.76	0.131	0.15303159639408154	
2.765	0.968	0.14839316346966702	
2.77	-0.486	0.1447690939826646	
2.775	-0.387	0.13357516356726548	
2.78	0.916	0.11316067176544195	
2.785	-0.236	0.08602079016434214	
2.79	-0.695	0.052637170462402176	
2.795	0.458	0.01915527411632021	
2.8	0.212	-0.016570225332313022	
2.805	-0.747	-0.0491009346331957	
2.81	-0.097	-0.06905905914353322	
2.815	0.712	-0.08365790643129328	
2.82	-0.611	-0.08910429528616431	
2.825	-0.494	-0.08543202929344415	
2.83	0.747	-0.0829292863714052	
2.835	-0.310	-0.08592271356976869	
2.84	-0.738	-0.09232292433213757	
2.845	0.446	-0.09389855692044431	
2.85	0.220	-0.09556396176914651	
2.855	-0.735	-0.09708016663930441	
2.86	-0.069	-0.08907992261251768	
2.865	0.806	-0.07864743273793232	
2.87	-0.546	-0.06010931328640286	
2.875	-0.413	-0.03645466503785542	
2.88	0.870	-0.015892274927174373	
2.885	-0.248	-0.004930619837080454	
2.89	-0.668	-0.004385243313230054	
2.895	0.586	-0.002847490609522047	
2.9	0.324	0.00048148533168208027	
2.905	-0.702	0.002825767015376612	
2.91	-0.029	0.0029152865158559305	
2.915	0.802	-0.002556955619522159	
2.92	-0.579	-0.0051715103813598845	
2.925	-0.471	-0.008517346595829187	
2.93	0.767	-0.01879421473898129	
2.935	-0.309	-0.03592676757761258	
2.94	-0.737	-0.05847733804086287	
2.945	0.423	-0.07478358813715714	
2.95	0.208	-0.08946581284537161	
2.955	-0.764	-0.10227392644691213	
2.96	-0.118	-0.10505630261996719	
2.965	0.738	-0.10544871916866749	
2.97	-0.585	-0.0972689672032234	
2.975	-0.498	-0.08356480443722253	
2.98	0.722	-0.07564648220531775	
2.985	-0.251	-0.0769780295912871	
2.99	-0.572	-0.07260236128766756	
2.995	0.991	-0.02858950674264615	
3.0	0.813	0.06463166167438324	
3.005	-0.535	-0.07260236128766756	
3.01	0.059	-0.07260236128766756	
3.015	0.771	-0.07260236128766756	
3.02	-0.617	-0.07260236128766756	
3.025	-0.504	0.11934449593613528	
3.03	0.738	0.04952572355233018	
3.035	-0.301	-0.014969351346057045	
3.04	-0.737	-0.06474628409867708	
3.045	0.408	-0.09253968140217568	
3.05	0.192	-0.11333769974126003	
3.055	-0.761	-0.12560551368480627	
3.06	-0.106	-0.12396184890733583	
3.065	0.751	-0.11615993366473239	
3.07	-0.576	-0.10155963098936749	
3.075	-0.451	-0.07867562236359057	
3.08	0.869	-0.055258625731042246	
3.085	-0.240	-0.03710384289403543	
3.09	-0.668	-0.027943468591095172	
3.095	0.592	-0.01529759543199415	
3.1	0.394	-0.0012821702989513702	
3.105	-0.662	0.014090967858290207	
3.11	0.096	0.032148189405031294	
3.115	0.968	0.05208280999517911	
3.12	-0.480	0.07517471392204031	
3.125	-0.364	0.09321745438642971	
3.13	1.046	0.10305767546562393	
3.135	-0.133	0.10981723125033456	
3.14	-0.576	0.10879536965115254	
3.145	0.800	0.1149373536459186	
3.15	0.596	0.13385047545634599	
3.155	-0.587	0.15779889294695743	
3.16	0.223	0.17717536312430232	
3.165	1.124	0.1923293010981052	
3.17	-0.405	0.21101484081906227	
3.175	-0.287	0.21907562982758186	
3.18	1.161	0.2172696521197034	
3.185	-0.090	0.21283581132509655	
3.19	-0.569	0.1965979381100066	
3.195	0.774	0.18100300387682117	
3.2	0.534	0.1729826744869397	
3.205	-0.639	0.16568360307153415	
3.21	0.042	0.15310490680909628	
3.215	0.895	0.12744754442367104	
3.22	-0.526	0.10302635695859522	
3.225	-0.431	0.08098168198225289	
3.23	0.883	0.05831519029703675	
3.235	-0.234	0.03490378617506223	
3.24	-0.697	0.009532627926757707	
3.245	0.537	-0.006010146637346611	
3.25	0.348	-0.014948155895649554	
3.255	-0.714	-0.019346891520411767	
3.26	-0.040	-0.01692205753004392	
3.265	0.886	-0.014478223997654183	
3.27	-0.523	-0.0039880966507112505	
3.275	-0.413	0.01191594151607264	
3.28	0.929	0.02537701373847753	
3.285	-0.210	0.030919912028042857	
3.29	-0.653	0.02743820255499059	
3.295	0.649	0.03003273611565241	
3.3	0.455	0.04012849676938124	
3.305	-0.651	0.052552687245509384	
3.31	0.088	0.0670527348346204	
3.315	1.007	0.08064202419320951	
3.32	-0.475	0.09795999746711734	
3.325	-0.362	0.11080604337223023	
3.33	1.057	0.11648460925618527	
3.335	-0.129	0.11997916911688199	
3.34	-0.611	0.11430293124587382	
3.345	0.678	0.1090354721672816	
3.35	0.434	0.10324722368156912	
3.355	-0.692	0.0944806795016229	
3.36	-0.028	0.08096568285933459	
3.365	0.880	0.058745237157032615	
3.37	-0.537	0.04299062087096153	
3.375	-0.456	0.033710470013164254	
3.38	0.831	0.021517801268669475	
3.385	-0.245	0.0030398932907390306	
3.39	-0.703	-0.017760813883976087	
3.395	0.512	-0.027956285650691724	
3.4	0.313	-0.03468853865291828	
3.405	-0.732	-0.03957758489352335	
3.41	-0.034	-0.037036266990353485	
3.415	1.039	-0.02315259616500725	
3.42	-0.346	0.015946905919049004	
3.425	-0.144	0.07865557886241456	
3.43	1.456	0.15963872988861338	
3.435	0.046	0.0030398932907390306	
3.44	-0.605	-0.017760813883976087	
3.445	0.539	-0.02315259616500725	
3.45	0.293	-0.02315259616500725	
3.455	-0.747	-0.02315259616500725	
3.46	-0.087	0.0719039266835083	
3.465	0.796	0.01191743659012621	
3.47	-0.567	-0.02703318345668887	
3.475	-0.457	-0.04042016196274888	
3.48	0.861	-0.04134784544898594	
3.485	-0.237	-0.039900022414418354	
3.49	-0.705	-0.04093770522883328	
3.495	0.513	-0.03591244644236413	
3.5	0.369	-0.03154320019546457	
3.505	-0.686	-0.02471510557027325	
3.51	-0.023	-0.011093251131969536	
3.515	0.878	-0.0009934073529233958	
3.52	-0.515	0.009856366577432368	
3.525	-0.407	0.02451370423994123	
3.53	0.981	0.038808292521741145	
3.535	-0.168	0.049058723492902	
3.54	-0.628	0.05090237678852788	
3.545	0.710	0.060240002911905524	
3.55	0.534	0.07754963594455921	
3.555	-0.625	0.09806513035830143	
3.56	0.128	0.11693039715402327	
3.565	1.084	0.13121664628313157	
3.57	-0.411	0.15071318168545605	
3.575	-0.297	0.16838308494672174	
3.58	1.217	0.18301815687347456	
3.585	-0.009	0.20107391023954768	
3.59	-0.524	0.20969944937205945	
3.595	0.903	0.21832382192925429	
3.6	0.722	0.23768767782649486	
3.605	-0.556	0.258927242920595	
3.61	0.236	0.2678609279558009	
3.615	1.146	0.2663483544765335	
3.62	-0.391	0.2647208791035929	
3.625	-0.333	0.2532593809157684	
3.63	1.065	0.2290287080862104	
3.635	-0.145	0.19717626300108745	
3.64	-0.637	0.15666234514465396	
3.645	0.615	0.12123218120547402	
3.65	0.405	0.090757357392213	
3.655	-0.688	0.06499931274716528	
3.66	-0.034	0.04777673116884722	
3.665	0.895	0.0323423265641994	
3.67	-0.517	0.024822800249581986	
3.675	-0.425	0.027227217466748745	
3.68	0.921	0.03097823680233115	
3.685	-0.213	0.028243824829887985	
3.69	-0.682	0.01865486001914664	
3.695	0.570	0.015180762401363401	
3.7	0.412	0.013806705400372892	
3.705	-0.682	0.015996723463236547	
3.71	-0.003	0.023725372214561353	
3.715	0.924	0.028390549256256923	
3.72	-0.508	0.03682274228165625	
3.725	-0.413	0.04715759036204016	
3.73	0.961	0.05503249147290114	
3.735	-0.179	0.05527789015008443	
3.74	-0.636	0.04956450748262619	
3.745	0.675	0.05221672878776757	
3.75	0.539	0.06489426090279854	
3.755	-0.616	0.08390105268778462	
3.76	0.097	0.1036895601525428	
3.765	1.020	0.11750897434300214	
3.77	-0.466	0.12877568537840042	
3.775	-0.399	0.13204848186761242	
3.78	0.955	0.12413446747267141	
3.785	-0.199	0.1033192562402542	
3.79	-0.694	0.0734302873566275	
3.795	0.537	0.04725120341381274	
3.8	0.389	0.024999954017192898	
3.805	-0.700	0.008795910080983673	
3.81	-0.071	0.0036629561425155933	
3.815	0.874	-0.002347740184142892	
3.82	-0.508	-0.0022850474158663935	
3.825	-0.420	0.008961284225924819	
3.83	0.926	0.021294927722466474	
3.835	-0.226	0.025308110698684598	
3.84	-0.702	0.017248576358787175	
3.845	0.687	0.017394256734984705	
3.85	0.837	0.047140548365754736	
3.855	-0.347	0.1176065223646784	
3.86	0.731	0.22568710377085988	
3.865	1.538	0.047140548365754736	
3.87	-0.330	0.047140548365754736	
3.875	-0.375	0.047140548365754736	
3.88	0.922	0.047140548365754736	
3.885	-0.199	0.047140548365754736	
3.89	-0.679	0.21707343328990408	
3.895	0.556	0.1264063247362383	
3.9	0.408	0.06029170839768626	
3.905	-0.700	0.01850083419724866	
3.91	-0.064	0.0005669513395871646	
3.915	0.878	-0.010991492181874545	
3.92	-0.508	-0.011391758608200336	
3.925	-0.437	0.0006768364190740454	
3.93	0.909	0.013563659672818053	
3.935	-0.173	0.018430173265138156	
3.94	-0.659	0.017922839361428654	
3.945	0.608	0.025471798870600762	
3.95	0.531	0.037382381328858155	
3.955	-0.625	0.05632019350621672	
3.96	0.081	0.07957051165512075	
3.965	1.054	0.09919126705113572	
3.97	-0.425	0.12045801049600403	
3.975	-0.338	0.1385593353500429	
3.98	1.144	0.15379336537428645	
3.985	-0.042	0.16541069007237466	
3.99	-0.543	0.16969836760440438	
3.995	0.903	0.1816293167360577	
4.0	0.796	0.21252841766443775	
4.005	-0.498	0.25109049709114734	
4.01	0.342	0.2855437116873385	
4.015	1.303	0.313414571584472	
4.02	-0.284	0.34036702950882086	
4.025	-0.179	0.35338409524468023	
4.03	1.425	0.3599501230304457	
4.035	0.195	0.37351626714270847	
4.04	-0.456	0.37851827745924993	
4.045	0.987	0.37657555602809467	
4.05	0.829	0.3776908333240304	
4.055	-0.506	0.3770797167059075	
4.06	0.246	0.36537555367193686	
4.065	1.201	0.34247348203984707	
4.07	-0.378	0.32053150932947505	
4.075	-0.327	0.2922657688293079	
4.08	1.097	0.25781709251180746	
4.085	-0.104	0.2186968525203329	
4.09	-0.621	0.17657642114918798	
4.095	0.658	0.14337142602872427	
4.1	0.530	0.12075873359143191	
4.105	-0.633	0.10727082545798064	
4.11	0.039	0.10422190868372483	
4.115	1.014	0.10039191881835038	
4.12	-0.449	0.1027411757690735	
4.125	-0.384	0.1082296370445909	
4.13	0.990	0.11064371417201534	
4.135	-0.118	0.1048316010838096	
4.14	-0.616	0.09265056084848247	
4.145	0.693	0.09220187445635102	
4.15	0.594	0.10079924251700081	
4.155	-0.592	0.11639585811690878	
4.16	0.107	0.1350933337965063	
4.165	1.084	0.14835130802226126	
4.17	-0.405	0.16087930443681334	
4.175	-0.332	0.17116596697232114	
4.18	1.135	0.17755390401212784	
4.185	-0.031	0.18096238646707452	
4.19	-0.553	0.17765260216227802	
4.195	0.796	0.17906006997187296	
4.2	0.652	0.18888298651895385	
4.205	-0.592	0.19848150179367452	
4.21	0.082	0.19993523829371404	
4.215	1.022	0.1883441578372789	
4.22	-0.468	0.17204505802110892	
4.225	-0.426	0.15207110452912947	
4.23	0.927	0.12643477258028435	
4.235	-0.155	0.09412932430816973	
4.24	-0.657	0.06368096492010639	
4.245	0.567	0.04689161364210161	
4.25	0.460	0.03696102943369106	
4.255	-0.669	0.033596759319761596	
4.26	-0.038	0.03681315606831003	
4.265	0.860	0.03433556257074505	
4.27	-0.544	0.027155036541333694	
4.275	-0.454	0.022004185287659878	
4.28	1.164	0.032420469983382716	
4.285	0.307	0.0782682027553621	
4.29	-0.303	0.15765151861195614	
4.295	1.228	0.04689161364210161	
4.3	0.906	0.03696102943369106	
4.305	-0.585	0.03681315606831003	
4.31	-0.040	0.4316145458284064	
4.315	0.861	0.35434947525983534	
4.32	-0.530	0.2523273818192101	
4.325	-0.478	0.15892703648146317	
4.33	0.805	0.08228111151632556	
4.335	-0.225	0.017382747058276603	
4.34	-0.708	-0.030296825863280356	
4.345	0.446	-0.052345124089592104	
4.35	0.398	-0.060913476535488995	
4.355	-0.686	-0.058245819395515666	
4.36	-0.074	-0.04138665577994219	
4.365	0.901	-0.02568668643767444	
4.37	-0.492	-0.007638156689851646	
4.375	-0.428	0.013910973752310977	
4.38	0.936	0.033262717323554805	
4.385	-0.145	0.04237310118249599	
4.39	-0.645	0.04265643146706563	
4.395	0.644	0.049682611209935654	
4.4	0.579	0.06612685384830275	
4.405	-0.605	0.08667196370604052	
4.41	0.079	0.10860060992851216	
4.415	1.098	0.12641203879761287	
4.42	-0.385	0.14731368058363883	
4.425	-0.318	0.1658260299847324	
4.43	1.173	0.18136146752155438	
4.435	0.047	0.19741745147698342	
4.44	-0.501	0.2075428987698031	
4.445	0.926	0.22469681816877898	
4.45	0.849	0.25823646005964357	
4.455	-0.492	0.2946114212010766	
4.46	0.295	0.3195020113595135	
4.465	1.295	0.3344960612943102	
4.47	-0.292	0.3473806507831628	
4.475	-0.248	0.3456975228172098	
4.48	1.289	0.3353206951466379	
4.485	0.075	0.32558394499085613	
4.49	-0.541	0.30451534902952504	
4.495	0.742	0.27748981897848496	
4.5	0.625	0.25134662802237245	
4.505	-0.613	0.22478921458450746	
4.51	-0.014	0.19528995194064072	
4.515	0.926	0.1554187019806556	
4.52	-0.475	0.1176631281678637	
4.525	-0.433	0.09165081630809735	
4.53	0.938	0.07308534015531507	
4.535	-0.153	0.056773771081073385	
4.54	-0.676	0.03864509878681224	
4.545	0.519	0.029249797283743693	
4.55	0.457	0.0223749999964217	
4.555	-0.685	0.01899726966586982	
4.56	-0.078	0.021149844726164525	
4.565	0.892	0.018327182983496244	
4.57	-0.494	0.01784368797425661	
4.575	-0.443	0.023611101238378944	
4.58	0.901	0.029940146490764267	
4.585	-0.161	0.030889612060340348	
4.59	-0.669	0.022687166908553824	
4.595	0.554	0.023118928553158124	
4.6	0.493	0.027432468753996398	
4.605	-0.660	0.0350725416657977	
4.61	-0.022	0.046038439714111506	
4.615	1.016	0.05534417649232462	
4.62	-0.446	0.06994482569027835	
4.625	-0.414	0.08451094704460846	
4.63	0.991	0.0938982718576605	
4.635	-0.103	0.09601851895329681	
4.64	-0.650	0.08763950466696982	
4.645	0.556	0.08001039252641438	
4.65	0.476	0.07054013753903998	
4.655	-0.692	0.06010466250319403	
4.66	-0.127	0.04890592534039963	
4.665	0.816	0.02638505492326433	
4.67	-0.521	0.004034385415703804	
4.675	-0.488	-0.0065734832474886925	
4.68	0.828	-0.011099386083409588	
4.685	-0.193	-0.01889702650820849	
4.69	-0.695	-0.029428982072274568	
4.695	0.479	-0.02799422454475059	
4.7	0.417	-0.02436394490624632	
4.705	-0.727	-0.02198393105556687	
4.71	-0.144	-0.019134204278698542	
4.715	1.055	-0.013452125843500223	
4.72	-0.249	0.018997751255182715	
4.725	-0.064	0.08831349270643488	
4.73	1.630	0.1940723312336377	
4.735	0.304	0.018997751255182715	
4.74	-0.566	0.018997751255182715	
4.745	0.542	0.018997751255182715	
4.75	0.409	0.018997751255182715	
4.755	-0.705	0.018997751255182715	
4.76	-0.118	0.15578587681078018	
4.765	0.864	0.07766174353474618	
4.77	-0.509	0.02300949566403704	
4.775	-0.477	-0.002806882427380771	
4.78	0.855	-0.01190628088376127	
4.785	-0.173	-0.018782377192066935	
4.79	-0.689	-0.02469226760389527	
4.795	0.521	-0.018934727750990227	
4.8	0.534	-0.005136332915057081	
4.805	-0.621	0.01582335279381368	
4.81	0.001	0.043780419787610186	
4.815	1.028	0.06678511990281111	
4.82	-0.434	0.08888219795822888	
4.825	-0.407	0.10508487594472385	
4.83	1.031	0.11526855570919865	
4.835	-0.043	0.12020672821426791	
4.84	-0.588	0.11812073755017344	
4.845	0.715	0.12518885165772148	
4.85	0.696	0.14198376908586802	
4.855	-0.547	0.1646221159401242	
4.86	0.172	0.18877096872932178	
4.865	1.242	0.21199594701157284	
4.87	-0.315	0.23978069176463768	
4.875	-0.268	0.25893315441427467	
4.88	1.301	0.27344808863980163	
4.885	0.183	0.29227030946693605	
4.89	-0.494	0.30292265148653535	
4.895	0.893	0.3092058734599926	
4.9	0.867	0.32114457582109635	
4.905	-0.486	0.3345383376833545	
4.91	0.256	0.34064715878028917	
4.915	1.265	0.3381034117454929	
4.92	-0.313	0.3368583449958571	
4.925	-0.326	0.321798815893635	
4.93	1.101	0.2933980966034013	
4.935	-0.019	0.25741459102452635	
4.94	-0.593	0.21492134554781503	
4.945	0.675	0.18306630376772182	
4.95	0.579	0.16122744338813907	
4.955	-0.647	0.1436518988661475	
4.96	-0.084	0.12449871546414608	
4.965	0.930	0.09706795563104277	
4.97	-0.462	0.07304097748901747	
4.975	-0.439	0.06175820782246288	
4.98	0.944	0.058280958987709124	
4.985	-0.092	0.05554203510690977	
4.99	-0.648	0.049951329033531326	
4.995	0.577	0.0529244674241405	
5.0	0.600	0.06228688452673545	
5.005	-0.607	0.07774436568152615	
5.01	-0.028	0.09439093789050727	
5.015	1.031	0.10105487630527617	
5.02	-0.416	0.10813654606672853	
5.025	-0.410	0.11469129792609288	
5.03	1.034	0.12022208503026728	
5.035	-0.042	0.1216337903824395	
5.04	-0.608	0.11694376141917316	
5.045	0.686	0.11884177775660959	
5.05	0.670	0.13134963452174894	
5.055	-0.602	0.14678462174654244	
5.06	0.010	0.15529138212358745	
5.065	1.080	0.15406825927387768	
5.07	-0.393	0.15423807865329497	
5.075	-0.388	0.1546196259709019	
5.08	1.013	0.15115147416918281	
5.085	-0.126	0.13874329304942562	
5.09	-0.688	0.11094217092381692	
5.095	0.501	0.08271182013627795	
5.1	0.505	0.05841969189054608	
5.105	-0.668	0.04288569451273533	
5.11	-0.122	0.036182294119054215	
5.115	0.869	0.023045851418857982	
5.12	-0.503	0.012353743954872511	
5.125	-0.489	0.007574761451958115	
5.13	0.845	0.007088546048708195	
5.135	-0.182	-0.00016876409201557594	
5.14	-0.726	-0.015056857797428503	
5.145	0.528	-0.01734586844966005	
5.15	0.788	0.0024942754432711167	
5.155	-0.437	0.056916074566774194	
5.16	0.434	0.1421280827932989	
5.165	1.390	0.012353743954872511	
5.17	-0.356	0.007594038265744287	
5.175	-0.456	0.007574761451958115	
5.18	0.835	0.007594038265744287	
5.185	-0.173	0.019087511674965217	
5.19	-0.723	0.13489564516694222	
5.195	0.415	0.061561118389149974	
5.2	0.452	0.007594038265744287	
5.205	-0.695	-0.02406468554189924	
5.21	-0.138	-0.0320048170089465	
5.215	0.913	-0.032849711675879044	
5.22	-0.449	-0.022515283180895736	
5.225	-0.465	-0.001619027643627399	
5.23	0.887	0.019087511674965217	
5.235	-0.126	0.027017591488245445	
5.24	-0.676	0.02480505193183307	
5.245	0.513	0.027557563669253878	
5.25	0.570	0.03367716323037359	
5.255	-0.622	0.044830587218124815	
5.26	-0.011	0.06395614476035484	
5.265	1.080	0.08129186735219132	
5.27	-0.391	0.10340960889688659	
5.275	-0.384	0.12325546979415716	
5.28	1.060	0.1392502994228048	
5.285	0.000	0.14805218480483623	
5.29	-0.575	0.1476130781565134	
5.295	0.765	0.15564750230053856	
5.3	0.783	0.17783619454330837	
5.305	-0.520	0.20664882474251908	
5.31	0.175	0.23188520091565246	
5.315	1.288	0.25350295233141706	
5.32	-0.297	0.27736579573979625	
5.325	-0.303	0.2890596909126625	
5.33	1.217	0.2883762102517513	
5.335	0.143	0.2871859476313457	
5.34	-0.537	0.27743909391888216	
5.345	0.780	0.2685845525528653	
5.35	0.793	0.2650141195596105	
5.355	-0.546	0.26563272246191505	
5.36	0.042	0.25771461877066293	
5.365	1.092	0.23657349275393785	
5.37	-0.414	0.21249791718746586	
5.375	-0.436	0.18594516389506976	
5.38	0.987	0.15831163867658554	
5.385	-0.069	0.1303367587893112	
5.39	-0.659	0.10043396004541355	
5.395	0.524	0.08044818255179285	
5.4	0.582	0.06910075461146514	
5.405	-0.627	0.06572527331609011	
5.41	-0.090	0.06959392442228646	
5.415	0.938	0.0655716821129686	
5.42	-0.449	0.05961371469710993	
5.425	-0.449	0.05887782137707646	
5.43	0.990	0.06426529424807514	
5.435	-0.031	0.07243804980881148	
5.44	-0.639	0.07439564729066654	
5.445	0.544	0.08036768554530027	
5.45	0.612	0.08518709321563495	
5.455	-0.595	0.09272600405643786	
5.46	0.038	0.1065041412229202	
5.465	1.075	0.12065568590476868	
5.47	-0.401	0.13465359034588148	
5.475	-0.411	0.14173838266956468	
5.48	1.063	0.14529687656223755	
5.485	0.030	0.14856377357357953	
5.49	-0.614	0.1452815588059989	
5.495	0.625	0.1433032624242862	
5.5	0.713	0.1463519133504446	
5.505	-0.605	0.15370211774582018	
5.51	-0.071	0.15533220695357772	
5.515	0.981	0.13974636766582338	
5.52	-0.446	0.11976500476936269	
5.525	-0.478	0.10060296131709187	
5.53	0.884	0.08327510463706475	
5.535	-0.097	0.061699173960546534	
5.54	-0.679	0.03922509038324261	
5.545	0.537	0.031233144421494014	
5.55	0.617	0.03746819456877496	
5.555	-0.642	0.05169463456478316	
5.56	-0.100	0.06622994639601892	
5.565	0.947	0.06783676687650672	
5.57	-0.456	0.06380300816712722	
5.575	-0.439	0.06347917271565567	
5.58	1.254	0.08134875043836885	
5.585	0.484	0.14084610431624392	
5.59	-0.336	0.2291191380420018	
5.595	1.040	0.3231421788650367	
5.6	0.843	0.08134875043836885	
5.605	-0.593	0.08134875043836885	
5.61	-0.049	0.08134875043836885	
5.615	0.927	0.31988482775843646	
5.62	-0.486	0.23091667992079248	
5.625	-0.521	0.14939639418351505	
5.63	0.866	0.08626484710045552	
5.635	-0.086	0.037936008025423726	
5.64	-0.672	0.007132610618092468	
5.645	0.515	0.0010679060358569584	
5.65	0.603	0.011651083815113825	
5.655	-0.619	0.030755074579790983	
5.66	-0.055	0.05502456117330369	
5.665	1.061	0.07390340598024422	
5.67	-0.378	0.09397869879457285	
5.675	-0.431	0.11231227015158547	
5.68	0.981	0.12222928284906084	
5.685	-0.011	0.12299943574304312	
5.69	-0.610	0.11408023015981542	
5.695	0.667	0.11701952436399009	
5.7	0.722	0.13173568910736622	
5.705	-0.585	0.15074053664795423	
5.71	-0.016	0.16392917191063844	
5.715	1.058	0.16196423327205103	
5.72	-0.414	0.15602885823099938	
5.725	-0.414	0.14621586954594196	
5.73	1.094	0.1422539341866509	
5.735	0.099	0.14812057279637864	
5.74	-0.558	0.15500292008060979	
5.745	0.767	0.17193056487193048	
5.75	0.883	0.20386559554693998	
5.755	-0.500	0.2407715494346223	
5.76	0.172	0.2697711491527065	
5.765	1.283	0.28801496363875556	
5.77	-0.301	0.3031818213015287	
5.775	-0.362	0.3000621505965281	
5.78	1.121	0.28212691606420737	
5.785	0.079	0.2593343705784402	
5.79	-0.616	0.2290203985563393	
5.795	0.553	0.19666712169096007	
5.8	0.658	0.167968832763295	
5.805	-0.639	0.1440014561524858	
5.81	-0.139	0.12354881024614262	
5.815	0.904	0.091899881700185	
5.82	-0.459	0.06248190821921183	
5.825	-0.506	0.04204724454433635	
5.83	0.803	0.028876043685565757	
5.835	-0.162	0.008492342616016616	
5.84	-0.721	-0.01683926307496754	
5.845	0.411	-0.02853939484600752	
5.85	0.531	-0.030014588352941837	
5.855	-0.653	-0.02182523467525937	
5.86	-0.092	-0.0015652884775129298	
5.865	1.002	0.017846114584579548	
5.87	-0.454	0.039618363713097716	
5.875	-0.488	0.053968646404514826	
5.88	0.912	0.061782818160004735	
5.885	-0.043	0.06263668250026161	
5.89	-0.653	0.057150574916078604	
5.895	0.563	0.060315765572323786	
5.9	0.718	0.07609460774566847	
5.905	-0.621	0.09824956761055681	
5.91	-0.112	0.11324821805476808	
5.915	1.003	0.10984976627532095	
5.92	-0.414	0.10379781108887792	
5.925	-0.471	0.09687308783792653	
5.93	0.926	0.09067062955753774	
5.935	-0.057	0.08080156949581202	
5.94	-0.691	0.06416591523134618	
5.945	0.389	0.048132741115718566	
5.95	0.450	0.026158030554360428	
5.955	-0.717	0.003371583596018801	
5.96	-0.242	-0.014863743129532191	
5.965	0.793	-0.03616668495286995	
5.97	-0.498	-0.05408160103192388	
5.975	-0.541	-0.058178823703499215	
5.98	0.759	-0.05237609690769954	
5.985	-0.136	-0.052118844672065026	
5.99	-0.735	-0.056870490394660966	
5.995	0.313	-0.05589548424625951	
6.0	0.570	-0.052752144371381086	
6.005	-0.556	-0.03567115434280313	
6.01	0.169	0.013110373407504487	
6.015	1.476	0.09699019031255084	
6.02	-0.190	0.20186873755387635	
6.025	-0.352	0.00396223502909298	
6.03	0.955	0.00396223502909298	
6.035	-0.098	0.27696681915549437	
6.04	-0.721	0.20995006641731756	
6.045	0.368	0.13810529827318255	
6.05	0.536	0.07243866864424811	
6.055	-0.679	0.02723120107793651	
6.06	-0.200	0.00396223502909298	
6.065	0.866	-0.014873881853009252	
6.07	-0.449	-0.02409799331984862	
6.075	-0.506	-0.020481787409540975	
6.08	0.884	-0.006145443634560879	
6.085	-0.032	0.008051153874561318	
6.09	-0.645	0.01777286253598448	
6.095	0.527	0.03616758899573182	
6.1	0.660	0.058586811257833514	
6.105	-0.611	0.08002231631021661	
6.11	-0.084	0.09689711618625292	
6.115	1.086	0.1063735572156059	
6.12	-0.350	0.11680322757449346	
6.125	-0.431	0.12829987983362284	
6.13	1.017	0.13707390365965866	
6.135	0.062	0.14113204620495146	
6.14	-0.558	0.14049651839295746	
6.145	0.728	0.1532634101767749	
6.15	0.898	0.1848309950702141	
6.155	-0.495	0.22379506696514004	
6.16	0.104	0.25378106016287116	
6.165	1.337	0.2746585237003354	
6.17	-0.239	0.2967566664859935	
6.175	-0.317	0.3070354671276845	
6.18	1.233	0.3082440025609049	
6.185	0.241	0.3113054233986754	
6.19	-0.529	0.30525277590259997	
6.195	0.780	0.29818939432556346	
6.2	0.947	0.30207807895363414	
6.205	-0.488	0.3127635331918378	
6.21	0.032	0.3125558965083026	
6.215	1.175	0.2937668266404835	
6.22	-0.329	0.26992422403234617	
6.225	-0.408	0.24286698164851347	
6.23	1.051	0.2171655361375231	
6.235	0.082	0.1945186030604916	
6.24	-0.614	0.1702369346908463	
6.245	0.579	0.1549925473362666	
6.25	0.756	0.15020083081346575	
6.255	-0.582	0.15289670690949486	
6.26	-0.083	0.15536946054360604	
6.265	1.046	0.14575334617016675	
6.27	-0.381	0.1351249605213784	
6.275	-0.463	0.1257670655990369	
6.28	0.952	0.11802709961157597	
6.285	0.049	0.10969441846532388	
6.29	-0.622	0.10026571938739853	
6.295	0.542	0.10080759796179943	
6.3	0.754	0.11028286843189601	
6.305	-0.562	0.12702215072556594	
6.31	-0.028	0.14421754668733744	
6.315	1.149	0.1557333150800097	
6.32	-0.341	0.1672888487352656	
6.325	-0.430	0.17267559476696548	
6.33	1.010	0.17090413865936724	
6.335	0.119	0.16685539549029327	
6.34	-0.584	0.1592944245322886	
6.345	0.600	0.15962364271663676	
6.35	0.796	0.16735785238364748	
6.355	-0.566	0.17816196638629206	
6.36	-0.104	0.181046726397097	
6.365	1.007	0.16566958248026808	
6.37	-0.404	0.1424858354540223	
6.375	-0.512	0.11863275113020766	
6.38	0.822	0.09374664151410353	
6.385	-0.066	0.06298634593276663	
6.39	-0.680	0.030364259266435493	
6.395	0.405	0.01647333785023255	
6.4	0.586	0.011397364742378725	
6.405	-0.639	0.013271200053849875	
6.41	-0.165	0.02295813504621254	
6.415	0.933	0.02666740036504457	
6.42	-0.457	0.02756976104110798	
6.425	-0.549	0.02655525785961137	
6.43	0.913	0.027739474479778058	
6.435	0.252	0.04410418074679131	
6.44	-0.423	0.08331672323050388	
6.445	1.032	0.1614272870771765	
6.45	1.139	0.04410418074679131	
6.455	-0.492	0.04410418074679131	
6.46	-0.086	0.04410418074679131	
6.465	0.991	0.3647144040419308	
6.47	-0.423	0.2937112271732481	
6.475	-0.532	0.21343774295575482	
6.48	0.796	0.1396519012733635	
6.485	-0.097	0.07226301277870396	
6.49	-0.718	0.014306419759261259	
6.495	0.324	-0.01876155748516029	
6.5	0.537	-0.03739288717882733	
6.505	-0.668	-0.042610153988313235	
6.51	-0.182	-0.0323140208383907	
6.515	0.962	-0.019272966174405614	
6.52	-0.425	-0.002180479152266883	
6.525	-0.537	0.014345745215066277	
6.53	0.831	0.02660502739874486	
6.535	-0.032	0.027363276733373618	
6.54	-0.672	0.021237472461214	
6.545	0.505	0.028173192590954733	
6.55	0.687	0.04573169517720239	
6.555	-0.607	0.06834877069710629	
6.56	-0.121	0.0865496475233811	
6.565	1.077	0.09684651235206736	
6.57	-0.353	0.10687778391662438	
6.575	-0.446	0.11617951947631296	
6.58	1.058	0.12766214302274956	
6.585	0.197	0.14552736304915354	
6.59	-0.569	0.16209301373528123	
6.595	0.672	0.1820756999603181	
6.6	0.932	0.20992009944910708	
6.605	-0.494	0.24134615149436411	
6.61	0.020	0.26135652184454095	
6.615	1.266	0.2659333594398494	
6.62	-0.258	0.2720252604270257	
6.625	-0.379	0.2680185252821241	
6.63	1.092	0.25757037261037796	
6.635	0.189	0.24672215954238783	
6.64	-0.605	0.22909502510558913	
6.645	0.510	0.2088601721485785	
6.65	0.704	0.18500405177485785	
6.655	-0.611	0.16252767179416103	
6.66	-0.167	0.13919130942988728	
6.665	0.973	0.1098449370296509	
6.67	-0.422	0.08425101125055064	
6.675	-0.532	0.06400177264513571	
6.68	0.802	0.04837149471619499	
6.685	-0.049	0.028850921073260025	
6.69	-0.703	0.0072131774109611465	
6.695	0.365	-0.001308708730845507	
6.7	0.649	2.0051656354709232e-05	
6.705	-0.625	0.010685354537841842	
6.71	-0.190	0.02708442109583357	
6.715	0.964	0.03476877841086917	
6.72	-0.396	0.04038426687087321	
6.725	-0.503	0.046974419936223484	
6.73	0.901	0.0552716629878864	
6.735	0.021	0.06094209908153828	
6.74	-0.659	0.0592332481207417	
6.745	0.460	0.06158195903056651	
6.75	0.707	0.07006775890080873	
6.755	-0.617	0.08174847735680132	
6.76	-0.155	0.08998296647229374	
6.765	1.068	0.09177223298263765	
6.77	-0.336	0.09749727363890749	
6.775	-0.468	0.10490358892557909	
6.78	0.935	0.11119175691349928	
6.785	0.052	0.11205880455878407	
6.79	-0.659	0.10124130941443266	
6.795	0.418	0.09245033719775562	
6.8	0.609	0.08113007821201765	
6.805	-0.666	0.06783406491355184	
6.81	-0.242	0.05286634450860872	
6.815	0.890	0.03176581694200539	
6.82	-0.434	0.012615290961937798	
6.825	-0.556	0.001834551249054704	
6.83	0.762	-0.0018601157647533506	
6.835	-0.072	-0.011830126133295637	
6.84	-0.726	-0.0257910893451956	
6.845	0.290	-0.03262162965622267	
6.85	0.507	-0.037767368184615235	
6.855	-0.703	-0.04417823170799363	
6.86	-0.193	-0.040223927278645204	
6.865	1.233	-0.01709863964177463	
6.87	-0.132	0.04267155361573848	
6.875	-0.229	0.12367224739691329	
6.88	1.338	-0.0018601157647533506	
6.885	0.295	-0.009205399707494588	
6.89	-0.654	-0.009205399707494588	
6.895	0.314	-0.009205399707494588	
6.9	0.550	-0.009205399707494588	
6.905	-0.682	0.158859458057936	
6.91	-0.254	0.08859997588612659	
6.915	0.870	0.029938373831790304	
6.92	-0.449	-0.009205399707494588	
6.925	-0.585	-0.030432615512464588	
6.93	0.715	-0.038862063569373946	
6.935	-0.078	-0.04956086507858762	
6.94	-0.727	-0.06095153591034734	
6.945	0.322	-0.05777728793746906	
6.95	0.609	-0.04649938055990721	
6.955	-0.637	-0.029182413357521135	
6.96	-0.193	-0.005487416141047762	
6.965	1.007	0.014037704951038564	
6.97	-0.365	0.034782798018424835	
6.975	-0.503	0.05242278754910283	
6.98	0.919	0.0692363437393721	
6.985	0.088	0.08152728173066817	
6.99	-0.650	0.08486957913013	
6.995	0.473	0.09122688104096205	
7.0	0.770	0.10167927443554611	
7.005	-0.572	0.11569802703692811	
7.01	-0.126	0.127391110457324	
7.015	1.164	0.13322634170145006	
7.02	-0.278	0.14680261477846684	
7.025	-0.405	0.16023281119900418	
7.03	1.109	0.1773289918911801	
7.035	0.305	0.20167557094422267	
7.04	-0.535	0.22271386729085949	
7.045	0.712	0.2431607949393353	
7.05	0.999	0.27085748063203946	
7.055	-0.475	0.2986786183247427	
7.06	-0.017	0.30720757935489784	
7.065	1.207	0.2962949133126614	
7.07	-0.281	0.27894321311212633	
7.075	-0.460	0.25209128998445507	
7.08	0.938	0.21922575265194644	
7.085	0.078	0.1828589436260954	
7.09	-0.683	0.14173522278850298	
7.095	0.356	0.10595912812028468	
7.1	0.678	0.07694228030793351	
7.105	-0.611	0.059860955419066775	
7.11	-0.202	0.05506215529669152	
7.115	0.973	0.04922940656734782	
7.12	-0.393	0.04613700671821945	
7.125	-0.543	0.04305089932883773	
7.13	0.823	0.04307731949947361	
7.135	0.021	0.037990413727759784	
7.14	-0.700	0.027787886162479562	
7.145	0.342	0.023803298336723053	
7.15	0.676	0.022993205774541597	
7.155	-0.608	0.02996229773062193	
7.16	-0.194	0.04193660224210635	
7.165	0.993	0.049213990459087024	
7.17	-0.364	0.05526058947922965	
7.175	-0.518	0.06097691923102346	
7.18	0.875	0.06701165618358598	
7.185	0.090	0.07010675090001277	
7.19	-0.663	0.06776957624301537	
7.195	0.435	0.07070455110293924	
7.2	0.770	0.08008178674662847	
7.205	-0.579	0.09599860956110637	
7.21	-0.152	0.10881386215875098	
7.215	1.109	0.11424857983966266	
7.22	-0.320	0.1233682802843036	
7.225	-0.497	0.12787965291229392	
7.23	0.872	0.12494408901107802	
7.235	0.013	0.1102259543614046	
7.24	-0.732	0.08176236629603365	
7.245	0.249	0.0505772600663037	
7.25	0.574	0.0181449309072692	
7.255	-0.669	-0.006908783888795229	
7.26	-0.257	-0.017274830871621044	
7.265	0.898	-0.022765063845960512	
7.27	-0.417	-0.023538406615187246	
7.275	-0.569	-0.019162386028020735	
7.28	0.777	-0.01008837191184609	
7.285	-0.046	-0.00869781001395593	
7.29	-0.764	-0.019274047679830885	
7.295	0.241	-0.02846554065157615	
7.3	0.797	-0.02775632192979881	
7.305	-0.425	0.0030884322675954015	
7.31	0.292	0.07766736271170545	
7.315	1.631	-0.0018738182412407658	
7.32	-0.130	-0.0018738182412407658	
7.325	-0.443	-0.0018738182412407658	
7.33	0.822	-0.0018738182412407658	
7.335	-0.026	-0.0018738182412407658	
7.34	-0.734	-0.0018738182412407658	
7.345	0.256	0.12242327018895408	
7.35	0.583	0.04838831464325549	
7.355	-0.671	-0.0018738182412407658	
7.36	-0.274	-0.025537486441493236	
7.365	0.870	-0.03962618118192676	
7.37	-0.413	-0.04334441341627647	
7.375	-0.573	-0.03842404010257492	
7.38	0.768	-0.026120920702096748	
7.385	0.026	-0.017400198596548122	
7.39	-0.694	-0.014418053454233828	
7.395	0.331	-0.0036719008332527325	
7.4	0.681	0.009517837762814018	
7.405	-0.614	0.024084653309842018	
7.41	-0.220	0.03931136605327615	
7.415	0.977	0.045502906180364996	
7.42	-0.367	0.04970327810896344	
7.425	-0.526	0.052385057393194885	
7.43	0.889	0.05995830333793151	
7.435	0.117	0.06775736990803267	
7.44	-0.665	0.06939138961014502	
7.445	0.402	0.07528074734077733	
7.45	0.845	0.08575103784363482	
7.455	-0.511	0.10799819288858342	
7.46	-0.090	0.13513868308089286	
7.465	1.216	0.15770443861452996	
7.47	-0.232	0.18275657958096164	
7.475	-0.398	0.20014621959861006	
7.48	1.161	0.21903907621139246	
7.485	0.397	0.2469549438455628	
7.49	-0.546	0.2692112241478293	
7.495	0.634	0.28216812654098583	
7.5	1.008	0.29396245842788327	
7.505	-0.472	0.3049931278000633	
7.51	-0.101	0.29990952968559925	
7.515	1.118	0.27378089720939075	
7.52	-0.313	0.23993939468548942	
7.525	-0.515	0.2009925536565786	
7.53	0.848	0.16192157464954482	
7.535	0.091	0.1241554689073133	
7.54	-0.692	0.08723995001188015	
7.545	0.316	0.06197981305051451	
7.55	0.712	0.046054628870168424	
7.555	-0.598	0.04214577472678073	
7.56	-0.229	0.046765291341909765	
7.565	0.964	0.04674747107624132	
7.57	-0.381	0.04510619017255893	
7.575	-0.561	0.04192339648594681	
7.58	0.773	0.038808554763099676	
7.585	0.052	0.031285411473311556	
7.59	-0.688	0.019250838520560743	
7.595	0.325	0.017848448695410128	
7.6	0.695	0.02213255024398295	
7.605	-0.611	0.030202617108809674	
7.61	-0.242	0.04063496125505124	
7.615	1.000	0.044786288440362226	
7.62	-0.338	0.050213996272543804	
7.625	-0.518	0.05680871311501793	
7.63	0.889	0.0677883472448702	
7.635	0.185	0.08042868393107097	
7.64	-0.619	0.0891726865618237	
7.645	0.466	0.10474689482937857	
7.65	0.855	0.12427873634963901	
7.655	-0.526	0.14720959577709752	
7.66	-0.144	0.16246942350961185	
7.665	1.175	0.16787140663679553	
7.67	-0.252	0.17533207605665557	
7.675	-0.456	0.17865041622015843	
7.68	0.997	0.18074782591109223	
7.685	0.212	0.18160557527163457	
7.69	-0.663	0.17211050147579238	
7.695	0.319	0.15257851912905357	
7.7	0.710	0.12540570701176562	
7.705	-0.616	0.0993118312649433	
7.71	-0.249	0.08030946479598174	
7.715	0.948	0.05987222290010999	
7.72	-0.373	0.04349193300806942	
7.725	-0.569	0.03156711911144053	
7.73	0.759	0.026656051450119803	
7.735	0.047	0.018742030439212184	
7.74	-0.698	0.006113759667753387	
7.745	0.261	0.0024743828477230083	
7.75	0.681	0.0025040908826022253	
7.755	-0.556	0.010345567745632498	
7.76	-0.009	0.03819610462666627	
7.765	1.602	0.10498655072677246	
7.77	0.142	0.2176143209831411	
7.775	-0.268	0.03156711911144053	
7.78	1.106	0.029004460969720525	
7.785	0.172	0.029004460969720525	
7.79	-0.712	0.36004457233785125	
7.795	0.189	0.27527399228208616	
7.8	0.614	0.17464020870574426	
7.805	-0.651	0.08649504210407619	
7.81	-0.298	0.029004460969720525	
7.815	0.822	-0.012097093163204604	
7.82	-0.419	-0.04121414181882641	
7.825	-0.628	-0.05763408460275959	
7.83	0.661	-0.05949673200515648	
7.835	-0.026	-0.06596239439396423	
7.84	-0.749	-0.07592740057317077	
7.845	0.194	-0.07378483634037299	
7.85	0.647	-0.06628099067084597	
7.855	-0.636	-0.05254246813371384	
7.86	-0.269	-0.031106248995556245	
7.865	0.932	-0.012980451059635413	
7.87	-0.350	0.0007952371248945855	
7.875	-0.543	0.014186200549315908	
7.88	0.866	0.0336192183644331	
7.885	0.224	0.05517102190303546	
7.89	-0.628	0.07485073318918564	
7.895	0.435	0.09720854469399427	
7.9	0.939	0.12495781829083732	
7.905	-0.498	0.15630708429310097	
7.91	-0.135	0.18172229019345593	
7.915	1.204	0.1932613194064212	
7.92	-0.213	0.20382095708178524	
7.925	-0.416	0.20893212675162734	
7.93	1.152	0.21973760637734138	
7.935	0.469	0.24636416398785058	
7.94	-0.530	0.27264656336290216	
7.945	0.632	0.2921157695947631	
7.95	1.077	0.31117873118047856	
7.955	-0.445	0.3282879233783985	
7.96	-0.097	0.3275101129217065	
7.965	1.233	0.3073544091365305	
7.97	-0.225	0.2849901763408993	
7.975	-0.478	0.2557734020708702	
7.98	0.921	0.2246163110877272	
7.985	0.227	0.19455890802587128	
7.99	-0.662	0.16368465812976402	
7.995	0.295	0.13590777721105146	
8.0	0.758	0.10824528478102262	
8.005	-0.588	0.08948079108738798	
8.01	-0.254	0.07837936719493116	
8.015	0.952	0.06526067289369716	
8.02	-0.344	0.053175247588101646	
8.025	-0.559	0.04276863531664857	
8.03	0.774	0.04045794462382475	
8.035	0.108	0.03665668085485833	
8.04	-0.703	0.027762420972465375	
8.045	0.253	0.023770061633172426	
8.05	0.736	0.023270472452616927	
8.055	-0.596	0.02858921195874676	
8.06	-0.263	0.03827181358918099	
8.065	0.968	0.04322971147012419	
8.07	-0.339	0.04429703486009348	
8.075	-0.570	0.04370066907073386	
8.08	0.797	0.046381462335842276	
8.085	0.137	0.04677993438032939	
8.09	-0.686	0.04174781672813197	
8.095	0.299	0.043657597278644746	
8.1	0.794	0.04837142124607856	
8.105	-0.550	0.06163046441128922	
8.11	-0.231	0.07813758804913418	
8.115	1.020	0.08628194240524723	
8.12	-0.297	0.08939083627928945	
8.125	-0.523	0.08957787429627587	
8.13	0.898	0.09537816908209185	
8.135	0.285	0.10691961797497616	
8.14	-0.608	0.11766371511669467	
8.145	0.447	0.13357101554748319	
8.15	0.935	0.15451266936220362	
8.155	-0.498	0.1766217408975193	
8.16	-0.168	0.18997882371237096	
8.165	1.121	0.18937443598128073	
8.17	-0.298	0.1814990960716734	
8.175	-0.576	0.16140958619827867	
8.18	0.706	0.1293348068077264	
8.185	0.058	0.08608712053330453	
8.19	-0.724	0.03860553031220836	
8.195	0.172	0.006452384185501608	
8.2	0.663	-0.016344829605192592	
8.205	-0.617	-0.02733832649436347	
8.21	-0.287	-0.021154261730978962	
8.215	0.938	-0.01153478664917414	
8.22	-0.361	-0.002421314280676642	
8.225	-0.628	0.0022577764226663632	
8.23	0.651	0.0023831400149109394	
8.235	0.261	0.00023097504371455692	
8.24	-0.480	0.015466909767425655	
8.245	0.967	0.08746555298448402	
8.25	1.547	0.0033494816021482814	
8.255	-0.300	0.0033494816021482814	
8.26	-0.126	0.0033494816021482814	
8.265	1.010	0.0033494816021482814	
8.27	-0.362	0.0033494816021482814	
8.275	-0.631	0.2870259326798945	
8.28	0.649	0.1803842198286181	
8.285	0.046	0.08147924062796867	
8.29	-0.738	0.0033494816021482814	
8.295	0.134	-0.04075602521896007	
8.3	0.649	-0.06594034785502444	
8.305	-0.643	-0.07237327655089074	
8.31	-0.344	-0.06253859470858936	
8.315	0.870	-0.05226592869645587	
8.32	-0.361	-0.04420796078058533	
8.325	-0.604	-0.03513729751886177	
8.33	0.751	-0.01756274876708214	
8.335	0.186	-0.0013954039885448227	
8.34	-0.674	0.01214603139390539	
8.345	0.267	0.03021015150045502	
8.35	0.826	0.047277037395293556	
8.355	-0.537	0.06647982036181373	
8.36	-0.214	0.0883044737245496	
8.365	1.133	0.10599520964774672	
8.37	-0.225	0.12378703699641665	
8.375	-0.492	0.13758285637199785	
8.38	0.965	0.15161344913907826	
8.385	0.417	0.17078361778696843	
8.39	-0.562	0.18886224195141557	
8.395	0.545	0.2112058061018371	
8.4	1.141	0.24257180619978458	
8.405	-0.382	0.28132229801143793	
8.41	-0.019	0.3100940315849583	
8.415	1.419	0.33024639911298104	
8.42	-0.087	0.3488548263855825	
8.425	-0.379	0.35229967406798546	
8.43	1.205	0.34967205241876265	
8.435	0.620	0.3610359839152651	
8.44	-0.492	0.3727055878443567	
8.445	0.609	0.3770090735163759	
8.45	1.121	0.37778359094531155	
8.455	-0.442	0.3744227411267733	
8.46	-0.162	0.351820944369916	
8.465	1.190	0.31324271572370355	
8.47	-0.220	0.27214928601991695	
8.475	-0.526	0.23018651967032727	
8.48	0.845	0.1914245997144229	
8.485	0.269	0.15827525228864597	
8.49	-0.657	0.12984163019523476	
8.495	0.304	0.11270888092182288	
8.5	0.878	0.10383517066349077	
8.505	-0.535	0.10672402826493695	
8.51	-0.248	0.11262570988612308	
8.515	1.042	0.11207187967393928	
8.52	-0.294	0.10744074300873976	
8.525	-0.579	0.09617384311261812	
8.53	0.761	0.08613754907040112	
8.535	0.211	0.07345309189853574	
8.54	-0.688	0.060006092327836894	
8.545	0.175	0.051424142048823396	
8.55	0.753	0.03983336202841117	
8.555	-0.579	0.032987833210288364	
8.56	-0.287	0.03647367047612301	
8.565	0.929	0.037930307606061656	
8.57	-0.332	0.033667965680475684	
8.575	-0.617	0.026158802157496934	
8.58	0.715	0.02295004047778061	
8.585	0.192	0.018592292788411735	
8.59	-0.680	0.016080607883227342	
8.595	0.236	0.023258676390284814	
8.6	0.846	0.03489532316762104	
8.605	-0.523	0.055097358933833905	
8.61	-0.236	0.07832841979136312	
8.615	1.086	0.09692461394517335	
8.62	-0.249	0.1118132711363324	
8.625	-0.546	0.11605686391839559	
8.63	0.869	0.11986491494481724	
8.635	0.354	0.12675392982369837	
8.64	-0.617	0.13406654976661334	
8.645	0.347	0.14309168791358823	
8.65	0.880	0.1479949135903197	
8.655	-0.559	0.15019180019699502	
8.66	-0.300	0.14315207820135573	
8.665	0.929	0.1199147373077282	
8.67	-0.339	0.08798932128237147	
8.675	-0.636	0.05397350023078649	
8.68	0.661	0.028758262649552713	
8.685	0.156	0.005902575046610278	
8.69	-0.714	-0.011923905372714566	
8.695	0.152	-0.016038749822633005	
8.7	0.777	-0.013905184061188066	
8.705	-0.595	-0.003738490431137622	
8.71	-0.352	0.010023761558139152	
8.715	0.858	0.012955505067243316	
8.72	-0.271	0.00808265451216743	
8.725	-0.445	0.013869563193519282	
8.73	1.280	0.06480429806002067	
8.735	0.857	0.013869563193519282	
8.74	-0.436	0.013869563193519282	
8.745	0.475	0.013869563193519282	
8.75	0.837	0.013869563193519282	
8.755	-0.611	0.013869563193519282	
8.76	-0.375	0.2778465889418203	
8.765	0.846	0.18402458857148096	
8.77	-0.355	0.09424440373450538	
8.775	-0.640	0.024737726031116233	
8.78	0.621	-0.016312037895746544	
8.785	0.113	-0.04380209928796827	
8.79	-0.729	-0.06203943722545396	
8.795	0.113	-0.061252078850920856	
8.8	0.745	-0.054646803493486495	
8.805	-0.588	-0.038696551815678465	
8.81	-0.324	-0.01625928845930797	
8.815	0.967	0.004115096709361285	
8.82	-0.289	0.0192721131687156	
8.825	-0.604	0.028560613843447807	
8.83	0.730	0.03874688665664398	
8.835	0.275	0.04432398501351971	
8.84	-0.640	0.04978321127396005	
8.845	0.304	0.0667271892886184	
8.85	0.955	0.08956241930027663	
8.855	-0.500	0.11717553921046268	
8.86	-0.245	0.13958293519244797	
8.865	1.171	0.1523418142090497	
8.87	-0.152	0.16529538805496422	
8.875	-0.465	0.17431985613417234	
8.88	1.032	0.19088231138583794	
8.885	0.530	0.2185050873040257	
8.89	-0.540	0.2435461727968321	
8.895	0.513	0.2656585428790511	
8.9	1.175	0.2888169207746747	
8.905	-0.394	0.3141099490800687	
8.91	-0.145	0.32335897510887257	
8.915	1.268	0.31449656630200407	
8.92	-0.129	0.30143237951721374	
8.925	-0.468	0.27910201815652413	
8.93	0.990	0.25883765282161136	
8.935	0.476	0.24973911299683862	
8.94	-0.590	0.2424947324918424	
8.945	0.324	0.23144572526517362	
8.95	0.924	0.2139531477586161	
8.955	-0.538	0.19525909219049653	
8.96	-0.301	0.17216214388879403	
8.965	1.011	0.14246010379583562	
8.97	-0.269	0.11366498677003514	
8.975	-0.605	0.08702824348067455	
8.98	0.710	0.06865040971271771	
8.985	0.236	0.0519093354744561	
8.99	-0.698	0.03757675756891915	
8.995	0.151	0.03124743794745298	
9.0	0.842	0.029013979466103575	
9.005	-0.537	0.03642779629437459	
9.01	-0.306	0.05101505705237872	
9.015	0.971	0.06039812457235373	
9.02	-0.274	0.061828041392860154	
9.025	-0.602	0.05696296882675151	
9.03	0.750	0.05653718056719934	
9.035	0.313	0.05905060211194128	
9.04	-0.660	0.06258691154928195	
9.045	0.217	0.07109918783051271	
9.05	0.889	0.07909975573939002	
9.055	-0.523	0.08950183334081545	
9.06	-0.291	0.10086732374770845	
9.065	1.032	0.1034236215573032	
9.07	-0.229	0.10296275106938688	
9.075	-0.552	0.09785211107337988	
9.08	0.822	0.10048093550332966	
9.085	0.362	0.10720145856125654	
9.09	-0.637	0.11253989512974008	
9.095	0.273	0.11997189002120946	
9.1	0.994	0.12923311560203463	
9.105	-0.474	0.14655483562705796	
9.11	-0.223	0.16169890335354986	
9.115	1.191	0.1724717745078601	
9.12	-0.155	0.18311404278604448	
9.125	-0.526	0.18471132615880093	
9.13	0.808	0.17938316964835982	
9.135	0.322	0.1663775583749929	
9.14	-0.676	0.14553372071025325	
9.145	0.151	0.12179238355500654	
9.15	0.825	0.09532907016122474	
9.155	-0.558	0.07568019028009354	
9.16	-0.346	0.06454705744349956	
9.165	0.927	0.05344601589017613	
9.17	-0.289	0.0392730260250239	
9.175	-0.631	0.02464552840317943	
9.18	0.667	0.019299562140969742	
9.185	0.255	0.015516497735481555	
9.19	-0.714	0.011525273158688846	
9.195	0.107	0.012673152751424473	
9.2	1.002	0.021442062786775695	
9.205	-0.336	0.056743870729052806	
9.21	0.088	0.12442775822122243	
9.215	1.615	0.22351895932376153	
9.22	0.021	0.0392730260250239	
9.225	-0.520	0.02464552840317943	
9.23	0.719	0.021442062786775695	
9.235	0.221	0.021442062786775695	
9.24	-0.726	0.021442062786775695	
9.245	0.053	0.13749823355851923	
9.25	0.762	0.06456418534450524	
9.255	-0.588	0.014856582971881936	
9.26	-0.370	-0.006774013288598867	
9.265	0.916	-0.01350421805492494	
9.27	-0.275	-0.014419393233061205	
9.275	-0.628	-0.011596352193153692	
9.28	0.663	-0.0018598276515185241	
9.285	0.281	0.006856621338386698	
9.29	-0.695	0.013466603005214206	
9.295	0.096	0.022365291771350236	
9.3	0.826	0.024679789924665397	
9.305	-0.544	0.02986148890497073	
9.31	-0.338	0.04106851906829943	
9.315	1.020	0.050588737951259406	
9.32	-0.214	0.05965839094493629	
9.325	-0.566	0.06724190075283418	
9.33	0.814	0.08118033226618179	
9.335	0.415	0.1000027223685011	
9.34	-0.608	0.11632321841720443	
9.345	0.313	0.13531204859978974	
9.35	1.089	0.15887777071524992	
9.355	-0.416	0.18880059386458467	
9.36	-0.190	0.21388859325228482	
9.365	1.294	0.23174122951848794	
9.37	-0.060	0.24975468639798193	
9.375	-0.460	0.2580305174449964	
9.38	1.002	0.2631786199333437	
9.385	0.631	0.27621291295206307	
9.39	-0.524	0.28923149625973316	
9.395	0.423	0.2981394372738149	
9.4	1.127	0.30203110269117717	
9.405	-0.425	0.3048924641860875	
9.41	-0.228	0.2936816963045239	
9.415	1.184	0.2697302401013806	
9.42	-0.162	0.2449732501542831	
9.425	-0.572	0.21194450440313586	
9.43	0.753	0.17898991032009473	
9.435	0.354	0.14839419405810175	
9.44	-0.666	0.12033944413288519	
9.445	0.113	0.0989036597217122	
9.45	0.851	0.07805930201494207	
9.455	-0.550	0.06313304543876276	
9.46	-0.367	0.0575430220931374	
9.465	0.932	0.049592866691714595	
9.47	-0.275	0.03818880284110347	
9.475	-0.636	0.02594847911258319	
9.48	0.661	0.020799036194008465	
9.485	0.284	0.01951428558215247	
9.49	-0.689	0.017431799601398745	
9.495	0.111	0.021730064063955803	
9.5	0.887	0.02909500001428591	
9.505	-0.529	0.041271731371693425	
9.51	-0.350	0.05740373108005172	
9.515	0.945	0.06354490783944294	
9.52	-0.242	0.06034654716223533	
9.525	-0.624	0.05087669053542555	
9.53	0.655	0.046692269986621744	
9.535	0.311	0.040655649864711665	
9.54	-0.674	0.03643187149147142	
9.545	0.139	0.04059850431977083	
9.55	0.912	0.047195395133078195	
9.555	-0.517	0.061322966779278565	
9.56	-0.336	0.07626544818891998	
9.565	1.031	0.08460108279430645	
9.57	-0.207	0.08845114715661226	
9.575	-0.584	0.08674692066815429	
9.58	0.762	0.08967793588795178	
9.585	0.429	0.09680240232809226	
9.59	-0.610	0.10635232757070966	
9.595	0.273	0.122500164930511	
9.6	1.034	0.14133667795883093	
9.605	-0.459	0.16332856095513393	
9.61	-0.297	0.17610480735193235	
9.615	1.029	0.17267641234341782	
9.62	-0.214	0.15555452024756733	
9.625	-0.598	0.12860078977941705	
9.63	0.715	0.10866467071553489	
9.635	0.333	0.09196330641378353	
9.64	-0.698	0.07425936464613811	
9.645	0.145	0.06538882275001089	
9.65	0.990	0.06451638944149543	
9.655	-0.474	0.08035172261995041	
9.66	-0.324	0.09992350497673075	
9.665	0.996	0.1097799272662914	
9.67	-0.263	0.10367345207671956	
9.675	-0.639	0.08440679252741717	
9.68	1.043	0.0846780735305001	
9.685	1.419	0.16125191754912285	
9.69	0.180	0.33324347446767644	
9.695	1.689	0.1097799272662914	
9.7	2.071	0.8316194562364738	
9.705	-0.271	1.0143595447328202	
9.71	-0.315	1.0135401037038925	
9.715	0.863	0.8476625736899694	
9.72	-0.249	0.6090711630222605	
9.725	-0.648	0.3764141591668355	
9.73	0.504	0.19226036675252556	
9.735	0.137	0.049417953405559815	
9.74	-0.786	-0.05346889428787088	
9.745	-0.133	-0.11319123159001607	
9.75	0.592	-0.1514500117674536	
9.755	-0.657	-0.17303820920838392	
9.76	-0.501	-0.16842995951252954	
9.765	0.678	-0.1566367866814627	
9.77	-0.356	-0.15269362940722578	
9.775	-0.726	-0.14851015126050626	
9.78	0.487	-0.13203630519133958	
9.785	0.223	-0.11650588522972338	
9.79	-0.723	-0.10134418885840933	
9.795	0.009	-0.07839208910695625	
9.8	0.822	-0.05542713226427787	
9.805	-0.535	-0.030910597175848677	
9.81	-0.365	-0.0025917917566322213	
9.815	0.958	0.021361285686209732	
9.82	-0.207	0.03746868801985179	
9.825	-0.608	0.04534646456933275	
9.83	0.750	0.05689326747468388	
9.835	0.571	0.08171264202991611	
9.84	-0.596	0.11359527236614464	
9.845	0.223	0.14441262727509163	
9.85	1.078	0.1667402163581292	
9.855	-0.413	0.18917704529252008	
9.86	-0.251	0.20418083774938608	
9.865	1.194	0.2113950008816252	
9.87	-0.086	0.21668090690305192	
9.875	-0.533	0.21020205746703052	
9.88	0.855	0.20374722411622403	
9.885	0.579	0.20492484092670446	
9.89	-0.587	0.20862790661598576	
9.895	0.177	0.20717318997334952	
9.9	0.950	0.19182429191936837	
9.905	-0.504	0.17337302812229657	
9.91	-0.384	0.1499924426610399	
9.915	0.904	0.11929880401652015	
9.92	-0.257	0.08192095681445356	
9.925	-0.677	0.04417369420085586	
9.93	0.551	0.01654557459636801	
9.935	0.275	-0.0059301224123998126	
9.94	-0.724	-0.023268386168304376	
9.945	-0.040	-0.030004581277487508	
9.95	0.805	-0.036132591959469676	
9.955	-0.546	-0.033474095556029156	
9.96	-0.414	-0.020129966548535307	
9.965	0.898	-0.007740695320576629	
9.97	-0.243	5.932293474430626e-05	
9.975	-0.672	-0.0009026910851243598	
9.98	0.550	-0.0005415535974276761	
9.985	0.292	-0.004807330309059915	
9.99	-0.708	-0.011291846260585197	
9.995	0.001	-0.011112065187094448	
10.0	0.852	-0.010023250467335662	
10.005	-0.530	-0.0014516021492758777	
10.01	-0.390	0.012730809951930462	
10.015	0.927	0.025338222286941464	
10.02	-0.225	0.030146849503187134	
10.025	-0.654	0.026944527155424006	
10.03	0.603	0.025479208215454355	
10.035	0.403	0.02735324803915603	
10.04	-0.642	0.0325831855621222	
10.045	0.110	0.04680821117687922	
10.05	0.968	0.0631650327568882	
10.055	-0.471	0.0835007133688935	
10.06	-0.329	0.10155126741186901	
10.065	1.065	0.11449818305398683	
10.07	-0.142	0.12223523833383965	
10.075	-0.570	0.12172525832506184	
10.08	0.770	0.12352417569847346	
10.085	0.567	0.13455745912972344	
10.09	-0.573	0.1514209505062673	
10.095	0.212	0.16768724265857976	
10.1	1.049	0.17938048518341473	
10.105	-0.451	0.188489666293926	
10.11	-0.358	0.1863350299231649	
10.115	0.955	0.16660990683250437	
10.12	-0.214	0.13436970607956225	
10.125	-0.660	0.09454516880511074	
10.13	0.551	0.06150313273677728	
10.135	0.368	0.033740086194696386	
10.14	-0.668	0.016334546444807328	
10.145	0.018	0.014586221609607476	
10.15	0.872	0.014549252899620484	
10.155	-0.523	0.020482775532991708	
10.16	-0.413	0.030190776998519023	
10.165	0.852	0.03174449153905003	
10.17	-0.239	0.02242177491845805	
10.175	-0.604	0.009361764767665556	
10.18	0.997	0.030620115265887534	
10.185	1.077	0.1109447143046702	
10.19	-0.265	0.03174449153905003	
10.195	0.735	0.03174449153905003	
10.2	1.309	0.03174449153905003	
10.205	-0.428	0.03174449153905003	
10.21	-0.394	0.03174449153905003	
10.215	0.897	0.03174449153905003	
10.22	-0.231	0.030620115265887534	
10.225	-0.669	0.16317708828041544	
10.23	0.553	0.07951093270695561	
10.235	0.348	0.022131653891543143	
10.24	-0.698	-0.010873864936045216	
10.245	-0.037	-0.02167553115105693	
10.25	0.829	-0.027092176535015833	
10.255	-0.547	-0.024455133734059158	
10.26	-0.442	-0.01419657638786448	
10.265	0.886	-0.005089504023965941	
10.27	-0.220	-0.00227391459102901	
10.275	-0.654	-0.003977896491224453	
10.28	0.605	0.0034753966694855516	
10.285	0.452	0.016286991220687483	
10.29	-0.628	0.03200991404600438	
10.295	0.139	0.05822239595580894	
10.3	1.054	0.08610635318999213	
10.305	-0.426	0.11750753946196879	
10.31	-0.313	0.14359365673068902	
10.315	1.133	0.16107797907772123	
10.32	-0.060	0.17283940046555962	
10.325	-0.535	0.1747682301486868	
10.33	0.892	0.1835097868211265	
10.335	0.767	0.20954356001990865	
10.34	-0.492	0.2448388792238585	
10.345	0.371	0.27904692900007794	
10.35	1.298	0.309357019100991	
10.355	-0.303	0.3395444685205081	
10.36	-0.208	0.35131322488260264	
10.365	1.309	0.34716557368888024	
10.37	0.085	0.3420801305422757	
10.375	-0.474	0.3285753511962607	
10.38	0.950	0.3153480094064224	
10.385	0.735	0.3138007501682941	
10.39	-0.552	0.3138789234168832	
10.395	0.168	0.29974407155967864	
10.4	1.065	0.2714362450127398	
10.405	-0.440	0.24282781423623867	
10.41	-0.376	0.21111320865096467	
10.415	0.958	0.1739832571066262	
10.42	-0.171	0.1333858239822341	
10.425	-0.651	0.09160817686147071	
10.43	0.567	0.06302921686208068	
10.435	0.395	0.041949611332072825	
10.44	-0.685	0.02611608479681333	
10.445	-0.042	0.020484700643769435	
10.45	0.872	0.013391079154722966	
10.455	-0.515	0.012114707493093188	
10.46	-0.437	0.01798437387928809	
10.465	0.887	0.021803950638730443	
10.47	-0.197	0.01961915215366973	
10.475	-0.660	0.011612953526037962	
10.48	0.576	0.012802376264798462	
10.485	0.438	0.01809367486024885	
10.49	-0.674	0.024224090023420696	
10.495	-0.037	0.033264396139449134	
10.5	0.881	0.032427827455827285	
10.505	-0.500	0.03228759647565777	
10.51	-0.419	0.03782757127382641	
10.515	0.907	0.04175331239299017	
10.52	-0.190	0.03780235622455386	
10.525	-0.674	0.027524281872527298	
10.53	0.585	0.023689423172822355	
10.535	0.475	0.026265034916756747	
10.54	-0.642	0.035215036262688904	
10.545	0.072	0.05311488122092247	
10.55	1.017	0.07056204858565229	
10.555	-0.445	0.09334682424802417	
10.56	-0.367	0.11063595349548004	
10.565	1.007	0.11980878241773275	
10.57	-0.121	0.11995777452887438	
10.575	-0.598	0.10936462371306137	
10.58	0.730	0.10763215739299163	
10.585	0.618	0.1194760338077014	
10.59	-0.592	0.1381495537728306	
10.595	0.061	0.15191796542282643	
10.6	0.974	0.14971564100759727	
10.605	-0.488	0.1404393695736839	
10.61	-0.442	0.12542451177549996	
10.615	0.893	0.10084259363650494	
10.62	-0.177	0.07115240537180748	
10.625	-0.671	0.04122900064500856	
10.63	0.521	0.023533791714959396	
10.635	0.409	0.01165564899901563	
10.64	-0.680	0.004120392937617205	
10.645	-0.049	0.0077867147433358045	
10.65	0.913	0.009867250011069369	
10.655	-0.504	0.017477803157648006	
10.66	-0.463	0.027254182166471918	
10.665	0.938	0.032938905091929205	
10.67	0.010	0.04226722672261764	
10.675	-0.401	0.06906995108837863	
10.68	1.269	0.14158485833944698	
10.685	1.101	0.04226722672261764	
10.69	-0.469	0.04226722672261764	
10.695	0.096	0.04226722672261764	
10.7	0.897	0.04226722672261764	
10.705	-0.533	0.33154165156915705	
10.71	-0.469	0.23706261614632884	
10.715	0.842	0.14697923933598941	
10.72	-0.207	0.06945266192016206	
10.725	-0.697	0.008943142007431052	
10.73	0.492	-0.022566993521479006	
10.735	0.415	-0.03598436429754942	
10.74	-0.694	-0.03698263717597905	
10.745	-0.084	-0.02650462587870038	
10.75	0.927	-0.015861153442621182	
10.755	-0.465	0.0006074421959478064	
10.76	-0.417	0.023917082429366923	
10.765	0.962	0.046014786404653694	
10.77	-0.138	0.05754081939759117	
10.775	-0.634	0.05878541819059057	
10.78	0.638	0.06341751383456634	
10.785	0.562	0.0761785729878176	
10.79	-0.614	0.09090436399317527	
10.795	0.061	0.10638273018672087	
10.8	1.065	0.11832617150915567	
10.805	-0.410	0.13259959503698995	
10.81	-0.350	0.14471336738264415	
10.815	1.107	0.15414369780791135	
10.82	-0.009	0.16268686191612491	
10.825	-0.552	0.16457875087302812	
10.83	0.803	0.17238870625775096	
10.835	0.751	0.19341062939488537	
10.84	-0.514	0.21981146865613727	
10.845	0.233	0.24419610942864986	
10.85	1.263	0.2645174722086743	
10.855	-0.307	0.2866861724674319	
10.86	-0.268	0.29746365898718774	
10.865	1.257	0.2971692944380089	
10.87	0.108	0.2979279333524787	
10.875	-0.526	0.2884338699866083	
10.88	0.780	0.27519689537406533	
10.885	0.678	0.2626342230276316	
10.89	-0.596	0.24888920401747733	
10.895	0.007	0.22491595042477558	
10.9	1.013	0.19056510211286043	
10.905	-0.463	0.1589552481963701	
10.91	-0.448	0.13129685215891607	
10.915	0.878	0.10199633562126298	
10.92	-0.176	0.06818711017765457	
10.925	-0.691	0.03347015716793799	
10.93	0.496	0.01294596628054525	
10.935	0.449	0.0007627800684557012	
10.94	-0.683	-0.0029336206856195235	
10.945	-0.115	0.000708629063207996	
10.95	0.866	-0.0014598782155826526	
10.955	-0.500	-0.001842172941131799	
10.96	-0.468	0.003189109561433226	
10.965	0.855	0.009890391715691033	
10.97	-0.158	0.00835358533340212	
10.975	-0.660	0.002439814135949925	
10.98	0.553	0.007812224384351415	
10.985	0.528	0.020890745091449434	
10.99	-0.648	0.0360873910141446	
10.995	-0.055	0.05155331762838376	
11.0	0.959	0.05763383286758235	
11.005	-0.448	0.06424271866705025	
11.01	-0.426	0.07102073058574727	
11.015	0.950	0.07692167209934703	
11.02	-0.115	0.07550805235517655	
11.025	-0.637	0.06629353698638679	
11.03	0.611	0.0647453860829955	
11.035	0.600	0.0740921947456451	
11.04	-0.610	0.08903008722919897	
11.045	-0.013	0.10338236149789849	
11.05	1.048	0.10880166291729525	
11.055	-0.394	0.11831543400330201	
11.06	-0.375	0.1278070029032478	
11.065	1.037	0.13597886220981015	
11.07	-0.051	0.13868950953696269	
11.075	-0.634	0.1291232883852649	
11.08	0.557	0.11765017161036301	
11.085	0.513	0.10329699500080311	
11.09	-0.657	0.08798959192815115	
11.095	-0.077	0.07621005910077538	
11.1	0.939	0.06196121066390611	
11.105	-0.463	0.052391302185720856	
11.11	-0.453	0.05160289279602596	
11.115	0.930	0.05304700598187116	
11.12	-0.106	0.05085565075254024	
11.125	-0.665	0.04394661618393707	
11.13	0.539	0.04361780365654755	
11.135	0.508	0.0445126078553292	
11.14	-0.676	0.04587030397412954	
11.145	-0.072	0.04806480004779939	
11.15	1.204	0.058197118687994355	
11.155	-0.202	0.0984205370953489	
11.16	-0.100	0.16438088775391047	
11.165	1.515	0.058197118687994355	
11.17	0.229	0.058197118687994355	
11.175	-0.590	0.058197118687994355	
11.18	0.542	0.058197118687994355	
11.185	0.504	0.058197118687994355	
11.19	-0.665	0.22884335835588912	
11.195	-0.116	0.15686862050354922	
11.2	0.900	0.09231822486701562	
11.205	-0.482	0.046532459054873965	
11.21	-0.486	0.022196397169034453	
11.215	0.867	0.012164231597374092	
11.22	-0.124	0.004189494236059833	
11.225	-0.669	-0.0033557151572027656	
11.23	0.522	0.0034813933736952156	
11.235	0.547	0.01589627886790393	
11.24	-0.640	0.03178011845800534	
11.245	-0.061	0.048743805773260984	
11.25	1.019	0.061462291908224664	
11.255	-0.414	0.07453197128155103	
11.26	-0.408	0.0900046504088218	
11.265	1.032	0.10427802570614207	
11.27	-0.009	0.11630842705014509	
11.275	-0.607	0.11842970598672449	
11.28	0.663	0.12447943042678626	
11.285	0.713	0.13912113919726907	
11.29	-0.558	0.15764919431054084	
11.295	0.101	0.17659017509407485	
11.3	1.217	0.1936895357387529	
11.305	-0.312	0.21556245284674366	
11.31	-0.323	0.23174962857191791	
11.315	1.213	0.24137648176504622	
11.32	0.198	0.25551735645991436	
11.325	-0.498	0.2652351488364343	
11.33	0.858	0.27737159532304456	
11.335	0.913	0.29836384867542304	
11.34	-0.477	0.32163504743891425	
11.345	0.214	0.33434363055657595	
11.35	1.271	0.3368042398046513	
11.355	-0.312	0.33474608740343764	
11.36	-0.362	0.31753230613559363	
11.365	1.081	0.2852761990956806	
11.37	0.021	0.24878252891455827	
11.375	-0.625	0.20620393384027724	
11.38	0.557	0.17011191790341135	
11.385	0.614	0.14053577502117628	
11.39	-0.628	0.1188193962911708	
11.395	-0.107	0.10408447317882417	
11.4	0.979	0.08577938816535782	
11.405	-0.442	0.07303478694526866	
11.41	-0.474	0.06641816063093692	
11.415	0.883	0.062088602756195585	
11.42	-0.112	0.05000607826411827	
11.425	-0.682	0.03223741665030015	
11.43	0.470	0.024885268342725156	
11.435	0.547	0.02265422736505974	
11.44	-0.640	0.02594673531660718	
11.445	-0.109	0.03588527218853392	
11.45	0.985	0.041799112596998866	
11.455	-0.417	0.05020478445059423	
11.46	-0.462	0.062270989133708696	
11.465	0.922	0.07102697639254096	
11.47	-0.054	0.07218962214202931	
11.475	-0.654	0.06416057755163528	
11.48	0.518	0.06275588551570305	
11.485	0.623	0.06582033875169749	
11.49	-0.602	0.0749565387790774	
11.495	-0.057	0.08771169719493374	
11.5	1.046	0.09590840456806947	
11.505	-0.371	0.10529958761700488	
11.51	-0.390	0.11709389170621816	
11.515	1.087	0.13306217213825816	
11.52	0.062	0.1493628513729467	
11.525	-0.601	0.15600931041989852	
11.53	0.625	0.15966124316707747	
11.535	0.739	0.16602712779196654	
11.54	-0.556	0.17492365172212768	
11.545	0.009	0.18251444328624178	
11.55	1.109	0.18105193295373623	
11.555	-0.378	0.1794107923901285	
11.56	-0.449	0.17087492761371076	
11.565	0.929	0.15405575939515093	
11.57	-0.055	0.1275676920369993	
11.575	-0.665	0.09590320271551078	
11.58	0.498	0.07454346844247173	
11.585	0.615	0.06421757419809973	
11.59	-0.630	0.06293109433185018	
11.595	-0.124	0.06733127094452909	
11.6	0.981	0.06416469617098464	
11.605	-0.422	0.0625195947617898	
11.61	-0.478	0.0647062329684491	
11.615	0.864	0.06507815784805326	
11.62	-0.048	0.05671887712505936	
11.625	-0.562	0.04877645557173173	
11.63	0.968	0.08052202063965512	
11.635	1.340	0.06733127094452909	
11.64	-0.275	0.06733127094452909	
11.645	0.359	0.06733127094452909	
11.65	1.254	0.06507815784805326	
11.655	-0.382	0.06507815784805326	
11.66	-0.495	0.06507815784805326	
11.665	0.832	0.328058391661741	
11.67	-0.092	0.2179984386475038	
11.675	-0.694	0.11767875231918205	
11.68	0.398	0.05026838331410745	
11.685	0.547	0.008631104473352774	
11.69	-0.659	-0.011013894290284112	
11.695	-0.170	-0.010102440643405677	
11.7	0.932	-0.007615115604680928	
11.705	-0.431	-0.00016487160418227845	
11.71	-0.489	0.01329079041658876	
11.715	0.893	0.029013350007276218	
11.72	-0.051	0.03819071256711544	
11.725	-0.674	0.036542832640989995	
11.73	0.484	0.04112936212770405	
11.735	0.655	0.049839697600767965	
11.74	-0.607	0.06394965260809696	
11.745	-0.095	0.08068164801988964	
11.75	1.094	0.09156063309847298	
11.755	-0.346	0.1069358030632038	
11.76	-0.420	0.12303758429215747	
11.765	1.054	0.13807101866663202	
11.77	0.133	0.15241635241250362	
11.775	-0.575	0.16135249106038213	
11.78	0.699	0.17502409660355672	
11.785	0.910	0.20109718859658418	
11.79	-0.491	0.23390794175745705	
11.795	0.116	0.26044235751067657	
11.8	1.317	0.27872413071746227	
11.805	-0.262	0.2970798618350962	
11.81	-0.341	0.3007812671279171	
11.815	1.223	0.296039866076667	
11.82	0.279	0.29870206874752414	
11.825	-0.524	0.2972562822176658	
11.83	0.724	0.29376113541107984	
11.835	0.867	0.29230703195281005	
11.84	-0.523	0.2900735412251986	
11.845	-0.049	0.27612862466596544	
11.85	1.100	0.24569476040605992	
11.855	-0.365	0.21342540889965345	
11.86	-0.475	0.18164935631998919	
11.865	0.877	0.14876514987270947	
11.87	-0.049	0.11097538521130323	
11.875	-0.694	0.07037452410503092	
11.88	0.398	0.043441355901176454	
11.885	0.608	0.02739859667564317	
11.89	-0.633	0.023348208741230243	
11.895	-0.147	0.0299040481155559	
11.9	0.977	0.03559683098120378	
11.905	-0.416	0.04270643532596992	
11.91	-0.514	0.04855830445836215	
11.915	0.838	0.051551949691848425	
11.92	-0.046	0.04419579632526202	
11.925	-0.680	0.030425395963837268	
11.93	0.417	0.026191470985260396	
11.935	0.623	0.02751006311089903	
11.94	-0.630	0.03350050046526021	
11.945	-0.165	0.04368223195364095	
11.95	0.956	0.046594133822650124	
11.955	-0.404	0.04791645900532981	
11.96	-0.509	0.04941616522641108	
11.965	0.835	0.051455745730067656	
11.97	-0.032	0.0454067379176913	
11.975	-0.672	0.03236673524003103	
11.98	0.450	0.031025807588024455	
11.985	0.725	0.04170011264850408	
11.99	-0.578	0.06254208677381637	
11.995	-0.103	0.08745869174378781	
12.0	1.092	0.10370595191437483	
12.005	-0.349	0.11906707153486863	
12.01	-0.456	0.1281920487990672	
12.015	1.002	0.13444399636999627	
12.02	0.127	0.14065198287869524	
12.025	-0.614	0.14023086968737442	
12.03	0.536	0.14184733891044746	
12.035	0.731	0.1449237984806115	
12.04	-0.621	0.14557056429907309	
12.045	-0.185	0.13719890664054127	
12.05	0.936	0.11181466642918175	
12.055	-0.428	0.08326094067930498	
12.06	-0.540	0.05898372602798186	
12.065	0.823	0.04139306523135398	
12.07	-0.020	0.026895167581212645	
12.075	-0.688	0.01113616341565537	
12.08	0.394	0.009682238059923767	
12.085	0.634	0.014137726580464497	
12.09	-0.637	0.02360152787468642	
12.095	-0.226	0.03297775243321435	
12.1	0.927	0.03194645452147005	
12.105	-0.336	0.03039710748991434	
12.11	-0.330	0.04676913409679285	
12.115	1.523	0.10845994968340589	
12.12	0.765	0.04676913409679285	
12.125	-0.405	0.04676913409679285	
12.13	0.692	0.04676913409679285	
12.135	0.724	0.04676913409679285	
12.14	-0.642	0.4076473625943082	
12.145	-0.223	0.32170534897415015	
12.15	0.903	0.22002403811610144	
12.155	-0.436	0.1276480217780724	
12.16	-0.567	0.05958551045545186	
12.165	0.724	0.014265787756856326	
12.17	-0.089	-0.022630034659890556	
12.175	-0.737	-0.054009326717796347	
12.18	0.269	-0.06468837083974575	
12.185	0.560	-0.06749596464571317	
12.19	-0.643	-0.059247274505289646	
12.195	-0.223	-0.039452712109471016	
12.2	0.904	-0.02292778216258907	
12.205	-0.413	-0.010263905284136069	
12.21	-0.540	0.0014132171378933845	
12.215	0.828	0.015284203803133127	
12.22	0.012	0.02151911838076271	
12.225	-0.663	0.021824015864172614	
12.23	0.449	0.03226297569797345	
12.235	0.745	0.0507263430925846	
12.24	-0.572	0.07563598973270483	
12.245	-0.133	0.09836633832453659	
12.25	1.097	0.11130971068555309	
12.255	-0.315	0.12377244895402138	
12.26	-0.442	0.13314114195757593	
12.265	1.051	0.14542118969625445	
12.27	0.281	0.16472925760616436	
12.275	-0.544	0.18457398290379665	
12.28	0.713	0.21019719414824006	
12.285	1.039	0.24800838663071068	
12.29	-0.436	0.290545195692813	
12.295	0.072	0.31712519772726533	
12.3	1.329	0.32850694454192464	
12.305	-0.205	0.3359054728087367	
12.31	-0.368	0.32787132292840965	
12.315	1.144	0.3113961497689101	
12.32	0.302	0.3000047186345829	
12.325	-0.576	0.28347297067056776	
12.33	0.539	0.26294389525228656	
12.335	0.811	0.24120849598614946	
12.34	-0.585	0.21870906021086234	
12.345	-0.188	0.1908464940439628	
12.35	0.981	0.1524872181603799	
12.355	-0.376	0.11521581889620328	
12.36	-0.541	0.08575294689455093	
12.365	0.809	0.06417336041550264	
12.37	0.000	0.043249010351981795	
12.375	-0.703	0.02054835802062261	
12.38	0.325	0.009680480618046286	
12.385	0.670	0.007319535646308457	
12.39	-0.624	0.012905199255982942	
12.395	-0.232	0.024627927263319346	
12.4	0.953	0.029451217930099215	
12.405	-0.376	0.03144204676692642	
12.41	-0.530	0.035623350270624285	
12.415	0.838	0.043038188266116606	
12.42	0.044	0.045460844097036435	
12.425	-0.692	0.0395202025219564	
12.43	0.334	0.03647997062649089	
12.435	0.684	0.03547723825596896	
12.44	-0.621	0.03898585150869725	
12.445	-0.223	0.04541223873530873	
12.45	0.947	0.04452112714316751	
12.455	-0.382	0.041608798719728696	
12.46	-0.550	0.03843543395066409	
12.465	0.851	0.04100097736808153	
12.47	0.096	0.04368599947783476	
12.475	-0.662	0.04441495448828113	
12.48	0.411	0.053330588199291186	
12.485	0.774	0.06769162094013942	
12.49	-0.572	0.08599301035674385	
12.495	-0.162	0.10318088902311219	
12.5	1.086	0.11166453369354308	
12.505	-0.312	0.1187532722245333	
12.51	-0.483	0.12219058964107515	
12.515	0.985	0.1290051694764217	
12.52	0.250	0.13993797900499327	
12.525	-0.601	0.1502585691367273	
12.53	0.473	0.15916046427162722	
12.535	0.779	0.16393165134519613	
12.54	-0.604	0.16100297198077915	
12.545	-0.234	0.14692113687999558	
12.55	0.939	0.11779772143775788	
12.555	-0.396	0.0849302673068579	
12.56	-0.581	0.05596223109319201	
12.565	0.742	0.033977118463818456	
12.57	0.010	0.011174333078699153	
12.575	-0.720	-0.010866323587662924	
12.58	0.273	-0.018972112467013143	
12.585	0.702	-0.016825194060086125	
12.59	-0.624	-0.005003034934950738	
12.595	-0.275	0.011702505162534654	
12.6	0.904	0.01596569705775091	
12.605	-0.315	0.017029191203596302	
12.61	-0.355	0.032730340209029096	
12.615	1.538	0.09910401671248456	
12.62	0.976	0.23644738185972086	
12.625	-0.332	0.033922355198715656	
12.63	0.744	0.033922355198715656	
12.635	0.858	0.033922355198715656	
12.64	-0.602	0.033922355198715656	
12.645	-0.258	0.033922355198715656	
12.65	0.918	0.288066045449777	
12.655	-0.388	0.17725771583034428	
12.66	-0.590	0.09155442994351634	
12.665	0.715	0.033922355198715656	
12.67	0.018	-0.008381136856765456	
12.675	-0.723	-0.038044276835105764	
12.68	0.227	-0.046288713965664675	
12.685	0.637	-0.04648033997340388	
12.69	-0.651	-0.039899552803416095	
12.695	-0.281	-0.026683718679120835	
12.7	0.933	-0.014901591223394666	
12.705	-0.361	-0.005663520500259117	
12.71	-0.556	0.00640882311573323	
12.715	0.794	0.020921365051218298	
12.72	0.079	0.02874282838959031	
12.725	-0.668	0.027816137818652602	
12.73	0.409	0.03766086350086865	
12.735	0.875	0.06172617104115093	
12.74	-0.527	0.09601894161587456	
12.745	-0.145	0.12713025752788307	
12.75	1.159	0.14729227602835093	
12.755	-0.245	0.16440519512262103	
12.76	-0.451	0.1731520875695879	
12.765	1.081	0.1849994502975269	
12.77	0.426	0.20798689351632083	
12.775	-0.517	0.23362421666765487	
12.78	0.687	0.26150865830714065	
12.785	1.121	0.2969795578509472	
12.79	-0.414	0.3340313864092787	
12.795	-0.006	0.35085090292617926	
12.8	1.364	0.35039847318430556	
12.805	-0.162	0.34864296813040463	
12.81	-0.408	0.33393075310116294	
12.815	1.094	0.3118370599219626	
12.82	0.369	0.2962849499967761	
12.825	-0.585	0.27765332485902194	
12.83	0.463	0.25716486676434397	
12.835	0.860	0.2341053488643003	
12.84	-0.556	0.2123363605101105	
12.845	-0.223	0.18757656843187487	
12.85	0.985	0.15223981764004074	
12.855	-0.364	0.11702142866709304	
12.86	-0.604	0.08189729320185614	
12.865	0.695	0.0514865093613292	
12.87	0.036	0.018516598521090232	
12.875	-0.729	-0.013136800139687889	
12.88	0.188	-0.028161616140022487	
12.885	0.626	-0.03787815791234608	
12.89	-0.639	-0.04135871936248845	
12.895	-0.301	-0.0326133615520801	
12.9	0.890	-0.025902251781933165	
12.905	-0.379	-0.020713670965373708	
12.91	-0.619	-0.01715840129478062	
12.915	0.667	-0.013719897834674125	
12.92	0.056	-0.02029958454974564	
12.925	-0.721	-0.030092390695618646	
12.93	0.204	-0.030366862909097573	
12.935	0.690	-0.026770981687724772	
12.94	-0.604	-0.01725118621897777	
12.945	-0.266	0.0002014431637335256	
12.95	0.918	0.013132046611190423	
12.955	-0.376	0.017428791235348174	
12.96	-0.593	0.01668532085949899	
12.965	0.764	0.018265389687412252	
12.97	0.160	0.020892842154025343	
12.975	-0.676	0.022782220677884452	
12.98	0.311	0.033519390556535356	
12.985	0.828	0.04844658381892689	
12.99	-0.537	0.07071475926084142	
12.995	-0.202	0.0939875626626648	
13.0	1.118	0.11030766915936323	
13.005	-0.260	0.12554150470369702	
13.01	-0.495	0.13343633505406763	
13.015	0.903	0.13930008530192622	
13.02	0.211	0.14111218018032995	
13.025	-0.688	0.13059769278412905	
13.03	0.240	0.11338784722681398	
13.035	0.744	0.0896902155739715	
13.04	-0.602	0.07069665074013595	
13.045	-0.292	0.058766978045293586	
13.05	0.912	0.04446774903513519	
13.055	-0.367	0.0276614454678443	
13.06	-0.610	0.014209822545009073	
13.065	0.744	0.00834630954279521	
13.07	0.149	0.006323610056828981	
13.075	-0.705	0.0044236750859667304	
13.08	0.201	0.00831341759153027	
13.085	0.673	0.007928295266875454	
13.09	-0.619	0.005593454754639896	
13.095	-0.213	0.012584732358022356	
13.1	1.401	0.04574505543706173	
13.105	0.124	0.12374762339387521	
13.11	-0.214	0.22391151437712853	
13.115	1.338	0.04574505543706173	
13.12	0.434	0.04574505543706173	
13.125	-0.669	0.04574505543706173	
13.13	0.172	0.04574505543706173	
13.135	0.698	0.280208630519298	
13.14	-0.621	0.18260486062247275	
13.145	-0.321	0.10634103509907195	
13.15	0.924	0.04984637236316546	
13.155	-0.347	0.011881671212602897	
13.16	-0.617	-0.008268276667852403	
13.165	0.702	-0.013572853226882968	
13.17	0.131	-0.017261913619312053	
13.175	-0.700	-0.01890578948386646	
13.18	0.250	-0.007880037232536018	
13.185	0.799	0.008383917067860517	
13.19	-0.561	0.029516160980018007	
13.195	-0.252	0.054180725212848176	
13.2	1.065	0.07202152765550413	
13.205	-0.257	0.08689002256565755	
13.21	-0.515	0.09750050564643206	
13.215	0.941	0.11356274928758961	
13.22	0.354	0.13389801783431216	
13.225	-0.599	0.151842564204276	
13.23	0.438	0.1690943330296972	
13.235	1.003	0.1876470583580621	
13.24	-0.466	0.2083794410195482	
13.245	-0.136	0.22298751709006315	
13.25	1.277	0.23026414686188612	
13.255	-0.142	0.2409519624214061	
13.26	-0.417	0.24523155524655157	
13.265	1.152	0.25564369553908983	
13.27	0.611	0.28313127732870214	
13.275	-0.489	0.3146642458272945	
13.28	0.634	0.33994789464137987	
13.285	1.191	0.3628753127267292	
13.29	-0.388	0.38341604729534906	
13.295	-0.072	0.3837313434495787	
13.3	1.347	0.36831724395492377	
13.305	-0.135	0.35118744791196455	
13.31	-0.466	0.3240720918216984	
13.315	0.927	0.2894448219616108	
13.32	0.347	0.25336397860326976	
13.325	-0.630	0.21775834323577364	
13.33	0.308	0.1876688503631953	
13.335	0.851	0.1599316962453966	
13.34	-0.564	0.13869170928620037	
13.345	-0.294	0.12055235801602883	
13.35	0.958	0.09815739458567019	
13.355	-0.321	0.07345936957167941	
13.36	-0.602	0.05108463790152386	
13.365	0.745	0.04020067597761537	
13.37	0.214	0.033514883569694134	
13.375	-0.688	0.028897436488326583	
13.38	0.206	0.032438043795221055	
13.385	0.785	0.03494674007778275	
13.39	-0.576	0.03989196801994029	
13.395	-0.291	0.049405276359444056	
13.4	1.011	0.05507369321634945	
13.405	-0.275	0.06065504548890723	
13.41	-0.562	0.06302300179870807	
13.415	0.785	0.07004581238515106	
13.42	0.238	0.07266748994390532	
13.425	-0.677	0.07092810846244416	
13.43	0.230	0.07126248482124803	
13.435	0.832	0.07003802707741569	
13.44	-0.547	0.073001467537614	
13.445	-0.275	0.08124245545068529	
13.45	1.037	0.0850794276598249	
13.455	-0.246	0.08780774269863963	
13.46	-0.549	0.08891135555464677	
13.465	0.845	0.0949782616179911	
13.47	0.328	0.10383172314750241	
13.475	-0.625	0.1118893367525965	
13.48	0.340	0.123129590821487	
13.485	0.944	0.13616822029409947	
13.49	-0.478	0.15304816421030926	
13.495	-0.194	0.16707225550540733	
13.5	1.164	0.17513259484970273	
13.505	-0.225	0.17994629650102428	
13.51	-0.569	0.1717601356080654	
13.515	0.727	0.15189861854802578	
13.52	0.191	0.12000720695966804	
13.525	-0.705	0.08286039569585443	
13.53	0.166	0.05497959818066913	
13.535	0.785	0.035299225590530336	
13.54	-0.576	0.027130027724682617	
13.545	-0.329	0.029908463487914996	
13.55	0.930	0.029165369721267886	
13.555	-0.303	0.026083089985214518	
13.56	-0.593	0.022650272469101687	
13.565	0.741	0.027877824657462937	
13.57	0.195	0.031155354094687226	
13.575	-0.692	0.028765397688704845	
13.58	0.333	0.037891069301315555	
13.585	1.201	0.07449568545460614	
13.59	-0.262	0.14713185726438768	
13.595	0.185	0.041682984897278036	
13.6	1.570	0.041682984897278036	
13.605	-0.086	0.041682984897278036	
13.61	-0.538	0.041682984897278036	
13.615	0.713	0.041682984897278036	
13.62	0.168	0.041682984897278036	
13.625	-0.721	0.19570375536387397	
13.63	0.094	0.10964252541036111	
13.635	0.745	0.041682984897278036	
13.64	-0.590	0.001268318980311893	
13.645	-0.344	-0.011545394672365403	
13.65	0.906	-0.014678548092291787	
13.655	-0.313	-0.01453539024839523	
13.66	-0.633	-0.013745270573431532	
13.665	0.676	-0.006275534410505514	
13.67	0.243	-0.00034309981721069227	
13.675	-0.679	0.005622636198444032	
13.68	0.188	0.0204670353739572	
13.685	0.851	0.033865141950033886	
13.69	-0.533	0.05126876789058901	
13.695	-0.280	0.07022667015173337	
13.7	1.072	0.08546452731989876	
13.705	-0.219	0.09758947755285849	
13.71	-0.543	0.10400874940791839	
13.715	0.872	0.11476099150237794	
13.72	0.446	0.13189716122360506	
13.725	-0.584	0.15043251151741044	
13.73	0.389	0.17233565868959905	
13.735	1.083	0.19513967996548004	
13.74	-0.416	0.2232375669948813	
13.745	-0.159	0.24295886658327112	
13.75	1.315	0.2546392886843475	
13.755	-0.066	0.26876253251262827	
13.76	-0.437	0.2747450920483031	
13.765	1.072	0.2797218701468833	
13.77	0.621	0.29517596431332005	
13.775	-0.515	0.3113360492822207	
13.78	0.504	0.321095833497165	
13.785	1.165	0.32933802450598126	
13.79	-0.405	0.33838522859165243	
13.795	-0.185	0.3306772695906789	
13.8	1.176	0.304599110547723	
13.805	-0.203	0.27106363063704847	
13.81	-0.562	0.22763754413382817	
13.815	0.745	0.1844568628029173	
13.82	0.288	0.14241923178095392	
13.825	-0.682	0.1044845844076108	
13.83	0.127	0.07778280003758474	
13.835	0.825	0.05537938993659579	
13.84	-0.562	0.04369155647248244	
13.845	-0.349	0.041489727467403106	
13.85	0.922	0.038442092869339986	
13.855	-0.291	0.030347337534006095	
13.86	-0.625	0.02061658110844495	
13.865	0.675	0.019215289892516876	
13.87	0.259	0.018597867603377928	
13.875	-0.695	0.016583244076176944	
13.88	0.117	0.020538492495157858	
13.885	0.845	0.023446026121884192	
13.89	-0.546	0.03186964344061079	
13.895	-0.330	0.04529421632509881	
13.9	0.965	0.053403092972226084	
13.905	-0.266	0.05455934077151425	
13.91	-0.624	0.04849731380044518	
13.915	0.676	0.0450829260035346	
13.92	0.307	0.04180514331251225	
13.925	-0.665	0.039573265675603084	
13.93	0.152	0.045346176988815434	
13.935	0.872	0.051591600031743144	
13.94	-0.509	0.0619564846330543	
13.945	-0.283	0.07708632572171993	
13.95	1.063	0.09146824909530953	
13.955	-0.200	0.10273365407457562	
13.96	-0.562	0.10630839857839888	
13.965	0.816	0.11203094477419377	
13.97	0.437	0.12204141212834152	
13.975	-0.607	0.13247132505492537	
13.98	0.285	0.14616074178640578	
13.985	0.994	0.15681010582676363	
13.99	-0.474	0.17000465433436718	
13.995	-0.281	0.17481790048777018	
14.0	1.042	0.1675619469821506	
14.005	-0.243	0.14993666172190673	
14.01	-0.631	0.1220898978991734	
14.015	0.623	0.092954521713847	
14.02	0.264	0.06029470557405682	
14.025	-0.695	0.032392808062976015	
14.03	0.078	0.01897936622447363	
14.035	0.808	0.00901753390685786	
14.04	-0.556	0.008054334226635103	
14.045	-0.367	0.015600955703270743	
14.05	0.918	0.02168696435423398	
14.055	-0.271	0.02107130941997102	
14.06	-0.659	0.01586744074025595	
14.065	0.582	0.010987524209501066	
14.07	0.343	0.005503979821498561	
14.075	-0.529	0.01321153504501764	
14.08	0.731	0.06994025855759002	
14.085	1.665	0.02563408198119441	
14.09	-0.185	0.02563408198119441	
14.095	-0.115	0.02563408198119441	
14.1	1.167	0.02563408198119441	
14.105	-0.226	0.02563408198119441	
14.11	-0.636	0.02563408198119441	
14.115	0.617	0.02563408198119441	
14.12	0.259	0.15783886091596433	
14.125	-0.715	0.07709829854274096	
14.13	0.042	0.02563408198119441	
14.135	0.799	-0.007466392386118183	
14.14	-0.575	-0.020886625494525177	
14.145	-0.401	-0.017936398655208054	
14.15	0.886	-0.013052651167688025	
14.155	-0.275	-0.012542868915090079	
14.16	-0.659	-0.013613601573068776	
14.165	0.609	-0.009107960368222288	
14.17	0.345	-0.003954873895346543	
14.175	-0.657	0.005978213409859064	
14.18	0.140	0.026485386716067236	
14.185	0.922	0.04573823025762538	
14.19	-0.509	0.06708221053694527	
14.195	-0.304	0.08684675566898883	
14.2	1.120	0.10412819602759847	
14.205	-0.136	0.1215620277951837	
14.21	-0.540	0.13212452043016176	
14.215	0.870	0.14595092040447094	
14.22	0.563	0.16628161467546643	
14.225	-0.556	0.18877114381860555	
14.23	0.391	0.21235837635962604	
14.235	1.226	0.24202319413784662	
14.24	-0.344	0.2780613259799748	
14.245	-0.155	0.30256372552704436	
14.25	1.393	0.31727991307458403	
14.255	0.091	0.3357688315391949	
14.26	-0.407	0.3468776770619762	
14.265	1.092	0.35485518827358564	
14.27	0.768	0.3705686600411287	
14.275	-0.494	0.3837341466578287	
14.28	0.412	0.38406370825595887	
14.285	1.164	0.3721662261418785	
14.29	-0.407	0.35628495830029827	
14.295	-0.275	0.3263067655198213	
14.3	1.084	0.2811621180688675	
14.305	-0.187	0.23108529374247982	
14.31	-0.607	0.17784273411131413	
14.315	0.672	0.13455979651749916	
14.32	0.351	0.09877342668262767	
14.325	-0.680	0.07093420496056457	
14.33	0.104	0.056775424263208446	
14.335	0.916	0.05017059562480695	
14.34	-0.518	0.054594273644374976	
14.345	-0.367	0.06313748233391772	
14.35	0.933	0.06597762191633932	
14.355	-0.248	0.05836109303425971	
14.36	-0.645	0.04283497014860463	
14.365	0.626	0.0342920159498897	
14.37	0.360	0.029952688265333913	
14.375	-0.669	0.028069400227905588	
14.38	0.065	0.03450067998983767	
14.385	0.890	0.038208196523693644	
14.39	-0.515	0.04582322286184326	
14.395	-0.365	0.05694450721659792	
14.4	0.979	0.06389233657606642	
14.405	-0.188	0.06661414308753219	
14.41	-0.619	0.06275003584924946	
14.415	0.669	0.06409965797992212	
14.42	0.427	0.06615962692803679	
14.425	-0.651	0.07111552155675593	
14.43	0.105	0.07826482541203042	
14.435	0.932	0.08231440959290569	
14.44	-0.500	0.08697974722815281	
14.445	-0.353	0.09273418705057118	
14.45	1.045	0.0968785451079065	
14.455	-0.159	0.09883716896975478	
14.46	-0.599	0.09561861007281312	
14.465	0.741	0.09796337929204268	
14.47	0.551	0.10738761672050749	
14.475	-0.581	0.1261170026887325	
14.48	0.230	0.14803974358770244	
14.485	1.066	0.1674524531376634	
14.49	-0.416	0.18611623725619664	
14.495	-0.277	0.19750302076156268	
14.5	1.162	0.2018704034003384	
14.505	-0.092	0.2020702040805456	
14.51	-0.575	0.19148440751254112	
14.515	0.667	0.17378986083755854	
14.52	0.398	0.1485968913837882	
14.525	-0.679	0.11914978750892355	
14.53	0.021	0.09280815070674531	
14.535	0.864	0.06656447689674665	
14.54	-0.526	0.04829329364012529	
14.545	-0.401	0.04130894620706452	
14.55	0.906	0.03683636846237618	
14.555	-0.228	0.02828091874154852	
14.56	-0.643	0.01738577455307182	
14.565	0.637	0.017680845195375605	
14.57	0.380	0.02379780079850768	
14.575	-0.689	0.028119134591120795	
14.58	0.041	0.03561894758700514	
14.585	1.112	0.048740064145567766	
14.59	-0.245	0.08939421105147224	
14.595	0.125	0.1650980431201162	
14.6	1.850	0.057650289769910865	
14.605	0.397	0.057650289769910865	
14.61	-0.453	0.057650289769910865	
14.615	0.758	0.057650289769910865	
14.62	0.395	0.48006473406218164	
14.625	-0.717	0.37115917321480174	
14.63	-0.049	0.25331725387090387	
14.635	0.813	0.1418495911768446	
14.64	-0.558	0.057650289769910865	
14.645	-0.440	0.008854067928862898	
14.65	0.846	-0.017226602351095098	
14.655	-0.263	-0.03520837100460314	
14.66	-0.709	-0.0488396168810986	
14.665	0.505	-0.0516995038214291	
14.67	0.343	-0.05075970615483956	
14.675	-0.691	-0.04375059004587771	
14.68	0.000	-0.026880418715761904	
14.685	0.884	-0.011105265165551891	
14.69	-0.521	0.006757181971348247	
14.695	-0.414	0.0246764880806943	
14.7	0.921	0.0357562822419512	
14.705	-0.177	0.0389494307380002	
14.71	-0.610	0.038049603571739976	
14.715	0.684	0.047227133833803656	
14.72	0.486	0.06341036613690784	
14.725	-0.624	0.08019331030920768	
14.73	0.133	0.09796888230046928	
14.735	1.065	0.11605624834484402	
14.74	-0.413	0.13781135190999472	
14.745	-0.287	0.15847055712698122	
14.75	1.196	0.17583563862670576	
14.755	-0.025	0.19412795927828436	
14.76	-0.508	0.2028557877687076	
14.765	0.927	0.2141397647030332	
14.77	0.756	0.2406678697632143	
14.775	-0.506	0.27115633328332267	
14.78	0.305	0.29170701290545736	
14.785	1.213	0.3032095769758867	
14.79	-0.358	0.3129991969022269	
14.795	-0.291	0.30519764688622986	
14.8	1.124	0.28174778169487824	
14.805	-0.097	0.2504517436647212	
14.81	-0.599	0.20978499192939465	
14.815	0.643	0.17082841970673382	
14.82	0.443	0.13589642390503315	
14.825	-0.679	0.10535659199048289	
14.83	-0.051	0.07937479934196061	
14.835	0.857	0.05020689090171281	
14.84	-0.535	0.029353549208537014	
14.845	-0.457	0.01802880099507103	
14.85	0.838	0.008528692528487593	
14.855	-0.232	-0.004244766665439491	
14.86	-0.708	-0.02118249555518338	
14.865	0.492	-0.028472375693594384	
14.87	0.359	-0.03294563333977123	
14.875	-0.708	-0.03446179285832097	
14.88	-0.075	-0.02788715112557043	
14.885	0.849	-0.024791082348337316	
14.89	-0.521	-0.01740849712885198	
14.895	-0.448	-0.005140811205102607	
14.9	0.848	0.0034123718890594857	
14.905	-0.205	0.002985707613074943	
14.91	-0.688	-0.005238937867136675	
14.915	0.504	-0.007654803318183707	
14.92	0.400	-0.009767912379191845	
14.925	-0.688	-0.008415894598146392	
14.93	-0.074	-0.00208983191733776	
14.935	0.866	-0.001695207792856812	
14.94	-0.518	0.0017121387276747588	
14.945	-0.442	0.00968107571832608	
14.95	0.881	0.01642992106319919	
14.955	-0.194	0.016149820500785967	
14.96	-0.669	0.008622791116370952	
14.965	0.547	0.008285998362078058	
14.97	0.447	0.011420616071730224	
14.975	-0.656	0.01850698301836929	
14.98	0.001	0.03177315379419718	
14.985	0.965	0.04249022107791559	
14.99	-0.449	0.0587264465327859	
14.995	-0.375	0.07547247599486478	
15.0	1.026	0.0915565187956615	
15.005	-0.100	0.10228585454849728	
15.01	-0.595	0.10339814535355327	
15.015	0.736	0.10928635122316002	
15.02	0.583	0.12465936274271738	
15.025	-0.625	0.13935760295986452	
15.03	-0.003	0.14259269698326013	
15.035	0.929	0.12771885124298354	
15.04	-0.508	0.10876194161729263	
15.045	-0.454	0.0892210355127066	
15.05	0.863	0.06666665652302611	
15.055	-0.199	0.040472103348633104	
15.06	-0.698	0.012189387125499029	
15.065	0.492	-0.003759916610675593	
15.07	0.426	-0.013107029546996121	
15.075	-0.683	-0.013738108565028499	
15.08	-0.080	-0.006544743644890752	
15.085	0.907	-0.0010622017309957644	
15.09	-0.498	0.007762156758203575	
15.095	-0.459	0.019999651025048793	
15.1	0.918	0.028821428405649843	
15.105	-0.003	0.03859660189579956	
15.11	-0.417	0.06196443081888198	
15.115	1.286	0.13332239395952533	
15.12	1.178	0.26315555344878916	
15.125	-0.442	0.03859660189579956	
15.13	0.120	0.03859660189579956	
15.135	0.947	0.03859660189579956	
15.14	-0.512	0.03859660189579956	
15.145	-0.477	0.27074355291718	
15.15	0.842	0.17490041609831222	
15.155	-0.199	0.08982214540335745	
15.16	-0.702	0.02179189785102508	
15.165	0.476	-0.016844967904272264	
15.17	0.409	-0.03565587355345744	
15.175	-0.694	-0.04090414202879902	
15.18	-0.087	-0.03288352475931883	
15.185	0.919	-0.022701202283866222	
15.19	-0.478	-0.006106967203147592	
15.195	-0.445	0.015574322726396174	
15.2	0.893	0.03093144808236667	
15.205	-0.159	0.034934710099424296	
15.21	-0.656	0.028628513682326114	
15.215	0.594	0.03212450310035911	
15.22	0.557	0.04352337748826661	
15.225	-0.624	0.06098609471897041	
15.23	0.003	0.07898714032489519	
15.235	1.022	0.09048797318196146	
15.24	-0.425	0.10188757976669584	
15.245	-0.390	0.1133737254690198	
15.25	1.049	0.12107408740916734	
15.255	-0.003	0.12806436610136057	
15.26	-0.556	0.1324129964480328	
15.265	0.800	0.147132565442393	
15.27	0.771	0.177740446362178	
15.275	-0.520	0.21285010853660208	
15.28	0.244	0.24284294542779145	
15.285	1.288	0.26870337369991193	
15.29	-0.301	0.2959163443238187	
15.295	-0.268	0.30812962535332983	
15.3	1.281	0.30914956211039524	
15.305	0.131	0.31127381799745824	
15.31	-0.524	0.303236122206616	
15.315	0.794	0.28997463113266425	
15.32	0.725	0.27897090902548827	
15.325	-0.585	0.26690278980680526	
15.33	0.015	0.24457142660218956	
15.335	0.996	0.2077606899283796	
15.34	-0.440	0.1721710158464551	
15.345	-0.428	0.14096991276109483	
15.35	0.921	0.11399442505007831	
15.355	-0.139	0.08552093418113538	
15.36	-0.688	0.05526130490856476	
15.365	0.489	0.03473509969498737	
15.37	0.470	0.020098088760008757	
15.375	-0.688	0.012067419505144797	
15.38	-0.109	0.01137200802892313	
15.385	0.898	0.007751118499864712	
15.39	-0.488	0.008370365431298429	
15.395	-0.469	0.014846991845989093	
15.4	0.897	0.021885033318124608	
15.405	-0.145	0.023702641727531976	
15.41	-0.680	0.01723246592593902	
15.415	0.501	0.01657567200362426	
15.42	0.499	0.018230937699395988	
15.425	-0.656	0.023122634663078047	
15.43	-0.075	0.03219991935201807	
15.435	0.967	0.03781745143930963	
15.44	-0.460	0.04649184959416999	
15.445	-0.453	0.05568819029345159	
15.45	0.919	0.06086581768448912	
15.455	-0.115	0.0588719148162955	
15.46	-0.669	0.048134982385261454	
15.465	0.528	0.04347295107015061	
15.47	0.544	0.04340241096866048	
15.475	-0.631	0.0491138576877855	
15.48	-0.061	0.05903408051226643	
15.485	0.993	0.06393513401464751	
15.49	-0.430	0.07057642647476306	
15.495	-0.425	0.08051569759668076	
15.5	0.997	0.08990555559030833	
15.505	-0.040	0.09602488940267276	
15.51	-0.601	0.0959935687940145	
15.515	0.695	0.10541905475037569	
15.52	0.716	0.12759434545649123	
15.525	-0.570	0.15404478134020172	
15.53	0.020	0.1728637025507273	
15.535	1.054	0.1740896291205885	
15.54	-0.428	0.16863990181879876	
15.545	-0.459	0.15530882865905662	
15.55	0.901	0.13194972062113586	
15.555	-0.127	0.10019527375338293	
15.56	-0.697	0.06285106139493418	
15.565	0.444	0.03633903670844215	
15.57	0.504	0.01577448187122729	
15.575	-0.666	0.007013842944915871	
15.58	-0.122	0.009741316496394077	
15.585	0.906	0.00923133664450897	
15.59	-0.460	0.011671110900586097	
15.595	-0.465	0.020161875182933806	
15.6	0.887	0.03105355259779837	
15.605	-0.112	0.0332747223558756	
15.61	-0.602	0.030668453004502782	
15.615	0.922	0.0584146317275343	
15.62	1.222	0.1430035468001491	
15.625	-0.268	0.2678448098750096	
15.63	0.518	0.0584146317275343	
15.635	1.341	0.0584146317275343	
15.64	-0.388	0.0584146317275343	
15.645	-0.456	0.0584146317275343	
15.65	0.861	0.0584146317275343	
15.655	-0.130	0.2575262966889979	
15.66	-0.689	0.1484807298219578	
15.665	0.452	0.07224925166279914	
15.67	0.499	0.022237678599566157	
15.675	-0.671	-0.004144671837754017	
15.68	-0.129	-0.008631097615239612	
15.685	0.932	-0.007372407176928315	
15.69	-0.453	-0.00016789223228914148	
15.695	-0.471	0.014654183640456082	
15.7	0.945	0.03218657817344675	
15.705	-0.045	0.045731121394179	
15.71	-0.642	0.05326237845518095	
15.715	0.539	0.06314733384496701	
15.72	0.625	0.07449286427247083	
15.725	-0.610	0.08674631060874105	
15.73	-0.060	0.09814834295106087	
15.735	1.081	0.10386772938666314	
15.74	-0.367	0.11489454682336307	
15.745	-0.398	0.1273680099962738	
15.75	1.069	0.14030027183431948	
15.755	0.085	0.1519470558983377	
15.76	-0.564	0.1600214701484802	
15.765	0.748	0.1740874878611836	
15.77	0.866	0.20078069458841916	
15.775	-0.489	0.23364577650653512	
15.78	0.211	0.2639215993447229	
15.785	1.370	0.29209684065539016	
15.79	-0.226	0.32399167283879204	
15.795	-0.255	0.3420683506738992	
15.8	1.350	0.3503410115902082	
15.805	0.327	0.36523377211931074	
15.81	-0.483	0.3728451184787237	
15.815	0.838	0.37085690789420533	
15.82	0.887	0.3670418963140075	
15.825	-0.509	0.35974993641151937	
15.83	0.056	0.3375865777450773	
15.835	1.149	0.3021257142464595	
15.84	-0.364	0.2673267765933575	
15.845	-0.440	0.22988925660866816	
15.85	0.918	0.18908893390022768	
15.855	-0.071	0.1435414060555919	
15.86	-0.680	0.09594064307502503	
15.865	0.438	0.06251932336805041	
15.87	0.576	0.04016832812916205	
15.875	-0.634	0.03103751343294722	
15.88	-0.122	0.034324378351745344	
15.885	0.939	0.03602807943925886	
15.89	-0.448	0.0366384692199402	
15.895	-0.508	0.03878529088780726	
15.9	0.829	0.03886567739701619	
15.905	-0.090	0.028778701511755718	
15.91	-0.674	0.013983887822628278	
15.915	0.482	0.013269872293556027	
15.92	0.628	0.023300464043860537	
15.925	-0.625	0.04017057714691858	
15.93	-0.119	0.05808609677313807	
15.935	0.977	0.06505376751757014	
15.94	-0.423	0.06784491021370866	
15.945	-0.489	0.0696125292424565	
15.95	0.875	0.06878539320484808	
15.955	-0.072	0.05900621589518191	
15.96	-0.692	0.041900295234744186	
15.965	0.449	0.03209259405460959	
15.97	0.618	0.030499285238041785	
15.975	-0.628	0.03721265581713157	
15.98	-0.122	0.04986845533536078	
15.985	1.026	0.057170725580596264	
15.99	-0.391	0.06899239786644307	
15.995	-0.462	0.08040188043376462	
16.0	0.968	0.09077887081250338	
16.005	0.023	0.09722542244946909	
16.01	-0.614	0.09676964657949408	
16.015	0.618	0.10495777975835559	
16.02	0.773	0.1257200766644575	
16.025	-0.553	0.15120955511899037	
16.03	-0.005	0.17062903048263944	
16.035	1.191	0.182306336421316	
16.04	-0.326	0.19515823169527363	
16.045	-0.425	0.20015660930761353	
16.05	0.950	0.19072760212227158	
16.055	-0.028	0.16648787632384338	
16.06	-0.676	0.12966436303233658	
16.065	0.429	0.09774574358313387	
16.07	0.597	0.07093944163980964	
16.075	-0.633	0.05429809072313285	
16.08	-0.161	0.049385398753448675	
16.085	0.942	0.04138260025562493	
16.09	-0.419	0.03634402035528643	
16.095	-0.504	0.03697940302218422	
16.1	0.846	0.03969825681005794	
16.105	-0.064	0.03569429738051071	
16.11	-0.705	0.022548043003904363	
16.115	0.366	0.013625426779622954	
16.12	0.606	0.008139825273005654	
16.125	-0.550	0.015272793184331555	
16.13	0.253	0.05522842554990781	
16.135	1.731	0.1476084318902231	
16.14	0.078	0.05390068518157602	
16.145	-0.197	0.05390068518157602	
16.15	1.181	0.05390068518157602	
16.155	0.061	0.05390068518157602	
16.16	-0.689	0.39937420508676	
16.165	0.362	0.30341030971871863	
16.17	0.560	0.20040931824469033	
16.175	-0.668	0.11336714555471097	
16.18	-0.216	0.05390068518157602	
16.185	0.869	0.009626967192007944	
16.19	-0.459	-0.018293709301450196	
16.195	-0.555	-0.028463948338360606	
16.2	0.767	-0.029389838194158777	
16.205	-0.095	-0.03280266648556012	
16.21	-0.712	-0.04165907063553556	
16.215	0.347	-0.03774460837388045	
16.22	0.600	-0.02942164532422959	
16.225	-0.630	-0.014630591452011045	
16.23	-0.156	0.00769277639443108	
16.235	1.007	0.026757357598948938	
16.24	-0.385	0.044795111875444805	
16.245	-0.485	0.06129880597707383	
16.25	0.921	0.0746711038747869	
16.255	0.065	0.08340131787722772	
16.26	-0.622	0.08613103018017576	
16.265	0.557	0.09618226428877967	
16.27	0.834	0.11785144358936947	
16.275	-0.529	0.148272618237049	
16.28	-0.019	0.17446223004323175	
16.285	1.225	0.19198212613736526	
16.29	-0.265	0.21089306875994238	
16.295	-0.358	0.22401932884930126	
16.3	1.213	0.23773360912600763	
16.305	0.360	0.2616617328249623	
16.31	-0.492	0.28594704604693405	
16.315	0.816	0.3070084129130206	
16.32	1.048	0.3361020919199348	
16.325	-0.440	0.36431690110975384	
16.33	0.099	0.3731718286788539	
16.335	1.321	0.3650520392591756	
16.34	-0.258	0.35415753335713984	
16.345	-0.411	0.32781460048749705	
16.35	1.014	0.28952512417172593	
16.355	0.107	0.2469616702003955	
16.36	-0.642	0.20001582394992257	
16.365	0.444	0.16065839641690485	
16.37	0.660	0.12722324349449823	
16.375	-0.625	0.10163104976637301	
16.38	-0.197	0.08390083515809199	
16.385	0.915	0.061913922551165096	
16.39	-0.430	0.04152061135665851	
16.395	-0.559	0.025756636298954767	
16.4	0.776	0.016235583860066814	
16.405	-0.066	0.00220248013826505	
16.41	-0.731	-0.0168667404146493	
16.415	0.305	-0.025643363101769512	
16.42	0.580	-0.029688085962371387	
16.425	-0.662	-0.027146662320403157	
16.43	-0.246	-0.017333819742250206	
16.435	0.870	-0.01513908108131867	
16.44	-0.433	-0.01522941945116876	
16.445	-0.555	-0.01337195758467883	
16.45	0.791	-0.005910470713321746	
16.455	-0.040	-0.004572156937983811	
16.46	-0.715	-0.010894831341097606	
16.465	0.313	-0.011847958281464581	
16.47	0.592	-0.012517499760249804	
16.475	-0.659	-0.009076914125294046	
16.48	-0.242	-0.002558805130395736	
16.485	0.900	-0.0010415270043948326	
16.49	-0.417	-0.0020701248973970113	
16.495	-0.543	0.0014117226661286017	
16.5	0.814	0.009085292322885907	
16.505	0.026	0.013656618339362638	
16.51	-0.685	0.013948482355832775	
16.515	0.391	0.021033407266467796	
16.52	0.727	0.033735235726568766	
16.525	-0.588	0.052872407271695725	
16.53	-0.141	0.07421415419980446	
16.535	1.098	0.09016624975629943	
16.54	-0.332	0.10702553892064667	
16.545	-0.463	0.11912715809180723	
16.55	0.993	0.12915829909036286	
16.555	0.177	0.1399004198805352	
16.56	-0.640	0.14372804974141973	
16.565	0.405	0.14090475702497304	
16.57	0.667	0.12699930774645987	
16.575	-0.639	0.10882427092350414	
16.58	-0.234	0.08898263651141577	
16.585	0.909	0.0633507053764999	
16.59	-0.423	0.03813933910637332	
16.595	-0.576	0.018890664915979953	
16.6	0.750	0.007213287353826618	
16.605	-0.016	-0.00590184096904072	
16.61	-0.703	-0.020458144407879676	
16.615	0.345	-0.019136639839785374	
16.62	0.647	-0.009736594063580751	
16.625	-0.637	0.00369713961250554	
16.63	-0.236	0.01778568677872258	
16.635	1.000	0.02662524494429319	
16.64	-0.260	0.04016975501540911	
16.645	-0.287	0.07259145112996701	
16.65	1.573	0.14943442012452512	
16.655	0.788	0.27936479617619714	
16.66	-0.434	0.05030552074422446	
16.665	0.602	0.05030552074422446	
16.67	0.741	0.05030552074422446	
16.675	-0.633	0.05030552074422446	
16.68	-0.248	0.30949232849153374	
16.685	0.901	0.20584927553349075	
16.69	-0.416	0.11534700788879279	
16.695	-0.575	0.05030552074422446	
16.7	0.770	0.01238633116895841	
16.705	-0.005	-0.013405933589014176	
16.71	-0.715	-0.030911986077001866	
16.715	0.314	-0.031351860964705255	
16.72	0.663	-0.022162063668432718	
16.725	-0.625	-0.007429570048970415	
16.73	-0.207	0.013303458295544553	
16.735	1.010	0.030041480474448247	
16.74	-0.347	0.045387738023769664	
16.745	-0.504	0.05902218946434926	
16.75	0.932	0.07649980686771114	
16.755	0.181	0.09280018138475671	
16.76	-0.633	0.10380975496596652	
16.765	0.484	0.1175901195673842	
16.77	0.883	0.13515679159594504	
16.775	-0.521	0.15842683406288677	
16.78	-0.118	0.17605447285118253	
16.785	1.190	0.18332605569653226	
16.79	-0.245	0.1904648778301437	
16.795	-0.410	0.19569636119857783	
16.8	1.139	0.20661872148465	
16.805	0.438	0.23206834788228883	
16.81	-0.498	0.2605617144114435	
16.815	0.776	0.29146841224506	
16.82	1.168	0.3324614148104159	
16.825	-0.401	0.3753869970372874	
16.83	0.079	0.3957586628743397	
16.835	1.411	0.398487435107594	
16.84	-0.158	0.39768017307528664	
16.845	-0.384	0.3794220499219877	
16.85	1.106	0.3494900844039274	
16.855	0.318	0.32139106609888485	
16.86	-0.593	0.2895440628235436	
16.865	0.501	0.2591279199462456	
16.87	0.874	0.23263933673444917	
16.875	-0.556	0.21366959674703495	
16.88	-0.202	0.19244907290503746	
16.885	1.000	0.16036985551489719	
16.89	-0.365	0.12607045927649832	
16.895	-0.567	0.09334786594213003	
16.9	0.759	0.06816491753682571	
16.905	0.049	0.04165848294774564	
16.91	-0.711	0.015706453955334085	
16.915	0.263	0.0037841515677396868	
16.92	0.702	-0.001295917690559125	
16.925	-0.611	0.003961251448774933	
16.93	-0.263	0.017215442411528822	
16.935	0.930	0.02325428890579359	
16.94	-0.358	0.024359193858796424	
16.945	-0.566	0.02525985352365737	
16.95	0.777	0.02995253028802229	
16.955	0.096	0.029876757999381387	
16.96	-0.686	0.02474656001603252	
16.965	0.299	0.027544684724714007	
16.97	0.731	0.03182424744719126	
16.975	-0.593	0.04109337620560505	
16.98	-0.239	0.05199965090664568	
16.985	1.003	0.05828195545441636	
16.99	-0.347	0.060555274788866534	
16.995	-0.566	0.06008807300713482	
17.0	0.816	0.05987180492533927	
17.005	0.171	0.059110351145570686	
17.01	-0.654	0.05767553098867703	
17.015	0.380	0.06636262395647555	
17.02	0.825	0.08102356036548701	
17.025	-0.552	0.09914440721135577	
17.03	-0.187	0.11475520455649224	
17.035	1.092	0.12238523255366586	
17.04	-0.281	0.12773847396724025	
17.045	-0.489	0.12886538399255043	
17.05	0.970	0.13483078495658357	
17.055	0.293	0.1463754111079529	
17.06	-0.624	0.15455163274236067	
17.065	0.363	0.1581440009456125	
17.07	0.774	0.15025335316752295	
17.075	-0.595	0.137211698020803	
17.08	-0.260	0.12148437857504954	
17.085	0.971	0.0974851523041294	
17.09	-0.361	0.07394905329656584	
17.095	-0.595	0.0536470490874285	
17.1	0.733	0.03776341435019363	
17.105	0.085	0.021619312785145544	
17.11	-0.714	0.0034593117921739155	
17.115	0.247	-0.001006284084278778	
17.12	0.756	0.0014805589796527035	
17.125	-0.595	0.013227741992966488	
17.13	-0.272	0.03125696330085143	
17.135	0.974	0.040629045570362586	
17.14	-0.274	0.047070593700620014	
17.145	-0.375	0.06341863081852134	
17.15	1.468	0.1238548092677397	
17.155	0.904	0.2439003758857808	
17.16	-0.398	0.05621850786366939	
17.165	0.573	0.05621850786366939	
17.17	0.814	0.05621850786366939	
17.175	-0.613	0.4152434206088148	
17.18	-0.307	0.3259793247139544	
17.185	0.907	0.22174035717594928	
17.19	-0.370	0.1273089892923153	
17.195	-0.607	0.05621850786366939	
17.2	0.706	0.013698164991768923	
17.205	0.058	-0.015898790925271883	
17.21	-0.729	-0.03875260887289209	
17.215	0.195	-0.04234718502569896	
17.22	0.706	-0.039104154791740495	
17.225	-0.616	-0.027689319480059933	
17.23	-0.278	-0.008201949829596478	
17.235	1.003	0.009835895465756132	
17.24	-0.298	0.02740866461284392	
17.245	-0.532	0.04499456942760765	
17.25	0.874	0.06571938863393487	
17.255	0.238	0.08530248334724147	
17.26	-0.648	0.09605689954304276	
17.265	0.377	0.10754360559322838	
17.27	0.921	0.1221589308489596	
17.275	-0.517	0.14125053487923808	
17.28	-0.193	0.15654853338629965	
17.285	1.171	0.16303724112829332	
17.29	-0.214	0.16953960316332253	
17.295	-0.471	0.173713051286773	
